# Temperatura_=_20.1
# Concentracion g/m^3_=_4090.0
# C_Vs_to_Am_M_A/Vsm_=_65563218390.804596
# pendiente_HvsI_1/m_=_3716.3
# ordenada_HvsI_A/m_=_1297.0
# frecuencia_Hz_=_135078.7969844534

Tiempo_(s)	Campo_(V.s)	Magnetizacion_(V.s)	Campo_(kA/m)	Magnetizacion_(A/m)
0.000000e+00	-5.406807e-06	-2.312126e-09	-3.838771e+01	-1.519889e+02
1.000000e-08	-5.406963e-06	-2.310879e-09	-3.838881e+01	-1.518694e+02
2.000000e-08	-5.406866e-06	-2.311894e-09	-3.838813e+01	-1.517538e+02
3.000000e-08	-5.406403e-06	-2.312109e-09	-3.838484e+01	-1.516437e+02
4.000000e-08	-5.405502e-06	-2.311582e-09	-3.837844e+01	-1.515407e+02
5.000000e-08	-5.404076e-06	-2.312628e-09	-3.836832e+01	-1.514465e+02
6.000000e-08	-5.402079e-06	-2.313955e-09	-3.835414e+01	-1.513624e+02
7.000000e-08	-5.399503e-06	-2.314718e-09	-3.833585e+01	-1.512897e+02
8.000000e-08	-5.396344e-06	-2.293811e-09	-3.831342e+01	-1.512294e+02
9.000000e-08	-5.392591e-06	-2.288206e-09	-3.828678e+01	-1.511825e+02
1.000000e-07	-5.388395e-06	-2.343600e-09	-3.825698e+01	-1.511495e+02
1.100000e-07	-5.384059e-06	-2.398702e-09	-3.822620e+01	-1.511309e+02
1.200000e-07	-5.379476e-06	-2.289537e-09	-3.819367e+01	-1.511267e+02
1.300000e-07	-5.374545e-06	-2.265438e-09	-3.815865e+01	-1.511368e+02
1.400000e-07	-5.369334e-06	-2.307477e-09	-3.812165e+01	-1.511607e+02
1.500000e-07	-5.363818e-06	-2.383247e-09	-3.808249e+01	-1.511979e+02
1.600000e-07	-5.357843e-06	-2.250453e-09	-3.804007e+01	-1.512472e+02
1.700000e-07	-5.351353e-06	-2.199699e-09	-3.799399e+01	-1.513076e+02
1.800000e-07	-5.344457e-06	-2.332079e-09	-3.794503e+01	-1.513776e+02
1.900000e-07	-5.337300e-06	-2.391199e-09	-3.789421e+01	-1.514556e+02
2.000000e-07	-5.329947e-06	-2.316406e-09	-3.784201e+01	-1.515398e+02
2.100000e-07	-5.322318e-06	-2.268371e-09	-3.778784e+01	-1.516282e+02
2.200000e-07	-5.314497e-06	-2.396206e-09	-3.773232e+01	-1.517189e+02
2.300000e-07	-5.306410e-06	-2.379168e-09	-3.767490e+01	-1.518096e+02
2.400000e-07	-5.297744e-06	-2.317513e-09	-3.761338e+01	-1.518982e+02
2.500000e-07	-5.288432e-06	-2.323796e-09	-3.754726e+01	-1.519825e+02
2.600000e-07	-5.278484e-06	-2.441371e-09	-3.747663e+01	-1.520604e+02
2.700000e-07	-5.267880e-06	-2.379887e-09	-3.740134e+01	-1.521298e+02
2.800000e-07	-5.256857e-06	-2.332579e-09	-3.732308e+01	-1.521886e+02
2.900000e-07	-5.245433e-06	-2.385995e-09	-3.724197e+01	-1.522352e+02
3.000000e-07	-5.233637e-06	-2.425365e-09	-3.715822e+01	-1.522678e+02
3.100000e-07	-5.221458e-06	-2.315820e-09	-3.707176e+01	-1.522850e+02
3.200000e-07	-5.208873e-06	-2.333053e-09	-3.698240e+01	-1.522855e+02
3.300000e-07	-5.195840e-06	-2.412602e-09	-3.688987e+01	-1.522683e+02
3.400000e-07	-5.182384e-06	-2.384999e-09	-3.679433e+01	-1.522326e+02
3.500000e-07	-5.168526e-06	-2.319238e-09	-3.669594e+01	-1.521779e+02
3.600000e-07	-5.154358e-06	-2.381305e-09	-3.659535e+01	-1.521041e+02
3.700000e-07	-5.139853e-06	-2.377613e-09	-3.649236e+01	-1.520110e+02
3.800000e-07	-5.124749e-06	-2.306710e-09	-3.638513e+01	-1.518990e+02
3.900000e-07	-5.108983e-06	-2.321190e-09	-3.627319e+01	-1.517686e+02
4.000000e-07	-5.092805e-06	-2.361068e-09	-3.615833e+01	-1.516204e+02
4.100000e-07	-5.076282e-06	-2.311581e-09	-3.604102e+01	-1.514556e+02
4.200000e-07	-5.059360e-06	-2.303385e-09	-3.592087e+01	-1.512750e+02
4.300000e-07	-5.042136e-06	-2.366011e-09	-3.579859e+01	-1.510801e+02
4.400000e-07	-5.024654e-06	-2.333259e-09	-3.567447e+01	-1.508722e+02
4.500000e-07	-5.006936e-06	-2.293763e-09	-3.554867e+01	-1.506528e+02
4.600000e-07	-4.988898e-06	-2.310941e-09	-3.542060e+01	-1.504234e+02
4.700000e-07	-4.970423e-06	-2.336181e-09	-3.528943e+01	-1.501856e+02
4.800000e-07	-4.951416e-06	-2.295082e-09	-3.515448e+01	-1.499409e+02
4.900000e-07	-4.932115e-06	-2.306792e-09	-3.501745e+01	-1.496909e+02
5.000000e-07	-4.912526e-06	-2.303958e-09	-3.487837e+01	-1.494371e+02
5.100000e-07	-4.892667e-06	-2.306329e-09	-3.473737e+01	-1.491807e+02
5.200000e-07	-4.872632e-06	-2.297218e-09	-3.459513e+01	-1.489230e+02
5.300000e-07	-4.852329e-06	-2.300074e-09	-3.445098e+01	-1.486652e+02
5.400000e-07	-4.831602e-06	-2.266567e-09	-3.430382e+01	-1.484081e+02
5.500000e-07	-4.810521e-06	-2.282943e-09	-3.415415e+01	-1.481526e+02
5.600000e-07	-4.789167e-06	-2.285882e-09	-3.400254e+01	-1.478993e+02
5.700000e-07	-4.767463e-06	-2.280582e-09	-3.384844e+01	-1.476485e+02
5.800000e-07	-4.745381e-06	-2.264474e-09	-3.369166e+01	-1.474005e+02
5.900000e-07	-4.722997e-06	-2.271916e-09	-3.353274e+01	-1.471553e+02
6.000000e-07	-4.700359e-06	-2.256080e-09	-3.337201e+01	-1.469128e+02
6.100000e-07	-4.677398e-06	-2.254046e-09	-3.320899e+01	-1.466728e+02
6.200000e-07	-4.654114e-06	-2.237954e-09	-3.304368e+01	-1.464348e+02
6.300000e-07	-4.630564e-06	-2.229846e-09	-3.287647e+01	-1.461982e+02
6.400000e-07	-4.606771e-06	-2.238956e-09	-3.270754e+01	-1.459623e+02
6.500000e-07	-4.582783e-06	-2.249450e-09	-3.253723e+01	-1.457265e+02
6.600000e-07	-4.558564e-06	-2.228205e-09	-3.236528e+01	-1.454899e+02
6.700000e-07	-4.533997e-06	-2.219113e-09	-3.219086e+01	-1.452516e+02
6.800000e-07	-4.508913e-06	-2.227189e-09	-3.201276e+01	-1.450109e+02
6.900000e-07	-4.483358e-06	-2.221922e-09	-3.183133e+01	-1.447667e+02
7.000000e-07	-4.457243e-06	-2.210351e-09	-3.164592e+01	-1.445184e+02
7.100000e-07	-4.430577e-06	-2.200430e-09	-3.145659e+01	-1.442652e+02
7.200000e-07	-4.403551e-06	-2.202097e-09	-3.126471e+01	-1.440062e+02
7.300000e-07	-4.376137e-06	-2.202053e-09	-3.107007e+01	-1.437411e+02
7.400000e-07	-4.348467e-06	-2.201684e-09	-3.087362e+01	-1.434692e+02
7.500000e-07	-4.320633e-06	-2.184475e-09	-3.067600e+01	-1.431902e+02
7.600000e-07	-4.292628e-06	-2.183341e-09	-3.047717e+01	-1.429038e+02
7.700000e-07	-4.264431e-06	-2.181051e-09	-3.027697e+01	-1.426098e+02
7.800000e-07	-4.235962e-06	-2.176542e-09	-3.007484e+01	-1.423083e+02
7.900000e-07	-4.207193e-06	-2.156491e-09	-2.987059e+01	-1.419994e+02
8.000000e-07	-4.178110e-06	-2.153422e-09	-2.966410e+01	-1.416832e+02
8.100000e-07	-4.148665e-06	-2.149024e-09	-2.945505e+01	-1.413602e+02
8.200000e-07	-4.118988e-06	-2.154069e-09	-2.924434e+01	-1.410307e+02
8.300000e-07	-4.089103e-06	-2.142739e-09	-2.903216e+01	-1.406953e+02
8.400000e-07	-4.058966e-06	-2.134721e-09	-2.881819e+01	-1.403545e+02
8.500000e-07	-4.028499e-06	-2.125485e-09	-2.860188e+01	-1.400089e+02
8.600000e-07	-3.997693e-06	-2.123171e-09	-2.838316e+01	-1.396592e+02
8.700000e-07	-3.966703e-06	-2.109196e-09	-2.816314e+01	-1.393060e+02
8.800000e-07	-3.935460e-06	-2.098043e-09	-2.794131e+01	-1.389501e+02
8.900000e-07	-3.903926e-06	-2.091098e-09	-2.771743e+01	-1.385919e+02
9.000000e-07	-3.872200e-06	-2.097969e-09	-2.749218e+01	-1.382321e+02
9.100000e-07	-3.840317e-06	-2.094035e-09	-2.726581e+01	-1.378713e+02
9.200000e-07	-3.808229e-06	-2.085790e-09	-2.703799e+01	-1.375097e+02
9.300000e-07	-3.775888e-06	-2.073127e-09	-2.680837e+01	-1.371479e+02
9.400000e-07	-3.743370e-06	-2.066294e-09	-2.657750e+01	-1.367860e+02
9.500000e-07	-3.710524e-06	-2.058982e-09	-2.634429e+01	-1.364242e+02
9.600000e-07	-3.677277e-06	-2.051191e-09	-2.610824e+01	-1.360625e+02
9.700000e-07	-3.643675e-06	-2.046157e-09	-2.586967e+01	-1.357010e+02
9.800000e-07	-3.609556e-06	-2.042125e-09	-2.562743e+01	-1.353395e+02
9.900000e-07	-3.574887e-06	-2.035103e-09	-2.538128e+01	-1.349776e+02
1.000000e-06	-3.539845e-06	-2.023639e-09	-2.513250e+01	-1.346150e+02
1.010000e-06	-3.504503e-06	-2.013139e-09	-2.488157e+01	-1.342514e+02
1.020000e-06	-3.468946e-06	-2.001445e-09	-2.462912e+01	-1.338861e+02
1.030000e-06	-3.433242e-06	-1.995757e-09	-2.437563e+01	-1.335187e+02
1.040000e-06	-3.397398e-06	-1.992227e-09	-2.412113e+01	-1.331485e+02
1.050000e-06	-3.361435e-06	-1.991950e-09	-2.386580e+01	-1.327748e+02
1.060000e-06	-3.325324e-06	-1.987443e-09	-2.360942e+01	-1.323971e+02
1.070000e-06	-3.289042e-06	-1.983961e-09	-2.335182e+01	-1.320146e+02
1.080000e-06	-3.252501e-06	-1.974220e-09	-2.309238e+01	-1.316267e+02
1.090000e-06	-3.215710e-06	-1.964580e-09	-2.283117e+01	-1.312329e+02
1.100000e-06	-3.178625e-06	-1.953931e-09	-2.256787e+01	-1.308324e+02
1.110000e-06	-3.141256e-06	-1.951432e-09	-2.230256e+01	-1.304249e+02
1.120000e-06	-3.103708e-06	-1.945702e-09	-2.203597e+01	-1.300099e+02
1.130000e-06	-3.065942e-06	-1.941000e-09	-2.176784e+01	-1.295871e+02
1.140000e-06	-3.028020e-06	-1.932059e-09	-2.149859e+01	-1.291560e+02
1.150000e-06	-2.989994e-06	-1.924153e-09	-2.122861e+01	-1.287166e+02
1.160000e-06	-2.951719e-06	-1.913222e-09	-2.095686e+01	-1.282686e+02
1.170000e-06	-2.913196e-06	-1.908012e-09	-2.068336e+01	-1.278121e+02
1.180000e-06	-2.874410e-06	-1.902923e-09	-2.040798e+01	-1.273470e+02
1.190000e-06	-2.835402e-06	-1.900226e-09	-2.013103e+01	-1.268735e+02
1.200000e-06	-2.796262e-06	-1.891593e-09	-1.985314e+01	-1.263917e+02
1.210000e-06	-2.756982e-06	-1.880588e-09	-1.957425e+01	-1.259018e+02
1.220000e-06	-2.717562e-06	-1.865787e-09	-1.929438e+01	-1.254041e+02
1.230000e-06	-2.677909e-06	-1.854409e-09	-1.901285e+01	-1.248988e+02
1.240000e-06	-2.638075e-06	-1.844237e-09	-1.873003e+01	-1.243861e+02
1.250000e-06	-2.598158e-06	-1.839826e-09	-1.844662e+01	-1.238665e+02
1.260000e-06	-2.558161e-06	-1.838727e-09	-1.816265e+01	-1.233400e+02
1.270000e-06	-2.518159e-06	-1.835517e-09	-1.787864e+01	-1.228070e+02
1.280000e-06	-2.478027e-06	-1.829692e-09	-1.759371e+01	-1.222675e+02
1.290000e-06	-2.437724e-06	-1.819393e-09	-1.730756e+01	-1.217218e+02
1.300000e-06	-2.397288e-06	-1.804403e-09	-1.702047e+01	-1.211698e+02
1.310000e-06	-2.356592e-06	-1.783760e-09	-1.673153e+01	-1.206116e+02
1.320000e-06	-2.315691e-06	-1.768805e-09	-1.644114e+01	-1.200470e+02
1.330000e-06	-2.274542e-06	-1.760529e-09	-1.614898e+01	-1.194758e+02
1.340000e-06	-2.233074e-06	-1.759946e-09	-1.585457e+01	-1.188977e+02
1.350000e-06	-2.191408e-06	-1.757954e-09	-1.555874e+01	-1.183124e+02
1.360000e-06	-2.149418e-06	-1.753324e-09	-1.526062e+01	-1.177193e+02
1.370000e-06	-2.107004e-06	-1.742746e-09	-1.495949e+01	-1.171179e+02
1.380000e-06	-2.064391e-06	-1.728932e-09	-1.465694e+01	-1.165076e+02
1.390000e-06	-2.021539e-06	-1.711310e-09	-1.435269e+01	-1.158876e+02
1.400000e-06	-1.978417e-06	-1.697312e-09	-1.404653e+01	-1.152572e+02
1.410000e-06	-1.935139e-06	-1.686007e-09	-1.373926e+01	-1.146155e+02
1.420000e-06	-1.891715e-06	-1.678658e-09	-1.343096e+01	-1.139616e+02
1.430000e-06	-1.848161e-06	-1.668136e-09	-1.312173e+01	-1.132948e+02
1.440000e-06	-1.804495e-06	-1.656235e-09	-1.281171e+01	-1.126140e+02
1.450000e-06	-1.760783e-06	-1.644830e-09	-1.250136e+01	-1.119183e+02
1.460000e-06	-1.717033e-06	-1.637199e-09	-1.219073e+01	-1.112070e+02
1.470000e-06	-1.673189e-06	-1.624685e-09	-1.187945e+01	-1.104789e+02
1.480000e-06	-1.629267e-06	-1.608453e-09	-1.156761e+01	-1.097335e+02
1.490000e-06	-1.585338e-06	-1.594057e-09	-1.125572e+01	-1.089697e+02
1.500000e-06	-1.541327e-06	-1.585355e-09	-1.094324e+01	-1.081869e+02
1.510000e-06	-1.497175e-06	-1.575868e-09	-1.062977e+01	-1.073843e+02
1.520000e-06	-1.452994e-06	-1.561099e-09	-1.031609e+01	-1.065613e+02
1.530000e-06	-1.408810e-06	-1.545400e-09	-1.000239e+01	-1.057173e+02
1.540000e-06	-1.364512e-06	-1.533096e-09	-9.687880e+00	-1.048517e+02
1.550000e-06	-1.320085e-06	-1.522399e-09	-9.372449e+00	-1.039641e+02
1.560000e-06	-1.275533e-06	-1.509742e-09	-9.056141e+00	-1.030539e+02
1.570000e-06	-1.230907e-06	-1.494929e-09	-8.739300e+00	-1.021208e+02
1.580000e-06	-1.186218e-06	-1.480628e-09	-8.422010e+00	-1.011643e+02
1.590000e-06	-1.141418e-06	-1.468552e-09	-8.103939e+00	-1.001840e+02
1.600000e-06	-1.096674e-06	-1.452203e-09	-7.786258e+00	-9.917964e+01
1.610000e-06	-1.051840e-06	-1.428235e-09	-7.467940e+00	-9.815071e+01
1.620000e-06	-1.006725e-06	-1.407045e-09	-7.147635e+00	-9.709681e+01
1.630000e-06	-9.614194e-07	-1.393996e-09	-6.825967e+00	-9.601747e+01
1.640000e-06	-9.160640e-07	-1.382529e-09	-6.503949e+00	-9.491215e+01
1.650000e-06	-8.707336e-07	-1.370827e-09	-6.182109e+00	-9.378028e+01
1.660000e-06	-8.254166e-07	-1.358057e-09	-5.860363e+00	-9.262119e+01
1.670000e-06	-7.800521e-07	-1.345156e-09	-5.538280e+00	-9.143411e+01
1.680000e-06	-7.346180e-07	-1.323455e-09	-5.215704e+00	-9.021821e+01
1.690000e-06	-6.891863e-07	-1.292457e-09	-4.893144e+00	-8.897253e+01
1.700000e-06	-6.437263e-07	-1.260513e-09	-4.570383e+00	-8.769603e+01
1.710000e-06	-5.981816e-07	-1.236254e-09	-4.247021e+00	-8.638756e+01
1.720000e-06	-5.525373e-07	-1.217936e-09	-3.922952e+00	-8.504585e+01
1.730000e-06	-5.068830e-07	-1.203032e-09	-3.598811e+00	-8.366958e+01
1.740000e-06	-4.611911e-07	-1.190161e-09	-3.274404e+00	-8.225731e+01
1.750000e-06	-4.154893e-07	-1.180550e-09	-2.949926e+00	-8.080754e+01
1.760000e-06	-3.697456e-07	-1.165206e-09	-2.625152e+00	-7.931872e+01
1.770000e-06	-3.238833e-07	-1.137183e-09	-2.299534e+00	-7.778924e+01
1.780000e-06	-2.780293e-07	-1.099832e-09	-1.973976e+00	-7.621748e+01
1.790000e-06	-2.321994e-07	-1.065648e-09	-1.648589e+00	-7.460182e+01
1.800000e-06	-1.862942e-07	-1.036128e-09	-1.322668e+00	-7.294065e+01
1.810000e-06	-1.403753e-07	-1.012833e-09	-9.966487e-01	-7.123243e+01
1.820000e-06	-9.455308e-08	-9.945387e-10	-6.713160e-01	-6.947566e+01
1.830000e-06	-4.876995e-08	-9.791281e-10	-3.462611e-01	-6.766896e+01
1.840000e-06	-2.946856e-09	-9.614903e-10	-2.092234e-02	-6.581104e+01
1.850000e-06	4.292654e-08	-9.369835e-10	3.047735e-01	-6.390078e+01
1.860000e-06	8.876531e-08	-9.047353e-10	6.302235e-01	-6.193721e+01
1.870000e-06	1.345271e-07	-8.670862e-10	9.551272e-01	-5.991954e+01
1.880000e-06	1.802777e-07	-8.297523e-10	1.279951e+00	-5.784721e+01
1.890000e-06	2.260821e-07	-7.936932e-10	1.605157e+00	-5.571985e+01
1.900000e-06	2.718454e-07	-7.587093e-10	1.930071e+00	-5.353733e+01
1.910000e-06	3.175995e-07	-7.270213e-10	2.254920e+00	-5.129978e+01
1.920000e-06	3.633685e-07	-6.996450e-10	2.579875e+00	-4.900756e+01
1.930000e-06	4.090735e-07	-6.731612e-10	2.904375e+00	-4.666131e+01
1.940000e-06	4.547255e-07	-6.440108e-10	3.228499e+00	-4.426189e+01
1.950000e-06	5.003323e-07	-6.085662e-10	3.552302e+00	-4.181044e+01
1.960000e-06	5.458698e-07	-5.705617e-10	3.875613e+00	-3.930834e+01
1.970000e-06	5.914015e-07	-5.311976e-10	4.198883e+00	-3.675721e+01
1.980000e-06	6.369544e-07	-4.895144e-10	4.522303e+00	-3.415888e+01
1.990000e-06	6.824275e-07	-4.471334e-10	4.845157e+00	-3.151540e+01
2.000000e-06	7.279064e-07	-4.064067e-10	5.168052e+00	-2.882902e+01
2.010000e-06	7.734124e-07	-3.670116e-10	5.491139e+00	-2.610215e+01
2.020000e-06	8.188679e-07	-3.308323e-10	5.813868e+00	-2.333736e+01
2.030000e-06	8.643061e-07	-2.964267e-10	6.136474e+00	-2.053735e+01
2.040000e-06	9.096638e-07	-2.598428e-10	6.458508e+00	-1.770492e+01
2.050000e-06	9.548383e-07	-2.192593e-10	6.779242e+00	-1.484297e+01
2.060000e-06	9.999159e-07	-1.764334e-10	7.099288e+00	-1.195445e+01
2.070000e-06	1.044918e-06	-1.302137e-10	7.418797e+00	-9.042340e+00
2.080000e-06	1.089819e-06	-8.270910e-11	7.737588e+00	-6.109666e+00
2.090000e-06	1.134672e-06	-3.532023e-11	8.056039e+00	-3.159432e+00
2.100000e-06	1.179386e-06	8.655484e-12	8.373506e+00	-1.946273e-01
2.110000e-06	1.223946e-06	5.051040e-11	8.689873e+00	2.781795e+00
2.120000e-06	1.268460e-06	9.067393e-11	9.005918e+00	5.766936e+00
2.130000e-06	1.312885e-06	1.320806e-10	9.321331e+00	8.757956e+00
2.140000e-06	1.357212e-06	1.782286e-10	9.636051e+00	1.175209e+01
2.150000e-06	1.401484e-06	2.262879e-10	9.950376e+00	1.474666e+01
2.160000e-06	1.445633e-06	2.743064e-10	1.026383e+01	1.773907e+01
2.170000e-06	1.489694e-06	3.208224e-10	1.057666e+01	2.072682e+01
2.180000e-06	1.533720e-06	3.644678e-10	1.088923e+01	2.370748e+01
2.190000e-06	1.577671e-06	4.049068e-10	1.120128e+01	2.667874e+01
2.200000e-06	1.621564e-06	4.432099e-10	1.151292e+01	2.963835e+01
2.210000e-06	1.665449e-06	4.843094e-10	1.182449e+01	3.258417e+01
2.220000e-06	1.709326e-06	5.300322e-10	1.213602e+01	3.551412e+01
2.230000e-06	1.753161e-06	5.747488e-10	1.244724e+01	3.842619e+01
2.240000e-06	1.796954e-06	6.169950e-10	1.275817e+01	4.131845e+01
2.250000e-06	1.840686e-06	6.580234e-10	1.306866e+01	4.418902e+01
2.260000e-06	1.884299e-06	6.987880e-10	1.337830e+01	4.703608e+01
2.270000e-06	1.927820e-06	7.383792e-10	1.368730e+01	4.985785e+01
2.280000e-06	1.971164e-06	7.742918e-10	1.399504e+01	5.265259e+01
2.290000e-06	2.014240e-06	8.116104e-10	1.430088e+01	5.541860e+01
2.300000e-06	2.057167e-06	8.558811e-10	1.460565e+01	5.815421e+01
2.310000e-06	2.099904e-06	9.005402e-10	1.490907e+01	6.085778e+01
2.320000e-06	2.142243e-06	9.405158e-10	1.520968e+01	6.352770e+01
2.330000e-06	2.184320e-06	9.778774e-10	1.550842e+01	6.616239e+01
2.340000e-06	2.226280e-06	1.014614e-09	1.580633e+01	6.876031e+01
2.350000e-06	2.267876e-06	1.049571e-09	1.610166e+01	7.131994e+01
2.360000e-06	2.309101e-06	1.084202e-09	1.639435e+01	7.383981e+01
2.370000e-06	2.350143e-06	1.118875e-09	1.668575e+01	7.631848e+01
2.380000e-06	2.390872e-06	1.155178e-09	1.697492e+01	7.875458e+01
2.390000e-06	2.431300e-06	1.192610e-09	1.726195e+01	8.114680e+01
2.400000e-06	2.471584e-06	1.227831e-09	1.754796e+01	8.349387e+01
2.410000e-06	2.511751e-06	1.259163e-09	1.783314e+01	8.579463e+01
2.420000e-06	2.551798e-06	1.288921e-09	1.811747e+01	8.804798e+01
2.430000e-06	2.591732e-06	1.318883e-09	1.840100e+01	9.025295e+01
2.440000e-06	2.631571e-06	1.346291e-09	1.868385e+01	9.240862e+01
2.450000e-06	2.671308e-06	1.372161e-09	1.896598e+01	9.451424e+01
2.460000e-06	2.711036e-06	1.400005e-09	1.924805e+01	9.656912e+01
2.470000e-06	2.750646e-06	1.430429e-09	1.952927e+01	9.857274e+01
2.480000e-06	2.789985e-06	1.462091e-09	1.980858e+01	1.005247e+02
2.490000e-06	2.829049e-06	1.489705e-09	2.008592e+01	1.024247e+02
2.500000e-06	2.867832e-06	1.513049e-09	2.036128e+01	1.042726e+02
2.510000e-06	2.906330e-06	1.537414e-09	2.063461e+01	1.060684e+02
2.520000e-06	2.944612e-06	1.562847e-09	2.090641e+01	1.078122e+02
2.530000e-06	2.982788e-06	1.586090e-09	2.117745e+01	1.095043e+02
2.540000e-06	3.020852e-06	1.609804e-09	2.144770e+01	1.111450e+02
2.550000e-06	3.058712e-06	1.637599e-09	2.171651e+01	1.127349e+02
2.560000e-06	3.096321e-06	1.663817e-09	2.198353e+01	1.142746e+02
2.570000e-06	3.133722e-06	1.683517e-09	2.224907e+01	1.157648e+02
2.580000e-06	3.170935e-06	1.700603e-09	2.251327e+01	1.172062e+02
2.590000e-06	3.207931e-06	1.718886e-09	2.277594e+01	1.185999e+02
2.600000e-06	3.244699e-06	1.737106e-09	2.303699e+01	1.199467e+02
2.610000e-06	3.281259e-06	1.754563e-09	2.329656e+01	1.212478e+02
2.620000e-06	3.317574e-06	1.773064e-09	2.355440e+01	1.225041e+02
2.630000e-06	3.353678e-06	1.793704e-09	2.381073e+01	1.237168e+02
2.640000e-06	3.389675e-06	1.813681e-09	2.406630e+01	1.248872e+02
2.650000e-06	3.425569e-06	1.827564e-09	2.432115e+01	1.260162e+02
2.660000e-06	3.461374e-06	1.837517e-09	2.457536e+01	1.271052e+02
2.670000e-06	3.497064e-06	1.849595e-09	2.482875e+01	1.281554e+02
2.680000e-06	3.532523e-06	1.865211e-09	2.508051e+01	1.291678e+02
2.690000e-06	3.567676e-06	1.878307e-09	2.533009e+01	1.301437e+02
2.700000e-06	3.602485e-06	1.889752e-09	2.557723e+01	1.310843e+02
2.710000e-06	3.636794e-06	1.905796e-09	2.582082e+01	1.319906e+02
2.720000e-06	3.670554e-06	1.924741e-09	2.606052e+01	1.328637e+02
2.730000e-06	3.703905e-06	1.938427e-09	2.629730e+01	1.337048e+02
2.740000e-06	3.736804e-06	1.941967e-09	2.653088e+01	1.345149e+02
2.750000e-06	3.769318e-06	1.946857e-09	2.676172e+01	1.352950e+02
2.760000e-06	3.801555e-06	1.958829e-09	2.699060e+01	1.360461e+02
2.770000e-06	3.833536e-06	1.972880e-09	2.721767e+01	1.367691e+02
2.780000e-06	3.865415e-06	1.984244e-09	2.744400e+01	1.374651e+02
2.790000e-06	3.897229e-06	1.995468e-09	2.766988e+01	1.381349e+02
2.800000e-06	3.928878e-06	2.010000e-09	2.789458e+01	1.387794e+02
2.810000e-06	3.960253e-06	2.022699e-09	2.811735e+01	1.393996e+02
2.820000e-06	3.991326e-06	2.026043e-09	2.833796e+01	1.399963e+02
2.830000e-06	4.022099e-06	2.025632e-09	2.855644e+01	1.405704e+02
2.840000e-06	4.052548e-06	2.030973e-09	2.877263e+01	1.411228e+02
2.850000e-06	4.082677e-06	2.043139e-09	2.898654e+01	1.416542e+02
2.860000e-06	4.112585e-06	2.055102e-09	2.919888e+01	1.421656e+02
2.870000e-06	4.142281e-06	2.064261e-09	2.940972e+01	1.426577e+02
2.880000e-06	4.171763e-06	2.073388e-09	2.961904e+01	1.431314e+02
2.890000e-06	4.200945e-06	2.081987e-09	2.982623e+01	1.435875e+02
2.900000e-06	4.229761e-06	2.085164e-09	3.003082e+01	1.440268e+02
