# Temperatura_=_18.05
# Concentracion g/m^3_=_4090.0
# C_Vs_to_Am_M_A/Vsm_=_65563218390.804596
# pendiente_HvsI_1/m_=_3716.3
# ordenada_HvsI_A/m_=_1297.0
# frecuencia_Hz_=_135084.00538203344

Tiempo_(s)	Campo_(V.s)	Magnetizacion_(V.s)	Campo_(kA/m)	Magnetizacion_(A/m)
0.000000e+00	-5.416326e-06	-2.279616e-09	-3.840021e+01	-1.509873e+02
1.000000e-08	-5.416618e-06	-2.283614e-09	-3.840228e+01	-1.508313e+02
2.000000e-08	-5.416689e-06	-2.284009e-09	-3.840278e+01	-1.506761e+02
3.000000e-08	-5.416474e-06	-2.279091e-09	-3.840126e+01	-1.505234e+02
4.000000e-08	-5.415856e-06	-2.271923e-09	-3.839688e+01	-1.503748e+02
5.000000e-08	-5.414757e-06	-2.265307e-09	-3.838909e+01	-1.502322e+02
6.000000e-08	-5.413088e-06	-2.266243e-09	-3.837725e+01	-1.500970e+02
7.000000e-08	-5.410725e-06	-2.265288e-09	-3.836050e+01	-1.499707e+02
8.000000e-08	-5.407716e-06	-2.239380e-09	-3.833917e+01	-1.498549e+02
9.000000e-08	-5.404233e-06	-2.215827e-09	-3.831448e+01	-1.497506e+02
1.000000e-07	-5.400280e-06	-2.302432e-09	-3.828645e+01	-1.496590e+02
1.100000e-07	-5.395982e-06	-2.396220e-09	-3.825598e+01	-1.495809e+02
1.200000e-07	-5.391521e-06	-2.301223e-09	-3.822435e+01	-1.495169e+02
1.300000e-07	-5.386849e-06	-2.168789e-09	-3.819122e+01	-1.494675e+02
1.400000e-07	-5.381907e-06	-2.237619e-09	-3.815619e+01	-1.494328e+02
1.500000e-07	-5.376551e-06	-2.391784e-09	-3.811822e+01	-1.494126e+02
1.600000e-07	-5.370825e-06	-2.304009e-09	-3.807762e+01	-1.494067e+02
1.700000e-07	-5.364924e-06	-2.105759e-09	-3.803579e+01	-1.494145e+02
1.800000e-07	-5.358525e-06	-2.212767e-09	-3.799042e+01	-1.494351e+02
1.900000e-07	-5.351544e-06	-2.412924e-09	-3.794093e+01	-1.494674e+02
2.000000e-07	-5.344295e-06	-2.356532e-09	-3.788953e+01	-1.495102e+02
2.100000e-07	-5.336838e-06	-2.213946e-09	-3.783666e+01	-1.495619e+02
2.200000e-07	-5.329141e-06	-2.310248e-09	-3.778209e+01	-1.496210e+02
2.300000e-07	-5.321158e-06	-2.415860e-09	-3.772550e+01	-1.496857e+02
2.400000e-07	-5.312829e-06	-2.307091e-09	-3.766644e+01	-1.497541e+02
2.500000e-07	-5.303982e-06	-2.268412e-09	-3.760372e+01	-1.498241e+02
2.600000e-07	-5.294413e-06	-2.401082e-09	-3.753588e+01	-1.498938e+02
2.700000e-07	-5.284229e-06	-2.401095e-09	-3.746368e+01	-1.499612e+02
2.800000e-07	-5.273538e-06	-2.292120e-09	-3.738789e+01	-1.500243e+02
2.900000e-07	-5.262354e-06	-2.353061e-09	-3.730860e+01	-1.500810e+02
3.000000e-07	-5.250732e-06	-2.436615e-09	-3.722620e+01	-1.501296e+02
3.100000e-07	-5.238744e-06	-2.328442e-09	-3.714121e+01	-1.501683e+02
3.200000e-07	-5.226375e-06	-2.262033e-09	-3.705351e+01	-1.501954e+02
3.300000e-07	-5.213568e-06	-2.398446e-09	-3.696271e+01	-1.502096e+02
3.400000e-07	-5.200461e-06	-2.426719e-09	-3.686979e+01	-1.502096e+02
3.500000e-07	-5.187074e-06	-2.313028e-09	-3.677488e+01	-1.501944e+02
3.600000e-07	-5.173285e-06	-2.309822e-09	-3.667712e+01	-1.501631e+02
3.700000e-07	-5.159063e-06	-2.384001e-09	-3.657629e+01	-1.501151e+02
3.800000e-07	-5.144313e-06	-2.333926e-09	-3.647171e+01	-1.500500e+02
3.900000e-07	-5.129055e-06	-2.290711e-09	-3.636354e+01	-1.499678e+02
4.000000e-07	-5.113206e-06	-2.332252e-09	-3.625117e+01	-1.498685e+02
4.100000e-07	-5.096756e-06	-2.327395e-09	-3.613455e+01	-1.497524e+02
4.200000e-07	-5.079925e-06	-2.299085e-09	-3.601522e+01	-1.496200e+02
4.300000e-07	-5.062914e-06	-2.345989e-09	-3.589462e+01	-1.494719e+02
4.400000e-07	-5.045748e-06	-2.344602e-09	-3.577292e+01	-1.493090e+02
4.500000e-07	-5.028221e-06	-2.282820e-09	-3.564865e+01	-1.491323e+02
4.600000e-07	-5.010285e-06	-2.289326e-09	-3.552150e+01	-1.489430e+02
4.700000e-07	-4.992010e-06	-2.331795e-09	-3.539193e+01	-1.487421e+02
4.800000e-07	-4.973260e-06	-2.304012e-09	-3.525900e+01	-1.485309e+02
4.900000e-07	-4.954056e-06	-2.272164e-09	-3.512285e+01	-1.483108e+02
5.000000e-07	-4.934582e-06	-2.292110e-09	-3.498478e+01	-1.480830e+02
5.100000e-07	-4.914851e-06	-2.310888e-09	-3.484489e+01	-1.478489e+02
5.200000e-07	-4.894986e-06	-2.303873e-09	-3.470406e+01	-1.476096e+02
5.300000e-07	-4.874925e-06	-2.283832e-09	-3.456183e+01	-1.473664e+02
5.400000e-07	-4.854586e-06	-2.268452e-09	-3.441763e+01	-1.471203e+02
5.500000e-07	-4.833854e-06	-2.277419e-09	-3.427065e+01	-1.468724e+02
5.600000e-07	-4.812733e-06	-2.288286e-09	-3.412091e+01	-1.466235e+02
5.700000e-07	-4.791268e-06	-2.265539e-09	-3.396873e+01	-1.463743e+02
5.800000e-07	-4.769441e-06	-2.250559e-09	-3.381398e+01	-1.461255e+02
5.900000e-07	-4.747340e-06	-2.260704e-09	-3.365729e+01	-1.458776e+02
6.000000e-07	-4.724865e-06	-2.267183e-09	-3.349795e+01	-1.456308e+02
6.100000e-07	-4.702089e-06	-2.256363e-09	-3.333648e+01	-1.453853e+02
6.200000e-07	-4.679069e-06	-2.239901e-09	-3.317327e+01	-1.451412e+02
6.300000e-07	-4.655689e-06	-2.221391e-09	-3.300751e+01	-1.448983e+02
6.400000e-07	-4.631947e-06	-2.231439e-09	-3.283919e+01	-1.446565e+02
6.500000e-07	-4.607967e-06	-2.241928e-09	-3.266918e+01	-1.444155e+02
6.600000e-07	-4.583871e-06	-2.218404e-09	-3.249834e+01	-1.441747e+02
6.700000e-07	-4.559539e-06	-2.197206e-09	-3.232583e+01	-1.439338e+02
6.800000e-07	-4.534838e-06	-2.214390e-09	-3.215071e+01	-1.436921e+02
6.900000e-07	-4.509559e-06	-2.222423e-09	-3.197149e+01	-1.434491e+02
7.000000e-07	-4.483635e-06	-2.206153e-09	-3.178770e+01	-1.432042e+02
7.100000e-07	-4.457221e-06	-2.191606e-09	-3.160043e+01	-1.429568e+02
7.200000e-07	-4.430297e-06	-2.193733e-09	-3.140954e+01	-1.427062e+02
7.300000e-07	-4.402960e-06	-2.199393e-09	-3.121573e+01	-1.424519e+02
7.400000e-07	-4.375366e-06	-2.195726e-09	-3.102010e+01	-1.421933e+02
7.500000e-07	-4.347579e-06	-2.177543e-09	-3.082310e+01	-1.419299e+02
7.600000e-07	-4.319672e-06	-2.171233e-09	-3.062525e+01	-1.416614e+02
7.700000e-07	-4.291633e-06	-2.179393e-09	-3.042646e+01	-1.413874e+02
7.800000e-07	-4.263323e-06	-2.175425e-09	-3.022575e+01	-1.411076e+02
7.900000e-07	-4.234652e-06	-2.158073e-09	-3.002248e+01	-1.408218e+02
8.000000e-07	-4.205672e-06	-2.149956e-09	-2.981702e+01	-1.405298e+02
8.100000e-07	-4.176418e-06	-2.153579e-09	-2.960962e+01	-1.402318e+02
8.200000e-07	-4.146835e-06	-2.154197e-09	-2.939988e+01	-1.399277e+02
8.300000e-07	-4.116963e-06	-2.146941e-09	-2.918810e+01	-1.396177e+02
8.400000e-07	-4.086890e-06	-2.134013e-09	-2.897489e+01	-1.393020e+02
8.500000e-07	-4.056529e-06	-2.130138e-09	-2.875963e+01	-1.389807e+02
8.600000e-07	-4.025827e-06	-2.131100e-09	-2.854197e+01	-1.386542e+02
8.700000e-07	-3.994849e-06	-2.120994e-09	-2.832234e+01	-1.383228e+02
8.800000e-07	-3.963615e-06	-2.104876e-09	-2.810090e+01	-1.379869e+02
8.900000e-07	-3.932184e-06	-2.101311e-09	-2.787807e+01	-1.376468e+02
9.000000e-07	-3.900628e-06	-2.108635e-09	-2.765434e+01	-1.373029e+02
9.100000e-07	-3.868922e-06	-2.108033e-09	-2.742956e+01	-1.369555e+02
9.200000e-07	-3.837008e-06	-2.093503e-09	-2.720330e+01	-1.366050e+02
9.300000e-07	-3.804812e-06	-2.082221e-09	-2.697503e+01	-1.362517e+02
9.400000e-07	-3.772348e-06	-2.077646e-09	-2.674488e+01	-1.358958e+02
9.500000e-07	-3.739622e-06	-2.071979e-09	-2.651285e+01	-1.355376e+02
9.600000e-07	-3.706454e-06	-2.059917e-09	-2.627771e+01	-1.351772e+02
9.700000e-07	-3.672840e-06	-2.053874e-09	-2.603939e+01	-1.348148e+02
9.800000e-07	-3.638827e-06	-2.057636e-09	-2.579825e+01	-1.344503e+02
9.900000e-07	-3.604379e-06	-2.060236e-09	-2.555402e+01	-1.340839e+02
1.000000e-06	-3.569558e-06	-2.049547e-09	-2.530715e+01	-1.337154e+02
1.010000e-06	-3.534369e-06	-2.034891e-09	-2.505767e+01	-1.333447e+02
1.020000e-06	-3.498933e-06	-2.022893e-09	-2.480644e+01	-1.329718e+02
1.030000e-06	-3.463357e-06	-2.012197e-09	-2.455422e+01	-1.325963e+02
1.040000e-06	-3.427603e-06	-2.001684e-09	-2.430073e+01	-1.322180e+02
1.050000e-06	-3.391636e-06	-1.997674e-09	-2.404574e+01	-1.318367e+02
1.060000e-06	-3.355514e-06	-2.000077e-09	-2.378964e+01	-1.314521e+02
1.070000e-06	-3.319291e-06	-2.003060e-09	-2.353283e+01	-1.310639e+02
1.080000e-06	-3.282898e-06	-1.996631e-09	-2.327481e+01	-1.306717e+02
1.090000e-06	-3.246245e-06	-1.981974e-09	-2.301495e+01	-1.302753e+02
1.100000e-06	-3.209242e-06	-1.969348e-09	-2.275261e+01	-1.298743e+02
1.110000e-06	-3.172020e-06	-1.962003e-09	-2.248872e+01	-1.294684e+02
1.120000e-06	-3.134545e-06	-1.953959e-09	-2.222303e+01	-1.290574e+02
1.130000e-06	-3.096759e-06	-1.942650e-09	-2.195514e+01	-1.286409e+02
1.140000e-06	-3.058877e-06	-1.934793e-09	-2.168657e+01	-1.282188e+02
1.150000e-06	-3.020918e-06	-1.932748e-09	-2.141745e+01	-1.277908e+02
1.160000e-06	-2.982751e-06	-1.928336e-09	-2.114685e+01	-1.273567e+02
1.170000e-06	-2.944313e-06	-1.916794e-09	-2.087434e+01	-1.269164e+02
1.180000e-06	-2.905670e-06	-1.902727e-09	-2.060037e+01	-1.264697e+02
1.190000e-06	-2.866896e-06	-1.895266e-09	-2.032548e+01	-1.260165e+02
1.200000e-06	-2.827845e-06	-1.892505e-09	-2.004862e+01	-1.255567e+02
1.210000e-06	-2.788485e-06	-1.882769e-09	-1.976957e+01	-1.250901e+02
1.220000e-06	-2.748996e-06	-1.870076e-09	-1.948960e+01	-1.246169e+02
1.230000e-06	-2.709431e-06	-1.859454e-09	-1.920909e+01	-1.241367e+02
1.240000e-06	-2.669745e-06	-1.854021e-09	-1.892773e+01	-1.236496e+02
1.250000e-06	-2.629912e-06	-1.846271e-09	-1.864533e+01	-1.231554e+02
1.260000e-06	-2.589959e-06	-1.837627e-09	-1.836207e+01	-1.226540e+02
1.270000e-06	-2.549896e-06	-1.829033e-09	-1.807804e+01	-1.221452e+02
1.280000e-06	-2.509688e-06	-1.823703e-09	-1.779298e+01	-1.216290e+02
1.290000e-06	-2.469409e-06	-1.816398e-09	-1.750741e+01	-1.211050e+02
1.300000e-06	-2.429049e-06	-1.802581e-09	-1.722127e+01	-1.205731e+02
1.310000e-06	-2.388408e-06	-1.785341e-09	-1.693314e+01	-1.200329e+02
1.320000e-06	-2.347448e-06	-1.771171e-09	-1.664274e+01	-1.194841e+02
1.330000e-06	-2.306275e-06	-1.764298e-09	-1.635083e+01	-1.189265e+02
1.340000e-06	-2.264866e-06	-1.759571e-09	-1.605726e+01	-1.183596e+02
1.350000e-06	-2.223149e-06	-1.750824e-09	-1.576150e+01	-1.177830e+02
1.360000e-06	-2.181039e-06	-1.741440e-09	-1.546294e+01	-1.171962e+02
1.370000e-06	-2.138554e-06	-1.732845e-09	-1.516174e+01	-1.165988e+02
1.380000e-06	-2.095845e-06	-1.721788e-09	-1.485895e+01	-1.159904e+02
1.390000e-06	-2.052887e-06	-1.708021e-09	-1.455438e+01	-1.153703e+02
1.400000e-06	-2.009687e-06	-1.697066e-09	-1.424811e+01	-1.147381e+02
1.410000e-06	-1.966424e-06	-1.690408e-09	-1.394138e+01	-1.140933e+02
1.420000e-06	-1.923120e-06	-1.683338e-09	-1.363438e+01	-1.134354e+02
1.430000e-06	-1.879607e-06	-1.674713e-09	-1.332588e+01	-1.127640e+02
1.440000e-06	-1.835941e-06	-1.662331e-09	-1.301630e+01	-1.120785e+02
1.450000e-06	-1.792290e-06	-1.648034e-09	-1.270683e+01	-1.113785e+02
1.460000e-06	-1.748615e-06	-1.636848e-09	-1.239718e+01	-1.106636e+02
1.470000e-06	-1.704752e-06	-1.627848e-09	-1.208621e+01	-1.099335e+02
1.480000e-06	-1.660752e-06	-1.615643e-09	-1.177426e+01	-1.091878e+02
1.490000e-06	-1.616678e-06	-1.604728e-09	-1.146179e+01	-1.084262e+02
1.500000e-06	-1.572493e-06	-1.596788e-09	-1.114853e+01	-1.076484e+02
1.510000e-06	-1.528316e-06	-1.586976e-09	-1.083533e+01	-1.068541e+02
1.520000e-06	-1.484082e-06	-1.569622e-09	-1.052172e+01	-1.060431e+02
1.530000e-06	-1.439746e-06	-1.550422e-09	-1.020739e+01	-1.052153e+02
1.540000e-06	-1.395358e-06	-1.537475e-09	-9.892690e+00	-1.043702e+02
1.550000e-06	-1.350833e-06	-1.528174e-09	-9.577022e+00	-1.035078e+02
1.560000e-06	-1.306268e-06	-1.518227e-09	-9.261069e+00	-1.026277e+02
1.570000e-06	-1.261679e-06	-1.509308e-09	-8.944946e+00	-1.017298e+02
1.580000e-06	-1.217044e-06	-1.498329e-09	-8.628498e+00	-1.008136e+02
1.590000e-06	-1.172307e-06	-1.484011e-09	-8.311323e+00	-9.987888e+01
1.600000e-06	-1.127485e-06	-1.466619e-09	-7.993548e+00	-9.892511e+01
1.610000e-06	-1.082597e-06	-1.448036e-09	-7.675303e+00	-9.795180e+01
1.620000e-06	-1.037538e-06	-1.428302e-09	-7.355850e+00	-9.695835e+01
1.630000e-06	-9.922734e-07	-1.410655e-09	-7.034936e+00	-9.594407e+01
1.640000e-06	-9.468894e-07	-1.397134e-09	-6.713177e+00	-9.490814e+01
1.650000e-06	-9.015103e-07	-1.384007e-09	-6.391451e+00	-9.384964e+01
1.660000e-06	-8.560952e-07	-1.370168e-09	-6.069472e+00	-9.276752e+01
1.670000e-06	-8.106745e-07	-1.356240e-09	-5.747452e+00	-9.166062e+01
1.680000e-06	-7.652872e-07	-1.340548e-09	-5.425669e+00	-9.052766e+01
1.690000e-06	-7.198011e-07	-1.318930e-09	-5.103185e+00	-8.936723e+01
1.700000e-06	-6.741517e-07	-1.292146e-09	-4.779544e+00	-8.817781e+01
1.710000e-06	-6.284878e-07	-1.265044e-09	-4.455800e+00	-8.695779e+01
1.720000e-06	-5.828577e-07	-1.242409e-09	-4.132295e+00	-8.570546e+01
1.730000e-06	-5.372431e-07	-1.225778e-09	-3.808901e+00	-8.441901e+01
1.740000e-06	-4.915660e-07	-1.211444e-09	-3.485063e+00	-8.309660e+01
1.750000e-06	-4.458223e-07	-1.195777e-09	-3.160753e+00	-8.173632e+01
1.760000e-06	-4.000109e-07	-1.179530e-09	-2.835963e+00	-8.033626e+01
1.770000e-06	-3.541379e-07	-1.159033e-09	-2.510737e+00	-7.889449e+01
1.780000e-06	-3.082953e-07	-1.129255e-09	-2.185726e+00	-7.740910e+01
1.790000e-06	-2.624221e-07	-1.095923e-09	-1.860498e+00	-7.587825e+01
1.800000e-06	-2.165089e-07	-1.064850e-09	-1.534987e+00	-7.430015e+01
1.810000e-06	-1.706075e-07	-1.037517e-09	-1.209558e+00	-7.267312e+01
1.820000e-06	-1.247116e-07	-1.014445e-09	-8.841699e-01	-7.099557e+01
1.830000e-06	-7.883729e-08	-9.936336e-10	-5.589340e-01	-6.926610e+01
1.840000e-06	-3.297789e-08	-9.716502e-10	-2.338039e-01	-6.748344e+01
1.850000e-06	1.295307e-08	-9.456299e-10	9.183360e-02	-6.564652e+01
1.860000e-06	5.889799e-08	-9.168319e-10	4.175700e-01	-6.375446e+01
1.870000e-06	1.047828e-07	-8.844984e-10	7.428800e-01	-6.180663e+01
1.880000e-06	1.506879e-07	-8.490538e-10	1.068334e+00	-5.980259e+01
1.890000e-06	1.964815e-07	-8.142052e-10	1.392998e+00	-5.774217e+01
1.900000e-06	2.421550e-07	-7.817150e-10	1.716810e+00	-5.562544e+01
1.910000e-06	2.879161e-07	-7.501276e-10	2.041244e+00	-5.345271e+01
1.920000e-06	3.337964e-07	-7.197237e-10	2.366522e+00	-5.122454e+01
1.930000e-06	3.797174e-07	-6.880689e-10	2.692088e+00	-4.894177e+01
1.940000e-06	4.255430e-07	-6.550618e-10	3.016979e+00	-4.660542e+01
1.950000e-06	4.712899e-07	-6.217649e-10	3.341312e+00	-4.421678e+01
1.960000e-06	5.169859e-07	-5.843241e-10	3.665283e+00	-4.177736e+01
1.970000e-06	5.626724e-07	-5.434606e-10	3.989187e+00	-3.928884e+01
1.980000e-06	6.083229e-07	-5.028116e-10	4.312836e+00	-3.675310e+01
1.990000e-06	6.538614e-07	-4.630077e-10	4.635691e+00	-3.417220e+01
2.000000e-06	6.993310e-07	-4.233018e-10	4.958058e+00	-3.154832e+01
2.010000e-06	7.447591e-07	-3.846875e-10	5.280130e+00	-2.888378e+01
2.020000e-06	7.902153e-07	-3.485408e-10	5.602401e+00	-2.618099e+01
2.030000e-06	8.356752e-07	-3.137762e-10	5.924699e+00	-2.344244e+01
2.040000e-06	8.811094e-07	-2.779371e-10	6.246815e+00	-2.067070e+01
2.050000e-06	9.264885e-07	-2.380637e-10	6.568540e+00	-1.786835e+01
2.060000e-06	9.717214e-07	-1.963964e-10	6.889229e+00	-1.503800e+01
2.070000e-06	1.016790e-06	-1.558645e-10	7.208752e+00	-1.218228e+01
2.080000e-06	1.061758e-06	-1.142587e-10	7.527565e+00	-9.303780e+00
2.090000e-06	1.106668e-06	-7.006301e-11	7.845958e+00	-6.405084e+00
2.100000e-06	1.151528e-06	-2.538458e-11	8.164005e+00	-3.488727e+00
2.110000e-06	1.196309e-06	1.437972e-11	8.481490e+00	-5.572042e-01
2.120000e-06	1.241032e-06	5.243353e-11	8.798561e+00	2.387044e+00
2.130000e-06	1.285644e-06	9.272883e-11	9.114848e+00	5.341630e+00
2.140000e-06	1.330166e-06	1.353887e-10	9.430499e+00	8.304226e+00
2.150000e-06	1.374676e-06	1.795825e-10	9.746063e+00	1.127256e+01
2.160000e-06	1.419022e-06	2.239541e-10	1.006046e+01	1.424440e+01
2.170000e-06	1.463264e-06	2.689588e-10	1.037413e+01	1.721758e+01
2.180000e-06	1.507456e-06	3.154195e-10	1.068743e+01	2.018996e+01
2.190000e-06	1.551541e-06	3.613055e-10	1.099998e+01	2.315945e+01
2.200000e-06	1.595591e-06	4.010231e-10	1.131229e+01	2.612396e+01
2.210000e-06	1.639579e-06	4.400282e-10	1.162415e+01	2.908144e+01
2.220000e-06	1.683483e-06	4.814074e-10	1.193541e+01	3.202985e+01
2.230000e-06	1.727344e-06	5.238271e-10	1.224638e+01	3.496712e+01
2.240000e-06	1.771152e-06	5.664555e-10	1.255696e+01	3.789120e+01
2.250000e-06	1.814897e-06	6.090515e-10	1.286711e+01	4.080001e+01
2.260000e-06	1.858591e-06	6.514336e-10	1.317688e+01	4.369147e+01
2.270000e-06	1.902087e-06	6.941115e-10	1.348525e+01	4.656346e+01
2.280000e-06	1.945435e-06	7.377145e-10	1.379258e+01	4.941384e+01
2.290000e-06	1.988719e-06	7.788617e-10	1.409945e+01	5.224045e+01
2.300000e-06	2.031860e-06	8.174588e-10	1.440531e+01	5.504110e+01
2.310000e-06	2.074820e-06	8.550984e-10	1.470988e+01	5.781360e+01
2.320000e-06	2.117532e-06	8.925456e-10	1.501270e+01	6.055575e+01
2.330000e-06	2.159988e-06	9.292940e-10	1.531370e+01	6.326533e+01
2.340000e-06	2.202095e-06	9.655527e-10	1.561223e+01	6.594017e+01
2.350000e-06	2.243821e-06	1.003064e-09	1.590805e+01	6.857809e+01
2.360000e-06	2.285309e-06	1.044137e-09	1.620219e+01	7.117698e+01
2.370000e-06	2.326577e-06	1.086924e-09	1.649477e+01	7.373477e+01
2.380000e-06	2.367588e-06	1.126949e-09	1.678553e+01	7.624946e+01
2.390000e-06	2.408276e-06	1.162542e-09	1.707400e+01	7.871916e+01
2.400000e-06	2.448758e-06	1.193581e-09	1.736100e+01	8.114208e+01
2.410000e-06	2.489156e-06	1.221703e-09	1.764741e+01	8.351653e+01
2.420000e-06	2.529335e-06	1.251278e-09	1.793227e+01	8.584101e+01
2.430000e-06	2.569386e-06	1.283211e-09	1.821622e+01	8.811413e+01
2.440000e-06	2.609379e-06	1.316950e-09	1.849975e+01	9.033469e+01
2.450000e-06	2.649261e-06	1.349978e-09	1.878251e+01	9.250168e+01
2.460000e-06	2.689038e-06	1.382731e-09	1.906451e+01	9.461427e+01
2.470000e-06	2.728678e-06	1.414159e-09	1.934555e+01	9.667183e+01
2.480000e-06	2.768178e-06	1.443428e-09	1.962560e+01	9.867393e+01
2.490000e-06	2.807395e-06	1.469460e-09	1.990363e+01	1.006204e+02
2.500000e-06	2.846372e-06	1.494079e-09	2.017997e+01	1.025111e+02
2.510000e-06	2.885209e-06	1.520502e-09	2.045531e+01	1.043463e+02
2.520000e-06	2.923824e-06	1.545612e-09	2.072908e+01	1.061263e+02
2.530000e-06	2.962301e-06	1.568355e-09	2.100187e+01	1.078517e+02
2.540000e-06	3.000546e-06	1.592298e-09	2.127302e+01	1.095233e+02
2.550000e-06	3.038548e-06	1.620526e-09	2.154244e+01	1.111419e+02
2.560000e-06	3.076376e-06	1.648601e-09	2.181063e+01	1.127085e+02
2.570000e-06	3.113991e-06	1.670003e-09	2.207731e+01	1.142243e+02
2.580000e-06	3.151397e-06	1.686174e-09	2.234251e+01	1.156906e+02
2.590000e-06	3.188578e-06	1.704153e-09	2.260611e+01	1.171085e+02
2.600000e-06	3.225547e-06	1.723615e-09	2.286821e+01	1.184797e+02
2.610000e-06	3.262282e-06	1.741687e-09	2.312865e+01	1.198054e+02
2.620000e-06	3.298753e-06	1.759394e-09	2.338722e+01	1.210872e+02
2.630000e-06	3.334985e-06	1.780173e-09	2.364410e+01	1.223265e+02
2.640000e-06	3.371093e-06	1.801206e-09	2.390009e+01	1.235248e+02
2.650000e-06	3.407100e-06	1.817016e-09	2.415537e+01	1.246835e+02
2.660000e-06	3.442968e-06	1.828021e-09	2.440967e+01	1.258039e+02
2.670000e-06	3.478716e-06	1.840718e-09	2.466311e+01	1.268874e+02
2.680000e-06	3.514315e-06	1.857363e-09	2.491550e+01	1.279352e+02
2.690000e-06	3.549709e-06	1.871392e-09	2.516643e+01	1.289484e+02
2.700000e-06	3.584815e-06	1.881173e-09	2.541532e+01	1.299282e+02
2.710000e-06	3.619649e-06	1.892295e-09	2.566229e+01	1.308755e+02
2.720000e-06	3.654055e-06	1.909194e-09	2.590621e+01	1.317913e+02
2.730000e-06	3.687908e-06	1.926766e-09	2.614622e+01	1.326764e+02
2.740000e-06	3.721244e-06	1.938120e-09	2.638256e+01	1.335315e+02
2.750000e-06	3.754163e-06	1.946838e-09	2.661595e+01	1.343572e+02
2.760000e-06	3.786765e-06	1.957778e-09	2.684709e+01	1.351543e+02
2.770000e-06	3.819014e-06	1.968594e-09	2.707572e+01	1.359233e+02
2.780000e-06	3.851063e-06	1.975980e-09	2.730294e+01	1.366646e+02
2.790000e-06	3.882955e-06	1.983118e-09	2.752905e+01	1.373787e+02
2.800000e-06	3.914650e-06	1.994142e-09	2.775375e+01	1.380662e+02
2.810000e-06	3.946116e-06	2.007983e-09	2.797684e+01	1.387274e+02
2.820000e-06	3.977387e-06	2.017944e-09	2.819854e+01	1.393627e+02
2.830000e-06	4.008414e-06	2.022609e-09	2.841851e+01	1.399728e+02
2.840000e-06	4.039079e-06	2.030696e-09	2.863592e+01	1.405579e+02
2.850000e-06	4.069466e-06	2.043307e-09	2.885136e+01	1.411188e+02
2.860000e-06	4.099514e-06	2.054292e-09	2.906439e+01	1.416558e+02
2.870000e-06	4.129335e-06	2.059894e-09	2.927581e+01	1.421697e+02
2.880000e-06	4.159074e-06	2.064573e-09	2.948665e+01	1.426611e+02
2.890000e-06	4.188506e-06	2.071426e-09	2.969532e+01	1.431306e+02
2.900000e-06	4.217523e-06	2.077542e-09	2.990104e+01	1.435790e+02
