# Temperatura_=_-1.2
# Concentracion g/m^3_=_4090.0
# C_Vs_to_Am_M_A/Vsm_=_65563218390.804596
# pendiente_HvsI_1/m_=_3716.3
# ordenada_HvsI_A/m_=_1297.0
# frecuencia_Hz_=_135063.37385813275

Tiempo_(s)	Campo_(V.s)	Magnetizacion_(V.s)	Campo_(kA/m)	Magnetizacion_(A/m)
0.000000e+00	-5.394709e-06	-2.577486e-09	-3.839889e+01	-1.659002e+02
1.000000e-08	-5.395098e-06	-2.568722e-09	-3.840166e+01	-1.657914e+02
2.000000e-08	-5.395142e-06	-2.563387e-09	-3.840197e+01	-1.656870e+02
3.000000e-08	-5.394899e-06	-2.561011e-09	-3.840024e+01	-1.655889e+02
4.000000e-08	-5.394321e-06	-2.560545e-09	-3.839613e+01	-1.654994e+02
5.000000e-08	-5.393356e-06	-2.565959e-09	-3.838926e+01	-1.654202e+02
6.000000e-08	-5.391832e-06	-2.586186e-09	-3.837841e+01	-1.653531e+02
7.000000e-08	-5.389630e-06	-2.616290e-09	-3.836274e+01	-1.652996e+02
8.000000e-08	-5.386802e-06	-2.592790e-09	-3.834261e+01	-1.652612e+02
9.000000e-08	-5.383353e-06	-2.495763e-09	-3.831806e+01	-1.652389e+02
1.000000e-07	-5.379411e-06	-2.492608e-09	-3.829000e+01	-1.652337e+02
1.100000e-07	-5.375154e-06	-2.612604e-09	-3.825970e+01	-1.652460e+02
1.200000e-07	-5.370715e-06	-2.641860e-09	-3.822810e+01	-1.652761e+02
1.300000e-07	-5.366101e-06	-2.518566e-09	-3.819526e+01	-1.653241e+02
1.400000e-07	-5.361135e-06	-2.464828e-09	-3.815991e+01	-1.653896e+02
1.500000e-07	-5.355811e-06	-2.649480e-09	-3.812201e+01	-1.654719e+02
1.600000e-07	-5.350223e-06	-2.695356e-09	-3.808224e+01	-1.655701e+02
1.700000e-07	-5.344213e-06	-2.523552e-09	-3.803946e+01	-1.656829e+02
1.800000e-07	-5.337688e-06	-2.442456e-09	-3.799302e+01	-1.658090e+02
1.900000e-07	-5.330782e-06	-2.586954e-09	-3.794387e+01	-1.659465e+02
2.000000e-07	-5.323627e-06	-2.657494e-09	-3.789293e+01	-1.660935e+02
2.100000e-07	-5.316265e-06	-2.553763e-09	-3.784054e+01	-1.662480e+02
2.200000e-07	-5.308575e-06	-2.565852e-09	-3.778580e+01	-1.664076e+02
2.300000e-07	-5.300646e-06	-2.662065e-09	-3.772936e+01	-1.665700e+02
2.400000e-07	-5.292448e-06	-2.644709e-09	-3.767101e+01	-1.667328e+02
2.500000e-07	-5.283706e-06	-2.556911e-09	-3.760878e+01	-1.668936e+02
2.600000e-07	-5.274263e-06	-2.622890e-09	-3.754157e+01	-1.670499e+02
2.700000e-07	-5.264161e-06	-2.665863e-09	-3.746966e+01	-1.671995e+02
2.800000e-07	-5.253526e-06	-2.585423e-09	-3.739397e+01	-1.673400e+02
2.900000e-07	-5.242426e-06	-2.563213e-09	-3.731496e+01	-1.674693e+02
3.000000e-07	-5.230963e-06	-2.667563e-09	-3.723336e+01	-1.675855e+02
3.100000e-07	-5.219115e-06	-2.636971e-09	-3.714903e+01	-1.676869e+02
3.200000e-07	-5.206911e-06	-2.527444e-09	-3.706216e+01	-1.677719e+02
3.300000e-07	-5.194304e-06	-2.550734e-09	-3.697243e+01	-1.678392e+02
3.400000e-07	-5.181352e-06	-2.622053e-09	-3.688024e+01	-1.678879e+02
3.500000e-07	-5.168046e-06	-2.585284e-09	-3.678553e+01	-1.679171e+02
3.600000e-07	-5.154270e-06	-2.565317e-09	-3.668747e+01	-1.679263e+02
3.700000e-07	-5.140124e-06	-2.598272e-09	-3.658678e+01	-1.679155e+02
3.800000e-07	-5.125517e-06	-2.583912e-09	-3.648281e+01	-1.678846e+02
3.900000e-07	-5.110258e-06	-2.560335e-09	-3.637420e+01	-1.678339e+02
4.000000e-07	-5.094492e-06	-2.583675e-09	-3.626198e+01	-1.677640e+02
4.100000e-07	-5.078304e-06	-2.558244e-09	-3.614675e+01	-1.676756e+02
4.200000e-07	-5.061682e-06	-2.511376e-09	-3.602844e+01	-1.675698e+02
4.300000e-07	-5.044670e-06	-2.549371e-09	-3.590735e+01	-1.674476e+02
4.400000e-07	-5.027442e-06	-2.592291e-09	-3.578473e+01	-1.673103e+02
4.500000e-07	-5.010020e-06	-2.558450e-09	-3.566072e+01	-1.671593e+02
4.600000e-07	-4.992244e-06	-2.527701e-09	-3.553419e+01	-1.669960e+02
4.700000e-07	-4.974131e-06	-2.558610e-09	-3.540527e+01	-1.668219e+02
4.800000e-07	-4.955616e-06	-2.565075e-09	-3.527348e+01	-1.666385e+02
4.900000e-07	-4.936651e-06	-2.539638e-09	-3.513849e+01	-1.664473e+02
5.000000e-07	-4.917289e-06	-2.510386e-09	-3.500067e+01	-1.662496e+02
5.100000e-07	-4.897658e-06	-2.515555e-09	-3.486094e+01	-1.660468e+02
5.200000e-07	-4.877837e-06	-2.534305e-09	-3.471986e+01	-1.658402e+02
5.300000e-07	-4.857754e-06	-2.547679e-09	-3.457691e+01	-1.656308e+02
5.400000e-07	-4.837417e-06	-2.523803e-09	-3.443216e+01	-1.654195e+02
5.500000e-07	-4.816845e-06	-2.515961e-09	-3.428573e+01	-1.652072e+02
5.600000e-07	-4.795867e-06	-2.524534e-09	-3.413640e+01	-1.649945e+02
5.700000e-07	-4.774501e-06	-2.528302e-09	-3.398432e+01	-1.647818e+02
5.800000e-07	-4.752815e-06	-2.504082e-09	-3.382997e+01	-1.645694e+02
5.900000e-07	-4.730842e-06	-2.485635e-09	-3.367356e+01	-1.643574e+02
6.000000e-07	-4.708581e-06	-2.484378e-09	-3.351512e+01	-1.641458e+02
6.100000e-07	-4.686004e-06	-2.504340e-09	-3.335441e+01	-1.639344e+02
6.200000e-07	-4.663066e-06	-2.499583e-09	-3.319115e+01	-1.637227e+02
6.300000e-07	-4.639791e-06	-2.472627e-09	-3.302548e+01	-1.635103e+02
6.400000e-07	-4.616235e-06	-2.465163e-09	-3.285781e+01	-1.632967e+02
6.500000e-07	-4.592464e-06	-2.484401e-09	-3.268861e+01	-1.630812e+02
6.600000e-07	-4.568495e-06	-2.481793e-09	-3.251800e+01	-1.628630e+02
6.700000e-07	-4.544168e-06	-2.459913e-09	-3.234484e+01	-1.626415e+02
6.800000e-07	-4.519445e-06	-2.452007e-09	-3.216887e+01	-1.624158e+02
6.900000e-07	-4.494273e-06	-2.460802e-09	-3.198969e+01	-1.621852e+02
7.000000e-07	-4.468699e-06	-2.463284e-09	-3.180766e+01	-1.619490e+02
7.100000e-07	-4.442662e-06	-2.446816e-09	-3.162234e+01	-1.617064e+02
7.200000e-07	-4.416089e-06	-2.429510e-09	-3.143319e+01	-1.614570e+02
7.300000e-07	-4.389087e-06	-2.430088e-09	-3.124099e+01	-1.612001e+02
7.400000e-07	-4.361734e-06	-2.440702e-09	-3.104630e+01	-1.609354e+02
7.500000e-07	-4.334124e-06	-2.429268e-09	-3.084977e+01	-1.606624e+02
7.600000e-07	-4.306310e-06	-2.411440e-09	-3.065179e+01	-1.603812e+02
7.700000e-07	-4.278308e-06	-2.406591e-09	-3.045248e+01	-1.600914e+02
7.800000e-07	-4.250053e-06	-2.413124e-09	-3.025136e+01	-1.597933e+02
7.900000e-07	-4.221539e-06	-2.404863e-09	-3.004841e+01	-1.594869e+02
8.000000e-07	-4.192754e-06	-2.388040e-09	-2.984352e+01	-1.591725e+02
8.100000e-07	-4.163660e-06	-2.375080e-09	-2.963643e+01	-1.588505e+02
8.200000e-07	-4.134303e-06	-2.379463e-09	-2.942747e+01	-1.585214e+02
8.300000e-07	-4.104688e-06	-2.380007e-09	-2.921668e+01	-1.581857e+02
8.400000e-07	-4.074744e-06	-2.367938e-09	-2.900354e+01	-1.578440e+02
8.500000e-07	-4.044561e-06	-2.354386e-09	-2.878870e+01	-1.574971e+02
8.600000e-07	-4.014107e-06	-2.360610e-09	-2.857193e+01	-1.571455e+02
8.700000e-07	-3.983421e-06	-2.365516e-09	-2.835351e+01	-1.567901e+02
8.800000e-07	-3.952549e-06	-2.355874e-09	-2.813377e+01	-1.564315e+02
8.900000e-07	-3.921318e-06	-2.334408e-09	-2.791147e+01	-1.560706e+02
9.000000e-07	-3.889835e-06	-2.329376e-09	-2.768737e+01	-1.557079e+02
9.100000e-07	-3.858139e-06	-2.333962e-09	-2.746177e+01	-1.553441e+02
9.200000e-07	-3.826260e-06	-2.328517e-09	-2.723486e+01	-1.549797e+02
9.300000e-07	-3.794257e-06	-2.309947e-09	-2.700707e+01	-1.546154e+02
9.400000e-07	-3.762030e-06	-2.301252e-09	-2.677768e+01	-1.542515e+02
9.500000e-07	-3.729519e-06	-2.305400e-09	-2.654627e+01	-1.538883e+02
9.600000e-07	-3.696679e-06	-2.304855e-09	-2.631252e+01	-1.535262e+02
9.700000e-07	-3.663364e-06	-2.293121e-09	-2.607538e+01	-1.531653e+02
9.800000e-07	-3.629637e-06	-2.282666e-09	-2.583532e+01	-1.528056e+02
9.900000e-07	-3.595497e-06	-2.279979e-09	-2.559231e+01	-1.524471e+02
1.000000e-06	-3.560912e-06	-2.273657e-09	-2.534614e+01	-1.520897e+02
1.010000e-06	-3.526096e-06	-2.259887e-09	-2.509833e+01	-1.517332e+02
1.020000e-06	-3.490970e-06	-2.246068e-09	-2.484831e+01	-1.513773e+02
1.030000e-06	-3.455529e-06	-2.241433e-09	-2.459604e+01	-1.510216e+02
1.040000e-06	-3.419893e-06	-2.238706e-09	-2.434238e+01	-1.506659e+02
1.050000e-06	-3.384098e-06	-2.235329e-09	-2.408760e+01	-1.503095e+02
1.060000e-06	-3.348198e-06	-2.228165e-09	-2.383207e+01	-1.499520e+02
1.070000e-06	-3.312133e-06	-2.223930e-09	-2.357536e+01	-1.495930e+02
1.080000e-06	-3.275866e-06	-2.219449e-09	-2.331722e+01	-1.492318e+02
1.090000e-06	-3.239411e-06	-2.210184e-09	-2.305774e+01	-1.488679e+02
1.100000e-06	-3.202705e-06	-2.196889e-09	-2.279647e+01	-1.485009e+02
1.110000e-06	-3.165669e-06	-2.191503e-09	-2.253285e+01	-1.481301e+02
1.120000e-06	-3.128388e-06	-2.188869e-09	-2.226749e+01	-1.477552e+02
1.130000e-06	-3.090906e-06	-2.183289e-09	-2.200069e+01	-1.473756e+02
1.140000e-06	-3.053205e-06	-2.173191e-09	-2.173235e+01	-1.469910e+02
1.150000e-06	-3.015339e-06	-2.170210e-09	-2.146282e+01	-1.466009e+02
1.160000e-06	-2.977373e-06	-2.167620e-09	-2.119258e+01	-1.462051e+02
1.170000e-06	-2.939177e-06	-2.161085e-09	-2.092071e+01	-1.458031e+02
1.180000e-06	-2.900693e-06	-2.150040e-09	-2.064678e+01	-1.453948e+02
1.190000e-06	-2.862049e-06	-2.140636e-09	-2.037172e+01	-1.449800e+02
1.200000e-06	-2.823228e-06	-2.134328e-09	-2.009540e+01	-1.445584e+02
1.210000e-06	-2.784181e-06	-2.126122e-09	-1.981746e+01	-1.441299e+02
1.220000e-06	-2.744881e-06	-2.115708e-09	-1.953774e+01	-1.436944e+02
1.230000e-06	-2.705381e-06	-2.107508e-09	-1.925658e+01	-1.432517e+02
1.240000e-06	-2.665782e-06	-2.102299e-09	-1.897472e+01	-1.428019e+02
1.250000e-06	-2.626116e-06	-2.097788e-09	-1.869238e+01	-1.423448e+02
1.260000e-06	-2.586315e-06	-2.090456e-09	-1.840908e+01	-1.418803e+02
1.270000e-06	-2.546355e-06	-2.080618e-09	-1.812465e+01	-1.414084e+02
1.280000e-06	-2.506244e-06	-2.071086e-09	-1.783915e+01	-1.409289e+02
1.290000e-06	-2.465997e-06	-2.061950e-09	-1.755267e+01	-1.404419e+02
1.300000e-06	-2.425649e-06	-2.053608e-09	-1.726548e+01	-1.399471e+02
1.310000e-06	-2.385181e-06	-2.043492e-09	-1.697743e+01	-1.394444e+02
1.320000e-06	-2.344596e-06	-2.036462e-09	-1.668856e+01	-1.389336e+02
1.330000e-06	-2.303819e-06	-2.031001e-09	-1.639831e+01	-1.384147e+02
1.340000e-06	-2.262687e-06	-2.024069e-09	-1.610553e+01	-1.378873e+02
1.350000e-06	-2.221170e-06	-2.013945e-09	-1.581002e+01	-1.373512e+02
1.360000e-06	-2.179333e-06	-2.003369e-09	-1.551223e+01	-1.368063e+02
1.370000e-06	-2.137255e-06	-1.993385e-09	-1.521272e+01	-1.362521e+02
1.380000e-06	-2.095033e-06	-1.983174e-09	-1.491219e+01	-1.356884e+02
1.390000e-06	-2.052692e-06	-1.971279e-09	-1.461082e+01	-1.351150e+02
1.400000e-06	-2.010075e-06	-1.960616e-09	-1.430747e+01	-1.345315e+02
1.410000e-06	-1.967214e-06	-1.951297e-09	-1.400240e+01	-1.339375e+02
1.420000e-06	-1.924102e-06	-1.942534e-09	-1.369553e+01	-1.333329e+02
1.430000e-06	-1.880699e-06	-1.931924e-09	-1.338659e+01	-1.327172e+02
1.440000e-06	-1.837232e-06	-1.920157e-09	-1.307720e+01	-1.320902e+02
1.450000e-06	-1.793680e-06	-1.907016e-09	-1.276720e+01	-1.314515e+02
1.460000e-06	-1.749993e-06	-1.896709e-09	-1.245624e+01	-1.308009e+02
1.470000e-06	-1.706263e-06	-1.887899e-09	-1.214498e+01	-1.301381e+02
1.480000e-06	-1.662480e-06	-1.878934e-09	-1.183333e+01	-1.294628e+02
1.490000e-06	-1.618587e-06	-1.869007e-09	-1.152091e+01	-1.287747e+02
1.500000e-06	-1.574658e-06	-1.857630e-09	-1.120822e+01	-1.280737e+02
1.510000e-06	-1.530687e-06	-1.846611e-09	-1.089525e+01	-1.273595e+02
1.520000e-06	-1.486630e-06	-1.832317e-09	-1.058165e+01	-1.266318e+02
1.530000e-06	-1.442519e-06	-1.815607e-09	-1.026768e+01	-1.258904e+02
1.540000e-06	-1.398336e-06	-1.801584e-09	-9.953186e+00	-1.251351e+02
1.550000e-06	-1.354116e-06	-1.792370e-09	-9.638436e+00	-1.243654e+02
1.560000e-06	-1.309824e-06	-1.785186e-09	-9.323170e+00	-1.235812e+02
1.570000e-06	-1.265422e-06	-1.775799e-09	-9.007122e+00	-1.227821e+02
1.580000e-06	-1.220922e-06	-1.764957e-09	-8.690373e+00	-1.219677e+02
1.590000e-06	-1.176336e-06	-1.752944e-09	-8.373016e+00	-1.211376e+02
1.600000e-06	-1.131683e-06	-1.738268e-09	-8.055184e+00	-1.202913e+02
1.610000e-06	-1.086934e-06	-1.721493e-09	-7.736668e+00	-1.194282e+02
1.620000e-06	-1.042086e-06	-1.700910e-09	-7.417440e+00	-1.185477e+02
1.630000e-06	-9.971556e-07	-1.684695e-09	-7.097634e+00	-1.176491e+02
1.640000e-06	-9.522229e-07	-1.674976e-09	-6.777808e+00	-1.167316e+02
1.650000e-06	-9.071671e-07	-1.665685e-09	-6.457106e+00	-1.157943e+02
1.660000e-06	-8.619289e-07	-1.655073e-09	-6.135106e+00	-1.148364e+02
1.670000e-06	-8.167028e-07	-1.642508e-09	-5.813192e+00	-1.138567e+02
1.680000e-06	-7.714167e-07	-1.627867e-09	-5.490851e+00	-1.128541e+02
1.690000e-06	-7.259587e-07	-1.606513e-09	-5.167287e+00	-1.118275e+02
1.700000e-06	-6.804463e-07	-1.579310e-09	-4.843335e+00	-1.107755e+02
1.710000e-06	-6.348857e-07	-1.553326e-09	-4.519040e+00	-1.096969e+02
1.720000e-06	-5.893395e-07	-1.536999e-09	-4.194848e+00	-1.085902e+02
1.730000e-06	-5.438100e-07	-1.528330e-09	-3.870774e+00	-1.074540e+02
1.740000e-06	-4.981846e-07	-1.519332e-09	-3.546018e+00	-1.062867e+02
1.750000e-06	-4.525231e-07	-1.507058e-09	-3.221005e+00	-1.050870e+02
1.760000e-06	-4.068069e-07	-1.494305e-09	-2.895602e+00	-1.038531e+02
1.770000e-06	-3.610261e-07	-1.479127e-09	-2.569740e+00	-1.025837e+02
1.780000e-06	-3.152660e-07	-1.455558e-09	-2.244026e+00	-1.012771e+02
1.790000e-06	-2.694971e-07	-1.425494e-09	-1.918248e+00	-9.993187e+01
1.800000e-06	-2.236667e-07	-1.397376e-09	-1.592032e+00	-9.854646e+01
1.810000e-06	-1.778381e-07	-1.377495e-09	-1.265831e+00	-9.711945e+01
1.820000e-06	-1.321486e-07	-1.363724e-09	-9.406178e-01	-9.564943e+01
1.830000e-06	-8.641026e-08	-1.348739e-09	-6.150578e-01	-9.413507e+01
1.840000e-06	-4.059920e-08	-1.330025e-09	-2.889802e-01	-9.257507e+01
1.850000e-06	5.125468e-09	-1.308029e-09	3.648246e-02	-9.096825e+01
1.860000e-06	5.084401e-08	-1.282974e-09	3.619016e-01	-8.931346e+01
1.870000e-06	9.657731e-08	-1.253258e-09	6.874256e-01	-8.760966e+01
1.880000e-06	1.423737e-07	-1.220242e-09	1.013399e+00	-8.585587e+01
1.890000e-06	1.880877e-07	-1.190611e-09	1.338786e+00	-8.405122e+01
1.900000e-06	2.336915e-07	-1.165130e-09	1.663388e+00	-8.219489e+01
1.910000e-06	2.793286e-07	-1.139321e-09	1.988228e+00	-8.028615e+01
1.920000e-06	3.250453e-07	-1.112945e-09	2.313633e+00	-7.832436e+01
1.930000e-06	3.707594e-07	-1.086906e-09	2.639021e+00	-7.630893e+01
1.940000e-06	4.163966e-07	-1.058255e-09	2.963861e+00	-7.423935e+01
1.950000e-06	4.619715e-07	-1.026028e-09	3.288257e+00	-7.211518e+01
1.960000e-06	5.074893e-07	-9.916646e-10	3.612247e+00	-6.993604e+01
1.970000e-06	5.530595e-07	-9.588308e-10	3.936611e+00	-6.770160e+01
1.980000e-06	5.986030e-07	-9.271945e-10	4.260784e+00	-6.541159e+01
1.990000e-06	6.440215e-07	-8.943285e-10	4.584068e+00	-6.306580e+01
2.000000e-06	6.894012e-07	-8.593133e-10	4.907075e+00	-6.066406e+01
2.010000e-06	7.347017e-07	-8.245144e-10	5.229519e+00	-5.820627e+01
2.020000e-06	7.799347e-07	-7.903384e-10	5.551481e+00	-5.569239e+01
2.030000e-06	8.251482e-07	-7.547821e-10	5.873306e+00	-5.312243e+01
2.040000e-06	8.702912e-07	-7.157921e-10	6.194628e+00	-5.049648e+01
2.050000e-06	9.154088e-07	-6.768434e-10	6.515770e+00	-4.781470e+01
2.060000e-06	9.604609e-07	-6.402820e-10	6.836445e+00	-4.507735e+01
2.070000e-06	1.005375e-06	-6.023424e-10	7.156140e+00	-4.228478e+01
2.080000e-06	1.050183e-06	-5.592910e-10	7.475079e+00	-3.943746e+01
2.090000e-06	1.094872e-06	-5.128559e-10	7.793170e+00	-3.653599e+01
2.100000e-06	1.139461e-06	-4.678090e-10	8.110548e+00	-3.358111e+01
2.110000e-06	1.183965e-06	-4.262417e-10	8.427320e+00	-3.057372e+01
2.120000e-06	1.228419e-06	-3.833823e-10	8.743738e+00	-2.751491e+01
2.130000e-06	1.272835e-06	-3.395243e-10	9.059887e+00	-2.440595e+01
2.140000e-06	1.317144e-06	-2.967291e-10	9.375274e+00	-2.124834e+01
2.150000e-06	1.361371e-06	-2.519143e-10	9.690072e+00	-1.804378e+01
2.160000e-06	1.405514e-06	-2.015220e-10	1.000428e+01	-1.479422e+01
2.170000e-06	1.449581e-06	-1.480713e-10	1.031794e+01	-1.150187e+01
2.180000e-06	1.493603e-06	-9.601285e-11	1.063129e+01	-8.169196e+00
2.190000e-06	1.537575e-06	-4.508932e-11	1.094427e+01	-4.798918e+00
2.200000e-06	1.581536e-06	4.581386e-12	1.125718e+01	-1.394037e+00
2.210000e-06	1.625466e-06	5.412774e-11	1.156987e+01	2.042185e+00
2.220000e-06	1.669320e-06	1.038404e-10	1.188202e+01	5.506217e+00
2.230000e-06	1.713130e-06	1.526639e-10	1.219385e+01	8.994275e+00
2.240000e-06	1.756887e-06	2.037031e-10	1.250531e+01	1.250233e+01
2.250000e-06	1.800521e-06	2.595165e-10	1.281589e+01	1.602613e+01
2.260000e-06	1.844017e-06	3.145730e-10	1.312549e+01	1.956122e+01
2.270000e-06	1.887434e-06	3.658789e-10	1.343453e+01	2.310295e+01
2.280000e-06	1.930714e-06	4.177777e-10	1.374259e+01	2.664652e+01
2.290000e-06	1.973767e-06	4.728299e-10	1.404904e+01	3.018702e+01
2.300000e-06	2.016642e-06	5.281332e-10	1.435421e+01	3.371943e+01
2.310000e-06	2.059384e-06	5.817516e-10	1.465845e+01	3.723871e+01
2.320000e-06	2.101922e-06	6.331163e-10	1.496123e+01	4.073977e+01
2.330000e-06	2.144233e-06	6.828136e-10	1.526239e+01	4.421758e+01
2.340000e-06	2.186225e-06	7.303400e-10	1.556129e+01	4.766715e+01
2.350000e-06	2.227852e-06	7.766796e-10	1.585758e+01	5.108362e+01
2.360000e-06	2.269116e-06	8.246369e-10	1.615129e+01	5.446227e+01
2.370000e-06	2.310041e-06	8.760435e-10	1.644259e+01	5.779857e+01
2.380000e-06	2.350747e-06	9.285163e-10	1.673233e+01	6.108822e+01
2.390000e-06	2.391257e-06	9.799934e-10	1.702068e+01	6.432715e+01
2.400000e-06	2.431586e-06	1.027408e-09	1.730774e+01	6.751163e+01
2.410000e-06	2.471749e-06	1.070747e-09	1.759362e+01	7.063821e+01
2.420000e-06	2.511809e-06	1.111694e-09	1.787876e+01	7.370379e+01
2.430000e-06	2.551791e-06	1.151218e-09	1.816334e+01	7.670563e+01
2.440000e-06	2.591682e-06	1.190954e-09	1.844728e+01	7.964138e+01
2.450000e-06	2.631418e-06	1.230220e-09	1.873012e+01	8.250905e+01
2.460000e-06	2.671008e-06	1.270051e-09	1.901191e+01	8.530705e+01
2.470000e-06	2.710480e-06	1.310501e-09	1.929287e+01	8.803417e+01
2.480000e-06	2.749859e-06	1.349468e-09	1.957317e+01	9.068958e+01
2.490000e-06	2.789029e-06	1.386807e-09	1.985197e+01	9.327282e+01
2.500000e-06	2.827952e-06	1.423105e-09	2.012902e+01	9.578378e+01
2.510000e-06	2.866704e-06	1.456931e-09	2.040486e+01	9.822268e+01
2.520000e-06	2.905228e-06	1.490147e-09	2.067906e+01	1.005900e+02
2.530000e-06	2.943566e-06	1.522478e-09	2.095195e+01	1.028867e+02
2.540000e-06	2.981654e-06	1.556137e-09	2.122305e+01	1.051136e+02
2.550000e-06	3.019553e-06	1.588416e-09	2.149282e+01	1.072722e+02
2.560000e-06	3.057343e-06	1.619675e-09	2.176180e+01	1.093637e+02
2.570000e-06	3.094929e-06	1.648664e-09	2.202933e+01	1.113899e+02
2.580000e-06	3.132293e-06	1.674837e-09	2.229529e+01	1.133525e+02
2.590000e-06	3.169363e-06	1.700885e-09	2.255914e+01	1.152532e+02
2.600000e-06	3.206182e-06	1.726498e-09	2.282122e+01	1.170939e+02
2.610000e-06	3.242862e-06	1.755139e-09	2.308230e+01	1.188765e+02
2.620000e-06	3.279318e-06	1.783274e-09	2.334179e+01	1.206027e+02
2.630000e-06	3.315525e-06	1.810226e-09	2.359951e+01	1.222745e+02
2.640000e-06	3.351595e-06	1.836535e-09	2.385625e+01	1.238935e+02
2.650000e-06	3.387536e-06	1.859837e-09	2.411207e+01	1.254614e+02
2.660000e-06	3.423306e-06	1.877857e-09	2.436668e+01	1.269798e+02
2.670000e-06	3.458922e-06	1.890907e-09	2.462019e+01	1.284502e+02
2.680000e-06	3.494342e-06	1.904237e-09	2.487231e+01	1.298739e+02
2.690000e-06	3.529489e-06	1.921352e-09	2.512248e+01	1.312523e+02
2.700000e-06	3.564354e-06	1.942367e-09	2.537064e+01	1.325864e+02
2.710000e-06	3.598826e-06	1.967099e-09	2.561601e+01	1.338772e+02
2.720000e-06	3.632808e-06	1.991992e-09	2.585789e+01	1.351258e+02
2.730000e-06	3.666366e-06	2.015132e-09	2.609675e+01	1.363329e+02
2.740000e-06	3.699530e-06	2.031609e-09	2.633281e+01	1.374994e+02
2.750000e-06	3.732263e-06	2.040729e-09	2.656580e+01	1.386259e+02
2.760000e-06	3.764670e-06	2.047766e-09	2.679647e+01	1.397131e+02
2.770000e-06	3.796920e-06	2.059682e-09	2.702602e+01	1.407616e+02
2.780000e-06	3.829011e-06	2.078134e-09	2.725444e+01	1.417721e+02
2.790000e-06	3.860890e-06	2.097630e-09	2.748135e+01	1.427452e+02
2.800000e-06	3.892538e-06	2.114525e-09	2.770662e+01	1.436815e+02
2.810000e-06	3.923972e-06	2.128631e-09	2.793036e+01	1.445818e+02
2.820000e-06	3.955226e-06	2.141234e-09	2.815282e+01	1.454466e+02
2.830000e-06	3.986246e-06	2.149969e-09	2.837362e+01	1.462770e+02
2.840000e-06	4.016929e-06	2.155809e-09	2.859201e+01	1.470736e+02
2.850000e-06	4.047257e-06	2.164473e-09	2.880789e+01	1.478375e+02
2.860000e-06	4.077266e-06	2.179905e-09	2.902149e+01	1.485696e+02
2.870000e-06	4.107017e-06	2.198270e-09	2.923325e+01	1.492711e+02
2.880000e-06	4.136560e-06	2.211351e-09	2.944354e+01	1.499431e+02
2.890000e-06	4.165880e-06	2.218085e-09	2.965223e+01	1.505868e+02
2.900000e-06	4.194869e-06	2.222439e-09	2.985857e+01	1.512035e+02
