# Temperatura_=_-4.78
# Concentracion g/m^3_=_4090.0
# C_Vs_to_Am_M_A/Vsm_=_65563218390.804596
# pendiente_HvsI_1/m_=_3716.3
# ordenada_HvsI_A/m_=_1297.0
# frecuencia_Hz_=_135074.97319477727

Tiempo_(s)	Campo_(V.s)	Magnetizacion_(V.s)	Campo_(kA/m)	Magnetizacion_(A/m)
0.000000e+00	-5.433644e-06	-1.967054e-09	-3.839641e+01	-1.265713e+02
1.000000e-08	-5.433835e-06	-1.965581e-09	-3.839777e+01	-1.265086e+02
2.000000e-08	-5.433738e-06	-1.962766e-09	-3.839708e+01	-1.264438e+02
3.000000e-08	-5.433266e-06	-1.960958e-09	-3.839374e+01	-1.263774e+02
4.000000e-08	-5.432387e-06	-1.960861e-09	-3.838753e+01	-1.263103e+02
5.000000e-08	-5.430993e-06	-1.967117e-09	-3.837768e+01	-1.262431e+02
6.000000e-08	-5.429025e-06	-1.989471e-09	-3.836377e+01	-1.261767e+02
7.000000e-08	-5.426516e-06	-1.970060e-09	-3.834605e+01	-1.261115e+02
8.000000e-08	-5.423447e-06	-1.889892e-09	-3.832435e+01	-1.260484e+02
9.000000e-08	-5.419796e-06	-1.895071e-09	-3.829856e+01	-1.259879e+02
1.000000e-07	-5.415643e-06	-2.039965e-09	-3.826921e+01	-1.259306e+02
1.100000e-07	-5.411238e-06	-2.037246e-09	-3.823808e+01	-1.258768e+02
1.200000e-07	-5.406688e-06	-1.876727e-09	-3.820593e+01	-1.258271e+02
1.300000e-07	-5.401860e-06	-1.863390e-09	-3.817182e+01	-1.257816e+02
1.400000e-07	-5.396602e-06	-2.082217e-09	-3.813466e+01	-1.257406e+02
1.500000e-07	-5.390943e-06	-2.070169e-09	-3.809467e+01	-1.257042e+02
1.600000e-07	-5.384942e-06	-1.813883e-09	-3.805227e+01	-1.256722e+02
1.700000e-07	-5.378540e-06	-1.798585e-09	-3.800703e+01	-1.256446e+02
1.800000e-07	-5.371687e-06	-2.076612e-09	-3.795860e+01	-1.256211e+02
1.900000e-07	-5.364402e-06	-2.073347e-09	-3.790712e+01	-1.256014e+02
2.000000e-07	-5.356914e-06	-1.870012e-09	-3.785421e+01	-1.255850e+02
2.100000e-07	-5.349258e-06	-1.898897e-09	-3.780010e+01	-1.255713e+02
2.200000e-07	-5.341292e-06	-2.083352e-09	-3.774382e+01	-1.255597e+02
2.300000e-07	-5.333003e-06	-1.986007e-09	-3.768524e+01	-1.255494e+02
2.400000e-07	-5.324346e-06	-1.849993e-09	-3.762407e+01	-1.255398e+02
2.500000e-07	-5.315136e-06	-1.969275e-09	-3.755899e+01	-1.255299e+02
2.600000e-07	-5.305264e-06	-2.044958e-09	-3.748922e+01	-1.255190e+02
2.700000e-07	-5.294735e-06	-1.907894e-09	-3.741482e+01	-1.255060e+02
2.800000e-07	-5.283741e-06	-1.903375e-09	-3.733714e+01	-1.254901e+02
2.900000e-07	-5.272387e-06	-2.072944e-09	-3.725690e+01	-1.254705e+02
3.000000e-07	-5.260554e-06	-2.001917e-09	-3.717329e+01	-1.254462e+02
3.100000e-07	-5.248243e-06	-1.845617e-09	-3.708629e+01	-1.254164e+02
3.200000e-07	-5.235496e-06	-1.925998e-09	-3.699622e+01	-1.253803e+02
3.300000e-07	-5.222427e-06	-2.047299e-09	-3.690386e+01	-1.253373e+02
3.400000e-07	-5.208965e-06	-1.909328e-09	-3.680874e+01	-1.252866e+02
3.500000e-07	-5.195125e-06	-1.884026e-09	-3.671094e+01	-1.252278e+02
3.600000e-07	-5.180880e-06	-1.996370e-09	-3.661028e+01	-1.251603e+02
3.700000e-07	-5.166245e-06	-1.998516e-09	-3.650686e+01	-1.250839e+02
3.800000e-07	-5.151156e-06	-1.900963e-09	-3.640023e+01	-1.249982e+02
3.900000e-07	-5.135386e-06	-1.946878e-09	-3.628879e+01	-1.249031e+02
4.000000e-07	-5.119083e-06	-1.943166e-09	-3.617359e+01	-1.247985e+02
4.100000e-07	-5.102468e-06	-1.880629e-09	-3.605619e+01	-1.246845e+02
4.200000e-07	-5.085524e-06	-1.917008e-09	-3.593645e+01	-1.245614e+02
4.300000e-07	-5.068225e-06	-1.979263e-09	-3.581421e+01	-1.244292e+02
4.400000e-07	-5.050591e-06	-1.906012e-09	-3.568960e+01	-1.242884e+02
4.500000e-07	-5.032639e-06	-1.887530e-09	-3.556274e+01	-1.241394e+02
4.600000e-07	-5.014270e-06	-1.953987e-09	-3.543294e+01	-1.239827e+02
4.700000e-07	-4.995521e-06	-1.938473e-09	-3.530045e+01	-1.238188e+02
4.800000e-07	-4.976454e-06	-1.864563e-09	-3.516571e+01	-1.236483e+02
4.900000e-07	-4.957065e-06	-1.878003e-09	-3.502871e+01	-1.234718e+02
5.000000e-07	-4.937423e-06	-1.909882e-09	-3.488990e+01	-1.232900e+02
5.100000e-07	-4.917542e-06	-1.902699e-09	-3.474942e+01	-1.231034e+02
5.200000e-07	-4.897454e-06	-1.892984e-09	-3.460747e+01	-1.229128e+02
5.300000e-07	-4.877065e-06	-1.880151e-09	-3.446339e+01	-1.227187e+02
5.400000e-07	-4.856338e-06	-1.869334e-09	-3.431693e+01	-1.225217e+02
5.500000e-07	-4.835242e-06	-1.881811e-09	-3.416785e+01	-1.223223e+02
5.600000e-07	-4.813783e-06	-1.878149e-09	-3.401622e+01	-1.221211e+02
5.700000e-07	-4.792018e-06	-1.843385e-09	-3.386242e+01	-1.219184e+02
5.800000e-07	-4.769982e-06	-1.845664e-09	-3.370669e+01	-1.217145e+02
5.900000e-07	-4.747674e-06	-1.868681e-09	-3.354906e+01	-1.215098e+02
6.000000e-07	-4.724947e-06	-1.866848e-09	-3.338846e+01	-1.213044e+02
6.100000e-07	-4.701822e-06	-1.836319e-09	-3.322505e+01	-1.210984e+02
6.200000e-07	-4.678431e-06	-1.822777e-09	-3.305976e+01	-1.208920e+02
6.300000e-07	-4.654817e-06	-1.824933e-09	-3.289290e+01	-1.206849e+02
6.400000e-07	-4.630996e-06	-1.841025e-09	-3.272457e+01	-1.204772e+02
6.500000e-07	-4.606903e-06	-1.829049e-09	-3.255432e+01	-1.202686e+02
6.600000e-07	-4.582532e-06	-1.811233e-09	-3.238210e+01	-1.200589e+02
6.700000e-07	-4.557784e-06	-1.813982e-09	-3.220722e+01	-1.198478e+02
6.800000e-07	-4.532544e-06	-1.835041e-09	-3.202886e+01	-1.196349e+02
6.900000e-07	-4.506842e-06	-1.819976e-09	-3.184724e+01	-1.194198e+02
7.000000e-07	-4.480675e-06	-1.796685e-09	-3.166234e+01	-1.192022e+02
7.100000e-07	-4.453989e-06	-1.787687e-09	-3.147376e+01	-1.189816e+02
7.200000e-07	-4.426903e-06	-1.801965e-09	-3.128236e+01	-1.187576e+02
7.300000e-07	-4.399519e-06	-1.802855e-09	-3.108885e+01	-1.185297e+02
7.400000e-07	-4.371884e-06	-1.792756e-09	-3.089357e+01	-1.182975e+02
7.500000e-07	-4.344031e-06	-1.784030e-09	-3.069675e+01	-1.180607e+02
7.600000e-07	-4.315895e-06	-1.795208e-09	-3.049793e+01	-1.178188e+02
7.700000e-07	-4.287486e-06	-1.797015e-09	-3.029718e+01	-1.175715e+02
7.800000e-07	-4.258834e-06	-1.780084e-09	-3.009471e+01	-1.173187e+02
7.900000e-07	-4.229845e-06	-1.760600e-09	-2.988987e+01	-1.170600e+02
8.000000e-07	-4.200493e-06	-1.761057e-09	-2.968245e+01	-1.167952e+02
8.100000e-07	-4.170931e-06	-1.769366e-09	-2.947355e+01	-1.165243e+02
8.200000e-07	-4.141158e-06	-1.770331e-09	-2.926316e+01	-1.162473e+02
8.300000e-07	-4.111028e-06	-1.762011e-09	-2.905025e+01	-1.159641e+02
8.400000e-07	-4.080547e-06	-1.758441e-09	-2.883486e+01	-1.156748e+02
8.500000e-07	-4.049815e-06	-1.762501e-09	-2.861769e+01	-1.153795e+02
8.600000e-07	-4.018838e-06	-1.754810e-09	-2.839880e+01	-1.150785e+02
8.700000e-07	-3.987586e-06	-1.737138e-09	-2.817796e+01	-1.147719e+02
8.800000e-07	-3.956086e-06	-1.722302e-09	-2.795537e+01	-1.144600e+02
8.900000e-07	-3.924453e-06	-1.728720e-09	-2.773183e+01	-1.141432e+02
9.000000e-07	-3.892684e-06	-1.737978e-09	-2.750734e+01	-1.138218e+02
9.100000e-07	-3.860707e-06	-1.733466e-09	-2.728138e+01	-1.134961e+02
9.200000e-07	-3.828482e-06	-1.717634e-09	-2.705366e+01	-1.131665e+02
9.300000e-07	-3.795955e-06	-1.711562e-09	-2.682382e+01	-1.128333e+02
9.400000e-07	-3.763085e-06	-1.705823e-09	-2.659154e+01	-1.124971e+02
9.500000e-07	-3.729868e-06	-1.697362e-09	-2.635681e+01	-1.121581e+02
9.600000e-07	-3.696341e-06	-1.683132e-09	-2.611990e+01	-1.118166e+02
9.700000e-07	-3.662445e-06	-1.682993e-09	-2.588038e+01	-1.114730e+02
9.800000e-07	-3.628028e-06	-1.687961e-09	-2.563717e+01	-1.111276e+02
9.900000e-07	-3.593154e-06	-1.686444e-09	-2.539074e+01	-1.107806e+02
1.000000e-06	-3.557950e-06	-1.672076e-09	-2.514197e+01	-1.104322e+02
1.010000e-06	-3.522513e-06	-1.659910e-09	-2.489155e+01	-1.100825e+02
1.020000e-06	-3.486900e-06	-1.650536e-09	-2.463990e+01	-1.097316e+02
1.030000e-06	-3.451048e-06	-1.641853e-09	-2.438655e+01	-1.093797e+02
1.040000e-06	-3.414991e-06	-1.632329e-09	-2.413176e+01	-1.090266e+02
1.050000e-06	-3.378785e-06	-1.629512e-09	-2.387591e+01	-1.086723e+02
1.060000e-06	-3.342393e-06	-1.630356e-09	-2.361875e+01	-1.083168e+02
1.070000e-06	-3.305839e-06	-1.629935e-09	-2.336045e+01	-1.079597e+02
1.080000e-06	-3.269164e-06	-1.618762e-09	-2.310129e+01	-1.076009e+02
1.090000e-06	-3.232224e-06	-1.602834e-09	-2.284026e+01	-1.072402e+02
1.100000e-06	-3.195003e-06	-1.592364e-09	-2.257723e+01	-1.068771e+02
1.110000e-06	-3.157574e-06	-1.587090e-09	-2.231274e+01	-1.065115e+02
1.120000e-06	-3.119903e-06	-1.579345e-09	-2.204654e+01	-1.061427e+02
1.130000e-06	-3.081974e-06	-1.566962e-09	-2.177852e+01	-1.057706e+02
1.140000e-06	-3.043847e-06	-1.561125e-09	-2.150910e+01	-1.053945e+02
1.150000e-06	-3.005504e-06	-1.559880e-09	-2.123815e+01	-1.050141e+02
1.160000e-06	-2.966966e-06	-1.554819e-09	-2.096583e+01	-1.046289e+02
1.170000e-06	-2.928314e-06	-1.541828e-09	-2.069270e+01	-1.042385e+02
1.180000e-06	-2.889425e-06	-1.531145e-09	-2.041789e+01	-1.038422e+02
1.190000e-06	-2.850332e-06	-1.526002e-09	-2.014164e+01	-1.034398e+02
1.200000e-06	-2.811079e-06	-1.519737e-09	-1.986427e+01	-1.030306e+02
1.210000e-06	-2.771620e-06	-1.505655e-09	-1.958543e+01	-1.026143e+02
1.220000e-06	-2.731996e-06	-1.495777e-09	-1.930543e+01	-1.021905e+02
1.230000e-06	-2.692170e-06	-1.491870e-09	-1.902400e+01	-1.017586e+02
1.240000e-06	-2.652237e-06	-1.489916e-09	-1.874182e+01	-1.013183e+02
1.250000e-06	-2.612243e-06	-1.480845e-09	-1.845921e+01	-1.008693e+02
1.260000e-06	-2.572058e-06	-1.467979e-09	-1.817524e+01	-1.004112e+02
1.270000e-06	-2.531700e-06	-1.457859e-09	-1.789006e+01	-9.994373e+01
1.280000e-06	-2.491224e-06	-1.453104e-09	-1.760404e+01	-9.946654e+01
1.290000e-06	-2.450558e-06	-1.445178e-09	-1.731667e+01	-9.897940e+01
1.300000e-06	-2.409696e-06	-1.432541e-09	-1.702793e+01	-9.848209e+01
1.310000e-06	-2.368685e-06	-1.422183e-09	-1.673812e+01	-9.797442e+01
1.320000e-06	-2.327476e-06	-1.416383e-09	-1.644692e+01	-9.745621e+01
1.330000e-06	-2.286031e-06	-1.408884e-09	-1.615405e+01	-9.692733e+01
1.340000e-06	-2.244262e-06	-1.399704e-09	-1.585890e+01	-9.638766e+01
1.350000e-06	-2.202131e-06	-1.388677e-09	-1.556118e+01	-9.583712e+01
1.360000e-06	-2.159704e-06	-1.379386e-09	-1.526138e+01	-9.527563e+01
1.370000e-06	-2.117090e-06	-1.370931e-09	-1.496025e+01	-9.470315e+01
1.380000e-06	-2.074345e-06	-1.361113e-09	-1.465819e+01	-9.411965e+01
1.390000e-06	-2.031355e-06	-1.350880e-09	-1.435441e+01	-9.352513e+01
1.400000e-06	-1.988111e-06	-1.343182e-09	-1.404883e+01	-9.291960e+01
1.410000e-06	-1.944690e-06	-1.337233e-09	-1.374200e+01	-9.230306e+01
1.420000e-06	-1.901135e-06	-1.329298e-09	-1.343422e+01	-9.167556e+01
1.430000e-06	-1.857496e-06	-1.320116e-09	-1.312585e+01	-9.103714e+01
1.440000e-06	-1.813739e-06	-1.309382e-09	-1.281664e+01	-9.038783e+01
1.450000e-06	-1.769841e-06	-1.298603e-09	-1.250644e+01	-8.972770e+01
1.460000e-06	-1.725874e-06	-1.286781e-09	-1.219575e+01	-8.905679e+01
1.470000e-06	-1.681874e-06	-1.274420e-09	-1.188483e+01	-8.837517e+01
1.480000e-06	-1.637826e-06	-1.265448e-09	-1.157357e+01	-8.768287e+01
1.490000e-06	-1.593677e-06	-1.260257e-09	-1.126159e+01	-8.697994e+01
1.500000e-06	-1.549392e-06	-1.251881e-09	-1.094865e+01	-8.626643e+01
1.510000e-06	-1.505065e-06	-1.241250e-09	-1.063542e+01	-8.554236e+01
1.520000e-06	-1.460766e-06	-1.231045e-09	-1.032239e+01	-8.480774e+01
1.530000e-06	-1.416398e-06	-1.222274e-09	-1.000887e+01	-8.406258e+01
1.540000e-06	-1.371852e-06	-1.210735e-09	-9.694081e+00	-8.330686e+01
1.550000e-06	-1.327127e-06	-1.194385e-09	-9.378035e+00	-8.254054e+01
1.560000e-06	-1.282329e-06	-1.180160e-09	-9.061474e+00	-8.176355e+01
1.570000e-06	-1.237490e-06	-1.171589e-09	-8.744624e+00	-8.097582e+01
1.580000e-06	-1.192579e-06	-1.162615e-09	-8.427268e+00	-8.017722e+01
1.590000e-06	-1.147529e-06	-1.152413e-09	-8.108926e+00	-7.936761e+01
1.600000e-06	-1.102302e-06	-1.143006e-09	-7.789328e+00	-7.854681e+01
1.610000e-06	-1.056974e-06	-1.135336e-09	-7.469023e+00	-7.771461e+01
1.620000e-06	-1.011627e-06	-1.123359e-09	-7.148584e+00	-7.687074e+01
1.630000e-06	-9.661894e-07	-1.103949e-09	-6.827500e+00	-7.601493e+01
1.640000e-06	-9.206700e-07	-1.082187e-09	-6.505841e+00	-7.514684e+01
1.650000e-06	-8.751456e-07	-1.067053e-09	-6.184147e+00	-7.426609e+01
1.660000e-06	-8.296018e-07	-1.057441e-09	-5.862315e+00	-7.337227e+01
1.670000e-06	-7.839179e-07	-1.045371e-09	-5.539494e+00	-7.246493e+01
1.680000e-06	-7.381772e-07	-1.028948e-09	-5.216271e+00	-7.154356e+01
1.690000e-06	-6.924647e-07	-1.013454e-09	-4.893246e+00	-7.060763e+01
1.700000e-06	-6.466442e-07	-1.001070e-09	-4.569460e+00	-6.965655e+01
1.710000e-06	-6.008067e-07	-9.875869e-10	-4.245552e+00	-6.868969e+01
1.720000e-06	-5.549922e-07	-9.703231e-10	-3.921808e+00	-6.770641e+01
1.730000e-06	-5.091525e-07	-9.512724e-10	-3.597885e+00	-6.670600e+01
1.740000e-06	-4.632334e-07	-9.333920e-10	-3.273402e+00	-6.568774e+01
1.750000e-06	-4.172303e-07	-9.178304e-10	-2.948325e+00	-6.465088e+01
1.760000e-06	-3.712105e-07	-9.020693e-10	-2.623130e+00	-6.359462e+01
1.770000e-06	-3.251960e-07	-8.834078e-10	-2.297971e+00	-6.251817e+01
1.780000e-06	-2.791937e-07	-8.656392e-10	-1.972900e+00	-6.142070e+01
1.790000e-06	-2.331139e-07	-8.512341e-10	-1.647281e+00	-6.030137e+01
1.800000e-06	-1.869918e-07	-8.346206e-10	-1.321363e+00	-5.915935e+01
1.810000e-06	-1.409445e-07	-8.138273e-10	-9.959728e-01	-5.799379e+01
1.820000e-06	-9.487171e-08	-7.896759e-10	-6.704034e-01	-5.680383e+01
1.830000e-06	-4.884942e-08	-7.634173e-10	-3.451905e-01	-5.558864e+01
1.840000e-06	-2.940991e-09	-7.391018e-10	-2.078228e-02	-5.434738e+01
1.850000e-06	4.305075e-08	-7.192343e-10	3.042147e-01	-5.307925e+01
1.860000e-06	8.914822e-08	-7.031794e-10	6.299588e-01	-5.178345e+01
1.870000e-06	1.352136e-07	-6.862211e-10	9.554762e-01	-5.045922e+01
1.880000e-06	1.812523e-07	-6.680460e-10	1.280805e+00	-4.910582e+01
1.890000e-06	2.272912e-07	-6.471985e-10	1.606135e+00	-4.772256e+01
1.900000e-06	2.733082e-07	-6.227128e-10	1.931311e+00	-4.630877e+01
1.910000e-06	3.193074e-07	-5.947424e-10	2.256360e+00	-4.486385e+01
1.920000e-06	3.652764e-07	-5.682150e-10	2.581197e+00	-4.338725e+01
1.930000e-06	4.111389e-07	-5.461648e-10	2.905280e+00	-4.187844e+01
1.940000e-06	4.569375e-07	-5.277332e-10	3.228912e+00	-4.033699e+01
1.950000e-06	5.027255e-07	-5.095182e-10	3.552470e+00	-3.876252e+01
1.960000e-06	5.485308e-07	-4.878721e-10	3.876149e+00	-3.715470e+01
1.970000e-06	5.943857e-07	-4.623826e-10	4.200180e+00	-3.551329e+01
1.980000e-06	6.402022e-07	-4.361464e-10	4.523938e+00	-3.383813e+01
1.990000e-06	6.859830e-07	-4.104370e-10	4.847444e+00	-3.212912e+01
2.000000e-06	7.317119e-07	-3.835585e-10	5.170584e+00	-3.038626e+01
2.010000e-06	7.773335e-07	-3.542415e-10	5.492965e+00	-2.860963e+01
2.020000e-06	8.228841e-07	-3.269946e-10	5.814845e+00	-2.679939e+01
2.030000e-06	8.683677e-07	-3.055183e-10	6.136251e+00	-2.495582e+01
2.040000e-06	9.138089e-07	-2.841585e-10	6.457358e+00	-2.307927e+01
2.050000e-06	9.592550e-07	-2.582695e-10	6.778499e+00	-2.117023e+01
2.060000e-06	1.004668e-06	-2.305576e-10	7.099407e+00	-1.922925e+01
2.070000e-06	1.049944e-06	-2.033807e-10	7.419345e+00	-1.725703e+01
2.080000e-06	1.095085e-06	-1.747644e-10	7.738334e+00	-1.525434e+01
2.090000e-06	1.140150e-06	-1.410737e-10	8.056776e+00	-1.322211e+01
2.100000e-06	1.185140e-06	-1.070780e-10	8.374697e+00	-1.116135e+01
2.110000e-06	1.229993e-06	-7.844993e-11	8.691649e+00	-9.073215e+00
2.120000e-06	1.274672e-06	-5.337261e-11	9.007371e+00	-6.958960e+00
2.130000e-06	1.319316e-06	-2.661809e-11	9.322839e+00	-4.819972e+00
2.140000e-06	1.363927e-06	4.104442e-12	9.638081e+00	-2.657754e+00
2.150000e-06	1.408370e-06	3.699086e-11	9.952135e+00	-4.739326e-01
2.160000e-06	1.452689e-06	7.036116e-11	1.026531e+01	1.729752e+00
2.170000e-06	1.496955e-06	1.051225e-10	1.057812e+01	3.951443e+00
2.180000e-06	1.541173e-06	1.386165e-10	1.089058e+01	6.189173e+00
2.190000e-06	1.585318e-06	1.666435e-10	1.120253e+01	8.440869e+00
2.200000e-06	1.629390e-06	1.937260e-10	1.151395e+01	1.070436e+01
2.210000e-06	1.673414e-06	2.252181e-10	1.182504e+01	1.297738e+01
2.220000e-06	1.717413e-06	2.609848e-10	1.213596e+01	1.525758e+01
2.230000e-06	1.761356e-06	2.945798e-10	1.244648e+01	1.754254e+01
2.240000e-06	1.805230e-06	3.247968e-10	1.275652e+01	1.982978e+01
2.250000e-06	1.849060e-06	3.559710e-10	1.306624e+01	2.211677e+01
2.260000e-06	1.892784e-06	3.886760e-10	1.337521e+01	2.440093e+01
2.270000e-06	1.936357e-06	4.190831e-10	1.368311e+01	2.667968e+01
2.280000e-06	1.979746e-06	4.479232e-10	1.398972e+01	2.895041e+01
2.290000e-06	2.022975e-06	4.790975e-10	1.429519e+01	3.121053e+01
2.300000e-06	2.066089e-06	5.142206e-10	1.459985e+01	3.345747e+01
2.310000e-06	2.108997e-06	5.490844e-10	1.490306e+01	3.568871e+01
2.320000e-06	2.151666e-06	5.813395e-10	1.520458e+01	3.790178e+01
2.330000e-06	2.194145e-06	6.112667e-10	1.550475e+01	4.009427e+01
2.340000e-06	2.236338e-06	6.393917e-10	1.580290e+01	4.226388e+01
2.350000e-06	2.278230e-06	6.652252e-10	1.609893e+01	4.440840e+01
2.360000e-06	2.319861e-06	6.908578e-10	1.639311e+01	4.652576e+01
2.370000e-06	2.361195e-06	7.199553e-10	1.668520e+01	4.861399e+01
2.380000e-06	2.402202e-06	7.548434e-10	1.697497e+01	5.067129e+01
2.390000e-06	2.442933e-06	7.912948e-10	1.726279e+01	5.269601e+01
2.400000e-06	2.483478e-06	8.223974e-10	1.754930e+01	5.468667e+01
2.410000e-06	2.523801e-06	8.463097e-10	1.783424e+01	5.664196e+01
2.420000e-06	2.563925e-06	8.677217e-10	1.811777e+01	5.856074e+01
2.430000e-06	2.603961e-06	8.906267e-10	1.840069e+01	6.044206e+01
2.440000e-06	2.643941e-06	9.146926e-10	1.868320e+01	6.228517e+01
2.450000e-06	2.683829e-06	9.427153e-10	1.896506e+01	6.408947e+01
2.460000e-06	2.723582e-06	9.755602e-10	1.924597e+01	6.585458e+01
2.470000e-06	2.763187e-06	1.008815e-09	1.952584e+01	6.758027e+01
2.480000e-06	2.802635e-06	1.035642e-09	1.980460e+01	6.926648e+01
2.490000e-06	2.841839e-06	1.057056e-09	2.008163e+01	7.091334e+01
2.500000e-06	2.880813e-06	1.078031e-09	2.035704e+01	7.252109e+01
2.510000e-06	2.919589e-06	1.098094e-09	2.063104e+01	7.409015e+01
2.520000e-06	2.958216e-06	1.116520e-09	2.090400e+01	7.562104e+01
2.530000e-06	2.996652e-06	1.137229e-09	2.117560e+01	7.711440e+01
2.540000e-06	3.034823e-06	1.162805e-09	2.144533e+01	7.857096e+01
2.550000e-06	3.072807e-06	1.191985e-09	2.171375e+01	7.999154e+01
2.560000e-06	3.110637e-06	1.217477e-09	2.198107e+01	8.137703e+01
2.570000e-06	3.148240e-06	1.235184e-09	2.224679e+01	8.272833e+01
2.580000e-06	3.185656e-06	1.249091e-09	2.251119e+01	8.404643e+01
2.590000e-06	3.222893e-06	1.264311e-09	2.277432e+01	8.533227e+01
2.600000e-06	3.259857e-06	1.280901e-09	2.303552e+01	8.658685e+01
2.610000e-06	3.296552e-06	1.298353e-09	2.329482e+01	8.781111e+01
2.620000e-06	3.332963e-06	1.318008e-09	2.355212e+01	8.900597e+01
2.630000e-06	3.369156e-06	1.340272e-09	2.380787e+01	9.017234e+01
2.640000e-06	3.405257e-06	1.361805e-09	2.406298e+01	9.131105e+01
2.650000e-06	3.441247e-06	1.376078e-09	2.431730e+01	9.242288e+01
2.660000e-06	3.477129e-06	1.383950e-09	2.457086e+01	9.350854e+01
2.670000e-06	3.512906e-06	1.394279e-09	2.482367e+01	9.456869e+01
2.680000e-06	3.548410e-06	1.408937e-09	2.507455e+01	9.560390e+01
2.690000e-06	3.583677e-06	1.423327e-09	2.532377e+01	9.661468e+01
2.700000e-06	3.618761e-06	1.437836e-09	2.557168e+01	9.760144e+01
2.710000e-06	3.653354e-06	1.456027e-09	2.581614e+01	9.856457e+01
2.720000e-06	3.687352e-06	1.475156e-09	2.605638e+01	9.950434e+01
2.730000e-06	3.720815e-06	1.488928e-09	2.629284e+01	1.004210e+02
2.740000e-06	3.753886e-06	1.496833e-09	2.652654e+01	1.013148e+02
2.750000e-06	3.786709e-06	1.505437e-09	2.675848e+01	1.021858e+02
2.760000e-06	3.819246e-06	1.517669e-09	2.698840e+01	1.030341e+02
2.770000e-06	3.851465e-06	1.529597e-09	2.721607e+01	1.038599e+02
2.780000e-06	3.883470e-06	1.539843e-09	2.744223e+01	1.046631e+02
2.790000e-06	3.915397e-06	1.550607e-09	2.766784e+01	1.054440e+02
2.800000e-06	3.947153e-06	1.563821e-09	2.789224e+01	1.062025e+02
2.810000e-06	3.978665e-06	1.576349e-09	2.811492e+01	1.069388e+02
2.820000e-06	4.009952e-06	1.583854e-09	2.833600e+01	1.076530e+02
2.830000e-06	4.040907e-06	1.591292e-09	2.855475e+01	1.083453e+02
2.840000e-06	4.071534e-06	1.605710e-09	2.877117e+01	1.090158e+02
2.850000e-06	4.101940e-06	1.622798e-09	2.898603e+01	1.096648e+02
2.860000e-06	4.132036e-06	1.635194e-09	2.919870e+01	1.102926e+02
2.870000e-06	4.161858e-06	1.642354e-09	2.940944e+01	1.108996e+02
2.880000e-06	4.191455e-06	1.646316e-09	2.961858e+01	1.114862e+02
2.890000e-06	4.220777e-06	1.647027e-09	2.982578e+01	1.120529e+02
2.900000e-06	4.249788e-06	1.643852e-09	3.003079e+01	1.126001e+02
