# Temperatura_=_-4.02
# Concentracion g/m^3_=_4090.0
# C_Vs_to_Am_M_A/Vsm_=_65563218390.804596
# pendiente_HvsI_1/m_=_3716.3
# ordenada_HvsI_A/m_=_1297.0
# frecuencia_Hz_=_135073.04773221645

Tiempo_(s)	Campo_(V.s)	Magnetizacion_(V.s)	Campo_(kA/m)	Magnetizacion_(A/m)
0.000000e+00	-5.417337e-06	-2.023518e-09	-3.839849e+01	-1.303496e+02
1.000000e-08	-5.417444e-06	-2.022067e-09	-3.839925e+01	-1.302859e+02
2.000000e-08	-5.417301e-06	-2.020934e-09	-3.839824e+01	-1.302246e+02
3.000000e-08	-5.416871e-06	-2.020268e-09	-3.839519e+01	-1.301669e+02
4.000000e-08	-5.415985e-06	-2.019808e-09	-3.838891e+01	-1.301142e+02
5.000000e-08	-5.414519e-06	-2.027818e-09	-3.837852e+01	-1.300673e+02
6.000000e-08	-5.412465e-06	-2.048022e-09	-3.836396e+01	-1.300275e+02
7.000000e-08	-5.409762e-06	-2.027556e-09	-3.834480e+01	-1.299954e+02
8.000000e-08	-5.406464e-06	-1.939606e-09	-3.832143e+01	-1.299719e+02
9.000000e-08	-5.402768e-06	-1.955117e-09	-3.829523e+01	-1.299576e+02
1.000000e-07	-5.398703e-06	-2.108592e-09	-3.826642e+01	-1.299527e+02
1.100000e-07	-5.394354e-06	-2.125815e-09	-3.823559e+01	-1.299574e+02
1.200000e-07	-5.389784e-06	-1.917127e-09	-3.820320e+01	-1.299718e+02
1.300000e-07	-5.384910e-06	-1.907271e-09	-3.816865e+01	-1.299957e+02
1.400000e-07	-5.379650e-06	-2.114784e-09	-3.813137e+01	-1.300285e+02
1.500000e-07	-5.373949e-06	-2.164366e-09	-3.809096e+01	-1.300697e+02
1.600000e-07	-5.367815e-06	-1.890082e-09	-3.804748e+01	-1.301185e+02
1.700000e-07	-5.361321e-06	-1.863587e-09	-3.800145e+01	-1.301738e+02
1.800000e-07	-5.354470e-06	-2.100004e-09	-3.795289e+01	-1.302347e+02
1.900000e-07	-5.347254e-06	-2.135955e-09	-3.790174e+01	-1.302997e+02
2.000000e-07	-5.339761e-06	-1.946553e-09	-3.784863e+01	-1.303675e+02
2.100000e-07	-5.332087e-06	-1.967282e-09	-3.779424e+01	-1.304366e+02
2.200000e-07	-5.324244e-06	-2.136852e-09	-3.773864e+01	-1.305055e+02
2.300000e-07	-5.316076e-06	-2.059162e-09	-3.768075e+01	-1.305725e+02
2.400000e-07	-5.307476e-06	-1.948032e-09	-3.761979e+01	-1.306362e+02
2.500000e-07	-5.298327e-06	-2.046382e-09	-3.755494e+01	-1.306948e+02
2.600000e-07	-5.288418e-06	-2.134710e-09	-3.748471e+01	-1.307469e+02
2.700000e-07	-5.277840e-06	-1.975842e-09	-3.740973e+01	-1.307911e+02
2.800000e-07	-5.266824e-06	-1.973918e-09	-3.733164e+01	-1.308260e+02
2.900000e-07	-5.255442e-06	-2.125601e-09	-3.725097e+01	-1.308504e+02
3.000000e-07	-5.243631e-06	-2.073077e-09	-3.716725e+01	-1.308633e+02
3.100000e-07	-5.231348e-06	-1.900385e-09	-3.708019e+01	-1.308636e+02
3.200000e-07	-5.218779e-06	-2.013450e-09	-3.699110e+01	-1.308508e+02
3.300000e-07	-5.205863e-06	-2.118731e-09	-3.689955e+01	-1.308243e+02
3.400000e-07	-5.192520e-06	-2.014257e-09	-3.680498e+01	-1.307837e+02
3.500000e-07	-5.178787e-06	-1.958232e-09	-3.670763e+01	-1.307289e+02
3.600000e-07	-5.164720e-06	-2.071186e-09	-3.660793e+01	-1.306601e+02
3.700000e-07	-5.150284e-06	-2.039278e-09	-3.650560e+01	-1.305774e+02
3.800000e-07	-5.135296e-06	-1.980187e-09	-3.639937e+01	-1.304813e+02
3.900000e-07	-5.119640e-06	-2.023063e-09	-3.628840e+01	-1.303726e+02
4.000000e-07	-5.103431e-06	-2.026176e-09	-3.617350e+01	-1.302518e+02
4.100000e-07	-5.086744e-06	-1.956440e-09	-3.605523e+01	-1.301201e+02
4.200000e-07	-5.069685e-06	-2.009558e-09	-3.593431e+01	-1.299784e+02
4.300000e-07	-5.052459e-06	-2.057066e-09	-3.581221e+01	-1.298279e+02
4.400000e-07	-5.034941e-06	-1.976225e-09	-3.568804e+01	-1.296698e+02
4.500000e-07	-5.017045e-06	-1.959718e-09	-3.556119e+01	-1.295054e+02
4.600000e-07	-4.998822e-06	-2.028850e-09	-3.543203e+01	-1.293360e+02
4.700000e-07	-4.980175e-06	-2.020371e-09	-3.529986e+01	-1.291627e+02
4.800000e-07	-4.961123e-06	-1.960401e-09	-3.516481e+01	-1.289869e+02
4.900000e-07	-4.941768e-06	-1.973996e-09	-3.502762e+01	-1.288098e+02
5.000000e-07	-4.922143e-06	-1.986737e-09	-3.488852e+01	-1.286324e+02
5.100000e-07	-4.902321e-06	-1.996746e-09	-3.474802e+01	-1.284557e+02
5.200000e-07	-4.882233e-06	-1.995345e-09	-3.460564e+01	-1.282807e+02
5.300000e-07	-4.861857e-06	-1.980782e-09	-3.446121e+01	-1.281080e+02
5.400000e-07	-4.841142e-06	-1.966476e-09	-3.431438e+01	-1.279382e+02
5.500000e-07	-4.820030e-06	-2.002453e-09	-3.416474e+01	-1.277718e+02
5.600000e-07	-4.798617e-06	-1.990725e-09	-3.401296e+01	-1.276090e+02
5.700000e-07	-4.776936e-06	-1.954380e-09	-3.385928e+01	-1.274500e+02
5.800000e-07	-4.754946e-06	-1.946746e-09	-3.370342e+01	-1.272947e+02
5.900000e-07	-4.732681e-06	-1.971990e-09	-3.354560e+01	-1.271428e+02
6.000000e-07	-4.710091e-06	-1.968988e-09	-3.338548e+01	-1.269941e+02
6.100000e-07	-4.687080e-06	-1.962885e-09	-3.322238e+01	-1.268480e+02
6.200000e-07	-4.663692e-06	-1.944236e-09	-3.305660e+01	-1.267040e+02
6.300000e-07	-4.640029e-06	-1.949926e-09	-3.288888e+01	-1.265612e+02
6.400000e-07	-4.616172e-06	-1.967678e-09	-3.271977e+01	-1.264189e+02
6.500000e-07	-4.592127e-06	-1.959369e-09	-3.254935e+01	-1.262762e+02
6.600000e-07	-4.567749e-06	-1.921565e-09	-3.237655e+01	-1.261323e+02
6.700000e-07	-4.542982e-06	-1.924995e-09	-3.220100e+01	-1.259861e+02
6.800000e-07	-4.517835e-06	-1.945060e-09	-3.202276e+01	-1.258367e+02
6.900000e-07	-4.492272e-06	-1.940708e-09	-3.184156e+01	-1.256832e+02
7.000000e-07	-4.466223e-06	-1.920837e-09	-3.165692e+01	-1.255248e+02
7.100000e-07	-4.439627e-06	-1.916451e-09	-3.146841e+01	-1.253605e+02
7.200000e-07	-4.412576e-06	-1.924494e-09	-3.127668e+01	-1.251897e+02
7.300000e-07	-4.385170e-06	-1.926483e-09	-3.108242e+01	-1.250117e+02
7.400000e-07	-4.357533e-06	-1.909021e-09	-3.088652e+01	-1.248259e+02
7.500000e-07	-4.329735e-06	-1.889842e-09	-3.068949e+01	-1.246320e+02
7.600000e-07	-4.301746e-06	-1.897596e-09	-3.049110e+01	-1.244296e+02
7.700000e-07	-4.273537e-06	-1.904714e-09	-3.029116e+01	-1.242186e+02
7.800000e-07	-4.245008e-06	-1.893542e-09	-3.008893e+01	-1.239988e+02
7.900000e-07	-4.216073e-06	-1.875601e-09	-2.988384e+01	-1.237704e+02
8.000000e-07	-4.186840e-06	-1.877594e-09	-2.967664e+01	-1.235335e+02
8.100000e-07	-4.157389e-06	-1.881472e-09	-2.946789e+01	-1.232886e+02
8.200000e-07	-4.127677e-06	-1.879449e-09	-2.925728e+01	-1.230359e+02
8.300000e-07	-4.097722e-06	-1.862839e-09	-2.904496e+01	-1.227761e+02
8.400000e-07	-4.067492e-06	-1.856181e-09	-2.883069e+01	-1.225098e+02
8.500000e-07	-4.036937e-06	-1.857572e-09	-2.861412e+01	-1.222375e+02
8.600000e-07	-4.006097e-06	-1.856282e-09	-2.839552e+01	-1.219601e+02
8.700000e-07	-3.975021e-06	-1.835947e-09	-2.817525e+01	-1.216783e+02
8.800000e-07	-3.943766e-06	-1.822360e-09	-2.795371e+01	-1.213929e+02
8.900000e-07	-3.912263e-06	-1.823834e-09	-2.773041e+01	-1.211047e+02
9.000000e-07	-3.880510e-06	-1.832902e-09	-2.750535e+01	-1.208144e+02
9.100000e-07	-3.848612e-06	-1.823423e-09	-2.727925e+01	-1.205228e+02
9.200000e-07	-3.816500e-06	-1.810524e-09	-2.705164e+01	-1.202305e+02
9.300000e-07	-3.784087e-06	-1.803153e-09	-2.682190e+01	-1.199381e+02
9.400000e-07	-3.751315e-06	-1.804017e-09	-2.658960e+01	-1.196463e+02
9.500000e-07	-3.718196e-06	-1.795135e-09	-2.635486e+01	-1.193554e+02
9.600000e-07	-3.684689e-06	-1.784104e-09	-2.611736e+01	-1.190659e+02
9.700000e-07	-3.650749e-06	-1.781094e-09	-2.587678e+01	-1.187779e+02
9.800000e-07	-3.616465e-06	-1.787113e-09	-2.563378e+01	-1.184917e+02
9.900000e-07	-3.581800e-06	-1.783182e-09	-2.538807e+01	-1.182073e+02
1.000000e-06	-3.546723e-06	-1.769096e-09	-2.513944e+01	-1.179247e+02
1.010000e-06	-3.511351e-06	-1.757458e-09	-2.488872e+01	-1.176436e+02
1.020000e-06	-3.475791e-06	-1.753634e-09	-2.463667e+01	-1.173639e+02
1.030000e-06	-3.440051e-06	-1.751350e-09	-2.438335e+01	-1.170853e+02
1.040000e-06	-3.404203e-06	-1.745739e-09	-2.412925e+01	-1.168072e+02
1.050000e-06	-3.368227e-06	-1.740883e-09	-2.387425e+01	-1.165292e+02
1.060000e-06	-3.332061e-06	-1.741639e-09	-2.361790e+01	-1.162508e+02
1.070000e-06	-3.295689e-06	-1.743443e-09	-2.336009e+01	-1.159714e+02
1.080000e-06	-3.259084e-06	-1.733964e-09	-2.310064e+01	-1.156902e+02
1.090000e-06	-3.222193e-06	-1.721917e-09	-2.283915e+01	-1.154066e+02
1.100000e-06	-3.185057e-06	-1.715849e-09	-2.257593e+01	-1.151200e+02
1.110000e-06	-3.147758e-06	-1.715743e-09	-2.231155e+01	-1.148297e+02
1.120000e-06	-3.110236e-06	-1.708729e-09	-2.204559e+01	-1.145350e+02
1.130000e-06	-3.072378e-06	-1.699586e-09	-2.177725e+01	-1.142353e+02
1.140000e-06	-3.034332e-06	-1.695182e-09	-2.150757e+01	-1.139300e+02
1.150000e-06	-2.996265e-06	-1.696790e-09	-2.123775e+01	-1.136184e+02
1.160000e-06	-2.958029e-06	-1.691270e-09	-2.096673e+01	-1.133002e+02
1.170000e-06	-2.919539e-06	-1.680288e-09	-2.069391e+01	-1.129748e+02
1.180000e-06	-2.880844e-06	-1.670260e-09	-2.041964e+01	-1.126418e+02
1.190000e-06	-2.841845e-06	-1.669543e-09	-2.014321e+01	-1.123009e+02
1.200000e-06	-2.802582e-06	-1.665321e-09	-1.986491e+01	-1.119518e+02
1.210000e-06	-2.763171e-06	-1.655452e-09	-1.958557e+01	-1.115944e+02
1.220000e-06	-2.723606e-06	-1.646192e-09	-1.930513e+01	-1.112284e+02
1.230000e-06	-2.683865e-06	-1.644684e-09	-1.902344e+01	-1.108537e+02
1.240000e-06	-2.643965e-06	-1.641338e-09	-1.874062e+01	-1.104704e+02
1.250000e-06	-2.603961e-06	-1.636194e-09	-1.845707e+01	-1.100784e+02
1.260000e-06	-2.563868e-06	-1.626908e-09	-1.817289e+01	-1.096778e+02
1.270000e-06	-2.523732e-06	-1.618074e-09	-1.788840e+01	-1.092686e+02
1.280000e-06	-2.483453e-06	-1.610793e-09	-1.760290e+01	-1.088510e+02
1.290000e-06	-2.442954e-06	-1.601063e-09	-1.731585e+01	-1.084250e+02
1.300000e-06	-2.402289e-06	-1.588097e-09	-1.702761e+01	-1.079908e+02
1.310000e-06	-2.361448e-06	-1.577818e-09	-1.673812e+01	-1.075485e+02
1.320000e-06	-2.320344e-06	-1.572828e-09	-1.644677e+01	-1.070982e+02
1.330000e-06	-2.278959e-06	-1.567612e-09	-1.615343e+01	-1.066400e+02
1.340000e-06	-2.237271e-06	-1.561031e-09	-1.585795e+01	-1.061740e+02
1.350000e-06	-2.195302e-06	-1.551542e-09	-1.556047e+01	-1.057001e+02
1.360000e-06	-2.153113e-06	-1.542439e-09	-1.526143e+01	-1.052185e+02
1.370000e-06	-2.110599e-06	-1.534023e-09	-1.496009e+01	-1.047290e+02
1.380000e-06	-2.067820e-06	-1.524232e-09	-1.465686e+01	-1.042316e+02
1.390000e-06	-2.024769e-06	-1.513162e-09	-1.435171e+01	-1.037261e+02
1.400000e-06	-1.981500e-06	-1.506329e-09	-1.404502e+01	-1.032124e+02
1.410000e-06	-1.938269e-06	-1.504231e-09	-1.373860e+01	-1.026903e+02
1.420000e-06	-1.894894e-06	-1.499248e-09	-1.343115e+01	-1.021594e+02
1.430000e-06	-1.851276e-06	-1.487334e-09	-1.312198e+01	-1.016195e+02
1.440000e-06	-1.807533e-06	-1.475366e-09	-1.281193e+01	-1.010702e+02
1.450000e-06	-1.763698e-06	-1.466352e-09	-1.250123e+01	-1.005111e+02
1.460000e-06	-1.719874e-06	-1.458957e-09	-1.219060e+01	-9.994188e+01
1.470000e-06	-1.676027e-06	-1.446984e-09	-1.187981e+01	-9.936195e+01
1.480000e-06	-1.632076e-06	-1.432916e-09	-1.156828e+01	-9.877090e+01
1.490000e-06	-1.588050e-06	-1.421456e-09	-1.125622e+01	-9.816824e+01
1.500000e-06	-1.543963e-06	-1.411668e-09	-1.094373e+01	-9.755345e+01
1.510000e-06	-1.499770e-06	-1.399429e-09	-1.063048e+01	-9.692603e+01
1.520000e-06	-1.455521e-06	-1.386882e-09	-1.031684e+01	-9.628547e+01
1.530000e-06	-1.411272e-06	-1.378069e-09	-1.000320e+01	-9.563125e+01
1.540000e-06	-1.366962e-06	-1.375622e-09	-9.689132e+00	-9.496287e+01
1.550000e-06	-1.322502e-06	-1.371141e-09	-9.373994e+00	-9.427984e+01
1.560000e-06	-1.277885e-06	-1.360351e-09	-9.057747e+00	-9.358169e+01
1.570000e-06	-1.233194e-06	-1.347427e-09	-8.740971e+00	-9.286795e+01
1.580000e-06	-1.188361e-06	-1.336392e-09	-8.423190e+00	-9.213819e+01
1.590000e-06	-1.143425e-06	-1.325862e-09	-8.104680e+00	-9.139197e+01
1.600000e-06	-1.098428e-06	-1.314913e-09	-7.785740e+00	-9.062889e+01
1.610000e-06	-1.053251e-06	-1.301192e-09	-7.465524e+00	-8.984856e+01
1.620000e-06	-1.007922e-06	-1.290060e-09	-7.144230e+00	-8.905062e+01
1.630000e-06	-9.625591e-07	-1.281034e-09	-6.822692e+00	-8.823472e+01
1.640000e-06	-9.172309e-07	-1.271369e-09	-6.501402e+00	-8.740049e+01
1.650000e-06	-8.718737e-07	-1.258986e-09	-6.179907e+00	-8.654762e+01
1.660000e-06	-8.264281e-07	-1.246585e-09	-5.857785e+00	-8.567577e+01
1.670000e-06	-7.808558e-07	-1.237053e-09	-5.534765e+00	-8.478460e+01
1.680000e-06	-7.352367e-07	-1.224305e-09	-5.211414e+00	-8.387377e+01
1.690000e-06	-6.896747e-07	-1.206521e-09	-4.888467e+00	-8.294293e+01
1.700000e-06	-6.440395e-07	-1.187633e-09	-4.565001e+00	-8.199171e+01
1.710000e-06	-5.983676e-07	-1.172608e-09	-4.241275e+00	-8.101973e+01
1.720000e-06	-5.526964e-07	-1.159549e-09	-3.917554e+00	-8.002655e+01
1.730000e-06	-5.068806e-07	-1.145433e-09	-3.592808e+00	-7.901173e+01
1.740000e-06	-4.610207e-07	-1.129756e-09	-3.267750e+00	-7.797478e+01
1.750000e-06	-4.152191e-07	-1.117289e-09	-2.943105e+00	-7.691516e+01
1.760000e-06	-3.693742e-07	-1.106033e-09	-2.618152e+00	-7.583228e+01
1.770000e-06	-3.235295e-07	-1.088096e-09	-2.293201e+00	-7.472552e+01
1.780000e-06	-2.776975e-07	-1.062223e-09	-1.968341e+00	-7.359418e+01
1.790000e-06	-2.317976e-07	-1.038352e-09	-1.642999e+00	-7.243752e+01
1.800000e-06	-1.858628e-07	-1.020237e-09	-1.317409e+00	-7.125472e+01
1.810000e-06	-1.399419e-07	-1.006232e-09	-9.919187e-01	-7.004493e+01
1.820000e-06	-9.398328e-08	-9.903850e-10	-6.661606e-01	-6.880723e+01
1.830000e-06	-4.803096e-08	-9.716426e-10	-3.404471e-01	-6.754062e+01
1.840000e-06	-2.144053e-09	-9.522067e-10	-1.519721e-02	-6.624406e+01
1.850000e-06	4.375858e-08	-9.329301e-10	3.101642e-01	-6.491648e+01
1.860000e-06	8.964494e-08	-9.104448e-10	6.354102e-01	-6.355673e+01
1.870000e-06	1.355378e-07	-8.857185e-10	9.607018e-01	-6.216362e+01
1.880000e-06	1.814402e-07	-8.632908e-10	1.286062e+00	-6.073593e+01
1.890000e-06	2.272561e-07	-8.433945e-10	1.610809e+00	-5.927242e+01
1.900000e-06	2.730544e-07	-8.215750e-10	1.935430e+00	-5.777182e+01
1.910000e-06	3.188718e-07	-7.987892e-10	2.260188e+00	-5.623285e+01
1.920000e-06	3.646718e-07	-7.770634e-10	2.584822e+00	-5.465424e+01
1.930000e-06	4.104756e-07	-7.566293e-10	2.909482e+00	-5.303472e+01
1.940000e-06	4.562016e-07	-7.322592e-10	3.233591e+00	-5.137306e+01
1.950000e-06	5.018171e-07	-7.037780e-10	3.556918e+00	-4.966806e+01
1.960000e-06	5.474211e-07	-6.755273e-10	3.880162e+00	-4.791858e+01
1.970000e-06	5.929734e-07	-6.472752e-10	4.203040e+00	-4.612356e+01
1.980000e-06	6.385112e-07	-6.191011e-10	4.525816e+00	-4.428200e+01
1.990000e-06	6.840693e-07	-5.902990e-10	4.848735e+00	-4.239304e+01
2.000000e-06	7.295474e-07	-5.625562e-10	5.171087e+00	-4.045591e+01
2.010000e-06	7.750136e-07	-5.362849e-10	5.493355e+00	-3.846999e+01
2.020000e-06	8.204958e-07	-5.089826e-10	5.815737e+00	-3.643481e+01
2.030000e-06	8.659463e-07	-4.782299e-10	6.137893e+00	-3.435007e+01
2.040000e-06	9.112790e-07	-4.464930e-10	6.459215e+00	-3.221566e+01
2.050000e-06	9.565233e-07	-4.144576e-10	6.779910e+00	-3.003166e+01
2.060000e-06	1.001693e-06	-3.820843e-10	7.100077e+00	-2.779839e+01
2.070000e-06	1.046759e-06	-3.488505e-10	7.419505e+00	-2.551635e+01
2.080000e-06	1.091702e-06	-3.149297e-10	7.738068e+00	-2.318633e+01
2.090000e-06	1.136557e-06	-2.786251e-10	8.056000e+00	-2.080934e+01
2.100000e-06	1.181355e-06	-2.420824e-10	8.373535e+00	-1.838665e+01
2.110000e-06	1.226007e-06	-2.058079e-10	8.690028e+00	-1.591979e+01
2.120000e-06	1.270581e-06	-1.710123e-10	9.005975e+00	-1.341057e+01
2.130000e-06	1.315093e-06	-1.359735e-10	9.321479e+00	-1.086103e+01
2.140000e-06	1.359499e-06	-9.842108e-11	9.636230e+00	-8.273516e+00
2.150000e-06	1.403853e-06	-5.832512e-11	9.950619e+00	-5.650604e+00
2.160000e-06	1.448153e-06	-1.686247e-11	1.026462e+01	-2.995133e+00
2.170000e-06	1.492381e-06	2.500664e-11	1.057811e+01	-3.101805e-01
2.180000e-06	1.536534e-06	6.500298e-11	1.089107e+01	2.400950e+00
2.190000e-06	1.580587e-06	1.035258e-10	1.120332e+01	5.134741e+00
2.200000e-06	1.624547e-06	1.413469e-10	1.151492e+01	7.887484e+00
2.210000e-06	1.668447e-06	1.790794e-10	1.182608e+01	1.065530e+01
2.220000e-06	1.712300e-06	2.181150e-10	1.213691e+01	1.343415e+01
2.230000e-06	1.756106e-06	2.595793e-10	1.244741e+01	1.621991e+01
2.240000e-06	1.799823e-06	3.027585e-10	1.275728e+01	1.900831e+01
2.250000e-06	1.843463e-06	3.435602e-10	1.306661e+01	2.179505e+01
2.260000e-06	1.887069e-06	3.826130e-10	1.337569e+01	2.457581e+01
2.270000e-06	1.930568e-06	4.224623e-10	1.368401e+01	2.734622e+01
2.280000e-06	1.973994e-06	4.624497e-10	1.399182e+01	3.010200e+01
2.290000e-06	2.017272e-06	4.996442e-10	1.429858e+01	3.283889e+01
2.300000e-06	2.060257e-06	5.369131e-10	1.460326e+01	3.555275e+01
2.310000e-06	2.103044e-06	5.743058e-10	1.490654e+01	3.823955e+01
2.320000e-06	2.145704e-06	6.129048e-10	1.520891e+01	4.089545e+01
2.330000e-06	2.188066e-06	6.492220e-10	1.550918e+01	4.351676e+01
2.340000e-06	2.230014e-06	6.820558e-10	1.580651e+01	4.610002e+01
2.350000e-06	2.271757e-06	7.152627e-10	1.610239e+01	4.864202e+01
2.360000e-06	2.313241e-06	7.501108e-10	1.639643e+01	5.113980e+01
2.370000e-06	2.354343e-06	7.854314e-10	1.668776e+01	5.359067e+01
2.380000e-06	2.395176e-06	8.213884e-10	1.697719e+01	5.599224e+01
2.390000e-06	2.435807e-06	8.581018e-10	1.726518e+01	5.834244e+01
2.400000e-06	2.476229e-06	8.945017e-10	1.755170e+01	6.063950e+01
2.410000e-06	2.516464e-06	9.262153e-10	1.783689e+01	6.288196e+01
2.420000e-06	2.556549e-06	9.520362e-10	1.812102e+01	6.506870e+01
2.430000e-06	2.596508e-06	9.751440e-10	1.840424e+01	6.719890e+01
2.440000e-06	2.636399e-06	9.988733e-10	1.868699e+01	6.927204e+01
2.450000e-06	2.676177e-06	1.027157e-09	1.896895e+01	7.128792e+01
2.460000e-06	2.715835e-06	1.060902e-09	1.925005e+01	7.324660e+01
2.470000e-06	2.755369e-06	1.097181e-09	1.953027e+01	7.514843e+01
2.480000e-06	2.794690e-06	1.130000e-09	1.980897e+01	7.699399e+01
2.490000e-06	2.833806e-06	1.157725e-09	2.008623e+01	7.878408e+01
2.500000e-06	2.872733e-06	1.179688e-09	2.036215e+01	8.051972e+01
2.510000e-06	2.911359e-06	1.197343e-09	2.063593e+01	8.220207e+01
2.520000e-06	2.949790e-06	1.214851e-09	2.090833e+01	8.383248e+01
2.530000e-06	2.988113e-06	1.236485e-09	2.117997e+01	8.541238e+01
2.540000e-06	3.026167e-06	1.261514e-09	2.144970e+01	8.694331e+01
2.550000e-06	3.063963e-06	1.288993e-09	2.171760e+01	8.842688e+01
2.560000e-06	3.101624e-06	1.314551e-09	2.198454e+01	8.986472e+01
2.570000e-06	3.139090e-06	1.336385e-09	2.225011e+01	9.125850e+01
2.580000e-06	3.176354e-06	1.355559e-09	2.251424e+01	9.260986e+01
2.590000e-06	3.213427e-06	1.371018e-09	2.277702e+01	9.392040e+01
2.600000e-06	3.250278e-06	1.386345e-09	2.303821e+01	9.519169e+01
2.610000e-06	3.286913e-06	1.402977e-09	2.329789e+01	9.642522e+01
2.620000e-06	3.323270e-06	1.421889e-09	2.355559e+01	9.762239e+01
2.630000e-06	3.359411e-06	1.440996e-09	2.381176e+01	9.878454e+01
2.640000e-06	3.395443e-06	1.458125e-09	2.406716e+01	9.991288e+01
2.650000e-06	3.431349e-06	1.473937e-09	2.432166e+01	1.010085e+02
2.660000e-06	3.467116e-06	1.489194e-09	2.457518e+01	1.020725e+02
2.670000e-06	3.502714e-06	1.506348e-09	2.482750e+01	1.031056e+02
2.680000e-06	3.538083e-06	1.523033e-09	2.507820e+01	1.041088e+02
2.690000e-06	3.573134e-06	1.535694e-09	2.532665e+01	1.050826e+02
2.700000e-06	3.607873e-06	1.546492e-09	2.557288e+01	1.060278e+02
2.710000e-06	3.642205e-06	1.558902e-09	2.581623e+01	1.069448e+02
2.720000e-06	3.676018e-06	1.573226e-09	2.605589e+01	1.078342e+02
2.730000e-06	3.709416e-06	1.584821e-09	2.629262e+01	1.086963e+02
2.740000e-06	3.742471e-06	1.595501e-09	2.652692e+01	1.095315e+02
2.750000e-06	3.775178e-06	1.609097e-09	2.675875e+01	1.103403e+02
2.760000e-06	3.807586e-06	1.624472e-09	2.698846e+01	1.111228e+02
2.770000e-06	3.839760e-06	1.636657e-09	2.721651e+01	1.118795e+02
2.780000e-06	3.871687e-06	1.645360e-09	2.744281e+01	1.126108e+02
2.790000e-06	3.903423e-06	1.654906e-09	2.766776e+01	1.133169e+02
2.800000e-06	3.935013e-06	1.665493e-09	2.789167e+01	1.139984e+02
2.810000e-06	3.966435e-06	1.674250e-09	2.811439e+01	1.146557e+02
2.820000e-06	3.997690e-06	1.680415e-09	2.833593e+01	1.152893e+02
2.830000e-06	4.028712e-06	1.687826e-09	2.855581e+01	1.158998e+02
2.840000e-06	4.059378e-06	1.699896e-09	2.877318e+01	1.164878e+02
2.850000e-06	4.089666e-06	1.715139e-09	2.898786e+01	1.170540e+02
2.860000e-06	4.119608e-06	1.729113e-09	2.920009e+01	1.175991e+02
2.870000e-06	4.149235e-06	1.738715e-09	2.941009e+01	1.181239e+02
2.880000e-06	4.178616e-06	1.743504e-09	2.961835e+01	1.186292e+02
2.890000e-06	4.207775e-06	1.744514e-09	2.982503e+01	1.191160e+02
2.900000e-06	4.236663e-06	1.744388e-09	3.002979e+01	1.195850e+02
