# Temperatura_=_19.84
# Concentracion g/m^3_=_4090.0
# C_Vs_to_Am_M_A/Vsm_=_65563218390.804596
# pendiente_HvsI_1/m_=_3716.3
# ordenada_HvsI_A/m_=_1297.0
# frecuencia_Hz_=_135079.2461364408

Tiempo_(s)	Campo_(V.s)	Magnetizacion_(V.s)	Campo_(kA/m)	Magnetizacion_(A/m)
0.000000e+00	-5.422817e-06	-2.313760e-09	-3.840217e+01	-1.499982e+02
1.000000e-08	-5.422901e-06	-2.309468e-09	-3.840277e+01	-1.498563e+02
2.000000e-08	-5.422766e-06	-2.305326e-09	-3.840182e+01	-1.497118e+02
3.000000e-08	-5.422333e-06	-2.300405e-09	-3.839874e+01	-1.495661e+02
4.000000e-08	-5.421536e-06	-2.298147e-09	-3.839310e+01	-1.494204e+02
5.000000e-08	-5.420264e-06	-2.302442e-09	-3.838410e+01	-1.492760e+02
6.000000e-08	-5.418325e-06	-2.306497e-09	-3.837036e+01	-1.491341e+02
7.000000e-08	-5.415691e-06	-2.298866e-09	-3.835171e+01	-1.489959e+02
8.000000e-08	-5.412533e-06	-2.293873e-09	-3.832935e+01	-1.488624e+02
9.000000e-08	-5.408846e-06	-2.316603e-09	-3.830324e+01	-1.487347e+02
1.000000e-07	-5.404604e-06	-2.360293e-09	-3.827320e+01	-1.486136e+02
1.100000e-07	-5.400138e-06	-2.343771e-09	-3.824157e+01	-1.484998e+02
1.200000e-07	-5.395648e-06	-2.278487e-09	-3.820977e+01	-1.483939e+02
1.300000e-07	-5.390907e-06	-2.259985e-09	-3.817620e+01	-1.482962e+02
1.400000e-07	-5.385698e-06	-2.331470e-09	-3.813931e+01	-1.482070e+02
1.500000e-07	-5.380048e-06	-2.324887e-09	-3.809930e+01	-1.481264e+02
1.600000e-07	-5.374050e-06	-2.242836e-09	-3.805683e+01	-1.480541e+02
1.700000e-07	-5.367560e-06	-2.201755e-09	-3.801087e+01	-1.479900e+02
1.800000e-07	-5.360675e-06	-2.313173e-09	-3.796211e+01	-1.479336e+02
1.900000e-07	-5.353551e-06	-2.338377e-09	-3.791166e+01	-1.478842e+02
2.000000e-07	-5.346254e-06	-2.258779e-09	-3.785999e+01	-1.478412e+02
2.100000e-07	-5.338604e-06	-2.211766e-09	-3.780581e+01	-1.478035e+02
2.200000e-07	-5.330601e-06	-2.276658e-09	-3.774914e+01	-1.477703e+02
2.300000e-07	-5.322443e-06	-2.275402e-09	-3.769137e+01	-1.477404e+02
2.400000e-07	-5.313937e-06	-2.216523e-09	-3.763113e+01	-1.477126e+02
2.500000e-07	-5.304719e-06	-2.233219e-09	-3.756585e+01	-1.476857e+02
2.600000e-07	-5.294755e-06	-2.289922e-09	-3.749529e+01	-1.476585e+02
2.700000e-07	-5.284217e-06	-2.287489e-09	-3.742067e+01	-1.476296e+02
2.800000e-07	-5.273144e-06	-2.260370e-09	-3.734225e+01	-1.475979e+02
2.900000e-07	-5.261686e-06	-2.301437e-09	-3.726111e+01	-1.475621e+02
3.000000e-07	-5.249907e-06	-2.305839e-09	-3.717769e+01	-1.475211e+02
3.100000e-07	-5.237739e-06	-2.272809e-09	-3.709153e+01	-1.474738e+02
3.200000e-07	-5.225127e-06	-2.269868e-09	-3.700221e+01	-1.474192e+02
3.300000e-07	-5.212197e-06	-2.323533e-09	-3.691065e+01	-1.473563e+02
3.400000e-07	-5.198893e-06	-2.290337e-09	-3.681644e+01	-1.472846e+02
3.500000e-07	-5.185203e-06	-2.266403e-09	-3.671949e+01	-1.472033e+02
3.600000e-07	-5.171207e-06	-2.283000e-09	-3.662038e+01	-1.471120e+02
3.700000e-07	-5.156819e-06	-2.310164e-09	-3.651848e+01	-1.470104e+02
3.800000e-07	-5.141885e-06	-2.260327e-09	-3.641273e+01	-1.468982e+02
3.900000e-07	-5.126231e-06	-2.263454e-09	-3.630187e+01	-1.467754e+02
4.000000e-07	-5.110075e-06	-2.280379e-09	-3.618746e+01	-1.466421e+02
4.100000e-07	-5.093516e-06	-2.275536e-09	-3.607020e+01	-1.464986e+02
4.200000e-07	-5.076541e-06	-2.252050e-09	-3.594999e+01	-1.463451e+02
4.300000e-07	-5.059355e-06	-2.267546e-09	-3.582828e+01	-1.461822e+02
4.400000e-07	-5.041907e-06	-2.254290e-09	-3.570472e+01	-1.460105e+02
4.500000e-07	-5.024051e-06	-2.242040e-09	-3.557828e+01	-1.458304e+02
4.600000e-07	-5.005842e-06	-2.249890e-09	-3.544933e+01	-1.456429e+02
4.700000e-07	-4.987368e-06	-2.256136e-09	-3.531850e+01	-1.454486e+02
4.800000e-07	-4.968461e-06	-2.239998e-09	-3.518461e+01	-1.452483e+02
4.900000e-07	-4.949119e-06	-2.239662e-09	-3.504764e+01	-1.450429e+02
5.000000e-07	-4.929458e-06	-2.241376e-09	-3.490841e+01	-1.448330e+02
5.100000e-07	-4.909619e-06	-2.227763e-09	-3.476792e+01	-1.446195e+02
5.200000e-07	-4.889646e-06	-2.221398e-09	-3.462647e+01	-1.444031e+02
5.300000e-07	-4.869428e-06	-2.215459e-09	-3.448330e+01	-1.441845e+02
5.400000e-07	-4.848873e-06	-2.213581e-09	-3.433773e+01	-1.439643e+02
5.500000e-07	-4.827871e-06	-2.217962e-09	-3.418901e+01	-1.437430e+02
5.600000e-07	-4.806482e-06	-2.224317e-09	-3.403754e+01	-1.435210e+02
5.700000e-07	-4.784742e-06	-2.209777e-09	-3.388359e+01	-1.432988e+02
5.800000e-07	-4.762655e-06	-2.209518e-09	-3.372718e+01	-1.430765e+02
5.900000e-07	-4.740387e-06	-2.205633e-09	-3.356948e+01	-1.428544e+02
6.000000e-07	-4.717885e-06	-2.193442e-09	-3.341013e+01	-1.426325e+02
6.100000e-07	-4.694929e-06	-2.177464e-09	-3.324757e+01	-1.424107e+02
6.200000e-07	-4.671612e-06	-2.179877e-09	-3.308245e+01	-1.421891e+02
6.300000e-07	-4.648083e-06	-2.175097e-09	-3.291582e+01	-1.419672e+02
6.400000e-07	-4.624285e-06	-2.184176e-09	-3.274730e+01	-1.417450e+02
6.500000e-07	-4.600320e-06	-2.183331e-09	-3.257758e+01	-1.415221e+02
6.600000e-07	-4.576193e-06	-2.174465e-09	-3.240673e+01	-1.412980e+02
6.700000e-07	-4.551651e-06	-2.162924e-09	-3.223293e+01	-1.410725e+02
6.800000e-07	-4.526594e-06	-2.168818e-09	-3.205549e+01	-1.408450e+02
6.900000e-07	-4.501039e-06	-2.159726e-09	-3.187452e+01	-1.406151e+02
7.000000e-07	-4.474926e-06	-2.150951e-09	-3.168960e+01	-1.403824e+02
7.100000e-07	-4.448262e-06	-2.146597e-09	-3.150077e+01	-1.401464e+02
7.200000e-07	-4.421144e-06	-2.151783e-09	-3.130873e+01	-1.399067e+02
7.300000e-07	-4.393678e-06	-2.149924e-09	-3.111423e+01	-1.396629e+02
7.400000e-07	-4.366010e-06	-2.148074e-09	-3.091830e+01	-1.394148e+02
7.500000e-07	-4.338192e-06	-2.139672e-09	-3.072131e+01	-1.391621e+02
7.600000e-07	-4.310209e-06	-2.136937e-09	-3.052314e+01	-1.389045e+02
7.700000e-07	-4.282011e-06	-2.132374e-09	-3.032345e+01	-1.386418e+02
7.800000e-07	-4.253565e-06	-2.120647e-09	-3.012201e+01	-1.383741e+02
7.900000e-07	-4.224809e-06	-2.107721e-09	-2.991837e+01	-1.381012e+02
8.000000e-07	-4.195713e-06	-2.105581e-09	-2.971232e+01	-1.378233e+02
8.100000e-07	-4.166280e-06	-2.109109e-09	-2.950389e+01	-1.375404e+02
8.200000e-07	-4.136550e-06	-2.107119e-09	-2.929336e+01	-1.372528e+02
8.300000e-07	-4.106526e-06	-2.102405e-09	-2.908074e+01	-1.369605e+02
8.400000e-07	-4.076239e-06	-2.095675e-09	-2.886626e+01	-1.366639e+02
8.500000e-07	-4.045699e-06	-2.092039e-09	-2.864999e+01	-1.363632e+02
8.600000e-07	-4.014846e-06	-2.079239e-09	-2.843150e+01	-1.360588e+02
8.700000e-07	-3.983757e-06	-2.063890e-09	-2.821134e+01	-1.357510e+02
8.800000e-07	-3.952469e-06	-2.049489e-09	-2.798977e+01	-1.354402e+02
8.900000e-07	-3.920973e-06	-2.049760e-09	-2.776673e+01	-1.351266e+02
9.000000e-07	-3.889288e-06	-2.053715e-09	-2.754235e+01	-1.348105e+02
9.100000e-07	-3.857387e-06	-2.054106e-09	-2.731644e+01	-1.344923e+02
9.200000e-07	-3.825292e-06	-2.045050e-09	-2.708916e+01	-1.341723e+02
9.300000e-07	-3.792986e-06	-2.039376e-09	-2.686038e+01	-1.338505e+02
9.400000e-07	-3.760386e-06	-2.028649e-09	-2.662952e+01	-1.335272e+02
9.500000e-07	-3.727433e-06	-2.017765e-09	-2.639616e+01	-1.332025e+02
9.600000e-07	-3.694005e-06	-2.004045e-09	-2.615943e+01	-1.328765e+02
9.700000e-07	-3.660042e-06	-2.001883e-09	-2.591892e+01	-1.325490e+02
9.800000e-07	-3.625709e-06	-2.003703e-09	-2.567579e+01	-1.322201e+02
9.900000e-07	-3.590992e-06	-2.002978e-09	-2.542994e+01	-1.318896e+02
1.000000e-06	-3.555803e-06	-1.994604e-09	-2.518074e+01	-1.315574e+02
1.010000e-06	-3.520362e-06	-1.986166e-09	-2.492976e+01	-1.312231e+02
1.020000e-06	-3.484770e-06	-1.972752e-09	-2.467772e+01	-1.308865e+02
1.030000e-06	-3.449022e-06	-1.958081e-09	-2.442456e+01	-1.305473e+02
1.040000e-06	-3.413170e-06	-1.946347e-09	-2.417068e+01	-1.302050e+02
1.050000e-06	-3.377226e-06	-1.942667e-09	-2.391613e+01	-1.298592e+02
1.060000e-06	-3.341151e-06	-1.943392e-09	-2.366066e+01	-1.295096e+02
1.070000e-06	-3.304882e-06	-1.942454e-09	-2.340383e+01	-1.291556e+02
1.080000e-06	-3.268337e-06	-1.936167e-09	-2.314503e+01	-1.287968e+02
1.090000e-06	-3.231452e-06	-1.925507e-09	-2.288382e+01	-1.284329e+02
1.100000e-06	-3.194270e-06	-1.914724e-09	-2.262051e+01	-1.280632e+02
1.110000e-06	-3.156811e-06	-1.905010e-09	-2.235525e+01	-1.276875e+02
1.120000e-06	-3.119159e-06	-1.895354e-09	-2.208861e+01	-1.273053e+02
1.130000e-06	-3.081416e-06	-1.884459e-09	-2.182133e+01	-1.269162e+02
1.140000e-06	-3.043498e-06	-1.880240e-09	-2.155281e+01	-1.265200e+02
1.150000e-06	-3.005364e-06	-1.877412e-09	-2.128276e+01	-1.261163e+02
1.160000e-06	-2.967054e-06	-1.871909e-09	-2.101147e+01	-1.257050e+02
1.170000e-06	-2.928503e-06	-1.859987e-09	-2.073846e+01	-1.252856e+02
1.180000e-06	-2.889680e-06	-1.849090e-09	-2.046353e+01	-1.248583e+02
1.190000e-06	-2.850539e-06	-1.838821e-09	-2.018635e+01	-1.244226e+02
1.200000e-06	-2.811225e-06	-1.829250e-09	-1.990795e+01	-1.239787e+02
1.210000e-06	-2.771758e-06	-1.817065e-09	-1.962846e+01	-1.235265e+02
1.220000e-06	-2.732148e-06	-1.809421e-09	-1.934796e+01	-1.230658e+02
1.230000e-06	-2.692468e-06	-1.805908e-09	-1.906696e+01	-1.225967e+02
1.240000e-06	-2.652691e-06	-1.802865e-09	-1.878527e+01	-1.221192e+02
1.250000e-06	-2.612823e-06	-1.795652e-09	-1.850295e+01	-1.216334e+02
1.260000e-06	-2.572820e-06	-1.787602e-09	-1.821966e+01	-1.211392e+02
1.270000e-06	-2.532714e-06	-1.775182e-09	-1.793564e+01	-1.206366e+02
1.280000e-06	-2.492477e-06	-1.762944e-09	-1.765070e+01	-1.201257e+02
1.290000e-06	-2.452225e-06	-1.752578e-09	-1.736566e+01	-1.196065e+02
1.300000e-06	-2.411771e-06	-1.744892e-09	-1.707918e+01	-1.190788e+02
1.310000e-06	-2.370897e-06	-1.738917e-09	-1.678972e+01	-1.185427e+02
1.320000e-06	-2.329744e-06	-1.731549e-09	-1.649830e+01	-1.179980e+02
1.330000e-06	-2.288385e-06	-1.720963e-09	-1.620541e+01	-1.174446e+02
1.340000e-06	-2.246771e-06	-1.710483e-09	-1.591071e+01	-1.168824e+02
1.350000e-06	-2.204871e-06	-1.699352e-09	-1.561400e+01	-1.163110e+02
1.360000e-06	-2.162590e-06	-1.687677e-09	-1.531458e+01	-1.157303e+02
1.370000e-06	-2.120003e-06	-1.677136e-09	-1.501299e+01	-1.151398e+02
1.380000e-06	-2.077174e-06	-1.666028e-09	-1.470970e+01	-1.145394e+02
1.390000e-06	-2.034054e-06	-1.656495e-09	-1.440434e+01	-1.139285e+02
1.400000e-06	-1.990812e-06	-1.647506e-09	-1.409812e+01	-1.133067e+02
1.410000e-06	-1.947500e-06	-1.636712e-09	-1.379140e+01	-1.126736e+02
1.420000e-06	-1.904049e-06	-1.625905e-09	-1.348370e+01	-1.120287e+02
1.430000e-06	-1.860412e-06	-1.613537e-09	-1.317467e+01	-1.113715e+02
1.440000e-06	-1.816662e-06	-1.602517e-09	-1.286486e+01	-1.107014e+02
1.450000e-06	-1.772857e-06	-1.595099e-09	-1.255465e+01	-1.100179e+02
1.460000e-06	-1.729002e-06	-1.587715e-09	-1.224408e+01	-1.093204e+02
1.470000e-06	-1.685122e-06	-1.577941e-09	-1.193335e+01	-1.086084e+02
1.480000e-06	-1.641198e-06	-1.562515e-09	-1.162229e+01	-1.078811e+02
1.490000e-06	-1.597149e-06	-1.548121e-09	-1.131036e+01	-1.071382e+02
1.500000e-06	-1.552995e-06	-1.535412e-09	-1.099767e+01	-1.063789e+02
1.510000e-06	-1.508805e-06	-1.524123e-09	-1.068474e+01	-1.056028e+02
1.520000e-06	-1.464454e-06	-1.511350e-09	-1.037067e+01	-1.048091e+02
1.530000e-06	-1.420037e-06	-1.502678e-09	-1.005612e+01	-1.039974e+02
1.540000e-06	-1.375666e-06	-1.496833e-09	-9.741902e+00	-1.031670e+02
1.550000e-06	-1.331197e-06	-1.484010e-09	-9.426994e+00	-1.023174e+02
1.560000e-06	-1.286630e-06	-1.464958e-09	-9.111388e+00	-1.014480e+02
1.570000e-06	-1.241919e-06	-1.444811e-09	-8.794763e+00	-1.005581e+02
1.580000e-06	-1.197061e-06	-1.426396e-09	-8.477094e+00	-9.964704e+01
1.590000e-06	-1.152021e-06	-1.412332e-09	-8.158142e+00	-9.871428e+01
1.600000e-06	-1.106905e-06	-1.398913e-09	-7.838651e+00	-9.775907e+01
1.610000e-06	-1.061806e-06	-1.386474e-09	-7.519277e+00	-9.678070e+01
1.620000e-06	-1.016585e-06	-1.375632e-09	-7.199040e+00	-9.577840e+01
1.630000e-06	-9.712392e-07	-1.362510e-09	-6.877919e+00	-9.475133e+01
1.640000e-06	-9.258521e-07	-1.343059e-09	-6.556507e+00	-9.369864e+01
1.650000e-06	-8.804264e-07	-1.321615e-09	-6.234820e+00	-9.261938e+01
1.660000e-06	-8.349154e-07	-1.302421e-09	-5.912530e+00	-9.151256e+01
1.670000e-06	-7.893544e-07	-1.285913e-09	-5.589885e+00	-9.037712e+01
1.680000e-06	-7.437586e-07	-1.268695e-09	-5.266995e+00	-8.921191e+01
1.690000e-06	-6.980685e-07	-1.249673e-09	-4.943436e+00	-8.801575e+01
1.700000e-06	-6.523316e-07	-1.230192e-09	-4.619546e+00	-8.678737e+01
1.710000e-06	-6.066422e-07	-1.211553e-09	-4.295992e+00	-8.552544e+01
1.720000e-06	-5.609235e-07	-1.192981e-09	-3.972231e+00	-8.422858e+01
1.730000e-06	-5.151556e-07	-1.172313e-09	-3.648121e+00	-8.289536e+01
1.740000e-06	-4.693629e-07	-1.148376e-09	-3.323836e+00	-8.152431e+01
1.750000e-06	-4.235439e-07	-1.126143e-09	-2.999365e+00	-8.011393e+01
1.760000e-06	-3.776704e-07	-1.107901e-09	-2.674508e+00	-7.866270e+01
1.770000e-06	-3.317329e-07	-1.087782e-09	-2.349197e+00	-7.716911e+01
1.780000e-06	-2.857913e-07	-1.062254e-09	-2.023858e+00	-7.563166e+01
1.790000e-06	-2.398392e-07	-1.035006e-09	-1.698443e+00	-7.404885e+01
1.800000e-06	-1.938815e-07	-1.010808e-09	-1.372990e+00	-7.241927e+01
1.810000e-06	-1.479835e-07	-9.884814e-10	-1.047958e+00	-7.074154e+01
1.820000e-06	-1.020839e-07	-9.647232e-10	-7.229163e-01	-6.901440e+01
1.830000e-06	-5.614699e-08	-9.382976e-10	-3.976101e-01	-6.723664e+01
1.840000e-06	-1.011852e-08	-9.127319e-10	-7.165521e-02	-6.540722e+01
1.850000e-06	3.599412e-08	-8.871792e-10	2.548957e-01	-6.352521e+01
1.860000e-06	8.202845e-08	-8.588286e-10	5.808920e-01	-6.158983e+01
1.870000e-06	1.279647e-07	-8.273241e-10	9.061938e-01	-5.960048e+01
1.880000e-06	1.738387e-07	-7.948593e-10	1.231055e+00	-5.755674e+01
1.890000e-06	2.197186e-07	-7.614173e-10	1.555957e+00	-5.545837e+01
1.900000e-06	2.656544e-07	-7.280883e-10	1.881256e+00	-5.330537e+01
1.910000e-06	3.115249e-07	-6.951364e-10	2.206092e+00	-5.109790e+01
1.920000e-06	3.573471e-07	-6.632113e-10	2.530586e+00	-4.883640e+01
1.930000e-06	4.031277e-07	-6.333130e-10	2.854785e+00	-4.652147e+01
1.940000e-06	4.488580e-07	-6.032930e-10	3.178629e+00	-4.415398e+01
1.950000e-06	4.946443e-07	-5.682431e-10	3.502869e+00	-4.173501e+01
1.960000e-06	5.403730e-07	-5.290861e-10	3.826701e+00	-3.926585e+01
1.970000e-06	5.860578e-07	-4.892954e-10	4.150222e+00	-3.674800e+01
1.980000e-06	6.317080e-07	-4.518666e-10	4.473498e+00	-3.418318e+01
1.990000e-06	6.772809e-07	-4.158269e-10	4.796226e+00	-3.157330e+01
2.000000e-06	7.228028e-07	-3.780918e-10	5.118594e+00	-2.892044e+01
2.010000e-06	7.682793e-07	-3.399241e-10	5.440640e+00	-2.622686e+01
2.020000e-06	8.137696e-07	-3.025935e-10	5.762784e+00	-2.349497e+01
2.030000e-06	8.592515e-07	-2.630846e-10	6.084868e+00	-2.072733e+01
2.040000e-06	9.045759e-07	-2.202192e-10	6.405837e+00	-1.792658e+01
2.050000e-06	9.497954e-07	-1.769397e-10	6.726063e+00	-1.509551e+01
2.060000e-06	9.950913e-07	-1.367165e-10	7.046830e+00	-1.223697e+01
2.070000e-06	1.040338e-06	-9.653109e-11	7.367250e+00	-9.353876e+00
2.080000e-06	1.085468e-06	-5.263062e-11	7.686839e+00	-6.449194e+00
2.090000e-06	1.130451e-06	-6.550248e-12	8.005389e+00	-3.525922e+00
2.100000e-06	1.175297e-06	3.715931e-11	8.322971e+00	-5.870716e-01
2.110000e-06	1.220008e-06	7.797795e-11	8.639599e+00	2.364349e+00
2.120000e-06	1.264604e-06	1.183065e-10	8.955406e+00	5.325348e+00
2.130000e-06	1.309136e-06	1.594833e-10	9.270764e+00	8.292963e+00
2.140000e-06	1.353565e-06	2.025231e-10	9.585397e+00	1.126427e+01
2.150000e-06	1.397940e-06	2.463738e-10	9.899638e+00	1.423642e+01
2.160000e-06	1.442242e-06	2.909799e-10	1.021337e+01	1.720658e+01
2.170000e-06	1.486428e-06	3.367405e-10	1.052628e+01	2.017204e+01
2.180000e-06	1.530489e-06	3.821392e-10	1.083830e+01	2.313012e+01
2.190000e-06	1.574476e-06	4.218493e-10	1.114979e+01	2.607825e+01
2.200000e-06	1.618466e-06	4.583765e-10	1.146131e+01	2.901394e+01
2.210000e-06	1.662451e-06	4.993476e-10	1.177280e+01	3.193477e+01
2.220000e-06	1.706362e-06	5.445244e-10	1.208376e+01	3.483842e+01
2.230000e-06	1.750184e-06	5.889624e-10	1.239409e+01	3.772266e+01
2.240000e-06	1.793915e-06	6.327536e-10	1.270378e+01	4.058534e+01
2.250000e-06	1.837633e-06	6.770498e-10	1.301337e+01	4.342439e+01
2.260000e-06	1.881325e-06	7.187479e-10	1.332278e+01	4.623783e+01
2.270000e-06	1.924852e-06	7.560411e-10	1.363101e+01	4.902376e+01
2.280000e-06	1.968254e-06	7.903789e-10	1.393837e+01	5.178037e+01
2.290000e-06	2.011564e-06	8.260457e-10	1.424507e+01	5.450591e+01
2.300000e-06	2.054681e-06	8.669749e-10	1.455041e+01	5.719872e+01
2.310000e-06	2.097657e-06	9.084418e-10	1.485475e+01	5.985720e+01
2.320000e-06	2.140554e-06	9.483680e-10	1.515853e+01	6.247984e+01
2.330000e-06	2.183156e-06	9.867405e-10	1.546022e+01	6.506518e+01
2.340000e-06	2.225313e-06	1.023068e-09	1.575876e+01	6.761185e+01
2.350000e-06	2.267074e-06	1.056228e-09	1.605449e+01	7.011855e+01
2.360000e-06	2.308517e-06	1.088454e-09	1.634798e+01	7.258404e+01
2.370000e-06	2.349717e-06	1.122913e-09	1.663973e+01	7.500716e+01
2.380000e-06	2.390654e-06	1.158945e-09	1.692964e+01	7.738683e+01
2.390000e-06	2.431325e-06	1.193622e-09	1.721765e+01	7.972204e+01
2.400000e-06	2.471765e-06	1.224966e-09	1.750403e+01	8.201186e+01
2.410000e-06	2.511976e-06	1.254664e-09	1.778879e+01	8.425545e+01
2.420000e-06	2.552032e-06	1.284315e-09	1.807245e+01	8.645205e+01
2.430000e-06	2.592036e-06	1.315347e-09	1.835574e+01	8.860099e+01
2.440000e-06	2.631985e-06	1.344475e-09	1.863864e+01	9.070168e+01
2.450000e-06	2.671825e-06	1.371783e-09	1.892077e+01	9.275364e+01
2.460000e-06	2.711540e-06	1.401377e-09	1.920202e+01	9.475646e+01
2.470000e-06	2.751105e-06	1.433874e-09	1.948220e+01	9.670984e+01
2.480000e-06	2.790492e-06	1.464263e-09	1.976112e+01	9.861359e+01
2.490000e-06	2.829678e-06	1.489896e-09	2.003862e+01	1.004676e+02
2.500000e-06	2.868664e-06	1.514769e-09	2.031471e+01	1.022718e+02
2.510000e-06	2.907491e-06	1.540875e-09	2.058966e+01	1.040264e+02
2.520000e-06	2.946114e-06	1.566448e-09	2.086318e+01	1.057315e+02
2.530000e-06	2.984501e-06	1.589055e-09	2.113502e+01	1.073874e+02
2.540000e-06	3.022732e-06	1.610853e-09	2.140575e+01	1.089944e+02
2.550000e-06	3.060776e-06	1.636023e-09	2.167517e+01	1.105530e+02
2.560000e-06	3.098618e-06	1.660401e-09	2.194314e+01	1.120637e+02
2.570000e-06	3.136262e-06	1.680486e-09	2.220973e+01	1.135271e+02
2.580000e-06	3.173617e-06	1.698543e-09	2.247426e+01	1.149439e+02
2.590000e-06	3.210689e-06	1.717167e-09	2.273679e+01	1.163149e+02
2.600000e-06	3.247621e-06	1.735974e-09	2.299833e+01	1.176407e+02
2.610000e-06	3.284328e-06	1.752017e-09	2.325827e+01	1.189223e+02
2.620000e-06	3.320771e-06	1.765751e-09	2.351634e+01	1.201604e+02
2.630000e-06	3.357027e-06	1.781747e-09	2.377309e+01	1.213562e+02
2.640000e-06	3.393066e-06	1.801162e-09	2.402831e+01	1.225104e+02
2.650000e-06	3.428952e-06	1.820163e-09	2.428244e+01	1.236242e+02
2.660000e-06	3.464693e-06	1.835266e-09	2.453554e+01	1.246984e+02
2.670000e-06	3.500312e-06	1.849412e-09	2.478778e+01	1.257341e+02
2.680000e-06	3.535738e-06	1.864654e-09	2.503865e+01	1.267324e+02
2.690000e-06	3.570934e-06	1.876294e-09	2.528789e+01	1.276942e+02
2.700000e-06	3.605906e-06	1.883993e-09	2.553555e+01	1.286206e+02
2.710000e-06	3.640482e-06	1.893709e-09	2.578040e+01	1.295127e+02
2.720000e-06	3.674643e-06	1.908875e-09	2.602232e+01	1.303714e+02
2.730000e-06	3.708217e-06	1.924138e-09	2.626008e+01	1.311979e+02
2.740000e-06	3.741174e-06	1.935763e-09	2.649347e+01	1.319931e+02
2.750000e-06	3.773878e-06	1.948162e-09	2.672506e+01	1.327581e+02
2.760000e-06	3.806319e-06	1.961989e-09	2.695480e+01	1.334938e+02
2.770000e-06	3.838455e-06	1.972318e-09	2.718237e+01	1.342013e+02
2.780000e-06	3.870423e-06	1.976548e-09	2.740876e+01	1.348815e+02
2.790000e-06	3.902259e-06	1.980057e-09	2.763421e+01	1.355355e+02
2.800000e-06	3.933975e-06	1.988309e-09	2.785880e+01	1.361642e+02
2.810000e-06	3.965542e-06	2.000377e-09	2.808235e+01	1.367686e+02
2.820000e-06	3.996774e-06	2.011623e-09	2.830352e+01	1.373497e+02
2.830000e-06	4.027720e-06	2.021186e-09	2.852267e+01	1.379084e+02
2.840000e-06	4.058393e-06	2.031573e-09	2.873988e+01	1.384456e+02
2.850000e-06	4.088680e-06	2.041273e-09	2.895436e+01	1.389623e+02
2.860000e-06	4.118627e-06	2.047277e-09	2.916644e+01	1.394594e+02
2.870000e-06	4.148321e-06	2.051108e-09	2.937672e+01	1.399378e+02
2.880000e-06	4.177836e-06	2.056357e-09	2.958573e+01	1.403983e+02
2.890000e-06	4.207129e-06	2.063460e-09	2.979317e+01	1.408418e+02
2.900000e-06	4.236052e-06	2.069903e-09	2.999799e+01	1.412691e+02
