# Temperatura_=_-4.33
# Concentracion g/m^3_=_4090.0
# C_Vs_to_Am_M_A/Vsm_=_65563218390.804596
# pendiente_HvsI_1/m_=_3716.3
# ordenada_HvsI_A/m_=_1297.0
# frecuencia_Hz_=_135073.44402211244

Tiempo_(s)	Campo_(V.s)	Magnetizacion_(V.s)	Campo_(kA/m)	Magnetizacion_(A/m)
0.000000e+00	-5.415255e-06	-2.030288e-09	-3.840542e+01	-1.299944e+02
1.000000e-08	-5.415373e-06	-2.033678e-09	-3.840625e+01	-1.299186e+02
2.000000e-08	-5.415290e-06	-2.037737e-09	-3.840566e+01	-1.298465e+02
3.000000e-08	-5.414810e-06	-2.036904e-09	-3.840226e+01	-1.297795e+02
4.000000e-08	-5.413910e-06	-2.034453e-09	-3.839588e+01	-1.297190e+02
5.000000e-08	-5.412427e-06	-2.037474e-09	-3.838536e+01	-1.296663e+02
6.000000e-08	-5.410226e-06	-2.050115e-09	-3.836975e+01	-1.296224e+02
7.000000e-08	-5.407439e-06	-2.032404e-09	-3.834998e+01	-1.295883e+02
8.000000e-08	-5.404017e-06	-1.977004e-09	-3.832572e+01	-1.295647e+02
9.000000e-08	-5.400084e-06	-2.018414e-09	-3.829783e+01	-1.295523e+02
1.000000e-07	-5.395849e-06	-2.176466e-09	-3.826779e+01	-1.295514e+02
1.100000e-07	-5.391492e-06	-2.120492e-09	-3.823689e+01	-1.295622e+02
1.200000e-07	-5.387113e-06	-1.928375e-09	-3.820584e+01	-1.295847e+02
1.300000e-07	-5.382464e-06	-1.947648e-09	-3.817286e+01	-1.296186e+02
1.400000e-07	-5.377290e-06	-2.160601e-09	-3.813617e+01	-1.296634e+02
1.500000e-07	-5.371640e-06	-2.125697e-09	-3.809610e+01	-1.297185e+02
1.600000e-07	-5.365683e-06	-1.845948e-09	-3.805385e+01	-1.297829e+02
1.700000e-07	-5.359429e-06	-1.898438e-09	-3.800949e+01	-1.298556e+02
1.800000e-07	-5.352717e-06	-2.165040e-09	-3.796189e+01	-1.299354e+02
1.900000e-07	-5.345546e-06	-2.144879e-09	-3.791104e+01	-1.300208e+02
2.000000e-07	-5.338120e-06	-1.914836e-09	-3.785837e+01	-1.301103e+02
2.100000e-07	-5.330557e-06	-1.978428e-09	-3.780473e+01	-1.302025e+02
2.200000e-07	-5.322721e-06	-2.140007e-09	-3.774916e+01	-1.302955e+02
2.300000e-07	-5.314511e-06	-2.035876e-09	-3.769093e+01	-1.303877e+02
2.400000e-07	-5.305950e-06	-1.923867e-09	-3.763022e+01	-1.304773e+02
2.500000e-07	-5.296826e-06	-2.076822e-09	-3.756551e+01	-1.305627e+02
2.600000e-07	-5.286899e-06	-2.143488e-09	-3.749511e+01	-1.306422e+02
2.700000e-07	-5.276204e-06	-1.985268e-09	-3.741926e+01	-1.307141e+02
2.800000e-07	-5.265031e-06	-2.002478e-09	-3.734002e+01	-1.307770e+02
2.900000e-07	-5.253569e-06	-2.153260e-09	-3.725873e+01	-1.308296e+02
3.000000e-07	-5.241753e-06	-2.047779e-09	-3.717493e+01	-1.308705e+02
3.100000e-07	-5.229529e-06	-1.903798e-09	-3.708824e+01	-1.308987e+02
3.200000e-07	-5.216925e-06	-2.055608e-09	-3.699884e+01	-1.309134e+02
3.300000e-07	-5.203891e-06	-2.148164e-09	-3.690641e+01	-1.309137e+02
3.400000e-07	-5.190468e-06	-1.997277e-09	-3.681121e+01	-1.308991e+02
3.500000e-07	-5.176747e-06	-1.978640e-09	-3.671390e+01	-1.308694e+02
3.600000e-07	-5.162672e-06	-2.096319e-09	-3.661408e+01	-1.308243e+02
3.700000e-07	-5.148113e-06	-2.041604e-09	-3.651083e+01	-1.307639e+02
3.800000e-07	-5.132909e-06	-1.970742e-09	-3.640300e+01	-1.306884e+02
3.900000e-07	-5.117048e-06	-2.030232e-09	-3.629051e+01	-1.305983e+02
4.000000e-07	-5.100632e-06	-2.019021e-09	-3.617409e+01	-1.304939e+02
4.100000e-07	-5.083870e-06	-1.957792e-09	-3.605521e+01	-1.303762e+02
4.200000e-07	-5.066842e-06	-2.034797e-09	-3.593445e+01	-1.302458e+02
4.300000e-07	-5.049483e-06	-2.060852e-09	-3.581133e+01	-1.301037e+02
4.400000e-07	-5.031853e-06	-1.963248e-09	-3.568630e+01	-1.299508e+02
4.500000e-07	-5.013940e-06	-1.963970e-09	-3.555926e+01	-1.297882e+02
4.600000e-07	-4.995655e-06	-2.042047e-09	-3.542958e+01	-1.296171e+02
4.700000e-07	-4.977026e-06	-2.002098e-09	-3.529747e+01	-1.294384e+02
4.800000e-07	-4.958056e-06	-1.951355e-09	-3.516292e+01	-1.292533e+02
4.900000e-07	-4.938675e-06	-1.980342e-09	-3.502547e+01	-1.290628e+02
5.000000e-07	-4.918998e-06	-1.998553e-09	-3.488593e+01	-1.288679e+02
5.100000e-07	-4.899170e-06	-1.991190e-09	-3.474530e+01	-1.286696e+02
5.200000e-07	-4.879137e-06	-1.988918e-09	-3.460323e+01	-1.284687e+02
5.300000e-07	-4.858840e-06	-1.959430e-09	-3.445928e+01	-1.282660e+02
5.400000e-07	-4.838196e-06	-1.954646e-09	-3.431287e+01	-1.280621e+02
5.500000e-07	-4.817135e-06	-1.992125e-09	-3.416350e+01	-1.278576e+02
5.600000e-07	-4.795696e-06	-1.980418e-09	-3.401146e+01	-1.276528e+02
5.700000e-07	-4.773956e-06	-1.938988e-09	-3.385728e+01	-1.274482e+02
5.800000e-07	-4.751988e-06	-1.951739e-09	-3.370148e+01	-1.272439e+02
5.900000e-07	-4.729664e-06	-1.975990e-09	-3.354315e+01	-1.270400e+02
6.000000e-07	-4.706913e-06	-1.962237e-09	-3.338180e+01	-1.268364e+02
6.100000e-07	-4.683987e-06	-1.940030e-09	-3.321921e+01	-1.266330e+02
6.200000e-07	-4.660798e-06	-1.925796e-09	-3.305475e+01	-1.264296e+02
6.300000e-07	-4.637257e-06	-1.935465e-09	-3.288780e+01	-1.262259e+02
6.400000e-07	-4.613516e-06	-1.955858e-09	-3.271942e+01	-1.260216e+02
6.500000e-07	-4.589538e-06	-1.942503e-09	-3.254937e+01	-1.258161e+02
6.600000e-07	-4.565311e-06	-1.911258e-09	-3.237755e+01	-1.256091e+02
6.700000e-07	-4.540736e-06	-1.922546e-09	-3.220326e+01	-1.254001e+02
6.800000e-07	-4.515611e-06	-1.942120e-09	-3.202507e+01	-1.251887e+02
6.900000e-07	-4.489927e-06	-1.925785e-09	-3.184292e+01	-1.249743e+02
7.000000e-07	-4.463687e-06	-1.897758e-09	-3.165682e+01	-1.247565e+02
7.100000e-07	-4.436918e-06	-1.897028e-09	-3.146697e+01	-1.245350e+02
7.200000e-07	-4.409755e-06	-1.909224e-09	-3.127433e+01	-1.243092e+02
7.300000e-07	-4.382321e-06	-1.909453e-09	-3.107977e+01	-1.240790e+02
7.400000e-07	-4.354706e-06	-1.886779e-09	-3.088392e+01	-1.238441e+02
7.500000e-07	-4.326897e-06	-1.875174e-09	-3.068670e+01	-1.236042e+02
7.600000e-07	-4.298912e-06	-1.888766e-09	-3.048823e+01	-1.233592e+02
7.700000e-07	-4.270752e-06	-1.893066e-09	-3.028851e+01	-1.231092e+02
7.800000e-07	-4.242314e-06	-1.868786e-09	-3.008683e+01	-1.228540e+02
7.900000e-07	-4.213504e-06	-1.850378e-09	-2.988250e+01	-1.225938e+02
8.000000e-07	-4.184388e-06	-1.853480e-09	-2.967601e+01	-1.223286e+02
8.100000e-07	-4.154981e-06	-1.859854e-09	-2.946745e+01	-1.220588e+02
8.200000e-07	-4.125222e-06	-1.851168e-09	-2.925640e+01	-1.217845e+02
8.300000e-07	-4.095179e-06	-1.836411e-09	-2.904333e+01	-1.215060e+02
8.400000e-07	-4.064891e-06	-1.834532e-09	-2.882853e+01	-1.212235e+02
8.500000e-07	-4.034330e-06	-1.842699e-09	-2.861179e+01	-1.209375e+02
8.600000e-07	-4.003467e-06	-1.834291e-09	-2.839290e+01	-1.206483e+02
8.700000e-07	-3.972295e-06	-1.811393e-09	-2.817183e+01	-1.203562e+02
8.800000e-07	-3.940944e-06	-1.799557e-09	-2.794949e+01	-1.200615e+02
8.900000e-07	-3.909418e-06	-1.807488e-09	-2.772590e+01	-1.197645e+02
9.000000e-07	-3.877573e-06	-1.812845e-09	-2.750006e+01	-1.194655e+02
9.100000e-07	-3.845574e-06	-1.800389e-09	-2.727312e+01	-1.191647e+02
9.200000e-07	-3.813520e-06	-1.788676e-09	-2.704579e+01	-1.188624e+02
9.300000e-07	-3.781267e-06	-1.788377e-09	-2.681705e+01	-1.185586e+02
9.400000e-07	-3.748705e-06	-1.786795e-09	-2.658612e+01	-1.182535e+02
9.500000e-07	-3.715659e-06	-1.770613e-09	-2.635175e+01	-1.179471e+02
9.600000e-07	-3.682152e-06	-1.754559e-09	-2.611411e+01	-1.176393e+02
9.700000e-07	-3.648282e-06	-1.754810e-09	-2.587390e+01	-1.173301e+02
9.800000e-07	-3.613998e-06	-1.762498e-09	-2.563076e+01	-1.170194e+02
9.900000e-07	-3.579243e-06	-1.755750e-09	-2.538427e+01	-1.167070e+02
1.000000e-06	-3.544081e-06	-1.741342e-09	-2.513490e+01	-1.163925e+02
1.010000e-06	-3.508691e-06	-1.733009e-09	-2.488392e+01	-1.160758e+02
1.020000e-06	-3.473129e-06	-1.727587e-09	-2.463171e+01	-1.157565e+02
1.030000e-06	-3.437398e-06	-1.715281e-09	-2.437830e+01	-1.154343e+02
1.040000e-06	-3.401526e-06	-1.704645e-09	-2.412389e+01	-1.151088e+02
1.050000e-06	-3.365510e-06	-1.702973e-09	-2.386847e+01	-1.147796e+02
1.060000e-06	-3.329324e-06	-1.710529e-09	-2.361183e+01	-1.144462e+02
1.070000e-06	-3.292898e-06	-1.711958e-09	-2.335349e+01	-1.141084e+02
1.080000e-06	-3.256246e-06	-1.700445e-09	-2.309356e+01	-1.137657e+02
1.090000e-06	-3.219409e-06	-1.685261e-09	-2.283230e+01	-1.134178e+02
1.100000e-06	-3.182311e-06	-1.677821e-09	-2.256920e+01	-1.130642e+02
1.110000e-06	-3.144995e-06	-1.671442e-09	-2.230455e+01	-1.127047e+02
1.120000e-06	-3.107452e-06	-1.660990e-09	-2.203829e+01	-1.123390e+02
1.130000e-06	-3.069723e-06	-1.651613e-09	-2.177072e+01	-1.119667e+02
1.140000e-06	-3.031848e-06	-1.653255e-09	-2.150211e+01	-1.115878e+02
1.150000e-06	-2.993718e-06	-1.656293e-09	-2.123168e+01	-1.112019e+02
1.160000e-06	-2.955335e-06	-1.648373e-09	-2.095947e+01	-1.108089e+02
1.170000e-06	-2.916778e-06	-1.632832e-09	-2.068602e+01	-1.104088e+02
1.180000e-06	-2.878021e-06	-1.620159e-09	-2.041115e+01	-1.100014e+02
1.190000e-06	-2.839018e-06	-1.614184e-09	-2.013454e+01	-1.095868e+02
1.200000e-06	-2.799806e-06	-1.607002e-09	-1.985645e+01	-1.091648e+02
1.210000e-06	-2.760398e-06	-1.599663e-09	-1.957696e+01	-1.087355e+02
1.220000e-06	-2.720798e-06	-1.599120e-09	-1.929612e+01	-1.082990e+02
1.230000e-06	-2.681082e-06	-1.601278e-09	-1.901445e+01	-1.078552e+02
1.240000e-06	-2.641301e-06	-1.596647e-09	-1.873231e+01	-1.074044e+02
1.250000e-06	-2.601391e-06	-1.585125e-09	-1.844927e+01	-1.069464e+02
1.260000e-06	-2.561318e-06	-1.571087e-09	-1.816507e+01	-1.064814e+02
1.270000e-06	-2.521137e-06	-1.560272e-09	-1.788011e+01	-1.060094e+02
1.280000e-06	-2.480887e-06	-1.549826e-09	-1.759465e+01	-1.055304e+02
1.290000e-06	-2.440450e-06	-1.543091e-09	-1.730787e+01	-1.050446e+02
1.300000e-06	-2.399871e-06	-1.538328e-09	-1.702007e+01	-1.045519e+02
1.310000e-06	-2.359091e-06	-1.537665e-09	-1.673086e+01	-1.040522e+02
1.320000e-06	-2.318010e-06	-1.533639e-09	-1.643951e+01	-1.035456e+02
1.330000e-06	-2.276677e-06	-1.522691e-09	-1.614637e+01	-1.030319e+02
1.340000e-06	-2.235028e-06	-1.509496e-09	-1.585100e+01	-1.025110e+02
1.350000e-06	-2.193052e-06	-1.497082e-09	-1.555330e+01	-1.019829e+02
1.360000e-06	-2.150818e-06	-1.486855e-09	-1.525377e+01	-1.014472e+02
1.370000e-06	-2.108348e-06	-1.477420e-09	-1.495257e+01	-1.009039e+02
1.380000e-06	-2.065622e-06	-1.469701e-09	-1.464956e+01	-1.003527e+02
1.390000e-06	-2.022705e-06	-1.465140e-09	-1.434519e+01	-9.979329e+01
1.400000e-06	-1.979608e-06	-1.459987e-09	-1.403953e+01	-9.922547e+01
1.410000e-06	-1.936298e-06	-1.453968e-09	-1.373238e+01	-9.864891e+01
1.420000e-06	-1.892923e-06	-1.444612e-09	-1.342476e+01	-9.806329e+01
1.430000e-06	-1.849438e-06	-1.431362e-09	-1.311636e+01	-9.746828e+01
1.440000e-06	-1.805780e-06	-1.415313e-09	-1.280674e+01	-9.686355e+01
1.450000e-06	-1.762070e-06	-1.400244e-09	-1.249674e+01	-9.624874e+01
1.460000e-06	-1.718254e-06	-1.390056e-09	-1.218600e+01	-9.562350e+01
1.470000e-06	-1.674367e-06	-1.380860e-09	-1.187474e+01	-9.498749e+01
1.480000e-06	-1.630403e-06	-1.371780e-09	-1.156295e+01	-9.434035e+01
1.490000e-06	-1.586327e-06	-1.363306e-09	-1.125036e+01	-9.368174e+01
1.500000e-06	-1.542193e-06	-1.355491e-09	-1.093735e+01	-9.301131e+01
1.510000e-06	-1.497935e-06	-1.345528e-09	-1.062348e+01	-9.232874e+01
1.520000e-06	-1.453614e-06	-1.329985e-09	-1.030915e+01	-9.163369e+01
1.530000e-06	-1.409286e-06	-1.313064e-09	-9.994767e+00	-9.092584e+01
1.540000e-06	-1.364884e-06	-1.299771e-09	-9.679864e+00	-9.020489e+01
1.550000e-06	-1.320323e-06	-1.288772e-09	-9.363834e+00	-8.947052e+01
1.560000e-06	-1.275651e-06	-1.279734e-09	-9.047015e+00	-8.872243e+01
1.570000e-06	-1.230948e-06	-1.270160e-09	-8.729983e+00	-8.796032e+01
1.580000e-06	-1.186171e-06	-1.261617e-09	-8.412419e+00	-8.718388e+01
1.590000e-06	-1.141304e-06	-1.251831e-09	-8.094219e+00	-8.639280e+01
1.600000e-06	-1.096397e-06	-1.238335e-09	-7.775733e+00	-8.558678e+01
1.610000e-06	-1.051421e-06	-1.219219e-09	-7.456762e+00	-8.476548e+01
1.620000e-06	-1.006256e-06	-1.199687e-09	-7.136447e+00	-8.392858e+01
1.630000e-06	-9.609956e-07	-1.183334e-09	-6.815457e+00	-8.307572e+01
1.640000e-06	-9.156974e-07	-1.168220e-09	-6.494198e+00	-8.220654e+01
1.650000e-06	-8.703850e-07	-1.153935e-09	-6.172839e+00	-8.132064e+01
1.660000e-06	-8.251055e-07	-1.144131e-09	-5.851714e+00	-8.041763e+01
1.670000e-06	-7.796657e-07	-1.137449e-09	-5.529451e+00	-7.949706e+01
1.680000e-06	-7.341275e-07	-1.126832e-09	-5.206491e+00	-7.855848e+01
1.690000e-06	-6.885901e-07	-1.109140e-09	-4.883536e+00	-7.760140e+01
1.700000e-06	-6.429636e-07	-1.087670e-09	-4.559949e+00	-7.662531e+01
1.710000e-06	-5.973194e-07	-1.065799e-09	-4.236236e+00	-7.562966e+01
1.720000e-06	-5.516100e-07	-1.047519e-09	-3.912062e+00	-7.461388e+01
1.730000e-06	-5.058657e-07	-1.031561e-09	-3.587640e+00	-7.357739e+01
1.740000e-06	-4.600762e-07	-1.019118e-09	-3.262897e+00	-7.251956e+01
1.750000e-06	-4.141782e-07	-1.011813e-09	-2.937385e+00	-7.143974e+01
1.760000e-06	-3.682796e-07	-1.005354e-09	-2.611868e+00	-7.033727e+01
1.770000e-06	-3.224397e-07	-9.928401e-10	-2.286768e+00	-6.921145e+01
1.780000e-06	-2.766056e-07	-9.709797e-10	-1.961709e+00	-6.806158e+01
1.790000e-06	-2.307104e-07	-9.448210e-10	-1.636217e+00	-6.688694e+01
1.800000e-06	-1.848218e-07	-9.186621e-10	-1.310771e+00	-6.568678e+01
1.810000e-06	-1.389227e-07	-8.960999e-10	-9.852512e-01	-6.446036e+01
1.820000e-06	-9.301400e-08	-8.755593e-10	-6.596626e-01	-6.320691e+01
1.830000e-06	-4.715307e-08	-8.595159e-10	-3.344133e-01	-6.192567e+01
1.840000e-06	-1.299814e-09	-8.466946e-10	-9.218382e-03	-6.061587e+01
1.850000e-06	4.452062e-08	-8.308879e-10	3.157438e-01	-5.927674e+01
1.860000e-06	9.033830e-08	-8.077804e-10	6.406864e-01	-5.790751e+01
1.870000e-06	1.362428e-07	-7.809405e-10	9.662450e-01	-5.650741e+01
1.880000e-06	1.821806e-07	-7.567882e-10	1.292040e+00	-5.507569e+01
1.890000e-06	2.281149e-07	-7.345091e-10	1.617809e+00	-5.361160e+01
1.900000e-06	2.739827e-07	-7.098035e-10	1.943107e+00	-5.211441e+01
1.910000e-06	3.197722e-07	-6.865826e-10	2.267850e+00	-5.058339e+01
1.920000e-06	3.655663e-07	-6.691607e-10	2.592625e+00	-4.901787e+01
1.930000e-06	4.113556e-07	-6.532189e-10	2.917367e+00	-4.741717e+01
1.940000e-06	4.571260e-07	-6.310543e-10	3.241974e+00	-4.578066e+01
1.950000e-06	5.028686e-07	-6.020805e-10	3.566384e+00	-4.410773e+01
1.960000e-06	5.485366e-07	-5.722815e-10	3.890265e+00	-4.239783e+01
1.970000e-06	5.941071e-07	-5.452500e-10	4.213455e+00	-4.065045e+01
1.980000e-06	6.396669e-07	-5.184018e-10	4.536569e+00	-3.886513e+01
1.990000e-06	6.852065e-07	-4.910709e-10	4.859539e+00	-3.704149e+01
2.000000e-06	7.307366e-07	-4.662164e-10	5.182442e+00	-3.517922e+01
2.010000e-06	7.762261e-07	-4.453110e-10	5.505057e+00	-3.327807e+01
2.020000e-06	8.216330e-07	-4.218469e-10	5.827086e+00	-3.133790e+01
2.030000e-06	8.669935e-07	-3.912698e-10	6.148787e+00	-2.935868e+01
2.040000e-06	9.123018e-07	-3.572322e-10	6.470117e+00	-2.734046e+01
2.050000e-06	9.575190e-07	-3.257788e-10	6.790800e+00	-2.528343e+01
2.060000e-06	1.002655e-06	-2.970104e-10	7.110908e+00	-2.318791e+01
2.070000e-06	1.047737e-06	-2.664688e-10	7.430635e+00	-2.105437e+01
2.080000e-06	1.092732e-06	-2.354327e-10	7.749739e+00	-1.888340e+01
2.090000e-06	1.137558e-06	-2.040863e-10	8.067652e+00	-1.667578e+01
2.100000e-06	1.182223e-06	-1.726708e-10	8.384419e+00	-1.443244e+01
2.110000e-06	1.226858e-06	-1.379019e-10	8.700974e+00	-1.215450e+01
2.120000e-06	1.271349e-06	-9.970187e-11	9.016506e+00	-9.843251e+00
2.130000e-06	1.315717e-06	-6.387792e-11	9.331171e+00	-7.500161e+00
2.140000e-06	1.360064e-06	-3.165651e-11	9.645680e+00	-5.126899e+00
2.150000e-06	1.404350e-06	1.094576e-12	9.959762e+00	-2.725317e+00
2.160000e-06	1.448569e-06	3.666737e-11	1.027337e+01	-2.974549e-01
2.170000e-06	1.492716e-06	7.198287e-11	1.058646e+01	2.154461e+00
2.180000e-06	1.536834e-06	1.056995e-10	1.089935e+01	4.628028e+00
2.190000e-06	1.580905e-06	1.403970e-10	1.121190e+01	7.120671e+00
2.200000e-06	1.624885e-06	1.780184e-10	1.152381e+01	9.629653e+00
2.210000e-06	1.668777e-06	2.179271e-10	1.183510e+01	1.215209e+01
2.220000e-06	1.712630e-06	2.564226e-10	1.214611e+01	1.468496e+01
2.230000e-06	1.756459e-06	2.937223e-10	1.245695e+01	1.722513e+01
2.240000e-06	1.800216e-06	3.306434e-10	1.276727e+01	1.976937e+01
2.250000e-06	1.843851e-06	3.669158e-10	1.307674e+01	2.231435e+01
2.260000e-06	1.887367e-06	4.003980e-10	1.338536e+01	2.485672e+01
2.270000e-06	1.930732e-06	4.347585e-10	1.369290e+01	2.739306e+01
2.280000e-06	1.973972e-06	4.729279e-10	1.399957e+01	2.991997e+01
2.290000e-06	2.017061e-06	5.141933e-10	1.430516e+01	3.243405e+01
2.300000e-06	2.059919e-06	5.547322e-10	1.460911e+01	3.493195e+01
2.310000e-06	2.102585e-06	5.894830e-10	1.491170e+01	3.741039e+01
2.320000e-06	2.145022e-06	6.232790e-10	1.521267e+01	3.986617e+01
2.330000e-06	2.187161e-06	6.580792e-10	1.551152e+01	4.229621e+01
2.340000e-06	2.228900e-06	6.915286e-10	1.580753e+01	4.469758e+01
2.350000e-06	2.270308e-06	7.231116e-10	1.610121e+01	4.706750e+01
2.360000e-06	2.311479e-06	7.571022e-10	1.639319e+01	4.940338e+01
2.370000e-06	2.352435e-06	7.936389e-10	1.668365e+01	5.170280e+01
2.380000e-06	2.393210e-06	8.288778e-10	1.697283e+01	5.396358e+01
2.390000e-06	2.433745e-06	8.584398e-10	1.726031e+01	5.618377e+01
2.400000e-06	2.474074e-06	8.858383e-10	1.754633e+01	5.836161e+01
2.410000e-06	2.514213e-06	9.156962e-10	1.783100e+01	6.049563e+01
2.420000e-06	2.554217e-06	9.468461e-10	1.811471e+01	6.258457e+01
2.430000e-06	2.594198e-06	9.751441e-10	1.839826e+01	6.462743e+01
2.440000e-06	2.634110e-06	1.001502e-09	1.868132e+01	6.662343e+01
2.450000e-06	2.673857e-06	1.029558e-09	1.896321e+01	6.857205e+01
2.460000e-06	2.713507e-06	1.058831e-09	1.924440e+01	7.047298e+01
2.470000e-06	2.753035e-06	1.085801e-09	1.952474e+01	7.232613e+01
2.480000e-06	2.792415e-06	1.110759e-09	1.980403e+01	7.413160e+01
2.490000e-06	2.831570e-06	1.136035e-09	2.008172e+01	7.588968e+01
2.500000e-06	2.870481e-06	1.162136e-09	2.035768e+01	7.760085e+01
2.510000e-06	2.909190e-06	1.186890e-09	2.063221e+01	7.926570e+01
2.520000e-06	2.947643e-06	1.209708e-09	2.090492e+01	8.088498e+01
2.530000e-06	2.985893e-06	1.232386e-09	2.117619e+01	8.245955e+01
2.540000e-06	3.023915e-06	1.256555e-09	2.144584e+01	8.399032e+01
2.550000e-06	3.061713e-06	1.282349e-09	2.171391e+01	8.547832e+01
2.560000e-06	3.099416e-06	1.302459e-09	2.198130e+01	8.692461e+01
2.570000e-06	3.137038e-06	1.317600e-09	2.224812e+01	8.833025e+01
2.580000e-06	3.174388e-06	1.334393e-09	2.251301e+01	8.969636e+01
2.590000e-06	3.211442e-06	1.353378e-09	2.277580e+01	9.102402e+01
2.600000e-06	3.248297e-06	1.371025e-09	2.303718e+01	9.231432e+01
2.610000e-06	3.284896e-06	1.388214e-09	2.329674e+01	9.356829e+01
2.620000e-06	3.321205e-06	1.408303e-09	2.355425e+01	9.478696e+01
2.630000e-06	3.357304e-06	1.429409e-09	2.381026e+01	9.597127e+01
2.640000e-06	3.393295e-06	1.446542e-09	2.406552e+01	9.712214e+01
2.650000e-06	3.429200e-06	1.457969e-09	2.432016e+01	9.824042e+01
2.660000e-06	3.464966e-06	1.466571e-09	2.457381e+01	9.932690e+01
2.670000e-06	3.500487e-06	1.478652e-09	2.482573e+01	1.003823e+02
2.680000e-06	3.535741e-06	1.492605e-09	2.507575e+01	1.014074e+02
2.690000e-06	3.570749e-06	1.504901e-09	2.532403e+01	1.024027e+02
2.700000e-06	3.605531e-06	1.518084e-09	2.557071e+01	1.033688e+02
2.710000e-06	3.639965e-06	1.535976e-09	2.581492e+01	1.043064e+02
2.720000e-06	3.673836e-06	1.554237e-09	2.605514e+01	1.052160e+02
2.730000e-06	3.707217e-06	1.566763e-09	2.629188e+01	1.060980e+02
2.740000e-06	3.740145e-06	1.574425e-09	2.652540e+01	1.069531e+02
2.750000e-06	3.772646e-06	1.585327e-09	2.675590e+01	1.077817e+02
2.760000e-06	3.804906e-06	1.600519e-09	2.698470e+01	1.085843e+02
2.770000e-06	3.836999e-06	1.611392e-09	2.721230e+01	1.093615e+02
2.780000e-06	3.868944e-06	1.617177e-09	2.743886e+01	1.101139e+02
2.790000e-06	3.900767e-06	1.626359e-09	2.766455e+01	1.108420e+02
2.800000e-06	3.932454e-06	1.641581e-09	2.788928e+01	1.115466e+02
2.810000e-06	3.963925e-06	1.655825e-09	2.811247e+01	1.122282e+02
2.820000e-06	3.995069e-06	1.663212e-09	2.833335e+01	1.128876e+02
2.830000e-06	4.025917e-06	1.668808e-09	2.855213e+01	1.135256e+02
2.840000e-06	4.056497e-06	1.679583e-09	2.876900e+01	1.141429e+02
2.850000e-06	4.086683e-06	1.692008e-09	2.898308e+01	1.147404e+02
2.860000e-06	4.116565e-06	1.701340e-09	2.919501e+01	1.153188e+02
2.870000e-06	4.146282e-06	1.707375e-09	2.940576e+01	1.158792e+02
2.880000e-06	4.175755e-06	1.714809e-09	2.961479e+01	1.164223e+02
2.890000e-06	4.204961e-06	1.722242e-09	2.982192e+01	1.169491e+02
2.900000e-06	4.233885e-06	1.726597e-09	3.002705e+01	1.174603e+02
