# Temperatura_=_-1.1
# Concentracion g/m^3_=_4090.0
# C_Vs_to_Am_M_A/Vsm_=_65563218390.804596
# pendiente_HvsI_1/m_=_3716.3
# ordenada_HvsI_A/m_=_1297.0
# frecuencia_Hz_=_135060.71678160023

Tiempo_(s)	Campo_(V.s)	Magnetizacion_(V.s)	Campo_(kA/m)	Magnetizacion_(A/m)
0.000000e+00	-5.415226e-06	-2.623734e-09	-3.840460e+01	-1.699896e+02
1.000000e-08	-5.415385e-06	-2.618538e-09	-3.840574e+01	-1.698740e+02
2.000000e-08	-5.415364e-06	-2.613377e-09	-3.840558e+01	-1.697594e+02
3.000000e-08	-5.415028e-06	-2.607715e-09	-3.840320e+01	-1.696484e+02
4.000000e-08	-5.414267e-06	-2.605421e-09	-3.839780e+01	-1.695434e+02
5.000000e-08	-5.413075e-06	-2.610936e-09	-3.838935e+01	-1.694469e+02
6.000000e-08	-5.411255e-06	-2.623984e-09	-3.837644e+01	-1.693611e+02
7.000000e-08	-5.408820e-06	-2.653470e-09	-3.835917e+01	-1.692883e+02
8.000000e-08	-5.405869e-06	-2.659888e-09	-3.833824e+01	-1.692304e+02
9.000000e-08	-5.402354e-06	-2.583072e-09	-3.831332e+01	-1.691892e+02
1.000000e-07	-5.398450e-06	-2.516496e-09	-3.828563e+01	-1.691661e+02
1.100000e-07	-5.394349e-06	-2.638715e-09	-3.825654e+01	-1.691622e+02
1.200000e-07	-5.390047e-06	-2.666482e-09	-3.822604e+01	-1.691784e+02
1.300000e-07	-5.385365e-06	-2.609707e-09	-3.819283e+01	-1.692151e+02
1.400000e-07	-5.380154e-06	-2.516198e-09	-3.815588e+01	-1.692723e+02
1.500000e-07	-5.374674e-06	-2.645271e-09	-3.811701e+01	-1.693499e+02
1.600000e-07	-5.368999e-06	-2.720438e-09	-3.807677e+01	-1.694471e+02
1.700000e-07	-5.362885e-06	-2.569432e-09	-3.803341e+01	-1.695628e+02
1.800000e-07	-5.356268e-06	-2.514523e-09	-3.798648e+01	-1.696956e+02
1.900000e-07	-5.349259e-06	-2.590210e-09	-3.793677e+01	-1.698438e+02
2.000000e-07	-5.341953e-06	-2.677110e-09	-3.788495e+01	-1.700052e+02
2.100000e-07	-5.334316e-06	-2.563815e-09	-3.783079e+01	-1.701777e+02
2.200000e-07	-5.326413e-06	-2.615247e-09	-3.777475e+01	-1.703586e+02
2.300000e-07	-5.318383e-06	-2.696539e-09	-3.771780e+01	-1.705450e+02
2.400000e-07	-5.310041e-06	-2.696985e-09	-3.765864e+01	-1.707342e+02
2.500000e-07	-5.301036e-06	-2.589114e-09	-3.759477e+01	-1.709231e+02
2.600000e-07	-5.291450e-06	-2.670023e-09	-3.752679e+01	-1.711086e+02
2.700000e-07	-5.281340e-06	-2.715679e-09	-3.745509e+01	-1.712877e+02
2.800000e-07	-5.270677e-06	-2.636237e-09	-3.737947e+01	-1.714575e+02
2.900000e-07	-5.259462e-06	-2.606749e-09	-3.729993e+01	-1.716149e+02
3.000000e-07	-5.247805e-06	-2.730548e-09	-3.721726e+01	-1.717575e+02
3.100000e-07	-5.235799e-06	-2.721011e-09	-3.713212e+01	-1.718825e+02
3.200000e-07	-5.223448e-06	-2.616656e-09	-3.704452e+01	-1.719878e+02
3.300000e-07	-5.210685e-06	-2.640861e-09	-3.695401e+01	-1.720713e+02
3.400000e-07	-5.197520e-06	-2.692570e-09	-3.686064e+01	-1.721314e+02
3.500000e-07	-5.184072e-06	-2.647190e-09	-3.676527e+01	-1.721668e+02
3.600000e-07	-5.170254e-06	-2.647374e-09	-3.666727e+01	-1.721764e+02
3.700000e-07	-5.155884e-06	-2.700617e-09	-3.656536e+01	-1.721597e+02
3.800000e-07	-5.140975e-06	-2.654030e-09	-3.645963e+01	-1.721163e+02
3.900000e-07	-5.125565e-06	-2.627294e-09	-3.635034e+01	-1.720463e+02
4.000000e-07	-5.109668e-06	-2.672000e-09	-3.623760e+01	-1.719502e+02
4.100000e-07	-5.093398e-06	-2.652883e-09	-3.612221e+01	-1.718288e+02
4.200000e-07	-5.076702e-06	-2.562812e-09	-3.600380e+01	-1.716831e+02
4.300000e-07	-5.059571e-06	-2.616418e-09	-3.588231e+01	-1.715145e+02
4.400000e-07	-5.042149e-06	-2.663070e-09	-3.575875e+01	-1.713247e+02
4.500000e-07	-5.024466e-06	-2.638111e-09	-3.563335e+01	-1.711153e+02
4.600000e-07	-5.006457e-06	-2.601409e-09	-3.550563e+01	-1.708886e+02
4.700000e-07	-4.988029e-06	-2.642680e-09	-3.537494e+01	-1.706464e+02
4.800000e-07	-4.969150e-06	-2.621530e-09	-3.524105e+01	-1.703912e+02
4.900000e-07	-4.949898e-06	-2.612005e-09	-3.510451e+01	-1.701250e+02
5.000000e-07	-4.930358e-06	-2.588846e-09	-3.496594e+01	-1.698502e+02
5.100000e-07	-4.910617e-06	-2.583613e-09	-3.482594e+01	-1.695690e+02
5.200000e-07	-4.890682e-06	-2.586578e-09	-3.468456e+01	-1.692835e+02
5.300000e-07	-4.870542e-06	-2.627835e-09	-3.454173e+01	-1.689956e+02
5.400000e-07	-4.850073e-06	-2.599271e-09	-3.439656e+01	-1.687073e+02
5.500000e-07	-4.829227e-06	-2.576652e-09	-3.424872e+01	-1.684201e+02
5.600000e-07	-4.808019e-06	-2.582238e-09	-3.409831e+01	-1.681355e+02
5.700000e-07	-4.786496e-06	-2.594293e-09	-3.394567e+01	-1.678548e+02
5.800000e-07	-4.764644e-06	-2.566759e-09	-3.379070e+01	-1.675788e+02
5.900000e-07	-4.742496e-06	-2.556461e-09	-3.363363e+01	-1.673084e+02
6.000000e-07	-4.720063e-06	-2.554613e-09	-3.347453e+01	-1.670440e+02
6.100000e-07	-4.697283e-06	-2.567191e-09	-3.331298e+01	-1.667859e+02
6.200000e-07	-4.674137e-06	-2.568790e-09	-3.314883e+01	-1.665340e+02
6.300000e-07	-4.650679e-06	-2.546162e-09	-3.298246e+01	-1.662881e+02
6.400000e-07	-4.626993e-06	-2.530691e-09	-3.281448e+01	-1.660477e+02
6.500000e-07	-4.603068e-06	-2.541410e-09	-3.264480e+01	-1.658122e+02
6.600000e-07	-4.578883e-06	-2.546113e-09	-3.247329e+01	-1.655808e+02
6.700000e-07	-4.554375e-06	-2.526594e-09	-3.229948e+01	-1.653526e+02
6.800000e-07	-4.529487e-06	-2.523283e-09	-3.212297e+01	-1.651265e+02
6.900000e-07	-4.504179e-06	-2.527035e-09	-3.194349e+01	-1.649014e+02
7.000000e-07	-4.478376e-06	-2.534530e-09	-3.176049e+01	-1.646760e+02
7.100000e-07	-4.452043e-06	-2.519282e-09	-3.157374e+01	-1.644493e+02
7.200000e-07	-4.425262e-06	-2.506535e-09	-3.138382e+01	-1.642200e+02
7.300000e-07	-4.398086e-06	-2.497363e-09	-3.119108e+01	-1.639870e+02
7.400000e-07	-4.370562e-06	-2.512388e-09	-3.099588e+01	-1.637491e+02
7.500000e-07	-4.342809e-06	-2.504917e-09	-3.079906e+01	-1.635055e+02
7.600000e-07	-4.314865e-06	-2.497139e-09	-3.060088e+01	-1.632552e+02
7.700000e-07	-4.286660e-06	-2.487133e-09	-3.040085e+01	-1.629975e+02
7.800000e-07	-4.258132e-06	-2.493317e-09	-3.019853e+01	-1.627317e+02
7.900000e-07	-4.229367e-06	-2.480956e-09	-2.999453e+01	-1.624574e+02
8.000000e-07	-4.200358e-06	-2.471477e-09	-2.978880e+01	-1.621743e+02
8.100000e-07	-4.170984e-06	-2.456899e-09	-2.958048e+01	-1.618821e+02
8.200000e-07	-4.141374e-06	-2.461379e-09	-2.937049e+01	-1.615808e+02
8.300000e-07	-4.111570e-06	-2.461700e-09	-2.915912e+01	-1.612706e+02
8.400000e-07	-4.081451e-06	-2.456293e-09	-2.894552e+01	-1.609517e+02
8.500000e-07	-4.050995e-06	-2.439883e-09	-2.872952e+01	-1.606244e+02
8.600000e-07	-4.020334e-06	-2.435747e-09	-2.851207e+01	-1.602893e+02
8.700000e-07	-3.989553e-06	-2.429862e-09	-2.829378e+01	-1.599469e+02
8.800000e-07	-3.958474e-06	-2.420492e-09	-2.807337e+01	-1.595979e+02
8.900000e-07	-3.927017e-06	-2.404888e-09	-2.785028e+01	-1.592429e+02
9.000000e-07	-3.895358e-06	-2.403373e-09	-2.762575e+01	-1.588826e+02
9.100000e-07	-3.863552e-06	-2.406446e-09	-2.740019e+01	-1.585178e+02
9.200000e-07	-3.831571e-06	-2.402420e-09	-2.717338e+01	-1.581491e+02
9.300000e-07	-3.799400e-06	-2.388137e-09	-2.694522e+01	-1.577774e+02
9.400000e-07	-3.766992e-06	-2.374594e-09	-2.671538e+01	-1.574031e+02
9.500000e-07	-3.734334e-06	-2.370685e-09	-2.648378e+01	-1.570270e+02
9.600000e-07	-3.701345e-06	-2.366779e-09	-2.624982e+01	-1.566495e+02
9.700000e-07	-3.667914e-06	-2.361281e-09	-2.601272e+01	-1.562710e+02
9.800000e-07	-3.634027e-06	-2.353723e-09	-2.577240e+01	-1.558919e+02
9.900000e-07	-3.599620e-06	-2.353223e-09	-2.552838e+01	-1.555125e+02
1.000000e-06	-3.564696e-06	-2.346584e-09	-2.528071e+01	-1.551329e+02
1.010000e-06	-3.529464e-06	-2.335786e-09	-2.503084e+01	-1.547530e+02
1.020000e-06	-3.494025e-06	-2.315596e-09	-2.477951e+01	-1.543730e+02
1.030000e-06	-3.458379e-06	-2.302367e-09	-2.452671e+01	-1.539925e+02
1.040000e-06	-3.422541e-06	-2.295380e-09	-2.427255e+01	-1.536114e+02
1.050000e-06	-3.386549e-06	-2.298660e-09	-2.401729e+01	-1.532294e+02
1.060000e-06	-3.350431e-06	-2.293527e-09	-2.376114e+01	-1.528460e+02
1.070000e-06	-3.314183e-06	-2.288550e-09	-2.350408e+01	-1.524609e+02
1.080000e-06	-3.277742e-06	-2.281713e-09	-2.324564e+01	-1.520735e+02
1.090000e-06	-3.241018e-06	-2.276523e-09	-2.298519e+01	-1.516833e+02
1.100000e-06	-3.204009e-06	-2.260955e-09	-2.272273e+01	-1.512897e+02
1.110000e-06	-3.166733e-06	-2.248949e-09	-2.245837e+01	-1.508922e+02
1.120000e-06	-3.129188e-06	-2.239587e-09	-2.219210e+01	-1.504902e+02
1.130000e-06	-3.091463e-06	-2.238717e-09	-2.192456e+01	-1.500832e+02
1.140000e-06	-3.053583e-06	-2.235672e-09	-2.165591e+01	-1.496707e+02
1.150000e-06	-3.015490e-06	-2.232840e-09	-2.138575e+01	-1.492521e+02
1.160000e-06	-2.977250e-06	-2.224907e-09	-2.111456e+01	-1.488271e+02
1.170000e-06	-2.938878e-06	-2.215989e-09	-2.084243e+01	-1.483951e+02
1.180000e-06	-2.900233e-06	-2.202980e-09	-2.056836e+01	-1.479560e+02
1.190000e-06	-2.861328e-06	-2.189960e-09	-2.029244e+01	-1.475092e+02
1.200000e-06	-2.822280e-06	-2.179424e-09	-2.001552e+01	-1.470547e+02
1.210000e-06	-2.783004e-06	-2.173199e-09	-1.973698e+01	-1.465922e+02
1.220000e-06	-2.743465e-06	-2.170403e-09	-1.945657e+01	-1.461215e+02
1.230000e-06	-2.703764e-06	-2.168016e-09	-1.917501e+01	-1.456426e+02
1.240000e-06	-2.663953e-06	-2.163302e-09	-1.889267e+01	-1.451553e+02
1.250000e-06	-2.624066e-06	-2.155162e-09	-1.860979e+01	-1.446595e+02
1.260000e-06	-2.584058e-06	-2.147427e-09	-1.832606e+01	-1.441554e+02
1.270000e-06	-2.543901e-06	-2.134029e-09	-1.804127e+01	-1.436428e+02
1.280000e-06	-2.503649e-06	-2.120012e-09	-1.775580e+01	-1.431219e+02
1.290000e-06	-2.463282e-06	-2.110601e-09	-1.746952e+01	-1.425925e+02
1.300000e-06	-2.422786e-06	-2.107136e-09	-1.718232e+01	-1.420547e+02
1.310000e-06	-2.382130e-06	-2.100590e-09	-1.689399e+01	-1.415084e+02
1.320000e-06	-2.341214e-06	-2.091430e-09	-1.660381e+01	-1.409538e+02
1.330000e-06	-2.300096e-06	-2.081874e-09	-1.631220e+01	-1.403906e+02
1.340000e-06	-2.258693e-06	-2.078046e-09	-1.601858e+01	-1.398188e+02
1.350000e-06	-2.216969e-06	-2.072463e-09	-1.572267e+01	-1.392383e+02
1.360000e-06	-2.175025e-06	-2.063051e-09	-1.542521e+01	-1.386489e+02
1.370000e-06	-2.132712e-06	-2.050529e-09	-1.512512e+01	-1.380505e+02
1.380000e-06	-2.090125e-06	-2.041160e-09	-1.482310e+01	-1.374428e+02
1.390000e-06	-2.047339e-06	-2.028751e-09	-1.451966e+01	-1.368255e+02
1.400000e-06	-2.004225e-06	-2.016253e-09	-1.421390e+01	-1.361984e+02
1.410000e-06	-1.960936e-06	-2.001917e-09	-1.390689e+01	-1.355611e+02
1.420000e-06	-1.917614e-06	-1.995333e-09	-1.359965e+01	-1.349132e+02
1.430000e-06	-1.874156e-06	-1.990720e-09	-1.329145e+01	-1.342543e+02
1.440000e-06	-1.830554e-06	-1.982451e-09	-1.298223e+01	-1.335841e+02
1.450000e-06	-1.786876e-06	-1.967583e-09	-1.267247e+01	-1.329021e+02
1.460000e-06	-1.743086e-06	-1.954884e-09	-1.236191e+01	-1.322078e+02
1.470000e-06	-1.699196e-06	-1.942610e-09	-1.205064e+01	-1.315008e+02
1.480000e-06	-1.655244e-06	-1.925571e-09	-1.173893e+01	-1.307806e+02
1.490000e-06	-1.611169e-06	-1.906870e-09	-1.142636e+01	-1.300467e+02
1.500000e-06	-1.567000e-06	-1.893739e-09	-1.111311e+01	-1.292987e+02
1.510000e-06	-1.522807e-06	-1.888149e-09	-1.079970e+01	-1.285361e+02
1.520000e-06	-1.478542e-06	-1.882411e-09	-1.048577e+01	-1.277583e+02
1.530000e-06	-1.434211e-06	-1.869415e-09	-1.017138e+01	-1.269650e+02
1.540000e-06	-1.389842e-06	-1.854970e-09	-9.856715e+00	-1.261555e+02
1.550000e-06	-1.345404e-06	-1.839864e-09	-9.541562e+00	-1.253295e+02
1.560000e-06	-1.300855e-06	-1.821498e-09	-9.225624e+00	-1.244864e+02
1.570000e-06	-1.256293e-06	-1.801697e-09	-8.909592e+00	-1.236256e+02
1.580000e-06	-1.211704e-06	-1.784106e-09	-8.593366e+00	-1.227468e+02
1.590000e-06	-1.166990e-06	-1.774689e-09	-8.276253e+00	-1.218493e+02
1.600000e-06	-1.122173e-06	-1.768217e-09	-7.958414e+00	-1.209325e+02
1.610000e-06	-1.077256e-06	-1.757279e-09	-7.639861e+00	-1.199958e+02
1.620000e-06	-1.032199e-06	-1.738961e-09	-7.320321e+00	-1.190386e+02
1.630000e-06	-9.870254e-07	-1.720565e-09	-6.999951e+00	-1.180603e+02
1.640000e-06	-9.417305e-07	-1.700564e-09	-6.678722e+00	-1.170600e+02
1.650000e-06	-8.962694e-07	-1.681852e-09	-6.356313e+00	-1.160370e+02
1.660000e-06	-8.507806e-07	-1.666371e-09	-6.033708e+00	-1.149904e+02
1.670000e-06	-8.052963e-07	-1.657347e-09	-5.711135e+00	-1.139195e+02
1.680000e-06	-7.597455e-07	-1.647306e-09	-5.388090e+00	-1.128232e+02
1.690000e-06	-7.142096e-07	-1.629729e-09	-5.065151e+00	-1.117005e+02
1.700000e-06	-6.686688e-07	-1.602364e-09	-4.742177e+00	-1.105505e+02
1.710000e-06	-6.230123e-07	-1.576302e-09	-4.418382e+00	-1.093720e+02
1.720000e-06	-5.772997e-07	-1.555278e-09	-4.094190e+00	-1.081638e+02
1.730000e-06	-5.315749e-07	-1.536788e-09	-3.769912e+00	-1.069248e+02
1.740000e-06	-4.858053e-07	-1.516248e-09	-3.445315e+00	-1.056538e+02
1.750000e-06	-4.400063e-07	-1.500284e-09	-3.120510e+00	-1.043495e+02
1.760000e-06	-3.942242e-07	-1.488632e-09	-2.795825e+00	-1.030106e+02
1.770000e-06	-3.484013e-07	-1.473065e-09	-2.470850e+00	-1.016359e+02
1.780000e-06	-3.025459e-07	-1.447537e-09	-2.145645e+00	-1.002241e+02
1.790000e-06	-2.567260e-07	-1.417511e-09	-1.820692e+00	-9.877379e+01
1.800000e-06	-2.109232e-07	-1.391162e-09	-1.495860e+00	-9.728379e+01
1.810000e-06	-1.651411e-07	-1.369213e-09	-1.171175e+00	-9.575285e+01
1.820000e-06	-1.192991e-07	-1.345688e-09	-8.460650e-01	-9.417972e+01
1.830000e-06	-7.341442e-08	-1.320241e-09	-5.206526e-01	-9.256324e+01
1.840000e-06	-2.750237e-08	-1.297567e-09	-1.950459e-01	-9.090226e+01
1.850000e-06	1.841058e-08	-1.276501e-09	1.305672e-01	-8.919572e+01
1.860000e-06	6.430817e-08	-1.251965e-09	4.560714e-01	-8.744258e+01
1.870000e-06	1.102402e-07	-1.221027e-09	7.818198e-01	-8.564190e+01
1.880000e-06	1.561164e-07	-1.191714e-09	1.107172e+00	-8.379279e+01
1.890000e-06	2.019578e-07	-1.166505e-09	1.432278e+00	-8.189445e+01
1.900000e-06	2.478647e-07	-1.140114e-09	1.757848e+00	-7.994613e+01
1.910000e-06	2.937851e-07	-1.108194e-09	2.083515e+00	-7.794717e+01
1.920000e-06	3.395966e-07	-1.075354e-09	2.408408e+00	-7.589699e+01
1.930000e-06	3.853492e-07	-1.045095e-09	2.732884e+00	-7.379508e+01
1.940000e-06	4.311077e-07	-1.016517e-09	3.057402e+00	-7.164101e+01
1.950000e-06	4.768347e-07	-9.843797e-10	3.381696e+00	-6.943442e+01
1.960000e-06	5.225461e-07	-9.514429e-10	3.705880e+00	-6.717502e+01
1.970000e-06	5.682757e-07	-9.197195e-10	4.030192e+00	-6.486259e+01
1.980000e-06	6.139253e-07	-8.865106e-10	4.353938e+00	-6.249699e+01
1.990000e-06	6.594719e-07	-8.489167e-10	4.676953e+00	-6.007815e+01
2.000000e-06	7.049749e-07	-8.094587e-10	4.999659e+00	-5.760604e+01
2.010000e-06	7.504054e-07	-7.696237e-10	5.321850e+00	-5.508075e+01
2.020000e-06	7.957645e-07	-7.306909e-10	5.643535e+00	-5.250240e+01
2.030000e-06	8.411172e-07	-6.916368e-10	5.965176e+00	-4.987121e+01
2.040000e-06	8.865037e-07	-6.544318e-10	6.287055e+00	-4.718748e+01
2.050000e-06	9.318090e-07	-6.194459e-10	6.608359e+00	-4.445157e+01
2.060000e-06	9.769914e-07	-5.845472e-10	6.928791e+00	-4.166398e+01
2.070000e-06	1.022103e-06	-5.450580e-10	7.248721e+00	-3.882527e+01
2.080000e-06	1.067099e-06	-5.018778e-10	7.567833e+00	-3.593613e+01
2.090000e-06	1.111947e-06	-4.567513e-10	7.885892e+00	-3.299738e+01
2.100000e-06	1.156739e-06	-4.089715e-10	8.203555e+00	-3.000996e+01
2.110000e-06	1.201541e-06	-3.607649e-10	8.521289e+00	-2.697495e+01
2.120000e-06	1.246194e-06	-3.135057e-10	8.837966e+00	-2.389361e+01
2.130000e-06	1.290687e-06	-2.677007e-10	9.153510e+00	-2.076736e+01
2.140000e-06	1.335093e-06	-2.222233e-10	9.468437e+00	-1.759779e+01
2.150000e-06	1.379456e-06	-1.754071e-10	9.783054e+00	-1.438670e+01
2.160000e-06	1.423785e-06	-1.275979e-10	1.009744e+01	-1.113610e+01
2.170000e-06	1.468015e-06	-8.016852e-11	1.041111e+01	-7.848180e+00
2.180000e-06	1.512150e-06	-3.181792e-11	1.072412e+01	-4.525379e+00
2.190000e-06	1.556194e-06	1.869192e-11	1.103648e+01	-1.170347e+00
2.200000e-06	1.600183e-06	7.068363e-11	1.134845e+01	2.214041e+00
2.210000e-06	1.644165e-06	1.229308e-10	1.166037e+01	5.624687e+00
2.220000e-06	1.688141e-06	1.785280e-10	1.197224e+01	9.058272e+00
2.230000e-06	1.732065e-06	2.347581e-10	1.228375e+01	1.251127e+01
2.240000e-06	1.775934e-06	2.870795e-10	1.259486e+01	1.597994e+01
2.250000e-06	1.819723e-06	3.336309e-10	1.290542e+01	1.946036e+01
2.260000e-06	1.863379e-06	3.792986e-10	1.321502e+01	2.294846e+01
2.270000e-06	1.906895e-06	4.291993e-10	1.352364e+01	2.643999e+01
2.280000e-06	1.950228e-06	4.829837e-10	1.383095e+01	2.993059e+01
2.290000e-06	1.993382e-06	5.380440e-10	1.413700e+01	3.341580e+01
2.300000e-06	2.036410e-06	5.925948e-10	1.444215e+01	3.689109e+01
2.310000e-06	2.079231e-06	6.471188e-10	1.474584e+01	4.035190e+01
2.320000e-06	2.121751e-06	6.974597e-10	1.504739e+01	4.379367e+01
2.330000e-06	2.164034e-06	7.418917e-10	1.534725e+01	4.721186e+01
2.340000e-06	2.206140e-06	7.841351e-10	1.564587e+01	5.060199e+01
2.350000e-06	2.247901e-06	8.282038e-10	1.594204e+01	5.395971e+01
2.360000e-06	2.289423e-06	8.779462e-10	1.623651e+01	5.728079e+01
2.370000e-06	2.330771e-06	9.309210e-10	1.652975e+01	6.056116e+01
2.380000e-06	2.371767e-06	9.815910e-10	1.682050e+01	6.379697e+01
2.390000e-06	2.412390e-06	1.030869e-09	1.710859e+01	6.698461e+01
2.400000e-06	2.452786e-06	1.079161e-09	1.739508e+01	7.012072e+01
2.410000e-06	2.493092e-06	1.121764e-09	1.768092e+01	7.320221e+01
2.420000e-06	2.533260e-06	1.158169e-09	1.796580e+01	7.622632e+01
2.430000e-06	2.573320e-06	1.193864e-09	1.824990e+01	7.919059e+01
2.440000e-06	2.613307e-06	1.233288e-09	1.853348e+01	8.209293e+01
2.450000e-06	2.653202e-06	1.274112e-09	1.881642e+01	8.493154e+01
2.460000e-06	2.692965e-06	1.314970e-09	1.909842e+01	8.770500e+01
2.470000e-06	2.732556e-06	1.356760e-09	1.937920e+01	9.041222e+01
2.480000e-06	2.772008e-06	1.399091e-09	1.965899e+01	9.305245e+01
2.490000e-06	2.811279e-06	1.438463e-09	1.993750e+01	9.562525e+01
2.500000e-06	2.850324e-06	1.472035e-09	2.021441e+01	9.813051e+01
2.510000e-06	2.889200e-06	1.502331e-09	2.049011e+01	1.005684e+02
2.520000e-06	2.927820e-06	1.534837e-09	2.076400e+01	1.029393e+02
2.530000e-06	2.966102e-06	1.569897e-09	2.103550e+01	1.052440e+02
2.540000e-06	3.004165e-06	1.603245e-09	2.130544e+01	1.074833e+02
2.550000e-06	3.042114e-06	1.634648e-09	2.157458e+01	1.096583e+02
2.560000e-06	3.079900e-06	1.667546e-09	2.184255e+01	1.117703e+02
2.570000e-06	3.117498e-06	1.697649e-09	2.210919e+01	1.138205e+02
2.580000e-06	3.154864e-06	1.722117e-09	2.237420e+01	1.158105e+02
2.590000e-06	3.191985e-06	1.745146e-09	2.263746e+01	1.177417e+02
2.600000e-06	3.228865e-06	1.770761e-09	2.289900e+01	1.196158e+02
2.610000e-06	3.265502e-06	1.800197e-09	2.315883e+01	1.214341e+02
2.620000e-06	3.301960e-06	1.827962e-09	2.341739e+01	1.231983e+02
2.630000e-06	3.338205e-06	1.852019e-09	2.367444e+01	1.249097e+02
2.640000e-06	3.374276e-06	1.875508e-09	2.393026e+01	1.265700e+02
2.650000e-06	3.410282e-06	1.897679e-09	2.418561e+01	1.281803e+02
2.660000e-06	3.446190e-06	1.916645e-09	2.444026e+01	1.297419e+02
2.670000e-06	3.481920e-06	1.934323e-09	2.469367e+01	1.312560e+02
2.680000e-06	3.517372e-06	1.953626e-09	2.494509e+01	1.327237e+02
2.690000e-06	3.552473e-06	1.975475e-09	2.519402e+01	1.341459e+02
2.700000e-06	3.587267e-06	1.995869e-09	2.544078e+01	1.355234e+02
2.710000e-06	3.621816e-06	2.014420e-09	2.568580e+01	1.368571e+02
2.720000e-06	3.655931e-06	2.034846e-09	2.592774e+01	1.381476e+02
2.730000e-06	3.689476e-06	2.056183e-09	2.616564e+01	1.393956e+02
2.740000e-06	3.722606e-06	2.072554e-09	2.640060e+01	1.406016e+02
2.750000e-06	3.755370e-06	2.084386e-09	2.663296e+01	1.417662e+02
2.760000e-06	3.787800e-06	2.098660e-09	2.686295e+01	1.428898e+02
2.770000e-06	3.820073e-06	2.117875e-09	2.709183e+01	1.439731e+02
2.780000e-06	3.852188e-06	2.136678e-09	2.731959e+01	1.450166e+02
2.790000e-06	3.884084e-06	2.151708e-09	2.754580e+01	1.460209e+02
2.800000e-06	3.915846e-06	2.164698e-09	2.777105e+01	1.469865e+02
2.810000e-06	3.947417e-06	2.180211e-09	2.799495e+01	1.479141e+02
2.820000e-06	3.978636e-06	2.195765e-09	2.821636e+01	1.488047e+02
2.830000e-06	4.009585e-06	2.204754e-09	2.843584e+01	1.496589e+02
2.840000e-06	4.040263e-06	2.212819e-09	2.865341e+01	1.504778e+02
2.850000e-06	4.070583e-06	2.228392e-09	2.886844e+01	1.512624e+02
2.860000e-06	4.100662e-06	2.247477e-09	2.908176e+01	1.520138e+02
2.870000e-06	4.130542e-06	2.261040e-09	2.929367e+01	1.527334e+02
2.880000e-06	4.160187e-06	2.267523e-09	2.950391e+01	1.534224e+02
2.890000e-06	4.189555e-06	2.273189e-09	2.971218e+01	1.540822e+02
2.900000e-06	4.218606e-06	2.282192e-09	2.991822e+01	1.547144e+02
