# Temperatura_=_-13.12
# Concentracion g/m^3_=_4090.0
# C_Vs_to_Am_M_A/Vsm_=_65563218390.804596
# pendiente_HvsI_1/m_=_3716.3
# ordenada_HvsI_A/m_=_1297.0
# frecuencia_Hz_=_135075.30759189455

Tiempo_(s)	Campo_(V.s)	Magnetizacion_(V.s)	Campo_(kA/m)	Magnetizacion_(A/m)
0.000000e+00	-5.406051e-06	-2.005871e-09	-3.839311e+01	-1.303320e+02
1.000000e-08	-5.406215e-06	-2.002909e-09	-3.839428e+01	-1.303262e+02
2.000000e-08	-5.406120e-06	-1.999306e-09	-3.839360e+01	-1.303190e+02
3.000000e-08	-5.405785e-06	-1.996891e-09	-3.839122e+01	-1.303109e+02
4.000000e-08	-5.405135e-06	-1.994211e-09	-3.838661e+01	-1.303024e+02
5.000000e-08	-5.404020e-06	-1.996621e-09	-3.837869e+01	-1.302938e+02
6.000000e-08	-5.402274e-06	-2.015658e-09	-3.836629e+01	-1.302854e+02
7.000000e-08	-5.399881e-06	-2.048503e-09	-3.834930e+01	-1.302774e+02
8.000000e-08	-5.397028e-06	-1.996687e-09	-3.832903e+01	-1.302700e+02
9.000000e-08	-5.393628e-06	-1.885051e-09	-3.830489e+01	-1.302633e+02
1.000000e-07	-5.389739e-06	-1.971364e-09	-3.827727e+01	-1.302571e+02
1.100000e-07	-5.385510e-06	-2.165921e-09	-3.824724e+01	-1.302515e+02
1.200000e-07	-5.380946e-06	-2.063048e-09	-3.821482e+01	-1.302461e+02
1.300000e-07	-5.376161e-06	-1.829137e-09	-3.818084e+01	-1.302407e+02
1.400000e-07	-5.371174e-06	-1.915891e-09	-3.814542e+01	-1.302349e+02
1.500000e-07	-5.365816e-06	-2.220908e-09	-3.810737e+01	-1.302283e+02
1.600000e-07	-5.359972e-06	-2.083958e-09	-3.806587e+01	-1.302205e+02
1.700000e-07	-5.353781e-06	-1.767845e-09	-3.802190e+01	-1.302108e+02
1.800000e-07	-5.347309e-06	-1.902352e-09	-3.797594e+01	-1.301987e+02
1.900000e-07	-5.340460e-06	-2.198575e-09	-3.792730e+01	-1.301835e+02
2.000000e-07	-5.333150e-06	-2.075941e-09	-3.787538e+01	-1.301646e+02
2.100000e-07	-5.325536e-06	-1.855741e-09	-3.782131e+01	-1.301413e+02
2.200000e-07	-5.317814e-06	-2.031903e-09	-3.776647e+01	-1.301129e+02
2.300000e-07	-5.309820e-06	-2.157481e-09	-3.770970e+01	-1.300786e+02
2.400000e-07	-5.301306e-06	-1.956160e-09	-3.764923e+01	-1.300379e+02
2.500000e-07	-5.292347e-06	-1.880953e-09	-3.758560e+01	-1.299901e+02
2.600000e-07	-5.282939e-06	-2.093449e-09	-3.751879e+01	-1.299345e+02
2.700000e-07	-5.272715e-06	-2.075514e-09	-3.744618e+01	-1.298706e+02
2.800000e-07	-5.261865e-06	-1.875674e-09	-3.736913e+01	-1.297978e+02
2.900000e-07	-5.250657e-06	-1.982675e-09	-3.728953e+01	-1.297157e+02
3.000000e-07	-5.239001e-06	-2.162294e-09	-3.720674e+01	-1.296238e+02
3.100000e-07	-5.227006e-06	-1.954898e-09	-3.712156e+01	-1.295218e+02
3.200000e-07	-5.214722e-06	-1.825073e-09	-3.703432e+01	-1.294094e+02
3.300000e-07	-5.201961e-06	-2.034870e-09	-3.694370e+01	-1.292864e+02
3.400000e-07	-5.188676e-06	-2.086407e-09	-3.684935e+01	-1.291526e+02
3.500000e-07	-5.175041e-06	-1.900092e-09	-3.675251e+01	-1.290081e+02
3.600000e-07	-5.161091e-06	-1.943552e-09	-3.665344e+01	-1.288527e+02
3.700000e-07	-5.146732e-06	-2.053752e-09	-3.655146e+01	-1.286867e+02
3.800000e-07	-5.131911e-06	-1.955406e-09	-3.644620e+01	-1.285100e+02
3.900000e-07	-5.116581e-06	-1.923432e-09	-3.633734e+01	-1.283230e+02
4.000000e-07	-5.100698e-06	-2.002806e-09	-3.622453e+01	-1.281259e+02
4.100000e-07	-5.084172e-06	-1.925417e-09	-3.610717e+01	-1.279189e+02
4.200000e-07	-5.067214e-06	-1.875807e-09	-3.598674e+01	-1.277025e+02
4.300000e-07	-5.049965e-06	-2.007371e-09	-3.586424e+01	-1.274770e+02
4.400000e-07	-5.032399e-06	-2.008122e-09	-3.573948e+01	-1.272429e+02
4.500000e-07	-5.014582e-06	-1.877488e-09	-3.561295e+01	-1.270006e+02
4.600000e-07	-4.996471e-06	-1.911721e-09	-3.548433e+01	-1.267505e+02
4.700000e-07	-4.978099e-06	-1.995220e-09	-3.535385e+01	-1.264930e+02
4.800000e-07	-4.959399e-06	-1.931610e-09	-3.522105e+01	-1.262288e+02
4.900000e-07	-4.940230e-06	-1.883512e-09	-3.508491e+01	-1.259582e+02
5.000000e-07	-4.920660e-06	-1.910583e-09	-3.494593e+01	-1.256816e+02
5.100000e-07	-4.900860e-06	-1.923243e-09	-3.480531e+01	-1.253995e+02
5.200000e-07	-4.880872e-06	-1.932160e-09	-3.466336e+01	-1.251124e+02
5.300000e-07	-4.860657e-06	-1.928953e-09	-3.451979e+01	-1.248205e+02
5.400000e-07	-4.840143e-06	-1.875446e-09	-3.437410e+01	-1.245243e+02
5.500000e-07	-4.819330e-06	-1.877727e-09	-3.422629e+01	-1.242240e+02
5.600000e-07	-4.798159e-06	-1.921703e-09	-3.407594e+01	-1.239200e+02
5.700000e-07	-4.776626e-06	-1.896694e-09	-3.392302e+01	-1.236124e+02
5.800000e-07	-4.754823e-06	-1.847546e-09	-3.376817e+01	-1.233017e+02
5.900000e-07	-4.732706e-06	-1.864907e-09	-3.361110e+01	-1.229878e+02
6.000000e-07	-4.710203e-06	-1.888227e-09	-3.345129e+01	-1.226710e+02
6.100000e-07	-4.687344e-06	-1.881629e-09	-3.328894e+01	-1.223513e+02
6.200000e-07	-4.664207e-06	-1.852115e-09	-3.312463e+01	-1.220289e+02
6.300000e-07	-4.640803e-06	-1.828303e-09	-3.295842e+01	-1.217038e+02
6.400000e-07	-4.617148e-06	-1.844313e-09	-3.279042e+01	-1.213761e+02
6.500000e-07	-4.593194e-06	-1.871359e-09	-3.262031e+01	-1.210457e+02
6.600000e-07	-4.568976e-06	-1.841049e-09	-3.244831e+01	-1.207126e+02
6.700000e-07	-4.544527e-06	-1.805111e-09	-3.227468e+01	-1.203768e+02
6.800000e-07	-4.519725e-06	-1.822848e-09	-3.209854e+01	-1.200382e+02
6.900000e-07	-4.494391e-06	-1.846591e-09	-3.191862e+01	-1.196966e+02
7.000000e-07	-4.468548e-06	-1.828504e-09	-3.173508e+01	-1.193522e+02
7.100000e-07	-4.442372e-06	-1.798999e-09	-3.154919e+01	-1.190046e+02
7.200000e-07	-4.415610e-06	-1.794819e-09	-3.135912e+01	-1.186538e+02
7.300000e-07	-4.388282e-06	-1.811423e-09	-3.116504e+01	-1.182997e+02
7.400000e-07	-4.360718e-06	-1.809926e-09	-3.096929e+01	-1.179422e+02
7.500000e-07	-4.332927e-06	-1.778782e-09	-3.077192e+01	-1.175810e+02
7.600000e-07	-4.304948e-06	-1.765064e-09	-3.057321e+01	-1.172160e+02
7.700000e-07	-4.276800e-06	-1.781029e-09	-3.037331e+01	-1.168472e+02
7.800000e-07	-4.248360e-06	-1.782642e-09	-3.017134e+01	-1.164743e+02
7.900000e-07	-4.219643e-06	-1.754351e-09	-2.996739e+01	-1.160971e+02
8.000000e-07	-4.190687e-06	-1.735100e-09	-2.976175e+01	-1.157156e+02
8.100000e-07	-4.161432e-06	-1.738596e-09	-2.955399e+01	-1.153294e+02
8.200000e-07	-4.131870e-06	-1.747335e-09	-2.934404e+01	-1.149386e+02
8.300000e-07	-4.102088e-06	-1.735601e-09	-2.913253e+01	-1.145429e+02
8.400000e-07	-4.072094e-06	-1.714446e-09	-2.891951e+01	-1.141421e+02
8.500000e-07	-4.041786e-06	-1.708335e-09	-2.870427e+01	-1.137360e+02
8.600000e-07	-4.011140e-06	-1.716207e-09	-2.848663e+01	-1.133246e+02
8.700000e-07	-3.980261e-06	-1.705173e-09	-2.826733e+01	-1.129076e+02
8.800000e-07	-3.949130e-06	-1.679325e-09	-2.804624e+01	-1.124848e+02
8.900000e-07	-3.917657e-06	-1.666851e-09	-2.782272e+01	-1.120562e+02
9.000000e-07	-3.886024e-06	-1.677714e-09	-2.759807e+01	-1.116216e+02
9.100000e-07	-3.854305e-06	-1.680368e-09	-2.737280e+01	-1.111808e+02
9.200000e-07	-3.822380e-06	-1.661481e-09	-2.714608e+01	-1.107336e+02
9.300000e-07	-3.790243e-06	-1.641895e-09	-2.691784e+01	-1.102801e+02
9.400000e-07	-3.757891e-06	-1.641450e-09	-2.668808e+01	-1.098201e+02
9.500000e-07	-3.725193e-06	-1.641708e-09	-2.645587e+01	-1.093535e+02
9.600000e-07	-3.692012e-06	-1.626301e-09	-2.622022e+01	-1.088802e+02
9.700000e-07	-3.658479e-06	-1.609965e-09	-2.598207e+01	-1.084002e+02
9.800000e-07	-3.624569e-06	-1.609606e-09	-2.574124e+01	-1.079135e+02
9.900000e-07	-3.590117e-06	-1.611467e-09	-2.549657e+01	-1.074200e+02
1.000000e-06	-3.555325e-06	-1.597723e-09	-2.524949e+01	-1.069198e+02
1.010000e-06	-3.520206e-06	-1.576028e-09	-2.500007e+01	-1.064129e+02
1.020000e-06	-3.484758e-06	-1.562714e-09	-2.474832e+01	-1.058993e+02
1.030000e-06	-3.449127e-06	-1.558460e-09	-2.449528e+01	-1.053792e+02
1.040000e-06	-3.413309e-06	-1.552357e-09	-2.424090e+01	-1.048527e+02
1.050000e-06	-3.377322e-06	-1.542746e-09	-2.398533e+01	-1.043198e+02
1.060000e-06	-3.341184e-06	-1.535971e-09	-2.372868e+01	-1.037806e+02
1.070000e-06	-3.304871e-06	-1.535379e-09	-2.347079e+01	-1.032354e+02
1.080000e-06	-3.268350e-06	-1.529713e-09	-2.321142e+01	-1.026843e+02
1.090000e-06	-3.231587e-06	-1.512334e-09	-2.295034e+01	-1.021274e+02
1.100000e-06	-3.194604e-06	-1.494320e-09	-2.268769e+01	-1.015649e+02
1.110000e-06	-3.157370e-06	-1.486897e-09	-2.242325e+01	-1.009969e+02
1.120000e-06	-3.119899e-06	-1.483082e-09	-2.215714e+01	-1.004236e+02
1.130000e-06	-3.082233e-06	-1.475150e-09	-2.188965e+01	-9.984508e+01
1.140000e-06	-3.044408e-06	-1.463098e-09	-2.162102e+01	-9.926148e+01
1.150000e-06	-3.006397e-06	-1.456027e-09	-2.135106e+01	-9.867290e+01
1.160000e-06	-2.968084e-06	-1.449961e-09	-2.107897e+01	-9.807939e+01
1.170000e-06	-2.929565e-06	-1.437404e-09	-2.080541e+01	-9.748100e+01
1.180000e-06	-2.890926e-06	-1.419274e-09	-2.053100e+01	-9.687772e+01
1.190000e-06	-2.852113e-06	-1.407667e-09	-2.025536e+01	-9.626952e+01
1.200000e-06	-2.813060e-06	-1.402751e-09	-1.997801e+01	-9.565634e+01
1.210000e-06	-2.773762e-06	-1.394432e-09	-1.969892e+01	-9.503807e+01
1.220000e-06	-2.734277e-06	-1.379778e-09	-1.941850e+01	-9.441455e+01
1.230000e-06	-2.694685e-06	-1.368473e-09	-1.913732e+01	-9.378560e+01
1.240000e-06	-2.655006e-06	-1.362212e-09	-1.885553e+01	-9.315100e+01
1.250000e-06	-2.615197e-06	-1.356415e-09	-1.857281e+01	-9.251047e+01
1.260000e-06	-2.575256e-06	-1.345740e-09	-1.828916e+01	-9.186372e+01
1.270000e-06	-2.535233e-06	-1.332300e-09	-1.800491e+01	-9.121042e+01
1.280000e-06	-2.495134e-06	-1.322422e-09	-1.772014e+01	-9.055022e+01
1.290000e-06	-2.454876e-06	-1.315981e-09	-1.743423e+01	-8.988274e+01
1.300000e-06	-2.414418e-06	-1.306203e-09	-1.714690e+01	-8.920759e+01
1.310000e-06	-2.373834e-06	-1.291968e-09	-1.685868e+01	-8.852437e+01
1.320000e-06	-2.333091e-06	-1.281691e-09	-1.656933e+01	-8.783267e+01
1.330000e-06	-2.292082e-06	-1.276103e-09	-1.627809e+01	-8.713209e+01
1.340000e-06	-2.250781e-06	-1.268804e-09	-1.598477e+01	-8.642225e+01
1.350000e-06	-2.209219e-06	-1.256389e-09	-1.568960e+01	-8.570277e+01
1.360000e-06	-2.167357e-06	-1.241877e-09	-1.539231e+01	-8.497331e+01
1.370000e-06	-2.125179e-06	-1.229068e-09	-1.509276e+01	-8.423355e+01
1.380000e-06	-2.082682e-06	-1.218213e-09	-1.479095e+01	-8.348320e+01
1.390000e-06	-2.039885e-06	-1.204998e-09	-1.448702e+01	-8.272204e+01
1.400000e-06	-1.996807e-06	-1.190779e-09	-1.418108e+01	-8.194986e+01
1.410000e-06	-1.953483e-06	-1.178809e-09	-1.387340e+01	-8.116653e+01
1.420000e-06	-1.910046e-06	-1.170190e-09	-1.356491e+01	-8.037196e+01
1.430000e-06	-1.866528e-06	-1.159948e-09	-1.325586e+01	-7.956611e+01
1.440000e-06	-1.822916e-06	-1.144515e-09	-1.294612e+01	-7.874899e+01
1.450000e-06	-1.779204e-06	-1.126856e-09	-1.263569e+01	-7.792068e+01
1.460000e-06	-1.735441e-06	-1.112460e-09	-1.232489e+01	-7.708131e+01
1.470000e-06	-1.691620e-06	-1.099149e-09	-1.201368e+01	-7.623104e+01
1.480000e-06	-1.647744e-06	-1.085241e-09	-1.170207e+01	-7.537010e+01
1.490000e-06	-1.603811e-06	-1.071364e-09	-1.139007e+01	-7.449873e+01
1.500000e-06	-1.559817e-06	-1.058282e-09	-1.107763e+01	-7.361723e+01
1.510000e-06	-1.515737e-06	-1.046466e-09	-1.076458e+01	-7.272591e+01
1.520000e-06	-1.471589e-06	-1.032925e-09	-1.045105e+01	-7.182511e+01
1.530000e-06	-1.427346e-06	-1.019041e-09	-1.013683e+01	-7.091518e+01
1.540000e-06	-1.383048e-06	-1.009400e-09	-9.822235e+00	-6.999645e+01
1.550000e-06	-1.338718e-06	-1.002354e-09	-9.507411e+00	-6.906928e+01
1.560000e-06	-1.294249e-06	-9.911190e-10	-9.191600e+00	-6.813399e+01
1.570000e-06	-1.249685e-06	-9.717036e-10	-8.875112e+00	-6.719088e+01
1.580000e-06	-1.205068e-06	-9.498078e-10	-8.558249e+00	-6.624022e+01
1.590000e-06	-1.160318e-06	-9.314953e-10	-8.240437e+00	-6.528224e+01
1.600000e-06	-1.115432e-06	-9.179617e-10	-7.921665e+00	-6.431714e+01
1.610000e-06	-1.070503e-06	-9.072379e-10	-7.602583e+00	-6.334503e+01
1.620000e-06	-1.025486e-06	-8.945693e-10	-7.282873e+00	-6.236601e+01
1.630000e-06	-9.803678e-07	-8.824564e-10	-6.962453e+00	-6.138008e+01
1.640000e-06	-9.352160e-07	-8.670749e-10	-6.641790e+00	-6.038719e+01
1.650000e-06	-8.900018e-07	-8.471504e-10	-6.320684e+00	-5.938723e+01
1.660000e-06	-8.446844e-07	-8.283889e-10	-5.998846e+00	-5.838003e+01
1.670000e-06	-7.992892e-07	-8.117724e-10	-5.676454e+00	-5.736534e+01
1.680000e-06	-7.538210e-07	-7.979502e-10	-5.353545e+00	-5.634286e+01
1.690000e-06	-7.082588e-07	-7.815567e-10	-5.029968e+00	-5.531222e+01
1.700000e-06	-6.627017e-07	-7.629652e-10	-4.706427e+00	-5.427302e+01
1.710000e-06	-6.171704e-07	-7.446961e-10	-4.383069e+00	-5.322480e+01
1.720000e-06	-5.716256e-07	-7.275356e-10	-4.059616e+00	-5.216706e+01
1.730000e-06	-5.260662e-07	-7.104854e-10	-3.736058e+00	-5.109927e+01
1.740000e-06	-4.804180e-07	-6.928743e-10	-3.411870e+00	-5.002090e+01
1.750000e-06	-4.347830e-07	-6.791069e-10	-3.087776e+00	-4.893138e+01
1.760000e-06	-3.891685e-07	-6.702026e-10	-2.763828e+00	-4.783014e+01
1.770000e-06	-3.434627e-07	-6.590075e-10	-2.439230e+00	-4.671665e+01
1.780000e-06	-2.977109e-07	-6.414310e-10	-2.114306e+00	-4.559036e+01
1.790000e-06	-2.519362e-07	-6.195875e-10	-1.789220e+00	-4.445076e+01
1.800000e-06	-2.060629e-07	-5.975611e-10	-1.463434e+00	-4.329739e+01
1.810000e-06	-1.601843e-07	-5.771746e-10	-1.137609e+00	-4.212982e+01
1.820000e-06	-1.143593e-07	-5.592163e-10	-8.121658e-01	-4.094766e+01
1.830000e-06	-6.853433e-08	-5.426105e-10	-4.867225e-01	-3.975062e+01
1.840000e-06	-2.269695e-08	-5.289259e-10	-1.611909e-01	-3.853842e+01
1.850000e-06	2.319103e-08	-5.168409e-10	1.646999e-01	-3.731090e+01
1.860000e-06	6.909065e-08	-4.993892e-10	4.906734e-01	-3.606794e+01
1.870000e-06	1.149504e-07	-4.749240e-10	8.163637e-01	-3.480949e+01
1.880000e-06	1.607450e-07	-4.494333e-10	1.141592e+00	-3.353560e+01
1.890000e-06	2.064977e-07	-4.292551e-10	1.466521e+00	-3.224637e+01
1.900000e-06	2.523198e-07	-4.112426e-10	1.791944e+00	-3.094198e+01
1.910000e-06	2.982128e-07	-3.920960e-10	2.117871e+00	-2.962267e+01
1.920000e-06	3.440302e-07	-3.748125e-10	2.443261e+00	-2.828876e+01
1.930000e-06	3.897949e-07	-3.635657e-10	2.768276e+00	-2.694061e+01
1.940000e-06	4.354995e-07	-3.513238e-10	3.092864e+00	-2.557863e+01
1.950000e-06	4.811655e-07	-3.317279e-10	3.417179e+00	-2.420327e+01
1.960000e-06	5.268065e-07	-3.075611e-10	3.741315e+00	-2.281504e+01
1.970000e-06	5.723847e-07	-2.863748e-10	4.065006e+00	-2.141445e+01
1.980000e-06	6.179394e-07	-2.668062e-10	4.388530e+00	-2.000204e+01
1.990000e-06	6.634539e-07	-2.434309e-10	4.711769e+00	-1.857835e+01
2.000000e-06	7.089324e-07	-2.192238e-10	5.034751e+00	-1.714393e+01
2.010000e-06	7.544332e-07	-1.996036e-10	5.357892e+00	-1.569933e+01
2.020000e-06	7.998257e-07	-1.841945e-10	5.680265e+00	-1.424508e+01
2.030000e-06	8.450104e-07	-1.666101e-10	6.001161e+00	-1.278168e+01
2.040000e-06	8.901668e-07	-1.439090e-10	6.321856e+00	-1.130962e+01
2.050000e-06	9.352148e-07	-1.207231e-10	6.641782e+00	-9.829343e+00
2.060000e-06	9.800866e-07	-1.000340e-10	6.960455e+00	-8.341277e+00
2.070000e-06	1.024952e-06	-7.854048e-11	7.279087e+00	-6.845798e+00
2.080000e-06	1.069887e-06	-5.319506e-11	7.598209e+00	-5.343248e+00
2.090000e-06	1.114790e-06	-2.687894e-11	7.917104e+00	-3.833930e+00
2.100000e-06	1.159529e-06	-3.693274e-12	8.234833e+00	-2.318108e+00
2.110000e-06	1.204150e-06	1.558190e-11	8.551728e+00	-7.960098e-01
2.120000e-06	1.248619e-06	3.564533e-11	8.867541e+00	7.321690e-01
2.130000e-06	1.292969e-06	5.660216e-11	9.182509e+00	2.266262e+00
2.140000e-06	1.337244e-06	7.510461e-11	9.496942e+00	3.806127e+00
2.150000e-06	1.381443e-06	9.451994e-11	9.810840e+00	5.351640e+00
2.160000e-06	1.425631e-06	1.207573e-10	1.012466e+01	6.902687e+00
2.170000e-06	1.469800e-06	1.499797e-10	1.043834e+01	8.459161e+00
2.180000e-06	1.513935e-06	1.747404e-10	1.075178e+01	1.002095e+01
2.190000e-06	1.557974e-06	1.945165e-10	1.106454e+01	1.158794e+01
2.200000e-06	1.601959e-06	2.127009e-10	1.137692e+01	1.315999e+01
2.210000e-06	1.645947e-06	2.336186e-10	1.168931e+01	1.473694e+01
2.220000e-06	1.689878e-06	2.565730e-10	1.200131e+01	1.631859e+01
2.230000e-06	1.733739e-06	2.774340e-10	1.231280e+01	1.790473e+01
2.240000e-06	1.777529e-06	2.991617e-10	1.262379e+01	1.949507e+01
2.250000e-06	1.821281e-06	3.261977e-10	1.293451e+01	2.108930e+01
2.260000e-06	1.864914e-06	3.532121e-10	1.324439e+01	2.268706e+01
2.270000e-06	1.908396e-06	3.749185e-10	1.355320e+01	2.428791e+01
2.280000e-06	1.951705e-06	3.935679e-10	1.386077e+01	2.589138e+01
2.290000e-06	1.994713e-06	4.163727e-10	1.416621e+01	2.749694e+01
2.300000e-06	2.037484e-06	4.434443e-10	1.446996e+01	2.910399e+01
2.310000e-06	2.080037e-06	4.685855e-10	1.477217e+01	3.071188e+01
2.320000e-06	2.122432e-06	4.897263e-10	1.507325e+01	3.231992e+01
2.330000e-06	2.164697e-06	5.114047e-10	1.537342e+01	3.392735e+01
2.340000e-06	2.206636e-06	5.344536e-10	1.567126e+01	3.553339e+01
2.350000e-06	2.248207e-06	5.560536e-10	1.596649e+01	3.713719e+01
2.360000e-06	2.289487e-06	5.768653e-10	1.625966e+01	3.873790e+01
2.370000e-06	2.330384e-06	6.001244e-10	1.655011e+01	4.033461e+01
2.380000e-06	2.370999e-06	6.260126e-10	1.683855e+01	4.192642e+01
2.390000e-06	2.411485e-06	6.523819e-10	1.712607e+01	4.351239e+01
2.400000e-06	2.451837e-06	6.765266e-10	1.741265e+01	4.509159e+01
2.410000e-06	2.492086e-06	6.977902e-10	1.769849e+01	4.666308e+01
2.420000e-06	2.532216e-06	7.181807e-10	1.798349e+01	4.822595e+01
2.430000e-06	2.572221e-06	7.396317e-10	1.826760e+01	4.977929e+01
2.440000e-06	2.612131e-06	7.615835e-10	1.855103e+01	5.132221e+01
2.450000e-06	2.652001e-06	7.816059e-10	1.883419e+01	5.285385e+01
2.460000e-06	2.691790e-06	8.023595e-10	1.911676e+01	5.437341e+01
2.470000e-06	2.731421e-06	8.268486e-10	1.939822e+01	5.588010e+01
2.480000e-06	2.770835e-06	8.511850e-10	1.967813e+01	5.737320e+01
2.490000e-06	2.810028e-06	8.726329e-10	1.995648e+01	5.885201e+01
2.500000e-06	2.848985e-06	8.920926e-10	2.023314e+01	6.031591e+01
2.510000e-06	2.887731e-06	9.124713e-10	2.050832e+01	6.176432e+01
2.520000e-06	2.926274e-06	9.330924e-10	2.078204e+01	6.319673e+01
2.530000e-06	2.964549e-06	9.517263e-10	2.105386e+01	6.461266e+01
2.540000e-06	3.002570e-06	9.702529e-10	2.132389e+01	6.601171e+01
2.550000e-06	3.040378e-06	9.912435e-10	2.159239e+01	6.739353e+01
2.560000e-06	3.078066e-06	1.014571e-09	2.186005e+01	6.875781e+01
2.570000e-06	3.115656e-06	1.034366e-09	2.212701e+01	7.010431e+01
2.580000e-06	3.153116e-06	1.050380e-09	2.239304e+01	7.143284e+01
2.590000e-06	3.190269e-06	1.066975e-09	2.265690e+01	7.274322e+01
2.600000e-06	3.227097e-06	1.083735e-09	2.291845e+01	7.403537e+01
2.610000e-06	3.263647e-06	1.100413e-09	2.317802e+01	7.530920e+01
2.620000e-06	3.299943e-06	1.118736e-09	2.343579e+01	7.656467e+01
2.630000e-06	3.336146e-06	1.138558e-09	2.369290e+01	7.780179e+01
2.640000e-06	3.372286e-06	1.156497e-09	2.394956e+01	7.902057e+01
2.650000e-06	3.408279e-06	1.172025e-09	2.420518e+01	8.022106e+01
2.660000e-06	3.444118e-06	1.186533e-09	2.445971e+01	8.140333e+01
2.670000e-06	3.479821e-06	1.201318e-09	2.471327e+01	8.256745e+01
2.680000e-06	3.515309e-06	1.216996e-09	2.496529e+01	8.371352e+01
2.690000e-06	3.550489e-06	1.232225e-09	2.521514e+01	8.484166e+01
2.700000e-06	3.585323e-06	1.248475e-09	2.546253e+01	8.595196e+01
2.710000e-06	3.619721e-06	1.265599e-09	2.570682e+01	8.704456e+01
2.720000e-06	3.653638e-06	1.283500e-09	2.594769e+01	8.811957e+01
2.730000e-06	3.687164e-06	1.300944e-09	2.618579e+01	8.917713e+01
2.740000e-06	3.720307e-06	1.315770e-09	2.642117e+01	9.021736e+01
2.750000e-06	3.753026e-06	1.329728e-09	2.665353e+01	9.124039e+01
2.760000e-06	3.785403e-06	1.345934e-09	2.688347e+01	9.224635e+01
2.770000e-06	3.817565e-06	1.362440e-09	2.711188e+01	9.323536e+01
2.780000e-06	3.849559e-06	1.377319e-09	2.733910e+01	9.420755e+01
2.790000e-06	3.881374e-06	1.392156e-09	2.756505e+01	9.516305e+01
2.800000e-06	3.913036e-06	1.407760e-09	2.778991e+01	9.610198e+01
2.810000e-06	3.944465e-06	1.422841e-09	2.801311e+01	9.702446e+01
2.820000e-06	3.975601e-06	1.436445e-09	2.823423e+01	9.793061e+01
2.830000e-06	4.006508e-06	1.448910e-09	2.845373e+01	9.882055e+01
2.840000e-06	4.037154e-06	1.461563e-09	2.867138e+01	9.969441e+01
2.850000e-06	4.067485e-06	1.476592e-09	2.888678e+01	1.005523e+02
2.860000e-06	4.097537e-06	1.491993e-09	2.910021e+01	1.013943e+02
2.870000e-06	4.127355e-06	1.506679e-09	2.931197e+01	1.022207e+02
2.880000e-06	4.156832e-06	1.519528e-09	2.952131e+01	1.030314e+02
2.890000e-06	4.186038e-06	1.528931e-09	2.972873e+01	1.038266e+02
2.900000e-06	4.215033e-06	1.534830e-09	2.993465e+01	1.046065e+02
