# Temperatura_=_8.34
# Concentracion g/m^3_=_4090.0
# C_Vs_to_Am_M_A/Vsm_=_65563218390.804596
# pendiente_HvsI_1/m_=_3716.3
# ordenada_HvsI_A/m_=_1297.0
# frecuencia_Hz_=_135067.40917167967

Tiempo_(s)	Campo_(V.s)	Magnetizacion_(V.s)	Campo_(kA/m)	Magnetizacion_(A/m)
0.000000e+00	-5.403416e-06	-2.477870e-09	-3.838415e+01	-1.606822e+02
1.000000e-08	-5.403594e-06	-2.475240e-09	-3.838542e+01	-1.606387e+02
2.000000e-08	-5.403595e-06	-2.474487e-09	-3.838543e+01	-1.605953e+02
3.000000e-08	-5.403385e-06	-2.474472e-09	-3.838393e+01	-1.605530e+02
4.000000e-08	-5.402820e-06	-2.474955e-09	-3.837992e+01	-1.605131e+02
5.000000e-08	-5.401786e-06	-2.476301e-09	-3.837257e+01	-1.604765e+02
6.000000e-08	-5.400172e-06	-2.476487e-09	-3.836111e+01	-1.604443e+02
7.000000e-08	-5.397949e-06	-2.470940e-09	-3.834531e+01	-1.604175e+02
8.000000e-08	-5.395030e-06	-2.444087e-09	-3.832458e+01	-1.603970e+02
9.000000e-08	-5.391491e-06	-2.440023e-09	-3.829944e+01	-1.603834e+02
1.000000e-07	-5.387557e-06	-2.525836e-09	-3.827150e+01	-1.603776e+02
1.100000e-07	-5.383340e-06	-2.581108e-09	-3.824154e+01	-1.603798e+02
1.200000e-07	-5.378938e-06	-2.460837e-09	-3.821026e+01	-1.603905e+02
1.300000e-07	-5.374428e-06	-2.393386e-09	-3.817823e+01	-1.604098e+02
1.400000e-07	-5.369589e-06	-2.493719e-09	-3.814385e+01	-1.604376e+02
1.500000e-07	-5.364187e-06	-2.583654e-09	-3.810548e+01	-1.604738e+02
1.600000e-07	-5.358414e-06	-2.427421e-09	-3.806447e+01	-1.605178e+02
1.700000e-07	-5.352378e-06	-2.318823e-09	-3.802160e+01	-1.605692e+02
1.800000e-07	-5.345832e-06	-2.493487e-09	-3.797509e+01	-1.606271e+02
1.900000e-07	-5.338787e-06	-2.624984e-09	-3.792505e+01	-1.606906e+02
2.000000e-07	-5.331487e-06	-2.506396e-09	-3.787319e+01	-1.607587e+02
2.100000e-07	-5.323979e-06	-2.411763e-09	-3.781985e+01	-1.608302e+02
2.200000e-07	-5.316212e-06	-2.532898e-09	-3.776468e+01	-1.609036e+02
2.300000e-07	-5.308185e-06	-2.562308e-09	-3.770766e+01	-1.609777e+02
2.400000e-07	-5.299926e-06	-2.454109e-09	-3.764899e+01	-1.610509e+02
2.500000e-07	-5.291162e-06	-2.459314e-09	-3.758673e+01	-1.611216e+02
2.600000e-07	-5.281592e-06	-2.574947e-09	-3.751875e+01	-1.611884e+02
2.700000e-07	-5.271371e-06	-2.535320e-09	-3.744615e+01	-1.612496e+02
2.800000e-07	-5.260714e-06	-2.463888e-09	-3.737044e+01	-1.613038e+02
2.900000e-07	-5.249611e-06	-2.536309e-09	-3.729157e+01	-1.613495e+02
3.000000e-07	-5.238075e-06	-2.566163e-09	-3.720963e+01	-1.613853e+02
3.100000e-07	-5.226137e-06	-2.434371e-09	-3.712482e+01	-1.614099e+02
3.200000e-07	-5.213793e-06	-2.429894e-09	-3.703713e+01	-1.614222e+02
3.300000e-07	-5.201112e-06	-2.557241e-09	-3.694705e+01	-1.614212e+02
3.400000e-07	-5.188085e-06	-2.534489e-09	-3.685451e+01	-1.614059e+02
3.500000e-07	-5.174646e-06	-2.428352e-09	-3.675904e+01	-1.613758e+02
3.600000e-07	-5.160790e-06	-2.477255e-09	-3.666062e+01	-1.613302e+02
3.700000e-07	-5.146586e-06	-2.529105e-09	-3.655971e+01	-1.612689e+02
3.800000e-07	-5.132024e-06	-2.461648e-09	-3.645627e+01	-1.611916e+02
3.900000e-07	-5.116746e-06	-2.436663e-09	-3.634774e+01	-1.610985e+02
4.000000e-07	-5.100707e-06	-2.479268e-09	-3.623380e+01	-1.609896e+02
4.100000e-07	-5.084319e-06	-2.459959e-09	-3.611739e+01	-1.608653e+02
4.200000e-07	-5.067722e-06	-2.447346e-09	-3.599949e+01	-1.607261e+02
4.300000e-07	-5.050762e-06	-2.484111e-09	-3.587901e+01	-1.605728e+02
4.400000e-07	-5.033462e-06	-2.453638e-09	-3.575611e+01	-1.604060e+02
4.500000e-07	-5.015850e-06	-2.408034e-09	-3.563101e+01	-1.602266e+02
4.600000e-07	-4.997896e-06	-2.443673e-09	-3.550347e+01	-1.600357e+02
4.700000e-07	-4.979650e-06	-2.469223e-09	-3.537386e+01	-1.598342e+02
4.800000e-07	-4.961007e-06	-2.424935e-09	-3.524142e+01	-1.596233e+02
4.900000e-07	-4.941828e-06	-2.421379e-09	-3.510518e+01	-1.594040e+02
5.000000e-07	-4.922263e-06	-2.449358e-09	-3.496619e+01	-1.591774e+02
5.100000e-07	-4.902488e-06	-2.449643e-09	-3.482572e+01	-1.589447e+02
5.200000e-07	-4.882515e-06	-2.429224e-09	-3.468384e+01	-1.587069e+02
5.300000e-07	-4.862359e-06	-2.416782e-09	-3.454065e+01	-1.584651e+02
5.400000e-07	-4.841998e-06	-2.405662e-09	-3.439602e+01	-1.582200e+02
5.500000e-07	-4.821305e-06	-2.423972e-09	-3.424902e+01	-1.579727e+02
5.600000e-07	-4.800192e-06	-2.427363e-09	-3.409904e+01	-1.577238e+02
5.700000e-07	-4.778707e-06	-2.400506e-09	-3.394642e+01	-1.574741e+02
5.800000e-07	-4.756962e-06	-2.393054e-09	-3.379194e+01	-1.572240e+02
5.900000e-07	-4.734964e-06	-2.413969e-09	-3.363568e+01	-1.569740e+02
6.000000e-07	-4.712605e-06	-2.403307e-09	-3.347685e+01	-1.567244e+02
6.100000e-07	-4.689803e-06	-2.379285e-09	-3.331487e+01	-1.564754e+02
6.200000e-07	-4.666670e-06	-2.366072e-09	-3.315054e+01	-1.562271e+02
6.300000e-07	-4.643383e-06	-2.365201e-09	-3.298512e+01	-1.559795e+02
6.400000e-07	-4.619871e-06	-2.374601e-09	-3.281810e+01	-1.557325e+02
6.500000e-07	-4.596089e-06	-2.381704e-09	-3.264916e+01	-1.554858e+02
6.600000e-07	-4.572054e-06	-2.361133e-09	-3.247842e+01	-1.552392e+02
6.700000e-07	-4.547742e-06	-2.349845e-09	-3.230571e+01	-1.549924e+02
6.800000e-07	-4.523156e-06	-2.360499e-09	-3.213107e+01	-1.547450e+02
6.900000e-07	-4.498181e-06	-2.351766e-09	-3.195365e+01	-1.544964e+02
7.000000e-07	-4.472540e-06	-2.328081e-09	-3.177151e+01	-1.542464e+02
7.100000e-07	-4.446281e-06	-2.322564e-09	-3.158497e+01	-1.539943e+02
7.200000e-07	-4.419575e-06	-2.332939e-09	-3.139526e+01	-1.537397e+02
7.300000e-07	-4.392393e-06	-2.336992e-09	-3.120217e+01	-1.534822e+02
7.400000e-07	-4.364931e-06	-2.331081e-09	-3.100709e+01	-1.532214e+02
7.500000e-07	-4.337310e-06	-2.319613e-09	-3.081087e+01	-1.529567e+02
7.600000e-07	-4.309453e-06	-2.317976e-09	-3.061299e+01	-1.526879e+02
7.700000e-07	-4.281405e-06	-2.317690e-09	-3.041374e+01	-1.524147e+02
7.800000e-07	-4.253195e-06	-2.304002e-09	-3.021335e+01	-1.521367e+02
7.900000e-07	-4.224747e-06	-2.284424e-09	-3.001126e+01	-1.518538e+02
8.000000e-07	-4.195937e-06	-2.283098e-09	-2.980660e+01	-1.515658e+02
8.100000e-07	-4.166770e-06	-2.288990e-09	-2.959941e+01	-1.512727e+02
8.200000e-07	-4.137298e-06	-2.289479e-09	-2.939005e+01	-1.509743e+02
8.300000e-07	-4.107548e-06	-2.282518e-09	-2.917872e+01	-1.506707e+02
8.400000e-07	-4.077540e-06	-2.278260e-09	-2.896555e+01	-1.503620e+02
8.500000e-07	-4.047198e-06	-2.274728e-09	-2.875001e+01	-1.500483e+02
8.600000e-07	-4.016510e-06	-2.268668e-09	-2.853201e+01	-1.497298e+02
8.700000e-07	-3.985563e-06	-2.250597e-09	-2.831217e+01	-1.494065e+02
8.800000e-07	-3.954423e-06	-2.236661e-09	-2.809097e+01	-1.490788e+02
8.900000e-07	-3.923093e-06	-2.234365e-09	-2.786841e+01	-1.487468e+02
9.000000e-07	-3.891564e-06	-2.239489e-09	-2.764443e+01	-1.484107e+02
9.100000e-07	-3.859819e-06	-2.236187e-09	-2.741893e+01	-1.480709e+02
9.200000e-07	-3.827883e-06	-2.227505e-09	-2.719207e+01	-1.477275e+02
9.300000e-07	-3.795745e-06	-2.221714e-09	-2.696377e+01	-1.473808e+02
9.400000e-07	-3.763364e-06	-2.218347e-09	-2.673374e+01	-1.470308e+02
9.500000e-07	-3.730690e-06	-2.208349e-09	-2.650163e+01	-1.466780e+02
9.600000e-07	-3.697661e-06	-2.195118e-09	-2.626701e+01	-1.463222e+02
9.700000e-07	-3.664250e-06	-2.188154e-09	-2.602967e+01	-1.459638e+02
9.800000e-07	-3.630476e-06	-2.188488e-09	-2.578975e+01	-1.456027e+02
9.900000e-07	-3.596210e-06	-2.184157e-09	-2.554633e+01	-1.452391e+02
1.000000e-06	-3.561420e-06	-2.171816e-09	-2.529919e+01	-1.448729e+02
1.010000e-06	-3.526352e-06	-2.163015e-09	-2.505009e+01	-1.445041e+02
1.020000e-06	-3.491066e-06	-2.158876e-09	-2.479943e+01	-1.441327e+02
1.030000e-06	-3.455532e-06	-2.151343e-09	-2.454700e+01	-1.437585e+02
1.040000e-06	-3.419828e-06	-2.139339e-09	-2.429337e+01	-1.433816e+02
1.050000e-06	-3.384007e-06	-2.132218e-09	-2.403891e+01	-1.430016e+02
1.060000e-06	-3.348006e-06	-2.129893e-09	-2.378317e+01	-1.426186e+02
1.070000e-06	-3.311846e-06	-2.127745e-09	-2.352630e+01	-1.422323e+02
1.080000e-06	-3.275523e-06	-2.119453e-09	-2.326828e+01	-1.418424e+02
1.090000e-06	-3.238943e-06	-2.108590e-09	-2.300842e+01	-1.414489e+02
1.100000e-06	-3.202100e-06	-2.099768e-09	-2.274670e+01	-1.410514e+02
1.110000e-06	-3.164967e-06	-2.094761e-09	-2.248292e+01	-1.406498e+02
1.120000e-06	-3.127569e-06	-2.086024e-09	-2.221726e+01	-1.402438e+02
1.130000e-06	-3.090020e-06	-2.077401e-09	-2.195052e+01	-1.398332e+02
1.140000e-06	-3.052330e-06	-2.072675e-09	-2.168278e+01	-1.394177e+02
1.150000e-06	-3.014439e-06	-2.070951e-09	-2.141361e+01	-1.389972e+02
1.160000e-06	-2.976383e-06	-2.061980e-09	-2.114328e+01	-1.385713e+02
1.170000e-06	-2.938095e-06	-2.048155e-09	-2.087129e+01	-1.381399e+02
1.180000e-06	-2.899497e-06	-2.036846e-09	-2.059711e+01	-1.377028e+02
1.190000e-06	-2.860634e-06	-2.030370e-09	-2.032103e+01	-1.372596e+02
1.200000e-06	-2.821617e-06	-2.023083e-09	-2.004387e+01	-1.368102e+02
1.210000e-06	-2.782442e-06	-2.013694e-09	-1.976559e+01	-1.363543e+02
1.220000e-06	-2.742994e-06	-2.007358e-09	-1.948536e+01	-1.358917e+02
1.230000e-06	-2.703449e-06	-2.005585e-09	-1.920445e+01	-1.354222e+02
1.240000e-06	-2.663864e-06	-2.000630e-09	-1.892325e+01	-1.349454e+02
1.250000e-06	-2.624133e-06	-1.990850e-09	-1.864101e+01	-1.344611e+02
1.260000e-06	-2.584219e-06	-1.979601e-09	-1.835747e+01	-1.339691e+02
1.270000e-06	-2.544142e-06	-1.968638e-09	-1.807278e+01	-1.334690e+02
1.280000e-06	-2.503949e-06	-1.959303e-09	-1.778726e+01	-1.329606e+02
1.290000e-06	-2.463614e-06	-1.950545e-09	-1.750073e+01	-1.324435e+02
1.300000e-06	-2.423144e-06	-1.940772e-09	-1.721324e+01	-1.319174e+02
1.310000e-06	-2.382542e-06	-1.931294e-09	-1.692482e+01	-1.313821e+02
1.320000e-06	-2.341725e-06	-1.925118e-09	-1.663487e+01	-1.308371e+02
1.330000e-06	-2.300626e-06	-1.918899e-09	-1.634292e+01	-1.302821e+02
1.340000e-06	-2.259324e-06	-1.909570e-09	-1.604952e+01	-1.297168e+02
1.350000e-06	-2.217745e-06	-1.897771e-09	-1.575415e+01	-1.291408e+02
1.360000e-06	-2.175867e-06	-1.886236e-09	-1.545667e+01	-1.285538e+02
1.370000e-06	-2.133769e-06	-1.875375e-09	-1.515762e+01	-1.279555e+02
1.380000e-06	-2.091445e-06	-1.865183e-09	-1.485696e+01	-1.273454e+02
1.390000e-06	-2.048830e-06	-1.854965e-09	-1.455424e+01	-1.267233e+02
1.400000e-06	-2.005979e-06	-1.847123e-09	-1.424984e+01	-1.260889e+02
1.410000e-06	-1.962984e-06	-1.841791e-09	-1.394441e+01	-1.254418e+02
1.420000e-06	-1.919787e-06	-1.835094e-09	-1.363756e+01	-1.247818e+02
1.430000e-06	-1.876399e-06	-1.822696e-09	-1.332934e+01	-1.241087e+02
1.440000e-06	-1.832868e-06	-1.807267e-09	-1.302011e+01	-1.234222e+02
1.450000e-06	-1.789300e-06	-1.792512e-09	-1.271062e+01	-1.227220e+02
1.460000e-06	-1.745679e-06	-1.782003e-09	-1.240075e+01	-1.220079e+02
1.470000e-06	-1.701952e-06	-1.771576e-09	-1.209013e+01	-1.212799e+02
1.480000e-06	-1.658096e-06	-1.758449e-09	-1.177859e+01	-1.205376e+02
1.490000e-06	-1.614100e-06	-1.746221e-09	-1.146605e+01	-1.197809e+02
1.500000e-06	-1.570033e-06	-1.737046e-09	-1.115302e+01	-1.190096e+02
1.510000e-06	-1.525958e-06	-1.726495e-09	-1.083992e+01	-1.182235e+02
1.520000e-06	-1.481827e-06	-1.712230e-09	-1.052643e+01	-1.174224e+02
1.530000e-06	-1.437606e-06	-1.696916e-09	-1.021229e+01	-1.166062e+02
1.540000e-06	-1.393300e-06	-1.684951e-09	-9.897564e+00	-1.157744e+02
1.550000e-06	-1.348943e-06	-1.674336e-09	-9.582463e+00	-1.149270e+02
1.560000e-06	-1.304520e-06	-1.662049e-09	-9.266897e+00	-1.140635e+02
1.570000e-06	-1.259970e-06	-1.649441e-09	-8.950430e+00	-1.131835e+02
1.580000e-06	-1.215298e-06	-1.638544e-09	-8.633090e+00	-1.122866e+02
1.590000e-06	-1.170516e-06	-1.627676e-09	-8.314972e+00	-1.113722e+02
1.600000e-06	-1.125693e-06	-1.612449e-09	-7.996565e+00	-1.104399e+02
1.610000e-06	-1.080878e-06	-1.593688e-09	-7.678216e+00	-1.094888e+02
1.620000e-06	-1.035956e-06	-1.575980e-09	-7.359101e+00	-1.085182e+02
1.630000e-06	-9.908086e-07	-1.563560e-09	-7.038390e+00	-1.075274e+02
1.640000e-06	-9.455787e-07	-1.549737e-09	-6.717091e+00	-1.065153e+02
1.650000e-06	-9.003952e-07	-1.532587e-09	-6.396122e+00	-1.054809e+02
1.660000e-06	-8.551530e-07	-1.518431e-09	-6.074735e+00	-1.044230e+02
1.670000e-06	-8.098245e-07	-1.508114e-09	-5.752736e+00	-1.033406e+02
1.680000e-06	-7.643920e-07	-1.494803e-09	-5.429998e+00	-1.022322e+02
1.690000e-06	-7.188232e-07	-1.473674e-09	-5.106292e+00	-1.010965e+02
1.700000e-06	-6.732289e-07	-1.448961e-09	-4.782404e+00	-9.993211e+01
1.710000e-06	-6.276390e-07	-1.426665e-09	-4.458548e+00	-9.873751e+01
1.720000e-06	-5.820184e-07	-1.407855e-09	-4.134474e+00	-9.751118e+01
1.730000e-06	-5.363708e-07	-1.390905e-09	-3.810208e+00	-9.625155e+01
1.740000e-06	-4.906458e-07	-1.372986e-09	-3.485392e+00	-9.495706e+01
1.750000e-06	-4.448726e-07	-1.357368e-09	-3.160234e+00	-9.362611e+01
1.760000e-06	-3.991430e-07	-1.343699e-09	-2.835385e+00	-9.225716e+01
1.770000e-06	-3.534026e-07	-1.323791e-09	-2.510460e+00	-9.084867e+01
1.780000e-06	-3.075997e-07	-1.295817e-09	-2.185090e+00	-8.939913e+01
1.790000e-06	-2.616882e-07	-1.266684e-09	-1.858950e+00	-8.790713e+01
1.800000e-06	-2.157674e-07	-1.241236e-09	-1.532743e+00	-8.637130e+01
1.810000e-06	-1.699051e-07	-1.217230e-09	-1.206952e+00	-8.479037e+01
1.820000e-06	-1.240750e-07	-1.195381e-09	-8.813891e-01	-8.316319e+01
1.830000e-06	-7.826538e-08	-1.176781e-09	-5.559724e-01	-8.148868e+01
1.840000e-06	-3.252904e-08	-1.158529e-09	-2.310760e-01	-7.976592e+01
1.850000e-06	1.310994e-08	-1.134219e-09	9.312885e-02	-7.799411e+01
1.860000e-06	5.884105e-08	-1.102063e-09	4.179881e-01	-7.617257e+01
1.870000e-06	1.046826e-07	-1.065451e-09	7.436318e-01	-7.430078e+01
1.880000e-06	1.505155e-07	-1.029654e-09	1.069214e+00	-7.237836e+01
1.890000e-06	1.962867e-07	-9.965187e-10	1.394359e+00	-7.040507e+01
1.900000e-06	2.420398e-07	-9.648795e-10	1.719374e+00	-6.838081e+01
1.910000e-06	2.878449e-07	-9.366214e-10	2.044759e+00	-6.630564e+01
1.920000e-06	3.337120e-07	-9.120913e-10	2.370584e+00	-6.417973e+01
1.930000e-06	3.795465e-07	-8.889208e-10	2.696178e+00	-6.200340e+01
1.940000e-06	4.252713e-07	-8.599548e-10	3.020992e+00	-5.977709e+01
1.950000e-06	4.709651e-07	-8.218155e-10	3.345587e+00	-5.750134e+01
1.960000e-06	5.166067e-07	-7.792149e-10	3.669810e+00	-5.517681e+01
1.970000e-06	5.621898e-07	-7.378277e-10	3.993618e+00	-5.280427e+01
1.980000e-06	6.077587e-07	-6.993327e-10	4.317325e+00	-5.038456e+01
1.990000e-06	6.532770e-07	-6.633689e-10	4.640672e+00	-4.791860e+01
2.000000e-06	6.987831e-07	-6.304931e-10	4.963933e+00	-4.540739e+01
2.010000e-06	7.442953e-07	-5.996680e-10	5.287237e+00	-4.285201e+01
2.020000e-06	7.897322e-07	-5.679918e-10	5.610007e+00	-4.025356e+01
2.030000e-06	8.350598e-07	-5.327571e-10	5.932000e+00	-3.761322e+01
2.040000e-06	8.803924e-07	-4.913218e-10	6.254028e+00	-3.493222e+01
2.050000e-06	9.256889e-07	-4.454342e-10	6.575800e+00	-3.221183e+01
2.060000e-06	9.708444e-07	-4.007703e-10	6.896570e+00	-2.945335e+01
2.070000e-06	1.015888e-06	-3.603457e-10	7.216549e+00	-2.665814e+01
2.080000e-06	1.060821e-06	-3.234498e-10	7.535735e+00	-2.382761e+01
2.090000e-06	1.105613e-06	-2.859634e-10	7.853925e+00	-2.096322e+01
2.100000e-06	1.150258e-06	-2.453850e-10	8.171069e+00	-1.806647e+01
2.110000e-06	1.194864e-06	-2.054578e-10	8.487934e+00	-1.513894e+01
2.120000e-06	1.239415e-06	-1.647142e-10	8.804410e+00	-1.218226e+01
2.130000e-06	1.283900e-06	-1.205372e-10	9.120420e+00	-9.198159e+00
2.140000e-06	1.328335e-06	-7.293225e-11	9.436072e+00	-6.188430e+00
2.150000e-06	1.372676e-06	-2.486746e-11	9.751058e+00	-3.154968e+00
2.160000e-06	1.416911e-06	2.115896e-11	1.006528e+01	-9.976522e-02
2.170000e-06	1.461068e-06	6.722206e-11	1.037896e+01	2.975078e+00
2.180000e-06	1.505185e-06	1.139815e-10	1.069236e+01	6.067345e+00
2.190000e-06	1.549231e-06	1.600017e-10	1.100525e+01	9.174705e+00
2.200000e-06	1.593245e-06	2.033655e-10	1.131790e+01	1.229470e+01
2.210000e-06	1.637235e-06	2.462734e-10	1.163040e+01	1.542474e+01
2.220000e-06	1.681158e-06	2.922437e-10	1.194241e+01	1.856213e+01
2.230000e-06	1.725034e-06	3.409403e-10	1.225409e+01	2.170404e+01
2.240000e-06	1.768873e-06	3.882494e-10	1.256551e+01	2.484752e+01
2.250000e-06	1.812551e-06	4.320006e-10	1.287579e+01	2.798951e+01
2.260000e-06	1.856126e-06	4.767902e-10	1.318533e+01	3.112686e+01
2.270000e-06	1.899701e-06	5.263366e-10	1.349487e+01	3.425633e+01
2.280000e-06	1.943136e-06	5.752484e-10	1.380342e+01	3.737461e+01
2.290000e-06	1.986294e-06	6.195014e-10	1.411000e+01	4.047831e+01
2.300000e-06	2.029258e-06	6.632103e-10	1.441521e+01	4.356406e+01
2.310000e-06	2.072072e-06	7.098800e-10	1.471934e+01	4.662842e+01
2.320000e-06	2.114564e-06	7.541865e-10	1.502119e+01	4.966800e+01
2.330000e-06	2.156648e-06	7.966403e-10	1.532014e+01	5.267943e+01
2.340000e-06	2.198440e-06	8.391325e-10	1.561702e+01	5.565940e+01
2.350000e-06	2.239980e-06	8.809081e-10	1.591211e+01	5.860469e+01
2.360000e-06	2.281263e-06	9.222050e-10	1.620537e+01	6.151219e+01
2.370000e-06	2.322287e-06	9.646470e-10	1.649679e+01	6.437893e+01
2.380000e-06	2.363039e-06	1.008051e-09	1.678628e+01	6.720210e+01
2.390000e-06	2.403659e-06	1.050100e-09	1.707483e+01	6.997908e+01
2.400000e-06	2.444092e-06	1.088292e-09	1.736205e+01	7.270745e+01
2.410000e-06	2.484280e-06	1.122911e-09	1.764754e+01	7.538500e+01
2.420000e-06	2.524357e-06	1.156953e-09	1.793223e+01	7.800979e+01
2.430000e-06	2.564370e-06	1.191642e-09	1.821647e+01	8.058010e+01
2.440000e-06	2.604304e-06	1.228594e-09	1.850015e+01	8.309450e+01
2.450000e-06	2.644130e-06	1.265912e-09	1.878306e+01	8.555180e+01
2.460000e-06	2.683842e-06	1.301634e-09	1.906516e+01	8.795111e+01
2.470000e-06	2.723373e-06	1.338208e-09	1.934598e+01	9.029179e+01
2.480000e-06	2.762727e-06	1.374160e-09	1.962554e+01	9.257347e+01
2.490000e-06	2.801914e-06	1.406172e-09	1.990391e+01	9.479605e+01
2.500000e-06	2.840871e-06	1.435812e-09	2.018065e+01	9.695964e+01
2.510000e-06	2.879570e-06	1.464729e-09	2.045555e+01	9.906462e+01
2.520000e-06	2.918065e-06	1.493390e-09	2.072901e+01	1.011116e+02
2.530000e-06	2.956427e-06	1.520177e-09	2.100152e+01	1.031012e+02
2.540000e-06	2.994643e-06	1.546860e-09	2.127299e+01	1.050346e+02
2.550000e-06	3.032639e-06	1.575170e-09	2.154291e+01	1.069127e+02
2.560000e-06	3.070454e-06	1.607922e-09	2.181153e+01	1.087367e+02
2.570000e-06	3.108083e-06	1.636955e-09	2.207884e+01	1.105080e+02
2.580000e-06	3.145412e-06	1.658979e-09	2.234401e+01	1.122280e+02
2.590000e-06	3.182566e-06	1.679961e-09	2.260794e+01	1.138980e+02
2.600000e-06	3.219487e-06	1.699913e-09	2.287021e+01	1.155195e+02
2.610000e-06	3.256031e-06	1.718260e-09	2.312981e+01	1.170940e+02
2.620000e-06	3.292356e-06	1.736163e-09	2.338785e+01	1.186228e+02
2.630000e-06	3.328560e-06	1.759258e-09	2.364503e+01	1.201073e+02
2.640000e-06	3.364656e-06	1.786921e-09	2.390145e+01	1.215488e+02
2.650000e-06	3.400612e-06	1.810199e-09	2.415687e+01	1.229485e+02
2.660000e-06	3.436370e-06	1.825886e-09	2.441088e+01	1.243077e+02
2.670000e-06	3.472046e-06	1.839416e-09	2.466431e+01	1.256272e+02
2.680000e-06	3.507608e-06	1.855941e-09	2.491694e+01	1.269082e+02
2.690000e-06	3.542896e-06	1.871857e-09	2.516761e+01	1.281514e+02
2.700000e-06	3.577839e-06	1.884350e-09	2.541583e+01	1.293575e+02
2.710000e-06	3.612338e-06	1.899097e-09	2.566090e+01	1.305273e+02
2.720000e-06	3.646393e-06	1.920032e-09	2.590282e+01	1.316613e+02
2.730000e-06	3.680024e-06	1.942941e-09	2.614173e+01	1.327600e+02
2.740000e-06	3.713226e-06	1.959246e-09	2.637758e+01	1.338239e+02
2.750000e-06	3.746036e-06	1.970301e-09	2.661065e+01	1.348532e+02
2.760000e-06	3.778512e-06	1.983019e-09	2.684135e+01	1.358483e+02
2.770000e-06	3.810716e-06	1.998537e-09	2.707012e+01	1.368095e+02
2.780000e-06	3.842754e-06	2.012656e-09	2.729771e+01	1.377373e+02
2.790000e-06	3.874668e-06	2.023688e-09	2.752441e+01	1.386317e+02
2.800000e-06	3.906377e-06	2.035625e-09	2.774966e+01	1.394933e+02
2.810000e-06	3.937879e-06	2.050875e-09	2.797344e+01	1.403223e+02
2.820000e-06	3.969109e-06	2.065661e-09	2.819529e+01	1.411193e+02
2.830000e-06	3.999988e-06	2.074639e-09	2.841465e+01	1.418847e+02
2.840000e-06	4.030608e-06	2.080022e-09	2.863216e+01	1.426191e+02
2.850000e-06	4.060975e-06	2.089864e-09	2.884787e+01	1.433232e+02
2.860000e-06	4.091086e-06	2.104067e-09	2.906178e+01	1.439977e+02
2.870000e-06	4.120925e-06	2.116336e-09	2.927374e+01	1.446435e+02
2.880000e-06	4.150452e-06	2.125011e-09	2.948350e+01	1.452615e+02
2.890000e-06	4.179742e-06	2.134025e-09	2.969156e+01	1.458528e+02
2.900000e-06	4.208748e-06	2.142881e-09	2.989761e+01	1.464184e+02
