# Temperatura_=_-1.1
# Concentracion g/m^3_=_4090.0
# C_Vs_to_Am_M_A/Vsm_=_65563218390.804596
# pendiente_HvsI_1/m_=_3716.3
# ordenada_HvsI_A/m_=_1297.0
# frecuencia_Hz_=_135063.32491610985

Tiempo_(s)	Campo_(V.s)	Magnetizacion_(V.s)	Campo_(kA/m)	Magnetizacion_(A/m)
0.000000e+00	-5.389015e-06	-2.596560e-09	-3.841218e+01	-1.682971e+02
1.000000e-08	-5.389129e-06	-2.598291e-09	-3.841299e+01	-1.682079e+02
2.000000e-08	-5.388982e-06	-2.597342e-09	-3.841194e+01	-1.681222e+02
3.000000e-08	-5.388583e-06	-2.595686e-09	-3.840910e+01	-1.680421e+02
4.000000e-08	-5.387792e-06	-2.592325e-09	-3.840346e+01	-1.679693e+02
5.000000e-08	-5.386468e-06	-2.587687e-09	-3.839402e+01	-1.679057e+02
6.000000e-08	-5.384579e-06	-2.583518e-09	-3.838056e+01	-1.678529e+02
7.000000e-08	-5.382041e-06	-2.576814e-09	-3.836247e+01	-1.678125e+02
8.000000e-08	-5.378898e-06	-2.575053e-09	-3.834006e+01	-1.677858e+02
9.000000e-08	-5.375217e-06	-2.605060e-09	-3.831383e+01	-1.677740e+02
1.000000e-07	-5.371102e-06	-2.644174e-09	-3.828449e+01	-1.677778e+02
1.100000e-07	-5.366787e-06	-2.611582e-09	-3.825374e+01	-1.677979e+02
1.200000e-07	-5.362321e-06	-2.564552e-09	-3.822191e+01	-1.678347e+02
1.300000e-07	-5.357515e-06	-2.577071e-09	-3.818765e+01	-1.678882e+02
1.400000e-07	-5.352256e-06	-2.622413e-09	-3.815016e+01	-1.679582e+02
1.500000e-07	-5.346684e-06	-2.586490e-09	-3.811045e+01	-1.680441e+02
1.600000e-07	-5.340881e-06	-2.526753e-09	-3.806909e+01	-1.681451e+02
1.700000e-07	-5.334663e-06	-2.582465e-09	-3.802476e+01	-1.682600e+02
1.800000e-07	-5.327951e-06	-2.661621e-09	-3.797692e+01	-1.683875e+02
1.900000e-07	-5.320846e-06	-2.643768e-09	-3.792628e+01	-1.685260e+02
2.000000e-07	-5.313414e-06	-2.592281e-09	-3.787330e+01	-1.686736e+02
2.100000e-07	-5.305719e-06	-2.630252e-09	-3.781846e+01	-1.688282e+02
2.200000e-07	-5.297789e-06	-2.669995e-09	-3.776193e+01	-1.689876e+02
2.300000e-07	-5.289599e-06	-2.644875e-09	-3.770355e+01	-1.691496e+02
2.400000e-07	-5.280974e-06	-2.634741e-09	-3.764208e+01	-1.693117e+02
2.500000e-07	-5.271672e-06	-2.682932e-09	-3.757577e+01	-1.694715e+02
2.600000e-07	-5.261802e-06	-2.691856e-09	-3.750542e+01	-1.696265e+02
2.700000e-07	-5.251480e-06	-2.662512e-09	-3.743185e+01	-1.697744e+02
2.800000e-07	-5.240608e-06	-2.674496e-09	-3.735435e+01	-1.699127e+02
2.900000e-07	-5.229303e-06	-2.694501e-09	-3.727377e+01	-1.700394e+02
3.000000e-07	-5.217610e-06	-2.655922e-09	-3.719043e+01	-1.701524e+02
3.100000e-07	-5.205482e-06	-2.641365e-09	-3.710398e+01	-1.702498e+02
3.200000e-07	-5.193013e-06	-2.688464e-09	-3.701510e+01	-1.703300e+02
3.300000e-07	-5.180240e-06	-2.690379e-09	-3.692406e+01	-1.703915e+02
3.400000e-07	-5.167067e-06	-2.642752e-09	-3.683016e+01	-1.704334e+02
3.500000e-07	-5.153407e-06	-2.651538e-09	-3.673279e+01	-1.704545e+02
3.600000e-07	-5.139365e-06	-2.681223e-09	-3.663271e+01	-1.704545e+02
3.700000e-07	-5.124970e-06	-2.653052e-09	-3.653010e+01	-1.704330e+02
3.800000e-07	-5.109944e-06	-2.628708e-09	-3.642300e+01	-1.703899e+02
3.900000e-07	-5.094312e-06	-2.646442e-09	-3.631157e+01	-1.703255e+02
4.000000e-07	-5.078286e-06	-2.645736e-09	-3.619734e+01	-1.702404e+02
4.100000e-07	-5.061774e-06	-2.627015e-09	-3.607965e+01	-1.701353e+02
4.200000e-07	-5.044819e-06	-2.634240e-09	-3.595879e+01	-1.700111e+02
4.300000e-07	-5.027544e-06	-2.629508e-09	-3.583566e+01	-1.698691e+02
4.400000e-07	-5.010035e-06	-2.610732e-09	-3.571086e+01	-1.697105e+02
4.500000e-07	-4.992326e-06	-2.618476e-09	-3.558463e+01	-1.695369e+02
4.600000e-07	-4.974279e-06	-2.632593e-09	-3.545599e+01	-1.693498e+02
4.700000e-07	-4.955825e-06	-2.614425e-09	-3.532446e+01	-1.691509e+02
4.800000e-07	-4.936935e-06	-2.607231e-09	-3.518981e+01	-1.689418e+02
4.900000e-07	-4.917646e-06	-2.617605e-09	-3.505233e+01	-1.687242e+02
5.000000e-07	-4.898083e-06	-2.613112e-09	-3.491288e+01	-1.684997e+02
5.100000e-07	-4.878307e-06	-2.596240e-09	-3.477192e+01	-1.682699e+02
5.200000e-07	-4.858279e-06	-2.591566e-09	-3.462916e+01	-1.680362e+02
5.300000e-07	-4.838011e-06	-2.588205e-09	-3.448469e+01	-1.678001e+02
5.400000e-07	-4.817528e-06	-2.586258e-09	-3.433869e+01	-1.675627e+02
5.500000e-07	-4.796675e-06	-2.586316e-09	-3.419006e+01	-1.673251e+02
5.600000e-07	-4.775392e-06	-2.583079e-09	-3.403836e+01	-1.670882e+02
5.700000e-07	-4.753787e-06	-2.579376e-09	-3.388436e+01	-1.668526e+02
5.800000e-07	-4.731909e-06	-2.581176e-09	-3.372842e+01	-1.666189e+02
5.900000e-07	-4.709814e-06	-2.577001e-09	-3.357092e+01	-1.663874e+02
6.000000e-07	-4.687381e-06	-2.564887e-09	-3.341102e+01	-1.661582e+02
6.100000e-07	-4.664500e-06	-2.553803e-09	-3.324793e+01	-1.659312e+02
6.200000e-07	-4.641282e-06	-2.548006e-09	-3.308244e+01	-1.657064e+02
6.300000e-07	-4.617783e-06	-2.545519e-09	-3.291494e+01	-1.654833e+02
6.400000e-07	-4.594023e-06	-2.541497e-09	-3.274558e+01	-1.652615e+02
6.500000e-07	-4.570044e-06	-2.535082e-09	-3.257466e+01	-1.650403e+02
6.600000e-07	-4.545847e-06	-2.534472e-09	-3.240219e+01	-1.648192e+02
6.700000e-07	-4.521335e-06	-2.540530e-09	-3.222747e+01	-1.645972e+02
6.800000e-07	-4.496407e-06	-2.536702e-09	-3.204979e+01	-1.643737e+02
6.900000e-07	-4.471025e-06	-2.524558e-09	-3.186887e+01	-1.641479e+02
7.000000e-07	-4.445263e-06	-2.514404e-09	-3.168524e+01	-1.639189e+02
7.100000e-07	-4.419025e-06	-2.508874e-09	-3.149822e+01	-1.636860e+02
7.200000e-07	-4.392213e-06	-2.501835e-09	-3.130711e+01	-1.634485e+02
7.300000e-07	-4.364967e-06	-2.496310e-09	-3.111290e+01	-1.632057e+02
7.400000e-07	-4.337426e-06	-2.496139e-09	-3.091659e+01	-1.629570e+02
7.500000e-07	-4.309637e-06	-2.502671e-09	-3.071851e+01	-1.627019e+02
7.600000e-07	-4.281633e-06	-2.502939e-09	-3.051891e+01	-1.624402e+02
7.700000e-07	-4.253469e-06	-2.489866e-09	-3.031815e+01	-1.621715e+02
7.800000e-07	-4.225101e-06	-2.472827e-09	-3.011596e+01	-1.618956e+02
7.900000e-07	-4.196447e-06	-2.465413e-09	-2.991171e+01	-1.616127e+02
8.000000e-07	-4.167459e-06	-2.461873e-09	-2.970509e+01	-1.613227e+02
8.100000e-07	-4.138146e-06	-2.456711e-09	-2.949615e+01	-1.610259e+02
8.200000e-07	-4.108619e-06	-2.453109e-09	-2.928569e+01	-1.607226e+02
8.300000e-07	-4.078821e-06	-2.454817e-09	-2.907329e+01	-1.604130e+02
8.400000e-07	-4.048678e-06	-2.456611e-09	-2.885844e+01	-1.600978e+02
8.500000e-07	-4.018262e-06	-2.451725e-09	-2.864163e+01	-1.597774e+02
8.600000e-07	-3.987617e-06	-2.437483e-09	-2.842320e+01	-1.594524e+02
8.700000e-07	-3.956712e-06	-2.424574e-09	-2.820291e+01	-1.591233e+02
8.800000e-07	-3.925529e-06	-2.416622e-09	-2.798065e+01	-1.587907e+02
8.900000e-07	-3.894136e-06	-2.412173e-09	-2.775688e+01	-1.584553e+02
9.000000e-07	-3.862492e-06	-2.407512e-09	-2.753133e+01	-1.581175e+02
9.100000e-07	-3.830660e-06	-2.403392e-09	-2.730443e+01	-1.577780e+02
9.200000e-07	-3.798686e-06	-2.400371e-09	-2.707653e+01	-1.574370e+02
9.300000e-07	-3.766543e-06	-2.395101e-09	-2.684741e+01	-1.570950e+02
9.400000e-07	-3.734204e-06	-2.386643e-09	-2.661691e+01	-1.567524e+02
9.500000e-07	-3.701582e-06	-2.376322e-09	-2.638438e+01	-1.564093e+02
9.600000e-07	-3.668617e-06	-2.370838e-09	-2.614941e+01	-1.560658e+02
9.700000e-07	-3.635237e-06	-2.368194e-09	-2.591148e+01	-1.557221e+02
9.800000e-07	-3.601444e-06	-2.363776e-09	-2.567061e+01	-1.553779e+02
9.900000e-07	-3.567240e-06	-2.353964e-09	-2.542681e+01	-1.550332e+02
1.000000e-06	-3.532556e-06	-2.345770e-09	-2.517959e+01	-1.546877e+02
1.010000e-06	-3.497477e-06	-2.338294e-09	-2.492955e+01	-1.543411e+02
1.020000e-06	-3.462148e-06	-2.325454e-09	-2.467773e+01	-1.539929e+02
1.030000e-06	-3.426564e-06	-2.310399e-09	-2.442409e+01	-1.536427e+02
1.040000e-06	-3.390772e-06	-2.304817e-09	-2.416897e+01	-1.532899e+02
1.050000e-06	-3.354817e-06	-2.307640e-09	-2.391269e+01	-1.529340e+02
1.060000e-06	-3.318717e-06	-2.308178e-09	-2.365537e+01	-1.525744e+02
1.070000e-06	-3.282477e-06	-2.300929e-09	-2.339706e+01	-1.522105e+02
1.080000e-06	-3.246067e-06	-2.290566e-09	-2.313753e+01	-1.518417e+02
1.090000e-06	-3.209469e-06	-2.279063e-09	-2.287667e+01	-1.514674e+02
1.100000e-06	-3.172673e-06	-2.265917e-09	-2.261439e+01	-1.510870e+02
1.110000e-06	-3.135621e-06	-2.251261e-09	-2.235029e+01	-1.507000e+02
1.120000e-06	-3.098243e-06	-2.242795e-09	-2.208386e+01	-1.503059e+02
1.130000e-06	-3.060619e-06	-2.243437e-09	-2.181569e+01	-1.499044e+02
1.140000e-06	-3.022809e-06	-2.246169e-09	-2.154618e+01	-1.494950e+02
1.150000e-06	-2.984786e-06	-2.241366e-09	-2.127516e+01	-1.490774e+02
1.160000e-06	-2.946570e-06	-2.231011e-09	-2.100276e+01	-1.486515e+02
1.170000e-06	-2.908151e-06	-2.222234e-09	-2.072891e+01	-1.482171e+02
1.180000e-06	-2.869487e-06	-2.212879e-09	-2.045332e+01	-1.477741e+02
1.190000e-06	-2.830643e-06	-2.198954e-09	-2.017644e+01	-1.473225e+02
1.200000e-06	-2.791619e-06	-2.183925e-09	-1.989828e+01	-1.468624e+02
1.210000e-06	-2.752380e-06	-2.176733e-09	-1.961859e+01	-1.463937e+02
1.220000e-06	-2.712899e-06	-2.175358e-09	-1.933718e+01	-1.459167e+02
1.230000e-06	-2.673244e-06	-2.170985e-09	-1.905453e+01	-1.454315e+02
1.240000e-06	-2.633469e-06	-2.161902e-09	-1.877102e+01	-1.449383e+02
1.250000e-06	-2.593591e-06	-2.153484e-09	-1.848677e+01	-1.444373e+02
1.260000e-06	-2.553628e-06	-2.144860e-09	-1.820192e+01	-1.439286e+02
1.270000e-06	-2.513586e-06	-2.134702e-09	-1.791651e+01	-1.434126e+02
1.280000e-06	-2.473455e-06	-2.120821e-09	-1.763046e+01	-1.428893e+02
1.290000e-06	-2.433236e-06	-2.109847e-09	-1.734378e+01	-1.423589e+02
1.300000e-06	-2.392870e-06	-2.103789e-09	-1.705605e+01	-1.418214e+02
1.310000e-06	-2.352328e-06	-2.096662e-09	-1.676708e+01	-1.412770e+02
1.320000e-06	-2.311624e-06	-2.085817e-09	-1.647695e+01	-1.407257e+02
1.330000e-06	-2.270671e-06	-2.075374e-09	-1.618504e+01	-1.401673e+02
1.340000e-06	-2.229496e-06	-2.069682e-09	-1.589155e+01	-1.396017e+02
1.350000e-06	-2.187988e-06	-2.063652e-09	-1.559568e+01	-1.390288e+02
1.360000e-06	-2.146179e-06	-2.052987e-09	-1.529767e+01	-1.384483e+02
1.370000e-06	-2.104195e-06	-2.039594e-09	-1.499842e+01	-1.378600e+02
1.380000e-06	-2.061912e-06	-2.027905e-09	-1.469703e+01	-1.372634e+02
1.390000e-06	-2.019289e-06	-2.019696e-09	-1.439322e+01	-1.366581e+02
1.400000e-06	-1.976452e-06	-2.010262e-09	-1.408788e+01	-1.360437e+02
1.410000e-06	-1.933443e-06	-1.999083e-09	-1.378132e+01	-1.354197e+02
1.420000e-06	-1.890206e-06	-1.990794e-09	-1.347314e+01	-1.347856e+02
1.430000e-06	-1.846855e-06	-1.984267e-09	-1.316414e+01	-1.341407e+02
1.440000e-06	-1.803413e-06	-1.974049e-09	-1.285449e+01	-1.334846e+02
1.450000e-06	-1.759801e-06	-1.960150e-09	-1.254363e+01	-1.328166e+02
1.460000e-06	-1.716012e-06	-1.948673e-09	-1.223150e+01	-1.321362e+02
1.470000e-06	-1.672143e-06	-1.941615e-09	-1.191881e+01	-1.314428e+02
1.480000e-06	-1.628260e-06	-1.932944e-09	-1.160602e+01	-1.307359e+02
1.490000e-06	-1.584289e-06	-1.919605e-09	-1.129260e+01	-1.300149e+02
1.500000e-06	-1.540222e-06	-1.903910e-09	-1.097850e+01	-1.292793e+02
1.510000e-06	-1.496152e-06	-1.889622e-09	-1.066437e+01	-1.285286e+02
1.520000e-06	-1.452026e-06	-1.877429e-09	-1.034985e+01	-1.277624e+02
1.530000e-06	-1.407848e-06	-1.865395e-09	-1.003495e+01	-1.269801e+02
1.540000e-06	-1.363635e-06	-1.853450e-09	-9.719807e+00	-1.261814e+02
1.550000e-06	-1.319316e-06	-1.842493e-09	-9.403904e+00	-1.253658e+02
1.560000e-06	-1.274950e-06	-1.832392e-09	-9.087670e+00	-1.245330e+02
1.570000e-06	-1.230530e-06	-1.820544e-09	-8.771057e+00	-1.236826e+02
1.580000e-06	-1.186076e-06	-1.807574e-09	-8.454191e+00	-1.228141e+02
1.590000e-06	-1.141556e-06	-1.793884e-09	-8.136859e+00	-1.219273e+02
1.600000e-06	-1.096899e-06	-1.778341e-09	-7.818551e+00	-1.210215e+02
1.610000e-06	-1.052142e-06	-1.759329e-09	-7.499528e+00	-1.200964e+02
1.620000e-06	-1.007239e-06	-1.740392e-09	-7.179467e+00	-1.191515e+02
1.630000e-06	-9.622369e-07	-1.724019e-09	-6.858696e+00	-1.181863e+02
1.640000e-06	-9.171595e-07	-1.710368e-09	-6.537390e+00	-1.172001e+02
1.650000e-06	-8.719756e-07	-1.698962e-09	-6.215325e+00	-1.161923e+02
1.660000e-06	-8.267611e-07	-1.687455e-09	-5.893042e+00	-1.151621e+02
1.670000e-06	-7.815135e-07	-1.674982e-09	-5.570523e+00	-1.141088e+02
1.680000e-06	-7.362080e-07	-1.657496e-09	-5.247592e+00	-1.130314e+02
1.690000e-06	-6.908360e-07	-1.633091e-09	-4.924186e+00	-1.119290e+02
1.700000e-06	-6.454167e-07	-1.607691e-09	-4.600444e+00	-1.108005e+02
1.710000e-06	-5.999717e-07	-1.586656e-09	-4.276518e+00	-1.096447e+02
1.720000e-06	-5.544439e-07	-1.570427e-09	-3.952002e+00	-1.084604e+02
1.730000e-06	-5.088595e-07	-1.554252e-09	-3.627082e+00	-1.072464e+02
1.740000e-06	-4.632789e-07	-1.536446e-09	-3.302190e+00	-1.060012e+02
1.750000e-06	-4.177003e-07	-1.520885e-09	-2.977312e+00	-1.047234e+02
1.760000e-06	-3.720929e-07	-1.507034e-09	-2.652228e+00	-1.034116e+02
1.770000e-06	-3.264411e-07	-1.487743e-09	-2.326828e+00	-1.020642e+02
1.780000e-06	-2.807426e-07	-1.460627e-09	-2.001095e+00	-1.006796e+02
1.790000e-06	-2.350076e-07	-1.434264e-09	-1.675102e+00	-9.925629e+01
1.800000e-06	-1.892750e-07	-1.411953e-09	-1.349127e+00	-9.779270e+01
1.810000e-06	-1.435484e-07	-1.390153e-09	-1.023194e+00	-9.628726e+01
1.820000e-06	-9.777465e-08	-1.365917e-09	-6.969246e-01	-9.473845e+01
1.830000e-06	-5.203331e-08	-1.341727e-09	-3.708865e-01	-9.314477e+01
1.840000e-06	-6.403246e-09	-1.320617e-09	-4.564148e-02	-9.150477e+01
1.850000e-06	3.927698e-08	-1.300916e-09	2.799611e-01	-8.981709e+01
1.860000e-06	8.498627e-08	-1.277087e-09	6.057708e-01	-8.808043e+01
1.870000e-06	1.306137e-07	-1.248001e-09	9.309971e-01	-8.629357e+01
1.880000e-06	1.761966e-07	-1.218663e-09	1.255906e+00	-8.445541e+01
1.890000e-06	2.218161e-07	-1.189378e-09	1.581076e+00	-8.256492e+01
1.900000e-06	2.675154e-07	-1.156717e-09	1.906814e+00	-8.062121e+01
1.910000e-06	3.131760e-07	-1.123417e-09	2.232277e+00	-7.862348e+01
1.920000e-06	3.587829e-07	-1.095239e-09	2.557356e+00	-7.657106e+01
1.930000e-06	4.043856e-07	-1.071694e-09	2.882407e+00	-7.446340e+01
1.940000e-06	4.499639e-07	-1.045800e-09	3.207283e+00	-7.230005e+01
1.950000e-06	4.954526e-07	-1.012208e-09	3.531520e+00	-7.008070e+01
1.960000e-06	5.408638e-07	-9.749662e-10	3.855204e+00	-6.780514e+01
1.970000e-06	5.862691e-07	-9.396435e-10	4.178848e+00	-6.547328e+01
1.980000e-06	6.316747e-07	-9.037739e-10	4.502493e+00	-6.308513e+01
1.990000e-06	6.770830e-07	-8.629448e-10	4.826157e+00	-6.064082e+01
2.000000e-06	7.224415e-07	-8.219534e-10	5.149466e+00	-5.814058e+01
2.010000e-06	7.676986e-07	-7.867497e-10	5.472053e+00	-5.558473e+01
2.020000e-06	8.128921e-07	-7.542115e-10	5.794186e+00	-5.297370e+01
2.030000e-06	8.580374e-07	-7.171306e-10	6.115976e+00	-5.030801e+01
2.040000e-06	9.030833e-07	-6.744407e-10	6.437057e+00	-4.758827e+01
2.050000e-06	9.480903e-07	-6.325586e-10	6.757861e+00	-4.481520e+01
2.060000e-06	9.930261e-07	-5.929046e-10	7.078157e+00	-4.198961e+01
2.070000e-06	1.037814e-06	-5.517584e-10	7.397396e+00	-3.911240e+01
2.080000e-06	1.082525e-06	-5.068867e-10	7.716093e+00	-3.618459e+01
2.090000e-06	1.127187e-06	-4.614168e-10	8.034437e+00	-3.320730e+01
2.100000e-06	1.171753e-06	-4.193002e-10	8.352100e+00	-3.018176e+01
2.110000e-06	1.216239e-06	-3.760767e-10	8.669190e+00	-2.710932e+01
2.120000e-06	1.260623e-06	-3.291561e-10	8.985549e+00	-2.399148e+01
2.130000e-06	1.304901e-06	-2.824274e-10	9.301156e+00	-2.082987e+01
2.140000e-06	1.349156e-06	-2.374224e-10	9.616605e+00	-1.762625e+01
2.150000e-06	1.393364e-06	-1.902762e-10	9.931714e+00	-1.438255e+01
2.160000e-06	1.437505e-06	-1.405248e-10	1.024634e+01	-1.110087e+01
2.170000e-06	1.481602e-06	-9.017007e-11	1.056066e+01	-7.783483e+00
2.180000e-06	1.525645e-06	-4.128054e-11	1.087459e+01	-4.432831e+00
2.190000e-06	1.569622e-06	6.711351e-12	1.118806e+01	-1.051548e+00
2.200000e-06	1.613594e-06	5.692557e-11	1.150148e+01	2.357542e+00
2.210000e-06	1.657534e-06	1.099159e-10	1.181468e+01	5.791428e+00
2.220000e-06	1.701374e-06	1.621805e-10	1.212717e+01	9.246906e+00
2.230000e-06	1.745174e-06	2.127599e-10	1.243937e+01	1.272059e+01
2.240000e-06	1.788867e-06	2.642928e-10	1.275081e+01	1.620891e+01
2.250000e-06	1.832319e-06	3.166559e-10	1.306052e+01	1.970812e+01
2.260000e-06	1.875579e-06	3.691558e-10	1.336888e+01	2.321434e+01
2.270000e-06	1.918716e-06	4.222129e-10	1.367635e+01	2.672351e+01
2.280000e-06	1.961742e-06	4.765865e-10	1.398304e+01	3.023149e+01
2.290000e-06	2.004548e-06	5.317168e-10	1.428815e+01	3.373399e+01
2.300000e-06	2.047084e-06	5.867329e-10	1.459134e+01	3.722669e+01
2.310000e-06	2.089417e-06	6.407182e-10	1.489309e+01	4.070517e+01
2.320000e-06	2.131433e-06	6.915505e-10	1.519257e+01	4.416503e+01
2.330000e-06	2.173154e-06	7.371392e-10	1.548995e+01	4.760184e+01
2.340000e-06	2.214641e-06	7.802788e-10	1.578567e+01	5.101124e+01
2.350000e-06	2.255776e-06	8.265701e-10	1.607887e+01	5.438892e+01
2.360000e-06	2.296594e-06	8.764514e-10	1.636981e+01	5.773068e+01
2.370000e-06	2.337293e-06	9.270220e-10	1.665991e+01	6.103247e+01
2.380000e-06	2.377860e-06	9.778813e-10	1.694907e+01	6.429038e+01
2.390000e-06	2.418236e-06	1.030349e-09	1.723686e+01	6.750073e+01
2.400000e-06	2.458436e-06	1.082405e-09	1.752341e+01	7.066004e+01
2.410000e-06	2.498523e-06	1.127857e-09	1.780913e+01	7.376509e+01
2.420000e-06	2.538551e-06	1.166037e-09	1.809445e+01	7.681295e+01
2.430000e-06	2.578479e-06	1.200855e-09	1.837905e+01	7.980097e+01
2.440000e-06	2.618295e-06	1.237978e-09	1.866285e+01	8.272682e+01
2.450000e-06	2.658001e-06	1.275747e-09	1.894587e+01	8.558847e+01
2.460000e-06	2.697524e-06	1.314544e-09	1.922759e+01	8.838426e+01
2.470000e-06	2.736943e-06	1.357923e-09	1.950857e+01	9.111283e+01
2.480000e-06	2.776258e-06	1.404458e-09	1.978880e+01	9.377317e+01
2.490000e-06	2.815229e-06	1.449596e-09	2.006658e+01	9.636460e+01
2.500000e-06	2.853891e-06	1.488235e-09	2.034215e+01	9.888676e+01
2.510000e-06	2.892390e-06	1.520833e-09	2.061657e+01	1.013396e+02
2.520000e-06	2.930709e-06	1.549357e-09	2.088970e+01	1.037233e+02
2.530000e-06	2.968828e-06	1.576150e-09	2.116141e+01	1.060384e+02
2.540000e-06	3.006801e-06	1.602057e-09	2.143207e+01	1.082856e+02
2.550000e-06	3.044615e-06	1.630486e-09	2.170161e+01	1.104659e+02
2.560000e-06	3.082240e-06	1.663266e-09	2.196979e+01	1.125805e+02
2.570000e-06	3.119574e-06	1.699761e-09	2.223590e+01	1.146306e+02
2.580000e-06	3.156560e-06	1.736230e-09	2.249954e+01	1.166177e+02
2.590000e-06	3.193320e-06	1.767607e-09	2.276155e+01	1.185434e+02
2.600000e-06	3.229879e-06	1.794224e-09	2.302214e+01	1.204092e+02
2.610000e-06	3.266287e-06	1.815684e-09	2.328166e+01	1.222169e+02
2.620000e-06	3.302597e-06	1.832300e-09	2.354047e+01	1.239681e+02
2.630000e-06	3.338738e-06	1.847372e-09	2.379808e+01	1.256644e+02
2.640000e-06	3.374677e-06	1.865860e-09	2.405425e+01	1.273076e+02
2.650000e-06	3.410426e-06	1.891470e-09	2.430906e+01	1.288993e+02
2.660000e-06	3.445986e-06	1.922797e-09	2.456252e+01	1.304409e+02
2.670000e-06	3.481336e-06	1.953028e-09	2.481450e+01	1.319338e+02
2.680000e-06	3.516417e-06	1.976107e-09	2.506455e+01	1.333795e+02
2.690000e-06	3.551159e-06	1.993366e-09	2.531219e+01	1.347792e+02
2.700000e-06	3.585483e-06	2.007826e-09	2.555684e+01	1.361341e+02
2.710000e-06	3.619309e-06	2.021716e-09	2.579795e+01	1.374452e+02
2.720000e-06	3.652687e-06	2.038652e-09	2.603586e+01	1.387134e+02
2.730000e-06	3.685743e-06	2.058461e-09	2.627148e+01	1.399396e+02
2.740000e-06	3.718498e-06	2.078485e-09	2.650496e+01	1.411247e+02
2.750000e-06	3.750999e-06	2.097660e-09	2.673662e+01	1.422693e+02
2.760000e-06	3.783282e-06	2.114810e-09	2.696673e+01	1.433742e+02
2.770000e-06	3.815336e-06	2.128655e-09	2.719520e+01	1.444398e+02
2.780000e-06	3.847199e-06	2.142008e-09	2.742232e+01	1.454669e+02
2.790000e-06	3.878921e-06	2.155958e-09	2.764843e+01	1.464560e+02
2.800000e-06	3.910540e-06	2.168874e-09	2.787381e+01	1.474077e+02
2.810000e-06	3.941864e-06	2.182645e-09	2.809708e+01	1.483226e+02
2.820000e-06	3.972828e-06	2.194043e-09	2.831778e+01	1.492013e+02
2.830000e-06	4.003539e-06	2.202336e-09	2.853669e+01	1.500446e+02
2.840000e-06	4.033887e-06	2.208976e-09	2.875301e+01	1.508532e+02
2.850000e-06	4.063889e-06	2.218546e-09	2.896685e+01	1.516279e+02
2.860000e-06	4.093678e-06	2.232935e-09	2.917919e+01	1.523696e+02
2.870000e-06	4.123238e-06	2.248827e-09	2.938989e+01	1.530792e+02
2.880000e-06	4.152544e-06	2.262724e-09	2.959878e+01	1.537578e+02
2.890000e-06	4.181586e-06	2.272820e-09	2.980579e+01	1.544065e+02
2.900000e-06	4.210310e-06	2.280505e-09	3.001052e+01	1.550264e+02
