# Temperatura_=_-1.6
# Concentracion g/m^3_=_4090.0
# C_Vs_to_Am_M_A/Vsm_=_65563218390.804596
# pendiente_HvsI_1/m_=_3716.3
# ordenada_HvsI_A/m_=_1297.0
# frecuencia_Hz_=_135070.7434627591

Tiempo_(s)	Campo_(V.s)	Magnetizacion_(V.s)	Campo_(kA/m)	Magnetizacion_(A/m)
0.000000e+00	-5.405251e-06	-2.349747e-09	-3.840170e+01	-1.529728e+02
1.000000e-08	-5.405408e-06	-2.344142e-09	-3.840281e+01	-1.528966e+02
2.000000e-08	-5.405316e-06	-2.339968e-09	-3.840216e+01	-1.528195e+02
3.000000e-08	-5.404980e-06	-2.337759e-09	-3.839977e+01	-1.527431e+02
4.000000e-08	-5.404368e-06	-2.338985e-09	-3.839542e+01	-1.526691e+02
5.000000e-08	-5.403276e-06	-2.344812e-09	-3.838766e+01	-1.525989e+02
6.000000e-08	-5.401556e-06	-2.353265e-09	-3.837544e+01	-1.525340e+02
7.000000e-08	-5.399227e-06	-2.348117e-09	-3.835890e+01	-1.524757e+02
8.000000e-08	-5.396262e-06	-2.318888e-09	-3.833783e+01	-1.524255e+02
9.000000e-08	-5.392615e-06	-2.327254e-09	-3.831192e+01	-1.523843e+02
1.000000e-07	-5.388516e-06	-2.421103e-09	-3.828280e+01	-1.523532e+02
1.100000e-07	-5.384253e-06	-2.420682e-09	-3.825251e+01	-1.523329e+02
1.200000e-07	-5.379917e-06	-2.274559e-09	-3.822171e+01	-1.523240e+02
1.300000e-07	-5.375375e-06	-2.249025e-09	-3.818944e+01	-1.523268e+02
1.400000e-07	-5.370392e-06	-2.391582e-09	-3.815404e+01	-1.523416e+02
1.500000e-07	-5.364882e-06	-2.438744e-09	-3.811489e+01	-1.523682e+02
1.600000e-07	-5.358980e-06	-2.238652e-09	-3.807296e+01	-1.524064e+02
1.700000e-07	-5.352798e-06	-2.189329e-09	-3.802904e+01	-1.524554e+02
1.800000e-07	-5.346195e-06	-2.401970e-09	-3.798213e+01	-1.525148e+02
1.900000e-07	-5.339112e-06	-2.461834e-09	-3.793181e+01	-1.525833e+02
2.000000e-07	-5.331698e-06	-2.284564e-09	-3.787914e+01	-1.526600e+02
2.100000e-07	-5.324158e-06	-2.247627e-09	-3.782557e+01	-1.527436e+02
2.200000e-07	-5.316469e-06	-2.405433e-09	-3.777094e+01	-1.528325e+02
2.300000e-07	-5.308404e-06	-2.389091e-09	-3.771364e+01	-1.529252e+02
2.400000e-07	-5.299918e-06	-2.279399e-09	-3.765336e+01	-1.530202e+02
2.500000e-07	-5.291021e-06	-2.346637e-09	-3.759015e+01	-1.531156e+02
2.600000e-07	-5.281445e-06	-2.453365e-09	-3.752211e+01	-1.532097e+02
2.700000e-07	-5.271189e-06	-2.356244e-09	-3.744925e+01	-1.533009e+02
2.800000e-07	-5.260431e-06	-2.312605e-09	-3.737282e+01	-1.533874e+02
2.900000e-07	-5.249195e-06	-2.427759e-09	-3.729299e+01	-1.534676e+02
3.000000e-07	-5.237534e-06	-2.419902e-09	-3.721015e+01	-1.535399e+02
3.100000e-07	-5.225487e-06	-2.287832e-09	-3.712456e+01	-1.536028e+02
3.200000e-07	-5.213092e-06	-2.353714e-09	-3.703649e+01	-1.536551e+02
3.300000e-07	-5.200264e-06	-2.480575e-09	-3.694536e+01	-1.536957e+02
3.400000e-07	-5.187057e-06	-2.391344e-09	-3.685153e+01	-1.537235e+02
3.500000e-07	-5.173544e-06	-2.302431e-09	-3.675553e+01	-1.537377e+02
3.600000e-07	-5.159624e-06	-2.388410e-09	-3.665663e+01	-1.537377e+02
3.700000e-07	-5.145326e-06	-2.407011e-09	-3.655505e+01	-1.537232e+02
3.800000e-07	-5.130621e-06	-2.326845e-09	-3.645058e+01	-1.536938e+02
3.900000e-07	-5.115272e-06	-2.344742e-09	-3.634153e+01	-1.536497e+02
4.000000e-07	-5.099299e-06	-2.377830e-09	-3.622805e+01	-1.535910e+02
4.100000e-07	-5.082841e-06	-2.327977e-09	-3.611112e+01	-1.535181e+02
4.200000e-07	-5.066042e-06	-2.342614e-09	-3.599178e+01	-1.534316e+02
4.300000e-07	-5.048979e-06	-2.392708e-09	-3.587056e+01	-1.533321e+02
4.400000e-07	-5.031598e-06	-2.330709e-09	-3.574707e+01	-1.532205e+02
4.500000e-07	-5.013958e-06	-2.293600e-09	-3.562175e+01	-1.530978e+02
4.600000e-07	-4.996033e-06	-2.359314e-09	-3.549440e+01	-1.529651e+02
4.700000e-07	-4.977732e-06	-2.368719e-09	-3.536438e+01	-1.528235e+02
4.800000e-07	-4.959028e-06	-2.304877e-09	-3.523150e+01	-1.526742e+02
4.900000e-07	-4.939798e-06	-2.316689e-09	-3.509488e+01	-1.525185e+02
5.000000e-07	-4.920138e-06	-2.351728e-09	-3.495520e+01	-1.523577e+02
5.100000e-07	-4.900304e-06	-2.344293e-09	-3.481429e+01	-1.521930e+02
5.200000e-07	-4.880321e-06	-2.327605e-09	-3.467232e+01	-1.520255e+02
5.300000e-07	-4.860138e-06	-2.322407e-09	-3.452893e+01	-1.518565e+02
5.400000e-07	-4.839692e-06	-2.311623e-09	-3.438367e+01	-1.516871e+02
5.500000e-07	-4.818891e-06	-2.329218e-09	-3.423589e+01	-1.515181e+02
5.600000e-07	-4.797695e-06	-2.331002e-09	-3.408531e+01	-1.513506e+02
5.700000e-07	-4.776125e-06	-2.297806e-09	-3.393205e+01	-1.511853e+02
5.800000e-07	-4.754252e-06	-2.288820e-09	-3.377666e+01	-1.510229e+02
5.900000e-07	-4.732113e-06	-2.318799e-09	-3.361937e+01	-1.508638e+02
6.000000e-07	-4.709579e-06	-2.323463e-09	-3.345928e+01	-1.507085e+02
6.100000e-07	-4.686670e-06	-2.303843e-09	-3.329652e+01	-1.505572e+02
6.200000e-07	-4.663443e-06	-2.290018e-09	-3.313151e+01	-1.504100e+02
6.300000e-07	-4.639927e-06	-2.296953e-09	-3.296444e+01	-1.502669e+02
6.400000e-07	-4.616171e-06	-2.308853e-09	-3.279566e+01	-1.501278e+02
6.500000e-07	-4.592181e-06	-2.300151e-09	-3.262523e+01	-1.499924e+02
6.600000e-07	-4.568033e-06	-2.274823e-09	-3.245367e+01	-1.498603e+02
6.700000e-07	-4.543651e-06	-2.276398e-09	-3.228044e+01	-1.497311e+02
6.800000e-07	-4.518900e-06	-2.299753e-09	-3.210460e+01	-1.496042e+02
6.900000e-07	-4.493653e-06	-2.299587e-09	-3.192523e+01	-1.494791e+02
7.000000e-07	-4.467779e-06	-2.280574e-09	-3.174141e+01	-1.493549e+02
7.100000e-07	-4.441280e-06	-2.271262e-09	-3.155314e+01	-1.492311e+02
7.200000e-07	-4.414262e-06	-2.279070e-09	-3.136120e+01	-1.491068e+02
7.300000e-07	-4.386847e-06	-2.282727e-09	-3.116642e+01	-1.489812e+02
7.400000e-07	-4.359176e-06	-2.271129e-09	-3.096983e+01	-1.488537e+02
7.500000e-07	-4.331328e-06	-2.259269e-09	-3.077199e+01	-1.487235e+02
7.600000e-07	-4.303332e-06	-2.269820e-09	-3.057309e+01	-1.485898e+02
7.700000e-07	-4.275181e-06	-2.279574e-09	-3.037309e+01	-1.484520e+02
7.800000e-07	-4.246825e-06	-2.269122e-09	-3.017164e+01	-1.483093e+02
7.900000e-07	-4.218166e-06	-2.251560e-09	-2.996803e+01	-1.481612e+02
8.000000e-07	-4.189240e-06	-2.250958e-09	-2.976252e+01	-1.480073e+02
8.100000e-07	-4.160004e-06	-2.255333e-09	-2.955481e+01	-1.478469e+02
8.200000e-07	-4.130372e-06	-2.252399e-09	-2.934429e+01	-1.476798e+02
8.300000e-07	-4.100521e-06	-2.241318e-09	-2.913221e+01	-1.475057e+02
8.400000e-07	-4.070475e-06	-2.238284e-09	-2.891876e+01	-1.473242e+02
8.500000e-07	-4.040160e-06	-2.243807e-09	-2.870338e+01	-1.471354e+02
8.600000e-07	-4.009574e-06	-2.241268e-09	-2.848609e+01	-1.469391e+02
8.700000e-07	-3.978644e-06	-2.220696e-09	-2.826634e+01	-1.467353e+02
8.800000e-07	-3.947393e-06	-2.205812e-09	-2.804432e+01	-1.465242e+02
8.900000e-07	-3.915981e-06	-2.207552e-09	-2.782115e+01	-1.463059e+02
9.000000e-07	-3.884357e-06	-2.215709e-09	-2.759648e+01	-1.460807e+02
9.100000e-07	-3.852499e-06	-2.212153e-09	-2.737014e+01	-1.458488e+02
9.200000e-07	-3.820507e-06	-2.202351e-09	-2.714286e+01	-1.456106e+02
9.300000e-07	-3.788343e-06	-2.197239e-09	-2.691434e+01	-1.453665e+02
9.400000e-07	-3.755982e-06	-2.194647e-09	-2.668444e+01	-1.451170e+02
9.500000e-07	-3.723330e-06	-2.183499e-09	-2.645246e+01	-1.448626e+02
9.600000e-07	-3.690296e-06	-2.170126e-09	-2.621777e+01	-1.446036e+02
9.700000e-07	-3.656816e-06	-2.167431e-09	-2.597991e+01	-1.443407e+02
9.800000e-07	-3.622706e-06	-2.172773e-09	-2.573757e+01	-1.440743e+02
9.900000e-07	-3.588065e-06	-2.172440e-09	-2.549147e+01	-1.438050e+02
1.000000e-06	-3.553116e-06	-2.163186e-09	-2.524317e+01	-1.435333e+02
1.010000e-06	-3.517840e-06	-2.156655e-09	-2.499255e+01	-1.432597e+02
1.020000e-06	-3.482280e-06	-2.153927e-09	-2.473992e+01	-1.429846e+02
1.030000e-06	-3.446553e-06	-2.148021e-09	-2.448609e+01	-1.427085e+02
1.040000e-06	-3.410756e-06	-2.137407e-09	-2.423177e+01	-1.424318e+02
1.050000e-06	-3.374863e-06	-2.132503e-09	-2.397677e+01	-1.421547e+02
1.060000e-06	-3.338791e-06	-2.134360e-09	-2.372049e+01	-1.418776e+02
1.070000e-06	-3.302539e-06	-2.135296e-09	-2.346295e+01	-1.416008e+02
1.080000e-06	-3.266111e-06	-2.129094e-09	-2.320414e+01	-1.413243e+02
1.090000e-06	-3.229447e-06	-2.120406e-09	-2.294366e+01	-1.410483e+02
1.100000e-06	-3.192466e-06	-2.117239e-09	-2.268092e+01	-1.407728e+02
1.110000e-06	-3.155254e-06	-2.119012e-09	-2.241655e+01	-1.404977e+02
1.120000e-06	-3.117800e-06	-2.113263e-09	-2.215046e+01	-1.402230e+02
1.130000e-06	-3.080109e-06	-2.103404e-09	-2.188269e+01	-1.399485e+02
1.140000e-06	-3.042269e-06	-2.096080e-09	-2.161385e+01	-1.396738e+02
1.150000e-06	-3.004217e-06	-2.093610e-09	-2.134351e+01	-1.393987e+02
1.160000e-06	-2.965960e-06	-2.087202e-09	-2.107171e+01	-1.391227e+02
1.170000e-06	-2.927512e-06	-2.077577e-09	-2.079855e+01	-1.388455e+02
1.180000e-06	-2.888961e-06	-2.070360e-09	-2.052467e+01	-1.385664e+02
1.190000e-06	-2.850267e-06	-2.070382e-09	-2.024977e+01	-1.382849e+02
1.200000e-06	-2.811217e-06	-2.069423e-09	-1.997234e+01	-1.380004e+02
1.210000e-06	-2.771893e-06	-2.061986e-09	-1.969296e+01	-1.377122e+02
1.220000e-06	-2.732384e-06	-2.052391e-09	-1.941226e+01	-1.374197e+02
1.230000e-06	-2.692743e-06	-2.047424e-09	-1.913063e+01	-1.371222e+02
1.240000e-06	-2.652968e-06	-2.044796e-09	-1.884805e+01	-1.368189e+02
1.250000e-06	-2.613030e-06	-2.040619e-09	-1.856431e+01	-1.365091e+02
1.260000e-06	-2.573066e-06	-2.035600e-09	-1.828039e+01	-1.361922e+02
1.270000e-06	-2.533055e-06	-2.031135e-09	-1.799613e+01	-1.358674e+02
1.280000e-06	-2.492962e-06	-2.027423e-09	-1.771129e+01	-1.355342e+02
1.290000e-06	-2.452809e-06	-2.021416e-09	-1.742602e+01	-1.351918e+02
1.300000e-06	-2.412453e-06	-2.011726e-09	-1.713931e+01	-1.348397e+02
1.310000e-06	-2.371792e-06	-2.002764e-09	-1.685043e+01	-1.344775e+02
1.320000e-06	-2.330969e-06	-1.997925e-09	-1.656041e+01	-1.341047e+02
1.330000e-06	-2.289990e-06	-1.993033e-09	-1.626927e+01	-1.337208e+02
1.340000e-06	-2.248723e-06	-1.987087e-09	-1.597609e+01	-1.333255e+02
1.350000e-06	-2.207201e-06	-1.982047e-09	-1.568110e+01	-1.329187e+02
1.360000e-06	-2.165413e-06	-1.977910e-09	-1.538421e+01	-1.325001e+02
1.370000e-06	-2.123295e-06	-1.971756e-09	-1.508498e+01	-1.320697e+02
1.380000e-06	-2.080870e-06	-1.963411e-09	-1.478357e+01	-1.316274e+02
1.390000e-06	-2.038150e-06	-1.954073e-09	-1.448007e+01	-1.311732e+02
1.400000e-06	-1.995110e-06	-1.946142e-09	-1.417429e+01	-1.307073e+02
1.410000e-06	-1.951890e-06	-1.938075e-09	-1.386723e+01	-1.302297e+02
1.420000e-06	-1.908503e-06	-1.931190e-09	-1.355899e+01	-1.297408e+02
1.430000e-06	-1.864938e-06	-1.926317e-09	-1.324948e+01	-1.292407e+02
1.440000e-06	-1.821297e-06	-1.923310e-09	-1.293944e+01	-1.287296e+02
1.450000e-06	-1.777571e-06	-1.917059e-09	-1.262879e+01	-1.282079e+02
1.460000e-06	-1.733771e-06	-1.908084e-09	-1.231760e+01	-1.276758e+02
1.470000e-06	-1.689927e-06	-1.896613e-09	-1.200611e+01	-1.271335e+02
1.480000e-06	-1.646049e-06	-1.883153e-09	-1.169438e+01	-1.265813e+02
1.490000e-06	-1.602120e-06	-1.869358e-09	-1.138229e+01	-1.260192e+02
1.500000e-06	-1.558128e-06	-1.856576e-09	-1.106974e+01	-1.254474e+02
1.510000e-06	-1.514057e-06	-1.845807e-09	-1.075665e+01	-1.248660e+02
1.520000e-06	-1.469898e-06	-1.839076e-09	-1.044291e+01	-1.242749e+02
1.530000e-06	-1.425660e-06	-1.835944e-09	-1.012862e+01	-1.236738e+02
1.540000e-06	-1.381377e-06	-1.831948e-09	-9.814014e+00	-1.230627e+02
1.550000e-06	-1.337088e-06	-1.820523e-09	-9.499363e+00	-1.224410e+02
1.560000e-06	-1.292784e-06	-1.804461e-09	-9.184607e+00	-1.218084e+02
1.570000e-06	-1.248377e-06	-1.790709e-09	-8.869114e+00	-1.211642e+02
1.580000e-06	-1.203851e-06	-1.780047e-09	-8.552776e+00	-1.205077e+02
1.590000e-06	-1.159159e-06	-1.770331e-09	-8.235266e+00	-1.198379e+02
1.600000e-06	-1.114331e-06	-1.761408e-09	-7.916781e+00	-1.191541e+02
1.610000e-06	-1.069440e-06	-1.753471e-09	-7.597855e+00	-1.184549e+02
1.620000e-06	-1.024459e-06	-1.745801e-09	-7.278282e+00	-1.177394e+02
1.630000e-06	-9.793009e-07	-1.736596e-09	-6.957459e+00	-1.170061e+02
1.640000e-06	-9.340422e-07	-1.722879e-09	-6.635918e+00	-1.162536e+02
1.650000e-06	-8.887606e-07	-1.707421e-09	-6.314214e+00	-1.154806e+02
1.660000e-06	-8.433720e-07	-1.692873e-09	-5.991750e+00	-1.146855e+02
1.670000e-06	-7.978213e-07	-1.679027e-09	-5.668134e+00	-1.138667e+02
1.680000e-06	-7.522359e-07	-1.665541e-09	-5.344273e+00	-1.130225e+02
1.690000e-06	-7.066895e-07	-1.653384e-09	-5.020687e+00	-1.121515e+02
1.700000e-06	-6.611210e-07	-1.640054e-09	-4.696945e+00	-1.112520e+02
1.710000e-06	-6.155742e-07	-1.626028e-09	-4.373357e+00	-1.103224e+02
1.720000e-06	-5.700025e-07	-1.612977e-09	-4.049592e+00	-1.093610e+02
1.730000e-06	-5.243859e-07	-1.598816e-09	-3.725508e+00	-1.083665e+02
1.740000e-06	-4.786922e-07	-1.581672e-09	-3.400876e+00	-1.073372e+02
1.750000e-06	-4.329021e-07	-1.564775e-09	-3.075560e+00	-1.062719e+02
1.760000e-06	-3.870570e-07	-1.549246e-09	-2.749853e+00	-1.051691e+02
1.770000e-06	-3.412067e-07	-1.532400e-09	-2.424109e+00	-1.040276e+02
1.780000e-06	-2.953571e-07	-1.512037e-09	-2.098369e+00	-1.028462e+02
1.790000e-06	-2.495115e-07	-1.492293e-09	-1.772659e+00	-1.016238e+02
1.800000e-06	-2.036732e-07	-1.473463e-09	-1.446999e+00	-1.003593e+02
1.810000e-06	-1.578377e-07	-1.453630e-09	-1.121360e+00	-9.905191e+01
1.820000e-06	-1.120140e-07	-1.432990e-09	-7.958051e-01	-9.770061e+01
1.830000e-06	-6.616096e-08	-1.412593e-09	-4.700416e-01	-9.630461e+01
1.840000e-06	-2.030137e-08	-1.392580e-09	-1.442314e-01	-9.486311e+01
1.850000e-06	2.554783e-08	-1.371087e-09	1.815050e-01	-9.337537e+01
1.860000e-06	7.132817e-08	-1.348256e-09	5.067521e-01	-9.184066e+01
1.870000e-06	1.170802e-07	-1.324380e-09	8.317984e-01	-9.025826e+01
1.880000e-06	1.629022e-07	-1.300578e-09	1.157342e+00	-8.862745e+01
1.890000e-06	2.086961e-07	-1.276350e-09	1.482685e+00	-8.694747e+01
1.900000e-06	2.544739e-07	-1.250316e-09	1.807914e+00	-8.521754e+01
1.910000e-06	3.003065e-07	-1.223485e-09	2.133532e+00	-8.343685e+01
1.920000e-06	3.461250e-07	-1.197378e-09	2.459050e+00	-8.160451e+01
1.930000e-06	3.919262e-07	-1.170570e-09	2.784446e+00	-7.971958e+01
1.940000e-06	4.377271e-07	-1.142339e-09	3.109840e+00	-7.778105e+01
1.950000e-06	4.834508e-07	-1.113299e-09	3.434684e+00	-7.578785e+01
1.960000e-06	5.291051e-07	-1.083301e-09	3.759036e+00	-7.373884e+01
1.970000e-06	5.747083e-07	-1.051460e-09	4.083025e+00	-7.163281e+01
1.980000e-06	6.202386e-07	-1.017255e-09	4.406495e+00	-6.946852e+01
1.990000e-06	6.657049e-07	-9.832415e-10	4.729511e+00	-6.724467e+01
2.000000e-06	7.111408e-07	-9.519111e-10	5.052311e+00	-6.495994e+01
2.010000e-06	7.565754e-07	-9.202103e-10	5.375102e+00	-6.261304e+01
2.020000e-06	8.019516e-07	-8.842124e-10	5.697478e+00	-6.020267e+01
2.030000e-06	8.472596e-07	-8.464992e-10	6.019370e+00	-5.772761e+01
2.040000e-06	8.925494e-07	-8.106565e-10	6.341132e+00	-5.518670e+01
2.050000e-06	9.376668e-07	-7.749528e-10	6.661669e+00	-5.257891e+01
2.060000e-06	9.826570e-07	-7.371576e-10	6.981303e+00	-4.990339e+01
2.070000e-06	1.027675e-06	-6.964624e-10	7.301136e+00	-4.715943e+01
2.080000e-06	1.072571e-06	-6.548953e-10	7.620098e+00	-4.434659e+01
2.090000e-06	1.117356e-06	-6.120711e-10	7.938272e+00	-4.146468e+01
2.100000e-06	1.162074e-06	-5.677095e-10	8.255972e+00	-3.851381e+01
2.110000e-06	1.206677e-06	-5.234003e-10	8.572860e+00	-3.549441e+01
2.120000e-06	1.251213e-06	-4.802505e-10	8.889263e+00	-3.240732e+01
2.130000e-06	1.295652e-06	-4.377164e-10	9.204979e+00	-2.925374e+01
2.140000e-06	1.339979e-06	-3.930726e-10	9.519899e+00	-2.603529e+01
2.150000e-06	1.384210e-06	-3.449604e-10	9.834143e+00	-2.275405e+01
2.160000e-06	1.428370e-06	-2.947893e-10	1.014788e+01	-1.941255e+01
2.170000e-06	1.472476e-06	-2.427585e-10	1.046123e+01	-1.601378e+01
2.180000e-06	1.516504e-06	-1.888499e-10	1.077403e+01	-1.256118e+01
2.190000e-06	1.560493e-06	-1.367968e-10	1.108655e+01	-9.058687e+00
2.200000e-06	1.604434e-06	-8.694448e-11	1.139873e+01	-5.510660e+00
2.210000e-06	1.648333e-06	-3.501837e-11	1.171061e+01	-1.921902e+00
2.220000e-06	1.692211e-06	2.027907e-11	1.202234e+01	1.702376e+00
2.230000e-06	1.736054e-06	7.555194e-11	1.233382e+01	5.356588e+00
2.240000e-06	1.779823e-06	1.296114e-10	1.264478e+01	9.034806e+00
2.250000e-06	1.823465e-06	1.844577e-10	1.295484e+01	1.273081e+01
2.260000e-06	1.866997e-06	2.407696e-10	1.326411e+01	1.643812e+01
2.270000e-06	1.910422e-06	2.969025e-10	1.357262e+01	2.015008e+01
2.280000e-06	1.953755e-06	3.508621e-10	1.388048e+01	2.385988e+01
2.290000e-06	1.996991e-06	4.047371e-10	1.418766e+01	2.756064e+01
2.300000e-06	2.040118e-06	4.621817e-10	1.449405e+01	3.124547e+01
2.310000e-06	2.083102e-06	5.209894e-10	1.479943e+01	3.490751e+01
2.320000e-06	2.125603e-06	5.756840e-10	1.510138e+01	3.854005e+01
2.330000e-06	2.167652e-06	6.268044e-10	1.540012e+01	4.213650e+01
2.340000e-06	2.209527e-06	6.778041e-10	1.569762e+01	4.569054e+01
2.350000e-06	2.251127e-06	7.272339e-10	1.599317e+01	4.919614e+01
2.360000e-06	2.292415e-06	7.763220e-10	1.628650e+01	5.264759e+01
2.370000e-06	2.333317e-06	8.279393e-10	1.657709e+01	5.603961e+01
2.380000e-06	2.373939e-06	8.805054e-10	1.686569e+01	5.936733e+01
2.390000e-06	2.414388e-06	9.327207e-10	1.715306e+01	6.262636e+01
2.400000e-06	2.454591e-06	9.800950e-10	1.743868e+01	6.581281e+01
2.410000e-06	2.494676e-06	1.019600e-09	1.772347e+01	6.892332e+01
2.420000e-06	2.534704e-06	1.055623e-09	1.800785e+01	7.195508e+01
2.430000e-06	2.574682e-06	1.092863e-09	1.829187e+01	7.490582e+01
2.440000e-06	2.614614e-06	1.132085e-09	1.857557e+01	7.777380e+01
2.450000e-06	2.654460e-06	1.171959e-09	1.885865e+01	8.055787e+01
2.460000e-06	2.694235e-06	1.212868e-09	1.914123e+01	8.325734e+01
2.470000e-06	2.733833e-06	1.254559e-09	1.942256e+01	8.587209e+01
2.480000e-06	2.773166e-06	1.292839e-09	1.970200e+01	8.840243e+01
2.490000e-06	2.812252e-06	1.325712e-09	1.997969e+01	9.084913e+01
2.500000e-06	2.851081e-06	1.354626e-09	2.025555e+01	9.321334e+01
2.510000e-06	2.889665e-06	1.382051e-09	2.052967e+01	9.549660e+01
2.520000e-06	2.928082e-06	1.411451e-09	2.080260e+01	9.770073e+01
2.530000e-06	2.966360e-06	1.443296e-09	2.107455e+01	9.982783e+01
2.540000e-06	3.004469e-06	1.476352e-09	2.134530e+01	1.018802e+02
2.550000e-06	3.042391e-06	1.510089e-09	2.161471e+01	1.038603e+02
2.560000e-06	3.080157e-06	1.541008e-09	2.188302e+01	1.057708e+02
2.570000e-06	3.117729e-06	1.563725e-09	2.214996e+01	1.076142e+02
2.580000e-06	3.155087e-06	1.582336e-09	2.241537e+01	1.093932e+02
2.590000e-06	3.192242e-06	1.604018e-09	2.267934e+01	1.111104e+02
2.600000e-06	3.229070e-06	1.628933e-09	2.294098e+01	1.127684e+02
2.610000e-06	3.265646e-06	1.654063e-09	2.320083e+01	1.143696e+02
2.620000e-06	3.302039e-06	1.678020e-09	2.345939e+01	1.159164e+02
2.630000e-06	3.338237e-06	1.701228e-09	2.371656e+01	1.174108e+02
2.640000e-06	3.374314e-06	1.723359e-09	2.397287e+01	1.188550e+02
2.650000e-06	3.410289e-06	1.742070e-09	2.422845e+01	1.202507e+02
2.660000e-06	3.446101e-06	1.755940e-09	2.448288e+01	1.215995e+02
2.670000e-06	3.481772e-06	1.769862e-09	2.473631e+01	1.229028e+02
2.680000e-06	3.517374e-06	1.787280e-09	2.498924e+01	1.241619e+02
2.690000e-06	3.552714e-06	1.805618e-09	2.524032e+01	1.253777e+02
2.700000e-06	3.587630e-06	1.822346e-09	2.548838e+01	1.265513e+02
2.710000e-06	3.622069e-06	1.838675e-09	2.573305e+01	1.276832e+02
2.720000e-06	3.656003e-06	1.856740e-09	2.597413e+01	1.287742e+02
2.730000e-06	3.689454e-06	1.873412e-09	2.621179e+01	1.298248e+02
2.740000e-06	3.722400e-06	1.884415e-09	2.644585e+01	1.308353e+02
2.750000e-06	3.754948e-06	1.893093e-09	2.667709e+01	1.318061e+02
2.760000e-06	3.787236e-06	1.906792e-09	2.690648e+01	1.327378e+02
2.770000e-06	3.819292e-06	1.921253e-09	2.713422e+01	1.336305e+02
2.780000e-06	3.851205e-06	1.931369e-09	2.736095e+01	1.344848e+02
2.790000e-06	3.883054e-06	1.942889e-09	2.758722e+01	1.353011e+02
2.800000e-06	3.914773e-06	1.958712e-09	2.781257e+01	1.360800e+02
2.810000e-06	3.946235e-06	1.975578e-09	2.803609e+01	1.368222e+02
2.820000e-06	3.977418e-06	1.987053e-09	2.825763e+01	1.375283e+02
2.830000e-06	4.008294e-06	1.991745e-09	2.847699e+01	1.381994e+02
2.840000e-06	4.038822e-06	1.998318e-09	2.869387e+01	1.388363e+02
2.850000e-06	4.069060e-06	2.009565e-09	2.890870e+01	1.394404e+02
2.860000e-06	4.099068e-06	2.021368e-09	2.912189e+01	1.400128e+02
2.870000e-06	4.128878e-06	2.031752e-09	2.933368e+01	1.405551e+02
2.880000e-06	4.158444e-06	2.040122e-09	2.954373e+01	1.410687e+02
2.890000e-06	4.187700e-06	2.047714e-09	2.975159e+01	1.415553e+02
2.900000e-06	4.216594e-06	2.053523e-09	2.995686e+01	1.420166e+02
