# Temperatura_=_-2.5
# Concentracion g/m^3_=_4090.0
# C_Vs_to_Am_M_A/Vsm_=_65563218390.804596
# pendiente_HvsI_1/m_=_3716.3
# ordenada_HvsI_A/m_=_1297.0
# frecuencia_Hz_=_135070.89269458788

Tiempo_(s)	Campo_(V.s)	Magnetizacion_(V.s)	Campo_(kA/m)	Magnetizacion_(A/m)
0.000000e+00	-5.410056e-06	-2.269198e-09	-3.839602e+01	-1.476274e+02
1.000000e-08	-5.410143e-06	-2.268130e-09	-3.839664e+01	-1.475300e+02
2.000000e-08	-5.410055e-06	-2.269474e-09	-3.839601e+01	-1.474410e+02
3.000000e-08	-5.409767e-06	-2.272609e-09	-3.839397e+01	-1.473617e+02
4.000000e-08	-5.409154e-06	-2.276502e-09	-3.838962e+01	-1.472938e+02
5.000000e-08	-5.407945e-06	-2.280052e-09	-3.838104e+01	-1.472384e+02
6.000000e-08	-5.406125e-06	-2.275985e-09	-3.836813e+01	-1.471966e+02
7.000000e-08	-5.403668e-06	-2.258982e-09	-3.835069e+01	-1.471692e+02
8.000000e-08	-5.400544e-06	-2.252178e-09	-3.832852e+01	-1.471569e+02
9.000000e-08	-5.396883e-06	-2.296413e-09	-3.830253e+01	-1.471601e+02
1.000000e-07	-5.392798e-06	-2.360440e-09	-3.827354e+01	-1.471789e+02
1.100000e-07	-5.388491e-06	-2.324364e-09	-3.824297e+01	-1.472132e+02
1.200000e-07	-5.384071e-06	-2.240065e-09	-3.821160e+01	-1.472627e+02
1.300000e-07	-5.379378e-06	-2.238278e-09	-3.817830e+01	-1.473267e+02
1.400000e-07	-5.374252e-06	-2.343297e-09	-3.814192e+01	-1.474043e+02
1.500000e-07	-5.368688e-06	-2.311090e-09	-3.810243e+01	-1.474945e+02
1.600000e-07	-5.362874e-06	-2.201104e-09	-3.806116e+01	-1.475960e+02
1.700000e-07	-5.356746e-06	-2.216291e-09	-3.801767e+01	-1.477073e+02
1.800000e-07	-5.350150e-06	-2.367129e-09	-3.797086e+01	-1.478268e+02
1.900000e-07	-5.343095e-06	-2.382021e-09	-3.792079e+01	-1.479528e+02
2.000000e-07	-5.335751e-06	-2.271169e-09	-3.786867e+01	-1.480832e+02
2.100000e-07	-5.328221e-06	-2.273792e-09	-3.781523e+01	-1.482163e+02
2.200000e-07	-5.320394e-06	-2.350167e-09	-3.775968e+01	-1.483500e+02
2.300000e-07	-5.312308e-06	-2.340853e-09	-3.770229e+01	-1.484823e+02
2.400000e-07	-5.303973e-06	-2.287047e-09	-3.764314e+01	-1.486112e+02
2.500000e-07	-5.295090e-06	-2.348567e-09	-3.758009e+01	-1.487349e+02
2.600000e-07	-5.285407e-06	-2.392205e-09	-3.751137e+01	-1.488515e+02
2.700000e-07	-5.275069e-06	-2.363710e-09	-3.743800e+01	-1.489594e+02
2.800000e-07	-5.264207e-06	-2.349151e-09	-3.736091e+01	-1.490568e+02
2.900000e-07	-5.252915e-06	-2.403985e-09	-3.728077e+01	-1.491425e+02
3.000000e-07	-5.241248e-06	-2.361989e-09	-3.719797e+01	-1.492151e+02
3.100000e-07	-5.229157e-06	-2.299052e-09	-3.711215e+01	-1.492737e+02
3.200000e-07	-5.216622e-06	-2.338204e-09	-3.702319e+01	-1.493174e+02
3.300000e-07	-5.203785e-06	-2.400754e-09	-3.693209e+01	-1.493456e+02
3.400000e-07	-5.190566e-06	-2.339303e-09	-3.683826e+01	-1.493579e+02
3.500000e-07	-5.176842e-06	-2.301676e-09	-3.674086e+01	-1.493541e+02
3.600000e-07	-5.162828e-06	-2.343261e-09	-3.664140e+01	-1.493342e+02
3.700000e-07	-5.148530e-06	-2.354745e-09	-3.653993e+01	-1.492985e+02
3.800000e-07	-5.133634e-06	-2.298834e-09	-3.643422e+01	-1.492473e+02
3.900000e-07	-5.118054e-06	-2.303091e-09	-3.632364e+01	-1.491812e+02
4.000000e-07	-5.101898e-06	-2.325878e-09	-3.620898e+01	-1.491010e+02
4.100000e-07	-5.085320e-06	-2.315478e-09	-3.609132e+01	-1.490076e+02
4.200000e-07	-5.068397e-06	-2.315907e-09	-3.597122e+01	-1.489019e+02
4.300000e-07	-5.051182e-06	-2.324751e-09	-3.584904e+01	-1.487851e+02
4.400000e-07	-5.033717e-06	-2.294319e-09	-3.572509e+01	-1.486583e+02
4.500000e-07	-5.016010e-06	-2.277794e-09	-3.559942e+01	-1.485227e+02
4.600000e-07	-4.998113e-06	-2.311853e-09	-3.547240e+01	-1.483795e+02
4.700000e-07	-4.979840e-06	-2.305143e-09	-3.534271e+01	-1.482299e+02
4.800000e-07	-4.961062e-06	-2.273513e-09	-3.520944e+01	-1.480750e+02
4.900000e-07	-4.941824e-06	-2.277363e-09	-3.507291e+01	-1.479161e+02
5.000000e-07	-4.922248e-06	-2.306367e-09	-3.493398e+01	-1.477542e+02
5.100000e-07	-4.902469e-06	-2.291334e-09	-3.479360e+01	-1.475902e+02
5.200000e-07	-4.882537e-06	-2.276087e-09	-3.465214e+01	-1.474251e+02
5.300000e-07	-4.862372e-06	-2.269209e-09	-3.450902e+01	-1.472597e+02
5.400000e-07	-4.841829e-06	-2.276806e-09	-3.436322e+01	-1.470945e+02
5.500000e-07	-4.820908e-06	-2.278440e-09	-3.421475e+01	-1.469301e+02
5.600000e-07	-4.799600e-06	-2.277541e-09	-3.406352e+01	-1.467669e+02
5.700000e-07	-4.777903e-06	-2.257668e-09	-3.390953e+01	-1.466053e+02
5.800000e-07	-4.755947e-06	-2.259860e-09	-3.375371e+01	-1.464454e+02
5.900000e-07	-4.733820e-06	-2.269513e-09	-3.359667e+01	-1.462872e+02
6.000000e-07	-4.711438e-06	-2.266154e-09	-3.343782e+01	-1.461306e+02
6.100000e-07	-4.688675e-06	-2.242307e-09	-3.327627e+01	-1.459756e+02
6.200000e-07	-4.665483e-06	-2.237799e-09	-3.311167e+01	-1.458218e+02
6.300000e-07	-4.641879e-06	-2.244467e-09	-3.294415e+01	-1.456690e+02
6.400000e-07	-4.618047e-06	-2.249215e-09	-3.277501e+01	-1.455167e+02
6.500000e-07	-4.594065e-06	-2.234093e-09	-3.260480e+01	-1.453646e+02
6.600000e-07	-4.569900e-06	-2.221016e-09	-3.243330e+01	-1.452121e+02
6.700000e-07	-4.545490e-06	-2.224584e-09	-3.226006e+01	-1.450587e+02
6.800000e-07	-4.520682e-06	-2.235093e-09	-3.208399e+01	-1.449041e+02
6.900000e-07	-4.495375e-06	-2.226383e-09	-3.190439e+01	-1.447477e+02
7.000000e-07	-4.469554e-06	-2.213177e-09	-3.172113e+01	-1.445890e+02
7.100000e-07	-4.443224e-06	-2.213123e-09	-3.153427e+01	-1.444277e+02
7.200000e-07	-4.416381e-06	-2.218843e-09	-3.134376e+01	-1.442633e+02
7.300000e-07	-4.389112e-06	-2.216929e-09	-3.115022e+01	-1.440956e+02
7.400000e-07	-4.361542e-06	-2.204453e-09	-3.095455e+01	-1.439242e+02
7.500000e-07	-4.333735e-06	-2.200282e-09	-3.075721e+01	-1.437490e+02
7.600000e-07	-4.305754e-06	-2.205235e-09	-3.055861e+01	-1.435698e+02
7.700000e-07	-4.277619e-06	-2.209192e-09	-3.035894e+01	-1.433865e+02
7.800000e-07	-4.249243e-06	-2.197729e-09	-3.015755e+01	-1.431991e+02
7.900000e-07	-4.220564e-06	-2.188599e-09	-2.995401e+01	-1.430077e+02
8.000000e-07	-4.191520e-06	-2.187870e-09	-2.974788e+01	-1.428123e+02
8.100000e-07	-4.162089e-06	-2.193593e-09	-2.953901e+01	-1.426132e+02
8.200000e-07	-4.132395e-06	-2.190267e-09	-2.932826e+01	-1.424105e+02
8.300000e-07	-4.102521e-06	-2.186668e-09	-2.911624e+01	-1.422045e+02
8.400000e-07	-4.072378e-06	-2.182150e-09	-2.890231e+01	-1.419954e+02
8.500000e-07	-4.041993e-06	-2.183341e-09	-2.868666e+01	-1.417835e+02
8.600000e-07	-4.011326e-06	-2.174027e-09	-2.846902e+01	-1.415692e+02
8.700000e-07	-3.980296e-06	-2.161226e-09	-2.824879e+01	-1.413527e+02
8.800000e-07	-3.948990e-06	-2.153285e-09	-2.802661e+01	-1.411344e+02
8.900000e-07	-3.917482e-06	-2.158677e-09	-2.780299e+01	-1.409145e+02
9.000000e-07	-3.885820e-06	-2.161694e-09	-2.757828e+01	-1.406933e+02
9.100000e-07	-3.853956e-06	-2.156977e-09	-2.735213e+01	-1.404711e+02
9.200000e-07	-3.821897e-06	-2.148034e-09	-2.712461e+01	-1.402480e+02
9.300000e-07	-3.789651e-06	-2.144229e-09	-2.689575e+01	-1.400243e+02
9.400000e-07	-3.757194e-06	-2.138549e-09	-2.666540e+01	-1.398000e+02
9.500000e-07	-3.724468e-06	-2.129494e-09	-2.643314e+01	-1.395753e+02
9.600000e-07	-3.691419e-06	-2.122372e-09	-2.619858e+01	-1.393500e+02
9.700000e-07	-3.657968e-06	-2.122927e-09	-2.596118e+01	-1.391243e+02
9.800000e-07	-3.624060e-06	-2.121054e-09	-2.572053e+01	-1.388981e+02
9.900000e-07	-3.589727e-06	-2.111765e-09	-2.547686e+01	-1.386711e+02
1.000000e-06	-3.554927e-06	-2.100111e-09	-2.522988e+01	-1.384433e+02
1.010000e-06	-3.519706e-06	-2.095501e-09	-2.497991e+01	-1.382144e+02
1.020000e-06	-3.484248e-06	-2.093407e-09	-2.472826e+01	-1.379842e+02
1.030000e-06	-3.448603e-06	-2.085972e-09	-2.447528e+01	-1.377524e+02
1.040000e-06	-3.412760e-06	-2.079070e-09	-2.422090e+01	-1.375186e+02
1.050000e-06	-3.376768e-06	-2.077746e-09	-2.396546e+01	-1.372825e+02
1.060000e-06	-3.340653e-06	-2.077455e-09	-2.370914e+01	-1.370438e+02
1.070000e-06	-3.304332e-06	-2.068849e-09	-2.345137e+01	-1.368020e+02
1.080000e-06	-3.267789e-06	-2.056900e-09	-2.319201e+01	-1.365567e+02
1.090000e-06	-3.231064e-06	-2.046979e-09	-2.293138e+01	-1.363076e+02
1.100000e-06	-3.194054e-06	-2.045008e-09	-2.266871e+01	-1.360543e+02
1.110000e-06	-3.156780e-06	-2.042874e-09	-2.240417e+01	-1.357964e+02
1.120000e-06	-3.119361e-06	-2.037391e-09	-2.213860e+01	-1.355335e+02
1.130000e-06	-3.081752e-06	-2.029065e-09	-2.187168e+01	-1.352652e+02
1.140000e-06	-3.043899e-06	-2.024564e-09	-2.160304e+01	-1.349912e+02
1.150000e-06	-3.005851e-06	-2.017799e-09	-2.133300e+01	-1.347112e+02
1.160000e-06	-2.967568e-06	-2.007055e-09	-2.106130e+01	-1.344249e+02
1.170000e-06	-2.929007e-06	-1.996705e-09	-2.078763e+01	-1.341320e+02
1.180000e-06	-2.890301e-06	-1.993852e-09	-2.051293e+01	-1.338322e+02
1.190000e-06	-2.851485e-06	-1.993566e-09	-2.023744e+01	-1.335254e+02
1.200000e-06	-2.812493e-06	-1.991107e-09	-1.996071e+01	-1.332114e+02
1.210000e-06	-2.773247e-06	-1.982351e-09	-1.968217e+01	-1.328900e+02
1.220000e-06	-2.733758e-06	-1.974673e-09	-1.940191e+01	-1.325611e+02
1.230000e-06	-2.694105e-06	-1.968476e-09	-1.912049e+01	-1.322245e+02
1.240000e-06	-2.654318e-06	-1.962508e-09	-1.883812e+01	-1.318802e+02
1.250000e-06	-2.614423e-06	-1.954579e-09	-1.855497e+01	-1.315281e+02
1.260000e-06	-2.574424e-06	-1.948495e-09	-1.827109e+01	-1.311683e+02
1.270000e-06	-2.534355e-06	-1.945106e-09	-1.798672e+01	-1.308007e+02
1.280000e-06	-2.494185e-06	-1.941049e-09	-1.770162e+01	-1.304252e+02
1.290000e-06	-2.453927e-06	-1.935187e-09	-1.741591e+01	-1.300420e+02
1.300000e-06	-2.413562e-06	-1.926480e-09	-1.712943e+01	-1.296510e+02
1.310000e-06	-2.373004e-06	-1.918100e-09	-1.684159e+01	-1.292523e+02
1.320000e-06	-2.332154e-06	-1.911172e-09	-1.655167e+01	-1.288459e+02
1.330000e-06	-2.291012e-06	-1.905249e-09	-1.625968e+01	-1.284319e+02
1.340000e-06	-2.249723e-06	-1.900370e-09	-1.596664e+01	-1.280103e+02
1.350000e-06	-2.208172e-06	-1.895047e-09	-1.567175e+01	-1.275812e+02
1.360000e-06	-2.166220e-06	-1.887724e-09	-1.537401e+01	-1.271447e+02
1.370000e-06	-2.124009e-06	-1.878753e-09	-1.507443e+01	-1.267006e+02
1.380000e-06	-2.081637e-06	-1.869129e-09	-1.477371e+01	-1.262491e+02
1.390000e-06	-2.038968e-06	-1.861838e-09	-1.447088e+01	-1.257901e+02
1.400000e-06	-1.996025e-06	-1.856748e-09	-1.416610e+01	-1.253237e+02
1.410000e-06	-1.952865e-06	-1.854184e-09	-1.385979e+01	-1.248496e+02
1.420000e-06	-1.909484e-06	-1.851671e-09	-1.355191e+01	-1.243680e+02
1.430000e-06	-1.865925e-06	-1.846317e-09	-1.324277e+01	-1.238786e+02
1.440000e-06	-1.822234e-06	-1.834851e-09	-1.293268e+01	-1.233813e+02
1.450000e-06	-1.778457e-06	-1.822159e-09	-1.262199e+01	-1.228758e+02
1.460000e-06	-1.734588e-06	-1.812171e-09	-1.231064e+01	-1.223621e+02
1.470000e-06	-1.690643e-06	-1.804319e-09	-1.199876e+01	-1.218397e+02
1.480000e-06	-1.646643e-06	-1.796274e-09	-1.168648e+01	-1.213083e+02
1.490000e-06	-1.602592e-06	-1.789785e-09	-1.137385e+01	-1.207677e+02
1.500000e-06	-1.558458e-06	-1.786318e-09	-1.106063e+01	-1.202173e+02
1.510000e-06	-1.514276e-06	-1.782577e-09	-1.074706e+01	-1.196566e+02
1.520000e-06	-1.470100e-06	-1.771926e-09	-1.043353e+01	-1.190852e+02
1.530000e-06	-1.425862e-06	-1.757171e-09	-1.011957e+01	-1.185025e+02
1.540000e-06	-1.381552e-06	-1.745979e-09	-9.805095e+00	-1.179077e+02
1.550000e-06	-1.337255e-06	-1.739219e-09	-9.490708e+00	-1.173004e+02
1.560000e-06	-1.292937e-06	-1.731724e-09	-9.176177e+00	-1.166797e+02
1.570000e-06	-1.248471e-06	-1.722777e-09	-8.860596e+00	-1.160448e+02
1.580000e-06	-1.203803e-06	-1.714065e-09	-8.543580e+00	-1.153950e+02
1.590000e-06	-1.159036e-06	-1.706078e-09	-8.225859e+00	-1.147295e+02
1.600000e-06	-1.114245e-06	-1.694538e-09	-7.907975e+00	-1.140473e+02
1.610000e-06	-1.069308e-06	-1.678485e-09	-7.589051e+00	-1.133476e+02
1.620000e-06	-1.024236e-06	-1.661405e-09	-7.269164e+00	-1.126294e+02
1.630000e-06	-9.791140e-07	-1.648247e-09	-6.948927e+00	-1.118919e+02
1.640000e-06	-9.339111e-07	-1.636024e-09	-6.628115e+00	-1.111340e+02
1.650000e-06	-8.886463e-07	-1.623336e-09	-6.306863e+00	-1.103548e+02
1.660000e-06	-8.432708e-07	-1.614267e-09	-5.984826e+00	-1.095534e+02
1.670000e-06	-7.978230e-07	-1.606292e-09	-5.662276e+00	-1.087289e+02
1.680000e-06	-7.523711e-07	-1.593645e-09	-5.339697e+00	-1.078801e+02
1.690000e-06	-7.068655e-07	-1.574991e-09	-5.016736e+00	-1.070063e+02
1.700000e-06	-6.613267e-07	-1.553998e-09	-4.693541e+00	-1.061065e+02
1.710000e-06	-6.157750e-07	-1.533880e-09	-4.370253e+00	-1.051796e+02
1.720000e-06	-5.701854e-07	-1.517694e-09	-4.046696e+00	-1.042249e+02
1.730000e-06	-5.244788e-07	-1.503305e-09	-3.722309e+00	-1.032414e+02
1.740000e-06	-4.787014e-07	-1.490551e-09	-3.397420e+00	-1.022280e+02
1.750000e-06	-4.329455e-07	-1.480696e-09	-3.072683e+00	-1.011840e+02
1.760000e-06	-3.871110e-07	-1.470008e-09	-2.747388e+00	-1.001084e+02
1.770000e-06	-3.411886e-07	-1.452664e-09	-2.421469e+00	-9.900018e+01
1.780000e-06	-2.952386e-07	-1.428920e-09	-2.095355e+00	-9.785837e+01
1.790000e-06	-2.493037e-07	-1.405326e-09	-1.769348e+00	-9.668196e+01
1.800000e-06	-2.033989e-07	-1.385377e-09	-1.443554e+00	-9.546989e+01
1.810000e-06	-1.574860e-07	-1.368848e-09	-1.117703e+00	-9.422106e+01
1.820000e-06	-1.115901e-07	-1.353121e-09	-7.919729e-01	-9.293429e+01
1.830000e-06	-6.571076e-08	-1.335068e-09	-4.663597e-01	-9.160835e+01
1.840000e-06	-1.980521e-08	-1.315930e-09	-1.405607e-01	-9.024193e+01
1.850000e-06	2.607772e-08	-1.293924e-09	1.850777e-01	-8.883363e+01
1.860000e-06	7.196747e-08	-1.269438e-09	5.107645e-01	-8.738196e+01
1.870000e-06	1.178931e-07	-1.243271e-09	8.367059e-01	-8.588536e+01
1.880000e-06	1.637185e-07	-1.220724e-09	1.161936e+00	-8.434214e+01
1.890000e-06	2.094716e-07	-1.200760e-09	1.486653e+00	-8.275055e+01
1.900000e-06	2.553165e-07	-1.177669e-09	1.812021e+00	-8.110873e+01
1.910000e-06	3.011459e-07	-1.151750e-09	2.137280e+00	-7.941473e+01
1.920000e-06	3.469052e-07	-1.125580e-09	2.462041e+00	-7.766653e+01
1.930000e-06	3.926836e-07	-1.099726e-09	2.786937e+00	-7.586203e+01
1.940000e-06	4.384564e-07	-1.072863e-09	3.111794e+00	-7.399910e+01
1.950000e-06	4.842453e-07	-1.044561e-09	3.436766e+00	-7.207557e+01
1.960000e-06	5.300246e-07	-1.017167e-09	3.761669e+00	-7.008923e+01
1.970000e-06	5.757373e-07	-9.903316e-10	4.086099e+00	-6.803792e+01
1.980000e-06	6.213480e-07	-9.613641e-10	4.409805e+00	-6.591950e+01
1.990000e-06	6.668847e-07	-9.278696e-10	4.732986e+00	-6.373190e+01
2.000000e-06	7.124028e-07	-8.930128e-10	5.056035e+00	-6.147315e+01
2.010000e-06	7.578826e-07	-8.602252e-10	5.378813e+00	-5.914141e+01
2.020000e-06	8.032225e-07	-8.290064e-10	5.700597e+00	-5.673502e+01
2.030000e-06	8.484611e-07	-7.961128e-10	6.021663e+00	-5.425254e+01
2.040000e-06	8.937511e-07	-7.601754e-10	6.343093e+00	-5.169275e+01
2.050000e-06	9.390443e-07	-7.241678e-10	6.664546e+00	-4.905473e+01
2.060000e-06	9.842193e-07	-6.882127e-10	6.985160e+00	-4.633786e+01
2.070000e-06	1.029269e-06	-6.491980e-10	7.304888e+00	-4.354189e+01
2.080000e-06	1.074235e-06	-6.056544e-10	7.624017e+00	-4.066695e+01
2.090000e-06	1.119094e-06	-5.603756e-10	7.942388e+00	-3.771358e+01
2.100000e-06	1.163886e-06	-5.150956e-10	8.260280e+00	-3.468277e+01
2.110000e-06	1.208636e-06	-4.704420e-10	8.577881e+00	-3.157597e+01
2.120000e-06	1.253268e-06	-4.245934e-10	8.894642e+00	-2.839510e+01
2.130000e-06	1.297814e-06	-3.783919e-10	9.210791e+00	-2.514258e+01
2.140000e-06	1.342239e-06	-3.330323e-10	9.526083e+00	-2.182135e+01
2.150000e-06	1.386511e-06	-2.861331e-10	9.840288e+00	-1.843481e+01
2.160000e-06	1.430772e-06	-2.354698e-10	1.015442e+01	-1.498689e+01
2.170000e-06	1.475013e-06	-1.806956e-10	1.046840e+01	-1.148200e+01
2.180000e-06	1.519179e-06	-1.241822e-10	1.078186e+01	-7.924997e+00
2.190000e-06	1.563258e-06	-6.908544e-11	1.109469e+01	-4.321199e+00
2.200000e-06	1.607214e-06	-1.443529e-11	1.140665e+01	-6.763284e-01
2.210000e-06	1.651151e-06	4.255656e-11	1.171848e+01	3.003513e+00
2.220000e-06	1.695084e-06	1.026547e-10	1.203028e+01	6.711892e+00
2.230000e-06	1.738888e-06	1.588409e-10	1.234116e+01	1.044208e+01
2.240000e-06	1.782582e-06	2.090886e-10	1.265126e+01	1.418713e+01
2.250000e-06	1.826240e-06	2.603252e-10	1.296112e+01	1.793989e+01
2.260000e-06	1.869831e-06	3.169865e-10	1.327048e+01	2.169310e+01
2.270000e-06	1.913329e-06	3.763981e-10	1.357920e+01	2.543943e+01
2.280000e-06	1.956679e-06	4.345578e-10	1.388686e+01	2.917155e+01
2.290000e-06	1.999754e-06	4.930935e-10	1.419257e+01	3.288218e+01
2.300000e-06	2.042591e-06	5.537161e-10	1.449659e+01	3.656418e+01
2.310000e-06	2.085243e-06	6.135625e-10	1.479930e+01	4.021057e+01
2.320000e-06	2.127599e-06	6.647007e-10	1.509990e+01	4.381463e+01
2.330000e-06	2.169649e-06	7.088602e-10	1.539834e+01	4.736993e+01
2.340000e-06	2.211528e-06	7.542087e-10	1.569556e+01	5.087037e+01
2.350000e-06	2.253142e-06	8.027887e-10	1.599091e+01	5.431027e+01
2.360000e-06	2.294373e-06	8.540312e-10	1.628353e+01	5.768436e+01
2.370000e-06	2.335370e-06	9.065385e-10	1.657449e+01	6.098787e+01
2.380000e-06	2.376173e-06	9.593726e-10	1.686408e+01	6.421649e+01
2.390000e-06	2.416703e-06	1.009755e-09	1.715172e+01	6.736648e+01
2.400000e-06	2.457058e-06	1.054218e-09	1.743813e+01	7.043460e+01
2.410000e-06	2.497321e-06	1.093111e-09	1.772389e+01	7.341818e+01
2.420000e-06	2.537453e-06	1.130959e-09	1.800870e+01	7.631510e+01
2.430000e-06	2.577456e-06	1.169186e-09	1.829261e+01	7.912378e+01
2.440000e-06	2.617349e-06	1.207935e-09	1.857574e+01	8.184318e+01
2.450000e-06	2.657204e-06	1.246198e-09	1.885860e+01	8.447277e+01
2.460000e-06	2.696990e-06	1.284280e-09	1.914097e+01	8.701252e+01
2.470000e-06	2.736620e-06	1.322424e-09	1.942223e+01	8.946286e+01
2.480000e-06	2.776006e-06	1.357349e-09	1.970175e+01	9.182465e+01
2.490000e-06	2.815171e-06	1.387288e-09	1.997971e+01	9.409916e+01
2.500000e-06	2.854196e-06	1.414496e-09	2.025668e+01	9.628798e+01
2.510000e-06	2.893028e-06	1.445238e-09	2.053227e+01	9.839304e+01
2.520000e-06	2.931528e-06	1.477731e-09	2.080552e+01	1.004165e+02
2.530000e-06	2.969694e-06	1.508032e-09	2.107639e+01	1.023608e+02
2.540000e-06	3.007685e-06	1.536334e-09	2.134602e+01	1.042285e+02
2.550000e-06	3.045510e-06	1.565520e-09	2.161446e+01	1.060223e+02
2.560000e-06	3.083244e-06	1.592321e-09	2.188227e+01	1.077450e+02
2.570000e-06	3.120914e-06	1.610643e-09	2.214962e+01	1.093994e+02
2.580000e-06	3.158362e-06	1.626912e-09	2.241539e+01	1.109884e+02
2.590000e-06	3.195475e-06	1.648416e-09	2.267879e+01	1.125147e+02
2.600000e-06	3.232349e-06	1.672567e-09	2.294049e+01	1.139812e+02
2.610000e-06	3.268993e-06	1.694581e-09	2.320056e+01	1.153904e+02
2.620000e-06	3.305340e-06	1.713500e-09	2.345852e+01	1.167450e+02
2.630000e-06	3.341510e-06	1.732024e-09	2.371523e+01	1.180474e+02
2.640000e-06	3.377583e-06	1.748176e-09	2.397124e+01	1.192998e+02
2.650000e-06	3.413573e-06	1.757950e-09	2.422667e+01	1.205044e+02
2.660000e-06	3.449448e-06	1.765152e-09	2.448128e+01	1.216632e+02
2.670000e-06	3.485124e-06	1.778592e-09	2.473448e+01	1.227780e+02
2.680000e-06	3.520574e-06	1.798241e-09	2.498607e+01	1.238505e+02
2.690000e-06	3.555785e-06	1.816418e-09	2.523597e+01	1.248823e+02
2.700000e-06	3.590614e-06	1.832274e-09	2.548316e+01	1.258747e+02
2.710000e-06	3.625062e-06	1.848687e-09	2.572764e+01	1.268291e+02
2.720000e-06	3.659107e-06	1.865931e-09	2.596926e+01	1.277467e+02
2.730000e-06	3.692681e-06	1.877761e-09	2.620754e+01	1.286285e+02
2.740000e-06	3.725877e-06	1.882500e-09	2.644314e+01	1.294757e+02
2.750000e-06	3.758660e-06	1.887158e-09	2.667580e+01	1.302891e+02
2.760000e-06	3.791081e-06	1.898741e-09	2.690590e+01	1.310698e+02
2.770000e-06	3.823277e-06	1.912048e-09	2.713440e+01	1.318186e+02
2.780000e-06	3.855330e-06	1.922821e-09	2.736189e+01	1.325366e+02
2.790000e-06	3.887242e-06	1.934435e-09	2.758838e+01	1.332245e+02
2.800000e-06	3.918990e-06	1.949173e-09	2.781369e+01	1.338834e+02
2.810000e-06	3.950488e-06	1.963453e-09	2.803724e+01	1.345142e+02
2.820000e-06	3.981653e-06	1.970491e-09	2.825842e+01	1.351179e+02
2.830000e-06	4.012514e-06	1.971794e-09	2.847745e+01	1.356956e+02
2.840000e-06	4.043039e-06	1.975224e-09	2.869408e+01	1.362484e+02
2.850000e-06	4.073238e-06	1.983405e-09	2.890842e+01	1.367773e+02
2.860000e-06	4.103186e-06	1.993719e-09	2.912096e+01	1.372834e+02
2.870000e-06	4.132951e-06	2.004046e-09	2.933221e+01	1.377680e+02
2.880000e-06	4.162514e-06	2.015254e-09	2.954202e+01	1.382322e+02
2.890000e-06	4.191784e-06	2.025921e-09	2.974975e+01	1.386773e+02
2.900000e-06	4.220770e-06	2.032028e-09	2.995547e+01	1.391043e+02
