# Temperatura_=_-1.2
# Concentracion g/m^3_=_4090.0
# C_Vs_to_Am_M_A/Vsm_=_65563218390.804596
# pendiente_HvsI_1/m_=_3716.3
# ordenada_HvsI_A/m_=_1297.0
# frecuencia_Hz_=_135063.09725939218

Tiempo_(s)	Campo_(V.s)	Magnetizacion_(V.s)	Campo_(kA/m)	Magnetizacion_(A/m)
0.000000e+00	-5.418804e-06	-2.595967e-09	-3.839560e+01	-1.683958e+02
1.000000e-08	-5.418975e-06	-2.595354e-09	-3.839681e+01	-1.682794e+02
2.000000e-08	-5.419018e-06	-2.598231e-09	-3.839712e+01	-1.681647e+02
3.000000e-08	-5.418885e-06	-2.601070e-09	-3.839617e+01	-1.680538e+02
4.000000e-08	-5.418351e-06	-2.598858e-09	-3.839239e+01	-1.679487e+02
5.000000e-08	-5.417290e-06	-2.593709e-09	-3.838487e+01	-1.678512e+02
6.000000e-08	-5.415642e-06	-2.592797e-09	-3.837320e+01	-1.677634e+02
7.000000e-08	-5.413384e-06	-2.598743e-09	-3.835719e+01	-1.676868e+02
8.000000e-08	-5.410479e-06	-2.596583e-09	-3.833661e+01	-1.676232e+02
9.000000e-08	-5.407007e-06	-2.572339e-09	-3.831201e+01	-1.675737e+02
1.000000e-07	-5.403113e-06	-2.600388e-09	-3.828442e+01	-1.675395e+02
1.100000e-07	-5.398898e-06	-2.660765e-09	-3.825455e+01	-1.675215e+02
1.200000e-07	-5.394549e-06	-2.581401e-09	-3.822374e+01	-1.675203e+02
1.300000e-07	-5.390024e-06	-2.538758e-09	-3.819167e+01	-1.675361e+02
1.400000e-07	-5.385109e-06	-2.568837e-09	-3.815685e+01	-1.675690e+02
1.500000e-07	-5.379745e-06	-2.658058e-09	-3.811884e+01	-1.676186e+02
1.600000e-07	-5.374086e-06	-2.591550e-09	-3.807874e+01	-1.676844e+02
1.700000e-07	-5.368094e-06	-2.472508e-09	-3.803629e+01	-1.677654e+02
1.800000e-07	-5.361547e-06	-2.595527e-09	-3.798990e+01	-1.678605e+02
1.900000e-07	-5.354474e-06	-2.660348e-09	-3.793978e+01	-1.679682e+02
2.000000e-07	-5.347135e-06	-2.602814e-09	-3.788778e+01	-1.680868e+02
2.100000e-07	-5.339624e-06	-2.495026e-09	-3.783456e+01	-1.682144e+02
2.200000e-07	-5.331869e-06	-2.627392e-09	-3.777961e+01	-1.683490e+02
2.300000e-07	-5.323849e-06	-2.652135e-09	-3.772278e+01	-1.684882e+02
2.400000e-07	-5.315585e-06	-2.577652e-09	-3.766423e+01	-1.686299e+02
2.500000e-07	-5.306867e-06	-2.561620e-09	-3.760246e+01	-1.687715e+02
2.600000e-07	-5.297457e-06	-2.684085e-09	-3.753578e+01	-1.689106e+02
2.700000e-07	-5.287232e-06	-2.658993e-09	-3.746333e+01	-1.690449e+02
2.800000e-07	-5.276366e-06	-2.588788e-09	-3.738633e+01	-1.691719e+02
2.900000e-07	-5.265068e-06	-2.640492e-09	-3.730628e+01	-1.692893e+02
3.000000e-07	-5.253411e-06	-2.685168e-09	-3.722369e+01	-1.693950e+02
3.100000e-07	-5.241405e-06	-2.602872e-09	-3.713861e+01	-1.694871e+02
3.200000e-07	-5.228979e-06	-2.578201e-09	-3.705057e+01	-1.695636e+02
3.300000e-07	-5.216161e-06	-2.679572e-09	-3.695975e+01	-1.696231e+02
3.400000e-07	-5.203013e-06	-2.644248e-09	-3.686659e+01	-1.696641e+02
3.500000e-07	-5.189517e-06	-2.576132e-09	-3.677096e+01	-1.696857e+02
3.600000e-07	-5.175649e-06	-2.619333e-09	-3.667269e+01	-1.696869e+02
3.700000e-07	-5.161430e-06	-2.668283e-09	-3.657194e+01	-1.696673e+02
3.800000e-07	-5.146794e-06	-2.582968e-09	-3.646824e+01	-1.696266e+02
3.900000e-07	-5.131607e-06	-2.581970e-09	-3.636063e+01	-1.695649e+02
4.000000e-07	-5.115707e-06	-2.627271e-09	-3.624796e+01	-1.694824e+02
4.100000e-07	-5.099243e-06	-2.605623e-09	-3.613131e+01	-1.693797e+02
4.200000e-07	-5.082510e-06	-2.561101e-09	-3.601274e+01	-1.692575e+02
4.300000e-07	-5.065466e-06	-2.619639e-09	-3.589198e+01	-1.691169e+02
4.400000e-07	-5.048113e-06	-2.601846e-09	-3.576902e+01	-1.689590e+02
4.500000e-07	-5.030528e-06	-2.573789e-09	-3.564442e+01	-1.687852e+02
4.600000e-07	-5.012581e-06	-2.587643e-09	-3.551726e+01	-1.685969e+02
4.700000e-07	-4.994240e-06	-2.616349e-09	-3.538730e+01	-1.683958e+02
4.800000e-07	-4.975479e-06	-2.563939e-09	-3.525436e+01	-1.681834e+02
4.900000e-07	-4.956354e-06	-2.570803e-09	-3.511885e+01	-1.679614e+02
5.000000e-07	-4.936903e-06	-2.579165e-09	-3.498103e+01	-1.677314e+02
5.100000e-07	-4.917177e-06	-2.569317e-09	-3.484126e+01	-1.674951e+02
5.200000e-07	-4.897283e-06	-2.552151e-09	-3.470030e+01	-1.672541e+02
5.300000e-07	-4.877174e-06	-2.572009e-09	-3.455782e+01	-1.670097e+02
5.400000e-07	-4.856687e-06	-2.557494e-09	-3.441265e+01	-1.667634e+02
5.500000e-07	-4.835853e-06	-2.558086e-09	-3.426502e+01	-1.665163e+02
5.600000e-07	-4.814687e-06	-2.560735e-09	-3.411505e+01	-1.662695e+02
5.700000e-07	-4.793137e-06	-2.548558e-09	-3.396236e+01	-1.660239e+02
5.800000e-07	-4.771327e-06	-2.531657e-09	-3.380782e+01	-1.657803e+02
5.900000e-07	-4.749289e-06	-2.537219e-09	-3.365167e+01	-1.655390e+02
6.000000e-07	-4.726915e-06	-2.531957e-09	-3.349314e+01	-1.653006e+02
6.100000e-07	-4.704165e-06	-2.523181e-09	-3.333194e+01	-1.650651e+02
6.200000e-07	-4.681033e-06	-2.523257e-09	-3.316803e+01	-1.648326e+02
6.300000e-07	-4.657615e-06	-2.513846e-09	-3.300210e+01	-1.646030e+02
6.400000e-07	-4.633958e-06	-2.513763e-09	-3.283447e+01	-1.643758e+02
6.500000e-07	-4.610071e-06	-2.511754e-09	-3.266522e+01	-1.641507e+02
6.600000e-07	-4.585991e-06	-2.504658e-09	-3.249460e+01	-1.639271e+02
6.700000e-07	-4.561584e-06	-2.489938e-09	-3.232166e+01	-1.637044e+02
6.800000e-07	-4.536722e-06	-2.495438e-09	-3.214550e+01	-1.634819e+02
6.900000e-07	-4.511332e-06	-2.487548e-09	-3.196560e+01	-1.632588e+02
7.000000e-07	-4.485413e-06	-2.484170e-09	-3.178194e+01	-1.630344e+02
7.100000e-07	-4.458957e-06	-2.476259e-09	-3.159449e+01	-1.628080e+02
7.200000e-07	-4.432062e-06	-2.478180e-09	-3.140391e+01	-1.625786e+02
7.300000e-07	-4.404783e-06	-2.468482e-09	-3.121063e+01	-1.623457e+02
7.400000e-07	-4.377242e-06	-2.469763e-09	-3.101548e+01	-1.621087e+02
7.500000e-07	-4.349543e-06	-2.455908e-09	-3.081922e+01	-1.618668e+02
7.600000e-07	-4.321608e-06	-2.455345e-09	-3.062129e+01	-1.616196e+02
7.700000e-07	-4.293487e-06	-2.450456e-09	-3.042203e+01	-1.613668e+02
7.800000e-07	-4.265210e-06	-2.450162e-09	-3.022167e+01	-1.611080e+02
7.900000e-07	-4.236618e-06	-2.437160e-09	-3.001908e+01	-1.608431e+02
8.000000e-07	-4.207581e-06	-2.432799e-09	-2.981333e+01	-1.605720e+02
8.100000e-07	-4.178186e-06	-2.422856e-09	-2.960505e+01	-1.602947e+02
8.200000e-07	-4.148601e-06	-2.420862e-09	-2.939542e+01	-1.600114e+02
8.300000e-07	-4.118779e-06	-2.413628e-09	-2.918411e+01	-1.597223e+02
8.400000e-07	-4.088665e-06	-2.410324e-09	-2.897074e+01	-1.594277e+02
8.500000e-07	-4.058252e-06	-2.407132e-09	-2.875524e+01	-1.591280e+02
8.600000e-07	-4.027615e-06	-2.409254e-09	-2.853816e+01	-1.588237e+02
8.700000e-07	-3.996786e-06	-2.401385e-09	-2.831972e+01	-1.585153e+02
8.800000e-07	-3.965682e-06	-2.388401e-09	-2.809932e+01	-1.582033e+02
8.900000e-07	-3.934339e-06	-2.375749e-09	-2.787724e+01	-1.578883e+02
9.000000e-07	-3.902731e-06	-2.372982e-09	-2.765327e+01	-1.575708e+02
9.100000e-07	-3.870883e-06	-2.372483e-09	-2.742762e+01	-1.572513e+02
9.200000e-07	-3.838911e-06	-2.366804e-09	-2.720108e+01	-1.569303e+02
9.300000e-07	-3.806835e-06	-2.361603e-09	-2.697380e+01	-1.566083e+02
9.400000e-07	-3.774473e-06	-2.356383e-09	-2.674449e+01	-1.562857e+02
9.500000e-07	-3.741740e-06	-2.352071e-09	-2.651255e+01	-1.559627e+02
9.600000e-07	-3.708578e-06	-2.339540e-09	-2.627758e+01	-1.556395e+02
9.700000e-07	-3.674934e-06	-2.330166e-09	-2.603919e+01	-1.553164e+02
9.800000e-07	-3.640877e-06	-2.323537e-09	-2.579788e+01	-1.549933e+02
9.900000e-07	-3.606416e-06	-2.324742e-09	-2.555370e+01	-1.546703e+02
1.000000e-06	-3.571643e-06	-2.316644e-09	-2.530731e+01	-1.543471e+02
1.010000e-06	-3.536542e-06	-2.309825e-09	-2.505860e+01	-1.540235e+02
1.020000e-06	-3.501121e-06	-2.302510e-09	-2.480762e+01	-1.536992e+02
1.030000e-06	-3.465483e-06	-2.300000e-09	-2.455510e+01	-1.533738e+02
1.040000e-06	-3.429665e-06	-2.290100e-09	-2.430131e+01	-1.530467e+02
1.050000e-06	-3.393787e-06	-2.284954e-09	-2.404709e+01	-1.527175e+02
1.060000e-06	-3.357794e-06	-2.278346e-09	-2.379206e+01	-1.523856e+02
1.070000e-06	-3.321565e-06	-2.277901e-09	-2.353536e+01	-1.520502e+02
1.080000e-06	-3.285087e-06	-2.270384e-09	-2.327689e+01	-1.517107e+02
1.090000e-06	-3.248415e-06	-2.259953e-09	-2.301704e+01	-1.513665e+02
1.100000e-06	-3.211487e-06	-2.248546e-09	-2.275539e+01	-1.510168e+02
1.110000e-06	-3.174228e-06	-2.246041e-09	-2.249138e+01	-1.506609e+02
1.120000e-06	-3.136763e-06	-2.241418e-09	-2.222592e+01	-1.502982e+02
1.130000e-06	-3.099109e-06	-2.234981e-09	-2.195912e+01	-1.499280e+02
1.140000e-06	-3.061255e-06	-2.227896e-09	-2.169090e+01	-1.495498e+02
1.150000e-06	-3.023185e-06	-2.227189e-09	-2.142115e+01	-1.491630e+02
1.160000e-06	-2.984974e-06	-2.219971e-09	-2.115040e+01	-1.487671e+02
1.170000e-06	-2.946628e-06	-2.205210e-09	-2.087869e+01	-1.483618e+02
1.180000e-06	-2.908014e-06	-2.190598e-09	-2.060509e+01	-1.479467e+02
1.190000e-06	-2.869085e-06	-2.185240e-09	-2.032925e+01	-1.475215e+02
1.200000e-06	-2.829930e-06	-2.183585e-09	-2.005181e+01	-1.470861e+02
1.210000e-06	-2.790640e-06	-2.176695e-09	-1.977342e+01	-1.466402e+02
1.220000e-06	-2.751208e-06	-2.169620e-09	-1.949402e+01	-1.461839e+02
1.230000e-06	-2.711598e-06	-2.164784e-09	-1.921336e+01	-1.457172e+02
1.240000e-06	-2.671803e-06	-2.159446e-09	-1.893139e+01	-1.452401e+02
1.250000e-06	-2.631918e-06	-2.145199e-09	-1.864878e+01	-1.447528e+02
1.260000e-06	-2.592001e-06	-2.129829e-09	-1.836594e+01	-1.442553e+02
1.270000e-06	-2.551979e-06	-2.118383e-09	-1.808236e+01	-1.437480e+02
1.280000e-06	-2.511782e-06	-2.114595e-09	-1.779754e+01	-1.432310e+02
1.290000e-06	-2.471463e-06	-2.107603e-09	-1.751186e+01	-1.427046e+02
1.300000e-06	-2.431016e-06	-2.099168e-09	-1.722526e+01	-1.421691e+02
1.310000e-06	-2.390359e-06	-2.090495e-09	-1.693718e+01	-1.416246e+02
1.320000e-06	-2.349383e-06	-2.083787e-09	-1.664684e+01	-1.410714e+02
1.330000e-06	-2.308024e-06	-2.070440e-09	-1.635379e+01	-1.405098e+02
1.340000e-06	-2.266457e-06	-2.055067e-09	-1.605926e+01	-1.399399e+02
1.350000e-06	-2.224745e-06	-2.041275e-09	-1.576371e+01	-1.393620e+02
1.360000e-06	-2.182767e-06	-2.035124e-09	-1.546626e+01	-1.387760e+02
1.370000e-06	-2.140485e-06	-2.029257e-09	-1.516667e+01	-1.381821e+02
1.380000e-06	-2.097905e-06	-2.019206e-09	-1.486496e+01	-1.375804e+02
1.390000e-06	-2.055138e-06	-2.005567e-09	-1.456193e+01	-1.369707e+02
1.400000e-06	-2.012228e-06	-1.996885e-09	-1.425789e+01	-1.363531e+02
1.410000e-06	-1.969067e-06	-1.986676e-09	-1.395206e+01	-1.357273e+02
1.420000e-06	-1.925635e-06	-1.971611e-09	-1.364432e+01	-1.350932e+02
1.430000e-06	-1.882095e-06	-1.955564e-09	-1.333581e+01	-1.344505e+02
1.440000e-06	-1.838513e-06	-1.946428e-09	-1.302701e+01	-1.337990e+02
1.450000e-06	-1.794825e-06	-1.940315e-09	-1.271745e+01	-1.331382e+02
1.460000e-06	-1.751011e-06	-1.931127e-09	-1.240700e+01	-1.324678e+02
1.470000e-06	-1.707140e-06	-1.917451e-09	-1.209615e+01	-1.317873e+02
1.480000e-06	-1.663221e-06	-1.904272e-09	-1.178496e+01	-1.310962e+02
1.490000e-06	-1.619211e-06	-1.894251e-09	-1.147312e+01	-1.303939e+02
1.500000e-06	-1.575141e-06	-1.883037e-09	-1.116085e+01	-1.296800e+02
1.510000e-06	-1.531005e-06	-1.867168e-09	-1.084812e+01	-1.289537e+02
1.520000e-06	-1.486765e-06	-1.851553e-09	-1.053466e+01	-1.282144e+02
1.530000e-06	-1.442403e-06	-1.842033e-09	-1.022032e+01	-1.274614e+02
1.540000e-06	-1.397937e-06	-1.834417e-09	-9.905252e+00	-1.266940e+02
1.550000e-06	-1.353451e-06	-1.822617e-09	-9.590043e+00	-1.259116e+02
1.560000e-06	-1.308941e-06	-1.808230e-09	-9.274664e+00	-1.251132e+02
1.570000e-06	-1.264350e-06	-1.796914e-09	-8.958708e+00	-1.242981e+02
1.580000e-06	-1.219588e-06	-1.783698e-09	-8.641540e+00	-1.234655e+02
1.590000e-06	-1.174621e-06	-1.768828e-09	-8.322917e+00	-1.226145e+02
1.600000e-06	-1.129637e-06	-1.753190e-09	-8.004183e+00	-1.217444e+02
1.610000e-06	-1.084561e-06	-1.739675e-09	-7.684788e+00	-1.208542e+02
1.620000e-06	-1.039351e-06	-1.724168e-09	-7.364448e+00	-1.199429e+02
1.630000e-06	-9.940923e-07	-1.706352e-09	-7.043763e+00	-1.190097e+02
1.640000e-06	-9.487355e-07	-1.687401e-09	-6.722382e+00	-1.180536e+02
1.650000e-06	-9.032733e-07	-1.672909e-09	-6.400253e+00	-1.170737e+02
1.660000e-06	-8.577333e-07	-1.663167e-09	-6.077574e+00	-1.160688e+02
1.670000e-06	-8.121715e-07	-1.654201e-09	-5.754741e+00	-1.150381e+02
1.680000e-06	-7.666505e-07	-1.641059e-09	-5.432196e+00	-1.139805e+02
1.690000e-06	-7.210464e-07	-1.622078e-09	-5.109062e+00	-1.128948e+02
1.700000e-06	-6.753399e-07	-1.599315e-09	-4.785203e+00	-1.117801e+02
1.710000e-06	-6.296874e-07	-1.573766e-09	-4.461727e+00	-1.106352e+02
1.720000e-06	-5.839971e-07	-1.549111e-09	-4.137983e+00	-1.094591e+02
1.730000e-06	-5.382704e-07	-1.533510e-09	-3.813981e+00	-1.082506e+02
1.740000e-06	-4.924804e-07	-1.523598e-09	-3.489530e+00	-1.070086e+02
1.750000e-06	-4.466038e-07	-1.513569e-09	-3.164466e+00	-1.057320e+02
1.760000e-06	-4.007926e-07	-1.500833e-09	-2.839865e+00	-1.044197e+02
1.770000e-06	-3.549926e-07	-1.482941e-09	-2.515343e+00	-1.030706e+02
1.780000e-06	-3.090909e-07	-1.457708e-09	-2.190102e+00	-1.016836e+02
1.790000e-06	-2.631550e-07	-1.427304e-09	-1.864617e+00	-1.002575e+02
1.800000e-06	-2.171688e-07	-1.396324e-09	-1.538776e+00	-9.879147e+01
1.810000e-06	-1.711712e-07	-1.371810e-09	-1.212854e+00	-9.728429e+01
1.820000e-06	-1.252357e-07	-1.355305e-09	-8.873732e-01	-9.573500e+01
1.830000e-06	-7.931596e-08	-1.340132e-09	-5.620029e-01	-9.414261e+01
1.840000e-06	-3.340206e-08	-1.320013e-09	-2.366744e-01	-9.250617e+01
1.850000e-06	1.248453e-08	-1.295385e-09	8.846065e-02	-9.082475e+01
1.860000e-06	5.838329e-08	-1.270823e-09	4.136819e-01	-8.909747e+01
1.870000e-06	1.043003e-07	-1.243712e-09	7.390323e-01	-8.732348e+01
1.880000e-06	1.502261e-07	-1.211883e-09	1.064445e+00	-8.550196e+01
1.890000e-06	1.961685e-07	-1.179561e-09	1.389976e+00	-8.363214e+01
1.900000e-06	2.420855e-07	-1.151886e-09	1.715326e+00	-8.171329e+01
1.910000e-06	2.880083e-07	-1.125334e-09	2.040718e+00	-7.974469e+01
1.920000e-06	3.338919e-07	-1.096822e-09	2.365832e+00	-7.772570e+01
1.930000e-06	3.796873e-07	-1.067852e-09	2.690321e+00	-7.565569e+01
1.940000e-06	4.254737e-07	-1.040199e-09	3.014746e+00	-7.353409e+01
1.950000e-06	4.712544e-07	-1.011620e-09	3.339131e+00	-7.136035e+01
1.960000e-06	5.169802e-07	-9.774533e-10	3.663127e+00	-6.913397e+01
1.970000e-06	5.626872e-07	-9.387001e-10	3.986989e+00	-6.685450e+01
1.980000e-06	6.083390e-07	-9.029867e-10	4.310460e+00	-6.452153e+01
1.990000e-06	6.539351e-07	-8.713687e-10	4.633537e+00	-6.213471e+01
2.000000e-06	6.995116e-07	-8.382822e-10	4.956475e+00	-5.969373e+01
2.010000e-06	7.450556e-07	-8.005298e-10	5.279182e+00	-5.719836e+01
2.020000e-06	7.906285e-07	-7.636586e-10	5.602095e+00	-5.464842e+01
2.030000e-06	8.361202e-07	-7.298203e-10	5.924432e+00	-5.204382e+01
2.040000e-06	8.814712e-07	-6.953627e-10	6.245772e+00	-4.938456e+01
2.050000e-06	9.267823e-07	-6.532945e-10	6.566829e+00	-4.667072e+01
2.060000e-06	9.720569e-07	-6.107659e-10	6.887628e+00	-4.390250e+01
2.070000e-06	1.017253e-06	-5.718986e-10	7.207869e+00	-4.108022e+01
2.080000e-06	1.062319e-06	-5.316738e-10	7.527194e+00	-3.820434e+01
2.090000e-06	1.107276e-06	-4.861180e-10	7.845743e+00	-3.527546e+01
2.100000e-06	1.152205e-06	-4.379810e-10	8.164091e+00	-3.229435e+01
2.110000e-06	1.197053e-06	-3.936530e-10	8.481865e+00	-2.926195e+01
2.120000e-06	1.241713e-06	-3.511316e-10	8.798308e+00	-2.617939e+01
2.130000e-06	1.286217e-06	-3.084301e-10	9.113649e+00	-2.304801e+01
2.140000e-06	1.330622e-06	-2.646766e-10	9.428282e+00	-1.986936e+01
2.150000e-06	1.374930e-06	-2.176590e-10	9.742231e+00	-1.664523e+01
2.160000e-06	1.419179e-06	-1.678296e-10	1.005577e+01	-1.337762e+01
2.170000e-06	1.463421e-06	-1.169851e-10	1.036925e+01	-1.006880e+01
2.180000e-06	1.507631e-06	-6.531434e-11	1.068250e+01	-6.721262e+00
2.190000e-06	1.551716e-06	-1.642993e-11	1.099487e+01	-3.337769e+00
2.200000e-06	1.595695e-06	2.959563e-11	1.130649e+01	7.867484e-02
2.210000e-06	1.639656e-06	7.723715e-11	1.161798e+01	3.524820e+00
2.220000e-06	1.683563e-06	1.285199e-10	1.192909e+01	6.997178e+00
2.230000e-06	1.727418e-06	1.827040e-10	1.223983e+01	1.049203e+01
2.240000e-06	1.771201e-06	2.380627e-10	1.255006e+01	1.400544e+01
2.250000e-06	1.814891e-06	2.921208e-10	1.285963e+01	1.753327e+01
2.260000e-06	1.858512e-06	3.451860e-10	1.316871e+01	2.107121e+01
2.270000e-06	1.902068e-06	3.973838e-10	1.347734e+01	2.461481e+01
2.280000e-06	1.945530e-06	4.475536e-10	1.378529e+01	2.815944e+01
2.290000e-06	1.988785e-06	4.968008e-10	1.409178e+01	3.170043e+01
2.300000e-06	2.031881e-06	5.483814e-10	1.439714e+01	3.523299e+01
2.310000e-06	2.074866e-06	6.030800e-10	1.470172e+01	3.875233e+01
2.320000e-06	2.117599e-06	6.580928e-10	1.500451e+01	4.225363e+01
2.330000e-06	2.160008e-06	7.116711e-10	1.530500e+01	4.573211e+01
2.340000e-06	2.202112e-06	7.643996e-10	1.560333e+01	4.918307e+01
2.350000e-06	2.243934e-06	8.127620e-10	1.589967e+01	5.260189e+01
2.360000e-06	2.285360e-06	8.567244e-10	1.619319e+01	5.598412e+01
2.370000e-06	2.326495e-06	8.994226e-10	1.648466e+01	5.932544e+01
2.380000e-06	2.367413e-06	9.441199e-10	1.677459e+01	6.262177e+01
2.390000e-06	2.408087e-06	9.924330e-10	1.706280e+01	6.586925e+01
2.400000e-06	2.448593e-06	1.041326e-09	1.734981e+01	6.906428e+01
2.410000e-06	2.488885e-06	1.088304e-09	1.763530e+01	7.220355e+01
2.420000e-06	2.529004e-06	1.134484e-09	1.791957e+01	7.528405e+01
2.430000e-06	2.569044e-06	1.178786e-09	1.820327e+01	7.830309e+01
2.440000e-06	2.608980e-06	1.218892e-09	1.848625e+01	8.125833e+01
2.450000e-06	2.648817e-06	1.254568e-09	1.876851e+01	8.414775e+01
2.460000e-06	2.688584e-06	1.290338e-09	1.905029e+01	8.696970e+01
2.470000e-06	2.728191e-06	1.330852e-09	1.933093e+01	8.972286e+01
2.480000e-06	2.767691e-06	1.373108e-09	1.961081e+01	9.240627e+01
2.490000e-06	2.807090e-06	1.411596e-09	1.988998e+01	9.501929e+01
2.500000e-06	2.846284e-06	1.448009e-09	2.016769e+01	9.756160e+01
2.510000e-06	2.885281e-06	1.483765e-09	2.044401e+01	1.000332e+02
2.520000e-06	2.924044e-06	1.515957e-09	2.071867e+01	1.024344e+02
2.530000e-06	2.962515e-06	1.544150e-09	2.099126e+01	1.047656e+02
2.540000e-06	3.000702e-06	1.573096e-09	2.126184e+01	1.070277e+02
2.550000e-06	3.038668e-06	1.606455e-09	2.153085e+01	1.092217e+02
2.560000e-06	3.076517e-06	1.642870e-09	2.179903e+01	1.113488e+02
2.570000e-06	3.114181e-06	1.675236e-09	2.206591e+01	1.134102e+02
2.580000e-06	3.151615e-06	1.701176e-09	2.233115e+01	1.154074e+02
2.590000e-06	3.188853e-06	1.726212e-09	2.259501e+01	1.173419e+02
2.600000e-06	3.225852e-06	1.752556e-09	2.285717e+01	1.192154e+02
2.610000e-06	3.262598e-06	1.777714e-09	2.311754e+01	1.210296e+02
2.620000e-06	3.299106e-06	1.801476e-09	2.337622e+01	1.227860e+02
2.630000e-06	3.335379e-06	1.827421e-09	2.363324e+01	1.244864e+02
2.640000e-06	3.371474e-06	1.856675e-09	2.388899e+01	1.261324e+02
2.650000e-06	3.407457e-06	1.883531e-09	2.414395e+01	1.277256e+02
2.660000e-06	3.443306e-06	1.901775e-09	2.439797e+01	1.292676e+02
2.670000e-06	3.479061e-06	1.916389e-09	2.465131e+01	1.307597e+02
2.680000e-06	3.514674e-06	1.933992e-09	2.490365e+01	1.322035e+02
2.690000e-06	3.550061e-06	1.954090e-09	2.515439e+01	1.336002e+02
2.700000e-06	3.585178e-06	1.973732e-09	2.540321e+01	1.349511e+02
2.710000e-06	3.619894e-06	1.993797e-09	2.564920e+01	1.362573e+02
2.720000e-06	3.654179e-06	2.015290e-09	2.589213e+01	1.375199e+02
2.730000e-06	3.688048e-06	2.037411e-09	2.613211e+01	1.387398e+02
2.740000e-06	3.721397e-06	2.054599e-09	2.636841e+01	1.399181e+02
2.750000e-06	3.754227e-06	2.067672e-09	2.660103e+01	1.410557e+02
2.760000e-06	3.786626e-06	2.083077e-09	2.683060e+01	1.421533e+02
2.770000e-06	3.818728e-06	2.100832e-09	2.705806e+01	1.432119e+02
2.780000e-06	3.850720e-06	2.115718e-09	2.728475e+01	1.442321e+02
2.790000e-06	3.882618e-06	2.127234e-09	2.751077e+01	1.452150e+02
2.800000e-06	3.914369e-06	2.140279e-09	2.773574e+01	1.461612e+02
2.810000e-06	3.945916e-06	2.154120e-09	2.795927e+01	1.470715e+02
2.820000e-06	3.977231e-06	2.167842e-09	2.818116e+01	1.479470e+02
2.830000e-06	4.008232e-06	2.178546e-09	2.840082e+01	1.487885e+02
2.840000e-06	4.038913e-06	2.190641e-09	2.861821e+01	1.495969e+02
2.850000e-06	4.069293e-06	2.207282e-09	2.883348e+01	1.503732e+02
2.860000e-06	4.099406e-06	2.223809e-09	2.904684e+01	1.511186e+02
2.870000e-06	4.129295e-06	2.236478e-09	2.925862e+01	1.518340e+02
2.880000e-06	4.158932e-06	2.245223e-09	2.946862e+01	1.525208e+02
2.890000e-06	4.188339e-06	2.252722e-09	2.967698e+01	1.531801e+02
2.900000e-06	4.217420e-06	2.256747e-09	2.988304e+01	1.538130e+02
