# Temperatura_=_-14.81
# Concentracion g/m^3_=_4090.0
# C_Vs_to_Am_M_A/Vsm_=_65563218390.804596
# pendiente_HvsI_1/m_=_3716.3
# ordenada_HvsI_A/m_=_1297.0
# frecuencia_Hz_=_135075.49593174062

Tiempo_(s)	Campo_(V.s)	Magnetizacion_(V.s)	Campo_(kA/m)	Magnetizacion_(A/m)
0.000000e+00	-5.381096e-06	-2.014006e-09	-3.838994e+01	-1.303958e+02
1.000000e-08	-5.381255e-06	-2.013144e-09	-3.839107e+01	-1.303882e+02
2.000000e-08	-5.381246e-06	-2.014553e-09	-3.839101e+01	-1.303875e+02
3.000000e-08	-5.380995e-06	-2.017397e-09	-3.838922e+01	-1.303951e+02
4.000000e-08	-5.380451e-06	-2.019049e-09	-3.838534e+01	-1.304124e+02
5.000000e-08	-5.379606e-06	-2.020056e-09	-3.837931e+01	-1.304402e+02
6.000000e-08	-5.378185e-06	-2.022054e-09	-3.836917e+01	-1.304794e+02
7.000000e-08	-5.376077e-06	-2.022779e-09	-3.835413e+01	-1.305303e+02
8.000000e-08	-5.373305e-06	-2.011853e-09	-3.833436e+01	-1.305931e+02
9.000000e-08	-5.369901e-06	-1.981283e-09	-3.831008e+01	-1.306675e+02
1.000000e-07	-5.366000e-06	-1.996348e-09	-3.828224e+01	-1.307532e+02
1.100000e-07	-5.361813e-06	-2.082864e-09	-3.825237e+01	-1.308492e+02
1.200000e-07	-5.357497e-06	-2.086736e-09	-3.822158e+01	-1.309546e+02
1.300000e-07	-5.352964e-06	-1.959940e-09	-3.818924e+01	-1.310679e+02
1.400000e-07	-5.348042e-06	-1.973331e-09	-3.815413e+01	-1.311876e+02
1.500000e-07	-5.342701e-06	-2.082325e-09	-3.811602e+01	-1.313118e+02
1.600000e-07	-5.337085e-06	-2.105814e-09	-3.807595e+01	-1.314385e+02
1.700000e-07	-5.331197e-06	-1.936734e-09	-3.803395e+01	-1.315654e+02
1.800000e-07	-5.324832e-06	-1.959152e-09	-3.798854e+01	-1.316904e+02
1.900000e-07	-5.318036e-06	-2.153414e-09	-3.794006e+01	-1.318109e+02
2.000000e-07	-5.310902e-06	-2.160760e-09	-3.788916e+01	-1.319246e+02
2.100000e-07	-5.303512e-06	-2.032203e-09	-3.783644e+01	-1.320291e+02
2.200000e-07	-5.295844e-06	-2.044608e-09	-3.778173e+01	-1.321220e+02
2.300000e-07	-5.287883e-06	-2.184549e-09	-3.772494e+01	-1.322011e+02
2.400000e-07	-5.279677e-06	-2.113119e-09	-3.766640e+01	-1.322642e+02
2.500000e-07	-5.271021e-06	-2.029692e-09	-3.760464e+01	-1.323094e+02
2.600000e-07	-5.261687e-06	-2.087325e-09	-3.753805e+01	-1.323351e+02
2.700000e-07	-5.251708e-06	-2.157532e-09	-3.746686e+01	-1.323397e+02
2.800000e-07	-5.241205e-06	-2.046343e-09	-3.739193e+01	-1.323220e+02
2.900000e-07	-5.230289e-06	-2.033176e-09	-3.731405e+01	-1.322810e+02
3.000000e-07	-5.218909e-06	-2.118879e-09	-3.723286e+01	-1.322162e+02
3.100000e-07	-5.207028e-06	-2.076805e-09	-3.714810e+01	-1.321271e+02
3.200000e-07	-5.194766e-06	-1.947978e-09	-3.706062e+01	-1.320139e+02
3.300000e-07	-5.182223e-06	-2.017098e-09	-3.697114e+01	-1.318768e+02
3.400000e-07	-5.169297e-06	-2.090621e-09	-3.687892e+01	-1.317163e+02
3.500000e-07	-5.155937e-06	-2.000909e-09	-3.678361e+01	-1.315333e+02
3.600000e-07	-5.142250e-06	-1.963385e-09	-3.668596e+01	-1.313290e+02
3.700000e-07	-5.128232e-06	-2.052483e-09	-3.658595e+01	-1.311047e+02
3.800000e-07	-5.113746e-06	-2.028535e-09	-3.648261e+01	-1.308620e+02
3.900000e-07	-5.098567e-06	-1.955212e-09	-3.637432e+01	-1.306025e+02
4.000000e-07	-5.082809e-06	-1.992524e-09	-3.626189e+01	-1.303282e+02
4.100000e-07	-5.066558e-06	-2.003892e-09	-3.614595e+01	-1.300410e+02
4.200000e-07	-5.049907e-06	-1.943662e-09	-3.602717e+01	-1.297429e+02
4.300000e-07	-5.032961e-06	-1.965371e-09	-3.590627e+01	-1.294359e+02
4.400000e-07	-5.015682e-06	-2.011667e-09	-3.578300e+01	-1.291220e+02
4.500000e-07	-4.998205e-06	-1.945223e-09	-3.565831e+01	-1.288031e+02
4.600000e-07	-4.980483e-06	-1.924732e-09	-3.553188e+01	-1.284811e+02
4.700000e-07	-4.962374e-06	-1.971925e-09	-3.540268e+01	-1.281577e+02
4.800000e-07	-4.943846e-06	-1.968713e-09	-3.527050e+01	-1.278345e+02
4.900000e-07	-4.924883e-06	-1.916119e-09	-3.513521e+01	-1.275127e+02
5.000000e-07	-4.905483e-06	-1.937335e-09	-3.499681e+01	-1.271936e+02
5.100000e-07	-4.885745e-06	-1.946611e-09	-3.485599e+01	-1.268781e+02
5.200000e-07	-4.865834e-06	-1.936197e-09	-3.471395e+01	-1.265669e+02
5.300000e-07	-4.845801e-06	-1.921332e-09	-3.457102e+01	-1.262604e+02
5.400000e-07	-4.825555e-06	-1.917235e-09	-3.442659e+01	-1.259589e+02
5.500000e-07	-4.804995e-06	-1.899434e-09	-3.427991e+01	-1.256624e+02
5.600000e-07	-4.784126e-06	-1.915062e-09	-3.413103e+01	-1.253706e+02
5.700000e-07	-4.762819e-06	-1.907620e-09	-3.397901e+01	-1.250832e+02
5.800000e-07	-4.741122e-06	-1.890668e-09	-3.382422e+01	-1.247995e+02
5.900000e-07	-4.719145e-06	-1.888159e-09	-3.366743e+01	-1.245187e+02
6.000000e-07	-4.696903e-06	-1.902832e-09	-3.350875e+01	-1.242399e+02
6.100000e-07	-4.674287e-06	-1.890752e-09	-3.334740e+01	-1.239620e+02
6.200000e-07	-4.651217e-06	-1.875240e-09	-3.318282e+01	-1.236840e+02
6.300000e-07	-4.627874e-06	-1.857159e-09	-3.301628e+01	-1.234045e+02
6.400000e-07	-4.604302e-06	-1.857981e-09	-3.284812e+01	-1.231225e+02
6.500000e-07	-4.580523e-06	-1.868044e-09	-3.267847e+01	-1.228367e+02
6.600000e-07	-4.556543e-06	-1.861631e-09	-3.250740e+01	-1.225459e+02
6.700000e-07	-4.532301e-06	-1.844904e-09	-3.233445e+01	-1.222490e+02
6.800000e-07	-4.507749e-06	-1.851781e-09	-3.215929e+01	-1.219450e+02
6.900000e-07	-4.482843e-06	-1.860707e-09	-3.198160e+01	-1.216330e+02
7.000000e-07	-4.457491e-06	-1.843797e-09	-3.180074e+01	-1.213121e+02
7.100000e-07	-4.431612e-06	-1.826478e-09	-3.161611e+01	-1.209817e+02
7.200000e-07	-4.405171e-06	-1.819330e-09	-3.142748e+01	-1.206413e+02
7.300000e-07	-4.378223e-06	-1.820208e-09	-3.123522e+01	-1.202906e+02
7.400000e-07	-4.350869e-06	-1.814382e-09	-3.104007e+01	-1.199293e+02
7.500000e-07	-4.323220e-06	-1.805428e-09	-3.084282e+01	-1.195574e+02
7.600000e-07	-4.295356e-06	-1.794561e-09	-3.064403e+01	-1.191751e+02
7.700000e-07	-4.267369e-06	-1.801245e-09	-3.044436e+01	-1.187825e+02
7.800000e-07	-4.239267e-06	-1.797186e-09	-3.024388e+01	-1.183802e+02
7.900000e-07	-4.210919e-06	-1.783039e-09	-3.004164e+01	-1.179686e+02
8.000000e-07	-4.182192e-06	-1.766139e-09	-2.983669e+01	-1.175483e+02
8.100000e-07	-4.153092e-06	-1.766328e-09	-2.962909e+01	-1.171201e+02
8.200000e-07	-4.123704e-06	-1.764646e-09	-2.941942e+01	-1.166847e+02
8.300000e-07	-4.094036e-06	-1.763406e-09	-2.920777e+01	-1.162429e+02
8.400000e-07	-4.064100e-06	-1.751270e-09	-2.899419e+01	-1.157955e+02
8.500000e-07	-4.033988e-06	-1.744003e-09	-2.877937e+01	-1.153433e+02
8.600000e-07	-4.003648e-06	-1.739146e-09	-2.856292e+01	-1.148872e+02
8.700000e-07	-3.972997e-06	-1.731423e-09	-2.834425e+01	-1.144277e+02
8.800000e-07	-3.942056e-06	-1.713629e-09	-2.812351e+01	-1.139656e+02
8.900000e-07	-3.910820e-06	-1.704990e-09	-2.790066e+01	-1.135015e+02
9.000000e-07	-3.879385e-06	-1.705996e-09	-2.767640e+01	-1.130359e+02
9.100000e-07	-3.847787e-06	-1.707159e-09	-2.745098e+01	-1.125690e+02
9.200000e-07	-3.815988e-06	-1.694382e-09	-2.722411e+01	-1.121013e+02
9.300000e-07	-3.783984e-06	-1.680148e-09	-2.699579e+01	-1.116328e+02
9.400000e-07	-3.751836e-06	-1.667111e-09	-2.676644e+01	-1.111636e+02
9.500000e-07	-3.719539e-06	-1.656105e-09	-2.653602e+01	-1.106935e+02
9.600000e-07	-3.686839e-06	-1.645157e-09	-2.630274e+01	-1.102223e+02
9.700000e-07	-3.653682e-06	-1.637159e-09	-2.606619e+01	-1.097498e+02
9.800000e-07	-3.620090e-06	-1.635650e-09	-2.582653e+01	-1.092755e+02
9.900000e-07	-3.586059e-06	-1.632661e-09	-2.558375e+01	-1.087989e+02
1.000000e-06	-3.551733e-06	-1.620256e-09	-2.533886e+01	-1.083194e+02
1.010000e-06	-3.517009e-06	-1.603322e-09	-2.509113e+01	-1.078365e+02
1.020000e-06	-3.481836e-06	-1.591144e-09	-2.484019e+01	-1.073493e+02
1.030000e-06	-3.446342e-06	-1.579321e-09	-2.458697e+01	-1.068572e+02
1.040000e-06	-3.410677e-06	-1.569581e-09	-2.433253e+01	-1.063596e+02
1.050000e-06	-3.374903e-06	-1.562820e-09	-2.407731e+01	-1.058557e+02
1.060000e-06	-3.338999e-06	-1.560094e-09	-2.382116e+01	-1.053448e+02
1.070000e-06	-3.302974e-06	-1.554487e-09	-2.356415e+01	-1.048263e+02
1.080000e-06	-3.266835e-06	-1.546846e-09	-2.330633e+01	-1.042996e+02
1.090000e-06	-3.230490e-06	-1.531522e-09	-2.304703e+01	-1.037643e+02
1.100000e-06	-3.193858e-06	-1.517537e-09	-2.278569e+01	-1.032198e+02
1.110000e-06	-3.156952e-06	-1.505954e-09	-2.252240e+01	-1.026658e+02
1.120000e-06	-3.119760e-06	-1.498749e-09	-2.225706e+01	-1.021020e+02
1.130000e-06	-3.082397e-06	-1.491566e-09	-2.199051e+01	-1.015281e+02
1.140000e-06	-3.044884e-06	-1.485542e-09	-2.172289e+01	-1.009442e+02
1.150000e-06	-3.007113e-06	-1.477735e-09	-2.145342e+01	-1.003501e+02
1.160000e-06	-2.969104e-06	-1.466493e-09	-2.118225e+01	-9.974597e+01
1.170000e-06	-2.930947e-06	-1.450644e-09	-2.091003e+01	-9.913180e+01
1.180000e-06	-2.892663e-06	-1.438794e-09	-2.063691e+01	-9.850783e+01
1.190000e-06	-2.854113e-06	-1.428988e-09	-2.036188e+01	-9.787427e+01
1.200000e-06	-2.815283e-06	-1.422904e-09	-2.008486e+01	-9.723139e+01
1.210000e-06	-2.776290e-06	-1.414770e-09	-1.980667e+01	-9.657950e+01
1.220000e-06	-2.737028e-06	-1.405676e-09	-1.952657e+01	-9.591890e+01
1.230000e-06	-2.697589e-06	-1.394646e-09	-1.924520e+01	-9.524991e+01
1.240000e-06	-2.658107e-06	-1.383020e-09	-1.896353e+01	-9.457285e+01
1.250000e-06	-2.618429e-06	-1.368194e-09	-1.868046e+01	-9.388800e+01
1.260000e-06	-2.578597e-06	-1.355807e-09	-1.839629e+01	-9.319562e+01
1.270000e-06	-2.538688e-06	-1.347496e-09	-1.811156e+01	-9.249593e+01
1.280000e-06	-2.498683e-06	-1.340146e-09	-1.782616e+01	-9.178911e+01
1.290000e-06	-2.458619e-06	-1.333846e-09	-1.754034e+01	-9.107528e+01
1.300000e-06	-2.418434e-06	-1.324273e-09	-1.725365e+01	-9.035450e+01
1.310000e-06	-2.378100e-06	-1.310225e-09	-1.696590e+01	-8.962678e+01
1.320000e-06	-2.337645e-06	-1.291774e-09	-1.667728e+01	-8.889206e+01
1.330000e-06	-2.296994e-06	-1.275242e-09	-1.638727e+01	-8.815023e+01
1.340000e-06	-2.256007e-06	-1.264072e-09	-1.609486e+01	-8.740112e+01
1.350000e-06	-2.214646e-06	-1.257488e-09	-1.579978e+01	-8.664453e+01
1.360000e-06	-2.173007e-06	-1.248171e-09	-1.550272e+01	-8.588019e+01
1.370000e-06	-2.131212e-06	-1.237654e-09	-1.520454e+01	-8.510782e+01
1.380000e-06	-2.089340e-06	-1.227506e-09	-1.490581e+01	-8.432709e+01
1.390000e-06	-2.047074e-06	-1.216452e-09	-1.460429e+01	-8.353769e+01
1.400000e-06	-2.004401e-06	-1.200231e-09	-1.429985e+01	-8.273927e+01
1.410000e-06	-1.961572e-06	-1.182943e-09	-1.399429e+01	-8.193152e+01
1.420000e-06	-1.918593e-06	-1.167196e-09	-1.368767e+01	-8.111411e+01
1.430000e-06	-1.875454e-06	-1.156951e-09	-1.337991e+01	-8.028678e+01
1.440000e-06	-1.832110e-06	-1.144644e-09	-1.307068e+01	-7.944927e+01
1.450000e-06	-1.788614e-06	-1.127463e-09	-1.276037e+01	-7.860137e+01
1.460000e-06	-1.744965e-06	-1.113272e-09	-1.244897e+01	-7.774294e+01
1.470000e-06	-1.701179e-06	-1.105978e-09	-1.213659e+01	-7.687388e+01
1.480000e-06	-1.657338e-06	-1.096153e-09	-1.182382e+01	-7.599414e+01
1.490000e-06	-1.613428e-06	-1.080376e-09	-1.151056e+01	-7.510376e+01
1.500000e-06	-1.569469e-06	-1.065107e-09	-1.119694e+01	-7.420280e+01
1.510000e-06	-1.525470e-06	-1.053287e-09	-1.088305e+01	-7.329143e+01
1.520000e-06	-1.481393e-06	-1.038162e-09	-1.056859e+01	-7.236982e+01
1.530000e-06	-1.437233e-06	-1.017736e-09	-1.025354e+01	-7.143823e+01
1.540000e-06	-1.393042e-06	-1.000751e-09	-9.938270e+00	-7.049695e+01
1.550000e-06	-1.348899e-06	-9.899609e-10	-9.623347e+00	-6.954629e+01
1.560000e-06	-1.304749e-06	-9.804381e-10	-9.308369e+00	-6.858660e+01
1.570000e-06	-1.260491e-06	-9.677647e-10	-8.992626e+00	-6.761825e+01
1.580000e-06	-1.216059e-06	-9.522355e-10	-8.675638e+00	-6.664159e+01
1.590000e-06	-1.171483e-06	-9.391957e-10	-8.357618e+00	-6.565698e+01
1.600000e-06	-1.126898e-06	-9.268033e-10	-8.039540e+00	-6.466475e+01
1.610000e-06	-1.082261e-06	-9.097877e-10	-7.721090e+00	-6.366521e+01
1.620000e-06	-1.037507e-06	-8.873458e-10	-7.401807e+00	-6.265862e+01
1.630000e-06	-9.926435e-07	-8.689237e-10	-7.081740e+00	-6.164519e+01
1.640000e-06	-9.477218e-07	-8.567290e-10	-6.761259e+00	-6.062509e+01
1.650000e-06	-9.027141e-07	-8.438943e-10	-6.440164e+00	-5.959841e+01
1.660000e-06	-8.575268e-07	-8.301234e-10	-6.117787e+00	-5.856516e+01
1.670000e-06	-8.122771e-07	-8.191895e-10	-5.794966e+00	-5.752529e+01
1.680000e-06	-7.670385e-07	-8.098181e-10	-5.472224e+00	-5.647869e+01
1.690000e-06	-7.218355e-07	-7.926580e-10	-5.149736e+00	-5.542516e+01
1.700000e-06	-6.766115e-07	-7.683329e-10	-4.827098e+00	-5.436442e+01
1.710000e-06	-6.312273e-07	-7.460569e-10	-4.503317e+00	-5.329614e+01
1.720000e-06	-5.857491e-07	-7.296793e-10	-4.178865e+00	-5.221993e+01
1.730000e-06	-5.402875e-07	-7.139137e-10	-3.854532e+00	-5.113535e+01
1.740000e-06	-4.947997e-07	-6.963670e-10	-3.530012e+00	-5.004189e+01
1.750000e-06	-4.492117e-07	-6.817401e-10	-3.204776e+00	-4.893905e+01
1.760000e-06	-4.035125e-07	-6.735054e-10	-2.878748e+00	-4.782628e+01
1.770000e-06	-3.578702e-07	-6.622876e-10	-2.553126e+00	-4.670303e+01
1.780000e-06	-3.123109e-07	-6.407699e-10	-2.228096e+00	-4.556875e+01
1.790000e-06	-2.667110e-07	-6.139533e-10	-1.902776e+00	-4.442292e+01
1.800000e-06	-2.211198e-07	-5.929644e-10	-1.577518e+00	-4.326502e+01
1.810000e-06	-1.754433e-07	-5.764261e-10	-1.251651e+00	-4.209460e+01
1.820000e-06	-1.296932e-07	-5.589921e-10	-9.252602e-01	-4.091124e+01
1.830000e-06	-8.398957e-08	-5.398758e-10	-5.992004e-01	-3.971460e+01
1.840000e-06	-3.826937e-08	-5.246078e-10	-2.730222e-01	-3.850440e+01
1.850000e-06	7.461975e-09	-5.124522e-10	5.323540e-02	-3.728041e+01
1.860000e-06	5.314961e-08	-4.961833e-10	3.791812e-01	-3.604253e+01
1.870000e-06	9.885723e-08	-4.711842e-10	7.052696e-01	-3.479069e+01
1.880000e-06	1.445111e-07	-4.452632e-10	1.030975e+00	-3.352495e+01
1.890000e-06	1.901954e-07	-4.265793e-10	1.356896e+00	-3.224543e+01
1.900000e-06	2.358955e-07	-4.088093e-10	1.682931e+00	-3.095232e+01
1.910000e-06	2.814810e-07	-3.875889e-10	2.008148e+00	-2.964591e+01
1.920000e-06	3.271371e-07	-3.693267e-10	2.333869e+00	-2.832655e+01
1.930000e-06	3.728286e-07	-3.580844e-10	2.659842e+00	-2.699464e+01
1.940000e-06	4.184647e-07	-3.473705e-10	2.985420e+00	-2.565065e+01
1.950000e-06	4.640106e-07	-3.292562e-10	3.310356e+00	-2.429508e+01
1.960000e-06	5.094417e-07	-3.067784e-10	3.634471e+00	-2.292848e+01
1.970000e-06	5.548290e-07	-2.856643e-10	3.958274e+00	-2.155139e+01
1.980000e-06	6.001806e-07	-2.637534e-10	4.281823e+00	-2.016438e+01
1.990000e-06	6.454651e-07	-2.396075e-10	4.604892e+00	-1.876802e+01
2.000000e-06	6.906953e-07	-2.160193e-10	4.927574e+00	-1.736286e+01
2.010000e-06	7.358851e-07	-1.991295e-10	5.249968e+00	-1.594941e+01
2.020000e-06	7.810683e-07	-1.869399e-10	5.572316e+00	-1.452817e+01
2.030000e-06	8.262141e-07	-1.734942e-10	5.894396e+00	-1.309960e+01
2.040000e-06	8.711980e-07	-1.555516e-10	6.215321e+00	-1.166409e+01
2.050000e-06	9.160902e-07	-1.330316e-10	6.535592e+00	-1.022199e+01
2.060000e-06	9.609539e-07	-1.080739e-10	6.855660e+00	-8.773594e+00
2.070000e-06	1.005755e-06	-8.101150e-11	7.175279e+00	-7.319138e+00
2.080000e-06	1.050494e-06	-5.250633e-11	7.494462e+00	-5.858797e+00
2.090000e-06	1.095176e-06	-3.013897e-11	7.813231e+00	-4.392692e+00
2.100000e-06	1.139821e-06	-1.471698e-11	8.131736e+00	-2.920891e+00
2.110000e-06	1.184340e-06	-1.617598e-12	8.449348e+00	-1.443416e+00
2.120000e-06	1.228720e-06	1.279947e-11	8.765960e+00	3.975132e-02
2.130000e-06	1.273033e-06	2.955567e-11	9.082103e+00	1.528661e+00
2.140000e-06	1.317290e-06	5.148557e-11	9.397840e+00	3.023384e+00
2.150000e-06	1.361466e-06	8.131471e-11	9.713006e+00	4.524008e+00
2.160000e-06	1.405602e-06	1.144971e-10	1.002788e+01	6.030618e+00
2.170000e-06	1.449744e-06	1.440010e-10	1.034280e+01	7.543293e+00
2.180000e-06	1.493847e-06	1.671550e-10	1.065744e+01	9.062094e+00
2.190000e-06	1.537868e-06	1.860847e-10	1.097150e+01	1.058705e+01
2.200000e-06	1.581812e-06	2.016761e-10	1.128500e+01	1.211815e+01
2.210000e-06	1.625702e-06	2.143634e-10	1.159812e+01	1.365533e+01
2.220000e-06	1.669538e-06	2.310392e-10	1.191086e+01	1.519849e+01
2.230000e-06	1.713298e-06	2.532872e-10	1.222305e+01	1.674744e+01
2.240000e-06	1.756967e-06	2.813700e-10	1.253460e+01	1.830194e+01
2.250000e-06	1.800540e-06	3.108994e-10	1.284545e+01	1.986166e+01
2.260000e-06	1.843997e-06	3.387412e-10	1.315549e+01	2.142622e+01
2.270000e-06	1.887278e-06	3.661037e-10	1.346426e+01	2.299514e+01
2.280000e-06	1.930370e-06	3.895551e-10	1.377169e+01	2.456789e+01
2.290000e-06	1.973242e-06	4.068185e-10	1.407755e+01	2.614385e+01
2.300000e-06	2.015822e-06	4.204197e-10	1.438132e+01	2.772235e+01
2.310000e-06	2.058140e-06	4.392890e-10	1.468323e+01	2.930263e+01
2.320000e-06	2.100359e-06	4.636967e-10	1.498443e+01	3.088391e+01
2.330000e-06	2.142420e-06	4.907108e-10	1.528450e+01	3.246534e+01
2.340000e-06	2.184094e-06	5.173853e-10	1.558181e+01	3.404604e+01
2.350000e-06	2.225417e-06	5.428345e-10	1.587662e+01	3.562512e+01
2.360000e-06	2.266526e-06	5.688926e-10	1.616991e+01	3.720163e+01
2.370000e-06	2.307477e-06	5.941797e-10	1.646206e+01	3.877464e+01
2.380000e-06	2.348178e-06	6.154957e-10	1.675243e+01	4.034322e+01
2.390000e-06	2.388627e-06	6.345819e-10	1.704100e+01	4.190643e+01
2.400000e-06	2.428967e-06	6.538727e-10	1.732879e+01	4.346338e+01
2.410000e-06	2.469189e-06	6.766464e-10	1.761574e+01	4.501316e+01
2.420000e-06	2.509264e-06	7.003497e-10	1.790165e+01	4.655493e+01
2.430000e-06	2.549210e-06	7.235709e-10	1.818663e+01	4.808787e+01
2.440000e-06	2.589080e-06	7.486045e-10	1.847107e+01	4.961121e+01
2.450000e-06	2.628854e-06	7.745971e-10	1.875483e+01	5.112421e+01
2.460000e-06	2.668462e-06	7.985495e-10	1.903740e+01	5.262621e+01
2.470000e-06	2.707926e-06	8.186066e-10	1.931895e+01	5.411656e+01
2.480000e-06	2.747281e-06	8.364951e-10	1.959972e+01	5.559468e+01
2.490000e-06	2.786435e-06	8.555328e-10	1.987905e+01	5.706003e+01
2.500000e-06	2.825293e-06	8.744542e-10	2.015627e+01	5.851211e+01
2.510000e-06	2.863927e-06	8.933265e-10	2.043189e+01	5.995048e+01
2.520000e-06	2.902363e-06	9.143526e-10	2.070611e+01	6.137470e+01
2.530000e-06	2.940647e-06	9.378810e-10	2.097923e+01	6.278441e+01
2.540000e-06	2.978731e-06	9.627284e-10	2.125093e+01	6.417923e+01
2.550000e-06	3.016551e-06	9.860137e-10	2.152075e+01	6.555883e+01
2.560000e-06	3.054162e-06	1.008513e-09	2.178907e+01	6.692290e+01
2.570000e-06	3.091593e-06	1.028516e-09	2.205612e+01	6.827113e+01
2.580000e-06	3.128764e-06	1.045031e-09	2.232130e+01	6.960325e+01
2.590000e-06	3.165625e-06	1.058665e-09	2.258428e+01	7.091896e+01
2.600000e-06	3.202310e-06	1.070652e-09	2.284600e+01	7.221799e+01
2.610000e-06	3.238873e-06	1.086834e-09	2.310684e+01	7.350007e+01
2.620000e-06	3.275218e-06	1.109212e-09	2.336614e+01	7.476494e+01
2.630000e-06	3.311326e-06	1.133083e-09	2.362374e+01	7.601234e+01
2.640000e-06	3.347312e-06	1.154347e-09	2.388047e+01	7.724202e+01
2.650000e-06	3.383191e-06	1.172294e-09	2.413644e+01	7.845374e+01
2.660000e-06	3.418898e-06	1.186812e-09	2.439118e+01	7.964728e+01
2.670000e-06	3.454433e-06	1.198003e-09	2.464470e+01	8.082241e+01
2.680000e-06	3.489800e-06	1.209016e-09	2.489701e+01	8.197897e+01
2.690000e-06	3.524835e-06	1.221572e-09	2.514696e+01	8.311679e+01
2.700000e-06	3.559491e-06	1.235455e-09	2.539421e+01	8.423576e+01
2.710000e-06	3.593755e-06	1.251160e-09	2.563865e+01	8.533578e+01
2.720000e-06	3.627515e-06	1.270427e-09	2.587950e+01	8.641683e+01
2.730000e-06	3.660861e-06	1.292079e-09	2.611740e+01	8.747890e+01
2.740000e-06	3.693869e-06	1.310777e-09	2.635289e+01	8.852207e+01
2.750000e-06	3.726511e-06	1.323830e-09	2.658576e+01	8.954646e+01
2.760000e-06	3.758888e-06	1.335574e-09	2.681675e+01	9.055223e+01
2.770000e-06	3.791073e-06	1.346450e-09	2.704636e+01	9.153963e+01
2.780000e-06	3.823056e-06	1.355530e-09	2.727454e+01	9.250896e+01
2.790000e-06	3.854890e-06	1.363984e-09	2.750165e+01	9.346055e+01
2.800000e-06	3.886565e-06	1.374591e-09	2.772762e+01	9.439483e+01
2.810000e-06	3.917946e-06	1.390427e-09	2.795151e+01	9.531223e+01
2.820000e-06	3.949017e-06	1.410431e-09	2.817317e+01	9.621326e+01
2.830000e-06	3.979787e-06	1.427802e-09	2.839269e+01	9.709844e+01
2.840000e-06	4.010230e-06	1.439183e-09	2.860988e+01	9.796832e+01
2.850000e-06	4.040446e-06	1.451122e-09	2.882544e+01	9.882347e+01
2.860000e-06	4.070499e-06	1.468060e-09	2.903985e+01	9.966446e+01
2.870000e-06	4.100405e-06	1.482671e-09	2.925321e+01	1.004919e+02
2.880000e-06	4.130040e-06	1.489831e-09	2.946463e+01	1.013062e+02
2.890000e-06	4.159247e-06	1.495545e-09	2.967300e+01	1.021080e+02
2.900000e-06	4.188075e-06	1.506535e-09	2.987866e+01	1.028978e+02
