# Temperatura_=_7.78
# Concentracion g/m^3_=_4090.0
# C_Vs_to_Am_M_A/Vsm_=_65563218390.804596
# pendiente_HvsI_1/m_=_3716.3
# ordenada_HvsI_A/m_=_1297.0
# frecuencia_Hz_=_135066.9827557093

Tiempo_(s)	Campo_(V.s)	Magnetizacion_(V.s)	Campo_(kA/m)	Magnetizacion_(A/m)
0.000000e+00	-5.432762e-06	-2.512520e-09	-3.840566e+01	-1.628512e+02
1.000000e-08	-5.432795e-06	-2.513043e-09	-3.840589e+01	-1.627782e+02
2.000000e-08	-5.432618e-06	-2.515495e-09	-3.840464e+01	-1.627063e+02
3.000000e-08	-5.432166e-06	-2.515938e-09	-3.840144e+01	-1.626373e+02
4.000000e-08	-5.431402e-06	-2.514826e-09	-3.839604e+01	-1.625731e+02
5.000000e-08	-5.430262e-06	-2.514484e-09	-3.838798e+01	-1.625154e+02
6.000000e-08	-5.428497e-06	-2.514824e-09	-3.837551e+01	-1.624661e+02
7.000000e-08	-5.425995e-06	-2.494152e-09	-3.835782e+01	-1.624266e+02
8.000000e-08	-5.422856e-06	-2.469107e-09	-3.833563e+01	-1.623986e+02
9.000000e-08	-5.419172e-06	-2.532769e-09	-3.830959e+01	-1.623833e+02
1.000000e-07	-5.415061e-06	-2.655406e-09	-3.828052e+01	-1.623817e+02
1.100000e-07	-5.410657e-06	-2.588877e-09	-3.824939e+01	-1.623948e+02
1.200000e-07	-5.406168e-06	-2.418105e-09	-3.821766e+01	-1.624230e+02
1.300000e-07	-5.401552e-06	-2.440810e-09	-3.818502e+01	-1.624668e+02
1.400000e-07	-5.396495e-06	-2.626992e-09	-3.814927e+01	-1.625262e+02
1.500000e-07	-5.390904e-06	-2.577878e-09	-3.810975e+01	-1.626008e+02
1.600000e-07	-5.384992e-06	-2.347813e-09	-3.806796e+01	-1.626901e+02
1.700000e-07	-5.378766e-06	-2.395218e-09	-3.802394e+01	-1.627932e+02
1.800000e-07	-5.372071e-06	-2.653518e-09	-3.797661e+01	-1.629090e+02
1.900000e-07	-5.364865e-06	-2.630100e-09	-3.792567e+01	-1.630361e+02
2.000000e-07	-5.357351e-06	-2.427788e-09	-3.787256e+01	-1.631727e+02
2.100000e-07	-5.349738e-06	-2.454258e-09	-3.781874e+01	-1.633170e+02
2.200000e-07	-5.341905e-06	-2.593659e-09	-3.776336e+01	-1.634670e+02
2.300000e-07	-5.333760e-06	-2.515563e-09	-3.770578e+01	-1.636204e+02
2.400000e-07	-5.325373e-06	-2.430277e-09	-3.764649e+01	-1.637748e+02
2.500000e-07	-5.316490e-06	-2.556542e-09	-3.758370e+01	-1.639277e+02
2.600000e-07	-5.306724e-06	-2.619197e-09	-3.751466e+01	-1.640768e+02
2.700000e-07	-5.296278e-06	-2.516255e-09	-3.744081e+01	-1.642195e+02
2.800000e-07	-5.285448e-06	-2.532743e-09	-3.736426e+01	-1.643534e+02
2.900000e-07	-5.274141e-06	-2.649423e-09	-3.728432e+01	-1.644762e+02
3.000000e-07	-5.262336e-06	-2.555911e-09	-3.720087e+01	-1.645856e+02
3.100000e-07	-5.250149e-06	-2.442767e-09	-3.711471e+01	-1.646797e+02
3.200000e-07	-5.237562e-06	-2.565643e-09	-3.702573e+01	-1.647565e+02
3.300000e-07	-5.224593e-06	-2.666508e-09	-3.693405e+01	-1.648144e+02
3.400000e-07	-5.211289e-06	-2.533054e-09	-3.684000e+01	-1.648521e+02
3.500000e-07	-5.197643e-06	-2.488452e-09	-3.674354e+01	-1.648684e+02
3.600000e-07	-5.183581e-06	-2.581494e-09	-3.664412e+01	-1.648626e+02
3.700000e-07	-5.169084e-06	-2.572758e-09	-3.654165e+01	-1.648342e+02
3.800000e-07	-5.153976e-06	-2.489822e-09	-3.643484e+01	-1.647829e+02
3.900000e-07	-5.138163e-06	-2.517942e-09	-3.632306e+01	-1.647089e+02
4.000000e-07	-5.121842e-06	-2.530679e-09	-3.620768e+01	-1.646125e+02
4.100000e-07	-5.105154e-06	-2.505649e-09	-3.608970e+01	-1.644944e+02
4.200000e-07	-5.088173e-06	-2.539664e-09	-3.596966e+01	-1.643556e+02
4.300000e-07	-5.070889e-06	-2.553166e-09	-3.584748e+01	-1.641972e+02
4.400000e-07	-5.053318e-06	-2.476684e-09	-3.572327e+01	-1.640206e+02
4.500000e-07	-5.035558e-06	-2.472355e-09	-3.559772e+01	-1.638274e+02
4.600000e-07	-5.017503e-06	-2.532402e-09	-3.547008e+01	-1.636192e+02
4.700000e-07	-4.999002e-06	-2.508363e-09	-3.533929e+01	-1.633979e+02
4.800000e-07	-4.980091e-06	-2.454386e-09	-3.520561e+01	-1.631654e+02
4.900000e-07	-4.960750e-06	-2.476582e-09	-3.506887e+01	-1.629235e+02
5.000000e-07	-4.941065e-06	-2.512139e-09	-3.492972e+01	-1.626742e+02
5.100000e-07	-4.921190e-06	-2.502058e-09	-3.478922e+01	-1.624193e+02
5.200000e-07	-4.901116e-06	-2.476106e-09	-3.464730e+01	-1.621606e+02
5.300000e-07	-4.880837e-06	-2.455341e-09	-3.450395e+01	-1.618998e+02
5.400000e-07	-4.860237e-06	-2.465415e-09	-3.435832e+01	-1.616385e+02
5.500000e-07	-4.839223e-06	-2.483203e-09	-3.420977e+01	-1.613779e+02
5.600000e-07	-4.817863e-06	-2.461386e-09	-3.405877e+01	-1.611193e+02
5.700000e-07	-4.796180e-06	-2.430406e-09	-3.390548e+01	-1.608636e+02
5.800000e-07	-4.774122e-06	-2.448725e-09	-3.374955e+01	-1.606117e+02
5.900000e-07	-4.751781e-06	-2.467162e-09	-3.359161e+01	-1.603640e+02
6.000000e-07	-4.729289e-06	-2.453434e-09	-3.343262e+01	-1.601209e+02
6.100000e-07	-4.706439e-06	-2.426565e-09	-3.327108e+01	-1.598825e+02
6.200000e-07	-4.683116e-06	-2.414545e-09	-3.310620e+01	-1.596486e+02
6.300000e-07	-4.659480e-06	-2.420858e-09	-3.293912e+01	-1.594190e+02
6.400000e-07	-4.635622e-06	-2.436353e-09	-3.277046e+01	-1.591931e+02
6.500000e-07	-4.611570e-06	-2.417135e-09	-3.260043e+01	-1.589702e+02
6.600000e-07	-4.587334e-06	-2.394444e-09	-3.242909e+01	-1.587496e+02
6.700000e-07	-4.562861e-06	-2.408171e-09	-3.225609e+01	-1.585304e+02
6.800000e-07	-4.538054e-06	-2.427557e-09	-3.208072e+01	-1.583114e+02
6.900000e-07	-4.512724e-06	-2.408711e-09	-3.190166e+01	-1.580918e+02
7.000000e-07	-4.486760e-06	-2.389463e-09	-3.171812e+01	-1.578702e+02
7.100000e-07	-4.460151e-06	-2.392038e-09	-3.153000e+01	-1.576457e+02
7.200000e-07	-4.432937e-06	-2.400934e-09	-3.133762e+01	-1.574172e+02
7.300000e-07	-4.405301e-06	-2.392545e-09	-3.114226e+01	-1.571836e+02
7.400000e-07	-4.377484e-06	-2.372009e-09	-3.094561e+01	-1.569439e+02
7.500000e-07	-4.349587e-06	-2.364071e-09	-3.074840e+01	-1.566974e+02
7.600000e-07	-4.321609e-06	-2.378944e-09	-3.055062e+01	-1.564432e+02
7.700000e-07	-4.293467e-06	-2.382416e-09	-3.035167e+01	-1.561808e+02
7.800000e-07	-4.265046e-06	-2.363045e-09	-3.015076e+01	-1.559097e+02
7.900000e-07	-4.236265e-06	-2.349188e-09	-2.994729e+01	-1.556296e+02
8.000000e-07	-4.207121e-06	-2.350820e-09	-2.974127e+01	-1.553403e+02
8.100000e-07	-4.177650e-06	-2.349128e-09	-2.953293e+01	-1.550417e+02
8.200000e-07	-4.147883e-06	-2.335357e-09	-2.932250e+01	-1.547340e+02
8.300000e-07	-4.117871e-06	-2.322880e-09	-2.911034e+01	-1.544175e+02
8.400000e-07	-4.087569e-06	-2.323643e-09	-2.889612e+01	-1.540925e+02
8.500000e-07	-4.057032e-06	-2.332542e-09	-2.868025e+01	-1.537596e+02
8.600000e-07	-4.026288e-06	-2.325043e-09	-2.846292e+01	-1.534193e+02
8.700000e-07	-3.995249e-06	-2.305155e-09	-2.824349e+01	-1.530724e+02
8.800000e-07	-3.963885e-06	-2.292807e-09	-2.802177e+01	-1.527195e+02
8.900000e-07	-3.932241e-06	-2.294647e-09	-2.779807e+01	-1.523614e+02
9.000000e-07	-3.900387e-06	-2.292313e-09	-2.757288e+01	-1.519989e+02
9.100000e-07	-3.868412e-06	-2.279331e-09	-2.734684e+01	-1.516327e+02
9.200000e-07	-3.836332e-06	-2.266656e-09	-2.712006e+01	-1.512635e+02
9.300000e-07	-3.804061e-06	-2.266932e-09	-2.689193e+01	-1.508922e+02
9.400000e-07	-3.771486e-06	-2.264279e-09	-2.666165e+01	-1.505191e+02
9.500000e-07	-3.738550e-06	-2.251130e-09	-2.642881e+01	-1.501450e+02
9.600000e-07	-3.705273e-06	-2.238303e-09	-2.619357e+01	-1.497701e+02
9.700000e-07	-3.671557e-06	-2.239727e-09	-2.595523e+01	-1.493949e+02
9.800000e-07	-3.637299e-06	-2.242408e-09	-2.571304e+01	-1.490194e+02
9.900000e-07	-3.602566e-06	-2.233516e-09	-2.546751e+01	-1.486438e+02
1.000000e-06	-3.567440e-06	-2.218096e-09	-2.521919e+01	-1.482681e+02
1.010000e-06	-3.532037e-06	-2.210991e-09	-2.496892e+01	-1.478919e+02
1.020000e-06	-3.496433e-06	-2.205172e-09	-2.471723e+01	-1.475152e+02
1.030000e-06	-3.460657e-06	-2.191732e-09	-2.446431e+01	-1.471373e+02
1.040000e-06	-3.424738e-06	-2.177682e-09	-2.421039e+01	-1.467579e+02
1.050000e-06	-3.388639e-06	-2.176752e-09	-2.395520e+01	-1.463764e+02
1.060000e-06	-3.352374e-06	-2.184015e-09	-2.369883e+01	-1.459920e+02
1.070000e-06	-3.315985e-06	-2.183025e-09	-2.344159e+01	-1.456040e+02
1.080000e-06	-3.279381e-06	-2.168800e-09	-2.318283e+01	-1.452118e+02
1.090000e-06	-3.242451e-06	-2.154322e-09	-2.292176e+01	-1.448144e+02
1.100000e-06	-3.205229e-06	-2.147930e-09	-2.265863e+01	-1.444111e+02
1.110000e-06	-3.167816e-06	-2.142132e-09	-2.239414e+01	-1.440012e+02
1.120000e-06	-3.130190e-06	-2.129779e-09	-2.212815e+01	-1.435838e+02
1.130000e-06	-3.092326e-06	-2.117161e-09	-2.186048e+01	-1.431582e+02
1.140000e-06	-3.054298e-06	-2.114187e-09	-2.159165e+01	-1.427239e+02
1.150000e-06	-3.016065e-06	-2.113042e-09	-2.132137e+01	-1.422802e+02
1.160000e-06	-2.977636e-06	-2.103086e-09	-2.104971e+01	-1.418266e+02
1.170000e-06	-2.939036e-06	-2.088406e-09	-2.077684e+01	-1.413628e+02
1.180000e-06	-2.900223e-06	-2.079895e-09	-2.050245e+01	-1.408884e+02
1.190000e-06	-2.861186e-06	-2.074707e-09	-2.022649e+01	-1.404032e+02
1.200000e-06	-2.821947e-06	-2.067027e-09	-1.994910e+01	-1.399071e+02
1.210000e-06	-2.782481e-06	-2.056165e-09	-1.967011e+01	-1.394001e+02
1.220000e-06	-2.742823e-06	-2.048802e-09	-1.938975e+01	-1.388822e+02
1.230000e-06	-2.703036e-06	-2.045115e-09	-1.910849e+01	-1.383536e+02
1.240000e-06	-2.663135e-06	-2.039837e-09	-1.882642e+01	-1.378145e+02
1.250000e-06	-2.623191e-06	-2.028746e-09	-1.854404e+01	-1.372652e+02
1.260000e-06	-2.583180e-06	-2.017685e-09	-1.826119e+01	-1.367061e+02
1.270000e-06	-2.543038e-06	-2.009609e-09	-1.797742e+01	-1.361374e+02
1.280000e-06	-2.502773e-06	-2.005141e-09	-1.769277e+01	-1.355596e+02
1.290000e-06	-2.462432e-06	-1.999222e-09	-1.740759e+01	-1.349731e+02
1.300000e-06	-2.421857e-06	-1.990023e-09	-1.712076e+01	-1.343782e+02
1.310000e-06	-2.380914e-06	-1.980012e-09	-1.683132e+01	-1.337754e+02
1.320000e-06	-2.339745e-06	-1.969810e-09	-1.654029e+01	-1.331648e+02
1.330000e-06	-2.298319e-06	-1.957365e-09	-1.624744e+01	-1.325469e+02
1.340000e-06	-2.256672e-06	-1.944335e-09	-1.595302e+01	-1.319218e+02
1.350000e-06	-2.214855e-06	-1.933891e-09	-1.565740e+01	-1.312897e+02
1.360000e-06	-2.172670e-06	-1.927389e-09	-1.535919e+01	-1.306505e+02
1.370000e-06	-2.130152e-06	-1.921584e-09	-1.505862e+01	-1.300044e+02
1.380000e-06	-2.087433e-06	-1.914349e-09	-1.475662e+01	-1.293511e+02
1.390000e-06	-2.044500e-06	-1.904096e-09	-1.445312e+01	-1.286905e+02
1.400000e-06	-2.001262e-06	-1.890679e-09	-1.414746e+01	-1.280222e+02
1.410000e-06	-1.957775e-06	-1.876376e-09	-1.384004e+01	-1.273460e+02
1.420000e-06	-1.914277e-06	-1.861602e-09	-1.353254e+01	-1.266613e+02
1.430000e-06	-1.870685e-06	-1.847179e-09	-1.322438e+01	-1.259676e+02
1.440000e-06	-1.826919e-06	-1.833948e-09	-1.291498e+01	-1.252643e+02
1.450000e-06	-1.783088e-06	-1.823571e-09	-1.260513e+01	-1.245508e+02
1.460000e-06	-1.739177e-06	-1.815482e-09	-1.229471e+01	-1.238262e+02
1.470000e-06	-1.695138e-06	-1.805885e-09	-1.198338e+01	-1.230899e+02
1.480000e-06	-1.651051e-06	-1.793597e-09	-1.167172e+01	-1.223410e+02
1.490000e-06	-1.606955e-06	-1.780914e-09	-1.136000e+01	-1.215788e+02
1.500000e-06	-1.562771e-06	-1.766329e-09	-1.104765e+01	-1.208023e+02
1.510000e-06	-1.518458e-06	-1.750184e-09	-1.073439e+01	-1.200108e+02
1.520000e-06	-1.473985e-06	-1.734531e-09	-1.041999e+01	-1.192034e+02
1.530000e-06	-1.429482e-06	-1.721664e-09	-1.010539e+01	-1.183794e+02
1.540000e-06	-1.384992e-06	-1.711516e-09	-9.790879e+00	-1.175378e+02
1.550000e-06	-1.340400e-06	-1.702323e-09	-9.475646e+00	-1.166780e+02
1.560000e-06	-1.295612e-06	-1.691866e-09	-9.159032e+00	-1.157991e+02
1.570000e-06	-1.250697e-06	-1.680248e-09	-8.841511e+00	-1.149004e+02
1.580000e-06	-1.205762e-06	-1.667003e-09	-8.523857e+00	-1.139813e+02
1.590000e-06	-1.160734e-06	-1.652061e-09	-8.205543e+00	-1.130409e+02
1.600000e-06	-1.115624e-06	-1.635786e-09	-7.886645e+00	-1.120787e+02
1.610000e-06	-1.070444e-06	-1.617754e-09	-7.567256e+00	-1.110940e+02
1.620000e-06	-1.025175e-06	-1.597339e-09	-7.247237e+00	-1.100861e+02
1.630000e-06	-9.798006e-07	-1.578886e-09	-6.926474e+00	-1.090543e+02
1.640000e-06	-9.343963e-07	-1.563005e-09	-6.605499e+00	-1.079980e+02
1.650000e-06	-8.889317e-07	-1.548609e-09	-6.284097e+00	-1.069164e+02
1.660000e-06	-8.433139e-07	-1.534385e-09	-5.961612e+00	-1.058089e+02
1.670000e-06	-7.976248e-07	-1.518790e-09	-5.638624e+00	-1.046747e+02
1.680000e-06	-7.518760e-07	-1.500228e-09	-5.315214e+00	-1.035130e+02
1.690000e-06	-7.061105e-07	-1.478359e-09	-4.991685e+00	-1.023230e+02
1.700000e-06	-6.603837e-07	-1.455215e-09	-4.668430e+00	-1.011037e+02
1.710000e-06	-6.146516e-07	-1.435080e-09	-4.345137e+00	-9.985421e+01
1.720000e-06	-5.688717e-07	-1.418338e-09	-4.021507e+00	-9.857353e+01
1.730000e-06	-5.230417e-07	-1.402037e-09	-3.697523e+00	-9.726055e+01
1.740000e-06	-4.771191e-07	-1.383811e-09	-3.372883e+00	-9.591416e+01
1.750000e-06	-4.311126e-07	-1.363776e-09	-3.047651e+00	-9.453314e+01
1.760000e-06	-3.850657e-07	-1.343480e-09	-2.722133e+00	-9.311626e+01
1.770000e-06	-3.390318e-07	-1.320588e-09	-2.396707e+00	-9.166222e+01
1.780000e-06	-2.930381e-07	-1.295111e-09	-2.071565e+00	-9.016970e+01
1.790000e-06	-2.470068e-07	-1.270767e-09	-1.746158e+00	-8.863736e+01
1.800000e-06	-2.009325e-07	-1.249509e-09	-1.420446e+00	-8.706381e+01
1.810000e-06	-1.548910e-07	-1.228373e-09	-1.094966e+00	-8.544770e+01
1.820000e-06	-1.088672e-07	-1.205469e-09	-7.696112e-01	-8.378769e+01
1.830000e-06	-6.282497e-08	-1.179802e-09	-4.441266e-01	-8.208244e+01
1.840000e-06	-1.677629e-08	-1.153067e-09	-1.185961e-01	-8.033070e+01
1.850000e-06	2.927592e-08	-1.126360e-09	2.069593e-01	-7.853125e+01
1.860000e-06	7.534150e-08	-1.097563e-09	5.326093e-01	-7.668297e+01
1.870000e-06	1.213724e-07	-1.066726e-09	8.580138e-01	-7.478482e+01
1.880000e-06	1.673724e-07	-1.038981e-09	1.183200e+00	-7.283588e+01
1.890000e-06	2.134175e-07	-1.014670e-09	1.508706e+00	-7.083537e+01
1.900000e-06	2.594747e-07	-9.889722e-10	1.834296e+00	-6.878261e+01
1.910000e-06	3.055471e-07	-9.569001e-10	2.159995e+00	-6.667712e+01
1.920000e-06	3.516298e-07	-9.197124e-10	2.485765e+00	-6.451854e+01
1.930000e-06	3.976058e-07	-8.835737e-10	2.810783e+00	-6.230669e+01
1.940000e-06	4.435132e-07	-8.489567e-10	3.135314e+00	-6.004158e+01
1.950000e-06	4.894406e-07	-8.119666e-10	3.459987e+00	-5.772339e+01
1.960000e-06	5.352977e-07	-7.758089e-10	3.784164e+00	-5.535247e+01
1.970000e-06	5.810860e-07	-7.437062e-10	4.107853e+00	-5.292936e+01
1.980000e-06	6.268150e-07	-7.137987e-10	4.431124e+00	-5.045479e+01
1.990000e-06	6.725189e-07	-6.801304e-10	4.754217e+00	-4.792966e+01
2.000000e-06	7.182228e-07	-6.402384e-10	5.077310e+00	-4.535502e+01
2.010000e-06	7.638956e-07	-5.989234e-10	5.400183e+00	-4.273212e+01
2.020000e-06	8.095120e-07	-5.596166e-10	5.722658e+00	-4.006234e+01
2.030000e-06	8.550948e-07	-5.213437e-10	6.044895e+00	-3.734721e+01
2.040000e-06	9.006498e-07	-4.794189e-10	6.366936e+00	-3.458840e+01
2.050000e-06	9.460647e-07	-4.364578e-10	6.687986e+00	-3.178771e+01
2.060000e-06	9.913972e-07	-3.991269e-10	7.008453e+00	-2.894705e+01
2.070000e-06	1.036720e-06	-3.642730e-10	7.328852e+00	-2.606843e+01
2.080000e-06	1.081934e-06	-3.254346e-10	7.648481e+00	-2.315395e+01
2.090000e-06	1.127060e-06	-2.821358e-10	7.967492e+00	-2.020580e+01
2.100000e-06	1.172118e-06	-2.387893e-10	8.286014e+00	-1.722624e+01
2.110000e-06	1.217041e-06	-1.963157e-10	8.603587e+00	-1.421760e+01
2.120000e-06	1.261834e-06	-1.506942e-10	8.920241e+00	-1.118224e+01
2.130000e-06	1.306547e-06	-1.025726e-10	9.236335e+00	-8.122599e+00
2.140000e-06	1.351188e-06	-5.620700e-11	9.551913e+00	-5.041132e+00
2.150000e-06	1.395731e-06	-1.331461e-11	9.866798e+00	-1.940340e+00
2.160000e-06	1.440186e-06	3.025723e-11	1.018106e+01	1.177246e+00
2.170000e-06	1.484521e-06	7.580561e-11	1.049448e+01	4.309071e+00
2.180000e-06	1.528722e-06	1.209640e-10	1.080695e+01	7.452552e+00
2.190000e-06	1.572866e-06	1.640336e-10	1.111902e+01	1.060509e+01
2.200000e-06	1.616997e-06	2.074830e-10	1.143099e+01	1.376405e+01
2.210000e-06	1.661042e-06	2.548410e-10	1.174235e+01	1.692680e+01
2.220000e-06	1.705025e-06	3.046688e-10	1.205328e+01	2.009067e+01
2.230000e-06	1.748968e-06	3.521129e-10	1.236393e+01	2.325298e+01
2.240000e-06	1.792817e-06	3.997821e-10	1.267390e+01	2.641104e+01
2.250000e-06	1.836618e-06	4.498604e-10	1.298354e+01	2.956214e+01
2.260000e-06	1.880383e-06	4.971056e-10	1.329293e+01	3.270356e+01
2.270000e-06	1.923999e-06	5.389990e-10	1.360127e+01	3.583257e+01
2.280000e-06	1.967441e-06	5.802817e-10	1.390837e+01	3.894645e+01
2.290000e-06	2.010725e-06	6.269887e-10	1.421436e+01	4.204245e+01
2.300000e-06	2.053878e-06	6.770765e-10	1.451941e+01	4.511786e+01
2.310000e-06	2.096875e-06	7.244155e-10	1.482337e+01	4.816998e+01
2.320000e-06	2.139614e-06	7.679534e-10	1.512550e+01	5.119612e+01
2.330000e-06	2.182085e-06	8.115369e-10	1.542574e+01	5.419365e+01
2.340000e-06	2.224274e-06	8.555825e-10	1.572399e+01	5.715996e+01
2.350000e-06	2.266093e-06	8.967582e-10	1.601962e+01	6.009251e+01
2.360000e-06	2.307447e-06	9.344155e-10	1.631197e+01	6.298884e+01
2.370000e-06	2.348432e-06	9.722371e-10	1.660170e+01	6.584656e+01
2.380000e-06	2.389272e-06	1.012875e-09	1.689041e+01	6.866337e+01
2.390000e-06	2.429985e-06	1.055278e-09	1.717822e+01	7.143711e+01
2.400000e-06	2.470530e-06	1.095139e-09	1.746484e+01	7.416571e+01
2.410000e-06	2.510923e-06	1.132064e-09	1.775039e+01	7.684727e+01
2.420000e-06	2.551149e-06	1.169793e-09	1.803476e+01	7.948000e+01
2.430000e-06	2.591270e-06	1.207610e-09	1.831839e+01	8.206231e+01
2.440000e-06	2.631294e-06	1.241888e-09	1.860132e+01	8.459276e+01
2.450000e-06	2.671230e-06	1.274286e-09	1.888364e+01	8.707007e+01
2.460000e-06	2.711081e-06	1.308149e-09	1.916536e+01	8.949319e+01
2.470000e-06	2.750832e-06	1.344440e-09	1.944637e+01	9.186121e+01
2.480000e-06	2.790433e-06	1.379478e-09	1.972632e+01	9.417344e+01
2.490000e-06	2.829751e-06	1.412002e-09	2.000427e+01	9.642939e+01
2.500000e-06	2.868834e-06	1.444671e-09	2.028056e+01	9.862872e+01
2.510000e-06	2.907807e-06	1.475589e-09	2.055607e+01	1.007713e+02
2.520000e-06	2.946554e-06	1.506007e-09	2.082998e+01	1.028572e+02
2.530000e-06	2.984994e-06	1.535896e-09	2.110172e+01	1.048867e+02
2.540000e-06	3.023239e-06	1.564775e-09	2.137209e+01	1.068600e+02
2.550000e-06	3.061287e-06	1.596375e-09	2.164106e+01	1.087778e+02
2.560000e-06	3.099146e-06	1.625641e-09	2.190869e+01	1.106407e+02
2.570000e-06	3.136867e-06	1.649335e-09	2.217536e+01	1.124496e+02
2.580000e-06	3.174342e-06	1.669314e-09	2.244027e+01	1.142052e+02
2.590000e-06	3.211580e-06	1.690940e-09	2.270352e+01	1.159086e+02
2.600000e-06	3.248644e-06	1.714237e-09	2.296554e+01	1.175608e+02
2.610000e-06	3.285430e-06	1.739108e-09	2.322558e+01	1.191630e+02
2.620000e-06	3.321889e-06	1.765387e-09	2.348333e+01	1.207163e+02
2.630000e-06	3.358112e-06	1.790966e-09	2.373940e+01	1.222218e+02
2.640000e-06	3.394201e-06	1.815571e-09	2.399452e+01	1.236808e+02
2.650000e-06	3.430211e-06	1.834352e-09	2.424909e+01	1.250945e+02
2.660000e-06	3.466130e-06	1.847579e-09	2.450301e+01	1.264640e+02
2.670000e-06	3.501926e-06	1.860360e-09	2.475605e+01	1.277904e+02
2.680000e-06	3.537536e-06	1.875769e-09	2.500779e+01	1.290749e+02
2.690000e-06	3.572957e-06	1.894068e-09	2.525819e+01	1.303185e+02
2.700000e-06	3.608147e-06	1.914506e-09	2.550696e+01	1.315223e+02
2.710000e-06	3.642907e-06	1.936991e-09	2.575269e+01	1.326872e+02
2.720000e-06	3.677059e-06	1.959483e-09	2.599412e+01	1.338142e+02
2.730000e-06	3.710621e-06	1.977784e-09	2.623138e+01	1.349042e+02
2.740000e-06	3.743762e-06	1.988898e-09	2.646566e+01	1.359579e+02
2.750000e-06	3.776582e-06	1.999416e-09	2.669767e+01	1.369763e+02
2.760000e-06	3.809067e-06	2.014700e-09	2.692732e+01	1.379600e+02
2.770000e-06	3.841289e-06	2.028787e-09	2.715510e+01	1.389098e+02
2.780000e-06	3.873344e-06	2.041066e-09	2.738171e+01	1.398265e+02
2.790000e-06	3.905270e-06	2.055346e-09	2.760741e+01	1.407108e+02
2.800000e-06	3.937071e-06	2.072385e-09	2.783221e+01	1.415634e+02
2.810000e-06	3.968697e-06	2.087435e-09	2.805579e+01	1.423850e+02
2.820000e-06	4.000101e-06	2.097070e-09	2.827779e+01	1.431764e+02
2.830000e-06	4.031201e-06	2.103275e-09	2.849765e+01	1.439383e+02
2.840000e-06	4.061888e-06	2.112470e-09	2.871458e+01	1.446714e+02
2.850000e-06	4.092210e-06	2.125019e-09	2.892893e+01	1.453768e+02
2.860000e-06	4.122341e-06	2.137217e-09	2.914194e+01	1.460551e+02
2.870000e-06	4.152237e-06	2.148348e-09	2.935328e+01	1.467073e+02
2.880000e-06	4.181837e-06	2.159189e-09	2.956253e+01	1.473343e+02
2.890000e-06	4.211193e-06	2.167494e-09	2.977005e+01	1.479371e+02
2.900000e-06	4.240256e-06	2.171960e-09	2.997551e+01	1.485166e+02
