# Temperatura_=_-1.6
# Concentracion g/m^3_=_4090.0
# C_Vs_to_Am_M_A/Vsm_=_65563218390.804596
# pendiente_HvsI_1/m_=_3716.3
# ordenada_HvsI_A/m_=_1297.0
# frecuencia_Hz_=_135072.7845836422

Tiempo_(s)	Campo_(V.s)	Magnetizacion_(V.s)	Campo_(kA/m)	Magnetizacion_(A/m)
0.000000e+00	-5.416948e-06	-2.370681e-09	-3.839617e+01	-1.566651e+02
1.000000e-08	-5.417226e-06	-2.372332e-09	-3.839814e+01	-1.565380e+02
2.000000e-08	-5.417304e-06	-2.375342e-09	-3.839870e+01	-1.564102e+02
3.000000e-08	-5.417117e-06	-2.375540e-09	-3.839737e+01	-1.562842e+02
4.000000e-08	-5.416589e-06	-2.370354e-09	-3.839363e+01	-1.561621e+02
5.000000e-08	-5.415594e-06	-2.363683e-09	-3.838658e+01	-1.560462e+02
6.000000e-08	-5.414087e-06	-2.359770e-09	-3.837589e+01	-1.559386e+02
7.000000e-08	-5.411933e-06	-2.361793e-09	-3.836062e+01	-1.558412e+02
8.000000e-08	-5.408967e-06	-2.359924e-09	-3.833960e+01	-1.557561e+02
9.000000e-08	-5.405395e-06	-2.356398e-09	-3.831429e+01	-1.556847e+02
1.000000e-07	-5.401432e-06	-2.377099e-09	-3.828619e+01	-1.556285e+02
1.100000e-07	-5.397218e-06	-2.414587e-09	-3.825632e+01	-1.555886e+02
1.200000e-07	-5.392886e-06	-2.377327e-09	-3.822562e+01	-1.555659e+02
1.300000e-07	-5.388362e-06	-2.324666e-09	-3.819355e+01	-1.555610e+02
1.400000e-07	-5.383452e-06	-2.353987e-09	-3.815875e+01	-1.555741e+02
1.500000e-07	-5.378037e-06	-2.391448e-09	-3.812037e+01	-1.556050e+02
1.600000e-07	-5.372285e-06	-2.359919e-09	-3.807960e+01	-1.556535e+02
1.700000e-07	-5.366217e-06	-2.290013e-09	-3.803659e+01	-1.557187e+02
1.800000e-07	-5.359590e-06	-2.345265e-09	-3.798961e+01	-1.557997e+02
1.900000e-07	-5.352471e-06	-2.432424e-09	-3.793915e+01	-1.558951e+02
2.000000e-07	-5.345135e-06	-2.398306e-09	-3.788715e+01	-1.560033e+02
2.100000e-07	-5.337663e-06	-2.351182e-09	-3.783419e+01	-1.561227e+02
2.200000e-07	-5.329915e-06	-2.390295e-09	-3.777927e+01	-1.562510e+02
2.300000e-07	-5.321918e-06	-2.452727e-09	-3.772258e+01	-1.563862e+02
2.400000e-07	-5.313664e-06	-2.413642e-09	-3.766408e+01	-1.565260e+02
2.500000e-07	-5.304946e-06	-2.413875e-09	-3.760228e+01	-1.566679e+02
2.600000e-07	-5.295497e-06	-2.468570e-09	-3.753531e+01	-1.568095e+02
2.700000e-07	-5.285362e-06	-2.482351e-09	-3.746347e+01	-1.569484e+02
2.800000e-07	-5.274646e-06	-2.435692e-09	-3.738752e+01	-1.570823e+02
2.900000e-07	-5.263401e-06	-2.466883e-09	-3.730781e+01	-1.572087e+02
3.000000e-07	-5.251825e-06	-2.501040e-09	-3.722576e+01	-1.573256e+02
3.100000e-07	-5.239924e-06	-2.458763e-09	-3.714140e+01	-1.574308e+02
3.200000e-07	-5.227588e-06	-2.442457e-09	-3.705396e+01	-1.575226e+02
3.300000e-07	-5.214824e-06	-2.498638e-09	-3.696349e+01	-1.575993e+02
3.400000e-07	-5.201664e-06	-2.496878e-09	-3.687021e+01	-1.576596e+02
3.500000e-07	-5.188113e-06	-2.433105e-09	-3.677416e+01	-1.577024e+02
3.600000e-07	-5.174226e-06	-2.453372e-09	-3.667573e+01	-1.577268e+02
3.700000e-07	-5.159942e-06	-2.490496e-09	-3.657448e+01	-1.577323e+02
3.800000e-07	-5.145180e-06	-2.457207e-09	-3.646984e+01	-1.577186e+02
3.900000e-07	-5.129805e-06	-2.435615e-09	-3.636086e+01	-1.576858e+02
4.000000e-07	-5.113882e-06	-2.473508e-09	-3.624799e+01	-1.576341e+02
4.100000e-07	-5.097618e-06	-2.466964e-09	-3.613271e+01	-1.575641e+02
4.200000e-07	-5.080980e-06	-2.441838e-09	-3.601478e+01	-1.574765e+02
4.300000e-07	-5.063964e-06	-2.457868e-09	-3.589417e+01	-1.573725e+02
4.400000e-07	-5.046710e-06	-2.457891e-09	-3.577187e+01	-1.572531e+02
4.500000e-07	-5.029134e-06	-2.419831e-09	-3.564729e+01	-1.571197e+02
4.600000e-07	-5.011183e-06	-2.434435e-09	-3.552005e+01	-1.569737e+02
4.700000e-07	-4.992901e-06	-2.448869e-09	-3.539047e+01	-1.568168e+02
4.800000e-07	-4.974156e-06	-2.431479e-09	-3.525760e+01	-1.566505e+02
4.900000e-07	-4.954970e-06	-2.426834e-09	-3.512160e+01	-1.564765e+02
5.000000e-07	-4.935480e-06	-2.456066e-09	-3.498345e+01	-1.562964e+02
5.100000e-07	-4.915753e-06	-2.447605e-09	-3.484362e+01	-1.561117e+02
5.200000e-07	-4.895855e-06	-2.434595e-09	-3.470259e+01	-1.559240e+02
5.300000e-07	-4.875771e-06	-2.427125e-09	-3.456023e+01	-1.557346e+02
5.400000e-07	-4.855468e-06	-2.411289e-09	-3.441632e+01	-1.555447e+02
5.500000e-07	-4.834804e-06	-2.392878e-09	-3.426984e+01	-1.553556e+02
5.600000e-07	-4.813682e-06	-2.400279e-09	-3.412013e+01	-1.551679e+02
5.700000e-07	-4.792196e-06	-2.398921e-09	-3.396783e+01	-1.549826e+02
5.800000e-07	-4.770372e-06	-2.404462e-09	-3.381314e+01	-1.548002e+02
5.900000e-07	-4.748263e-06	-2.422351e-09	-3.365643e+01	-1.546210e+02
6.000000e-07	-4.725849e-06	-2.427160e-09	-3.349756e+01	-1.544450e+02
6.100000e-07	-4.702996e-06	-2.404708e-09	-3.333557e+01	-1.542724e+02
6.200000e-07	-4.679821e-06	-2.384821e-09	-3.317130e+01	-1.541029e+02
6.300000e-07	-4.656426e-06	-2.370049e-09	-3.300548e+01	-1.539360e+02
6.400000e-07	-4.632808e-06	-2.361461e-09	-3.283807e+01	-1.537713e+02
6.500000e-07	-4.608993e-06	-2.363168e-09	-3.266926e+01	-1.536080e+02
6.600000e-07	-4.584960e-06	-2.364637e-09	-3.249892e+01	-1.534453e+02
6.700000e-07	-4.560653e-06	-2.368997e-09	-3.232662e+01	-1.532824e+02
6.800000e-07	-4.536002e-06	-2.381043e-09	-3.215189e+01	-1.531183e+02
6.900000e-07	-4.510844e-06	-2.384919e-09	-3.197357e+01	-1.529521e+02
7.000000e-07	-4.485111e-06	-2.367458e-09	-3.179117e+01	-1.527827e+02
7.100000e-07	-4.458833e-06	-2.352383e-09	-3.160491e+01	-1.526093e+02
7.200000e-07	-4.432066e-06	-2.340348e-09	-3.141518e+01	-1.524308e+02
7.300000e-07	-4.404957e-06	-2.333573e-09	-3.122302e+01	-1.522465e+02
7.400000e-07	-4.377599e-06	-2.325299e-09	-3.102911e+01	-1.520556e+02
7.500000e-07	-4.350020e-06	-2.325761e-09	-3.083362e+01	-1.518573e+02
7.600000e-07	-4.322198e-06	-2.330712e-09	-3.063641e+01	-1.516512e+02
7.700000e-07	-4.294187e-06	-2.340432e-09	-3.043787e+01	-1.514369e+02
7.800000e-07	-4.265899e-06	-2.335354e-09	-3.023736e+01	-1.512140e+02
7.900000e-07	-4.237291e-06	-2.323593e-09	-3.003458e+01	-1.509825e+02
8.000000e-07	-4.208361e-06	-2.309316e-09	-2.982952e+01	-1.507424e+02
8.100000e-07	-4.179103e-06	-2.301753e-09	-2.962213e+01	-1.504939e+02
8.200000e-07	-4.149571e-06	-2.293699e-09	-2.941281e+01	-1.502372e+02
8.300000e-07	-4.119762e-06	-2.291120e-09	-2.920151e+01	-1.499729e+02
8.400000e-07	-4.089680e-06	-2.289210e-09	-2.898829e+01	-1.497015e+02
8.500000e-07	-4.059376e-06	-2.292175e-09	-2.877349e+01	-1.494237e+02
8.600000e-07	-4.028746e-06	-2.291475e-09	-2.855638e+01	-1.491402e+02
8.700000e-07	-3.997775e-06	-2.285134e-09	-2.833686e+01	-1.488520e+02
8.800000e-07	-3.966611e-06	-2.274210e-09	-2.811596e+01	-1.485598e+02
8.900000e-07	-3.935272e-06	-2.265281e-09	-2.789382e+01	-1.482646e+02
9.000000e-07	-3.903713e-06	-2.260626e-09	-2.767013e+01	-1.479674e+02
9.100000e-07	-3.871950e-06	-2.256254e-09	-2.744498e+01	-1.476690e+02
9.200000e-07	-3.840023e-06	-2.249230e-09	-2.721868e+01	-1.473704e+02
9.300000e-07	-3.807922e-06	-2.245388e-09	-2.699115e+01	-1.470724e+02
9.400000e-07	-3.775555e-06	-2.243062e-09	-2.676172e+01	-1.467758e+02
9.500000e-07	-3.742781e-06	-2.237595e-09	-2.652942e+01	-1.464813e+02
9.600000e-07	-3.709637e-06	-2.231445e-09	-2.629449e+01	-1.461894e+02
9.700000e-07	-3.676228e-06	-2.226890e-09	-2.605768e+01	-1.459006e+02
9.800000e-07	-3.642495e-06	-2.226536e-09	-2.581857e+01	-1.456153e+02
9.900000e-07	-3.608268e-06	-2.222987e-09	-2.557597e+01	-1.453337e+02
1.000000e-06	-3.573474e-06	-2.215387e-09	-2.532934e+01	-1.450560e+02
1.010000e-06	-3.538260e-06	-2.206072e-09	-2.507974e+01	-1.447820e+02
1.020000e-06	-3.502778e-06	-2.199589e-09	-2.482824e+01	-1.445117e+02
1.030000e-06	-3.467097e-06	-2.190099e-09	-2.457533e+01	-1.442447e+02
1.040000e-06	-3.431318e-06	-2.182909e-09	-2.432172e+01	-1.439806e+02
1.050000e-06	-3.395417e-06	-2.181265e-09	-2.406724e+01	-1.437190e+02
1.060000e-06	-3.359372e-06	-2.184731e-09	-2.381175e+01	-1.434591e+02
1.070000e-06	-3.323149e-06	-2.185000e-09	-2.355500e+01	-1.432004e+02
1.080000e-06	-3.286674e-06	-2.181058e-09	-2.329646e+01	-1.429420e+02
1.090000e-06	-3.249898e-06	-2.171312e-09	-2.303579e+01	-1.426832e+02
1.100000e-06	-3.212897e-06	-2.160473e-09	-2.277352e+01	-1.424230e+02
1.110000e-06	-3.175677e-06	-2.150473e-09	-2.250970e+01	-1.421606e+02
1.120000e-06	-3.138184e-06	-2.143674e-09	-2.224394e+01	-1.418950e+02
1.130000e-06	-3.100499e-06	-2.135963e-09	-2.197682e+01	-1.416254e+02
1.140000e-06	-3.062607e-06	-2.129515e-09	-2.170824e+01	-1.413509e+02
1.150000e-06	-3.024546e-06	-2.126778e-09	-2.143846e+01	-1.410707e+02
1.160000e-06	-2.986383e-06	-2.125388e-09	-2.116795e+01	-1.407839e+02
1.170000e-06	-2.948020e-06	-2.120917e-09	-2.089603e+01	-1.404900e+02
1.180000e-06	-2.909354e-06	-2.114350e-09	-2.062196e+01	-1.401881e+02
1.190000e-06	-2.870361e-06	-2.106678e-09	-2.034557e+01	-1.398778e+02
1.200000e-06	-2.831189e-06	-2.097510e-09	-2.006791e+01	-1.395585e+02
1.210000e-06	-2.791858e-06	-2.085156e-09	-1.978912e+01	-1.392298e+02
1.220000e-06	-2.752301e-06	-2.074211e-09	-1.950874e+01	-1.388914e+02
1.230000e-06	-2.712635e-06	-2.066662e-09	-1.922758e+01	-1.385431e+02
1.240000e-06	-2.672909e-06	-2.061123e-09	-1.894600e+01	-1.381847e+02
1.250000e-06	-2.633069e-06	-2.057609e-09	-1.866361e+01	-1.378161e+02
1.260000e-06	-2.593116e-06	-2.055824e-09	-1.838041e+01	-1.374374e+02
1.270000e-06	-2.553072e-06	-2.051552e-09	-1.809657e+01	-1.370485e+02
1.280000e-06	-2.512936e-06	-2.043011e-09	-1.781208e+01	-1.366497e+02
1.290000e-06	-2.472675e-06	-2.033362e-09	-1.752671e+01	-1.362411e+02
1.300000e-06	-2.432232e-06	-2.020586e-09	-1.724004e+01	-1.358229e+02
1.310000e-06	-2.391626e-06	-2.006526e-09	-1.695222e+01	-1.353954e+02
1.320000e-06	-2.350758e-06	-1.994520e-09	-1.666254e+01	-1.349589e+02
1.330000e-06	-2.309603e-06	-1.985826e-09	-1.637082e+01	-1.345135e+02
1.340000e-06	-2.268210e-06	-1.982859e-09	-1.607742e+01	-1.340597e+02
1.350000e-06	-2.226509e-06	-1.982309e-09	-1.578185e+01	-1.335976e+02
1.360000e-06	-2.184460e-06	-1.975603e-09	-1.548379e+01	-1.331275e+02
1.370000e-06	-2.142169e-06	-1.964412e-09	-1.518403e+01	-1.326497e+02
1.380000e-06	-2.099642e-06	-1.952021e-09	-1.488259e+01	-1.321642e+02
1.390000e-06	-2.056833e-06	-1.940932e-09	-1.457916e+01	-1.316712e+02
1.400000e-06	-2.013804e-06	-1.929326e-09	-1.427416e+01	-1.311707e+02
1.410000e-06	-1.970555e-06	-1.918503e-09	-1.396760e+01	-1.306628e+02
1.420000e-06	-1.927201e-06	-1.910388e-09	-1.366030e+01	-1.301475e+02
1.430000e-06	-1.883757e-06	-1.905575e-09	-1.335237e+01	-1.296246e+02
1.440000e-06	-1.840170e-06	-1.899787e-09	-1.304341e+01	-1.290939e+02
1.450000e-06	-1.796464e-06	-1.890285e-09	-1.273361e+01	-1.285552e+02
1.460000e-06	-1.752683e-06	-1.881293e-09	-1.242329e+01	-1.280082e+02
1.470000e-06	-1.708845e-06	-1.873967e-09	-1.211256e+01	-1.274524e+02
1.480000e-06	-1.664931e-06	-1.864083e-09	-1.180129e+01	-1.268876e+02
1.490000e-06	-1.620948e-06	-1.851762e-09	-1.148954e+01	-1.263131e+02
1.500000e-06	-1.576851e-06	-1.841106e-09	-1.117697e+01	-1.257284e+02
1.510000e-06	-1.532692e-06	-1.832702e-09	-1.086396e+01	-1.251329e+02
1.520000e-06	-1.488501e-06	-1.823739e-09	-1.055073e+01	-1.245260e+02
1.530000e-06	-1.444211e-06	-1.812560e-09	-1.023679e+01	-1.239070e+02
1.540000e-06	-1.399800e-06	-1.802362e-09	-9.921998e+00	-1.232752e+02
1.550000e-06	-1.355286e-06	-1.793570e-09	-9.606482e+00	-1.226297e+02
1.560000e-06	-1.310696e-06	-1.782758e-09	-9.290419e+00	-1.219698e+02
1.570000e-06	-1.266082e-06	-1.772605e-09	-8.974184e+00	-1.212947e+02
1.580000e-06	-1.221441e-06	-1.764364e-09	-8.657765e+00	-1.206036e+02
1.590000e-06	-1.176710e-06	-1.757389e-09	-8.340707e+00	-1.198956e+02
1.600000e-06	-1.131873e-06	-1.746732e-09	-8.022889e+00	-1.191699e+02
1.610000e-06	-1.086917e-06	-1.730100e-09	-7.704235e+00	-1.184255e+02
1.620000e-06	-1.041808e-06	-1.712128e-09	-7.384497e+00	-1.176618e+02
1.630000e-06	-9.966140e-07	-1.698787e-09	-7.064156e+00	-1.168777e+02
1.640000e-06	-9.513724e-07	-1.688802e-09	-6.743476e+00	-1.160724e+02
1.650000e-06	-9.059678e-07	-1.677730e-09	-6.421641e+00	-1.152450e+02
1.660000e-06	-8.604768e-07	-1.666931e-09	-6.099194e+00	-1.143947e+02
1.670000e-06	-8.149707e-07	-1.659319e-09	-5.776639e+00	-1.135206e+02
1.680000e-06	-7.693985e-07	-1.650695e-09	-5.453617e+00	-1.126218e+02
1.690000e-06	-7.238514e-07	-1.630762e-09	-5.130772e+00	-1.116974e+02
1.700000e-06	-6.782168e-07	-1.605869e-09	-4.807307e+00	-1.107467e+02
1.710000e-06	-6.324585e-07	-1.588572e-09	-4.482964e+00	-1.097685e+02
1.720000e-06	-5.867479e-07	-1.578971e-09	-4.158961e+00	-1.087622e+02
1.730000e-06	-5.410306e-07	-1.569435e-09	-3.834910e+00	-1.077266e+02
1.740000e-06	-4.951792e-07	-1.553257e-09	-3.509908e+00	-1.066610e+02
1.750000e-06	-4.493573e-07	-1.536069e-09	-3.185114e+00	-1.055644e+02
1.760000e-06	-4.036177e-07	-1.524324e-09	-2.860905e+00	-1.044358e+02
1.770000e-06	-3.577761e-07	-1.510401e-09	-2.535973e+00	-1.032742e+02
1.780000e-06	-3.118875e-07	-1.486527e-09	-2.210707e+00	-1.020785e+02
1.790000e-06	-2.659899e-07	-1.459016e-09	-1.885378e+00	-1.008476e+02
1.800000e-06	-2.201102e-07	-1.438676e-09	-1.560175e+00	-9.958058e+01
1.810000e-06	-1.742502e-07	-1.422416e-09	-1.235113e+00	-9.827612e+01
1.820000e-06	-1.283198e-07	-1.403405e-09	-9.095509e-01	-9.693306e+01
1.830000e-06	-8.229286e-08	-1.382149e-09	-5.833046e-01	-9.555012e+01
1.840000e-06	-3.627966e-08	-1.362978e-09	-2.571559e-01	-9.412602e+01
1.850000e-06	9.630304e-09	-1.344132e-09	6.826110e-02	-9.265937e+01
1.860000e-06	5.550512e-08	-1.321532e-09	3.934290e-01	-9.114877e+01
1.870000e-06	1.013711e-07	-1.293218e-09	7.185340e-01	-8.959275e+01
1.880000e-06	1.472008e-07	-1.263999e-09	1.043382e+00	-8.798978e+01
1.890000e-06	1.930304e-07	-1.238515e-09	1.368229e+00	-8.633829e+01
1.900000e-06	2.388966e-07	-1.213762e-09	1.693336e+00	-8.463668e+01
1.910000e-06	2.847573e-07	-1.185526e-09	2.018404e+00	-8.288329e+01
1.920000e-06	3.305862e-07	-1.156802e-09	2.343247e+00	-8.107644e+01
1.930000e-06	3.764133e-07	-1.132253e-09	2.668076e+00	-7.921444e+01
1.940000e-06	4.222606e-07	-1.109219e-09	2.993049e+00	-7.729557e+01
1.950000e-06	4.680913e-07	-1.081700e-09	3.317904e+00	-7.531812e+01
1.960000e-06	5.138747e-07	-1.050209e-09	3.642424e+00	-7.328042e+01
1.970000e-06	5.595885e-07	-1.020362e-09	3.966451e+00	-7.118081e+01
1.980000e-06	6.052383e-07	-9.902927e-10	4.290023e+00	-6.901768e+01
1.990000e-06	6.508129e-07	-9.533979e-10	4.613064e+00	-6.678952e+01
2.000000e-06	6.962947e-07	-9.125829e-10	4.935446e+00	-6.449488e+01
2.010000e-06	7.417133e-07	-8.764302e-10	5.257380e+00	-6.213246e+01
2.020000e-06	7.871553e-07	-8.444634e-10	5.579480e+00	-5.970106e+01
2.030000e-06	8.326379e-07	-8.110747e-10	5.901867e+00	-5.719969e+01
2.040000e-06	8.780606e-07	-7.754819e-10	6.223831e+00	-5.462750e+01
2.050000e-06	9.233990e-07	-7.381708e-10	6.545196e+00	-5.198389e+01
2.060000e-06	9.686952e-07	-6.986235e-10	6.866263e+00	-4.926849e+01
2.070000e-06	1.013972e-06	-6.563602e-10	7.187193e+00	-4.648118e+01
2.080000e-06	1.059112e-06	-6.113925e-10	7.507155e+00	-4.362213e+01
2.090000e-06	1.104131e-06	-5.678018e-10	7.826253e+00	-4.069182e+01
2.100000e-06	1.149003e-06	-5.246094e-10	8.144314e+00	-3.769106e+01
2.110000e-06	1.193664e-06	-4.820394e-10	8.460876e+00	-3.462101e+01
2.120000e-06	1.238261e-06	-4.390863e-10	8.776988e+00	-3.148317e+01
2.130000e-06	1.282859e-06	-3.973806e-10	9.093108e+00	-2.827944e+01
2.140000e-06	1.327408e-06	-3.538638e-10	9.408876e+00	-2.501208e+01
2.150000e-06	1.371815e-06	-3.030562e-10	9.723641e+00	-2.168376e+01
2.160000e-06	1.416093e-06	-2.463158e-10	1.003749e+01	-1.829751e+01
2.170000e-06	1.460300e-06	-1.892009e-10	1.035084e+01	-1.485678e+01
2.180000e-06	1.504425e-06	-1.370488e-10	1.066360e+01	-1.136538e+01
2.190000e-06	1.548460e-06	-8.843783e-11	1.097572e+01	-7.827482e+00
2.200000e-06	1.592448e-06	-3.914836e-11	1.128752e+01	-4.247634e+00
2.210000e-06	1.636434e-06	1.055423e-11	1.159930e+01	-6.306963e-01
2.220000e-06	1.680371e-06	6.111900e-11	1.191074e+01	3.018157e+00
2.230000e-06	1.724241e-06	1.144485e-10	1.222169e+01	6.693476e+00
2.240000e-06	1.768085e-06	1.731807e-10	1.253246e+01	1.038956e+01
2.250000e-06	1.811877e-06	2.334707e-10	1.284287e+01	1.410052e+01
2.260000e-06	1.855511e-06	2.883268e-10	1.315215e+01	1.782027e+01
2.270000e-06	1.899036e-06	3.412315e-10	1.346067e+01	2.154263e+01
2.280000e-06	1.942551e-06	3.948367e-10	1.376910e+01	2.526131e+01
2.290000e-06	1.985977e-06	4.478711e-10	1.407692e+01	2.897001e+01
2.300000e-06	2.029280e-06	5.014084e-10	1.438385e+01	3.266244e+01
2.310000e-06	2.072391e-06	5.560594e-10	1.468943e+01	3.633237e+01
2.320000e-06	2.115123e-06	6.108543e-10	1.499233e+01	3.997369e+01
2.330000e-06	2.157534e-06	6.670736e-10	1.529294e+01	4.358044e+01
2.340000e-06	2.199560e-06	7.200670e-10	1.559083e+01	4.714688e+01
2.350000e-06	2.241235e-06	7.676841e-10	1.588622e+01	5.066750e+01
2.360000e-06	2.282811e-06	8.147699e-10	1.618092e+01	5.413709e+01
2.370000e-06	2.324165e-06	8.662630e-10	1.647404e+01	5.755078e+01
2.380000e-06	2.365166e-06	9.180169e-10	1.676467e+01	6.090404e+01
2.390000e-06	2.405804e-06	9.659171e-10	1.705271e+01	6.419275e+01
2.400000e-06	2.446188e-06	1.010402e-09	1.733896e+01	6.741319e+01
2.410000e-06	2.486491e-06	1.055361e-09	1.762463e+01	7.056207e+01
2.420000e-06	2.526701e-06	1.098980e-09	1.790965e+01	7.363657e+01
2.430000e-06	2.566762e-06	1.137540e-09	1.819361e+01	7.663430e+01
2.440000e-06	2.606706e-06	1.177147e-09	1.847674e+01	7.955334e+01
2.450000e-06	2.646554e-06	1.219238e-09	1.875919e+01	8.239223e+01
2.460000e-06	2.686308e-06	1.262195e-09	1.904097e+01	8.514992e+01
2.470000e-06	2.725937e-06	1.303213e-09	1.932187e+01	8.782584e+01
2.480000e-06	2.765410e-06	1.338982e-09	1.960166e+01	9.041981e+01
2.490000e-06	2.804671e-06	1.374281e-09	1.987995e+01	9.293202e+01
2.500000e-06	2.843691e-06	1.408210e-09	2.015653e+01	9.536306e+01
2.510000e-06	2.882530e-06	1.438903e-09	2.043182e+01	9.771382e+01
2.520000e-06	2.921170e-06	1.469587e-09	2.070571e+01	9.998551e+01
2.530000e-06	2.959594e-06	1.505336e-09	2.097806e+01	1.021796e+02
2.540000e-06	2.997809e-06	1.543745e-09	2.124894e+01	1.042977e+02
2.550000e-06	3.035859e-06	1.577566e-09	2.151865e+01	1.063418e+02
2.560000e-06	3.073734e-06	1.607721e-09	2.178711e+01	1.083139e+02
2.570000e-06	3.111424e-06	1.634337e-09	2.205426e+01	1.102160e+02
2.580000e-06	3.148973e-06	1.656826e-09	2.232041e+01	1.120505e+02
2.590000e-06	3.186389e-06	1.676439e-09	2.258563e+01	1.138195e+02
2.600000e-06	3.223540e-06	1.696168e-09	2.284896e+01	1.155253e+02
2.610000e-06	3.260311e-06	1.721372e-09	2.310959e+01	1.171702e+02
2.620000e-06	3.296760e-06	1.750827e-09	2.336795e+01	1.187563e+02
2.630000e-06	3.332955e-06	1.778292e-09	2.362450e+01	1.202857e+02
2.640000e-06	3.369022e-06	1.800146e-09	2.388015e+01	1.217606e+02
2.650000e-06	3.404988e-06	1.817598e-09	2.413509e+01	1.231827e+02
2.660000e-06	3.440812e-06	1.833477e-09	2.438901e+01	1.245539e+02
2.670000e-06	3.476525e-06	1.849101e-09	2.464215e+01	1.258760e+02
2.680000e-06	3.512111e-06	1.865580e-09	2.489440e+01	1.271504e+02
2.690000e-06	3.547497e-06	1.882857e-09	2.514521e+01	1.283786e+02
2.700000e-06	3.582667e-06	1.901009e-09	2.539450e+01	1.295621e+02
2.710000e-06	3.617475e-06	1.920757e-09	2.564123e+01	1.307019e+02
2.720000e-06	3.651774e-06	1.940674e-09	2.588434e+01	1.317993e+02
2.730000e-06	3.685495e-06	1.956810e-09	2.612336e+01	1.328552e+02
2.740000e-06	3.718703e-06	1.969120e-09	2.635875e+01	1.338707e+02
2.750000e-06	3.751533e-06	1.980052e-09	2.659145e+01	1.348468e+02
2.760000e-06	3.784027e-06	1.992666e-09	2.682177e+01	1.357842e+02
2.770000e-06	3.816261e-06	2.004599e-09	2.705025e+01	1.366839e+02
2.780000e-06	3.848304e-06	2.015559e-09	2.727738e+01	1.375468e+02
2.790000e-06	3.880194e-06	2.028567e-09	2.750342e+01	1.383737e+02
2.800000e-06	3.911906e-06	2.041213e-09	2.772820e+01	1.391656e+02
2.810000e-06	3.943501e-06	2.050695e-09	2.795215e+01	1.399234e+02
2.820000e-06	3.974921e-06	2.058695e-09	2.817486e+01	1.406481e+02
2.830000e-06	4.006007e-06	2.065355e-09	2.839520e+01	1.413408e+02
2.840000e-06	4.036742e-06	2.073487e-09	2.861306e+01	1.420026e+02
2.850000e-06	4.067171e-06	2.086103e-09	2.882874e+01	1.426346e+02
2.860000e-06	4.097301e-06	2.100391e-09	2.904231e+01	1.432382e+02
2.870000e-06	4.127186e-06	2.112186e-09	2.925414e+01	1.438146e+02
2.880000e-06	4.156869e-06	2.119823e-09	2.946454e+01	1.443651e+02
2.890000e-06	4.186284e-06	2.123552e-09	2.967303e+01	1.448911e+02
2.900000e-06	4.215447e-06	2.125290e-09	2.987975e+01	1.453940e+02
