# Temperatura_=_18.69
# Concentracion g/m^3_=_4090.0
# C_Vs_to_Am_M_A/Vsm_=_65563218390.804596
# pendiente_HvsI_1/m_=_3716.3
# ordenada_HvsI_A/m_=_1297.0
# frecuencia_Hz_=_135080.1654498346

Tiempo_(s)	Campo_(V.s)	Magnetizacion_(V.s)	Campo_(kA/m)	Magnetizacion_(A/m)
0.000000e+00	-5.392842e-06	-2.344416e-09	-3.839030e+01	-1.536961e+02
1.000000e-08	-5.392814e-06	-2.343092e-09	-3.839011e+01	-1.535698e+02
2.000000e-08	-5.392687e-06	-2.342655e-09	-3.838920e+01	-1.534451e+02
3.000000e-08	-5.392427e-06	-2.341698e-09	-3.838735e+01	-1.533242e+02
4.000000e-08	-5.391797e-06	-2.336341e-09	-3.838286e+01	-1.532093e+02
5.000000e-08	-5.390668e-06	-2.331349e-09	-3.837483e+01	-1.531026e+02
6.000000e-08	-5.389012e-06	-2.322605e-09	-3.836304e+01	-1.530060e+02
7.000000e-08	-5.386741e-06	-2.290528e-09	-3.834687e+01	-1.529217e+02
8.000000e-08	-5.383805e-06	-2.283174e-09	-3.832597e+01	-1.528514e+02
9.000000e-08	-5.380172e-06	-2.406398e-09	-3.830011e+01	-1.527966e+02
1.000000e-07	-5.375986e-06	-2.523444e-09	-3.827031e+01	-1.527588e+02
1.100000e-07	-5.371578e-06	-2.359212e-09	-3.823893e+01	-1.527391e+02
1.200000e-07	-5.367161e-06	-2.223975e-09	-3.820748e+01	-1.527383e+02
1.300000e-07	-5.362613e-06	-2.319487e-09	-3.817511e+01	-1.527569e+02
1.400000e-07	-5.357571e-06	-2.505197e-09	-3.813921e+01	-1.527950e+02
1.500000e-07	-5.352008e-06	-2.325764e-09	-3.809961e+01	-1.528525e+02
1.600000e-07	-5.346203e-06	-2.108046e-09	-3.805829e+01	-1.529289e+02
1.700000e-07	-5.340116e-06	-2.314912e-09	-3.801496e+01	-1.530233e+02
1.800000e-07	-5.333509e-06	-2.558862e-09	-3.796792e+01	-1.531345e+02
1.900000e-07	-5.326346e-06	-2.453386e-09	-3.791693e+01	-1.532609e+02
2.000000e-07	-5.318996e-06	-2.249880e-09	-3.786461e+01	-1.534009e+02
2.100000e-07	-5.311503e-06	-2.402804e-09	-3.781127e+01	-1.535524e+02
2.200000e-07	-5.303599e-06	-2.480069e-09	-3.775500e+01	-1.537129e+02
2.300000e-07	-5.295449e-06	-2.356997e-09	-3.769699e+01	-1.538801e+02
2.400000e-07	-5.287115e-06	-2.326971e-09	-3.763766e+01	-1.540513e+02
2.500000e-07	-5.278289e-06	-2.525359e-09	-3.757483e+01	-1.542238e+02
2.600000e-07	-5.268701e-06	-2.497013e-09	-3.750657e+01	-1.543946e+02
2.700000e-07	-5.258549e-06	-2.381925e-09	-3.743431e+01	-1.545610e+02
2.800000e-07	-5.247929e-06	-2.467236e-09	-3.735870e+01	-1.547202e+02
2.900000e-07	-5.236735e-06	-2.544602e-09	-3.727901e+01	-1.548695e+02
3.000000e-07	-5.225008e-06	-2.352892e-09	-3.719553e+01	-1.550061e+02
3.100000e-07	-5.212922e-06	-2.293267e-09	-3.710950e+01	-1.551277e+02
3.200000e-07	-5.200491e-06	-2.491054e-09	-3.702101e+01	-1.552321e+02
3.300000e-07	-5.187679e-06	-2.510254e-09	-3.692980e+01	-1.553172e+02
3.400000e-07	-5.174482e-06	-2.341923e-09	-3.683585e+01	-1.553812e+02
3.500000e-07	-5.160885e-06	-2.359614e-09	-3.673906e+01	-1.554228e+02
3.600000e-07	-5.146901e-06	-2.454467e-09	-3.663951e+01	-1.554408e+02
3.700000e-07	-5.132638e-06	-2.385161e-09	-3.653798e+01	-1.554343e+02
3.800000e-07	-5.117961e-06	-2.335316e-09	-3.643350e+01	-1.554028e+02
3.900000e-07	-5.102572e-06	-2.381257e-09	-3.632394e+01	-1.553462e+02
4.000000e-07	-5.086523e-06	-2.374877e-09	-3.620969e+01	-1.552646e+02
4.100000e-07	-5.070047e-06	-2.366388e-09	-3.609241e+01	-1.551584e+02
4.200000e-07	-5.053173e-06	-2.435600e-09	-3.597228e+01	-1.550285e+02
4.300000e-07	-5.035974e-06	-2.387895e-09	-3.584985e+01	-1.548757e+02
4.400000e-07	-5.018675e-06	-2.308807e-09	-3.572670e+01	-1.547015e+02
4.500000e-07	-5.001090e-06	-2.346133e-09	-3.560152e+01	-1.545071e+02
4.600000e-07	-4.983050e-06	-2.411080e-09	-3.547310e+01	-1.542943e+02
4.700000e-07	-4.964664e-06	-2.344535e-09	-3.534221e+01	-1.540648e+02
4.800000e-07	-4.945944e-06	-2.325080e-09	-3.520895e+01	-1.538204e+02
4.900000e-07	-4.926751e-06	-2.364276e-09	-3.507232e+01	-1.535632e+02
5.000000e-07	-4.907147e-06	-2.394026e-09	-3.493276e+01	-1.532951e+02
5.100000e-07	-4.887292e-06	-2.361402e-09	-3.479142e+01	-1.530180e+02
5.200000e-07	-4.867257e-06	-2.332706e-09	-3.464880e+01	-1.527338e+02
5.300000e-07	-4.847041e-06	-2.305469e-09	-3.450488e+01	-1.524444e+02
5.400000e-07	-4.826609e-06	-2.342318e-09	-3.435943e+01	-1.521513e+02
5.500000e-07	-4.805782e-06	-2.357526e-09	-3.421117e+01	-1.518563e+02
5.600000e-07	-4.784542e-06	-2.322570e-09	-3.405996e+01	-1.515606e+02
5.700000e-07	-4.762986e-06	-2.297977e-09	-3.390651e+01	-1.512655e+02
5.800000e-07	-4.741122e-06	-2.337820e-09	-3.375087e+01	-1.509720e+02
5.900000e-07	-4.719040e-06	-2.345885e-09	-3.359367e+01	-1.506809e+02
6.000000e-07	-4.696689e-06	-2.318359e-09	-3.343456e+01	-1.503929e+02
6.100000e-07	-4.673948e-06	-2.291180e-09	-3.327268e+01	-1.501082e+02
6.200000e-07	-4.650857e-06	-2.290194e-09	-3.310830e+01	-1.498271e+02
6.300000e-07	-4.627405e-06	-2.310126e-09	-3.294135e+01	-1.495495e+02
6.400000e-07	-4.603648e-06	-2.315831e-09	-3.277223e+01	-1.492754e+02
6.500000e-07	-4.579701e-06	-2.278459e-09	-3.260176e+01	-1.490042e+02
6.600000e-07	-4.555591e-06	-2.256102e-09	-3.243012e+01	-1.487356e+02
6.700000e-07	-4.531276e-06	-2.285020e-09	-3.225703e+01	-1.484688e+02
6.800000e-07	-4.506600e-06	-2.292213e-09	-3.208137e+01	-1.482032e+02
6.900000e-07	-4.481400e-06	-2.264635e-09	-3.190197e+01	-1.479379e+02
7.000000e-07	-4.455667e-06	-2.247208e-09	-3.171879e+01	-1.476720e+02
7.100000e-07	-4.429339e-06	-2.265337e-09	-3.153136e+01	-1.474048e+02
7.200000e-07	-4.402544e-06	-2.270125e-09	-3.134062e+01	-1.471352e+02
7.300000e-07	-4.375376e-06	-2.253957e-09	-3.114721e+01	-1.468624e+02
7.400000e-07	-4.347818e-06	-2.221563e-09	-3.095104e+01	-1.465857e+02
7.500000e-07	-4.320019e-06	-2.224753e-09	-3.075314e+01	-1.463041e+02
7.600000e-07	-4.292073e-06	-2.239335e-09	-3.055420e+01	-1.460170e+02
7.700000e-07	-4.264029e-06	-2.237228e-09	-3.035456e+01	-1.457239e+02
7.800000e-07	-4.235804e-06	-2.208664e-09	-3.015364e+01	-1.454242e+02
7.900000e-07	-4.207342e-06	-2.205915e-09	-2.995103e+01	-1.451175e+02
8.000000e-07	-4.178508e-06	-2.212160e-09	-2.974576e+01	-1.448036e+02
8.100000e-07	-4.149251e-06	-2.209928e-09	-2.953749e+01	-1.444823e+02
8.200000e-07	-4.119688e-06	-2.186672e-09	-2.932704e+01	-1.441535e+02
8.300000e-07	-4.089862e-06	-2.176613e-09	-2.911471e+01	-1.438175e+02
8.400000e-07	-4.059816e-06	-2.180123e-09	-2.890082e+01	-1.434742e+02
8.500000e-07	-4.029526e-06	-2.189330e-09	-2.868520e+01	-1.431240e+02
8.600000e-07	-3.998949e-06	-2.173420e-09	-2.846753e+01	-1.427673e+02
8.700000e-07	-3.968102e-06	-2.156161e-09	-2.824793e+01	-1.424044e+02
8.800000e-07	-3.936918e-06	-2.152059e-09	-2.802594e+01	-1.420359e+02
8.900000e-07	-3.905367e-06	-2.159909e-09	-2.780134e+01	-1.416623e+02
9.000000e-07	-3.873584e-06	-2.154536e-09	-2.757508e+01	-1.412841e+02
9.100000e-07	-3.841707e-06	-2.139620e-09	-2.734816e+01	-1.409019e+02
9.200000e-07	-3.809716e-06	-2.131877e-09	-2.712042e+01	-1.405162e+02
9.300000e-07	-3.777562e-06	-2.132538e-09	-2.689152e+01	-1.401276e+02
9.400000e-07	-3.745217e-06	-2.124251e-09	-2.666127e+01	-1.397366e+02
9.500000e-07	-3.712584e-06	-2.105594e-09	-2.642896e+01	-1.393436e+02
9.600000e-07	-3.679578e-06	-2.097902e-09	-2.619400e+01	-1.389490e+02
9.700000e-07	-3.646233e-06	-2.102344e-09	-2.595663e+01	-1.385532e+02
9.800000e-07	-3.612503e-06	-2.104228e-09	-2.571651e+01	-1.381565e+02
9.900000e-07	-3.578372e-06	-2.091862e-09	-2.547354e+01	-1.377590e+02
1.000000e-06	-3.543862e-06	-2.079256e-09	-2.522787e+01	-1.373610e+02
1.010000e-06	-3.508857e-06	-2.070542e-09	-2.497868e+01	-1.369624e+02
1.020000e-06	-3.473437e-06	-2.061864e-09	-2.472653e+01	-1.365632e+02
1.030000e-06	-3.437800e-06	-2.043540e-09	-2.447284e+01	-1.361635e+02
1.040000e-06	-3.401960e-06	-2.034662e-09	-2.421770e+01	-1.357629e+02
1.050000e-06	-3.365960e-06	-2.035436e-09	-2.396144e+01	-1.353614e+02
1.060000e-06	-3.329840e-06	-2.043633e-09	-2.370430e+01	-1.349586e+02
1.070000e-06	-3.293586e-06	-2.038749e-09	-2.344622e+01	-1.345542e+02
1.080000e-06	-3.257214e-06	-2.028377e-09	-2.318730e+01	-1.341480e+02
1.090000e-06	-3.220597e-06	-2.014992e-09	-2.292663e+01	-1.337395e+02
1.100000e-06	-3.183701e-06	-2.006478e-09	-2.266397e+01	-1.333283e+02
1.110000e-06	-3.146537e-06	-1.994301e-09	-2.239941e+01	-1.329140e+02
1.120000e-06	-3.109149e-06	-1.982741e-09	-2.213326e+01	-1.324963e+02
1.130000e-06	-3.071589e-06	-1.974731e-09	-2.186588e+01	-1.320746e+02
1.140000e-06	-3.033825e-06	-1.975816e-09	-2.159705e+01	-1.316487e+02
1.150000e-06	-2.995848e-06	-1.971858e-09	-2.132670e+01	-1.312180e+02
1.160000e-06	-2.957692e-06	-1.963650e-09	-2.105507e+01	-1.307822e+02
1.170000e-06	-2.919345e-06	-1.954216e-09	-2.078209e+01	-1.303409e+02
1.180000e-06	-2.880828e-06	-1.948412e-09	-2.050790e+01	-1.298937e+02
1.190000e-06	-2.842153e-06	-1.940742e-09	-2.023258e+01	-1.294404e+02
1.200000e-06	-2.803121e-06	-1.928413e-09	-1.995472e+01	-1.289806e+02
1.210000e-06	-2.763884e-06	-1.914329e-09	-1.967540e+01	-1.285139e+02
1.220000e-06	-2.724508e-06	-1.906876e-09	-1.939509e+01	-1.280401e+02
1.230000e-06	-2.684874e-06	-1.901817e-09	-1.911295e+01	-1.275588e+02
1.240000e-06	-2.645125e-06	-1.894644e-09	-1.882999e+01	-1.270698e+02
1.250000e-06	-2.605227e-06	-1.887422e-09	-1.854597e+01	-1.265728e+02
1.260000e-06	-2.565242e-06	-1.880936e-09	-1.826132e+01	-1.260675e+02
1.270000e-06	-2.525213e-06	-1.875258e-09	-1.797637e+01	-1.255535e+02
1.280000e-06	-2.485063e-06	-1.865334e-09	-1.769055e+01	-1.250306e+02
1.290000e-06	-2.444815e-06	-1.853513e-09	-1.740403e+01	-1.244985e+02
1.300000e-06	-2.404426e-06	-1.840624e-09	-1.711651e+01	-1.239568e+02
1.310000e-06	-2.363915e-06	-1.830868e-09	-1.682813e+01	-1.234052e+02
1.320000e-06	-2.323313e-06	-1.818175e-09	-1.653909e+01	-1.228433e+02
1.330000e-06	-2.282494e-06	-1.806133e-09	-1.624851e+01	-1.222708e+02
1.340000e-06	-2.241313e-06	-1.795171e-09	-1.595535e+01	-1.216872e+02
1.350000e-06	-2.199869e-06	-1.787915e-09	-1.566032e+01	-1.210922e+02
1.360000e-06	-2.158151e-06	-1.777997e-09	-1.536334e+01	-1.204855e+02
1.370000e-06	-2.116205e-06	-1.770806e-09	-1.506474e+01	-1.198665e+02
1.380000e-06	-2.074020e-06	-1.762060e-09	-1.476443e+01	-1.192350e+02
1.390000e-06	-2.031540e-06	-1.751969e-09	-1.446203e+01	-1.185905e+02
1.400000e-06	-1.988711e-06	-1.737877e-09	-1.415714e+01	-1.179326e+02
1.410000e-06	-1.945513e-06	-1.722769e-09	-1.384963e+01	-1.172610e+02
1.420000e-06	-1.902188e-06	-1.706306e-09	-1.354120e+01	-1.165754e+02
1.430000e-06	-1.858810e-06	-1.691917e-09	-1.323240e+01	-1.158755e+02
1.440000e-06	-1.815265e-06	-1.680586e-09	-1.292242e+01	-1.151608e+02
1.450000e-06	-1.771640e-06	-1.674032e-09	-1.261186e+01	-1.144313e+02
1.460000e-06	-1.727910e-06	-1.667537e-09	-1.230056e+01	-1.136865e+02
1.470000e-06	-1.684008e-06	-1.657023e-09	-1.198803e+01	-1.129264e+02
1.480000e-06	-1.640068e-06	-1.641633e-09	-1.167523e+01	-1.121507e+02
1.490000e-06	-1.596097e-06	-1.626653e-09	-1.136222e+01	-1.113593e+02
1.500000e-06	-1.552030e-06	-1.612755e-09	-1.104851e+01	-1.105518e+02
1.510000e-06	-1.507872e-06	-1.596620e-09	-1.073417e+01	-1.097283e+02
1.520000e-06	-1.463700e-06	-1.578981e-09	-1.041972e+01	-1.088885e+02
1.530000e-06	-1.419500e-06	-1.567302e-09	-1.010506e+01	-1.080323e+02
1.540000e-06	-1.375203e-06	-1.562446e-09	-9.789727e+00	-1.071594e+02
1.550000e-06	-1.330804e-06	-1.552717e-09	-9.473663e+00	-1.062696e+02
1.560000e-06	-1.286407e-06	-1.537417e-09	-9.157615e+00	-1.053627e+02
1.570000e-06	-1.241959e-06	-1.520861e-09	-8.841201e+00	-1.044382e+02
1.580000e-06	-1.197405e-06	-1.507126e-09	-8.524030e+00	-1.034958e+02
1.590000e-06	-1.152821e-06	-1.491332e-09	-8.206645e+00	-1.025349e+02
1.600000e-06	-1.108164e-06	-1.470564e-09	-7.888746e+00	-1.015550e+02
1.610000e-06	-1.063357e-06	-1.448557e-09	-7.569777e+00	-1.005555e+02
1.620000e-06	-1.018405e-06	-1.433144e-09	-7.249775e+00	-9.953533e+01
1.630000e-06	-9.733316e-07	-1.419271e-09	-6.928906e+00	-9.849377e+01
1.640000e-06	-9.281579e-07	-1.404028e-09	-6.607326e+00	-9.742972e+01
1.650000e-06	-8.829612e-07	-1.387348e-09	-6.285582e+00	-9.634200e+01
1.660000e-06	-8.377889e-07	-1.374330e-09	-5.964011e+00	-9.522932e+01
1.670000e-06	-7.925663e-07	-1.362664e-09	-5.642082e+00	-9.409026e+01
1.680000e-06	-7.472269e-07	-1.345781e-09	-5.319322e+00	-9.292330e+01
1.690000e-06	-7.018057e-07	-1.321191e-09	-4.995980e+00	-9.172678e+01
1.700000e-06	-6.563374e-07	-1.296166e-09	-4.672303e+00	-9.049897e+01
1.710000e-06	-6.107987e-07	-1.275926e-09	-4.348124e+00	-8.923804e+01
1.720000e-06	-5.652597e-07	-1.258445e-09	-4.023944e+00	-8.794211e+01
1.730000e-06	-5.196562e-07	-1.238961e-09	-3.699304e+00	-8.660925e+01
1.740000e-06	-4.740138e-07	-1.219165e-09	-3.374386e+00	-8.523749e+01
1.750000e-06	-4.283710e-07	-1.201216e-09	-3.049467e+00	-8.382487e+01
1.760000e-06	-3.826684e-07	-1.184363e-09	-2.724121e+00	-8.236943e+01
1.770000e-06	-3.369812e-07	-1.162738e-09	-2.398885e+00	-8.086929e+01
1.780000e-06	-2.912430e-07	-1.136205e-09	-2.073286e+00	-7.932260e+01
1.790000e-06	-2.454755e-07	-1.108875e-09	-1.747479e+00	-7.772762e+01
1.800000e-06	-1.997432e-07	-1.081029e-09	-1.421922e+00	-7.608274e+01
1.810000e-06	-1.539943e-07	-1.054371e-09	-1.096247e+00	-7.438649e+01
1.820000e-06	-1.081620e-07	-1.029186e-09	-7.699783e-01	-7.263754e+01
1.830000e-06	-6.232096e-08	-1.004417e-09	-4.436474e-01	-7.083477e+01
1.840000e-06	-1.648188e-08	-9.770130e-10	-1.173304e-01	-6.897727e+01
1.850000e-06	2.931136e-08	-9.509045e-10	2.086603e-01	-6.706431e+01
1.860000e-06	7.505512e-08	-9.242165e-10	5.342988e-01	-6.509543e+01
1.870000e-06	1.208509e-07	-8.936866e-10	8.603072e-01	-6.307039e+01
1.880000e-06	1.666261e-07	-8.585115e-10	1.186170e+00	-6.098920e+01
1.890000e-06	2.124025e-07	-8.210280e-10	1.512041e+00	-5.885212e+01
1.900000e-06	2.581161e-07	-7.860804e-10	1.837464e+00	-5.665964e+01
1.910000e-06	3.037636e-07	-7.520248e-10	2.162418e+00	-5.441252e+01
1.920000e-06	3.493899e-07	-7.215010e-10	2.487220e+00	-5.211173e+01
1.930000e-06	3.949849e-07	-6.935739e-10	2.811800e+00	-4.975848e+01
1.940000e-06	4.406257e-07	-6.647249e-10	3.136705e+00	-4.735416e+01
1.950000e-06	4.863513e-07	-6.315449e-10	3.462214e+00	-4.490039e+01
1.960000e-06	5.320376e-07	-5.930256e-10	3.787444e+00	-4.239894e+01
1.970000e-06	5.775965e-07	-5.497744e-10	4.111766e+00	-3.985174e+01
1.980000e-06	6.230363e-07	-5.029622e-10	4.435240e+00	-3.726084e+01
1.990000e-06	6.683913e-07	-4.599568e-10	4.758112e+00	-3.462844e+01
2.000000e-06	7.136864e-07	-4.250249e-10	5.080556e+00	-3.195677e+01
2.010000e-06	7.589433e-07	-3.934011e-10	5.402729e+00	-2.924818e+01
2.020000e-06	8.041543e-07	-3.598805e-10	5.724575e+00	-2.650502e+01
2.030000e-06	8.493100e-07	-3.240972e-10	6.046027e+00	-2.372970e+01
2.040000e-06	8.944698e-07	-2.855960e-10	6.367508e+00	-2.092462e+01
2.050000e-06	9.395496e-07	-2.406499e-10	6.688420e+00	-1.809218e+01
2.060000e-06	9.844872e-07	-1.898583e-10	7.008320e+00	-1.523474e+01
2.070000e-06	1.029368e-06	-1.401955e-10	7.327817e+00	-1.235463e+01
2.080000e-06	1.074225e-06	-9.658157e-11	7.647138e+00	-9.454158e+00
2.090000e-06	1.118939e-06	-5.868271e-11	7.965447e+00	-6.535553e+00
2.100000e-06	1.163524e-06	-2.344494e-11	8.282835e+00	-3.601007e+00
2.110000e-06	1.208045e-06	1.169420e-11	8.599776e+00	-6.526574e-01
2.120000e-06	1.252458e-06	5.135123e-11	8.915937e+00	2.307410e+00
2.130000e-06	1.296813e-06	9.706505e-11	9.231687e+00	5.277155e+00
2.140000e-06	1.341147e-06	1.484591e-10	9.547294e+00	8.254574e+00
2.150000e-06	1.385458e-06	2.003235e-10	9.862734e+00	1.123769e+01
2.160000e-06	1.429699e-06	2.495090e-10	1.017767e+01	1.422456e+01
2.170000e-06	1.473859e-06	2.945401e-10	1.049203e+01	1.721322e+01
2.180000e-06	1.517982e-06	3.357932e-10	1.080614e+01	2.020174e+01
2.190000e-06	1.562079e-06	3.740792e-10	1.112005e+01	2.318813e+01
2.200000e-06	1.606153e-06	4.118994e-10	1.143380e+01	2.617041e+01
2.210000e-06	1.650166e-06	4.539417e-10	1.174712e+01	2.914655e+01
2.220000e-06	1.694071e-06	5.025722e-10	1.205967e+01	3.211445e+01
2.230000e-06	1.737861e-06	5.519858e-10	1.237140e+01	3.507200e+01
2.240000e-06	1.781501e-06	5.956936e-10	1.268206e+01	3.801698e+01
2.250000e-06	1.825057e-06	6.364807e-10	1.299213e+01	4.094715e+01
2.260000e-06	1.868548e-06	6.779469e-10	1.330173e+01	4.386018e+01
2.270000e-06	1.911753e-06	7.190965e-10	1.360930e+01	4.675368e+01
2.280000e-06	1.954689e-06	7.575144e-10	1.391495e+01	4.962523e+01
2.290000e-06	1.997527e-06	7.952573e-10	1.421990e+01	5.247232e+01
2.300000e-06	2.040210e-06	8.357118e-10	1.452375e+01	5.529245e+01
2.310000e-06	2.082669e-06	8.769237e-10	1.482600e+01	5.808307e+01
2.320000e-06	2.124910e-06	9.160352e-10	1.512671e+01	6.084163e+01
2.330000e-06	2.166859e-06	9.540769e-10	1.542533e+01	6.356561e+01
2.340000e-06	2.208454e-06	9.916200e-10	1.572143e+01	6.625250e+01
2.350000e-06	2.249674e-06	1.029058e-09	1.601487e+01	6.889986e+01
2.360000e-06	2.290676e-06	1.066786e-09	1.630676e+01	7.150534e+01
2.370000e-06	2.331492e-06	1.104613e-09	1.659731e+01	7.406668e+01
2.380000e-06	2.372052e-06	1.142093e-09	1.688605e+01	7.658175e+01
2.390000e-06	2.412463e-06	1.176988e-09	1.717372e+01	7.904857e+01
2.400000e-06	2.452729e-06	1.207494e-09	1.746037e+01	8.146534e+01
2.410000e-06	2.492851e-06	1.236164e-09	1.774599e+01	8.383044e+01
2.420000e-06	2.532950e-06	1.265933e-09	1.803144e+01	8.614246e+01
2.430000e-06	2.573002e-06	1.298553e-09	1.831657e+01	8.840021e+01
2.440000e-06	2.612913e-06	1.332663e-09	1.860068e+01	9.060275e+01
2.450000e-06	2.652761e-06	1.365647e-09	1.888434e+01	9.274937e+01
2.460000e-06	2.692435e-06	1.395898e-09	1.916678e+01	9.483961e+01
2.470000e-06	2.731845e-06	1.422853e-09	1.944733e+01	9.687326e+01
2.480000e-06	2.771110e-06	1.447131e-09	1.972684e+01	9.885036e+01
2.490000e-06	2.810166e-06	1.470423e-09	2.000488e+01	1.007712e+02
2.500000e-06	2.848984e-06	1.494407e-09	2.028121e+01	1.026362e+02
2.510000e-06	2.887554e-06	1.520307e-09	2.055578e+01	1.044462e+02
2.520000e-06	2.925937e-06	1.548280e-09	2.082902e+01	1.062020e+02
2.530000e-06	2.964168e-06	1.576666e-09	2.110117e+01	1.079048e+02
2.540000e-06	3.002213e-06	1.602288e-09	2.137201e+01	1.095558e+02
2.550000e-06	3.040029e-06	1.627357e-09	2.164121e+01	1.111563e+02
2.560000e-06	3.077573e-06	1.651860e-09	2.190848e+01	1.127079e+02
2.570000e-06	3.114911e-06	1.670578e-09	2.217427e+01	1.142121e+02
2.580000e-06	3.152051e-06	1.684878e-09	2.243867e+01	1.156704e+02
2.590000e-06	3.188997e-06	1.701031e-09	2.270168e+01	1.170845e+02
2.600000e-06	3.225684e-06	1.720606e-09	2.296284e+01	1.184561e+02
2.610000e-06	3.262122e-06	1.742629e-09	2.322224e+01	1.197866e+02
2.620000e-06	3.298372e-06	1.764669e-09	2.348029e+01	1.210776e+02
2.630000e-06	3.334501e-06	1.786580e-09	2.373748e+01	1.223306e+02
2.640000e-06	3.370564e-06	1.807917e-09	2.399421e+01	1.235469e+02
2.650000e-06	3.406500e-06	1.823707e-09	2.425003e+01	1.247277e+02
2.660000e-06	3.442278e-06	1.833178e-09	2.450473e+01	1.258742e+02
2.670000e-06	3.477873e-06	1.842699e-09	2.475811e+01	1.269874e+02
2.680000e-06	3.513217e-06	1.857579e-09	2.500972e+01	1.280681e+02
2.690000e-06	3.548244e-06	1.873070e-09	2.525907e+01	1.291172e+02
2.700000e-06	3.582795e-06	1.886667e-09	2.550503e+01	1.301351e+02
2.710000e-06	3.616776e-06	1.902426e-09	2.574693e+01	1.311225e+02
2.720000e-06	3.650316e-06	1.923172e-09	2.598569e+01	1.320796e+02
2.730000e-06	3.683588e-06	1.942224e-09	2.622255e+01	1.330069e+02
2.740000e-06	3.716549e-06	1.952837e-09	2.645719e+01	1.339045e+02
2.750000e-06	3.749100e-06	1.959753e-09	2.668891e+01	1.347727e+02
2.760000e-06	3.781424e-06	1.971115e-09	2.691902e+01	1.356114e+02
2.770000e-06	3.813633e-06	1.985890e-09	2.714830e+01	1.364209e+02
2.780000e-06	3.845707e-06	1.996888e-09	2.737663e+01	1.372013e+02
2.790000e-06	3.877605e-06	2.004800e-09	2.760371e+01	1.379526e+02
2.800000e-06	3.909243e-06	2.014922e-09	2.782893e+01	1.386751e+02
2.810000e-06	3.940547e-06	2.028550e-09	2.805178e+01	1.393690e+02
2.820000e-06	3.971552e-06	2.039821e-09	2.827249e+01	1.400346e+02
2.830000e-06	4.002266e-06	2.046386e-09	2.849114e+01	1.406723e+02
2.840000e-06	4.032672e-06	2.053031e-09	2.870759e+01	1.412826e+02
2.850000e-06	4.062861e-06	2.064482e-09	2.892250e+01	1.418661e+02
2.860000e-06	4.092864e-06	2.078072e-09	2.913608e+01	1.424236e+02
2.870000e-06	4.122648e-06	2.087460e-09	2.934811e+01	1.429557e+02
2.880000e-06	4.152127e-06	2.092265e-09	2.955796e+01	1.434636e+02
2.890000e-06	4.181245e-06	2.095523e-09	2.976524e+01	1.439482e+02
2.900000e-06	4.210065e-06	2.100917e-09	2.997041e+01	1.444106e+02
