# Temperatura_=_-1.8
# Concentracion g/m^3_=_4090.0
# C_Vs_to_Am_M_A/Vsm_=_65563218390.804596
# pendiente_HvsI_1/m_=_3716.3
# ordenada_HvsI_A/m_=_1297.0
# frecuencia_Hz_=_135065.13460247888

Tiempo_(s)	Campo_(V.s)	Magnetizacion_(V.s)	Campo_(kA/m)	Magnetizacion_(A/m)
0.000000e+00	-5.460340e-06	-2.372615e-09	-3.839309e+01	-1.540459e+02
1.000000e-08	-5.460471e-06	-2.375416e-09	-3.839401e+01	-1.539512e+02
2.000000e-08	-5.460381e-06	-2.379385e-09	-3.839337e+01	-1.538580e+02
3.000000e-08	-5.460006e-06	-2.378861e-09	-3.839074e+01	-1.537677e+02
4.000000e-08	-5.459202e-06	-2.373020e-09	-3.838508e+01	-1.536816e+02
5.000000e-08	-5.457933e-06	-2.369281e-09	-3.837616e+01	-1.536011e+02
6.000000e-08	-5.456160e-06	-2.367652e-09	-3.836369e+01	-1.535273e+02
7.000000e-08	-5.453742e-06	-2.351735e-09	-3.834669e+01	-1.534614e+02
8.000000e-08	-5.450638e-06	-2.345622e-09	-3.832487e+01	-1.534042e+02
9.000000e-08	-5.446906e-06	-2.387945e-09	-3.829863e+01	-1.533567e+02
1.000000e-07	-5.442652e-06	-2.439221e-09	-3.826872e+01	-1.533194e+02
1.100000e-07	-5.438182e-06	-2.402324e-09	-3.823729e+01	-1.532928e+02
1.200000e-07	-5.433715e-06	-2.330271e-09	-3.820588e+01	-1.532772e+02
1.300000e-07	-5.429020e-06	-2.335099e-09	-3.817287e+01	-1.532727e+02
1.400000e-07	-5.423855e-06	-2.419321e-09	-3.813655e+01	-1.532791e+02
1.500000e-07	-5.418299e-06	-2.373293e-09	-3.809748e+01	-1.532962e+02
1.600000e-07	-5.412442e-06	-2.278869e-09	-3.805630e+01	-1.533234e+02
1.700000e-07	-5.406146e-06	-2.278782e-09	-3.801204e+01	-1.533601e+02
1.800000e-07	-5.399302e-06	-2.394412e-09	-3.796391e+01	-1.534052e+02
1.900000e-07	-5.392068e-06	-2.392877e-09	-3.791305e+01	-1.534579e+02
2.000000e-07	-5.384627e-06	-2.320747e-09	-3.786073e+01	-1.535168e+02
2.100000e-07	-5.376962e-06	-2.319683e-09	-3.780683e+01	-1.535808e+02
2.200000e-07	-5.369061e-06	-2.368985e-09	-3.775128e+01	-1.536483e+02
2.300000e-07	-5.360873e-06	-2.359953e-09	-3.769371e+01	-1.537179e+02
2.400000e-07	-5.352307e-06	-2.334721e-09	-3.763348e+01	-1.537881e+02
2.500000e-07	-5.343050e-06	-2.386303e-09	-3.756839e+01	-1.538572e+02
2.600000e-07	-5.333029e-06	-2.412447e-09	-3.749793e+01	-1.539238e+02
2.700000e-07	-5.322431e-06	-2.388239e-09	-3.742341e+01	-1.539862e+02
2.800000e-07	-5.311368e-06	-2.377439e-09	-3.734563e+01	-1.540430e+02
2.900000e-07	-5.299927e-06	-2.409229e-09	-3.726518e+01	-1.540928e+02
3.000000e-07	-5.288114e-06	-2.367636e-09	-3.718212e+01	-1.541343e+02
3.100000e-07	-5.275920e-06	-2.337704e-09	-3.709638e+01	-1.541662e+02
3.200000e-07	-5.263284e-06	-2.376136e-09	-3.700753e+01	-1.541875e+02
3.300000e-07	-5.250200e-06	-2.426560e-09	-3.691553e+01	-1.541974e+02
3.400000e-07	-5.236730e-06	-2.375183e-09	-3.682082e+01	-1.541950e+02
3.500000e-07	-5.222893e-06	-2.354477e-09	-3.672354e+01	-1.541798e+02
3.600000e-07	-5.208700e-06	-2.373351e-09	-3.662374e+01	-1.541513e+02
3.700000e-07	-5.194183e-06	-2.380185e-09	-3.652167e+01	-1.541095e+02
3.800000e-07	-5.179215e-06	-2.341822e-09	-3.641642e+01	-1.540543e+02
3.900000e-07	-5.163635e-06	-2.349021e-09	-3.630688e+01	-1.539858e+02
4.000000e-07	-5.147449e-06	-2.360470e-09	-3.619307e+01	-1.539043e+02
4.100000e-07	-5.130764e-06	-2.360392e-09	-3.607575e+01	-1.538103e+02
4.200000e-07	-5.113722e-06	-2.360255e-09	-3.595592e+01	-1.537044e+02
4.300000e-07	-5.096400e-06	-2.364723e-09	-3.583413e+01	-1.535874e+02
4.400000e-07	-5.078757e-06	-2.339398e-09	-3.571008e+01	-1.534602e+02
4.500000e-07	-5.060818e-06	-2.329804e-09	-3.558394e+01	-1.533237e+02
4.600000e-07	-5.042502e-06	-2.350268e-09	-3.545516e+01	-1.531789e+02
4.700000e-07	-5.023744e-06	-2.349043e-09	-3.532327e+01	-1.530270e+02
4.800000e-07	-5.004614e-06	-2.329825e-09	-3.518876e+01	-1.528690e+02
4.900000e-07	-4.985165e-06	-2.336762e-09	-3.505201e+01	-1.527061e+02
5.000000e-07	-4.965449e-06	-2.357416e-09	-3.491338e+01	-1.525394e+02
5.100000e-07	-4.945552e-06	-2.346751e-09	-3.477348e+01	-1.523700e+02
5.200000e-07	-4.925481e-06	-2.333338e-09	-3.463235e+01	-1.521990e+02
5.300000e-07	-4.905128e-06	-2.326489e-09	-3.448925e+01	-1.520273e+02
5.400000e-07	-4.884450e-06	-2.327505e-09	-3.434385e+01	-1.518558e+02
5.500000e-07	-4.863386e-06	-2.326099e-09	-3.419575e+01	-1.516855e+02
5.600000e-07	-4.841923e-06	-2.328866e-09	-3.404483e+01	-1.515168e+02
5.700000e-07	-4.820122e-06	-2.317673e-09	-3.389155e+01	-1.513505e+02
5.800000e-07	-4.798094e-06	-2.319962e-09	-3.373666e+01	-1.511871e+02
5.900000e-07	-4.775781e-06	-2.328230e-09	-3.357977e+01	-1.510268e+02
6.000000e-07	-4.753060e-06	-2.326629e-09	-3.342001e+01	-1.508698e+02
6.100000e-07	-4.730031e-06	-2.305147e-09	-3.325809e+01	-1.507163e+02
6.200000e-07	-4.706614e-06	-2.301722e-09	-3.309344e+01	-1.505663e+02
6.300000e-07	-4.682891e-06	-2.307553e-09	-3.292664e+01	-1.504196e+02
6.400000e-07	-4.659075e-06	-2.313668e-09	-3.275918e+01	-1.502759e+02
6.500000e-07	-4.635104e-06	-2.304666e-09	-3.259063e+01	-1.501348e+02
6.600000e-07	-4.610809e-06	-2.298427e-09	-3.241981e+01	-1.499961e+02
6.700000e-07	-4.586037e-06	-2.298295e-09	-3.224563e+01	-1.498590e+02
6.800000e-07	-4.560773e-06	-2.308195e-09	-3.206799e+01	-1.497231e+02
6.900000e-07	-4.534901e-06	-2.303811e-09	-3.188608e+01	-1.495877e+02
7.000000e-07	-4.508443e-06	-2.294380e-09	-3.170005e+01	-1.494522e+02
7.100000e-07	-4.481584e-06	-2.290967e-09	-3.151120e+01	-1.493158e+02
7.200000e-07	-4.454318e-06	-2.295913e-09	-3.131948e+01	-1.491779e+02
7.300000e-07	-4.426742e-06	-2.291108e-09	-3.112559e+01	-1.490378e+02
7.400000e-07	-4.398983e-06	-2.280620e-09	-3.093040e+01	-1.488949e+02
7.500000e-07	-4.371072e-06	-2.277329e-09	-3.073415e+01	-1.487485e+02
7.600000e-07	-4.342991e-06	-2.282809e-09	-3.053671e+01	-1.485981e+02
7.700000e-07	-4.314710e-06	-2.283708e-09	-3.033786e+01	-1.484431e+02
7.800000e-07	-4.286143e-06	-2.273278e-09	-3.013700e+01	-1.482831e+02
7.900000e-07	-4.257176e-06	-2.264037e-09	-2.993332e+01	-1.481177e+02
8.000000e-07	-4.227814e-06	-2.261656e-09	-2.972687e+01	-1.479466e+02
8.100000e-07	-4.198189e-06	-2.261216e-09	-2.951857e+01	-1.477696e+02
8.200000e-07	-4.168284e-06	-2.253149e-09	-2.930830e+01	-1.475865e+02
8.300000e-07	-4.138045e-06	-2.246809e-09	-2.909568e+01	-1.473973e+02
8.400000e-07	-4.107632e-06	-2.245061e-09	-2.888184e+01	-1.472021e+02
8.500000e-07	-4.076932e-06	-2.245909e-09	-2.866598e+01	-1.470008e+02
8.600000e-07	-4.045803e-06	-2.238208e-09	-2.844711e+01	-1.467937e+02
8.700000e-07	-4.014440e-06	-2.229037e-09	-2.822658e+01	-1.465811e+02
8.800000e-07	-3.982981e-06	-2.222323e-09	-2.800538e+01	-1.463632e+02
8.900000e-07	-3.951366e-06	-2.223937e-09	-2.778309e+01	-1.461403e+02
9.000000e-07	-3.919514e-06	-2.220635e-09	-2.755913e+01	-1.459129e+02
9.100000e-07	-3.887494e-06	-2.213195e-09	-2.733399e+01	-1.456814e+02
9.200000e-07	-3.855349e-06	-2.205449e-09	-2.710798e+01	-1.454463e+02
9.300000e-07	-3.822916e-06	-2.205981e-09	-2.687993e+01	-1.452080e+02
9.400000e-07	-3.790034e-06	-2.204179e-09	-2.664873e+01	-1.449669e+02
9.500000e-07	-3.756693e-06	-2.199855e-09	-2.641430e+01	-1.447235e+02
9.600000e-07	-3.722856e-06	-2.196123e-09	-2.617638e+01	-1.444783e+02
9.700000e-07	-3.688504e-06	-2.198404e-09	-2.593484e+01	-1.442316e+02
9.800000e-07	-3.653743e-06	-2.196027e-09	-2.569043e+01	-1.439838e+02
9.900000e-07	-3.618658e-06	-2.184154e-09	-2.544374e+01	-1.437353e+02
1.000000e-06	-3.583335e-06	-2.168990e-09	-2.519537e+01	-1.434861e+02
1.010000e-06	-3.547822e-06	-2.163251e-09	-2.494567e+01	-1.432366e+02
1.020000e-06	-3.512141e-06	-2.160958e-09	-2.469479e+01	-1.429868e+02
1.030000e-06	-3.476307e-06	-2.156649e-09	-2.444283e+01	-1.427369e+02
1.040000e-06	-3.440319e-06	-2.153739e-09	-2.418979e+01	-1.424867e+02
1.050000e-06	-3.404220e-06	-2.155069e-09	-2.393597e+01	-1.422363e+02
1.060000e-06	-3.367910e-06	-2.154351e-09	-2.368066e+01	-1.419853e+02
1.070000e-06	-3.331236e-06	-2.144215e-09	-2.342279e+01	-1.417336e+02
1.080000e-06	-3.294262e-06	-2.129830e-09	-2.316282e+01	-1.414808e+02
1.090000e-06	-3.257059e-06	-2.121883e-09	-2.290124e+01	-1.412266e+02
1.100000e-06	-3.219588e-06	-2.123219e-09	-2.263777e+01	-1.409705e+02
1.110000e-06	-3.181927e-06	-2.124852e-09	-2.237297e+01	-1.407119e+02
1.120000e-06	-3.144131e-06	-2.121993e-09	-2.210722e+01	-1.404504e+02
1.130000e-06	-3.106109e-06	-2.116353e-09	-2.183987e+01	-1.401854e+02
1.140000e-06	-3.067841e-06	-2.113766e-09	-2.157080e+01	-1.399162e+02
1.150000e-06	-3.029305e-06	-2.106187e-09	-2.129984e+01	-1.396421e+02
1.160000e-06	-2.990522e-06	-2.092893e-09	-2.102715e+01	-1.393626e+02
1.170000e-06	-2.951614e-06	-2.083544e-09	-2.075357e+01	-1.390769e+02
1.180000e-06	-2.912523e-06	-2.084255e-09	-2.047872e+01	-1.387844e+02
1.190000e-06	-2.873143e-06	-2.086563e-09	-2.020183e+01	-1.384845e+02
1.200000e-06	-2.833563e-06	-2.082941e-09	-1.992353e+01	-1.381765e+02
1.210000e-06	-2.793909e-06	-2.072931e-09	-1.964471e+01	-1.378600e+02
1.220000e-06	-2.754144e-06	-2.065456e-09	-1.936511e+01	-1.375343e+02
1.230000e-06	-2.714259e-06	-2.057948e-09	-1.908467e+01	-1.371991e+02
1.240000e-06	-2.674299e-06	-2.049061e-09	-1.880370e+01	-1.368538e+02
1.250000e-06	-2.634265e-06	-2.042402e-09	-1.852221e+01	-1.364982e+02
1.260000e-06	-2.594053e-06	-2.041066e-09	-1.823947e+01	-1.361321e+02
1.270000e-06	-2.553604e-06	-2.039849e-09	-1.795506e+01	-1.357551e+02
1.280000e-06	-2.513050e-06	-2.034011e-09	-1.766992e+01	-1.353673e+02
1.290000e-06	-2.472355e-06	-2.023673e-09	-1.738377e+01	-1.349686e+02
1.300000e-06	-2.431350e-06	-2.014052e-09	-1.709546e+01	-1.345589e+02
1.310000e-06	-2.390029e-06	-2.005455e-09	-1.680492e+01	-1.341385e+02
1.320000e-06	-2.348456e-06	-1.995687e-09	-1.651261e+01	-1.337075e+02
1.330000e-06	-2.306681e-06	-1.985415e-09	-1.621888e+01	-1.332662e+02
1.340000e-06	-2.264672e-06	-1.979924e-09	-1.592350e+01	-1.328147e+02
1.350000e-06	-2.222245e-06	-1.977750e-09	-1.562519e+01	-1.323536e+02
1.360000e-06	-2.179463e-06	-1.972551e-09	-1.532438e+01	-1.318832e+02
1.370000e-06	-2.136445e-06	-1.963770e-09	-1.502191e+01	-1.314038e+02
1.380000e-06	-2.093175e-06	-1.952745e-09	-1.471767e+01	-1.309160e+02
1.390000e-06	-2.049756e-06	-1.942075e-09	-1.441237e+01	-1.304201e+02
1.400000e-06	-2.006234e-06	-1.932572e-09	-1.410636e+01	-1.299165e+02
1.410000e-06	-1.962627e-06	-1.922707e-09	-1.379974e+01	-1.294056e+02
1.420000e-06	-1.918937e-06	-1.913744e-09	-1.349255e+01	-1.288879e+02
1.430000e-06	-1.875178e-06	-1.906962e-09	-1.318487e+01	-1.283634e+02
1.440000e-06	-1.831340e-06	-1.897199e-09	-1.287664e+01	-1.278326e+02
1.450000e-06	-1.787394e-06	-1.884186e-09	-1.256763e+01	-1.272956e+02
1.460000e-06	-1.743389e-06	-1.873623e-09	-1.225823e+01	-1.267524e+02
1.470000e-06	-1.699343e-06	-1.865815e-09	-1.194853e+01	-1.262030e+02
1.480000e-06	-1.655231e-06	-1.856517e-09	-1.163837e+01	-1.256473e+02
1.490000e-06	-1.611012e-06	-1.847093e-09	-1.132745e+01	-1.250850e+02
1.500000e-06	-1.566701e-06	-1.839952e-09	-1.101588e+01	-1.245159e+02
1.510000e-06	-1.522368e-06	-1.832649e-09	-1.070417e+01	-1.239393e+02
1.520000e-06	-1.477887e-06	-1.820604e-09	-1.039141e+01	-1.233548e+02
1.530000e-06	-1.433136e-06	-1.805933e-09	-1.007675e+01	-1.227616e+02
1.540000e-06	-1.388296e-06	-1.793656e-09	-9.761472e+00	-1.221589e+02
1.550000e-06	-1.343415e-06	-1.786584e-09	-9.445905e+00	-1.215457e+02
1.560000e-06	-1.298383e-06	-1.779451e-09	-9.129272e+00	-1.209210e+02
1.570000e-06	-1.253265e-06	-1.768613e-09	-8.812033e+00	-1.202837e+02
1.580000e-06	-1.208106e-06	-1.759178e-09	-8.494514e+00	-1.196325e+02
1.590000e-06	-1.162785e-06	-1.754456e-09	-8.175848e+00	-1.189661e+02
1.600000e-06	-1.117317e-06	-1.746169e-09	-7.856149e+00	-1.182832e+02
1.610000e-06	-1.071803e-06	-1.729108e-09	-7.536128e+00	-1.175822e+02
1.620000e-06	-1.026259e-06	-1.708986e-09	-7.215899e+00	-1.168619e+02
1.630000e-06	-9.807090e-07	-1.694134e-09	-6.895623e+00	-1.161206e+02
1.640000e-06	-9.351352e-07	-1.682248e-09	-6.575181e+00	-1.153568e+02
1.650000e-06	-8.894681e-07	-1.669988e-09	-6.254084e+00	-1.145692e+02
1.660000e-06	-8.436105e-07	-1.658477e-09	-5.931648e+00	-1.137563e+02
1.670000e-06	-7.976959e-07	-1.650487e-09	-5.608810e+00	-1.129166e+02
1.680000e-06	-7.518360e-07	-1.641450e-09	-5.286357e+00	-1.120487e+02
1.690000e-06	-7.059194e-07	-1.622999e-09	-4.963505e+00	-1.111514e+02
1.700000e-06	-6.599057e-07	-1.598138e-09	-4.639971e+00	-1.102233e+02
1.710000e-06	-6.138972e-07	-1.577440e-09	-4.316473e+00	-1.092632e+02
1.720000e-06	-5.678981e-07	-1.563587e-09	-3.993041e+00	-1.082702e+02
1.730000e-06	-5.218329e-07	-1.549641e-09	-3.669144e+00	-1.072430e+02
1.740000e-06	-4.757251e-07	-1.534065e-09	-3.344948e+00	-1.061807e+02
1.750000e-06	-4.295824e-07	-1.523981e-09	-3.020507e+00	-1.050825e+02
1.760000e-06	-3.834305e-07	-1.519221e-09	-2.696000e+00	-1.039474e+02
1.770000e-06	-3.372397e-07	-1.507137e-09	-2.371221e+00	-1.027747e+02
1.780000e-06	-2.910565e-07	-1.481682e-09	-2.046495e+00	-1.015637e+02
1.790000e-06	-2.448890e-07	-1.448902e-09	-1.721879e+00	-1.003137e+02
1.800000e-06	-1.985879e-07	-1.421538e-09	-1.396324e+00	-9.902392e+01
1.810000e-06	-1.522631e-07	-1.402026e-09	-1.070602e+00	-9.769377e+01
1.820000e-06	-1.060270e-07	-1.384111e-09	-7.455041e-01	-9.632255e+01
1.830000e-06	-5.985579e-08	-1.368225e-09	-4.208618e-01	-9.490955e+01
1.840000e-06	-1.367989e-08	-1.356284e-09	-9.618692e-02	-9.345403e+01
1.850000e-06	3.256475e-08	-1.343855e-09	2.289713e-01	-9.195517e+01
1.860000e-06	7.882005e-08	-1.322708e-09	5.542045e-01	-9.041212e+01
1.870000e-06	1.250747e-07	-1.291625e-09	8.794329e-01	-8.882390e+01
1.880000e-06	1.713163e-07	-1.258866e-09	1.204570e+00	-8.718946e+01
1.890000e-06	2.176294e-07	-1.229381e-09	1.530210e+00	-8.550764e+01
1.900000e-06	2.639174e-07	-1.201335e-09	1.855673e+00	-8.377717e+01
1.910000e-06	3.100517e-07	-1.173140e-09	2.180055e+00	-8.199666e+01
1.920000e-06	3.561971e-07	-1.146473e-09	2.504516e+00	-8.016461e+01
1.930000e-06	4.023763e-07	-1.122884e-09	2.829214e+00	-7.827940e+01
1.940000e-06	4.485268e-07	-1.100096e-09	3.153710e+00	-7.633931e+01
1.950000e-06	4.946267e-07	-1.073102e-09	3.477850e+00	-7.434256e+01
1.960000e-06	5.407048e-07	-1.041577e-09	3.801838e+00	-7.228725e+01
1.970000e-06	5.867384e-07	-1.008028e-09	4.125512e+00	-7.017144e+01
1.980000e-06	6.326952e-07	-9.738654e-10	4.448646e+00	-6.799319e+01
1.990000e-06	6.786350e-07	-9.372936e-10	4.771661e+00	-6.575051e+01
2.000000e-06	7.245520e-07	-9.003163e-10	5.094516e+00	-6.344148e+01
2.010000e-06	7.704382e-07	-8.651620e-10	5.417153e+00	-6.106422e+01
2.020000e-06	8.162828e-07	-8.320008e-10	5.739499e+00	-5.861695e+01
2.030000e-06	8.620621e-07	-7.991242e-10	6.061385e+00	-5.609805e+01
2.040000e-06	9.078023e-07	-7.643595e-10	6.382997e+00	-5.350606e+01
2.050000e-06	9.534212e-07	-7.265469e-10	6.703755e+00	-5.083974e+01
2.060000e-06	9.989205e-07	-6.852081e-10	7.023672e+00	-4.809812e+01
2.070000e-06	1.044383e-06	-6.413951e-10	7.343332e+00	-4.528052e+01
2.080000e-06	1.089797e-06	-5.959626e-10	7.662651e+00	-4.238660e+01
2.090000e-06	1.135148e-06	-5.484066e-10	7.981522e+00	-3.941642e+01
2.100000e-06	1.180392e-06	-5.003344e-10	8.299648e+00	-3.637041e+01
2.110000e-06	1.225541e-06	-4.552261e-10	8.617101e+00	-3.324946e+01
2.120000e-06	1.270654e-06	-4.131171e-10	8.934300e+00	-3.005492e+01
2.130000e-06	1.315662e-06	-3.708663e-10	9.250764e+00	-2.678862e+01
2.140000e-06	1.360530e-06	-3.234752e-10	9.566243e+00	-2.345288e+01
2.150000e-06	1.405257e-06	-2.715751e-10	9.880730e+00	-2.005055e+01
2.160000e-06	1.449837e-06	-2.186172e-10	1.019418e+01	-1.658495e+01
2.170000e-06	1.494302e-06	-1.640545e-10	1.050683e+01	-1.305994e+01
2.180000e-06	1.538621e-06	-1.083241e-10	1.081845e+01	-9.479847e+00
2.190000e-06	1.582873e-06	-5.228791e-11	1.112960e+01	-5.849484e+00
2.200000e-06	1.627076e-06	3.243753e-12	1.144040e+01	-2.174106e+00
2.210000e-06	1.671172e-06	5.961454e-11	1.175045e+01	1.540609e+00
2.220000e-06	1.715139e-06	1.178113e-10	1.205959e+01	5.288606e+00
2.230000e-06	1.758994e-06	1.754985e-10	1.236795e+01	9.063494e+00
2.240000e-06	1.802822e-06	2.334797e-10	1.267612e+01	1.285859e+01
2.250000e-06	1.846638e-06	2.899120e-10	1.298420e+01	1.666698e+01
2.260000e-06	1.890422e-06	3.458475e-10	1.329205e+01	2.048156e+01
2.270000e-06	1.934176e-06	4.035980e-10	1.359970e+01	2.429513e+01
2.280000e-06	1.977869e-06	4.641630e-10	1.390692e+01	2.810041e+01
2.290000e-06	2.021452e-06	5.254998e-10	1.421336e+01	3.189013e+01
2.300000e-06	2.064903e-06	5.852697e-10	1.451888e+01	3.565710e+01
2.310000e-06	2.108246e-06	6.408353e-10	1.482363e+01	3.939426e+01
2.320000e-06	2.151349e-06	6.908318e-10	1.512670e+01	4.309473e+01
2.330000e-06	2.194184e-06	7.389176e-10	1.542788e+01	4.675189e+01
2.340000e-06	2.236799e-06	7.875011e-10	1.572752e+01	5.035944e+01
2.350000e-06	2.279089e-06	8.370387e-10	1.602487e+01	5.391142e+01
2.360000e-06	2.321064e-06	8.894330e-10	1.632001e+01	5.740229e+01
2.370000e-06	2.362722e-06	9.440013e-10	1.661292e+01	6.082693e+01
2.380000e-06	2.404078e-06	9.994843e-10	1.690371e+01	6.418074e+01
2.390000e-06	2.445123e-06	1.051419e-09	1.719230e+01	6.745959e+01
2.400000e-06	2.485920e-06	1.096848e-09	1.747916e+01	7.065991e+01
2.410000e-06	2.526531e-06	1.136612e-09	1.776470e+01	7.377864e+01
2.420000e-06	2.566931e-06	1.173355e-09	1.804877e+01	7.681330e+01
2.430000e-06	2.607118e-06	1.211159e-09	1.833133e+01	7.976193e+01
2.440000e-06	2.647132e-06	1.250547e-09	1.861268e+01	8.262315e+01
2.450000e-06	2.687078e-06	1.289808e-09	1.889356e+01	8.539607e+01
2.460000e-06	2.726972e-06	1.328665e-09	1.917405e+01	8.808032e+01
2.470000e-06	2.766738e-06	1.368122e-09	1.945366e+01	9.067602e+01
2.480000e-06	2.806387e-06	1.405959e-09	1.973245e+01	9.318372e+01
2.490000e-06	2.845960e-06	1.441546e-09	2.001070e+01	9.560439e+01
2.500000e-06	2.885450e-06	1.474301e-09	2.028836e+01	9.793938e+01
2.510000e-06	2.924667e-06	1.505836e-09	2.056410e+01	1.001904e+02
2.520000e-06	2.963588e-06	1.536983e-09	2.083777e+01	1.023593e+02
2.530000e-06	3.002287e-06	1.566085e-09	2.110987e+01	1.044484e+02
2.540000e-06	3.040722e-06	1.593691e-09	2.138012e+01	1.064600e+02
2.550000e-06	3.078887e-06	1.622473e-09	2.164846e+01	1.083967e+02
2.560000e-06	3.116846e-06	1.651833e-09	2.191537e+01	1.102610e+02
2.570000e-06	3.154661e-06	1.679774e-09	2.218125e+01	1.120558e+02
2.580000e-06	3.192302e-06	1.704591e-09	2.244591e+01	1.137837e+02
2.590000e-06	3.229792e-06	1.728458e-09	2.270952e+01	1.154474e+02
2.600000e-06	3.267072e-06	1.750447e-09	2.297164e+01	1.170495e+02
2.610000e-06	3.304082e-06	1.771091e-09	2.323187e+01	1.185926e+02
2.620000e-06	3.340760e-06	1.789883e-09	2.348976e+01	1.200791e+02
2.630000e-06	3.377138e-06	1.808235e-09	2.374555e+01	1.215114e+02
2.640000e-06	3.413332e-06	1.828740e-09	2.400003e+01	1.228916e+02
2.650000e-06	3.449403e-06	1.849286e-09	2.425366e+01	1.242218e+02
2.660000e-06	3.485371e-06	1.866972e-09	2.450656e+01	1.255037e+02
2.670000e-06	3.521218e-06	1.884291e-09	2.475861e+01	1.267392e+02
2.680000e-06	3.556922e-06	1.902387e-09	2.500966e+01	1.279297e+02
2.690000e-06	3.592446e-06	1.919132e-09	2.525943e+01	1.290768e+02
2.700000e-06	3.627699e-06	1.934336e-09	2.550731e+01	1.301815e+02
2.710000e-06	3.662592e-06	1.949458e-09	2.575265e+01	1.312452e+02
2.720000e-06	3.697139e-06	1.965621e-09	2.599556e+01	1.322687e+02
2.730000e-06	3.731229e-06	1.981333e-09	2.623525e+01	1.332531e+02
2.740000e-06	3.764712e-06	1.995600e-09	2.647068e+01	1.341993e+02
2.750000e-06	3.797796e-06	2.010846e-09	2.670330e+01	1.351080e+02
2.760000e-06	3.830549e-06	2.027452e-09	2.693360e+01	1.359802e+02
2.770000e-06	3.862953e-06	2.040943e-09	2.716144e+01	1.368164e+02
2.780000e-06	3.895085e-06	2.050784e-09	2.738737e+01	1.376176e+02
2.790000e-06	3.927057e-06	2.059262e-09	2.761217e+01	1.383846e+02
2.800000e-06	3.958905e-06	2.068485e-09	2.783610e+01	1.391182e+02
2.810000e-06	3.990630e-06	2.078519e-09	2.805917e+01	1.398193e+02
2.820000e-06	4.022154e-06	2.088252e-09	2.828083e+01	1.404889e+02
2.830000e-06	4.053319e-06	2.096569e-09	2.849995e+01	1.411280e+02
2.840000e-06	4.084141e-06	2.106870e-09	2.871667e+01	1.417376e+02
2.850000e-06	4.114618e-06	2.119485e-09	2.893096e+01	1.423190e+02
2.860000e-06	4.144803e-06	2.131728e-09	2.914320e+01	1.428734e+02
2.870000e-06	4.174783e-06	2.139583e-09	2.935399e+01	1.434020e+02
2.880000e-06	4.204605e-06	2.143225e-09	2.956368e+01	1.439062e+02
2.890000e-06	4.234174e-06	2.146248e-09	2.977159e+01	1.443873e+02
2.900000e-06	4.263442e-06	2.150342e-09	2.997738e+01	1.448467e+02
