# Temperatura_=_4.89
# Concentracion g/m^3_=_4090.0
# C_Vs_to_Am_M_A/Vsm_=_65563218390.804596
# pendiente_HvsI_1/m_=_3716.3
# ordenada_HvsI_A/m_=_1297.0
# frecuencia_Hz_=_135068.49964264416

Tiempo_(s)	Campo_(V.s)	Magnetizacion_(V.s)	Campo_(kA/m)	Magnetizacion_(A/m)
0.000000e+00	-5.420502e-06	-2.475679e-09	-3.840917e+01	-1.610014e+02
1.000000e-08	-5.420756e-06	-2.477972e-09	-3.841097e+01	-1.609101e+02
2.000000e-08	-5.420843e-06	-2.482980e-09	-3.841159e+01	-1.608203e+02
3.000000e-08	-5.420586e-06	-2.482950e-09	-3.840976e+01	-1.607338e+02
4.000000e-08	-5.419893e-06	-2.476840e-09	-3.840486e+01	-1.606525e+02
5.000000e-08	-5.418724e-06	-2.470408e-09	-3.839657e+01	-1.605780e+02
6.000000e-08	-5.416919e-06	-2.471589e-09	-3.838378e+01	-1.605120e+02
7.000000e-08	-5.414547e-06	-2.483411e-09	-3.836697e+01	-1.604562e+02
8.000000e-08	-5.411662e-06	-2.479067e-09	-3.834653e+01	-1.604118e+02
9.000000e-08	-5.408161e-06	-2.434028e-09	-3.832172e+01	-1.603801e+02
1.000000e-07	-5.404121e-06	-2.453207e-09	-3.829310e+01	-1.603620e+02
1.100000e-07	-5.399837e-06	-2.569787e-09	-3.826274e+01	-1.603582e+02
1.200000e-07	-5.395467e-06	-2.545896e-09	-3.823177e+01	-1.603693e+02
1.300000e-07	-5.390843e-06	-2.410471e-09	-3.819901e+01	-1.603953e+02
1.400000e-07	-5.385854e-06	-2.396746e-09	-3.816366e+01	-1.604362e+02
1.500000e-07	-5.380480e-06	-2.547412e-09	-3.812558e+01	-1.604916e+02
1.600000e-07	-5.374744e-06	-2.556517e-09	-3.808493e+01	-1.605609e+02
1.700000e-07	-5.368613e-06	-2.352069e-09	-3.804149e+01	-1.606430e+02
1.800000e-07	-5.362015e-06	-2.385128e-09	-3.799474e+01	-1.607368e+02
1.900000e-07	-5.354950e-06	-2.551208e-09	-3.794467e+01	-1.608408e+02
2.000000e-07	-5.347680e-06	-2.579430e-09	-3.789316e+01	-1.609534e+02
2.100000e-07	-5.340235e-06	-2.412900e-09	-3.784040e+01	-1.610725e+02
2.200000e-07	-5.332532e-06	-2.462135e-09	-3.778582e+01	-1.611963e+02
2.300000e-07	-5.324569e-06	-2.568885e-09	-3.772940e+01	-1.613225e+02
2.400000e-07	-5.316215e-06	-2.523351e-09	-3.767020e+01	-1.614488e+02
2.500000e-07	-5.307283e-06	-2.439380e-09	-3.760691e+01	-1.615729e+02
2.600000e-07	-5.297703e-06	-2.542060e-09	-3.753903e+01	-1.616924e+02
2.700000e-07	-5.287447e-06	-2.599681e-09	-3.746636e+01	-1.618051e+02
2.800000e-07	-5.276601e-06	-2.495943e-09	-3.738950e+01	-1.619086e+02
2.900000e-07	-5.265340e-06	-2.501972e-09	-3.730971e+01	-1.620008e+02
3.000000e-07	-5.253737e-06	-2.622482e-09	-3.722749e+01	-1.620796e+02
3.100000e-07	-5.241830e-06	-2.574817e-09	-3.714311e+01	-1.621432e+02
3.200000e-07	-5.229512e-06	-2.448145e-09	-3.705583e+01	-1.621899e+02
3.300000e-07	-5.216765e-06	-2.541157e-09	-3.696551e+01	-1.622182e+02
3.400000e-07	-5.203678e-06	-2.599469e-09	-3.687278e+01	-1.622270e+02
3.500000e-07	-5.190243e-06	-2.504072e-09	-3.677758e+01	-1.622154e+02
3.600000e-07	-5.176398e-06	-2.472410e-09	-3.667947e+01	-1.621825e+02
3.700000e-07	-5.162182e-06	-2.572227e-09	-3.657874e+01	-1.621282e+02
3.800000e-07	-5.147481e-06	-2.524036e-09	-3.647457e+01	-1.620522e+02
3.900000e-07	-5.132076e-06	-2.476231e-09	-3.636541e+01	-1.619548e+02
4.000000e-07	-5.116105e-06	-2.522359e-09	-3.625225e+01	-1.618363e+02
4.100000e-07	-5.099733e-06	-2.527808e-09	-3.613623e+01	-1.616976e+02
4.200000e-07	-5.083005e-06	-2.450543e-09	-3.601770e+01	-1.615395e+02
4.300000e-07	-5.065987e-06	-2.498982e-09	-3.589711e+01	-1.613631e+02
4.400000e-07	-5.048579e-06	-2.523694e-09	-3.577376e+01	-1.611699e+02
4.500000e-07	-5.030862e-06	-2.462438e-09	-3.564822e+01	-1.609613e+02
4.600000e-07	-5.012848e-06	-2.444908e-09	-3.552057e+01	-1.607389e+02
4.700000e-07	-4.994507e-06	-2.512197e-09	-3.539061e+01	-1.605045e+02
4.800000e-07	-4.975743e-06	-2.487505e-09	-3.525765e+01	-1.602597e+02
4.900000e-07	-4.956572e-06	-2.456519e-09	-3.512180e+01	-1.600065e+02
5.000000e-07	-4.937099e-06	-2.469745e-09	-3.498382e+01	-1.597466e+02
5.100000e-07	-4.917357e-06	-2.475780e-09	-3.484393e+01	-1.594816e+02
5.200000e-07	-4.897389e-06	-2.456464e-09	-3.470244e+01	-1.592134e+02
5.300000e-07	-4.877178e-06	-2.463326e-09	-3.455923e+01	-1.589435e+02
5.400000e-07	-4.856750e-06	-2.442819e-09	-3.441447e+01	-1.586732e+02
5.500000e-07	-4.836013e-06	-2.427731e-09	-3.426754e+01	-1.584039e+02
5.600000e-07	-4.814899e-06	-2.453068e-09	-3.411792e+01	-1.581367e+02
5.700000e-07	-4.793414e-06	-2.458680e-09	-3.396569e+01	-1.578726e+02
5.800000e-07	-4.771626e-06	-2.429876e-09	-3.381130e+01	-1.576122e+02
5.900000e-07	-4.749506e-06	-2.427131e-09	-3.365456e+01	-1.573561e+02
6.000000e-07	-4.727044e-06	-2.440619e-09	-3.349539e+01	-1.571046e+02
6.100000e-07	-4.704298e-06	-2.426515e-09	-3.333421e+01	-1.568579e+02
6.200000e-07	-4.681094e-06	-2.409223e-09	-3.316979e+01	-1.566159e+02
6.300000e-07	-4.657579e-06	-2.392576e-09	-3.300317e+01	-1.563784e+02
6.400000e-07	-4.633935e-06	-2.398672e-09	-3.283563e+01	-1.561448e+02
6.500000e-07	-4.610048e-06	-2.412904e-09	-3.266637e+01	-1.559147e+02
6.600000e-07	-4.585871e-06	-2.415143e-09	-3.249506e+01	-1.556873e+02
6.700000e-07	-4.561382e-06	-2.391455e-09	-3.232153e+01	-1.554619e+02
6.800000e-07	-4.536592e-06	-2.396805e-09	-3.214587e+01	-1.552374e+02
6.900000e-07	-4.511412e-06	-2.404766e-09	-3.196745e+01	-1.550130e+02
7.000000e-07	-4.485661e-06	-2.398729e-09	-3.178498e+01	-1.547876e+02
7.100000e-07	-4.459347e-06	-2.373046e-09	-3.159852e+01	-1.545602e+02
7.200000e-07	-4.432525e-06	-2.369691e-09	-3.140846e+01	-1.543298e+02
7.300000e-07	-4.405280e-06	-2.373677e-09	-3.121540e+01	-1.540953e+02
7.400000e-07	-4.377811e-06	-2.382185e-09	-3.102076e+01	-1.538559e+02
7.500000e-07	-4.350162e-06	-2.367185e-09	-3.082484e+01	-1.536106e+02
7.600000e-07	-4.322262e-06	-2.361086e-09	-3.062714e+01	-1.533588e+02
7.700000e-07	-4.294066e-06	-2.363631e-09	-3.042735e+01	-1.530997e+02
7.800000e-07	-4.265680e-06	-2.368142e-09	-3.022621e+01	-1.528329e+02
7.900000e-07	-4.237081e-06	-2.349701e-09	-3.002356e+01	-1.525578e+02
8.000000e-07	-4.208139e-06	-2.334624e-09	-2.981848e+01	-1.522742e+02
8.100000e-07	-4.178866e-06	-2.331188e-09	-2.961106e+01	-1.519820e+02
8.200000e-07	-4.149293e-06	-2.339626e-09	-2.940150e+01	-1.516811e+02
8.300000e-07	-4.119466e-06	-2.338685e-09	-2.919015e+01	-1.513716e+02
8.400000e-07	-4.089407e-06	-2.328457e-09	-2.897715e+01	-1.510538e+02
8.500000e-07	-4.059065e-06	-2.320064e-09	-2.876216e+01	-1.507280e+02
8.600000e-07	-4.028429e-06	-2.319048e-09	-2.854507e+01	-1.503947e+02
8.700000e-07	-3.997454e-06	-2.311883e-09	-2.832558e+01	-1.500543e+02
8.800000e-07	-3.966162e-06	-2.294155e-09	-2.810385e+01	-1.497076e+02
8.900000e-07	-3.934695e-06	-2.283381e-09	-2.788088e+01	-1.493551e+02
9.000000e-07	-3.903034e-06	-2.289112e-09	-2.765653e+01	-1.489975e+02
9.100000e-07	-3.871196e-06	-2.296463e-09	-2.743093e+01	-1.486356e+02
9.200000e-07	-3.839180e-06	-2.285137e-09	-2.720407e+01	-1.482701e+02
9.300000e-07	-3.806964e-06	-2.269628e-09	-2.697579e+01	-1.479018e+02
9.400000e-07	-3.774504e-06	-2.257765e-09	-2.674578e+01	-1.475312e+02
9.500000e-07	-3.741678e-06	-2.251811e-09	-2.651318e+01	-1.471591e+02
9.600000e-07	-3.708438e-06	-2.239422e-09	-2.627765e+01	-1.467860e+02
9.700000e-07	-3.674841e-06	-2.232478e-09	-2.603958e+01	-1.464124e+02
9.800000e-07	-3.640913e-06	-2.230603e-09	-2.579917e+01	-1.460387e+02
9.900000e-07	-3.606496e-06	-2.233339e-09	-2.555529e+01	-1.456653e+02
1.000000e-06	-3.571672e-06	-2.221565e-09	-2.530853e+01	-1.452925e+02
1.010000e-06	-3.536613e-06	-2.206726e-09	-2.506011e+01	-1.449204e+02
1.020000e-06	-3.501224e-06	-2.191855e-09	-2.480935e+01	-1.445489e+02
1.030000e-06	-3.465557e-06	-2.181991e-09	-2.455662e+01	-1.441781e+02
1.040000e-06	-3.429744e-06	-2.168620e-09	-2.430285e+01	-1.438077e+02
1.050000e-06	-3.393781e-06	-2.164426e-09	-2.404801e+01	-1.434376e+02
1.060000e-06	-3.357688e-06	-2.166065e-09	-2.379226e+01	-1.430674e+02
1.070000e-06	-3.321442e-06	-2.169227e-09	-2.353543e+01	-1.426966e+02
1.080000e-06	-3.284992e-06	-2.160573e-09	-2.327714e+01	-1.423247e+02
1.090000e-06	-3.248280e-06	-2.145120e-09	-2.301701e+01	-1.419512e+02
1.100000e-06	-3.211215e-06	-2.129767e-09	-2.275437e+01	-1.415755e+02
1.110000e-06	-3.173869e-06	-2.122761e-09	-2.248974e+01	-1.411968e+02
1.120000e-06	-3.136344e-06	-2.114141e-09	-2.222384e+01	-1.408146e+02
1.130000e-06	-3.098677e-06	-2.104806e-09	-2.195693e+01	-1.404280e+02
1.140000e-06	-3.060820e-06	-2.099455e-09	-2.168869e+01	-1.400365e+02
1.150000e-06	-3.022665e-06	-2.098989e-09	-2.141832e+01	-1.396392e+02
1.160000e-06	-2.984276e-06	-2.091303e-09	-2.114630e+01	-1.392355e+02
1.170000e-06	-2.945771e-06	-2.075392e-09	-2.087346e+01	-1.388248e+02
1.180000e-06	-2.907108e-06	-2.064087e-09	-2.059949e+01	-1.384063e+02
1.190000e-06	-2.868202e-06	-2.059577e-09	-2.032381e+01	-1.379795e+02
1.200000e-06	-2.829114e-06	-2.055821e-09	-2.004684e+01	-1.375438e+02
1.210000e-06	-2.789801e-06	-2.045077e-09	-1.976827e+01	-1.370988e+02
1.220000e-06	-2.750286e-06	-2.035396e-09	-1.948827e+01	-1.366440e+02
1.230000e-06	-2.710645e-06	-2.030142e-09	-1.920738e+01	-1.361790e+02
1.240000e-06	-2.670805e-06	-2.026064e-09	-1.892508e+01	-1.357035e+02
1.250000e-06	-2.630874e-06	-2.015448e-09	-1.864212e+01	-1.352173e+02
1.260000e-06	-2.590926e-06	-2.007115e-09	-1.835906e+01	-1.347200e+02
1.270000e-06	-2.550852e-06	-1.999454e-09	-1.807510e+01	-1.342116e+02
1.280000e-06	-2.510599e-06	-1.993021e-09	-1.778987e+01	-1.336919e+02
1.290000e-06	-2.470284e-06	-1.983829e-09	-1.750420e+01	-1.331609e+02
1.300000e-06	-2.429930e-06	-1.975350e-09	-1.721826e+01	-1.326186e+02
1.310000e-06	-2.389374e-06	-1.964865e-09	-1.693088e+01	-1.320650e+02
1.320000e-06	-2.348520e-06	-1.954624e-09	-1.664139e+01	-1.315002e+02
1.330000e-06	-2.307335e-06	-1.943557e-09	-1.634956e+01	-1.309241e+02
1.340000e-06	-2.265823e-06	-1.935237e-09	-1.605541e+01	-1.303370e+02
1.350000e-06	-2.224076e-06	-1.928851e-09	-1.575959e+01	-1.297389e+02
1.360000e-06	-2.182109e-06	-1.922626e-09	-1.546222e+01	-1.291300e+02
1.370000e-06	-2.139834e-06	-1.912747e-09	-1.516266e+01	-1.285103e+02
1.380000e-06	-2.097284e-06	-1.901949e-09	-1.486116e+01	-1.278799e+02
1.390000e-06	-2.054534e-06	-1.890343e-09	-1.455824e+01	-1.272390e+02
1.400000e-06	-2.011564e-06	-1.879070e-09	-1.425375e+01	-1.265876e+02
1.410000e-06	-1.968371e-06	-1.867102e-09	-1.394769e+01	-1.259258e+02
1.420000e-06	-1.925018e-06	-1.856661e-09	-1.364050e+01	-1.252535e+02
1.430000e-06	-1.881502e-06	-1.847638e-09	-1.333214e+01	-1.245709e+02
1.440000e-06	-1.837827e-06	-1.836941e-09	-1.302267e+01	-1.238777e+02
1.450000e-06	-1.794060e-06	-1.822197e-09	-1.271254e+01	-1.231740e+02
1.460000e-06	-1.750247e-06	-1.809620e-09	-1.240209e+01	-1.224596e+02
1.470000e-06	-1.706396e-06	-1.802892e-09	-1.209136e+01	-1.217343e+02
1.480000e-06	-1.662495e-06	-1.794125e-09	-1.178029e+01	-1.209979e+02
1.490000e-06	-1.618493e-06	-1.779429e-09	-1.146849e+01	-1.202500e+02
1.500000e-06	-1.574399e-06	-1.763425e-09	-1.115604e+01	-1.194904e+02
1.510000e-06	-1.530249e-06	-1.752718e-09	-1.084320e+01	-1.187185e+02
1.520000e-06	-1.486016e-06	-1.742501e-09	-1.052977e+01	-1.179340e+02
1.530000e-06	-1.441636e-06	-1.726135e-09	-1.021529e+01	-1.171363e+02
1.540000e-06	-1.397186e-06	-1.709214e-09	-9.900332e+00	-1.163249e+02
1.550000e-06	-1.352749e-06	-1.698455e-09	-9.585454e+00	-1.154990e+02
1.560000e-06	-1.308220e-06	-1.689833e-09	-9.269923e+00	-1.146579e+02
1.570000e-06	-1.263536e-06	-1.677304e-09	-8.953296e+00	-1.138008e+02
1.580000e-06	-1.218744e-06	-1.658818e-09	-8.635909e+00	-1.129270e+02
1.590000e-06	-1.173898e-06	-1.643719e-09	-8.318134e+00	-1.120354e+02
1.600000e-06	-1.128934e-06	-1.631232e-09	-7.999521e+00	-1.111252e+02
1.610000e-06	-1.083856e-06	-1.615810e-09	-7.680099e+00	-1.101952e+02
1.620000e-06	-1.038744e-06	-1.594351e-09	-7.360439e+00	-1.092444e+02
1.630000e-06	-9.935967e-07	-1.577290e-09	-7.040533e+00	-1.082717e+02
1.640000e-06	-9.483910e-07	-1.563513e-09	-6.720210e+00	-1.072759e+02
1.650000e-06	-9.030335e-07	-1.547849e-09	-6.398811e+00	-1.062557e+02
1.660000e-06	-8.575963e-07	-1.531440e-09	-6.076847e+00	-1.052099e+02
1.670000e-06	-8.121596e-07	-1.516696e-09	-5.754887e+00	-1.041372e+02
1.680000e-06	-7.666241e-07	-1.502966e-09	-5.432227e+00	-1.030362e+02
1.690000e-06	-7.210216e-07	-1.485618e-09	-5.109092e+00	-1.019057e+02
1.700000e-06	-6.753480e-07	-1.460840e-09	-4.785453e+00	-1.007443e+02
1.710000e-06	-6.296243e-07	-1.435885e-09	-4.461459e+00	-9.955060e+01
1.720000e-06	-5.838608e-07	-1.416411e-09	-4.137183e+00	-9.832332e+01
1.730000e-06	-5.380137e-07	-1.398697e-09	-3.812315e+00	-9.706112e+01
1.740000e-06	-4.921557e-07	-1.378533e-09	-3.487369e+00	-9.576270e+01
1.750000e-06	-4.462803e-07	-1.361102e-09	-3.162300e+00	-9.442679e+01
1.760000e-06	-4.003591e-07	-1.349534e-09	-2.836907e+00	-9.305217e+01
1.770000e-06	-3.544526e-07	-1.335095e-09	-2.511618e+00	-9.163766e+01
1.780000e-06	-3.085025e-07	-1.307777e-09	-2.186020e+00	-9.018214e+01
1.790000e-06	-2.625195e-07	-1.273911e-09	-1.860188e+00	-8.868456e+01
1.800000e-06	-2.165860e-07	-1.246838e-09	-1.534708e+00	-8.714394e+01
1.810000e-06	-1.706265e-07	-1.225235e-09	-1.209043e+00	-8.555936e+01
1.820000e-06	-1.246728e-07	-1.203046e-09	-8.834198e-01	-8.393001e+01
1.830000e-06	-7.876532e-08	-1.177744e-09	-5.581237e-01	-8.225514e+01
1.840000e-06	-3.290139e-08	-1.155497e-09	-2.331362e-01	-8.053411e+01
1.850000e-06	1.302089e-08	-1.135583e-09	9.226478e-02	-7.876634e+01
1.860000e-06	5.903706e-08	-1.110231e-09	4.183311e-01	-7.695139e+01
1.870000e-06	1.050072e-07	-1.075071e-09	7.440711e-01	-7.508886e+01
1.880000e-06	1.509267e-07	-1.040184e-09	1.069453e+00	-7.317849e+01
1.890000e-06	1.968113e-07	-1.012858e-09	1.394586e+00	-7.122006e+01
1.900000e-06	2.426671e-07	-9.852957e-10	1.719516e+00	-6.921348e+01
1.910000e-06	2.885235e-07	-9.501200e-10	2.044450e+00	-6.715873e+01
1.920000e-06	3.343303e-07	-9.145779e-10	2.369033e+00	-6.505586e+01
1.930000e-06	3.801698e-07	-8.861693e-10	2.693848e+00	-6.290501e+01
1.940000e-06	4.260823e-07	-8.603739e-10	3.019179e+00	-6.070641e+01
1.950000e-06	4.719309e-07	-8.276555e-10	3.344058e+00	-5.846032e+01
1.960000e-06	5.176762e-07	-7.923299e-10	3.668205e+00	-5.616711e+01
1.970000e-06	5.634125e-07	-7.619683e-10	3.992289e+00	-5.382719e+01
1.980000e-06	6.091160e-07	-7.324394e-10	4.316139e+00	-5.144103e+01
1.990000e-06	6.547468e-07	-6.945784e-10	4.639475e+00	-4.900917e+01
2.000000e-06	7.003415e-07	-6.506942e-10	4.962554e+00	-4.653220e+01
2.010000e-06	7.458305e-07	-6.102064e-10	5.284885e+00	-4.401079e+01
2.020000e-06	7.912508e-07	-5.768468e-10	5.606730e+00	-4.144562e+01
2.030000e-06	8.367145e-07	-5.436548e-10	5.928880e+00	-3.883749e+01
2.040000e-06	8.821545e-07	-5.068560e-10	6.250865e+00	-3.618722e+01
2.050000e-06	9.274901e-07	-4.706972e-10	6.572108e+00	-3.349571e+01
2.060000e-06	9.727613e-07	-4.358830e-10	6.892896e+00	-3.076393e+01
2.070000e-06	1.017934e-06	-3.957435e-10	7.212987e+00	-2.799293e+01
2.080000e-06	1.063002e-06	-3.480459e-10	7.532335e+00	-2.518385e+01
2.090000e-06	1.107965e-06	-3.005363e-10	7.850933e+00	-2.233790e+01
2.100000e-06	1.152810e-06	-2.575905e-10	8.168707e+00	-1.945640e+01
2.110000e-06	1.197607e-06	-2.179368e-10	8.486129e+00	-1.654079e+01
2.120000e-06	1.242326e-06	-1.781352e-10	8.803004e+00	-1.359260e+01
2.130000e-06	1.286911e-06	-1.406563e-10	9.118933e+00	-1.061349e+01
2.140000e-06	1.331384e-06	-1.040034e-10	9.434061e+00	-7.605239e+00
2.150000e-06	1.375760e-06	-6.122079e-11	9.748505e+00	-4.569779e+00
2.160000e-06	1.420065e-06	-9.750822e-12	1.006245e+01	-1.509162e+00
2.170000e-06	1.464324e-06	4.254443e-11	1.037606e+01	1.574409e+00
2.180000e-06	1.508497e-06	9.014120e-11	1.068907e+01	4.678589e+00
2.190000e-06	1.552576e-06	1.355217e-10	1.100141e+01	7.800890e+00
2.200000e-06	1.596627e-06	1.818781e-10	1.131355e+01	1.093868e+01
2.210000e-06	1.640599e-06	2.280777e-10	1.162513e+01	1.408918e+01
2.220000e-06	1.684497e-06	2.727742e-10	1.193619e+01	1.724949e+01
2.230000e-06	1.728386e-06	3.152815e-10	1.224718e+01	2.041657e+01
2.240000e-06	1.772252e-06	3.617568e-10	1.255801e+01	2.358728e+01
2.250000e-06	1.816014e-06	4.128777e-10	1.286811e+01	2.675837e+01
2.260000e-06	1.859660e-06	4.626154e-10	1.317738e+01	2.992649e+01
2.270000e-06	1.903258e-06	5.087672e-10	1.348631e+01	3.308825e+01
2.280000e-06	1.946761e-06	5.554472e-10	1.379457e+01	3.624017e+01
2.290000e-06	1.990111e-06	6.028879e-10	1.410174e+01	3.937877e+01
2.300000e-06	2.033265e-06	6.486203e-10	1.440753e+01	4.250054e+01
2.310000e-06	2.076126e-06	6.934823e-10	1.471123e+01	4.560200e+01
2.320000e-06	2.118730e-06	7.379155e-10	1.501312e+01	4.867969e+01
2.330000e-06	2.161137e-06	7.841328e-10	1.531362e+01	5.173021e+01
2.340000e-06	2.203212e-06	8.289712e-10	1.561176e+01	5.475027e+01
2.350000e-06	2.244902e-06	8.695615e-10	1.590717e+01	5.773666e+01
2.360000e-06	2.286307e-06	9.091991e-10	1.620056e+01	6.068631e+01
2.370000e-06	2.327517e-06	9.527893e-10	1.649257e+01	6.359632e+01
2.380000e-06	2.368489e-06	9.974968e-10	1.678289e+01	6.646392e+01
2.390000e-06	2.409102e-06	1.039515e-09	1.707067e+01	6.928658e+01
2.400000e-06	2.449480e-06	1.078876e-09	1.735679e+01	7.206194e+01
2.410000e-06	2.489769e-06	1.117775e-09	1.764227e+01	7.478787e+01
2.420000e-06	2.529928e-06	1.154833e-09	1.792683e+01	7.746248e+01
2.430000e-06	2.570004e-06	1.187732e-09	1.821081e+01	8.008410e+01
2.440000e-06	2.610036e-06	1.219286e-09	1.849447e+01	8.265132e+01
2.450000e-06	2.649980e-06	1.252411e-09	1.877751e+01	8.516296e+01
2.460000e-06	2.689787e-06	1.288940e-09	1.905958e+01	8.761807e+01
2.470000e-06	2.729491e-06	1.328124e-09	1.934091e+01	9.001597e+01
2.480000e-06	2.769080e-06	1.366000e-09	1.962144e+01	9.235618e+01
2.490000e-06	2.808483e-06	1.402337e-09	1.990065e+01	9.463845e+01
2.500000e-06	2.847621e-06	1.436717e-09	2.017797e+01	9.686273e+01
2.510000e-06	2.886451e-06	1.466025e-09	2.045312e+01	9.902917e+01
2.520000e-06	2.925098e-06	1.490703e-09	2.072697e+01	1.011381e+02
2.530000e-06	2.963624e-06	1.516169e-09	2.099996e+01	1.031899e+02
2.540000e-06	3.001966e-06	1.543675e-09	2.127165e+01	1.051853e+02
2.550000e-06	3.040051e-06	1.572300e-09	2.154152e+01	1.071250e+02
2.560000e-06	3.077940e-06	1.603749e-09	2.180999e+01	1.090097e+02
2.570000e-06	3.115672e-06	1.634980e-09	2.207736e+01	1.108404e+02
2.580000e-06	3.153143e-06	1.661857e-09	2.234287e+01	1.126181e+02
2.590000e-06	3.190334e-06	1.682100e-09	2.260641e+01	1.143436e+02
2.600000e-06	3.227308e-06	1.697586e-09	2.286840e+01	1.160181e+02
2.610000e-06	3.264070e-06	1.715179e-09	2.312889e+01	1.176425e+02
2.620000e-06	3.300633e-06	1.737143e-09	2.338798e+01	1.192178e+02
2.630000e-06	3.336968e-06	1.759571e-09	2.364545e+01	1.207450e+02
2.640000e-06	3.373100e-06	1.781572e-09	2.390147e+01	1.222250e+02
2.650000e-06	3.409092e-06	1.804061e-09	2.415651e+01	1.236587e+02
2.660000e-06	3.444945e-06	1.825681e-09	2.441056e+01	1.250471e+02
2.670000e-06	3.480627e-06	1.843812e-09	2.466340e+01	1.263909e+02
2.680000e-06	3.516209e-06	1.857800e-09	2.491553e+01	1.276909e+02
2.690000e-06	3.551692e-06	1.871704e-09	2.516696e+01	1.289479e+02
2.700000e-06	3.586875e-06	1.887997e-09	2.541626e+01	1.301626e+02
2.710000e-06	3.621586e-06	1.906167e-09	2.566222e+01	1.313357e+02
2.720000e-06	3.655750e-06	1.924787e-09	2.590431e+01	1.324679e+02
2.730000e-06	3.689482e-06	1.944061e-09	2.614333e+01	1.335599e+02
2.740000e-06	3.722811e-06	1.962381e-09	2.637949e+01	1.346122e+02
2.750000e-06	3.755681e-06	1.976946e-09	2.661241e+01	1.356257e+02
2.760000e-06	3.788174e-06	1.988417e-09	2.684264e+01	1.366010e+02
2.770000e-06	3.820399e-06	1.998775e-09	2.707099e+01	1.375389e+02
2.780000e-06	3.852461e-06	2.010780e-09	2.729818e+01	1.384402e+02
2.790000e-06	3.884372e-06	2.024294e-09	2.752429e+01	1.393058e+02
2.800000e-06	3.916125e-06	2.037422e-09	2.774930e+01	1.401366e+02
2.810000e-06	3.947727e-06	2.051001e-09	2.797322e+01	1.409336e+02
2.820000e-06	3.979086e-06	2.066350e-09	2.819543e+01	1.416979e+02
2.830000e-06	4.010100e-06	2.077567e-09	2.841519e+01	1.424306e+02
2.840000e-06	4.040707e-06	2.083038e-09	2.863207e+01	1.431329e+02
2.850000e-06	4.071012e-06	2.090265e-09	2.884681e+01	1.438061e+02
2.860000e-06	4.101142e-06	2.104444e-09	2.906031e+01	1.444516e+02
2.870000e-06	4.131074e-06	2.119784e-09	2.927240e+01	1.450708e+02
2.880000e-06	4.160735e-06	2.127606e-09	2.948258e+01	1.456651e+02
2.890000e-06	4.190155e-06	2.131258e-09	2.969104e+01	1.462360e+02
2.900000e-06	4.219317e-06	2.138127e-09	2.989768e+01	1.467851e+02
