# Temperatura_=_-4.99
# Concentracion g/m^3_=_4090.0
# C_Vs_to_Am_M_A/Vsm_=_65563218390.804596
# pendiente_HvsI_1/m_=_3716.3
# ordenada_HvsI_A/m_=_1297.0
# frecuencia_Hz_=_135070.9197598905

Tiempo_(s)	Campo_(V.s)	Magnetizacion_(V.s)	Campo_(kA/m)	Magnetizacion_(A/m)
0.000000e+00	-5.432037e-06	-1.885161e-09	-3.840794e+01	-1.225995e+02
1.000000e-08	-5.432087e-06	-1.885481e-09	-3.840829e+01	-1.225381e+02
2.000000e-08	-5.431912e-06	-1.887258e-09	-3.840705e+01	-1.224764e+02
3.000000e-08	-5.431325e-06	-1.887668e-09	-3.840291e+01	-1.224152e+02
4.000000e-08	-5.430246e-06	-1.886854e-09	-3.839528e+01	-1.223554e+02
5.000000e-08	-5.428633e-06	-1.887388e-09	-3.838387e+01	-1.222978e+02
6.000000e-08	-5.426380e-06	-1.882948e-09	-3.836794e+01	-1.222432e+02
7.000000e-08	-5.423498e-06	-1.848805e-09	-3.834756e+01	-1.221923e+02
8.000000e-08	-5.420064e-06	-1.821100e-09	-3.832328e+01	-1.221455e+02
9.000000e-08	-5.416116e-06	-1.892903e-09	-3.829537e+01	-1.221033e+02
1.000000e-07	-5.411852e-06	-1.984566e-09	-3.826522e+01	-1.220661e+02
1.100000e-07	-5.407449e-06	-1.913785e-09	-3.823409e+01	-1.220342e+02
1.200000e-07	-5.402899e-06	-1.781696e-09	-3.820192e+01	-1.220076e+02
1.300000e-07	-5.397980e-06	-1.852237e-09	-3.816714e+01	-1.219863e+02
1.400000e-07	-5.392533e-06	-1.981718e-09	-3.812862e+01	-1.219703e+02
1.500000e-07	-5.386732e-06	-1.884185e-09	-3.808760e+01	-1.219593e+02
1.600000e-07	-5.380625e-06	-1.711619e-09	-3.804442e+01	-1.219529e+02
1.700000e-07	-5.374062e-06	-1.805760e-09	-3.799802e+01	-1.219506e+02
1.800000e-07	-5.366967e-06	-2.008078e-09	-3.794785e+01	-1.219520e+02
1.900000e-07	-5.359565e-06	-1.926440e-09	-3.789552e+01	-1.219562e+02
2.000000e-07	-5.352035e-06	-1.814625e-09	-3.784228e+01	-1.219627e+02
2.100000e-07	-5.344278e-06	-1.886749e-09	-3.778743e+01	-1.219706e+02
2.200000e-07	-5.336309e-06	-1.972112e-09	-3.773108e+01	-1.219791e+02
2.300000e-07	-5.328044e-06	-1.847270e-09	-3.767264e+01	-1.219873e+02
2.400000e-07	-5.319355e-06	-1.813388e-09	-3.761121e+01	-1.219942e+02
2.500000e-07	-5.309936e-06	-1.928960e-09	-3.754461e+01	-1.219991e+02
2.600000e-07	-5.299765e-06	-1.944465e-09	-3.747269e+01	-1.220009e+02
2.700000e-07	-5.289139e-06	-1.843806e-09	-3.739756e+01	-1.219989e+02
2.800000e-07	-5.278040e-06	-1.900530e-09	-3.731909e+01	-1.219922e+02
2.900000e-07	-5.266444e-06	-1.989654e-09	-3.723709e+01	-1.219800e+02
3.000000e-07	-5.254484e-06	-1.886429e-09	-3.715253e+01	-1.219615e+02
3.100000e-07	-5.242103e-06	-1.818442e-09	-3.706499e+01	-1.219363e+02
3.200000e-07	-5.229318e-06	-1.931065e-09	-3.697459e+01	-1.219037e+02
3.300000e-07	-5.216186e-06	-1.965232e-09	-3.688174e+01	-1.218632e+02
3.400000e-07	-5.202620e-06	-1.849757e-09	-3.678582e+01	-1.218145e+02
3.500000e-07	-5.188690e-06	-1.870701e-09	-3.668732e+01	-1.217573e+02
3.600000e-07	-5.174430e-06	-1.939489e-09	-3.658650e+01	-1.216915e+02
3.700000e-07	-5.159697e-06	-1.891627e-09	-3.648233e+01	-1.216169e+02
3.800000e-07	-5.144352e-06	-1.841614e-09	-3.637383e+01	-1.215337e+02
3.900000e-07	-5.128365e-06	-1.893855e-09	-3.626079e+01	-1.214419e+02
4.000000e-07	-5.111882e-06	-1.873753e-09	-3.614424e+01	-1.213417e+02
4.100000e-07	-5.095181e-06	-1.845462e-09	-3.602616e+01	-1.212335e+02
4.200000e-07	-5.078187e-06	-1.894143e-09	-3.590600e+01	-1.211176e+02
4.300000e-07	-5.060885e-06	-1.910365e-09	-3.578366e+01	-1.209943e+02
4.400000e-07	-5.043307e-06	-1.836445e-09	-3.565937e+01	-1.208643e+02
4.500000e-07	-5.025374e-06	-1.854985e-09	-3.553258e+01	-1.207279e+02
4.600000e-07	-5.007085e-06	-1.899364e-09	-3.540326e+01	-1.205858e+02
4.700000e-07	-4.988417e-06	-1.870960e-09	-3.527127e+01	-1.204383e+02
4.800000e-07	-4.969314e-06	-1.833664e-09	-3.513619e+01	-1.202862e+02
4.900000e-07	-4.949823e-06	-1.866250e-09	-3.499839e+01	-1.201299e+02
5.000000e-07	-4.930054e-06	-1.872597e-09	-3.485861e+01	-1.199699e+02
5.100000e-07	-4.910098e-06	-1.863186e-09	-3.471750e+01	-1.198067e+02
5.200000e-07	-4.889933e-06	-1.853214e-09	-3.457492e+01	-1.196408e+02
5.300000e-07	-4.869481e-06	-1.839462e-09	-3.443031e+01	-1.194725e+02
5.400000e-07	-4.848667e-06	-1.835808e-09	-3.428314e+01	-1.193021e+02
5.500000e-07	-4.827472e-06	-1.856754e-09	-3.413328e+01	-1.191300e+02
5.600000e-07	-4.805956e-06	-1.845060e-09	-3.398115e+01	-1.189562e+02
5.700000e-07	-4.784115e-06	-1.823713e-09	-3.382672e+01	-1.187811e+02
5.800000e-07	-4.762020e-06	-1.835233e-09	-3.367049e+01	-1.186045e+02
5.900000e-07	-4.739649e-06	-1.847075e-09	-3.351232e+01	-1.184266e+02
6.000000e-07	-4.716845e-06	-1.829697e-09	-3.335108e+01	-1.182473e+02
6.100000e-07	-4.693625e-06	-1.809521e-09	-3.318690e+01	-1.180664e+02
6.200000e-07	-4.670063e-06	-1.805561e-09	-3.302030e+01	-1.178839e+02
6.300000e-07	-4.646221e-06	-1.814053e-09	-3.285173e+01	-1.176994e+02
6.400000e-07	-4.622274e-06	-1.824620e-09	-3.268240e+01	-1.175127e+02
6.500000e-07	-4.598163e-06	-1.806743e-09	-3.251193e+01	-1.173235e+02
6.600000e-07	-4.573796e-06	-1.791660e-09	-3.233963e+01	-1.171315e+02
6.700000e-07	-4.549097e-06	-1.799795e-09	-3.216499e+01	-1.169365e+02
6.800000e-07	-4.523865e-06	-1.809459e-09	-3.198659e+01	-1.167379e+02
6.900000e-07	-4.497990e-06	-1.789230e-09	-3.180364e+01	-1.165356e+02
7.000000e-07	-4.471569e-06	-1.775946e-09	-3.161682e+01	-1.163292e+02
7.100000e-07	-4.444780e-06	-1.774944e-09	-3.142741e+01	-1.161183e+02
7.200000e-07	-4.417688e-06	-1.783153e-09	-3.123585e+01	-1.159028e+02
7.300000e-07	-4.390240e-06	-1.774608e-09	-3.104178e+01	-1.156824e+02
7.400000e-07	-4.362493e-06	-1.761488e-09	-3.084559e+01	-1.154569e+02
7.500000e-07	-4.334535e-06	-1.754461e-09	-3.064791e+01	-1.152261e+02
7.600000e-07	-4.306378e-06	-1.766929e-09	-3.044882e+01	-1.149899e+02
7.700000e-07	-4.277983e-06	-1.763473e-09	-3.024805e+01	-1.147483e+02
7.800000e-07	-4.249356e-06	-1.747200e-09	-3.004564e+01	-1.145013e+02
7.900000e-07	-4.220486e-06	-1.732938e-09	-2.984151e+01	-1.142490e+02
8.000000e-07	-4.191223e-06	-1.736832e-09	-2.963460e+01	-1.139913e+02
8.100000e-07	-4.161609e-06	-1.739381e-09	-2.942521e+01	-1.137285e+02
8.200000e-07	-4.131774e-06	-1.735373e-09	-2.921426e+01	-1.134607e+02
8.300000e-07	-4.101672e-06	-1.725418e-09	-2.900142e+01	-1.131882e+02
8.400000e-07	-4.071258e-06	-1.724719e-09	-2.878637e+01	-1.129112e+02
8.500000e-07	-4.040601e-06	-1.726353e-09	-2.856961e+01	-1.126300e+02
8.600000e-07	-4.009764e-06	-1.715833e-09	-2.835157e+01	-1.123449e+02
8.700000e-07	-3.978663e-06	-1.697079e-09	-2.813167e+01	-1.120561e+02
8.800000e-07	-3.947135e-06	-1.688590e-09	-2.790875e+01	-1.117641e+02
8.900000e-07	-3.915351e-06	-1.694992e-09	-2.768401e+01	-1.114691e+02
9.000000e-07	-3.883453e-06	-1.697254e-09	-2.745848e+01	-1.111713e+02
9.100000e-07	-3.851414e-06	-1.687545e-09	-2.723193e+01	-1.108712e+02
9.200000e-07	-3.819216e-06	-1.676970e-09	-2.700428e+01	-1.105688e+02
9.300000e-07	-3.786782e-06	-1.675490e-09	-2.677494e+01	-1.102646e+02
9.400000e-07	-3.754020e-06	-1.671258e-09	-2.654330e+01	-1.099585e+02
9.500000e-07	-3.720829e-06	-1.661082e-09	-2.630862e+01	-1.096508e+02
9.600000e-07	-3.687244e-06	-1.650717e-09	-2.607115e+01	-1.093415e+02
9.700000e-07	-3.653220e-06	-1.652575e-09	-2.583058e+01	-1.090308e+02
9.800000e-07	-3.618767e-06	-1.652501e-09	-2.558697e+01	-1.087185e+02
9.900000e-07	-3.583947e-06	-1.642209e-09	-2.534077e+01	-1.084047e+02
1.000000e-06	-3.548780e-06	-1.626600e-09	-2.509212e+01	-1.080893e+02
1.010000e-06	-3.513360e-06	-1.619102e-09	-2.484168e+01	-1.077720e+02
1.020000e-06	-3.477743e-06	-1.613103e-09	-2.458984e+01	-1.074527e+02
1.030000e-06	-3.441919e-06	-1.607421e-09	-2.433655e+01	-1.071311e+02
1.040000e-06	-3.405916e-06	-1.601501e-09	-2.408199e+01	-1.068070e+02
1.050000e-06	-3.369813e-06	-1.601544e-09	-2.382671e+01	-1.064800e+02
1.060000e-06	-3.333561e-06	-1.602726e-09	-2.357039e+01	-1.061498e+02
1.070000e-06	-3.297024e-06	-1.600126e-09	-2.331205e+01	-1.058160e+02
1.080000e-06	-3.260200e-06	-1.586551e-09	-2.305168e+01	-1.054782e+02
1.090000e-06	-3.223105e-06	-1.574090e-09	-2.278940e+01	-1.051360e+02
1.100000e-06	-3.185761e-06	-1.568969e-09	-2.252535e+01	-1.047890e+02
1.110000e-06	-3.148232e-06	-1.567191e-09	-2.226000e+01	-1.044367e+02
1.120000e-06	-3.110535e-06	-1.560198e-09	-2.199345e+01	-1.040788e+02
1.130000e-06	-3.072652e-06	-1.551970e-09	-2.172560e+01	-1.037149e+02
1.140000e-06	-3.034521e-06	-1.548188e-09	-2.145599e+01	-1.033444e+02
1.150000e-06	-2.996167e-06	-1.543838e-09	-2.118480e+01	-1.029672e+02
1.160000e-06	-2.957671e-06	-1.531549e-09	-2.091261e+01	-1.025828e+02
1.170000e-06	-2.919022e-06	-1.517108e-09	-2.063933e+01	-1.021910e+02
1.180000e-06	-2.880159e-06	-1.508210e-09	-2.036455e+01	-1.017914e+02
1.190000e-06	-2.841019e-06	-1.503415e-09	-2.008780e+01	-1.013838e+02
1.200000e-06	-2.801640e-06	-1.495903e-09	-1.980937e+01	-1.009680e+02
1.210000e-06	-2.762116e-06	-1.486578e-09	-1.952991e+01	-1.005438e+02
1.220000e-06	-2.722485e-06	-1.482166e-09	-1.924969e+01	-1.001111e+02
1.230000e-06	-2.682733e-06	-1.481155e-09	-1.896862e+01	-9.966968e+01
1.240000e-06	-2.642861e-06	-1.477659e-09	-1.868670e+01	-9.921955e+01
1.250000e-06	-2.602874e-06	-1.467875e-09	-1.840396e+01	-9.876062e+01
1.260000e-06	-2.562780e-06	-1.455385e-09	-1.812048e+01	-9.829288e+01
1.270000e-06	-2.522538e-06	-1.442145e-09	-1.783594e+01	-9.781632e+01
1.280000e-06	-2.482118e-06	-1.430509e-09	-1.755014e+01	-9.733098e+01
1.290000e-06	-2.441607e-06	-1.418161e-09	-1.726371e+01	-9.683688e+01
1.300000e-06	-2.400932e-06	-1.408267e-09	-1.697611e+01	-9.633409e+01
1.310000e-06	-2.360034e-06	-1.402659e-09	-1.668693e+01	-9.582266e+01
1.320000e-06	-2.318848e-06	-1.399805e-09	-1.639573e+01	-9.530267e+01
1.330000e-06	-2.277312e-06	-1.394134e-09	-1.610204e+01	-9.477418e+01
1.340000e-06	-2.235483e-06	-1.384749e-09	-1.580628e+01	-9.423727e+01
1.350000e-06	-2.193444e-06	-1.372555e-09	-1.550904e+01	-9.369199e+01
1.360000e-06	-2.151089e-06	-1.362008e-09	-1.520956e+01	-9.313841e+01
1.370000e-06	-2.108324e-06	-1.350163e-09	-1.490719e+01	-9.257656e+01
1.380000e-06	-2.065322e-06	-1.336011e-09	-1.460314e+01	-9.200647e+01
1.390000e-06	-2.022143e-06	-1.323078e-09	-1.429783e+01	-9.142815e+01
1.400000e-06	-1.978768e-06	-1.316718e-09	-1.399114e+01	-9.084158e+01
1.410000e-06	-1.935237e-06	-1.313730e-09	-1.368335e+01	-9.024674e+01
1.420000e-06	-1.891595e-06	-1.307632e-09	-1.337478e+01	-8.964356e+01
1.430000e-06	-1.847841e-06	-1.294923e-09	-1.306541e+01	-8.903197e+01
1.440000e-06	-1.804013e-06	-1.279981e-09	-1.275551e+01	-8.841187e+01
1.450000e-06	-1.760167e-06	-1.269562e-09	-1.244550e+01	-8.778312e+01
1.460000e-06	-1.716222e-06	-1.261017e-09	-1.213477e+01	-8.714557e+01
1.470000e-06	-1.672129e-06	-1.249795e-09	-1.182301e+01	-8.649904e+01
1.480000e-06	-1.628041e-06	-1.238363e-09	-1.151128e+01	-8.584333e+01
1.490000e-06	-1.583956e-06	-1.229866e-09	-1.119957e+01	-8.517823e+01
1.500000e-06	-1.539755e-06	-1.223275e-09	-1.088704e+01	-8.450348e+01
1.510000e-06	-1.495473e-06	-1.214810e-09	-1.057394e+01	-8.381881e+01
1.520000e-06	-1.451090e-06	-1.199915e-09	-1.026013e+01	-8.312395e+01
1.530000e-06	-1.406552e-06	-1.184430e-09	-9.945214e+00	-8.241858e+01
1.540000e-06	-1.361911e-06	-1.172448e-09	-9.629576e+00	-8.170239e+01
1.550000e-06	-1.317229e-06	-1.161694e-09	-9.313643e+00	-8.097504e+01
1.560000e-06	-1.272430e-06	-1.152664e-09	-8.996887e+00	-8.023618e+01
1.570000e-06	-1.227450e-06	-1.144758e-09	-8.678851e+00	-7.948545e+01
1.580000e-06	-1.182450e-06	-1.136067e-09	-8.360672e+00	-7.872247e+01
1.590000e-06	-1.137520e-06	-1.125059e-09	-8.042986e+00	-7.794685e+01
1.600000e-06	-1.092472e-06	-1.111190e-09	-7.724470e+00	-7.715820e+01
1.610000e-06	-1.047206e-06	-1.095321e-09	-7.404410e+00	-7.635611e+01
1.620000e-06	-1.001789e-06	-1.082267e-09	-7.083284e+00	-7.554017e+01
1.630000e-06	-9.563155e-07	-1.071484e-09	-6.761756e+00	-7.470994e+01
1.640000e-06	-9.108288e-07	-1.060194e-09	-6.440136e+00	-7.386501e+01
1.650000e-06	-8.653181e-07	-1.049882e-09	-6.118347e+00	-7.300494e+01
1.660000e-06	-8.197310e-07	-1.039413e-09	-5.796017e+00	-7.212927e+01
1.670000e-06	-7.740400e-07	-1.027481e-09	-5.472953e+00	-7.123756e+01
1.680000e-06	-7.283159e-07	-1.011862e-09	-5.149654e+00	-7.032935e+01
1.690000e-06	-6.825872e-07	-9.930941e-10	-4.826323e+00	-6.940417e+01
1.700000e-06	-6.368062e-07	-9.736636e-10	-4.502623e+00	-6.846155e+01
1.710000e-06	-5.909610e-07	-9.585317e-10	-4.178469e+00	-6.750102e+01
1.720000e-06	-5.450431e-07	-9.462607e-10	-3.853800e+00	-6.652209e+01
1.730000e-06	-4.991108e-07	-9.330204e-10	-3.529029e+00	-6.552427e+01
1.740000e-06	-4.532455e-07	-9.195077e-10	-3.204733e+00	-6.450707e+01
1.750000e-06	-4.074534e-07	-9.077952e-10	-2.880953e+00	-6.346998e+01
1.760000e-06	-3.615780e-07	-8.943181e-10	-2.556585e+00	-6.241249e+01
1.770000e-06	-3.155227e-07	-8.749551e-10	-2.230945e+00	-6.133411e+01
1.780000e-06	-2.694850e-07	-8.513891e-10	-1.905430e+00	-6.023430e+01
1.790000e-06	-2.235014e-07	-8.294018e-10	-1.580296e+00	-5.911255e+01
1.800000e-06	-1.774790e-07	-8.101771e-10	-1.254889e+00	-5.796833e+01
1.810000e-06	-1.313826e-07	-7.933398e-10	-9.289581e-01	-5.680113e+01
1.820000e-06	-8.530442e-08	-7.771525e-10	-6.031563e-01	-5.561041e+01
1.830000e-06	-3.925962e-08	-7.601612e-10	-2.775904e-01	-5.439566e+01
1.840000e-06	6.811013e-09	-7.417065e-10	4.815818e-02	-5.315633e+01
1.850000e-06	5.284755e-08	-7.224634e-10	3.736657e-01	-5.189193e+01
1.860000e-06	9.884899e-08	-7.011922e-10	6.989250e-01	-5.060193e+01
1.870000e-06	1.448385e-07	-6.777141e-10	1.024100e+00	-4.928583e+01
1.880000e-06	1.908208e-07	-6.555476e-10	1.349224e+00	-4.794314e+01
1.890000e-06	2.368328e-07	-6.350275e-10	1.674558e+00	-4.657337e+01
1.900000e-06	2.828522e-07	-6.141940e-10	1.999944e+00	-4.517607e+01
1.910000e-06	3.288641e-07	-5.930774e-10	2.325277e+00	-4.375078e+01
1.920000e-06	3.748796e-07	-5.739534e-10	2.650636e+00	-4.229710e+01
1.930000e-06	4.208747e-07	-5.559363e-10	2.975851e+00	-4.081463e+01
1.940000e-06	4.668261e-07	-5.357421e-10	3.300756e+00	-3.930302e+01
1.950000e-06	5.126678e-07	-5.129279e-10	3.624886e+00	-3.776195e+01
1.960000e-06	5.584667e-07	-4.910374e-10	3.948713e+00	-3.619114e+01
1.970000e-06	6.042413e-07	-4.675903e-10	4.272368e+00	-3.459037e+01
1.980000e-06	6.499429e-07	-4.405269e-10	4.595508e+00	-3.295946e+01
1.990000e-06	6.956189e-07	-4.124695e-10	4.918466e+00	-3.129830e+01
2.000000e-06	7.412798e-07	-3.866995e-10	5.241317e+00	-2.960684e+01
2.010000e-06	7.868979e-07	-3.648265e-10	5.563866e+00	-2.788511e+01
2.020000e-06	8.324668e-07	-3.442904e-10	5.886068e+00	-2.613321e+01
2.030000e-06	8.779600e-07	-3.220318e-10	6.207733e+00	-2.435132e+01
2.040000e-06	9.234004e-07	-2.967116e-10	6.529026e+00	-2.253970e+01
2.050000e-06	9.688360e-07	-2.684455e-10	6.850284e+00	-2.069874e+01
2.060000e-06	1.014244e-06	-2.392758e-10	7.171344e+00	-1.882890e+01
2.070000e-06	1.059514e-06	-2.090102e-10	7.491436e+00	-1.693074e+01
2.080000e-06	1.104584e-06	-1.779374e-10	7.810112e+00	-1.500496e+01
2.090000e-06	1.149578e-06	-1.481327e-10	8.128241e+00	-1.305234e+01
2.100000e-06	1.194548e-06	-1.240060e-10	8.446208e+00	-1.107379e+01
2.110000e-06	1.239413e-06	-1.016885e-10	8.763437e+00	-9.070348e+00
2.120000e-06	1.284182e-06	-7.561858e-11	9.079983e+00	-7.043153e+00
2.130000e-06	1.328801e-06	-4.547398e-11	9.395462e+00	-4.993474e+00
2.140000e-06	1.373298e-06	-1.468219e-11	9.710090e+00	-2.922697e+00
2.150000e-06	1.417750e-06	1.605426e-11	1.002439e+01	-8.323264e-01
2.160000e-06	1.462142e-06	4.910015e-11	1.033827e+01	1.276020e+00
2.170000e-06	1.506467e-06	8.274769e-11	1.065167e+01	3.400614e+00
2.180000e-06	1.550682e-06	1.131443e-10	1.096430e+01	5.539621e+00
2.190000e-06	1.594827e-06	1.402203e-10	1.127643e+01	7.691108e+00
2.200000e-06	1.638883e-06	1.691589e-10	1.158794e+01	9.853050e+00
2.210000e-06	1.682854e-06	2.024604e-10	1.189884e+01	1.202334e+01
2.220000e-06	1.726822e-06	2.355896e-10	1.220973e+01	1.419980e+01
2.230000e-06	1.770751e-06	2.661941e-10	1.252033e+01	1.638020e+01
2.240000e-06	1.814576e-06	2.953443e-10	1.283020e+01	1.856223e+01
2.250000e-06	1.858300e-06	3.242656e-10	1.313936e+01	2.074357e+01
2.260000e-06	1.901948e-06	3.542975e-10	1.344797e+01	2.292187e+01
2.270000e-06	1.945507e-06	3.834041e-10	1.375597e+01	2.509477e+01
2.280000e-06	1.988951e-06	4.114311e-10	1.406315e+01	2.725992e+01
2.290000e-06	2.032161e-06	4.426747e-10	1.436866e+01	2.941497e+01
2.300000e-06	2.075033e-06	4.793988e-10	1.467180e+01	3.155762e+01
2.310000e-06	2.117766e-06	5.138115e-10	1.497395e+01	3.368561e+01
2.320000e-06	2.160400e-06	5.422774e-10	1.527540e+01	3.579675e+01
2.330000e-06	2.202779e-06	5.675965e-10	1.557504e+01	3.788893e+01
2.340000e-06	2.244863e-06	5.941368e-10	1.587260e+01	3.996010e+01
2.350000e-06	2.286676e-06	6.224122e-10	1.616825e+01	4.200834e+01
2.360000e-06	2.328216e-06	6.512367e-10	1.646196e+01	4.403183e+01
2.370000e-06	2.369402e-06	6.808392e-10	1.675317e+01	4.602887e+01
2.380000e-06	2.410198e-06	7.137173e-10	1.704162e+01	4.799789e+01
2.390000e-06	2.450719e-06	7.464187e-10	1.732814e+01	4.993746e+01
2.400000e-06	2.491131e-06	7.739289e-10	1.761388e+01	5.184629e+01
2.410000e-06	2.531404e-06	7.957666e-10	1.789863e+01	5.372324e+01
2.420000e-06	2.571510e-06	8.171989e-10	1.818220e+01	5.556732e+01
2.430000e-06	2.611517e-06	8.423403e-10	1.846508e+01	5.737768e+01
2.440000e-06	2.651470e-06	8.680807e-10	1.874757e+01	5.915363e+01
2.450000e-06	2.691363e-06	8.937057e-10	1.902964e+01	6.089463e+01
2.460000e-06	2.731162e-06	9.203542e-10	1.931104e+01	6.260026e+01
2.470000e-06	2.770777e-06	9.462511e-10	1.959115e+01	6.427027e+01
2.480000e-06	2.810129e-06	9.699482e-10	1.986939e+01	6.590452e+01
2.490000e-06	2.849273e-06	9.938153e-10	2.014616e+01	6.750300e+01
2.500000e-06	2.888265e-06	1.018043e-09	2.042186e+01	6.906582e+01
2.510000e-06	2.926982e-06	1.041013e-09	2.069562e+01	7.059319e+01
2.520000e-06	2.965443e-06	1.063251e-09	2.096756e+01	7.208541e+01
2.530000e-06	3.003731e-06	1.086275e-09	2.123828e+01	7.354288e+01
2.540000e-06	3.041834e-06	1.108801e-09	2.150769e+01	7.496607e+01
2.550000e-06	3.079716e-06	1.131307e-09	2.177554e+01	7.635550e+01
2.560000e-06	3.117433e-06	1.150213e-09	2.204223e+01	7.771175e+01
2.570000e-06	3.155032e-06	1.166849e-09	2.230808e+01	7.903545e+01
2.580000e-06	3.192370e-06	1.185247e-09	2.257208e+01	8.032723e+01
2.590000e-06	3.229440e-06	1.204313e-09	2.283419e+01	8.158776e+01
2.600000e-06	3.266317e-06	1.221793e-09	2.309493e+01	8.281774e+01
2.610000e-06	3.302973e-06	1.238207e-09	2.335411e+01	8.401783e+01
2.620000e-06	3.339377e-06	1.256334e-09	2.361151e+01	8.518871e+01
2.630000e-06	3.375585e-06	1.274916e-09	2.386752e+01	8.633105e+01
2.640000e-06	3.411616e-06	1.289292e-09	2.412229e+01	8.744548e+01
2.650000e-06	3.447499e-06	1.298501e-09	2.437600e+01	8.853263e+01
2.660000e-06	3.483255e-06	1.308730e-09	2.462882e+01	8.959310e+01
2.670000e-06	3.518886e-06	1.324290e-09	2.488075e+01	9.062746e+01
2.680000e-06	3.554323e-06	1.339827e-09	2.513131e+01	9.163624e+01
2.690000e-06	3.589486e-06	1.352653e-09	2.537994e+01	9.261995e+01
2.700000e-06	3.624321e-06	1.367412e-09	2.562624e+01	9.357907e+01
2.710000e-06	3.658671e-06	1.386949e-09	2.586912e+01	9.451407e+01
2.720000e-06	3.692588e-06	1.404881e-09	2.610893e+01	9.542536e+01
2.730000e-06	3.726128e-06	1.413872e-09	2.634609e+01	9.631335e+01
2.740000e-06	3.759214e-06	1.419831e-09	2.658003e+01	9.717843e+01
2.750000e-06	3.791906e-06	1.431762e-09	2.681118e+01	9.802097e+01
2.760000e-06	3.824273e-06	1.447032e-09	2.704003e+01	9.884133e+01
2.770000e-06	3.856469e-06	1.457808e-09	2.726768e+01	9.963985e+01
2.780000e-06	3.888504e-06	1.466516e-09	2.749418e+01	1.004169e+02
2.790000e-06	3.920319e-06	1.479443e-09	2.771913e+01	1.011728e+02
2.800000e-06	3.951938e-06	1.494186e-09	2.794270e+01	1.019078e+02
2.810000e-06	3.983421e-06	1.505278e-09	2.816531e+01	1.026225e+02
2.820000e-06	4.014628e-06	1.509666e-09	2.838596e+01	1.033170e+02
2.830000e-06	4.045465e-06	1.514243e-09	2.860400e+01	1.039918e+02
2.840000e-06	4.076027e-06	1.526440e-09	2.882009e+01	1.046472e+02
2.850000e-06	4.106320e-06	1.540160e-09	2.903428e+01	1.052836e+02
2.860000e-06	4.136384e-06	1.548569e-09	2.924685e+01	1.059015e+02
2.870000e-06	4.166183e-06	1.555008e-09	2.945755e+01	1.065011e+02
2.880000e-06	4.195646e-06	1.563351e-09	2.966587e+01	1.070830e+02
2.890000e-06	4.224741e-06	1.570460e-09	2.987160e+01	1.076475e+02
2.900000e-06	4.253582e-06	1.574270e-09	3.007552e+01	1.081951e+02
