# Temperatura_=_-3.72
# Concentracion g/m^3_=_4090.0
# C_Vs_to_Am_M_A/Vsm_=_65563218390.804596
# pendiente_HvsI_1/m_=_3716.3
# ordenada_HvsI_A/m_=_1297.0
# frecuencia_Hz_=_135073.26612143268

Tiempo_(s)	Campo_(V.s)	Magnetizacion_(V.s)	Campo_(kA/m)	Magnetizacion_(A/m)
0.000000e+00	-5.430265e-06	-1.957536e-09	-3.839224e+01	-1.304447e+02
1.000000e-08	-5.430340e-06	-1.958198e-09	-3.839277e+01	-1.303500e+02
2.000000e-08	-5.430165e-06	-1.957844e-09	-3.839153e+01	-1.302581e+02
3.000000e-08	-5.429625e-06	-1.957232e-09	-3.838771e+01	-1.301705e+02
4.000000e-08	-5.428608e-06	-1.958269e-09	-3.838052e+01	-1.300888e+02
5.000000e-08	-5.427032e-06	-1.964350e-09	-3.836938e+01	-1.300144e+02
6.000000e-08	-5.424790e-06	-1.972425e-09	-3.835353e+01	-1.299487e+02
7.000000e-08	-5.421932e-06	-1.955226e-09	-3.833332e+01	-1.298930e+02
8.000000e-08	-5.418524e-06	-1.904675e-09	-3.830923e+01	-1.298484e+02
9.000000e-08	-5.414616e-06	-1.939033e-09	-3.828160e+01	-1.298157e+02
1.000000e-07	-5.410391e-06	-2.067913e-09	-3.825173e+01	-1.297958e+02
1.100000e-07	-5.406012e-06	-2.013216e-09	-3.822077e+01	-1.297892e+02
1.200000e-07	-5.401539e-06	-1.872914e-09	-3.818914e+01	-1.297961e+02
1.300000e-07	-5.396730e-06	-1.905921e-09	-3.815514e+01	-1.298167e+02
1.400000e-07	-5.391385e-06	-2.069302e-09	-3.811736e+01	-1.298508e+02
1.500000e-07	-5.385635e-06	-2.033248e-09	-3.807670e+01	-1.298979e+02
1.600000e-07	-5.379641e-06	-1.795932e-09	-3.803432e+01	-1.299574e+02
1.700000e-07	-5.373260e-06	-1.891391e-09	-3.798921e+01	-1.300284e+02
1.800000e-07	-5.366361e-06	-2.093844e-09	-3.794043e+01	-1.301099e+02
1.900000e-07	-5.359148e-06	-2.075513e-09	-3.788944e+01	-1.302004e+02
2.000000e-07	-5.351684e-06	-1.898491e-09	-3.783667e+01	-1.302987e+02
2.100000e-07	-5.343990e-06	-2.012846e-09	-3.778227e+01	-1.304029e+02
2.200000e-07	-5.336043e-06	-2.132257e-09	-3.772608e+01	-1.305114e+02
2.300000e-07	-5.327741e-06	-2.032355e-09	-3.766739e+01	-1.306223e+02
2.400000e-07	-5.318983e-06	-1.961043e-09	-3.760547e+01	-1.307336e+02
2.500000e-07	-5.309628e-06	-2.116917e-09	-3.753933e+01	-1.308435e+02
2.600000e-07	-5.299514e-06	-2.165998e-09	-3.746782e+01	-1.309498e+02
2.700000e-07	-5.288858e-06	-2.033261e-09	-3.739248e+01	-1.310507e+02
2.800000e-07	-5.277812e-06	-2.081158e-09	-3.731439e+01	-1.311442e+02
2.900000e-07	-5.266307e-06	-2.208338e-09	-3.723305e+01	-1.312287e+02
3.000000e-07	-5.254339e-06	-2.110761e-09	-3.714843e+01	-1.313024e+02
3.100000e-07	-5.241963e-06	-1.988273e-09	-3.706093e+01	-1.313639e+02
3.200000e-07	-5.229208e-06	-2.136027e-09	-3.697076e+01	-1.314117e+02
3.300000e-07	-5.216009e-06	-2.182191e-09	-3.687744e+01	-1.314449e+02
3.400000e-07	-5.202481e-06	-2.056293e-09	-3.678180e+01	-1.314623e+02
3.500000e-07	-5.188657e-06	-2.051324e-09	-3.668406e+01	-1.314634e+02
3.600000e-07	-5.174448e-06	-2.171056e-09	-3.658360e+01	-1.314477e+02
3.700000e-07	-5.159713e-06	-2.099247e-09	-3.647942e+01	-1.314150e+02
3.800000e-07	-5.144353e-06	-2.050804e-09	-3.637082e+01	-1.313652e+02
3.900000e-07	-5.128343e-06	-2.107733e-09	-3.625763e+01	-1.312987e+02
4.000000e-07	-5.111854e-06	-2.099919e-09	-3.614106e+01	-1.312159e+02
4.100000e-07	-5.095091e-06	-2.022637e-09	-3.602254e+01	-1.311175e+02
4.200000e-07	-5.078035e-06	-2.091312e-09	-3.590195e+01	-1.310043e+02
4.300000e-07	-5.060720e-06	-2.107596e-09	-3.577954e+01	-1.308775e+02
4.400000e-07	-5.043174e-06	-2.035850e-09	-3.565549e+01	-1.307382e+02
4.500000e-07	-5.025288e-06	-2.038326e-09	-3.552903e+01	-1.305877e+02
4.600000e-07	-5.006948e-06	-2.107761e-09	-3.539937e+01	-1.304275e+02
4.700000e-07	-4.988223e-06	-2.067409e-09	-3.526698e+01	-1.302590e+02
4.800000e-07	-4.969116e-06	-2.035673e-09	-3.513189e+01	-1.300838e+02
4.900000e-07	-4.949569e-06	-2.057281e-09	-3.499369e+01	-1.299033e+02
5.000000e-07	-4.929811e-06	-2.062908e-09	-3.485400e+01	-1.297192e+02
5.100000e-07	-4.909920e-06	-2.050484e-09	-3.471337e+01	-1.295327e+02
5.200000e-07	-4.889778e-06	-2.054745e-09	-3.457097e+01	-1.293454e+02
5.300000e-07	-4.869295e-06	-2.036323e-09	-3.442615e+01	-1.291584e+02
5.400000e-07	-4.848462e-06	-2.036566e-09	-3.427886e+01	-1.289729e+02
5.500000e-07	-4.827338e-06	-2.064149e-09	-3.412952e+01	-1.287899e+02
5.600000e-07	-4.805877e-06	-2.048337e-09	-3.397778e+01	-1.286102e+02
5.700000e-07	-4.784046e-06	-2.022310e-09	-3.382344e+01	-1.284345e+02
5.800000e-07	-4.761945e-06	-2.030871e-09	-3.366718e+01	-1.282633e+02
5.900000e-07	-4.739568e-06	-2.042638e-09	-3.350897e+01	-1.280968e+02
6.000000e-07	-4.716796e-06	-2.031533e-09	-3.334798e+01	-1.279353e+02
6.100000e-07	-4.693686e-06	-2.029512e-09	-3.318459e+01	-1.277785e+02
6.200000e-07	-4.670287e-06	-2.016622e-09	-3.301916e+01	-1.276263e+02
6.300000e-07	-4.646632e-06	-2.024510e-09	-3.285192e+01	-1.274783e+02
6.400000e-07	-4.622734e-06	-2.036988e-09	-3.268295e+01	-1.273340e+02
6.500000e-07	-4.598598e-06	-2.027808e-09	-3.251231e+01	-1.271926e+02
6.600000e-07	-4.574252e-06	-2.000445e-09	-3.234018e+01	-1.270534e+02
6.700000e-07	-4.549481e-06	-2.014851e-09	-3.216505e+01	-1.269155e+02
6.800000e-07	-4.524137e-06	-2.021738e-09	-3.198587e+01	-1.267780e+02
6.900000e-07	-4.498254e-06	-2.012222e-09	-3.180288e+01	-1.266398e+02
7.000000e-07	-4.471832e-06	-1.996778e-09	-3.161607e+01	-1.265001e+02
7.100000e-07	-4.444971e-06	-2.001906e-09	-3.142616e+01	-1.263577e+02
7.200000e-07	-4.417726e-06	-2.001141e-09	-3.123354e+01	-1.262116e+02
7.300000e-07	-4.390169e-06	-2.000595e-09	-3.103871e+01	-1.260611e+02
7.400000e-07	-4.362403e-06	-1.982030e-09	-3.084240e+01	-1.259051e+02
7.500000e-07	-4.334478e-06	-1.975860e-09	-3.064497e+01	-1.257430e+02
7.600000e-07	-4.306396e-06	-1.981117e-09	-3.044643e+01	-1.255739e+02
7.700000e-07	-4.278071e-06	-1.984143e-09	-3.024617e+01	-1.253975e+02
7.800000e-07	-4.249469e-06	-1.970244e-09	-3.004396e+01	-1.252132e+02
7.900000e-07	-4.220599e-06	-1.964376e-09	-2.983984e+01	-1.250207e+02
8.000000e-07	-4.191340e-06	-1.964227e-09	-2.963298e+01	-1.248198e+02
8.100000e-07	-4.161701e-06	-1.964907e-09	-2.942343e+01	-1.246106e+02
8.200000e-07	-4.131854e-06	-1.958603e-09	-2.921241e+01	-1.243930e+02
8.300000e-07	-4.101801e-06	-1.948657e-09	-2.899993e+01	-1.241673e+02
8.400000e-07	-4.071459e-06	-1.944902e-09	-2.878541e+01	-1.239339e+02
8.500000e-07	-4.040722e-06	-1.949253e-09	-2.856810e+01	-1.236932e+02
8.600000e-07	-4.009719e-06	-1.945071e-09	-2.834891e+01	-1.234457e+02
8.700000e-07	-3.978518e-06	-1.929048e-09	-2.812832e+01	-1.231920e+02
8.800000e-07	-3.947060e-06	-1.919734e-09	-2.790591e+01	-1.229328e+02
8.900000e-07	-3.915386e-06	-1.920431e-09	-2.768197e+01	-1.226689e+02
9.000000e-07	-3.883552e-06	-1.921425e-09	-2.745690e+01	-1.224009e+02
9.100000e-07	-3.851555e-06	-1.908060e-09	-2.723068e+01	-1.221297e+02
9.200000e-07	-3.819352e-06	-1.897051e-09	-2.700301e+01	-1.218560e+02
9.300000e-07	-3.786905e-06	-1.890925e-09	-2.677361e+01	-1.215806e+02
9.400000e-07	-3.754064e-06	-1.890777e-09	-2.654141e+01	-1.213040e+02
9.500000e-07	-3.720817e-06	-1.881053e-09	-2.630636e+01	-1.210269e+02
9.600000e-07	-3.687137e-06	-1.874886e-09	-2.606824e+01	-1.207499e+02
9.700000e-07	-3.653059e-06	-1.872844e-09	-2.582731e+01	-1.204733e+02
9.800000e-07	-3.618584e-06	-1.874017e-09	-2.558357e+01	-1.201977e+02
9.900000e-07	-3.583529e-06	-1.863764e-09	-2.533572e+01	-1.199231e+02
1.000000e-06	-3.548134e-06	-1.854582e-09	-2.508548e+01	-1.196499e+02
1.010000e-06	-3.512594e-06	-1.845069e-09	-2.483421e+01	-1.193779e+02
1.020000e-06	-3.476852e-06	-1.838181e-09	-2.458152e+01	-1.191071e+02
1.030000e-06	-3.440982e-06	-1.826391e-09	-2.432791e+01	-1.188374e+02
1.040000e-06	-3.404999e-06	-1.823193e-09	-2.407351e+01	-1.185685e+02
1.050000e-06	-3.368905e-06	-1.822991e-09	-2.381832e+01	-1.183000e+02
1.060000e-06	-3.332660e-06	-1.824330e-09	-2.356207e+01	-1.180313e+02
1.070000e-06	-3.296199e-06	-1.819891e-09	-2.330429e+01	-1.177621e+02
1.080000e-06	-3.259477e-06	-1.812277e-09	-2.304466e+01	-1.174916e+02
1.090000e-06	-3.222456e-06	-1.803476e-09	-2.278292e+01	-1.172192e+02
1.100000e-06	-3.185182e-06	-1.799913e-09	-2.251939e+01	-1.169443e+02
1.110000e-06	-3.147722e-06	-1.795666e-09	-2.225455e+01	-1.166660e+02
1.120000e-06	-3.109986e-06	-1.786608e-09	-2.198775e+01	-1.163838e+02
1.130000e-06	-3.072053e-06	-1.776794e-09	-2.171956e+01	-1.160968e+02
1.140000e-06	-3.034006e-06	-1.773327e-09	-2.145057e+01	-1.158044e+02
1.150000e-06	-2.995711e-06	-1.771396e-09	-2.117982e+01	-1.155059e+02
1.160000e-06	-2.957240e-06	-1.765525e-09	-2.090783e+01	-1.152007e+02
1.170000e-06	-2.918590e-06	-1.759263e-09	-2.063457e+01	-1.148882e+02
1.180000e-06	-2.879662e-06	-1.755943e-09	-2.035935e+01	-1.145680e+02
1.190000e-06	-2.840563e-06	-1.756198e-09	-2.008292e+01	-1.142396e+02
1.200000e-06	-2.801286e-06	-1.747974e-09	-1.980523e+01	-1.139028e+02
1.210000e-06	-2.761775e-06	-1.733855e-09	-1.952588e+01	-1.135571e+02
1.220000e-06	-2.722118e-06	-1.722509e-09	-1.924551e+01	-1.132024e+02
1.230000e-06	-2.682335e-06	-1.718887e-09	-1.896424e+01	-1.128387e+02
1.240000e-06	-2.642477e-06	-1.714843e-09	-1.868244e+01	-1.124658e+02
1.250000e-06	-2.602566e-06	-1.714021e-09	-1.840027e+01	-1.120839e+02
1.260000e-06	-2.562535e-06	-1.712599e-09	-1.811724e+01	-1.116930e+02
1.270000e-06	-2.522381e-06	-1.713795e-09	-1.783336e+01	-1.112933e+02
1.280000e-06	-2.482051e-06	-1.709146e-09	-1.754822e+01	-1.108850e+02
1.290000e-06	-2.441482e-06	-1.696404e-09	-1.726139e+01	-1.104683e+02
1.300000e-06	-2.400762e-06	-1.677287e-09	-1.697350e+01	-1.100434e+02
1.310000e-06	-2.359816e-06	-1.663215e-09	-1.668402e+01	-1.096108e+02
1.320000e-06	-2.318528e-06	-1.655932e-09	-1.639211e+01	-1.091706e+02
1.330000e-06	-2.276874e-06	-1.652303e-09	-1.609761e+01	-1.087232e+02
1.340000e-06	-2.235011e-06	-1.649657e-09	-1.580163e+01	-1.082688e+02
1.350000e-06	-2.192965e-06	-1.648679e-09	-1.550437e+01	-1.078075e+02
1.360000e-06	-2.150541e-06	-1.643997e-09	-1.520443e+01	-1.073397e+02
1.370000e-06	-2.107731e-06	-1.633207e-09	-1.490176e+01	-1.068653e+02
1.380000e-06	-2.064691e-06	-1.615643e-09	-1.459747e+01	-1.063845e+02
1.390000e-06	-2.021413e-06	-1.599241e-09	-1.429149e+01	-1.058974e+02
1.400000e-06	-1.977879e-06	-1.588646e-09	-1.398370e+01	-1.054037e+02
1.410000e-06	-1.934286e-06	-1.584238e-09	-1.367550e+01	-1.049034e+02
1.420000e-06	-1.890643e-06	-1.580923e-09	-1.336694e+01	-1.043963e+02
1.430000e-06	-1.846913e-06	-1.574654e-09	-1.305776e+01	-1.038821e+02
1.440000e-06	-1.803148e-06	-1.564818e-09	-1.274834e+01	-1.033603e+02
1.450000e-06	-1.759320e-06	-1.554172e-09	-1.243848e+01	-1.028307e+02
1.460000e-06	-1.715401e-06	-1.543285e-09	-1.212797e+01	-1.022927e+02
1.470000e-06	-1.671403e-06	-1.528894e-09	-1.181690e+01	-1.017457e+02
1.480000e-06	-1.627372e-06	-1.516397e-09	-1.150560e+01	-1.011891e+02
1.490000e-06	-1.583312e-06	-1.508942e-09	-1.119410e+01	-1.006223e+02
1.500000e-06	-1.539142e-06	-1.500716e-09	-1.088181e+01	-1.000446e+02
1.510000e-06	-1.494890e-06	-1.490412e-09	-1.056894e+01	-9.945533e+01
1.520000e-06	-1.450561e-06	-1.479672e-09	-1.025554e+01	-9.885365e+01
1.530000e-06	-1.406162e-06	-1.470439e-09	-9.941632e+00	-9.823888e+01
1.540000e-06	-1.361690e-06	-1.461902e-09	-9.627214e+00	-9.761026e+01
1.550000e-06	-1.317128e-06	-1.450455e-09	-9.312162e+00	-9.696707e+01
1.560000e-06	-1.272435e-06	-1.438456e-09	-8.996176e+00	-9.630858e+01
1.570000e-06	-1.227608e-06	-1.424864e-09	-8.679248e+00	-9.563411e+01
1.580000e-06	-1.182699e-06	-1.412595e-09	-8.361736e+00	-9.494298e+01
1.590000e-06	-1.137696e-06	-1.399840e-09	-8.043563e+00	-9.423458e+01
1.600000e-06	-1.092570e-06	-1.386949e-09	-7.724524e+00	-9.350831e+01
1.610000e-06	-1.047338e-06	-1.371423e-09	-7.404732e+00	-9.276363e+01
1.620000e-06	-1.002025e-06	-1.360788e-09	-7.084364e+00	-9.200002e+01
1.630000e-06	-9.565604e-07	-1.351711e-09	-6.762929e+00	-9.121702e+01
1.640000e-06	-9.110318e-07	-1.339314e-09	-6.441039e+00	-9.041420e+01
1.650000e-06	-8.654913e-07	-1.326041e-09	-6.119066e+00	-8.959117e+01
1.660000e-06	-8.198330e-07	-1.316063e-09	-5.796260e+00	-8.874756e+01
1.670000e-06	-7.741395e-07	-1.305466e-09	-5.473204e+00	-8.788304e+01
1.680000e-06	-7.284845e-07	-1.288432e-09	-5.150421e+00	-8.699728e+01
1.690000e-06	-6.828169e-07	-1.268041e-09	-4.827549e+00	-8.608998e+01
1.700000e-06	-6.370935e-07	-1.252714e-09	-4.504282e+00	-8.516081e+01
1.710000e-06	-5.913371e-07	-1.242107e-09	-4.180782e+00	-8.420946e+01
1.720000e-06	-5.455356e-07	-1.229925e-09	-3.856963e+00	-8.323558e+01
1.730000e-06	-4.996749e-07	-1.212153e-09	-3.532726e+00	-8.223881e+01
1.740000e-06	-4.537714e-07	-1.194617e-09	-3.208186e+00	-8.121872e+01
1.750000e-06	-4.078244e-07	-1.180942e-09	-2.883338e+00	-8.017486e+01
1.760000e-06	-3.618363e-07	-1.167104e-09	-2.558201e+00	-7.910672e+01
1.770000e-06	-3.157527e-07	-1.147117e-09	-2.232387e+00	-7.801370e+01
1.780000e-06	-2.696363e-07	-1.124656e-09	-1.906342e+00	-7.689515e+01
1.790000e-06	-2.234998e-07	-1.107677e-09	-1.580154e+00	-7.575032e+01
1.800000e-06	-1.773381e-07	-1.093206e-09	-1.253789e+00	-7.457840e+01
1.810000e-06	-1.312272e-07	-1.075785e-09	-9.277824e-01	-7.337847e+01
1.820000e-06	-8.520968e-08	-1.054232e-09	-6.024366e-01	-7.214953e+01
1.830000e-06	-3.926428e-08	-1.034292e-09	-2.776004e-01	-7.089048e+01
1.840000e-06	6.727379e-09	-1.014105e-09	4.756290e-02	-6.960016e+01
1.850000e-06	5.280072e-08	-9.937207e-10	3.733036e-01	-6.827729e+01
1.860000e-06	9.891892e-08	-9.731759e-10	6.993616e-01	-6.692054e+01
1.870000e-06	1.450125e-07	-9.549088e-10	1.025245e+00	-6.552851e+01
1.880000e-06	1.910499e-07	-9.373189e-10	1.350732e+00	-6.409971e+01
1.890000e-06	2.370948e-07	-9.169899e-10	1.676271e+00	-6.263263e+01
1.900000e-06	2.831595e-07	-8.903779e-10	2.001952e+00	-6.112572e+01
1.910000e-06	3.291328e-07	-8.633327e-10	2.326985e+00	-5.957741e+01
1.920000e-06	3.750561e-07	-8.407985e-10	2.651665e+00	-5.798612e+01
1.930000e-06	4.209922e-07	-8.200169e-10	2.976436e+00	-5.635030e+01
1.940000e-06	4.668434e-07	-7.968524e-10	3.300606e+00	-5.466841e+01
1.950000e-06	5.126224e-07	-7.735867e-10	3.624265e+00	-5.293899e+01
1.960000e-06	5.583846e-07	-7.512286e-10	3.947806e+00	-5.116064e+01
1.970000e-06	6.041276e-07	-7.269491e-10	4.271211e+00	-4.933205e+01
1.980000e-06	6.498214e-07	-6.969939e-10	4.594269e+00	-4.745204e+01
1.990000e-06	6.954497e-07	-6.624173e-10	4.916863e+00	-4.551957e+01
2.000000e-06	7.410514e-07	-6.299591e-10	5.239269e+00	-4.353374e+01
2.010000e-06	7.866881e-07	-6.014137e-10	5.561923e+00	-4.149384e+01
2.020000e-06	8.323278e-07	-5.734979e-10	5.884598e+00	-3.939938e+01
2.030000e-06	8.778819e-07	-5.462852e-10	6.206668e+00	-3.725004e+01
2.040000e-06	9.234048e-07	-5.195611e-10	6.528517e+00	-3.504579e+01
2.050000e-06	9.688574e-07	-4.898627e-10	6.849869e+00	-3.278679e+01
2.060000e-06	1.014189e-06	-4.551349e-10	7.170364e+00	-3.047352e+01
2.070000e-06	1.059420e-06	-4.154070e-10	7.490153e+00	-2.810668e+01
2.080000e-06	1.104482e-06	-3.743149e-10	7.808743e+00	-2.568729e+01
2.090000e-06	1.149468e-06	-3.354838e-10	8.126796e+00	-2.321663e+01
2.100000e-06	1.194341e-06	-3.018252e-10	8.444049e+00	-2.069630e+01
2.110000e-06	1.239026e-06	-2.695207e-10	8.759977e+00	-1.812816e+01
2.120000e-06	1.283657e-06	-2.362797e-10	9.075518e+00	-1.551439e+01
2.130000e-06	1.328274e-06	-1.998537e-10	9.390961e+00	-1.285743e+01
2.140000e-06	1.372775e-06	-1.582343e-10	9.705589e+00	-1.016001e+01
2.150000e-06	1.417174e-06	-1.118473e-10	1.001949e+01	-7.425125e+00
2.160000e-06	1.461502e-06	-6.477693e-11	1.033289e+01	-4.656023e+00
2.170000e-06	1.505751e-06	-2.019593e-11	1.064574e+01	-1.856184e+00
2.180000e-06	1.549958e-06	1.957854e-11	1.095828e+01	9.706927e-01
2.190000e-06	1.594053e-06	5.603150e-11	1.127003e+01	3.820711e+00
2.200000e-06	1.638031e-06	9.263165e-11	1.158096e+01	6.689804e+00
2.210000e-06	1.681956e-06	1.345280e-10	1.189151e+01	9.573757e+00
2.220000e-06	1.725858e-06	1.806124e-10	1.220190e+01	1.246824e+01
2.230000e-06	1.769763e-06	2.269811e-10	1.251231e+01	1.536882e+01
2.240000e-06	1.813638e-06	2.731135e-10	1.282251e+01	1.827103e+01
2.250000e-06	1.857425e-06	3.175346e-10	1.313209e+01	2.117034e+01
2.260000e-06	1.901144e-06	3.583909e-10	1.344118e+01	2.406226e+01
2.270000e-06	1.944755e-06	3.976873e-10	1.374951e+01	2.694229e+01
2.280000e-06	1.988134e-06	4.379668e-10	1.405620e+01	2.980603e+01
2.290000e-06	2.031384e-06	4.804957e-10	1.436199e+01	3.264916e+01
2.300000e-06	2.074529e-06	5.250562e-10	1.466702e+01	3.546750e+01
2.310000e-06	2.117424e-06	5.665764e-10	1.497029e+01	3.825698e+01
2.320000e-06	2.160041e-06	6.049257e-10	1.527160e+01	4.101377e+01
2.330000e-06	2.202357e-06	6.408714e-10	1.557077e+01	4.373420e+01
2.340000e-06	2.244353e-06	6.738584e-10	1.586769e+01	4.641485e+01
2.350000e-06	2.286001e-06	7.074321e-10	1.616214e+01	4.905252e+01
2.360000e-06	2.327294e-06	7.470857e-10	1.645408e+01	5.164431e+01
2.370000e-06	2.368249e-06	7.897076e-10	1.674364e+01	5.418756e+01
2.380000e-06	2.408927e-06	8.304581e-10	1.703123e+01	5.667992e+01
2.390000e-06	2.449420e-06	8.659680e-10	1.731752e+01	5.911933e+01
2.400000e-06	2.489783e-06	8.970952e-10	1.760289e+01	6.150402e+01
2.410000e-06	2.530040e-06	9.250472e-10	1.788751e+01	6.383255e+01
2.420000e-06	2.570189e-06	9.511552e-10	1.817136e+01	6.610374e+01
2.430000e-06	2.610209e-06	9.769760e-10	1.845430e+01	6.831674e+01
2.440000e-06	2.650127e-06	1.005580e-09	1.873653e+01	7.047094e+01
2.450000e-06	2.689964e-06	1.038963e-09	1.901818e+01	7.256606e+01
2.460000e-06	2.729751e-06	1.074837e-09	1.929948e+01	7.460203e+01
2.470000e-06	2.769443e-06	1.108900e-09	1.958010e+01	7.657905e+01
2.480000e-06	2.808925e-06	1.138796e-09	1.985924e+01	7.849754e+01
2.490000e-06	2.848192e-06	1.166443e-09	2.013685e+01	8.035813e+01
2.500000e-06	2.887250e-06	1.192771e-09	2.041300e+01	8.216162e+01
2.510000e-06	2.926021e-06	1.216709e-09	2.068711e+01	8.390897e+01
2.520000e-06	2.964515e-06	1.237728e-09	2.095926e+01	8.560132e+01
2.530000e-06	3.002814e-06	1.257230e-09	2.123004e+01	8.723986e+01
2.540000e-06	3.040926e-06	1.275801e-09	2.149950e+01	8.882593e+01
2.550000e-06	3.078862e-06	1.296028e-09	2.176770e+01	9.036091e+01
2.560000e-06	3.116645e-06	1.316182e-09	2.203483e+01	9.184623e+01
2.570000e-06	3.154228e-06	1.337527e-09	2.230054e+01	9.328336e+01
2.580000e-06	3.191570e-06	1.362472e-09	2.256456e+01	9.467376e+01
2.590000e-06	3.228653e-06	1.385630e-09	2.282673e+01	9.601890e+01
2.600000e-06	3.265549e-06	1.405497e-09	2.308759e+01	9.732022e+01
2.610000e-06	3.302246e-06	1.422799e-09	2.334704e+01	9.857910e+01
2.620000e-06	3.338667e-06	1.435632e-09	2.360454e+01	9.979690e+01
2.630000e-06	3.374901e-06	1.443957e-09	2.386071e+01	1.009749e+02
2.640000e-06	3.411015e-06	1.451284e-09	2.411604e+01	1.021144e+02
2.650000e-06	3.446993e-06	1.463834e-09	2.437041e+01	1.032164e+02
2.660000e-06	3.482800e-06	1.483953e-09	2.462357e+01	1.042821e+02
2.670000e-06	3.518444e-06	1.509848e-09	2.487557e+01	1.053126e+02
2.680000e-06	3.553842e-06	1.532091e-09	2.512584e+01	1.063086e+02
2.690000e-06	3.588946e-06	1.545653e-09	2.537403e+01	1.072713e+02
2.700000e-06	3.623656e-06	1.555024e-09	2.561943e+01	1.082013e+02
2.710000e-06	3.657955e-06	1.562978e-09	2.586192e+01	1.090994e+02
2.720000e-06	3.691858e-06	1.569048e-09	2.610162e+01	1.099665e+02
2.730000e-06	3.725174e-06	1.575667e-09	2.633716e+01	1.108031e+02
2.740000e-06	3.757987e-06	1.589223e-09	2.656915e+01	1.116101e+02
2.750000e-06	3.790503e-06	1.611920e-09	2.679904e+01	1.123880e+02
2.760000e-06	3.822826e-06	1.634772e-09	2.702756e+01	1.131376e+02
2.770000e-06	3.854994e-06	1.648684e-09	2.725500e+01	1.138594e+02
2.780000e-06	3.886994e-06	1.654758e-09	2.748124e+01	1.145543e+02
2.790000e-06	3.918823e-06	1.657031e-09	2.770627e+01	1.152229e+02
2.800000e-06	3.950458e-06	1.658280e-09	2.792993e+01	1.158659e+02
2.810000e-06	3.981897e-06	1.659691e-09	2.815221e+01	1.164842e+02
2.820000e-06	4.013117e-06	1.665621e-09	2.837293e+01	1.170784e+02
2.830000e-06	4.044004e-06	1.681077e-09	2.859131e+01	1.176495e+02
2.840000e-06	4.074631e-06	1.703864e-09	2.880784e+01	1.181984e+02
2.850000e-06	4.104992e-06	1.723427e-09	2.902249e+01	1.187258e+02
2.860000e-06	4.135032e-06	1.733545e-09	2.923488e+01	1.192328e+02
2.870000e-06	4.164854e-06	1.736476e-09	2.944572e+01	1.197204e+02
2.880000e-06	4.194388e-06	1.734904e-09	2.965453e+01	1.201894e+02
2.890000e-06	4.223573e-06	1.730897e-09	2.986087e+01	1.206409e+02
2.900000e-06	4.252415e-06	1.729749e-09	3.006478e+01	1.210759e+02
