# Temperatura_=_17.1
# Concentracion g/m^3_=_4090.0
# C_Vs_to_Am_M_A/Vsm_=_65563218390.804596
# pendiente_HvsI_1/m_=_3716.3
# ordenada_HvsI_A/m_=_1297.0
# frecuencia_Hz_=_135078.2731887948

Tiempo_(s)	Campo_(V.s)	Magnetizacion_(V.s)	Campo_(kA/m)	Magnetizacion_(A/m)
0.000000e+00	-5.387057e-06	-2.358138e-09	-3.839895e+01	-1.548920e+02
1.000000e-08	-5.387232e-06	-2.359064e-09	-3.840020e+01	-1.548130e+02
2.000000e-08	-5.387190e-06	-2.361770e-09	-3.839990e+01	-1.547371e+02
3.000000e-08	-5.386781e-06	-2.361310e-09	-3.839698e+01	-1.546655e+02
4.000000e-08	-5.385905e-06	-2.357555e-09	-3.839074e+01	-1.545995e+02
5.000000e-08	-5.384559e-06	-2.354898e-09	-3.838114e+01	-1.545401e+02
6.000000e-08	-5.382581e-06	-2.353442e-09	-3.836705e+01	-1.544883e+02
7.000000e-08	-5.379925e-06	-2.351928e-09	-3.834812e+01	-1.544451e+02
8.000000e-08	-5.376653e-06	-2.341906e-09	-3.832479e+01	-1.544112e+02
9.000000e-08	-5.372866e-06	-2.339200e-09	-3.829780e+01	-1.543871e+02
1.000000e-07	-5.368761e-06	-2.373668e-09	-3.826854e+01	-1.543732e+02
1.100000e-07	-5.364499e-06	-2.417415e-09	-3.823816e+01	-1.543698e+02
1.200000e-07	-5.360057e-06	-2.347575e-09	-3.820650e+01	-1.543769e+02
1.300000e-07	-5.355282e-06	-2.321667e-09	-3.817246e+01	-1.543943e+02
1.400000e-07	-5.350094e-06	-2.350987e-09	-3.813548e+01	-1.544218e+02
1.500000e-07	-5.344550e-06	-2.402006e-09	-3.809596e+01	-1.544586e+02
1.600000e-07	-5.338665e-06	-2.329370e-09	-3.805402e+01	-1.545041e+02
1.700000e-07	-5.332301e-06	-2.273823e-09	-3.800865e+01	-1.545574e+02
1.800000e-07	-5.325488e-06	-2.383455e-09	-3.796009e+01	-1.546175e+02
1.900000e-07	-5.318403e-06	-2.430188e-09	-3.790959e+01	-1.546831e+02
2.000000e-07	-5.311075e-06	-2.406290e-09	-3.785736e+01	-1.547530e+02
2.100000e-07	-5.303476e-06	-2.344092e-09	-3.780319e+01	-1.548257e+02
2.200000e-07	-5.295640e-06	-2.433802e-09	-3.774733e+01	-1.548997e+02
2.300000e-07	-5.287533e-06	-2.434035e-09	-3.768955e+01	-1.549735e+02
2.400000e-07	-5.278996e-06	-2.408980e-09	-3.762870e+01	-1.550456e+02
2.500000e-07	-5.269805e-06	-2.400876e-09	-3.756318e+01	-1.551143e+02
2.600000e-07	-5.259945e-06	-2.473765e-09	-3.749290e+01	-1.551782e+02
2.700000e-07	-5.249509e-06	-2.452459e-09	-3.741851e+01	-1.552357e+02
2.800000e-07	-5.238733e-06	-2.419298e-09	-3.734170e+01	-1.552854e+02
2.900000e-07	-5.227524e-06	-2.451064e-09	-3.726180e+01	-1.553260e+02
3.000000e-07	-5.215857e-06	-2.473953e-09	-3.717864e+01	-1.553562e+02
3.100000e-07	-5.203795e-06	-2.410672e-09	-3.709266e+01	-1.553750e+02
3.200000e-07	-5.191269e-06	-2.410736e-09	-3.700338e+01	-1.553814e+02
3.300000e-07	-5.178526e-06	-2.480205e-09	-3.691254e+01	-1.553746e+02
3.400000e-07	-5.165371e-06	-2.453444e-09	-3.681877e+01	-1.553540e+02
3.500000e-07	-5.151631e-06	-2.411241e-09	-3.672083e+01	-1.553190e+02
3.600000e-07	-5.137615e-06	-2.447269e-09	-3.662093e+01	-1.552695e+02
3.700000e-07	-5.123295e-06	-2.466903e-09	-3.651886e+01	-1.552052e+02
3.800000e-07	-5.108330e-06	-2.397735e-09	-3.641219e+01	-1.551262e+02
3.900000e-07	-5.092768e-06	-2.405032e-09	-3.630126e+01	-1.550327e+02
4.000000e-07	-5.076717e-06	-2.428475e-09	-3.618685e+01	-1.549250e+02
4.100000e-07	-5.060231e-06	-2.406202e-09	-3.606934e+01	-1.548035e+02
4.200000e-07	-5.043476e-06	-2.385021e-09	-3.594991e+01	-1.546688e+02
4.300000e-07	-5.026453e-06	-2.436739e-09	-3.582857e+01	-1.545216e+02
4.400000e-07	-5.009107e-06	-2.417259e-09	-3.570492e+01	-1.543627e+02
4.500000e-07	-4.991474e-06	-2.396755e-09	-3.557923e+01	-1.541929e+02
4.600000e-07	-4.973502e-06	-2.401511e-09	-3.545113e+01	-1.540130e+02
4.700000e-07	-4.955053e-06	-2.416973e-09	-3.531962e+01	-1.538240e+02
4.800000e-07	-4.936168e-06	-2.379121e-09	-3.518501e+01	-1.536268e+02
4.900000e-07	-4.916998e-06	-2.389418e-09	-3.504837e+01	-1.534224e+02
5.000000e-07	-4.897522e-06	-2.386853e-09	-3.490954e+01	-1.532115e+02
5.100000e-07	-4.877775e-06	-2.385563e-09	-3.476879e+01	-1.529951e+02
5.200000e-07	-4.857787e-06	-2.379829e-09	-3.462632e+01	-1.527739e+02
5.300000e-07	-4.837608e-06	-2.389414e-09	-3.448248e+01	-1.525487e+02
5.400000e-07	-4.817138e-06	-2.369027e-09	-3.433657e+01	-1.523202e+02
5.500000e-07	-4.796280e-06	-2.371367e-09	-3.418789e+01	-1.520890e+02
5.600000e-07	-4.775051e-06	-2.367451e-09	-3.403657e+01	-1.518555e+02
5.700000e-07	-4.753480e-06	-2.358099e-09	-3.388282e+01	-1.516202e+02
5.800000e-07	-4.731645e-06	-2.349490e-09	-3.372717e+01	-1.513835e+02
5.900000e-07	-4.709603e-06	-2.352862e-09	-3.357006e+01	-1.511455e+02
6.000000e-07	-4.687190e-06	-2.343777e-09	-3.341030e+01	-1.509064e+02
6.100000e-07	-4.664206e-06	-2.340788e-09	-3.324647e+01	-1.506663e+02
6.200000e-07	-4.640949e-06	-2.336494e-09	-3.308069e+01	-1.504253e+02
6.300000e-07	-4.617518e-06	-2.324460e-09	-3.291367e+01	-1.501832e+02
6.400000e-07	-4.593814e-06	-2.326398e-09	-3.274472e+01	-1.499399e+02
6.500000e-07	-4.569966e-06	-2.325361e-09	-3.257472e+01	-1.496954e+02
6.600000e-07	-4.545890e-06	-2.314262e-09	-3.240311e+01	-1.494494e+02
6.700000e-07	-4.521520e-06	-2.303783e-09	-3.222940e+01	-1.492017e+02
6.800000e-07	-4.496799e-06	-2.310213e-09	-3.205319e+01	-1.489521e+02
6.900000e-07	-4.471529e-06	-2.301879e-09	-3.187307e+01	-1.487003e+02
7.000000e-07	-4.445676e-06	-2.294473e-09	-3.168879e+01	-1.484461e+02
7.100000e-07	-4.419242e-06	-2.280172e-09	-3.150037e+01	-1.481893e+02
7.200000e-07	-4.392273e-06	-2.279729e-09	-3.130813e+01	-1.479296e+02
7.300000e-07	-4.364907e-06	-2.276282e-09	-3.111306e+01	-1.476669e+02
7.400000e-07	-4.337254e-06	-2.280056e-09	-3.091595e+01	-1.474010e+02
7.500000e-07	-4.309477e-06	-2.268542e-09	-3.071796e+01	-1.471318e+02
7.600000e-07	-4.281611e-06	-2.269888e-09	-3.051933e+01	-1.468591e+02
7.700000e-07	-4.253536e-06	-2.265359e-09	-3.031921e+01	-1.465829e+02
7.800000e-07	-4.225222e-06	-2.262004e-09	-3.011739e+01	-1.463032e+02
7.900000e-07	-4.196660e-06	-2.247931e-09	-2.991380e+01	-1.460199e+02
8.000000e-07	-4.167736e-06	-2.248095e-09	-2.970763e+01	-1.457329e+02
8.100000e-07	-4.138452e-06	-2.245476e-09	-2.949889e+01	-1.454425e+02
8.200000e-07	-4.108918e-06	-2.249302e-09	-2.928837e+01	-1.451485e+02
8.300000e-07	-4.079124e-06	-2.243801e-09	-2.907600e+01	-1.448511e+02
8.400000e-07	-4.049123e-06	-2.240120e-09	-2.886216e+01	-1.445502e+02
8.500000e-07	-4.018868e-06	-2.233176e-09	-2.864650e+01	-1.442460e+02
8.600000e-07	-3.988234e-06	-2.226811e-09	-2.842814e+01	-1.439385e+02
8.700000e-07	-3.957132e-06	-2.214170e-09	-2.820644e+01	-1.436278e+02
8.800000e-07	-3.925849e-06	-2.204715e-09	-2.798346e+01	-1.433138e+02
8.900000e-07	-3.894485e-06	-2.201154e-09	-2.775989e+01	-1.429965e+02
9.000000e-07	-3.862913e-06	-2.204084e-09	-2.753485e+01	-1.426760e+02
9.100000e-07	-3.831237e-06	-2.203548e-09	-2.730906e+01	-1.423521e+02
9.200000e-07	-3.799399e-06	-2.197389e-09	-2.708212e+01	-1.420249e+02
9.300000e-07	-3.767340e-06	-2.191216e-09	-2.685361e+01	-1.416941e+02
9.400000e-07	-3.735042e-06	-2.182892e-09	-2.662338e+01	-1.413598e+02
9.500000e-07	-3.702363e-06	-2.173574e-09	-2.639045e+01	-1.410216e+02
9.600000e-07	-3.669222e-06	-2.163253e-09	-2.615422e+01	-1.406795e+02
9.700000e-07	-3.635704e-06	-2.163152e-09	-2.591531e+01	-1.403333e+02
9.800000e-07	-3.601736e-06	-2.163833e-09	-2.567318e+01	-1.399828e+02
9.900000e-07	-3.567423e-06	-2.160769e-09	-2.542860e+01	-1.396278e+02
1.000000e-06	-3.532880e-06	-2.149213e-09	-2.518237e+01	-1.392680e+02
1.010000e-06	-3.497850e-06	-2.139561e-09	-2.493268e+01	-1.389032e+02
1.020000e-06	-3.462391e-06	-2.124463e-09	-2.467993e+01	-1.385333e+02
1.030000e-06	-3.426762e-06	-2.115067e-09	-2.442597e+01	-1.381580e+02
1.040000e-06	-3.390973e-06	-2.108742e-09	-2.417086e+01	-1.377773e+02
1.050000e-06	-3.355057e-06	-2.110491e-09	-2.391485e+01	-1.373909e+02
1.060000e-06	-3.319005e-06	-2.108308e-09	-2.365787e+01	-1.369987e+02
1.070000e-06	-3.282818e-06	-2.103980e-09	-2.339993e+01	-1.366006e+02
1.080000e-06	-3.246475e-06	-2.089601e-09	-2.314088e+01	-1.361966e+02
1.090000e-06	-3.209849e-06	-2.075341e-09	-2.287981e+01	-1.357867e+02
1.100000e-06	-3.172990e-06	-2.061507e-09	-2.261708e+01	-1.353708e+02
1.110000e-06	-3.135895e-06	-2.053780e-09	-2.235267e+01	-1.349490e+02
1.120000e-06	-3.098548e-06	-2.044877e-09	-2.208646e+01	-1.345213e+02
1.130000e-06	-3.061007e-06	-2.040826e-09	-2.181886e+01	-1.340878e+02
1.140000e-06	-3.023232e-06	-2.039962e-09	-2.154960e+01	-1.336487e+02
1.150000e-06	-2.985315e-06	-2.037797e-09	-2.127933e+01	-1.332039e+02
1.160000e-06	-2.947238e-06	-2.024222e-09	-2.100792e+01	-1.327537e+02
1.170000e-06	-2.908921e-06	-2.004947e-09	-2.073480e+01	-1.322981e+02
1.180000e-06	-2.870351e-06	-1.988259e-09	-2.045986e+01	-1.318372e+02
1.190000e-06	-2.831529e-06	-1.978075e-09	-2.018314e+01	-1.313712e+02
1.200000e-06	-2.792504e-06	-1.969672e-09	-1.990497e+01	-1.309001e+02
1.210000e-06	-2.753308e-06	-1.963734e-09	-1.962559e+01	-1.304239e+02
1.220000e-06	-2.713900e-06	-1.963394e-09	-1.934468e+01	-1.299425e+02
1.230000e-06	-2.674287e-06	-1.963677e-09	-1.906232e+01	-1.294560e+02
1.240000e-06	-2.634613e-06	-1.956734e-09	-1.877953e+01	-1.289643e+02
1.250000e-06	-2.594903e-06	-1.942332e-09	-1.849647e+01	-1.284671e+02
1.260000e-06	-2.555123e-06	-1.928594e-09	-1.821292e+01	-1.279643e+02
1.270000e-06	-2.515247e-06	-1.914212e-09	-1.792868e+01	-1.274555e+02
1.280000e-06	-2.475251e-06	-1.902403e-09	-1.764359e+01	-1.269405e+02
1.290000e-06	-2.435152e-06	-1.891962e-09	-1.735777e+01	-1.264187e+02
1.300000e-06	-2.394850e-06	-1.886324e-09	-1.707050e+01	-1.258899e+02
1.310000e-06	-2.354329e-06	-1.881117e-09	-1.678166e+01	-1.253533e+02
1.320000e-06	-2.313662e-06	-1.875555e-09	-1.649178e+01	-1.248086e+02
1.330000e-06	-2.272826e-06	-1.863791e-09	-1.620070e+01	-1.242550e+02
1.340000e-06	-2.231752e-06	-1.852189e-09	-1.590793e+01	-1.236920e+02
1.350000e-06	-2.190287e-06	-1.839670e-09	-1.561237e+01	-1.231189e+02
1.360000e-06	-2.148457e-06	-1.827698e-09	-1.531420e+01	-1.225349e+02
1.370000e-06	-2.106465e-06	-1.814152e-09	-1.501488e+01	-1.219395e+02
1.380000e-06	-2.064207e-06	-1.802742e-09	-1.471367e+01	-1.213318e+02
1.390000e-06	-2.021651e-06	-1.793175e-09	-1.441033e+01	-1.207113e+02
1.400000e-06	-1.978877e-06	-1.784951e-09	-1.410544e+01	-1.200773e+02
1.410000e-06	-1.935822e-06	-1.774441e-09	-1.379854e+01	-1.194290e+02
1.420000e-06	-1.892564e-06	-1.764698e-09	-1.349020e+01	-1.187660e+02
1.430000e-06	-1.849177e-06	-1.755094e-09	-1.318094e+01	-1.180877e+02
1.440000e-06	-1.805693e-06	-1.744370e-09	-1.287099e+01	-1.173936e+02
1.450000e-06	-1.762118e-06	-1.731197e-09	-1.256038e+01	-1.166831e+02
1.460000e-06	-1.718444e-06	-1.720388e-09	-1.224907e+01	-1.159560e+02
1.470000e-06	-1.674692e-06	-1.711552e-09	-1.193721e+01	-1.152118e+02
1.480000e-06	-1.630886e-06	-1.700417e-09	-1.162496e+01	-1.144502e+02
1.490000e-06	-1.586999e-06	-1.686781e-09	-1.131213e+01	-1.136709e+02
1.500000e-06	-1.543077e-06	-1.670134e-09	-1.099905e+01	-1.128738e+02
1.510000e-06	-1.499123e-06	-1.655682e-09	-1.068575e+01	-1.120587e+02
1.520000e-06	-1.455081e-06	-1.644556e-09	-1.037182e+01	-1.112254e+02
1.530000e-06	-1.410875e-06	-1.632755e-09	-1.005672e+01	-1.103736e+02
1.540000e-06	-1.366560e-06	-1.618103e-09	-9.740841e+00	-1.095034e+02
1.550000e-06	-1.322270e-06	-1.604022e-09	-9.425141e+00	-1.086145e+02
1.560000e-06	-1.278004e-06	-1.592570e-09	-9.109614e+00	-1.077068e+02
1.570000e-06	-1.233669e-06	-1.582327e-09	-8.793598e+00	-1.067800e+02
1.580000e-06	-1.189188e-06	-1.570041e-09	-8.476533e+00	-1.058339e+02
1.590000e-06	-1.144592e-06	-1.556610e-09	-8.158651e+00	-1.048681e+02
1.600000e-06	-1.099931e-06	-1.541846e-09	-7.840313e+00	-1.038823e+02
1.610000e-06	-1.055146e-06	-1.525525e-09	-7.521083e+00	-1.028760e+02
1.620000e-06	-1.010218e-06	-1.508834e-09	-7.200837e+00	-1.018485e+02
1.630000e-06	-9.652238e-07	-1.494928e-09	-6.880117e+00	-1.007992e+02
1.640000e-06	-9.202283e-07	-1.480977e-09	-6.559389e+00	-9.972733e+01
1.650000e-06	-8.751431e-07	-1.465670e-09	-6.238022e+00	-9.863191e+01
1.660000e-06	-8.298565e-07	-1.450405e-09	-5.915219e+00	-9.751193e+01
1.670000e-06	-7.844920e-07	-1.437142e-09	-5.591860e+00	-9.636625e+01
1.680000e-06	-7.391542e-07	-1.420426e-09	-5.268692e+00	-9.519359e+01
1.690000e-06	-6.938737e-07	-1.397344e-09	-4.945933e+00	-9.399258e+01
1.700000e-06	-6.485289e-07	-1.371649e-09	-4.622715e+00	-9.276175e+01
1.710000e-06	-6.030798e-07	-1.351256e-09	-4.298754e+00	-9.149953e+01
1.720000e-06	-5.576117e-07	-1.337018e-09	-3.974657e+00	-9.020428e+01
1.730000e-06	-5.120823e-07	-1.323005e-09	-3.650124e+00	-8.887429e+01
1.740000e-06	-4.665033e-07	-1.303692e-09	-3.325236e+00	-8.750780e+01
1.750000e-06	-4.209531e-07	-1.284044e-09	-3.000554e+00	-8.610305e+01
1.760000e-06	-3.754102e-07	-1.264514e-09	-2.675924e+00	-8.465823e+01
1.770000e-06	-3.297938e-07	-1.241007e-09	-2.350770e+00	-8.317159e+01
1.780000e-06	-2.840852e-07	-1.209060e-09	-2.024960e+00	-8.164137e+01
1.790000e-06	-2.384076e-07	-1.176903e-09	-1.699370e+00	-8.006591e+01
1.800000e-06	-1.927162e-07	-1.150728e-09	-1.373681e+00	-7.844360e+01
1.810000e-06	-1.469786e-07	-1.128141e-09	-1.047664e+00	-7.677295e+01
1.820000e-06	-1.012700e-07	-1.105893e-09	-7.218531e-01	-7.505256e+01
1.830000e-06	-5.551006e-08	-1.080822e-09	-3.956758e-01	-7.328122e+01
1.840000e-06	-9.737729e-09	-1.054236e-09	-6.941055e-02	-7.145782e+01
1.850000e-06	3.597097e-08	-1.026561e-09	2.564011e-01	-6.958147e+01
1.860000e-06	8.166012e-08	-9.950731e-10	5.820735e-01	-6.765145e+01
1.870000e-06	1.274000e-07	-9.592669e-10	9.081077e-01	-6.566723e+01
1.880000e-06	1.731628e-07	-9.262516e-10	1.234305e+00	-6.362849e+01
1.890000e-06	2.188713e-07	-8.966361e-10	1.560115e+00	-6.153514e+01
1.900000e-06	2.645178e-07	-8.658560e-10	1.885483e+00	-5.938728e+01
1.910000e-06	3.102848e-07	-8.325507e-10	2.211711e+00	-5.718526e+01
1.920000e-06	3.560615e-07	-8.001797e-10	2.538007e+00	-5.492960e+01
1.930000e-06	4.017377e-07	-7.698839e-10	2.863587e+00	-5.262108e+01
1.940000e-06	4.474067e-07	-7.403573e-10	3.189116e+00	-5.026064e+01
1.950000e-06	4.929755e-07	-7.067791e-10	3.513930e+00	-4.784945e+01
1.960000e-06	5.384731e-07	-6.685211e-10	3.838237e+00	-4.538884e+01
1.970000e-06	5.839458e-07	-6.268968e-10	4.162367e+00	-4.288033e+01
1.980000e-06	6.293363e-07	-5.843504e-10	4.485910e+00	-4.032560e+01
1.990000e-06	6.746274e-07	-5.409262e-10	4.808745e+00	-3.772645e+01
2.000000e-06	7.199392e-07	-4.979769e-10	5.131728e+00	-3.508482e+01
2.010000e-06	7.652673e-07	-4.582152e-10	5.454826e+00	-3.240279e+01
2.020000e-06	8.105449e-07	-4.249518e-10	5.777565e+00	-2.968249e+01
2.030000e-06	8.556574e-07	-3.925132e-10	6.099128e+00	-2.692617e+01
2.040000e-06	9.006353e-07	-3.546022e-10	6.419730e+00	-2.413613e+01
2.050000e-06	9.456661e-07	-3.111678e-10	6.740710e+00	-2.131472e+01
2.060000e-06	9.905874e-07	-2.667554e-10	7.060909e+00	-1.846434e+01
2.070000e-06	1.035297e-06	-2.210600e-10	7.379600e+00	-1.558741e+01
2.080000e-06	1.079953e-06	-1.737569e-10	7.697909e+00	-1.268637e+01
2.090000e-06	1.124611e-06	-1.267460e-10	8.016231e+00	-9.763673e+00
2.100000e-06	1.169234e-06	-8.543709e-11	8.334300e+00	-6.821770e+00
2.110000e-06	1.213730e-06	-4.951315e-11	8.651472e+00	-3.863104e+00
2.120000e-06	1.258109e-06	-1.168818e-11	8.967801e+00	-8.901159e-01
2.130000e-06	1.302398e-06	3.003712e-11	9.283496e+00	2.094770e+00
2.140000e-06	1.346593e-06	7.473464e-11	9.598516e+00	5.089141e+00
2.150000e-06	1.390746e-06	1.219990e-10	9.913243e+00	8.090597e+00
2.160000e-06	1.434815e-06	1.718134e-10	1.022736e+01	1.109675e+01
2.170000e-06	1.478803e-06	2.199857e-10	1.054091e+01	1.410523e+01
2.180000e-06	1.522752e-06	2.639066e-10	1.085418e+01	1.711368e+01
2.190000e-06	1.566651e-06	3.038133e-10	1.116709e+01	2.011973e+01
2.200000e-06	1.610528e-06	3.426309e-10	1.147985e+01	2.312103e+01
2.210000e-06	1.654329e-06	3.832495e-10	1.179206e+01	2.611525e+01
2.220000e-06	1.698070e-06	4.265207e-10	1.210384e+01	2.910004e+01
2.230000e-06	1.741828e-06	4.709157e-10	1.241575e+01	3.207306e+01
2.240000e-06	1.785519e-06	5.150085e-10	1.272718e+01	3.503197e+01
2.250000e-06	1.829016e-06	5.573074e-10	1.303723e+01	3.797445e+01
2.260000e-06	1.872319e-06	6.001738e-10	1.334590e+01	4.089816e+01
2.270000e-06	1.915490e-06	6.437884e-10	1.365361e+01	4.380079e+01
2.280000e-06	1.958481e-06	6.861285e-10	1.396006e+01	4.668003e+01
2.290000e-06	2.001282e-06	7.263149e-10	1.426514e+01	4.953360e+01
2.300000e-06	2.043854e-06	7.646921e-10	1.456859e+01	5.235925e+01
2.310000e-06	2.086274e-06	8.024866e-10	1.487096e+01	5.515475e+01
2.320000e-06	2.128492e-06	8.384568e-10	1.517190e+01	5.791793e+01
2.330000e-06	2.170308e-06	8.737073e-10	1.546996e+01	6.064668e+01
2.340000e-06	2.211798e-06	9.099261e-10	1.576570e+01	6.333895e+01
2.350000e-06	2.253006e-06	9.487626e-10	1.605943e+01	6.599275e+01
2.360000e-06	2.293967e-06	9.920933e-10	1.635140e+01	6.860620e+01
2.370000e-06	2.334684e-06	1.035903e-09	1.664163e+01	7.117753e+01
2.380000e-06	2.375108e-06	1.076397e-09	1.692977e+01	7.370506e+01
2.390000e-06	2.415395e-06	1.110025e-09	1.721694e+01	7.618725e+01
2.400000e-06	2.455632e-06	1.138236e-09	1.750375e+01	7.862270e+01
2.410000e-06	2.495679e-06	1.165767e-09	1.778921e+01	8.101012e+01
2.420000e-06	2.535602e-06	1.195985e-09	1.807377e+01	8.334840e+01
2.430000e-06	2.575443e-06	1.229162e-09	1.835776e+01	8.563658e+01
2.440000e-06	2.615190e-06	1.264816e-09	1.864108e+01	8.787387e+01
2.450000e-06	2.654881e-06	1.302134e-09	1.892399e+01	9.005962e+01
2.460000e-06	2.694405e-06	1.338287e-09	1.920572e+01	9.219338e+01
2.470000e-06	2.733791e-06	1.369520e-09	1.948647e+01	9.427484e+01
2.480000e-06	2.773064e-06	1.395625e-09	1.976640e+01	9.630385e+01
2.490000e-06	2.812094e-06	1.419903e-09	2.004461e+01	9.828043e+01
2.500000e-06	2.850781e-06	1.445408e-09	2.032037e+01	1.002048e+02
2.510000e-06	2.889216e-06	1.472078e-09	2.059434e+01	1.020771e+02
2.520000e-06	2.927492e-06	1.501629e-09	2.086717e+01	1.038980e+02
2.530000e-06	2.965583e-06	1.533414e-09	2.113868e+01	1.056680e+02
2.540000e-06	3.003512e-06	1.563386e-09	2.140904e+01	1.073876e+02
2.550000e-06	3.041222e-06	1.589886e-09	2.167784e+01	1.090579e+02
2.560000e-06	3.078739e-06	1.610586e-09	2.194526e+01	1.106794e+02
2.570000e-06	3.116127e-06	1.626685e-09	2.221176e+01	1.122533e+02
2.580000e-06	3.153242e-06	1.645118e-09	2.247632e+01	1.137805e+02
2.590000e-06	3.190070e-06	1.667293e-09	2.273883e+01	1.152620e+02
2.600000e-06	3.226736e-06	1.691024e-09	2.300018e+01	1.166988e+02
2.610000e-06	3.263193e-06	1.715502e-09	2.326004e+01	1.180922e+02
2.620000e-06	3.299373e-06	1.739411e-09	2.351794e+01	1.194430e+02
2.630000e-06	3.335405e-06	1.759457e-09	2.377478e+01	1.207524e+02
2.640000e-06	3.371326e-06	1.774447e-09	2.403082e+01	1.220215e+02
2.650000e-06	3.407080e-06	1.785882e-09	2.428567e+01	1.232513e+02
2.660000e-06	3.442741e-06	1.797427e-09	2.453987e+01	1.244427e+02
2.670000e-06	3.478308e-06	1.813755e-09	2.479339e+01	1.255968e+02
2.680000e-06	3.513571e-06	1.833392e-09	2.504474e+01	1.267145e+02
2.690000e-06	3.548464e-06	1.852455e-09	2.529346e+01	1.277968e+02
2.700000e-06	3.583037e-06	1.869635e-09	2.553989e+01	1.288443e+02
2.710000e-06	3.617122e-06	1.887701e-09	2.578285e+01	1.298581e+02
2.720000e-06	3.650721e-06	1.904537e-09	2.602234e+01	1.308389e+02
2.730000e-06	3.683943e-06	1.916365e-09	2.625915e+01	1.317874e+02
2.740000e-06	3.716827e-06	1.923802e-09	2.649355e+01	1.327043e+02
2.750000e-06	3.749345e-06	1.931768e-09	2.672534e+01	1.335906e+02
2.760000e-06	3.781521e-06	1.942721e-09	2.695469e+01	1.344467e+02
2.770000e-06	3.813495e-06	1.953957e-09	2.718260e+01	1.352734e+02
2.780000e-06	3.845317e-06	1.964912e-09	2.740943e+01	1.360715e+02
2.790000e-06	3.877039e-06	1.979279e-09	2.763554e+01	1.368416e+02
2.800000e-06	3.908563e-06	1.995973e-09	2.786024e+01	1.375845e+02
2.810000e-06	3.939821e-06	2.009530e-09	2.808305e+01	1.383008e+02
2.820000e-06	3.970939e-06	2.016766e-09	2.830486e+01	1.389914e+02
2.830000e-06	4.001770e-06	2.019193e-09	2.852462e+01	1.396569e+02
2.840000e-06	4.032111e-06	2.022228e-09	2.874089e+01	1.402982e+02
2.850000e-06	4.062168e-06	2.030898e-09	2.895514e+01	1.409161e+02
2.860000e-06	4.092030e-06	2.043536e-09	2.916800e+01	1.415114e+02
2.870000e-06	4.121606e-06	2.056239e-09	2.937882e+01	1.420850e+02
2.880000e-06	4.150970e-06	2.065986e-09	2.958812e+01	1.426376e+02
2.890000e-06	4.180052e-06	2.072890e-09	2.979542e+01	1.431702e+02
2.900000e-06	4.208789e-06	2.077083e-09	3.000026e+01	1.436836e+02
