# Temperatura_=_-1.02
# Concentracion g/m^3_=_4090.0
# C_Vs_to_Am_M_A/Vsm_=_65563218390.804596
# pendiente_HvsI_1/m_=_3716.3
# ordenada_HvsI_A/m_=_1297.0
# frecuencia_Hz_=_135060.73124749717

Tiempo_(s)	Campo_(V.s)	Magnetizacion_(V.s)	Campo_(kA/m)	Magnetizacion_(A/m)
0.000000e+00	-5.406700e-06	-2.614205e-09	-3.839761e+01	-1.701027e+02
1.000000e-08	-5.406760e-06	-2.614520e-09	-3.839803e+01	-1.700049e+02
2.000000e-08	-5.406647e-06	-2.610341e-09	-3.839724e+01	-1.699088e+02
3.000000e-08	-5.406290e-06	-2.604494e-09	-3.839470e+01	-1.698162e+02
4.000000e-08	-5.405510e-06	-2.601223e-09	-3.838916e+01	-1.697288e+02
5.000000e-08	-5.404222e-06	-2.601584e-09	-3.838001e+01	-1.696483e+02
6.000000e-08	-5.402341e-06	-2.601708e-09	-3.836666e+01	-1.695764e+02
7.000000e-08	-5.399785e-06	-2.613095e-09	-3.834850e+01	-1.695145e+02
8.000000e-08	-5.396702e-06	-2.617232e-09	-3.832661e+01	-1.694639e+02
9.000000e-08	-5.393117e-06	-2.596592e-09	-3.830114e+01	-1.694257e+02
1.000000e-07	-5.389047e-06	-2.589212e-09	-3.827224e+01	-1.694007e+02
1.100000e-07	-5.384834e-06	-2.639674e-09	-3.824232e+01	-1.693896e+02
1.200000e-07	-5.380491e-06	-2.621368e-09	-3.821148e+01	-1.693926e+02
1.300000e-07	-5.375688e-06	-2.590820e-09	-3.817737e+01	-1.694099e+02
1.400000e-07	-5.370401e-06	-2.567952e-09	-3.813982e+01	-1.694413e+02
1.500000e-07	-5.364860e-06	-2.628851e-09	-3.810047e+01	-1.694862e+02
1.600000e-07	-5.359021e-06	-2.629377e-09	-3.805900e+01	-1.695439e+02
1.700000e-07	-5.352691e-06	-2.578916e-09	-3.801405e+01	-1.696134e+02
1.800000e-07	-5.345870e-06	-2.600562e-09	-3.796560e+01	-1.696933e+02
1.900000e-07	-5.338820e-06	-2.647053e-09	-3.791554e+01	-1.697822e+02
2.000000e-07	-5.331585e-06	-2.646474e-09	-3.786416e+01	-1.698783e+02
2.100000e-07	-5.323950e-06	-2.605614e-09	-3.780993e+01	-1.699798e+02
2.200000e-07	-5.316001e-06	-2.664022e-09	-3.775348e+01	-1.700846e+02
2.300000e-07	-5.307889e-06	-2.701103e-09	-3.769587e+01	-1.701906e+02
2.400000e-07	-5.299385e-06	-2.680791e-09	-3.763548e+01	-1.702954e+02
2.500000e-07	-5.290194e-06	-2.649601e-09	-3.757020e+01	-1.703970e+02
2.600000e-07	-5.280352e-06	-2.708553e-09	-3.750031e+01	-1.704930e+02
2.700000e-07	-5.269981e-06	-2.707328e-09	-3.742665e+01	-1.705813e+02
2.800000e-07	-5.259191e-06	-2.653672e-09	-3.735003e+01	-1.706596e+02
2.900000e-07	-5.247969e-06	-2.657556e-09	-3.727033e+01	-1.707261e+02
3.000000e-07	-5.236313e-06	-2.716174e-09	-3.718755e+01	-1.707788e+02
3.100000e-07	-5.224204e-06	-2.685671e-09	-3.710155e+01	-1.708161e+02
3.200000e-07	-5.211681e-06	-2.654547e-09	-3.701262e+01	-1.708366e+02
3.300000e-07	-5.198884e-06	-2.676622e-09	-3.692173e+01	-1.708388e+02
3.400000e-07	-5.185711e-06	-2.681695e-09	-3.682818e+01	-1.708220e+02
3.500000e-07	-5.172087e-06	-2.646737e-09	-3.673142e+01	-1.707853e+02
3.600000e-07	-5.158111e-06	-2.667288e-09	-3.663217e+01	-1.707283e+02
3.700000e-07	-5.143681e-06	-2.678950e-09	-3.652969e+01	-1.706508e+02
3.800000e-07	-5.128746e-06	-2.638335e-09	-3.642362e+01	-1.705528e+02
3.900000e-07	-5.113248e-06	-2.636264e-09	-3.631356e+01	-1.704347e+02
4.000000e-07	-5.097168e-06	-2.666396e-09	-3.619936e+01	-1.702970e+02
4.100000e-07	-5.080626e-06	-2.640678e-09	-3.608188e+01	-1.701405e+02
4.200000e-07	-5.063705e-06	-2.603679e-09	-3.596171e+01	-1.699663e+02
4.300000e-07	-5.046517e-06	-2.638966e-09	-3.583965e+01	-1.697755e+02
4.400000e-07	-5.029079e-06	-2.651740e-09	-3.571580e+01	-1.695694e+02
4.500000e-07	-5.011345e-06	-2.629595e-09	-3.558986e+01	-1.693496e+02
4.600000e-07	-4.993299e-06	-2.619340e-09	-3.546170e+01	-1.691176e+02
4.700000e-07	-4.974930e-06	-2.631933e-09	-3.533124e+01	-1.688750e+02
4.800000e-07	-4.956081e-06	-2.620098e-09	-3.519738e+01	-1.686236e+02
4.900000e-07	-4.936827e-06	-2.618318e-09	-3.506064e+01	-1.683649e+02
5.000000e-07	-4.917290e-06	-2.604636e-09	-3.492189e+01	-1.681006e+02
5.100000e-07	-4.897437e-06	-2.598510e-09	-3.478090e+01	-1.678323e+02
5.200000e-07	-4.877349e-06	-2.607524e-09	-3.463824e+01	-1.675614e+02
5.300000e-07	-4.857045e-06	-2.621196e-09	-3.449404e+01	-1.672894e+02
5.400000e-07	-4.836451e-06	-2.600107e-09	-3.434778e+01	-1.670174e+02
5.500000e-07	-4.815556e-06	-2.589784e-09	-3.419939e+01	-1.667466e+02
5.600000e-07	-4.794290e-06	-2.586407e-09	-3.404837e+01	-1.664780e+02
5.700000e-07	-4.772666e-06	-2.579326e-09	-3.389480e+01	-1.662122e+02
5.800000e-07	-4.750728e-06	-2.567214e-09	-3.373899e+01	-1.659498e+02
5.900000e-07	-4.728440e-06	-2.565157e-09	-3.358071e+01	-1.656913e+02
6.000000e-07	-4.705845e-06	-2.560321e-09	-3.342024e+01	-1.654369e+02
6.100000e-07	-4.682916e-06	-2.567568e-09	-3.325740e+01	-1.651866e+02
6.200000e-07	-4.659706e-06	-2.565160e-09	-3.309257e+01	-1.649404e+02
6.300000e-07	-4.636258e-06	-2.543368e-09	-3.292604e+01	-1.646979e+02
6.400000e-07	-4.612516e-06	-2.531598e-09	-3.275743e+01	-1.644588e+02
6.500000e-07	-4.588510e-06	-2.537723e-09	-3.258695e+01	-1.642226e+02
6.600000e-07	-4.564219e-06	-2.536564e-09	-3.241443e+01	-1.639886e+02
6.700000e-07	-4.539607e-06	-2.534423e-09	-3.223964e+01	-1.637561e+02
6.800000e-07	-4.514609e-06	-2.540882e-09	-3.206211e+01	-1.635245e+02
6.900000e-07	-4.489189e-06	-2.540207e-09	-3.188158e+01	-1.632929e+02
7.000000e-07	-4.463222e-06	-2.532091e-09	-3.169717e+01	-1.630605e+02
7.100000e-07	-4.436688e-06	-2.515360e-09	-3.150872e+01	-1.628266e+02
7.200000e-07	-4.409810e-06	-2.498563e-09	-3.131784e+01	-1.625903e+02
7.300000e-07	-4.382611e-06	-2.492602e-09	-3.112468e+01	-1.623508e+02
7.400000e-07	-4.355084e-06	-2.504893e-09	-3.092918e+01	-1.621077e+02
7.500000e-07	-4.327241e-06	-2.511185e-09	-3.073145e+01	-1.618601e+02
7.600000e-07	-4.299198e-06	-2.513176e-09	-3.053229e+01	-1.616076e+02
7.700000e-07	-4.270981e-06	-2.510862e-09	-3.033190e+01	-1.613497e+02
7.800000e-07	-4.242469e-06	-2.502868e-09	-3.012941e+01	-1.610861e+02
7.900000e-07	-4.213689e-06	-2.481556e-09	-2.992502e+01	-1.608166e+02
8.000000e-07	-4.184628e-06	-2.462763e-09	-2.971863e+01	-1.605409e+02
8.100000e-07	-4.155276e-06	-2.448358e-09	-2.951017e+01	-1.602590e+02
8.200000e-07	-4.125637e-06	-2.453342e-09	-2.929968e+01	-1.599709e+02
8.300000e-07	-4.095712e-06	-2.465810e-09	-2.908716e+01	-1.596768e+02
8.400000e-07	-4.065548e-06	-2.474602e-09	-2.887295e+01	-1.593768e+02
8.500000e-07	-4.035085e-06	-2.471203e-09	-2.865660e+01	-1.590711e+02
8.600000e-07	-4.004342e-06	-2.462426e-09	-2.843827e+01	-1.587601e+02
8.700000e-07	-3.973322e-06	-2.445420e-09	-2.821796e+01	-1.584440e+02
8.800000e-07	-3.942011e-06	-2.423652e-09	-2.799560e+01	-1.581234e+02
8.900000e-07	-3.910468e-06	-2.405408e-09	-2.777158e+01	-1.577985e+02
9.000000e-07	-3.878724e-06	-2.403652e-09	-2.754614e+01	-1.574697e+02
9.100000e-07	-3.846778e-06	-2.412312e-09	-2.731927e+01	-1.571374e+02
9.200000e-07	-3.814684e-06	-2.420848e-09	-2.709134e+01	-1.568019e+02
9.300000e-07	-3.782419e-06	-2.418902e-09	-2.686220e+01	-1.564637e+02
9.400000e-07	-3.749891e-06	-2.411135e-09	-2.663119e+01	-1.561228e+02
9.500000e-07	-3.717062e-06	-2.399633e-09	-2.639804e+01	-1.557797e+02
9.600000e-07	-3.683849e-06	-2.385444e-09	-2.616217e+01	-1.554345e+02
9.700000e-07	-3.650254e-06	-2.372532e-09	-2.592359e+01	-1.550872e+02
9.800000e-07	-3.616286e-06	-2.361899e-09	-2.568235e+01	-1.547380e+02
9.900000e-07	-3.581892e-06	-2.354167e-09	-2.543808e+01	-1.543869e+02
1.000000e-06	-3.547084e-06	-2.350542e-09	-2.519089e+01	-1.540338e+02
1.010000e-06	-3.511902e-06	-2.349260e-09	-2.494102e+01	-1.536785e+02
1.020000e-06	-3.476443e-06	-2.343850e-09	-2.468921e+01	-1.533210e+02
1.030000e-06	-3.440757e-06	-2.334911e-09	-2.443577e+01	-1.529610e+02
1.040000e-06	-3.404903e-06	-2.326103e-09	-2.418114e+01	-1.525981e+02
1.050000e-06	-3.368912e-06	-2.320372e-09	-2.392553e+01	-1.522322e+02
1.060000e-06	-3.332719e-06	-2.311768e-09	-2.366850e+01	-1.518629e+02
1.070000e-06	-3.296378e-06	-2.303624e-09	-2.341041e+01	-1.514899e+02
1.080000e-06	-3.259891e-06	-2.293409e-09	-2.315128e+01	-1.511127e+02
1.090000e-06	-3.223183e-06	-2.285879e-09	-2.289059e+01	-1.507310e+02
1.100000e-06	-3.186196e-06	-2.278938e-09	-2.262791e+01	-1.503445e+02
1.110000e-06	-3.148935e-06	-2.273121e-09	-2.236329e+01	-1.499527e+02
1.120000e-06	-3.111542e-06	-2.265650e-09	-2.209773e+01	-1.495553e+02
1.130000e-06	-3.073956e-06	-2.261357e-09	-2.183080e+01	-1.491519e+02
1.140000e-06	-3.036071e-06	-2.258186e-09	-2.156174e+01	-1.487423e+02
1.150000e-06	-2.998016e-06	-2.252125e-09	-2.129148e+01	-1.483262e+02
1.160000e-06	-2.959767e-06	-2.239837e-09	-2.101984e+01	-1.479033e+02
1.170000e-06	-2.921295e-06	-2.228557e-09	-2.074662e+01	-1.474733e+02
1.180000e-06	-2.882634e-06	-2.217858e-09	-2.047205e+01	-1.470360e+02
1.190000e-06	-2.843771e-06	-2.209104e-09	-2.019606e+01	-1.465913e+02
1.200000e-06	-2.804711e-06	-2.200912e-09	-1.991866e+01	-1.461390e+02
1.210000e-06	-2.765518e-06	-2.194755e-09	-1.964032e+01	-1.456790e+02
1.220000e-06	-2.726150e-06	-2.189951e-09	-1.936073e+01	-1.452110e+02
1.230000e-06	-2.686516e-06	-2.186499e-09	-1.907925e+01	-1.447351e+02
1.240000e-06	-2.646640e-06	-2.177935e-09	-1.879606e+01	-1.442511e+02
1.250000e-06	-2.606638e-06	-2.166486e-09	-1.851197e+01	-1.437589e+02
1.260000e-06	-2.566617e-06	-2.156790e-09	-1.822775e+01	-1.432584e+02
1.270000e-06	-2.526588e-06	-2.146178e-09	-1.794347e+01	-1.427495e+02
1.280000e-06	-2.486427e-06	-2.134841e-09	-1.765825e+01	-1.422322e+02
1.290000e-06	-2.446052e-06	-2.123918e-09	-1.737151e+01	-1.417062e+02
1.300000e-06	-2.405576e-06	-2.115609e-09	-1.708406e+01	-1.411714e+02
1.310000e-06	-2.364930e-06	-2.107305e-09	-1.679540e+01	-1.406277e+02
1.320000e-06	-2.324068e-06	-2.099804e-09	-1.650520e+01	-1.400750e+02
1.330000e-06	-2.282960e-06	-2.093778e-09	-1.621325e+01	-1.395129e+02
1.340000e-06	-2.241607e-06	-2.089421e-09	-1.591957e+01	-1.389413e+02
1.350000e-06	-2.200049e-06	-2.082174e-09	-1.562444e+01	-1.383600e+02
1.360000e-06	-2.158153e-06	-2.071003e-09	-1.532689e+01	-1.377687e+02
1.370000e-06	-2.115896e-06	-2.056063e-09	-1.502679e+01	-1.371672e+02
1.380000e-06	-2.073341e-06	-2.042112e-09	-1.472457e+01	-1.365551e+02
1.390000e-06	-2.030536e-06	-2.029792e-09	-1.442058e+01	-1.359321e+02
1.400000e-06	-1.987591e-06	-2.019416e-09	-1.411559e+01	-1.352981e+02
1.410000e-06	-1.944475e-06	-2.010889e-09	-1.380939e+01	-1.346525e+02
1.420000e-06	-1.901088e-06	-2.004245e-09	-1.350125e+01	-1.339952e+02
1.430000e-06	-1.857523e-06	-1.995679e-09	-1.319187e+01	-1.333258e+02
1.440000e-06	-1.813841e-06	-1.983721e-09	-1.288164e+01	-1.326440e+02
1.450000e-06	-1.770046e-06	-1.968969e-09	-1.257061e+01	-1.319494e+02
1.460000e-06	-1.726161e-06	-1.954854e-09	-1.225895e+01	-1.312418e+02
1.470000e-06	-1.682222e-06	-1.939149e-09	-1.194690e+01	-1.305208e+02
1.480000e-06	-1.638243e-06	-1.923286e-09	-1.163457e+01	-1.297862e+02
1.490000e-06	-1.594178e-06	-1.910491e-09	-1.132163e+01	-1.290376e+02
1.500000e-06	-1.550009e-06	-1.901320e-09	-1.100794e+01	-1.282746e+02
1.510000e-06	-1.505807e-06	-1.892554e-09	-1.069403e+01	-1.274971e+02
1.520000e-06	-1.461575e-06	-1.879426e-09	-1.037990e+01	-1.267046e+02
1.530000e-06	-1.417251e-06	-1.864947e-09	-1.006511e+01	-1.258969e+02
1.540000e-06	-1.372855e-06	-1.853053e-09	-9.749822e+00	-1.250735e+02
1.550000e-06	-1.328414e-06	-1.839049e-09	-9.434207e+00	-1.242341e+02
1.560000e-06	-1.283922e-06	-1.822340e-09	-9.118228e+00	-1.233783e+02
1.570000e-06	-1.239337e-06	-1.806059e-09	-8.801594e+00	-1.225056e+02
1.580000e-06	-1.194707e-06	-1.793302e-09	-8.484641e+00	-1.216156e+02
1.590000e-06	-1.150044e-06	-1.784426e-09	-8.167449e+00	-1.207078e+02
1.600000e-06	-1.105305e-06	-1.772911e-09	-7.849720e+00	-1.197814e+02
1.610000e-06	-1.060410e-06	-1.753851e-09	-7.530881e+00	-1.188361e+02
1.620000e-06	-1.015309e-06	-1.733417e-09	-7.210579e+00	-1.178709e+02
1.630000e-06	-9.701170e-07	-1.719109e-09	-6.889632e+00	-1.168852e+02
1.640000e-06	-9.248972e-07	-1.707026e-09	-6.568488e+00	-1.158781e+02
1.650000e-06	-8.796087e-07	-1.691645e-09	-6.246855e+00	-1.148488e+02
1.660000e-06	-8.342628e-07	-1.673095e-09	-5.924815e+00	-1.137962e+02
1.670000e-06	-7.888619e-07	-1.658484e-09	-5.602384e+00	-1.127194e+02
1.680000e-06	-7.434213e-07	-1.643410e-09	-5.279672e+00	-1.116173e+02
1.690000e-06	-6.980095e-07	-1.621296e-09	-4.957164e+00	-1.104888e+02
1.700000e-06	-6.525886e-07	-1.593432e-09	-4.634591e+00	-1.093325e+02
1.710000e-06	-6.071101e-07	-1.570229e-09	-4.311610e+00	-1.081474e+02
1.720000e-06	-5.615306e-07	-1.556299e-09	-3.987911e+00	-1.069320e+02
1.730000e-06	-5.158567e-07	-1.543259e-09	-3.663541e+00	-1.056852e+02
1.740000e-06	-4.701560e-07	-1.526491e-09	-3.338981e+00	-1.044055e+02
1.750000e-06	-4.244806e-07	-1.509205e-09	-3.014600e+00	-1.030916e+02
1.760000e-06	-3.787907e-07	-1.492561e-09	-2.690117e+00	-1.017422e+02
1.770000e-06	-3.330053e-07	-1.471152e-09	-2.364956e+00	-1.003559e+02
1.780000e-06	-2.871726e-07	-1.440481e-09	-2.039459e+00	-9.893138e+01
1.790000e-06	-2.413310e-07	-1.407621e-09	-1.713898e+00	-9.746733e+01
1.800000e-06	-1.954790e-07	-1.381349e-09	-1.388264e+00	-9.596249e+01
1.810000e-06	-1.496420e-07	-1.361316e-09	-1.062736e+00	-9.441564e+01
1.820000e-06	-1.038310e-07	-1.342679e-09	-7.373931e-01	-9.282559e+01
1.830000e-06	-5.802472e-08	-1.322906e-09	-4.120833e-01	-9.119124e+01
1.840000e-06	-1.217666e-08	-1.302186e-09	-8.647687e-02	-8.951152e+01
1.850000e-06	3.364622e-08	-1.279919e-09	2.389507e-01	-8.778544e+01
1.860000e-06	7.945287e-08	-1.252050e-09	5.642630e-01	-8.601209e+01
1.870000e-06	1.253079e-07	-1.215732e-09	8.899191e-01	-8.419061e+01
1.880000e-06	1.711630e-07	-1.177855e-09	1.215575e+00	-8.232024e+01
1.890000e-06	2.170340e-07	-1.146176e-09	1.541345e+00	-8.040026e+01
1.900000e-06	2.629411e-07	-1.119534e-09	1.867370e+00	-7.843004e+01
1.910000e-06	3.088203e-07	-1.093301e-09	2.193198e+00	-7.640902e+01
1.920000e-06	3.546490e-07	-1.068116e-09	2.518667e+00	-7.433670e+01
1.930000e-06	4.005235e-07	-1.043572e-09	2.844461e+00	-7.221265e+01
1.940000e-06	4.463941e-07	-1.015276e-09	3.170227e+00	-7.003649e+01
1.950000e-06	4.920987e-07	-9.796134e-10	3.494815e+00	-6.780791e+01
1.960000e-06	5.376366e-07	-9.390621e-10	3.818219e+00	-6.552665e+01
1.970000e-06	5.831738e-07	-8.996835e-10	4.141617e+00	-6.319251e+01
1.980000e-06	6.287425e-07	-8.627605e-10	4.465239e+00	-6.080533e+01
1.990000e-06	6.741994e-07	-8.263132e-10	4.788068e+00	-5.836503e+01
2.000000e-06	7.195770e-07	-7.930762e-10	5.110333e+00	-5.587156e+01
2.010000e-06	7.649567e-07	-7.645187e-10	5.432614e+00	-5.332494e+01
2.020000e-06	8.102597e-07	-7.348734e-10	5.754349e+00	-5.072526e+01
2.030000e-06	8.555580e-07	-6.985451e-10	6.076051e+00	-4.807267e+01
2.040000e-06	9.008589e-07	-6.567132e-10	6.397772e+00	-4.536740e+01
2.050000e-06	9.460217e-07	-6.137371e-10	6.718511e+00	-4.260976e+01
2.060000e-06	9.910667e-07	-5.706793e-10	7.038414e+00	-3.980016e+01
2.070000e-06	1.036060e-06	-5.256697e-10	7.357951e+00	-3.693914e+01
2.080000e-06	1.080996e-06	-4.804629e-10	7.677078e+00	-3.402732e+01
2.090000e-06	1.125733e-06	-4.352973e-10	7.994792e+00	-3.106550e+01
2.100000e-06	1.170327e-06	-3.906350e-10	8.311494e+00	-2.805461e+01
2.110000e-06	1.214927e-06	-3.473323e-10	8.628239e+00	-2.499574e+01
2.120000e-06	1.259480e-06	-3.054456e-10	8.944646e+00	-2.189017e+01
2.130000e-06	1.303884e-06	-2.639278e-10	9.259995e+00	-1.873937e+01
2.140000e-06	1.348208e-06	-2.199474e-10	9.574779e+00	-1.554503e+01
2.150000e-06	1.392500e-06	-1.719930e-10	9.889339e+00	-1.230904e+01
2.160000e-06	1.436734e-06	-1.181881e-10	1.020348e+01	-9.033536e+00
2.170000e-06	1.480928e-06	-6.028415e-11	1.051734e+01	-5.720878e+00
2.180000e-06	1.525059e-06	-4.092030e-12	1.083075e+01	-2.373678e+00
2.190000e-06	1.569160e-06	4.558801e-11	1.114395e+01	1.005211e+00
2.200000e-06	1.613247e-06	8.997433e-11	1.145705e+01	4.412689e+00
2.210000e-06	1.657294e-06	1.335241e-10	1.176986e+01	7.845418e+00
2.220000e-06	1.701316e-06	1.783446e-10	1.208250e+01	1.129983e+01
2.230000e-06	1.745277e-06	2.262896e-10	1.239471e+01	1.477213e+01
2.240000e-06	1.789070e-06	2.795236e-10	1.270572e+01	1.825831e+01
2.250000e-06	1.832769e-06	3.370856e-10	1.301606e+01	2.175421e+01
2.260000e-06	1.876371e-06	3.968857e-10	1.332572e+01	2.525546e+01
2.270000e-06	1.919811e-06	4.544939e-10	1.363422e+01	2.875758e+01
2.280000e-06	1.963033e-06	5.080514e-10	1.394118e+01	3.225597e+01
2.290000e-06	2.006033e-06	5.594758e-10	1.424656e+01	3.574596e+01
2.300000e-06	2.048858e-06	6.101202e-10	1.455070e+01	3.922282e+01
2.310000e-06	2.091373e-06	6.575096e-10	1.485263e+01	4.268181e+01
2.320000e-06	2.133454e-06	7.034955e-10	1.515149e+01	4.611825e+01
2.330000e-06	2.175262e-06	7.516171e-10	1.544840e+01	4.952749e+01
2.340000e-06	2.216894e-06	8.008267e-10	1.574407e+01	5.290499e+01
2.350000e-06	2.258266e-06	8.505717e-10	1.603788e+01	5.624636e+01
2.360000e-06	2.299349e-06	9.023319e-10	1.632965e+01	5.954737e+01
2.370000e-06	2.340218e-06	9.552651e-10	1.661989e+01	6.280402e+01
2.380000e-06	2.380920e-06	1.005573e-09	1.690896e+01	6.601254e+01
2.390000e-06	2.421444e-06	1.051472e-09	1.719675e+01	6.916943e+01
2.400000e-06	2.461825e-06	1.092586e-09	1.748353e+01	7.227148e+01
2.410000e-06	2.502097e-06	1.130720e-09	1.776954e+01	7.531581e+01
2.420000e-06	2.542280e-06	1.168227e-09	1.805491e+01	7.829988e+01
2.430000e-06	2.582313e-06	1.205976e-09	1.833922e+01	8.122147e+01
2.440000e-06	2.622259e-06	1.245274e-09	1.862291e+01	8.407874e+01
2.450000e-06	2.662143e-06	1.289114e-09	1.890616e+01	8.687021e+01
2.460000e-06	2.701893e-06	1.336702e-09	1.918846e+01	8.959475e+01
2.470000e-06	2.741483e-06	1.382892e-09	1.946962e+01	9.225157e+01
2.480000e-06	2.780824e-06	1.422364e-09	1.974901e+01	9.484023e+01
2.490000e-06	2.819872e-06	1.455489e-09	2.002633e+01	9.736064e+01
2.500000e-06	2.858670e-06	1.484431e-09	2.030187e+01	9.981296e+01
2.510000e-06	2.897226e-06	1.510737e-09	2.057568e+01	1.021977e+02
2.520000e-06	2.935587e-06	1.537994e-09	2.084812e+01	1.045155e+02
2.530000e-06	2.973827e-06	1.569427e-09	2.111970e+01	1.067675e+02
2.540000e-06	3.011932e-06	1.605214e-09	2.139031e+01	1.089546e+02
2.550000e-06	3.049883e-06	1.643637e-09	2.165984e+01	1.110784e+02
2.560000e-06	3.087564e-06	1.680797e-09	2.192744e+01	1.131401e+02
2.570000e-06	3.125004e-06	1.710736e-09	2.219333e+01	1.151413e+02
2.580000e-06	3.162312e-06	1.734106e-09	2.245829e+01	1.170838e+02
2.590000e-06	3.199397e-06	1.756231e-09	2.272166e+01	1.189690e+02
2.600000e-06	3.236147e-06	1.779632e-09	2.298266e+01	1.207987e+02
2.610000e-06	3.272597e-06	1.804849e-09	2.324152e+01	1.225745e+02
2.620000e-06	3.308917e-06	1.830898e-09	2.349946e+01	1.242979e+02
2.630000e-06	3.345154e-06	1.856947e-09	2.375680e+01	1.259706e+02
2.640000e-06	3.381267e-06	1.882336e-09	2.401327e+01	1.275939e+02
2.650000e-06	3.417257e-06	1.904899e-09	2.426887e+01	1.291693e+02
2.660000e-06	3.453071e-06	1.923934e-09	2.452322e+01	1.306978e+02
2.670000e-06	3.488655e-06	1.941660e-09	2.477593e+01	1.321807e+02
2.680000e-06	3.524010e-06	1.960874e-09	2.502701e+01	1.336191e+02
2.690000e-06	3.559103e-06	1.980005e-09	2.527624e+01	1.350137e+02
2.700000e-06	3.593686e-06	1.998498e-09	2.552184e+01	1.363654e+02
2.710000e-06	3.627759e-06	2.018347e-09	2.576383e+01	1.376749e+02
2.720000e-06	3.661473e-06	2.039155e-09	2.600326e+01	1.389428e+02
2.730000e-06	3.694771e-06	2.058283e-09	2.623974e+01	1.401698e+02
2.740000e-06	3.727676e-06	2.074826e-09	2.647342e+01	1.413562e+02
2.750000e-06	3.760277e-06	2.092666e-09	2.670495e+01	1.425026e+02
2.760000e-06	3.792699e-06	2.112187e-09	2.693520e+01	1.436093e+02
2.770000e-06	3.824951e-06	2.130229e-09	2.716426e+01	1.446770e+02
2.780000e-06	3.857009e-06	2.145249e-09	2.739193e+01	1.457060e+02
2.790000e-06	3.888890e-06	2.159072e-09	2.761834e+01	1.466968e+02
2.800000e-06	3.920606e-06	2.172456e-09	2.784359e+01	1.476500e+02
2.810000e-06	3.952056e-06	2.184515e-09	2.806694e+01	1.485662e+02
2.820000e-06	3.983090e-06	2.195781e-09	2.828734e+01	1.494461e+02
2.830000e-06	4.013794e-06	2.206795e-09	2.850539e+01	1.502906e+02
2.840000e-06	4.044274e-06	2.220271e-09	2.872186e+01	1.511005e+02
2.850000e-06	4.074541e-06	2.235124e-09	2.893681e+01	1.518767e+02
2.860000e-06	4.104597e-06	2.248186e-09	2.915026e+01	1.526205e+02
2.870000e-06	4.134468e-06	2.258877e-09	2.936240e+01	1.533328e+02
2.880000e-06	4.164047e-06	2.266216e-09	2.957247e+01	1.540152e+02
2.890000e-06	4.193189e-06	2.270347e-09	2.977943e+01	1.546687e+02
2.900000e-06	4.222023e-06	2.274020e-09	2.998420e+01	1.552950e+02
