# Temperatura_=_18.99
# Concentracion g/m^3_=_4090.0
# C_Vs_to_Am_M_A/Vsm_=_65563218390.804596
# pendiente_HvsI_1/m_=_3716.3
# ordenada_HvsI_A/m_=_1297.0
# frecuencia_Hz_=_135078.87426862898

Tiempo_(s)	Campo_(V.s)	Magnetizacion_(V.s)	Campo_(kA/m)	Magnetizacion_(A/m)
0.000000e+00	-5.409892e-06	-2.374444e-09	-3.839239e+01	-1.542079e+02
1.000000e-08	-5.409877e-06	-2.371549e-09	-3.839228e+01	-1.540638e+02
2.000000e-08	-5.409700e-06	-2.365529e-09	-3.839102e+01	-1.539148e+02
3.000000e-08	-5.409197e-06	-2.360013e-09	-3.838746e+01	-1.537622e+02
4.000000e-08	-5.408278e-06	-2.356721e-09	-3.838093e+01	-1.536073e+02
5.000000e-08	-5.406835e-06	-2.358127e-09	-3.837069e+01	-1.534513e+02
6.000000e-08	-5.404747e-06	-2.366305e-09	-3.835587e+01	-1.532955e+02
7.000000e-08	-5.402114e-06	-2.369234e-09	-3.833719e+01	-1.531414e+02
8.000000e-08	-5.398905e-06	-2.335053e-09	-3.831442e+01	-1.529902e+02
9.000000e-08	-5.395120e-06	-2.338147e-09	-3.828755e+01	-1.528430e+02
1.000000e-07	-5.390980e-06	-2.435304e-09	-3.825818e+01	-1.527011e+02
1.100000e-07	-5.386699e-06	-2.430144e-09	-3.822779e+01	-1.525654e+02
1.200000e-07	-5.382271e-06	-2.297196e-09	-3.819637e+01	-1.524369e+02
1.300000e-07	-5.377502e-06	-2.285693e-09	-3.816253e+01	-1.523164e+02
1.400000e-07	-5.372239e-06	-2.398903e-09	-3.812517e+01	-1.522043e+02
1.500000e-07	-5.366550e-06	-2.441428e-09	-3.808480e+01	-1.521012e+02
1.600000e-07	-5.360578e-06	-2.236388e-09	-3.804242e+01	-1.520072e+02
1.700000e-07	-5.354181e-06	-2.240812e-09	-3.799702e+01	-1.519224e+02
1.800000e-07	-5.347313e-06	-2.405833e-09	-3.794828e+01	-1.518466e+02
1.900000e-07	-5.340195e-06	-2.424873e-09	-3.789777e+01	-1.517794e+02
2.000000e-07	-5.332858e-06	-2.260715e-09	-3.784570e+01	-1.517203e+02
2.100000e-07	-5.325215e-06	-2.268218e-09	-3.779146e+01	-1.516685e+02
2.200000e-07	-5.317257e-06	-2.396325e-09	-3.773499e+01	-1.516230e+02
2.300000e-07	-5.309040e-06	-2.325595e-09	-3.767667e+01	-1.515829e+02
2.400000e-07	-5.300408e-06	-2.232536e-09	-3.761541e+01	-1.515469e+02
2.500000e-07	-5.291154e-06	-2.309391e-09	-3.754974e+01	-1.515137e+02
2.600000e-07	-5.281206e-06	-2.404236e-09	-3.747914e+01	-1.514818e+02
2.700000e-07	-5.270652e-06	-2.301005e-09	-3.740425e+01	-1.514497e+02
2.800000e-07	-5.259663e-06	-2.300223e-09	-3.732626e+01	-1.514161e+02
2.900000e-07	-5.248286e-06	-2.403705e-09	-3.724552e+01	-1.513792e+02
3.000000e-07	-5.236472e-06	-2.374758e-09	-3.716168e+01	-1.513376e+02
3.100000e-07	-5.224173e-06	-2.243233e-09	-3.707439e+01	-1.512898e+02
3.200000e-07	-5.211521e-06	-2.323168e-09	-3.698461e+01	-1.512344e+02
3.300000e-07	-5.198540e-06	-2.392916e-09	-3.689249e+01	-1.511701e+02
3.400000e-07	-5.185150e-06	-2.316049e-09	-3.679746e+01	-1.510956e+02
3.500000e-07	-5.171376e-06	-2.289376e-09	-3.669971e+01	-1.510100e+02
3.600000e-07	-5.157351e-06	-2.385347e-09	-3.660018e+01	-1.509123e+02
3.700000e-07	-5.143005e-06	-2.338567e-09	-3.649837e+01	-1.508018e+02
3.800000e-07	-5.127959e-06	-2.273634e-09	-3.639159e+01	-1.506779e+02
3.900000e-07	-5.112220e-06	-2.319078e-09	-3.627990e+01	-1.505403e+02
4.000000e-07	-5.095911e-06	-2.330318e-09	-3.616416e+01	-1.503887e+02
4.100000e-07	-5.079179e-06	-2.254900e-09	-3.604541e+01	-1.502232e+02
4.200000e-07	-5.062204e-06	-2.292326e-09	-3.592495e+01	-1.500439e+02
4.300000e-07	-5.044885e-06	-2.340572e-09	-3.580204e+01	-1.498513e+02
4.400000e-07	-5.027339e-06	-2.284020e-09	-3.567752e+01	-1.496458e+02
4.500000e-07	-5.009614e-06	-2.262486e-09	-3.555173e+01	-1.494281e+02
4.600000e-07	-4.991492e-06	-2.307012e-09	-3.542313e+01	-1.491991e+02
4.700000e-07	-4.972860e-06	-2.292043e-09	-3.529090e+01	-1.489597e+02
4.800000e-07	-4.953823e-06	-2.251482e-09	-3.515580e+01	-1.487108e+02
4.900000e-07	-4.934536e-06	-2.268139e-09	-3.501893e+01	-1.484537e+02
5.000000e-07	-4.914994e-06	-2.265186e-09	-3.488024e+01	-1.481893e+02
5.100000e-07	-4.895170e-06	-2.258615e-09	-3.473956e+01	-1.479189e+02
5.200000e-07	-4.875095e-06	-2.262139e-09	-3.459709e+01	-1.476436e+02
5.300000e-07	-4.854780e-06	-2.255052e-09	-3.445292e+01	-1.473646e+02
5.400000e-07	-4.834100e-06	-2.232558e-09	-3.430616e+01	-1.470829e+02
5.500000e-07	-4.812998e-06	-2.250934e-09	-3.415640e+01	-1.467995e+02
5.600000e-07	-4.791576e-06	-2.243523e-09	-3.400438e+01	-1.465155e+02
5.700000e-07	-4.769928e-06	-2.225633e-09	-3.385075e+01	-1.462315e+02
5.800000e-07	-4.748027e-06	-2.217656e-09	-3.369533e+01	-1.459483e+02
5.900000e-07	-4.725824e-06	-2.222171e-09	-3.353776e+01	-1.456665e+02
6.000000e-07	-4.703174e-06	-2.210120e-09	-3.337702e+01	-1.453866e+02
6.100000e-07	-4.680087e-06	-2.211371e-09	-3.321318e+01	-1.451088e+02
6.200000e-07	-4.656759e-06	-2.195480e-09	-3.304763e+01	-1.448334e+02
6.300000e-07	-4.633240e-06	-2.192813e-09	-3.288072e+01	-1.445604e+02
6.400000e-07	-4.609473e-06	-2.202634e-09	-3.271205e+01	-1.442896e+02
6.500000e-07	-4.585425e-06	-2.201738e-09	-3.254139e+01	-1.440210e+02
6.600000e-07	-4.561124e-06	-2.178485e-09	-3.236893e+01	-1.437541e+02
6.700000e-07	-4.536515e-06	-2.182066e-09	-3.219429e+01	-1.434886e+02
6.800000e-07	-4.511435e-06	-2.185684e-09	-3.201631e+01	-1.432239e+02
6.900000e-07	-4.485869e-06	-2.178457e-09	-3.183487e+01	-1.429595e+02
7.000000e-07	-4.459853e-06	-2.167830e-09	-3.165024e+01	-1.426948e+02
7.100000e-07	-4.433357e-06	-2.163218e-09	-3.146221e+01	-1.424290e+02
7.200000e-07	-4.406404e-06	-2.158444e-09	-3.127093e+01	-1.421616e+02
7.300000e-07	-4.378951e-06	-2.158511e-09	-3.107610e+01	-1.418918e+02
7.400000e-07	-4.351225e-06	-2.151077e-09	-3.087934e+01	-1.416190e+02
7.500000e-07	-4.323350e-06	-2.140526e-09	-3.068152e+01	-1.413425e+02
7.600000e-07	-4.295243e-06	-2.143118e-09	-3.048205e+01	-1.410618e+02
7.700000e-07	-4.266943e-06	-2.140368e-09	-3.028122e+01	-1.407764e+02
7.800000e-07	-4.238363e-06	-2.127090e-09	-3.007840e+01	-1.404859e+02
7.900000e-07	-4.209481e-06	-2.113490e-09	-2.987343e+01	-1.401898e+02
8.000000e-07	-4.180316e-06	-2.111080e-09	-2.966645e+01	-1.398879e+02
8.100000e-07	-4.150862e-06	-2.105991e-09	-2.945742e+01	-1.395800e+02
8.200000e-07	-4.121111e-06	-2.105542e-09	-2.924629e+01	-1.392660e+02
8.300000e-07	-4.091027e-06	-2.099006e-09	-2.903280e+01	-1.389460e+02
8.400000e-07	-4.060735e-06	-2.095976e-09	-2.881782e+01	-1.386200e+02
8.500000e-07	-4.030268e-06	-2.091399e-09	-2.860160e+01	-1.382881e+02
8.600000e-07	-3.999495e-06	-2.083790e-09	-2.838322e+01	-1.379507e+02
8.700000e-07	-3.968433e-06	-2.068349e-09	-2.816278e+01	-1.376080e+02
8.800000e-07	-3.937201e-06	-2.060186e-09	-2.794114e+01	-1.372604e+02
8.900000e-07	-3.905763e-06	-2.056481e-09	-2.771803e+01	-1.369083e+02
9.000000e-07	-3.874049e-06	-2.057533e-09	-2.749297e+01	-1.365522e+02
9.100000e-07	-3.842124e-06	-2.048454e-09	-2.726641e+01	-1.361925e+02
9.200000e-07	-3.810017e-06	-2.041387e-09	-2.703855e+01	-1.358296e+02
9.300000e-07	-3.777714e-06	-2.033997e-09	-2.680931e+01	-1.354640e+02
9.400000e-07	-3.745192e-06	-2.028538e-09	-2.657851e+01	-1.350961e+02
9.500000e-07	-3.712339e-06	-2.017459e-09	-2.634536e+01	-1.347264e+02
9.600000e-07	-3.679124e-06	-2.008377e-09	-2.610964e+01	-1.343551e+02
9.700000e-07	-3.645510e-06	-2.001874e-09	-2.587110e+01	-1.339826e+02
9.800000e-07	-3.611393e-06	-1.998019e-09	-2.562898e+01	-1.336091e+02
9.900000e-07	-3.576903e-06	-1.987969e-09	-2.538421e+01	-1.332347e+02
1.000000e-06	-3.542066e-06	-1.979535e-09	-2.513698e+01	-1.328596e+02
1.010000e-06	-3.506898e-06	-1.974242e-09	-2.488741e+01	-1.324837e+02
1.020000e-06	-3.471406e-06	-1.967874e-09	-2.463553e+01	-1.321069e+02
1.030000e-06	-3.435646e-06	-1.958709e-09	-2.438175e+01	-1.317292e+02
1.040000e-06	-3.399765e-06	-1.952058e-09	-2.412711e+01	-1.313503e+02
1.050000e-06	-3.363776e-06	-1.946875e-09	-2.387172e+01	-1.309700e+02
1.060000e-06	-3.327644e-06	-1.940175e-09	-2.361529e+01	-1.305878e+02
1.070000e-06	-3.291289e-06	-1.932990e-09	-2.335729e+01	-1.302033e+02
1.080000e-06	-3.254710e-06	-1.924658e-09	-2.309770e+01	-1.298162e+02
1.090000e-06	-3.217838e-06	-1.916827e-09	-2.283603e+01	-1.294259e+02
1.100000e-06	-3.180761e-06	-1.909482e-09	-2.257291e+01	-1.290319e+02
1.110000e-06	-3.143419e-06	-1.903975e-09	-2.230791e+01	-1.286336e+02
1.120000e-06	-3.105827e-06	-1.895677e-09	-2.204112e+01	-1.282306e+02
1.130000e-06	-3.068114e-06	-1.887657e-09	-2.177349e+01	-1.278221e+02
1.140000e-06	-3.030163e-06	-1.879590e-09	-2.150416e+01	-1.274078e+02
1.150000e-06	-2.991957e-06	-1.871954e-09	-2.123302e+01	-1.269870e+02
1.160000e-06	-2.953575e-06	-1.862220e-09	-2.096064e+01	-1.265592e+02
1.170000e-06	-2.915065e-06	-1.855965e-09	-2.068735e+01	-1.261240e+02
1.180000e-06	-2.876342e-06	-1.847684e-09	-2.041254e+01	-1.256809e+02
1.190000e-06	-2.837395e-06	-1.841439e-09	-2.013615e+01	-1.252295e+02
1.200000e-06	-2.798247e-06	-1.833579e-09	-1.985832e+01	-1.247694e+02
1.210000e-06	-2.758899e-06	-1.827225e-09	-1.957908e+01	-1.243003e+02
1.220000e-06	-2.719349e-06	-1.820151e-09	-1.929841e+01	-1.238219e+02
1.230000e-06	-2.679547e-06	-1.811718e-09	-1.901595e+01	-1.233340e+02
1.240000e-06	-2.639620e-06	-1.799634e-09	-1.873260e+01	-1.228364e+02
1.250000e-06	-2.599633e-06	-1.791546e-09	-1.844882e+01	-1.223288e+02
1.260000e-06	-2.559596e-06	-1.783434e-09	-1.816469e+01	-1.218113e+02
1.270000e-06	-2.519528e-06	-1.774780e-09	-1.788034e+01	-1.212836e+02
1.280000e-06	-2.479299e-06	-1.766015e-09	-1.759484e+01	-1.207456e+02
1.290000e-06	-2.438911e-06	-1.759827e-09	-1.730822e+01	-1.201974e+02
1.300000e-06	-2.398360e-06	-1.751221e-09	-1.702044e+01	-1.196387e+02
1.310000e-06	-2.357619e-06	-1.739626e-09	-1.673132e+01	-1.190697e+02
1.320000e-06	-2.316716e-06	-1.728157e-09	-1.644104e+01	-1.184901e+02
1.330000e-06	-2.275597e-06	-1.718984e-09	-1.614923e+01	-1.178999e+02
1.340000e-06	-2.234202e-06	-1.710747e-09	-1.585546e+01	-1.172991e+02
1.350000e-06	-2.192413e-06	-1.698588e-09	-1.555890e+01	-1.166875e+02
1.360000e-06	-2.150240e-06	-1.686834e-09	-1.525961e+01	-1.160650e+02
1.370000e-06	-2.107785e-06	-1.677988e-09	-1.495832e+01	-1.154314e+02
1.380000e-06	-2.065067e-06	-1.669647e-09	-1.465516e+01	-1.147866e+02
1.390000e-06	-2.022185e-06	-1.658948e-09	-1.435084e+01	-1.141303e+02
1.400000e-06	-1.979112e-06	-1.647896e-09	-1.404517e+01	-1.134623e+02
1.410000e-06	-1.935909e-06	-1.637060e-09	-1.373857e+01	-1.127824e+02
1.420000e-06	-1.892545e-06	-1.626178e-09	-1.343082e+01	-1.120901e+02
1.430000e-06	-1.848977e-06	-1.611682e-09	-1.312164e+01	-1.113853e+02
1.440000e-06	-1.805352e-06	-1.595463e-09	-1.281205e+01	-1.106675e+02
1.450000e-06	-1.761592e-06	-1.584584e-09	-1.250149e+01	-1.099364e+02
1.460000e-06	-1.717698e-06	-1.581765e-09	-1.218999e+01	-1.091916e+02
1.470000e-06	-1.673761e-06	-1.573768e-09	-1.187818e+01	-1.084326e+02
1.480000e-06	-1.629794e-06	-1.558281e-09	-1.156616e+01	-1.076590e+02
1.490000e-06	-1.585771e-06	-1.543000e-09	-1.125374e+01	-1.068703e+02
1.500000e-06	-1.541676e-06	-1.531423e-09	-1.094082e+01	-1.060661e+02
1.510000e-06	-1.497480e-06	-1.516643e-09	-1.062717e+01	-1.052459e+02
1.520000e-06	-1.453206e-06	-1.495765e-09	-1.031297e+01	-1.044092e+02
1.530000e-06	-1.408853e-06	-1.478473e-09	-9.998212e+00	-1.035554e+02
1.540000e-06	-1.364365e-06	-1.470662e-09	-9.682488e+00	-1.026840e+02
1.550000e-06	-1.319833e-06	-1.462475e-09	-9.366463e+00	-1.017945e+02
1.560000e-06	-1.275363e-06	-1.449082e-09	-9.050873e+00	-1.008862e+02
1.570000e-06	-1.230845e-06	-1.432070e-09	-8.734938e+00	-9.995864e+01
1.580000e-06	-1.186220e-06	-1.418042e-09	-8.418250e+00	-9.901106e+01
1.590000e-06	-1.141511e-06	-1.405958e-09	-8.100964e+00	-9.804283e+01
1.600000e-06	-1.096708e-06	-1.389418e-09	-7.783005e+00	-9.705322e+01
1.610000e-06	-1.051837e-06	-1.368048e-09	-7.464576e+00	-9.604146e+01
1.620000e-06	-1.006800e-06	-1.350998e-09	-7.144960e+00	-9.500676e+01
1.630000e-06	-9.616411e-07	-1.337285e-09	-6.824480e+00	-9.394823e+01
1.640000e-06	-9.164487e-07	-1.319468e-09	-6.503763e+00	-9.286494e+01
1.650000e-06	-8.711966e-07	-1.298804e-09	-6.182622e+00	-9.175591e+01
1.660000e-06	-8.258785e-07	-1.283348e-09	-5.861013e+00	-9.062008e+01
1.670000e-06	-7.803784e-07	-1.272875e-09	-5.538112e+00	-8.945631e+01
1.680000e-06	-7.347775e-07	-1.255722e-09	-5.214496e+00	-8.826341e+01
1.690000e-06	-6.891711e-07	-1.229695e-09	-4.890841e+00	-8.704011e+01
1.700000e-06	-6.435639e-07	-1.203651e-09	-4.567181e+00	-8.578510e+01
1.710000e-06	-5.979202e-07	-1.183293e-09	-4.243261e+00	-8.449698e+01
1.720000e-06	-5.522059e-07	-1.164984e-09	-3.918840e+00	-8.317431e+01
1.730000e-06	-5.064618e-07	-1.144367e-09	-3.594208e+00	-8.181561e+01
1.740000e-06	-4.606782e-07	-1.125323e-09	-3.269296e+00	-8.041934e+01
1.750000e-06	-4.148721e-07	-1.112200e-09	-2.944223e+00	-7.898396e+01
1.760000e-06	-3.690378e-07	-1.098524e-09	-2.618951e+00	-7.750790e+01
1.770000e-06	-3.231549e-07	-1.073309e-09	-2.293334e+00	-7.598961e+01
1.780000e-06	-2.772341e-07	-1.039241e-09	-1.967448e+00	-7.442755e+01
1.790000e-06	-2.312866e-07	-1.010541e-09	-1.641372e+00	-7.282020e+01
1.800000e-06	-1.853496e-07	-9.857427e-10	-1.315371e+00	-7.116611e+01
1.810000e-06	-1.394548e-07	-9.593713e-10	-9.896691e-01	-6.946390e+01
1.820000e-06	-9.360756e-08	-9.313837e-10	-6.643049e-01	-6.771227e+01
1.830000e-06	-4.782328e-08	-9.089181e-10	-3.393875e-01	-6.591003e+01
1.840000e-06	-2.011887e-09	-8.868768e-10	-1.427776e-02	-6.405614e+01
1.850000e-06	4.385612e-08	-8.589352e-10	3.112338e-01	-6.214965e+01
1.860000e-06	8.972224e-08	-8.254974e-10	6.367319e-01	-6.018983e+01
1.870000e-06	1.356080e-07	-7.916912e-10	9.623691e-01	-5.817607e+01
1.880000e-06	1.815282e-07	-7.599100e-10	1.288252e+00	-5.610799e+01
1.890000e-06	2.274232e-07	-7.252670e-10	1.613954e+00	-5.398538e+01
1.900000e-06	2.733305e-07	-6.873140e-10	1.939745e+00	-5.180825e+01
1.910000e-06	3.192615e-07	-6.523393e-10	2.265703e+00	-4.957683e+01
1.920000e-06	3.651790e-07	-6.237906e-10	2.591566e+00	-4.729157e+01
1.930000e-06	4.110527e-07	-5.966099e-10	2.917118e+00	-4.495311e+01
1.940000e-06	4.567973e-07	-5.630615e-10	3.241754e+00	-4.256236e+01
1.950000e-06	5.025030e-07	-5.268332e-10	3.566114e+00	-4.012042e+01
1.960000e-06	5.481999e-07	-4.923914e-10	3.890411e+00	-3.762860e+01
1.970000e-06	5.938178e-07	-4.542934e-10	4.214148e+00	-3.508843e+01
1.980000e-06	6.393800e-07	-4.103037e-10	4.537488e+00	-3.250162e+01
1.990000e-06	6.848694e-07	-3.663902e-10	4.860313e+00	-2.987007e+01
2.000000e-06	7.303018e-07	-3.276175e-10	5.182734e+00	-2.719585e+01
2.010000e-06	7.757113e-07	-2.913571e-10	5.504991e+00	-2.448118e+01
2.020000e-06	8.210651e-07	-2.538279e-10	5.826854e+00	-2.172841e+01
2.030000e-06	8.663126e-07	-2.154151e-10	6.147962e+00	-1.894001e+01
2.040000e-06	9.114973e-07	-1.784349e-10	6.468624e+00	-1.611857e+01
2.050000e-06	9.566806e-07	-1.403513e-10	6.789276e+00	-1.326674e+01
2.060000e-06	1.001778e-06	-9.714974e-11	7.109322e+00	-1.038724e+01
2.070000e-06	1.046775e-06	-4.924050e-11	7.428650e+00	-7.482830e+00
2.080000e-06	1.091692e-06	-3.534358e-12	7.747409e+00	-4.556313e+00
2.090000e-06	1.136525e-06	3.957130e-11	8.065580e+00	-1.610495e+00
2.100000e-06	1.181286e-06	8.165098e-11	8.383232e+00	1.351819e+00
2.110000e-06	1.225972e-06	1.244063e-10	8.700360e+00	4.327839e+00
2.120000e-06	1.270570e-06	1.641963e-10	9.016853e+00	7.314801e+00
2.130000e-06	1.315091e-06	2.024244e-10	9.332809e+00	1.030998e+01
2.140000e-06	1.359485e-06	2.449364e-10	9.647861e+00	1.331069e+01
2.150000e-06	1.403763e-06	2.929132e-10	9.962089e+00	1.631431e+01
2.160000e-06	1.448039e-06	3.406555e-10	1.027630e+01	1.931825e+01
2.170000e-06	1.492257e-06	3.855733e-10	1.059010e+01	2.232002e+01
2.180000e-06	1.536384e-06	4.303045e-10	1.090326e+01	2.531715e+01
2.190000e-06	1.580442e-06	4.742966e-10	1.121592e+01	2.830724e+01
2.200000e-06	1.624523e-06	5.150861e-10	1.152875e+01	3.128796e+01
2.210000e-06	1.668581e-06	5.537519e-10	1.184142e+01	3.425703e+01
2.220000e-06	1.712532e-06	5.950120e-10	1.215333e+01	3.721222e+01
2.230000e-06	1.756428e-06	6.408510e-10	1.246484e+01	4.015134e+01
2.240000e-06	1.800239e-06	6.861612e-10	1.277576e+01	4.307226e+01
2.250000e-06	1.843976e-06	7.256195e-10	1.308614e+01	4.597287e+01
2.260000e-06	1.887638e-06	7.643902e-10	1.339601e+01	4.885111e+01
2.270000e-06	1.931151e-06	8.061782e-10	1.370480e+01	5.170496e+01
2.280000e-06	1.974517e-06	8.478108e-10	1.401256e+01	5.453240e+01
2.290000e-06	2.017657e-06	8.876260e-10	1.431871e+01	5.733146e+01
2.300000e-06	2.060510e-06	9.290306e-10	1.462282e+01	6.010020e+01
2.310000e-06	2.103110e-06	9.713527e-10	1.492514e+01	6.283670e+01
2.320000e-06	2.145483e-06	1.011180e-09	1.522585e+01	6.553907e+01
2.330000e-06	2.187567e-06	1.045457e-09	1.552451e+01	6.820544e+01
2.340000e-06	2.229354e-06	1.076761e-09	1.582106e+01	7.083401e+01
2.350000e-06	2.270854e-06	1.109581e-09	1.611558e+01	7.342301e+01
2.360000e-06	2.312024e-06	1.146543e-09	1.640774e+01	7.597071e+01
2.370000e-06	2.352886e-06	1.185712e-09	1.669773e+01	7.847546e+01
2.380000e-06	2.393507e-06	1.226289e-09	1.698601e+01	8.093567e+01
2.390000e-06	2.434057e-06	1.267194e-09	1.727378e+01	8.334984e+01
2.400000e-06	2.474483e-06	1.303700e-09	1.756066e+01	8.571655e+01
2.410000e-06	2.514737e-06	1.332174e-09	1.784634e+01	8.803450e+01
2.420000e-06	2.554837e-06	1.356870e-09	1.813091e+01	9.030249e+01
2.430000e-06	2.594794e-06	1.385360e-09	1.841447e+01	9.251946e+01
2.440000e-06	2.634704e-06	1.415272e-09	1.869770e+01	9.468447e+01
2.450000e-06	2.674546e-06	1.442818e-09	1.898046e+01	9.679674e+01
2.460000e-06	2.714285e-06	1.473033e-09	1.926247e+01	9.885563e+01
2.470000e-06	2.753854e-06	1.508975e-09	1.954328e+01	1.008607e+02
2.480000e-06	2.793191e-06	1.542184e-09	1.982244e+01	1.028116e+02
2.490000e-06	2.832271e-06	1.566387e-09	2.009978e+01	1.047081e+02
2.500000e-06	2.871186e-06	1.586589e-09	2.037595e+01	1.065504e+02
2.510000e-06	2.909861e-06	1.609538e-09	2.065041e+01	1.083387e+02
2.520000e-06	2.948245e-06	1.636032e-09	2.092281e+01	1.100732e+02
2.530000e-06	2.986421e-06	1.661082e-09	2.119374e+01	1.117545e+02
2.540000e-06	3.024424e-06	1.683173e-09	2.146343e+01	1.133833e+02
2.550000e-06	3.062330e-06	1.710612e-09	2.173244e+01	1.149604e+02
2.560000e-06	3.100089e-06	1.738973e-09	2.200041e+01	1.164868e+02
2.570000e-06	3.137566e-06	1.759118e-09	2.226637e+01	1.179635e+02
2.580000e-06	3.174740e-06	1.773889e-09	2.253018e+01	1.193916e+02
2.590000e-06	3.211690e-06	1.789146e-09	2.279240e+01	1.207725e+02
2.600000e-06	3.248385e-06	1.808422e-09	2.305282e+01	1.221076e+02
2.610000e-06	3.284871e-06	1.829546e-09	2.331175e+01	1.233981e+02
2.620000e-06	3.321241e-06	1.848388e-09	2.356985e+01	1.246455e+02
2.630000e-06	3.357488e-06	1.865264e-09	2.382709e+01	1.258513e+02
2.640000e-06	3.393647e-06	1.883060e-09	2.408370e+01	1.270169e+02
2.650000e-06	3.429664e-06	1.898712e-09	2.433930e+01	1.281438e+02
2.660000e-06	3.465465e-06	1.912491e-09	2.459337e+01	1.292334e+02
2.670000e-06	3.501070e-06	1.925774e-09	2.484605e+01	1.302871e+02
2.680000e-06	3.536413e-06	1.940495e-09	2.509686e+01	1.313062e+02
2.690000e-06	3.571453e-06	1.954774e-09	2.534554e+01	1.322920e+02
2.700000e-06	3.606116e-06	1.965780e-09	2.559153e+01	1.332457e+02
2.710000e-06	3.640328e-06	1.977705e-09	2.583432e+01	1.341683e+02
2.720000e-06	3.674080e-06	1.992763e-09	2.607385e+01	1.350610e+02
2.730000e-06	3.707377e-06	2.008206e-09	2.631015e+01	1.359247e+02
2.740000e-06	3.740181e-06	2.020092e-09	2.654295e+01	1.367602e+02
2.750000e-06	3.772700e-06	2.030935e-09	2.677372e+01	1.375684e+02
2.760000e-06	3.805076e-06	2.042287e-09	2.700349e+01	1.383500e+02
2.770000e-06	3.837256e-06	2.052832e-09	2.723186e+01	1.391055e+02
2.780000e-06	3.869250e-06	2.059444e-09	2.745891e+01	1.398356e+02
2.790000e-06	3.901037e-06	2.065387e-09	2.768449e+01	1.405408e+02
2.800000e-06	3.932666e-06	2.075225e-09	2.790895e+01	1.412215e+02
2.810000e-06	3.964173e-06	2.089134e-09	2.813255e+01	1.418782e+02
2.820000e-06	3.995320e-06	2.098987e-09	2.835359e+01	1.425112e+02
2.830000e-06	4.026026e-06	2.104924e-09	2.857150e+01	1.431210e+02
2.840000e-06	4.056408e-06	2.113783e-09	2.878712e+01	1.437079e+02
2.850000e-06	4.086523e-06	2.127017e-09	2.900083e+01	1.442723e+02
2.860000e-06	4.116423e-06	2.137076e-09	2.921302e+01	1.448146e+02
2.870000e-06	4.146067e-06	2.139871e-09	2.942340e+01	1.453352e+02
2.880000e-06	4.175460e-06	2.141306e-09	2.963199e+01	1.458345e+02
2.890000e-06	4.204617e-06	2.147829e-09	2.983891e+01	1.463130e+02
2.900000e-06	4.233500e-06	2.157319e-09	3.004388e+01	1.467712e+02
