# Temperatura_=_-14.55
# Concentracion g/m^3_=_4090.0
# C_Vs_to_Am_M_A/Vsm_=_65563218390.804596
# pendiente_HvsI_1/m_=_3716.3
# ordenada_HvsI_A/m_=_1297.0
# frecuencia_Hz_=_135073.87075007058

Tiempo_(s)	Campo_(V.s)	Magnetizacion_(V.s)	Campo_(kA/m)	Magnetizacion_(A/m)
0.000000e+00	-5.423678e-06	-2.028208e-09	-3.839471e+01	-1.315341e+02
1.000000e-08	-5.423703e-06	-2.026262e-09	-3.839489e+01	-1.314989e+02
2.000000e-08	-5.423583e-06	-2.029299e-09	-3.839404e+01	-1.314632e+02
3.000000e-08	-5.423268e-06	-2.034454e-09	-3.839181e+01	-1.314282e+02
4.000000e-08	-5.422663e-06	-2.036957e-09	-3.838752e+01	-1.313950e+02
5.000000e-08	-5.421613e-06	-2.036000e-09	-3.838010e+01	-1.313645e+02
6.000000e-08	-5.419891e-06	-2.029907e-09	-3.836791e+01	-1.313376e+02
7.000000e-08	-5.417540e-06	-2.014448e-09	-3.835126e+01	-1.313150e+02
8.000000e-08	-5.414618e-06	-1.999318e-09	-3.833058e+01	-1.312973e+02
9.000000e-08	-5.411086e-06	-2.039533e-09	-3.830557e+01	-1.312849e+02
1.000000e-07	-5.406967e-06	-2.131341e-09	-3.827641e+01	-1.312780e+02
1.100000e-07	-5.402510e-06	-2.121150e-09	-3.824486e+01	-1.312766e+02
1.200000e-07	-5.398010e-06	-1.953637e-09	-3.821300e+01	-1.312806e+02
1.300000e-07	-5.393410e-06	-1.969093e-09	-3.818044e+01	-1.312897e+02
1.400000e-07	-5.388304e-06	-2.104451e-09	-3.814430e+01	-1.313033e+02
1.500000e-07	-5.382668e-06	-2.111959e-09	-3.810440e+01	-1.313207e+02
1.600000e-07	-5.376769e-06	-1.902395e-09	-3.806264e+01	-1.313411e+02
1.700000e-07	-5.370559e-06	-1.890888e-09	-3.801868e+01	-1.313635e+02
1.800000e-07	-5.363849e-06	-2.144728e-09	-3.797118e+01	-1.313866e+02
1.900000e-07	-5.356694e-06	-2.166885e-09	-3.792052e+01	-1.314093e+02
2.000000e-07	-5.349372e-06	-1.997947e-09	-3.786869e+01	-1.314302e+02
2.100000e-07	-5.341900e-06	-1.959601e-09	-3.781580e+01	-1.314478e+02
2.200000e-07	-5.334117e-06	-2.123552e-09	-3.776070e+01	-1.314607e+02
2.300000e-07	-5.326001e-06	-2.063895e-09	-3.770325e+01	-1.314674e+02
2.400000e-07	-5.317530e-06	-1.965450e-09	-3.764328e+01	-1.314664e+02
2.500000e-07	-5.308492e-06	-2.039282e-09	-3.757930e+01	-1.314563e+02
2.600000e-07	-5.298737e-06	-2.155196e-09	-3.751024e+01	-1.314357e+02
2.700000e-07	-5.288308e-06	-2.053448e-09	-3.743641e+01	-1.314033e+02
2.800000e-07	-5.277428e-06	-2.029856e-09	-3.735940e+01	-1.313580e+02
2.900000e-07	-5.266112e-06	-2.137904e-09	-3.727929e+01	-1.312986e+02
3.000000e-07	-5.254334e-06	-2.101972e-09	-3.719591e+01	-1.312242e+02
3.100000e-07	-5.242222e-06	-1.956746e-09	-3.711016e+01	-1.311342e+02
3.200000e-07	-5.229799e-06	-2.029351e-09	-3.702222e+01	-1.310279e+02
3.300000e-07	-5.217036e-06	-2.157953e-09	-3.693188e+01	-1.309048e+02
3.400000e-07	-5.203824e-06	-2.054463e-09	-3.683835e+01	-1.307649e+02
3.500000e-07	-5.190166e-06	-1.968134e-09	-3.674166e+01	-1.306081e+02
3.600000e-07	-5.176121e-06	-2.058672e-09	-3.664223e+01	-1.304345e+02
3.700000e-07	-5.161698e-06	-2.077854e-09	-3.654013e+01	-1.302445e+02
3.800000e-07	-5.146855e-06	-1.981449e-09	-3.643506e+01	-1.300386e+02
3.900000e-07	-5.131410e-06	-1.995099e-09	-3.632572e+01	-1.298174e+02
4.000000e-07	-5.115265e-06	-2.027477e-09	-3.621143e+01	-1.295818e+02
4.100000e-07	-5.098544e-06	-1.992439e-09	-3.609306e+01	-1.293328e+02
4.200000e-07	-5.081590e-06	-2.005895e-09	-3.597304e+01	-1.290712e+02
4.300000e-07	-5.064458e-06	-2.056549e-09	-3.585176e+01	-1.287984e+02
4.400000e-07	-5.047024e-06	-1.978935e-09	-3.572834e+01	-1.285155e+02
4.500000e-07	-5.029294e-06	-1.947475e-09	-3.560283e+01	-1.282236e+02
4.600000e-07	-5.011202e-06	-2.004859e-09	-3.547476e+01	-1.279241e+02
4.700000e-07	-4.992717e-06	-2.011009e-09	-3.534390e+01	-1.276183e+02
4.800000e-07	-4.973849e-06	-1.935681e-09	-3.521033e+01	-1.273072e+02
4.900000e-07	-4.954579e-06	-1.960769e-09	-3.507392e+01	-1.269920e+02
5.000000e-07	-4.934911e-06	-1.995292e-09	-3.493469e+01	-1.266739e+02
5.100000e-07	-4.915003e-06	-1.986239e-09	-3.479375e+01	-1.263539e+02
5.200000e-07	-4.894892e-06	-1.954775e-09	-3.465138e+01	-1.260327e+02
5.300000e-07	-4.874619e-06	-1.945715e-09	-3.450787e+01	-1.257113e+02
5.400000e-07	-4.854115e-06	-1.929376e-09	-3.436272e+01	-1.253902e+02
5.500000e-07	-4.833257e-06	-1.951205e-09	-3.421507e+01	-1.250699e+02
5.600000e-07	-4.812022e-06	-1.946501e-09	-3.406475e+01	-1.247509e+02
5.700000e-07	-4.790366e-06	-1.915096e-09	-3.391144e+01	-1.244333e+02
5.800000e-07	-4.768365e-06	-1.910781e-09	-3.375569e+01	-1.241172e+02
5.900000e-07	-4.746144e-06	-1.941348e-09	-3.359839e+01	-1.238026e+02
6.000000e-07	-4.723624e-06	-1.931285e-09	-3.343896e+01	-1.234892e+02
6.100000e-07	-4.700642e-06	-1.902781e-09	-3.327627e+01	-1.231769e+02
6.200000e-07	-4.677260e-06	-1.890295e-09	-3.311075e+01	-1.228651e+02
6.300000e-07	-4.653623e-06	-1.896155e-09	-3.294342e+01	-1.225534e+02
6.400000e-07	-4.629772e-06	-1.906816e-09	-3.277458e+01	-1.222411e+02
6.500000e-07	-4.605722e-06	-1.892594e-09	-3.260433e+01	-1.219277e+02
6.600000e-07	-4.581490e-06	-1.864014e-09	-3.243278e+01	-1.216125e+02
6.700000e-07	-4.556999e-06	-1.862855e-09	-3.225942e+01	-1.212946e+02
6.800000e-07	-4.532147e-06	-1.884830e-09	-3.208348e+01	-1.209735e+02
6.900000e-07	-4.506832e-06	-1.872387e-09	-3.190428e+01	-1.206482e+02
7.000000e-07	-4.481037e-06	-1.850733e-09	-3.172167e+01	-1.203182e+02
7.100000e-07	-4.454689e-06	-1.845277e-09	-3.153515e+01	-1.199827e+02
7.200000e-07	-4.427830e-06	-1.858808e-09	-3.134502e+01	-1.196412e+02
7.300000e-07	-4.400561e-06	-1.851309e-09	-3.115197e+01	-1.192929e+02
7.400000e-07	-4.372905e-06	-1.831479e-09	-3.095619e+01	-1.189375e+02
7.500000e-07	-4.345000e-06	-1.810338e-09	-3.075865e+01	-1.185744e+02
7.600000e-07	-4.316968e-06	-1.819449e-09	-3.056021e+01	-1.182034e+02
7.700000e-07	-4.288743e-06	-1.821565e-09	-3.036040e+01	-1.178242e+02
7.800000e-07	-4.260269e-06	-1.810538e-09	-3.015883e+01	-1.174365e+02
7.900000e-07	-4.231535e-06	-1.793169e-09	-2.995542e+01	-1.170403e+02
8.000000e-07	-4.202471e-06	-1.797196e-09	-2.974967e+01	-1.166356e+02
8.100000e-07	-4.173064e-06	-1.795462e-09	-2.954150e+01	-1.162225e+02
8.200000e-07	-4.143385e-06	-1.785682e-09	-2.933140e+01	-1.158010e+02
8.300000e-07	-4.113450e-06	-1.765951e-09	-2.911949e+01	-1.153714e+02
8.400000e-07	-4.083191e-06	-1.760035e-09	-2.890528e+01	-1.149340e+02
8.500000e-07	-4.052630e-06	-1.760574e-09	-2.868894e+01	-1.144890e+02
8.600000e-07	-4.021875e-06	-1.756495e-09	-2.847122e+01	-1.140367e+02
8.700000e-07	-3.990970e-06	-1.736124e-09	-2.825244e+01	-1.135777e+02
8.800000e-07	-3.959792e-06	-1.724471e-09	-2.803173e+01	-1.131121e+02
8.900000e-07	-3.928259e-06	-1.726883e-09	-2.780850e+01	-1.126404e+02
9.000000e-07	-3.896473e-06	-1.728385e-09	-2.758349e+01	-1.121630e+02
9.100000e-07	-3.864582e-06	-1.713440e-09	-2.735773e+01	-1.116802e+02
9.200000e-07	-3.832527e-06	-1.698566e-09	-2.713081e+01	-1.111923e+02
9.300000e-07	-3.800237e-06	-1.697583e-09	-2.690223e+01	-1.106997e+02
9.400000e-07	-3.767749e-06	-1.695362e-09	-2.667224e+01	-1.102025e+02
9.500000e-07	-3.734983e-06	-1.680191e-09	-2.644029e+01	-1.097010e+02
9.600000e-07	-3.701870e-06	-1.662508e-09	-2.620587e+01	-1.091954e+02
9.700000e-07	-3.668258e-06	-1.661179e-09	-2.596793e+01	-1.086858e+02
9.800000e-07	-3.634067e-06	-1.662684e-09	-2.572590e+01	-1.081721e+02
9.900000e-07	-3.599459e-06	-1.653096e-09	-2.548090e+01	-1.076546e+02
1.000000e-06	-3.564503e-06	-1.631816e-09	-2.523345e+01	-1.071330e+02
1.010000e-06	-3.529231e-06	-1.620211e-09	-2.498375e+01	-1.066074e+02
1.020000e-06	-3.493740e-06	-1.614982e-09	-2.473251e+01	-1.060777e+02
1.030000e-06	-3.457986e-06	-1.605579e-09	-2.447940e+01	-1.055437e+02
1.040000e-06	-3.421988e-06	-1.589090e-09	-2.422456e+01	-1.050052e+02
1.050000e-06	-3.385901e-06	-1.583050e-09	-2.396911e+01	-1.044620e+02
1.060000e-06	-3.349714e-06	-1.583178e-09	-2.371293e+01	-1.039140e+02
1.070000e-06	-3.313396e-06	-1.582060e-09	-2.345583e+01	-1.033610e+02
1.080000e-06	-3.276888e-06	-1.566057e-09	-2.319739e+01	-1.028027e+02
1.090000e-06	-3.240179e-06	-1.547297e-09	-2.293752e+01	-1.022389e+02
1.100000e-06	-3.203244e-06	-1.531501e-09	-2.267605e+01	-1.016695e+02
1.110000e-06	-3.165943e-06	-1.522936e-09	-2.241200e+01	-1.010942e+02
1.120000e-06	-3.128351e-06	-1.509064e-09	-2.214588e+01	-1.005129e+02
1.130000e-06	-3.090631e-06	-1.498148e-09	-2.187886e+01	-9.992546e+01
1.140000e-06	-3.052784e-06	-1.495970e-09	-2.161094e+01	-9.933178e+01
1.150000e-06	-3.014647e-06	-1.498814e-09	-2.134096e+01	-9.873175e+01
1.160000e-06	-2.976296e-06	-1.489606e-09	-2.106947e+01	-9.812531e+01
1.170000e-06	-2.937818e-06	-1.470935e-09	-2.079708e+01	-9.751240e+01
1.180000e-06	-2.899134e-06	-1.454355e-09	-2.052323e+01	-9.689300e+01
1.190000e-06	-2.860214e-06	-1.446354e-09	-2.024771e+01	-9.626710e+01
1.200000e-06	-2.821036e-06	-1.436697e-09	-1.997037e+01	-9.563469e+01
1.210000e-06	-2.781620e-06	-1.422286e-09	-1.969134e+01	-9.499579e+01
1.220000e-06	-2.742024e-06	-1.412437e-09	-1.941104e+01	-9.435041e+01
1.230000e-06	-2.702368e-06	-1.410583e-09	-1.913031e+01	-9.369855e+01
1.240000e-06	-2.662614e-06	-1.406826e-09	-1.884889e+01	-9.304023e+01
1.250000e-06	-2.622685e-06	-1.395049e-09	-1.856622e+01	-9.237542e+01
1.260000e-06	-2.582634e-06	-1.381707e-09	-1.828270e+01	-9.170409e+01
1.270000e-06	-2.542512e-06	-1.371320e-09	-1.799868e+01	-9.102620e+01
1.280000e-06	-2.502295e-06	-1.364010e-09	-1.771397e+01	-9.034166e+01
1.290000e-06	-2.461910e-06	-1.352823e-09	-1.742809e+01	-8.965037e+01
1.300000e-06	-2.421359e-06	-1.339408e-09	-1.714102e+01	-8.895218e+01
1.310000e-06	-2.380607e-06	-1.325633e-09	-1.685254e+01	-8.824693e+01
1.320000e-06	-2.339522e-06	-1.315609e-09	-1.656169e+01	-8.753440e+01
1.330000e-06	-2.298162e-06	-1.305999e-09	-1.626890e+01	-8.681437e+01
1.340000e-06	-2.256608e-06	-1.295745e-09	-1.597473e+01	-8.608655e+01
1.350000e-06	-2.214737e-06	-1.283009e-09	-1.567832e+01	-8.535066e+01
1.360000e-06	-2.172530e-06	-1.270871e-09	-1.537954e+01	-8.460638e+01
1.370000e-06	-2.130052e-06	-1.258577e-09	-1.507883e+01	-8.385337e+01
1.380000e-06	-2.087275e-06	-1.246334e-09	-1.477601e+01	-8.309128e+01
1.390000e-06	-2.044350e-06	-1.231849e-09	-1.447214e+01	-8.231975e+01
1.400000e-06	-2.001313e-06	-1.219613e-09	-1.416748e+01	-8.153844e+01
1.410000e-06	-1.957946e-06	-1.209303e-09	-1.386048e+01	-8.074698e+01
1.420000e-06	-1.914344e-06	-1.199908e-09	-1.355182e+01	-7.994505e+01
1.430000e-06	-1.870645e-06	-1.186269e-09	-1.324246e+01	-7.913233e+01
1.440000e-06	-1.826895e-06	-1.169508e-09	-1.293276e+01	-7.830854e+01
1.450000e-06	-1.783091e-06	-1.154007e-09	-1.262266e+01	-7.747343e+01
1.460000e-06	-1.739162e-06	-1.142056e-09	-1.231169e+01	-7.662679e+01
1.470000e-06	-1.695175e-06	-1.129003e-09	-1.200030e+01	-7.576844e+01
1.480000e-06	-1.651156e-06	-1.115070e-09	-1.168869e+01	-7.489829e+01
1.490000e-06	-1.607057e-06	-1.102365e-09	-1.137650e+01	-7.401625e+01
1.500000e-06	-1.562877e-06	-1.090527e-09	-1.106375e+01	-7.312232e+01
1.510000e-06	-1.518621e-06	-1.075717e-09	-1.075045e+01	-7.221654e+01
1.520000e-06	-1.474266e-06	-1.059390e-09	-1.043647e+01	-7.129900e+01
1.530000e-06	-1.429868e-06	-1.044256e-09	-1.012217e+01	-7.036985e+01
1.540000e-06	-1.385386e-06	-1.030759e-09	-9.807275e+00	-6.942927e+01
1.550000e-06	-1.340846e-06	-1.016443e-09	-9.491968e+00	-6.847749e+01
1.560000e-06	-1.296254e-06	-1.001602e-09	-9.176298e+00	-6.751480e+01
1.570000e-06	-1.251537e-06	-9.897098e-10	-8.859746e+00	-6.654147e+01
1.580000e-06	-1.206710e-06	-9.788536e-10	-8.542410e+00	-6.555784e+01
1.590000e-06	-1.161820e-06	-9.679809e-10	-8.224632e+00	-6.456423e+01
1.600000e-06	-1.116840e-06	-9.520426e-10	-7.906213e+00	-6.356100e+01
1.610000e-06	-1.071649e-06	-9.308446e-10	-7.586303e+00	-6.254847e+01
1.620000e-06	-1.026329e-06	-9.082689e-10	-7.265474e+00	-6.152697e+01
1.630000e-06	-9.809586e-07	-8.888527e-10	-6.944295e+00	-6.049681e+01
1.640000e-06	-9.355361e-07	-8.721933e-10	-6.622745e+00	-5.945827e+01
1.650000e-06	-8.901059e-07	-8.597527e-10	-6.301141e+00	-5.841158e+01
1.660000e-06	-8.446470e-07	-8.510844e-10	-5.979333e+00	-5.735694e+01
1.670000e-06	-7.991491e-07	-8.440999e-10	-5.657249e+00	-5.629451e+01
1.680000e-06	-7.536165e-07	-8.310777e-10	-5.334920e+00	-5.522438e+01
1.690000e-06	-7.080847e-07	-8.099382e-10	-5.012596e+00	-5.414660e+01
1.700000e-06	-6.624767e-07	-7.835479e-10	-4.689733e+00	-5.306114e+01
1.710000e-06	-6.167725e-07	-7.602167e-10	-4.366189e+00	-5.196792e+01
1.720000e-06	-5.710242e-07	-7.424319e-10	-4.042332e+00	-5.086681e+01
1.730000e-06	-5.251997e-07	-7.267951e-10	-3.717936e+00	-4.975762e+01
1.740000e-06	-4.793576e-07	-7.142693e-10	-3.393416e+00	-4.864010e+01
1.750000e-06	-4.334789e-07	-7.062151e-10	-3.068637e+00	-4.751395e+01
1.760000e-06	-3.875317e-07	-6.976630e-10	-2.743372e+00	-4.637883e+01
1.770000e-06	-3.416101e-07	-6.800332e-10	-2.418289e+00	-4.523436e+01
1.780000e-06	-2.957278e-07	-6.524366e-10	-2.093484e+00	-4.408014e+01
1.790000e-06	-2.497570e-07	-6.228033e-10	-1.768053e+00	-4.291575e+01
1.800000e-06	-2.036515e-07	-5.984760e-10	-1.441668e+00	-4.174074e+01
1.810000e-06	-1.575983e-07	-5.818065e-10	-1.115653e+00	-4.055467e+01
1.820000e-06	-1.116456e-07	-5.702124e-10	-7.903492e-01	-3.935712e+01
1.830000e-06	-6.568142e-08	-5.588017e-10	-4.649647e-01	-3.814764e+01
1.840000e-06	-1.970809e-08	-5.464051e-10	-1.395153e-01	-3.692586e+01
1.850000e-06	2.626836e-08	-5.295887e-10	1.859561e-01	-3.569141e+01
1.860000e-06	7.220344e-08	-5.064479e-10	5.111347e-01	-3.444396e+01
1.870000e-06	1.181095e-07	-4.796384e-10	8.361082e-01	-3.318323e+01
1.880000e-06	1.640271e-07	-4.539084e-10	1.161163e+00	-3.190900e+01
1.890000e-06	2.100099e-07	-4.345618e-10	1.486680e+00	-3.062110e+01
1.900000e-06	2.560687e-07	-4.190167e-10	1.812734e+00	-2.931940e+01
1.910000e-06	3.021484e-07	-4.014380e-10	2.138936e+00	-2.800387e+01
1.920000e-06	3.480760e-07	-3.833489e-10	2.464062e+00	-2.667451e+01
1.930000e-06	3.939618e-07	-3.676567e-10	2.788892e+00	-2.533140e+01
1.940000e-06	4.398753e-07	-3.524116e-10	3.113917e+00	-2.397466e+01
1.950000e-06	4.857032e-07	-3.312197e-10	3.438337e+00	-2.260449e+01
1.960000e-06	5.314675e-07	-3.045246e-10	3.762307e+00	-2.122112e+01
1.970000e-06	5.771796e-07	-2.779025e-10	4.085907e+00	-1.982485e+01
1.980000e-06	6.228616e-07	-2.555550e-10	4.409294e+00	-1.841600e+01
1.990000e-06	6.685111e-07	-2.350677e-10	4.732451e+00	-1.699495e+01
2.000000e-06	7.141460e-07	-2.145808e-10	5.055505e+00	-1.556208e+01
2.010000e-06	7.597031e-07	-1.948771e-10	5.378007e+00	-1.411782e+01
2.020000e-06	8.051500e-07	-1.788842e-10	5.699730e+00	-1.266261e+01
2.030000e-06	8.505674e-07	-1.625977e-10	6.021244e+00	-1.119688e+01
2.040000e-06	8.959628e-07	-1.402871e-10	6.342602e+00	-9.721084e+00
2.050000e-06	9.412954e-07	-1.145259e-10	6.663516e+00	-8.235663e+00
2.060000e-06	9.866260e-07	-9.055661e-11	6.984416e+00	-6.741049e+00
2.070000e-06	1.031825e-06	-6.874668e-11	7.304386e+00	-5.237663e+00
2.080000e-06	1.076836e-06	-4.560403e-11	7.623020e+00	-3.725907e+00
2.090000e-06	1.121794e-06	-2.096077e-11	7.941282e+00	-2.206166e+00
2.100000e-06	1.166648e-06	1.142501e-12	8.258805e+00	-6.787999e-01
2.110000e-06	1.211390e-06	2.050520e-11	8.575544e+00	8.558510e-01
2.120000e-06	1.256129e-06	4.097028e-11	8.892251e+00	2.397469e+00
2.130000e-06	1.300807e-06	6.391348e-11	9.208533e+00	3.945756e+00
2.140000e-06	1.345341e-06	8.808064e-11	9.523795e+00	5.500433e+00
2.150000e-06	1.389775e-06	1.134696e-10	9.838345e+00	7.061233e+00
2.160000e-06	1.434152e-06	1.386573e-10	1.015249e+01	8.627903e+00
2.170000e-06	1.478465e-06	1.655000e-10	1.046619e+01	1.020019e+01
2.180000e-06	1.522680e-06	1.924222e-10	1.077919e+01	1.177785e+01
2.190000e-06	1.566821e-06	2.151510e-10	1.109167e+01	1.336063e+01
2.200000e-06	1.610958e-06	2.339669e-10	1.140412e+01	1.494826e+01
2.210000e-06	1.655055e-06	2.518460e-10	1.171629e+01	1.654045e+01
2.220000e-06	1.699073e-06	2.733196e-10	1.202789e+01	1.813692e+01
2.230000e-06	1.743044e-06	2.959469e-10	1.233917e+01	1.973732e+01
2.240000e-06	1.786956e-06	3.206292e-10	1.265002e+01	2.134128e+01
2.250000e-06	1.830802e-06	3.474969e-10	1.296041e+01	2.294842e+01
2.260000e-06	1.874542e-06	3.770741e-10	1.327005e+01	2.455829e+01
2.270000e-06	1.918190e-06	4.055034e-10	1.357905e+01	2.617040e+01
2.280000e-06	1.961834e-06	4.287167e-10	1.388800e+01	2.778422e+01
2.290000e-06	2.005196e-06	4.470881e-10	1.419496e+01	2.939919e+01
2.300000e-06	2.048103e-06	4.652218e-10	1.449871e+01	3.101467e+01
2.310000e-06	2.090834e-06	4.844423e-10	1.480121e+01	3.263001e+01
2.320000e-06	2.133360e-06	5.042774e-10	1.510225e+01	3.424450e+01
2.330000e-06	2.175588e-06	5.263314e-10	1.540119e+01	3.585740e+01
2.340000e-06	2.217640e-06	5.513103e-10	1.569888e+01	3.746792e+01
2.350000e-06	2.259421e-06	5.775183e-10	1.599465e+01	3.907526e+01
2.360000e-06	2.300826e-06	6.049646e-10	1.628776e+01	4.067857e+01
2.370000e-06	2.341862e-06	6.306624e-10	1.657826e+01	4.227702e+01
2.380000e-06	2.382646e-06	6.543254e-10	1.686697e+01	4.386972e+01
2.390000e-06	2.423287e-06	6.760434e-10	1.715467e+01	4.545582e+01
2.400000e-06	2.463749e-06	6.962173e-10	1.744111e+01	4.703443e+01
2.410000e-06	2.504037e-06	7.158166e-10	1.772631e+01	4.860471e+01
2.420000e-06	2.544210e-06	7.358732e-10	1.801069e+01	5.016579e+01
2.430000e-06	2.584252e-06	7.576294e-10	1.829415e+01	5.171685e+01
2.440000e-06	2.624198e-06	7.808327e-10	1.857694e+01	5.325710e+01
2.450000e-06	2.664076e-06	8.036311e-10	1.885923e+01	5.478576e+01
2.460000e-06	2.703912e-06	8.261444e-10	1.914124e+01	5.630209e+01
2.470000e-06	2.743725e-06	8.501244e-10	1.942308e+01	5.780541e+01
2.480000e-06	2.783369e-06	8.721821e-10	1.970373e+01	5.929506e+01
2.490000e-06	2.822706e-06	8.955191e-10	1.998220e+01	6.077045e+01
2.500000e-06	2.861738e-06	9.170827e-10	2.025851e+01	6.223100e+01
2.510000e-06	2.900601e-06	9.369199e-10	2.053362e+01	6.367622e+01
2.520000e-06	2.939224e-06	9.549952e-10	2.080703e+01	6.510563e+01
2.530000e-06	2.977581e-06	9.726832e-10	2.107857e+01	6.651882e+01
2.540000e-06	3.015736e-06	9.923479e-10	2.134867e+01	6.791542e+01
2.550000e-06	3.053705e-06	1.014471e-09	2.161746e+01	6.929510e+01
2.560000e-06	3.091565e-06	1.040888e-09	2.188547e+01	7.065757e+01
2.570000e-06	3.129220e-06	1.066119e-09	2.215203e+01	7.200258e+01
2.580000e-06	3.166661e-06	1.086358e-09	2.241709e+01	7.332992e+01
2.590000e-06	3.203887e-06	1.101999e-09	2.268061e+01	7.463940e+01
2.600000e-06	3.240805e-06	1.115616e-09	2.294195e+01	7.593086e+01
2.610000e-06	3.277433e-06	1.130513e-09	2.320125e+01	7.720418e+01
2.620000e-06	3.313860e-06	1.145482e-09	2.345912e+01	7.845925e+01
2.630000e-06	3.350175e-06	1.160989e-09	2.371620e+01	7.969598e+01
2.640000e-06	3.386312e-06	1.178515e-09	2.397201e+01	8.091430e+01
2.650000e-06	3.422275e-06	1.197484e-09	2.422660e+01	8.211416e+01
2.660000e-06	3.458141e-06	1.216173e-09	2.448049e+01	8.329551e+01
2.670000e-06	3.493905e-06	1.232540e-09	2.473368e+01	8.445833e+01
2.680000e-06	3.529473e-06	1.246380e-09	2.498546e+01	8.560261e+01
2.690000e-06	3.564788e-06	1.258032e-09	2.523546e+01	8.672835e+01
2.700000e-06	3.599836e-06	1.270827e-09	2.548357e+01	8.783557e+01
2.710000e-06	3.634532e-06	1.287444e-09	2.572918e+01	8.892428e+01
2.720000e-06	3.668775e-06	1.306180e-09	2.597159e+01	8.999454e+01
2.730000e-06	3.702519e-06	1.324000e-09	2.621047e+01	9.104641e+01
2.740000e-06	3.735675e-06	1.341254e-09	2.644519e+01	9.207997e+01
2.750000e-06	3.768313e-06	1.359707e-09	2.667623e+01	9.309531e+01
2.760000e-06	3.800688e-06	1.377486e-09	2.690542e+01	9.409255e+01
2.770000e-06	3.832890e-06	1.390278e-09	2.713338e+01	9.507184e+01
2.780000e-06	3.864982e-06	1.399343e-09	2.736056e+01	9.603334e+01
2.790000e-06	3.896933e-06	1.410324e-09	2.758675e+01	9.697724e+01
2.800000e-06	3.928665e-06	1.424815e-09	2.781138e+01	9.790374e+01
2.810000e-06	3.960215e-06	1.440198e-09	2.803472e+01	9.881307e+01
2.820000e-06	3.991564e-06	1.455132e-09	2.825664e+01	9.970549e+01
2.830000e-06	4.022584e-06	1.469937e-09	2.847624e+01	1.005813e+02
2.840000e-06	4.053214e-06	1.485219e-09	2.869307e+01	1.014407e+02
2.850000e-06	4.083494e-06	1.498461e-09	2.890743e+01	1.022841e+02
2.860000e-06	4.113492e-06	1.509536e-09	2.911978e+01	1.031117e+02
2.870000e-06	4.143286e-06	1.519738e-09	2.933070e+01	1.039239e+02
2.880000e-06	4.172894e-06	1.528602e-09	2.954030e+01	1.047210e+02
2.890000e-06	4.202249e-06	1.537628e-09	2.974811e+01	1.055033e+02
2.900000e-06	4.231273e-06	1.548847e-09	2.995357e+01	1.062712e+02
