# Temperatura_=_-0.9
# Concentracion g/m^3_=_4090.0
# C_Vs_to_Am_M_A/Vsm_=_65563218390.804596
# pendiente_HvsI_1/m_=_3716.3
# ordenada_HvsI_A/m_=_1297.0
# frecuencia_Hz_=_135062.92569002105

Tiempo_(s)	Campo_(V.s)	Magnetizacion_(V.s)	Campo_(kA/m)	Magnetizacion_(A/m)
0.000000e+00	-5.400855e-06	-2.532965e-09	-3.840256e+01	-1.641181e+02
1.000000e-08	-5.401084e-06	-2.531934e-09	-3.840419e+01	-1.640084e+02
2.000000e-08	-5.401010e-06	-2.532270e-09	-3.840366e+01	-1.639068e+02
3.000000e-08	-5.400671e-06	-2.531564e-09	-3.840125e+01	-1.638158e+02
4.000000e-08	-5.399934e-06	-2.527686e-09	-3.839602e+01	-1.637377e+02
5.000000e-08	-5.398745e-06	-2.524818e-09	-3.838756e+01	-1.636746e+02
6.000000e-08	-5.397048e-06	-2.527423e-09	-3.837550e+01	-1.636285e+02
7.000000e-08	-5.394729e-06	-2.530175e-09	-3.835901e+01	-1.636010e+02
8.000000e-08	-5.391778e-06	-2.514481e-09	-3.833802e+01	-1.635936e+02
9.000000e-08	-5.388219e-06	-2.492674e-09	-3.831272e+01	-1.636071e+02
1.000000e-07	-5.384231e-06	-2.532661e-09	-3.828436e+01	-1.636424e+02
1.100000e-07	-5.380034e-06	-2.595668e-09	-3.825452e+01	-1.636995e+02
1.200000e-07	-5.375656e-06	-2.550806e-09	-3.822339e+01	-1.637785e+02
1.300000e-07	-5.371029e-06	-2.473575e-09	-3.819049e+01	-1.638788e+02
1.400000e-07	-5.366017e-06	-2.501825e-09	-3.815485e+01	-1.639994e+02
1.500000e-07	-5.360587e-06	-2.586361e-09	-3.811624e+01	-1.641392e+02
1.600000e-07	-5.354769e-06	-2.539662e-09	-3.807487e+01	-1.642964e+02
1.700000e-07	-5.348547e-06	-2.443458e-09	-3.803063e+01	-1.644690e+02
1.800000e-07	-5.341900e-06	-2.513340e-09	-3.798336e+01	-1.646547e+02
1.900000e-07	-5.334931e-06	-2.627659e-09	-3.793382e+01	-1.648511e+02
2.000000e-07	-5.327718e-06	-2.596386e-09	-3.788253e+01	-1.650552e+02
2.100000e-07	-5.320190e-06	-2.521350e-09	-3.782900e+01	-1.652641e+02
2.200000e-07	-5.312373e-06	-2.580144e-09	-3.777342e+01	-1.654748e+02
2.300000e-07	-5.304298e-06	-2.632275e-09	-3.771600e+01	-1.656840e+02
2.400000e-07	-5.295932e-06	-2.578788e-09	-3.765651e+01	-1.658885e+02
2.500000e-07	-5.287023e-06	-2.559236e-09	-3.759317e+01	-1.660854e+02
2.600000e-07	-5.277469e-06	-2.637678e-09	-3.752523e+01	-1.662714e+02
2.700000e-07	-5.267323e-06	-2.645041e-09	-3.745309e+01	-1.664437e+02
2.800000e-07	-5.256644e-06	-2.580086e-09	-3.737715e+01	-1.665996e+02
2.900000e-07	-5.245565e-06	-2.603549e-09	-3.729838e+01	-1.667366e+02
3.000000e-07	-5.234103e-06	-2.651017e-09	-3.721688e+01	-1.668526e+02
3.100000e-07	-5.222167e-06	-2.591198e-09	-3.713201e+01	-1.669457e+02
3.200000e-07	-5.209739e-06	-2.552542e-09	-3.704364e+01	-1.670144e+02
3.300000e-07	-5.196910e-06	-2.615201e-09	-3.695242e+01	-1.670574e+02
3.400000e-07	-5.183723e-06	-2.619458e-09	-3.685865e+01	-1.670741e+02
3.500000e-07	-5.170142e-06	-2.559573e-09	-3.676209e+01	-1.670639e+02
3.600000e-07	-5.156216e-06	-2.578409e-09	-3.666307e+01	-1.670270e+02
3.700000e-07	-5.141865e-06	-2.613633e-09	-3.656103e+01	-1.669636e+02
3.800000e-07	-5.126999e-06	-2.566620e-09	-3.645532e+01	-1.668745e+02
3.900000e-07	-5.111547e-06	-2.549820e-09	-3.634545e+01	-1.667606e+02
4.000000e-07	-5.095445e-06	-2.583864e-09	-3.623096e+01	-1.666234e+02
4.100000e-07	-5.078909e-06	-2.564625e-09	-3.611338e+01	-1.664646e+02
4.200000e-07	-5.062131e-06	-2.534385e-09	-3.599408e+01	-1.662858e+02
4.300000e-07	-5.045129e-06	-2.568241e-09	-3.587319e+01	-1.660892e+02
4.400000e-07	-5.027832e-06	-2.572408e-09	-3.575020e+01	-1.658770e+02
4.500000e-07	-5.010154e-06	-2.536886e-09	-3.562450e+01	-1.656515e+02
4.600000e-07	-4.992103e-06	-2.543998e-09	-3.549615e+01	-1.654149e+02
4.700000e-07	-4.973639e-06	-2.565086e-09	-3.536486e+01	-1.651697e+02
4.800000e-07	-4.954791e-06	-2.544416e-09	-3.523085e+01	-1.649182e+02
4.900000e-07	-4.935663e-06	-2.533293e-09	-3.509484e+01	-1.646625e+02
5.000000e-07	-4.916205e-06	-2.537752e-09	-3.495648e+01	-1.644047e+02
5.100000e-07	-4.896453e-06	-2.528087e-09	-3.481604e+01	-1.641467e+02
5.200000e-07	-4.876494e-06	-2.523541e-09	-3.467411e+01	-1.638903e+02
5.300000e-07	-4.856351e-06	-2.527698e-09	-3.453089e+01	-1.636369e+02
5.400000e-07	-4.835955e-06	-2.514654e-09	-3.438587e+01	-1.633878e+02
5.500000e-07	-4.815222e-06	-2.510124e-09	-3.423845e+01	-1.631439e+02
5.600000e-07	-4.794143e-06	-2.519807e-09	-3.408857e+01	-1.629059e+02
5.700000e-07	-4.772717e-06	-2.511358e-09	-3.393622e+01	-1.626743e+02
5.800000e-07	-4.750928e-06	-2.495536e-09	-3.378129e+01	-1.624493e+02
5.900000e-07	-4.728840e-06	-2.494695e-09	-3.362423e+01	-1.622306e+02
6.000000e-07	-4.706460e-06	-2.494988e-09	-3.346510e+01	-1.620181e+02
6.100000e-07	-4.683707e-06	-2.489363e-09	-3.330331e+01	-1.618110e+02
6.200000e-07	-4.660642e-06	-2.482325e-09	-3.313931e+01	-1.616087e+02
6.300000e-07	-4.637243e-06	-2.473325e-09	-3.297293e+01	-1.614102e+02
6.400000e-07	-4.613545e-06	-2.475050e-09	-3.280443e+01	-1.612144e+02
6.500000e-07	-4.589592e-06	-2.481495e-09	-3.263411e+01	-1.610200e+02
6.600000e-07	-4.565387e-06	-2.472988e-09	-3.246200e+01	-1.608259e+02
6.700000e-07	-4.540951e-06	-2.458208e-09	-3.228825e+01	-1.606308e+02
6.800000e-07	-4.516108e-06	-2.458382e-09	-3.211160e+01	-1.604333e+02
6.900000e-07	-4.490819e-06	-2.460942e-09	-3.193179e+01	-1.602321e+02
7.000000e-07	-4.465134e-06	-2.454985e-09	-3.174916e+01	-1.600261e+02
7.100000e-07	-4.438929e-06	-2.444714e-09	-3.156283e+01	-1.598142e+02
7.200000e-07	-4.412225e-06	-2.440009e-09	-3.137295e+01	-1.595954e+02
7.300000e-07	-4.385118e-06	-2.441661e-09	-3.118021e+01	-1.593688e+02
7.400000e-07	-4.357644e-06	-2.441468e-09	-3.098486e+01	-1.591338e+02
7.500000e-07	-4.329943e-06	-2.429033e-09	-3.078789e+01	-1.588898e+02
7.600000e-07	-4.302016e-06	-2.417320e-09	-3.058931e+01	-1.586366e+02
7.700000e-07	-4.273834e-06	-2.414688e-09	-3.038893e+01	-1.583740e+02
7.800000e-07	-4.245445e-06	-2.412734e-09	-3.018706e+01	-1.581020e+02
7.900000e-07	-4.216785e-06	-2.403819e-09	-2.998328e+01	-1.578209e+02
8.000000e-07	-4.187852e-06	-2.395470e-09	-2.977756e+01	-1.575311e+02
8.100000e-07	-4.158612e-06	-2.393523e-09	-2.956965e+01	-1.572331e+02
8.200000e-07	-4.129073e-06	-2.396893e-09	-2.935961e+01	-1.569275e+02
8.300000e-07	-4.099287e-06	-2.396658e-09	-2.914782e+01	-1.566152e+02
8.400000e-07	-4.069237e-06	-2.388534e-09	-2.893415e+01	-1.562971e+02
8.500000e-07	-4.038889e-06	-2.380459e-09	-2.871836e+01	-1.559740e+02
8.600000e-07	-4.008253e-06	-2.374439e-09	-2.850053e+01	-1.556470e+02
8.700000e-07	-3.977353e-06	-2.364213e-09	-2.828081e+01	-1.553169e+02
8.800000e-07	-3.946147e-06	-2.350416e-09	-2.805892e+01	-1.549848e+02
8.900000e-07	-3.914703e-06	-2.344139e-09	-2.783534e+01	-1.546515e+02
9.000000e-07	-3.883099e-06	-2.349878e-09	-2.761062e+01	-1.543178e+02
9.100000e-07	-3.851337e-06	-2.354031e-09	-2.738478e+01	-1.539845e+02
9.200000e-07	-3.819349e-06	-2.346189e-09	-2.715733e+01	-1.536523e+02
9.300000e-07	-3.787074e-06	-2.332086e-09	-2.692784e+01	-1.533215e+02
9.400000e-07	-3.754558e-06	-2.321092e-09	-2.669663e+01	-1.529925e+02
9.500000e-07	-3.721841e-06	-2.313694e-09	-2.646401e+01	-1.526655e+02
9.600000e-07	-3.688852e-06	-2.303645e-09	-2.622944e+01	-1.523405e+02
9.700000e-07	-3.655498e-06	-2.294490e-09	-2.599227e+01	-1.520174e+02
9.800000e-07	-3.621680e-06	-2.292623e-09	-2.575181e+01	-1.516959e+02
9.900000e-07	-3.587373e-06	-2.292848e-09	-2.550787e+01	-1.513755e+02
1.000000e-06	-3.552732e-06	-2.286853e-09	-2.526156e+01	-1.510558e+02
1.010000e-06	-3.517800e-06	-2.276442e-09	-2.501318e+01	-1.507359e+02
1.020000e-06	-3.482511e-06	-2.263576e-09	-2.476226e+01	-1.504152e+02
1.030000e-06	-3.446967e-06	-2.251517e-09	-2.450952e+01	-1.500926e+02
1.040000e-06	-3.411227e-06	-2.243322e-09	-2.425540e+01	-1.497673e+02
1.050000e-06	-3.375316e-06	-2.239677e-09	-2.400005e+01	-1.494382e+02
1.060000e-06	-3.339249e-06	-2.237187e-09	-2.374360e+01	-1.491044e+02
1.070000e-06	-3.303006e-06	-2.235954e-09	-2.348589e+01	-1.487648e+02
1.080000e-06	-3.266536e-06	-2.233949e-09	-2.322657e+01	-1.484183e+02
1.090000e-06	-3.229748e-06	-2.225749e-09	-2.296500e+01	-1.480642e+02
1.100000e-06	-3.192728e-06	-2.213777e-09	-2.270177e+01	-1.477015e+02
1.110000e-06	-3.155577e-06	-2.205795e-09	-2.243760e+01	-1.473293e+02
1.120000e-06	-3.118262e-06	-2.200005e-09	-2.217228e+01	-1.469471e+02
1.130000e-06	-3.080759e-06	-2.193276e-09	-2.190561e+01	-1.465542e+02
1.140000e-06	-3.043011e-06	-2.186857e-09	-2.163721e+01	-1.461502e+02
1.150000e-06	-3.005106e-06	-2.181839e-09	-2.136768e+01	-1.457347e+02
1.160000e-06	-2.967001e-06	-2.175251e-09	-2.109674e+01	-1.453076e+02
1.170000e-06	-2.928636e-06	-2.164410e-09	-2.082395e+01	-1.448687e+02
1.180000e-06	-2.890039e-06	-2.150493e-09	-2.054950e+01	-1.444182e+02
1.190000e-06	-2.851146e-06	-2.138907e-09	-2.027296e+01	-1.439561e+02
1.200000e-06	-2.812083e-06	-2.132378e-09	-1.999520e+01	-1.434828e+02
1.210000e-06	-2.772911e-06	-2.127252e-09	-1.971667e+01	-1.429987e+02
1.220000e-06	-2.733557e-06	-2.122821e-09	-1.943685e+01	-1.425043e+02
1.230000e-06	-2.694018e-06	-2.118591e-09	-1.915570e+01	-1.419999e+02
1.240000e-06	-2.654318e-06	-2.111529e-09	-1.887342e+01	-1.414862e+02
1.250000e-06	-2.614501e-06	-2.100612e-09	-1.859030e+01	-1.409639e+02
1.260000e-06	-2.574605e-06	-2.088688e-09	-1.830663e+01	-1.404334e+02
1.270000e-06	-2.534597e-06	-2.076612e-09	-1.802215e+01	-1.398954e+02
1.280000e-06	-2.494449e-06	-2.066115e-09	-1.773668e+01	-1.393504e+02
1.290000e-06	-2.454153e-06	-2.059028e-09	-1.745016e+01	-1.387989e+02
1.300000e-06	-2.413729e-06	-2.051860e-09	-1.716272e+01	-1.382414e+02
1.310000e-06	-2.373143e-06	-2.042314e-09	-1.687414e+01	-1.376782e+02
1.320000e-06	-2.332296e-06	-2.032598e-09	-1.658370e+01	-1.371095e+02
1.330000e-06	-2.291239e-06	-2.024193e-09	-1.629176e+01	-1.365356e+02
1.340000e-06	-2.249943e-06	-2.013655e-09	-1.599813e+01	-1.359565e+02
1.350000e-06	-2.208301e-06	-1.999776e-09	-1.570204e+01	-1.353720e+02
1.360000e-06	-2.166438e-06	-1.985765e-09	-1.540437e+01	-1.347821e+02
1.370000e-06	-2.124442e-06	-1.975003e-09	-1.510576e+01	-1.341864e+02
1.380000e-06	-2.082145e-06	-1.968016e-09	-1.480501e+01	-1.335845e+02
1.390000e-06	-2.039504e-06	-1.961548e-09	-1.450181e+01	-1.329760e+02
1.400000e-06	-1.996692e-06	-1.955656e-09	-1.419740e+01	-1.323601e+02
1.410000e-06	-1.953707e-06	-1.949418e-09	-1.389176e+01	-1.317363e+02
1.420000e-06	-1.910475e-06	-1.941428e-09	-1.358436e+01	-1.311038e+02
1.430000e-06	-1.867103e-06	-1.927789e-09	-1.327596e+01	-1.304618e+02
1.440000e-06	-1.823644e-06	-1.907953e-09	-1.296695e+01	-1.298093e+02
1.450000e-06	-1.780053e-06	-1.889023e-09	-1.265700e+01	-1.291456e+02
1.460000e-06	-1.736364e-06	-1.876585e-09	-1.234635e+01	-1.284697e+02
1.470000e-06	-1.692569e-06	-1.869651e-09	-1.203494e+01	-1.277808e+02
1.480000e-06	-1.648651e-06	-1.864902e-09	-1.172267e+01	-1.270778e+02
1.490000e-06	-1.604654e-06	-1.859259e-09	-1.140983e+01	-1.263601e+02
1.500000e-06	-1.560570e-06	-1.850166e-09	-1.109637e+01	-1.256266e+02
1.510000e-06	-1.516391e-06	-1.836951e-09	-1.078224e+01	-1.248768e+02
1.520000e-06	-1.472224e-06	-1.820613e-09	-1.046819e+01	-1.241098e+02
1.530000e-06	-1.428043e-06	-1.801595e-09	-1.015404e+01	-1.233250e+02
1.540000e-06	-1.383777e-06	-1.785414e-09	-9.839293e+00	-1.225217e+02
1.550000e-06	-1.339430e-06	-1.774098e-09	-9.523966e+00	-1.216994e+02
1.560000e-06	-1.294983e-06	-1.765487e-09	-9.207925e+00	-1.208577e+02
1.570000e-06	-1.250438e-06	-1.758244e-09	-8.891191e+00	-1.199960e+02
1.580000e-06	-1.205884e-06	-1.749103e-09	-8.574391e+00	-1.191139e+02
1.590000e-06	-1.161309e-06	-1.736002e-09	-8.257441e+00	-1.182112e+02
1.600000e-06	-1.116589e-06	-1.718296e-09	-7.939463e+00	-1.172874e+02
1.610000e-06	-1.071731e-06	-1.698813e-09	-7.620504e+00	-1.163422e+02
1.620000e-06	-1.026750e-06	-1.679019e-09	-7.300668e+00	-1.153754e+02
1.630000e-06	-9.816429e-07	-1.660813e-09	-6.979933e+00	-1.143866e+02
1.640000e-06	-9.364639e-07	-1.644243e-09	-6.658690e+00	-1.133754e+02
1.650000e-06	-8.912736e-07	-1.628717e-09	-6.337365e+00	-1.123414e+02
1.660000e-06	-8.460372e-07	-1.615339e-09	-6.015714e+00	-1.112843e+02
1.670000e-06	-8.007334e-07	-1.603384e-09	-5.693583e+00	-1.102035e+02
1.680000e-06	-7.554008e-07	-1.589212e-09	-5.371247e+00	-1.090985e+02
1.690000e-06	-7.100510e-07	-1.569782e-09	-5.048789e+00	-1.079687e+02
1.700000e-06	-6.646455e-07	-1.545840e-09	-4.725935e+00	-1.068132e+02
1.710000e-06	-6.191339e-07	-1.524231e-09	-4.402327e+00	-1.056314e+02
1.720000e-06	-5.735851e-07	-1.504715e-09	-4.078454e+00	-1.044223e+02
1.730000e-06	-5.280293e-07	-1.484605e-09	-3.754531e+00	-1.031850e+02
1.740000e-06	-4.823855e-07	-1.463032e-09	-3.429983e+00	-1.019182e+02
1.750000e-06	-4.367144e-07	-1.443560e-09	-3.105240e+00	-1.006210e+02
1.760000e-06	-3.910362e-07	-1.430137e-09	-2.780447e+00	-9.929195e+01
1.770000e-06	-3.453076e-07	-1.415972e-09	-2.455296e+00	-9.792985e+01
1.780000e-06	-2.995454e-07	-1.397028e-09	-2.129905e+00	-9.653328e+01
1.790000e-06	-2.537404e-07	-1.374431e-09	-1.804211e+00	-9.510081e+01
1.800000e-06	-2.079073e-07	-1.350565e-09	-1.478317e+00	-9.363098e+01
1.810000e-06	-1.621232e-07	-1.325186e-09	-1.152771e+00	-9.212231e+01
1.820000e-06	-1.163749e-07	-1.297924e-09	-8.274791e-01	-9.057329e+01
1.830000e-06	-7.061778e-08	-1.271084e-09	-5.021249e-01	-8.898244e+01
1.840000e-06	-2.490073e-08	-1.247173e-09	-1.770556e-01	-8.734830e+01
1.850000e-06	2.085447e-08	-1.226156e-09	1.482849e-01	-8.566944e+01
1.860000e-06	6.664714e-08	-1.205826e-09	4.738918e-01	-8.394451e+01
1.870000e-06	1.124910e-07	-1.184023e-09	7.998630e-01	-8.217219e+01
1.880000e-06	1.583534e-07	-1.159029e-09	1.125966e+00	-8.035129e+01
1.890000e-06	2.041236e-07	-1.129249e-09	1.451412e+00	-7.848068e+01
1.900000e-06	2.499295e-07	-1.095193e-09	1.777113e+00	-7.655935e+01
1.910000e-06	2.957660e-07	-1.060037e-09	2.103032e+00	-7.458640e+01
1.920000e-06	3.415443e-07	-1.029329e-09	2.428537e+00	-7.256107e+01
1.930000e-06	3.873324e-07	-1.003849e-09	2.754111e+00	-7.048271e+01
1.940000e-06	4.330701e-07	-9.795147e-10	3.079328e+00	-6.835082e+01
1.950000e-06	4.787479e-07	-9.518434e-10	3.404118e+00	-6.616503e+01
1.960000e-06	5.243745e-07	-9.208611e-10	3.728544e+00	-6.392512e+01
1.970000e-06	5.699056e-07	-8.890623e-10	4.052291e+00	-6.163102e+01
1.980000e-06	6.153982e-07	-8.525409e-10	4.375764e+00	-5.928276e+01
1.990000e-06	6.608504e-07	-8.110751e-10	4.698951e+00	-5.688055e+01
2.000000e-06	7.062442e-07	-7.713274e-10	5.021721e+00	-5.442473e+01
2.010000e-06	7.515641e-07	-7.354302e-10	5.343966e+00	-5.191575e+01
2.020000e-06	7.967887e-07	-6.998404e-10	5.665534e+00	-4.935422e+01
2.030000e-06	8.419557e-07	-6.640418e-10	5.986693e+00	-4.674086e+01
2.040000e-06	8.870041e-07	-6.282067e-10	6.307007e+00	-4.407652e+01
2.050000e-06	9.320192e-07	-5.921598e-10	6.627085e+00	-4.136217e+01
2.060000e-06	9.770970e-07	-5.546009e-10	6.947609e+00	-3.859889e+01
2.070000e-06	1.022084e-06	-5.137639e-10	7.267484e+00	-3.578789e+01
2.080000e-06	1.066964e-06	-4.704904e-10	7.586606e+00	-3.293048e+01
2.090000e-06	1.111796e-06	-4.255976e-10	7.905384e+00	-3.002810e+01
2.100000e-06	1.156548e-06	-3.799416e-10	8.223589e+00	-2.708230e+01
2.110000e-06	1.201107e-06	-3.360341e-10	8.540423e+00	-2.409473e+01
2.120000e-06	1.245573e-06	-2.937701e-10	8.856595e+00	-2.106718e+01
2.130000e-06	1.290032e-06	-2.508635e-10	9.172723e+00	-1.800153e+01
2.140000e-06	1.334379e-06	-2.051000e-10	9.488052e+00	-1.489980e+01
2.150000e-06	1.378644e-06	-1.580337e-10	9.802796e+00	-1.176414e+01
2.160000e-06	1.422824e-06	-1.121004e-10	1.011693e+01	-8.596794e+00
2.170000e-06	1.466947e-06	-6.422689e-11	1.043067e+01	-5.400159e+00
2.180000e-06	1.511064e-06	-1.435961e-11	1.074436e+01	-2.176747e+00
2.190000e-06	1.555119e-06	3.362777e-11	1.105762e+01	1.070798e+00
2.200000e-06	1.599112e-06	7.874774e-11	1.137042e+01	4.339704e+00
2.210000e-06	1.643051e-06	1.261621e-10	1.168285e+01	7.627075e+00
2.220000e-06	1.686921e-06	1.784548e-10	1.199478e+01	1.092989e+01
2.230000e-06	1.730734e-06	2.312202e-10	1.230631e+01	1.424501e+01
2.240000e-06	1.774473e-06	2.806783e-10	1.261732e+01	1.756919e+01
2.250000e-06	1.818075e-06	3.272236e-10	1.292735e+01	2.089906e+01
2.260000e-06	1.861569e-06	3.745100e-10	1.323661e+01	2.423119e+01
2.270000e-06	1.904901e-06	4.234502e-10	1.354473e+01	2.756205e+01
2.280000e-06	1.947992e-06	4.714935e-10	1.385112e+01	3.088804e+01
2.290000e-06	1.990905e-06	5.195411e-10	1.415625e+01	3.420551e+01
2.300000e-06	2.033731e-06	5.709723e-10	1.446076e+01	3.751080e+01
2.310000e-06	2.076406e-06	6.242723e-10	1.476420e+01	4.080021e+01
2.320000e-06	2.118758e-06	6.738627e-10	1.506534e+01	4.407006e+01
2.330000e-06	2.160711e-06	7.195698e-10	1.536365e+01	4.731669e+01
2.340000e-06	2.202277e-06	7.646821e-10	1.565921e+01	5.053651e+01
2.350000e-06	2.243605e-06	8.110271e-10	1.595306e+01	5.372600e+01
2.360000e-06	2.284807e-06	8.559798e-10	1.624603e+01	5.688173e+01
2.370000e-06	2.325841e-06	8.986351e-10	1.653780e+01	6.000039e+01
2.380000e-06	2.366585e-06	9.439487e-10	1.682751e+01	6.307882e+01
2.390000e-06	2.406998e-06	9.943998e-10	1.711486e+01	6.611401e+01
2.400000e-06	2.447201e-06	1.042474e-09	1.740073e+01	6.910316e+01
2.410000e-06	2.487299e-06	1.083820e-09	1.768584e+01	7.204363e+01
2.420000e-06	2.527336e-06	1.122167e-09	1.797052e+01	7.493303e+01
2.430000e-06	2.567315e-06	1.160722e-09	1.825479e+01	7.776916e+01
2.440000e-06	2.607195e-06	1.198296e-09	1.853836e+01	8.055010e+01
2.450000e-06	2.646963e-06	1.233752e-09	1.882112e+01	8.327413e+01
2.460000e-06	2.686641e-06	1.271243e-09	1.910326e+01	8.593981e+01
2.470000e-06	2.726287e-06	1.313160e-09	1.938515e+01	8.854592e+01
2.480000e-06	2.765738e-06	1.354217e-09	1.966567e+01	9.109151e+01
2.490000e-06	2.804877e-06	1.389216e-09	1.994397e+01	9.357586e+01
2.500000e-06	2.843766e-06	1.419476e-09	2.022049e+01	9.599849e+01
2.510000e-06	2.882451e-06	1.450874e-09	2.049555e+01	9.835912e+01
2.520000e-06	2.920929e-06	1.484573e-09	2.076915e+01	1.006577e+02
2.530000e-06	2.959205e-06	1.516432e-09	2.104131e+01	1.028944e+02
2.540000e-06	2.997282e-06	1.548140e-09	2.131206e+01	1.050696e+02
2.550000e-06	3.035200e-06	1.583295e-09	2.158167e+01	1.071836e+02
2.560000e-06	3.072993e-06	1.620712e-09	2.185039e+01	1.092372e+02
2.570000e-06	3.110587e-06	1.649602e-09	2.211770e+01	1.112311e+02
2.580000e-06	3.147953e-06	1.669560e-09	2.238339e+01	1.131661e+02
2.590000e-06	3.185079e-06	1.690848e-09	2.264738e+01	1.150433e+02
2.600000e-06	3.221986e-06	1.716983e-09	2.290980e+01	1.168635e+02
2.610000e-06	3.258571e-06	1.745152e-09	2.316994e+01	1.186280e+02
2.620000e-06	3.294825e-06	1.773015e-09	2.342772e+01	1.203377e+02
2.630000e-06	3.330928e-06	1.801160e-09	2.368443e+01	1.219938e+02
2.640000e-06	3.366979e-06	1.828244e-09	2.394077e+01	1.235974e+02
2.650000e-06	3.402960e-06	1.849135e-09	2.419661e+01	1.251496e+02
2.660000e-06	3.438795e-06	1.862382e-09	2.445141e+01	1.266516e+02
2.670000e-06	3.474462e-06	1.875260e-09	2.470503e+01	1.281045e+02
2.680000e-06	3.509899e-06	1.894825e-09	2.495699e+01	1.295092e+02
2.690000e-06	3.544937e-06	1.916601e-09	2.520613e+01	1.308670e+02
2.700000e-06	3.579587e-06	1.937064e-09	2.545251e+01	1.321788e+02
2.710000e-06	3.614027e-06	1.960026e-09	2.569739e+01	1.334456e+02
2.720000e-06	3.648022e-06	1.985417e-09	2.593911e+01	1.346685e+02
2.730000e-06	3.681375e-06	2.007235e-09	2.617627e+01	1.358484e+02
2.740000e-06	3.714225e-06	2.019440e-09	2.640985e+01	1.369863e+02
2.750000e-06	3.746740e-06	2.027682e-09	2.664104e+01	1.380833e+02
2.760000e-06	3.779083e-06	2.041158e-09	2.687102e+01	1.391402e+02
2.770000e-06	3.811278e-06	2.058847e-09	2.709994e+01	1.401582e+02
2.780000e-06	3.843310e-06	2.074361e-09	2.732770e+01	1.411383e+02
2.790000e-06	3.875223e-06	2.087573e-09	2.755462e+01	1.420815e+02
2.800000e-06	3.907031e-06	2.102127e-09	2.778079e+01	1.429889e+02
2.810000e-06	3.938597e-06	2.119181e-09	2.800524e+01	1.438618e+02
2.820000e-06	3.969860e-06	2.132891e-09	2.822753e+01	1.447011e+02
2.830000e-06	4.000814e-06	2.140818e-09	2.844763e+01	1.455082e+02
2.840000e-06	4.031392e-06	2.150210e-09	2.866505e+01	1.462844e+02
2.850000e-06	4.061629e-06	2.164834e-09	2.888005e+01	1.470307e+02
2.860000e-06	4.091631e-06	2.179348e-09	2.909338e+01	1.477487e+02
2.870000e-06	4.121397e-06	2.189591e-09	2.930503e+01	1.484395e+02
2.880000e-06	4.150898e-06	2.197072e-09	2.951479e+01	1.491046e+02
2.890000e-06	4.180173e-06	2.204811e-09	2.972295e+01	1.497452e+02
2.900000e-06	4.209136e-06	2.212921e-09	2.992889e+01	1.503627e+02
