# Temperatura_=_11.9
# Concentracion g/m^3_=_4090.0
# C_Vs_to_Am_M_A/Vsm_=_65563218390.804596
# pendiente_HvsI_1/m_=_3716.3
# ordenada_HvsI_A/m_=_1297.0
# frecuencia_Hz_=_135071.8640977554

Tiempo_(s)	Campo_(V.s)	Magnetizacion_(V.s)	Campo_(kA/m)	Magnetizacion_(A/m)
0.000000e+00	-5.415244e-06	-2.396812e-09	-3.840007e+01	-1.570730e+02
1.000000e-08	-5.415382e-06	-2.398142e-09	-3.840105e+01	-1.570055e+02
2.000000e-08	-5.415272e-06	-2.399154e-09	-3.840027e+01	-1.569419e+02
3.000000e-08	-5.414797e-06	-2.398247e-09	-3.839690e+01	-1.568837e+02
4.000000e-08	-5.414032e-06	-2.400087e-09	-3.839148e+01	-1.568322e+02
5.000000e-08	-5.412944e-06	-2.401647e-09	-3.838376e+01	-1.567888e+02
6.000000e-08	-5.411248e-06	-2.398404e-09	-3.837174e+01	-1.567547e+02
7.000000e-08	-5.408754e-06	-2.391180e-09	-3.835406e+01	-1.567307e+02
8.000000e-08	-5.405544e-06	-2.376903e-09	-3.833129e+01	-1.567178e+02
9.000000e-08	-5.401818e-06	-2.394662e-09	-3.830487e+01	-1.567166e+02
1.000000e-07	-5.397776e-06	-2.454537e-09	-3.827620e+01	-1.567276e+02
1.100000e-07	-5.393519e-06	-2.478506e-09	-3.824602e+01	-1.567509e+02
1.200000e-07	-5.389146e-06	-2.377166e-09	-3.821501e+01	-1.567866e+02
1.300000e-07	-5.384594e-06	-2.359338e-09	-3.818273e+01	-1.568343e+02
1.400000e-07	-5.379547e-06	-2.428418e-09	-3.814694e+01	-1.568937e+02
1.500000e-07	-5.374012e-06	-2.476664e-09	-3.810769e+01	-1.569640e+02
1.600000e-07	-5.368157e-06	-2.356382e-09	-3.806617e+01	-1.570443e+02
1.700000e-07	-5.361989e-06	-2.325392e-09	-3.802244e+01	-1.571334e+02
1.800000e-07	-5.355332e-06	-2.462388e-09	-3.797523e+01	-1.572301e+02
1.900000e-07	-5.348215e-06	-2.531506e-09	-3.792476e+01	-1.573328e+02
2.000000e-07	-5.340817e-06	-2.442073e-09	-3.787230e+01	-1.574399e+02
2.100000e-07	-5.333240e-06	-2.412150e-09	-3.781858e+01	-1.575496e+02
2.200000e-07	-5.325440e-06	-2.515434e-09	-3.776326e+01	-1.576601e+02
2.300000e-07	-5.317341e-06	-2.512623e-09	-3.770584e+01	-1.577695e+02
2.400000e-07	-5.308872e-06	-2.446154e-09	-3.764578e+01	-1.578758e+02
2.500000e-07	-5.299836e-06	-2.474157e-09	-3.758171e+01	-1.579771e+02
2.600000e-07	-5.290183e-06	-2.578004e-09	-3.751325e+01	-1.580716e+02
2.700000e-07	-5.279938e-06	-2.539501e-09	-3.744061e+01	-1.581574e+02
2.800000e-07	-5.269162e-06	-2.501368e-09	-3.736419e+01	-1.582327e+02
2.900000e-07	-5.257890e-06	-2.548706e-09	-3.728426e+01	-1.582961e+02
3.000000e-07	-5.246188e-06	-2.562111e-09	-3.720128e+01	-1.583460e+02
3.100000e-07	-5.234090e-06	-2.466531e-09	-3.711550e+01	-1.583813e+02
3.200000e-07	-5.221588e-06	-2.485271e-09	-3.702684e+01	-1.584008e+02
3.300000e-07	-5.208671e-06	-2.551419e-09	-3.693525e+01	-1.584038e+02
3.400000e-07	-5.195351e-06	-2.521599e-09	-3.684079e+01	-1.583896e+02
3.500000e-07	-5.181647e-06	-2.458019e-09	-3.674361e+01	-1.583579e+02
3.600000e-07	-5.167610e-06	-2.510354e-09	-3.664408e+01	-1.583085e+02
3.700000e-07	-5.153217e-06	-2.514968e-09	-3.654202e+01	-1.582415e+02
3.800000e-07	-5.138330e-06	-2.465031e-09	-3.643645e+01	-1.581572e+02
3.900000e-07	-5.122846e-06	-2.462809e-09	-3.632665e+01	-1.580561e+02
4.000000e-07	-5.106765e-06	-2.493258e-09	-3.621262e+01	-1.579390e+02
4.100000e-07	-5.090248e-06	-2.463379e-09	-3.609549e+01	-1.578068e+02
4.200000e-07	-5.073382e-06	-2.460741e-09	-3.597590e+01	-1.576605e+02
4.300000e-07	-5.056217e-06	-2.492049e-09	-3.585417e+01	-1.575013e+02
4.400000e-07	-5.038882e-06	-2.465157e-09	-3.573125e+01	-1.573305e+02
4.500000e-07	-5.021215e-06	-2.436576e-09	-3.560597e+01	-1.571496e+02
4.600000e-07	-5.003200e-06	-2.460694e-09	-3.547823e+01	-1.569599e+02
4.700000e-07	-4.984847e-06	-2.470855e-09	-3.534808e+01	-1.567630e+02
4.800000e-07	-4.965978e-06	-2.432197e-09	-3.521428e+01	-1.565601e+02
4.900000e-07	-4.946641e-06	-2.434338e-09	-3.507716e+01	-1.563528e+02
5.000000e-07	-4.927004e-06	-2.446684e-09	-3.493791e+01	-1.561424e+02
5.100000e-07	-4.907171e-06	-2.446080e-09	-3.479727e+01	-1.559301e+02
5.200000e-07	-4.887205e-06	-2.432974e-09	-3.465569e+01	-1.557171e+02
5.300000e-07	-4.867039e-06	-2.437086e-09	-3.451269e+01	-1.555044e+02
5.400000e-07	-4.846519e-06	-2.425625e-09	-3.436718e+01	-1.552928e+02
5.500000e-07	-4.825639e-06	-2.429286e-09	-3.421912e+01	-1.550830e+02
5.600000e-07	-4.804351e-06	-2.420268e-09	-3.406817e+01	-1.548756e+02
5.700000e-07	-4.782710e-06	-2.408918e-09	-3.391471e+01	-1.546709e+02
5.800000e-07	-4.760789e-06	-2.399106e-09	-3.375926e+01	-1.544690e+02
5.900000e-07	-4.738531e-06	-2.410065e-09	-3.360143e+01	-1.542701e+02
6.000000e-07	-4.715922e-06	-2.407107e-09	-3.344111e+01	-1.540739e+02
6.100000e-07	-4.692991e-06	-2.404186e-09	-3.327850e+01	-1.538801e+02
6.200000e-07	-4.669753e-06	-2.394189e-09	-3.311372e+01	-1.536884e+02
6.300000e-07	-4.646211e-06	-2.394389e-09	-3.294678e+01	-1.534981e+02
6.400000e-07	-4.622427e-06	-2.393552e-09	-3.277812e+01	-1.533085e+02
6.500000e-07	-4.598464e-06	-2.385152e-09	-3.260820e+01	-1.531190e+02
6.600000e-07	-4.574269e-06	-2.366072e-09	-3.243663e+01	-1.529286e+02
6.700000e-07	-4.549772e-06	-2.367492e-09	-3.226292e+01	-1.527366e+02
6.800000e-07	-4.524883e-06	-2.375343e-09	-3.208643e+01	-1.525421e+02
6.900000e-07	-4.499587e-06	-2.373387e-09	-3.190705e+01	-1.523441e+02
7.000000e-07	-4.473799e-06	-2.366535e-09	-3.172419e+01	-1.521419e+02
7.100000e-07	-4.447348e-06	-2.364889e-09	-3.153662e+01	-1.519347e+02
7.200000e-07	-4.420444e-06	-2.363975e-09	-3.134584e+01	-1.517217e+02
7.300000e-07	-4.393130e-06	-2.357270e-09	-3.115215e+01	-1.515023e+02
7.400000e-07	-4.365453e-06	-2.346234e-09	-3.095590e+01	-1.512760e+02
7.500000e-07	-4.337621e-06	-2.337206e-09	-3.075853e+01	-1.510422e+02
7.600000e-07	-4.309627e-06	-2.341091e-09	-3.056003e+01	-1.508008e+02
7.700000e-07	-4.281500e-06	-2.340906e-09	-3.036057e+01	-1.505513e+02
7.800000e-07	-4.253133e-06	-2.333910e-09	-3.015942e+01	-1.502939e+02
7.900000e-07	-4.224411e-06	-2.323725e-09	-2.995575e+01	-1.500284e+02
8.000000e-07	-4.195310e-06	-2.323476e-09	-2.974939e+01	-1.497550e+02
8.100000e-07	-4.165930e-06	-2.318644e-09	-2.954105e+01	-1.494740e+02
8.200000e-07	-4.136361e-06	-2.313163e-09	-2.933137e+01	-1.491857e+02
8.300000e-07	-4.106454e-06	-2.303066e-09	-2.911931e+01	-1.488905e+02
8.400000e-07	-4.076190e-06	-2.300538e-09	-2.890470e+01	-1.485889e+02
8.500000e-07	-4.045699e-06	-2.296421e-09	-2.868849e+01	-1.482814e+02
8.600000e-07	-4.014943e-06	-2.289969e-09	-2.847039e+01	-1.479686e+02
8.700000e-07	-3.983908e-06	-2.273963e-09	-2.825032e+01	-1.476510e+02
8.800000e-07	-3.952696e-06	-2.264564e-09	-2.802899e+01	-1.473293e+02
8.900000e-07	-3.921259e-06	-2.258636e-09	-2.780607e+01	-1.470041e+02
9.000000e-07	-3.889572e-06	-2.257952e-09	-2.758137e+01	-1.466757e+02
9.100000e-07	-3.857749e-06	-2.253196e-09	-2.735571e+01	-1.463448e+02
9.200000e-07	-3.825760e-06	-2.251214e-09	-2.712887e+01	-1.460117e+02
9.300000e-07	-3.793499e-06	-2.248281e-09	-2.690011e+01	-1.456769e+02
9.400000e-07	-3.760907e-06	-2.243581e-09	-2.666899e+01	-1.453404e+02
9.500000e-07	-3.728042e-06	-2.231328e-09	-2.643595e+01	-1.450026e+02
9.600000e-07	-3.694900e-06	-2.220688e-09	-2.620093e+01	-1.446634e+02
9.700000e-07	-3.661405e-06	-2.215870e-09	-2.596341e+01	-1.443229e+02
9.800000e-07	-3.627445e-06	-2.214821e-09	-2.572260e+01	-1.439808e+02
9.900000e-07	-3.592927e-06	-2.208444e-09	-2.547783e+01	-1.436371e+02
1.000000e-06	-3.557967e-06	-2.199709e-09	-2.522993e+01	-1.432914e+02
1.010000e-06	-3.522683e-06	-2.192445e-09	-2.497972e+01	-1.429432e+02
1.020000e-06	-3.487127e-06	-2.182744e-09	-2.472759e+01	-1.425922e+02
1.030000e-06	-3.451435e-06	-2.169821e-09	-2.447449e+01	-1.422378e+02
1.040000e-06	-3.415616e-06	-2.161080e-09	-2.422050e+01	-1.418795e+02
1.050000e-06	-3.379635e-06	-2.160977e-09	-2.396535e+01	-1.415166e+02
1.060000e-06	-3.343474e-06	-2.160364e-09	-2.370893e+01	-1.411486e+02
1.070000e-06	-3.307139e-06	-2.156818e-09	-2.345127e+01	-1.407748e+02
1.080000e-06	-3.270609e-06	-2.147534e-09	-2.319224e+01	-1.403947e+02
1.090000e-06	-3.233800e-06	-2.137395e-09	-2.293122e+01	-1.400077e+02
1.100000e-06	-3.196778e-06	-2.127061e-09	-2.266869e+01	-1.396133e+02
1.110000e-06	-3.159472e-06	-2.120070e-09	-2.240415e+01	-1.392110e+02
1.120000e-06	-3.121948e-06	-2.111742e-09	-2.213807e+01	-1.388004e+02
1.130000e-06	-3.084260e-06	-2.105981e-09	-2.187082e+01	-1.383812e+02
1.140000e-06	-3.046323e-06	-2.099562e-09	-2.160180e+01	-1.379531e+02
1.150000e-06	-3.008228e-06	-2.094340e-09	-2.133166e+01	-1.375160e+02
1.160000e-06	-2.969966e-06	-2.084880e-09	-2.106035e+01	-1.370698e+02
1.170000e-06	-2.931439e-06	-2.074239e-09	-2.078715e+01	-1.366145e+02
1.180000e-06	-2.892713e-06	-2.060513e-09	-2.051254e+01	-1.361502e+02
1.190000e-06	-2.853786e-06	-2.049359e-09	-2.023650e+01	-1.356770e+02
1.200000e-06	-2.814653e-06	-2.039134e-09	-1.995900e+01	-1.351951e+02
1.210000e-06	-2.775343e-06	-2.030944e-09	-1.968025e+01	-1.347049e+02
1.220000e-06	-2.735832e-06	-2.024126e-09	-1.940008e+01	-1.342067e+02
1.230000e-06	-2.696154e-06	-2.019857e-09	-1.911872e+01	-1.337008e+02
1.240000e-06	-2.656335e-06	-2.012755e-09	-1.883636e+01	-1.331877e+02
1.250000e-06	-2.616438e-06	-2.004314e-09	-1.855344e+01	-1.326676e+02
1.260000e-06	-2.576448e-06	-1.993806e-09	-1.826987e+01	-1.321410e+02
1.270000e-06	-2.536279e-06	-1.982110e-09	-1.798502e+01	-1.316082e+02
1.280000e-06	-2.495988e-06	-1.972136e-09	-1.769932e+01	-1.310695e+02
1.290000e-06	-2.455662e-06	-1.965096e-09	-1.741336e+01	-1.305252e+02
1.300000e-06	-2.415184e-06	-1.958488e-09	-1.712633e+01	-1.299755e+02
1.310000e-06	-2.374493e-06	-1.949639e-09	-1.683778e+01	-1.294205e+02
1.320000e-06	-2.333580e-06	-1.941312e-09	-1.654766e+01	-1.288602e+02
1.330000e-06	-2.292415e-06	-1.932193e-09	-1.625576e+01	-1.282945e+02
1.340000e-06	-2.250984e-06	-1.923056e-09	-1.596197e+01	-1.277234e+02
1.350000e-06	-2.209133e-06	-1.912809e-09	-1.566520e+01	-1.271466e+02
1.360000e-06	-2.166885e-06	-1.900671e-09	-1.536561e+01	-1.265636e+02
1.370000e-06	-2.124430e-06	-1.887691e-09	-1.506456e+01	-1.259741e+02
1.380000e-06	-2.081766e-06	-1.877715e-09	-1.476203e+01	-1.253775e+02
1.390000e-06	-2.038858e-06	-1.869728e-09	-1.445776e+01	-1.247732e+02
1.400000e-06	-1.995751e-06	-1.861958e-09	-1.415208e+01	-1.241604e+02
1.410000e-06	-1.952503e-06	-1.851593e-09	-1.384541e+01	-1.235384e+02
1.420000e-06	-1.909142e-06	-1.839732e-09	-1.353793e+01	-1.229063e+02
1.430000e-06	-1.865627e-06	-1.824668e-09	-1.322936e+01	-1.222633e+02
1.440000e-06	-1.821978e-06	-1.807948e-09	-1.291984e+01	-1.216084e+02
1.450000e-06	-1.778229e-06	-1.792373e-09	-1.260961e+01	-1.209407e+02
1.460000e-06	-1.734411e-06	-1.784487e-09	-1.229889e+01	-1.202592e+02
1.470000e-06	-1.690529e-06	-1.778353e-09	-1.198772e+01	-1.195630e+02
1.480000e-06	-1.646521e-06	-1.768668e-09	-1.167566e+01	-1.188512e+02
1.490000e-06	-1.602443e-06	-1.756330e-09	-1.136309e+01	-1.181229e+02
1.500000e-06	-1.558292e-06	-1.745068e-09	-1.105002e+01	-1.173771e+02
1.510000e-06	-1.514060e-06	-1.732206e-09	-1.073636e+01	-1.166132e+02
1.520000e-06	-1.469758e-06	-1.716383e-09	-1.042221e+01	-1.158303e+02
1.530000e-06	-1.425347e-06	-1.699438e-09	-1.010729e+01	-1.150277e+02
1.540000e-06	-1.380834e-06	-1.687104e-09	-9.791639e+00	-1.142048e+02
1.550000e-06	-1.336304e-06	-1.678788e-09	-9.475872e+00	-1.133610e+02
1.560000e-06	-1.291733e-06	-1.668926e-09	-9.159814e+00	-1.124957e+02
1.570000e-06	-1.247120e-06	-1.655390e-09	-8.843464e+00	-1.116085e+02
1.580000e-06	-1.202488e-06	-1.641780e-09	-8.526972e+00	-1.106990e+02
1.590000e-06	-1.157724e-06	-1.630327e-09	-8.209543e+00	-1.097667e+02
1.600000e-06	-1.112751e-06	-1.616537e-09	-7.890636e+00	-1.088112e+02
1.610000e-06	-1.067657e-06	-1.597241e-09	-7.570873e+00	-1.078323e+02
1.620000e-06	-1.022523e-06	-1.577696e-09	-7.250821e+00	-1.068295e+02
1.630000e-06	-9.772723e-07	-1.560565e-09	-6.929943e+00	-1.058024e+02
1.640000e-06	-9.319116e-07	-1.542707e-09	-6.608284e+00	-1.047507e+02
1.650000e-06	-8.865327e-07	-1.524092e-09	-6.286498e+00	-1.036740e+02
1.660000e-06	-8.411258e-07	-1.507497e-09	-5.964513e+00	-1.025717e+02
1.670000e-06	-7.956574e-07	-1.495812e-09	-5.642092e+00	-1.014433e+02
1.680000e-06	-7.501400e-07	-1.482746e-09	-5.319323e+00	-1.002883e+02
1.690000e-06	-7.046337e-07	-1.463936e-09	-4.996633e+00	-9.910579e+01
1.700000e-06	-6.590843e-07	-1.441687e-09	-4.673637e+00	-9.789511e+01
1.710000e-06	-6.134478e-07	-1.421477e-09	-4.350024e+00	-9.665537e+01
1.720000e-06	-5.677491e-07	-1.401438e-09	-4.025970e+00	-9.538556e+01
1.730000e-06	-5.219778e-07	-1.377893e-09	-3.701401e+00	-9.408462e+01
1.740000e-06	-4.761978e-07	-1.352870e-09	-3.376769e+00	-9.275138e+01
1.750000e-06	-4.304256e-07	-1.333364e-09	-3.052194e+00	-9.138456e+01
1.760000e-06	-3.846030e-07	-1.318073e-09	-2.727261e+00	-8.998283e+01
1.770000e-06	-3.386905e-07	-1.301169e-09	-2.401690e+00	-8.854477e+01
1.780000e-06	-2.927407e-07	-1.278440e-09	-2.075856e+00	-8.706890e+01
1.790000e-06	-2.467714e-07	-1.254502e-09	-1.749882e+00	-8.555369e+01
1.800000e-06	-2.007927e-07	-1.232089e-09	-1.423843e+00	-8.399761e+01
1.810000e-06	-1.548794e-07	-1.207251e-09	-1.098267e+00	-8.239908e+01
1.820000e-06	-1.089698e-07	-1.177962e-09	-7.727164e-01	-8.075657e+01
1.830000e-06	-6.303282e-08	-1.148493e-09	-4.469725e-01	-7.906855e+01
1.840000e-06	-1.719194e-08	-1.122655e-09	-1.219099e-01	-7.733357e+01
1.850000e-06	2.857345e-08	-1.099581e-09	2.026174e-01	-7.555023e+01
1.860000e-06	7.446019e-08	-1.075885e-09	5.280051e-01	-7.371724e+01
1.870000e-06	1.204324e-07	-1.049359e-09	8.539990e-01	-7.183344e+01
1.880000e-06	1.663157e-07	-1.020769e-09	1.179362e+00	-6.989777e+01
1.890000e-06	2.122092e-07	-9.900380e-10	1.504798e+00	-6.790936e+01
1.900000e-06	2.581423e-07	-9.554358e-10	1.830515e+00	-6.586751e+01
1.910000e-06	3.039664e-07	-9.204668e-10	2.155458e+00	-6.377168e+01
1.920000e-06	3.497318e-07	-8.872730e-10	2.479985e+00	-6.162156e+01
1.930000e-06	3.955551e-07	-8.543524e-10	2.804924e+00	-5.941704e+01
1.940000e-06	4.413994e-07	-8.222719e-10	3.130010e+00	-5.715821e+01
1.950000e-06	4.871859e-07	-7.915824e-10	3.454687e+00	-5.484541e+01
1.960000e-06	5.328854e-07	-7.603701e-10	3.778747e+00	-5.247917e+01
1.970000e-06	5.784863e-07	-7.247106e-10	4.102108e+00	-5.006028e+01
1.980000e-06	6.240065e-07	-6.843515e-10	4.424897e+00	-4.758973e+01
1.990000e-06	6.695594e-07	-6.431494e-10	4.747918e+00	-4.506870e+01
2.000000e-06	7.150847e-07	-6.047510e-10	5.070742e+00	-4.249862e+01
2.010000e-06	7.604786e-07	-5.675749e-10	5.392635e+00	-3.988108e+01
2.020000e-06	8.058032e-07	-5.295444e-10	5.714036e+00	-3.721785e+01
2.030000e-06	8.511879e-07	-4.904838e-10	6.035864e+00	-3.451089e+01
2.040000e-06	8.965713e-07	-4.517251e-10	6.357683e+00	-3.176229e+01
2.050000e-06	9.418437e-07	-4.119543e-10	6.678714e+00	-2.897429e+01
2.060000e-06	9.870732e-07	-3.698623e-10	6.999441e+00	-2.614923e+01
2.070000e-06	1.032302e-06	-3.259625e-10	7.320165e+00	-2.328956e+01
2.080000e-06	1.077355e-06	-2.826556e-10	7.639642e+00	-2.039781e+01
2.090000e-06	1.122234e-06	-2.389477e-10	7.957881e+00	-1.747659e+01
2.100000e-06	1.167059e-06	-1.945748e-10	8.275739e+00	-1.452855e+01
2.110000e-06	1.211802e-06	-1.496847e-10	8.593019e+00	-1.155635e+01
2.120000e-06	1.256496e-06	-1.073505e-10	8.909945e+00	-8.562724e+00
2.130000e-06	1.301073e-06	-6.736414e-11	9.226051e+00	-5.550368e+00
2.140000e-06	1.345545e-06	-2.465052e-11	9.541407e+00	-2.521996e+00
2.150000e-06	1.389910e-06	2.232787e-11	9.856003e+00	5.196948e-01
2.160000e-06	1.434173e-06	7.037400e-11	1.016987e+01	3.572029e+00
2.170000e-06	1.478379e-06	1.154757e-10	1.048335e+01	6.632358e+00
2.180000e-06	1.522558e-06	1.599128e-10	1.079662e+01	9.698067e+00
2.190000e-06	1.566748e-06	2.037560e-10	1.110997e+01	1.276658e+01
2.200000e-06	1.610876e-06	2.473690e-10	1.142289e+01	1.583534e+01
2.210000e-06	1.654906e-06	2.921181e-10	1.173512e+01	1.890186e+01
2.220000e-06	1.698844e-06	3.389765e-10	1.204668e+01	2.196368e+01
2.230000e-06	1.742716e-06	3.872522e-10	1.235779e+01	2.501836e+01
2.240000e-06	1.786556e-06	4.345335e-10	1.266866e+01	2.806352e+01
2.250000e-06	1.830374e-06	4.786939e-10	1.297938e+01	3.109681e+01
2.260000e-06	1.874094e-06	5.190597e-10	1.328940e+01	3.411591e+01
2.270000e-06	1.917613e-06	5.599639e-10	1.359800e+01	3.711853e+01
2.280000e-06	1.960951e-06	6.029574e-10	1.390532e+01	4.010241e+01
2.290000e-06	2.004190e-06	6.457220e-10	1.421193e+01	4.306532e+01
2.300000e-06	2.047323e-06	6.897177e-10	1.451779e+01	4.600506e+01
2.310000e-06	2.090139e-06	7.364433e-10	1.482140e+01	4.891947e+01
2.320000e-06	2.132584e-06	7.817021e-10	1.512238e+01	5.180641e+01
2.330000e-06	2.174734e-06	8.210355e-10	1.542127e+01	5.466377e+01
2.340000e-06	2.216533e-06	8.563207e-10	1.571767e+01	5.748949e+01
2.350000e-06	2.258046e-06	8.927232e-10	1.601204e+01	6.028153e+01
2.360000e-06	2.299337e-06	9.308117e-10	1.630484e+01	6.303794e+01
2.370000e-06	2.340462e-06	9.698547e-10	1.659647e+01	6.575677e+01
2.380000e-06	2.381349e-06	1.010711e-09	1.688640e+01	6.843618e+01
2.390000e-06	2.421981e-06	1.053048e-09	1.717453e+01	7.107438e+01
2.400000e-06	2.462474e-06	1.093455e-09	1.746167e+01	7.366966e+01
2.410000e-06	2.502774e-06	1.129432e-09	1.774744e+01	7.622040e+01
2.420000e-06	2.542870e-06	1.162331e-09	1.803176e+01	7.872507e+01
2.430000e-06	2.582861e-06	1.195237e-09	1.831534e+01	8.118225e+01
2.440000e-06	2.622828e-06	1.228011e-09	1.859875e+01	8.359066e+01
2.450000e-06	2.662730e-06	1.260791e-09	1.888170e+01	8.594910e+01
2.460000e-06	2.702462e-06	1.295149e-09	1.916345e+01	8.825653e+01
2.470000e-06	2.742048e-06	1.330611e-09	1.944415e+01	9.051205e+01
2.480000e-06	2.781502e-06	1.363218e-09	1.972393e+01	9.271488e+01
2.490000e-06	2.820795e-06	1.391676e-09	2.000256e+01	9.486442e+01
2.500000e-06	2.859881e-06	1.419454e-09	2.027972e+01	9.696019e+01
2.510000e-06	2.898660e-06	1.447861e-09	2.055471e+01	9.900188e+01
2.520000e-06	2.937214e-06	1.476315e-09	2.082810e+01	1.009893e+02
2.530000e-06	2.975497e-06	1.503594e-09	2.109957e+01	1.029225e+02
2.540000e-06	3.013540e-06	1.532006e-09	2.136933e+01	1.048016e+02
2.550000e-06	3.051480e-06	1.562473e-09	2.163837e+01	1.066268e+02
2.560000e-06	3.089265e-06	1.590337e-09	2.190631e+01	1.083986e+02
2.570000e-06	3.126772e-06	1.611798e-09	2.217228e+01	1.101175e+02
2.580000e-06	3.164024e-06	1.631806e-09	2.243643e+01	1.117841e+02
2.590000e-06	3.201118e-06	1.653737e-09	2.269947e+01	1.133993e+02
2.600000e-06	3.237955e-06	1.677199e-09	2.296069e+01	1.149638e+02
2.610000e-06	3.274485e-06	1.700994e-09	2.321972e+01	1.164787e+02
2.620000e-06	3.310862e-06	1.723201e-09	2.347767e+01	1.179450e+02
2.630000e-06	3.347105e-06	1.743158e-09	2.373468e+01	1.193638e+02
2.640000e-06	3.383171e-06	1.760448e-09	2.399043e+01	1.207362e+02
2.650000e-06	3.419134e-06	1.775418e-09	2.424544e+01	1.220634e+02
2.660000e-06	3.454991e-06	1.787916e-09	2.449971e+01	1.233467e+02
2.670000e-06	3.490704e-06	1.803986e-09	2.475296e+01	1.245872e+02
2.680000e-06	3.526238e-06	1.823243e-09	2.500493e+01	1.257862e+02
2.690000e-06	3.561517e-06	1.843634e-09	2.525510e+01	1.269450e+02
2.700000e-06	3.596356e-06	1.864875e-09	2.550214e+01	1.280648e+02
2.710000e-06	3.630737e-06	1.884898e-09	2.574595e+01	1.291469e+02
2.720000e-06	3.664659e-06	1.902534e-09	2.598649e+01	1.301923e+02
2.730000e-06	3.698010e-06	1.915961e-09	2.622298e+01	1.312024e+02
2.740000e-06	3.730932e-06	1.925391e-09	2.645643e+01	1.321781e+02
2.750000e-06	3.763499e-06	1.934522e-09	2.668738e+01	1.331208e+02
2.760000e-06	3.795806e-06	1.947194e-09	2.691647e+01	1.340314e+02
2.770000e-06	3.827999e-06	1.961625e-09	2.714475e+01	1.349110e+02
2.780000e-06	3.860066e-06	1.975756e-09	2.737214e+01	1.357605e+02
2.790000e-06	3.892014e-06	1.990315e-09	2.759869e+01	1.365811e+02
2.800000e-06	3.923753e-06	2.004785e-09	2.782376e+01	1.373735e+02
2.810000e-06	3.955245e-06	2.020036e-09	2.804706e+01	1.381388e+02
2.820000e-06	3.986505e-06	2.032256e-09	2.826874e+01	1.388778e+02
2.830000e-06	4.017485e-06	2.039144e-09	2.848842e+01	1.395914e+02
2.840000e-06	4.048092e-06	2.046631e-09	2.870545e+01	1.402804e+02
2.850000e-06	4.078389e-06	2.056996e-09	2.892029e+01	1.409457e+02
2.860000e-06	4.108509e-06	2.069057e-09	2.913387e+01	1.415880e+02
2.870000e-06	4.138379e-06	2.080317e-09	2.934569e+01	1.422081e+02
2.880000e-06	4.167886e-06	2.090258e-09	2.955493e+01	1.428067e+02
2.890000e-06	4.197059e-06	2.098012e-09	2.976179e+01	1.433847e+02
2.900000e-06	4.225984e-06	2.104827e-09	2.996691e+01	1.439427e+02
