# Temperatura_=_-0.9
# Concentracion g/m^3_=_4090.0
# C_Vs_to_Am_M_A/Vsm_=_65563218390.804596
# pendiente_HvsI_1/m_=_3716.3
# ordenada_HvsI_A/m_=_1297.0
# frecuencia_Hz_=_135065.28386136817

Tiempo_(s)	Campo_(V.s)	Magnetizacion_(V.s)	Campo_(kA/m)	Magnetizacion_(A/m)
0.000000e+00	-5.397847e-06	-2.498648e-09	-3.839451e+01	-1.640039e+02
1.000000e-08	-5.397996e-06	-2.498920e-09	-3.839557e+01	-1.639149e+02
2.000000e-08	-5.397881e-06	-2.498600e-09	-3.839475e+01	-1.638299e+02
3.000000e-08	-5.397435e-06	-2.497634e-09	-3.839157e+01	-1.637504e+02
4.000000e-08	-5.396542e-06	-2.499785e-09	-3.838522e+01	-1.636782e+02
5.000000e-08	-5.395176e-06	-2.507511e-09	-3.837551e+01	-1.636147e+02
6.000000e-08	-5.393217e-06	-2.522517e-09	-3.836158e+01	-1.635614e+02
7.000000e-08	-5.390577e-06	-2.519880e-09	-3.834280e+01	-1.635194e+02
8.000000e-08	-5.387394e-06	-2.457834e-09	-3.832015e+01	-1.634898e+02
9.000000e-08	-5.383803e-06	-2.422616e-09	-3.829462e+01	-1.634733e+02
1.000000e-07	-5.379854e-06	-2.520448e-09	-3.826652e+01	-1.634705e+02
1.100000e-07	-5.375672e-06	-2.590164e-09	-3.823678e+01	-1.634817e+02
1.200000e-07	-5.371154e-06	-2.494509e-09	-3.820464e+01	-1.635069e+02
1.300000e-07	-5.366266e-06	-2.399043e-09	-3.816988e+01	-1.635458e+02
1.400000e-07	-5.361146e-06	-2.514117e-09	-3.813346e+01	-1.635981e+02
1.500000e-07	-5.355698e-06	-2.630808e-09	-3.809470e+01	-1.636629e+02
1.600000e-07	-5.349723e-06	-2.498422e-09	-3.805221e+01	-1.637393e+02
1.700000e-07	-5.343229e-06	-2.388515e-09	-3.800601e+01	-1.638260e+02
1.800000e-07	-5.336403e-06	-2.507228e-09	-3.795746e+01	-1.639217e+02
1.900000e-07	-5.329289e-06	-2.631742e-09	-3.790686e+01	-1.640246e+02
2.000000e-07	-5.321865e-06	-2.541723e-09	-3.785406e+01	-1.641331e+02
2.100000e-07	-5.314162e-06	-2.502971e-09	-3.779926e+01	-1.642453e+02
2.200000e-07	-5.306335e-06	-2.605338e-09	-3.774359e+01	-1.643591e+02
2.300000e-07	-5.298321e-06	-2.636890e-09	-3.768659e+01	-1.644726e+02
2.400000e-07	-5.289804e-06	-2.543258e-09	-3.762601e+01	-1.645836e+02
2.500000e-07	-5.280672e-06	-2.557744e-09	-3.756105e+01	-1.646902e+02
2.600000e-07	-5.270983e-06	-2.641913e-09	-3.749213e+01	-1.647903e+02
2.700000e-07	-5.260692e-06	-2.597640e-09	-3.741894e+01	-1.648820e+02
2.800000e-07	-5.249791e-06	-2.538572e-09	-3.734139e+01	-1.649635e+02
2.900000e-07	-5.238477e-06	-2.620701e-09	-3.726092e+01	-1.650332e+02
3.000000e-07	-5.226755e-06	-2.657684e-09	-3.717754e+01	-1.650896e+02
3.100000e-07	-5.214560e-06	-2.551047e-09	-3.709080e+01	-1.651314e+02
3.200000e-07	-5.201960e-06	-2.545601e-09	-3.700118e+01	-1.651575e+02
3.300000e-07	-5.188984e-06	-2.633947e-09	-3.690888e+01	-1.651670e+02
3.400000e-07	-5.175620e-06	-2.620197e-09	-3.681382e+01	-1.651593e+02
3.500000e-07	-5.161889e-06	-2.562760e-09	-3.671615e+01	-1.651341e+02
3.600000e-07	-5.147747e-06	-2.602132e-09	-3.661556e+01	-1.650912e+02
3.700000e-07	-5.133132e-06	-2.607573e-09	-3.651161e+01	-1.650307e+02
3.800000e-07	-5.118002e-06	-2.563925e-09	-3.640399e+01	-1.649529e+02
3.900000e-07	-5.102348e-06	-2.574212e-09	-3.629264e+01	-1.648583e+02
4.000000e-07	-5.086213e-06	-2.585782e-09	-3.617787e+01	-1.647476e+02
4.100000e-07	-5.069653e-06	-2.533838e-09	-3.606009e+01	-1.646217e+02
4.200000e-07	-5.052733e-06	-2.547992e-09	-3.593973e+01	-1.644816e+02
4.300000e-07	-5.035570e-06	-2.602379e-09	-3.581766e+01	-1.643285e+02
4.400000e-07	-5.018132e-06	-2.579537e-09	-3.569362e+01	-1.641637e+02
4.500000e-07	-5.000288e-06	-2.535311e-09	-3.556670e+01	-1.639883e+02
4.600000e-07	-4.982178e-06	-2.566494e-09	-3.543788e+01	-1.638038e+02
4.700000e-07	-4.963726e-06	-2.580900e-09	-3.530664e+01	-1.636114e+02
4.800000e-07	-4.944781e-06	-2.552152e-09	-3.517188e+01	-1.634126e+02
4.900000e-07	-4.925469e-06	-2.534884e-09	-3.503451e+01	-1.632086e+02
5.000000e-07	-4.905939e-06	-2.538728e-09	-3.489560e+01	-1.630005e+02
5.100000e-07	-4.886205e-06	-2.544310e-09	-3.475523e+01	-1.627895e+02
5.200000e-07	-4.866237e-06	-2.558305e-09	-3.461320e+01	-1.625766e+02
5.300000e-07	-4.845981e-06	-2.544889e-09	-3.446912e+01	-1.623626e+02
5.400000e-07	-4.825422e-06	-2.521391e-09	-3.432289e+01	-1.621482e+02
5.500000e-07	-4.804527e-06	-2.531276e-09	-3.417426e+01	-1.619341e+02
5.600000e-07	-4.783258e-06	-2.542501e-09	-3.402298e+01	-1.617205e+02
5.700000e-07	-4.761701e-06	-2.519278e-09	-3.386964e+01	-1.615078e+02
5.800000e-07	-4.739848e-06	-2.501372e-09	-3.371420e+01	-1.612960e+02
5.900000e-07	-4.717576e-06	-2.507682e-09	-3.355579e+01	-1.610852e+02
6.000000e-07	-4.694920e-06	-2.513496e-09	-3.339464e+01	-1.608751e+02
6.100000e-07	-4.671996e-06	-2.509300e-09	-3.323158e+01	-1.606654e+02
6.200000e-07	-4.648758e-06	-2.493159e-09	-3.306629e+01	-1.604558e+02
6.300000e-07	-4.625208e-06	-2.482942e-09	-3.289878e+01	-1.602456e+02
6.400000e-07	-4.601452e-06	-2.493340e-09	-3.272981e+01	-1.600344e+02
6.500000e-07	-4.577501e-06	-2.500519e-09	-3.255944e+01	-1.598215e+02
6.600000e-07	-4.553270e-06	-2.479104e-09	-3.238709e+01	-1.596063e+02
6.700000e-07	-4.528718e-06	-2.465139e-09	-3.221245e+01	-1.593881e+02
6.800000e-07	-4.503764e-06	-2.471761e-09	-3.203496e+01	-1.591661e+02
6.900000e-07	-4.478343e-06	-2.476664e-09	-3.185414e+01	-1.589399e+02
7.000000e-07	-4.452375e-06	-2.463769e-09	-3.166943e+01	-1.587088e+02
7.100000e-07	-4.425826e-06	-2.455466e-09	-3.148059e+01	-1.584723e+02
7.200000e-07	-4.398853e-06	-2.454968e-09	-3.128873e+01	-1.582300e+02
7.300000e-07	-4.371606e-06	-2.458889e-09	-3.109492e+01	-1.579814e+02
7.400000e-07	-4.344131e-06	-2.448299e-09	-3.089950e+01	-1.577263e+02
7.500000e-07	-4.316426e-06	-2.430498e-09	-3.070243e+01	-1.574646e+02
7.600000e-07	-4.288523e-06	-2.421823e-09	-3.050396e+01	-1.571961e+02
7.700000e-07	-4.260401e-06	-2.426125e-09	-3.030394e+01	-1.569209e+02
7.800000e-07	-4.231989e-06	-2.422239e-09	-3.010184e+01	-1.566391e+02
7.900000e-07	-4.203285e-06	-2.412128e-09	-2.989767e+01	-1.563510e+02
8.000000e-07	-4.174328e-06	-2.406845e-09	-2.969170e+01	-1.560569e+02
8.100000e-07	-4.145086e-06	-2.409702e-09	-2.948371e+01	-1.557571e+02
8.200000e-07	-4.115496e-06	-2.409003e-09	-2.927324e+01	-1.554520e+02
8.300000e-07	-4.085617e-06	-2.399602e-09	-2.906071e+01	-1.551423e+02
8.400000e-07	-4.055487e-06	-2.385931e-09	-2.884639e+01	-1.548283e+02
8.500000e-07	-4.024975e-06	-2.380359e-09	-2.862937e+01	-1.545107e+02
8.600000e-07	-3.994074e-06	-2.377674e-09	-2.840957e+01	-1.541900e+02
8.700000e-07	-3.962942e-06	-2.369097e-09	-2.818813e+01	-1.538666e+02
8.800000e-07	-3.931706e-06	-2.357033e-09	-2.796595e+01	-1.535412e+02
8.900000e-07	-3.900303e-06	-2.353766e-09	-2.774258e+01	-1.532142e+02
9.000000e-07	-3.868660e-06	-2.356098e-09	-2.751750e+01	-1.528859e+02
9.100000e-07	-3.836857e-06	-2.350137e-09	-2.729129e+01	-1.525567e+02
9.200000e-07	-3.804852e-06	-2.336252e-09	-2.706364e+01	-1.522269e+02
9.300000e-07	-3.772523e-06	-2.323987e-09	-2.683369e+01	-1.518967e+02
9.400000e-07	-3.739929e-06	-2.320101e-09	-2.660185e+01	-1.515661e+02
9.500000e-07	-3.707099e-06	-2.316285e-09	-2.636834e+01	-1.512352e+02
9.600000e-07	-3.673935e-06	-2.310678e-09	-2.613244e+01	-1.509039e+02
9.700000e-07	-3.640321e-06	-2.305307e-09	-2.589335e+01	-1.505720e+02
9.800000e-07	-3.606283e-06	-2.306098e-09	-2.565124e+01	-1.502392e+02
9.900000e-07	-3.571847e-06	-2.302127e-09	-2.540630e+01	-1.499053e+02
1.000000e-06	-3.536968e-06	-2.290808e-09	-2.515820e+01	-1.495699e+02
1.010000e-06	-3.501728e-06	-2.274829e-09	-2.490755e+01	-1.492324e+02
1.020000e-06	-3.466207e-06	-2.263944e-09	-2.465489e+01	-1.488925e+02
1.030000e-06	-3.430600e-06	-2.258162e-09	-2.440162e+01	-1.485495e+02
1.040000e-06	-3.394915e-06	-2.257644e-09	-2.414779e+01	-1.482029e+02
1.050000e-06	-3.359022e-06	-2.256520e-09	-2.389249e+01	-1.478521e+02
1.060000e-06	-3.322951e-06	-2.255447e-09	-2.363592e+01	-1.474966e+02
1.070000e-06	-3.286697e-06	-2.252250e-09	-2.337805e+01	-1.471357e+02
1.080000e-06	-3.250154e-06	-2.242066e-09	-2.311812e+01	-1.467691e+02
1.090000e-06	-3.213348e-06	-2.224497e-09	-2.285632e+01	-1.463961e+02
1.100000e-06	-3.176379e-06	-2.208764e-09	-2.259336e+01	-1.460163e+02
1.110000e-06	-3.139232e-06	-2.199577e-09	-2.232913e+01	-1.456293e+02
1.120000e-06	-3.101839e-06	-2.195602e-09	-2.206316e+01	-1.452347e+02
1.130000e-06	-3.064216e-06	-2.192289e-09	-2.179556e+01	-1.448323e+02
1.140000e-06	-3.026444e-06	-2.189888e-09	-2.152688e+01	-1.444218e+02
1.150000e-06	-2.988520e-06	-2.185705e-09	-2.125714e+01	-1.440031e+02
1.160000e-06	-2.950382e-06	-2.178609e-09	-2.098586e+01	-1.435761e+02
1.170000e-06	-2.911945e-06	-2.167033e-09	-2.071246e+01	-1.431406e+02
1.180000e-06	-2.873240e-06	-2.151643e-09	-2.043715e+01	-1.426968e+02
1.190000e-06	-2.834286e-06	-2.139965e-09	-2.016008e+01	-1.422447e+02
1.200000e-06	-2.795154e-06	-2.131713e-09	-1.988174e+01	-1.417842e+02
1.210000e-06	-2.755891e-06	-2.124010e-09	-1.960246e+01	-1.413157e+02
1.220000e-06	-2.716435e-06	-2.115307e-09	-1.932181e+01	-1.408392e+02
1.230000e-06	-2.676764e-06	-2.108479e-09	-1.903963e+01	-1.403548e+02
1.240000e-06	-2.636993e-06	-2.101505e-09	-1.875675e+01	-1.398627e+02
1.250000e-06	-2.597173e-06	-2.094608e-09	-1.847351e+01	-1.393631e+02
1.260000e-06	-2.557247e-06	-2.084791e-09	-1.818952e+01	-1.388560e+02
1.270000e-06	-2.517272e-06	-2.073368e-09	-1.790518e+01	-1.383416e+02
1.280000e-06	-2.477197e-06	-2.062168e-09	-1.762013e+01	-1.378199e+02
1.290000e-06	-2.436881e-06	-2.054482e-09	-1.733336e+01	-1.372910e+02
1.300000e-06	-2.396402e-06	-2.046382e-09	-1.704544e+01	-1.367548e+02
1.310000e-06	-2.355858e-06	-2.034517e-09	-1.675706e+01	-1.362112e+02
1.320000e-06	-2.314991e-06	-2.022900e-09	-1.646637e+01	-1.356601e+02
1.330000e-06	-2.273785e-06	-2.014573e-09	-1.617328e+01	-1.351014e+02
1.340000e-06	-2.232389e-06	-2.007387e-09	-1.587883e+01	-1.345348e+02
1.350000e-06	-2.190758e-06	-1.997509e-09	-1.558271e+01	-1.339600e+02
1.360000e-06	-2.148873e-06	-1.985497e-09	-1.528478e+01	-1.333768e+02
1.370000e-06	-2.106635e-06	-1.974179e-09	-1.498435e+01	-1.327846e+02
1.380000e-06	-2.064072e-06	-1.961959e-09	-1.468160e+01	-1.321832e+02
1.390000e-06	-2.021274e-06	-1.948958e-09	-1.437718e+01	-1.315720e+02
1.400000e-06	-1.978315e-06	-1.936742e-09	-1.407162e+01	-1.309507e+02
1.410000e-06	-1.935221e-06	-1.927414e-09	-1.376509e+01	-1.303187e+02
1.420000e-06	-1.891930e-06	-1.920024e-09	-1.345717e+01	-1.296756e+02
1.430000e-06	-1.848454e-06	-1.909368e-09	-1.314792e+01	-1.290208e+02
1.440000e-06	-1.804825e-06	-1.893846e-09	-1.283760e+01	-1.283540e+02
1.450000e-06	-1.761140e-06	-1.882450e-09	-1.252686e+01	-1.276745e+02
1.460000e-06	-1.717424e-06	-1.875028e-09	-1.221592e+01	-1.269820e+02
1.470000e-06	-1.673667e-06	-1.862906e-09	-1.190468e+01	-1.262760e+02
1.480000e-06	-1.629861e-06	-1.847268e-09	-1.159308e+01	-1.255562e+02
1.490000e-06	-1.585959e-06	-1.834005e-09	-1.128082e+01	-1.248220e+02
1.500000e-06	-1.541995e-06	-1.825496e-09	-1.096810e+01	-1.240731e+02
1.510000e-06	-1.497953e-06	-1.815903e-09	-1.065484e+01	-1.233092e+02
1.520000e-06	-1.453834e-06	-1.800401e-09	-1.034102e+01	-1.225300e+02
1.530000e-06	-1.409627e-06	-1.784584e-09	-1.002658e+01	-1.217351e+02
1.540000e-06	-1.365348e-06	-1.774314e-09	-9.711622e+00	-1.209242e+02
1.550000e-06	-1.321039e-06	-1.765517e-09	-9.396461e+00	-1.200970e+02
1.560000e-06	-1.276641e-06	-1.752590e-09	-9.080657e+00	-1.192532e+02
1.570000e-06	-1.232136e-06	-1.738446e-09	-8.764098e+00	-1.183924e+02
1.580000e-06	-1.187523e-06	-1.727792e-09	-8.446766e+00	-1.175144e+02
1.590000e-06	-1.142820e-06	-1.717246e-09	-8.128800e+00	-1.166186e+02
1.600000e-06	-1.097983e-06	-1.704040e-09	-7.809875e+00	-1.157046e+02
1.610000e-06	-1.053023e-06	-1.687304e-09	-7.490077e+00	-1.147720e+02
1.620000e-06	-1.007988e-06	-1.671513e-09	-7.169745e+00	-1.138202e+02
1.630000e-06	-9.628863e-07	-1.657095e-09	-6.848942e+00	-1.128485e+02
1.640000e-06	-9.177838e-07	-1.640288e-09	-6.528132e+00	-1.118563e+02
1.650000e-06	-8.725861e-07	-1.623409e-09	-6.206644e+00	-1.108428e+02
1.660000e-06	-8.272573e-07	-1.610889e-09	-5.884223e+00	-1.098070e+02
1.670000e-06	-7.818998e-07	-1.601554e-09	-5.561598e+00	-1.087482e+02
1.680000e-06	-7.364909e-07	-1.588267e-09	-5.238608e+00	-1.076651e+02
1.690000e-06	-6.909723e-07	-1.567251e-09	-4.914838e+00	-1.065567e+02
1.700000e-06	-6.455167e-07	-1.543402e-09	-4.591515e+00	-1.054217e+02
1.710000e-06	-6.000874e-07	-1.520370e-09	-4.268380e+00	-1.042589e+02
1.720000e-06	-5.545004e-07	-1.499531e-09	-3.944123e+00	-1.030668e+02
1.730000e-06	-5.088261e-07	-1.480042e-09	-3.619244e+00	-1.018442e+02
1.740000e-06	-4.631371e-07	-1.464776e-09	-3.294262e+00	-1.005894e+02
1.750000e-06	-4.174569e-07	-1.455230e-09	-2.969341e+00	-9.930108e+01
1.760000e-06	-3.718049e-07	-1.444058e-09	-2.644622e+00	-9.797758e+01
1.770000e-06	-3.261600e-07	-1.424297e-09	-2.319953e+00	-9.661737e+01
1.780000e-06	-2.804938e-07	-1.397346e-09	-1.995133e+00	-9.521892e+01
1.790000e-06	-2.347387e-07	-1.368164e-09	-1.669680e+00	-9.378070e+01
1.800000e-06	-1.889077e-07	-1.340102e-09	-1.343687e+00	-9.230121e+01
1.810000e-06	-1.430955e-07	-1.315622e-09	-1.017828e+00	-9.077900e+01
1.820000e-06	-9.730687e-08	-1.293034e-09	-6.921369e-01	-8.921269e+01
1.830000e-06	-5.152770e-08	-1.272774e-09	-3.665129e-01	-8.760094e+01
1.840000e-06	-5.733328e-09	-1.254173e-09	-4.078076e-02	-8.594255e+01
1.850000e-06	4.009128e-08	-1.235524e-09	2.851664e-01	-8.423636e+01
1.860000e-06	8.589261e-08	-1.209961e-09	6.109481e-01	-8.248135e+01
1.870000e-06	1.316585e-07	-1.176086e-09	9.364774e-01	-8.067661e+01
1.880000e-06	1.774181e-07	-1.142001e-09	1.261962e+00	-7.882134e+01
1.890000e-06	2.232073e-07	-1.111490e-09	1.587658e+00	-7.691487e+01
1.900000e-06	2.689989e-07	-1.081253e-09	1.913371e+00	-7.495664e+01
1.910000e-06	3.146967e-07	-1.050483e-09	2.238415e+00	-7.294625e+01
1.920000e-06	3.603261e-07	-1.022630e-09	2.562974e+00	-7.088340e+01
1.930000e-06	4.059791e-07	-9.975905e-10	2.887701e+00	-6.876793e+01
1.940000e-06	4.516368e-07	-9.711554e-10	3.212461e+00	-6.659978e+01
1.950000e-06	4.971916e-07	-9.400550e-10	3.536489e+00	-6.437904e+01
1.960000e-06	5.426946e-07	-9.039311e-10	3.860149e+00	-6.210588e+01
1.970000e-06	5.881701e-07	-8.657878e-10	4.183613e+00	-5.978061e+01
1.980000e-06	6.335922e-07	-8.257895e-10	4.506697e+00	-5.740361e+01
1.990000e-06	6.790011e-07	-7.846703e-10	4.829687e+00	-5.497539e+01
2.000000e-06	7.244435e-07	-7.456367e-10	5.152916e+00	-5.249651e+01
2.010000e-06	7.698740e-07	-7.099912e-10	5.476060e+00	-4.996766e+01
2.020000e-06	8.151822e-07	-6.769400e-10	5.798334e+00	-4.738959e+01
2.030000e-06	8.603804e-07	-6.440684e-10	6.119825e+00	-4.476312e+01
2.040000e-06	9.055380e-07	-6.086902e-10	6.441028e+00	-4.208916e+01
2.050000e-06	9.506431e-07	-5.671170e-10	6.761858e+00	-3.936869e+01
2.060000e-06	9.956303e-07	-5.223638e-10	7.081849e+00	-3.660278e+01
2.070000e-06	1.040527e-06	-4.770754e-10	7.401192e+00	-3.379256e+01
2.080000e-06	1.085357e-06	-4.335059e-10	7.720070e+00	-3.093926e+01
2.090000e-06	1.130081e-06	-3.905514e-10	8.038188e+00	-2.804417e+01
2.100000e-06	1.174708e-06	-3.494396e-10	8.355613e+00	-2.510868e+01
2.110000e-06	1.219293e-06	-3.117607e-10	8.672743e+00	-2.213431e+01
2.120000e-06	1.263854e-06	-2.746251e-10	8.989708e+00	-1.912263e+01
2.130000e-06	1.308318e-06	-2.326556e-10	9.305971e+00	-1.607536e+01
2.140000e-06	1.352606e-06	-1.850921e-10	9.620990e+00	-1.299432e+01
2.150000e-06	1.396792e-06	-1.347724e-10	9.935281e+00	-9.881469e+00
2.160000e-06	1.440886e-06	-8.414867e-11	1.024892e+01	-6.738896e+00
2.170000e-06	1.484844e-06	-3.553955e-11	1.056159e+01	-3.568826e+00
2.180000e-06	1.528761e-06	1.257717e-11	1.087397e+01	-3.736309e-01
2.190000e-06	1.572680e-06	5.970892e-11	1.118636e+01	2.844167e+00
2.200000e-06	1.616544e-06	1.042648e-10	1.149836e+01	6.081895e+00
2.210000e-06	1.660365e-06	1.495553e-10	1.181006e+01	9.336731e+00
2.220000e-06	1.704181e-06	1.987037e-10	1.212172e+01	1.260570e+01
2.230000e-06	1.747965e-06	2.501547e-10	1.243315e+01	1.588569e+01
2.240000e-06	1.791683e-06	3.021321e-10	1.274412e+01	1.917345e+01
2.250000e-06	1.835292e-06	3.526682e-10	1.305430e+01	2.246559e+01
2.260000e-06	1.878785e-06	4.005220e-10	1.336366e+01	2.575862e+01
2.270000e-06	1.922212e-06	4.483836e-10	1.367256e+01	2.904894e+01
2.280000e-06	1.965462e-06	4.976256e-10	1.398019e+01	3.233288e+01
2.290000e-06	2.008434e-06	5.463054e-10	1.428585e+01	3.560670e+01
2.300000e-06	2.051181e-06	5.946361e-10	1.458991e+01	3.886662e+01
2.310000e-06	2.093653e-06	6.423144e-10	1.489201e+01	4.210883e+01
2.320000e-06	2.135871e-06	6.892836e-10	1.519230e+01	4.532955e+01
2.330000e-06	2.177815e-06	7.343350e-10	1.549064e+01	4.852502e+01
2.340000e-06	2.219427e-06	7.774309e-10	1.578663e+01	5.169154e+01
2.350000e-06	2.260750e-06	8.224995e-10	1.608055e+01	5.482552e+01
2.360000e-06	2.301742e-06	8.699287e-10	1.637213e+01	5.792345e+01
2.370000e-06	2.342528e-06	9.153439e-10	1.666224e+01	6.098199e+01
2.380000e-06	2.383133e-06	9.586834e-10	1.695106e+01	6.399795e+01
2.390000e-06	2.423491e-06	1.000109e-09	1.723812e+01	6.696834e+01
2.400000e-06	2.463730e-06	1.038878e-09	1.752434e+01	6.989037e+01
2.410000e-06	2.503872e-06	1.076079e-09	1.780986e+01	7.276149e+01
2.420000e-06	2.543875e-06	1.113066e-09	1.809440e+01	7.557938e+01
2.430000e-06	2.583762e-06	1.152586e-09	1.837811e+01	7.834201e+01
2.440000e-06	2.623575e-06	1.194323e-09	1.866130e+01	8.104759e+01
2.450000e-06	2.663301e-06	1.234532e-09	1.894387e+01	8.369461e+01
2.460000e-06	2.702897e-06	1.272892e-09	1.922551e+01	8.628184e+01
2.470000e-06	2.742330e-06	1.309261e-09	1.950600e+01	8.880833e+01
2.480000e-06	2.781576e-06	1.343573e-09	1.978516e+01	9.127340e+01
2.490000e-06	2.820625e-06	1.375859e-09	2.006291e+01	9.367664e+01
2.500000e-06	2.859524e-06	1.407068e-09	2.033959e+01	9.601788e+01
2.510000e-06	2.898248e-06	1.439995e-09	2.061503e+01	9.829720e+01
2.520000e-06	2.936640e-06	1.475752e-09	2.088812e+01	1.005149e+02
2.530000e-06	2.974764e-06	1.511684e-09	2.115929e+01	1.026715e+02
2.540000e-06	3.012692e-06	1.545325e-09	2.142907e+01	1.047677e+02
2.550000e-06	3.050418e-06	1.576897e-09	2.169741e+01	1.068043e+02
2.560000e-06	3.088024e-06	1.604108e-09	2.196490e+01	1.087823e+02
2.570000e-06	3.125457e-06	1.626684e-09	2.223115e+01	1.107028e+02
2.580000e-06	3.162578e-06	1.648098e-09	2.249520e+01	1.125671e+02
2.590000e-06	3.199435e-06	1.671799e-09	2.275736e+01	1.143763e+02
2.600000e-06	3.236133e-06	1.699159e-09	2.301839e+01	1.161318e+02
2.610000e-06	3.272573e-06	1.728063e-09	2.327758e+01	1.178349e+02
2.620000e-06	3.308738e-06	1.754606e-09	2.353482e+01	1.194870e+02
2.630000e-06	3.344823e-06	1.778675e-09	2.379149e+01	1.210894e+02
2.640000e-06	3.380816e-06	1.801109e-09	2.404751e+01	1.226433e+02
2.650000e-06	3.416616e-06	1.819201e-09	2.430215e+01	1.241500e+02
2.660000e-06	3.452255e-06	1.834131e-09	2.455565e+01	1.256108e+02
2.670000e-06	3.487761e-06	1.851145e-09	2.480820e+01	1.270268e+02
2.680000e-06	3.523054e-06	1.872274e-09	2.505924e+01	1.283991e+02
2.690000e-06	3.558078e-06	1.895516e-09	2.530836e+01	1.297287e+02
2.700000e-06	3.592771e-06	1.918209e-09	2.555513e+01	1.310166e+02
2.710000e-06	3.626995e-06	1.939697e-09	2.579856e+01	1.322637e+02
2.720000e-06	3.660741e-06	1.959621e-09	2.603859e+01	1.334709e+02
2.730000e-06	3.694020e-06	1.975965e-09	2.627530e+01	1.346390e+02
2.740000e-06	3.726839e-06	1.988147e-09	2.650874e+01	1.357687e+02
2.750000e-06	3.759330e-06	2.000706e-09	2.673985e+01	1.368609e+02
2.760000e-06	3.791596e-06	2.016322e-09	2.696936e+01	1.379162e+02
2.770000e-06	3.823667e-06	2.032784e-09	2.719748e+01	1.389353e+02
2.780000e-06	3.855548e-06	2.047310e-09	2.742424e+01	1.399191e+02
2.790000e-06	3.887237e-06	2.060325e-09	2.764964e+01	1.408682e+02
2.800000e-06	3.918773e-06	2.075676e-09	2.787395e+01	1.417835e+02
2.810000e-06	3.950078e-06	2.092538e-09	2.809663e+01	1.426656e+02
2.820000e-06	3.981103e-06	2.104342e-09	2.831730e+01	1.435155e+02
2.830000e-06	4.011853e-06	2.112267e-09	2.853603e+01	1.443341e+02
2.840000e-06	4.042300e-06	2.124129e-09	2.875260e+01	1.451222e+02
2.850000e-06	4.072460e-06	2.140519e-09	2.896712e+01	1.458808e+02
2.860000e-06	4.102379e-06	2.154774e-09	2.917994e+01	1.466109e+02
2.870000e-06	4.132062e-06	2.164138e-09	2.939107e+01	1.473136e+02
2.880000e-06	4.161445e-06	2.171396e-09	2.960007e+01	1.479901e+02
2.890000e-06	4.190537e-06	2.179640e-09	2.980700e+01	1.486413e+02
2.900000e-06	4.219384e-06	2.187215e-09	3.001218e+01	1.492685e+02
