# Temperatura_=_14.1
# Concentracion g/m^3_=_4090.0
# C_Vs_to_Am_M_A/Vsm_=_65563218390.804596
# pendiente_HvsI_1/m_=_3716.3
# ordenada_HvsI_A/m_=_1297.0
# frecuencia_Hz_=_135080.6531671525

Tiempo_(s)	Campo_(V.s)	Magnetizacion_(V.s)	Campo_(kA/m)	Magnetizacion_(A/m)
0.000000e+00	-5.417726e-06	-2.338391e-09	-3.839226e+01	-1.545406e+02
1.000000e-08	-5.417805e-06	-2.336133e-09	-3.839282e+01	-1.544884e+02
2.000000e-08	-5.417610e-06	-2.335436e-09	-3.839144e+01	-1.544378e+02
3.000000e-08	-5.417139e-06	-2.333153e-09	-3.838810e+01	-1.543896e+02
4.000000e-08	-5.416320e-06	-2.330846e-09	-3.838230e+01	-1.543449e+02
5.000000e-08	-5.414864e-06	-2.334983e-09	-3.837197e+01	-1.543045e+02
6.000000e-08	-5.412727e-06	-2.342323e-09	-3.835684e+01	-1.542693e+02
7.000000e-08	-5.410044e-06	-2.320270e-09	-3.833782e+01	-1.542399e+02
8.000000e-08	-5.406814e-06	-2.286155e-09	-3.831493e+01	-1.542172e+02
9.000000e-08	-5.403047e-06	-2.359480e-09	-3.828824e+01	-1.542015e+02
1.000000e-07	-5.398902e-06	-2.497958e-09	-3.825886e+01	-1.541932e+02
1.100000e-07	-5.394584e-06	-2.389834e-09	-3.822827e+01	-1.541928e+02
1.200000e-07	-5.390149e-06	-2.207651e-09	-3.819684e+01	-1.542001e+02
1.300000e-07	-5.385390e-06	-2.283565e-09	-3.816311e+01	-1.542153e+02
1.400000e-07	-5.380072e-06	-2.479951e-09	-3.812542e+01	-1.542381e+02
1.500000e-07	-5.374253e-06	-2.397609e-09	-3.808419e+01	-1.542682e+02
1.600000e-07	-5.368215e-06	-2.144458e-09	-3.804140e+01	-1.543049e+02
1.700000e-07	-5.361832e-06	-2.288191e-09	-3.799617e+01	-1.543477e+02
1.800000e-07	-5.354856e-06	-2.546013e-09	-3.794673e+01	-1.543957e+02
1.900000e-07	-5.347530e-06	-2.466382e-09	-3.789482e+01	-1.544479e+02
2.000000e-07	-5.340092e-06	-2.252917e-09	-3.784211e+01	-1.545034e+02
2.100000e-07	-5.332425e-06	-2.368037e-09	-3.778778e+01	-1.545609e+02
2.200000e-07	-5.324418e-06	-2.505819e-09	-3.773104e+01	-1.546192e+02
2.300000e-07	-5.316155e-06	-2.368370e-09	-3.767248e+01	-1.546771e+02
2.400000e-07	-5.307581e-06	-2.307941e-09	-3.761172e+01	-1.547331e+02
2.500000e-07	-5.298430e-06	-2.494189e-09	-3.754688e+01	-1.547859e+02
2.600000e-07	-5.288499e-06	-2.538903e-09	-3.747650e+01	-1.548342e+02
2.700000e-07	-5.277946e-06	-2.386419e-09	-3.740172e+01	-1.548767e+02
2.800000e-07	-5.266950e-06	-2.449129e-09	-3.732380e+01	-1.549121e+02
2.900000e-07	-5.255560e-06	-2.573418e-09	-3.724308e+01	-1.549392e+02
3.000000e-07	-5.243796e-06	-2.429303e-09	-3.715972e+01	-1.549570e+02
3.100000e-07	-5.231599e-06	-2.318956e-09	-3.707328e+01	-1.549644e+02
3.200000e-07	-5.219019e-06	-2.507238e-09	-3.698414e+01	-1.549606e+02
3.300000e-07	-5.206007e-06	-2.556217e-09	-3.689193e+01	-1.549450e+02
3.400000e-07	-5.192615e-06	-2.384727e-09	-3.679703e+01	-1.549169e+02
3.500000e-07	-5.178904e-06	-2.399736e-09	-3.669987e+01	-1.548758e+02
3.600000e-07	-5.164795e-06	-2.523152e-09	-3.659988e+01	-1.548217e+02
3.700000e-07	-5.150296e-06	-2.432803e-09	-3.649714e+01	-1.547542e+02
3.800000e-07	-5.135212e-06	-2.361561e-09	-3.639024e+01	-1.546736e+02
3.900000e-07	-5.119343e-06	-2.437235e-09	-3.627779e+01	-1.545799e+02
4.000000e-07	-5.102875e-06	-2.432024e-09	-3.616109e+01	-1.544736e+02
4.100000e-07	-5.086184e-06	-2.377918e-09	-3.604281e+01	-1.543552e+02
4.200000e-07	-5.069301e-06	-2.453638e-09	-3.592317e+01	-1.542251e+02
4.300000e-07	-5.052060e-06	-2.456158e-09	-3.580100e+01	-1.540841e+02
4.400000e-07	-5.034583e-06	-2.358733e-09	-3.567715e+01	-1.539329e+02
4.500000e-07	-5.016876e-06	-2.380827e-09	-3.555167e+01	-1.537725e+02
4.600000e-07	-4.998709e-06	-2.450607e-09	-3.542293e+01	-1.536036e+02
4.700000e-07	-4.980084e-06	-2.396289e-09	-3.529094e+01	-1.534273e+02
4.800000e-07	-4.961094e-06	-2.362871e-09	-3.515638e+01	-1.532443e+02
4.900000e-07	-4.941776e-06	-2.411265e-09	-3.501948e+01	-1.530557e+02
5.000000e-07	-4.922109e-06	-2.421251e-09	-3.488011e+01	-1.528623e+02
5.100000e-07	-4.902119e-06	-2.399262e-09	-3.473845e+01	-1.526649e+02
5.200000e-07	-4.881929e-06	-2.388392e-09	-3.459537e+01	-1.524643e+02
5.300000e-07	-4.861609e-06	-2.365150e-09	-3.445138e+01	-1.522613e+02
5.400000e-07	-4.841025e-06	-2.370566e-09	-3.430552e+01	-1.520564e+02
5.500000e-07	-4.820057e-06	-2.403533e-09	-3.415692e+01	-1.518501e+02
5.600000e-07	-4.798671e-06	-2.382475e-09	-3.400538e+01	-1.516429e+02
5.700000e-07	-4.776898e-06	-2.356630e-09	-3.385108e+01	-1.514352e+02
5.800000e-07	-4.754822e-06	-2.378832e-09	-3.369465e+01	-1.512271e+02
5.900000e-07	-4.732434e-06	-2.389098e-09	-3.353599e+01	-1.510186e+02
6.000000e-07	-4.709678e-06	-2.359332e-09	-3.337474e+01	-1.508100e+02
6.100000e-07	-4.686606e-06	-2.340225e-09	-3.321124e+01	-1.506010e+02
6.200000e-07	-4.663304e-06	-2.330716e-09	-3.304611e+01	-1.503914e+02
6.300000e-07	-4.639646e-06	-2.344644e-09	-3.287846e+01	-1.501812e+02
6.400000e-07	-4.615691e-06	-2.363361e-09	-3.270871e+01	-1.499698e+02
6.500000e-07	-4.591554e-06	-2.346327e-09	-3.253766e+01	-1.497569e+02
6.600000e-07	-4.567271e-06	-2.320367e-09	-3.236558e+01	-1.495423e+02
6.700000e-07	-4.542723e-06	-2.338931e-09	-3.219162e+01	-1.493252e+02
6.800000e-07	-4.517694e-06	-2.347182e-09	-3.201426e+01	-1.491055e+02
6.900000e-07	-4.492137e-06	-2.320282e-09	-3.183315e+01	-1.488825e+02
7.000000e-07	-4.466039e-06	-2.300445e-09	-3.164821e+01	-1.486558e+02
7.100000e-07	-4.439398e-06	-2.311740e-09	-3.145942e+01	-1.484250e+02
7.200000e-07	-4.412243e-06	-2.323152e-09	-3.126698e+01	-1.481897e+02
7.300000e-07	-4.384727e-06	-2.318559e-09	-3.107200e+01	-1.479497e+02
7.400000e-07	-4.356993e-06	-2.296002e-09	-3.087546e+01	-1.477044e+02
7.500000e-07	-4.329077e-06	-2.288491e-09	-3.067764e+01	-1.474539e+02
7.600000e-07	-4.300991e-06	-2.299174e-09	-3.047861e+01	-1.471977e+02
7.700000e-07	-4.272679e-06	-2.292381e-09	-3.027798e+01	-1.469360e+02
7.800000e-07	-4.244091e-06	-2.266999e-09	-3.007539e+01	-1.466685e+02
7.900000e-07	-4.215278e-06	-2.259400e-09	-2.987121e+01	-1.463954e+02
8.000000e-07	-4.186204e-06	-2.272054e-09	-2.966518e+01	-1.461167e+02
8.100000e-07	-4.156729e-06	-2.276223e-09	-2.945631e+01	-1.458326e+02
8.200000e-07	-4.126886e-06	-2.262392e-09	-2.924483e+01	-1.455432e+02
8.300000e-07	-4.096832e-06	-2.246032e-09	-2.903185e+01	-1.452488e+02
8.400000e-07	-4.066507e-06	-2.245101e-09	-2.881696e+01	-1.449497e+02
8.500000e-07	-4.035828e-06	-2.248787e-09	-2.859955e+01	-1.446461e+02
8.600000e-07	-4.004957e-06	-2.234225e-09	-2.838079e+01	-1.443384e+02
8.700000e-07	-3.973921e-06	-2.212017e-09	-2.816086e+01	-1.440269e+02
8.800000e-07	-3.942608e-06	-2.209016e-09	-2.793896e+01	-1.437119e+02
8.900000e-07	-3.911012e-06	-2.222079e-09	-2.771506e+01	-1.433938e+02
9.000000e-07	-3.879203e-06	-2.224680e-09	-2.748964e+01	-1.430727e+02
9.100000e-07	-3.847222e-06	-2.206767e-09	-2.726301e+01	-1.427489e+02
9.200000e-07	-3.815067e-06	-2.195853e-09	-2.703515e+01	-1.424227e+02
9.300000e-07	-3.782723e-06	-2.195847e-09	-2.680595e+01	-1.420942e+02
9.400000e-07	-3.750121e-06	-2.192464e-09	-2.657491e+01	-1.417635e+02
9.500000e-07	-3.717218e-06	-2.177821e-09	-2.634175e+01	-1.414308e+02
9.600000e-07	-3.683926e-06	-2.170463e-09	-2.610583e+01	-1.410959e+02
9.700000e-07	-3.650113e-06	-2.177402e-09	-2.586621e+01	-1.407588e+02
9.800000e-07	-3.615777e-06	-2.180338e-09	-2.562290e+01	-1.404195e+02
9.900000e-07	-3.581133e-06	-2.161637e-09	-2.537740e+01	-1.400778e+02
1.000000e-06	-3.546168e-06	-2.142068e-09	-2.512962e+01	-1.397334e+02
1.010000e-06	-3.510745e-06	-2.135207e-09	-2.487860e+01	-1.393860e+02
1.020000e-06	-3.474969e-06	-2.130196e-09	-2.462507e+01	-1.390355e+02
1.030000e-06	-3.438992e-06	-2.115431e-09	-2.437013e+01	-1.386813e+02
1.040000e-06	-3.402961e-06	-2.107438e-09	-2.411480e+01	-1.383233e+02
1.050000e-06	-3.366874e-06	-2.110691e-09	-2.385907e+01	-1.379609e+02
1.060000e-06	-3.330658e-06	-2.113347e-09	-2.360243e+01	-1.375937e+02
1.070000e-06	-3.294300e-06	-2.103302e-09	-2.334478e+01	-1.372215e+02
1.080000e-06	-3.257695e-06	-2.085275e-09	-2.308538e+01	-1.368436e+02
1.090000e-06	-3.220789e-06	-2.072720e-09	-2.282385e+01	-1.364599e+02
1.100000e-06	-3.183543e-06	-2.069961e-09	-2.255991e+01	-1.360698e+02
1.110000e-06	-3.146074e-06	-2.063801e-09	-2.229439e+01	-1.356730e+02
1.120000e-06	-3.108469e-06	-2.051940e-09	-2.202790e+01	-1.352691e+02
1.130000e-06	-3.070585e-06	-2.044951e-09	-2.175944e+01	-1.348580e+02
1.140000e-06	-3.032514e-06	-2.048606e-09	-2.148965e+01	-1.344392e+02
1.150000e-06	-2.994305e-06	-2.048010e-09	-2.121889e+01	-1.340126e+02
1.160000e-06	-2.955850e-06	-2.032412e-09	-2.094638e+01	-1.335780e+02
1.170000e-06	-2.917197e-06	-2.014893e-09	-2.067247e+01	-1.331352e+02
1.180000e-06	-2.878407e-06	-2.005521e-09	-2.039759e+01	-1.326841e+02
1.190000e-06	-2.839383e-06	-2.002348e-09	-2.012105e+01	-1.322246e+02
1.200000e-06	-2.800103e-06	-1.991093e-09	-1.984269e+01	-1.317566e+02
1.210000e-06	-2.760678e-06	-1.977724e-09	-1.956331e+01	-1.312800e+02
1.220000e-06	-2.721131e-06	-1.974147e-09	-1.928307e+01	-1.307950e+02
1.230000e-06	-2.681414e-06	-1.976080e-09	-1.900161e+01	-1.303014e+02
1.240000e-06	-2.641551e-06	-1.968678e-09	-1.871912e+01	-1.297992e+02
1.250000e-06	-2.601620e-06	-1.956116e-09	-1.843616e+01	-1.292886e+02
1.260000e-06	-2.561554e-06	-1.944398e-09	-1.815224e+01	-1.287694e+02
1.270000e-06	-2.521291e-06	-1.936755e-09	-1.786692e+01	-1.282417e+02
1.280000e-06	-2.480930e-06	-1.930325e-09	-1.758090e+01	-1.277054e+02
1.290000e-06	-2.440441e-06	-1.923396e-09	-1.729398e+01	-1.271606e+02
1.300000e-06	-2.399831e-06	-1.915212e-09	-1.700620e+01	-1.266071e+02
1.310000e-06	-2.359066e-06	-1.907949e-09	-1.671732e+01	-1.260450e+02
1.320000e-06	-2.318008e-06	-1.897461e-09	-1.642636e+01	-1.254740e+02
1.330000e-06	-2.276692e-06	-1.884579e-09	-1.613359e+01	-1.248942e+02
1.340000e-06	-2.235100e-06	-1.874488e-09	-1.583885e+01	-1.243052e+02
1.350000e-06	-2.193275e-06	-1.865078e-09	-1.554246e+01	-1.237070e+02
1.360000e-06	-2.151138e-06	-1.853942e-09	-1.524386e+01	-1.230993e+02
1.370000e-06	-2.108683e-06	-1.843031e-09	-1.494300e+01	-1.224819e+02
1.380000e-06	-2.066008e-06	-1.834167e-09	-1.464059e+01	-1.218545e+02
1.390000e-06	-2.023027e-06	-1.826386e-09	-1.433601e+01	-1.212168e+02
1.400000e-06	-1.979814e-06	-1.816993e-09	-1.402978e+01	-1.205685e+02
1.410000e-06	-1.936428e-06	-1.806694e-09	-1.372234e+01	-1.199093e+02
1.420000e-06	-1.892964e-06	-1.795756e-09	-1.341433e+01	-1.192389e+02
1.430000e-06	-1.849396e-06	-1.784038e-09	-1.310559e+01	-1.185568e+02
1.440000e-06	-1.805632e-06	-1.768342e-09	-1.279546e+01	-1.178627e+02
1.450000e-06	-1.761736e-06	-1.752412e-09	-1.248439e+01	-1.171562e+02
1.460000e-06	-1.717794e-06	-1.741796e-09	-1.217300e+01	-1.164370e+02
1.470000e-06	-1.673762e-06	-1.733225e-09	-1.186098e+01	-1.157047e+02
1.480000e-06	-1.629632e-06	-1.721432e-09	-1.154825e+01	-1.149588e+02
1.490000e-06	-1.585504e-06	-1.706541e-09	-1.123554e+01	-1.141990e+02
1.500000e-06	-1.541357e-06	-1.694059e-09	-1.092270e+01	-1.134249e+02
1.510000e-06	-1.497108e-06	-1.682724e-09	-1.060913e+01	-1.126360e+02
1.520000e-06	-1.452780e-06	-1.664928e-09	-1.029500e+01	-1.118320e+02
1.530000e-06	-1.408356e-06	-1.644644e-09	-9.980195e+00	-1.110123e+02
1.540000e-06	-1.363817e-06	-1.631404e-09	-9.664571e+00	-1.101765e+02
1.550000e-06	-1.319144e-06	-1.623789e-09	-9.348000e+00	-1.093241e+02
1.560000e-06	-1.274341e-06	-1.617147e-09	-9.030509e+00	-1.084545e+02
1.570000e-06	-1.229545e-06	-1.604320e-09	-8.713069e+00	-1.075673e+02
1.580000e-06	-1.184711e-06	-1.590591e-09	-8.395352e+00	-1.066617e+02
1.590000e-06	-1.139830e-06	-1.578110e-09	-8.077311e+00	-1.057372e+02
1.600000e-06	-1.094829e-06	-1.562676e-09	-7.758416e+00	-1.047929e+02
1.610000e-06	-1.049669e-06	-1.539882e-09	-7.438390e+00	-1.038281e+02
1.620000e-06	-1.004538e-06	-1.518454e-09	-7.118571e+00	-1.028420e+02
1.630000e-06	-9.593809e-07	-1.503855e-09	-6.798572e+00	-1.018335e+02
1.640000e-06	-9.140827e-07	-1.491380e-09	-6.477570e+00	-1.008018e+02
1.650000e-06	-8.686079e-07	-1.476392e-09	-6.155317e+00	-9.974571e+01
1.660000e-06	-8.230219e-07	-1.460798e-09	-5.832275e+00	-9.866409e+01
1.670000e-06	-7.774930e-07	-1.448214e-09	-5.509638e+00	-9.755572e+01
1.680000e-06	-7.319419e-07	-1.431526e-09	-5.186845e+00	-9.641932e+01
1.690000e-06	-6.862383e-07	-1.407441e-09	-4.862970e+00	-9.525351e+01
1.700000e-06	-6.404959e-07	-1.381804e-09	-4.538820e+00	-9.405688e+01
1.710000e-06	-5.947529e-07	-1.362329e-09	-4.214666e+00	-9.282795e+01
1.720000e-06	-5.489775e-07	-1.347462e-09	-3.890283e+00	-9.156520e+01
1.730000e-06	-5.031823e-07	-1.328514e-09	-3.565759e+00	-9.026710e+01
1.740000e-06	-4.573090e-07	-1.306498e-09	-3.240681e+00	-8.893207e+01
1.750000e-06	-4.114017e-07	-1.289352e-09	-2.915363e+00	-8.755854e+01
1.760000e-06	-3.654890e-07	-1.274196e-09	-2.590007e+00	-8.614494e+01
1.770000e-06	-3.196032e-07	-1.250706e-09	-2.264841e+00	-8.468974e+01
1.780000e-06	-2.736744e-07	-1.218966e-09	-1.939371e+00	-8.319143e+01
1.790000e-06	-2.276710e-07	-1.191682e-09	-1.613371e+00	-8.164857e+01
1.800000e-06	-1.817010e-07	-1.172282e-09	-1.287609e+00	-8.005978e+01
1.810000e-06	-1.357231e-07	-1.151251e-09	-9.617901e-01	-7.842376e+01
1.820000e-06	-8.976058e-08	-1.123502e-09	-6.360808e-01	-7.673934e+01
1.830000e-06	-4.381147e-08	-1.097364e-09	-3.104663e-01	-7.500543e+01
1.840000e-06	2.078767e-09	-1.075596e-09	1.473101e-02	-7.322109e+01
1.850000e-06	4.792835e-08	-1.051703e-09	3.396402e-01	-7.138552e+01
1.860000e-06	9.381274e-08	-1.019607e-09	6.647960e-01	-6.949806e+01
1.870000e-06	1.396969e-07	-9.854962e-10	9.899502e-01	-6.755820e+01
1.880000e-06	1.856578e-07	-9.580149e-10	1.315648e+00	-6.556564e+01
1.890000e-06	2.316155e-07	-9.308890e-10	1.641323e+00	-6.352019e+01
1.900000e-06	2.775002e-07	-8.953772e-10	1.966482e+00	-6.142189e+01
1.910000e-06	3.233879e-07	-8.589522e-10	2.291661e+00	-5.927091e+01
1.920000e-06	3.692434e-07	-8.328522e-10	2.616612e+00	-5.706764e+01
1.930000e-06	4.151191e-07	-8.122610e-10	2.941706e+00	-5.481260e+01
1.940000e-06	4.609721e-07	-7.828586e-10	3.266640e+00	-5.250652e+01
1.950000e-06	5.067656e-07	-7.441709e-10	3.591152e+00	-5.015025e+01
1.960000e-06	5.525463e-07	-7.079529e-10	3.915573e+00	-4.774484e+01
1.970000e-06	5.982749e-07	-6.745190e-10	4.239624e+00	-4.529145e+01
1.980000e-06	6.439565e-07	-6.359073e-10	4.563343e+00	-4.279142e+01
1.990000e-06	6.895625e-07	-5.925309e-10	4.886527e+00	-4.024618e+01
2.000000e-06	7.351063e-07	-5.547700e-10	5.209269e+00	-3.765730e+01
2.010000e-06	7.805696e-07	-5.249379e-10	5.531440e+00	-3.502647e+01
2.020000e-06	8.260099e-07	-4.933759e-10	5.853450e+00	-3.235545e+01
2.030000e-06	8.714169e-07	-4.533352e-10	6.175222e+00	-2.964611e+01
2.040000e-06	9.167019e-07	-4.115411e-10	6.496130e+00	-2.690039e+01
2.050000e-06	9.618749e-07	-3.727304e-10	6.816246e+00	-2.412029e+01
2.060000e-06	1.006983e-06	-3.315504e-10	7.135900e+00	-2.130789e+01
2.070000e-06	1.052111e-06	-2.848402e-10	7.455695e+00	-1.846531e+01
2.080000e-06	1.097149e-06	-2.383606e-10	7.774857e+00	-1.559471e+01
2.090000e-06	1.142079e-06	-1.981182e-10	8.093250e+00	-1.269830e+01
2.100000e-06	1.186908e-06	-1.614452e-10	8.410920e+00	-9.778315e+00
2.110000e-06	1.231554e-06	-1.202244e-10	8.727302e+00	-6.837022e+00
2.120000e-06	1.276078e-06	-7.830368e-11	9.042820e+00	-3.876718e+00
2.130000e-06	1.320525e-06	-3.877084e-11	9.357785e+00	-8.997256e-01
2.140000e-06	1.364983e-06	3.554639e-12	9.672840e+00	2.091609e+00
2.150000e-06	1.409388e-06	5.386350e-11	9.987512e+00	5.094917e+00
2.160000e-06	1.453685e-06	1.047134e-10	1.030141e+01	8.107803e+00
2.170000e-06	1.497915e-06	1.463060e-10	1.061485e+01	1.112785e+01
2.180000e-06	1.542060e-06	1.833585e-10	1.092768e+01	1.415262e+01
2.190000e-06	1.586191e-06	2.243394e-10	1.124041e+01	1.717964e+01
2.200000e-06	1.630284e-06	2.695368e-10	1.155287e+01	2.020643e+01
2.210000e-06	1.674314e-06	3.146184e-10	1.186489e+01	2.323046e+01
2.220000e-06	1.718333e-06	3.582328e-10	1.217682e+01	2.624921e+01
2.230000e-06	1.762290e-06	4.029217e-10	1.248832e+01	2.926012e+01
2.240000e-06	1.806125e-06	4.498665e-10	1.279895e+01	3.226061e+01
2.250000e-06	1.849863e-06	4.920205e-10	1.310890e+01	3.524811e+01
2.260000e-06	1.893541e-06	5.302257e-10	1.341841e+01	3.822001e+01
2.270000e-06	1.937015e-06	5.711532e-10	1.372650e+01	4.117372e+01
2.280000e-06	1.980327e-06	6.173699e-10	1.403342e+01	4.410667e+01
2.290000e-06	2.023619e-06	6.648679e-10	1.434020e+01	4.701627e+01
2.300000e-06	2.066667e-06	7.116026e-10	1.464526e+01	4.990000e+01
2.310000e-06	2.109356e-06	7.552837e-10	1.494777e+01	5.275534e+01
2.320000e-06	2.151741e-06	7.952068e-10	1.524813e+01	5.557985e+01
2.330000e-06	2.193801e-06	8.314962e-10	1.554619e+01	5.837114e+01
2.340000e-06	2.235548e-06	8.641067e-10	1.584202e+01	6.112690e+01
2.350000e-06	2.276986e-06	8.986132e-10	1.613567e+01	6.384490e+01
2.360000e-06	2.318181e-06	9.402474e-10	1.642760e+01	6.652303e+01
2.370000e-06	2.359130e-06	9.857636e-10	1.671778e+01	6.915929e+01
2.380000e-06	2.399766e-06	1.030437e-09	1.700574e+01	7.175180e+01
2.390000e-06	2.440184e-06	1.070961e-09	1.729216e+01	7.429885e+01
2.400000e-06	2.480535e-06	1.108505e-09	1.757810e+01	7.679885e+01
2.410000e-06	2.520783e-06	1.143155e-09	1.786332e+01	7.925039e+01
2.420000e-06	2.560898e-06	1.170583e-09	1.814759e+01	8.165223e+01
2.430000e-06	2.600964e-06	1.196289e-09	1.843151e+01	8.400330e+01
2.440000e-06	2.640931e-06	1.227485e-09	1.871474e+01	8.630272e+01
2.450000e-06	2.680723e-06	1.264199e-09	1.899671e+01	8.854978e+01
2.460000e-06	2.720352e-06	1.300506e-09	1.927754e+01	9.074396e+01
2.470000e-06	2.759868e-06	1.333783e-09	1.955757e+01	9.288493e+01
2.480000e-06	2.799244e-06	1.366329e-09	1.983661e+01	9.497252e+01
2.490000e-06	2.838450e-06	1.397159e-09	2.011444e+01	9.700675e+01
2.500000e-06	2.877339e-06	1.423028e-09	2.039002e+01	9.898778e+01
2.510000e-06	2.915904e-06	1.446404e-09	2.066331e+01	1.009159e+02
2.520000e-06	2.954335e-06	1.471593e-09	2.093565e+01	1.027917e+02
2.530000e-06	2.992585e-06	1.500267e-09	2.120670e+01	1.046156e+02
2.540000e-06	3.030710e-06	1.529498e-09	2.147687e+01	1.063885e+02
2.550000e-06	3.068723e-06	1.558756e-09	2.174625e+01	1.081110e+02
2.560000e-06	3.106467e-06	1.586722e-09	2.201372e+01	1.097842e+02
2.570000e-06	3.143961e-06	1.611550e-09	2.227941e+01	1.114088e+02
2.580000e-06	3.181261e-06	1.633847e-09	2.254374e+01	1.129860e+02
2.590000e-06	3.218298e-06	1.653522e-09	2.280620e+01	1.145168e+02
2.600000e-06	3.255055e-06	1.672312e-09	2.306668e+01	1.160022e+02
2.610000e-06	3.291622e-06	1.692774e-09	2.332580e+01	1.174433e+02
2.620000e-06	3.327998e-06	1.713968e-09	2.358358e+01	1.188411e+02
2.630000e-06	3.364196e-06	1.733671e-09	2.384009e+01	1.201967e+02
2.640000e-06	3.400296e-06	1.753112e-09	2.409591e+01	1.215111e+02
2.650000e-06	3.436278e-06	1.771720e-09	2.435089e+01	1.227852e+02
2.660000e-06	3.472114e-06	1.788147e-09	2.460484e+01	1.240200e+02
2.670000e-06	3.507739e-06	1.803452e-09	2.485730e+01	1.252163e+02
2.680000e-06	3.543088e-06	1.819412e-09	2.510780e+01	1.263750e+02
2.690000e-06	3.578170e-06	1.834326e-09	2.535640e+01	1.274968e+02
2.700000e-06	3.612841e-06	1.848817e-09	2.560209e+01	1.285825e+02
2.710000e-06	3.647048e-06	1.864858e-09	2.584450e+01	1.296327e+02
2.720000e-06	3.680727e-06	1.881430e-09	2.608316e+01	1.306481e+02
2.730000e-06	3.713926e-06	1.895944e-09	2.631842e+01	1.316293e+02
2.740000e-06	3.746767e-06	1.907996e-09	2.655115e+01	1.325768e+02
2.750000e-06	3.779343e-06	1.921772e-09	2.678199e+01	1.334913e+02
2.760000e-06	3.811721e-06	1.936694e-09	2.701144e+01	1.343733e+02
2.770000e-06	3.843937e-06	1.950897e-09	2.723973e+01	1.352234e+02
2.780000e-06	3.876037e-06	1.963840e-09	2.746721e+01	1.360421e+02
2.790000e-06	3.908004e-06	1.975148e-09	2.769374e+01	1.368301e+02
2.800000e-06	3.939687e-06	1.986675e-09	2.791826e+01	1.375878e+02
2.810000e-06	3.971038e-06	1.999636e-09	2.814042e+01	1.383161e+02
2.820000e-06	4.002150e-06	2.009084e-09	2.836090e+01	1.390156e+02
2.830000e-06	4.032920e-06	2.014609e-09	2.857895e+01	1.396870e+02
2.840000e-06	4.063464e-06	2.022808e-09	2.879539e+01	1.403312e+02
2.850000e-06	4.093763e-06	2.035009e-09	2.901011e+01	1.409490e+02
2.860000e-06	4.123726e-06	2.048273e-09	2.922244e+01	1.415413e+02
2.870000e-06	4.153429e-06	2.058986e-09	2.943293e+01	1.421090e+02
2.880000e-06	4.182815e-06	2.064803e-09	2.964117e+01	1.426531e+02
2.890000e-06	4.211947e-06	2.069518e-09	2.984761e+01	1.431747e+02
2.900000e-06	4.240890e-06	2.076163e-09	3.005271e+01	1.436749e+02
