# Temperatura_=_-1.14
# Concentracion g/m^3_=_4090.0
# C_Vs_to_Am_M_A/Vsm_=_65563218390.804596
# pendiente_HvsI_1/m_=_3716.3
# ordenada_HvsI_A/m_=_1297.0
# frecuencia_Hz_=_135062.5097954047

Tiempo_(s)	Campo_(V.s)	Magnetizacion_(V.s)	Campo_(kA/m)	Magnetizacion_(A/m)
0.000000e+00	-5.411365e-06	-2.627987e-09	-3.839933e+01	-1.690756e+02
1.000000e-08	-5.411609e-06	-2.629601e-09	-3.840106e+01	-1.689816e+02
2.000000e-08	-5.411679e-06	-2.626182e-09	-3.840156e+01	-1.688874e+02
3.000000e-08	-5.411427e-06	-2.620873e-09	-3.839977e+01	-1.687944e+02
4.000000e-08	-5.410750e-06	-2.618472e-09	-3.839497e+01	-1.687039e+02
5.000000e-08	-5.409697e-06	-2.617457e-09	-3.838750e+01	-1.686171e+02
6.000000e-08	-5.408112e-06	-2.617945e-09	-3.837625e+01	-1.685352e+02
7.000000e-08	-5.405855e-06	-2.629530e-09	-3.836023e+01	-1.684592e+02
8.000000e-08	-5.403016e-06	-2.626038e-09	-3.834009e+01	-1.683903e+02
9.000000e-08	-5.399582e-06	-2.588415e-09	-3.831572e+01	-1.683292e+02
1.000000e-07	-5.395637e-06	-2.607460e-09	-3.828773e+01	-1.682767e+02
1.100000e-07	-5.391436e-06	-2.697524e-09	-3.825792e+01	-1.682335e+02
1.200000e-07	-5.387121e-06	-2.625124e-09	-3.822729e+01	-1.681999e+02
1.300000e-07	-5.382570e-06	-2.563484e-09	-3.819501e+01	-1.681763e+02
1.400000e-07	-5.377546e-06	-2.564710e-09	-3.815935e+01	-1.681626e+02
1.500000e-07	-5.372116e-06	-2.695792e-09	-3.812082e+01	-1.681588e+02
1.600000e-07	-5.366415e-06	-2.642320e-09	-3.808036e+01	-1.681646e+02
1.700000e-07	-5.360331e-06	-2.501634e-09	-3.803719e+01	-1.681794e+02
1.800000e-07	-5.353754e-06	-2.583098e-09	-3.799052e+01	-1.682026e+02
1.900000e-07	-5.346756e-06	-2.673857e-09	-3.794086e+01	-1.682334e+02
2.000000e-07	-5.339534e-06	-2.639105e-09	-3.788961e+01	-1.682707e+02
2.100000e-07	-5.332088e-06	-2.503972e-09	-3.783678e+01	-1.683135e+02
2.200000e-07	-5.324337e-06	-2.621872e-09	-3.778178e+01	-1.683604e+02
2.300000e-07	-5.316309e-06	-2.660472e-09	-3.772481e+01	-1.684101e+02
2.400000e-07	-5.307975e-06	-2.595907e-09	-3.766567e+01	-1.684613e+02
2.500000e-07	-5.299056e-06	-2.544381e-09	-3.760238e+01	-1.685123e+02
2.600000e-07	-5.289417e-06	-2.678398e-09	-3.753398e+01	-1.685617e+02
2.700000e-07	-5.279213e-06	-2.657953e-09	-3.746157e+01	-1.686080e+02
2.800000e-07	-5.268548e-06	-2.573241e-09	-3.738590e+01	-1.686497e+02
2.900000e-07	-5.257373e-06	-2.609807e-09	-3.730660e+01	-1.686853e+02
3.000000e-07	-5.245773e-06	-2.689530e-09	-3.722429e+01	-1.687135e+02
3.100000e-07	-5.233842e-06	-2.594148e-09	-3.713962e+01	-1.687330e+02
3.200000e-07	-5.221535e-06	-2.539217e-09	-3.705229e+01	-1.687426e+02
3.300000e-07	-5.208755e-06	-2.629157e-09	-3.696160e+01	-1.687413e+02
3.400000e-07	-5.195573e-06	-2.623900e-09	-3.686806e+01	-1.687282e+02
3.500000e-07	-5.182010e-06	-2.551001e-09	-3.677182e+01	-1.687025e+02
3.600000e-07	-5.168091e-06	-2.591694e-09	-3.667305e+01	-1.686638e+02
3.700000e-07	-5.153744e-06	-2.642207e-09	-3.657124e+01	-1.686115e+02
3.800000e-07	-5.138815e-06	-2.570527e-09	-3.646531e+01	-1.685455e+02
3.900000e-07	-5.123345e-06	-2.569912e-09	-3.635553e+01	-1.684658e+02
4.000000e-07	-5.107382e-06	-2.613602e-09	-3.624226e+01	-1.683723e+02
4.100000e-07	-5.091047e-06	-2.577859e-09	-3.612634e+01	-1.682655e+02
4.200000e-07	-5.074355e-06	-2.528298e-09	-3.600789e+01	-1.681456e+02
4.300000e-07	-5.057285e-06	-2.594820e-09	-3.588676e+01	-1.680134e+02
4.400000e-07	-5.039895e-06	-2.584476e-09	-3.576337e+01	-1.678693e+02
4.500000e-07	-5.022268e-06	-2.552579e-09	-3.563828e+01	-1.677142e+02
4.600000e-07	-5.004322e-06	-2.560055e-09	-3.551093e+01	-1.675490e+02
4.700000e-07	-4.986041e-06	-2.594949e-09	-3.538121e+01	-1.673745e+02
4.800000e-07	-4.967319e-06	-2.546972e-09	-3.524836e+01	-1.671917e+02
4.900000e-07	-4.948077e-06	-2.550632e-09	-3.511182e+01	-1.670016e+02
5.000000e-07	-4.928503e-06	-2.541930e-09	-3.497292e+01	-1.668051e+02
5.100000e-07	-4.908770e-06	-2.535059e-09	-3.483289e+01	-1.666033e+02
5.200000e-07	-4.888867e-06	-2.526213e-09	-3.469166e+01	-1.663969e+02
5.300000e-07	-4.868728e-06	-2.547788e-09	-3.454875e+01	-1.661869e+02
5.400000e-07	-4.848311e-06	-2.522604e-09	-3.440387e+01	-1.659741e+02
5.500000e-07	-4.827551e-06	-2.530985e-09	-3.425656e+01	-1.657592e+02
5.600000e-07	-4.806424e-06	-2.535509e-09	-3.410664e+01	-1.655428e+02
5.700000e-07	-4.784947e-06	-2.524992e-09	-3.395424e+01	-1.653254e+02
5.800000e-07	-4.763092e-06	-2.502061e-09	-3.379916e+01	-1.651074e+02
5.900000e-07	-4.740961e-06	-2.505832e-09	-3.364211e+01	-1.648892e+02
6.000000e-07	-4.718576e-06	-2.494742e-09	-3.348326e+01	-1.646708e+02
6.100000e-07	-4.695823e-06	-2.494305e-09	-3.332181e+01	-1.644524e+02
6.200000e-07	-4.672734e-06	-2.494935e-09	-3.315797e+01	-1.642340e+02
6.300000e-07	-4.649312e-06	-2.483288e-09	-3.299177e+01	-1.640154e+02
6.400000e-07	-4.625646e-06	-2.481962e-09	-3.282383e+01	-1.637964e+02
6.500000e-07	-4.601802e-06	-2.489162e-09	-3.265463e+01	-1.635768e+02
6.600000e-07	-4.577693e-06	-2.481131e-09	-3.248355e+01	-1.633561e+02
6.700000e-07	-4.553343e-06	-2.465925e-09	-3.231076e+01	-1.631340e+02
6.800000e-07	-4.528559e-06	-2.470217e-09	-3.213489e+01	-1.629101e+02
6.900000e-07	-4.503230e-06	-2.462684e-09	-3.195516e+01	-1.626838e+02
7.000000e-07	-4.477361e-06	-2.461549e-09	-3.177159e+01	-1.624547e+02
7.100000e-07	-4.450876e-06	-2.455231e-09	-3.158365e+01	-1.622222e+02
7.200000e-07	-4.424052e-06	-2.456624e-09	-3.139331e+01	-1.619861e+02
7.300000e-07	-4.396988e-06	-2.448080e-09	-3.120126e+01	-1.617457e+02
7.400000e-07	-4.369534e-06	-2.452616e-09	-3.100645e+01	-1.615007e+02
7.500000e-07	-4.341774e-06	-2.439662e-09	-3.080946e+01	-1.612507e+02
7.600000e-07	-4.313867e-06	-2.438211e-09	-3.061143e+01	-1.609954e+02
7.700000e-07	-4.285783e-06	-2.428932e-09	-3.041214e+01	-1.607346e+02
7.800000e-07	-4.257498e-06	-2.427204e-09	-3.021143e+01	-1.604682e+02
7.900000e-07	-4.229010e-06	-2.414569e-09	-3.000928e+01	-1.601959e+02
8.000000e-07	-4.200169e-06	-2.414203e-09	-2.980463e+01	-1.599177e+02
8.100000e-07	-4.170930e-06	-2.404060e-09	-2.959714e+01	-1.596337e+02
8.200000e-07	-4.141398e-06	-2.403442e-09	-2.938758e+01	-1.593440e+02
8.300000e-07	-4.111598e-06	-2.395433e-09	-2.917612e+01	-1.590485e+02
8.400000e-07	-4.081480e-06	-2.392183e-09	-2.896240e+01	-1.587476e+02
8.500000e-07	-4.051072e-06	-2.384096e-09	-2.874662e+01	-1.584415e+02
8.600000e-07	-4.020480e-06	-2.385255e-09	-2.852954e+01	-1.581303e+02
8.700000e-07	-3.989653e-06	-2.377248e-09	-2.831079e+01	-1.578144e+02
8.800000e-07	-3.958558e-06	-2.368369e-09	-2.809014e+01	-1.574941e+02
8.900000e-07	-3.927253e-06	-2.355940e-09	-2.786800e+01	-1.571697e+02
9.000000e-07	-3.895720e-06	-2.353117e-09	-2.764424e+01	-1.568414e+02
9.100000e-07	-3.863971e-06	-2.350967e-09	-2.741894e+01	-1.565095e+02
9.200000e-07	-3.831999e-06	-2.343035e-09	-2.719207e+01	-1.561744e+02
9.300000e-07	-3.799810e-06	-2.333078e-09	-2.696366e+01	-1.558362e+02
9.400000e-07	-3.767397e-06	-2.328139e-09	-2.673365e+01	-1.554951e+02
9.500000e-07	-3.734705e-06	-2.326985e-09	-2.650167e+01	-1.551513e+02
9.600000e-07	-3.701609e-06	-2.318926e-09	-2.626682e+01	-1.548049e+02
9.700000e-07	-3.668054e-06	-2.310069e-09	-2.602871e+01	-1.544559e+02
9.800000e-07	-3.634062e-06	-2.302849e-09	-2.578750e+01	-1.541044e+02
9.900000e-07	-3.599655e-06	-2.301383e-09	-2.554334e+01	-1.537503e+02
1.000000e-06	-3.564839e-06	-2.290253e-09	-2.529629e+01	-1.533936e+02
1.010000e-06	-3.529711e-06	-2.278882e-09	-2.504701e+01	-1.530341e+02
1.020000e-06	-3.494313e-06	-2.265903e-09	-2.479583e+01	-1.526716e+02
1.030000e-06	-3.458685e-06	-2.265108e-09	-2.454301e+01	-1.523059e+02
1.040000e-06	-3.422900e-06	-2.263329e-09	-2.428908e+01	-1.519369e+02
1.050000e-06	-3.386983e-06	-2.262426e-09	-2.403421e+01	-1.515642e+02
1.060000e-06	-3.350930e-06	-2.252331e-09	-2.377838e+01	-1.511875e+02
1.070000e-06	-3.314687e-06	-2.245965e-09	-2.352119e+01	-1.508065e+02
1.080000e-06	-3.278268e-06	-2.235743e-09	-2.326277e+01	-1.504210e+02
1.090000e-06	-3.241628e-06	-2.226099e-09	-2.300276e+01	-1.500306e+02
1.100000e-06	-3.204727e-06	-2.211353e-09	-2.274091e+01	-1.496351e+02
1.110000e-06	-3.167555e-06	-2.207095e-09	-2.247714e+01	-1.492341e+02
1.120000e-06	-3.130123e-06	-2.204358e-09	-2.221152e+01	-1.488274e+02
1.130000e-06	-3.092504e-06	-2.203716e-09	-2.194457e+01	-1.484147e+02
1.140000e-06	-3.054761e-06	-2.195620e-09	-2.167674e+01	-1.479959e+02
1.150000e-06	-3.016787e-06	-2.190406e-09	-2.140728e+01	-1.475708e+02
1.160000e-06	-2.978587e-06	-2.183781e-09	-2.113621e+01	-1.471391e+02
1.170000e-06	-2.940134e-06	-2.176932e-09	-2.086335e+01	-1.467007e+02
1.180000e-06	-2.901461e-06	-2.164676e-09	-2.058892e+01	-1.462556e+02
1.190000e-06	-2.862654e-06	-2.152831e-09	-2.031355e+01	-1.458037e+02
1.200000e-06	-2.823587e-06	-2.144124e-09	-2.003632e+01	-1.453449e+02
1.210000e-06	-2.784338e-06	-2.136906e-09	-1.975781e+01	-1.448792e+02
1.220000e-06	-2.744963e-06	-2.129161e-09	-1.947840e+01	-1.444065e+02
1.230000e-06	-2.705389e-06	-2.121822e-09	-1.919758e+01	-1.439269e+02
1.240000e-06	-2.665663e-06	-2.116351e-09	-1.891569e+01	-1.434403e+02
1.250000e-06	-2.625864e-06	-2.110026e-09	-1.863327e+01	-1.429467e+02
1.260000e-06	-2.585937e-06	-2.102028e-09	-1.834994e+01	-1.424462e+02
1.270000e-06	-2.545877e-06	-2.088049e-09	-1.806568e+01	-1.419387e+02
1.280000e-06	-2.505736e-06	-2.078040e-09	-1.778083e+01	-1.414241e+02
1.290000e-06	-2.465489e-06	-2.071506e-09	-1.749524e+01	-1.409024e+02
1.300000e-06	-2.425055e-06	-2.066101e-09	-1.720832e+01	-1.403735e+02
1.310000e-06	-2.384406e-06	-2.056584e-09	-1.691987e+01	-1.398373e+02
1.320000e-06	-2.343612e-06	-2.049441e-09	-1.663039e+01	-1.392936e+02
1.330000e-06	-2.302628e-06	-2.042034e-09	-1.633957e+01	-1.387423e+02
1.340000e-06	-2.261260e-06	-2.033830e-09	-1.604602e+01	-1.381831e+02
1.350000e-06	-2.219516e-06	-2.017417e-09	-1.574980e+01	-1.376158e+02
1.360000e-06	-2.177451e-06	-2.003353e-09	-1.545131e+01	-1.370400e+02
1.370000e-06	-2.135110e-06	-1.994051e-09	-1.515086e+01	-1.364556e+02
1.380000e-06	-2.092594e-06	-1.988495e-09	-1.484916e+01	-1.358621e+02
1.390000e-06	-2.049862e-06	-1.978649e-09	-1.454593e+01	-1.352592e+02
1.400000e-06	-2.006843e-06	-1.970455e-09	-1.424067e+01	-1.346464e+02
1.410000e-06	-1.963719e-06	-1.962950e-09	-1.393465e+01	-1.340234e+02
1.420000e-06	-1.920508e-06	-1.953413e-09	-1.362803e+01	-1.333898e+02
1.430000e-06	-1.877084e-06	-1.937847e-09	-1.331989e+01	-1.327450e+02
1.440000e-06	-1.833521e-06	-1.922828e-09	-1.301076e+01	-1.320888e+02
1.450000e-06	-1.789893e-06	-1.909671e-09	-1.270118e+01	-1.314205e+02
1.460000e-06	-1.746210e-06	-1.902617e-09	-1.239120e+01	-1.307400e+02
1.470000e-06	-1.702406e-06	-1.896096e-09	-1.208037e+01	-1.300466e+02
1.480000e-06	-1.658480e-06	-1.885270e-09	-1.176866e+01	-1.293400e+02
1.490000e-06	-1.614500e-06	-1.873391e-09	-1.145658e+01	-1.286197e+02
1.500000e-06	-1.570451e-06	-1.862524e-09	-1.114401e+01	-1.278855e+02
1.510000e-06	-1.526325e-06	-1.848697e-09	-1.083089e+01	-1.271370e+02
1.520000e-06	-1.482116e-06	-1.830790e-09	-1.051718e+01	-1.263737e+02
1.530000e-06	-1.437795e-06	-1.814706e-09	-1.020267e+01	-1.255953e+02
1.540000e-06	-1.393378e-06	-1.806273e-09	-9.887485e+00	-1.248016e+02
1.550000e-06	-1.348889e-06	-1.799086e-09	-9.571788e+00	-1.239920e+02
1.560000e-06	-1.304334e-06	-1.785394e-09	-9.255621e+00	-1.231664e+02
1.570000e-06	-1.259755e-06	-1.770264e-09	-8.939287e+00	-1.223244e+02
1.580000e-06	-1.215124e-06	-1.757455e-09	-8.622583e+00	-1.214656e+02
1.590000e-06	-1.170309e-06	-1.746187e-09	-8.304576e+00	-1.205895e+02
1.600000e-06	-1.125404e-06	-1.730008e-09	-7.985929e+00	-1.196959e+02
1.610000e-06	-1.080432e-06	-1.713106e-09	-7.666805e+00	-1.187843e+02
1.620000e-06	-1.035404e-06	-1.697957e-09	-7.347285e+00	-1.178542e+02
1.630000e-06	-9.902938e-07	-1.684530e-09	-7.027177e+00	-1.169050e+02
1.640000e-06	-9.450616e-07	-1.667587e-09	-6.706207e+00	-1.159361e+02
1.650000e-06	-8.997699e-07	-1.649888e-09	-6.384815e+00	-1.149470e+02
1.660000e-06	-8.543904e-07	-1.635311e-09	-6.062800e+00	-1.139369e+02
1.670000e-06	-8.089393e-07	-1.625188e-09	-5.740276e+00	-1.129050e+02
1.680000e-06	-7.634324e-07	-1.611709e-09	-5.417357e+00	-1.118504e+02
1.690000e-06	-7.178751e-07	-1.591792e-09	-5.094080e+00	-1.107722e+02
1.700000e-06	-6.722324e-07	-1.569969e-09	-4.770197e+00	-1.096694e+02
1.710000e-06	-6.266245e-07	-1.551323e-09	-4.446561e+00	-1.085408e+02
1.720000e-06	-5.810195e-07	-1.532993e-09	-4.122945e+00	-1.073855e+02
1.730000e-06	-5.352914e-07	-1.514063e-09	-3.798456e+00	-1.062020e+02
1.740000e-06	-4.895509e-07	-1.493543e-09	-3.473879e+00	-1.049891e+02
1.750000e-06	-4.437988e-07	-1.476942e-09	-3.149220e+00	-1.037454e+02
1.760000e-06	-3.980579e-07	-1.463996e-09	-2.824640e+00	-1.024695e+02
1.770000e-06	-3.523058e-07	-1.450602e-09	-2.499981e+00	-1.011600e+02
1.780000e-06	-3.064846e-07	-1.431577e-09	-2.174831e+00	-9.981535e+01
1.790000e-06	-2.606054e-07	-1.407767e-09	-1.849270e+00	-9.843402e+01
1.800000e-06	-2.146920e-07	-1.381976e-09	-1.523466e+00	-9.701448e+01
1.810000e-06	-1.687430e-07	-1.358436e-09	-1.197409e+00	-9.555518e+01
1.820000e-06	-1.227970e-07	-1.336098e-09	-8.713738e-01	-9.405457e+01
1.830000e-06	-7.693965e-08	-1.315070e-09	-5.459678e-01	-9.251112e+01
1.840000e-06	-3.107128e-08	-1.294822e-09	-2.204834e-01	-9.092334e+01
1.850000e-06	1.483677e-08	-1.274447e-09	1.052825e-01	-8.928976e+01
1.860000e-06	6.072376e-08	-1.256059e-09	4.308990e-01	-8.760895e+01
1.870000e-06	1.066876e-07	-1.235502e-09	7.570610e-01	-8.587955e+01
1.880000e-06	1.526534e-07	-1.208691e-09	1.083237e+00	-8.410026e+01
1.890000e-06	1.985471e-07	-1.174853e-09	1.408901e+00	-8.226984e+01
1.900000e-06	2.444507e-07	-1.140539e-09	1.734635e+00	-8.038714e+01
1.910000e-06	2.902904e-07	-1.109044e-09	2.059916e+00	-7.845110e+01
1.920000e-06	3.361029e-07	-1.080794e-09	2.385004e+00	-7.646074e+01
1.930000e-06	3.819511e-07	-1.054158e-09	2.710345e+00	-7.441518e+01
1.940000e-06	4.278109e-07	-1.031766e-09	3.035769e+00	-7.231363e+01
1.950000e-06	4.735608e-07	-1.009629e-09	3.360413e+00	-7.015541e+01
1.960000e-06	5.192081e-07	-9.812029e-10	3.684328e+00	-6.793995e+01
1.970000e-06	5.648494e-07	-9.427660e-10	4.008201e+00	-6.566679e+01
1.980000e-06	6.104446e-07	-8.987618e-10	4.331748e+00	-6.333556e+01
1.990000e-06	6.560093e-07	-8.566180e-10	4.655077e+00	-6.094603e+01
2.000000e-06	7.015701e-07	-8.199155e-10	4.978379e+00	-5.849807e+01
2.010000e-06	7.470256e-07	-7.830200e-10	5.300934e+00	-5.599166e+01
2.020000e-06	7.923877e-07	-7.495227e-10	5.622825e+00	-5.342691e+01
2.030000e-06	8.377773e-07	-7.187416e-10	5.944913e+00	-5.080406e+01
2.040000e-06	8.831056e-07	-6.869395e-10	6.266564e+00	-4.812347e+01
2.050000e-06	9.283403e-07	-6.476733e-10	6.587552e+00	-4.538562e+01
2.060000e-06	9.735303e-07	-6.028630e-10	6.908222e+00	-4.259114e+01
2.070000e-06	1.018644e-06	-5.574831e-10	7.228352e+00	-3.974078e+01
2.080000e-06	1.063646e-06	-5.140518e-10	7.547691e+00	-3.683547e+01
2.090000e-06	1.108544e-06	-4.688538e-10	7.866285e+00	-3.387626e+01
2.100000e-06	1.153385e-06	-4.226364e-10	8.184481e+00	-3.086437e+01
2.110000e-06	1.198182e-06	-3.823154e-10	8.502362e+00	-2.780118e+01
2.120000e-06	1.242844e-06	-3.437013e-10	8.819287e+00	-2.468825e+01
2.130000e-06	1.287373e-06	-3.007545e-10	9.135267e+00	-2.152732e+01
2.140000e-06	1.331871e-06	-2.519045e-10	9.451031e+00	-1.832029e+01
2.150000e-06	1.376305e-06	-2.021731e-10	9.766330e+00	-1.506928e+01
2.160000e-06	1.420649e-06	-1.524971e-10	1.008100e+01	-1.177659e+01
2.170000e-06	1.464926e-06	-1.008974e-10	1.039519e+01	-8.444724e+00
2.180000e-06	1.509118e-06	-4.760019e-11	1.070878e+01	-5.076379e+00
2.190000e-06	1.553244e-06	6.984825e-13	1.102190e+01	-1.674460e+00
2.200000e-06	1.597263e-06	4.375890e-11	1.133427e+01	1.757927e+00
2.210000e-06	1.641200e-06	9.234317e-11	1.164604e+01	5.217479e+00
2.220000e-06	1.685093e-06	1.484642e-10	1.195751e+01	8.700702e+00
2.230000e-06	1.728865e-06	2.025529e-10	1.226812e+01	1.220391e+01
2.240000e-06	1.772494e-06	2.531841e-10	1.257771e+01	1.572326e+01
2.250000e-06	1.816072e-06	3.041860e-10	1.288694e+01	1.925472e+01
2.260000e-06	1.859656e-06	3.605806e-10	1.319622e+01	2.279413e+01
2.270000e-06	1.903147e-06	4.153400e-10	1.350483e+01	2.633720e+01
2.280000e-06	1.946520e-06	4.651754e-10	1.381261e+01	2.987953e+01
2.290000e-06	1.989737e-06	5.122149e-10	1.411928e+01	3.341661e+01
2.300000e-06	2.032718e-06	5.645000e-10	1.442427e+01	3.694391e+01
2.310000e-06	2.075518e-06	6.204554e-10	1.472799e+01	4.045683e+01
2.320000e-06	2.118137e-06	6.716872e-10	1.503041e+01	4.395078e+01
2.330000e-06	2.160477e-06	7.205271e-10	1.533086e+01	4.742118e+01
2.340000e-06	2.202525e-06	7.711530e-10	1.562924e+01	5.086353e+01
2.350000e-06	2.244245e-06	8.241598e-10	1.592528e+01	5.427337e+01
2.360000e-06	2.285703e-06	8.751752e-10	1.621947e+01	5.764640e+01
2.370000e-06	2.326931e-06	9.212428e-10	1.651203e+01	6.097843e+01
2.380000e-06	2.367840e-06	9.671425e-10	1.680232e+01	6.426546e+01
2.390000e-06	2.408512e-06	1.015927e-09	1.709093e+01	6.750369e+01
2.400000e-06	2.448977e-06	1.063222e-09	1.737807e+01	7.068954e+01
2.410000e-06	2.489239e-06	1.105249e-09	1.766377e+01	7.381971e+01
2.420000e-06	2.529360e-06	1.147343e-09	1.794847e+01	7.689114e+01
2.430000e-06	2.569377e-06	1.193592e-09	1.823243e+01	7.990109e+01
2.440000e-06	2.609261e-06	1.237636e-09	1.851545e+01	8.284710e+01
2.450000e-06	2.649021e-06	1.274827e-09	1.879760e+01	8.572708e+01
2.460000e-06	2.688715e-06	1.308658e-09	1.907926e+01	8.853922e+01
2.470000e-06	2.728295e-06	1.347240e-09	1.936013e+01	9.128207e+01
2.480000e-06	2.767716e-06	1.388298e-09	1.963986e+01	9.395451e+01
2.490000e-06	2.806930e-06	1.426177e-09	1.991812e+01	9.655575e+01
2.500000e-06	2.845928e-06	1.461043e-09	2.019485e+01	9.908533e+01
2.510000e-06	2.884718e-06	1.498284e-09	2.047011e+01	1.015431e+02
2.520000e-06	2.923320e-06	1.535845e-09	2.074404e+01	1.039292e+02
2.530000e-06	2.961703e-06	1.567523e-09	2.101640e+01	1.062441e+02
2.540000e-06	2.999890e-06	1.594360e-09	2.128738e+01	1.084885e+02
2.550000e-06	3.037930e-06	1.624477e-09	2.155731e+01	1.106632e+02
2.560000e-06	3.075757e-06	1.660629e-09	2.182574e+01	1.127696e+02
2.570000e-06	3.113392e-06	1.694399e-09	2.209280e+01	1.148089e+02
2.580000e-06	3.150783e-06	1.720669e-09	2.235812e+01	1.167826e+02
2.590000e-06	3.187900e-06	1.745517e-09	2.262151e+01	1.186924e+02
2.600000e-06	3.224817e-06	1.773610e-09	2.288348e+01	1.205400e+02
2.610000e-06	3.261517e-06	1.801198e-09	2.314390e+01	1.223272e+02
2.620000e-06	3.298002e-06	1.823871e-09	2.340280e+01	1.240560e+02
2.630000e-06	3.334292e-06	1.847493e-09	2.366031e+01	1.257283e+02
2.640000e-06	3.370370e-06	1.875603e-09	2.391633e+01	1.273459e+02
2.650000e-06	3.406280e-06	1.903076e-09	2.417115e+01	1.289108e+02
2.660000e-06	3.442048e-06	1.922968e-09	2.442496e+01	1.304248e+02
2.670000e-06	3.477695e-06	1.937924e-09	2.467791e+01	1.318897e+02
2.680000e-06	3.513237e-06	1.958195e-09	2.493011e+01	1.333072e+02
2.690000e-06	3.548562e-06	1.981243e-09	2.518079e+01	1.346790e+02
2.700000e-06	3.583548e-06	1.999940e-09	2.542905e+01	1.360066e+02
2.710000e-06	3.618180e-06	2.014201e-09	2.567480e+01	1.372915e+02
2.720000e-06	3.652413e-06	2.032931e-09	2.591772e+01	1.385350e+02
2.730000e-06	3.686135e-06	2.056791e-09	2.615701e+01	1.397384e+02
2.740000e-06	3.719453e-06	2.076461e-09	2.639343e+01	1.409029e+02
2.750000e-06	3.752407e-06	2.089650e-09	2.662728e+01	1.420294e+02
2.760000e-06	3.784887e-06	2.106218e-09	2.685776e+01	1.431191e+02
2.770000e-06	3.817056e-06	2.127719e-09	2.708603e+01	1.441727e+02
2.780000e-06	3.849028e-06	2.144337e-09	2.731291e+01	1.451912e+02
2.790000e-06	3.880838e-06	2.152697e-09	2.753863e+01	1.461752e+02
2.800000e-06	3.912489e-06	2.160136e-09	2.776323e+01	1.471256e+02
2.810000e-06	3.943919e-06	2.172689e-09	2.798626e+01	1.480429e+02
2.820000e-06	3.975101e-06	2.187746e-09	2.820753e+01	1.489280e+02
2.830000e-06	4.006008e-06	2.199148e-09	2.842684e+01	1.497815e+02
2.840000e-06	4.036653e-06	2.212353e-09	2.864430e+01	1.506039e+02
2.850000e-06	4.067039e-06	2.231140e-09	2.885993e+01	1.513961e+02
2.860000e-06	4.097119e-06	2.249487e-09	2.907337e+01	1.521588e+02
2.870000e-06	4.126952e-06	2.260262e-09	2.928507e+01	1.528925e+02
2.880000e-06	4.156569e-06	2.265475e-09	2.949524e+01	1.535982e+02
2.890000e-06	4.185935e-06	2.270648e-09	2.970362e+01	1.542765e+02
2.900000e-06	4.214987e-06	2.275219e-09	2.990977e+01	1.549283e+02
