# Temperatura_=_-1.3
# Concentracion g/m^3_=_4090.0
# C_Vs_to_Am_M_A/Vsm_=_65563218390.804596
# pendiente_HvsI_1/m_=_3716.3
# ordenada_HvsI_A/m_=_1297.0
# frecuencia_Hz_=_135061.68040358202

Tiempo_(s)	Campo_(V.s)	Magnetizacion_(V.s)	Campo_(kA/m)	Magnetizacion_(A/m)
0.000000e+00	-5.403110e-06	-2.589412e-09	-3.839914e+01	-1.662814e+02
1.000000e-08	-5.403131e-06	-2.588500e-09	-3.839929e+01	-1.662094e+02
2.000000e-08	-5.402944e-06	-2.586513e-09	-3.839796e+01	-1.661415e+02
3.000000e-08	-5.402450e-06	-2.583058e-09	-3.839445e+01	-1.660791e+02
4.000000e-08	-5.401555e-06	-2.580095e-09	-3.838809e+01	-1.660238e+02
5.000000e-08	-5.400171e-06	-2.581923e-09	-3.837825e+01	-1.659767e+02
6.000000e-08	-5.398211e-06	-2.588525e-09	-3.836432e+01	-1.659389e+02
7.000000e-08	-5.395596e-06	-2.593937e-09	-3.834574e+01	-1.659113e+02
8.000000e-08	-5.392385e-06	-2.571496e-09	-3.832292e+01	-1.658948e+02
9.000000e-08	-5.388639e-06	-2.566508e-09	-3.829629e+01	-1.658899e+02
1.000000e-07	-5.384492e-06	-2.630850e-09	-3.826682e+01	-1.658969e+02
1.100000e-07	-5.380128e-06	-2.667329e-09	-3.823581e+01	-1.659158e+02
1.200000e-07	-5.375547e-06	-2.572235e-09	-3.820325e+01	-1.659467e+02
1.300000e-07	-5.370618e-06	-2.523422e-09	-3.816822e+01	-1.659891e+02
1.400000e-07	-5.365343e-06	-2.600418e-09	-3.813073e+01	-1.660425e+02
1.500000e-07	-5.359773e-06	-2.675093e-09	-3.809115e+01	-1.661060e+02
1.600000e-07	-5.353888e-06	-2.549114e-09	-3.804932e+01	-1.661787e+02
1.700000e-07	-5.347637e-06	-2.495042e-09	-3.800490e+01	-1.662595e+02
1.800000e-07	-5.340920e-06	-2.616992e-09	-3.795716e+01	-1.663470e+02
1.900000e-07	-5.333843e-06	-2.706086e-09	-3.790687e+01	-1.664396e+02
2.000000e-07	-5.326416e-06	-2.598948e-09	-3.785409e+01	-1.665359e+02
2.100000e-07	-5.318708e-06	-2.551748e-09	-3.779931e+01	-1.666342e+02
2.200000e-07	-5.310869e-06	-2.648001e-09	-3.774359e+01	-1.667326e+02
2.300000e-07	-5.302824e-06	-2.665242e-09	-3.768642e+01	-1.668295e+02
2.400000e-07	-5.294328e-06	-2.583580e-09	-3.762604e+01	-1.669231e+02
2.500000e-07	-5.285193e-06	-2.595070e-09	-3.756112e+01	-1.670116e+02
2.600000e-07	-5.275471e-06	-2.686866e-09	-3.749203e+01	-1.670934e+02
2.700000e-07	-5.265206e-06	-2.641549e-09	-3.741907e+01	-1.671668e+02
2.800000e-07	-5.254363e-06	-2.584533e-09	-3.734202e+01	-1.672305e+02
2.900000e-07	-5.243042e-06	-2.642631e-09	-3.726156e+01	-1.672831e+02
3.000000e-07	-5.231310e-06	-2.670478e-09	-3.717818e+01	-1.673234e+02
3.100000e-07	-5.219097e-06	-2.559747e-09	-3.709139e+01	-1.673504e+02
3.200000e-07	-5.206511e-06	-2.568605e-09	-3.700194e+01	-1.673633e+02
3.300000e-07	-5.193549e-06	-2.649006e-09	-3.690982e+01	-1.673614e+02
3.400000e-07	-5.180218e-06	-2.631772e-09	-3.681508e+01	-1.673444e+02
3.500000e-07	-5.166560e-06	-2.564484e-09	-3.671801e+01	-1.673121e+02
3.600000e-07	-5.152566e-06	-2.623696e-09	-3.661856e+01	-1.672643e+02
3.700000e-07	-5.138114e-06	-2.632754e-09	-3.651585e+01	-1.672014e+02
3.800000e-07	-5.123074e-06	-2.578591e-09	-3.640896e+01	-1.671236e+02
3.900000e-07	-5.107546e-06	-2.575811e-09	-3.629861e+01	-1.670315e+02
4.000000e-07	-5.091500e-06	-2.605012e-09	-3.618457e+01	-1.669257e+02
4.100000e-07	-5.074911e-06	-2.556773e-09	-3.606667e+01	-1.668072e+02
4.200000e-07	-5.058035e-06	-2.555679e-09	-3.594674e+01	-1.666767e+02
4.300000e-07	-5.040940e-06	-2.602293e-09	-3.582525e+01	-1.665355e+02
4.400000e-07	-5.023551e-06	-2.582865e-09	-3.570167e+01	-1.663844e+02
4.500000e-07	-5.005887e-06	-2.542137e-09	-3.557613e+01	-1.662248e+02
4.600000e-07	-4.987892e-06	-2.571133e-09	-3.544824e+01	-1.660577e+02
4.700000e-07	-4.969448e-06	-2.585362e-09	-3.531716e+01	-1.658843e+02
4.800000e-07	-4.950556e-06	-2.552761e-09	-3.518290e+01	-1.657057e+02
4.900000e-07	-4.931281e-06	-2.546331e-09	-3.504592e+01	-1.655230e+02
5.000000e-07	-4.911679e-06	-2.552809e-09	-3.490661e+01	-1.653373e+02
5.100000e-07	-4.891821e-06	-2.552211e-09	-3.476548e+01	-1.651493e+02
5.200000e-07	-4.871750e-06	-2.552572e-09	-3.462284e+01	-1.649600e+02
5.300000e-07	-4.851497e-06	-2.545687e-09	-3.447891e+01	-1.647700e+02
5.400000e-07	-4.830921e-06	-2.524329e-09	-3.433267e+01	-1.645800e+02
5.500000e-07	-4.809926e-06	-2.535944e-09	-3.418347e+01	-1.643903e+02
5.600000e-07	-4.788571e-06	-2.540580e-09	-3.403170e+01	-1.642012e+02
5.700000e-07	-4.766894e-06	-2.520525e-09	-3.387764e+01	-1.640131e+02
5.800000e-07	-4.744909e-06	-2.508675e-09	-3.372140e+01	-1.638258e+02
5.900000e-07	-4.722652e-06	-2.520901e-09	-3.356322e+01	-1.636394e+02
6.000000e-07	-4.700110e-06	-2.516127e-09	-3.340302e+01	-1.634535e+02
6.100000e-07	-4.677191e-06	-2.509218e-09	-3.324014e+01	-1.632680e+02
6.200000e-07	-4.653936e-06	-2.491871e-09	-3.307486e+01	-1.630824e+02
6.300000e-07	-4.630481e-06	-2.480928e-09	-3.290817e+01	-1.628963e+02
6.400000e-07	-4.606796e-06	-2.485905e-09	-3.273985e+01	-1.627090e+02
6.500000e-07	-4.582824e-06	-2.495348e-09	-3.256948e+01	-1.625201e+02
6.600000e-07	-4.558565e-06	-2.476831e-09	-3.239707e+01	-1.623288e+02
6.700000e-07	-4.533995e-06	-2.471404e-09	-3.222246e+01	-1.621346e+02
6.800000e-07	-4.509007e-06	-2.481785e-09	-3.204487e+01	-1.619368e+02
6.900000e-07	-4.483510e-06	-2.482935e-09	-3.186367e+01	-1.617348e+02
7.000000e-07	-4.457549e-06	-2.463048e-09	-3.167917e+01	-1.615280e+02
7.100000e-07	-4.431152e-06	-2.449361e-09	-3.149157e+01	-1.613159e+02
7.200000e-07	-4.404302e-06	-2.444149e-09	-3.130075e+01	-1.610981e+02
7.300000e-07	-4.377032e-06	-2.448051e-09	-3.110695e+01	-1.608740e+02
7.400000e-07	-4.349470e-06	-2.446596e-09	-3.091107e+01	-1.606435e+02
7.500000e-07	-4.321662e-06	-2.437777e-09	-3.071344e+01	-1.604062e+02
7.600000e-07	-4.293629e-06	-2.435484e-09	-3.051422e+01	-1.601621e+02
7.700000e-07	-4.265440e-06	-2.440482e-09	-3.031388e+01	-1.599109e+02
7.800000e-07	-4.237036e-06	-2.433998e-09	-3.011202e+01	-1.596529e+02
7.900000e-07	-4.208306e-06	-2.417943e-09	-2.990783e+01	-1.593880e+02
8.000000e-07	-4.179254e-06	-2.410367e-09	-2.970137e+01	-1.591166e+02
8.100000e-07	-4.149960e-06	-2.411907e-09	-2.949318e+01	-1.588387e+02
8.200000e-07	-4.120364e-06	-2.413757e-09	-2.928284e+01	-1.585549e+02
8.300000e-07	-4.090401e-06	-2.405899e-09	-2.906990e+01	-1.582654e+02
8.400000e-07	-4.060171e-06	-2.396409e-09	-2.885506e+01	-1.579708e+02
8.500000e-07	-4.029673e-06	-2.390852e-09	-2.863832e+01	-1.576714e+02
8.600000e-07	-3.998906e-06	-2.388885e-09	-2.841966e+01	-1.573678e+02
8.700000e-07	-3.967924e-06	-2.377171e-09	-2.819948e+01	-1.570605e+02
8.800000e-07	-3.936696e-06	-2.366974e-09	-2.797754e+01	-1.567499e+02
8.900000e-07	-3.905243e-06	-2.366711e-09	-2.775401e+01	-1.564366e+02
9.000000e-07	-3.873519e-06	-2.374614e-09	-2.752855e+01	-1.561210e+02
9.100000e-07	-3.841539e-06	-2.367715e-09	-2.730127e+01	-1.558036e+02
9.200000e-07	-3.809436e-06	-2.348078e-09	-2.707312e+01	-1.554846e+02
9.300000e-07	-3.777195e-06	-2.329864e-09	-2.684399e+01	-1.551646e+02
9.400000e-07	-3.744748e-06	-2.326830e-09	-2.661339e+01	-1.548436e+02
9.500000e-07	-3.711978e-06	-2.324521e-09	-2.638050e+01	-1.545219e+02
9.600000e-07	-3.678797e-06	-2.321402e-09	-2.614469e+01	-1.541996e+02
9.700000e-07	-3.645306e-06	-2.321003e-09	-2.590667e+01	-1.538769e+02
9.800000e-07	-3.611445e-06	-2.326259e-09	-2.566603e+01	-1.535536e+02
9.900000e-07	-3.577082e-06	-2.320142e-09	-2.542182e+01	-1.532297e+02
1.000000e-06	-3.542350e-06	-2.302368e-09	-2.517498e+01	-1.529051e+02
1.010000e-06	-3.507259e-06	-2.282726e-09	-2.492559e+01	-1.525796e+02
1.020000e-06	-3.471823e-06	-2.271265e-09	-2.467376e+01	-1.522528e+02
1.030000e-06	-3.436204e-06	-2.266170e-09	-2.442061e+01	-1.519245e+02
1.040000e-06	-3.400390e-06	-2.266396e-09	-2.416609e+01	-1.515943e+02
1.050000e-06	-3.364357e-06	-2.267914e-09	-2.391001e+01	-1.512617e+02
1.060000e-06	-3.328192e-06	-2.269649e-09	-2.365299e+01	-1.509264e+02
1.070000e-06	-3.291913e-06	-2.267393e-09	-2.339516e+01	-1.505879e+02
1.080000e-06	-3.255426e-06	-2.253899e-09	-2.313585e+01	-1.502457e+02
1.090000e-06	-3.218656e-06	-2.234159e-09	-2.287453e+01	-1.498992e+02
1.100000e-06	-3.181568e-06	-2.219046e-09	-2.261096e+01	-1.495482e+02
1.110000e-06	-3.144296e-06	-2.213798e-09	-2.234607e+01	-1.491919e+02
1.120000e-06	-3.106891e-06	-2.212007e-09	-2.208024e+01	-1.488300e+02
1.130000e-06	-3.069239e-06	-2.209834e-09	-2.181264e+01	-1.484621e+02
1.140000e-06	-3.031346e-06	-2.207703e-09	-2.154335e+01	-1.480877e+02
1.150000e-06	-2.993213e-06	-2.204481e-09	-2.127234e+01	-1.477063e+02
1.160000e-06	-2.954891e-06	-2.193828e-09	-2.099999e+01	-1.473178e+02
1.170000e-06	-2.916471e-06	-2.178204e-09	-2.072695e+01	-1.469216e+02
1.180000e-06	-2.877852e-06	-2.161718e-09	-2.045249e+01	-1.465176e+02
1.190000e-06	-2.838962e-06	-2.155219e-09	-2.017610e+01	-1.461054e+02
1.200000e-06	-2.799866e-06	-2.152578e-09	-1.989825e+01	-1.456848e+02
1.210000e-06	-2.760607e-06	-2.149477e-09	-1.961924e+01	-1.452557e+02
1.220000e-06	-2.721093e-06	-2.144957e-09	-1.933842e+01	-1.448178e+02
1.230000e-06	-2.681383e-06	-2.141314e-09	-1.905621e+01	-1.443711e+02
1.240000e-06	-2.641620e-06	-2.131874e-09	-1.877362e+01	-1.439154e+02
1.250000e-06	-2.601717e-06	-2.115992e-09	-1.849004e+01	-1.434507e+02
1.260000e-06	-2.561701e-06	-2.098810e-09	-1.820565e+01	-1.429769e+02
1.270000e-06	-2.521632e-06	-2.087585e-09	-1.792088e+01	-1.424940e+02
1.280000e-06	-2.481517e-06	-2.082891e-09	-1.763579e+01	-1.420019e+02
1.290000e-06	-2.441295e-06	-2.079980e-09	-1.734994e+01	-1.415006e+02
1.300000e-06	-2.400797e-06	-2.072875e-09	-1.706213e+01	-1.409901e+02
1.310000e-06	-2.360079e-06	-2.063977e-09	-1.677275e+01	-1.404704e+02
1.320000e-06	-2.319245e-06	-2.053688e-09	-1.648254e+01	-1.399416e+02
1.330000e-06	-2.278178e-06	-2.041598e-09	-1.619069e+01	-1.394035e+02
1.340000e-06	-2.236857e-06	-2.028221e-09	-1.589703e+01	-1.388562e+02
1.350000e-06	-2.195273e-06	-2.015864e-09	-1.560149e+01	-1.382997e+02
1.360000e-06	-2.153367e-06	-2.007139e-09	-1.530367e+01	-1.377339e+02
1.370000e-06	-2.111121e-06	-2.000948e-09	-1.500344e+01	-1.371589e+02
1.380000e-06	-2.068566e-06	-1.995703e-09	-1.470101e+01	-1.365744e+02
1.390000e-06	-2.025805e-06	-1.989314e-09	-1.439711e+01	-1.359806e+02
1.400000e-06	-1.982885e-06	-1.981194e-09	-1.409208e+01	-1.353773e+02
1.410000e-06	-1.939740e-06	-1.970745e-09	-1.378546e+01	-1.347643e+02
1.420000e-06	-1.896453e-06	-1.959420e-09	-1.347782e+01	-1.341417e+02
1.430000e-06	-1.853081e-06	-1.946160e-09	-1.316958e+01	-1.335091e+02
1.440000e-06	-1.809486e-06	-1.932003e-09	-1.285976e+01	-1.328666e+02
1.450000e-06	-1.765703e-06	-1.920630e-09	-1.254860e+01	-1.322138e+02
1.460000e-06	-1.721846e-06	-1.914387e-09	-1.223691e+01	-1.315506e+02
1.470000e-06	-1.677929e-06	-1.908655e-09	-1.192480e+01	-1.308767e+02
1.480000e-06	-1.633931e-06	-1.901205e-09	-1.161212e+01	-1.301918e+02
1.490000e-06	-1.589869e-06	-1.891329e-09	-1.129898e+01	-1.294957e+02
1.500000e-06	-1.545794e-06	-1.879874e-09	-1.098574e+01	-1.287881e+02
1.510000e-06	-1.501668e-06	-1.867806e-09	-1.067215e+01	-1.280684e+02
1.520000e-06	-1.457469e-06	-1.853889e-09	-1.035802e+01	-1.273364e+02
1.530000e-06	-1.413231e-06	-1.839443e-09	-1.004363e+01	-1.265916e+02
1.540000e-06	-1.368908e-06	-1.828773e-09	-9.728635e+00	-1.258335e+02
1.550000e-06	-1.324505e-06	-1.818224e-09	-9.413073e+00	-1.250615e+02
1.560000e-06	-1.280016e-06	-1.806987e-09	-9.096894e+00	-1.242751e+02
1.570000e-06	-1.235390e-06	-1.794001e-09	-8.779744e+00	-1.234736e+02
1.580000e-06	-1.190638e-06	-1.782559e-09	-8.461697e+00	-1.226563e+02
1.590000e-06	-1.145847e-06	-1.774625e-09	-8.143373e+00	-1.218227e+02
1.600000e-06	-1.101053e-06	-1.765892e-09	-7.825031e+00	-1.209717e+02
1.610000e-06	-1.056178e-06	-1.751119e-09	-7.506108e+00	-1.201028e+02
1.620000e-06	-1.011182e-06	-1.733488e-09	-7.186330e+00	-1.192149e+02
1.630000e-06	-9.661154e-07	-1.717299e-09	-6.866045e+00	-1.183071e+02
1.640000e-06	-9.210081e-07	-1.701221e-09	-6.545474e+00	-1.173786e+02
1.650000e-06	-8.758354e-07	-1.684338e-09	-6.224438e+00	-1.164283e+02
1.660000e-06	-8.305389e-07	-1.669005e-09	-5.902523e+00	-1.154552e+02
1.670000e-06	-7.851298e-07	-1.657665e-09	-5.579807e+00	-1.144582e+02
1.680000e-06	-7.396671e-07	-1.645134e-09	-5.256709e+00	-1.134362e+02
1.690000e-06	-6.941839e-07	-1.628282e-09	-4.933467e+00	-1.123881e+02
1.700000e-06	-6.487225e-07	-1.609205e-09	-4.610379e+00	-1.113127e+02
1.710000e-06	-6.032754e-07	-1.591099e-09	-4.287393e+00	-1.102090e+02
1.720000e-06	-5.577444e-07	-1.573886e-09	-3.963811e+00	-1.090756e+02
1.730000e-06	-5.120748e-07	-1.555253e-09	-3.639243e+00	-1.079115e+02
1.740000e-06	-4.663486e-07	-1.534666e-09	-3.314274e+00	-1.067154e+02
1.750000e-06	-4.206342e-07	-1.516649e-09	-2.989388e+00	-1.054861e+02
1.760000e-06	-3.749300e-07	-1.501982e-09	-2.664574e+00	-1.042225e+02
1.770000e-06	-3.291854e-07	-1.485050e-09	-2.339474e+00	-1.029234e+02
1.780000e-06	-2.834033e-07	-1.461555e-09	-2.014107e+00	-1.015875e+02
1.790000e-06	-2.376181e-07	-1.435791e-09	-1.688718e+00	-1.002138e+02
1.800000e-06	-1.917923e-07	-1.411822e-09	-1.363041e+00	-9.880104e+01
1.810000e-06	-1.459857e-07	-1.390948e-09	-1.037500e+00	-9.734810e+01
1.820000e-06	-1.001443e-07	-1.368762e-09	-7.117111e-01	-9.585386e+01
1.830000e-06	-5.422695e-08	-1.344273e-09	-3.853833e-01	-9.431719e+01
1.840000e-06	-8.338155e-09	-1.320339e-09	-5.925809e-02	-9.273699e+01
1.850000e-06	3.749960e-08	-1.299140e-09	2.665043e-01	-9.111215e+01
1.860000e-06	8.333316e-08	-1.276105e-09	5.922370e-01	-8.944158e+01
1.870000e-06	1.291953e-07	-1.248529e-09	9.181730e-01	-8.772420e+01
1.880000e-06	1.750400e-07	-1.219994e-09	1.243984e+00	-8.595894e+01
1.890000e-06	2.209268e-07	-1.192118e-09	1.570095e+00	-8.414474e+01
1.900000e-06	2.668378e-07	-1.163482e-09	1.896379e+00	-8.228052e+01
1.910000e-06	3.127134e-07	-1.132120e-09	2.222410e+00	-8.036523e+01
1.920000e-06	3.585759e-07	-1.101250e-09	2.548349e+00	-7.839783e+01
1.930000e-06	4.043724e-07	-1.074167e-09	2.873818e+00	-7.637729e+01
1.940000e-06	4.501100e-07	-1.048715e-09	3.198868e+00	-7.430258e+01
1.950000e-06	4.958181e-07	-1.019912e-09	3.523709e+00	-7.217270e+01
1.960000e-06	5.414780e-07	-9.857956e-10	3.848208e+00	-6.998668e+01
1.970000e-06	5.870808e-07	-9.508880e-10	4.172300e+00	-6.774358e+01
1.980000e-06	6.326116e-07	-9.169110e-10	4.495881e+00	-6.544251e+01
1.990000e-06	6.781416e-07	-8.800883e-10	4.819456e+00	-6.308262e+01
2.000000e-06	7.235594e-07	-8.411540e-10	5.142234e+00	-6.066316e+01
2.010000e-06	7.688434e-07	-8.031782e-10	5.464061e+00	-5.818342e+01
2.020000e-06	8.140853e-07	-7.694024e-10	5.785589e+00	-5.564283e+01
2.030000e-06	8.593087e-07	-7.359816e-10	6.106985e+00	-5.304091e+01
2.040000e-06	9.044651e-07	-6.977567e-10	6.427905e+00	-5.037733e+01
2.050000e-06	9.495162e-07	-6.564717e-10	6.748078e+00	-4.765191e+01
2.060000e-06	9.945240e-07	-6.172363e-10	7.067941e+00	-4.486463e+01
2.070000e-06	1.039415e-06	-5.784679e-10	7.386973e+00	-4.201568e+01
2.080000e-06	1.084232e-06	-5.346565e-10	7.705487e+00	-3.910545e+01
2.090000e-06	1.129034e-06	-4.864473e-10	8.023884e+00	-3.613458e+01
2.100000e-06	1.173747e-06	-4.407302e-10	8.341653e+00	-3.310393e+01
2.110000e-06	1.218381e-06	-3.990784e-10	8.658864e+00	-3.001464e+01
2.120000e-06	1.262902e-06	-3.573558e-10	8.975262e+00	-2.686815e+01
2.130000e-06	1.307322e-06	-3.137552e-10	9.290952e+00	-2.366615e+01
2.140000e-06	1.351714e-06	-2.683567e-10	9.606437e+00	-2.041067e+01
2.150000e-06	1.396067e-06	-2.201442e-10	9.921648e+00	-1.710404e+01
2.160000e-06	1.440355e-06	-1.675366e-10	1.023640e+01	-1.374889e+01
2.170000e-06	1.484537e-06	-1.125966e-10	1.055039e+01	-1.034818e+01
2.180000e-06	1.528648e-06	-5.932877e-11	1.086388e+01	-6.905181e+00
2.190000e-06	1.572703e-06	-9.638516e-12	1.117698e+01	-3.423456e+00
2.200000e-06	1.616701e-06	3.804260e-11	1.148966e+01	9.312622e-02
2.210000e-06	1.660618e-06	8.900849e-11	1.180178e+01	3.640423e+00
2.220000e-06	1.704455e-06	1.423885e-10	1.211332e+01	7.214033e+00
2.230000e-06	1.748201e-06	1.966446e-10	1.242422e+01	1.080931e+01
2.240000e-06	1.791859e-06	2.516469e-10	1.273449e+01	1.442142e+01
2.250000e-06	1.835463e-06	3.082564e-10	1.304438e+01	1.804531e+01
2.260000e-06	1.878961e-06	3.649743e-10	1.335351e+01	2.167580e+01
2.270000e-06	1.922305e-06	4.168080e-10	1.366155e+01	2.530762e+01
2.280000e-06	1.965460e-06	4.654188e-10	1.396825e+01	2.893537e+01
2.290000e-06	2.008486e-06	5.161187e-10	1.427402e+01	3.255365e+01
2.300000e-06	2.051283e-06	5.712702e-10	1.457818e+01	3.615706e+01
2.310000e-06	2.093742e-06	6.261167e-10	1.487993e+01	3.974024e+01
2.320000e-06	2.136026e-06	6.804565e-10	1.518044e+01	4.329790e+01
2.330000e-06	2.178108e-06	7.354202e-10	1.547950e+01	4.682490e+01
2.340000e-06	2.219879e-06	7.887359e-10	1.577637e+01	5.031624e+01
2.350000e-06	2.261249e-06	8.377461e-10	1.607038e+01	5.376714e+01
2.360000e-06	2.302267e-06	8.831397e-10	1.636189e+01	5.717306e+01
2.370000e-06	2.343061e-06	9.264085e-10	1.665181e+01	6.052969e+01
2.380000e-06	2.383635e-06	9.717053e-10	1.694016e+01	6.383307e+01
2.390000e-06	2.424057e-06	1.019641e-09	1.722743e+01	6.707952e+01
2.400000e-06	2.464418e-06	1.068317e-09	1.751427e+01	7.026573e+01
2.410000e-06	2.504635e-06	1.115655e-09	1.780009e+01	7.338873e+01
2.420000e-06	2.544712e-06	1.162056e-09	1.808491e+01	7.644593e+01
2.430000e-06	2.584699e-06	1.207289e-09	1.836909e+01	7.943513e+01
2.440000e-06	2.624583e-06	1.247826e-09	1.865254e+01	8.235450e+01
2.450000e-06	2.664366e-06	1.285258e-09	1.893527e+01	8.520258e+01
2.460000e-06	2.703977e-06	1.321361e-09	1.921678e+01	8.797831e+01
2.470000e-06	2.743462e-06	1.358238e-09	1.949739e+01	9.068097e+01
2.480000e-06	2.782819e-06	1.395479e-09	1.977710e+01	9.331019e+01
2.490000e-06	2.821948e-06	1.431851e-09	2.005518e+01	9.586595e+01
2.500000e-06	2.860859e-06	1.468330e-09	2.033172e+01	9.834851e+01
2.510000e-06	2.899480e-06	1.504721e-09	2.060619e+01	1.007584e+02
2.520000e-06	2.937856e-06	1.540242e-09	2.087893e+01	1.030965e+02
2.530000e-06	2.976082e-06	1.572794e-09	2.115060e+01	1.053638e+02
2.540000e-06	3.014072e-06	1.603621e-09	2.142058e+01	1.075615e+02
2.550000e-06	3.051893e-06	1.635565e-09	2.168937e+01	1.096910e+02
2.560000e-06	3.089606e-06	1.665569e-09	2.195739e+01	1.117539e+02
2.570000e-06	3.127176e-06	1.691873e-09	2.222439e+01	1.137517e+02
2.580000e-06	3.164450e-06	1.716338e-09	2.248929e+01	1.156863e+02
2.590000e-06	3.201375e-06	1.740564e-09	2.275172e+01	1.175593e+02
2.600000e-06	3.238095e-06	1.767568e-09	2.301268e+01	1.193725e+02
2.610000e-06	3.274627e-06	1.797072e-09	2.327231e+01	1.211278e+02
2.620000e-06	3.310963e-06	1.824783e-09	2.353055e+01	1.228267e+02
2.630000e-06	3.347174e-06	1.849738e-09	2.378790e+01	1.244712e+02
2.640000e-06	3.383227e-06	1.870945e-09	2.404412e+01	1.260627e+02
2.650000e-06	3.419091e-06	1.888401e-09	2.429899e+01	1.276030e+02
2.660000e-06	3.454813e-06	1.903827e-09	2.455287e+01	1.290934e+02
2.670000e-06	3.490408e-06	1.918989e-09	2.480584e+01	1.305354e+02
2.680000e-06	3.525792e-06	1.937552e-09	2.505731e+01	1.319304e+02
2.690000e-06	3.560849e-06	1.959376e-09	2.530645e+01	1.332795e+02
2.700000e-06	3.595523e-06	1.982182e-09	2.555287e+01	1.345841e+02
2.710000e-06	3.629789e-06	2.004369e-09	2.579640e+01	1.358450e+02
2.720000e-06	3.663705e-06	2.024552e-09	2.603744e+01	1.370634e+02
2.730000e-06	3.697137e-06	2.040866e-09	2.627503e+01	1.382403e+02
2.740000e-06	3.730009e-06	2.052714e-09	2.650865e+01	1.393764e+02
2.750000e-06	3.762537e-06	2.062590e-09	2.673982e+01	1.404727e+02
2.760000e-06	3.794798e-06	2.074307e-09	2.696909e+01	1.415301e+02
2.770000e-06	3.826824e-06	2.089371e-09	2.719670e+01	1.425493e+02
2.780000e-06	3.858760e-06	2.106065e-09	2.742366e+01	1.435311e+02
2.790000e-06	3.890570e-06	2.123204e-09	2.764973e+01	1.444764e+02
2.800000e-06	3.922208e-06	2.139234e-09	2.787458e+01	1.453860e+02
2.810000e-06	3.953672e-06	2.153124e-09	2.809819e+01	1.462608e+02
2.820000e-06	3.984812e-06	2.161866e-09	2.831949e+01	1.471016e+02
2.830000e-06	4.015518e-06	2.166958e-09	2.853772e+01	1.479094e+02
2.840000e-06	4.045870e-06	2.174178e-09	2.875343e+01	1.486851e+02
2.850000e-06	4.076028e-06	2.186799e-09	2.896775e+01	1.494296e+02
2.860000e-06	4.106035e-06	2.201981e-09	2.918101e+01	1.501441e+02
2.870000e-06	4.135783e-06	2.216772e-09	2.939243e+01	1.508296e+02
2.880000e-06	4.165211e-06	2.227893e-09	2.960157e+01	1.514872e+02
2.890000e-06	4.194326e-06	2.234798e-09	2.980848e+01	1.521179e+02
2.900000e-06	4.223110e-06	2.239527e-09	3.001304e+01	1.527230e+02
