# Temperatura_=_-3.51
# Concentracion g/m^3_=_4090.0
# C_Vs_to_Am_M_A/Vsm_=_65563218390.804596
# pendiente_HvsI_1/m_=_3716.3
# ordenada_HvsI_A/m_=_1297.0
# frecuencia_Hz_=_135073.44701848982

Tiempo_(s)	Campo_(V.s)	Magnetizacion_(V.s)	Campo_(kA/m)	Magnetizacion_(A/m)
0.000000e+00	-5.411257e-06	-2.101706e-09	-3.839173e+01	-1.342869e+02
1.000000e-08	-5.411461e-06	-2.103377e-09	-3.839318e+01	-1.342206e+02
2.000000e-08	-5.411443e-06	-2.105762e-09	-3.839305e+01	-1.341545e+02
3.000000e-08	-5.411147e-06	-2.105751e-09	-3.839095e+01	-1.340901e+02
4.000000e-08	-5.410495e-06	-2.101815e-09	-3.838632e+01	-1.340288e+02
5.000000e-08	-5.409446e-06	-2.099050e-09	-3.837888e+01	-1.339719e+02
6.000000e-08	-5.407868e-06	-2.106512e-09	-3.836769e+01	-1.339207e+02
7.000000e-08	-5.405684e-06	-2.125953e-09	-3.835219e+01	-1.338764e+02
8.000000e-08	-5.402841e-06	-2.111336e-09	-3.833202e+01	-1.338402e+02
9.000000e-08	-5.399408e-06	-2.036969e-09	-3.830766e+01	-1.338131e+02
1.000000e-07	-5.395618e-06	-2.050707e-09	-3.828077e+01	-1.337959e+02
1.100000e-07	-5.391574e-06	-2.179495e-09	-3.825208e+01	-1.337893e+02
1.200000e-07	-5.387229e-06	-2.150887e-09	-3.822126e+01	-1.337937e+02
1.300000e-07	-5.382632e-06	-1.993318e-09	-3.818864e+01	-1.338095e+02
1.400000e-07	-5.377725e-06	-2.025673e-09	-3.815383e+01	-1.338367e+02
1.500000e-07	-5.372356e-06	-2.200699e-09	-3.811574e+01	-1.338753e+02
1.600000e-07	-5.366580e-06	-2.195247e-09	-3.807475e+01	-1.339250e+02
1.700000e-07	-5.360529e-06	-1.952214e-09	-3.803182e+01	-1.339851e+02
1.800000e-07	-5.354129e-06	-2.006535e-09	-3.798642e+01	-1.340550e+02
1.900000e-07	-5.347226e-06	-2.182831e-09	-3.793745e+01	-1.341338e+02
2.000000e-07	-5.340028e-06	-2.142223e-09	-3.788638e+01	-1.342203e+02
2.100000e-07	-5.332650e-06	-1.976694e-09	-3.783403e+01	-1.343134e+02
2.200000e-07	-5.325016e-06	-2.067453e-09	-3.777987e+01	-1.344116e+02
2.300000e-07	-5.317057e-06	-2.194808e-09	-3.772340e+01	-1.345135e+02
2.400000e-07	-5.308759e-06	-2.074383e-09	-3.766453e+01	-1.346175e+02
2.500000e-07	-5.300028e-06	-2.001208e-09	-3.760258e+01	-1.347218e+02
2.600000e-07	-5.290671e-06	-2.123134e-09	-3.753620e+01	-1.348248e+02
2.700000e-07	-5.280563e-06	-2.157473e-09	-3.746448e+01	-1.349248e+02
2.800000e-07	-5.269871e-06	-1.998329e-09	-3.738863e+01	-1.350201e+02
2.900000e-07	-5.258789e-06	-2.038699e-09	-3.731000e+01	-1.351091e+02
3.000000e-07	-5.247184e-06	-2.163246e-09	-3.722767e+01	-1.351902e+02
3.100000e-07	-5.235167e-06	-2.067312e-09	-3.714241e+01	-1.352618e+02
3.200000e-07	-5.222928e-06	-1.940235e-09	-3.705558e+01	-1.353227e+02
3.300000e-07	-5.210289e-06	-2.078895e-09	-3.696590e+01	-1.353717e+02
3.400000e-07	-5.197143e-06	-2.117077e-09	-3.687263e+01	-1.354076e+02
3.500000e-07	-5.183659e-06	-1.994572e-09	-3.677697e+01	-1.354296e+02
3.600000e-07	-5.169829e-06	-2.006086e-09	-3.667885e+01	-1.354370e+02
3.700000e-07	-5.155568e-06	-2.119574e-09	-3.657767e+01	-1.354294e+02
3.800000e-07	-5.140771e-06	-2.040574e-09	-3.647269e+01	-1.354063e+02
3.900000e-07	-5.125505e-06	-2.000163e-09	-3.636438e+01	-1.353677e+02
4.000000e-07	-5.109722e-06	-2.068863e-09	-3.625240e+01	-1.353138e+02
4.100000e-07	-5.093372e-06	-2.049176e-09	-3.613640e+01	-1.352448e+02
4.200000e-07	-5.076612e-06	-1.978333e-09	-3.601749e+01	-1.351611e+02
4.300000e-07	-5.059555e-06	-2.055009e-09	-3.589648e+01	-1.350636e+02
4.400000e-07	-5.042288e-06	-2.080768e-09	-3.577398e+01	-1.349528e+02
4.500000e-07	-5.024739e-06	-2.000613e-09	-3.564947e+01	-1.348299e+02
4.600000e-07	-5.006863e-06	-2.006034e-09	-3.552264e+01	-1.346959e+02
4.700000e-07	-4.988662e-06	-2.060513e-09	-3.539351e+01	-1.345519e+02
4.800000e-07	-4.970027e-06	-2.024606e-09	-3.526130e+01	-1.343992e+02
4.900000e-07	-4.950954e-06	-1.997242e-09	-3.512598e+01	-1.342390e+02
5.000000e-07	-4.931556e-06	-2.028550e-09	-3.498835e+01	-1.340727e+02
5.100000e-07	-4.911875e-06	-2.029033e-09	-3.484872e+01	-1.339015e+02
5.200000e-07	-4.891978e-06	-2.030155e-09	-3.470756e+01	-1.337268e+02
5.300000e-07	-4.871851e-06	-2.029490e-09	-3.456476e+01	-1.335497e+02
5.400000e-07	-4.851422e-06	-2.001483e-09	-3.441982e+01	-1.333714e+02
5.500000e-07	-4.830666e-06	-1.987759e-09	-3.427256e+01	-1.331931e+02
5.600000e-07	-4.809554e-06	-2.018738e-09	-3.412277e+01	-1.330155e+02
5.700000e-07	-4.788083e-06	-2.001917e-09	-3.397044e+01	-1.328397e+02
5.800000e-07	-4.766384e-06	-1.985892e-09	-3.381649e+01	-1.326663e+02
5.900000e-07	-4.744407e-06	-2.001157e-09	-3.366057e+01	-1.324958e+02
6.000000e-07	-4.722075e-06	-2.014430e-09	-3.350213e+01	-1.323286e+02
6.100000e-07	-4.699394e-06	-1.998259e-09	-3.334121e+01	-1.321651e+02
6.200000e-07	-4.676324e-06	-1.991311e-09	-3.317754e+01	-1.320052e+02
6.300000e-07	-4.652965e-06	-1.965913e-09	-3.301181e+01	-1.318491e+02
6.400000e-07	-4.629341e-06	-1.964453e-09	-3.284420e+01	-1.316963e+02
6.500000e-07	-4.605484e-06	-1.980345e-09	-3.267494e+01	-1.315467e+02
6.600000e-07	-4.581409e-06	-1.974950e-09	-3.250413e+01	-1.313997e+02
6.700000e-07	-4.557041e-06	-1.951687e-09	-3.233125e+01	-1.312548e+02
6.800000e-07	-4.532281e-06	-1.969173e-09	-3.215558e+01	-1.311114e+02
6.900000e-07	-4.507028e-06	-1.979328e-09	-3.197642e+01	-1.309685e+02
7.000000e-07	-4.481266e-06	-1.964491e-09	-3.179364e+01	-1.308255e+02
7.100000e-07	-4.455039e-06	-1.946675e-09	-3.160757e+01	-1.306814e+02
7.200000e-07	-4.428347e-06	-1.946383e-09	-3.141819e+01	-1.305354e+02
7.300000e-07	-4.401173e-06	-1.950213e-09	-3.122539e+01	-1.303865e+02
7.400000e-07	-4.373736e-06	-1.953374e-09	-3.103073e+01	-1.302340e+02
7.500000e-07	-4.346137e-06	-1.942311e-09	-3.083493e+01	-1.300768e+02
7.600000e-07	-4.318302e-06	-1.935198e-09	-3.063745e+01	-1.299143e+02
7.700000e-07	-4.290185e-06	-1.943322e-09	-3.043796e+01	-1.297458e+02
7.800000e-07	-4.261829e-06	-1.942671e-09	-3.023678e+01	-1.295704e+02
7.900000e-07	-4.233228e-06	-1.926992e-09	-3.003386e+01	-1.293878e+02
8.000000e-07	-4.204279e-06	-1.917436e-09	-2.982848e+01	-1.291973e+02
8.100000e-07	-4.175065e-06	-1.920949e-09	-2.962121e+01	-1.289988e+02
8.200000e-07	-4.145596e-06	-1.921672e-09	-2.941213e+01	-1.287918e+02
8.300000e-07	-4.115782e-06	-1.918737e-09	-2.920061e+01	-1.285764e+02
8.400000e-07	-4.085721e-06	-1.907307e-09	-2.898733e+01	-1.283525e+02
8.500000e-07	-4.055432e-06	-1.901795e-09	-2.877244e+01	-1.281203e+02
8.600000e-07	-4.024833e-06	-1.899034e-09	-2.855535e+01	-1.278799e+02
8.700000e-07	-3.993973e-06	-1.892198e-09	-2.833640e+01	-1.276318e+02
8.800000e-07	-3.962922e-06	-1.875665e-09	-2.811610e+01	-1.273763e+02
8.900000e-07	-3.931614e-06	-1.870469e-09	-2.789398e+01	-1.271141e+02
9.000000e-07	-3.899981e-06	-1.875023e-09	-2.766954e+01	-1.268456e+02
9.100000e-07	-3.868096e-06	-1.880988e-09	-2.744333e+01	-1.265717e+02
9.200000e-07	-3.836133e-06	-1.869294e-09	-2.721655e+01	-1.262929e+02
9.300000e-07	-3.804028e-06	-1.857558e-09	-2.698878e+01	-1.260101e+02
9.400000e-07	-3.771597e-06	-1.850605e-09	-2.675869e+01	-1.257240e+02
9.500000e-07	-3.738817e-06	-1.847324e-09	-2.652612e+01	-1.254354e+02
9.600000e-07	-3.705616e-06	-1.834705e-09	-2.629057e+01	-1.251451e+02
9.700000e-07	-3.671998e-06	-1.826634e-09	-2.605205e+01	-1.248538e+02
9.800000e-07	-3.638032e-06	-1.826098e-09	-2.581107e+01	-1.245622e+02
9.900000e-07	-3.603655e-06	-1.828925e-09	-2.556718e+01	-1.242709e+02
1.000000e-06	-3.568810e-06	-1.821812e-09	-2.531995e+01	-1.239805e+02
1.010000e-06	-3.533609e-06	-1.814440e-09	-2.507021e+01	-1.236914e+02
1.020000e-06	-3.498190e-06	-1.809021e-09	-2.481892e+01	-1.234040e+02
1.030000e-06	-3.462577e-06	-1.804289e-09	-2.456626e+01	-1.231187e+02
1.040000e-06	-3.426786e-06	-1.795434e-09	-2.431232e+01	-1.228357e+02
1.050000e-06	-3.390847e-06	-1.788935e-09	-2.405734e+01	-1.225549e+02
1.060000e-06	-3.354803e-06	-1.787199e-09	-2.380162e+01	-1.222764e+02
1.070000e-06	-3.318607e-06	-1.788553e-09	-2.354482e+01	-1.220000e+02
1.080000e-06	-3.282214e-06	-1.786555e-09	-2.328662e+01	-1.217255e+02
1.090000e-06	-3.245584e-06	-1.778829e-09	-2.302673e+01	-1.214526e+02
1.100000e-06	-3.208659e-06	-1.770708e-09	-2.276476e+01	-1.211808e+02
1.110000e-06	-3.171454e-06	-1.766944e-09	-2.250080e+01	-1.209095e+02
1.120000e-06	-3.134007e-06	-1.763773e-09	-2.223512e+01	-1.206382e+02
1.130000e-06	-3.096350e-06	-1.754543e-09	-2.196795e+01	-1.203661e+02
1.140000e-06	-3.058531e-06	-1.746522e-09	-2.169963e+01	-1.200925e+02
1.150000e-06	-3.020535e-06	-1.742924e-09	-2.143006e+01	-1.198166e+02
1.160000e-06	-2.982309e-06	-1.741516e-09	-2.115885e+01	-1.195377e+02
1.170000e-06	-2.943915e-06	-1.736175e-09	-2.088646e+01	-1.192547e+02
1.180000e-06	-2.905225e-06	-1.731236e-09	-2.061196e+01	-1.189669e+02
1.190000e-06	-2.866282e-06	-1.724501e-09	-2.033567e+01	-1.186734e+02
1.200000e-06	-2.827244e-06	-1.719411e-09	-2.005870e+01	-1.183734e+02
1.210000e-06	-2.788022e-06	-1.710915e-09	-1.978043e+01	-1.180661e+02
1.220000e-06	-2.748639e-06	-1.703783e-09	-1.950101e+01	-1.177506e+02
1.230000e-06	-2.709047e-06	-1.698826e-09	-1.922012e+01	-1.174263e+02
1.240000e-06	-2.669279e-06	-1.697549e-09	-1.893798e+01	-1.170925e+02
1.250000e-06	-2.629476e-06	-1.692168e-09	-1.865558e+01	-1.167486e+02
1.260000e-06	-2.589602e-06	-1.687312e-09	-1.837268e+01	-1.163941e+02
1.270000e-06	-2.549562e-06	-1.679543e-09	-1.808861e+01	-1.160285e+02
1.280000e-06	-2.509348e-06	-1.671499e-09	-1.780330e+01	-1.156516e+02
1.290000e-06	-2.469032e-06	-1.664391e-09	-1.751726e+01	-1.152630e+02
1.300000e-06	-2.428576e-06	-1.659054e-09	-1.723023e+01	-1.148626e+02
1.310000e-06	-2.387892e-06	-1.652929e-09	-1.694159e+01	-1.144502e+02
1.320000e-06	-2.347058e-06	-1.646179e-09	-1.665188e+01	-1.140259e+02
1.330000e-06	-2.306066e-06	-1.638295e-09	-1.636106e+01	-1.135897e+02
1.340000e-06	-2.264694e-06	-1.630687e-09	-1.606753e+01	-1.131417e+02
1.350000e-06	-2.222977e-06	-1.624291e-09	-1.577155e+01	-1.126822e+02
1.360000e-06	-2.181008e-06	-1.617207e-09	-1.547379e+01	-1.122114e+02
1.370000e-06	-2.138709e-06	-1.609161e-09	-1.517369e+01	-1.117295e+02
1.380000e-06	-2.096167e-06	-1.600902e-09	-1.487187e+01	-1.112370e+02
1.390000e-06	-2.053449e-06	-1.593264e-09	-1.456879e+01	-1.107342e+02
1.400000e-06	-2.010513e-06	-1.586307e-09	-1.426417e+01	-1.102214e+02
1.410000e-06	-1.967433e-06	-1.578576e-09	-1.395853e+01	-1.096991e+02
1.420000e-06	-1.924190e-06	-1.569942e-09	-1.365172e+01	-1.091677e+02
1.430000e-06	-1.880723e-06	-1.561750e-09	-1.334333e+01	-1.086274e+02
1.440000e-06	-1.837136e-06	-1.550702e-09	-1.303409e+01	-1.080786e+02
1.450000e-06	-1.793518e-06	-1.538188e-09	-1.272464e+01	-1.075215e+02
1.460000e-06	-1.749873e-06	-1.529157e-09	-1.241498e+01	-1.069565e+02
1.470000e-06	-1.706092e-06	-1.524649e-09	-1.210436e+01	-1.063837e+02
1.480000e-06	-1.662188e-06	-1.516673e-09	-1.179288e+01	-1.058032e+02
1.490000e-06	-1.618242e-06	-1.505941e-09	-1.148109e+01	-1.052150e+02
1.500000e-06	-1.574192e-06	-1.495899e-09	-1.116856e+01	-1.046191e+02
1.510000e-06	-1.530037e-06	-1.487908e-09	-1.085529e+01	-1.040153e+02
1.520000e-06	-1.485873e-06	-1.478512e-09	-1.054196e+01	-1.034034e+02
1.530000e-06	-1.441641e-06	-1.465569e-09	-1.022814e+01	-1.027832e+02
1.540000e-06	-1.397269e-06	-1.452472e-09	-9.913326e+00	-1.021541e+02
1.550000e-06	-1.352851e-06	-1.443337e-09	-9.598196e+00	-1.015158e+02
1.560000e-06	-1.308383e-06	-1.437261e-09	-9.282701e+00	-1.008677e+02
1.570000e-06	-1.263758e-06	-1.430623e-09	-8.966101e+00	-1.002091e+02
1.580000e-06	-1.219043e-06	-1.419111e-09	-8.648852e+00	-9.953933e+01
1.590000e-06	-1.174295e-06	-1.409023e-09	-8.331373e+00	-9.885753e+01
1.600000e-06	-1.129464e-06	-1.398900e-09	-8.013309e+00	-9.816288e+01
1.610000e-06	-1.084551e-06	-1.385651e-09	-7.694658e+00	-9.745446e+01
1.620000e-06	-1.039532e-06	-1.368459e-09	-7.375262e+00	-9.673131e+01
1.630000e-06	-9.944169e-07	-1.354285e-09	-7.055178e+00	-9.599243e+01
1.640000e-06	-9.492755e-07	-1.343804e-09	-6.734910e+00	-9.523678e+01
1.650000e-06	-9.040466e-07	-1.333345e-09	-6.414020e+00	-9.446331e+01
1.660000e-06	-8.586836e-07	-1.323650e-09	-6.092179e+00	-9.367095e+01
1.670000e-06	-8.132465e-07	-1.315582e-09	-5.769813e+00	-9.285861e+01
1.680000e-06	-7.678710e-07	-1.304626e-09	-5.447883e+00	-9.202523e+01
1.690000e-06	-7.224939e-07	-1.287494e-09	-5.125942e+00	-9.116972e+01
1.700000e-06	-6.770103e-07	-1.267630e-09	-4.803246e+00	-9.029104e+01
1.710000e-06	-6.314904e-07	-1.249987e-09	-4.480292e+00	-8.938815e+01
1.720000e-06	-5.858556e-07	-1.236637e-09	-4.156522e+00	-8.846002e+01
1.730000e-06	-5.401790e-07	-1.225027e-09	-3.832457e+00	-8.750567e+01
1.740000e-06	-4.945142e-07	-1.211872e-09	-3.508474e+00	-8.652413e+01
1.750000e-06	-4.487465e-07	-1.197970e-09	-3.183762e+00	-8.551446e+01
1.760000e-06	-4.029324e-07	-1.187070e-09	-2.858720e+00	-8.447574e+01
1.770000e-06	-3.570889e-07	-1.174295e-09	-2.533471e+00	-8.340709e+01
1.780000e-06	-3.112159e-07	-1.154490e-09	-2.208012e+00	-8.230765e+01
1.790000e-06	-2.653517e-07	-1.131026e-09	-1.882614e+00	-8.117655e+01
1.800000e-06	-2.194652e-07	-1.111374e-09	-1.557059e+00	-8.001296e+01
1.810000e-06	-1.735909e-07	-1.094178e-09	-1.231591e+00	-7.881606e+01
1.820000e-06	-1.277016e-07	-1.077546e-09	-9.060158e-01	-7.758500e+01
1.830000e-06	-8.182125e-08	-1.059308e-09	-5.805045e-01	-7.631898e+01
1.840000e-06	-3.597451e-08	-1.041631e-09	-2.552316e-01	-7.501714e+01
1.850000e-06	9.865380e-09	-1.023272e-09	6.999279e-02	-7.367863e+01
1.860000e-06	5.571564e-08	-1.002150e-09	3.952907e-01	-7.230257e+01
1.870000e-06	1.016088e-07	-9.781012e-10	7.208932e-01	-7.088808e+01
1.880000e-06	1.475277e-07	-9.551869e-10	1.046678e+00	-6.943422e+01
1.890000e-06	1.933998e-07	-9.349597e-10	1.372131e+00	-6.794004e+01
1.900000e-06	2.392690e-07	-9.137601e-10	1.697563e+00	-6.640455e+01
1.910000e-06	2.851965e-07	-8.890816e-10	2.023409e+00	-6.482675e+01
1.920000e-06	3.310442e-07	-8.631907e-10	2.348689e+00	-6.320559e+01
1.930000e-06	3.768548e-07	-8.389773e-10	2.673706e+00	-6.154001e+01
1.940000e-06	4.227404e-07	-8.159660e-10	2.999254e+00	-5.982892e+01
1.950000e-06	4.686054e-07	-7.904617e-10	3.324657e+00	-5.807126e+01
1.960000e-06	5.143719e-07	-7.639990e-10	3.649361e+00	-5.626592e+01
1.970000e-06	5.600886e-07	-7.388267e-10	3.973711e+00	-5.441184e+01
1.980000e-06	6.057142e-07	-7.122173e-10	4.297415e+00	-5.250799e+01
1.990000e-06	6.512203e-07	-6.817975e-10	4.620271e+00	-5.055338e+01
2.000000e-06	6.966637e-07	-6.497972e-10	4.942682e+00	-4.854707e+01
2.010000e-06	7.421057e-07	-6.201835e-10	5.265084e+00	-4.648822e+01
2.020000e-06	7.875415e-07	-5.912604e-10	5.587441e+00	-4.437610e+01
2.030000e-06	8.328973e-07	-5.605897e-10	5.909231e+00	-4.221008e+01
2.040000e-06	8.782197e-07	-5.290879e-10	6.230784e+00	-3.998970e+01
2.050000e-06	9.234962e-07	-4.982453e-10	6.552011e+00	-3.771467e+01
2.060000e-06	9.686346e-07	-4.664208e-10	6.872259e+00	-3.538487e+01
2.070000e-06	1.013717e-06	-4.304225e-10	7.192108e+00	-3.300041e+01
2.080000e-06	1.058797e-06	-3.921406e-10	7.511942e+00	-3.056164e+01
2.090000e-06	1.103809e-06	-3.564538e-10	7.831294e+00	-2.806914e+01
2.100000e-06	1.148663e-06	-3.207691e-10	8.149523e+00	-2.552378e+01
2.110000e-06	1.193400e-06	-2.840213e-10	8.466920e+00	-2.292670e+01
2.120000e-06	1.238065e-06	-2.471914e-10	8.783812e+00	-2.027936e+01
2.130000e-06	1.282591e-06	-2.131657e-10	9.099716e+00	-1.758349e+01
2.140000e-06	1.327023e-06	-1.780400e-10	9.414949e+00	-1.484117e+01
2.150000e-06	1.371402e-06	-1.363687e-10	9.729811e+00	-1.205477e+01
2.160000e-06	1.415782e-06	-9.006204e-11	1.004468e+01	-9.226996e+00
2.170000e-06	1.460079e-06	-4.512166e-11	1.035896e+01	-6.360847e+00
2.180000e-06	1.504243e-06	-2.279480e-12	1.067229e+01	-3.459634e+00
2.190000e-06	1.548330e-06	4.021337e-11	1.098508e+01	-5.269549e-01
2.200000e-06	1.592368e-06	8.123715e-11	1.129751e+01	2.433321e+00
2.210000e-06	1.636404e-06	1.203347e-10	1.160994e+01	5.417069e+00
2.220000e-06	1.680352e-06	1.616448e-10	1.192174e+01	8.419937e+00
2.230000e-06	1.724178e-06	2.078468e-10	1.223268e+01	1.143737e+01
2.240000e-06	1.767938e-06	2.572856e-10	1.254315e+01	1.446465e+01
2.250000e-06	1.811625e-06	3.057733e-10	1.285310e+01	1.749691e+01
2.260000e-06	1.855294e-06	3.492468e-10	1.316292e+01	2.052919e+01
2.270000e-06	1.898916e-06	3.905879e-10	1.347241e+01	2.355646e+01
2.280000e-06	1.942337e-06	4.328783e-10	1.378047e+01	2.657368e+01
2.290000e-06	1.985482e-06	4.744247e-10	1.408658e+01	2.957579e+01
2.300000e-06	2.028417e-06	5.154664e-10	1.439119e+01	3.255783e+01
2.310000e-06	2.071241e-06	5.591520e-10	1.469502e+01	3.551491e+01
2.320000e-06	2.113879e-06	6.053384e-10	1.499753e+01	3.844227e+01
2.330000e-06	2.156205e-06	6.495097e-10	1.529782e+01	4.133533e+01
2.340000e-06	2.198123e-06	6.882238e-10	1.559522e+01	4.418973e+01
2.350000e-06	2.239666e-06	7.234966e-10	1.588996e+01	4.700134e+01
2.360000e-06	2.281058e-06	7.592093e-10	1.618363e+01	4.976629e+01
2.370000e-06	2.322270e-06	7.993194e-10	1.647601e+01	5.248103e+01
2.380000e-06	2.363159e-06	8.392703e-10	1.676612e+01	5.514234e+01
2.390000e-06	2.403761e-06	8.779008e-10	1.705418e+01	5.774731e+01
2.400000e-06	2.444197e-06	9.153764e-10	1.734106e+01	6.029341e+01
2.410000e-06	2.484561e-06	9.524106e-10	1.762744e+01	6.277848e+01
2.420000e-06	2.524781e-06	9.850052e-10	1.791279e+01	6.520073e+01
2.430000e-06	2.564820e-06	1.013576e-09	1.819686e+01	6.755875e+01
2.440000e-06	2.604779e-06	1.041878e-09	1.848036e+01	6.985150e+01
2.450000e-06	2.644653e-06	1.072443e-09	1.876325e+01	7.207829e+01
2.460000e-06	2.684352e-06	1.106155e-09	1.904492e+01	7.423883e+01
2.470000e-06	2.723927e-06	1.140790e-09	1.932569e+01	7.633311e+01
2.480000e-06	2.763363e-06	1.173973e-09	1.960548e+01	7.836149e+01
2.490000e-06	2.802608e-06	1.202037e-09	1.988392e+01	8.032459e+01
2.500000e-06	2.841738e-06	1.224893e-09	2.016153e+01	8.222332e+01
2.510000e-06	2.880687e-06	1.246533e-09	2.043787e+01	8.405883e+01
2.520000e-06	2.919334e-06	1.270693e-09	2.071206e+01	8.583248e+01
2.530000e-06	2.957746e-06	1.297717e-09	2.098459e+01	8.754582e+01
2.540000e-06	2.995933e-06	1.325585e-09	2.125552e+01	8.920055e+01
2.550000e-06	3.033912e-06	1.353429e-09	2.152497e+01	9.079847e+01
2.560000e-06	3.071728e-06	1.382007e-09	2.179327e+01	9.234151e+01
2.570000e-06	3.109302e-06	1.404973e-09	2.205984e+01	9.383160e+01
2.580000e-06	3.146620e-06	1.420617e-09	2.232461e+01	9.527076e+01
2.590000e-06	3.183772e-06	1.432615e-09	2.258819e+01	9.666096e+01
2.600000e-06	3.220709e-06	1.447918e-09	2.285026e+01	9.800417e+01
2.610000e-06	3.257388e-06	1.468590e-09	2.311048e+01	9.930233e+01
2.620000e-06	3.293833e-06	1.490750e-09	2.336905e+01	1.005573e+02
2.630000e-06	3.330082e-06	1.510035e-09	2.362623e+01	1.017708e+02
2.640000e-06	3.366175e-06	1.527504e-09	2.388230e+01	1.029445e+02
2.650000e-06	3.402142e-06	1.542976e-09	2.413748e+01	1.040800e+02
2.660000e-06	3.437965e-06	1.553896e-09	2.439164e+01	1.051788e+02
2.670000e-06	3.473659e-06	1.562602e-09	2.464488e+01	1.062421e+02
2.680000e-06	3.509234e-06	1.574865e-09	2.489728e+01	1.072712e+02
2.690000e-06	3.544553e-06	1.591350e-09	2.514786e+01	1.082672e+02
2.700000e-06	3.579506e-06	1.609905e-09	2.539584e+01	1.092311e+02
2.710000e-06	3.614084e-06	1.627781e-09	2.564116e+01	1.101638e+02
2.720000e-06	3.648269e-06	1.646556e-09	2.588370e+01	1.110660e+02
2.730000e-06	3.682005e-06	1.663938e-09	2.612305e+01	1.119384e+02
2.740000e-06	3.715367e-06	1.673272e-09	2.635975e+01	1.127818e+02
2.750000e-06	3.748355e-06	1.674697e-09	2.659379e+01	1.135966e+02
2.760000e-06	3.780935e-06	1.676391e-09	2.682494e+01	1.143835e+02
2.770000e-06	3.813196e-06	1.684498e-09	2.705382e+01	1.151429e+02
2.780000e-06	3.845230e-06	1.696422e-09	2.728110e+01	1.158753e+02
2.790000e-06	3.877101e-06	1.711832e-09	2.750721e+01	1.165812e+02
2.800000e-06	3.908832e-06	1.730666e-09	2.773234e+01	1.172612e+02
2.810000e-06	3.940352e-06	1.749380e-09	2.795597e+01	1.179157e+02
2.820000e-06	3.971613e-06	1.761250e-09	2.817776e+01	1.185454e+02
2.830000e-06	4.002644e-06	1.762142e-09	2.839792e+01	1.191508e+02
2.840000e-06	4.033427e-06	1.758107e-09	2.861631e+01	1.197326e+02
2.850000e-06	4.063856e-06	1.757419e-09	2.883220e+01	1.202914e+02
2.860000e-06	4.094017e-06	1.765385e-09	2.904619e+01	1.208281e+02
2.870000e-06	4.124008e-06	1.779669e-09	2.925897e+01	1.213433e+02
2.880000e-06	4.153667e-06	1.795534e-09	2.946939e+01	1.218380e+02
2.890000e-06	4.182970e-06	1.809921e-09	2.967729e+01	1.223130e+02
2.900000e-06	4.211936e-06	1.818948e-09	2.988280e+01	1.227692e+02
