# Temperatura_=_-0.9
# Concentracion g/m^3_=_4090.0
# C_Vs_to_Am_M_A/Vsm_=_65563218390.804596
# pendiente_HvsI_1/m_=_3716.3
# ordenada_HvsI_A/m_=_1297.0
# frecuencia_Hz_=_135065.94630257727

Tiempo_(s)	Campo_(V.s)	Magnetizacion_(V.s)	Campo_(kA/m)	Magnetizacion_(A/m)
0.000000e+00	-5.389353e-06	-2.549223e-09	-3.840104e+01	-1.666477e+02
1.000000e-08	-5.389497e-06	-2.545931e-09	-3.840207e+01	-1.665190e+02
2.000000e-08	-5.389404e-06	-2.546868e-09	-3.840141e+01	-1.663946e+02
3.000000e-08	-5.389046e-06	-2.546981e-09	-3.839886e+01	-1.662773e+02
4.000000e-08	-5.388367e-06	-2.543432e-09	-3.839402e+01	-1.661696e+02
5.000000e-08	-5.387244e-06	-2.546011e-09	-3.838602e+01	-1.660742e+02
6.000000e-08	-5.385519e-06	-2.559875e-09	-3.837372e+01	-1.659935e+02
7.000000e-08	-5.383151e-06	-2.551639e-09	-3.835685e+01	-1.659296e+02
8.000000e-08	-5.380191e-06	-2.499010e-09	-3.833576e+01	-1.658846e+02
9.000000e-08	-5.376631e-06	-2.497787e-09	-3.831039e+01	-1.658602e+02
1.000000e-07	-5.372594e-06	-2.595296e-09	-3.828163e+01	-1.658577e+02
1.100000e-07	-5.368314e-06	-2.638666e-09	-3.825113e+01	-1.658781e+02
1.200000e-07	-5.363850e-06	-2.521465e-09	-3.821933e+01	-1.659220e+02
1.300000e-07	-5.359105e-06	-2.456393e-09	-3.818552e+01	-1.659897e+02
1.400000e-07	-5.353955e-06	-2.570872e-09	-3.814882e+01	-1.660810e+02
1.500000e-07	-5.348333e-06	-2.647785e-09	-3.810876e+01	-1.661951e+02
1.600000e-07	-5.342357e-06	-2.514917e-09	-3.806618e+01	-1.663312e+02
1.700000e-07	-5.336159e-06	-2.437282e-09	-3.802202e+01	-1.664878e+02
1.800000e-07	-5.329582e-06	-2.583607e-09	-3.797515e+01	-1.666631e+02
1.900000e-07	-5.322601e-06	-2.678545e-09	-3.792541e+01	-1.668549e+02
2.000000e-07	-5.315359e-06	-2.581106e-09	-3.787381e+01	-1.670607e+02
2.100000e-07	-5.307885e-06	-2.540610e-09	-3.782056e+01	-1.672778e+02
2.200000e-07	-5.300077e-06	-2.649200e-09	-3.776492e+01	-1.675032e+02
2.300000e-07	-5.291909e-06	-2.667853e-09	-3.770672e+01	-1.677337e+02
2.400000e-07	-5.283408e-06	-2.595452e-09	-3.764615e+01	-1.679660e+02
2.500000e-07	-5.274387e-06	-2.632519e-09	-3.758187e+01	-1.681968e+02
2.600000e-07	-5.264732e-06	-2.718865e-09	-3.751307e+01	-1.684226e+02
2.700000e-07	-5.254475e-06	-2.670310e-09	-3.743999e+01	-1.686401e+02
2.800000e-07	-5.243672e-06	-2.628008e-09	-3.736302e+01	-1.688460e+02
2.900000e-07	-5.232425e-06	-2.700866e-09	-3.728287e+01	-1.690373e+02
3.000000e-07	-5.220740e-06	-2.706170e-09	-3.719962e+01	-1.692111e+02
3.100000e-07	-5.208656e-06	-2.604217e-09	-3.711351e+01	-1.693647e+02
3.200000e-07	-5.196258e-06	-2.621649e-09	-3.702517e+01	-1.694957e+02
3.300000e-07	-5.183512e-06	-2.712243e-09	-3.693435e+01	-1.696022e+02
3.400000e-07	-5.170363e-06	-2.681794e-09	-3.684067e+01	-1.696826e+02
3.500000e-07	-5.156800e-06	-2.621529e-09	-3.674403e+01	-1.697354e+02
3.600000e-07	-5.142895e-06	-2.664952e-09	-3.664494e+01	-1.697599e+02
3.700000e-07	-5.128611e-06	-2.676223e-09	-3.654316e+01	-1.697555e+02
3.800000e-07	-5.113831e-06	-2.623499e-09	-3.643785e+01	-1.697222e+02
3.900000e-07	-5.098549e-06	-2.621483e-09	-3.632896e+01	-1.696603e+02
4.000000e-07	-5.082829e-06	-2.638394e-09	-3.621696e+01	-1.695706e+02
4.100000e-07	-5.066634e-06	-2.607620e-09	-3.610156e+01	-1.694539e+02
4.200000e-07	-5.049956e-06	-2.614063e-09	-3.598272e+01	-1.693118e+02
4.300000e-07	-5.032857e-06	-2.651197e-09	-3.586089e+01	-1.691459e+02
4.400000e-07	-5.015474e-06	-2.624614e-09	-3.573702e+01	-1.689580e+02
4.500000e-07	-4.997843e-06	-2.595089e-09	-3.561140e+01	-1.687504e+02
4.600000e-07	-4.979938e-06	-2.619769e-09	-3.548382e+01	-1.685254e+02
4.700000e-07	-4.961697e-06	-2.625214e-09	-3.535384e+01	-1.682852e+02
4.800000e-07	-4.943001e-06	-2.589915e-09	-3.522063e+01	-1.680325e+02
4.900000e-07	-4.923829e-06	-2.583784e-09	-3.508402e+01	-1.677696e+02
5.000000e-07	-4.904272e-06	-2.593889e-09	-3.494467e+01	-1.674989e+02
5.100000e-07	-4.884456e-06	-2.597739e-09	-3.480347e+01	-1.672230e+02
5.200000e-07	-4.864420e-06	-2.598270e-09	-3.466071e+01	-1.669439e+02
5.300000e-07	-4.844125e-06	-2.589772e-09	-3.451610e+01	-1.666638e+02
5.400000e-07	-4.823604e-06	-2.576876e-09	-3.436988e+01	-1.663845e+02
5.500000e-07	-4.802875e-06	-2.587708e-09	-3.422218e+01	-1.661077e+02
5.600000e-07	-4.781752e-06	-2.585779e-09	-3.407167e+01	-1.658347e+02
5.700000e-07	-4.760224e-06	-2.558354e-09	-3.391828e+01	-1.655666e+02
5.800000e-07	-4.738392e-06	-2.542949e-09	-3.376272e+01	-1.653044e+02
5.900000e-07	-4.716282e-06	-2.553700e-09	-3.360518e+01	-1.650485e+02
6.000000e-07	-4.693813e-06	-2.557819e-09	-3.344507e+01	-1.647992e+02
6.100000e-07	-4.670986e-06	-2.552222e-09	-3.328242e+01	-1.645565e+02
6.200000e-07	-4.647796e-06	-2.540750e-09	-3.311719e+01	-1.643201e+02
6.300000e-07	-4.624275e-06	-2.536178e-09	-3.294959e+01	-1.640895e+02
6.400000e-07	-4.600563e-06	-2.544725e-09	-3.278064e+01	-1.638640e+02
6.500000e-07	-4.576671e-06	-2.542789e-09	-3.261040e+01	-1.636426e+02
6.600000e-07	-4.552617e-06	-2.517993e-09	-3.243900e+01	-1.634242e+02
6.700000e-07	-4.528315e-06	-2.504508e-09	-3.226584e+01	-1.632077e+02
6.800000e-07	-4.503611e-06	-2.515973e-09	-3.208982e+01	-1.629916e+02
6.900000e-07	-4.478431e-06	-2.523377e-09	-3.191040e+01	-1.627747e+02
7.000000e-07	-4.452770e-06	-2.514754e-09	-3.172756e+01	-1.625555e+02
7.100000e-07	-4.426592e-06	-2.506511e-09	-3.154103e+01	-1.623328e+02
7.200000e-07	-4.399898e-06	-2.509477e-09	-3.135083e+01	-1.621051e+02
7.300000e-07	-4.372770e-06	-2.513606e-09	-3.115753e+01	-1.618712e+02
7.400000e-07	-4.345254e-06	-2.503373e-09	-3.096147e+01	-1.616301e+02
7.500000e-07	-4.317524e-06	-2.484131e-09	-3.076388e+01	-1.613806e+02
7.600000e-07	-4.289665e-06	-2.480253e-09	-3.056538e+01	-1.611221e+02
7.700000e-07	-4.261561e-06	-2.484670e-09	-3.036513e+01	-1.608539e+02
7.800000e-07	-4.233179e-06	-2.476938e-09	-3.016289e+01	-1.605753e+02
7.900000e-07	-4.204542e-06	-2.460036e-09	-2.995885e+01	-1.602863e+02
8.000000e-07	-4.175616e-06	-2.456966e-09	-2.975274e+01	-1.599867e+02
8.100000e-07	-4.146430e-06	-2.464691e-09	-2.954478e+01	-1.596765e+02
8.200000e-07	-4.117024e-06	-2.466285e-09	-2.933525e+01	-1.593562e+02
8.300000e-07	-4.087288e-06	-2.453023e-09	-2.912337e+01	-1.590260e+02
8.400000e-07	-4.057206e-06	-2.440048e-09	-2.890903e+01	-1.586867e+02
8.500000e-07	-4.026883e-06	-2.437720e-09	-2.869296e+01	-1.583389e+02
8.600000e-07	-3.996232e-06	-2.434469e-09	-2.847456e+01	-1.579835e+02
8.700000e-07	-3.965320e-06	-2.417066e-09	-2.825431e+01	-1.576214e+02
8.800000e-07	-3.934235e-06	-2.400004e-09	-2.803282e+01	-1.572536e+02
8.900000e-07	-3.902930e-06	-2.401382e-09	-2.780975e+01	-1.568812e+02
9.000000e-07	-3.871361e-06	-2.412524e-09	-2.758482e+01	-1.565051e+02
9.100000e-07	-3.839532e-06	-2.407968e-09	-2.735802e+01	-1.561264e+02
9.200000e-07	-3.807514e-06	-2.389316e-09	-2.712988e+01	-1.557460e+02
9.300000e-07	-3.775318e-06	-2.375358e-09	-2.690047e+01	-1.553648e+02
9.400000e-07	-3.742982e-06	-2.371713e-09	-2.667007e+01	-1.549837e+02
9.500000e-07	-3.710488e-06	-2.362916e-09	-2.643854e+01	-1.546032e+02
9.600000e-07	-3.677701e-06	-2.347513e-09	-2.620492e+01	-1.542240e+02
9.700000e-07	-3.644471e-06	-2.342366e-09	-2.596814e+01	-1.538466e+02
9.800000e-07	-3.610695e-06	-2.349087e-09	-2.572748e+01	-1.534711e+02
9.900000e-07	-3.576420e-06	-2.348600e-09	-2.548326e+01	-1.530977e+02
1.000000e-06	-3.541789e-06	-2.334685e-09	-2.523650e+01	-1.527263e+02
1.010000e-06	-3.506760e-06	-2.321053e-09	-2.498690e+01	-1.523569e+02
1.020000e-06	-3.471393e-06	-2.312652e-09	-2.473490e+01	-1.519891e+02
1.030000e-06	-3.435869e-06	-2.301313e-09	-2.448178e+01	-1.516224e+02
1.040000e-06	-3.400151e-06	-2.287139e-09	-2.422728e+01	-1.512562e+02
1.050000e-06	-3.364204e-06	-2.280762e-09	-2.397114e+01	-1.508899e+02
1.060000e-06	-3.328099e-06	-2.282487e-09	-2.371388e+01	-1.505227e+02
1.070000e-06	-3.291893e-06	-2.282084e-09	-2.345590e+01	-1.501537e+02
1.080000e-06	-3.255546e-06	-2.271170e-09	-2.319692e+01	-1.497821e+02
1.090000e-06	-3.218980e-06	-2.256308e-09	-2.293637e+01	-1.494069e+02
1.100000e-06	-3.182180e-06	-2.247264e-09	-2.267416e+01	-1.490271e+02
1.110000e-06	-3.145127e-06	-2.242017e-09	-2.241014e+01	-1.486419e+02
1.120000e-06	-3.107853e-06	-2.230166e-09	-2.214455e+01	-1.482503e+02
1.130000e-06	-3.070344e-06	-2.218189e-09	-2.187729e+01	-1.478515e+02
1.140000e-06	-3.032609e-06	-2.215678e-09	-2.160841e+01	-1.474448e+02
1.150000e-06	-2.994677e-06	-2.217452e-09	-2.133813e+01	-1.470292e+02
1.160000e-06	-2.956532e-06	-2.209644e-09	-2.106633e+01	-1.466044e+02
1.170000e-06	-2.918211e-06	-2.194233e-09	-2.079329e+01	-1.461696e+02
1.180000e-06	-2.879680e-06	-2.181557e-09	-2.051874e+01	-1.457245e+02
1.190000e-06	-2.840855e-06	-2.175327e-09	-2.024210e+01	-1.452688e+02
1.200000e-06	-2.801782e-06	-2.166711e-09	-1.996369e+01	-1.448023e+02
1.210000e-06	-2.762546e-06	-2.153064e-09	-1.968412e+01	-1.443248e+02
1.220000e-06	-2.723123e-06	-2.144552e-09	-1.940322e+01	-1.438363e+02
1.230000e-06	-2.683599e-06	-2.143727e-09	-1.912159e+01	-1.433369e+02
1.240000e-06	-2.643929e-06	-2.139846e-09	-1.883893e+01	-1.428267e+02
1.250000e-06	-2.604070e-06	-2.129515e-09	-1.855492e+01	-1.423061e+02
1.260000e-06	-2.564142e-06	-2.119833e-09	-1.827042e+01	-1.417752e+02
1.270000e-06	-2.524080e-06	-2.113827e-09	-1.798496e+01	-1.412344e+02
1.280000e-06	-2.483881e-06	-2.107064e-09	-1.769853e+01	-1.406841e+02
1.290000e-06	-2.443633e-06	-2.095736e-09	-1.741175e+01	-1.401246e+02
1.300000e-06	-2.403281e-06	-2.083070e-09	-1.712423e+01	-1.395563e+02
1.310000e-06	-2.362760e-06	-2.072933e-09	-1.683550e+01	-1.389796e+02
1.320000e-06	-2.322048e-06	-2.064137e-09	-1.654541e+01	-1.383947e+02
1.330000e-06	-2.281085e-06	-2.054058e-09	-1.625353e+01	-1.378020e+02
1.340000e-06	-2.239941e-06	-2.045510e-09	-1.596037e+01	-1.372016e+02
1.350000e-06	-2.198545e-06	-2.039039e-09	-1.566541e+01	-1.365937e+02
1.360000e-06	-2.156818e-06	-2.030820e-09	-1.536809e+01	-1.359784e+02
1.370000e-06	-2.114818e-06	-2.019405e-09	-1.506883e+01	-1.353557e+02
1.380000e-06	-2.072585e-06	-2.007083e-09	-1.476790e+01	-1.347255e+02
1.390000e-06	-2.030015e-06	-1.995915e-09	-1.446457e+01	-1.340877e+02
1.400000e-06	-1.987170e-06	-1.986616e-09	-1.415929e+01	-1.334420e+02
1.410000e-06	-1.944209e-06	-1.976876e-09	-1.385317e+01	-1.327881e+02
1.420000e-06	-1.901054e-06	-1.967368e-09	-1.354568e+01	-1.321256e+02
1.430000e-06	-1.857723e-06	-1.959687e-09	-1.323693e+01	-1.314540e+02
1.440000e-06	-1.814250e-06	-1.950224e-09	-1.292717e+01	-1.307728e+02
1.450000e-06	-1.770603e-06	-1.936483e-09	-1.261617e+01	-1.300814e+02
1.460000e-06	-1.726810e-06	-1.922991e-09	-1.230413e+01	-1.293791e+02
1.470000e-06	-1.682950e-06	-1.911569e-09	-1.199161e+01	-1.286654e+02
1.480000e-06	-1.639035e-06	-1.901022e-09	-1.167871e+01	-1.279394e+02
1.490000e-06	-1.595098e-06	-1.888944e-09	-1.136564e+01	-1.272005e+02
1.500000e-06	-1.551105e-06	-1.875477e-09	-1.105217e+01	-1.264479e+02
1.510000e-06	-1.507016e-06	-1.863760e-09	-1.073803e+01	-1.256809e+02
1.520000e-06	-1.462888e-06	-1.852569e-09	-1.042359e+01	-1.248988e+02
1.530000e-06	-1.418733e-06	-1.837985e-09	-1.010897e+01	-1.241007e+02
1.540000e-06	-1.374501e-06	-1.822521e-09	-9.793806e+00	-1.232861e+02
1.550000e-06	-1.330169e-06	-1.810168e-09	-9.477925e+00	-1.224543e+02
1.560000e-06	-1.285800e-06	-1.801741e-09	-9.161776e+00	-1.216045e+02
1.570000e-06	-1.241407e-06	-1.792207e-09	-8.845462e+00	-1.207361e+02
1.580000e-06	-1.196937e-06	-1.777414e-09	-8.528600e+00	-1.198485e+02
1.590000e-06	-1.152385e-06	-1.762236e-09	-8.211153e+00	-1.189411e+02
1.600000e-06	-1.107711e-06	-1.748410e-09	-7.892830e+00	-1.180133e+02
1.610000e-06	-1.062914e-06	-1.731780e-09	-7.573637e+00	-1.170645e+02
1.620000e-06	-1.018041e-06	-1.711486e-09	-7.253902e+00	-1.160942e+02
1.630000e-06	-9.731273e-07	-1.692592e-09	-6.933876e+00	-1.151018e+02
1.640000e-06	-9.281567e-07	-1.677549e-09	-6.613444e+00	-1.140866e+02
1.650000e-06	-8.830964e-07	-1.663652e-09	-6.292374e+00	-1.130481e+02
1.660000e-06	-8.380041e-07	-1.649521e-09	-5.971075e+00	-1.119856e+02
1.670000e-06	-7.928356e-07	-1.635924e-09	-5.649234e+00	-1.108985e+02
1.680000e-06	-7.474966e-07	-1.621523e-09	-5.326177e+00	-1.097861e+02
1.690000e-06	-7.020822e-07	-1.601720e-09	-5.002584e+00	-1.086477e+02
1.700000e-06	-6.567232e-07	-1.576577e-09	-4.679385e+00	-1.074824e+02
1.710000e-06	-6.113914e-07	-1.552490e-09	-4.356380e+00	-1.062894e+02
1.720000e-06	-5.659564e-07	-1.533089e-09	-4.032639e+00	-1.050678e+02
1.730000e-06	-5.204135e-07	-1.516534e-09	-3.708130e+00	-1.038167e+02
1.740000e-06	-4.748625e-07	-1.498378e-09	-3.383563e+00	-1.025351e+02
1.750000e-06	-4.293315e-07	-1.480365e-09	-3.059139e+00	-1.012219e+02
1.760000e-06	-3.837578e-07	-1.465509e-09	-2.734410e+00	-9.987590e+01
1.770000e-06	-3.380887e-07	-1.448877e-09	-2.409001e+00	-9.849605e+01
1.780000e-06	-2.923502e-07	-1.421629e-09	-2.083099e+00	-9.708112e+01
1.790000e-06	-2.466315e-07	-1.388231e-09	-1.757337e+00	-9.562986e+01
1.800000e-06	-2.009367e-07	-1.358822e-09	-1.431745e+00	-9.414101e+01
1.810000e-06	-1.552288e-07	-1.335489e-09	-1.106060e+00	-9.261329e+01
1.820000e-06	-1.095099e-07	-1.313951e-09	-7.802964e-01	-9.104542e+01
1.830000e-06	-6.373497e-08	-1.292050e-09	-4.541342e-01	-8.943610e+01
1.840000e-06	-1.794260e-08	-1.273608e-09	-1.278474e-01	-8.778408e+01
1.850000e-06	2.776990e-08	-1.257916e-09	1.978703e-01	-8.608811e+01
1.860000e-06	7.344974e-08	-1.234870e-09	5.233554e-01	-8.434698e+01
1.870000e-06	1.191519e-07	-1.200037e-09	8.489991e-01	-8.255953e+01
1.880000e-06	1.648208e-07	-1.163292e-09	1.174406e+00	-8.072467e+01
1.890000e-06	2.104836e-07	-1.132591e-09	1.499770e+00	-7.884137e+01
1.900000e-06	2.561884e-07	-1.104693e-09	1.825433e+00	-7.690866e+01
1.910000e-06	3.019387e-07	-1.075928e-09	2.151420e+00	-7.492569e+01
1.920000e-06	3.476587e-07	-1.049800e-09	2.477191e+00	-7.289168e+01
1.930000e-06	3.932716e-07	-1.027981e-09	2.802199e+00	-7.080594e+01
1.940000e-06	4.388950e-07	-1.004278e-09	3.127282e+00	-6.866792e+01
1.950000e-06	4.846403e-07	-9.702064e-10	3.453233e+00	-6.647715e+01
1.960000e-06	5.302887e-07	-9.291525e-10	3.778495e+00	-6.423329e+01
1.970000e-06	5.757452e-07	-8.884451e-10	4.102388e+00	-6.193611e+01
1.980000e-06	6.211184e-07	-8.526177e-10	4.425688e+00	-5.958550e+01
1.990000e-06	6.664555e-07	-8.183533e-10	4.748731e+00	-5.718148e+01
2.000000e-06	7.117378e-07	-7.870608e-10	5.071383e+00	-5.472419e+01
2.010000e-06	7.569547e-07	-7.566341e-10	5.393569e+00	-5.221389e+01
2.020000e-06	8.021752e-07	-7.234184e-10	5.715782e+00	-4.965098e+01
2.030000e-06	8.473516e-07	-6.859481e-10	6.037680e+00	-4.703596e+01
2.040000e-06	8.924213e-07	-6.419000e-10	6.358817e+00	-4.436947e+01
2.050000e-06	9.374170e-07	-5.971271e-10	6.679427e+00	-4.165230e+01
2.060000e-06	9.823445e-07	-5.570709e-10	6.999552e+00	-3.888534e+01
2.070000e-06	1.027138e-06	-5.206429e-10	7.318723e+00	-3.606963e+01
2.080000e-06	1.071781e-06	-4.837591e-10	7.636819e+00	-3.320633e+01
2.090000e-06	1.116411e-06	-4.437490e-10	7.954824e+00	-3.029674e+01
2.100000e-06	1.161034e-06	-4.020775e-10	8.272777e+00	-2.734230e+01
2.110000e-06	1.205497e-06	-3.595262e-10	8.589592e+00	-2.434459e+01
2.120000e-06	1.249823e-06	-3.143496e-10	8.905434e+00	-2.130533e+01
2.130000e-06	1.294096e-06	-2.681891e-10	9.220889e+00	-1.822640e+01
2.140000e-06	1.338335e-06	-2.222186e-10	9.536107e+00	-1.510980e+01
2.150000e-06	1.382556e-06	-1.767576e-10	9.851196e+00	-1.195770e+01
2.160000e-06	1.426751e-06	-1.314767e-10	1.016610e+01	-8.772430e+00
2.170000e-06	1.470866e-06	-8.639641e-11	1.048044e+01	-5.556449e+00
2.180000e-06	1.514918e-06	-3.852393e-11	1.079432e+01	-2.312382e+00
2.190000e-06	1.558925e-06	9.564616e-12	1.110789e+01	9.569976e-01
2.200000e-06	1.602897e-06	5.695046e-11	1.142120e+01	4.248768e+00
2.210000e-06	1.646786e-06	1.067100e-10	1.173393e+01	7.559865e+00
2.220000e-06	1.690547e-06	1.586882e-10	1.204574e+01	1.088709e+01
2.230000e-06	1.734233e-06	2.082336e-10	1.235702e+01	1.422710e+01
2.240000e-06	1.777871e-06	2.569209e-10	1.266796e+01	1.757645e+01
2.250000e-06	1.821436e-06	3.048951e-10	1.297837e+01	2.093159e+01
2.260000e-06	1.864911e-06	3.519190e-10	1.328815e+01	2.428886e+01
2.270000e-06	1.908259e-06	3.994962e-10	1.359702e+01	2.764452e+01
2.280000e-06	1.951311e-06	4.492703e-10	1.390378e+01	3.099479e+01
2.290000e-06	1.994077e-06	5.001139e-10	1.420851e+01	3.433584e+01
2.300000e-06	2.036651e-06	5.505472e-10	1.451186e+01	3.766382e+01
2.310000e-06	2.079048e-06	6.019497e-10	1.481395e+01	4.097488e+01
2.320000e-06	2.121177e-06	6.534869e-10	1.511414e+01	4.426520e+01
2.330000e-06	2.162971e-06	7.035081e-10	1.541194e+01	4.753101e+01
2.340000e-06	2.204435e-06	7.483766e-10	1.570738e+01	5.076862e+01
2.350000e-06	2.245590e-06	7.893974e-10	1.600062e+01	5.397443e+01
2.360000e-06	2.286573e-06	8.318002e-10	1.629264e+01	5.714497e+01
2.370000e-06	2.327300e-06	8.773221e-10	1.658283e+01	6.027694e+01
2.380000e-06	2.367725e-06	9.233041e-10	1.687088e+01	6.336716e+01
2.390000e-06	2.408027e-06	9.679498e-10	1.715804e+01	6.641269e+01
2.400000e-06	2.448266e-06	1.011862e-09	1.744476e+01	6.941077e+01
2.410000e-06	2.488359e-06	1.055352e-09	1.773044e+01	7.235889e+01
2.420000e-06	2.528329e-06	1.096472e-09	1.801524e+01	7.525475e+01
2.430000e-06	2.568276e-06	1.136120e-09	1.829987e+01	7.809633e+01
2.440000e-06	2.608153e-06	1.175908e-09	1.858401e+01	8.088185e+01
2.450000e-06	2.647947e-06	1.215099e-09	1.886756e+01	8.360981e+01
2.460000e-06	2.687660e-06	1.253158e-09	1.915053e+01	8.627896e+01
2.470000e-06	2.727135e-06	1.290187e-09	1.943180e+01	8.888832e+01
2.480000e-06	2.766342e-06	1.326542e-09	1.971116e+01	9.143717e+01
2.490000e-06	2.805362e-06	1.364157e-09	1.998920e+01	9.392503e+01
2.500000e-06	2.844107e-06	1.401115e-09	2.026527e+01	9.635168e+01
2.510000e-06	2.882642e-06	1.435114e-09	2.053984e+01	9.871711e+01
2.520000e-06	2.920973e-06	1.467834e-09	2.081297e+01	1.010215e+02
2.530000e-06	2.959033e-06	1.500715e-09	2.108416e+01	1.032653e+02
2.540000e-06	2.996989e-06	1.532934e-09	2.135460e+01	1.054490e+02
2.550000e-06	3.034882e-06	1.564502e-09	2.162460e+01	1.075733e+02
2.560000e-06	3.072646e-06	1.594603e-09	2.189369e+01	1.096390e+02
2.570000e-06	3.110214e-06	1.622912e-09	2.216138e+01	1.116472e+02
2.580000e-06	3.147485e-06	1.650474e-09	2.242694e+01	1.135987e+02
2.590000e-06	3.184380e-06	1.678300e-09	2.268983e+01	1.154948e+02
2.600000e-06	3.220980e-06	1.704797e-09	2.295062e+01	1.173364e+02
2.610000e-06	3.257423e-06	1.729028e-09	2.321029e+01	1.191247e+02
2.620000e-06	3.293724e-06	1.752051e-09	2.346895e+01	1.208609e+02
2.630000e-06	3.329863e-06	1.775658e-09	2.372645e+01	1.225460e+02
2.640000e-06	3.365889e-06	1.800491e-09	2.398315e+01	1.241812e+02
2.650000e-06	3.401818e-06	1.823515e-09	2.423916e+01	1.257675e+02
2.660000e-06	3.437655e-06	1.843901e-09	2.449451e+01	1.273058e+02
2.670000e-06	3.473353e-06	1.863512e-09	2.474887e+01	1.287972e+02
2.680000e-06	3.508725e-06	1.884408e-09	2.500090e+01	1.302425e+02
2.690000e-06	3.543671e-06	1.904480e-09	2.524991e+01	1.316426e+02
2.700000e-06	3.578196e-06	1.923436e-09	2.549591e+01	1.329982e+02
2.710000e-06	3.612359e-06	1.943743e-09	2.573934e+01	1.343102e+02
2.720000e-06	3.646062e-06	1.965291e-09	2.597948e+01	1.355793e+02
2.730000e-06	3.679319e-06	1.985312e-09	2.621645e+01	1.368060e+02
2.740000e-06	3.712240e-06	2.002086e-09	2.645102e+01	1.379912e+02
2.750000e-06	3.744807e-06	2.016665e-09	2.668307e+01	1.391355e+02
2.760000e-06	3.777124e-06	2.029714e-09	2.691335e+01	1.402396e+02
2.770000e-06	3.809266e-06	2.041908e-09	2.714236e+01	1.413042e+02
2.780000e-06	3.841264e-06	2.056380e-09	2.737036e+01	1.423300e+02
2.790000e-06	3.873121e-06	2.074610e-09	2.759736e+01	1.433177e+02
2.800000e-06	3.904763e-06	2.093207e-09	2.782282e+01	1.442683e+02
2.810000e-06	3.936134e-06	2.109937e-09	2.804634e+01	1.451827e+02
2.820000e-06	3.967203e-06	2.124311e-09	2.826773e+01	1.460617e+02
2.830000e-06	3.997906e-06	2.134750e-09	2.848649e+01	1.469064e+02
2.840000e-06	4.028327e-06	2.143277e-09	2.870325e+01	1.477179e+02
2.850000e-06	4.058523e-06	2.153577e-09	2.891841e+01	1.484975e+02
2.860000e-06	4.088448e-06	2.166632e-09	2.913164e+01	1.492463e+02
2.870000e-06	4.118086e-06	2.181048e-09	2.934282e+01	1.499656e+02
2.880000e-06	4.147465e-06	2.192691e-09	2.955215e+01	1.506568e+02
2.890000e-06	4.176676e-06	2.200548e-09	2.976029e+01	1.513214e+02
2.900000e-06	4.205646e-06	2.207348e-09	2.996672e+01	1.519607e+02
