# Temperatura_=_5.99
# Concentracion g/m^3_=_4090.0
# C_Vs_to_Am_M_A/Vsm_=_65563218390.804596
# pendiente_HvsI_1/m_=_3716.3
# ordenada_HvsI_A/m_=_1297.0
# frecuencia_Hz_=_135068.18569301587

Tiempo_(s)	Campo_(V.s)	Magnetizacion_(V.s)	Campo_(kA/m)	Magnetizacion_(A/m)
0.000000e+00	-5.395208e-06	-2.504405e-09	-3.839748e+01	-1.625349e+02
1.000000e-08	-5.395402e-06	-2.502481e-09	-3.839886e+01	-1.624509e+02
2.000000e-08	-5.395328e-06	-2.502159e-09	-3.839834e+01	-1.623679e+02
3.000000e-08	-5.395024e-06	-2.498651e-09	-3.839617e+01	-1.622874e+02
4.000000e-08	-5.394376e-06	-2.494585e-09	-3.839156e+01	-1.622113e+02
5.000000e-08	-5.393219e-06	-2.493633e-09	-3.838333e+01	-1.621412e+02
6.000000e-08	-5.391463e-06	-2.500306e-09	-3.837082e+01	-1.620787e+02
7.000000e-08	-5.389166e-06	-2.525651e-09	-3.835448e+01	-1.620252e+02
8.000000e-08	-5.386302e-06	-2.504316e-09	-3.833410e+01	-1.619820e+02
9.000000e-08	-5.382850e-06	-2.417317e-09	-3.830953e+01	-1.619501e+02
1.000000e-07	-5.378995e-06	-2.437708e-09	-3.828209e+01	-1.619304e+02
1.100000e-07	-5.374860e-06	-2.616181e-09	-3.825267e+01	-1.619233e+02
1.200000e-07	-5.370472e-06	-2.567562e-09	-3.822144e+01	-1.619291e+02
1.300000e-07	-5.365797e-06	-2.417142e-09	-3.818816e+01	-1.619481e+02
1.400000e-07	-5.360797e-06	-2.387029e-09	-3.815258e+01	-1.619798e+02
1.500000e-07	-5.355432e-06	-2.633593e-09	-3.811440e+01	-1.620238e+02
1.600000e-07	-5.349686e-06	-2.605453e-09	-3.807350e+01	-1.620792e+02
1.700000e-07	-5.343585e-06	-2.361462e-09	-3.803008e+01	-1.621452e+02
1.800000e-07	-5.337046e-06	-2.383211e-09	-3.798354e+01	-1.622203e+02
1.900000e-07	-5.330200e-06	-2.606568e-09	-3.793482e+01	-1.623031e+02
2.000000e-07	-5.322996e-06	-2.609520e-09	-3.788355e+01	-1.623920e+02
2.100000e-07	-5.315415e-06	-2.422732e-09	-3.782960e+01	-1.624849e+02
2.200000e-07	-5.307629e-06	-2.521805e-09	-3.777419e+01	-1.625801e+02
2.300000e-07	-5.299656e-06	-2.643298e-09	-3.771744e+01	-1.626754e+02
2.400000e-07	-5.291312e-06	-2.564892e-09	-3.765806e+01	-1.627686e+02
2.500000e-07	-5.282466e-06	-2.456866e-09	-3.759510e+01	-1.628577e+02
2.600000e-07	-5.273070e-06	-2.613833e-09	-3.752823e+01	-1.629405e+02
2.700000e-07	-5.262887e-06	-2.625724e-09	-3.745576e+01	-1.630149e+02
2.800000e-07	-5.252003e-06	-2.490204e-09	-3.737830e+01	-1.630790e+02
2.900000e-07	-5.240732e-06	-2.505659e-09	-3.729808e+01	-1.631308e+02
3.000000e-07	-5.229213e-06	-2.660722e-09	-3.721610e+01	-1.631689e+02
3.100000e-07	-5.217288e-06	-2.541225e-09	-3.713123e+01	-1.631915e+02
3.200000e-07	-5.204975e-06	-2.426418e-09	-3.704360e+01	-1.631975e+02
3.300000e-07	-5.192259e-06	-2.546191e-09	-3.695310e+01	-1.631858e+02
3.400000e-07	-5.179138e-06	-2.619494e-09	-3.685972e+01	-1.631556e+02
3.500000e-07	-5.165659e-06	-2.483151e-09	-3.676379e+01	-1.631063e+02
3.600000e-07	-5.151818e-06	-2.498767e-09	-3.666529e+01	-1.630378e+02
3.700000e-07	-5.137574e-06	-2.576682e-09	-3.656391e+01	-1.629499e+02
3.800000e-07	-5.122797e-06	-2.515159e-09	-3.645874e+01	-1.628429e+02
3.900000e-07	-5.107491e-06	-2.468654e-09	-3.634981e+01	-1.627174e+02
4.000000e-07	-5.091711e-06	-2.540067e-09	-3.623750e+01	-1.625740e+02
4.100000e-07	-5.075402e-06	-2.499491e-09	-3.612143e+01	-1.624136e+02
4.200000e-07	-5.058678e-06	-2.436575e-09	-3.600241e+01	-1.622375e+02
4.300000e-07	-5.041636e-06	-2.522998e-09	-3.588112e+01	-1.620469e+02
4.400000e-07	-5.024269e-06	-2.541604e-09	-3.575752e+01	-1.618433e+02
4.500000e-07	-5.006600e-06	-2.459777e-09	-3.563177e+01	-1.616281e+02
4.600000e-07	-4.988579e-06	-2.462205e-09	-3.550352e+01	-1.614031e+02
4.700000e-07	-4.970272e-06	-2.532237e-09	-3.537323e+01	-1.611697e+02
4.800000e-07	-4.951592e-06	-2.485236e-09	-3.524029e+01	-1.609298e+02
4.900000e-07	-4.932511e-06	-2.463122e-09	-3.510448e+01	-1.606849e+02
5.000000e-07	-4.913105e-06	-2.470062e-09	-3.496637e+01	-1.604366e+02
5.100000e-07	-4.893402e-06	-2.475207e-09	-3.482614e+01	-1.601863e+02
5.200000e-07	-4.873416e-06	-2.468987e-09	-3.468391e+01	-1.599355e+02
5.300000e-07	-4.853237e-06	-2.492960e-09	-3.454030e+01	-1.596852e+02
5.400000e-07	-4.832794e-06	-2.445608e-09	-3.439480e+01	-1.594368e+02
5.500000e-07	-4.811990e-06	-2.437925e-09	-3.424674e+01	-1.591909e+02
5.600000e-07	-4.790898e-06	-2.461113e-09	-3.409663e+01	-1.589483e+02
5.700000e-07	-4.769503e-06	-2.458216e-09	-3.394436e+01	-1.587096e+02
5.800000e-07	-4.747767e-06	-2.412540e-09	-3.378967e+01	-1.584751e+02
5.900000e-07	-4.725703e-06	-2.427625e-09	-3.363264e+01	-1.582448e+02
6.000000e-07	-4.703287e-06	-2.442661e-09	-3.347311e+01	-1.580188e+02
6.100000e-07	-4.680524e-06	-2.448435e-09	-3.331110e+01	-1.577968e+02
6.200000e-07	-4.657376e-06	-2.431531e-09	-3.314636e+01	-1.575783e+02
6.300000e-07	-4.633922e-06	-2.412447e-09	-3.297944e+01	-1.573629e+02
6.400000e-07	-4.610280e-06	-2.403207e-09	-3.281118e+01	-1.571498e+02
6.500000e-07	-4.586414e-06	-2.419859e-09	-3.264133e+01	-1.569382e+02
6.600000e-07	-4.562273e-06	-2.405162e-09	-3.246952e+01	-1.567273e+02
6.700000e-07	-4.537930e-06	-2.379743e-09	-3.229626e+01	-1.565160e+02
6.800000e-07	-4.513335e-06	-2.389074e-09	-3.212123e+01	-1.563034e+02
6.900000e-07	-4.488363e-06	-2.412969e-09	-3.194350e+01	-1.560885e+02
7.000000e-07	-4.462861e-06	-2.408574e-09	-3.176200e+01	-1.558702e+02
7.100000e-07	-4.436698e-06	-2.382792e-09	-3.157580e+01	-1.556475e+02
7.200000e-07	-4.409970e-06	-2.370256e-09	-3.138558e+01	-1.554195e+02
7.300000e-07	-4.382835e-06	-2.373053e-09	-3.119246e+01	-1.551855e+02
7.400000e-07	-4.355390e-06	-2.379731e-09	-3.099714e+01	-1.549445e+02
7.500000e-07	-4.327674e-06	-2.359833e-09	-3.079988e+01	-1.546959e+02
7.600000e-07	-4.299818e-06	-2.353078e-09	-3.060163e+01	-1.544392e+02
7.700000e-07	-4.271788e-06	-2.363426e-09	-3.040215e+01	-1.541740e+02
7.800000e-07	-4.243497e-06	-2.376938e-09	-3.020080e+01	-1.538999e+02
7.900000e-07	-4.214956e-06	-2.358139e-09	-2.999767e+01	-1.536168e+02
8.000000e-07	-4.186103e-06	-2.344397e-09	-2.979233e+01	-1.533246e+02
8.100000e-07	-4.156912e-06	-2.337792e-09	-2.958457e+01	-1.530235e+02
8.200000e-07	-4.127436e-06	-2.346136e-09	-2.937480e+01	-1.527135e+02
8.300000e-07	-4.097683e-06	-2.336357e-09	-2.916305e+01	-1.523951e+02
8.400000e-07	-4.067625e-06	-2.322847e-09	-2.894913e+01	-1.520687e+02
8.500000e-07	-4.037236e-06	-2.312404e-09	-2.873285e+01	-1.517347e+02
8.600000e-07	-4.006637e-06	-2.324095e-09	-2.851508e+01	-1.513938e+02
8.700000e-07	-3.975880e-06	-2.320788e-09	-2.829618e+01	-1.510465e+02
8.800000e-07	-3.944851e-06	-2.306469e-09	-2.807534e+01	-1.506936e+02
8.900000e-07	-3.913522e-06	-2.290605e-09	-2.785238e+01	-1.503357e+02
9.000000e-07	-3.881931e-06	-2.297948e-09	-2.762755e+01	-1.499734e+02
9.100000e-07	-3.850127e-06	-2.299853e-09	-2.740120e+01	-1.496076e+02
9.200000e-07	-3.818140e-06	-2.285734e-09	-2.717355e+01	-1.492388e+02
9.300000e-07	-3.785961e-06	-2.263642e-09	-2.694453e+01	-1.488677e+02
9.400000e-07	-3.753545e-06	-2.258424e-09	-2.671383e+01	-1.484947e+02
9.500000e-07	-3.720832e-06	-2.258532e-09	-2.648101e+01	-1.481205e+02
9.600000e-07	-3.687834e-06	-2.250808e-09	-2.624617e+01	-1.477454e+02
9.700000e-07	-3.654542e-06	-2.237722e-09	-2.600923e+01	-1.473697e+02
9.800000e-07	-3.620826e-06	-2.235737e-09	-2.576928e+01	-1.469937e+02
9.900000e-07	-3.586552e-06	-2.240213e-09	-2.552535e+01	-1.466176e+02
1.000000e-06	-3.551872e-06	-2.232272e-09	-2.527853e+01	-1.462414e+02
1.010000e-06	-3.516849e-06	-2.214787e-09	-2.502927e+01	-1.458651e+02
1.020000e-06	-3.481528e-06	-2.199956e-09	-2.477790e+01	-1.454886e+02
1.030000e-06	-3.446048e-06	-2.194959e-09	-2.452539e+01	-1.451116e+02
1.040000e-06	-3.410311e-06	-2.187635e-09	-2.427105e+01	-1.447340e+02
1.050000e-06	-3.374345e-06	-2.179113e-09	-2.401508e+01	-1.443553e+02
1.060000e-06	-3.338249e-06	-2.171907e-09	-2.375818e+01	-1.439752e+02
1.070000e-06	-3.301988e-06	-2.176434e-09	-2.350012e+01	-1.435933e+02
1.080000e-06	-3.265523e-06	-2.174217e-09	-2.324059e+01	-1.432090e+02
1.090000e-06	-3.228888e-06	-2.162732e-09	-2.297987e+01	-1.428218e+02
1.100000e-06	-3.192076e-06	-2.145068e-09	-2.271788e+01	-1.424312e+02
1.110000e-06	-3.155040e-06	-2.138103e-09	-2.245430e+01	-1.420366e+02
1.120000e-06	-3.117760e-06	-2.131095e-09	-2.218898e+01	-1.416375e+02
1.130000e-06	-3.080246e-06	-2.123338e-09	-2.192199e+01	-1.412333e+02
1.140000e-06	-3.042571e-06	-2.111344e-09	-2.165385e+01	-1.408234e+02
1.150000e-06	-3.004721e-06	-2.108840e-09	-2.138448e+01	-1.404075e+02
1.160000e-06	-2.966614e-06	-2.106661e-09	-2.111327e+01	-1.399849e+02
1.170000e-06	-2.928152e-06	-2.102425e-09	-2.083954e+01	-1.395552e+02
1.180000e-06	-2.889502e-06	-2.089519e-09	-2.056447e+01	-1.391181e+02
1.190000e-06	-2.850753e-06	-2.079598e-09	-2.028870e+01	-1.386730e+02
1.200000e-06	-2.811754e-06	-2.072454e-09	-2.001114e+01	-1.382196e+02
1.210000e-06	-2.772505e-06	-2.064015e-09	-1.973181e+01	-1.377576e+02
1.220000e-06	-2.733059e-06	-2.051786e-09	-1.945107e+01	-1.372867e+02
1.230000e-06	-2.693476e-06	-2.043386e-09	-1.916936e+01	-1.368067e+02
1.240000e-06	-2.653758e-06	-2.034979e-09	-1.888669e+01	-1.363172e+02
1.250000e-06	-2.613928e-06	-2.026631e-09	-1.860322e+01	-1.358182e+02
1.260000e-06	-2.573993e-06	-2.018054e-09	-1.831901e+01	-1.353093e+02
1.270000e-06	-2.533983e-06	-2.007913e-09	-1.803425e+01	-1.347904e+02
1.280000e-06	-2.493918e-06	-1.998303e-09	-1.774911e+01	-1.342614e+02
1.290000e-06	-2.453732e-06	-1.988865e-09	-1.746311e+01	-1.337221e+02
1.300000e-06	-2.413387e-06	-1.979177e-09	-1.717598e+01	-1.331723e+02
1.310000e-06	-2.372829e-06	-1.968113e-09	-1.688733e+01	-1.326119e+02
1.320000e-06	-2.331969e-06	-1.958777e-09	-1.659653e+01	-1.320407e+02
1.330000e-06	-2.290983e-06	-1.948532e-09	-1.630483e+01	-1.314586e+02
1.340000e-06	-2.249818e-06	-1.937624e-09	-1.601186e+01	-1.308655e+02
1.350000e-06	-2.208355e-06	-1.925093e-09	-1.571678e+01	-1.302611e+02
1.360000e-06	-2.166779e-06	-1.915159e-09	-1.542088e+01	-1.296452e+02
1.370000e-06	-2.124889e-06	-1.905225e-09	-1.512275e+01	-1.290177e+02
1.380000e-06	-2.082619e-06	-1.895058e-09	-1.482191e+01	-1.283785e+02
1.390000e-06	-2.040054e-06	-1.882491e-09	-1.451898e+01	-1.277272e+02
1.400000e-06	-1.997252e-06	-1.871173e-09	-1.421436e+01	-1.270638e+02
1.410000e-06	-1.954328e-06	-1.860768e-09	-1.390887e+01	-1.263879e+02
1.420000e-06	-1.911256e-06	-1.852363e-09	-1.360234e+01	-1.256995e+02
1.430000e-06	-1.867991e-06	-1.840485e-09	-1.329442e+01	-1.249982e+02
1.440000e-06	-1.824566e-06	-1.827471e-09	-1.298537e+01	-1.242839e+02
1.450000e-06	-1.781035e-06	-1.813330e-09	-1.267555e+01	-1.235563e+02
1.460000e-06	-1.737398e-06	-1.802114e-09	-1.236499e+01	-1.228153e+02
1.470000e-06	-1.693736e-06	-1.789096e-09	-1.205425e+01	-1.220607e+02
1.480000e-06	-1.649937e-06	-1.773948e-09	-1.174253e+01	-1.212922e+02
1.490000e-06	-1.605976e-06	-1.759053e-09	-1.142966e+01	-1.205096e+02
1.500000e-06	-1.562003e-06	-1.748873e-09	-1.111672e+01	-1.197127e+02
1.510000e-06	-1.517977e-06	-1.739805e-09	-1.080338e+01	-1.189012e+02
1.520000e-06	-1.473862e-06	-1.728315e-09	-1.048942e+01	-1.180749e+02
1.530000e-06	-1.429665e-06	-1.712424e-09	-1.017487e+01	-1.172336e+02
1.540000e-06	-1.385371e-06	-1.696893e-09	-9.859631e+00	-1.163770e+02
1.550000e-06	-1.341045e-06	-1.682750e-09	-9.544166e+00	-1.155047e+02
1.560000e-06	-1.296669e-06	-1.668947e-09	-9.228345e+00	-1.146164e+02
1.570000e-06	-1.252156e-06	-1.655508e-09	-8.911543e+00	-1.137116e+02
1.580000e-06	-1.207587e-06	-1.642308e-09	-8.594349e+00	-1.127900e+02
1.590000e-06	-1.162979e-06	-1.629843e-09	-8.276874e+00	-1.118511e+02
1.600000e-06	-1.118276e-06	-1.617458e-09	-7.958725e+00	-1.108942e+02
1.610000e-06	-1.073490e-06	-1.603111e-09	-7.639988e+00	-1.099188e+02
1.620000e-06	-1.028620e-06	-1.584014e-09	-7.320644e+00	-1.089241e+02
1.630000e-06	-9.836243e-07	-1.564646e-09	-7.000415e+00	-1.079094e+02
1.640000e-06	-9.384750e-07	-1.546645e-09	-6.679089e+00	-1.068739e+02
1.650000e-06	-8.932473e-07	-1.531129e-09	-6.357206e+00	-1.058165e+02
1.660000e-06	-8.480073e-07	-1.517797e-09	-6.035234e+00	-1.047364e+02
1.670000e-06	-8.027065e-07	-1.505497e-09	-5.712830e+00	-1.036324e+02
1.680000e-06	-7.573906e-07	-1.490956e-09	-5.390318e+00	-1.025034e+02
1.690000e-06	-7.120756e-07	-1.472828e-09	-5.067814e+00	-1.013481e+02
1.700000e-06	-6.667260e-07	-1.449561e-09	-4.745062e+00	-1.001653e+02
1.710000e-06	-6.213058e-07	-1.425419e-09	-4.421808e+00	-9.895359e+01
1.720000e-06	-5.758920e-07	-1.402602e-09	-4.098600e+00	-9.771158e+01
1.730000e-06	-5.304934e-07	-1.382779e-09	-3.775500e+00	-9.643784e+01
1.740000e-06	-4.849278e-07	-1.363691e-09	-3.451212e+00	-9.513090e+01
1.750000e-06	-4.393184e-07	-1.346354e-09	-3.126612e+00	-9.378927e+01
1.760000e-06	-3.937347e-07	-1.331083e-09	-2.802194e+00	-9.241148e+01
1.770000e-06	-3.481329e-07	-1.314604e-09	-2.477648e+00	-9.099604e+01
1.780000e-06	-3.025473e-07	-1.290972e-09	-2.153217e+00	-8.954149e+01
1.790000e-06	-2.569159e-07	-1.262792e-09	-1.828460e+00	-8.804642e+01
1.800000e-06	-2.112015e-07	-1.234627e-09	-1.503113e+00	-8.650944e+01
1.810000e-06	-1.654410e-07	-1.207992e-09	-1.177437e+00	-8.492925e+01
1.820000e-06	-1.196070e-07	-1.182129e-09	-8.512382e-01	-8.330461e+01
1.830000e-06	-7.372321e-08	-1.156938e-09	-5.246851e-01	-8.163436e+01
1.840000e-06	-2.787688e-08	-1.131964e-09	-1.983987e-01	-7.991744e+01
1.850000e-06	1.793476e-08	-1.108828e-09	1.276410e-01	-7.815291e+01
1.860000e-06	6.376361e-08	-1.084891e-09	4.538031e-01	-7.633991e+01
1.870000e-06	1.096310e-07	-1.055512e-09	7.802398e-01	-7.447774e+01
1.880000e-06	1.554617e-07	-1.023884e-09	1.106415e+00	-7.256578e+01
1.890000e-06	2.012042e-07	-9.932420e-10	1.431962e+00	-7.060358e+01
1.900000e-06	2.469091e-07	-9.628993e-10	1.757242e+00	-6.859079e+01
1.910000e-06	2.926201e-07	-9.298410e-10	2.082566e+00	-6.652721e+01
1.920000e-06	3.383218e-07	-8.955107e-10	2.407822e+00	-6.441275e+01
1.930000e-06	3.840245e-07	-8.645595e-10	2.733087e+00	-6.224748e+01
1.940000e-06	4.296736e-07	-8.371991e-10	3.057970e+00	-6.003157e+01
1.950000e-06	4.752521e-07	-8.081494e-10	3.382350e+00	-5.776531e+01
1.960000e-06	5.208777e-07	-7.743027e-10	3.707066e+00	-5.544914e+01
1.970000e-06	5.664981e-07	-7.387378e-10	4.031744e+00	-5.308358e+01
1.980000e-06	6.119998e-07	-7.030196e-10	4.355578e+00	-5.066927e+01
1.990000e-06	6.574078e-07	-6.627044e-10	4.678745e+00	-4.820696e+01
2.000000e-06	7.027449e-07	-6.201248e-10	5.001408e+00	-4.569749e+01
2.010000e-06	7.479965e-07	-5.817519e-10	5.323461e+00	-4.314180e+01
2.020000e-06	7.931733e-07	-5.499383e-10	5.644983e+00	-4.054091e+01
2.030000e-06	8.384171e-07	-5.200741e-10	5.966981e+00	-3.789594e+01
2.040000e-06	8.836475e-07	-4.862838e-10	6.288884e+00	-3.520807e+01
2.050000e-06	9.286608e-07	-4.456081e-10	6.609242e+00	-3.247859e+01
2.060000e-06	9.736522e-07	-4.016193e-10	6.929444e+00	-2.970884e+01
2.070000e-06	1.018651e-06	-3.563944e-10	7.249700e+00	-2.690027e+01
2.080000e-06	1.063517e-06	-3.106194e-10	7.569010e+00	-2.405438e+01
2.090000e-06	1.108265e-06	-2.648879e-10	7.887481e+00	-2.117277e+01
2.100000e-06	1.152928e-06	-2.222213e-10	8.205343e+00	-1.825714e+01
2.110000e-06	1.197436e-06	-1.865271e-10	8.522107e+00	-1.530923e+01
2.120000e-06	1.241820e-06	-1.515640e-10	8.837987e+00	-1.233091e+01
2.130000e-06	1.286203e-06	-1.101765e-10	9.153858e+00	-9.324134e+00
2.140000e-06	1.330535e-06	-6.414714e-11	9.469366e+00	-6.290950e+00
2.150000e-06	1.374817e-06	-1.501003e-11	9.784519e+00	-3.233507e+00
2.160000e-06	1.419064e-06	3.620348e-11	1.009942e+01	-1.540588e-01
2.170000e-06	1.463230e-06	8.716408e-11	1.041375e+01	2.945036e+00
2.180000e-06	1.507362e-06	1.340159e-10	1.072784e+01	6.061312e+00
2.190000e-06	1.551451e-06	1.746834e-10	1.104162e+01	9.192196e+00
2.200000e-06	1.595468e-06	2.120752e-10	1.135488e+01	1.233501e+01
2.210000e-06	1.639407e-06	2.532880e-10	1.166760e+01	1.548698e+01
2.220000e-06	1.683248e-06	3.010611e-10	1.197961e+01	1.864523e+01
2.230000e-06	1.727063e-06	3.511519e-10	1.229144e+01	2.180679e+01
2.240000e-06	1.770833e-06	4.005118e-10	1.260295e+01	2.496861e+01
2.250000e-06	1.814498e-06	4.483149e-10	1.291371e+01	2.812757e+01
2.260000e-06	1.858040e-06	4.963275e-10	1.322360e+01	3.128049e+01
2.270000e-06	1.901503e-06	5.415250e-10	1.353292e+01	3.442415e+01
2.280000e-06	1.944829e-06	5.837903e-10	1.384127e+01	3.755529e+01
2.290000e-06	1.987814e-06	6.264315e-10	1.414720e+01	4.067065e+01
2.300000e-06	2.030515e-06	6.703062e-10	1.445110e+01	4.376698e+01
2.310000e-06	2.072994e-06	7.172700e-10	1.475341e+01	4.684104e+01
2.320000e-06	2.115166e-06	7.622408e-10	1.505355e+01	4.988965e+01
2.330000e-06	2.157046e-06	8.043373e-10	1.535161e+01	5.290969e+01
2.340000e-06	2.198755e-06	8.446732e-10	1.564846e+01	5.589814e+01
2.350000e-06	2.240238e-06	8.847563e-10	1.594368e+01	5.885209e+01
2.360000e-06	2.281385e-06	9.269224e-10	1.623652e+01	6.176874e+01
2.370000e-06	2.322320e-06	9.707427e-10	1.652786e+01	6.464547e+01
2.380000e-06	2.363073e-06	1.013752e-09	1.681790e+01	6.747980e+01
2.390000e-06	2.403551e-06	1.053632e-09	1.710598e+01	7.026945e+01
2.400000e-06	2.443837e-06	1.090696e-09	1.739269e+01	7.301233e+01
2.410000e-06	2.484060e-06	1.126784e-09	1.767896e+01	7.570655e+01
2.420000e-06	2.524153e-06	1.160772e-09	1.796430e+01	7.835044e+01
2.430000e-06	2.564081e-06	1.194501e-09	1.824846e+01	8.094256e+01
2.440000e-06	2.603924e-06	1.231646e-09	1.853203e+01	8.348169e+01
2.450000e-06	2.643704e-06	1.270365e-09	1.881513e+01	8.596684e+01
2.460000e-06	2.683350e-06	1.308814e-09	1.909729e+01	8.839724e+01
2.470000e-06	2.722906e-06	1.344217e-09	1.937881e+01	9.077233e+01
2.480000e-06	2.762321e-06	1.376423e-09	1.965933e+01	9.309177e+01
2.490000e-06	2.801432e-06	1.407038e-09	1.993768e+01	9.535541e+01
2.500000e-06	2.840331e-06	1.436068e-09	2.021452e+01	9.756331e+01
2.510000e-06	2.879001e-06	1.464357e-09	2.048973e+01	9.971567e+01
2.520000e-06	2.917398e-06	1.495378e-09	2.076300e+01	1.018129e+02
2.530000e-06	2.955602e-06	1.528762e-09	2.103490e+01	1.038554e+02
2.540000e-06	2.993591e-06	1.562089e-09	2.130527e+01	1.058439e+02
2.550000e-06	3.031444e-06	1.592657e-09	2.157467e+01	1.077790e+02
2.560000e-06	3.069155e-06	1.620113e-09	2.184306e+01	1.096616e+02
2.570000e-06	3.106550e-06	1.644400e-09	2.210919e+01	1.114925e+02
2.580000e-06	3.143674e-06	1.668044e-09	2.237340e+01	1.132727e+02
2.590000e-06	3.180625e-06	1.691313e-09	2.263638e+01	1.150030e+02
2.600000e-06	3.217351e-06	1.712959e-09	2.289776e+01	1.166843e+02
2.610000e-06	3.253828e-06	1.737001e-09	2.315737e+01	1.183176e+02
2.620000e-06	3.290144e-06	1.764878e-09	2.341582e+01	1.199038e+02
2.630000e-06	3.326387e-06	1.792127e-09	2.367376e+01	1.214436e+02
2.640000e-06	3.362498e-06	1.815693e-09	2.393076e+01	1.229381e+02
2.650000e-06	3.398453e-06	1.835436e-09	2.418665e+01	1.243879e+02
2.660000e-06	3.434278e-06	1.853968e-09	2.444162e+01	1.257937e+02
2.670000e-06	3.469892e-06	1.872568e-09	2.469508e+01	1.271564e+02
2.680000e-06	3.505229e-06	1.889009e-09	2.494657e+01	1.284765e+02
2.690000e-06	3.540239e-06	1.903037e-09	2.519574e+01	1.297546e+02
2.700000e-06	3.574950e-06	1.919010e-09	2.544278e+01	1.309914e+02
2.710000e-06	3.609290e-06	1.938968e-09	2.568718e+01	1.321873e+02
2.720000e-06	3.643060e-06	1.961597e-09	2.592751e+01	1.333430e+02
2.730000e-06	3.676394e-06	1.983435e-09	2.616475e+01	1.344590e+02
2.740000e-06	3.709389e-06	2.001795e-09	2.639957e+01	1.355358e+02
2.750000e-06	3.742000e-06	2.017013e-09	2.663166e+01	1.365741e+02
2.760000e-06	3.774373e-06	2.029144e-09	2.686206e+01	1.375744e+02
2.770000e-06	3.806583e-06	2.038483e-09	2.709130e+01	1.385374e+02
2.780000e-06	3.838646e-06	2.046917e-09	2.731949e+01	1.394638e+02
2.790000e-06	3.870545e-06	2.057311e-09	2.754651e+01	1.403544e+02
2.800000e-06	3.902221e-06	2.070420e-09	2.777195e+01	1.412100e+02
2.810000e-06	3.933693e-06	2.085692e-09	2.799594e+01	1.420316e+02
2.820000e-06	3.964884e-06	2.100833e-09	2.821792e+01	1.428201e+02
2.830000e-06	3.995778e-06	2.112931e-09	2.843780e+01	1.435766e+02
2.840000e-06	4.026344e-06	2.122313e-09	2.865533e+01	1.443023e+02
2.850000e-06	4.056608e-06	2.130859e-09	2.887072e+01	1.449983e+02
2.860000e-06	4.086664e-06	2.139590e-09	2.908462e+01	1.456661e+02
2.870000e-06	4.116464e-06	2.148359e-09	2.929671e+01	1.463069e+02
2.880000e-06	4.146007e-06	2.155092e-09	2.950697e+01	1.469222e+02
2.890000e-06	4.175219e-06	2.158804e-09	2.971487e+01	1.475133e+02
2.900000e-06	4.204112e-06	2.161851e-09	2.992050e+01	1.480818e+02
