# Temperatura_=_-2.8
# Concentracion g/m^3_=_4090.0
# C_Vs_to_Am_M_A/Vsm_=_65563218390.804596
# pendiente_HvsI_1/m_=_3716.3
# ordenada_HvsI_A/m_=_1297.0
# frecuencia_Hz_=_135069.10982291063

Tiempo_(s)	Campo_(V.s)	Magnetizacion_(V.s)	Campo_(kA/m)	Magnetizacion_(A/m)
0.000000e+00	-5.450107e-06	-2.201014e-09	-3.839436e+01	-1.444615e+02
1.000000e-08	-5.450323e-06	-2.202640e-09	-3.839589e+01	-1.443484e+02
2.000000e-08	-5.450327e-06	-2.207446e-09	-3.839591e+01	-1.442367e+02
3.000000e-08	-5.450111e-06	-2.208400e-09	-3.839439e+01	-1.441280e+02
4.000000e-08	-5.449455e-06	-2.203428e-09	-3.838977e+01	-1.440241e+02
5.000000e-08	-5.448265e-06	-2.199903e-09	-3.838138e+01	-1.439269e+02
6.000000e-08	-5.446586e-06	-2.201620e-09	-3.836956e+01	-1.438378e+02
7.000000e-08	-5.444333e-06	-2.206451e-09	-3.835369e+01	-1.437584e+02
8.000000e-08	-5.441410e-06	-2.210712e-09	-3.833309e+01	-1.436902e+02
9.000000e-08	-5.437883e-06	-2.201414e-09	-3.830825e+01	-1.436343e+02
1.000000e-07	-5.433896e-06	-2.199889e-09	-3.828016e+01	-1.435919e+02
1.100000e-07	-5.429585e-06	-2.234603e-09	-3.824979e+01	-1.435637e+02
1.200000e-07	-5.425199e-06	-2.241918e-09	-3.821889e+01	-1.435505e+02
1.300000e-07	-5.420626e-06	-2.196164e-09	-3.818668e+01	-1.435526e+02
1.400000e-07	-5.415574e-06	-2.195081e-09	-3.815109e+01	-1.435701e+02
1.500000e-07	-5.410084e-06	-2.225026e-09	-3.811242e+01	-1.436030e+02
1.600000e-07	-5.404296e-06	-2.236297e-09	-3.807164e+01	-1.436509e+02
1.700000e-07	-5.398174e-06	-2.181709e-09	-3.802851e+01	-1.437132e+02
1.800000e-07	-5.391552e-06	-2.194173e-09	-3.798186e+01	-1.437890e+02
1.900000e-07	-5.384572e-06	-2.255774e-09	-3.793269e+01	-1.438773e+02
2.000000e-07	-5.377335e-06	-2.245792e-09	-3.788171e+01	-1.439769e+02
2.100000e-07	-5.369808e-06	-2.207641e-09	-3.782868e+01	-1.440861e+02
2.200000e-07	-5.362012e-06	-2.233998e-09	-3.777376e+01	-1.442035e+02
2.300000e-07	-5.353956e-06	-2.301921e-09	-3.771701e+01	-1.443272e+02
2.400000e-07	-5.345604e-06	-2.275577e-09	-3.765817e+01	-1.444553e+02
2.500000e-07	-5.336701e-06	-2.258185e-09	-3.759545e+01	-1.445860e+02
2.600000e-07	-5.327035e-06	-2.297218e-09	-3.752736e+01	-1.447170e+02
2.700000e-07	-5.316730e-06	-2.342455e-09	-3.745476e+01	-1.448465e+02
2.800000e-07	-5.305916e-06	-2.301713e-09	-3.737858e+01	-1.449725e+02
2.900000e-07	-5.294653e-06	-2.293143e-09	-3.729924e+01	-1.450929e+02
3.000000e-07	-5.283021e-06	-2.333005e-09	-3.721729e+01	-1.452058e+02
3.100000e-07	-5.271070e-06	-2.331414e-09	-3.713310e+01	-1.453096e+02
3.200000e-07	-5.258673e-06	-2.288645e-09	-3.704577e+01	-1.454026e+02
3.300000e-07	-5.245829e-06	-2.306908e-09	-3.695529e+01	-1.454832e+02
3.400000e-07	-5.232659e-06	-2.320471e-09	-3.686251e+01	-1.455502e+02
3.500000e-07	-5.219093e-06	-2.280807e-09	-3.676694e+01	-1.456025e+02
3.600000e-07	-5.205156e-06	-2.287098e-09	-3.666876e+01	-1.456392e+02
3.700000e-07	-5.190767e-06	-2.328334e-09	-3.656739e+01	-1.456597e+02
3.800000e-07	-5.175833e-06	-2.299362e-09	-3.646219e+01	-1.456634e+02
3.900000e-07	-5.160323e-06	-2.262565e-09	-3.635292e+01	-1.456501e+02
4.000000e-07	-5.144132e-06	-2.299040e-09	-3.623886e+01	-1.456199e+02
4.100000e-07	-5.127559e-06	-2.302441e-09	-3.612211e+01	-1.455730e+02
4.200000e-07	-5.110760e-06	-2.259329e-09	-3.600377e+01	-1.455098e+02
4.300000e-07	-5.093619e-06	-2.264507e-09	-3.588301e+01	-1.454308e+02
4.400000e-07	-5.076241e-06	-2.295098e-09	-3.576059e+01	-1.453369e+02
4.500000e-07	-5.058594e-06	-2.271818e-09	-3.563627e+01	-1.452291e+02
4.600000e-07	-5.040550e-06	-2.262250e-09	-3.550916e+01	-1.451083e+02
4.700000e-07	-5.022088e-06	-2.276959e-09	-3.537910e+01	-1.449759e+02
4.800000e-07	-5.003229e-06	-2.272087e-09	-3.524624e+01	-1.448329e+02
4.900000e-07	-4.983938e-06	-2.256020e-09	-3.511035e+01	-1.446808e+02
5.000000e-07	-4.964327e-06	-2.269627e-09	-3.497219e+01	-1.445209e+02
5.100000e-07	-4.944512e-06	-2.260359e-09	-3.483260e+01	-1.443546e+02
5.200000e-07	-4.924487e-06	-2.248846e-09	-3.469153e+01	-1.441831e+02
5.300000e-07	-4.904241e-06	-2.256538e-09	-3.454890e+01	-1.440078e+02
5.400000e-07	-4.883716e-06	-2.260860e-09	-3.440431e+01	-1.438300e+02
5.500000e-07	-4.862769e-06	-2.241404e-09	-3.425675e+01	-1.436506e+02
5.600000e-07	-4.841476e-06	-2.242105e-09	-3.410674e+01	-1.434708e+02
5.700000e-07	-4.819959e-06	-2.243902e-09	-3.395516e+01	-1.432915e+02
5.800000e-07	-4.798161e-06	-2.238923e-09	-3.380160e+01	-1.431134e+02
5.900000e-07	-4.775985e-06	-2.236438e-09	-3.364538e+01	-1.429373e+02
6.000000e-07	-4.753434e-06	-2.239481e-09	-3.348651e+01	-1.427635e+02
6.100000e-07	-4.730474e-06	-2.234084e-09	-3.332477e+01	-1.425924e+02
6.200000e-07	-4.707148e-06	-2.231835e-09	-3.316044e+01	-1.424242e+02
6.300000e-07	-4.683526e-06	-2.223609e-09	-3.299403e+01	-1.422591e+02
6.400000e-07	-4.659742e-06	-2.213523e-09	-3.282648e+01	-1.420967e+02
6.500000e-07	-4.635891e-06	-2.211400e-09	-3.265846e+01	-1.419371e+02
6.600000e-07	-4.611756e-06	-2.211476e-09	-3.248843e+01	-1.417798e+02
6.700000e-07	-4.587211e-06	-2.210100e-09	-3.231552e+01	-1.416243e+02
6.800000e-07	-4.562214e-06	-2.215210e-09	-3.213942e+01	-1.414702e+02
6.900000e-07	-4.536656e-06	-2.218568e-09	-3.195938e+01	-1.413168e+02
7.000000e-07	-4.510550e-06	-2.211818e-09	-3.177547e+01	-1.411635e+02
7.100000e-07	-4.483971e-06	-2.204132e-09	-3.158822e+01	-1.410096e+02
7.200000e-07	-4.456915e-06	-2.195493e-09	-3.139763e+01	-1.408544e+02
7.300000e-07	-4.429515e-06	-2.190249e-09	-3.120460e+01	-1.406971e+02
7.400000e-07	-4.401940e-06	-2.187370e-09	-3.101034e+01	-1.405371e+02
7.500000e-07	-4.374224e-06	-2.187779e-09	-3.081509e+01	-1.403737e+02
7.600000e-07	-4.346278e-06	-2.185089e-09	-3.061822e+01	-1.402062e+02
7.700000e-07	-4.318072e-06	-2.187478e-09	-3.041952e+01	-1.400341e+02
7.800000e-07	-4.289677e-06	-2.184130e-09	-3.021948e+01	-1.398569e+02
7.900000e-07	-4.261032e-06	-2.176217e-09	-3.001769e+01	-1.396743e+02
8.000000e-07	-4.231935e-06	-2.165934e-09	-2.981271e+01	-1.394859e+02
8.100000e-07	-4.202460e-06	-2.163077e-09	-2.960506e+01	-1.392914e+02
8.200000e-07	-4.172745e-06	-2.160227e-09	-2.939573e+01	-1.390909e+02
8.300000e-07	-4.142758e-06	-2.160116e-09	-2.918449e+01	-1.388842e+02
8.400000e-07	-4.112467e-06	-2.155018e-09	-2.897109e+01	-1.386714e+02
8.500000e-07	-4.081894e-06	-2.151115e-09	-2.875571e+01	-1.384527e+02
8.600000e-07	-4.051061e-06	-2.144161e-09	-2.853850e+01	-1.382284e+02
8.700000e-07	-4.019869e-06	-2.135264e-09	-2.831876e+01	-1.379987e+02
8.800000e-07	-3.988400e-06	-2.124475e-09	-2.809708e+01	-1.377642e+02
8.900000e-07	-3.956839e-06	-2.120069e-09	-2.787474e+01	-1.375253e+02
9.000000e-07	-3.925167e-06	-2.122971e-09	-2.765162e+01	-1.372824e+02
9.100000e-07	-3.893270e-06	-2.126004e-09	-2.742691e+01	-1.370362e+02
9.200000e-07	-3.861097e-06	-2.119646e-09	-2.720026e+01	-1.367871e+02
9.300000e-07	-3.828623e-06	-2.108917e-09	-2.697150e+01	-1.365358e+02
9.400000e-07	-3.795804e-06	-2.097956e-09	-2.674030e+01	-1.362828e+02
9.500000e-07	-3.762593e-06	-2.089599e-09	-2.650634e+01	-1.360287e+02
9.600000e-07	-3.729024e-06	-2.084004e-09	-2.626985e+01	-1.357740e+02
9.700000e-07	-3.695052e-06	-2.083420e-09	-2.603053e+01	-1.355192e+02
9.800000e-07	-3.660564e-06	-2.089006e-09	-2.578757e+01	-1.352645e+02
9.900000e-07	-3.625643e-06	-2.090600e-09	-2.554157e+01	-1.350105e+02
1.000000e-06	-3.590441e-06	-2.083067e-09	-2.529358e+01	-1.347573e+02
1.010000e-06	-3.555072e-06	-2.071660e-09	-2.504441e+01	-1.345052e+02
1.020000e-06	-3.519531e-06	-2.059364e-09	-2.479404e+01	-1.342542e+02
1.030000e-06	-3.483794e-06	-2.043146e-09	-2.454228e+01	-1.340043e+02
1.040000e-06	-3.447909e-06	-2.030475e-09	-2.428948e+01	-1.337555e+02
1.050000e-06	-3.411886e-06	-2.027149e-09	-2.403571e+01	-1.335077e+02
1.060000e-06	-3.375655e-06	-2.033517e-09	-2.378047e+01	-1.332605e+02
1.070000e-06	-3.339185e-06	-2.038996e-09	-2.352355e+01	-1.330136e+02
1.080000e-06	-3.302542e-06	-2.039548e-09	-2.326541e+01	-1.327666e+02
1.090000e-06	-3.265687e-06	-2.032533e-09	-2.300578e+01	-1.325190e+02
1.100000e-06	-3.228515e-06	-2.024239e-09	-2.274392e+01	-1.322703e+02
1.110000e-06	-3.191071e-06	-2.013403e-09	-2.248013e+01	-1.320199e+02
1.120000e-06	-3.153433e-06	-1.998399e-09	-2.221499e+01	-1.317671e+02
1.130000e-06	-3.115635e-06	-1.984403e-09	-2.194871e+01	-1.315113e+02
1.140000e-06	-3.077673e-06	-1.980257e-09	-2.168128e+01	-1.312517e+02
1.150000e-06	-3.039504e-06	-1.982541e-09	-2.141239e+01	-1.309878e+02
1.160000e-06	-3.001080e-06	-1.984018e-09	-2.114170e+01	-1.307188e+02
1.170000e-06	-2.962389e-06	-1.980274e-09	-2.086914e+01	-1.304439e+02
1.180000e-06	-2.923432e-06	-1.974299e-09	-2.059470e+01	-1.301627e+02
1.190000e-06	-2.884296e-06	-1.966095e-09	-2.031900e+01	-1.298743e+02
1.200000e-06	-2.844978e-06	-1.956019e-09	-2.004201e+01	-1.295784e+02
1.210000e-06	-2.805414e-06	-1.943211e-09	-1.976329e+01	-1.292742e+02
1.220000e-06	-2.765746e-06	-1.935534e-09	-1.948384e+01	-1.289614e+02
1.230000e-06	-2.726005e-06	-1.933905e-09	-1.920388e+01	-1.286396e+02
1.240000e-06	-2.686136e-06	-1.932943e-09	-1.892302e+01	-1.283083e+02
1.250000e-06	-2.646225e-06	-1.930132e-09	-1.864186e+01	-1.279674e+02
1.260000e-06	-2.606246e-06	-1.928562e-09	-1.836022e+01	-1.276167e+02
1.270000e-06	-2.566105e-06	-1.926067e-09	-1.807744e+01	-1.272559e+02
1.280000e-06	-2.525780e-06	-1.919242e-09	-1.779336e+01	-1.268850e+02
1.290000e-06	-2.485263e-06	-1.911125e-09	-1.750793e+01	-1.265040e+02
1.300000e-06	-2.444540e-06	-1.902325e-09	-1.722105e+01	-1.261131e+02
1.310000e-06	-2.403522e-06	-1.890757e-09	-1.693209e+01	-1.257122e+02
1.320000e-06	-2.362290e-06	-1.876847e-09	-1.664162e+01	-1.253015e+02
1.330000e-06	-2.320805e-06	-1.866465e-09	-1.634937e+01	-1.248812e+02
1.340000e-06	-2.278928e-06	-1.863026e-09	-1.605436e+01	-1.244516e+02
1.350000e-06	-2.236741e-06	-1.863789e-09	-1.575717e+01	-1.240128e+02
1.360000e-06	-2.194215e-06	-1.860809e-09	-1.545758e+01	-1.235652e+02
1.370000e-06	-2.151315e-06	-1.854645e-09	-1.515537e+01	-1.231089e+02
1.380000e-06	-2.108129e-06	-1.846782e-09	-1.485113e+01	-1.226442e+02
1.390000e-06	-2.064816e-06	-1.836826e-09	-1.454601e+01	-1.221713e+02
1.400000e-06	-2.021471e-06	-1.823273e-09	-1.424065e+01	-1.216905e+02
1.410000e-06	-1.978057e-06	-1.810499e-09	-1.393482e+01	-1.212017e+02
1.420000e-06	-1.934490e-06	-1.803083e-09	-1.362790e+01	-1.207052e+02
1.430000e-06	-1.890770e-06	-1.799203e-09	-1.331991e+01	-1.202010e+02
1.440000e-06	-1.846968e-06	-1.792700e-09	-1.301133e+01	-1.196891e+02
1.450000e-06	-1.803120e-06	-1.784131e-09	-1.270244e+01	-1.191694e+02
1.460000e-06	-1.759232e-06	-1.777637e-09	-1.239326e+01	-1.186418e+02
1.470000e-06	-1.715269e-06	-1.773894e-09	-1.208355e+01	-1.181060e+02
1.480000e-06	-1.671205e-06	-1.766016e-09	-1.177314e+01	-1.175617e+02
1.490000e-06	-1.627104e-06	-1.753480e-09	-1.146246e+01	-1.170087e+02
1.500000e-06	-1.582941e-06	-1.739396e-09	-1.115134e+01	-1.164464e+02
1.510000e-06	-1.538632e-06	-1.727198e-09	-1.083920e+01	-1.158744e+02
1.520000e-06	-1.494302e-06	-1.719430e-09	-1.052691e+01	-1.152921e+02
1.530000e-06	-1.449903e-06	-1.712668e-09	-1.021413e+01	-1.146988e+02
1.540000e-06	-1.405332e-06	-1.704478e-09	-9.900144e+00	-1.140940e+02
1.550000e-06	-1.360659e-06	-1.696931e-09	-9.585430e+00	-1.134768e+02
1.560000e-06	-1.315891e-06	-1.690179e-09	-9.270054e+00	-1.128464e+02
1.570000e-06	-1.270972e-06	-1.681373e-09	-8.953615e+00	-1.122022e+02
1.580000e-06	-1.225955e-06	-1.669042e-09	-8.636485e+00	-1.115431e+02
1.590000e-06	-1.180880e-06	-1.657213e-09	-8.318946e+00	-1.108685e+02
1.600000e-06	-1.135662e-06	-1.646424e-09	-8.000399e+00	-1.101774e+02
1.610000e-06	-1.090314e-06	-1.633903e-09	-7.680932e+00	-1.094689e+02
1.620000e-06	-1.044824e-06	-1.617763e-09	-7.360469e+00	-1.087422e+02
1.630000e-06	-9.992512e-07	-1.603235e-09	-7.039424e+00	-1.079964e+02
1.640000e-06	-9.536704e-07	-1.592790e-09	-6.718321e+00	-1.072306e+02
1.650000e-06	-9.080828e-07	-1.582012e-09	-6.397170e+00	-1.064442e+02
1.660000e-06	-8.624867e-07	-1.570761e-09	-6.075959e+00	-1.056361e+02
1.670000e-06	-8.167612e-07	-1.561011e-09	-5.753837e+00	-1.048057e+02
1.680000e-06	-7.708973e-07	-1.550696e-09	-5.430739e+00	-1.039521e+02
1.690000e-06	-7.250071e-07	-1.533401e-09	-5.107457e+00	-1.030747e+02
1.700000e-06	-6.791319e-07	-1.511583e-09	-4.784280e+00	-1.021726e+02
1.710000e-06	-6.332749e-07	-1.491394e-09	-4.461231e+00	-1.012452e+02
1.720000e-06	-5.874338e-07	-1.477579e-09	-4.138295e+00	-1.002918e+02
1.730000e-06	-5.415285e-07	-1.467047e-09	-3.814905e+00	-9.931164e+01
1.740000e-06	-4.954781e-07	-1.453450e-09	-3.490494e+00	-9.830398e+01
1.750000e-06	-4.493810e-07	-1.441756e-09	-3.165754e+00	-9.726808e+01
1.760000e-06	-4.033032e-07	-1.435602e-09	-2.841149e+00	-9.620319e+01
1.770000e-06	-3.572443e-07	-1.426752e-09	-2.516678e+00	-9.510848e+01
1.780000e-06	-3.112203e-07	-1.404921e-09	-2.192454e+00	-9.398310e+01
1.790000e-06	-2.652201e-07	-1.374933e-09	-1.868396e+00	-9.282612e+01
1.800000e-06	-2.191672e-07	-1.350009e-09	-1.543967e+00	-9.163653e+01
1.810000e-06	-1.730352e-07	-1.330686e-09	-1.218981e+00	-9.041325e+01
1.820000e-06	-1.268210e-07	-1.312130e-09	-8.934159e-01	-8.915511e+01
1.830000e-06	-8.056795e-08	-1.294397e-09	-5.675769e-01	-8.786081e+01
1.840000e-06	-3.437395e-08	-1.282171e-09	-2.421541e-01	-8.652897e+01
1.850000e-06	1.171648e-08	-1.270944e-09	8.253907e-02	-8.515809e+01
1.860000e-06	5.779256e-08	-1.251611e-09	4.071312e-01	-8.374654e+01
1.870000e-06	1.039683e-07	-1.221827e-09	7.324256e-01	-8.229258e+01
1.880000e-06	1.501251e-07	-1.189172e-09	1.057586e+00	-8.079435e+01
1.890000e-06	1.962096e-07	-1.161457e-09	1.382237e+00	-7.924988e+01
1.900000e-06	2.423045e-07	-1.135182e-09	1.706962e+00	-7.765711e+01
1.910000e-06	2.883961e-07	-1.106199e-09	2.031663e+00	-7.601388e+01
1.920000e-06	3.345274e-07	-1.082016e-09	2.356645e+00	-7.431794e+01
1.930000e-06	3.806675e-07	-1.067591e-09	2.681688e+00	-7.256700e+01
1.940000e-06	4.267380e-07	-1.052466e-09	3.006240e+00	-7.075872e+01
1.950000e-06	4.727572e-07	-1.026022e-09	3.330432e+00	-6.889075e+01
1.960000e-06	5.187181e-07	-9.914365e-10	3.654213e+00	-6.696074e+01
1.970000e-06	5.646564e-07	-9.578607e-10	3.977834e+00	-6.496641e+01
1.980000e-06	6.105755e-07	-9.236997e-10	4.301320e+00	-6.290552e+01
1.990000e-06	6.564302e-07	-8.850520e-10	4.624353e+00	-6.077595e+01
2.000000e-06	7.021932e-07	-8.484750e-10	4.946740e+00	-5.857572e+01
2.010000e-06	7.479726e-07	-8.199977e-10	5.269242e+00	-5.630302e+01
2.020000e-06	7.937458e-07	-7.970334e-10	5.591700e+00	-5.395626e+01
2.030000e-06	8.394984e-07	-7.701529e-10	5.914013e+00	-5.153409e+01
2.040000e-06	8.852502e-07	-7.359500e-10	6.236321e+00	-4.903546e+01
2.050000e-06	9.308575e-07	-6.981424e-10	6.557611e+00	-4.645961e+01
2.060000e-06	9.763694e-07	-6.588745e-10	6.878228e+00	-4.380617e+01
2.070000e-06	1.021835e-06	-6.140310e-10	7.198519e+00	-4.107511e+01
2.080000e-06	1.067155e-06	-5.649988e-10	7.517787e+00	-3.826684e+01
2.090000e-06	1.112369e-06	-5.201570e-10	7.836308e+00	-3.538220e+01
2.100000e-06	1.157543e-06	-4.812467e-10	8.154539e+00	-3.242246e+01
2.110000e-06	1.202611e-06	-4.444483e-10	8.472029e+00	-2.938938e+01
2.120000e-06	1.247596e-06	-4.033032e-10	8.788942e+00	-2.628519e+01
2.130000e-06	1.292493e-06	-3.587071e-10	9.105227e+00	-2.311261e+01
2.140000e-06	1.337232e-06	-3.119406e-10	9.420394e+00	-1.987483e+01
2.150000e-06	1.381862e-06	-2.594613e-10	9.734800e+00	-1.657554e+01
2.160000e-06	1.426453e-06	-2.013961e-10	1.004893e+01	-1.321887e+01
2.170000e-06	1.470966e-06	-1.441043e-10	1.036252e+01	-9.809410e+00
2.180000e-06	1.515348e-06	-9.163424e-11	1.067517e+01	-6.352187e+00
2.190000e-06	1.559583e-06	-4.236862e-11	1.098679e+01	-2.852608e+00
2.200000e-06	1.603740e-06	7.882494e-12	1.129787e+01	6.835512e-01
2.210000e-06	1.647914e-06	5.929814e-11	1.160906e+01	4.250193e+00
2.220000e-06	1.691996e-06	1.117724e-10	1.191960e+01	7.840940e+00
2.230000e-06	1.735941e-06	1.667480e-10	1.222918e+01	1.144918e+01
2.240000e-06	1.779814e-06	2.263500e-10	1.253825e+01	1.506813e+01
2.250000e-06	1.823595e-06	2.866279e-10	1.284667e+01	1.869087e+01
2.260000e-06	1.867327e-06	3.407326e-10	1.315476e+01	2.231041e+01
2.270000e-06	1.911065e-06	3.922468e-10	1.346288e+01	2.591975e+01
2.280000e-06	1.954740e-06	4.451702e-10	1.377056e+01	2.951194e+01
2.290000e-06	1.998306e-06	4.972996e-10	1.407746e+01	3.308011e+01
2.300000e-06	2.041800e-06	5.474537e-10	1.438387e+01	3.661757e+01
2.310000e-06	2.085185e-06	6.000527e-10	1.468950e+01	4.011784e+01
2.320000e-06	2.128288e-06	6.548252e-10	1.499315e+01	4.357470e+01
2.330000e-06	2.171065e-06	7.079902e-10	1.529450e+01	4.698223e+01
2.340000e-06	2.213765e-06	7.548609e-10	1.559531e+01	5.033490e+01
2.350000e-06	2.256308e-06	7.964624e-10	1.589501e+01	5.362756e+01
2.360000e-06	2.298449e-06	8.400524e-10	1.619188e+01	5.685548e+01
2.370000e-06	2.340265e-06	8.881644e-10	1.648646e+01	6.001443e+01
2.380000e-06	2.381777e-06	9.371975e-10	1.677890e+01	6.310063e+01
2.390000e-06	2.422909e-06	9.841077e-10	1.706866e+01	6.611082e+01
2.400000e-06	2.463702e-06	1.027012e-09	1.735604e+01	6.904227e+01
2.410000e-06	2.504229e-06	1.065925e-09	1.764154e+01	7.189273e+01
2.420000e-06	2.544503e-06	1.100492e-09	1.792525e+01	7.466051e+01
2.430000e-06	2.584591e-06	1.132898e-09	1.820767e+01	7.734441e+01
2.440000e-06	2.624612e-06	1.167705e-09	1.848960e+01	7.994371e+01
2.450000e-06	2.664595e-06	1.207301e-09	1.877127e+01	8.245820e+01
2.460000e-06	2.704484e-06	1.248612e-09	1.905228e+01	8.488809e+01
2.470000e-06	2.744257e-06	1.285207e-09	1.933246e+01	8.723403e+01
2.480000e-06	2.783929e-06	1.315816e-09	1.961194e+01	8.949704e+01
2.490000e-06	2.823465e-06	1.344820e-09	1.989046e+01	9.167851e+01
2.500000e-06	2.862775e-06	1.372765e-09	2.016739e+01	9.378012e+01
2.510000e-06	2.901841e-06	1.397432e-09	2.044260e+01	9.580384e+01
2.520000e-06	2.940715e-06	1.421505e-09	2.071645e+01	9.775184e+01
2.530000e-06	2.979370e-06	1.450272e-09	2.098877e+01	9.962649e+01
2.540000e-06	3.017775e-06	1.482673e-09	2.125932e+01	1.014303e+02
2.550000e-06	3.056006e-06	1.513207e-09	2.152864e+01	1.031659e+02
2.560000e-06	3.094058e-06	1.539468e-09	2.179671e+01	1.048358e+02
2.570000e-06	3.131869e-06	1.562439e-09	2.206307e+01	1.064429e+02
2.580000e-06	3.169441e-06	1.583815e-09	2.232776e+01	1.079896e+02
2.590000e-06	3.206810e-06	1.601330e-09	2.259101e+01	1.094787e+02
2.600000e-06	3.244001e-06	1.615510e-09	2.285301e+01	1.109126e+02
2.610000e-06	3.280994e-06	1.630484e-09	2.311361e+01	1.122938e+02
2.620000e-06	3.317748e-06	1.650617e-09	2.337254e+01	1.136246e+02
2.630000e-06	3.354222e-06	1.674550e-09	2.362949e+01	1.149070e+02
2.640000e-06	3.390465e-06	1.698450e-09	2.388481e+01	1.161432e+02
2.650000e-06	3.426538e-06	1.719508e-09	2.413893e+01	1.173348e+02
2.660000e-06	3.462451e-06	1.736665e-09	2.439192e+01	1.184838e+02
2.670000e-06	3.498262e-06	1.749107e-09	2.464420e+01	1.195914e+02
2.680000e-06	3.533964e-06	1.757901e-09	2.489571e+01	1.206592e+02
2.690000e-06	3.569495e-06	1.764186e-09	2.514602e+01	1.216883e+02
2.700000e-06	3.604841e-06	1.772684e-09	2.539502e+01	1.226799e+02
2.710000e-06	3.639924e-06	1.786364e-09	2.564217e+01	1.236349e+02
2.720000e-06	3.674488e-06	1.803798e-09	2.588566e+01	1.245543e+02
2.730000e-06	3.708529e-06	1.822552e-09	2.612547e+01	1.254388e+02
2.740000e-06	3.742115e-06	1.840803e-09	2.636207e+01	1.262891e+02
2.750000e-06	3.775277e-06	1.854655e-09	2.659569e+01	1.271060e+02
2.760000e-06	3.808094e-06	1.863256e-09	2.682688e+01	1.278901e+02
2.770000e-06	3.840567e-06	1.869085e-09	2.705564e+01	1.286421e+02
2.780000e-06	3.872755e-06	1.874921e-09	2.728240e+01	1.293627e+02
2.790000e-06	3.904757e-06	1.883284e-09	2.750783e+01	1.300526e+02
2.800000e-06	3.936573e-06	1.893420e-09	2.773197e+01	1.307126e+02
2.810000e-06	3.968196e-06	1.904741e-09	2.795474e+01	1.313434e+02
2.820000e-06	3.999668e-06	1.918223e-09	2.817646e+01	1.319459e+02
2.830000e-06	4.030895e-06	1.931858e-09	2.839644e+01	1.325210e+02
2.840000e-06	4.061785e-06	1.943608e-09	2.861405e+01	1.330698e+02
2.850000e-06	4.092388e-06	1.951973e-09	2.882964e+01	1.335933e+02
2.860000e-06	4.122694e-06	1.956667e-09	2.904314e+01	1.340925e+02
2.870000e-06	4.152735e-06	1.959585e-09	2.925477e+01	1.345688e+02
2.880000e-06	4.182591e-06	1.960705e-09	2.946509e+01	1.350233e+02
2.890000e-06	4.212167e-06	1.963419e-09	2.967345e+01	1.354573e+02
2.900000e-06	4.241458e-06	1.971920e-09	2.987980e+01	1.358721e+02
