# Temperatura_=_8.15
# Concentracion g/m^3_=_4090.0
# C_Vs_to_Am_M_A/Vsm_=_65563218390.804596
# pendiente_HvsI_1/m_=_3716.3
# ordenada_HvsI_A/m_=_1297.0
# frecuencia_Hz_=_135065.75203985098

Tiempo_(s)	Campo_(V.s)	Magnetizacion_(V.s)	Campo_(kA/m)	Magnetizacion_(A/m)
0.000000e+00	-5.396760e-06	-2.413222e-09	-3.840596e+01	-1.561542e+02
1.000000e-08	-5.396870e-06	-2.412514e-09	-3.840674e+01	-1.560549e+02
2.000000e-08	-5.396812e-06	-2.412195e-09	-3.840633e+01	-1.559568e+02
3.000000e-08	-5.396473e-06	-2.411465e-09	-3.840392e+01	-1.558617e+02
4.000000e-08	-5.395747e-06	-2.410653e-09	-3.839875e+01	-1.557718e+02
5.000000e-08	-5.394489e-06	-2.411481e-09	-3.838980e+01	-1.556891e+02
6.000000e-08	-5.392529e-06	-2.407639e-09	-3.837585e+01	-1.556154e+02
7.000000e-08	-5.389975e-06	-2.390530e-09	-3.835767e+01	-1.555526e+02
8.000000e-08	-5.386868e-06	-2.384804e-09	-3.833556e+01	-1.555022e+02
9.000000e-08	-5.383188e-06	-2.439337e-09	-3.830937e+01	-1.554658e+02
1.000000e-07	-5.379083e-06	-2.490320e-09	-3.828016e+01	-1.554444e+02
1.100000e-07	-5.374750e-06	-2.433149e-09	-3.824932e+01	-1.554389e+02
1.200000e-07	-5.370358e-06	-2.347525e-09	-3.821807e+01	-1.554502e+02
1.300000e-07	-5.365753e-06	-2.400190e-09	-3.818530e+01	-1.554783e+02
1.400000e-07	-5.360659e-06	-2.474440e-09	-3.814905e+01	-1.555235e+02
1.500000e-07	-5.355061e-06	-2.412718e-09	-3.810921e+01	-1.555854e+02
1.600000e-07	-5.349167e-06	-2.294220e-09	-3.806727e+01	-1.556633e+02
1.700000e-07	-5.342919e-06	-2.375081e-09	-3.802280e+01	-1.557565e+02
1.800000e-07	-5.336041e-06	-2.503109e-09	-3.797385e+01	-1.558636e+02
1.900000e-07	-5.328769e-06	-2.468562e-09	-3.792210e+01	-1.559833e+02
2.000000e-07	-5.321449e-06	-2.368672e-09	-3.787001e+01	-1.561136e+02
2.100000e-07	-5.313993e-06	-2.404268e-09	-3.781695e+01	-1.562527e+02
2.200000e-07	-5.306183e-06	-2.459978e-09	-3.776137e+01	-1.563984e+02
2.300000e-07	-5.298077e-06	-2.406503e-09	-3.770368e+01	-1.565484e+02
2.400000e-07	-5.289778e-06	-2.384457e-09	-3.764462e+01	-1.567002e+02
2.500000e-07	-5.280848e-06	-2.447782e-09	-3.758107e+01	-1.568513e+02
2.600000e-07	-5.271054e-06	-2.463891e-09	-3.751138e+01	-1.569992e+02
2.700000e-07	-5.260755e-06	-2.402860e-09	-3.743808e+01	-1.571414e+02
2.800000e-07	-5.249988e-06	-2.428472e-09	-3.736146e+01	-1.572753e+02
2.900000e-07	-5.238657e-06	-2.466139e-09	-3.728082e+01	-1.573986e+02
3.000000e-07	-5.226943e-06	-2.407739e-09	-3.719746e+01	-1.575091e+02
3.100000e-07	-5.214912e-06	-2.365953e-09	-3.711184e+01	-1.576047e+02
3.200000e-07	-5.202514e-06	-2.454928e-09	-3.702361e+01	-1.576835e+02
3.300000e-07	-5.189702e-06	-2.474201e-09	-3.693243e+01	-1.577440e+02
3.400000e-07	-5.176478e-06	-2.400488e-09	-3.683832e+01	-1.577847e+02
3.500000e-07	-5.162888e-06	-2.394999e-09	-3.674161e+01	-1.578047e+02
3.600000e-07	-5.148951e-06	-2.456329e-09	-3.664243e+01	-1.578031e+02
3.700000e-07	-5.134648e-06	-2.424555e-09	-3.654064e+01	-1.577794e+02
3.800000e-07	-5.119829e-06	-2.385621e-09	-3.643519e+01	-1.577334e+02
3.900000e-07	-5.104276e-06	-2.401286e-09	-3.632450e+01	-1.576653e+02
4.000000e-07	-5.088183e-06	-2.409972e-09	-3.620998e+01	-1.575754e+02
4.100000e-07	-5.071721e-06	-2.389355e-09	-3.609283e+01	-1.574645e+02
4.200000e-07	-5.054906e-06	-2.405470e-09	-3.597316e+01	-1.573334e+02
4.300000e-07	-5.037779e-06	-2.401422e-09	-3.585127e+01	-1.571832e+02
4.400000e-07	-5.020360e-06	-2.368347e-09	-3.572731e+01	-1.570154e+02
4.500000e-07	-5.002657e-06	-2.379106e-09	-3.560133e+01	-1.568313e+02
4.600000e-07	-4.984639e-06	-2.408261e-09	-3.547311e+01	-1.566327e+02
4.700000e-07	-4.966262e-06	-2.387172e-09	-3.534233e+01	-1.564212e+02
4.800000e-07	-4.947450e-06	-2.365427e-09	-3.520845e+01	-1.561987e+02
4.900000e-07	-4.928243e-06	-2.385837e-09	-3.507177e+01	-1.559670e+02
5.000000e-07	-4.908726e-06	-2.388941e-09	-3.493287e+01	-1.557279e+02
5.100000e-07	-4.888990e-06	-2.367333e-09	-3.479242e+01	-1.554832e+02
5.200000e-07	-4.869051e-06	-2.352322e-09	-3.465053e+01	-1.552344e+02
5.300000e-07	-4.848915e-06	-2.357076e-09	-3.450723e+01	-1.549833e+02
5.400000e-07	-4.828571e-06	-2.365483e-09	-3.436245e+01	-1.547313e+02
5.500000e-07	-4.807812e-06	-2.373760e-09	-3.421472e+01	-1.544796e+02
5.600000e-07	-4.786581e-06	-2.358318e-09	-3.406363e+01	-1.542295e+02
5.700000e-07	-4.764998e-06	-2.348108e-09	-3.391003e+01	-1.539818e+02
5.800000e-07	-4.743128e-06	-2.352074e-09	-3.375440e+01	-1.537373e+02
5.900000e-07	-4.720995e-06	-2.352431e-09	-3.359689e+01	-1.534965e+02
6.000000e-07	-4.698525e-06	-2.331684e-09	-3.343698e+01	-1.532599e+02
6.100000e-07	-4.675707e-06	-2.323208e-09	-3.327460e+01	-1.530275e+02
6.200000e-07	-4.652598e-06	-2.326218e-09	-3.311014e+01	-1.527994e+02
6.300000e-07	-4.629186e-06	-2.336127e-09	-3.294353e+01	-1.525753e+02
6.400000e-07	-4.605515e-06	-2.331790e-09	-3.277507e+01	-1.523550e+02
6.500000e-07	-4.581639e-06	-2.316642e-09	-3.260516e+01	-1.521379e+02
6.600000e-07	-4.557528e-06	-2.307146e-09	-3.243358e+01	-1.519234e+02
6.700000e-07	-4.533088e-06	-2.318376e-09	-3.225965e+01	-1.517107e+02
6.800000e-07	-4.508228e-06	-2.317563e-09	-3.208273e+01	-1.514992e+02
6.900000e-07	-4.482884e-06	-2.302749e-09	-3.190238e+01	-1.512880e+02
7.000000e-07	-4.457008e-06	-2.295245e-09	-3.171823e+01	-1.510762e+02
7.100000e-07	-4.430686e-06	-2.300387e-09	-3.153091e+01	-1.508630e+02
7.200000e-07	-4.403894e-06	-2.296723e-09	-3.134024e+01	-1.506475e+02
7.300000e-07	-4.376644e-06	-2.284423e-09	-3.114632e+01	-1.504289e+02
7.400000e-07	-4.349018e-06	-2.276214e-09	-3.094972e+01	-1.502065e+02
7.500000e-07	-4.321179e-06	-2.281027e-09	-3.075161e+01	-1.499795e+02
7.600000e-07	-4.293266e-06	-2.288826e-09	-3.055296e+01	-1.497475e+02
7.700000e-07	-4.265214e-06	-2.282300e-09	-3.035333e+01	-1.495099e+02
7.800000e-07	-4.236971e-06	-2.267992e-09	-3.015234e+01	-1.492663e+02
7.900000e-07	-4.208446e-06	-2.261305e-09	-2.994934e+01	-1.490165e+02
8.000000e-07	-4.179572e-06	-2.260129e-09	-2.974386e+01	-1.487602e+02
8.100000e-07	-4.150337e-06	-2.251535e-09	-2.953581e+01	-1.484974e+02
8.200000e-07	-4.120742e-06	-2.242409e-09	-2.932519e+01	-1.482282e+02
8.300000e-07	-4.090867e-06	-2.239249e-09	-2.911259e+01	-1.479526e+02
8.400000e-07	-4.060705e-06	-2.244468e-09	-2.889794e+01	-1.476709e+02
8.500000e-07	-4.030348e-06	-2.244718e-09	-2.868191e+01	-1.473833e+02
8.600000e-07	-3.999805e-06	-2.236001e-09	-2.846455e+01	-1.470903e+02
8.700000e-07	-3.968975e-06	-2.222037e-09	-2.824515e+01	-1.467921e+02
8.800000e-07	-3.937826e-06	-2.214922e-09	-2.802347e+01	-1.464893e+02
8.900000e-07	-3.906427e-06	-2.208942e-09	-2.780003e+01	-1.461823e+02
9.000000e-07	-3.874892e-06	-2.202533e-09	-2.757561e+01	-1.458715e+02
9.100000e-07	-3.843158e-06	-2.193851e-09	-2.734977e+01	-1.455574e+02
9.200000e-07	-3.811245e-06	-2.191114e-09	-2.712267e+01	-1.452404e+02
9.300000e-07	-3.779146e-06	-2.188312e-09	-2.689423e+01	-1.449209e+02
9.400000e-07	-3.746762e-06	-2.180884e-09	-2.666378e+01	-1.445992e+02
9.500000e-07	-3.714045e-06	-2.168241e-09	-2.643095e+01	-1.442756e+02
9.600000e-07	-3.681046e-06	-2.160083e-09	-2.619611e+01	-1.439504e+02
9.700000e-07	-3.647643e-06	-2.155215e-09	-2.595839e+01	-1.436236e+02
9.800000e-07	-3.613720e-06	-2.150430e-09	-2.571698e+01	-1.432955e+02
9.900000e-07	-3.579433e-06	-2.140385e-09	-2.547298e+01	-1.429660e+02
1.000000e-06	-3.544726e-06	-2.130820e-09	-2.522599e+01	-1.426351e+02
1.010000e-06	-3.509612e-06	-2.123763e-09	-2.497610e+01	-1.423026e+02
1.020000e-06	-3.474263e-06	-2.116591e-09	-2.472454e+01	-1.419685e+02
1.030000e-06	-3.438671e-06	-2.107101e-09	-2.447125e+01	-1.416325e+02
1.040000e-06	-3.402899e-06	-2.101424e-09	-2.421668e+01	-1.412944e+02
1.050000e-06	-3.366993e-06	-2.100535e-09	-2.396115e+01	-1.409538e+02
1.060000e-06	-3.330935e-06	-2.098149e-09	-2.370455e+01	-1.406104e+02
1.070000e-06	-3.294751e-06	-2.091597e-09	-2.344704e+01	-1.402640e+02
1.080000e-06	-3.258386e-06	-2.081879e-09	-2.318825e+01	-1.399141e+02
1.090000e-06	-3.221821e-06	-2.073040e-09	-2.292804e+01	-1.395603e+02
1.100000e-06	-3.185016e-06	-2.066341e-09	-2.266611e+01	-1.392025e+02
1.110000e-06	-3.147835e-06	-2.062077e-09	-2.240152e+01	-1.388401e+02
1.120000e-06	-3.110394e-06	-2.056226e-09	-2.213507e+01	-1.384729e+02
1.130000e-06	-3.072826e-06	-2.049623e-09	-2.186772e+01	-1.381006e+02
1.140000e-06	-3.035025e-06	-2.044858e-09	-2.159871e+01	-1.377229e+02
1.150000e-06	-2.997001e-06	-2.041359e-09	-2.132811e+01	-1.373396e+02
1.160000e-06	-2.958830e-06	-2.031273e-09	-2.105647e+01	-1.369504e+02
1.170000e-06	-2.920423e-06	-2.018997e-09	-2.078314e+01	-1.365553e+02
1.180000e-06	-2.881710e-06	-2.010098e-09	-2.050764e+01	-1.361540e+02
1.190000e-06	-2.842728e-06	-2.006842e-09	-2.023023e+01	-1.357464e+02
1.200000e-06	-2.803478e-06	-2.001788e-09	-1.995091e+01	-1.353325e+02
1.210000e-06	-2.764075e-06	-1.993904e-09	-1.967050e+01	-1.349120e+02
1.220000e-06	-2.724688e-06	-1.987275e-09	-1.939020e+01	-1.344850e+02
1.230000e-06	-2.685231e-06	-1.984524e-09	-1.910940e+01	-1.340514e+02
1.240000e-06	-2.645584e-06	-1.981117e-09	-1.882726e+01	-1.336109e+02
1.250000e-06	-2.605802e-06	-1.975218e-09	-1.854415e+01	-1.331636e+02
1.260000e-06	-2.565907e-06	-1.966230e-09	-1.826024e+01	-1.327093e+02
1.270000e-06	-2.525896e-06	-1.957799e-09	-1.797550e+01	-1.322479e+02
1.280000e-06	-2.485802e-06	-1.951453e-09	-1.769017e+01	-1.317792e+02
1.290000e-06	-2.445583e-06	-1.945596e-09	-1.740396e+01	-1.313029e+02
1.300000e-06	-2.405206e-06	-1.934352e-09	-1.711661e+01	-1.308188e+02
1.310000e-06	-2.364662e-06	-1.921656e-09	-1.682808e+01	-1.303266e+02
1.320000e-06	-2.323878e-06	-1.913549e-09	-1.653784e+01	-1.298260e+02
1.330000e-06	-2.282719e-06	-1.907794e-09	-1.624494e+01	-1.293166e+02
1.340000e-06	-2.241290e-06	-1.900630e-09	-1.595011e+01	-1.287980e+02
1.350000e-06	-2.199716e-06	-1.892037e-09	-1.565425e+01	-1.282698e+02
1.360000e-06	-2.157931e-06	-1.883962e-09	-1.535688e+01	-1.277313e+02
1.370000e-06	-2.115836e-06	-1.876616e-09	-1.505731e+01	-1.271823e+02
1.380000e-06	-2.073437e-06	-1.867204e-09	-1.475558e+01	-1.266220e+02
1.390000e-06	-2.030781e-06	-1.855333e-09	-1.445202e+01	-1.260501e+02
1.400000e-06	-1.987890e-06	-1.845699e-09	-1.414679e+01	-1.254659e+02
1.410000e-06	-1.944867e-06	-1.839389e-09	-1.384062e+01	-1.248689e+02
1.420000e-06	-1.901693e-06	-1.832445e-09	-1.353337e+01	-1.242586e+02
1.430000e-06	-1.858302e-06	-1.820123e-09	-1.322458e+01	-1.236344e+02
1.440000e-06	-1.814765e-06	-1.806533e-09	-1.291474e+01	-1.229959e+02
1.450000e-06	-1.771100e-06	-1.795358e-09	-1.260401e+01	-1.223427e+02
1.460000e-06	-1.727368e-06	-1.785158e-09	-1.229279e+01	-1.216742e+02
1.470000e-06	-1.683598e-06	-1.771955e-09	-1.198130e+01	-1.209901e+02
1.480000e-06	-1.639756e-06	-1.758310e-09	-1.166930e+01	-1.202899e+02
1.490000e-06	-1.595887e-06	-1.746896e-09	-1.135710e+01	-1.195735e+02
1.500000e-06	-1.551942e-06	-1.735668e-09	-1.104437e+01	-1.188405e+02
1.510000e-06	-1.507798e-06	-1.720283e-09	-1.073022e+01	-1.180906e+02
1.520000e-06	-1.463485e-06	-1.704783e-09	-1.041487e+01	-1.173236e+02
1.530000e-06	-1.419170e-06	-1.692869e-09	-1.009950e+01	-1.165393e+02
1.540000e-06	-1.374904e-06	-1.682272e-09	-9.784485e+00	-1.157375e+02
1.550000e-06	-1.330622e-06	-1.667726e-09	-9.469354e+00	-1.149178e+02
1.560000e-06	-1.286286e-06	-1.652153e-09	-9.153834e+00	-1.140803e+02
1.570000e-06	-1.241849e-06	-1.640689e-09	-8.837596e+00	-1.132245e+02
1.580000e-06	-1.197251e-06	-1.632018e-09	-8.520217e+00	-1.123502e+02
1.590000e-06	-1.152538e-06	-1.621956e-09	-8.202020e+00	-1.114570e+02
1.600000e-06	-1.107782e-06	-1.606979e-09	-7.883512e+00	-1.105447e+02
1.610000e-06	-1.062943e-06	-1.587750e-09	-7.564418e+00	-1.096127e+02
1.620000e-06	-1.017992e-06	-1.568409e-09	-7.244527e+00	-1.086604e+02
1.630000e-06	-9.730157e-07	-1.550586e-09	-6.924451e+00	-1.076873e+02
1.640000e-06	-9.279728e-07	-1.532916e-09	-6.603904e+00	-1.066926e+02
1.650000e-06	-8.827964e-07	-1.516710e-09	-6.282407e+00	-1.056755e+02
1.660000e-06	-8.375683e-07	-1.504714e-09	-5.960542e+00	-1.046351e+02
1.670000e-06	-7.922634e-07	-1.493014e-09	-5.638130e+00	-1.035702e+02
1.680000e-06	-7.468662e-07	-1.475400e-09	-5.315062e+00	-1.024797e+02
1.690000e-06	-7.014320e-07	-1.452227e-09	-4.991730e+00	-1.013624e+02
1.700000e-06	-6.559394e-07	-1.428190e-09	-4.667983e+00	-1.002168e+02
1.710000e-06	-6.104123e-07	-1.406759e-09	-4.343990e+00	-9.904153e+01
1.720000e-06	-5.648312e-07	-1.387652e-09	-4.019612e+00	-9.783501e+01
1.730000e-06	-5.192586e-07	-1.369948e-09	-3.695296e+00	-9.659561e+01
1.740000e-06	-4.736961e-07	-1.353965e-09	-3.371051e+00	-9.532166e+01
1.750000e-06	-4.280783e-07	-1.339797e-09	-3.046413e+00	-9.401144e+01
1.760000e-06	-3.824260e-07	-1.323333e-09	-2.721529e+00	-9.266322e+01
1.770000e-06	-3.367333e-07	-1.301697e-09	-2.396357e+00	-9.127528e+01
1.780000e-06	-2.909978e-07	-1.274630e-09	-2.070881e+00	-8.984590e+01
1.790000e-06	-2.452321e-07	-1.245419e-09	-1.745191e+00	-8.837340e+01
1.800000e-06	-1.995248e-07	-1.218487e-09	-1.419915e+00	-8.685619e+01
1.810000e-06	-1.538476e-07	-1.193916e-09	-1.094854e+00	-8.529275e+01
1.820000e-06	-1.081593e-07	-1.171046e-09	-7.697136e-01	-8.368165e+01
1.830000e-06	-6.250862e-08	-1.149468e-09	-4.448416e-01	-8.202160e+01
1.840000e-06	-1.678109e-08	-1.127487e-09	-1.194223e-01	-8.031144e+01
1.850000e-06	2.902673e-08	-1.104649e-09	2.065683e-01	-7.855016e+01
1.860000e-06	7.477793e-08	-1.078434e-09	5.321560e-01	-7.673694e+01
1.870000e-06	1.205133e-07	-1.047330e-09	8.576313e-01	-7.487109e+01
1.880000e-06	1.662812e-07	-1.015451e-09	1.183337e+00	-7.295216e+01
1.890000e-06	2.120776e-07	-9.858151e-10	1.509247e+00	-7.097984e+01
1.900000e-06	2.578426e-07	-9.564406e-10	1.834933e+00	-6.895405e+01
1.910000e-06	3.035787e-07	-9.259507e-10	2.160413e+00	-6.687487e+01
1.920000e-06	3.492873e-07	-8.954262e-10	2.485698e+00	-6.474259e+01
1.930000e-06	3.949474e-07	-8.661874e-10	2.810637e+00	-6.255768e+01
1.940000e-06	4.406298e-07	-8.344487e-10	3.135735e+00	-6.032076e+01
1.950000e-06	4.862814e-07	-8.002432e-10	3.460614e+00	-5.803265e+01
1.960000e-06	5.318203e-07	-7.666612e-10	3.784691e+00	-5.569428e+01
1.970000e-06	5.772336e-07	-7.331128e-10	4.107874e+00	-5.330676e+01
1.980000e-06	6.226034e-07	-6.980291e-10	4.430747e+00	-5.087129e+01
1.990000e-06	6.679330e-07	-6.606858e-10	4.753335e+00	-4.838921e+01
2.000000e-06	7.132656e-07	-6.231967e-10	5.075944e+00	-4.586191e+01
2.010000e-06	7.586584e-07	-5.866908e-10	5.398981e+00	-4.329091e+01
2.020000e-06	8.040144e-07	-5.508763e-10	5.721756e+00	-4.067777e+01
2.030000e-06	8.493524e-07	-5.146922e-10	6.044403e+00	-3.802409e+01
2.040000e-06	8.945520e-07	-4.768012e-10	6.366066e+00	-3.533152e+01
2.050000e-06	9.395790e-07	-4.370270e-10	6.686499e+00	-3.260175e+01
2.060000e-06	9.845569e-07	-3.972519e-10	7.006584e+00	-2.983649e+01
2.070000e-06	1.029449e-06	-3.562367e-10	7.326056e+00	-2.703743e+01
2.080000e-06	1.074350e-06	-3.127824e-10	7.645592e+00	-2.420632e+01
2.090000e-06	1.119173e-06	-2.683702e-10	7.964581e+00	-2.134489e+01
2.100000e-06	1.163802e-06	-2.266464e-10	8.282177e+00	-1.845487e+01
2.110000e-06	1.208350e-06	-1.877565e-10	8.599207e+00	-1.553803e+01
2.120000e-06	1.252823e-06	-1.474274e-10	8.915697e+00	-1.259612e+01
2.130000e-06	1.297194e-06	-1.049377e-10	9.231459e+00	-9.630948e+00
2.140000e-06	1.341439e-06	-6.147882e-11	9.546328e+00	-6.644315e+00
2.150000e-06	1.385626e-06	-1.650357e-11	9.860787e+00	-3.638081e+00
2.160000e-06	1.429771e-06	3.143937e-11	1.017495e+01	-6.141458e-01
2.170000e-06	1.473802e-06	8.107787e-11	1.048829e+01	2.425532e+00
2.180000e-06	1.517778e-06	1.276699e-10	1.080125e+01	5.478930e+00
2.190000e-06	1.561750e-06	1.696604e-10	1.111417e+01	8.543946e+00
2.200000e-06	1.605699e-06	2.120893e-10	1.142693e+01	1.161840e+01
2.210000e-06	1.649595e-06	2.582618e-10	1.173932e+01	1.470000e+01
2.220000e-06	1.693442e-06	3.060133e-10	1.205135e+01	1.778639e+01
2.230000e-06	1.737249e-06	3.536251e-10	1.236311e+01	2.087508e+01
2.240000e-06	1.780995e-06	4.009361e-10	1.267443e+01	2.396350e+01
2.250000e-06	1.824644e-06	4.493470e-10	1.298505e+01	2.704895e+01
2.260000e-06	1.868149e-06	4.979854e-10	1.329465e+01	3.012865e+01
2.270000e-06	1.911508e-06	5.435715e-10	1.360322e+01	3.319974e+01
2.280000e-06	1.954651e-06	5.858646e-10	1.391024e+01	3.625924e+01
2.290000e-06	1.997618e-06	6.285254e-10	1.421602e+01	3.930414e+01
2.300000e-06	2.040364e-06	6.739475e-10	1.452022e+01	4.233134e+01
2.310000e-06	2.082835e-06	7.192085e-10	1.482246e+01	4.533773e+01
2.320000e-06	2.125104e-06	7.634371e-10	1.512327e+01	4.832016e+01
2.330000e-06	2.167077e-06	8.079814e-10	1.542197e+01	5.127550e+01
2.340000e-06	2.208677e-06	8.515652e-10	1.571801e+01	5.420063e+01
2.350000e-06	2.249959e-06	8.915708e-10	1.601180e+01	5.709249e+01
2.360000e-06	2.291038e-06	9.297471e-10	1.630413e+01	5.994811e+01
2.370000e-06	2.331858e-06	9.694878e-10	1.659463e+01	6.276460e+01
2.380000e-06	2.372440e-06	1.012192e-09	1.688343e+01	6.553921e+01
2.390000e-06	2.412899e-06	1.054907e-09	1.717136e+01	6.826935e+01
2.400000e-06	2.453192e-06	1.093569e-09	1.745811e+01	7.095258e+01
2.410000e-06	2.493344e-06	1.130739e-09	1.774384e+01	7.358668e+01
2.420000e-06	2.533418e-06	1.167691e-09	1.802903e+01	7.616964e+01
2.430000e-06	2.573393e-06	1.200850e-09	1.831351e+01	7.869967e+01
2.440000e-06	2.613231e-06	1.230926e-09	1.859702e+01	8.117523e+01
2.450000e-06	2.652909e-06	1.261668e-09	1.887939e+01	8.359505e+01
2.460000e-06	2.692452e-06	1.297161e-09	1.916080e+01	8.595808e+01
2.470000e-06	2.731900e-06	1.333763e-09	1.944152e+01	8.826358e+01
2.480000e-06	2.771192e-06	1.365076e-09	1.972115e+01	9.051104e+01
2.490000e-06	2.810240e-06	1.392540e-09	1.999903e+01	9.270021e+01
2.500000e-06	2.849023e-06	1.421082e-09	2.027502e+01	9.483109e+01
2.510000e-06	2.887641e-06	1.451331e-09	2.054986e+01	9.690391e+01
2.520000e-06	2.926067e-06	1.479460e-09	2.082331e+01	9.891912e+01
2.530000e-06	2.964183e-06	1.506455e-09	2.109456e+01	1.008774e+02
2.540000e-06	3.002171e-06	1.533699e-09	2.136490e+01	1.027795e+02
2.550000e-06	3.040070e-06	1.561164e-09	2.163461e+01	1.046265e+02
2.560000e-06	3.077720e-06	1.585684e-09	2.190255e+01	1.064194e+02
2.570000e-06	3.115170e-06	1.605043e-09	2.216906e+01	1.081596e+02
2.580000e-06	3.152419e-06	1.624528e-09	2.243414e+01	1.098482e+02
2.590000e-06	3.189324e-06	1.647206e-09	2.269678e+01	1.114867e+02
2.600000e-06	3.225922e-06	1.670564e-09	2.295723e+01	1.130764e+02
2.610000e-06	3.262343e-06	1.694004e-09	2.321641e+01	1.146188e+02
2.620000e-06	3.298624e-06	1.717985e-09	2.347460e+01	1.161152e+02
2.630000e-06	3.334768e-06	1.739855e-09	2.373182e+01	1.175669e+02
2.640000e-06	3.370791e-06	1.757042e-09	2.398818e+01	1.189753e+02
2.650000e-06	3.406730e-06	1.770341e-09	2.424394e+01	1.203415e+02
2.660000e-06	3.442533e-06	1.783482e-09	2.449873e+01	1.216668e+02
2.670000e-06	3.478129e-06	1.800792e-09	2.475205e+01	1.229521e+02
2.680000e-06	3.513530e-06	1.819499e-09	2.500398e+01	1.241985e+02
2.690000e-06	3.548715e-06	1.836014e-09	2.525437e+01	1.254067e+02
2.700000e-06	3.583520e-06	1.851805e-09	2.550206e+01	1.265777e+02
2.710000e-06	3.617824e-06	1.868917e-09	2.574619e+01	1.277121e+02
2.720000e-06	3.651656e-06	1.886822e-09	2.598695e+01	1.288105e+02
2.730000e-06	3.684970e-06	1.902642e-09	2.622403e+01	1.298734e+02
2.740000e-06	3.717798e-06	1.915444e-09	2.645765e+01	1.309015e+02
2.750000e-06	3.750310e-06	1.929160e-09	2.668902e+01	1.318950e+02
2.760000e-06	3.782581e-06	1.944854e-09	2.691868e+01	1.328546e+02
2.770000e-06	3.814641e-06	1.958104e-09	2.714684e+01	1.337806e+02
2.780000e-06	3.846580e-06	1.967858e-09	2.737413e+01	1.346734e+02
2.790000e-06	3.878437e-06	1.978142e-09	2.760084e+01	1.355335e+02
2.800000e-06	3.910117e-06	1.991519e-09	2.782628e+01	1.363614e+02
2.810000e-06	3.941566e-06	2.004842e-09	2.805010e+01	1.371576e+02
2.820000e-06	3.972757e-06	2.014315e-09	2.827206e+01	1.379228e+02
2.830000e-06	4.003578e-06	2.023651e-09	2.849140e+01	1.386576e+02
2.840000e-06	4.033975e-06	2.037975e-09	2.870772e+01	1.393628e+02
2.850000e-06	4.064086e-06	2.054703e-09	2.892200e+01	1.400392e+02
2.860000e-06	4.094069e-06	2.067332e-09	2.913538e+01	1.406878e+02
2.870000e-06	4.123870e-06	2.074684e-09	2.934746e+01	1.413096e+02
2.880000e-06	4.153387e-06	2.080476e-09	2.955751e+01	1.419057e+02
2.890000e-06	4.182550e-06	2.085983e-09	2.976506e+01	1.424772e+02
2.900000e-06	4.211395e-06	2.090944e-09	2.997033e+01	1.430255e+02
