# Temperatura_=_4.58
# Concentracion g/m^3_=_4090.0
# C_Vs_to_Am_M_A/Vsm_=_65563218390.804596
# pendiente_HvsI_1/m_=_3716.3
# ordenada_HvsI_A/m_=_1297.0
# frecuencia_Hz_=_135067.36216215245

Tiempo_(s)	Campo_(V.s)	Magnetizacion_(V.s)	Campo_(kA/m)	Magnetizacion_(A/m)
0.000000e+00	-5.429640e-06	-2.451771e-09	-3.839606e+01	-1.619082e+02
1.000000e-08	-5.429713e-06	-2.449714e-09	-3.839657e+01	-1.617861e+02
2.000000e-08	-5.429599e-06	-2.446399e-09	-3.839576e+01	-1.616644e+02
3.000000e-08	-5.429201e-06	-2.441570e-09	-3.839295e+01	-1.615454e+02
4.000000e-08	-5.428420e-06	-2.437868e-09	-3.838743e+01	-1.614314e+02
5.000000e-08	-5.427172e-06	-2.438913e-09	-3.837860e+01	-1.613248e+02
6.000000e-08	-5.425303e-06	-2.442163e-09	-3.836538e+01	-1.612277e+02
7.000000e-08	-5.422827e-06	-2.435538e-09	-3.834788e+01	-1.611422e+02
8.000000e-08	-5.419748e-06	-2.420422e-09	-3.832610e+01	-1.610701e+02
9.000000e-08	-5.416047e-06	-2.428643e-09	-3.829994e+01	-1.610132e+02
1.000000e-07	-5.411903e-06	-2.488366e-09	-3.827063e+01	-1.609729e+02
1.100000e-07	-5.407595e-06	-2.510433e-09	-3.824016e+01	-1.609503e+02
1.200000e-07	-5.403163e-06	-2.443520e-09	-3.820883e+01	-1.609463e+02
1.300000e-07	-5.398432e-06	-2.369487e-09	-3.817536e+01	-1.609613e+02
1.400000e-07	-5.393335e-06	-2.450310e-09	-3.813932e+01	-1.609956e+02
1.500000e-07	-5.387853e-06	-2.496174e-09	-3.810056e+01	-1.610490e+02
1.600000e-07	-5.381974e-06	-2.427405e-09	-3.805898e+01	-1.611210e+02
1.700000e-07	-5.375655e-06	-2.340364e-09	-3.801430e+01	-1.612107e+02
1.800000e-07	-5.368927e-06	-2.445773e-09	-3.796672e+01	-1.613169e+02
1.900000e-07	-5.361881e-06	-2.544381e-09	-3.791689e+01	-1.614380e+02
2.000000e-07	-5.354643e-06	-2.484325e-09	-3.786571e+01	-1.615723e+02
2.100000e-07	-5.347086e-06	-2.429584e-09	-3.781227e+01	-1.617177e+02
2.200000e-07	-5.339228e-06	-2.491169e-09	-3.775670e+01	-1.618720e+02
2.300000e-07	-5.331186e-06	-2.539478e-09	-3.769984e+01	-1.620325e+02
2.400000e-07	-5.322745e-06	-2.474063e-09	-3.764014e+01	-1.621967e+02
2.500000e-07	-5.313597e-06	-2.499327e-09	-3.757545e+01	-1.623619e+02
2.600000e-07	-5.303717e-06	-2.581817e-09	-3.750558e+01	-1.625254e+02
2.700000e-07	-5.293319e-06	-2.596450e-09	-3.743205e+01	-1.626842e+02
2.800000e-07	-5.282406e-06	-2.537819e-09	-3.735488e+01	-1.628358e+02
2.900000e-07	-5.271075e-06	-2.589119e-09	-3.727475e+01	-1.629774e+02
3.000000e-07	-5.259356e-06	-2.621514e-09	-3.719188e+01	-1.631066e+02
3.100000e-07	-5.247190e-06	-2.564078e-09	-3.710585e+01	-1.632210e+02
3.200000e-07	-5.234633e-06	-2.534434e-09	-3.701705e+01	-1.633186e+02
3.300000e-07	-5.221744e-06	-2.619274e-09	-3.692590e+01	-1.633975e+02
3.400000e-07	-5.208440e-06	-2.613733e-09	-3.683182e+01	-1.634560e+02
3.500000e-07	-5.194746e-06	-2.551830e-09	-3.673499e+01	-1.634929e+02
3.600000e-07	-5.180692e-06	-2.556162e-09	-3.663561e+01	-1.635072e+02
3.700000e-07	-5.166257e-06	-2.601973e-09	-3.653352e+01	-1.634982e+02
3.800000e-07	-5.151301e-06	-2.558475e-09	-3.642776e+01	-1.634655e+02
3.900000e-07	-5.135700e-06	-2.543766e-09	-3.631744e+01	-1.634092e+02
4.000000e-07	-5.119573e-06	-2.571424e-09	-3.620340e+01	-1.633296e+02
4.100000e-07	-5.103029e-06	-2.567372e-09	-3.608640e+01	-1.632271e+02
4.200000e-07	-5.086153e-06	-2.548888e-09	-3.596706e+01	-1.631026e+02
4.300000e-07	-5.068974e-06	-2.577120e-09	-3.584559e+01	-1.629573e+02
4.400000e-07	-5.051517e-06	-2.573164e-09	-3.572214e+01	-1.627924e+02
4.500000e-07	-5.033739e-06	-2.528007e-09	-3.559641e+01	-1.626095e+02
4.600000e-07	-5.015604e-06	-2.540509e-09	-3.546817e+01	-1.624100e+02
4.700000e-07	-4.997101e-06	-2.564971e-09	-3.533733e+01	-1.621959e+02
4.800000e-07	-4.978175e-06	-2.548760e-09	-3.520349e+01	-1.619689e+02
4.900000e-07	-4.958891e-06	-2.527213e-09	-3.506712e+01	-1.617309e+02
5.000000e-07	-4.939348e-06	-2.551825e-09	-3.492892e+01	-1.614837e+02
5.100000e-07	-4.919548e-06	-2.552940e-09	-3.478890e+01	-1.612290e+02
5.200000e-07	-4.899542e-06	-2.541075e-09	-3.464743e+01	-1.609687e+02
5.300000e-07	-4.879289e-06	-2.519654e-09	-3.450421e+01	-1.607044e+02
5.400000e-07	-4.858656e-06	-2.516601e-09	-3.435831e+01	-1.604375e+02
5.500000e-07	-4.837623e-06	-2.514440e-09	-3.420957e+01	-1.601693e+02
5.600000e-07	-4.816302e-06	-2.524753e-09	-3.405879e+01	-1.599011e+02
5.700000e-07	-4.794683e-06	-2.510212e-09	-3.390591e+01	-1.596337e+02
5.800000e-07	-4.772621e-06	-2.504730e-09	-3.374990e+01	-1.593679e+02
5.900000e-07	-4.750146e-06	-2.505345e-09	-3.359097e+01	-1.591042e+02
6.000000e-07	-4.727399e-06	-2.508645e-09	-3.343011e+01	-1.588430e+02
6.100000e-07	-4.704386e-06	-2.489660e-09	-3.326737e+01	-1.585845e+02
6.200000e-07	-4.681115e-06	-2.475322e-09	-3.310281e+01	-1.583285e+02
6.300000e-07	-4.657613e-06	-2.466944e-09	-3.293661e+01	-1.580749e+02
6.400000e-07	-4.633858e-06	-2.479173e-09	-3.276863e+01	-1.578233e+02
6.500000e-07	-4.609866e-06	-2.481329e-09	-3.259897e+01	-1.575732e+02
6.600000e-07	-4.585590e-06	-2.468291e-09	-3.242730e+01	-1.573239e+02
6.700000e-07	-4.560969e-06	-2.456686e-09	-3.225319e+01	-1.570747e+02
6.800000e-07	-4.535971e-06	-2.465321e-09	-3.207641e+01	-1.568248e+02
6.900000e-07	-4.510451e-06	-2.463096e-09	-3.189595e+01	-1.565735e+02
7.000000e-07	-4.484469e-06	-2.446279e-09	-3.171221e+01	-1.563198e+02
7.100000e-07	-4.458104e-06	-2.435507e-09	-3.152578e+01	-1.560629e+02
7.200000e-07	-4.431240e-06	-2.437593e-09	-3.133580e+01	-1.558021e+02
7.300000e-07	-4.403900e-06	-2.440632e-09	-3.114247e+01	-1.555367e+02
7.400000e-07	-4.376291e-06	-2.432953e-09	-3.094723e+01	-1.552659e+02
7.500000e-07	-4.348483e-06	-2.421466e-09	-3.075058e+01	-1.549892e+02
7.600000e-07	-4.320476e-06	-2.415043e-09	-3.055253e+01	-1.547062e+02
7.700000e-07	-4.292326e-06	-2.417662e-09	-3.035346e+01	-1.544165e+02
7.800000e-07	-4.263910e-06	-2.408009e-09	-3.015252e+01	-1.541198e+02
7.900000e-07	-4.235151e-06	-2.394300e-09	-2.994915e+01	-1.538162e+02
8.000000e-07	-4.205999e-06	-2.386346e-09	-2.974300e+01	-1.535055e+02
8.100000e-07	-4.176525e-06	-2.390220e-09	-2.953457e+01	-1.531879e+02
8.200000e-07	-4.146850e-06	-2.387212e-09	-2.932472e+01	-1.528637e+02
8.300000e-07	-4.116856e-06	-2.381917e-09	-2.911262e+01	-1.525332e+02
8.400000e-07	-4.086555e-06	-2.369217e-09	-2.889834e+01	-1.521968e+02
8.500000e-07	-4.056009e-06	-2.363052e-09	-2.868234e+01	-1.518549e+02
8.600000e-07	-4.025272e-06	-2.354446e-09	-2.846498e+01	-1.515082e+02
8.700000e-07	-3.994291e-06	-2.346462e-09	-2.824589e+01	-1.511571e+02
8.800000e-07	-3.963009e-06	-2.333986e-09	-2.802468e+01	-1.508022e+02
8.900000e-07	-3.931508e-06	-2.331681e-09	-2.780192e+01	-1.504441e+02
9.000000e-07	-3.899768e-06	-2.331965e-09	-2.757747e+01	-1.500834e+02
9.100000e-07	-3.867848e-06	-2.329797e-09	-2.735174e+01	-1.497205e+02
9.200000e-07	-3.835764e-06	-2.315858e-09	-2.712486e+01	-1.493559e+02
9.300000e-07	-3.803353e-06	-2.303779e-09	-2.689566e+01	-1.489900e+02
9.400000e-07	-3.770649e-06	-2.295016e-09	-2.666439e+01	-1.486230e+02
9.500000e-07	-3.737772e-06	-2.288424e-09	-2.643190e+01	-1.482553e+02
9.600000e-07	-3.704591e-06	-2.279093e-09	-2.619726e+01	-1.478868e+02
9.700000e-07	-3.670910e-06	-2.273563e-09	-2.595908e+01	-1.475177e+02
9.800000e-07	-3.636690e-06	-2.270171e-09	-2.571709e+01	-1.471478e+02
9.900000e-07	-3.601995e-06	-2.264047e-09	-2.547174e+01	-1.467771e+02
1.000000e-06	-3.566945e-06	-2.252640e-09	-2.522389e+01	-1.464051e+02
1.010000e-06	-3.531595e-06	-2.241565e-09	-2.497390e+01	-1.460317e+02
1.020000e-06	-3.496025e-06	-2.232391e-09	-2.472237e+01	-1.456563e+02
1.030000e-06	-3.460294e-06	-2.223534e-09	-2.446970e+01	-1.452786e+02
1.040000e-06	-3.424361e-06	-2.217922e-09	-2.421560e+01	-1.448979e+02
1.050000e-06	-3.388318e-06	-2.213442e-09	-2.396072e+01	-1.445138e+02
1.060000e-06	-3.352135e-06	-2.210443e-09	-2.370484e+01	-1.441256e+02
1.070000e-06	-3.315692e-06	-2.205633e-09	-2.344714e+01	-1.437328e+02
1.080000e-06	-3.279068e-06	-2.198680e-09	-2.318815e+01	-1.433348e+02
1.090000e-06	-3.242253e-06	-2.187256e-09	-2.292780e+01	-1.429311e+02
1.100000e-06	-3.205144e-06	-2.179265e-09	-2.266539e+01	-1.425210e+02
1.110000e-06	-3.167762e-06	-2.174363e-09	-2.240104e+01	-1.421043e+02
1.120000e-06	-3.130126e-06	-2.171060e-09	-2.213489e+01	-1.416804e+02
1.130000e-06	-3.092298e-06	-2.163115e-09	-2.186739e+01	-1.412490e+02
1.140000e-06	-3.054301e-06	-2.154670e-09	-2.159869e+01	-1.408099e+02
1.150000e-06	-3.016141e-06	-2.142975e-09	-2.132884e+01	-1.403627e+02
1.160000e-06	-2.977774e-06	-2.129777e-09	-2.105753e+01	-1.399075e+02
1.170000e-06	-2.939187e-06	-2.115130e-09	-2.078465e+01	-1.394442e+02
1.180000e-06	-2.900395e-06	-2.106717e-09	-2.051033e+01	-1.389727e+02
1.190000e-06	-2.861313e-06	-2.103755e-09	-2.023397e+01	-1.384931e+02
1.200000e-06	-2.822021e-06	-2.104312e-09	-1.995611e+01	-1.380056e+02
1.210000e-06	-2.782558e-06	-2.099383e-09	-1.967704e+01	-1.375103e+02
1.220000e-06	-2.742851e-06	-2.091775e-09	-1.939625e+01	-1.370074e+02
1.230000e-06	-2.703006e-06	-2.080351e-09	-1.911449e+01	-1.364972e+02
1.240000e-06	-2.663090e-06	-2.066730e-09	-1.883222e+01	-1.359799e+02
1.250000e-06	-2.623081e-06	-2.051130e-09	-1.854929e+01	-1.354557e+02
1.260000e-06	-2.583007e-06	-2.038000e-09	-1.826590e+01	-1.349249e+02
1.270000e-06	-2.542826e-06	-2.029293e-09	-1.798176e+01	-1.343876e+02
1.280000e-06	-2.502484e-06	-2.026676e-09	-1.769648e+01	-1.338439e+02
1.290000e-06	-2.462037e-06	-2.025405e-09	-1.741046e+01	-1.332940e+02
1.300000e-06	-2.421516e-06	-2.018902e-09	-1.712391e+01	-1.327378e+02
1.310000e-06	-2.380748e-06	-2.006190e-09	-1.683562e+01	-1.321753e+02
1.320000e-06	-2.339656e-06	-1.989447e-09	-1.654503e+01	-1.316064e+02
1.330000e-06	-2.298282e-06	-1.974332e-09	-1.625245e+01	-1.310308e+02
1.340000e-06	-2.256584e-06	-1.962648e-09	-1.595758e+01	-1.304484e+02
1.350000e-06	-2.214619e-06	-1.952827e-09	-1.566083e+01	-1.298587e+02
1.360000e-06	-2.172361e-06	-1.943886e-09	-1.536199e+01	-1.292613e+02
1.370000e-06	-2.129817e-06	-1.936963e-09	-1.506114e+01	-1.286557e+02
1.380000e-06	-2.087002e-06	-1.927862e-09	-1.475837e+01	-1.280412e+02
1.390000e-06	-2.044020e-06	-1.915649e-09	-1.445442e+01	-1.274174e+02
1.400000e-06	-2.000860e-06	-1.901867e-09	-1.414921e+01	-1.267835e+02
1.410000e-06	-1.957477e-06	-1.889910e-09	-1.384243e+01	-1.261388e+02
1.420000e-06	-1.914015e-06	-1.878304e-09	-1.353508e+01	-1.254825e+02
1.430000e-06	-1.870437e-06	-1.866283e-09	-1.322692e+01	-1.248141e+02
1.440000e-06	-1.826728e-06	-1.850402e-09	-1.291783e+01	-1.241327e+02
1.450000e-06	-1.782939e-06	-1.836836e-09	-1.260817e+01	-1.234375e+02
1.460000e-06	-1.739041e-06	-1.827672e-09	-1.229774e+01	-1.227281e+02
1.470000e-06	-1.695057e-06	-1.817532e-09	-1.198670e+01	-1.220036e+02
1.480000e-06	-1.651031e-06	-1.802105e-09	-1.167538e+01	-1.212634e+02
1.490000e-06	-1.606957e-06	-1.788751e-09	-1.136371e+01	-1.205071e+02
1.500000e-06	-1.562809e-06	-1.776757e-09	-1.105151e+01	-1.197341e+02
1.510000e-06	-1.518573e-06	-1.764206e-09	-1.073869e+01	-1.189440e+02
1.520000e-06	-1.474271e-06	-1.750131e-09	-1.042540e+01	-1.181364e+02
1.530000e-06	-1.429889e-06	-1.737626e-09	-1.011155e+01	-1.173110e+02
1.540000e-06	-1.385461e-06	-1.728417e-09	-9.797380e+00	-1.164675e+02
1.550000e-06	-1.340943e-06	-1.717426e-09	-9.482566e+00	-1.156056e+02
1.560000e-06	-1.296285e-06	-1.701652e-09	-9.166768e+00	-1.147253e+02
1.570000e-06	-1.251528e-06	-1.683741e-09	-8.850260e+00	-1.138262e+02
1.580000e-06	-1.206660e-06	-1.667530e-09	-8.532973e+00	-1.129083e+02
1.590000e-06	-1.161703e-06	-1.652839e-09	-8.215056e+00	-1.119713e+02
1.600000e-06	-1.116649e-06	-1.635676e-09	-7.896454e+00	-1.110151e+02
1.610000e-06	-1.071530e-06	-1.617954e-09	-7.577393e+00	-1.100396e+02
1.620000e-06	-1.026365e-06	-1.603813e-09	-7.258008e+00	-1.090444e+02
1.630000e-06	-9.810629e-07	-1.590677e-09	-6.937651e+00	-1.080291e+02
1.640000e-06	-9.356242e-07	-1.573602e-09	-6.616328e+00	-1.069935e+02
1.650000e-06	-8.901410e-07	-1.554775e-09	-6.294690e+00	-1.059371e+02
1.660000e-06	-8.446461e-07	-1.540568e-09	-5.972970e+00	-1.048591e+02
1.670000e-06	-7.990837e-07	-1.527737e-09	-5.650773e+00	-1.037590e+02
1.680000e-06	-7.534817e-07	-1.511485e-09	-5.328295e+00	-1.026359e+02
1.690000e-06	-7.078013e-07	-1.491438e-09	-5.005263e+00	-1.014889e+02
1.700000e-06	-6.620547e-07	-1.472657e-09	-4.681763e+00	-1.003170e+02
1.710000e-06	-6.163110e-07	-1.456217e-09	-4.358284e+00	-9.911882e+01
1.720000e-06	-5.704937e-07	-1.438046e-09	-4.034284e+00	-9.789320e+01
1.730000e-06	-5.246414e-07	-1.417384e-09	-3.710036e+00	-9.663868e+01
1.740000e-06	-4.787540e-07	-1.398332e-09	-3.385541e+00	-9.535375e+01
1.750000e-06	-4.327857e-07	-1.381819e-09	-3.060473e+00	-9.403679e+01
1.760000e-06	-3.868144e-07	-1.365705e-09	-2.735383e+00	-9.268611e+01
1.770000e-06	-3.408601e-07	-1.344250e-09	-2.410415e+00	-9.129997e+01
1.780000e-06	-2.948925e-07	-1.318919e-09	-2.085351e+00	-8.987658e+01
1.790000e-06	-2.488398e-07	-1.293798e-09	-1.759687e+00	-8.841414e+01
1.800000e-06	-2.027000e-07	-1.269205e-09	-1.433406e+00	-8.691085e+01
1.810000e-06	-1.566213e-07	-1.243445e-09	-1.107558e+00	-8.536495e+01
1.820000e-06	-1.106588e-07	-1.219398e-09	-7.825310e-01	-8.377471e+01
1.830000e-06	-6.467211e-08	-1.197253e-09	-4.573331e-01	-8.213849e+01
1.840000e-06	-1.858204e-08	-1.174530e-09	-1.314041e-01	-8.045472e+01
1.850000e-06	2.756214e-08	-1.149297e-09	1.949075e-01	-7.872198e+01
1.860000e-06	7.367308e-08	-1.123062e-09	5.209840e-01	-7.693896e+01
1.870000e-06	1.196601e-07	-1.096284e-09	8.461840e-01	-7.510450e+01
1.880000e-06	1.656233e-07	-1.067613e-09	1.171216e+00	-7.321762e+01
1.890000e-06	2.116689e-07	-1.036790e-09	1.496831e+00	-7.127752e+01
1.900000e-06	2.577534e-07	-1.003547e-09	1.822720e+00	-6.928358e+01
1.910000e-06	3.037781e-07	-9.705108e-10	2.148187e+00	-6.723537e+01
1.920000e-06	3.497341e-07	-9.389848e-10	2.473168e+00	-6.513268e+01
1.930000e-06	3.956518e-07	-9.072761e-10	2.797878e+00	-6.297548e+01
1.940000e-06	4.415367e-07	-8.761852e-10	3.122356e+00	-6.076396e+01
1.950000e-06	4.874523e-07	-8.491673e-10	3.447051e+00	-5.849848e+01
1.960000e-06	5.333259e-07	-8.223190e-10	3.771449e+00	-5.617961e+01
1.970000e-06	5.791126e-07	-7.901484e-10	4.095233e+00	-5.380808e+01
1.980000e-06	6.248506e-07	-7.509388e-10	4.418672e+00	-5.138480e+01
1.990000e-06	6.704997e-07	-7.085267e-10	4.741483e+00	-4.891083e+01
2.000000e-06	7.160818e-07	-6.658550e-10	5.063820e+00	-4.638737e+01
2.010000e-06	7.617158e-07	-6.237503e-10	5.386523e+00	-4.381575e+01
2.020000e-06	8.073520e-07	-5.841478e-10	5.709243e+00	-4.119740e+01
2.030000e-06	8.528947e-07	-5.503237e-10	6.031301e+00	-3.853386e+01
2.040000e-06	8.983721e-07	-5.204241e-10	6.352897e+00	-3.582675e+01
2.050000e-06	9.437720e-07	-4.874019e-10	6.673946e+00	-3.307776e+01
2.060000e-06	9.891451e-07	-4.471848e-10	6.994804e+00	-3.028862e+01
2.070000e-06	1.034469e-06	-4.025044e-10	7.315317e+00	-2.746113e+01
2.080000e-06	1.079622e-06	-3.558166e-10	7.634621e+00	-2.459713e+01
2.090000e-06	1.124595e-06	-3.061682e-10	7.952647e+00	-2.169847e+01
2.100000e-06	1.169452e-06	-2.559290e-10	8.269856e+00	-1.876703e+01
2.110000e-06	1.214266e-06	-2.121658e-10	8.586761e+00	-1.580474e+01
2.120000e-06	1.258968e-06	-1.771121e-10	8.902875e+00	-1.281352e+01
2.130000e-06	1.303534e-06	-1.441860e-10	9.218026e+00	-9.795350e+00
2.140000e-06	1.348089e-06	-1.034656e-10	9.533098e+00	-6.752207e+00
2.150000e-06	1.392572e-06	-5.441155e-11	9.847664e+00	-3.686122e+00
2.160000e-06	1.436944e-06	-2.704458e-12	1.016145e+01	-5.991577e-01
2.170000e-06	1.481252e-06	4.957353e-11	1.047477e+01	2.506571e+00
2.180000e-06	1.525491e-06	1.027290e-10	1.078761e+01	5.628895e+00
2.190000e-06	1.569656e-06	1.516951e-10	1.109993e+01	8.765583e+00
2.200000e-06	1.613760e-06	1.909151e-10	1.141181e+01	1.191433e+01
2.210000e-06	1.657821e-06	2.256226e-10	1.172339e+01	1.507275e+01
2.220000e-06	1.701848e-06	2.656850e-10	1.203473e+01	1.823837e+01
2.230000e-06	1.745829e-06	3.151189e-10	1.234574e+01	2.140864e+01
2.240000e-06	1.789714e-06	3.677263e-10	1.265608e+01	2.458089e+01
2.250000e-06	1.833516e-06	4.190255e-10	1.296583e+01	2.775238e+01
2.260000e-06	1.877270e-06	4.703898e-10	1.327524e+01	3.092025e+01
2.270000e-06	1.920930e-06	5.207500e-10	1.358398e+01	3.408158e+01
2.280000e-06	1.964418e-06	5.646446e-10	1.389151e+01	3.723335e+01
2.290000e-06	2.007783e-06	6.026340e-10	1.419817e+01	4.037244e+01
2.300000e-06	2.050997e-06	6.420027e-10	1.450376e+01	4.349572e+01
2.310000e-06	2.093921e-06	6.858433e-10	1.480730e+01	4.659996e+01
2.320000e-06	2.136531e-06	7.319207e-10	1.510862e+01	4.968192e+01
2.330000e-06	2.178877e-06	7.794309e-10	1.540807e+01	5.273836e+01
2.340000e-06	2.220956e-06	8.282933e-10	1.570564e+01	5.576603e+01
2.350000e-06	2.262752e-06	8.752439e-10	1.600120e+01	5.876172e+01
2.360000e-06	2.304264e-06	9.173527e-10	1.629475e+01	6.172228e+01
2.370000e-06	2.345493e-06	9.554857e-10	1.658631e+01	6.464462e+01
2.380000e-06	2.386421e-06	9.924591e-10	1.687573e+01	6.752580e+01
2.390000e-06	2.427105e-06	1.031989e-09	1.716343e+01	7.036297e+01
2.400000e-06	2.467620e-06	1.071925e-09	1.744994e+01	7.315346e+01
2.410000e-06	2.507946e-06	1.110772e-09	1.773511e+01	7.589478e+01
2.420000e-06	2.548164e-06	1.149896e-09	1.801951e+01	7.858463e+01
2.430000e-06	2.588307e-06	1.189734e-09	1.830339e+01	8.122094e+01
2.440000e-06	2.628311e-06	1.227085e-09	1.858628e+01	8.380188e+01
2.450000e-06	2.668229e-06	1.259221e-09	1.886855e+01	8.632587e+01
2.460000e-06	2.708078e-06	1.291124e-09	1.915035e+01	8.879158e+01
2.470000e-06	2.747804e-06	1.327352e-09	1.943128e+01	9.119796e+01
2.480000e-06	2.787424e-06	1.363823e-09	1.971145e+01	9.354424e+01
2.490000e-06	2.826795e-06	1.396417e-09	1.998987e+01	9.582990e+01
2.500000e-06	2.865851e-06	1.427768e-09	2.026605e+01	9.805470e+01
2.510000e-06	2.904626e-06	1.459082e-09	2.054026e+01	1.002187e+02
2.520000e-06	2.943116e-06	1.487823e-09	2.081244e+01	1.023220e+02
2.530000e-06	2.981459e-06	1.512944e-09	2.108358e+01	1.043653e+02
2.540000e-06	3.019635e-06	1.538373e-09	2.135355e+01	1.063492e+02
2.550000e-06	3.057626e-06	1.569479e-09	2.162221e+01	1.082747e+02
2.560000e-06	3.095534e-06	1.602624e-09	2.189027e+01	1.101427e+02
2.570000e-06	3.133275e-06	1.628811e-09	2.215716e+01	1.119544e+02
2.580000e-06	3.170740e-06	1.650635e-09	2.242210e+01	1.137114e+02
2.590000e-06	3.207998e-06	1.673915e-09	2.268557e+01	1.154148e+02
2.600000e-06	3.245030e-06	1.697177e-09	2.294745e+01	1.170663e+02
2.610000e-06	3.281717e-06	1.718365e-09	2.320687e+01	1.186674e+02
2.620000e-06	3.318097e-06	1.738159e-09	2.346414e+01	1.202196e+02
2.630000e-06	3.354301e-06	1.760168e-09	2.372016e+01	1.217245e+02
2.640000e-06	3.390432e-06	1.785566e-09	2.397566e+01	1.231836e+02
2.650000e-06	3.426482e-06	1.807810e-09	2.423060e+01	1.245983e+02
2.660000e-06	3.462402e-06	1.824647e-09	2.448461e+01	1.259701e+02
2.670000e-06	3.498179e-06	1.841053e-09	2.473760e+01	1.273003e+02
2.680000e-06	3.533769e-06	1.861084e-09	2.498928e+01	1.285902e+02
2.690000e-06	3.569112e-06	1.879952e-09	2.523921e+01	1.298409e+02
2.700000e-06	3.604146e-06	1.893752e-09	2.548696e+01	1.310535e+02
2.710000e-06	3.638720e-06	1.909230e-09	2.573145e+01	1.322290e+02
2.720000e-06	3.672791e-06	1.930650e-09	2.597238e+01	1.333682e+02
2.730000e-06	3.706354e-06	1.951181e-09	2.620972e+01	1.344720e+02
2.740000e-06	3.739440e-06	1.964417e-09	2.644370e+01	1.355411e+02
2.750000e-06	3.772206e-06	1.975626e-09	2.667541e+01	1.365761e+02
2.760000e-06	3.804637e-06	1.991050e-09	2.690474e+01	1.375776e+02
2.770000e-06	3.836815e-06	2.007397e-09	2.713229e+01	1.385463e+02
2.780000e-06	3.868896e-06	2.020398e-09	2.735916e+01	1.394825e+02
2.790000e-06	3.900848e-06	2.031599e-09	2.758510e+01	1.403869e+02
2.800000e-06	3.932634e-06	2.046846e-09	2.780988e+01	1.412600e+02
2.810000e-06	3.964233e-06	2.066006e-09	2.803334e+01	1.421023e+02
2.820000e-06	3.995614e-06	2.078272e-09	2.825525e+01	1.429145e+02
2.830000e-06	4.026672e-06	2.083131e-09	2.847488e+01	1.436970e+02
2.840000e-06	4.057368e-06	2.090286e-09	2.869194e+01	1.444505e+02
2.850000e-06	4.087752e-06	2.103553e-09	2.890681e+01	1.451759e+02
2.860000e-06	4.117901e-06	2.117631e-09	2.912001e+01	1.458737e+02
2.870000e-06	4.147827e-06	2.129862e-09	2.933163e+01	1.465450e+02
2.880000e-06	4.177522e-06	2.141848e-09	2.954162e+01	1.471906e+02
2.890000e-06	4.206958e-06	2.152612e-09	2.974978e+01	1.478114e+02
2.900000e-06	4.236013e-06	2.159350e-09	2.995524e+01	1.484084e+02
