# Temperatura_=_20.15
# Concentracion g/m^3_=_4090.0
# C_Vs_to_Am_M_A/Vsm_=_65563218390.804596
# pendiente_HvsI_1/m_=_3716.3
# ordenada_HvsI_A/m_=_1297.0
# frecuencia_Hz_=_135080.12241027085

Tiempo_(s)	Campo_(V.s)	Magnetizacion_(V.s)	Campo_(kA/m)	Magnetizacion_(A/m)
0.000000e+00	-5.387956e-06	-2.301054e-09	-3.839073e+01	-1.525414e+02
1.000000e-08	-5.388048e-06	-2.299407e-09	-3.839139e+01	-1.524168e+02
2.000000e-08	-5.387955e-06	-2.300758e-09	-3.839073e+01	-1.522924e+02
3.000000e-08	-5.387665e-06	-2.302173e-09	-3.838866e+01	-1.521698e+02
4.000000e-08	-5.387012e-06	-2.304864e-09	-3.838401e+01	-1.520509e+02
5.000000e-08	-5.385796e-06	-2.313061e-09	-3.837534e+01	-1.519372e+02
6.000000e-08	-5.383946e-06	-2.324053e-09	-3.836216e+01	-1.518305e+02
7.000000e-08	-5.381484e-06	-2.290113e-09	-3.834462e+01	-1.517323e+02
8.000000e-08	-5.378350e-06	-2.215071e-09	-3.832229e+01	-1.516440e+02
9.000000e-08	-5.374617e-06	-2.269615e-09	-3.829569e+01	-1.515669e+02
1.000000e-07	-5.370441e-06	-2.452669e-09	-3.826593e+01	-1.515021e+02
1.100000e-07	-5.366002e-06	-2.415244e-09	-3.823430e+01	-1.514504e+02
1.200000e-07	-5.361479e-06	-2.194814e-09	-3.820208e+01	-1.514126e+02
1.300000e-07	-5.356818e-06	-2.186254e-09	-3.816887e+01	-1.513891e+02
1.400000e-07	-5.351718e-06	-2.450648e-09	-3.813253e+01	-1.513800e+02
1.500000e-07	-5.346072e-06	-2.440696e-09	-3.809230e+01	-1.513853e+02
1.600000e-07	-5.340113e-06	-2.121414e-09	-3.804984e+01	-1.514046e+02
1.700000e-07	-5.333975e-06	-2.118108e-09	-3.800610e+01	-1.514372e+02
1.800000e-07	-5.327400e-06	-2.451530e-09	-3.795926e+01	-1.514824e+02
1.900000e-07	-5.320183e-06	-2.485273e-09	-3.790784e+01	-1.515390e+02
2.000000e-07	-5.312793e-06	-2.243427e-09	-3.785518e+01	-1.516057e+02
2.100000e-07	-5.305303e-06	-2.272650e-09	-3.780181e+01	-1.516809e+02
2.200000e-07	-5.297482e-06	-2.466995e-09	-3.774608e+01	-1.517629e+02
2.300000e-07	-5.289386e-06	-2.370375e-09	-3.768840e+01	-1.518499e+02
2.400000e-07	-5.280926e-06	-2.230639e-09	-3.762811e+01	-1.519398e+02
2.500000e-07	-5.271953e-06	-2.376079e-09	-3.756418e+01	-1.520305e+02
2.600000e-07	-5.262393e-06	-2.462465e-09	-3.749606e+01	-1.521200e+02
2.700000e-07	-5.252254e-06	-2.319829e-09	-3.742382e+01	-1.522061e+02
2.800000e-07	-5.241512e-06	-2.331926e-09	-3.734728e+01	-1.522866e+02
2.900000e-07	-5.230205e-06	-2.511116e-09	-3.726671e+01	-1.523594e+02
3.000000e-07	-5.218518e-06	-2.414832e-09	-3.718344e+01	-1.524226e+02
3.100000e-07	-5.206513e-06	-2.239369e-09	-3.709790e+01	-1.524743e+02
3.200000e-07	-5.194031e-06	-2.365226e-09	-3.700896e+01	-1.525127e+02
3.300000e-07	-5.181110e-06	-2.503969e-09	-3.691690e+01	-1.525364e+02
3.400000e-07	-5.167861e-06	-2.357391e-09	-3.682250e+01	-1.525439e+02
3.500000e-07	-5.154260e-06	-2.311638e-09	-3.672559e+01	-1.525342e+02
3.600000e-07	-5.140239e-06	-2.433521e-09	-3.662568e+01	-1.525064e+02
3.700000e-07	-5.125828e-06	-2.421877e-09	-3.652299e+01	-1.524599e+02
3.800000e-07	-5.110940e-06	-2.327868e-09	-3.641692e+01	-1.523942e+02
3.900000e-07	-5.095400e-06	-2.368770e-09	-3.630619e+01	-1.523093e+02
4.000000e-07	-5.079267e-06	-2.364715e-09	-3.619124e+01	-1.522053e+02
4.100000e-07	-5.062763e-06	-2.311916e-09	-3.607364e+01	-1.520826e+02
4.200000e-07	-5.045916e-06	-2.372375e-09	-3.595360e+01	-1.519417e+02
4.300000e-07	-5.028722e-06	-2.414741e-09	-3.583109e+01	-1.517834e+02
4.400000e-07	-5.011387e-06	-2.320655e-09	-3.570757e+01	-1.516088e+02
4.500000e-07	-4.993851e-06	-2.306749e-09	-3.558262e+01	-1.514190e+02
4.600000e-07	-4.975896e-06	-2.388081e-09	-3.545469e+01	-1.512154e+02
4.700000e-07	-4.957522e-06	-2.365267e-09	-3.532377e+01	-1.509993e+02
4.800000e-07	-4.938691e-06	-2.297343e-09	-3.518959e+01	-1.507721e+02
4.900000e-07	-4.919422e-06	-2.311154e-09	-3.505230e+01	-1.505356e+02
5.000000e-07	-4.899887e-06	-2.342607e-09	-3.491310e+01	-1.502911e+02
5.100000e-07	-4.880116e-06	-2.340104e-09	-3.477223e+01	-1.500404e+02
5.200000e-07	-4.860146e-06	-2.327039e-09	-3.462994e+01	-1.497847e+02
5.300000e-07	-4.840018e-06	-2.290785e-09	-3.448652e+01	-1.495256e+02
5.400000e-07	-4.819635e-06	-2.290647e-09	-3.434128e+01	-1.492645e+02
5.500000e-07	-4.798803e-06	-2.326411e-09	-3.419285e+01	-1.490024e+02
5.600000e-07	-4.777540e-06	-2.313088e-09	-3.404135e+01	-1.487405e+02
5.700000e-07	-4.756031e-06	-2.264150e-09	-3.388809e+01	-1.484797e+02
5.800000e-07	-4.734208e-06	-2.275605e-09	-3.373259e+01	-1.482207e+02
5.900000e-07	-4.712111e-06	-2.301387e-09	-3.357514e+01	-1.479642e+02
6.000000e-07	-4.689715e-06	-2.292910e-09	-3.341557e+01	-1.477104e+02
6.100000e-07	-4.666920e-06	-2.264296e-09	-3.325314e+01	-1.474596e+02
6.200000e-07	-4.643784e-06	-2.244549e-09	-3.308830e+01	-1.472118e+02
6.300000e-07	-4.620251e-06	-2.248083e-09	-3.292062e+01	-1.469669e+02
6.400000e-07	-4.596465e-06	-2.274506e-09	-3.275113e+01	-1.467246e+02
6.500000e-07	-4.572544e-06	-2.260737e-09	-3.258069e+01	-1.464845e+02
6.600000e-07	-4.548447e-06	-2.228230e-09	-3.240899e+01	-1.462460e+02
6.700000e-07	-4.524146e-06	-2.240248e-09	-3.223584e+01	-1.460084e+02
6.800000e-07	-4.499484e-06	-2.270222e-09	-3.206012e+01	-1.457710e+02
6.900000e-07	-4.474303e-06	-2.252436e-09	-3.188069e+01	-1.455329e+02
7.000000e-07	-4.448495e-06	-2.219069e-09	-3.169680e+01	-1.452934e+02
7.100000e-07	-4.422151e-06	-2.213244e-09	-3.150909e+01	-1.450515e+02
7.200000e-07	-4.395395e-06	-2.227901e-09	-3.131845e+01	-1.448064e+02
7.300000e-07	-4.368233e-06	-2.228996e-09	-3.112492e+01	-1.445572e+02
7.400000e-07	-4.340718e-06	-2.209118e-09	-3.092886e+01	-1.443033e+02
7.500000e-07	-4.312951e-06	-2.199586e-09	-3.073102e+01	-1.440437e+02
7.600000e-07	-4.285058e-06	-2.218918e-09	-3.053227e+01	-1.437780e+02
7.700000e-07	-4.257000e-06	-2.224112e-09	-3.033235e+01	-1.435056e+02
7.800000e-07	-4.228681e-06	-2.194606e-09	-3.013057e+01	-1.432260e+02
7.900000e-07	-4.200063e-06	-2.171010e-09	-2.992666e+01	-1.429390e+02
8.000000e-07	-4.171142e-06	-2.174421e-09	-2.972059e+01	-1.426444e+02
8.100000e-07	-4.141876e-06	-2.184054e-09	-2.951206e+01	-1.423420e+02
8.200000e-07	-4.112273e-06	-2.177842e-09	-2.930113e+01	-1.420320e+02
8.300000e-07	-4.082349e-06	-2.166717e-09	-2.908791e+01	-1.417146e+02
8.400000e-07	-4.052224e-06	-2.166989e-09	-2.887326e+01	-1.413900e+02
8.500000e-07	-4.021942e-06	-2.176838e-09	-2.865749e+01	-1.410585e+02
8.600000e-07	-3.991381e-06	-2.163650e-09	-2.843973e+01	-1.407208e+02
8.700000e-07	-3.960551e-06	-2.134611e-09	-2.822007e+01	-1.403773e+02
8.800000e-07	-3.929463e-06	-2.118893e-09	-2.799855e+01	-1.400285e+02
8.900000e-07	-3.898162e-06	-2.128450e-09	-2.777552e+01	-1.396752e+02
9.000000e-07	-3.866541e-06	-2.135415e-09	-2.755021e+01	-1.393181e+02
9.100000e-07	-3.834707e-06	-2.126772e-09	-2.732339e+01	-1.389577e+02
9.200000e-07	-3.802838e-06	-2.114898e-09	-2.709631e+01	-1.385947e+02
9.300000e-07	-3.770771e-06	-2.114483e-09	-2.686783e+01	-1.382298e+02
9.400000e-07	-3.738383e-06	-2.109772e-09	-2.663705e+01	-1.378634e+02
9.500000e-07	-3.705633e-06	-2.090690e-09	-2.640370e+01	-1.374962e+02
9.600000e-07	-3.672560e-06	-2.071030e-09	-2.616805e+01	-1.371285e+02
9.700000e-07	-3.639163e-06	-2.071141e-09	-2.593008e+01	-1.367608e+02
9.800000e-07	-3.605421e-06	-2.079751e-09	-2.568966e+01	-1.363931e+02
9.900000e-07	-3.571233e-06	-2.077396e-09	-2.544606e+01	-1.360258e+02
1.000000e-06	-3.536467e-06	-2.065742e-09	-2.519835e+01	-1.356588e+02
1.010000e-06	-3.501282e-06	-2.060620e-09	-2.494764e+01	-1.352921e+02
1.020000e-06	-3.465850e-06	-2.055143e-09	-2.469518e+01	-1.349255e+02
1.030000e-06	-3.430206e-06	-2.038953e-09	-2.444120e+01	-1.345588e+02
1.040000e-06	-3.394438e-06	-2.021596e-09	-2.418635e+01	-1.341915e+02
1.050000e-06	-3.358589e-06	-2.016690e-09	-2.393091e+01	-1.338232e+02
1.060000e-06	-3.322626e-06	-2.021168e-09	-2.367466e+01	-1.334534e+02
1.070000e-06	-3.286506e-06	-2.019645e-09	-2.341730e+01	-1.330815e+02
1.080000e-06	-3.250219e-06	-2.009193e-09	-2.315874e+01	-1.327068e+02
1.090000e-06	-3.213712e-06	-1.997486e-09	-2.289862e+01	-1.323286e+02
1.100000e-06	-3.176910e-06	-1.991822e-09	-2.263640e+01	-1.319461e+02
1.110000e-06	-3.139808e-06	-1.984331e-09	-2.237203e+01	-1.315586e+02
1.120000e-06	-3.102514e-06	-1.971060e-09	-2.210630e+01	-1.311654e+02
1.130000e-06	-3.065024e-06	-1.958183e-09	-2.183918e+01	-1.307657e+02
1.140000e-06	-3.027216e-06	-1.955691e-09	-2.156979e+01	-1.303588e+02
1.150000e-06	-2.989173e-06	-1.954493e-09	-2.129871e+01	-1.299440e+02
1.160000e-06	-2.951031e-06	-1.944972e-09	-2.102694e+01	-1.295207e+02
1.170000e-06	-2.912780e-06	-1.930994e-09	-2.075439e+01	-1.290883e+02
1.180000e-06	-2.874337e-06	-1.922895e-09	-2.048048e+01	-1.286463e+02
1.190000e-06	-2.835642e-06	-1.919189e-09	-2.020477e+01	-1.281941e+02
1.200000e-06	-2.796632e-06	-1.910947e-09	-1.992681e+01	-1.277316e+02
1.210000e-06	-2.757421e-06	-1.897671e-09	-1.964742e+01	-1.272583e+02
1.220000e-06	-2.718104e-06	-1.890232e-09	-1.936727e+01	-1.267739e+02
1.230000e-06	-2.678621e-06	-1.887391e-09	-1.908595e+01	-1.262785e+02
1.240000e-06	-2.638995e-06	-1.881213e-09	-1.880360e+01	-1.257718e+02
1.250000e-06	-2.599242e-06	-1.871042e-09	-1.852034e+01	-1.252538e+02
1.260000e-06	-2.559380e-06	-1.860609e-09	-1.823632e+01	-1.247245e+02
1.270000e-06	-2.519432e-06	-1.849735e-09	-1.795167e+01	-1.241841e+02
1.280000e-06	-2.479331e-06	-1.841327e-09	-1.766594e+01	-1.236326e+02
1.290000e-06	-2.439139e-06	-1.833884e-09	-1.737957e+01	-1.230701e+02
1.300000e-06	-2.398849e-06	-1.824814e-09	-1.709249e+01	-1.224969e+02
1.310000e-06	-2.358366e-06	-1.814211e-09	-1.680404e+01	-1.219130e+02
1.320000e-06	-2.317644e-06	-1.802981e-09	-1.651388e+01	-1.213187e+02
1.330000e-06	-2.276705e-06	-1.792387e-09	-1.622218e+01	-1.207140e+02
1.340000e-06	-2.235558e-06	-1.782902e-09	-1.592900e+01	-1.200992e+02
1.350000e-06	-2.194125e-06	-1.772373e-09	-1.563377e+01	-1.194743e+02
1.360000e-06	-2.152253e-06	-1.760100e-09	-1.533542e+01	-1.188394e+02
1.370000e-06	-2.110002e-06	-1.748904e-09	-1.503437e+01	-1.181946e+02
1.380000e-06	-2.067584e-06	-1.739601e-09	-1.473213e+01	-1.175397e+02
1.390000e-06	-2.024968e-06	-1.731562e-09	-1.442848e+01	-1.168749e+02
1.400000e-06	-1.982143e-06	-1.723264e-09	-1.412334e+01	-1.161998e+02
1.410000e-06	-1.939143e-06	-1.713765e-09	-1.381695e+01	-1.155144e+02
1.420000e-06	-1.895901e-06	-1.703926e-09	-1.350884e+01	-1.148184e+02
1.430000e-06	-1.852453e-06	-1.693402e-09	-1.319926e+01	-1.141115e+02
1.440000e-06	-1.808903e-06	-1.677850e-09	-1.288895e+01	-1.133934e+02
1.450000e-06	-1.765243e-06	-1.663555e-09	-1.257786e+01	-1.126637e+02
1.460000e-06	-1.721493e-06	-1.654159e-09	-1.226613e+01	-1.119218e+02
1.470000e-06	-1.677668e-06	-1.645096e-09	-1.195387e+01	-1.111674e+02
1.480000e-06	-1.633841e-06	-1.632670e-09	-1.164158e+01	-1.103998e+02
1.490000e-06	-1.590012e-06	-1.620739e-09	-1.132929e+01	-1.096185e+02
1.500000e-06	-1.546088e-06	-1.611272e-09	-1.101632e+01	-1.088229e+02
1.510000e-06	-1.502035e-06	-1.602447e-09	-1.070243e+01	-1.080122e+02
1.520000e-06	-1.457890e-06	-1.589025e-09	-1.038789e+01	-1.071858e+02
1.530000e-06	-1.413732e-06	-1.573205e-09	-1.007325e+01	-1.063430e+02
1.540000e-06	-1.369493e-06	-1.561682e-09	-9.758029e+00	-1.054830e+02
1.550000e-06	-1.325190e-06	-1.550564e-09	-9.442357e+00	-1.046050e+02
1.560000e-06	-1.280840e-06	-1.534567e-09	-9.126353e+00	-1.037083e+02
1.570000e-06	-1.236384e-06	-1.517656e-09	-8.809593e+00	-1.027920e+02
1.580000e-06	-1.191846e-06	-1.505211e-09	-8.492245e+00	-1.018553e+02
1.590000e-06	-1.147208e-06	-1.497023e-09	-8.174184e+00	-1.008973e+02
1.600000e-06	-1.102536e-06	-1.484231e-09	-7.855887e+00	-9.991715e+01
1.610000e-06	-1.057828e-06	-1.463159e-09	-7.537327e+00	-9.891389e+01
1.620000e-06	-1.013030e-06	-1.442752e-09	-7.218127e+00	-9.788657e+01
1.630000e-06	-9.681243e-07	-1.427644e-09	-6.898163e+00	-9.683422e+01
1.640000e-06	-9.230718e-07	-1.413807e-09	-6.577152e+00	-9.575582e+01
1.650000e-06	-8.779362e-07	-1.397201e-09	-6.255548e+00	-9.465033e+01
1.660000e-06	-8.327878e-07	-1.383265e-09	-5.933852e+00	-9.351666e+01
1.670000e-06	-7.875542e-07	-1.373755e-09	-5.611550e+00	-9.235368e+01
1.680000e-06	-7.422310e-07	-1.359808e-09	-5.288609e+00	-9.116024e+01
1.690000e-06	-6.969644e-07	-1.335299e-09	-4.966072e+00	-8.993515e+01
1.700000e-06	-6.516869e-07	-1.308110e-09	-4.643456e+00	-8.867716e+01
1.710000e-06	-6.062193e-07	-1.286043e-09	-4.319487e+00	-8.738502e+01
1.720000e-06	-5.605613e-07	-1.267666e-09	-3.994160e+00	-8.605745e+01
1.730000e-06	-5.149246e-07	-1.246768e-09	-3.668985e+00	-8.469313e+01
1.740000e-06	-4.693700e-07	-1.224283e-09	-3.344396e+00	-8.329073e+01
1.750000e-06	-4.237479e-07	-1.208199e-09	-3.019326e+00	-8.184893e+01
1.760000e-06	-3.781156e-07	-1.193306e-09	-2.694182e+00	-8.036640e+01
1.770000e-06	-3.325084e-07	-1.168063e-09	-2.369218e+00	-7.884182e+01
1.780000e-06	-2.868773e-07	-1.133935e-09	-2.044083e+00	-7.727389e+01
1.790000e-06	-2.412977e-07	-1.102206e-09	-1.719316e+00	-7.566137e+01
1.800000e-06	-1.957351e-07	-1.078172e-09	-1.394669e+00	-7.400304e+01
1.810000e-06	-1.500842e-07	-1.055061e-09	-1.069393e+00	-7.229777e+01
1.820000e-06	-1.043875e-07	-1.030391e-09	-7.437906e-01	-7.054449e+01
1.830000e-06	-5.867698e-08	-1.007050e-09	-4.180903e-01	-6.874224e+01
1.840000e-06	-1.298058e-08	-9.844235e-10	-9.249039e-02	-6.689014e+01
1.850000e-06	3.272813e-08	-9.563905e-10	2.331973e-01	-6.498745e+01
1.860000e-06	7.847539e-08	-9.192782e-10	5.591597e-01	-6.303355e+01
1.870000e-06	1.242220e-07	-8.800838e-10	8.851171e-01	-6.102798e+01
1.880000e-06	1.698759e-07	-8.496429e-10	1.210414e+00	-5.897042e+01
1.890000e-06	2.155157e-07	-8.228346e-10	1.535611e+00	-5.686072e+01
1.900000e-06	2.612163e-07	-7.934001e-10	1.861241e+00	-5.469891e+01
1.910000e-06	3.069219e-07	-7.622427e-10	2.186906e+00	-5.248520e+01
1.920000e-06	3.525856e-07	-7.341056e-10	2.512274e+00	-5.021996e+01
1.930000e-06	3.981915e-07	-7.036831e-10	2.837229e+00	-4.790379e+01
1.940000e-06	4.438649e-07	-6.632478e-10	3.162665e+00	-4.553744e+01
1.950000e-06	4.895104e-07	-6.178085e-10	3.487903e+00	-4.312188e+01
1.960000e-06	5.350295e-07	-5.756808e-10	3.812239e+00	-4.065823e+01
1.970000e-06	5.804793e-07	-5.386228e-10	4.136082e+00	-3.814783e+01
1.980000e-06	6.259615e-07	-5.019945e-10	4.460155e+00	-3.559215e+01
1.990000e-06	6.714475e-07	-4.679411e-10	4.784257e+00	-3.299287e+01
2.000000e-06	7.168460e-07	-4.374148e-10	5.107733e+00	-3.035180e+01
2.010000e-06	7.621608e-07	-4.059590e-10	5.430615e+00	-2.767090e+01
2.020000e-06	8.073581e-07	-3.662329e-10	5.752659e+00	-2.495228e+01
2.030000e-06	8.524388e-07	-3.197884e-10	6.073871e+00	-2.219814e+01
2.040000e-06	8.975087e-07	-2.729138e-10	6.395008e+00	-1.941081e+01
2.050000e-06	9.426012e-07	-2.295350e-10	6.716304e+00	-1.659272e+01
2.060000e-06	9.876066e-07	-1.890838e-10	7.036981e+00	-1.374637e+01
2.070000e-06	1.032442e-06	-1.515006e-10	7.356447e+00	-1.087434e+01
2.080000e-06	1.077138e-06	-1.145402e-10	7.674917e+00	-7.979237e+00
2.090000e-06	1.121729e-06	-7.600226e-11	7.992642e+00	-5.063736e+00
2.100000e-06	1.166250e-06	-3.442630e-11	8.309867e+00	-2.130531e+00
2.110000e-06	1.210735e-06	1.081117e-11	8.626837e+00	8.176688e-01
2.120000e-06	1.255107e-06	5.827913e-11	8.942997e+00	3.778143e+00
2.130000e-06	1.299383e-06	1.033232e-10	9.258475e+00	6.748178e+00
2.140000e-06	1.343602e-06	1.449856e-10	9.573550e+00	9.725069e+00
2.150000e-06	1.387695e-06	1.851838e-10	9.887726e+00	1.270613e+01
2.160000e-06	1.431697e-06	2.256258e-10	1.020125e+01	1.568871e+01
2.170000e-06	1.475721e-06	2.653227e-10	1.051493e+01	1.867016e+01
2.180000e-06	1.519726e-06	3.095090e-10	1.082849e+01	2.164791e+01
2.190000e-06	1.563642e-06	3.577726e-10	1.114140e+01	2.461939e+01
2.200000e-06	1.607490e-06	4.065173e-10	1.145383e+01	2.758210e+01
2.210000e-06	1.651312e-06	4.537601e-10	1.176607e+01	3.053356e+01
2.220000e-06	1.695121e-06	4.949780e-10	1.207823e+01	3.347134e+01
2.230000e-06	1.738893e-06	5.315249e-10	1.239011e+01	3.639309e+01
2.240000e-06	1.782591e-06	5.633607e-10	1.270147e+01	3.929646e+01
2.250000e-06	1.826240e-06	5.960656e-10	1.301248e+01	4.217917e+01
2.260000e-06	1.869812e-06	6.357062e-10	1.332295e+01	4.503902e+01
2.270000e-06	1.913126e-06	6.862884e-10	1.363158e+01	4.787381e+01
2.280000e-06	1.956191e-06	7.397303e-10	1.393842e+01	5.068143e+01
2.290000e-06	1.999076e-06	7.872757e-10	1.424399e+01	5.345982e+01
2.300000e-06	2.041865e-06	8.280564e-10	1.454888e+01	5.620699e+01
2.310000e-06	2.084430e-06	8.616320e-10	1.485217e+01	5.892100e+01
2.320000e-06	2.126640e-06	8.894321e-10	1.515292e+01	6.159997e+01
2.330000e-06	2.168546e-06	9.170411e-10	1.545151e+01	6.424213e+01
2.340000e-06	2.210143e-06	9.493846e-10	1.574790e+01	6.684575e+01
2.350000e-06	2.251447e-06	9.915674e-10	1.604221e+01	6.940922e+01
2.360000e-06	2.292550e-06	1.040521e-09	1.633508e+01	7.193098e+01
2.370000e-06	2.333408e-06	1.088126e-09	1.662620e+01	7.440961e+01
2.380000e-06	2.373944e-06	1.128958e-09	1.691503e+01	7.684377e+01
2.390000e-06	2.414220e-06	1.161632e-09	1.720201e+01	7.923223e+01
2.400000e-06	2.454372e-06	1.186698e-09	1.748810e+01	8.157388e+01
2.410000e-06	2.494507e-06	1.207249e-09	1.777408e+01	8.386774e+01
2.420000e-06	2.534567e-06	1.229327e-09	1.805952e+01	8.611294e+01
2.430000e-06	2.574512e-06	1.260400e-09	1.834414e+01	8.830877e+01
2.440000e-06	2.614311e-06	1.299602e-09	1.862772e+01	9.045462e+01
2.450000e-06	2.653985e-06	1.339889e-09	1.891041e+01	9.255004e+01
2.460000e-06	2.693523e-06	1.377519e-09	1.919213e+01	9.459472e+01
2.470000e-06	2.733000e-06	1.409706e-09	1.947341e+01	9.658847e+01
2.480000e-06	2.772342e-06	1.436575e-09	1.975374e+01	9.853126e+01
2.490000e-06	2.811293e-06	1.457309e-09	2.003127e+01	1.004232e+02
2.500000e-06	2.849955e-06	1.475679e-09	2.030675e+01	1.022644e+02
2.510000e-06	2.888528e-06	1.498133e-09	2.058159e+01	1.040554e+02
2.520000e-06	2.926937e-06	1.527031e-09	2.085527e+01	1.057965e+02
2.530000e-06	2.965122e-06	1.557509e-09	2.112735e+01	1.074883e+02
2.540000e-06	3.003112e-06	1.586747e-09	2.139804e+01	1.091316e+02
2.550000e-06	3.040908e-06	1.615493e-09	2.166734e+01	1.107269e+02
2.560000e-06	3.078534e-06	1.641113e-09	2.193544e+01	1.122753e+02
2.570000e-06	3.115944e-06	1.659480e-09	2.220200e+01	1.137775e+02
2.580000e-06	3.153036e-06	1.673504e-09	2.246629e+01	1.152346e+02
2.590000e-06	3.189925e-06	1.687158e-09	2.272913e+01	1.166475e+02
2.600000e-06	3.226587e-06	1.704228e-09	2.299036e+01	1.180173e+02
2.610000e-06	3.262976e-06	1.725525e-09	2.324964e+01	1.193449e+02
2.620000e-06	3.299142e-06	1.748250e-09	2.350733e+01	1.206315e+02
2.630000e-06	3.335128e-06	1.768717e-09	2.376375e+01	1.218780e+02
2.640000e-06	3.371032e-06	1.787881e-09	2.401957e+01	1.230855e+02
2.650000e-06	3.406847e-06	1.805425e-09	2.427476e+01	1.242550e+02
2.660000e-06	3.442559e-06	1.819468e-09	2.452922e+01	1.253874e+02
2.670000e-06	3.478086e-06	1.832416e-09	2.478236e+01	1.264837e+02
2.680000e-06	3.513393e-06	1.847684e-09	2.503394e+01	1.275448e+02
2.690000e-06	3.548374e-06	1.863129e-09	2.528319e+01	1.285715e+02
2.700000e-06	3.582874e-06	1.876017e-09	2.552901e+01	1.295646e+02
2.710000e-06	3.616872e-06	1.888876e-09	2.577125e+01	1.305249e+02
2.720000e-06	3.650497e-06	1.905199e-09	2.601084e+01	1.314531e+02
2.730000e-06	3.683753e-06	1.922168e-09	2.624780e+01	1.323498e+02
2.740000e-06	3.716490e-06	1.936254e-09	2.648106e+01	1.332157e+02
2.750000e-06	3.748906e-06	1.948811e-09	2.671203e+01	1.340515e+02
2.760000e-06	3.781195e-06	1.963985e-09	2.694210e+01	1.348576e+02
2.770000e-06	3.813271e-06	1.977334e-09	2.717065e+01	1.356348e+02
2.780000e-06	3.845126e-06	1.984613e-09	2.739762e+01	1.363834e+02
2.790000e-06	3.876852e-06	1.990427e-09	2.762369e+01	1.371042e+02
2.800000e-06	3.908423e-06	1.997755e-09	2.784864e+01	1.377977e+02
2.810000e-06	3.939737e-06	2.009236e-09	2.807176e+01	1.384643e+02
2.820000e-06	3.970801e-06	2.018924e-09	2.829310e+01	1.391049e+02
2.830000e-06	4.001546e-06	2.025690e-09	2.851217e+01	1.397199e+02
2.840000e-06	4.031963e-06	2.034162e-09	2.872889e+01	1.403100e+02
2.850000e-06	4.062125e-06	2.047797e-09	2.894381e+01	1.408759e+02
2.860000e-06	4.092034e-06	2.058856e-09	2.915692e+01	1.414184e+02
2.870000e-06	4.121661e-06	2.061155e-09	2.936802e+01	1.419381e+02
2.880000e-06	4.151009e-06	2.059091e-09	2.957713e+01	1.424358e+02
2.890000e-06	4.180095e-06	2.061976e-09	2.978438e+01	1.429124e+02
2.900000e-06	4.208826e-06	2.069504e-09	2.998910e+01	1.433687e+02
