# Temperatura_=_-1.44
# Concentracion g/m^3_=_4090.0
# C_Vs_to_Am_M_A/Vsm_=_65563218390.804596
# pendiente_HvsI_1/m_=_3716.3
# ordenada_HvsI_A/m_=_1297.0
# frecuencia_Hz_=_135067.34472021757

Tiempo_(s)	Campo_(V.s)	Magnetizacion_(V.s)	Campo_(kA/m)	Magnetizacion_(A/m)
0.000000e+00	-5.430839e-06	-2.512957e-09	-3.840301e+01	-1.623099e+02
1.000000e-08	-5.430938e-06	-2.511597e-09	-3.840372e+01	-1.621773e+02
2.000000e-08	-5.430846e-06	-2.510068e-09	-3.840307e+01	-1.620441e+02
3.000000e-08	-5.430555e-06	-2.508308e-09	-3.840100e+01	-1.619127e+02
4.000000e-08	-5.429894e-06	-2.508697e-09	-3.839633e+01	-1.617856e+02
5.000000e-08	-5.428694e-06	-2.511451e-09	-3.838785e+01	-1.616653e+02
6.000000e-08	-5.426944e-06	-2.515450e-09	-3.837547e+01	-1.615541e+02
7.000000e-08	-5.424608e-06	-2.504108e-09	-3.835895e+01	-1.614544e+02
8.000000e-08	-5.421587e-06	-2.486987e-09	-3.833759e+01	-1.613682e+02
9.000000e-08	-5.418038e-06	-2.504408e-09	-3.831250e+01	-1.612975e+02
1.000000e-07	-5.414024e-06	-2.558268e-09	-3.828411e+01	-1.612439e+02
1.100000e-07	-5.409654e-06	-2.541387e-09	-3.825321e+01	-1.612089e+02
1.200000e-07	-5.405223e-06	-2.474506e-09	-3.822188e+01	-1.611935e+02
1.300000e-07	-5.400557e-06	-2.449565e-09	-3.818888e+01	-1.611985e+02
1.400000e-07	-5.395420e-06	-2.532628e-09	-3.815256e+01	-1.612243e+02
1.500000e-07	-5.389885e-06	-2.534864e-09	-3.811342e+01	-1.612710e+02
1.600000e-07	-5.384080e-06	-2.456172e-09	-3.807237e+01	-1.613382e+02
1.700000e-07	-5.377883e-06	-2.430277e-09	-3.802855e+01	-1.614252e+02
1.800000e-07	-5.371184e-06	-2.525686e-09	-3.798118e+01	-1.615311e+02
1.900000e-07	-5.364138e-06	-2.551305e-09	-3.793135e+01	-1.616544e+02
2.000000e-07	-5.356860e-06	-2.483791e-09	-3.787989e+01	-1.617934e+02
2.100000e-07	-5.349328e-06	-2.461538e-09	-3.782663e+01	-1.619462e+02
2.200000e-07	-5.341544e-06	-2.506549e-09	-3.777159e+01	-1.621106e+02
2.300000e-07	-5.333515e-06	-2.513123e-09	-3.771481e+01	-1.622841e+02
2.400000e-07	-5.325139e-06	-2.476556e-09	-3.765558e+01	-1.624641e+02
2.500000e-07	-5.316213e-06	-2.507984e-09	-3.759246e+01	-1.626478e+02
2.600000e-07	-5.306511e-06	-2.534087e-09	-3.752386e+01	-1.628324e+02
2.700000e-07	-5.296111e-06	-2.523558e-09	-3.745031e+01	-1.630151e+02
2.800000e-07	-5.285205e-06	-2.517808e-09	-3.737320e+01	-1.631930e+02
2.900000e-07	-5.273898e-06	-2.556050e-09	-3.729324e+01	-1.633633e+02
3.000000e-07	-5.262214e-06	-2.536158e-09	-3.721062e+01	-1.635233e+02
3.100000e-07	-5.250110e-06	-2.512078e-09	-3.712503e+01	-1.636707e+02
3.200000e-07	-5.237595e-06	-2.533542e-09	-3.703653e+01	-1.638029e+02
3.300000e-07	-5.224730e-06	-2.577122e-09	-3.694556e+01	-1.639180e+02
3.400000e-07	-5.211470e-06	-2.542678e-09	-3.685180e+01	-1.640142e+02
3.500000e-07	-5.197777e-06	-2.527808e-09	-3.675497e+01	-1.640898e+02
3.600000e-07	-5.183749e-06	-2.540894e-09	-3.665577e+01	-1.641437e+02
3.700000e-07	-5.169414e-06	-2.553628e-09	-3.655441e+01	-1.641749e+02
3.800000e-07	-5.154581e-06	-2.524809e-09	-3.644951e+01	-1.641830e+02
3.900000e-07	-5.139142e-06	-2.516157e-09	-3.634035e+01	-1.641675e+02
4.000000e-07	-5.123145e-06	-2.510947e-09	-3.622723e+01	-1.641287e+02
4.100000e-07	-5.106681e-06	-2.511782e-09	-3.611080e+01	-1.640668e+02
4.200000e-07	-5.089816e-06	-2.517430e-09	-3.599155e+01	-1.639826e+02
4.300000e-07	-5.072641e-06	-2.516500e-09	-3.587010e+01	-1.638771e+02
4.400000e-07	-5.055226e-06	-2.501083e-09	-3.574695e+01	-1.637513e+02
4.500000e-07	-5.037536e-06	-2.501117e-09	-3.562186e+01	-1.636069e+02
4.600000e-07	-5.019447e-06	-2.513519e-09	-3.549394e+01	-1.634452e+02
4.700000e-07	-5.001035e-06	-2.502893e-09	-3.536375e+01	-1.632682e+02
4.800000e-07	-4.982266e-06	-2.485460e-09	-3.523103e+01	-1.630775e+02
4.900000e-07	-4.962984e-06	-2.479470e-09	-3.509468e+01	-1.628753e+02
5.000000e-07	-4.943322e-06	-2.489234e-09	-3.495564e+01	-1.626633e+02
5.100000e-07	-4.923439e-06	-2.491222e-09	-3.481505e+01	-1.624435e+02
5.200000e-07	-4.903411e-06	-2.491490e-09	-3.467342e+01	-1.622178e+02
5.300000e-07	-4.883203e-06	-2.480826e-09	-3.453053e+01	-1.619880e+02
5.400000e-07	-4.862743e-06	-2.485813e-09	-3.438585e+01	-1.617558e+02
5.500000e-07	-4.841868e-06	-2.490029e-09	-3.423823e+01	-1.615227e+02
5.600000e-07	-4.820629e-06	-2.481189e-09	-3.408805e+01	-1.612901e+02
5.700000e-07	-4.799080e-06	-2.455919e-09	-3.393567e+01	-1.610593e+02
5.800000e-07	-4.777183e-06	-2.454651e-09	-3.378083e+01	-1.608311e+02
5.900000e-07	-4.754928e-06	-2.460502e-09	-3.362345e+01	-1.606064e+02
6.000000e-07	-4.732315e-06	-2.460114e-09	-3.346355e+01	-1.603858e+02
6.100000e-07	-4.709434e-06	-2.449009e-09	-3.330175e+01	-1.601696e+02
6.200000e-07	-4.686247e-06	-2.451060e-09	-3.313779e+01	-1.599579e+02
6.300000e-07	-4.662673e-06	-2.452227e-09	-3.297109e+01	-1.597508e+02
6.400000e-07	-4.638870e-06	-2.452720e-09	-3.280278e+01	-1.595479e+02
6.500000e-07	-4.614865e-06	-2.437932e-09	-3.263303e+01	-1.593488e+02
6.600000e-07	-4.590619e-06	-2.420115e-09	-3.246158e+01	-1.591530e+02
6.700000e-07	-4.566031e-06	-2.411520e-09	-3.228771e+01	-1.589599e+02
6.800000e-07	-4.541044e-06	-2.419847e-09	-3.211102e+01	-1.587684e+02
6.900000e-07	-4.515509e-06	-2.420283e-09	-3.193046e+01	-1.585779e+02
7.000000e-07	-4.489293e-06	-2.416644e-09	-3.174508e+01	-1.583873e+02
7.100000e-07	-4.462602e-06	-2.419438e-09	-3.155634e+01	-1.581956e+02
7.200000e-07	-4.435487e-06	-2.425234e-09	-3.136460e+01	-1.580020e+02
7.300000e-07	-4.408017e-06	-2.417798e-09	-3.117035e+01	-1.578053e+02
7.400000e-07	-4.380305e-06	-2.399370e-09	-3.097439e+01	-1.576048e+02
7.500000e-07	-4.352459e-06	-2.386086e-09	-3.077748e+01	-1.573995e+02
7.600000e-07	-4.324517e-06	-2.383991e-09	-3.057990e+01	-1.571888e+02
7.700000e-07	-4.296359e-06	-2.387668e-09	-3.038078e+01	-1.569719e+02
7.800000e-07	-4.267953e-06	-2.385113e-09	-3.017992e+01	-1.567482e+02
7.900000e-07	-4.239214e-06	-2.383023e-09	-2.997670e+01	-1.565173e+02
8.000000e-07	-4.210123e-06	-2.383250e-09	-2.977098e+01	-1.562790e+02
8.100000e-07	-4.180704e-06	-2.383070e-09	-2.956295e+01	-1.560329e+02
8.200000e-07	-4.150965e-06	-2.371368e-09	-2.935266e+01	-1.557791e+02
8.300000e-07	-4.121075e-06	-2.358917e-09	-2.914130e+01	-1.555175e+02
8.400000e-07	-4.090981e-06	-2.349408e-09	-2.892850e+01	-1.552484e+02
8.500000e-07	-4.060532e-06	-2.347223e-09	-2.871319e+01	-1.549721e+02
8.600000e-07	-4.029703e-06	-2.340849e-09	-2.849518e+01	-1.546888e+02
8.700000e-07	-3.998614e-06	-2.333015e-09	-2.827534e+01	-1.543990e+02
8.800000e-07	-3.967346e-06	-2.325276e-09	-2.805424e+01	-1.541033e+02
8.900000e-07	-3.935910e-06	-2.324875e-09	-2.783195e+01	-1.538021e+02
9.000000e-07	-3.904279e-06	-2.322866e-09	-2.760827e+01	-1.534962e+02
9.100000e-07	-3.872402e-06	-2.318331e-09	-2.738286e+01	-1.531860e+02
9.200000e-07	-3.840337e-06	-2.310330e-09	-2.715612e+01	-1.528723e+02
9.300000e-07	-3.808092e-06	-2.305305e-09	-2.692811e+01	-1.525555e+02
9.400000e-07	-3.775541e-06	-2.296336e-09	-2.669793e+01	-1.522363e+02
9.500000e-07	-3.742615e-06	-2.285292e-09	-2.646510e+01	-1.519152e+02
9.600000e-07	-3.709311e-06	-2.276459e-09	-2.622960e+01	-1.515926e+02
9.700000e-07	-3.675589e-06	-2.277352e-09	-2.599114e+01	-1.512689e+02
9.800000e-07	-3.641347e-06	-2.279775e-09	-2.574901e+01	-1.509445e+02
9.900000e-07	-3.606613e-06	-2.275069e-09	-2.550339e+01	-1.506196e+02
1.000000e-06	-3.571565e-06	-2.264080e-09	-2.525556e+01	-1.502943e+02
1.010000e-06	-3.536204e-06	-2.256812e-09	-2.500551e+01	-1.499688e+02
1.020000e-06	-3.500565e-06	-2.249900e-09	-2.475349e+01	-1.496431e+02
1.030000e-06	-3.464775e-06	-2.238027e-09	-2.450041e+01	-1.493170e+02
1.040000e-06	-3.428863e-06	-2.227869e-09	-2.424647e+01	-1.489905e+02
1.050000e-06	-3.392847e-06	-2.224669e-09	-2.399179e+01	-1.486632e+02
1.060000e-06	-3.356721e-06	-2.226065e-09	-2.373633e+01	-1.483350e+02
1.070000e-06	-3.320328e-06	-2.225096e-09	-2.347899e+01	-1.480054e+02
1.080000e-06	-3.283648e-06	-2.219908e-09	-2.321962e+01	-1.476742e+02
1.090000e-06	-3.246797e-06	-2.210943e-09	-2.295903e+01	-1.473408e+02
1.100000e-06	-3.209680e-06	-2.203133e-09	-2.269656e+01	-1.470049e+02
1.110000e-06	-3.172224e-06	-2.194368e-09	-2.243171e+01	-1.466660e+02
1.120000e-06	-3.134540e-06	-2.185980e-09	-2.216523e+01	-1.463236e+02
1.130000e-06	-3.096707e-06	-2.178555e-09	-2.189770e+01	-1.459772e+02
1.140000e-06	-3.058684e-06	-2.175279e-09	-2.162883e+01	-1.456265e+02
1.150000e-06	-3.020522e-06	-2.170951e-09	-2.135897e+01	-1.452709e+02
1.160000e-06	-2.982208e-06	-2.163941e-09	-2.108805e+01	-1.449102e+02
1.170000e-06	-2.943651e-06	-2.155289e-09	-2.081540e+01	-1.445438e+02
1.180000e-06	-2.904775e-06	-2.148380e-09	-2.054050e+01	-1.441715e+02
1.190000e-06	-2.865595e-06	-2.140322e-09	-2.026344e+01	-1.437929e+02
1.200000e-06	-2.826286e-06	-2.131395e-09	-1.998548e+01	-1.434077e+02
1.210000e-06	-2.786893e-06	-2.122039e-09	-1.970692e+01	-1.430158e+02
1.220000e-06	-2.747331e-06	-2.118229e-09	-1.942716e+01	-1.426168e+02
1.230000e-06	-2.707589e-06	-2.115671e-09	-1.914613e+01	-1.422106e+02
1.240000e-06	-2.667754e-06	-2.110341e-09	-1.886445e+01	-1.417970e+02
1.250000e-06	-2.627813e-06	-2.102570e-09	-1.858202e+01	-1.413759e+02
1.260000e-06	-2.587729e-06	-2.096203e-09	-1.829857e+01	-1.409472e+02
1.270000e-06	-2.547496e-06	-2.087924e-09	-1.801407e+01	-1.405107e+02
1.280000e-06	-2.507191e-06	-2.077643e-09	-1.772907e+01	-1.400663e+02
1.290000e-06	-2.466779e-06	-2.068773e-09	-1.744330e+01	-1.396140e+02
1.300000e-06	-2.426139e-06	-2.061565e-09	-1.715593e+01	-1.391535e+02
1.310000e-06	-2.385248e-06	-2.053286e-09	-1.686677e+01	-1.386848e+02
1.320000e-06	-2.344152e-06	-2.043631e-09	-1.657617e+01	-1.382078e+02
1.330000e-06	-2.302902e-06	-2.033191e-09	-1.628448e+01	-1.377223e+02
1.340000e-06	-2.261368e-06	-2.023353e-09	-1.599078e+01	-1.372280e+02
1.350000e-06	-2.219441e-06	-2.013581e-09	-1.569430e+01	-1.367249e+02
1.360000e-06	-2.177192e-06	-2.001633e-09	-1.539555e+01	-1.362128e+02
1.370000e-06	-2.134686e-06	-1.991802e-09	-1.509498e+01	-1.356913e+02
1.380000e-06	-2.091947e-06	-1.983136e-09	-1.479276e+01	-1.351602e+02
1.390000e-06	-2.048938e-06	-1.975963e-09	-1.448863e+01	-1.346193e+02
1.400000e-06	-2.005688e-06	-1.969158e-09	-1.418280e+01	-1.340682e+02
1.410000e-06	-1.962319e-06	-1.963305e-09	-1.387612e+01	-1.335067e+02
1.420000e-06	-1.918863e-06	-1.956583e-09	-1.356883e+01	-1.329343e+02
1.430000e-06	-1.875310e-06	-1.945764e-09	-1.326085e+01	-1.323509e+02
1.440000e-06	-1.831660e-06	-1.931121e-09	-1.295219e+01	-1.317560e+02
1.450000e-06	-1.787916e-06	-1.916819e-09	-1.264286e+01	-1.311492e+02
1.460000e-06	-1.744047e-06	-1.906460e-09	-1.233265e+01	-1.305302e+02
1.470000e-06	-1.700109e-06	-1.898261e-09	-1.202196e+01	-1.298987e+02
1.480000e-06	-1.656137e-06	-1.888544e-09	-1.171102e+01	-1.292543e+02
1.490000e-06	-1.612067e-06	-1.878833e-09	-1.139939e+01	-1.285966e+02
1.500000e-06	-1.567874e-06	-1.869246e-09	-1.108689e+01	-1.279253e+02
1.510000e-06	-1.523612e-06	-1.858206e-09	-1.077390e+01	-1.272399e+02
1.520000e-06	-1.479301e-06	-1.842330e-09	-1.046056e+01	-1.265403e+02
1.530000e-06	-1.434896e-06	-1.826167e-09	-1.014656e+01	-1.258259e+02
1.540000e-06	-1.390295e-06	-1.814384e-09	-9.831174e+00	-1.250964e+02
1.550000e-06	-1.345638e-06	-1.805026e-09	-9.515392e+00	-1.243515e+02
1.560000e-06	-1.300968e-06	-1.795093e-09	-9.199520e+00	-1.235908e+02
1.570000e-06	-1.256156e-06	-1.783730e-09	-8.882641e+00	-1.228139e+02
1.580000e-06	-1.211246e-06	-1.775242e-09	-8.565066e+00	-1.220203e+02
1.590000e-06	-1.166268e-06	-1.769109e-09	-8.247012e+00	-1.212096e+02
1.600000e-06	-1.121205e-06	-1.756986e-09	-7.928361e+00	-1.203813e+02
1.610000e-06	-1.076010e-06	-1.737573e-09	-7.608774e+00	-1.195349e+02
1.620000e-06	-1.030714e-06	-1.715799e-09	-7.288472e+00	-1.186698e+02
1.630000e-06	-9.853816e-07	-1.696127e-09	-6.967915e+00	-1.177855e+02
1.640000e-06	-9.399986e-07	-1.678404e-09	-6.646999e+00	-1.168812e+02
1.650000e-06	-8.945364e-07	-1.662912e-09	-6.325523e+00	-1.159563e+02
1.660000e-06	-8.490254e-07	-1.654317e-09	-6.003702e+00	-1.150099e+02
1.670000e-06	-8.034478e-07	-1.651566e-09	-5.681409e+00	-1.140413e+02
1.680000e-06	-7.578456e-07	-1.644947e-09	-5.358943e+00	-1.130494e+02
1.690000e-06	-7.121896e-07	-1.626687e-09	-5.036097e+00	-1.120335e+02
1.700000e-06	-6.664233e-07	-1.601981e-09	-4.712470e+00	-1.109924e+02
1.710000e-06	-6.206262e-07	-1.577897e-09	-4.388626e+00	-1.099250e+02
1.720000e-06	-5.748175e-07	-1.555445e-09	-4.064699e+00	-1.088302e+02
1.730000e-06	-5.289404e-07	-1.533801e-09	-3.740289e+00	-1.077069e+02
1.740000e-06	-4.830371e-07	-1.515756e-09	-3.415693e+00	-1.065536e+02
1.750000e-06	-4.370869e-07	-1.506456e-09	-3.090767e+00	-1.053693e+02
1.760000e-06	-3.910620e-07	-1.500325e-09	-2.765311e+00	-1.041525e+02
1.770000e-06	-3.450133e-07	-1.484862e-09	-2.439688e+00	-1.029019e+02
1.780000e-06	-2.989689e-07	-1.459457e-09	-2.114094e+00	-1.016160e+02
1.790000e-06	-2.529641e-07	-1.431178e-09	-1.788781e+00	-1.002935e+02
1.800000e-06	-2.069050e-07	-1.404771e-09	-1.463085e+00	-9.893292e+01
1.810000e-06	-1.608351e-07	-1.380223e-09	-1.137311e+00	-9.753288e+01
1.820000e-06	-1.147726e-07	-1.356732e-09	-8.115896e-01	-9.609191e+01
1.830000e-06	-6.867594e-08	-1.334752e-09	-4.856272e-01	-9.460861e+01
1.840000e-06	-2.251825e-08	-1.315658e-09	-1.592330e-01	-9.308156e+01
1.850000e-06	2.361136e-08	-1.297459e-09	1.669627e-01	-9.150937e+01
1.860000e-06	6.964678e-08	-1.276466e-09	4.924923e-01	-8.989067e+01
1.870000e-06	1.156747e-07	-1.251173e-09	8.179687e-01	-8.822412e+01
1.880000e-06	1.617514e-07	-1.224810e-09	1.143790e+00	-8.650840e+01
1.890000e-06	2.078358e-07	-1.197128e-09	1.469666e+00	-8.474224e+01
1.900000e-06	2.538896e-07	-1.166235e-09	1.795326e+00	-8.292438e+01
1.910000e-06	2.999004e-07	-1.134209e-09	2.120681e+00	-8.105364e+01
1.920000e-06	3.458745e-07	-1.104405e-09	2.445778e+00	-7.912884e+01
1.930000e-06	3.918735e-07	-1.078464e-09	2.771050e+00	-7.714886e+01
1.940000e-06	4.377800e-07	-1.054039e-09	3.095667e+00	-7.511265e+01
1.950000e-06	4.836346e-07	-1.028636e-09	3.419918e+00	-7.301917e+01
1.960000e-06	5.294760e-07	-9.999635e-10	3.744076e+00	-7.086745e+01
1.970000e-06	5.752025e-07	-9.670295e-10	4.067422e+00	-6.865660e+01
1.980000e-06	6.208530e-07	-9.302982e-10	4.390229e+00	-6.638575e+01
1.990000e-06	6.665286e-07	-8.903152e-10	4.713214e+00	-6.405415e+01
2.000000e-06	7.122228e-07	-8.490892e-10	5.036331e+00	-6.166109e+01
2.010000e-06	7.578097e-07	-8.107969e-10	5.358689e+00	-5.920596e+01
2.020000e-06	8.033571e-07	-7.763517e-10	5.680768e+00	-5.668825e+01
2.030000e-06	8.488752e-07	-7.435204e-10	6.002639e+00	-5.410756e+01
2.040000e-06	8.943651e-07	-7.111943e-10	6.324311e+00	-5.146361e+01
2.050000e-06	9.399042e-07	-6.772392e-10	6.646331e+00	-4.875626e+01
2.060000e-06	9.853777e-07	-6.400269e-10	6.967888e+00	-4.598551e+01
2.070000e-06	1.030769e-06	-5.990583e-10	7.288865e+00	-4.315154e+01
2.080000e-06	1.075958e-06	-5.537790e-10	7.608407e+00	-4.025473e+01
2.090000e-06	1.120997e-06	-5.053624e-10	7.926893e+00	-3.729564e+01
2.100000e-06	1.165989e-06	-4.551924e-10	8.245043e+00	-3.427505e+01
2.110000e-06	1.210846e-06	-4.068314e-10	8.562238e+00	-3.119401e+01
2.120000e-06	1.255619e-06	-3.626231e-10	8.878841e+00	-2.805379e+01
2.130000e-06	1.300342e-06	-3.215764e-10	9.195087e+00	-2.485596e+01
2.140000e-06	1.344944e-06	-2.802580e-10	9.510486e+00	-2.160235e+01
2.150000e-06	1.389430e-06	-2.364779e-10	9.825055e+00	-1.829512e+01
2.160000e-06	1.433778e-06	-1.899839e-10	1.013866e+01	-1.493672e+01
2.170000e-06	1.477996e-06	-1.387512e-10	1.045133e+01	-1.152991e+01
2.180000e-06	1.522194e-06	-8.001382e-11	1.076387e+01	-8.077771e+00
2.190000e-06	1.566353e-06	-1.894366e-11	1.107613e+01	-4.583722e+00
2.200000e-06	1.610479e-06	3.730875e-11	1.138815e+01	-1.051482e+00
2.210000e-06	1.654581e-06	8.963548e-11	1.170001e+01	2.514916e+00
2.220000e-06	1.698600e-06	1.405076e-10	1.201129e+01	6.111141e+00
2.230000e-06	1.742506e-06	1.883078e-10	1.232176e+01	9.732582e+00
2.240000e-06	1.786336e-06	2.348947e-10	1.263169e+01	1.337437e+01
2.250000e-06	1.830113e-06	2.853215e-10	1.294125e+01	1.703138e+01
2.260000e-06	1.873779e-06	3.434360e-10	1.325003e+01	2.069831e+01
2.270000e-06	1.917291e-06	4.075145e-10	1.355771e+01	2.436967e+01
2.280000e-06	1.960713e-06	4.692058e-10	1.386476e+01	2.803981e+01
2.290000e-06	2.004093e-06	5.260814e-10	1.417151e+01	3.170302e+01
2.300000e-06	2.047318e-06	5.808244e-10	1.447717e+01	3.535350e+01
2.310000e-06	2.090298e-06	6.325342e-10	1.478110e+01	3.898545e+01
2.320000e-06	2.133113e-06	6.800486e-10	1.508385e+01	4.259310e+01
2.330000e-06	2.175643e-06	7.259890e-10	1.538459e+01	4.617076e+01
2.340000e-06	2.217816e-06	7.733575e-10	1.568281e+01	4.971287e+01
2.350000e-06	2.259787e-06	8.255816e-10	1.597960e+01	5.321402e+01
2.360000e-06	2.301445e-06	8.819104e-10	1.627418e+01	5.666904e+01
2.370000e-06	2.342736e-06	9.379595e-10	1.656616e+01	6.007300e+01
2.380000e-06	2.383774e-06	9.922650e-10	1.685635e+01	6.342129e+01
2.390000e-06	2.424585e-06	1.042821e-09	1.714494e+01	6.670961e+01
2.400000e-06	2.465118e-06	1.087128e-09	1.743155e+01	6.993404e+01
2.410000e-06	2.505462e-06	1.126845e-09	1.771684e+01	7.309106e+01
2.420000e-06	2.545717e-06	1.165290e-09	1.800150e+01	7.617755e+01
2.430000e-06	2.585811e-06	1.205977e-09	1.828501e+01	7.919084e+01
2.440000e-06	2.625760e-06	1.250090e-09	1.856750e+01	8.212870e+01
2.450000e-06	2.665600e-06	1.295559e-09	1.884922e+01	8.498935e+01
2.460000e-06	2.705290e-06	1.339719e-09	1.912988e+01	8.777147e+01
2.470000e-06	2.744918e-06	1.381558e-09	1.941010e+01	9.047417e+01
2.480000e-06	2.784455e-06	1.420822e-09	1.968968e+01	9.309703e+01
2.490000e-06	2.823797e-06	1.455597e-09	1.996787e+01	9.564001e+01
2.500000e-06	2.863000e-06	1.486183e-09	2.024509e+01	9.810348e+01
2.510000e-06	2.901908e-06	1.516433e-09	2.052022e+01	1.004882e+02
2.520000e-06	2.940506e-06	1.548255e-09	2.079316e+01	1.027952e+02
2.530000e-06	2.978942e-06	1.581433e-09	2.106495e+01	1.050259e+02
2.540000e-06	3.017185e-06	1.615223e-09	2.133538e+01	1.071819e+02
2.550000e-06	3.055208e-06	1.649052e-09	2.160425e+01	1.092651e+02
2.560000e-06	3.092996e-06	1.680544e-09	2.187146e+01	1.112775e+02
2.570000e-06	3.130592e-06	1.706225e-09	2.213731e+01	1.132213e+02
2.580000e-06	3.168051e-06	1.728841e-09	2.240219e+01	1.150989e+02
2.590000e-06	3.205253e-06	1.751951e-09	2.266526e+01	1.169126e+02
2.600000e-06	3.242174e-06	1.775545e-09	2.292634e+01	1.186647e+02
2.610000e-06	3.278892e-06	1.800745e-09	2.318598e+01	1.203576e+02
2.620000e-06	3.315387e-06	1.828018e-09	2.344405e+01	1.219937e+02
2.630000e-06	3.351689e-06	1.855931e-09	2.370075e+01	1.235752e+02
2.640000e-06	3.387832e-06	1.881290e-09	2.395633e+01	1.251042e+02
2.650000e-06	3.423806e-06	1.901273e-09	2.421071e+01	1.265828e+02
2.660000e-06	3.459602e-06	1.916406e-09	2.446383e+01	1.280127e+02
2.670000e-06	3.495280e-06	1.932409e-09	2.471612e+01	1.293959e+02
2.680000e-06	3.530871e-06	1.951355e-09	2.496780e+01	1.307338e+02
2.690000e-06	3.566217e-06	1.969959e-09	2.521774e+01	1.320279e+02
2.700000e-06	3.601220e-06	1.988422e-09	2.546525e+01	1.332793e+02
2.710000e-06	3.635876e-06	2.009025e-09	2.571032e+01	1.344893e+02
2.720000e-06	3.670103e-06	2.030428e-09	2.595235e+01	1.356588e+02
2.730000e-06	3.703914e-06	2.047060e-09	2.619144e+01	1.367887e+02
2.740000e-06	3.737284e-06	2.058604e-09	2.642741e+01	1.378796e+02
2.750000e-06	3.770152e-06	2.069491e-09	2.665983e+01	1.389322e+02
2.760000e-06	3.802706e-06	2.083419e-09	2.689002e+01	1.399472e+02
2.770000e-06	3.835085e-06	2.097798e-09	2.711898e+01	1.409249e+02
2.780000e-06	3.867258e-06	2.109600e-09	2.734649e+01	1.418660e+02
2.790000e-06	3.899202e-06	2.123165e-09	2.757237e+01	1.427709e+02
2.800000e-06	3.930965e-06	2.141011e-09	2.779698e+01	1.436402e+02
2.810000e-06	3.962571e-06	2.158320e-09	2.802047e+01	1.444744e+02
2.820000e-06	3.993935e-06	2.169585e-09	2.824226e+01	1.452741e+02
2.830000e-06	4.025104e-06	2.176152e-09	2.846267e+01	1.460400e+02
2.840000e-06	4.055965e-06	2.184454e-09	2.868089e+01	1.467728e+02
2.850000e-06	4.086436e-06	2.195546e-09	2.889636e+01	1.474735e+02
2.860000e-06	4.116601e-06	2.206131e-09	2.910966e+01	1.481428e+02
2.870000e-06	4.146496e-06	2.214029e-09	2.932106e+01	1.487819e+02
2.880000e-06	4.176152e-06	2.221353e-09	2.953077e+01	1.493920e+02
2.890000e-06	4.205542e-06	2.230223e-09	2.973859e+01	1.499741e+02
2.900000e-06	4.234646e-06	2.236522e-09	2.994439e+01	1.505295e+02
