# Temperatura_=_1.28
# Concentracion g/m^3_=_4090.0
# C_Vs_to_Am_M_A/Vsm_=_65563218390.804596
# pendiente_HvsI_1/m_=_3716.3
# ordenada_HvsI_A/m_=_1297.0
# frecuencia_Hz_=_135064.65178076123

Tiempo_(s)	Campo_(V.s)	Magnetizacion_(V.s)	Campo_(kA/m)	Magnetizacion_(A/m)
0.000000e+00	-5.399620e-06	-2.393358e-09	-3.840744e+01	-1.587669e+02
1.000000e-08	-5.399836e-06	-2.397001e-09	-3.840898e+01	-1.586675e+02
2.000000e-08	-5.399766e-06	-2.398991e-09	-3.840848e+01	-1.585703e+02
3.000000e-08	-5.399428e-06	-2.400560e-09	-3.840608e+01	-1.584773e+02
4.000000e-08	-5.398733e-06	-2.400766e-09	-3.840113e+01	-1.583907e+02
5.000000e-08	-5.397605e-06	-2.397334e-09	-3.839311e+01	-1.583126e+02
6.000000e-08	-5.395961e-06	-2.393277e-09	-3.838141e+01	-1.582449e+02
7.000000e-08	-5.393682e-06	-2.393812e-09	-3.836521e+01	-1.581896e+02
8.000000e-08	-5.390756e-06	-2.369946e-09	-3.834439e+01	-1.581482e+02
9.000000e-08	-5.387219e-06	-2.344001e-09	-3.831923e+01	-1.581224e+02
1.000000e-07	-5.383181e-06	-2.403898e-09	-3.829051e+01	-1.581132e+02
1.100000e-07	-5.378830e-06	-2.484280e-09	-3.825956e+01	-1.581217e+02
1.200000e-07	-5.374360e-06	-2.396062e-09	-3.822776e+01	-1.581485e+02
1.300000e-07	-5.369730e-06	-2.337863e-09	-3.819483e+01	-1.581939e+02
1.400000e-07	-5.364686e-06	-2.370164e-09	-3.815896e+01	-1.582581e+02
1.500000e-07	-5.359208e-06	-2.483271e-09	-3.811999e+01	-1.583406e+02
1.600000e-07	-5.353429e-06	-2.375860e-09	-3.807889e+01	-1.584408e+02
1.700000e-07	-5.347301e-06	-2.284712e-09	-3.803530e+01	-1.585577e+02
1.800000e-07	-5.340637e-06	-2.402737e-09	-3.798790e+01	-1.586900e+02
1.900000e-07	-5.333551e-06	-2.512463e-09	-3.793749e+01	-1.588362e+02
2.000000e-07	-5.326278e-06	-2.459515e-09	-3.788576e+01	-1.589943e+02
2.100000e-07	-5.318847e-06	-2.381625e-09	-3.783290e+01	-1.591623e+02
2.200000e-07	-5.311133e-06	-2.501230e-09	-3.777804e+01	-1.593378e+02
2.300000e-07	-5.303082e-06	-2.522459e-09	-3.772077e+01	-1.595184e+02
2.400000e-07	-5.294702e-06	-2.460160e-09	-3.766116e+01	-1.597014e+02
2.500000e-07	-5.285834e-06	-2.450317e-09	-3.759808e+01	-1.598841e+02
2.600000e-07	-5.276298e-06	-2.567059e-09	-3.753025e+01	-1.600639e+02
2.700000e-07	-5.266044e-06	-2.527078e-09	-3.745732e+01	-1.602380e+02
2.800000e-07	-5.255375e-06	-2.481628e-09	-3.738143e+01	-1.604038e+02
2.900000e-07	-5.244308e-06	-2.547772e-09	-3.730271e+01	-1.605586e+02
3.000000e-07	-5.232740e-06	-2.605833e-09	-3.722043e+01	-1.607002e+02
3.100000e-07	-5.220693e-06	-2.498227e-09	-3.713473e+01	-1.608262e+02
3.200000e-07	-5.208252e-06	-2.492379e-09	-3.704624e+01	-1.609347e+02
3.300000e-07	-5.195484e-06	-2.582599e-09	-3.695543e+01	-1.610239e+02
3.400000e-07	-5.182300e-06	-2.558962e-09	-3.686165e+01	-1.610922e+02
3.500000e-07	-5.168668e-06	-2.477634e-09	-3.676468e+01	-1.611387e+02
3.600000e-07	-5.154711e-06	-2.536092e-09	-3.666540e+01	-1.611623e+02
3.700000e-07	-5.140410e-06	-2.570747e-09	-3.656368e+01	-1.611625e+02
3.800000e-07	-5.125647e-06	-2.508505e-09	-3.645868e+01	-1.611390e+02
3.900000e-07	-5.110277e-06	-2.503445e-09	-3.634935e+01	-1.610920e+02
4.000000e-07	-5.094314e-06	-2.540050e-09	-3.623580e+01	-1.610218e+02
4.100000e-07	-5.077905e-06	-2.497286e-09	-3.611909e+01	-1.609292e+02
4.200000e-07	-5.061095e-06	-2.474869e-09	-3.599951e+01	-1.608149e+02
4.300000e-07	-5.044036e-06	-2.526677e-09	-3.587817e+01	-1.606803e+02
4.400000e-07	-5.026761e-06	-2.503654e-09	-3.575530e+01	-1.605266e+02
4.500000e-07	-5.009133e-06	-2.472409e-09	-3.562991e+01	-1.603555e+02
4.600000e-07	-4.991149e-06	-2.497999e-09	-3.550199e+01	-1.601687e+02
4.700000e-07	-4.972841e-06	-2.523206e-09	-3.537177e+01	-1.599679e+02
4.800000e-07	-4.954129e-06	-2.477154e-09	-3.523867e+01	-1.597550e+02
4.900000e-07	-4.934964e-06	-2.481483e-09	-3.510235e+01	-1.595320e+02
5.000000e-07	-4.915400e-06	-2.484928e-09	-3.496319e+01	-1.593007e+02
5.100000e-07	-4.895625e-06	-2.484090e-09	-3.482253e+01	-1.590630e+02
5.200000e-07	-4.875635e-06	-2.473330e-09	-3.468034e+01	-1.588205e+02
5.300000e-07	-4.855447e-06	-2.481912e-09	-3.453674e+01	-1.585750e+02
5.400000e-07	-4.835079e-06	-2.460923e-09	-3.439186e+01	-1.583279e+02
5.500000e-07	-4.814351e-06	-2.474293e-09	-3.424443e+01	-1.580806e+02
5.600000e-07	-4.793262e-06	-2.473879e-09	-3.409442e+01	-1.578342e+02
5.700000e-07	-4.771852e-06	-2.460549e-09	-3.394214e+01	-1.575897e+02
5.800000e-07	-4.750094e-06	-2.445279e-09	-3.378737e+01	-1.573478e+02
5.900000e-07	-4.728046e-06	-2.456441e-09	-3.363054e+01	-1.571090e+02
6.000000e-07	-4.705626e-06	-2.443899e-09	-3.347107e+01	-1.568738e+02
6.100000e-07	-4.682857e-06	-2.436932e-09	-3.330911e+01	-1.566421e+02
6.200000e-07	-4.659704e-06	-2.425456e-09	-3.314442e+01	-1.564139e+02
6.300000e-07	-4.636196e-06	-2.419485e-09	-3.297722e+01	-1.561890e+02
6.400000e-07	-4.612500e-06	-2.423956e-09	-3.280867e+01	-1.559670e+02
6.500000e-07	-4.588570e-06	-2.429244e-09	-3.263845e+01	-1.557473e+02
6.600000e-07	-4.564402e-06	-2.412978e-09	-3.246654e+01	-1.555292e+02
6.700000e-07	-4.540018e-06	-2.407709e-09	-3.229310e+01	-1.553119e+02
6.800000e-07	-4.515299e-06	-2.417378e-09	-3.211728e+01	-1.550947e+02
6.900000e-07	-4.490161e-06	-2.411099e-09	-3.193847e+01	-1.548766e+02
7.000000e-07	-4.464507e-06	-2.397696e-09	-3.175599e+01	-1.546567e+02
7.100000e-07	-4.438350e-06	-2.389485e-09	-3.156994e+01	-1.544342e+02
7.200000e-07	-4.411740e-06	-2.390762e-09	-3.138066e+01	-1.542082e+02
7.300000e-07	-4.384724e-06	-2.389215e-09	-3.118849e+01	-1.539779e+02
7.400000e-07	-4.357381e-06	-2.389299e-09	-3.099400e+01	-1.537425e+02
7.500000e-07	-4.329693e-06	-2.379247e-09	-3.079706e+01	-1.535015e+02
7.600000e-07	-4.301711e-06	-2.384417e-09	-3.059802e+01	-1.532544e+02
7.700000e-07	-4.273545e-06	-2.382196e-09	-3.039768e+01	-1.530006e+02
7.800000e-07	-4.245251e-06	-2.372790e-09	-3.019643e+01	-1.527400e+02
7.900000e-07	-4.216752e-06	-2.354355e-09	-2.999372e+01	-1.524724e+02
8.000000e-07	-4.187911e-06	-2.354212e-09	-2.978857e+01	-1.521977e+02
8.100000e-07	-4.158731e-06	-2.351290e-09	-2.958101e+01	-1.519161e+02
8.200000e-07	-4.129264e-06	-2.353076e-09	-2.937141e+01	-1.516277e+02
8.300000e-07	-4.099504e-06	-2.345732e-09	-2.915973e+01	-1.513329e+02
8.400000e-07	-4.069424e-06	-2.342465e-09	-2.894577e+01	-1.510321e+02
8.500000e-07	-4.039007e-06	-2.335695e-09	-2.872942e+01	-1.507258e+02
8.600000e-07	-4.008321e-06	-2.331400e-09	-2.851115e+01	-1.504144e+02
8.700000e-07	-3.977434e-06	-2.315535e-09	-2.829145e+01	-1.500987e+02
8.800000e-07	-3.946355e-06	-2.306567e-09	-2.807038e+01	-1.497793e+02
8.900000e-07	-3.914984e-06	-2.301240e-09	-2.784724e+01	-1.494567e+02
9.000000e-07	-3.883344e-06	-2.304551e-09	-2.762219e+01	-1.491315e+02
9.100000e-07	-3.851582e-06	-2.301725e-09	-2.739626e+01	-1.488045e+02
9.200000e-07	-3.819699e-06	-2.295837e-09	-2.716948e+01	-1.484762e+02
9.300000e-07	-3.787594e-06	-2.286152e-09	-2.694112e+01	-1.481470e+02
9.400000e-07	-3.755194e-06	-2.277966e-09	-2.671066e+01	-1.478174e+02
9.500000e-07	-3.722554e-06	-2.267734e-09	-2.647849e+01	-1.474877e+02
9.600000e-07	-3.689608e-06	-2.259099e-09	-2.624415e+01	-1.471583e+02
9.700000e-07	-3.656235e-06	-2.255727e-09	-2.600676e+01	-1.468293e+02
9.800000e-07	-3.622407e-06	-2.255644e-09	-2.576614e+01	-1.465007e+02
9.900000e-07	-3.588116e-06	-2.253237e-09	-2.552223e+01	-1.461726e+02
1.000000e-06	-3.553480e-06	-2.243399e-09	-2.527586e+01	-1.458449e+02
1.010000e-06	-3.518499e-06	-2.233882e-09	-2.502705e+01	-1.455173e+02
1.020000e-06	-3.483132e-06	-2.220703e-09	-2.477548e+01	-1.451896e+02
1.030000e-06	-3.447479e-06	-2.208426e-09	-2.452188e+01	-1.448615e+02
1.040000e-06	-3.411677e-06	-2.199827e-09	-2.426722e+01	-1.445324e+02
1.050000e-06	-3.375736e-06	-2.200653e-09	-2.401157e+01	-1.442019e+02
1.060000e-06	-3.339634e-06	-2.198162e-09	-2.375478e+01	-1.438696e+02
1.070000e-06	-3.303434e-06	-2.196226e-09	-2.349729e+01	-1.435348e+02
1.080000e-06	-3.267156e-06	-2.188999e-09	-2.323925e+01	-1.431970e+02
1.090000e-06	-3.230664e-06	-2.180791e-09	-2.297968e+01	-1.428556e+02
1.100000e-06	-3.193835e-06	-2.168872e-09	-2.271772e+01	-1.425101e+02
1.110000e-06	-3.156764e-06	-2.161479e-09	-2.245403e+01	-1.421599e+02
1.120000e-06	-3.119494e-06	-2.152142e-09	-2.218893e+01	-1.418044e+02
1.130000e-06	-3.081986e-06	-2.147902e-09	-2.192214e+01	-1.414432e+02
1.140000e-06	-3.044285e-06	-2.143766e-09	-2.165397e+01	-1.410757e+02
1.150000e-06	-3.006339e-06	-2.141288e-09	-2.138406e+01	-1.407017e+02
1.160000e-06	-2.968122e-06	-2.132092e-09	-2.111222e+01	-1.403207e+02
1.170000e-06	-2.929754e-06	-2.122790e-09	-2.083931e+01	-1.399324e+02
1.180000e-06	-2.891260e-06	-2.112002e-09	-2.056550e+01	-1.395365e+02
1.190000e-06	-2.852523e-06	-2.102894e-09	-2.028997e+01	-1.391327e+02
1.200000e-06	-2.813563e-06	-2.092388e-09	-2.001285e+01	-1.387210e+02
1.210000e-06	-2.774408e-06	-2.081819e-09	-1.973434e+01	-1.383010e+02
1.220000e-06	-2.735016e-06	-2.075505e-09	-1.945414e+01	-1.378728e+02
1.230000e-06	-2.695459e-06	-2.073545e-09	-1.917278e+01	-1.374361e+02
1.240000e-06	-2.655792e-06	-2.071488e-09	-1.889062e+01	-1.369908e+02
1.250000e-06	-2.615968e-06	-2.067303e-09	-1.860735e+01	-1.365369e+02
1.260000e-06	-2.575969e-06	-2.059476e-09	-1.832284e+01	-1.360743e+02
1.270000e-06	-2.535882e-06	-2.045589e-09	-1.803770e+01	-1.356028e+02
1.280000e-06	-2.495742e-06	-2.031340e-09	-1.775218e+01	-1.351224e+02
1.290000e-06	-2.455520e-06	-2.020700e-09	-1.746609e+01	-1.346327e+02
1.300000e-06	-2.415138e-06	-2.012550e-09	-1.717885e+01	-1.341338e+02
1.310000e-06	-2.374583e-06	-2.003034e-09	-1.689038e+01	-1.336254e+02
1.320000e-06	-2.333866e-06	-1.996918e-09	-1.660077e+01	-1.331071e+02
1.330000e-06	-2.292940e-06	-1.992434e-09	-1.630966e+01	-1.325789e+02
1.340000e-06	-2.251814e-06	-1.986737e-09	-1.601713e+01	-1.320402e+02
1.350000e-06	-2.210437e-06	-1.975000e-09	-1.572282e+01	-1.314908e+02
1.360000e-06	-2.168718e-06	-1.961586e-09	-1.542607e+01	-1.309303e+02
1.370000e-06	-2.126708e-06	-1.949459e-09	-1.512725e+01	-1.303583e+02
1.380000e-06	-2.084471e-06	-1.941259e-09	-1.482682e+01	-1.297745e+02
1.390000e-06	-2.041941e-06	-1.930683e-09	-1.452430e+01	-1.291782e+02
1.400000e-06	-1.999169e-06	-1.920334e-09	-1.422007e+01	-1.285692e+02
1.410000e-06	-1.956272e-06	-1.912688e-09	-1.391494e+01	-1.279470e+02
1.420000e-06	-1.913164e-06	-1.907548e-09	-1.360831e+01	-1.273112e+02
1.430000e-06	-1.869828e-06	-1.898097e-09	-1.330007e+01	-1.266613e+02
1.440000e-06	-1.826400e-06	-1.882638e-09	-1.299117e+01	-1.259971e+02
1.450000e-06	-1.782861e-06	-1.864780e-09	-1.268147e+01	-1.253181e+02
1.460000e-06	-1.739100e-06	-1.853567e-09	-1.237020e+01	-1.246241e+02
1.470000e-06	-1.695186e-06	-1.844698e-09	-1.205784e+01	-1.239147e+02
1.480000e-06	-1.651245e-06	-1.832037e-09	-1.174529e+01	-1.231899e+02
1.490000e-06	-1.607277e-06	-1.817958e-09	-1.143255e+01	-1.224493e+02
1.500000e-06	-1.563247e-06	-1.807941e-09	-1.111936e+01	-1.216928e+02
1.510000e-06	-1.519103e-06	-1.798091e-09	-1.080536e+01	-1.209204e+02
1.520000e-06	-1.474888e-06	-1.781812e-09	-1.049086e+01	-1.201320e+02
1.530000e-06	-1.430633e-06	-1.762916e-09	-1.017608e+01	-1.193274e+02
1.540000e-06	-1.386273e-06	-1.749018e-09	-9.860546e+00	-1.185068e+02
1.550000e-06	-1.341842e-06	-1.741248e-09	-9.544507e+00	-1.176700e+02
1.560000e-06	-1.297368e-06	-1.731125e-09	-9.228166e+00	-1.168169e+02
1.570000e-06	-1.252843e-06	-1.714990e-09	-8.911456e+00	-1.159476e+02
1.580000e-06	-1.208357e-06	-1.698191e-09	-8.595032e+00	-1.150620e+02
1.590000e-06	-1.163826e-06	-1.684017e-09	-8.278285e+00	-1.141598e+02
1.600000e-06	-1.119067e-06	-1.670117e-09	-7.959913e+00	-1.132409e+02
1.610000e-06	-1.074189e-06	-1.653592e-09	-7.640695e+00	-1.123051e+02
1.620000e-06	-1.029249e-06	-1.636112e-09	-7.321036e+00	-1.113519e+02
1.630000e-06	-9.842292e-07	-1.623448e-09	-7.000812e+00	-1.103808e+02
1.640000e-06	-9.391246e-07	-1.610337e-09	-6.679984e+00	-1.093914e+02
1.650000e-06	-8.939821e-07	-1.592673e-09	-6.358886e+00	-1.083828e+02
1.660000e-06	-8.488843e-07	-1.574281e-09	-6.038105e+00	-1.073544e+02
1.670000e-06	-8.037147e-07	-1.560668e-09	-5.716814e+00	-1.063050e+02
1.680000e-06	-7.584650e-07	-1.547844e-09	-5.394954e+00	-1.052337e+02
1.690000e-06	-7.130589e-07	-1.529026e-09	-5.071980e+00	-1.041391e+02
1.700000e-06	-6.675323e-07	-1.504687e-09	-4.748151e+00	-1.030201e+02
1.710000e-06	-6.220067e-07	-1.481848e-09	-4.424327e+00	-1.018751e+02
1.720000e-06	-5.763729e-07	-1.463554e-09	-4.099734e+00	-1.007026e+02
1.730000e-06	-5.306881e-07	-1.445676e-09	-3.774779e+00	-9.950096e+01
1.740000e-06	-4.850363e-07	-1.424684e-09	-3.450058e+00	-9.826838e+01
1.750000e-06	-4.394695e-07	-1.406439e-09	-3.125942e+00	-9.700310e+01
1.760000e-06	-3.939612e-07	-1.394818e-09	-2.802242e+00	-9.570328e+01
1.770000e-06	-3.483574e-07	-1.381483e-09	-2.477863e+00	-9.436706e+01
1.780000e-06	-3.026393e-07	-1.357621e-09	-2.152670e+00	-9.299258e+01
1.790000e-06	-2.568971e-07	-1.329687e-09	-1.827307e+00	-9.157801e+01
1.800000e-06	-2.111644e-07	-1.305867e-09	-1.502010e+00	-9.012154e+01
1.810000e-06	-1.653807e-07	-1.283024e-09	-1.176351e+00	-8.862145e+01
1.820000e-06	-1.195423e-07	-1.256022e-09	-8.503032e-01	-8.707610e+01
1.830000e-06	-7.374360e-08	-1.229132e-09	-5.245375e-01	-8.548395e+01
1.840000e-06	-2.799255e-08	-1.207810e-09	-1.991107e-01	-8.384359e+01
1.850000e-06	1.778807e-08	-1.189201e-09	1.265263e-01	-8.215376e+01
1.860000e-06	6.356282e-08	-1.166510e-09	4.521217e-01	-8.041337e+01
1.870000e-06	1.093557e-07	-1.137512e-09	7.778462e-01	-7.862146e+01
1.880000e-06	1.551590e-07	-1.108275e-09	1.103644e+00	-7.677730e+01
1.890000e-06	2.008496e-07	-1.080274e-09	1.428641e+00	-7.488031e+01
1.900000e-06	2.465635e-07	-1.047608e-09	1.753803e+00	-7.293011e+01
1.910000e-06	2.923490e-07	-1.010333e-09	2.079476e+00	-7.092652e+01
1.920000e-06	3.381173e-07	-9.785898e-10	2.405025e+00	-6.886952e+01
1.930000e-06	3.838594e-07	-9.540715e-10	2.730388e+00	-6.675932e+01
1.940000e-06	4.295331e-07	-9.277219e-10	3.055265e+00	-6.459625e+01
1.950000e-06	4.751540e-07	-8.945041e-10	3.379765e+00	-6.238083e+01
1.960000e-06	5.207625e-07	-8.589451e-10	3.704178e+00	-6.011375e+01
1.970000e-06	5.662811e-07	-8.252557e-10	4.027952e+00	-5.779580e+01
1.980000e-06	6.116507e-07	-7.886400e-10	4.350665e+00	-5.542793e+01
1.990000e-06	6.570133e-07	-7.484726e-10	4.673329e+00	-5.301117e+01
2.000000e-06	7.023450e-07	-7.117907e-10	4.995773e+00	-5.054667e+01
2.010000e-06	7.475614e-07	-6.798848e-10	5.317396e+00	-4.803563e+01
2.020000e-06	7.928335e-07	-6.466052e-10	5.639417e+00	-4.547934e+01
2.030000e-06	8.380889e-07	-6.095494e-10	5.961318e+00	-4.287912e+01
2.040000e-06	8.831932e-07	-5.716007e-10	6.282144e+00	-4.023635e+01
2.050000e-06	9.282859e-07	-5.343174e-10	6.602888e+00	-3.755241e+01
2.060000e-06	9.734032e-07	-4.966065e-10	6.923807e+00	-3.482873e+01
2.070000e-06	1.018395e-06	-4.561270e-10	7.243830e+00	-3.206672e+01
2.080000e-06	1.063292e-06	-4.143641e-10	7.563182e+00	-2.926784e+01
2.090000e-06	1.108131e-06	-3.733987e-10	7.882122e+00	-2.643354e+01
2.100000e-06	1.152803e-06	-3.322655e-10	8.199877e+00	-2.356527e+01
2.110000e-06	1.197363e-06	-2.904238e-10	8.516831e+00	-2.066453e+01
2.120000e-06	1.241834e-06	-2.482751e-10	8.833154e+00	-1.773281e+01
2.130000e-06	1.286271e-06	-2.086596e-10	9.149233e+00	-1.477166e+01
2.140000e-06	1.330686e-06	-1.685365e-10	9.465154e+00	-1.178266e+01
2.150000e-06	1.374969e-06	-1.235797e-10	9.780139e+00	-8.767449e+00
2.160000e-06	1.419152e-06	-7.525407e-11	1.009442e+01	-5.727728e+00
2.170000e-06	1.463312e-06	-2.750705e-11	1.040852e+01	-2.665286e+00
2.180000e-06	1.507425e-06	1.746709e-11	1.072230e+01	4.179973e-01
2.190000e-06	1.551494e-06	6.239136e-11	1.103576e+01	3.520132e+00
2.200000e-06	1.595510e-06	1.077243e-10	1.134885e+01	6.639011e+00
2.210000e-06	1.639446e-06	1.521908e-10	1.166137e+01	9.772395e+00
2.220000e-06	1.683349e-06	1.966836e-10	1.197365e+01	1.291791e+01
2.230000e-06	1.727206e-06	2.426488e-10	1.228560e+01	1.607303e+01
2.240000e-06	1.770948e-06	2.892349e-10	1.259673e+01	1.923510e+01
2.250000e-06	1.814634e-06	3.345959e-10	1.290747e+01	2.240128e+01
2.260000e-06	1.858240e-06	3.788993e-10	1.321764e+01	2.556864e+01
2.270000e-06	1.901604e-06	4.254787e-10	1.352609e+01	2.873405e+01
2.280000e-06	1.944766e-06	4.750465e-10	1.383310e+01	3.189430e+01
2.290000e-06	1.987753e-06	5.236938e-10	1.413886e+01	3.504605e+01
2.300000e-06	2.030455e-06	5.696585e-10	1.444261e+01	3.818585e+01
2.310000e-06	2.072901e-06	6.141346e-10	1.474452e+01	4.131019e+01
2.320000e-06	2.115169e-06	6.585752e-10	1.504518e+01	4.441549e+01
2.330000e-06	2.157198e-06	7.026915e-10	1.534412e+01	4.749816e+01
2.340000e-06	2.198918e-06	7.442804e-10	1.564088e+01	5.055460e+01
2.350000e-06	2.240405e-06	7.844346e-10	1.593598e+01	5.358123e+01
2.360000e-06	2.281570e-06	8.272792e-10	1.622878e+01	5.657455e+01
2.370000e-06	2.322382e-06	8.737000e-10	1.651908e+01	5.953113e+01
2.380000e-06	2.363012e-06	9.181429e-10	1.680808e+01	6.244769e+01
2.390000e-06	2.403447e-06	9.587523e-10	1.709569e+01	6.532108e+01
2.400000e-06	2.443734e-06	9.980477e-10	1.738225e+01	6.814834e+01
2.410000e-06	2.483918e-06	1.035601e-09	1.766808e+01	7.092673e+01
2.420000e-06	2.524043e-06	1.069774e-09	1.795349e+01	7.365372e+01
2.430000e-06	2.564123e-06	1.102897e-09	1.823858e+01	7.632706e+01
2.440000e-06	2.604075e-06	1.140420e-09	1.852276e+01	7.894477e+01
2.450000e-06	2.643868e-06	1.181177e-09	1.880581e+01	8.150515e+01
2.460000e-06	2.683518e-06	1.219795e-09	1.908784e+01	8.400681e+01
2.470000e-06	2.723011e-06	1.255458e-09	1.936875e+01	8.644865e+01
2.480000e-06	2.762290e-06	1.290617e-09	1.964814e+01	8.882989e+01
2.490000e-06	2.801315e-06	1.325551e-09	1.992572e+01	9.115004e+01
2.500000e-06	2.840169e-06	1.358153e-09	2.020209e+01	9.340892e+01
2.510000e-06	2.878876e-06	1.388821e-09	2.047742e+01	9.560661e+01
2.520000e-06	2.917331e-06	1.419538e-09	2.075094e+01	9.774346e+01
2.530000e-06	2.955532e-06	1.451052e-09	2.102267e+01	9.982009e+01
2.540000e-06	2.993545e-06	1.482552e-09	2.129306e+01	1.018373e+02
2.550000e-06	3.031395e-06	1.511926e-09	2.156228e+01	1.037961e+02
2.560000e-06	3.069115e-06	1.539868e-09	2.183058e+01	1.056977e+02
2.570000e-06	3.106732e-06	1.565872e-09	2.209815e+01	1.075434e+02
2.580000e-06	3.144160e-06	1.589625e-09	2.236438e+01	1.093346e+02
2.590000e-06	3.181273e-06	1.612691e-09	2.262836e+01	1.110729e+02
2.600000e-06	3.218043e-06	1.635779e-09	2.288991e+01	1.127597e+02
2.610000e-06	3.254633e-06	1.659573e-09	2.315017e+01	1.143967e+02
2.620000e-06	3.291093e-06	1.683715e-09	2.340951e+01	1.159853e+02
2.630000e-06	3.327329e-06	1.706841e-09	2.366726e+01	1.175271e+02
2.640000e-06	3.363386e-06	1.728364e-09	2.392373e+01	1.190235e+02
2.650000e-06	3.399316e-06	1.748668e-09	2.417930e+01	1.204760e+02
2.660000e-06	3.435133e-06	1.768106e-09	2.443407e+01	1.218857e+02
2.670000e-06	3.470782e-06	1.786486e-09	2.468764e+01	1.232539e+02
2.680000e-06	3.506162e-06	1.804664e-09	2.493930e+01	1.245815e+02
2.690000e-06	3.541251e-06	1.823077e-09	2.518888e+01	1.258696e+02
2.700000e-06	3.576047e-06	1.840377e-09	2.543639e+01	1.271189e+02
2.710000e-06	3.610407e-06	1.857586e-09	2.568079e+01	1.283301e+02
2.720000e-06	3.644228e-06	1.876962e-09	2.592135e+01	1.295039e+02
2.730000e-06	3.677639e-06	1.895656e-09	2.615901e+01	1.306407e+02
2.740000e-06	3.710738e-06	1.910747e-09	2.639444e+01	1.317409e+02
2.750000e-06	3.743473e-06	1.924088e-09	2.662728e+01	1.328050e+02
2.760000e-06	3.775859e-06	1.938022e-09	2.685765e+01	1.338331e+02
2.770000e-06	3.808054e-06	1.954130e-09	2.708665e+01	1.348255e+02
2.780000e-06	3.840095e-06	1.967527e-09	2.731456e+01	1.357826e+02
2.790000e-06	3.871988e-06	1.976659e-09	2.754141e+01	1.367046e+02
2.800000e-06	3.903678e-06	1.987329e-09	2.776682e+01	1.375919e+02
2.810000e-06	3.935149e-06	2.002160e-09	2.799067e+01	1.384447e+02
2.820000e-06	3.966486e-06	2.016486e-09	2.821357e+01	1.392636e+02
2.830000e-06	3.997518e-06	2.025359e-09	2.843430e+01	1.400490e+02
2.840000e-06	4.028100e-06	2.033355e-09	2.865183e+01	1.408016e+02
2.850000e-06	4.058384e-06	2.047321e-09	2.886724e+01	1.415221e+02
2.860000e-06	4.088424e-06	2.064846e-09	2.908092e+01	1.422113e+02
2.870000e-06	4.118173e-06	2.077181e-09	2.929252e+01	1.428702e+02
2.880000e-06	4.147648e-06	2.082541e-09	2.950218e+01	1.434999e+02
2.890000e-06	4.176878e-06	2.086638e-09	2.971009e+01	1.441016e+02
2.900000e-06	4.205899e-06	2.093249e-09	2.991651e+01	1.446765e+02
