# Temperatura_=_-9.75
# Concentracion g/m^3_=_4090.0
# C_Vs_to_Am_M_A/Vsm_=_65563218390.804596
# pendiente_HvsI_1/m_=_3716.3
# ordenada_HvsI_A/m_=_1297.0
# frecuencia_Hz_=_135072.52828918613

Tiempo_(s)	Campo_(V.s)	Magnetizacion_(V.s)	Campo_(kA/m)	Magnetizacion_(A/m)
0.000000e+00	-5.410281e-06	-1.736677e-09	-3.839196e+01	-1.132311e+02
1.000000e-08	-5.410563e-06	-1.735854e-09	-3.839396e+01	-1.131833e+02
2.000000e-08	-5.410599e-06	-1.736713e-09	-3.839421e+01	-1.131337e+02
3.000000e-08	-5.410401e-06	-1.735434e-09	-3.839281e+01	-1.130833e+02
4.000000e-08	-5.409856e-06	-1.732462e-09	-3.838894e+01	-1.130335e+02
5.000000e-08	-5.408837e-06	-1.732541e-09	-3.838171e+01	-1.129851e+02
6.000000e-08	-5.407291e-06	-1.738152e-09	-3.837074e+01	-1.129394e+02
7.000000e-08	-5.405064e-06	-1.744084e-09	-3.835494e+01	-1.128971e+02
8.000000e-08	-5.402209e-06	-1.720488e-09	-3.833468e+01	-1.128592e+02
9.000000e-08	-5.398828e-06	-1.684535e-09	-3.831068e+01	-1.128261e+02
1.000000e-07	-5.395002e-06	-1.739207e-09	-3.828353e+01	-1.127985e+02
1.100000e-07	-5.390853e-06	-1.828053e-09	-3.825409e+01	-1.127767e+02
1.200000e-07	-5.386502e-06	-1.775720e-09	-3.822322e+01	-1.127609e+02
1.300000e-07	-5.381987e-06	-1.649107e-09	-3.819118e+01	-1.127509e+02
1.400000e-07	-5.377141e-06	-1.711229e-09	-3.815679e+01	-1.127467e+02
1.500000e-07	-5.371797e-06	-1.830006e-09	-3.811887e+01	-1.127478e+02
1.600000e-07	-5.366019e-06	-1.766803e-09	-3.807787e+01	-1.127537e+02
1.700000e-07	-5.359933e-06	-1.596387e-09	-3.803468e+01	-1.127637e+02
1.800000e-07	-5.353432e-06	-1.679766e-09	-3.798855e+01	-1.127770e+02
1.900000e-07	-5.346504e-06	-1.851300e-09	-3.793939e+01	-1.127925e+02
2.000000e-07	-5.339339e-06	-1.794026e-09	-3.788854e+01	-1.128093e+02
2.100000e-07	-5.331941e-06	-1.676311e-09	-3.783605e+01	-1.128261e+02
2.200000e-07	-5.324307e-06	-1.752350e-09	-3.778187e+01	-1.128416e+02
2.300000e-07	-5.316446e-06	-1.845723e-09	-3.772609e+01	-1.128548e+02
2.400000e-07	-5.308275e-06	-1.740702e-09	-3.766811e+01	-1.128642e+02
2.500000e-07	-5.299649e-06	-1.699736e-09	-3.760690e+01	-1.128686e+02
2.600000e-07	-5.290304e-06	-1.812326e-09	-3.754059e+01	-1.128669e+02
2.700000e-07	-5.280356e-06	-1.844382e-09	-3.747000e+01	-1.128578e+02
2.800000e-07	-5.269889e-06	-1.732702e-09	-3.739572e+01	-1.128403e+02
2.900000e-07	-5.258828e-06	-1.772583e-09	-3.731723e+01	-1.128135e+02
3.000000e-07	-5.247260e-06	-1.852033e-09	-3.723515e+01	-1.127765e+02
3.100000e-07	-5.235276e-06	-1.759317e-09	-3.715010e+01	-1.127287e+02
3.200000e-07	-5.222884e-06	-1.674528e-09	-3.706217e+01	-1.126695e+02
3.300000e-07	-5.210162e-06	-1.784634e-09	-3.697189e+01	-1.125987e+02
3.400000e-07	-5.197112e-06	-1.818223e-09	-3.687929e+01	-1.125160e+02
3.500000e-07	-5.183703e-06	-1.724453e-09	-3.678413e+01	-1.124214e+02
3.600000e-07	-5.169936e-06	-1.726666e-09	-3.668645e+01	-1.123150e+02
3.700000e-07	-5.155766e-06	-1.798345e-09	-3.658589e+01	-1.121972e+02
3.800000e-07	-5.141106e-06	-1.746945e-09	-3.648186e+01	-1.120685e+02
3.900000e-07	-5.125765e-06	-1.716251e-09	-3.637300e+01	-1.119294e+02
4.000000e-07	-5.109852e-06	-1.758687e-09	-3.626008e+01	-1.117806e+02
4.100000e-07	-5.093487e-06	-1.744259e-09	-3.614395e+01	-1.116231e+02
4.200000e-07	-5.076719e-06	-1.710157e-09	-3.602496e+01	-1.114576e+02
4.300000e-07	-5.059682e-06	-1.762715e-09	-3.590407e+01	-1.112852e+02
4.400000e-07	-5.042357e-06	-1.774902e-09	-3.578113e+01	-1.111069e+02
4.500000e-07	-5.024737e-06	-1.709100e-09	-3.565609e+01	-1.109236e+02
4.600000e-07	-5.006789e-06	-1.718323e-09	-3.552873e+01	-1.107364e+02
4.700000e-07	-4.988425e-06	-1.760176e-09	-3.539842e+01	-1.105463e+02
4.800000e-07	-4.969643e-06	-1.739387e-09	-3.526514e+01	-1.103541e+02
4.900000e-07	-4.950511e-06	-1.708002e-09	-3.512938e+01	-1.101608e+02
5.000000e-07	-4.931067e-06	-1.727487e-09	-3.499140e+01	-1.099669e+02
5.100000e-07	-4.911355e-06	-1.732447e-09	-3.485152e+01	-1.097733e+02
5.200000e-07	-4.891440e-06	-1.737098e-09	-3.471021e+01	-1.095803e+02
5.300000e-07	-4.871287e-06	-1.726952e-09	-3.456719e+01	-1.093884e+02
5.400000e-07	-4.850841e-06	-1.708747e-09	-3.442211e+01	-1.091978e+02
5.500000e-07	-4.830122e-06	-1.707797e-09	-3.427509e+01	-1.090085e+02
5.600000e-07	-4.809065e-06	-1.733195e-09	-3.412566e+01	-1.088206e+02
5.700000e-07	-4.787597e-06	-1.713885e-09	-3.397332e+01	-1.086338e+02
5.800000e-07	-4.765812e-06	-1.695734e-09	-3.381874e+01	-1.084478e+02
5.900000e-07	-4.743748e-06	-1.703816e-09	-3.366217e+01	-1.082622e+02
6.000000e-07	-4.721438e-06	-1.712884e-09	-3.350385e+01	-1.080764e+02
6.100000e-07	-4.698737e-06	-1.697592e-09	-3.334276e+01	-1.078898e+02
6.200000e-07	-4.675611e-06	-1.682768e-09	-3.317866e+01	-1.077017e+02
6.300000e-07	-4.652193e-06	-1.665398e-09	-3.301248e+01	-1.075112e+02
6.400000e-07	-4.628518e-06	-1.673620e-09	-3.284448e+01	-1.073177e+02
6.500000e-07	-4.604589e-06	-1.689758e-09	-3.267468e+01	-1.071202e+02
6.600000e-07	-4.580440e-06	-1.678872e-09	-3.250331e+01	-1.069178e+02
6.700000e-07	-4.556074e-06	-1.657968e-09	-3.233041e+01	-1.067100e+02
6.800000e-07	-4.531394e-06	-1.669991e-09	-3.215528e+01	-1.064957e+02
6.900000e-07	-4.506354e-06	-1.678460e-09	-3.197759e+01	-1.062745e+02
7.000000e-07	-4.480847e-06	-1.659438e-09	-3.179659e+01	-1.060456e+02
7.100000e-07	-4.454741e-06	-1.641008e-09	-3.161134e+01	-1.058086e+02
7.200000e-07	-4.428015e-06	-1.640858e-09	-3.142169e+01	-1.055630e+02
7.300000e-07	-4.400826e-06	-1.651839e-09	-3.122875e+01	-1.053084e+02
7.400000e-07	-4.373357e-06	-1.650223e-09	-3.103383e+01	-1.050449e+02
7.500000e-07	-4.345698e-06	-1.633579e-09	-3.083756e+01	-1.047722e+02
7.600000e-07	-4.317842e-06	-1.622233e-09	-3.063989e+01	-1.044904e+02
7.700000e-07	-4.289751e-06	-1.628639e-09	-3.044055e+01	-1.041998e+02
7.800000e-07	-4.261448e-06	-1.622211e-09	-3.023971e+01	-1.039006e+02
7.900000e-07	-4.232903e-06	-1.602111e-09	-3.003715e+01	-1.035933e+02
8.000000e-07	-4.204033e-06	-1.588247e-09	-2.983229e+01	-1.032783e+02
8.100000e-07	-4.174806e-06	-1.595745e-09	-2.962489e+01	-1.029562e+02
8.200000e-07	-4.145239e-06	-1.599231e-09	-2.941508e+01	-1.026277e+02
8.300000e-07	-4.115399e-06	-1.592267e-09	-2.920333e+01	-1.022935e+02
8.400000e-07	-4.085326e-06	-1.576201e-09	-2.898993e+01	-1.019543e+02
8.500000e-07	-4.055048e-06	-1.572063e-09	-2.877507e+01	-1.016109e+02
8.600000e-07	-4.024508e-06	-1.570565e-09	-2.855836e+01	-1.012640e+02
8.700000e-07	-3.993611e-06	-1.560420e-09	-2.833911e+01	-1.009144e+02
8.800000e-07	-3.962418e-06	-1.542505e-09	-2.811776e+01	-1.005628e+02
8.900000e-07	-3.930996e-06	-1.538944e-09	-2.789479e+01	-1.002099e+02
9.000000e-07	-3.899407e-06	-1.546639e-09	-2.767063e+01	-9.985608e+01
9.100000e-07	-3.867642e-06	-1.547640e-09	-2.744522e+01	-9.950202e+01
9.200000e-07	-3.835677e-06	-1.530547e-09	-2.721839e+01	-9.914807e+01
9.300000e-07	-3.803562e-06	-1.515526e-09	-2.699050e+01	-9.879455e+01
9.400000e-07	-3.771215e-06	-1.510410e-09	-2.676096e+01	-9.844167e+01
9.500000e-07	-3.738542e-06	-1.505884e-09	-2.652911e+01	-9.808953e+01
9.600000e-07	-3.705460e-06	-1.493221e-09	-2.629436e+01	-9.773812e+01
9.700000e-07	-3.671972e-06	-1.485497e-09	-2.605673e+01	-9.738733e+01
9.800000e-07	-3.638028e-06	-1.488201e-09	-2.581585e+01	-9.703693e+01
9.900000e-07	-3.603660e-06	-1.489626e-09	-2.557197e+01	-9.668661e+01
1.000000e-06	-3.568911e-06	-1.476973e-09	-2.532539e+01	-9.633597e+01
1.010000e-06	-3.533787e-06	-1.462865e-09	-2.507615e+01	-9.598452e+01
1.020000e-06	-3.498389e-06	-1.456873e-09	-2.482496e+01	-9.563173e+01
1.030000e-06	-3.462751e-06	-1.452019e-09	-2.457207e+01	-9.527699e+01
1.040000e-06	-3.426981e-06	-1.443342e-09	-2.431824e+01	-9.491966e+01
1.050000e-06	-3.391126e-06	-1.435793e-09	-2.406381e+01	-9.455908e+01
1.060000e-06	-3.355099e-06	-1.435435e-09	-2.380816e+01	-9.419458e+01
1.070000e-06	-3.318851e-06	-1.435570e-09	-2.355094e+01	-9.382548e+01
1.080000e-06	-3.282429e-06	-1.429300e-09	-2.329249e+01	-9.345113e+01
1.090000e-06	-3.245778e-06	-1.414823e-09	-2.303240e+01	-9.307090e+01
1.100000e-06	-3.208842e-06	-1.404060e-09	-2.277030e+01	-9.268420e+01
1.110000e-06	-3.171627e-06	-1.400923e-09	-2.250622e+01	-9.229051e+01
1.120000e-06	-3.134178e-06	-1.397547e-09	-2.224047e+01	-9.188934e+01
1.130000e-06	-3.096538e-06	-1.386450e-09	-2.197338e+01	-9.148027e+01
1.140000e-06	-3.058697e-06	-1.378943e-09	-2.170485e+01	-9.106296e+01
1.150000e-06	-3.020679e-06	-1.376686e-09	-2.143507e+01	-9.063714e+01
1.160000e-06	-2.982485e-06	-1.372081e-09	-2.116404e+01	-9.020258e+01
1.170000e-06	-2.944071e-06	-1.358840e-09	-2.089145e+01	-8.975916e+01
1.180000e-06	-2.905485e-06	-1.346530e-09	-2.061765e+01	-8.930679e+01
1.190000e-06	-2.866721e-06	-1.340044e-09	-2.034257e+01	-8.884545e+01
1.200000e-06	-2.827715e-06	-1.337033e-09	-2.006578e+01	-8.837519e+01
1.210000e-06	-2.788457e-06	-1.328053e-09	-1.978720e+01	-8.789607e+01
1.220000e-06	-2.749022e-06	-1.318800e-09	-1.950737e+01	-8.740821e+01
1.230000e-06	-2.709436e-06	-1.313048e-09	-1.922646e+01	-8.691173e+01
1.240000e-06	-2.669682e-06	-1.307322e-09	-1.894436e+01	-8.640680e+01
1.250000e-06	-2.629882e-06	-1.296062e-09	-1.866193e+01	-8.589355e+01
1.260000e-06	-2.589984e-06	-1.285728e-09	-1.837882e+01	-8.537214e+01
1.270000e-06	-2.549957e-06	-1.276792e-09	-1.809478e+01	-8.484270e+01
1.280000e-06	-2.509886e-06	-1.267924e-09	-1.781043e+01	-8.430534e+01
1.290000e-06	-2.469671e-06	-1.259014e-09	-1.752506e+01	-8.376013e+01
1.300000e-06	-2.429219e-06	-1.251008e-09	-1.723801e+01	-8.320710e+01
1.310000e-06	-2.388510e-06	-1.242798e-09	-1.694913e+01	-8.264626e+01
1.320000e-06	-2.347590e-06	-1.233840e-09	-1.665876e+01	-8.207755e+01
1.330000e-06	-2.306536e-06	-1.222872e-09	-1.636744e+01	-8.150087e+01
1.340000e-06	-2.265298e-06	-1.210785e-09	-1.607481e+01	-8.091608e+01
1.350000e-06	-2.223812e-06	-1.202113e-09	-1.578042e+01	-8.032299e+01
1.360000e-06	-2.181954e-06	-1.193825e-09	-1.548339e+01	-7.972137e+01
1.370000e-06	-2.139708e-06	-1.184431e-09	-1.518360e+01	-7.911096e+01
1.380000e-06	-2.097242e-06	-1.172821e-09	-1.488227e+01	-7.849144e+01
1.390000e-06	-2.054617e-06	-1.159656e-09	-1.457979e+01	-7.786251e+01
1.400000e-06	-2.011709e-06	-1.146266e-09	-1.427531e+01	-7.722382e+01
1.410000e-06	-1.968550e-06	-1.135217e-09	-1.396905e+01	-7.657505e+01
1.420000e-06	-1.925295e-06	-1.125474e-09	-1.366211e+01	-7.591584e+01
1.430000e-06	-1.881967e-06	-1.116764e-09	-1.335465e+01	-7.524590e+01
1.440000e-06	-1.838501e-06	-1.106255e-09	-1.304621e+01	-7.456490e+01
1.450000e-06	-1.794796e-06	-1.093956e-09	-1.273607e+01	-7.387260e+01
1.460000e-06	-1.750983e-06	-1.081478e-09	-1.242517e+01	-7.316877e+01
1.470000e-06	-1.707171e-06	-1.069840e-09	-1.211428e+01	-7.245323e+01
1.480000e-06	-1.663290e-06	-1.057740e-09	-1.180289e+01	-7.172587e+01
1.490000e-06	-1.619335e-06	-1.045815e-09	-1.149098e+01	-7.098661e+01
1.500000e-06	-1.575329e-06	-1.035547e-09	-1.117871e+01	-7.023546e+01
1.510000e-06	-1.531260e-06	-1.027235e-09	-1.086600e+01	-6.947248e+01
1.520000e-06	-1.487084e-06	-1.015786e-09	-1.055252e+01	-6.869780e+01
1.530000e-06	-1.442816e-06	-9.995592e-10	-1.023838e+01	-6.791161e+01
1.540000e-06	-1.398456e-06	-9.823192e-10	-9.923599e+00	-6.711414e+01
1.550000e-06	-1.354017e-06	-9.685075e-10	-9.608259e+00	-6.630568e+01
1.560000e-06	-1.309563e-06	-9.564850e-10	-9.292803e+00	-6.548659e+01
1.570000e-06	-1.265053e-06	-9.444233e-10	-8.976955e+00	-6.465722e+01
1.580000e-06	-1.220410e-06	-9.322043e-10	-8.660163e+00	-6.381798e+01
1.590000e-06	-1.175613e-06	-9.216210e-10	-8.342282e+00	-6.296929e+01
1.600000e-06	-1.130707e-06	-9.122401e-10	-8.023623e+00	-6.211157e+01
1.610000e-06	-1.085690e-06	-9.004454e-10	-7.704175e+00	-6.124522e+01
1.620000e-06	-1.040570e-06	-8.818467e-10	-7.384001e+00	-6.037065e+01
1.630000e-06	-9.953467e-07	-8.626862e-10	-7.063092e+00	-5.948822e+01
1.640000e-06	-9.499989e-07	-8.477656e-10	-6.741299e+00	-5.859825e+01
1.650000e-06	-9.046341e-07	-8.356646e-10	-6.419384e+00	-5.770102e+01
1.660000e-06	-8.593013e-07	-8.246080e-10	-6.097698e+00	-5.679674e+01
1.670000e-06	-8.138954e-07	-8.167340e-10	-5.775493e+00	-5.588555e+01
1.680000e-06	-7.684558e-07	-8.105407e-10	-5.453048e+00	-5.496754e+01
1.690000e-06	-7.230600e-07	-7.978219e-10	-5.130915e+00	-5.404269e+01
1.700000e-06	-6.776005e-07	-7.781820e-10	-4.808329e+00	-5.311091e+01
1.710000e-06	-6.320092e-07	-7.565061e-10	-4.484808e+00	-5.217204e+01
1.720000e-06	-5.863300e-07	-7.385119e-10	-4.160663e+00	-5.122584e+01
1.730000e-06	-5.406131e-07	-7.248724e-10	-3.836251e+00	-5.027196e+01
1.740000e-06	-4.948805e-07	-7.114906e-10	-3.511727e+00	-4.931002e+01
1.750000e-06	-4.491131e-07	-6.990751e-10	-3.186957e+00	-4.833954e+01
1.760000e-06	-4.033496e-07	-6.911610e-10	-2.862214e+00	-4.736000e+01
1.770000e-06	-3.575917e-07	-6.812033e-10	-2.537511e+00	-4.637082e+01
1.780000e-06	-3.117598e-07	-6.644183e-10	-2.212282e+00	-4.537140e+01
1.790000e-06	-2.659427e-07	-6.416106e-10	-1.887159e+00	-4.436110e+01
1.800000e-06	-2.201556e-07	-6.191550e-10	-1.562249e+00	-4.333925e+01
1.810000e-06	-1.742715e-07	-6.008610e-10	-1.236650e+00	-4.230520e+01
1.820000e-06	-1.283147e-07	-5.857587e-10	-9.105355e-01	-4.125830e+01
1.830000e-06	-8.238860e-08	-5.717476e-10	-5.846387e-01	-4.019794e+01
1.840000e-06	-3.646958e-08	-5.596467e-10	-2.587922e-01	-3.912351e+01
1.850000e-06	9.381513e-09	-5.460571e-10	6.657227e-02	-3.803447e+01
1.860000e-06	5.514104e-08	-5.304319e-10	3.912870e-01	-3.693033e+01
1.870000e-06	1.009867e-07	-5.108512e-10	7.166130e-01	-3.581067e+01
1.880000e-06	1.468534e-07	-4.886654e-10	1.042088e+00	-3.467511e+01
1.890000e-06	1.926487e-07	-4.692309e-10	1.367057e+00	-3.352339e+01
1.900000e-06	2.384695e-07	-4.524447e-10	1.692206e+00	-3.235530e+01
1.910000e-06	2.843003e-07	-4.347072e-10	2.017427e+00	-3.117071e+01
1.920000e-06	3.300704e-07	-4.174876e-10	2.342217e+00	-2.996960e+01
1.930000e-06	3.758571e-07	-4.030905e-10	2.667124e+00	-2.875200e+01
1.940000e-06	4.216859e-07	-3.889272e-10	2.992330e+00	-2.751803e+01
1.950000e-06	4.674395e-07	-3.728022e-10	3.317003e+00	-2.626790e+01
1.960000e-06	5.131074e-07	-3.535438e-10	3.641067e+00	-2.500185e+01
1.970000e-06	5.587639e-07	-3.319739e-10	3.965051e+00	-2.372021e+01
1.980000e-06	6.044167e-07	-3.100863e-10	4.289009e+00	-2.242336e+01
1.990000e-06	6.499962e-07	-2.896067e-10	4.612446e+00	-2.111171e+01
2.000000e-06	6.954342e-07	-2.700078e-10	4.934879e+00	-1.978571e+01
2.010000e-06	7.408492e-07	-2.514041e-10	5.257149e+00	-1.844585e+01
2.020000e-06	7.862911e-07	-2.335455e-10	5.579609e+00	-1.709261e+01
2.030000e-06	8.316519e-07	-2.168954e-10	5.901495e+00	-1.572650e+01
2.040000e-06	8.769419e-07	-1.999649e-10	6.222877e+00	-1.434800e+01
2.050000e-06	9.222161e-07	-1.804021e-10	6.544149e+00	-1.295763e+01
2.060000e-06	9.674310e-07	-1.584731e-10	6.864999e+00	-1.155584e+01
2.070000e-06	1.012485e-06	-1.368230e-10	7.184708e+00	-1.014309e+01
2.080000e-06	1.057458e-06	-1.149185e-10	7.503841e+00	-8.719815e+00
2.090000e-06	1.102376e-06	-9.292939e-11	7.822585e+00	-7.286420e+00
2.100000e-06	1.147153e-06	-7.090819e-11	8.140327e+00	-5.843279e+00
2.110000e-06	1.191843e-06	-5.278669e-11	8.457448e+00	-4.390743e+00
2.120000e-06	1.236455e-06	-3.645454e-11	8.774020e+00	-2.929135e+00
2.130000e-06	1.280941e-06	-1.756475e-11	9.089698e+00	-1.458759e+00
2.140000e-06	1.325277e-06	3.818651e-12	9.404311e+00	2.009797e-02
2.150000e-06	1.369537e-06	2.731115e-11	9.718387e+00	1.507162e+00
2.160000e-06	1.413782e-06	5.270204e-11	1.003235e+01	3.002161e+00
2.170000e-06	1.457963e-06	7.806414e-11	1.034587e+01	4.504823e+00
2.180000e-06	1.502064e-06	1.026460e-10	1.065881e+01	6.014863e+00
2.190000e-06	1.546081e-06	1.257866e-10	1.097116e+01	7.531978e+00
2.200000e-06	1.590029e-06	1.454781e-10	1.128302e+01	9.055837e+00
2.210000e-06	1.633965e-06	1.643269e-10	1.159480e+01	1.058607e+01
2.220000e-06	1.677900e-06	1.870589e-10	1.190657e+01	1.212228e+01
2.230000e-06	1.721769e-06	2.113959e-10	1.221787e+01	1.366401e+01
2.240000e-06	1.765556e-06	2.339445e-10	1.252858e+01	1.521074e+01
2.250000e-06	1.809245e-06	2.553883e-10	1.283860e+01	1.676191e+01
2.260000e-06	1.852848e-06	2.769214e-10	1.314802e+01	1.831688e+01
2.270000e-06	1.896401e-06	2.995669e-10	1.345707e+01	1.987496e+01
2.280000e-06	1.939817e-06	3.206757e-10	1.376516e+01	2.143540e+01
2.290000e-06	1.983053e-06	3.403313e-10	1.407197e+01	2.299736e+01
2.300000e-06	2.026124e-06	3.623243e-10	1.437760e+01	2.455998e+01
2.310000e-06	2.069067e-06	3.883939e-10	1.468233e+01	2.612230e+01
2.320000e-06	2.111754e-06	4.132492e-10	1.498524e+01	2.768336e+01
2.330000e-06	2.154109e-06	4.337001e-10	1.528580e+01	2.924211e+01
2.340000e-06	2.196107e-06	4.510001e-10	1.558382e+01	3.079750e+01
2.350000e-06	2.237750e-06	4.697131e-10	1.587932e+01	3.234844e+01
2.360000e-06	2.279084e-06	4.903455e-10	1.617263e+01	3.389382e+01
2.370000e-06	2.320185e-06	5.142814e-10	1.646429e+01	3.543255e+01
2.380000e-06	2.361073e-06	5.412504e-10	1.675444e+01	3.696351e+01
2.390000e-06	2.401631e-06	5.686747e-10	1.704224e+01	3.848562e+01
2.400000e-06	2.441967e-06	5.927402e-10	1.732847e+01	3.999783e+01
2.410000e-06	2.482206e-06	6.118927e-10	1.761401e+01	4.149912e+01
2.420000e-06	2.522363e-06	6.277925e-10	1.789897e+01	4.298851e+01
2.430000e-06	2.562405e-06	6.448623e-10	1.818311e+01	4.446507e+01
2.440000e-06	2.602351e-06	6.653821e-10	1.846657e+01	4.592796e+01
2.450000e-06	2.642205e-06	6.863255e-10	1.874938e+01	4.737638e+01
2.460000e-06	2.681938e-06	7.079831e-10	1.903133e+01	4.880961e+01
2.470000e-06	2.721585e-06	7.323093e-10	1.931267e+01	5.022699e+01
2.480000e-06	2.761092e-06	7.569017e-10	1.959302e+01	5.162798e+01
2.490000e-06	2.800303e-06	7.796411e-10	1.987127e+01	5.301205e+01
2.500000e-06	2.839270e-06	8.003953e-10	2.014778e+01	5.437880e+01
2.510000e-06	2.878067e-06	8.185116e-10	2.042308e+01	5.572788e+01
2.520000e-06	2.916660e-06	8.350058e-10	2.069694e+01	5.705899e+01
2.530000e-06	2.954992e-06	8.517184e-10	2.096895e+01	5.837191e+01
2.540000e-06	2.993044e-06	8.690272e-10	2.123898e+01	5.966648e+01
2.550000e-06	3.030955e-06	8.881420e-10	2.150799e+01	6.094256e+01
2.560000e-06	3.068786e-06	9.111382e-10	2.177645e+01	6.220008e+01
2.570000e-06	3.106413e-06	9.317790e-10	2.204345e+01	6.343897e+01
2.580000e-06	3.143793e-06	9.481337e-10	2.230870e+01	6.465922e+01
2.590000e-06	3.181018e-06	9.642685e-10	2.257286e+01	6.586079e+01
2.600000e-06	3.217999e-06	9.812560e-10	2.283528e+01	6.704369e+01
2.610000e-06	3.254682e-06	9.984202e-10	2.309559e+01	6.820790e+01
2.620000e-06	3.291135e-06	1.014498e-09	2.335426e+01	6.935341e+01
2.630000e-06	3.327380e-06	1.031105e-09	2.361146e+01	7.048020e+01
2.640000e-06	3.363466e-06	1.049960e-09	2.386753e+01	7.158825e+01
2.650000e-06	3.399449e-06	1.067935e-09	2.412287e+01	7.267748e+01
2.660000e-06	3.435303e-06	1.080670e-09	2.437729e+01	7.374785e+01
2.670000e-06	3.470971e-06	1.088722e-09	2.463040e+01	7.479926e+01
2.680000e-06	3.506500e-06	1.097836e-09	2.488251e+01	7.583162e+01
2.690000e-06	3.541894e-06	1.110987e-09	2.513368e+01	7.684482e+01
2.700000e-06	3.577033e-06	1.127566e-09	2.538303e+01	7.783875e+01
2.710000e-06	3.611762e-06	1.148011e-09	2.562947e+01	7.881329e+01
2.720000e-06	3.645944e-06	1.171563e-09	2.587203e+01	7.976833e+01
2.730000e-06	3.679594e-06	1.192496e-09	2.611081e+01	8.070377e+01
2.740000e-06	3.712825e-06	1.204475e-09	2.634662e+01	8.161953e+01
2.750000e-06	3.745624e-06	1.207177e-09	2.657937e+01	8.251555e+01
2.760000e-06	3.778087e-06	1.209873e-09	2.680973e+01	8.339181e+01
2.770000e-06	3.810306e-06	1.217687e-09	2.703835e+01	8.424834e+01
2.780000e-06	3.842282e-06	1.232035e-09	2.726526e+01	8.508518e+01
2.790000e-06	3.874132e-06	1.250673e-09	2.749127e+01	8.590247e+01
2.800000e-06	3.905918e-06	1.270489e-09	2.771683e+01	8.670038e+01
2.810000e-06	3.937513e-06	1.288932e-09	2.794103e+01	8.747914e+01
2.820000e-06	3.968853e-06	1.300573e-09	2.816343e+01	8.823905e+01
2.830000e-06	3.999898e-06	1.302951e-09	2.838372e+01	8.898047e+01
2.840000e-06	4.030579e-06	1.302867e-09	2.860144e+01	8.970382e+01
2.850000e-06	4.061014e-06	1.308251e-09	2.881741e+01	9.040958e+01
2.860000e-06	4.091192e-06	1.320569e-09	2.903155e+01	9.109828e+01
2.870000e-06	4.121083e-06	1.336988e-09	2.924366e+01	9.177051e+01
2.880000e-06	4.150756e-06	1.353268e-09	2.945423e+01	9.242687e+01
2.890000e-06	4.180196e-06	1.366652e-09	2.966314e+01	9.306804e+01
2.900000e-06	4.209343e-06	1.375844e-09	2.986997e+01	9.369468e+01
