# Temperatura_=_4.99
# Concentracion g/m^3_=_4090.0
# C_Vs_to_Am_M_A/Vsm_=_65563218390.804596
# pendiente_HvsI_1/m_=_3716.3
# ordenada_HvsI_A/m_=_1297.0
# frecuencia_Hz_=_135067.3011914342

Tiempo_(s)	Campo_(V.s)	Magnetizacion_(V.s)	Campo_(kA/m)	Magnetizacion_(A/m)
0.000000e+00	-5.416425e-06	-2.502130e-09	-3.840538e+01	-1.640423e+02
1.000000e-08	-5.416416e-06	-2.505888e-09	-3.840532e+01	-1.639418e+02
2.000000e-08	-5.416232e-06	-2.509058e-09	-3.840401e+01	-1.638467e+02
3.000000e-08	-5.415744e-06	-2.510879e-09	-3.840055e+01	-1.637588e+02
4.000000e-08	-5.414798e-06	-2.515082e-09	-3.839384e+01	-1.636797e+02
5.000000e-08	-5.413321e-06	-2.516145e-09	-3.838337e+01	-1.636107e+02
6.000000e-08	-5.411252e-06	-2.504119e-09	-3.836870e+01	-1.635533e+02
7.000000e-08	-5.408565e-06	-2.467207e-09	-3.834965e+01	-1.635085e+02
8.000000e-08	-5.405246e-06	-2.436632e-09	-3.832611e+01	-1.634772e+02
9.000000e-08	-5.401372e-06	-2.519684e-09	-3.829865e+01	-1.634599e+02
1.000000e-07	-5.397092e-06	-2.643424e-09	-3.826830e+01	-1.634572e+02
1.100000e-07	-5.392652e-06	-2.540727e-09	-3.823682e+01	-1.634691e+02
1.200000e-07	-5.388084e-06	-2.394063e-09	-3.820443e+01	-1.634955e+02
1.300000e-07	-5.383141e-06	-2.488153e-09	-3.816938e+01	-1.635359e+02
1.400000e-07	-5.377744e-06	-2.647103e-09	-3.813111e+01	-1.635898e+02
1.500000e-07	-5.371936e-06	-2.525510e-09	-3.808993e+01	-1.636561e+02
1.600000e-07	-5.365884e-06	-2.276112e-09	-3.804702e+01	-1.637336e+02
1.700000e-07	-5.359526e-06	-2.445269e-09	-3.800193e+01	-1.638210e+02
1.800000e-07	-5.352621e-06	-2.681099e-09	-3.795297e+01	-1.639167e+02
1.900000e-07	-5.345329e-06	-2.592024e-09	-3.790127e+01	-1.640189e+02
2.000000e-07	-5.337933e-06	-2.397300e-09	-3.784883e+01	-1.641256e+02
2.100000e-07	-5.330342e-06	-2.532481e-09	-3.779500e+01	-1.642348e+02
2.200000e-07	-5.322349e-06	-2.655545e-09	-3.773833e+01	-1.643445e+02
2.300000e-07	-5.314056e-06	-2.515886e-09	-3.767953e+01	-1.644524e+02
2.400000e-07	-5.305412e-06	-2.462849e-09	-3.761824e+01	-1.645565e+02
2.500000e-07	-5.296067e-06	-2.629701e-09	-3.755197e+01	-1.646546e+02
2.600000e-07	-5.285950e-06	-2.650254e-09	-3.748024e+01	-1.647446e+02
2.700000e-07	-5.275253e-06	-2.510216e-09	-3.740440e+01	-1.648247e+02
2.800000e-07	-5.264077e-06	-2.586369e-09	-3.732515e+01	-1.648930e+02
2.900000e-07	-5.252539e-06	-2.694881e-09	-3.724334e+01	-1.649480e+02
3.000000e-07	-5.240664e-06	-2.555609e-09	-3.715914e+01	-1.649880e+02
3.100000e-07	-5.228375e-06	-2.461362e-09	-3.707201e+01	-1.650120e+02
3.200000e-07	-5.215711e-06	-2.644105e-09	-3.698221e+01	-1.650188e+02
3.300000e-07	-5.202670e-06	-2.661194e-09	-3.688974e+01	-1.650078e+02
3.400000e-07	-5.189241e-06	-2.492439e-09	-3.679452e+01	-1.649783e+02
3.500000e-07	-5.175373e-06	-2.504579e-09	-3.669619e+01	-1.649302e+02
3.600000e-07	-5.161035e-06	-2.628295e-09	-3.659453e+01	-1.648634e+02
3.700000e-07	-5.146370e-06	-2.550277e-09	-3.649054e+01	-1.647781e+02
3.800000e-07	-5.131282e-06	-2.504725e-09	-3.638356e+01	-1.646748e+02
3.900000e-07	-5.115443e-06	-2.571873e-09	-3.627125e+01	-1.645541e+02
4.000000e-07	-5.099028e-06	-2.557607e-09	-3.615487e+01	-1.644168e+02
4.100000e-07	-5.082345e-06	-2.499323e-09	-3.603657e+01	-1.642641e+02
4.200000e-07	-5.065337e-06	-2.568061e-09	-3.591598e+01	-1.640970e+02
4.300000e-07	-5.047979e-06	-2.555193e-09	-3.579290e+01	-1.639168e+02
4.400000e-07	-5.030390e-06	-2.464599e-09	-3.566818e+01	-1.637250e+02
4.500000e-07	-5.012495e-06	-2.496711e-09	-3.554130e+01	-1.635228e+02
4.600000e-07	-4.994273e-06	-2.576255e-09	-3.541209e+01	-1.633119e+02
4.700000e-07	-4.975714e-06	-2.526314e-09	-3.528050e+01	-1.630935e+02
4.800000e-07	-4.956696e-06	-2.491488e-09	-3.514565e+01	-1.628692e+02
4.900000e-07	-4.937274e-06	-2.531371e-09	-3.500794e+01	-1.626403e+02
5.000000e-07	-4.917548e-06	-2.538580e-09	-3.486807e+01	-1.624080e+02
5.100000e-07	-4.897588e-06	-2.513073e-09	-3.472655e+01	-1.621734e+02
5.200000e-07	-4.877443e-06	-2.498435e-09	-3.458371e+01	-1.619378e+02
5.300000e-07	-4.857009e-06	-2.483668e-09	-3.443882e+01	-1.617018e+02
5.400000e-07	-4.836239e-06	-2.497180e-09	-3.429155e+01	-1.614662e+02
5.500000e-07	-4.815176e-06	-2.528594e-09	-3.414220e+01	-1.612317e+02
5.600000e-07	-4.793695e-06	-2.502611e-09	-3.398989e+01	-1.609986e+02
5.700000e-07	-4.771828e-06	-2.474597e-09	-3.383484e+01	-1.607672e+02
5.800000e-07	-4.749735e-06	-2.492885e-09	-3.367819e+01	-1.605375e+02
5.900000e-07	-4.727373e-06	-2.508067e-09	-3.351963e+01	-1.603095e+02
6.000000e-07	-4.704661e-06	-2.484374e-09	-3.335859e+01	-1.600829e+02
6.100000e-07	-4.681502e-06	-2.464774e-09	-3.319438e+01	-1.598574e+02
6.200000e-07	-4.657985e-06	-2.453111e-09	-3.302763e+01	-1.596326e+02
6.300000e-07	-4.634276e-06	-2.470919e-09	-3.285952e+01	-1.594079e+02
6.400000e-07	-4.610350e-06	-2.481031e-09	-3.268987e+01	-1.591826e+02
6.500000e-07	-4.586253e-06	-2.457262e-09	-3.251901e+01	-1.589562e+02
6.600000e-07	-4.561967e-06	-2.434030e-09	-3.234681e+01	-1.587277e+02
6.700000e-07	-4.537341e-06	-2.459680e-09	-3.217220e+01	-1.584967e+02
6.800000e-07	-4.512228e-06	-2.467256e-09	-3.199413e+01	-1.582622e+02
6.900000e-07	-4.486535e-06	-2.444079e-09	-3.181196e+01	-1.580236e+02
7.000000e-07	-4.460346e-06	-2.424435e-09	-3.162627e+01	-1.577803e+02
7.100000e-07	-4.433773e-06	-2.429103e-09	-3.143785e+01	-1.575317e+02
7.200000e-07	-4.406770e-06	-2.429960e-09	-3.124638e+01	-1.572772e+02
7.300000e-07	-4.379402e-06	-2.417415e-09	-3.105233e+01	-1.570165e+02
7.400000e-07	-4.351719e-06	-2.393287e-09	-3.085604e+01	-1.567491e+02
7.500000e-07	-4.323759e-06	-2.394587e-09	-3.065778e+01	-1.564749e+02
7.600000e-07	-4.295672e-06	-2.413835e-09	-3.045864e+01	-1.561936e+02
7.700000e-07	-4.267463e-06	-2.418343e-09	-3.025862e+01	-1.559054e+02
7.800000e-07	-4.239007e-06	-2.400107e-09	-3.005685e+01	-1.556101e+02
7.900000e-07	-4.210201e-06	-2.389623e-09	-2.985260e+01	-1.553080e+02
8.000000e-07	-4.180966e-06	-2.384876e-09	-2.964531e+01	-1.549992e+02
8.100000e-07	-4.151430e-06	-2.372452e-09	-2.943588e+01	-1.546841e+02
8.200000e-07	-4.121690e-06	-2.354195e-09	-2.922501e+01	-1.543631e+02
8.300000e-07	-4.091663e-06	-2.344035e-09	-2.901210e+01	-1.540365e+02
8.400000e-07	-4.061312e-06	-2.353503e-09	-2.879689e+01	-1.537047e+02
8.500000e-07	-4.030708e-06	-2.365177e-09	-2.857990e+01	-1.533683e+02
8.600000e-07	-3.999812e-06	-2.361662e-09	-2.836083e+01	-1.530276e+02
8.700000e-07	-3.968655e-06	-2.346334e-09	-2.813991e+01	-1.526831e+02
8.800000e-07	-3.937319e-06	-2.337465e-09	-2.791772e+01	-1.523352e+02
8.900000e-07	-3.905754e-06	-2.333449e-09	-2.769390e+01	-1.519843e+02
9.000000e-07	-3.873984e-06	-2.323949e-09	-2.746864e+01	-1.516307e+02
9.100000e-07	-3.842053e-06	-2.305611e-09	-2.724223e+01	-1.512746e+02
9.200000e-07	-3.809963e-06	-2.299589e-09	-2.701470e+01	-1.509164e+02
9.300000e-07	-3.777649e-06	-2.303889e-09	-2.678557e+01	-1.505560e+02
9.400000e-07	-3.745039e-06	-2.304922e-09	-2.655435e+01	-1.501935e+02
9.500000e-07	-3.712127e-06	-2.292935e-09	-2.632099e+01	-1.498289e+02
9.600000e-07	-3.678845e-06	-2.285079e-09	-2.608500e+01	-1.494621e+02
9.700000e-07	-3.645058e-06	-2.279664e-09	-2.584543e+01	-1.490930e+02
9.800000e-07	-3.610770e-06	-2.272747e-09	-2.560231e+01	-1.487212e+02
9.900000e-07	-3.575976e-06	-2.255538e-09	-2.535560e+01	-1.483465e+02
1.000000e-06	-3.540745e-06	-2.244926e-09	-2.510579e+01	-1.479686e+02
1.010000e-06	-3.505310e-06	-2.241373e-09	-2.485454e+01	-1.475870e+02
1.020000e-06	-3.469757e-06	-2.237487e-09	-2.460245e+01	-1.472014e+02
1.030000e-06	-3.433979e-06	-2.226419e-09	-2.434877e+01	-1.468113e+02
1.040000e-06	-3.398021e-06	-2.219097e-09	-2.409381e+01	-1.464163e+02
1.050000e-06	-3.361975e-06	-2.215765e-09	-2.383822e+01	-1.460159e+02
1.060000e-06	-3.325796e-06	-2.212412e-09	-2.358169e+01	-1.456098e+02
1.070000e-06	-3.289418e-06	-2.203219e-09	-2.332375e+01	-1.451977e+02
1.080000e-06	-3.252760e-06	-2.191354e-09	-2.306382e+01	-1.447790e+02
1.090000e-06	-3.215857e-06	-2.182299e-09	-2.280216e+01	-1.443537e+02
1.100000e-06	-3.178712e-06	-2.177737e-09	-2.253879e+01	-1.439214e+02
1.110000e-06	-3.141272e-06	-2.169014e-09	-2.227332e+01	-1.434820e+02
1.120000e-06	-3.103689e-06	-2.156365e-09	-2.200683e+01	-1.430354e+02
1.130000e-06	-3.065940e-06	-2.147442e-09	-2.173917e+01	-1.425815e+02
1.140000e-06	-3.027897e-06	-2.143256e-09	-2.146943e+01	-1.421203e+02
1.150000e-06	-2.989690e-06	-2.135720e-09	-2.119852e+01	-1.416519e+02
1.160000e-06	-2.951315e-06	-2.121852e-09	-2.092642e+01	-1.411765e+02
1.170000e-06	-2.912653e-06	-2.111965e-09	-2.065228e+01	-1.406941e+02
1.180000e-06	-2.873766e-06	-2.105973e-09	-2.037655e+01	-1.402050e+02
1.190000e-06	-2.834660e-06	-2.098100e-09	-2.009927e+01	-1.397094e+02
1.200000e-06	-2.795374e-06	-2.083529e-09	-1.982071e+01	-1.392075e+02
1.210000e-06	-2.755908e-06	-2.072337e-09	-1.954088e+01	-1.386996e+02
1.220000e-06	-2.716209e-06	-2.064480e-09	-1.925939e+01	-1.381859e+02
1.230000e-06	-2.676393e-06	-2.058974e-09	-1.897707e+01	-1.376666e+02
1.240000e-06	-2.636557e-06	-2.051003e-09	-1.869461e+01	-1.371418e+02
1.250000e-06	-2.596620e-06	-2.045414e-09	-1.841144e+01	-1.366117e+02
1.260000e-06	-2.556507e-06	-2.036512e-09	-1.812701e+01	-1.360763e+02
1.270000e-06	-2.516322e-06	-2.024471e-09	-1.784208e+01	-1.355357e+02
1.280000e-06	-2.476148e-06	-2.010210e-09	-1.755722e+01	-1.349897e+02
1.290000e-06	-2.435801e-06	-1.999181e-09	-1.727115e+01	-1.344382e+02
1.300000e-06	-2.395180e-06	-1.990613e-09	-1.698312e+01	-1.338811e+02
1.310000e-06	-2.354380e-06	-1.981885e-09	-1.669383e+01	-1.333179e+02
1.320000e-06	-2.313385e-06	-1.972491e-09	-1.640315e+01	-1.327482e+02
1.330000e-06	-2.272167e-06	-1.965179e-09	-1.611089e+01	-1.321717e+02
1.340000e-06	-2.230636e-06	-1.957382e-09	-1.581642e+01	-1.315878e+02
1.350000e-06	-2.188682e-06	-1.944670e-09	-1.551894e+01	-1.309957e+02
1.360000e-06	-2.146378e-06	-1.930016e-09	-1.521898e+01	-1.303949e+02
1.370000e-06	-2.103941e-06	-1.918393e-09	-1.491808e+01	-1.297847e+02
1.380000e-06	-2.061362e-06	-1.908258e-09	-1.461617e+01	-1.291642e+02
1.390000e-06	-2.018486e-06	-1.897841e-09	-1.431216e+01	-1.285326e+02
1.400000e-06	-1.975397e-06	-1.887806e-09	-1.400663e+01	-1.278892e+02
1.410000e-06	-1.932163e-06	-1.880526e-09	-1.370008e+01	-1.272332e+02
1.420000e-06	-1.888756e-06	-1.873483e-09	-1.339230e+01	-1.265636e+02
1.430000e-06	-1.845172e-06	-1.861970e-09	-1.308327e+01	-1.258798e+02
1.440000e-06	-1.801459e-06	-1.845995e-09	-1.277332e+01	-1.251810e+02
1.450000e-06	-1.757670e-06	-1.830755e-09	-1.246283e+01	-1.244665e+02
1.460000e-06	-1.713818e-06	-1.819014e-09	-1.215189e+01	-1.237356e+02
1.470000e-06	-1.669902e-06	-1.804778e-09	-1.184051e+01	-1.229876e+02
1.480000e-06	-1.625883e-06	-1.789680e-09	-1.152839e+01	-1.222222e+02
1.490000e-06	-1.581800e-06	-1.777893e-09	-1.121582e+01	-1.214388e+02
1.500000e-06	-1.537679e-06	-1.769264e-09	-1.090298e+01	-1.206370e+02
1.510000e-06	-1.493503e-06	-1.758120e-09	-1.058974e+01	-1.198165e+02
1.520000e-06	-1.449221e-06	-1.741131e-09	-1.027576e+01	-1.189770e+02
1.530000e-06	-1.404789e-06	-1.725138e-09	-9.960716e+00	-1.181182e+02
1.540000e-06	-1.360320e-06	-1.714672e-09	-9.645401e+00	-1.172401e+02
1.550000e-06	-1.315884e-06	-1.702264e-09	-9.330328e+00	-1.163424e+02
1.560000e-06	-1.271364e-06	-1.685230e-09	-9.014658e+00	-1.154251e+02
1.570000e-06	-1.226652e-06	-1.667892e-09	-8.697627e+00	-1.144880e+02
1.580000e-06	-1.181793e-06	-1.656518e-09	-8.379550e+00	-1.135312e+02
1.590000e-06	-1.136876e-06	-1.645858e-09	-8.061062e+00	-1.125544e+02
1.600000e-06	-1.091914e-06	-1.631304e-09	-7.742263e+00	-1.115575e+02
1.610000e-06	-1.046798e-06	-1.612787e-09	-7.422364e+00	-1.105404e+02
1.620000e-06	-1.001574e-06	-1.598152e-09	-7.101701e+00	-1.095028e+02
1.630000e-06	-9.562537e-07	-1.584130e-09	-6.780355e+00	-1.084444e+02
1.640000e-06	-9.108337e-07	-1.565439e-09	-6.458303e+00	-1.073649e+02
1.650000e-06	-8.653934e-07	-1.545234e-09	-6.136106e+00	-1.062636e+02
1.660000e-06	-8.199299e-07	-1.530429e-09	-5.813746e+00	-1.051401e+02
1.670000e-06	-7.744220e-07	-1.519549e-09	-5.491070e+00	-1.039935e+02
1.680000e-06	-7.288907e-07	-1.503474e-09	-5.168229e+00	-1.028232e+02
1.690000e-06	-6.832827e-07	-1.480861e-09	-4.844844e+00	-1.016282e+02
1.700000e-06	-6.376166e-07	-1.459601e-09	-4.521046e+00	-1.004074e+02
1.710000e-06	-5.919512e-07	-1.442480e-09	-4.197254e+00	-9.915967e+01
1.720000e-06	-5.462418e-07	-1.422164e-09	-3.873149e+00	-9.788374e+01
1.730000e-06	-5.004746e-07	-1.395983e-09	-3.548636e+00	-9.657824e+01
1.740000e-06	-4.546498e-07	-1.373597e-09	-3.223713e+00	-9.524174e+01
1.750000e-06	-4.088255e-07	-1.360693e-09	-2.898794e+00	-9.387271e+01
1.760000e-06	-3.629375e-07	-1.348029e-09	-2.573423e+00	-9.246957e+01
1.770000e-06	-3.169848e-07	-1.326347e-09	-2.247593e+00	-9.103069e+01
1.780000e-06	-2.711410e-07	-1.299518e-09	-1.922536e+00	-8.955444e+01
1.790000e-06	-2.253390e-07	-1.276987e-09	-1.597775e+00	-8.803917e+01
1.800000e-06	-1.794515e-07	-1.254767e-09	-1.272408e+00	-8.648323e+01
1.810000e-06	-1.334927e-07	-1.228069e-09	-9.465352e-01	-8.488503e+01
1.820000e-06	-8.752291e-08	-1.198918e-09	-6.205848e-01	-8.324303e+01
1.830000e-06	-4.159837e-08	-1.174859e-09	-2.949550e-01	-8.155575e+01
1.840000e-06	4.267423e-09	-1.153987e-09	3.025834e-02	-7.982182e+01
1.850000e-06	5.011698e-08	-1.129913e-09	3.553565e-01	-7.803997e+01
1.860000e-06	9.601869e-08	-1.100490e-09	6.808244e-01	-7.620904e+01
1.870000e-06	1.419458e-07	-1.071884e-09	1.006472e+00	-7.432803e+01
1.880000e-06	1.878666e-07	-1.047034e-09	1.332076e+00	-7.239608e+01
1.890000e-06	2.337814e-07	-1.017685e-09	1.657636e+00	-7.041247e+01
1.900000e-06	2.796408e-07	-9.792800e-10	1.982804e+00	-6.837669e+01
1.910000e-06	3.254364e-07	-9.399951e-10	2.307520e+00	-6.628835e+01
1.920000e-06	3.712241e-07	-9.077371e-10	2.632180e+00	-6.414726e+01
1.930000e-06	4.169776e-07	-8.793489e-10	2.956596e+00	-6.195339e+01
1.940000e-06	4.627101e-07	-8.477349e-10	3.280865e+00	-5.970690e+01
1.950000e-06	5.084483e-07	-8.149129e-10	3.605173e+00	-5.740809e+01
1.960000e-06	5.541770e-07	-7.850557e-10	3.929414e+00	-5.505745e+01
1.970000e-06	5.998642e-07	-7.537524e-10	4.253361e+00	-5.265560e+01
1.980000e-06	6.454818e-07	-7.148181e-10	4.576815e+00	-5.020332e+01
1.990000e-06	6.910402e-07	-6.726168e-10	4.899849e+00	-4.770152e+01
2.000000e-06	7.365687e-07	-6.339805e-10	5.222670e+00	-4.515125e+01
2.010000e-06	7.820959e-07	-5.988513e-10	5.545483e+00	-4.255366e+01
2.020000e-06	8.275851e-07	-5.620513e-10	5.868025e+00	-3.991002e+01
2.030000e-06	8.730031e-07	-5.222764e-10	6.190064e+00	-3.722170e+01
2.040000e-06	9.183843e-07	-4.837399e-10	6.511841e+00	-3.449016e+01
2.050000e-06	9.636775e-07	-4.453721e-10	6.832994e+00	-3.171693e+01
2.060000e-06	1.008884e-06	-4.027218e-10	7.153535e+00	-2.890364e+01
2.070000e-06	1.054026e-06	-3.553184e-10	7.473617e+00	-2.605196e+01
2.080000e-06	1.098982e-06	-3.096444e-10	7.792378e+00	-2.316364e+01
2.090000e-06	1.143790e-06	-2.682852e-10	8.110086e+00	-2.024050e+01
2.100000e-06	1.188556e-06	-2.281649e-10	8.427503e+00	-1.728441e+01
2.110000e-06	1.233233e-06	-1.857565e-10	8.744287e+00	-1.429730e+01
2.120000e-06	1.277826e-06	-1.430332e-10	9.060478e+00	-1.128115e+01
2.130000e-06	1.322312e-06	-9.971323e-11	9.375908e+00	-8.238028e+00
2.140000e-06	1.366720e-06	-5.267174e-11	9.690782e+00	-5.170044e+00
2.150000e-06	1.411102e-06	-8.399569e-13	1.000548e+01	-2.079385e+00
2.160000e-06	1.455354e-06	4.945129e-11	1.031924e+01	1.031693e+00
2.170000e-06	1.499526e-06	9.328525e-11	1.063245e+01	4.160858e+00
2.180000e-06	1.543648e-06	1.339714e-10	1.094530e+01	7.305700e+00
2.190000e-06	1.587716e-06	1.743665e-10	1.125776e+01	1.046373e+01
2.200000e-06	1.631772e-06	2.160875e-10	1.157014e+01	1.363236e+01
2.210000e-06	1.675762e-06	2.625524e-10	1.188206e+01	1.680895e+01
2.220000e-06	1.719680e-06	3.143778e-10	1.219346e+01	1.999074e+01
2.230000e-06	1.763544e-06	3.700787e-10	1.250448e+01	2.317492e+01
2.240000e-06	1.807303e-06	4.229513e-10	1.281475e+01	2.635856e+01
2.250000e-06	1.850958e-06	4.668170e-10	1.312429e+01	2.953870e+01
2.260000e-06	1.894559e-06	5.054150e-10	1.343345e+01	3.271228e+01
2.270000e-06	1.938036e-06	5.460207e-10	1.374172e+01	3.587622e+01
2.280000e-06	1.981305e-06	5.901932e-10	1.404852e+01	3.902735e+01
2.290000e-06	2.024393e-06	6.365062e-10	1.435404e+01	4.216250e+01
2.300000e-06	2.067323e-06	6.852284e-10	1.465844e+01	4.527848e+01
2.310000e-06	2.110075e-06	7.368220e-10	1.496157e+01	4.837210e+01
2.320000e-06	2.152481e-06	7.882155e-10	1.526225e+01	5.144019e+01
2.330000e-06	2.194544e-06	8.305247e-10	1.556050e+01	5.447961e+01
2.340000e-06	2.236323e-06	8.658108e-10	1.585674e+01	5.748730e+01
2.350000e-06	2.277809e-06	9.025441e-10	1.615090e+01	6.046027e+01
2.360000e-06	2.318991e-06	9.445515e-10	1.644290e+01	6.339563e+01
2.370000e-06	2.359845e-06	9.874864e-10	1.673257e+01	6.629062e+01
2.380000e-06	2.400537e-06	1.029261e-09	1.702111e+01	6.914263e+01
2.390000e-06	2.441077e-06	1.071499e-09	1.730855e+01	7.194922e+01
2.400000e-06	2.481419e-06	1.113706e-09	1.759460e+01	7.470810e+01
2.410000e-06	2.521621e-06	1.152538e-09	1.787965e+01	7.741721e+01
2.420000e-06	2.561731e-06	1.187773e-09	1.816406e+01	8.007469e+01
2.430000e-06	2.601755e-06	1.224306e-09	1.844785e+01	8.267891e+01
2.440000e-06	2.641693e-06	1.263469e-09	1.873103e+01	8.522847e+01
2.450000e-06	2.681513e-06	1.301461e-09	1.901337e+01	8.772220e+01
2.460000e-06	2.721223e-06	1.335147e-09	1.929494e+01	9.015918e+01
2.470000e-06	2.760793e-06	1.367282e-09	1.957551e+01	9.253873e+01
2.480000e-06	2.800132e-06	1.401126e-09	1.985445e+01	9.486040e+01
2.490000e-06	2.839235e-06	1.435340e-09	2.013171e+01	9.712399e+01
2.500000e-06	2.878186e-06	1.466889e-09	2.040790e+01	9.932949e+01
2.510000e-06	2.916904e-06	1.496778e-09	2.068243e+01	1.014771e+02
2.520000e-06	2.955342e-06	1.529087e-09	2.095497e+01	1.035673e+02
2.530000e-06	2.993525e-06	1.560987e-09	2.122571e+01	1.056007e+02
2.540000e-06	3.031522e-06	1.589114e-09	2.149513e+01	1.075779e+02
2.550000e-06	3.069407e-06	1.617240e-09	2.176376e+01	1.095000e+02
2.560000e-06	3.107165e-06	1.644827e-09	2.203148e+01	1.113678e+02
2.570000e-06	3.144718e-06	1.670812e-09	2.229775e+01	1.131826e+02
2.580000e-06	3.182023e-06	1.694272e-09	2.256226e+01	1.149456e+02
2.590000e-06	3.219181e-06	1.714404e-09	2.282574e+01	1.166578e+02
2.600000e-06	3.256090e-06	1.735961e-09	2.308744e+01	1.183208e+02
2.610000e-06	3.292620e-06	1.761020e-09	2.334646e+01	1.199356e+02
2.620000e-06	3.328903e-06	1.785516e-09	2.360372e+01	1.215037e+02
2.630000e-06	3.365024e-06	1.806780e-09	2.385984e+01	1.230264e+02
2.640000e-06	3.401002e-06	1.826368e-09	2.411494e+01	1.245047e+02
2.650000e-06	3.436874e-06	1.845275e-09	2.436929e+01	1.259400e+02
2.660000e-06	3.472602e-06	1.863068e-09	2.462263e+01	1.273334e+02
2.670000e-06	3.508156e-06	1.880874e-09	2.487472e+01	1.286860e+02
2.680000e-06	3.543521e-06	1.898731e-09	2.512548e+01	1.299987e+02
2.690000e-06	3.578577e-06	1.917174e-09	2.537405e+01	1.312725e+02
2.700000e-06	3.613172e-06	1.936698e-09	2.561934e+01	1.325083e+02
2.710000e-06	3.647350e-06	1.957307e-09	2.586168e+01	1.337068e+02
2.720000e-06	3.681062e-06	1.977235e-09	2.610072e+01	1.348688e+02
2.730000e-06	3.714235e-06	1.993213e-09	2.633594e+01	1.359950e+02
2.740000e-06	3.747046e-06	2.007241e-09	2.656858e+01	1.370861e+02
2.750000e-06	3.779627e-06	2.023465e-09	2.679960e+01	1.381425e+02
2.760000e-06	3.811958e-06	2.040106e-09	2.702884e+01	1.391649e+02
2.770000e-06	3.844095e-06	2.053183e-09	2.725671e+01	1.401539e+02
2.780000e-06	3.876059e-06	2.064784e-09	2.748336e+01	1.411099e+02
2.790000e-06	3.907866e-06	2.077122e-09	2.770888e+01	1.420335e+02
2.800000e-06	3.939559e-06	2.090646e-09	2.793360e+01	1.429253e+02
2.810000e-06	3.970998e-06	2.103709e-09	2.815652e+01	1.437859e+02
2.820000e-06	4.002127e-06	2.112018e-09	2.837724e+01	1.446158e+02
2.830000e-06	4.032887e-06	2.120630e-09	2.859535e+01	1.454157e+02
2.840000e-06	4.063314e-06	2.134616e-09	2.881109e+01	1.461864e+02
2.850000e-06	4.093481e-06	2.150749e-09	2.902499e+01	1.469286e+02
2.860000e-06	4.123380e-06	2.162888e-09	2.923699e+01	1.476429e+02
2.870000e-06	4.153090e-06	2.170617e-09	2.944765e+01	1.483304e+02
2.880000e-06	4.182587e-06	2.178316e-09	2.965680e+01	1.489918e+02
2.890000e-06	4.211841e-06	2.186181e-09	2.986423e+01	1.496281e+02
2.900000e-06	4.240757e-06	2.191348e-09	3.006926e+01	1.502403e+02
