# Temperatura_=_-1.3
# Concentracion g/m^3_=_4090.0
# C_Vs_to_Am_M_A/Vsm_=_65563218390.804596
# pendiente_HvsI_1/m_=_3716.3
# ordenada_HvsI_A/m_=_1297.0
# frecuencia_Hz_=_135062.18630227982

Tiempo_(s)	Campo_(V.s)	Magnetizacion_(V.s)	Campo_(kA/m)	Magnetizacion_(A/m)
0.000000e+00	-5.418042e-06	-2.534478e-09	-3.839477e+01	-1.635078e+02
1.000000e-08	-5.418182e-06	-2.539676e-09	-3.839575e+01	-1.634016e+02
2.000000e-08	-5.418056e-06	-2.541252e-09	-3.839486e+01	-1.632994e+02
3.000000e-08	-5.417553e-06	-2.536965e-09	-3.839130e+01	-1.632032e+02
4.000000e-08	-5.416622e-06	-2.534199e-09	-3.838470e+01	-1.631148e+02
5.000000e-08	-5.415040e-06	-2.535089e-09	-3.837349e+01	-1.630362e+02
6.000000e-08	-5.412765e-06	-2.534739e-09	-3.835737e+01	-1.629689e+02
7.000000e-08	-5.409935e-06	-2.528349e-09	-3.833731e+01	-1.629146e+02
8.000000e-08	-5.406587e-06	-2.514491e-09	-3.831359e+01	-1.628745e+02
9.000000e-08	-5.402663e-06	-2.527807e-09	-3.828578e+01	-1.628498e+02
1.000000e-07	-5.398410e-06	-2.576023e-09	-3.825564e+01	-1.628413e+02
1.100000e-07	-5.394146e-06	-2.583840e-09	-3.822543e+01	-1.628497e+02
1.200000e-07	-5.389738e-06	-2.506362e-09	-3.819419e+01	-1.628751e+02
1.300000e-07	-5.384921e-06	-2.492978e-09	-3.816005e+01	-1.629176e+02
1.400000e-07	-5.379639e-06	-2.549567e-09	-3.812262e+01	-1.629770e+02
1.500000e-07	-5.374014e-06	-2.564999e-09	-3.808276e+01	-1.630527e+02
1.600000e-07	-5.368038e-06	-2.467816e-09	-3.804041e+01	-1.631437e+02
1.700000e-07	-5.361637e-06	-2.461841e-09	-3.799505e+01	-1.632489e+02
1.800000e-07	-5.354788e-06	-2.556159e-09	-3.794652e+01	-1.633669e+02
1.900000e-07	-5.347547e-06	-2.583836e-09	-3.789520e+01	-1.634960e+02
2.000000e-07	-5.340032e-06	-2.509845e-09	-3.784195e+01	-1.636344e+02
2.100000e-07	-5.332343e-06	-2.502113e-09	-3.778746e+01	-1.637800e+02
2.200000e-07	-5.324463e-06	-2.567811e-09	-3.773162e+01	-1.639305e+02
2.300000e-07	-5.316384e-06	-2.556584e-09	-3.767436e+01	-1.640837e+02
2.400000e-07	-5.307927e-06	-2.512703e-09	-3.761443e+01	-1.642373e+02
2.500000e-07	-5.298718e-06	-2.545065e-09	-3.754918e+01	-1.643886e+02
2.600000e-07	-5.288705e-06	-2.602508e-09	-3.747822e+01	-1.645355e+02
2.700000e-07	-5.278042e-06	-2.554631e-09	-3.740265e+01	-1.646754e+02
2.800000e-07	-5.266946e-06	-2.526769e-09	-3.732402e+01	-1.648061e+02
2.900000e-07	-5.255500e-06	-2.567832e-09	-3.724291e+01	-1.649254e+02
3.000000e-07	-5.243654e-06	-2.566725e-09	-3.715897e+01	-1.650314e+02
3.100000e-07	-5.231415e-06	-2.498879e-09	-3.707223e+01	-1.651223e+02
3.200000e-07	-5.218736e-06	-2.523001e-09	-3.698239e+01	-1.651964e+02
3.300000e-07	-5.205638e-06	-2.564039e-09	-3.688957e+01	-1.652524e+02
3.400000e-07	-5.192262e-06	-2.532924e-09	-3.679478e+01	-1.652892e+02
3.500000e-07	-5.178545e-06	-2.502693e-09	-3.669758e+01	-1.653061e+02
3.600000e-07	-5.164436e-06	-2.547215e-09	-3.659759e+01	-1.653024e+02
3.700000e-07	-5.149902e-06	-2.534835e-09	-3.649460e+01	-1.652779e+02
3.800000e-07	-5.134847e-06	-2.501575e-09	-3.638791e+01	-1.652326e+02
3.900000e-07	-5.119223e-06	-2.516842e-09	-3.627719e+01	-1.651669e+02
4.000000e-07	-5.103089e-06	-2.529728e-09	-3.616286e+01	-1.650812e+02
4.100000e-07	-5.086484e-06	-2.489339e-09	-3.604519e+01	-1.649764e+02
4.200000e-07	-5.069552e-06	-2.496249e-09	-3.592520e+01	-1.648535e+02
4.300000e-07	-5.052451e-06	-2.526361e-09	-3.580401e+01	-1.647136e+02
4.400000e-07	-5.035023e-06	-2.500624e-09	-3.568051e+01	-1.645581e+02
4.500000e-07	-5.017174e-06	-2.478096e-09	-3.555403e+01	-1.643886e+02
4.600000e-07	-4.998959e-06	-2.505256e-09	-3.542494e+01	-1.642067e+02
4.700000e-07	-4.980409e-06	-2.511249e-09	-3.529349e+01	-1.640139e+02
4.800000e-07	-4.961400e-06	-2.487541e-09	-3.515878e+01	-1.638121e+02
4.900000e-07	-4.942026e-06	-2.493055e-09	-3.502149e+01	-1.636028e+02
5.000000e-07	-4.922461e-06	-2.497845e-09	-3.488284e+01	-1.633878e+02
5.100000e-07	-4.902621e-06	-2.487179e-09	-3.474225e+01	-1.631687e+02
5.200000e-07	-4.882515e-06	-2.479864e-09	-3.459977e+01	-1.629470e+02
5.300000e-07	-4.862161e-06	-2.480844e-09	-3.445553e+01	-1.627241e+02
5.400000e-07	-4.841459e-06	-2.468136e-09	-3.430883e+01	-1.625012e+02
5.500000e-07	-4.820367e-06	-2.473544e-09	-3.415936e+01	-1.622794e+02
5.600000e-07	-4.798957e-06	-2.479028e-09	-3.400763e+01	-1.620597e+02
5.700000e-07	-4.777215e-06	-2.473346e-09	-3.385357e+01	-1.618427e+02
5.800000e-07	-4.755169e-06	-2.463790e-09	-3.369734e+01	-1.616290e+02
5.900000e-07	-4.732844e-06	-2.471205e-09	-3.353913e+01	-1.614190e+02
6.000000e-07	-4.710106e-06	-2.465303e-09	-3.337800e+01	-1.612128e+02
6.100000e-07	-4.687000e-06	-2.448792e-09	-3.321426e+01	-1.610104e+02
6.200000e-07	-4.663600e-06	-2.432420e-09	-3.304844e+01	-1.608115e+02
6.300000e-07	-4.639973e-06	-2.435088e-09	-3.288101e+01	-1.606158e+02
6.400000e-07	-4.616142e-06	-2.438218e-09	-3.271213e+01	-1.604228e+02
6.500000e-07	-4.592077e-06	-2.436726e-09	-3.254159e+01	-1.602318e+02
6.600000e-07	-4.567815e-06	-2.427532e-09	-3.236965e+01	-1.600420e+02
6.700000e-07	-4.543162e-06	-2.428181e-09	-3.219496e+01	-1.598527e+02
6.800000e-07	-4.517923e-06	-2.430648e-09	-3.201610e+01	-1.596629e+02
6.900000e-07	-4.492195e-06	-2.427569e-09	-3.183378e+01	-1.594717e+02
7.000000e-07	-4.465998e-06	-2.415610e-09	-3.164813e+01	-1.592781e+02
7.100000e-07	-4.439288e-06	-2.406528e-09	-3.145886e+01	-1.590813e+02
7.200000e-07	-4.412176e-06	-2.404210e-09	-3.126673e+01	-1.588802e+02
7.300000e-07	-4.384761e-06	-2.404272e-09	-3.107245e+01	-1.586741e+02
7.400000e-07	-4.357101e-06	-2.398759e-09	-3.087644e+01	-1.584621e+02
7.500000e-07	-4.329276e-06	-2.394355e-09	-3.067926e+01	-1.582436e+02
7.600000e-07	-4.301295e-06	-2.397173e-09	-3.048097e+01	-1.580180e+02
7.700000e-07	-4.273059e-06	-2.397549e-09	-3.028088e+01	-1.577848e+02
7.800000e-07	-4.244496e-06	-2.391537e-09	-3.007847e+01	-1.575436e+02
7.900000e-07	-4.215651e-06	-2.380838e-09	-2.987406e+01	-1.572943e+02
8.000000e-07	-4.186521e-06	-2.374302e-09	-2.966763e+01	-1.570366e+02
8.100000e-07	-4.156978e-06	-2.370129e-09	-2.945827e+01	-1.567707e+02
8.200000e-07	-4.127144e-06	-2.366778e-09	-2.924686e+01	-1.564967e+02
8.300000e-07	-4.097105e-06	-2.361071e-09	-2.903399e+01	-1.562148e+02
8.400000e-07	-4.066752e-06	-2.358000e-09	-2.881889e+01	-1.559254e+02
8.500000e-07	-4.036138e-06	-2.354763e-09	-2.860195e+01	-1.556289e+02
8.600000e-07	-4.005267e-06	-2.350488e-09	-2.838318e+01	-1.553259e+02
8.700000e-07	-3.974123e-06	-2.341300e-09	-2.816248e+01	-1.550170e+02
8.800000e-07	-3.942762e-06	-2.333254e-09	-2.794024e+01	-1.547027e+02
8.900000e-07	-3.911204e-06	-2.326865e-09	-2.771661e+01	-1.543839e+02
9.000000e-07	-3.879531e-06	-2.324804e-09	-2.749216e+01	-1.540611e+02
9.100000e-07	-3.847677e-06	-2.319130e-09	-2.726642e+01	-1.537350e+02
9.200000e-07	-3.815563e-06	-2.313360e-09	-2.703885e+01	-1.534064e+02
9.300000e-07	-3.783144e-06	-2.305748e-09	-2.680912e+01	-1.530758e+02
9.400000e-07	-3.750392e-06	-2.302334e-09	-2.657702e+01	-1.527439e+02
9.500000e-07	-3.717241e-06	-2.300053e-09	-2.634210e+01	-1.524112e+02
9.600000e-07	-3.683635e-06	-2.298045e-09	-2.610395e+01	-1.520781e+02
9.700000e-07	-3.649719e-06	-2.292295e-09	-2.586361e+01	-1.517450e+02
9.800000e-07	-3.615425e-06	-2.285419e-09	-2.562058e+01	-1.514123e+02
9.900000e-07	-3.580750e-06	-2.277140e-09	-2.537486e+01	-1.510801e+02
1.000000e-06	-3.545758e-06	-2.270422e-09	-2.512689e+01	-1.507485e+02
1.010000e-06	-3.510456e-06	-2.261782e-09	-2.487672e+01	-1.504176e+02
1.020000e-06	-3.474936e-06	-2.250591e-09	-2.462501e+01	-1.500873e+02
1.030000e-06	-3.439229e-06	-2.241292e-09	-2.437197e+01	-1.497574e+02
1.040000e-06	-3.403374e-06	-2.240486e-09	-2.411789e+01	-1.494278e+02
1.050000e-06	-3.367368e-06	-2.240170e-09	-2.386273e+01	-1.490979e+02
1.060000e-06	-3.331171e-06	-2.236426e-09	-2.360622e+01	-1.487676e+02
1.070000e-06	-3.294739e-06	-2.231857e-09	-2.334805e+01	-1.484363e+02
1.080000e-06	-3.258083e-06	-2.225937e-09	-2.308829e+01	-1.481034e+02
1.090000e-06	-3.221233e-06	-2.217156e-09	-2.282715e+01	-1.477686e+02
1.100000e-06	-3.184125e-06	-2.206649e-09	-2.256419e+01	-1.474311e+02
1.110000e-06	-3.146779e-06	-2.198696e-09	-2.229953e+01	-1.470904e+02
1.120000e-06	-3.109229e-06	-2.193661e-09	-2.203344e+01	-1.467459e+02
1.130000e-06	-3.071461e-06	-2.190058e-09	-2.176580e+01	-1.463969e+02
1.140000e-06	-3.033511e-06	-2.184474e-09	-2.149687e+01	-1.460429e+02
1.150000e-06	-2.995358e-06	-2.177327e-09	-2.122650e+01	-1.456833e+02
1.160000e-06	-2.956987e-06	-2.170717e-09	-2.095458e+01	-1.453174e+02
1.170000e-06	-2.918365e-06	-2.166464e-09	-2.068089e+01	-1.449449e+02
1.180000e-06	-2.879474e-06	-2.158225e-09	-2.040529e+01	-1.445651e+02
1.190000e-06	-2.840333e-06	-2.149674e-09	-2.012792e+01	-1.441777e+02
1.200000e-06	-2.801025e-06	-2.141118e-09	-1.984936e+01	-1.437821e+02
1.210000e-06	-2.761665e-06	-2.136323e-09	-1.957044e+01	-1.433781e+02
1.220000e-06	-2.722123e-06	-2.129680e-09	-1.929023e+01	-1.429653e+02
1.230000e-06	-2.682341e-06	-2.119720e-09	-1.900831e+01	-1.425434e+02
1.240000e-06	-2.642464e-06	-2.108908e-09	-1.872573e+01	-1.421122e+02
1.250000e-06	-2.602511e-06	-2.103767e-09	-1.844260e+01	-1.416715e+02
1.260000e-06	-2.562407e-06	-2.098097e-09	-1.815840e+01	-1.412210e+02
1.270000e-06	-2.522180e-06	-2.087214e-09	-1.787334e+01	-1.407607e+02
1.280000e-06	-2.481942e-06	-2.075614e-09	-1.758819e+01	-1.402905e+02
1.290000e-06	-2.441589e-06	-2.068980e-09	-1.730224e+01	-1.398102e+02
1.300000e-06	-2.400990e-06	-2.063365e-09	-1.701453e+01	-1.393198e+02
1.310000e-06	-2.360115e-06	-2.054807e-09	-1.672487e+01	-1.388192e+02
1.320000e-06	-2.318988e-06	-2.044789e-09	-1.643343e+01	-1.383084e+02
1.330000e-06	-2.277677e-06	-2.037187e-09	-1.614068e+01	-1.377874e+02
1.340000e-06	-2.236080e-06	-2.029888e-09	-1.584590e+01	-1.372560e+02
1.350000e-06	-2.194110e-06	-2.015772e-09	-1.554848e+01	-1.367144e+02
1.360000e-06	-2.151780e-06	-1.999256e-09	-1.524851e+01	-1.361623e+02
1.370000e-06	-2.109160e-06	-1.988495e-09	-1.494649e+01	-1.355998e+02
1.380000e-06	-2.066312e-06	-1.981073e-09	-1.464284e+01	-1.350268e+02
1.390000e-06	-2.023201e-06	-1.973212e-09	-1.433734e+01	-1.344432e+02
1.400000e-06	-1.979914e-06	-1.964455e-09	-1.403059e+01	-1.338490e+02
1.410000e-06	-1.936612e-06	-1.958013e-09	-1.372373e+01	-1.332440e+02
1.420000e-06	-1.893253e-06	-1.951172e-09	-1.341647e+01	-1.326280e+02
1.430000e-06	-1.849691e-06	-1.935657e-09	-1.310777e+01	-1.320011e+02
1.440000e-06	-1.805973e-06	-1.914296e-09	-1.279797e+01	-1.313629e+02
1.450000e-06	-1.762242e-06	-1.898144e-09	-1.248806e+01	-1.307134e+02
1.460000e-06	-1.718482e-06	-1.892220e-09	-1.217796e+01	-1.300523e+02
1.470000e-06	-1.674615e-06	-1.886205e-09	-1.186710e+01	-1.293795e+02
1.480000e-06	-1.630614e-06	-1.875952e-09	-1.155529e+01	-1.286947e+02
1.490000e-06	-1.586566e-06	-1.865060e-09	-1.124314e+01	-1.279976e+02
1.500000e-06	-1.542528e-06	-1.857658e-09	-1.093107e+01	-1.272880e+02
1.510000e-06	-1.498432e-06	-1.848122e-09	-1.061858e+01	-1.265656e+02
1.520000e-06	-1.454194e-06	-1.830619e-09	-1.030509e+01	-1.258301e+02
1.530000e-06	-1.409824e-06	-1.810962e-09	-9.990665e+00	-1.250811e+02
1.540000e-06	-1.365387e-06	-1.797216e-09	-9.675765e+00	-1.243183e+02
1.550000e-06	-1.320864e-06	-1.786542e-09	-9.360257e+00	-1.235412e+02
1.560000e-06	-1.276244e-06	-1.774957e-09	-9.044055e+00	-1.227495e+02
1.570000e-06	-1.231531e-06	-1.763697e-09	-8.727198e+00	-1.219425e+02
1.580000e-06	-1.186661e-06	-1.758279e-09	-8.409233e+00	-1.211199e+02
1.590000e-06	-1.141663e-06	-1.753220e-09	-8.090356e+00	-1.202811e+02
1.600000e-06	-1.096641e-06	-1.740317e-09	-7.771304e+00	-1.194253e+02
1.610000e-06	-1.051532e-06	-1.719985e-09	-7.451641e+00	-1.185521e+02
1.620000e-06	-1.006354e-06	-1.702819e-09	-7.131490e+00	-1.176606e+02
1.630000e-06	-9.610982e-07	-1.687477e-09	-6.810788e+00	-1.167502e+02
1.640000e-06	-9.156424e-07	-1.669263e-09	-6.488667e+00	-1.158199e+02
1.650000e-06	-8.700962e-07	-1.653029e-09	-6.165906e+00	-1.148690e+02
1.660000e-06	-8.245609e-07	-1.643954e-09	-5.843222e+00	-1.138965e+02
1.670000e-06	-7.789353e-07	-1.637813e-09	-5.519897e+00	-1.129014e+02
1.680000e-06	-7.332426e-07	-1.623982e-09	-5.196097e+00	-1.118827e+02
1.690000e-06	-6.875989e-07	-1.602255e-09	-4.872645e+00	-1.108393e+02
1.700000e-06	-6.419539e-07	-1.580608e-09	-4.549183e+00	-1.097700e+02
1.710000e-06	-5.962735e-07	-1.562701e-09	-4.225471e+00	-1.086737e+02
1.720000e-06	-5.505582e-07	-1.544915e-09	-3.901511e+00	-1.075491e+02
1.730000e-06	-5.048225e-07	-1.525127e-09	-3.577407e+00	-1.063950e+02
1.740000e-06	-4.590358e-07	-1.508585e-09	-3.252941e+00	-1.052100e+02
1.750000e-06	-4.131908e-07	-1.498806e-09	-2.928062e+00	-1.039929e+02
1.760000e-06	-3.673782e-07	-1.485922e-09	-2.603413e+00	-1.027421e+02
1.770000e-06	-3.215050e-07	-1.463801e-09	-2.278333e+00	-1.014564e+02
1.780000e-06	-2.755648e-07	-1.437889e-09	-1.952780e+00	-1.001344e+02
1.790000e-06	-2.296663e-07	-1.416092e-09	-1.627522e+00	-9.877468e+01
1.800000e-06	-1.837919e-07	-1.395773e-09	-1.302435e+00	-9.737578e+01
1.810000e-06	-1.379315e-07	-1.373460e-09	-9.774466e-01	-9.593633e+01
1.820000e-06	-9.206469e-08	-1.350656e-09	-6.524131e-01	-9.445493e+01
1.830000e-06	-4.616480e-08	-1.330939e-09	-3.271452e-01	-9.293021e+01
1.840000e-06	-2.182607e-10	-1.310039e-09	-1.546696e-03	-9.136081e+01
1.850000e-06	4.572522e-08	-1.284205e-09	3.240302e-01	-8.974539e+01
1.860000e-06	9.162443e-08	-1.254980e-09	6.492932e-01	-8.808265e+01
1.870000e-06	1.375053e-07	-1.227205e-09	9.744264e-01	-8.637131e+01
1.880000e-06	1.833632e-07	-1.202027e-09	1.299397e+00	-8.461014e+01
1.890000e-06	2.292378e-07	-1.175654e-09	1.624485e+00	-8.279794e+01
1.900000e-06	2.751055e-07	-1.146041e-09	1.949525e+00	-8.093357e+01
1.910000e-06	3.208732e-07	-1.118417e-09	2.273857e+00	-7.901592e+01
1.920000e-06	3.666002e-07	-1.093146e-09	2.597900e+00	-7.704395e+01
1.930000e-06	4.123598e-07	-1.064389e-09	2.922173e+00	-7.501665e+01
1.940000e-06	4.581130e-07	-1.029939e-09	3.246402e+00	-7.293311e+01
1.950000e-06	5.038705e-07	-9.954633e-10	3.570661e+00	-7.079244e+01
1.960000e-06	5.496504e-07	-9.637684e-10	3.895078e+00	-6.859386e+01
1.970000e-06	5.953489e-07	-9.302090e-10	4.218919e+00	-6.633665e+01
1.980000e-06	6.409572e-07	-8.939904e-10	4.542121e+00	-6.402017e+01
1.990000e-06	6.865302e-07	-8.588596e-10	4.865071e+00	-6.164387e+01
2.000000e-06	7.320439e-07	-8.271376e-10	5.187603e+00	-5.920732e+01
2.010000e-06	7.775084e-07	-7.947800e-10	5.509786e+00	-5.671017e+01
2.020000e-06	8.229097e-07	-7.574148e-10	5.831520e+00	-5.415221e+01
2.030000e-06	8.682404e-07	-7.162121e-10	6.152755e+00	-5.153336e+01
2.040000e-06	9.135784e-07	-6.762037e-10	6.474041e+00	-4.885367e+01
2.050000e-06	9.588341e-07	-6.368119e-10	6.794744e+00	-4.611336e+01
2.060000e-06	1.003965e-06	-5.958689e-10	7.114561e+00	-4.331280e+01
2.070000e-06	1.049105e-06	-5.538464e-10	7.434443e+00	-4.045255e+01
2.080000e-06	1.094219e-06	-5.122997e-10	7.754143e+00	-3.753337e+01
2.090000e-06	1.139193e-06	-4.689015e-10	8.072853e+00	-3.455623e+01
2.100000e-06	1.184005e-06	-4.231633e-10	8.390407e+00	-3.152229e+01
2.110000e-06	1.228688e-06	-3.777551e-10	8.707055e+00	-2.843298e+01
2.120000e-06	1.273257e-06	-3.347072e-10	9.022887e+00	-2.528994e+01
2.130000e-06	1.317690e-06	-2.898980e-10	9.337765e+00	-2.209509e+01
2.140000e-06	1.362095e-06	-2.395147e-10	9.652438e+00	-1.885059e+01
2.150000e-06	1.406475e-06	-1.864312e-10	9.966936e+00	-1.555887e+01
2.160000e-06	1.450742e-06	-1.340962e-10	1.028063e+01	-1.222262e+01
2.170000e-06	1.494880e-06	-8.152476e-11	1.059341e+01	-8.844823e+00
2.180000e-06	1.538887e-06	-2.754777e-11	1.090526e+01	-5.428702e+00
2.190000e-06	1.582876e-06	2.417034e-11	1.121699e+01	-1.977756e+00
2.200000e-06	1.626845e-06	6.963152e-11	1.152858e+01	1.504266e+00
2.210000e-06	1.670760e-06	1.146367e-10	1.183978e+01	5.013374e+00
2.220000e-06	1.714624e-06	1.647279e-10	1.215062e+01	8.545350e+00
2.230000e-06	1.758434e-06	2.188500e-10	1.246108e+01	1.209577e+01
2.240000e-06	1.802211e-06	2.719579e-10	1.277131e+01	1.566001e+01
2.250000e-06	1.845880e-06	3.249854e-10	1.308076e+01	1.923330e+01
2.260000e-06	1.889436e-06	3.822805e-10	1.338942e+01	2.281073e+01
2.270000e-06	1.932885e-06	4.405024e-10	1.369732e+01	2.638727e+01
2.280000e-06	1.976186e-06	4.916510e-10	1.400417e+01	2.995784e+01
2.290000e-06	2.019408e-06	5.368440e-10	1.431046e+01	3.351730e+01
2.300000e-06	2.062532e-06	5.856249e-10	1.461606e+01	3.706052e+01
2.310000e-06	2.105400e-06	6.389220e-10	1.491984e+01	4.058239e+01
2.320000e-06	2.147964e-06	6.916327e-10	1.522147e+01	4.407789e+01
2.330000e-06	2.190265e-06	7.420191e-10	1.552123e+01	4.754208e+01
2.340000e-06	2.232282e-06	7.948829e-10	1.581899e+01	5.097019e+01
2.350000e-06	2.273999e-06	8.509720e-10	1.611461e+01	5.435762e+01
2.360000e-06	2.315438e-06	9.058562e-10	1.640827e+01	5.769999e+01
2.370000e-06	2.356575e-06	9.531136e-10	1.669979e+01	6.099313e+01
2.380000e-06	2.397429e-06	9.957843e-10	1.698929e+01	6.423320e+01
2.390000e-06	2.438049e-06	1.039303e-09	1.727715e+01	6.741662e+01
2.400000e-06	2.478417e-06	1.081235e-09	1.756322e+01	7.054015e+01
2.410000e-06	2.518587e-06	1.119368e-09	1.784788e+01	7.360087e+01
2.420000e-06	2.558631e-06	1.159136e-09	1.813165e+01	7.659624e+01
2.430000e-06	2.598570e-06	1.203299e-09	1.841467e+01	7.952408e+01
2.440000e-06	2.638413e-06	1.247818e-09	1.869702e+01	8.238257e+01
2.450000e-06	2.678149e-06	1.288297e-09	1.897861e+01	8.517027e+01
2.460000e-06	2.717784e-06	1.325711e-09	1.925948e+01	8.788610e+01
2.470000e-06	2.757327e-06	1.363299e-09	1.953970e+01	9.052934e+01
2.480000e-06	2.796751e-06	1.399095e-09	1.981908e+01	9.309964e+01
2.490000e-06	2.836020e-06	1.430389e-09	2.009735e+01	9.559695e+01
2.500000e-06	2.875031e-06	1.459907e-09	2.037381e+01	9.802156e+01
2.510000e-06	2.913794e-06	1.493757e-09	2.064850e+01	1.003740e+02
2.520000e-06	2.952359e-06	1.530978e-09	2.092179e+01	1.026552e+02
2.530000e-06	2.990664e-06	1.565735e-09	2.119323e+01	1.048661e+02
2.540000e-06	3.028702e-06	1.597147e-09	2.146279e+01	1.070080e+02
2.550000e-06	3.066562e-06	1.629720e-09	2.173109e+01	1.090824e+02
2.560000e-06	3.104298e-06	1.661841e-09	2.199849e+01	1.110908e+02
2.570000e-06	3.141856e-06	1.687820e-09	2.226465e+01	1.130350e+02
2.580000e-06	3.179212e-06	1.708032e-09	2.252937e+01	1.149167e+02
2.590000e-06	3.216324e-06	1.729013e-09	2.279237e+01	1.167378e+02
2.600000e-06	3.253177e-06	1.753517e-09	2.305352e+01	1.185001e+02
2.610000e-06	3.289768e-06	1.778375e-09	2.331282e+01	1.202056e+02
2.620000e-06	3.326074e-06	1.801137e-09	2.357010e+01	1.218559e+02
2.630000e-06	3.362139e-06	1.824899e-09	2.382568e+01	1.234530e+02
2.640000e-06	3.398060e-06	1.852231e-09	2.408023e+01	1.249985e+02
2.650000e-06	3.433892e-06	1.877898e-09	2.433415e+01	1.264941e+02
2.660000e-06	3.469610e-06	1.895974e-09	2.458727e+01	1.279414e+02
2.670000e-06	3.505248e-06	1.910613e-09	2.483981e+01	1.293418e+02
2.680000e-06	3.540747e-06	1.927621e-09	2.509138e+01	1.306967e+02
2.690000e-06	3.575912e-06	1.945131e-09	2.534057e+01	1.320073e+02
2.700000e-06	3.610617e-06	1.959453e-09	2.558651e+01	1.332749e+02
2.710000e-06	3.644922e-06	1.974956e-09	2.582961e+01	1.345004e+02
2.720000e-06	3.678823e-06	1.997332e-09	2.606985e+01	1.356850e+02
2.730000e-06	3.712240e-06	2.021440e-09	2.630666e+01	1.368295e+02
2.740000e-06	3.745188e-06	2.040963e-09	2.654014e+01	1.379348e+02
2.750000e-06	3.777711e-06	2.056968e-09	2.677062e+01	1.390017e+02
2.760000e-06	3.809948e-06	2.071733e-09	2.699906e+01	1.400310e+02
2.770000e-06	3.841990e-06	2.084379e-09	2.722612e+01	1.410234e+02
2.780000e-06	3.873871e-06	2.091841e-09	2.745205e+01	1.419796e+02
2.790000e-06	3.905621e-06	2.096716e-09	2.767705e+01	1.429004e+02
2.800000e-06	3.937205e-06	2.108551e-09	2.790086e+01	1.437866e+02
2.810000e-06	3.968520e-06	2.128000e-09	2.812278e+01	1.446389e+02
2.820000e-06	3.999540e-06	2.145020e-09	2.834260e+01	1.454582e+02
2.830000e-06	4.030248e-06	2.155043e-09	2.856021e+01	1.462453e+02
2.840000e-06	4.060624e-06	2.165668e-09	2.877547e+01	1.470011e+02
2.850000e-06	4.090712e-06	2.179991e-09	2.898868e+01	1.477267e+02
2.860000e-06	4.120634e-06	2.191010e-09	2.920072e+01	1.484230e+02
2.870000e-06	4.150433e-06	2.193545e-09	2.941189e+01	1.490911e+02
2.880000e-06	4.179978e-06	2.193828e-09	2.962127e+01	1.497321e+02
2.890000e-06	4.209208e-06	2.200364e-09	2.982840e+01	1.503472e+02
2.900000e-06	4.238134e-06	2.210551e-09	3.003339e+01	1.509375e+02
