# Temperatura_=_-3.09
# Concentracion g/m^3_=_4090.0
# C_Vs_to_Am_M_A/Vsm_=_65563218390.804596
# pendiente_HvsI_1/m_=_3716.3
# ordenada_HvsI_A/m_=_1297.0
# frecuencia_Hz_=_135069.83955903692

Tiempo_(s)	Campo_(V.s)	Magnetizacion_(V.s)	Campo_(kA/m)	Magnetizacion_(A/m)
0.000000e+00	-5.422814e-06	-2.171293e-09	-3.839212e+01	-1.423627e+02
1.000000e-08	-5.422930e-06	-2.169911e-09	-3.839294e+01	-1.423027e+02
2.000000e-08	-5.422787e-06	-2.168059e-09	-3.839193e+01	-1.422457e+02
3.000000e-08	-5.422361e-06	-2.163674e-09	-3.838891e+01	-1.421930e+02
4.000000e-08	-5.421493e-06	-2.160898e-09	-3.838277e+01	-1.421456e+02
5.000000e-08	-5.420051e-06	-2.166921e-09	-3.837256e+01	-1.421045e+02
6.000000e-08	-5.417978e-06	-2.175148e-09	-3.835788e+01	-1.420707e+02
7.000000e-08	-5.415306e-06	-2.157166e-09	-3.833897e+01	-1.420451e+02
8.000000e-08	-5.412089e-06	-2.145937e-09	-3.831619e+01	-1.420283e+02
9.000000e-08	-5.408297e-06	-2.197003e-09	-3.828934e+01	-1.420209e+02
1.000000e-07	-5.404081e-06	-2.218801e-09	-3.825949e+01	-1.420233e+02
1.100000e-07	-5.399730e-06	-2.151115e-09	-3.822869e+01	-1.420357e+02
1.200000e-07	-5.395354e-06	-2.113761e-09	-3.819771e+01	-1.420583e+02
1.300000e-07	-5.390611e-06	-2.172242e-09	-3.816413e+01	-1.420909e+02
1.400000e-07	-5.385320e-06	-2.215847e-09	-3.812667e+01	-1.421333e+02
1.500000e-07	-5.379670e-06	-2.120938e-09	-3.808667e+01	-1.421851e+02
1.600000e-07	-5.373766e-06	-2.092904e-09	-3.804488e+01	-1.422456e+02
1.700000e-07	-5.367387e-06	-2.179793e-09	-3.799971e+01	-1.423141e+02
1.800000e-07	-5.360460e-06	-2.235115e-09	-3.795067e+01	-1.423896e+02
1.900000e-07	-5.353262e-06	-2.152612e-09	-3.789971e+01	-1.424712e+02
2.000000e-07	-5.345867e-06	-2.152074e-09	-3.784736e+01	-1.425577e+02
2.100000e-07	-5.338119e-06	-2.217004e-09	-3.779251e+01	-1.426478e+02
2.200000e-07	-5.330062e-06	-2.218740e-09	-3.773546e+01	-1.427402e+02
2.300000e-07	-5.321780e-06	-2.168877e-09	-3.767683e+01	-1.428335e+02
2.400000e-07	-5.313211e-06	-2.216829e-09	-3.761616e+01	-1.429263e+02
2.500000e-07	-5.303862e-06	-2.269236e-09	-3.754997e+01	-1.430172e+02
2.600000e-07	-5.293763e-06	-2.225252e-09	-3.747847e+01	-1.431047e+02
2.700000e-07	-5.283258e-06	-2.211615e-09	-3.740410e+01	-1.431875e+02
2.800000e-07	-5.272158e-06	-2.271546e-09	-3.732551e+01	-1.432640e+02
2.900000e-07	-5.260654e-06	-2.259891e-09	-3.724407e+01	-1.433332e+02
3.000000e-07	-5.248812e-06	-2.181695e-09	-3.716023e+01	-1.433937e+02
3.100000e-07	-5.236473e-06	-2.223506e-09	-3.707288e+01	-1.434445e+02
3.200000e-07	-5.223696e-06	-2.278885e-09	-3.698242e+01	-1.434845e+02
3.300000e-07	-5.210544e-06	-2.233142e-09	-3.688931e+01	-1.435130e+02
3.400000e-07	-5.197092e-06	-2.178184e-09	-3.679407e+01	-1.435293e+02
3.500000e-07	-5.183219e-06	-2.236036e-09	-3.669585e+01	-1.435326e+02
3.600000e-07	-5.168999e-06	-2.236869e-09	-3.659517e+01	-1.435227e+02
3.700000e-07	-5.154417e-06	-2.195311e-09	-3.649194e+01	-1.434993e+02
3.800000e-07	-5.139188e-06	-2.199391e-09	-3.638412e+01	-1.434623e+02
3.900000e-07	-5.123418e-06	-2.233856e-09	-3.627247e+01	-1.434117e+02
4.000000e-07	-5.107173e-06	-2.206200e-09	-3.615747e+01	-1.433476e+02
4.100000e-07	-5.090424e-06	-2.211023e-09	-3.603889e+01	-1.432705e+02
4.200000e-07	-5.073301e-06	-2.222967e-09	-3.591766e+01	-1.431808e+02
4.300000e-07	-5.055980e-06	-2.199055e-09	-3.579503e+01	-1.430790e+02
4.400000e-07	-5.038485e-06	-2.178143e-09	-3.567117e+01	-1.429658e+02
4.500000e-07	-5.020672e-06	-2.216061e-09	-3.554506e+01	-1.428420e+02
4.600000e-07	-5.002391e-06	-2.215001e-09	-3.541564e+01	-1.427084e+02
4.700000e-07	-4.983729e-06	-2.191328e-09	-3.528351e+01	-1.425659e+02
4.800000e-07	-4.964695e-06	-2.200945e-09	-3.514875e+01	-1.424155e+02
4.900000e-07	-4.945308e-06	-2.221199e-09	-3.501150e+01	-1.422580e+02
5.000000e-07	-4.925718e-06	-2.202730e-09	-3.487281e+01	-1.420945e+02
5.100000e-07	-4.905941e-06	-2.186597e-09	-3.473279e+01	-1.419260e+02
5.200000e-07	-4.885872e-06	-2.184693e-09	-3.459071e+01	-1.417534e+02
5.300000e-07	-4.865468e-06	-2.186499e-09	-3.444625e+01	-1.415775e+02
5.400000e-07	-4.844703e-06	-2.191937e-09	-3.429925e+01	-1.413994e+02
5.500000e-07	-4.823559e-06	-2.190936e-09	-3.414955e+01	-1.412197e+02
5.600000e-07	-4.802111e-06	-2.179097e-09	-3.399770e+01	-1.410393e+02
5.700000e-07	-4.780391e-06	-2.176292e-09	-3.384393e+01	-1.408587e+02
5.800000e-07	-4.758362e-06	-2.183620e-09	-3.368797e+01	-1.406787e+02
5.900000e-07	-4.736020e-06	-2.178119e-09	-3.352979e+01	-1.404996e+02
6.000000e-07	-4.713366e-06	-2.170127e-09	-3.336941e+01	-1.403220e+02
6.100000e-07	-4.690348e-06	-2.161658e-09	-3.320645e+01	-1.401460e+02
6.200000e-07	-4.667026e-06	-2.163397e-09	-3.304134e+01	-1.399720e+02
6.300000e-07	-4.643431e-06	-2.161088e-09	-3.287429e+01	-1.398000e+02
6.400000e-07	-4.619590e-06	-2.151961e-09	-3.270550e+01	-1.396301e+02
6.500000e-07	-4.595558e-06	-2.135223e-09	-3.253536e+01	-1.394623e+02
6.600000e-07	-4.571322e-06	-2.138527e-09	-3.236378e+01	-1.392965e+02
6.700000e-07	-4.546738e-06	-2.143155e-09	-3.218973e+01	-1.391324e+02
6.800000e-07	-4.521630e-06	-2.143496e-09	-3.201197e+01	-1.389698e+02
6.900000e-07	-4.495945e-06	-2.137427e-09	-3.183013e+01	-1.388083e+02
7.000000e-07	-4.469801e-06	-2.140658e-09	-3.164504e+01	-1.386477e+02
7.100000e-07	-4.443242e-06	-2.133685e-09	-3.145700e+01	-1.384874e+02
7.200000e-07	-4.416200e-06	-2.125003e-09	-3.126556e+01	-1.383270e+02
7.300000e-07	-4.388801e-06	-2.110562e-09	-3.107157e+01	-1.381662e+02
7.400000e-07	-4.361179e-06	-2.104273e-09	-3.087602e+01	-1.380043e+02
7.500000e-07	-4.333388e-06	-2.103323e-09	-3.067927e+01	-1.378408e+02
7.600000e-07	-4.305367e-06	-2.107766e-09	-3.048089e+01	-1.376753e+02
7.700000e-07	-4.276995e-06	-2.103885e-09	-3.028002e+01	-1.375073e+02
7.800000e-07	-4.248370e-06	-2.100237e-09	-3.007736e+01	-1.373362e+02
7.900000e-07	-4.219486e-06	-2.095127e-09	-2.987287e+01	-1.371617e+02
8.000000e-07	-4.190312e-06	-2.088964e-09	-2.966632e+01	-1.369832e+02
8.100000e-07	-4.160873e-06	-2.080078e-09	-2.945791e+01	-1.368003e+02
8.200000e-07	-4.131146e-06	-2.074637e-09	-2.924745e+01	-1.366128e+02
8.300000e-07	-4.101155e-06	-2.072923e-09	-2.903512e+01	-1.364202e+02
8.400000e-07	-4.070841e-06	-2.074152e-09	-2.882050e+01	-1.362223e+02
8.500000e-07	-4.040198e-06	-2.071219e-09	-2.860356e+01	-1.360187e+02
8.600000e-07	-4.009338e-06	-2.061290e-09	-2.838508e+01	-1.358093e+02
8.700000e-07	-3.978281e-06	-2.055273e-09	-2.816520e+01	-1.355940e+02
8.800000e-07	-3.946968e-06	-2.051848e-09	-2.794351e+01	-1.353725e+02
8.900000e-07	-3.915434e-06	-2.050445e-09	-2.772026e+01	-1.351449e+02
9.000000e-07	-3.883748e-06	-2.044407e-09	-2.749593e+01	-1.349111e+02
9.100000e-07	-3.851888e-06	-2.038912e-09	-2.727037e+01	-1.346711e+02
9.200000e-07	-3.819773e-06	-2.032773e-09	-2.704301e+01	-1.344250e+02
9.300000e-07	-3.787329e-06	-2.026088e-09	-2.681331e+01	-1.341729e+02
9.400000e-07	-3.754586e-06	-2.015446e-09	-2.658150e+01	-1.339149e+02
9.500000e-07	-3.721544e-06	-2.009756e-09	-2.634757e+01	-1.336512e+02
9.600000e-07	-3.688118e-06	-2.007817e-09	-2.611092e+01	-1.333820e+02
9.700000e-07	-3.654143e-06	-2.012516e-09	-2.587039e+01	-1.331075e+02
9.800000e-07	-3.619621e-06	-2.010485e-09	-2.562598e+01	-1.328279e+02
9.900000e-07	-3.584792e-06	-2.002964e-09	-2.537940e+01	-1.325436e+02
1.000000e-06	-3.549661e-06	-1.993567e-09	-2.513068e+01	-1.322547e+02
1.010000e-06	-3.514254e-06	-1.987003e-09	-2.488001e+01	-1.319616e+02
1.020000e-06	-3.478647e-06	-1.976181e-09	-2.462792e+01	-1.316646e+02
1.030000e-06	-3.442917e-06	-1.968215e-09	-2.437496e+01	-1.313639e+02
1.040000e-06	-3.407051e-06	-1.966815e-09	-2.412104e+01	-1.310598e+02
1.050000e-06	-3.371021e-06	-1.971192e-09	-2.386595e+01	-1.307526e+02
1.060000e-06	-3.334783e-06	-1.972000e-09	-2.360940e+01	-1.304426e+02
1.070000e-06	-3.298294e-06	-1.966996e-09	-2.335107e+01	-1.301299e+02
1.080000e-06	-3.261628e-06	-1.958200e-09	-2.309148e+01	-1.298148e+02
1.090000e-06	-3.224753e-06	-1.951563e-09	-2.283042e+01	-1.294974e+02
1.100000e-06	-3.187593e-06	-1.944890e-09	-2.256733e+01	-1.291780e+02
1.110000e-06	-3.150200e-06	-1.934520e-09	-2.230260e+01	-1.288565e+02
1.120000e-06	-3.112619e-06	-1.924421e-09	-2.203653e+01	-1.285331e+02
1.130000e-06	-3.074780e-06	-1.919792e-09	-2.176865e+01	-1.282078e+02
1.140000e-06	-3.036699e-06	-1.919937e-09	-2.149905e+01	-1.278805e+02
1.150000e-06	-2.998495e-06	-1.916183e-09	-2.122857e+01	-1.275513e+02
1.160000e-06	-2.960104e-06	-1.909250e-09	-2.095677e+01	-1.272200e+02
1.170000e-06	-2.921421e-06	-1.904053e-09	-2.068290e+01	-1.268865e+02
1.180000e-06	-2.882433e-06	-1.900005e-09	-2.040688e+01	-1.265505e+02
1.190000e-06	-2.843246e-06	-1.891547e-09	-2.012945e+01	-1.262118e+02
1.200000e-06	-2.803945e-06	-1.878417e-09	-1.985120e+01	-1.258703e+02
1.210000e-06	-2.764529e-06	-1.867159e-09	-1.957215e+01	-1.255254e+02
1.220000e-06	-2.724988e-06	-1.863773e-09	-1.929221e+01	-1.251770e+02
1.230000e-06	-2.685275e-06	-1.860813e-09	-1.901105e+01	-1.248245e+02
1.240000e-06	-2.645448e-06	-1.857061e-09	-1.872909e+01	-1.244677e+02
1.250000e-06	-2.605521e-06	-1.852989e-09	-1.844641e+01	-1.241060e+02
1.260000e-06	-2.565408e-06	-1.848021e-09	-1.816243e+01	-1.237390e+02
1.270000e-06	-2.525194e-06	-1.838427e-09	-1.787772e+01	-1.233664e+02
1.280000e-06	-2.484876e-06	-1.825748e-09	-1.759228e+01	-1.229875e+02
1.290000e-06	-2.444387e-06	-1.813289e-09	-1.730563e+01	-1.226019e+02
1.300000e-06	-2.403790e-06	-1.806123e-09	-1.701821e+01	-1.222093e+02
1.310000e-06	-2.362969e-06	-1.802103e-09	-1.672921e+01	-1.218090e+02
1.320000e-06	-2.321863e-06	-1.797426e-09	-1.643819e+01	-1.214007e+02
1.330000e-06	-2.280535e-06	-1.790061e-09	-1.614560e+01	-1.209840e+02
1.340000e-06	-2.238933e-06	-1.784042e-09	-1.585106e+01	-1.205585e+02
1.350000e-06	-2.197013e-06	-1.776161e-09	-1.555428e+01	-1.201237e+02
1.360000e-06	-2.154782e-06	-1.765853e-09	-1.525530e+01	-1.196794e+02
1.370000e-06	-2.112264e-06	-1.755505e-09	-1.495429e+01	-1.192252e+02
1.380000e-06	-2.069479e-06	-1.746298e-09	-1.465138e+01	-1.187609e+02
1.390000e-06	-2.026428e-06	-1.738227e-09	-1.434658e+01	-1.182861e+02
1.400000e-06	-1.983140e-06	-1.732515e-09	-1.404012e+01	-1.178008e+02
1.410000e-06	-1.939730e-06	-1.727678e-09	-1.373278e+01	-1.173046e+02
1.420000e-06	-1.896295e-06	-1.720712e-09	-1.342528e+01	-1.167974e+02
1.430000e-06	-1.852767e-06	-1.711120e-09	-1.311711e+01	-1.162791e+02
1.440000e-06	-1.809068e-06	-1.698683e-09	-1.280773e+01	-1.157495e+02
1.450000e-06	-1.765220e-06	-1.686273e-09	-1.249730e+01	-1.152086e+02
1.460000e-06	-1.721325e-06	-1.676393e-09	-1.218654e+01	-1.146563e+02
1.470000e-06	-1.677396e-06	-1.666740e-09	-1.187553e+01	-1.140924e+02
1.480000e-06	-1.633370e-06	-1.655937e-09	-1.156384e+01	-1.135168e+02
1.490000e-06	-1.589240e-06	-1.646956e-09	-1.125141e+01	-1.129295e+02
1.500000e-06	-1.545079e-06	-1.639468e-09	-1.093876e+01	-1.123304e+02
1.510000e-06	-1.500918e-06	-1.631582e-09	-1.062611e+01	-1.117193e+02
1.520000e-06	-1.456680e-06	-1.619765e-09	-1.031292e+01	-1.110960e+02
1.530000e-06	-1.412293e-06	-1.607137e-09	-9.998671e+00	-1.104604e+02
1.540000e-06	-1.367737e-06	-1.597747e-09	-9.683225e+00	-1.098123e+02
1.550000e-06	-1.323112e-06	-1.591361e-09	-9.367288e+00	-1.091513e+02
1.560000e-06	-1.278392e-06	-1.582165e-09	-9.050687e+00	-1.084773e+02
1.570000e-06	-1.233553e-06	-1.569840e-09	-8.733237e+00	-1.077897e+02
1.580000e-06	-1.188795e-06	-1.559685e-09	-8.416364e+00	-1.070883e+02
1.590000e-06	-1.144040e-06	-1.551949e-09	-8.099509e+00	-1.063725e+02
1.600000e-06	-1.099016e-06	-1.542158e-09	-7.780748e+00	-1.056419e+02
1.610000e-06	-1.053833e-06	-1.529198e-09	-7.460866e+00	-1.048958e+02
1.620000e-06	-1.008596e-06	-1.517172e-09	-7.140599e+00	-1.041337e+02
1.630000e-06	-9.632869e-07	-1.506137e-09	-6.819822e+00	-1.033549e+02
1.640000e-06	-9.179295e-07	-1.492475e-09	-6.498703e+00	-1.025586e+02
1.650000e-06	-8.725147e-07	-1.477413e-09	-6.177178e+00	-1.017441e+02
1.660000e-06	-8.270083e-07	-1.466045e-09	-5.855005e+00	-1.009106e+02
1.670000e-06	-7.814297e-07	-1.458872e-09	-5.532320e+00	-1.000571e+02
1.680000e-06	-7.358171e-07	-1.447612e-09	-5.209395e+00	-9.918271e+01
1.690000e-06	-6.901682e-07	-1.430960e-09	-4.886212e+00	-9.828657e+01
1.700000e-06	-6.444941e-07	-1.414740e-09	-4.562851e+00	-9.736764e+01
1.710000e-06	-5.987717e-07	-1.403284e-09	-4.239149e+00	-9.642490e+01
1.720000e-06	-5.530127e-07	-1.392292e-09	-3.915187e+00	-9.545729e+01
1.730000e-06	-5.072170e-07	-1.375988e-09	-3.590965e+00	-9.446373e+01
1.740000e-06	-4.614452e-07	-1.358188e-09	-3.266913e+00	-9.344310e+01
1.750000e-06	-4.156547e-07	-1.345750e-09	-2.942728e+00	-9.239425e+01
1.760000e-06	-3.697749e-07	-1.335352e-09	-2.617911e+00	-9.131602e+01
1.770000e-06	-3.238828e-07	-1.319474e-09	-2.293006e+00	-9.020721e+01
1.780000e-06	-2.779375e-07	-1.298911e-09	-1.967725e+00	-8.906660e+01
1.790000e-06	-2.319295e-07	-1.281190e-09	-1.642001e+00	-8.789292e+01
1.800000e-06	-1.859190e-07	-1.266720e-09	-1.316258e+00	-8.668491e+01
1.810000e-06	-1.398832e-07	-1.248987e-09	-9.903370e-01	-8.544123e+01
1.820000e-06	-9.385049e-08	-1.225863e-09	-6.644372e-01	-8.416055e+01
1.830000e-06	-4.786298e-08	-1.203607e-09	-3.388575e-01	-8.284148e+01
1.840000e-06	-1.952330e-09	-1.186572e-09	-1.382199e-02	-8.148260e+01
1.850000e-06	4.389088e-08	-1.168885e-09	3.107361e-01	-8.008245e+01
1.860000e-06	8.977489e-08	-1.144757e-09	6.355830e-01	-7.863953e+01
1.870000e-06	1.357721e-07	-1.118299e-09	9.612313e-01	-7.715233e+01
1.880000e-06	1.818283e-07	-1.095321e-09	1.287297e+00	-7.561926e+01
1.890000e-06	2.278577e-07	-1.072232e-09	1.613173e+00	-7.403874e+01
1.900000e-06	2.738331e-07	-1.045098e-09	1.938667e+00	-7.240914e+01
1.910000e-06	3.197204e-07	-1.016899e-09	2.263538e+00	-7.072882e+01
1.920000e-06	3.654971e-07	-9.926084e-10	2.587625e+00	-6.899611e+01
1.930000e-06	4.112637e-07	-9.706129e-10	2.911641e+00	-6.720936e+01
1.940000e-06	4.571393e-07	-9.446562e-10	3.236428e+00	-6.536691e+01
1.950000e-06	5.030944e-07	-9.148736e-10	3.561778e+00	-6.346715e+01
1.960000e-06	5.489933e-07	-8.860014e-10	3.886730e+00	-6.150849e+01
1.970000e-06	5.947440e-07	-8.557714e-10	4.210634e+00	-5.948939e+01
1.980000e-06	6.404113e-07	-8.220006e-10	4.533946e+00	-5.740843e+01
1.990000e-06	6.860417e-07	-7.869598e-10	4.856998e+00	-5.526424e+01
2.000000e-06	7.316217e-07	-7.541668e-10	5.179692e+00	-5.305561e+01
2.010000e-06	7.771594e-07	-7.236785e-10	5.502087e+00	-5.078147e+01
2.020000e-06	8.225973e-07	-6.938260e-10	5.823776e+00	-4.844093e+01
2.030000e-06	8.679961e-07	-6.626465e-10	6.145188e+00	-4.603329e+01
2.040000e-06	9.133558e-07	-6.285706e-10	6.466323e+00	-4.355808e+01
2.050000e-06	9.585474e-07	-5.904261e-10	6.786267e+00	-4.101509e+01
2.060000e-06	1.003687e-06	-5.496442e-10	7.105847e+00	-3.840440e+01
2.070000e-06	1.048882e-06	-5.082016e-10	7.425816e+00	-3.572637e+01
2.080000e-06	1.094036e-06	-4.675506e-10	7.745494e+00	-3.298171e+01
2.090000e-06	1.139098e-06	-4.276144e-10	8.064517e+00	-3.017146e+01
2.100000e-06	1.183980e-06	-3.882398e-10	8.382270e+00	-2.729702e+01
2.110000e-06	1.228693e-06	-3.481087e-10	8.698831e+00	-2.436019e+01
2.120000e-06	1.273290e-06	-3.079320e-10	9.014561e+00	-2.136314e+01
2.130000e-06	1.317787e-06	-2.653177e-10	9.329592e+00	-1.830844e+01
2.140000e-06	1.362311e-06	-2.171717e-10	9.644807e+00	-1.519907e+01
2.150000e-06	1.406780e-06	-1.654161e-10	9.959641e+00	-1.203838e+01
2.160000e-06	1.451101e-06	-1.143429e-10	1.027342e+01	-8.830148e+00
2.170000e-06	1.495293e-06	-6.691753e-11	1.058629e+01	-5.578497e+00
2.180000e-06	1.539409e-06	-2.024799e-11	1.089862e+01	-2.287924e+00
2.190000e-06	1.583451e-06	2.635038e-11	1.121043e+01	1.036734e+00
2.200000e-06	1.627422e-06	7.310472e-11	1.152172e+01	4.390327e+00
2.210000e-06	1.671351e-06	1.215650e-10	1.183273e+01	7.767425e+00
2.220000e-06	1.715241e-06	1.724488e-10	1.214346e+01	1.116235e+01
2.230000e-06	1.759043e-06	2.241100e-10	1.245357e+01	1.456921e+01
2.240000e-06	1.802757e-06	2.740123e-10	1.276305e+01	1.798196e+01
2.250000e-06	1.846408e-06	3.223977e-10	1.307209e+01	2.139442e+01
2.260000e-06	1.889961e-06	3.709910e-10	1.338044e+01	2.480036e+01
2.270000e-06	1.933465e-06	4.217093e-10	1.368843e+01	2.819350e+01
2.280000e-06	1.976844e-06	4.740203e-10	1.399554e+01	3.156762e+01
2.290000e-06	2.020101e-06	5.258731e-10	1.430180e+01	3.491655e+01
2.300000e-06	2.063175e-06	5.775267e-10	1.460675e+01	3.823428e+01
2.310000e-06	2.105984e-06	6.243067e-10	1.490982e+01	4.151496e+01
2.320000e-06	2.148596e-06	6.651507e-10	1.521150e+01	4.475298e+01
2.330000e-06	2.190981e-06	7.023579e-10	1.551158e+01	4.794300e+01
2.340000e-06	2.233196e-06	7.394529e-10	1.581045e+01	5.108001e+01
2.350000e-06	2.275136e-06	7.805240e-10	1.610737e+01	5.415933e+01
2.360000e-06	2.316714e-06	8.260946e-10	1.640173e+01	5.717671e+01
2.370000e-06	2.357917e-06	8.750572e-10	1.669344e+01	6.012828e+01
2.380000e-06	2.398723e-06	9.245649e-10	1.698234e+01	6.301065e+01
2.390000e-06	2.439279e-06	9.685484e-10	1.726947e+01	6.582086e+01
2.400000e-06	2.479624e-06	1.002934e-09	1.755510e+01	6.855646e+01
2.410000e-06	2.519783e-06	1.030136e-09	1.783941e+01	7.121544e+01
2.420000e-06	2.559816e-06	1.057955e-09	1.812284e+01	7.379633e+01
2.430000e-06	2.599755e-06	1.090882e-09	1.840559e+01	7.629808e+01
2.440000e-06	2.639677e-06	1.126362e-09	1.868823e+01	7.872016e+01
2.450000e-06	2.679525e-06	1.162553e-09	1.897034e+01	8.106246e+01
2.460000e-06	2.719201e-06	1.201670e-09	1.925124e+01	8.332531e+01
2.470000e-06	2.758735e-06	1.241084e-09	1.953113e+01	8.550944e+01
2.480000e-06	2.798147e-06	1.272457e-09	1.981016e+01	8.761597e+01
2.490000e-06	2.837388e-06	1.293721e-09	2.008797e+01	8.964635e+01
2.500000e-06	2.876420e-06	1.312382e-09	2.036431e+01	9.160232e+01
2.510000e-06	2.915211e-06	1.336443e-09	2.063894e+01	9.348591e+01
2.520000e-06	2.953772e-06	1.366555e-09	2.091194e+01	9.529937e+01
2.530000e-06	2.992057e-06	1.397069e-09	2.118299e+01	9.704510e+01
2.540000e-06	3.030115e-06	1.424363e-09	2.145243e+01	9.872568e+01
2.550000e-06	3.068027e-06	1.452267e-09	2.172084e+01	1.003438e+02
2.560000e-06	3.105788e-06	1.478692e-09	2.198817e+01	1.019021e+02
2.570000e-06	3.143435e-06	1.499169e-09	2.225471e+01	1.034034e+02
2.580000e-06	3.180759e-06	1.515363e-09	2.251895e+01	1.048503e+02
2.590000e-06	3.217767e-06	1.531673e-09	2.278096e+01	1.062456e+02
2.600000e-06	3.254698e-06	1.551493e-09	2.304242e+01	1.075919e+02
2.610000e-06	3.291385e-06	1.572478e-09	2.330215e+01	1.088915e+02
2.620000e-06	3.327729e-06	1.590519e-09	2.355946e+01	1.101470e+02
2.630000e-06	3.363866e-06	1.607346e-09	2.381530e+01	1.113604e+02
2.640000e-06	3.399807e-06	1.625286e-09	2.406975e+01	1.125339e+02
2.650000e-06	3.435635e-06	1.642148e-09	2.432341e+01	1.136692e+02
2.660000e-06	3.471414e-06	1.656126e-09	2.457671e+01	1.147682e+02
2.670000e-06	3.507097e-06	1.670434e-09	2.482934e+01	1.158323e+02
2.680000e-06	3.542621e-06	1.685364e-09	2.508084e+01	1.168628e+02
2.690000e-06	3.577865e-06	1.700524e-09	2.533036e+01	1.178610e+02
2.700000e-06	3.612759e-06	1.716023e-09	2.557740e+01	1.188279e+02
2.710000e-06	3.647196e-06	1.730011e-09	2.582120e+01	1.197644e+02
2.720000e-06	3.681152e-06	1.743902e-09	2.606161e+01	1.206711e+02
2.730000e-06	3.714676e-06	1.758271e-09	2.629894e+01	1.215487e+02
2.740000e-06	3.747755e-06	1.771021e-09	2.653314e+01	1.223979e+02
2.750000e-06	3.780448e-06	1.782399e-09	2.676459e+01	1.232190e+02
2.760000e-06	3.812808e-06	1.792900e-09	2.699369e+01	1.240124e+02
2.770000e-06	3.844913e-06	1.802771e-09	2.722099e+01	1.247785e+02
2.780000e-06	3.876862e-06	1.813907e-09	2.744718e+01	1.255177e+02
2.790000e-06	3.908678e-06	1.824708e-09	2.767243e+01	1.262303e+02
2.800000e-06	3.940307e-06	1.834199e-09	2.789636e+01	1.269167e+02
2.810000e-06	3.971704e-06	1.844164e-09	2.811864e+01	1.275772e+02
2.820000e-06	4.002865e-06	1.852952e-09	2.833925e+01	1.282123e+02
2.830000e-06	4.033778e-06	1.861407e-09	2.855810e+01	1.288224e+02
2.840000e-06	4.064299e-06	1.872399e-09	2.877419e+01	1.294081e+02
2.850000e-06	4.094482e-06	1.885236e-09	2.898787e+01	1.299700e+02
2.860000e-06	4.124497e-06	1.897393e-09	2.920037e+01	1.305087e+02
2.870000e-06	4.154315e-06	1.906137e-09	2.941148e+01	1.310250e+02
2.880000e-06	4.183871e-06	1.911160e-09	2.962072e+01	1.315195e+02
2.890000e-06	4.213089e-06	1.914782e-09	2.982758e+01	1.319932e+02
2.900000e-06	4.241890e-06	1.917675e-09	3.003149e+01	1.324468e+02
