# Temperatura_=_7.27
# Concentracion g/m^3_=_4090.0
# C_Vs_to_Am_M_A/Vsm_=_65563218390.804596
# pendiente_HvsI_1/m_=_3716.3
# ordenada_HvsI_A/m_=_1297.0
# frecuencia_Hz_=_135068.44141700203

Tiempo_(s)	Campo_(V.s)	Magnetizacion_(V.s)	Campo_(kA/m)	Magnetizacion_(A/m)
0.000000e+00	-5.430850e-06	-2.470854e-09	-3.840381e+01	-1.605502e+02
1.000000e-08	-5.430894e-06	-2.471090e-09	-3.840412e+01	-1.604546e+02
2.000000e-08	-5.430709e-06	-2.470573e-09	-3.840281e+01	-1.603579e+02
3.000000e-08	-5.430279e-06	-2.466851e-09	-3.839977e+01	-1.602624e+02
4.000000e-08	-5.429560e-06	-2.464169e-09	-3.839468e+01	-1.601704e+02
5.000000e-08	-5.428420e-06	-2.466847e-09	-3.838662e+01	-1.600844e+02
6.000000e-08	-5.426712e-06	-2.474494e-09	-3.837455e+01	-1.600065e+02
7.000000e-08	-5.424388e-06	-2.475288e-09	-3.835811e+01	-1.599389e+02
8.000000e-08	-5.421431e-06	-2.450322e-09	-3.833720e+01	-1.598835e+02
9.000000e-08	-5.417924e-06	-2.428321e-09	-3.831240e+01	-1.598423e+02
1.000000e-07	-5.413975e-06	-2.481144e-09	-3.828448e+01	-1.598168e+02
1.100000e-07	-5.409686e-06	-2.532523e-09	-3.825415e+01	-1.598083e+02
1.200000e-07	-5.405191e-06	-2.489065e-09	-3.822236e+01	-1.598177e+02
1.300000e-07	-5.400463e-06	-2.390042e-09	-3.818893e+01	-1.598458e+02
1.400000e-07	-5.395389e-06	-2.439985e-09	-3.815305e+01	-1.598930e+02
1.500000e-07	-5.389945e-06	-2.528662e-09	-3.811455e+01	-1.599590e+02
1.600000e-07	-5.384197e-06	-2.470535e-09	-3.807390e+01	-1.600437e+02
1.700000e-07	-5.378110e-06	-2.352214e-09	-3.803086e+01	-1.601462e+02
1.800000e-07	-5.371545e-06	-2.406466e-09	-3.798444e+01	-1.602654e+02
1.900000e-07	-5.364549e-06	-2.544254e-09	-3.793497e+01	-1.603999e+02
2.000000e-07	-5.357316e-06	-2.498412e-09	-3.788382e+01	-1.605479e+02
2.100000e-07	-5.349826e-06	-2.421128e-09	-3.783085e+01	-1.607074e+02
2.200000e-07	-5.341947e-06	-2.460640e-09	-3.777514e+01	-1.608762e+02
2.300000e-07	-5.333729e-06	-2.544476e-09	-3.771702e+01	-1.610516e+02
2.400000e-07	-5.325232e-06	-2.484857e-09	-3.765694e+01	-1.612311e+02
2.500000e-07	-5.316268e-06	-2.468167e-09	-3.759355e+01	-1.614117e+02
2.600000e-07	-5.306620e-06	-2.537129e-09	-3.752532e+01	-1.615908e+02
2.700000e-07	-5.296433e-06	-2.568666e-09	-3.745329e+01	-1.617653e+02
2.800000e-07	-5.285770e-06	-2.506699e-09	-3.737788e+01	-1.619324e+02
2.900000e-07	-5.274635e-06	-2.528460e-09	-3.729914e+01	-1.620893e+02
3.000000e-07	-5.263030e-06	-2.582252e-09	-3.721708e+01	-1.622332e+02
3.100000e-07	-5.250984e-06	-2.532743e-09	-3.713190e+01	-1.623618e+02
3.200000e-07	-5.238498e-06	-2.481664e-09	-3.704361e+01	-1.624727e+02
3.300000e-07	-5.225578e-06	-2.540929e-09	-3.695224e+01	-1.625639e+02
3.400000e-07	-5.212315e-06	-2.560799e-09	-3.685845e+01	-1.626335e+02
3.500000e-07	-5.198624e-06	-2.497415e-09	-3.676164e+01	-1.626802e+02
3.600000e-07	-5.184550e-06	-2.501822e-09	-3.666212e+01	-1.627028e+02
3.700000e-07	-5.170170e-06	-2.549524e-09	-3.656043e+01	-1.627005e+02
3.800000e-07	-5.155315e-06	-2.528856e-09	-3.645539e+01	-1.626729e+02
3.900000e-07	-5.139726e-06	-2.500990e-09	-3.634515e+01	-1.626199e+02
4.000000e-07	-5.123535e-06	-2.528511e-09	-3.623065e+01	-1.625418e+02
4.100000e-07	-5.106912e-06	-2.512166e-09	-3.611310e+01	-1.624391e+02
4.200000e-07	-5.089941e-06	-2.484626e-09	-3.599310e+01	-1.623128e+02
4.300000e-07	-5.072692e-06	-2.503342e-09	-3.587112e+01	-1.621641e+02
4.400000e-07	-5.055169e-06	-2.521521e-09	-3.574721e+01	-1.619945e+02
4.500000e-07	-5.037457e-06	-2.481663e-09	-3.562196e+01	-1.618056e+02
4.600000e-07	-5.019437e-06	-2.486574e-09	-3.549453e+01	-1.615993e+02
4.700000e-07	-5.001000e-06	-2.512502e-09	-3.536416e+01	-1.613778e+02
4.800000e-07	-4.982262e-06	-2.512050e-09	-3.523165e+01	-1.611430e+02
4.900000e-07	-4.963241e-06	-2.482014e-09	-3.509715e+01	-1.608974e+02
5.000000e-07	-4.943769e-06	-2.485556e-09	-3.495945e+01	-1.606430e+02
5.100000e-07	-4.923918e-06	-2.485770e-09	-3.481908e+01	-1.603821e+02
5.200000e-07	-4.903866e-06	-2.485409e-09	-3.467728e+01	-1.601169e+02
5.300000e-07	-4.883600e-06	-2.469296e-09	-3.453398e+01	-1.598494e+02
5.400000e-07	-4.863080e-06	-2.462733e-09	-3.438887e+01	-1.595816e+02
5.500000e-07	-4.842235e-06	-2.463468e-09	-3.424147e+01	-1.593151e+02
5.600000e-07	-4.821000e-06	-2.474311e-09	-3.409130e+01	-1.590515e+02
5.700000e-07	-4.799429e-06	-2.463476e-09	-3.393877e+01	-1.587921e+02
5.800000e-07	-4.777552e-06	-2.451787e-09	-3.378406e+01	-1.585381e+02
5.900000e-07	-4.755328e-06	-2.447580e-09	-3.362691e+01	-1.582902e+02
6.000000e-07	-4.732735e-06	-2.447726e-09	-3.346715e+01	-1.580491e+02
6.100000e-07	-4.709812e-06	-2.440355e-09	-3.330505e+01	-1.578149e+02
6.200000e-07	-4.686566e-06	-2.428258e-09	-3.314067e+01	-1.575879e+02
6.300000e-07	-4.663033e-06	-2.415208e-09	-3.297426e+01	-1.573677e+02
6.400000e-07	-4.639313e-06	-2.419484e-09	-3.280652e+01	-1.571539e+02
6.500000e-07	-4.615373e-06	-2.428793e-09	-3.263723e+01	-1.569459e+02
6.600000e-07	-4.591226e-06	-2.414498e-09	-3.246647e+01	-1.567429e+02
6.700000e-07	-4.566789e-06	-2.400760e-09	-3.229367e+01	-1.565439e+02
6.800000e-07	-4.541919e-06	-2.406273e-09	-3.211781e+01	-1.563476e+02
6.900000e-07	-4.516518e-06	-2.412691e-09	-3.193818e+01	-1.561528e+02
7.000000e-07	-4.490631e-06	-2.400015e-09	-3.175512e+01	-1.559582e+02
7.100000e-07	-4.464294e-06	-2.391034e-09	-3.156889e+01	-1.557624e+02
7.200000e-07	-4.437400e-06	-2.384978e-09	-3.137871e+01	-1.555640e+02
7.300000e-07	-4.410051e-06	-2.386500e-09	-3.118531e+01	-1.553616e+02
7.400000e-07	-4.382384e-06	-2.379689e-09	-3.098967e+01	-1.551539e+02
7.500000e-07	-4.354467e-06	-2.370080e-09	-3.079225e+01	-1.549395e+02
7.600000e-07	-4.326368e-06	-2.361626e-09	-3.059355e+01	-1.547174e+02
7.700000e-07	-4.298101e-06	-2.368382e-09	-3.039366e+01	-1.544865e+02
7.800000e-07	-4.269656e-06	-2.366253e-09	-3.019252e+01	-1.542459e+02
7.900000e-07	-4.240980e-06	-2.357244e-09	-2.998974e+01	-1.539948e+02
8.000000e-07	-4.211953e-06	-2.345505e-09	-2.978448e+01	-1.537326e+02
8.100000e-07	-4.182564e-06	-2.343463e-09	-2.957665e+01	-1.534589e+02
8.200000e-07	-4.152877e-06	-2.337552e-09	-2.936673e+01	-1.531736e+02
8.300000e-07	-4.122947e-06	-2.331152e-09	-2.915508e+01	-1.528765e+02
8.400000e-07	-4.092742e-06	-2.321013e-09	-2.894149e+01	-1.525677e+02
8.500000e-07	-4.062211e-06	-2.319839e-09	-2.872559e+01	-1.522475e+02
8.600000e-07	-4.031345e-06	-2.319128e-09	-2.850732e+01	-1.519163e+02
8.700000e-07	-4.000269e-06	-2.311715e-09	-2.828757e+01	-1.515747e+02
8.800000e-07	-3.968980e-06	-2.297886e-09	-2.806631e+01	-1.512233e+02
8.900000e-07	-3.937484e-06	-2.290428e-09	-2.784360e+01	-1.508630e+02
9.000000e-07	-3.905813e-06	-2.289579e-09	-2.761963e+01	-1.504945e+02
9.100000e-07	-3.873881e-06	-2.285649e-09	-2.739383e+01	-1.501187e+02
9.200000e-07	-3.841735e-06	-2.272875e-09	-2.716651e+01	-1.497367e+02
9.300000e-07	-3.809402e-06	-2.261682e-09	-2.693787e+01	-1.493494e+02
9.400000e-07	-3.776889e-06	-2.259125e-09	-2.670796e+01	-1.489577e+02
9.500000e-07	-3.744056e-06	-2.256646e-09	-2.647578e+01	-1.485625e+02
9.600000e-07	-3.710723e-06	-2.248620e-09	-2.624007e+01	-1.481648e+02
9.700000e-07	-3.676930e-06	-2.238881e-09	-2.600111e+01	-1.477653e+02
9.800000e-07	-3.642788e-06	-2.236929e-09	-2.575967e+01	-1.473648e+02
9.900000e-07	-3.608241e-06	-2.233781e-09	-2.551538e+01	-1.469639e+02
1.000000e-06	-3.573396e-06	-2.224758e-09	-2.526897e+01	-1.465633e+02
1.010000e-06	-3.538225e-06	-2.212547e-09	-2.502027e+01	-1.461632e+02
1.020000e-06	-3.502649e-06	-2.203591e-09	-2.476869e+01	-1.457641e+02
1.030000e-06	-3.466851e-06	-2.192817e-09	-2.451555e+01	-1.453661e+02
1.040000e-06	-3.430953e-06	-2.184180e-09	-2.426170e+01	-1.449694e+02
1.050000e-06	-3.394968e-06	-2.177076e-09	-2.400723e+01	-1.445738e+02
1.060000e-06	-3.358823e-06	-2.174621e-09	-2.375164e+01	-1.441793e+02
1.070000e-06	-3.322435e-06	-2.172184e-09	-2.349432e+01	-1.437856e+02
1.080000e-06	-3.285792e-06	-2.167866e-09	-2.323521e+01	-1.433923e+02
1.090000e-06	-3.248930e-06	-2.156910e-09	-2.297454e+01	-1.429990e+02
1.100000e-06	-3.211874e-06	-2.146001e-09	-2.271250e+01	-1.426052e+02
1.110000e-06	-3.174631e-06	-2.135531e-09	-2.244914e+01	-1.422104e+02
1.120000e-06	-3.137101e-06	-2.128222e-09	-2.218375e+01	-1.418138e+02
1.130000e-06	-3.099345e-06	-2.121061e-09	-2.191676e+01	-1.414147e+02
1.140000e-06	-3.061475e-06	-2.118068e-09	-2.164897e+01	-1.410126e+02
1.150000e-06	-3.023326e-06	-2.117600e-09	-2.137920e+01	-1.406067e+02
1.160000e-06	-2.984894e-06	-2.114501e-09	-2.110743e+01	-1.401961e+02
1.170000e-06	-2.946323e-06	-2.104397e-09	-2.083468e+01	-1.397803e+02
1.180000e-06	-2.907578e-06	-2.091527e-09	-2.056070e+01	-1.393585e+02
1.190000e-06	-2.868580e-06	-2.078970e-09	-2.028493e+01	-1.389300e+02
1.200000e-06	-2.829331e-06	-2.069637e-09	-2.000738e+01	-1.384942e+02
1.210000e-06	-2.789941e-06	-2.061544e-09	-1.972883e+01	-1.380504e+02
1.220000e-06	-2.750405e-06	-2.056142e-09	-1.944926e+01	-1.375981e+02
1.230000e-06	-2.710648e-06	-2.053346e-09	-1.916812e+01	-1.371367e+02
1.240000e-06	-2.670754e-06	-2.048632e-09	-1.888601e+01	-1.366658e+02
1.250000e-06	-2.630764e-06	-2.039430e-09	-1.860323e+01	-1.361850e+02
1.260000e-06	-2.590655e-06	-2.026814e-09	-1.831961e+01	-1.356938e+02
1.270000e-06	-2.550495e-06	-2.013139e-09	-1.803562e+01	-1.351920e+02
1.280000e-06	-2.510254e-06	-1.998145e-09	-1.775105e+01	-1.346792e+02
1.290000e-06	-2.469799e-06	-1.987521e-09	-1.746498e+01	-1.341553e+02
1.300000e-06	-2.429084e-06	-1.980241e-09	-1.717707e+01	-1.336199e+02
1.310000e-06	-2.388169e-06	-1.974320e-09	-1.688774e+01	-1.330730e+02
1.320000e-06	-2.347048e-06	-1.967543e-09	-1.659695e+01	-1.325145e+02
1.330000e-06	-2.305669e-06	-1.958681e-09	-1.630435e+01	-1.319441e+02
1.340000e-06	-2.264082e-06	-1.945686e-09	-1.601027e+01	-1.313620e+02
1.350000e-06	-2.222181e-06	-1.932292e-09	-1.571397e+01	-1.307679e+02
1.360000e-06	-2.179868e-06	-1.919878e-09	-1.541475e+01	-1.301619e+02
1.370000e-06	-2.137290e-06	-1.909355e-09	-1.511367e+01	-1.295439e+02
1.380000e-06	-2.094540e-06	-1.897977e-09	-1.481137e+01	-1.289139e+02
1.390000e-06	-2.051507e-06	-1.887301e-09	-1.450706e+01	-1.282719e+02
1.400000e-06	-2.008266e-06	-1.877151e-09	-1.420129e+01	-1.276179e+02
1.410000e-06	-1.964888e-06	-1.867281e-09	-1.389454e+01	-1.269518e+02
1.420000e-06	-1.921347e-06	-1.854444e-09	-1.358665e+01	-1.262737e+02
1.430000e-06	-1.877686e-06	-1.838613e-09	-1.327790e+01	-1.255834e+02
1.440000e-06	-1.833876e-06	-1.820977e-09	-1.296810e+01	-1.248810e+02
1.450000e-06	-1.790000e-06	-1.805696e-09	-1.265784e+01	-1.241663e+02
1.460000e-06	-1.746091e-06	-1.795541e-09	-1.234734e+01	-1.234394e+02
1.470000e-06	-1.702111e-06	-1.788219e-09	-1.203634e+01	-1.226999e+02
1.480000e-06	-1.658048e-06	-1.778678e-09	-1.172475e+01	-1.219480e+02
1.490000e-06	-1.613893e-06	-1.766490e-09	-1.141251e+01	-1.211833e+02
1.500000e-06	-1.569716e-06	-1.753839e-09	-1.110011e+01	-1.204057e+02
1.510000e-06	-1.525508e-06	-1.738570e-09	-1.078750e+01	-1.196149e+02
1.520000e-06	-1.481181e-06	-1.718379e-09	-1.047405e+01	-1.188108e+02
1.530000e-06	-1.436800e-06	-1.697716e-09	-1.016021e+01	-1.179930e+02
1.540000e-06	-1.392374e-06	-1.685578e-09	-9.846059e+00	-1.171611e+02
1.550000e-06	-1.347807e-06	-1.680911e-09	-9.530902e+00	-1.163147e+02
1.560000e-06	-1.303121e-06	-1.674550e-09	-9.214915e+00	-1.154534e+02
1.570000e-06	-1.258392e-06	-1.664528e-09	-8.898615e+00	-1.145766e+02
1.580000e-06	-1.213599e-06	-1.653229e-09	-8.581868e+00	-1.136839e+02
1.590000e-06	-1.168688e-06	-1.640493e-09	-8.264279e+00	-1.127744e+02
1.600000e-06	-1.123609e-06	-1.622218e-09	-7.945507e+00	-1.118476e+02
1.610000e-06	-1.078409e-06	-1.597410e-09	-7.625883e+00	-1.109025e+02
1.620000e-06	-1.033160e-06	-1.573362e-09	-7.305904e+00	-1.099384e+02
1.630000e-06	-9.878156e-07	-1.558785e-09	-6.985256e+00	-1.089542e+02
1.640000e-06	-9.424166e-07	-1.550498e-09	-6.664221e+00	-1.079490e+02
1.650000e-06	-8.969441e-07	-1.539583e-09	-6.342666e+00	-1.069217e+02
1.660000e-06	-8.514049e-07	-1.527273e-09	-6.020639e+00	-1.058710e+02
1.670000e-06	-8.058061e-07	-1.515991e-09	-5.698191e+00	-1.047958e+02
1.680000e-06	-7.601170e-07	-1.501527e-09	-5.375104e+00	-1.036947e+02
1.690000e-06	-7.144347e-07	-1.478819e-09	-5.052066e+00	-1.025664e+02
1.700000e-06	-6.687312e-07	-1.451478e-09	-4.728877e+00	-1.014094e+02
1.710000e-06	-6.229719e-07	-1.427988e-09	-4.405295e+00	-1.002223e+02
1.720000e-06	-5.771507e-07	-1.414077e-09	-4.081273e+00	-9.900354e+01
1.730000e-06	-5.313102e-07	-1.401645e-09	-3.757116e+00	-9.775160e+01
1.740000e-06	-4.854221e-07	-1.384616e-09	-3.432622e+00	-9.646495e+01
1.750000e-06	-4.394526e-07	-1.368177e-09	-3.107552e+00	-9.514202e+01
1.760000e-06	-3.934656e-07	-1.355315e-09	-2.782360e+00	-9.378127e+01
1.770000e-06	-3.474774e-07	-1.337320e-09	-2.457158e+00	-9.238118e+01
1.780000e-06	-3.014852e-07	-1.309392e-09	-2.131928e+00	-9.094026e+01
1.790000e-06	-2.554676e-07	-1.278167e-09	-1.806518e+00	-8.945707e+01
1.800000e-06	-2.094573e-07	-1.253265e-09	-1.481160e+00	-8.793024e+01
1.810000e-06	-1.634800e-07	-1.233280e-09	-1.156036e+00	-8.635846e+01
1.820000e-06	-1.174844e-07	-1.210354e-09	-8.307811e-01	-8.474050e+01
1.830000e-06	-7.147974e-08	-1.183520e-09	-5.054631e-01	-8.307524e+01
1.840000e-06	-2.548021e-08	-1.160147e-09	-1.801812e-01	-8.136165e+01
1.850000e-06	2.052620e-08	-1.139360e-09	1.451493e-01	-7.959883e+01
1.860000e-06	6.651175e-08	-1.113089e-09	4.703324e-01	-7.778599e+01
1.870000e-06	1.125040e-07	-1.080598e-09	7.955625e-01	-7.592247e+01
1.880000e-06	1.585014e-07	-1.048992e-09	1.120830e+00	-7.400773e+01
1.890000e-06	2.044664e-07	-1.021313e-09	1.445867e+00	-7.204138e+01
1.900000e-06	2.504346e-07	-9.906955e-10	1.770927e+00	-7.002316e+01
1.910000e-06	2.963926e-07	-9.551963e-10	2.095916e+00	-6.795293e+01
1.920000e-06	3.423566e-07	-9.220999e-10	2.420947e+00	-6.583072e+01
1.930000e-06	3.883745e-07	-8.949461e-10	2.746358e+00	-6.365666e+01
1.940000e-06	4.343529e-07	-8.677106e-10	3.071491e+00	-6.143101e+01
1.950000e-06	4.802998e-07	-8.345150e-10	3.396400e+00	-5.915417e+01
1.960000e-06	5.261920e-07	-7.964194e-10	3.720923e+00	-5.682665e+01
1.970000e-06	5.719678e-07	-7.609391e-10	4.044623e+00	-5.444907e+01
1.980000e-06	6.176919e-07	-7.264732e-10	4.367957e+00	-5.202217e+01
1.990000e-06	6.634008e-07	-6.881575e-10	4.691184e+00	-4.954678e+01
2.000000e-06	7.091427e-07	-6.487931e-10	5.014644e+00	-4.702383e+01
2.010000e-06	7.548489e-07	-6.111981e-10	5.337852e+00	-4.445433e+01
2.020000e-06	8.004655e-07	-5.756722e-10	5.660426e+00	-4.183939e+01
2.030000e-06	8.460546e-07	-5.376240e-10	5.982805e+00	-3.918020e+01
2.040000e-06	8.915913e-07	-4.952413e-10	6.304814e+00	-3.647801e+01
2.050000e-06	9.370139e-07	-4.548949e-10	6.626016e+00	-3.373416e+01
2.060000e-06	9.823077e-07	-4.215235e-10	6.946308e+00	-3.095007e+01
2.070000e-06	1.027529e-06	-3.871276e-10	7.266085e+00	-2.812721e+01
2.080000e-06	1.072729e-06	-3.434311e-10	7.585712e+00	-2.526716e+01
2.090000e-06	1.117791e-06	-2.949969e-10	7.904367e+00	-2.237153e+01
2.100000e-06	1.162724e-06	-2.484203e-10	8.222108e+00	-1.944205e+01
2.110000e-06	1.207608e-06	-2.049456e-10	8.539503e+00	-1.648051e+01
2.120000e-06	1.252324e-06	-1.608211e-10	8.855708e+00	-1.348879e+01
2.130000e-06	1.296912e-06	-1.171808e-10	9.171002e+00	-1.046885e+01
2.140000e-06	1.341537e-06	-7.607826e-11	9.486567e+00	-7.422768e+00
2.150000e-06	1.386081e-06	-3.500246e-11	9.801560e+00	-4.352700e+00
2.160000e-06	1.430473e-06	8.891525e-12	1.011547e+01	-1.260911e+00
2.170000e-06	1.474812e-06	5.697353e-11	1.042901e+01	1.850227e+00
2.180000e-06	1.519044e-06	1.046998e-10	1.074180e+01	4.978236e+00
2.190000e-06	1.563203e-06	1.503946e-10	1.105406e+01	8.120528e+00
2.200000e-06	1.607323e-06	1.979297e-10	1.136605e+01	1.127440e+01
2.210000e-06	1.651388e-06	2.462034e-10	1.167766e+01	1.443706e+01
2.220000e-06	1.695433e-06	2.935221e-10	1.198912e+01	1.760559e+01
2.230000e-06	1.739401e-06	3.352586e-10	1.230003e+01	2.077699e+01
2.240000e-06	1.783315e-06	3.738999e-10	1.261057e+01	2.394815e+01
2.250000e-06	1.827219e-06	4.132557e-10	1.292103e+01	2.711591e+01
2.260000e-06	1.870996e-06	4.560943e-10	1.323059e+01	3.027701e+01
2.270000e-06	1.914609e-06	5.032268e-10	1.353900e+01	3.342817e+01
2.280000e-06	1.958192e-06	5.553137e-10	1.384720e+01	3.656604e+01
2.290000e-06	2.001628e-06	6.097257e-10	1.415435e+01	3.968726e+01
2.300000e-06	2.044828e-06	6.609108e-10	1.445983e+01	4.278848e+01
2.310000e-06	2.087885e-06	7.047976e-10	1.476431e+01	4.586637e+01
2.320000e-06	2.130672e-06	7.407373e-10	1.506687e+01	4.891763e+01
2.330000e-06	2.173091e-06	7.749004e-10	1.536684e+01	5.193903e+01
2.340000e-06	2.215250e-06	8.094222e-10	1.566495e+01	5.492743e+01
2.350000e-06	2.257198e-06	8.462009e-10	1.596159e+01	5.787981e+01
2.360000e-06	2.298792e-06	8.890780e-10	1.625572e+01	6.079327e+01
2.370000e-06	2.340085e-06	9.396080e-10	1.654771e+01	6.366507e+01
2.380000e-06	2.381089e-06	9.909811e-10	1.683767e+01	6.649266e+01
2.390000e-06	2.421761e-06	1.034380e-09	1.712529e+01	6.927366e+01
2.400000e-06	2.462279e-06	1.068218e-09	1.741180e+01	7.200591e+01
2.410000e-06	2.502667e-06	1.097666e-09	1.769740e+01	7.468748e+01
2.420000e-06	2.542845e-06	1.126854e-09	1.798152e+01	7.731667e+01
2.430000e-06	2.582920e-06	1.158459e-09	1.826491e+01	7.989203e+01
2.440000e-06	2.622971e-06	1.194142e-09	1.854812e+01	8.241236e+01
2.450000e-06	2.662918e-06	1.233231e-09	1.883060e+01	8.487669e+01
2.460000e-06	2.702731e-06	1.271893e-09	1.911214e+01	8.728431e+01
2.470000e-06	2.742435e-06	1.307965e-09	1.939290e+01	8.963478e+01
2.480000e-06	2.782058e-06	1.338231e-09	1.967309e+01	9.192785e+01
2.490000e-06	2.821531e-06	1.365260e-09	1.995223e+01	9.416353e+01
2.500000e-06	2.860763e-06	1.393482e-09	2.022965e+01	9.634202e+01
2.510000e-06	2.899671e-06	1.424555e-09	2.050479e+01	9.846372e+01
2.520000e-06	2.938321e-06	1.456551e-09	2.077810e+01	1.005292e+02
2.530000e-06	2.976844e-06	1.488945e-09	2.105051e+01	1.025392e+02
2.540000e-06	3.015164e-06	1.520857e-09	2.132148e+01	1.044946e+02
2.550000e-06	3.053235e-06	1.550690e-09	2.159070e+01	1.063964e+02
2.560000e-06	3.091124e-06	1.577335e-09	2.185863e+01	1.082455e+02
2.570000e-06	3.128805e-06	1.599437e-09	2.212509e+01	1.100432e+02
2.580000e-06	3.166291e-06	1.621347e-09	2.239016e+01	1.117905e+02
2.590000e-06	3.203550e-06	1.646747e-09	2.265364e+01	1.134887e+02
2.600000e-06	3.240528e-06	1.673360e-09	2.291512e+01	1.151390e+02
2.610000e-06	3.277227e-06	1.698617e-09	2.317464e+01	1.167424e+02
2.620000e-06	3.313705e-06	1.722622e-09	2.343259e+01	1.183002e+02
2.630000e-06	3.350017e-06	1.744573e-09	2.368937e+01	1.198133e+02
2.640000e-06	3.386165e-06	1.764287e-09	2.394499e+01	1.212827e+02
2.650000e-06	3.422211e-06	1.780802e-09	2.419988e+01	1.227095e+02
2.660000e-06	3.458167e-06	1.797092e-09	2.445414e+01	1.240945e+02
2.670000e-06	3.494022e-06	1.817074e-09	2.470769e+01	1.254384e+02
2.680000e-06	3.529671e-06	1.839824e-09	2.495977e+01	1.267420e+02
2.690000e-06	3.565056e-06	1.860183e-09	2.521000e+01	1.280059e+02
2.700000e-06	3.600163e-06	1.877961e-09	2.545826e+01	1.292306e+02
2.710000e-06	3.634811e-06	1.895448e-09	2.570326e+01	1.304168e+02
2.720000e-06	3.668932e-06	1.913105e-09	2.594455e+01	1.315649e+02
2.730000e-06	3.702580e-06	1.930195e-09	2.618249e+01	1.326754e+02
2.740000e-06	3.735768e-06	1.947097e-09	2.641717e+01	1.337486e+02
2.750000e-06	3.768568e-06	1.964629e-09	2.664912e+01	1.347851e+02
2.760000e-06	3.801106e-06	1.982057e-09	2.687920e+01	1.357852e+02
2.770000e-06	3.833398e-06	1.998251e-09	2.710756e+01	1.367496e+02
2.780000e-06	3.865489e-06	2.010676e-09	2.733449e+01	1.376786e+02
2.790000e-06	3.897533e-06	2.022877e-09	2.756108e+01	1.385729e+02
2.800000e-06	3.929462e-06	2.035147e-09	2.778686e+01	1.394331e+02
2.810000e-06	3.961127e-06	2.046668e-09	2.801078e+01	1.402601e+02
2.820000e-06	3.992519e-06	2.057156e-09	2.823277e+01	1.410545e+02
2.830000e-06	4.023621e-06	2.065553e-09	2.845270e+01	1.418174e+02
2.840000e-06	4.054360e-06	2.078252e-09	2.867007e+01	1.425496e+02
2.850000e-06	4.084739e-06	2.095784e-09	2.888489e+01	1.432524e+02
2.860000e-06	4.114834e-06	2.112249e-09	2.909771e+01	1.439269e+02
2.870000e-06	4.144711e-06	2.125068e-09	2.930898e+01	1.445744e+02
2.880000e-06	4.174326e-06	2.133244e-09	2.951840e+01	1.451962e+02
2.890000e-06	4.203682e-06	2.136680e-09	2.972599e+01	1.457937e+02
2.900000e-06	4.232777e-06	2.136728e-09	2.993174e+01	1.463684e+02
