# Temperatura_=_-1.1
# Concentracion g/m^3_=_4090.0
# C_Vs_to_Am_M_A/Vsm_=_65563218390.804596
# pendiente_HvsI_1/m_=_3716.3
# ordenada_HvsI_A/m_=_1297.0
# frecuencia_Hz_=_135062.30026022994

Tiempo_(s)	Campo_(V.s)	Magnetizacion_(V.s)	Campo_(kA/m)	Magnetizacion_(A/m)
0.000000e+00	-5.379886e-06	-2.536901e-09	-3.839434e+01	-1.654068e+02
1.000000e-08	-5.380020e-06	-2.537474e-09	-3.839530e+01	-1.653372e+02
2.000000e-08	-5.379954e-06	-2.537998e-09	-3.839482e+01	-1.652740e+02
3.000000e-08	-5.379654e-06	-2.535107e-09	-3.839268e+01	-1.652190e+02
4.000000e-08	-5.379025e-06	-2.531836e-09	-3.838820e+01	-1.651735e+02
5.000000e-08	-5.377909e-06	-2.531446e-09	-3.838023e+01	-1.651392e+02
6.000000e-08	-5.376164e-06	-2.530762e-09	-3.836778e+01	-1.651171e+02
7.000000e-08	-5.373791e-06	-2.527334e-09	-3.835084e+01	-1.651083e+02
8.000000e-08	-5.370727e-06	-2.509960e-09	-3.832898e+01	-1.651137e+02
9.000000e-08	-5.367108e-06	-2.516273e-09	-3.830315e+01	-1.651339e+02
1.000000e-07	-5.363150e-06	-2.589427e-09	-3.827490e+01	-1.651692e+02
1.100000e-07	-5.358907e-06	-2.635164e-09	-3.824462e+01	-1.652198e+02
1.200000e-07	-5.354531e-06	-2.504615e-09	-3.821339e+01	-1.652855e+02
1.300000e-07	-5.349941e-06	-2.453217e-09	-3.818063e+01	-1.653659e+02
1.400000e-07	-5.344958e-06	-2.543574e-09	-3.814507e+01	-1.654603e+02
1.500000e-07	-5.339618e-06	-2.634375e-09	-3.810696e+01	-1.655678e+02
1.600000e-07	-5.333904e-06	-2.492766e-09	-3.806618e+01	-1.656873e+02
1.700000e-07	-5.327804e-06	-2.414944e-09	-3.802265e+01	-1.658174e+02
1.800000e-07	-5.321283e-06	-2.592967e-09	-3.797611e+01	-1.659565e+02
1.900000e-07	-5.314285e-06	-2.695234e-09	-3.792617e+01	-1.661029e+02
2.000000e-07	-5.306931e-06	-2.572376e-09	-3.787369e+01	-1.662546e+02
2.100000e-07	-5.299406e-06	-2.483973e-09	-3.781998e+01	-1.664096e+02
2.200000e-07	-5.291670e-06	-2.618615e-09	-3.776477e+01	-1.665659e+02
2.300000e-07	-5.283626e-06	-2.639366e-09	-3.770736e+01	-1.667213e+02
2.400000e-07	-5.275228e-06	-2.552296e-09	-3.764743e+01	-1.668736e+02
2.500000e-07	-5.266344e-06	-2.567097e-09	-3.758403e+01	-1.670206e+02
2.600000e-07	-5.256672e-06	-2.685870e-09	-3.751501e+01	-1.671604e+02
2.700000e-07	-5.246345e-06	-2.624957e-09	-3.744130e+01	-1.672908e+02
2.800000e-07	-5.235643e-06	-2.558852e-09	-3.736493e+01	-1.674099e+02
2.900000e-07	-5.224447e-06	-2.632658e-09	-3.728502e+01	-1.675161e+02
3.000000e-07	-5.212855e-06	-2.661906e-09	-3.720230e+01	-1.676078e+02
3.100000e-07	-5.200926e-06	-2.531930e-09	-3.711717e+01	-1.676835e+02
3.200000e-07	-5.188624e-06	-2.547687e-09	-3.702937e+01	-1.677422e+02
3.300000e-07	-5.175934e-06	-2.668811e-09	-3.693881e+01	-1.677828e+02
3.400000e-07	-5.162851e-06	-2.626689e-09	-3.684544e+01	-1.678047e+02
3.500000e-07	-5.149411e-06	-2.523665e-09	-3.674952e+01	-1.678073e+02
3.600000e-07	-5.135624e-06	-2.594977e-09	-3.665112e+01	-1.677906e+02
3.700000e-07	-5.121438e-06	-2.637140e-09	-3.654988e+01	-1.677544e+02
3.800000e-07	-5.106812e-06	-2.559226e-09	-3.644550e+01	-1.676991e+02
3.900000e-07	-5.091577e-06	-2.550903e-09	-3.633678e+01	-1.676251e+02
4.000000e-07	-5.075681e-06	-2.600236e-09	-3.622333e+01	-1.675331e+02
4.100000e-07	-5.059296e-06	-2.563643e-09	-3.610640e+01	-1.674239e+02
4.200000e-07	-5.042556e-06	-2.543912e-09	-3.598693e+01	-1.672985e+02
4.300000e-07	-5.025579e-06	-2.593529e-09	-3.586577e+01	-1.671581e+02
4.400000e-07	-5.008350e-06	-2.561296e-09	-3.574282e+01	-1.670040e+02
4.500000e-07	-4.990793e-06	-2.523594e-09	-3.561752e+01	-1.668375e+02
4.600000e-07	-4.972906e-06	-2.566869e-09	-3.548987e+01	-1.666601e+02
4.700000e-07	-4.954698e-06	-2.594158e-09	-3.535992e+01	-1.664731e+02
4.800000e-07	-4.936056e-06	-2.536914e-09	-3.522688e+01	-1.662780e+02
4.900000e-07	-4.916993e-06	-2.537244e-09	-3.509083e+01	-1.660763e+02
5.000000e-07	-4.897522e-06	-2.557958e-09	-3.495188e+01	-1.658692e+02
5.100000e-07	-4.877747e-06	-2.553920e-09	-3.481075e+01	-1.656583e+02
5.200000e-07	-4.857848e-06	-2.536269e-09	-3.466874e+01	-1.654445e+02
5.300000e-07	-4.837773e-06	-2.542545e-09	-3.452547e+01	-1.652291e+02
5.400000e-07	-4.817473e-06	-2.532437e-09	-3.438060e+01	-1.650131e+02
5.500000e-07	-4.796818e-06	-2.549135e-09	-3.423319e+01	-1.647972e+02
5.600000e-07	-4.775725e-06	-2.550539e-09	-3.408265e+01	-1.645823e+02
5.700000e-07	-4.754292e-06	-2.528128e-09	-3.392970e+01	-1.643688e+02
5.800000e-07	-4.732571e-06	-2.512062e-09	-3.377468e+01	-1.641573e+02
5.900000e-07	-4.710589e-06	-2.528667e-09	-3.361780e+01	-1.639480e+02
6.000000e-07	-4.688325e-06	-2.522216e-09	-3.345891e+01	-1.637410e+02
6.100000e-07	-4.665664e-06	-2.508698e-09	-3.329719e+01	-1.635363e+02
6.200000e-07	-4.642577e-06	-2.498785e-09	-3.313242e+01	-1.633339e+02
6.300000e-07	-4.619121e-06	-2.501405e-09	-3.296503e+01	-1.631334e+02
6.400000e-07	-4.595413e-06	-2.510253e-09	-3.279583e+01	-1.629346e+02
6.500000e-07	-4.571522e-06	-2.510132e-09	-3.262533e+01	-1.627371e+02
6.600000e-07	-4.547451e-06	-2.488334e-09	-3.245354e+01	-1.625404e+02
6.700000e-07	-4.523179e-06	-2.482863e-09	-3.228032e+01	-1.623439e+02
6.800000e-07	-4.498540e-06	-2.499187e-09	-3.210448e+01	-1.621471e+02
6.900000e-07	-4.473484e-06	-2.499183e-09	-3.192567e+01	-1.619494e+02
7.000000e-07	-4.447956e-06	-2.485895e-09	-3.174348e+01	-1.617502e+02
7.100000e-07	-4.421883e-06	-2.479753e-09	-3.155741e+01	-1.615489e+02
7.200000e-07	-4.395310e-06	-2.483978e-09	-3.136777e+01	-1.613451e+02
7.300000e-07	-4.368289e-06	-2.481529e-09	-3.117493e+01	-1.611382e+02
7.400000e-07	-4.340854e-06	-2.473669e-09	-3.097914e+01	-1.609277e+02
7.500000e-07	-4.313098e-06	-2.459740e-09	-3.078105e+01	-1.607132e+02
7.600000e-07	-4.285209e-06	-2.465838e-09	-3.058202e+01	-1.604943e+02
7.700000e-07	-4.257236e-06	-2.472250e-09	-3.038238e+01	-1.602708e+02
7.800000e-07	-4.229080e-06	-2.468127e-09	-3.018144e+01	-1.600424e+02
7.900000e-07	-4.200676e-06	-2.451002e-09	-2.997874e+01	-1.598090e+02
8.000000e-07	-4.171951e-06	-2.446629e-09	-2.977374e+01	-1.595705e+02
8.100000e-07	-4.142804e-06	-2.443261e-09	-2.956572e+01	-1.593268e+02
8.200000e-07	-4.113321e-06	-2.439298e-09	-2.935532e+01	-1.590779e+02
8.300000e-07	-4.083601e-06	-2.428020e-09	-2.914321e+01	-1.588239e+02
8.400000e-07	-4.053662e-06	-2.425697e-09	-2.892955e+01	-1.585649e+02
8.500000e-07	-4.023430e-06	-2.429240e-09	-2.871379e+01	-1.583010e+02
8.600000e-07	-3.992934e-06	-2.433079e-09	-2.849616e+01	-1.580324e+02
8.700000e-07	-3.962207e-06	-2.419432e-09	-2.827687e+01	-1.577592e+02
8.800000e-07	-3.931195e-06	-2.403600e-09	-2.805555e+01	-1.574817e+02
8.900000e-07	-3.899833e-06	-2.394930e-09	-2.783173e+01	-1.571999e+02
9.000000e-07	-3.868206e-06	-2.396900e-09	-2.760601e+01	-1.569141e+02
9.100000e-07	-3.836464e-06	-2.390110e-09	-2.737949e+01	-1.566244e+02
9.200000e-07	-3.804570e-06	-2.381096e-09	-2.715187e+01	-1.563310e+02
9.300000e-07	-3.772489e-06	-2.378954e-09	-2.692291e+01	-1.560339e+02
9.400000e-07	-3.740220e-06	-2.381169e-09	-2.669262e+01	-1.557332e+02
9.500000e-07	-3.707664e-06	-2.374785e-09	-2.646029e+01	-1.554290e+02
9.600000e-07	-3.674698e-06	-2.362633e-09	-2.622502e+01	-1.551213e+02
9.700000e-07	-3.641337e-06	-2.354903e-09	-2.598693e+01	-1.548100e+02
9.800000e-07	-3.607597e-06	-2.353055e-09	-2.574614e+01	-1.544952e+02
9.900000e-07	-3.573465e-06	-2.348190e-09	-2.550255e+01	-1.541767e+02
1.000000e-06	-3.538948e-06	-2.336945e-09	-2.525622e+01	-1.538545e+02
1.010000e-06	-3.503991e-06	-2.331413e-09	-2.500674e+01	-1.535283e+02
1.020000e-06	-3.468633e-06	-2.327924e-09	-2.475440e+01	-1.531982e+02
1.030000e-06	-3.433056e-06	-2.321140e-09	-2.450050e+01	-1.528638e+02
1.040000e-06	-3.397345e-06	-2.310338e-09	-2.424565e+01	-1.525251e+02
1.050000e-06	-3.361519e-06	-2.306502e-09	-2.398997e+01	-1.521819e+02
1.060000e-06	-3.325564e-06	-2.304725e-09	-2.373337e+01	-1.518340e+02
1.070000e-06	-3.289502e-06	-2.300786e-09	-2.347601e+01	-1.514813e+02
1.080000e-06	-3.253224e-06	-2.289959e-09	-2.321711e+01	-1.511236e+02
1.090000e-06	-3.216699e-06	-2.280692e-09	-2.295644e+01	-1.507608e+02
1.100000e-06	-3.179970e-06	-2.274388e-09	-2.269432e+01	-1.503928e+02
1.110000e-06	-3.142976e-06	-2.270093e-09	-2.243031e+01	-1.500194e+02
1.120000e-06	-3.105736e-06	-2.259522e-09	-2.216454e+01	-1.496406e+02
1.130000e-06	-3.068244e-06	-2.251169e-09	-2.189697e+01	-1.492564e+02
1.140000e-06	-3.030520e-06	-2.245028e-09	-2.162775e+01	-1.488666e+02
1.150000e-06	-2.992587e-06	-2.241246e-09	-2.135703e+01	-1.484712e+02
1.160000e-06	-2.954539e-06	-2.231778e-09	-2.108550e+01	-1.480702e+02
1.170000e-06	-2.916364e-06	-2.221997e-09	-2.081306e+01	-1.476636e+02
1.180000e-06	-2.877987e-06	-2.214645e-09	-2.053917e+01	-1.472514e+02
1.190000e-06	-2.839441e-06	-2.209688e-09	-2.026408e+01	-1.468335e+02
1.200000e-06	-2.800627e-06	-2.200060e-09	-1.998708e+01	-1.464099e+02
1.210000e-06	-2.761571e-06	-2.187317e-09	-1.970835e+01	-1.459806e+02
1.220000e-06	-2.722326e-06	-2.178142e-09	-1.942828e+01	-1.455455e+02
1.230000e-06	-2.682876e-06	-2.176105e-09	-1.914673e+01	-1.451046e+02
1.240000e-06	-2.643224e-06	-2.170436e-09	-1.886376e+01	-1.446577e+02
1.250000e-06	-2.603447e-06	-2.159022e-09	-1.857988e+01	-1.442047e+02
1.260000e-06	-2.563598e-06	-2.149916e-09	-1.829549e+01	-1.437455e+02
1.270000e-06	-2.523687e-06	-2.143644e-09	-1.801066e+01	-1.432798e+02
1.280000e-06	-2.483682e-06	-2.136388e-09	-1.772516e+01	-1.428074e+02
1.290000e-06	-2.443592e-06	-2.126624e-09	-1.743905e+01	-1.423281e+02
1.300000e-06	-2.403446e-06	-2.118343e-09	-1.715254e+01	-1.418415e+02
1.310000e-06	-2.363126e-06	-2.111867e-09	-1.686479e+01	-1.413474e+02
1.320000e-06	-2.322527e-06	-2.105174e-09	-1.657505e+01	-1.408453e+02
1.330000e-06	-2.281663e-06	-2.094993e-09	-1.628342e+01	-1.403349e+02
1.340000e-06	-2.240646e-06	-2.086656e-09	-1.599070e+01	-1.398157e+02
1.350000e-06	-2.199432e-06	-2.079326e-09	-1.569657e+01	-1.392874e+02
1.360000e-06	-2.157888e-06	-2.071334e-09	-1.540008e+01	-1.387494e+02
1.370000e-06	-2.115997e-06	-2.059826e-09	-1.510112e+01	-1.382014e+02
1.380000e-06	-2.073888e-06	-2.047698e-09	-1.480061e+01	-1.376429e+02
1.390000e-06	-2.031595e-06	-2.038122e-09	-1.449878e+01	-1.370734e+02
1.400000e-06	-1.989148e-06	-2.031571e-09	-1.419584e+01	-1.364925e+02
1.410000e-06	-1.946445e-06	-2.023269e-09	-1.389109e+01	-1.358998e+02
1.420000e-06	-1.903371e-06	-2.015047e-09	-1.358368e+01	-1.352950e+02
1.430000e-06	-1.860078e-06	-2.004893e-09	-1.327472e+01	-1.346775e+02
1.440000e-06	-1.816613e-06	-1.992593e-09	-1.296452e+01	-1.340472e+02
1.450000e-06	-1.772983e-06	-1.976219e-09	-1.265315e+01	-1.334037e+02
1.460000e-06	-1.729225e-06	-1.960441e-09	-1.234086e+01	-1.327466e+02
1.470000e-06	-1.685426e-06	-1.949293e-09	-1.202829e+01	-1.320758e+02
1.480000e-06	-1.641584e-06	-1.942709e-09	-1.171540e+01	-1.313910e+02
1.490000e-06	-1.597659e-06	-1.935379e-09	-1.140193e+01	-1.306920e+02
1.500000e-06	-1.553696e-06	-1.924347e-09	-1.108818e+01	-1.299786e+02
1.510000e-06	-1.509727e-06	-1.911421e-09	-1.077438e+01	-1.292505e+02
1.520000e-06	-1.465736e-06	-1.898081e-09	-1.046044e+01	-1.285077e+02
1.530000e-06	-1.421657e-06	-1.884592e-09	-1.014586e+01	-1.277499e+02
1.540000e-06	-1.377476e-06	-1.871678e-09	-9.830557e+00	-1.269770e+02
1.550000e-06	-1.333254e-06	-1.859039e-09	-9.514962e+00	-1.261886e+02
1.560000e-06	-1.289022e-06	-1.848238e-09	-9.199291e+00	-1.253846e+02
1.570000e-06	-1.244716e-06	-1.838884e-09	-8.883095e+00	-1.245646e+02
1.580000e-06	-1.200311e-06	-1.826730e-09	-8.566197e+00	-1.237283e+02
1.590000e-06	-1.155842e-06	-1.813322e-09	-8.248835e+00	-1.228753e+02
1.600000e-06	-1.111334e-06	-1.800814e-09	-7.931194e+00	-1.220051e+02
1.610000e-06	-1.066702e-06	-1.785471e-09	-7.612674e+00	-1.211172e+02
1.620000e-06	-1.021923e-06	-1.768063e-09	-7.293104e+00	-1.202109e+02
1.630000e-06	-9.770149e-07	-1.751780e-09	-6.972609e+00	-1.192856e+02
1.640000e-06	-9.319887e-07	-1.735692e-09	-6.651273e+00	-1.183404e+02
1.650000e-06	-8.869385e-07	-1.720364e-09	-6.329765e+00	-1.173744e+02
1.660000e-06	-8.419318e-07	-1.706173e-09	-6.008569e+00	-1.163867e+02
1.670000e-06	-7.968745e-07	-1.694865e-09	-5.687011e+00	-1.153763e+02
1.680000e-06	-7.516904e-07	-1.682719e-09	-5.364548e+00	-1.143419e+02
1.690000e-06	-7.064335e-07	-1.665498e-09	-5.041566e+00	-1.132824e+02
1.700000e-06	-6.611662e-07	-1.642783e-09	-4.718509e+00	-1.121965e+02
1.710000e-06	-6.158860e-07	-1.619312e-09	-4.395360e+00	-1.110828e+02
1.720000e-06	-5.704881e-07	-1.598481e-09	-4.071371e+00	-1.099399e+02
1.730000e-06	-5.249669e-07	-1.580314e-09	-3.746503e+00	-1.087664e+02
1.740000e-06	-4.794070e-07	-1.562332e-09	-3.421358e+00	-1.075607e+02
1.750000e-06	-4.338762e-07	-1.547103e-09	-3.096421e+00	-1.063215e+02
1.760000e-06	-3.883206e-07	-1.533785e-09	-2.771306e+00	-1.050472e+02
1.770000e-06	-3.427288e-07	-1.517619e-09	-2.445934e+00	-1.037363e+02
1.780000e-06	-2.970874e-07	-1.492995e-09	-2.120207e+00	-1.023873e+02
1.790000e-06	-2.513866e-07	-1.464651e-09	-1.794057e+00	-1.009988e+02
1.800000e-06	-2.056949e-07	-1.440264e-09	-1.467972e+00	-9.956939e+01
1.810000e-06	-1.600272e-07	-1.419237e-09	-1.142058e+00	-9.809775e+01
1.820000e-06	-1.143327e-07	-1.397767e-09	-8.159521e-01	-9.658257e+01
1.830000e-06	-6.861182e-08	-1.376240e-09	-4.896582e-01	-9.502265e+01
1.840000e-06	-2.295973e-08	-1.356638e-09	-1.638555e-01	-9.341683e+01
1.850000e-06	2.261435e-08	-1.337350e-09	1.613906e-01	-9.176407e+01
1.860000e-06	6.822033e-08	-1.312556e-09	4.868643e-01	-9.006340e+01
1.870000e-06	1.139036e-07	-1.281958e-09	8.128895e-01	-8.831393e+01
1.880000e-06	1.596087e-07	-1.253002e-09	1.139070e+00	-8.651487e+01
1.890000e-06	2.053510e-07	-1.229056e-09	1.465517e+00	-8.466550e+01
1.900000e-06	2.510723e-07	-1.204214e-09	1.791814e+00	-8.276520e+01
1.910000e-06	2.966833e-07	-1.172770e-09	2.117324e+00	-8.081344e+01
1.920000e-06	3.422223e-07	-1.141033e-09	2.442319e+00	-7.880974e+01
1.930000e-06	3.877850e-07	-1.111092e-09	2.767484e+00	-7.675371e+01
1.940000e-06	4.333112e-07	-1.079703e-09	3.092388e+00	-7.464503e+01
1.950000e-06	4.787262e-07	-1.045680e-09	3.416499e+00	-7.248343e+01
1.960000e-06	5.241673e-07	-1.015304e-09	3.740796e+00	-7.026873e+01
1.970000e-06	5.696180e-07	-9.902408e-10	4.065162e+00	-6.800076e+01
1.980000e-06	6.149402e-07	-9.636207e-10	4.388610e+00	-6.567944e+01
1.990000e-06	6.601778e-07	-9.296227e-10	4.711455e+00	-6.330472e+01
2.000000e-06	7.053903e-07	-8.891639e-10	5.034121e+00	-6.087660e+01
2.010000e-06	7.506049e-07	-8.462371e-10	5.356801e+00	-5.839512e+01
2.020000e-06	7.958374e-07	-8.046403e-10	5.679609e+00	-5.586040e+01
2.030000e-06	8.410558e-07	-7.649680e-10	6.002317e+00	-5.327259e+01
2.040000e-06	8.861674e-07	-7.306031e-10	6.324263e+00	-5.063190e+01
2.050000e-06	9.310714e-07	-7.006975e-10	6.644726e+00	-4.793862e+01
2.060000e-06	9.758378e-07	-6.703127e-10	6.964208e+00	-4.519311e+01
2.070000e-06	1.020589e-06	-6.344017e-10	7.283579e+00	-4.239582e+01
2.080000e-06	1.065289e-06	-5.909026e-10	7.602590e+00	-3.954730e+01
2.090000e-06	1.109908e-06	-5.409189e-10	7.921017e+00	-3.664820e+01
2.100000e-06	1.154422e-06	-4.894731e-10	8.238701e+00	-3.369933e+01
2.110000e-06	1.198844e-06	-4.407776e-10	8.555726e+00	-3.070161e+01
2.120000e-06	1.243163e-06	-3.969800e-10	8.872013e+00	-2.765613e+01
2.130000e-06	1.287364e-06	-3.589468e-10	9.187459e+00	-2.456415e+01
2.140000e-06	1.331525e-06	-3.204092e-10	9.502623e+00	-2.142713e+01
2.150000e-06	1.375685e-06	-2.761184e-10	9.817778e+00	-1.824672e+01
2.160000e-06	1.419805e-06	-2.265770e-10	1.013265e+01	-1.502478e+01
2.170000e-06	1.463843e-06	-1.757609e-10	1.044693e+01	-1.176340e+01
2.180000e-06	1.507849e-06	-1.244235e-10	1.076099e+01	-8.464895e+00
2.190000e-06	1.551843e-06	-7.400817e-11	1.107495e+01	-5.131822e+00
2.200000e-06	1.595785e-06	-2.375106e-11	1.138855e+01	-1.766976e+00
2.210000e-06	1.639610e-06	2.548718e-11	1.170132e+01	1.626609e+00
2.220000e-06	1.683375e-06	7.502537e-11	1.201365e+01	5.045664e+00
2.230000e-06	1.727116e-06	1.260485e-10	1.232581e+01	8.486693e+00
2.240000e-06	1.770771e-06	1.790361e-10	1.263736e+01	1.194598e+01
2.250000e-06	1.814333e-06	2.307375e-10	1.294825e+01	1.541961e+01
2.260000e-06	1.857735e-06	2.801654e-10	1.325799e+01	1.890349e+01
2.270000e-06	1.900909e-06	3.307259e-10	1.356612e+01	2.239335e+01
2.280000e-06	1.943889e-06	3.834948e-10	1.387285e+01	2.588478e+01
2.290000e-06	1.986767e-06	4.377620e-10	1.417885e+01	2.937329e+01
2.300000e-06	2.029455e-06	4.912498e-10	1.448350e+01	3.285427e+01
2.310000e-06	2.071784e-06	5.442016e-10	1.478559e+01	3.632308e+01
2.320000e-06	2.113751e-06	5.979459e-10	1.508509e+01	3.977508e+01
2.330000e-06	2.155449e-06	6.506030e-10	1.538267e+01	4.320561e+01
2.340000e-06	2.196883e-06	6.994995e-10	1.567838e+01	4.661012e+01
2.350000e-06	2.238081e-06	7.451915e-10	1.597239e+01	4.998410e+01
2.360000e-06	2.278995e-06	7.925071e-10	1.626438e+01	5.332320e+01
2.370000e-06	2.319616e-06	8.435716e-10	1.655428e+01	5.662321e+01
2.380000e-06	2.360076e-06	8.945735e-10	1.684303e+01	5.988013e+01
2.390000e-06	2.400377e-06	9.409293e-10	1.713064e+01	6.309017e+01
2.400000e-06	2.440591e-06	9.829484e-10	1.741763e+01	6.624979e+01
2.410000e-06	2.480730e-06	1.025871e-09	1.770409e+01	6.935573e+01
2.420000e-06	2.520739e-06	1.069546e-09	1.798962e+01	7.240503e+01
2.430000e-06	2.560623e-06	1.112564e-09	1.827426e+01	7.539502e+01
2.440000e-06	2.600370e-06	1.155963e-09	1.855792e+01	7.832337e+01
2.450000e-06	2.640043e-06	1.199383e-09	1.884105e+01	8.118809e+01
2.460000e-06	2.679601e-06	1.240449e-09	1.912336e+01	8.398750e+01
2.470000e-06	2.718960e-06	1.277492e-09	1.940425e+01	8.672028e+01
2.480000e-06	2.758076e-06	1.312039e-09	1.968341e+01	8.938543e+01
2.490000e-06	2.796949e-06	1.346676e-09	1.996083e+01	9.198228e+01
2.500000e-06	2.835694e-06	1.381933e-09	2.023734e+01	9.451046e+01
2.510000e-06	2.874245e-06	1.417942e-09	2.051247e+01	9.696991e+01
2.520000e-06	2.912596e-06	1.454247e-09	2.078616e+01	9.936083e+01
2.530000e-06	2.950792e-06	1.490935e-09	2.105876e+01	1.016837e+02
2.540000e-06	2.988752e-06	1.527452e-09	2.132966e+01	1.039391e+02
2.550000e-06	3.026464e-06	1.561805e-09	2.159880e+01	1.061281e+02
2.560000e-06	3.063970e-06	1.591222e-09	2.186647e+01	1.082517e+02
2.570000e-06	3.101305e-06	1.616753e-09	2.213291e+01	1.103110e+02
2.580000e-06	3.138407e-06	1.641661e-09	2.239770e+01	1.123075e+02
2.590000e-06	3.175210e-06	1.668177e-09	2.266035e+01	1.142425e+02
2.600000e-06	3.211749e-06	1.695475e-09	2.292111e+01	1.161175e+02
2.610000e-06	3.248105e-06	1.723828e-09	2.318058e+01	1.179342e+02
2.620000e-06	3.284343e-06	1.752575e-09	2.343919e+01	1.196940e+02
2.630000e-06	3.320465e-06	1.778951e-09	2.369698e+01	1.213985e+02
2.640000e-06	3.356435e-06	1.801648e-09	2.395369e+01	1.230492e+02
2.650000e-06	3.392269e-06	1.820450e-09	2.420942e+01	1.246476e+02
2.660000e-06	3.427924e-06	1.838385e-09	2.446388e+01	1.261952e+02
2.670000e-06	3.463374e-06	1.857489e-09	2.471687e+01	1.276934e+02
2.680000e-06	3.498648e-06	1.876437e-09	2.496861e+01	1.291433e+02
2.690000e-06	3.533647e-06	1.894445e-09	2.521839e+01	1.305464e+02
2.700000e-06	3.568263e-06	1.914550e-09	2.546543e+01	1.319038e+02
2.710000e-06	3.602448e-06	1.936741e-09	2.570939e+01	1.332166e+02
2.720000e-06	3.636195e-06	1.957256e-09	2.595023e+01	1.344858e+02
2.730000e-06	3.669462e-06	1.974135e-09	2.618765e+01	1.357123e+02
2.740000e-06	3.702281e-06	1.989566e-09	2.642187e+01	1.368972e+02
2.750000e-06	3.734804e-06	2.004909e-09	2.665397e+01	1.380413e+02
2.760000e-06	3.767068e-06	2.020898e-09	2.688423e+01	1.391455e+02
2.770000e-06	3.799169e-06	2.035404e-09	2.711332e+01	1.402105e+02
2.780000e-06	3.831177e-06	2.048135e-09	2.734175e+01	1.412373e+02
2.790000e-06	3.863006e-06	2.063486e-09	2.756890e+01	1.422265e+02
2.800000e-06	3.894589e-06	2.080921e-09	2.779430e+01	1.431791e+02
2.810000e-06	3.925895e-06	2.098721e-09	2.801772e+01	1.440959e+02
2.820000e-06	3.956959e-06	2.112464e-09	2.823942e+01	1.449778e+02
2.830000e-06	3.987779e-06	2.121218e-09	2.845937e+01	1.458257e+02
2.840000e-06	4.018217e-06	2.129001e-09	2.867659e+01	1.466405e+02
2.850000e-06	4.048331e-06	2.138641e-09	2.889150e+01	1.474232e+02
2.860000e-06	4.078267e-06	2.151404e-09	2.910514e+01	1.481748e+02
2.870000e-06	4.107978e-06	2.164854e-09	2.931719e+01	1.488965e+02
2.880000e-06	4.137403e-06	2.175689e-09	2.952718e+01	1.495894e+02
2.890000e-06	4.166510e-06	2.184471e-09	2.973490e+01	1.502545e+02
2.900000e-06	4.195291e-06	2.195934e-09	2.994031e+01	1.508931e+02
