# Temperatura_=_-1.8
# Concentracion g/m^3_=_4090.0
# C_Vs_to_Am_M_A/Vsm_=_65563218390.804596
# pendiente_HvsI_1/m_=_3716.3
# ordenada_HvsI_A/m_=_1297.0
# frecuencia_Hz_=_135070.31154867564

Tiempo_(s)	Campo_(V.s)	Magnetizacion_(V.s)	Campo_(kA/m)	Magnetizacion_(A/m)
0.000000e+00	-5.415901e-06	-2.324203e-09	-3.839968e+01	-1.512545e+02
1.000000e-08	-5.415995e-06	-2.321342e-09	-3.840034e+01	-1.511727e+02
2.000000e-08	-5.415904e-06	-2.322763e-09	-3.839970e+01	-1.510985e+02
3.000000e-08	-5.415542e-06	-2.326923e-09	-3.839713e+01	-1.510336e+02
4.000000e-08	-5.414785e-06	-2.327340e-09	-3.839176e+01	-1.509793e+02
5.000000e-08	-5.413453e-06	-2.323955e-09	-3.838232e+01	-1.509368e+02
6.000000e-08	-5.411455e-06	-2.320072e-09	-3.836815e+01	-1.509074e+02
7.000000e-08	-5.408845e-06	-2.312459e-09	-3.834965e+01	-1.508918e+02
8.000000e-08	-5.405667e-06	-2.297342e-09	-3.832712e+01	-1.508905e+02
9.000000e-08	-5.401985e-06	-2.321187e-09	-3.830101e+01	-1.509040e+02
1.000000e-07	-5.397919e-06	-2.403209e-09	-3.827218e+01	-1.509324e+02
1.100000e-07	-5.393571e-06	-2.417720e-09	-3.824135e+01	-1.509753e+02
1.200000e-07	-5.389040e-06	-2.274983e-09	-3.820923e+01	-1.510324e+02
1.300000e-07	-5.384308e-06	-2.253778e-09	-3.817567e+01	-1.511029e+02
1.400000e-07	-5.379153e-06	-2.365839e-09	-3.813912e+01	-1.511859e+02
1.500000e-07	-5.373579e-06	-2.406697e-09	-3.809961e+01	-1.512801e+02
1.600000e-07	-5.367686e-06	-2.242885e-09	-3.805782e+01	-1.513842e+02
1.700000e-07	-5.361423e-06	-2.209286e-09	-3.801342e+01	-1.514964e+02
1.800000e-07	-5.354655e-06	-2.418551e-09	-3.796543e+01	-1.516151e+02
1.900000e-07	-5.347437e-06	-2.467522e-09	-3.791425e+01	-1.517383e+02
2.000000e-07	-5.340055e-06	-2.327348e-09	-3.786191e+01	-1.518641e+02
2.100000e-07	-5.332487e-06	-2.268178e-09	-3.780825e+01	-1.519903e+02
2.200000e-07	-5.324605e-06	-2.403314e-09	-3.775237e+01	-1.521151e+02
2.300000e-07	-5.316463e-06	-2.387407e-09	-3.769464e+01	-1.522361e+02
2.400000e-07	-5.307987e-06	-2.310785e-09	-3.763454e+01	-1.523516e+02
2.500000e-07	-5.298911e-06	-2.356694e-09	-3.757019e+01	-1.524596e+02
2.600000e-07	-5.289246e-06	-2.456854e-09	-3.750167e+01	-1.525582e+02
2.700000e-07	-5.278843e-06	-2.384015e-09	-3.742791e+01	-1.526458e+02
2.800000e-07	-5.267762e-06	-2.341374e-09	-3.734935e+01	-1.527211e+02
2.900000e-07	-5.256313e-06	-2.424093e-09	-3.726817e+01	-1.527826e+02
3.000000e-07	-5.244506e-06	-2.421648e-09	-3.718446e+01	-1.528294e+02
3.100000e-07	-5.232355e-06	-2.304386e-09	-3.709830e+01	-1.528607e+02
3.200000e-07	-5.219831e-06	-2.351998e-09	-3.700950e+01	-1.528758e+02
3.300000e-07	-5.206910e-06	-2.465866e-09	-3.691789e+01	-1.528744e+02
3.400000e-07	-5.193518e-06	-2.395695e-09	-3.682294e+01	-1.528565e+02
3.500000e-07	-5.179745e-06	-2.316249e-09	-3.672529e+01	-1.528222e+02
3.600000e-07	-5.165662e-06	-2.387195e-09	-3.662544e+01	-1.527719e+02
3.700000e-07	-5.151172e-06	-2.408035e-09	-3.652270e+01	-1.527062e+02
3.800000e-07	-5.136157e-06	-2.328120e-09	-3.641624e+01	-1.526258e+02
3.900000e-07	-5.120508e-06	-2.344804e-09	-3.630529e+01	-1.525318e+02
4.000000e-07	-5.104230e-06	-2.383125e-09	-3.618987e+01	-1.524252e+02
4.100000e-07	-5.087573e-06	-2.349625e-09	-3.607177e+01	-1.523073e+02
4.200000e-07	-5.070727e-06	-2.345819e-09	-3.595233e+01	-1.521795e+02
4.300000e-07	-5.053531e-06	-2.390572e-09	-3.583041e+01	-1.520431e+02
4.400000e-07	-5.036031e-06	-2.339935e-09	-3.570633e+01	-1.518995e+02
4.500000e-07	-5.018300e-06	-2.310512e-09	-3.558062e+01	-1.517502e+02
4.600000e-07	-5.000203e-06	-2.356321e-09	-3.545230e+01	-1.515966e+02
4.700000e-07	-4.981731e-06	-2.372946e-09	-3.532133e+01	-1.514400e+02
4.800000e-07	-4.962810e-06	-2.319295e-09	-3.518718e+01	-1.512817e+02
4.900000e-07	-4.943451e-06	-2.334157e-09	-3.504992e+01	-1.511230e+02
5.000000e-07	-4.923801e-06	-2.357496e-09	-3.491060e+01	-1.509648e+02
5.100000e-07	-4.903979e-06	-2.347343e-09	-3.477006e+01	-1.508081e+02
5.200000e-07	-4.884028e-06	-2.326930e-09	-3.462860e+01	-1.506536e+02
5.300000e-07	-4.863797e-06	-2.329173e-09	-3.448516e+01	-1.505020e+02
5.400000e-07	-4.843209e-06	-2.319131e-09	-3.433919e+01	-1.503537e+02
5.500000e-07	-4.822312e-06	-2.335949e-09	-3.419102e+01	-1.502089e+02
5.600000e-07	-4.801055e-06	-2.342266e-09	-3.404031e+01	-1.500679e+02
5.700000e-07	-4.779473e-06	-2.323429e-09	-3.388729e+01	-1.499305e+02
5.800000e-07	-4.757570e-06	-2.313653e-09	-3.373200e+01	-1.497965e+02
5.900000e-07	-4.735289e-06	-2.330004e-09	-3.357402e+01	-1.496657e+02
6.000000e-07	-4.712666e-06	-2.319366e-09	-3.341362e+01	-1.495376e+02
6.100000e-07	-4.689663e-06	-2.296994e-09	-3.325052e+01	-1.494116e+02
6.200000e-07	-4.666290e-06	-2.288522e-09	-3.308480e+01	-1.492871e+02
6.300000e-07	-4.642694e-06	-2.295564e-09	-3.291751e+01	-1.491634e+02
6.400000e-07	-4.618953e-06	-2.308302e-09	-3.274918e+01	-1.490397e+02
6.500000e-07	-4.595057e-06	-2.306794e-09	-3.257975e+01	-1.489154e+02
6.600000e-07	-4.570974e-06	-2.289374e-09	-3.240900e+01	-1.487895e+02
6.700000e-07	-4.546575e-06	-2.284704e-09	-3.223600e+01	-1.486614e+02
6.800000e-07	-4.521614e-06	-2.298023e-09	-3.205902e+01	-1.485303e+02
6.900000e-07	-4.496122e-06	-2.291042e-09	-3.187828e+01	-1.483956e+02
7.000000e-07	-4.470192e-06	-2.274521e-09	-3.169444e+01	-1.482567e+02
7.100000e-07	-4.443741e-06	-2.266858e-09	-3.150690e+01	-1.481129e+02
7.200000e-07	-4.416764e-06	-2.276831e-09	-3.131562e+01	-1.479640e+02
7.300000e-07	-4.389397e-06	-2.276023e-09	-3.112158e+01	-1.478095e+02
7.400000e-07	-4.361837e-06	-2.266534e-09	-3.092618e+01	-1.476491e+02
7.500000e-07	-4.334112e-06	-2.251529e-09	-3.072960e+01	-1.474829e+02
7.600000e-07	-4.306194e-06	-2.255125e-09	-3.053166e+01	-1.473106e+02
7.700000e-07	-4.278045e-06	-2.255935e-09	-3.033208e+01	-1.471325e+02
7.800000e-07	-4.249605e-06	-2.247493e-09	-3.013043e+01	-1.469485e+02
7.900000e-07	-4.220850e-06	-2.233409e-09	-2.992656e+01	-1.467590e+02
8.000000e-07	-4.191732e-06	-2.238126e-09	-2.972011e+01	-1.465643e+02
8.100000e-07	-4.162295e-06	-2.242258e-09	-2.951139e+01	-1.463647e+02
8.200000e-07	-4.132606e-06	-2.239920e-09	-2.930089e+01	-1.461606e+02
8.300000e-07	-4.102646e-06	-2.226470e-09	-2.908847e+01	-1.459525e+02
8.400000e-07	-4.072460e-06	-2.221767e-09	-2.887444e+01	-1.457409e+02
8.500000e-07	-4.042047e-06	-2.222338e-09	-2.865881e+01	-1.455263e+02
8.600000e-07	-4.011369e-06	-2.219574e-09	-2.844130e+01	-1.453090e+02
8.700000e-07	-3.980422e-06	-2.204538e-09	-2.822188e+01	-1.450897e+02
8.800000e-07	-3.949214e-06	-2.193960e-09	-2.800061e+01	-1.448688e+02
8.900000e-07	-3.917774e-06	-2.194812e-09	-2.777769e+01	-1.446465e+02
9.000000e-07	-3.886114e-06	-2.197857e-09	-2.755322e+01	-1.444234e+02
9.100000e-07	-3.854251e-06	-2.189555e-09	-2.732731e+01	-1.441996e+02
9.200000e-07	-3.822232e-06	-2.180556e-09	-2.710028e+01	-1.439754e+02
9.300000e-07	-3.790051e-06	-2.181549e-09	-2.687212e+01	-1.437510e+02
9.400000e-07	-3.757481e-06	-2.185908e-09	-2.664119e+01	-1.435264e+02
9.500000e-07	-3.724477e-06	-2.180099e-09	-2.640718e+01	-1.433018e+02
9.600000e-07	-3.691179e-06	-2.167308e-09	-2.617109e+01	-1.430769e+02
9.700000e-07	-3.657503e-06	-2.161539e-09	-2.593233e+01	-1.428519e+02
9.800000e-07	-3.623391e-06	-2.159354e-09	-2.569047e+01	-1.426264e+02
9.900000e-07	-3.588789e-06	-2.151424e-09	-2.544513e+01	-1.424003e+02
1.000000e-06	-3.553729e-06	-2.140545e-09	-2.519655e+01	-1.421732e+02
1.010000e-06	-3.518379e-06	-2.143017e-09	-2.494592e+01	-1.419450e+02
1.020000e-06	-3.482866e-06	-2.148760e-09	-2.469412e+01	-1.417153e+02
1.030000e-06	-3.447210e-06	-2.148165e-09	-2.444131e+01	-1.414837e+02
1.040000e-06	-3.411408e-06	-2.138613e-09	-2.418748e+01	-1.412498e+02
1.050000e-06	-3.375502e-06	-2.131876e-09	-2.393289e+01	-1.410134e+02
1.060000e-06	-3.339454e-06	-2.125282e-09	-2.367730e+01	-1.407739e+02
1.070000e-06	-3.303160e-06	-2.116422e-09	-2.341998e+01	-1.405311e+02
1.080000e-06	-3.266593e-06	-2.101998e-09	-2.316071e+01	-1.402847e+02
1.090000e-06	-3.229761e-06	-2.095976e-09	-2.289957e+01	-1.400343e+02
1.100000e-06	-3.192728e-06	-2.101255e-09	-2.263699e+01	-1.397796e+02
1.110000e-06	-3.155502e-06	-2.108756e-09	-2.237305e+01	-1.395203e+02
1.120000e-06	-3.118011e-06	-2.103279e-09	-2.210724e+01	-1.392563e+02
1.130000e-06	-3.080258e-06	-2.093523e-09	-2.183956e+01	-1.389873e+02
1.140000e-06	-3.042398e-06	-2.087217e-09	-2.157113e+01	-1.387131e+02
1.150000e-06	-3.004395e-06	-2.081070e-09	-2.130168e+01	-1.384337e+02
1.160000e-06	-2.966049e-06	-2.066814e-09	-2.102980e+01	-1.381489e+02
1.170000e-06	-2.927478e-06	-2.054514e-09	-2.075632e+01	-1.378586e+02
1.180000e-06	-2.888707e-06	-2.051281e-09	-2.048143e+01	-1.375628e+02
1.190000e-06	-2.849676e-06	-2.055340e-09	-2.020470e+01	-1.372613e+02
1.200000e-06	-2.810441e-06	-2.052091e-09	-1.992651e+01	-1.369541e+02
1.210000e-06	-2.771013e-06	-2.041763e-09	-1.964696e+01	-1.366413e+02
1.220000e-06	-2.731533e-06	-2.034715e-09	-1.936704e+01	-1.363226e+02
1.230000e-06	-2.691994e-06	-2.033066e-09	-1.908670e+01	-1.359981e+02
1.240000e-06	-2.652241e-06	-2.026485e-09	-1.880485e+01	-1.356677e+02
1.250000e-06	-2.612334e-06	-2.014638e-09	-1.852190e+01	-1.353313e+02
1.260000e-06	-2.572344e-06	-2.007132e-09	-1.823836e+01	-1.349888e+02
1.270000e-06	-2.532224e-06	-2.003465e-09	-1.795390e+01	-1.346400e+02
1.280000e-06	-2.491983e-06	-1.999370e-09	-1.766859e+01	-1.342849e+02
1.290000e-06	-2.451640e-06	-1.989851e-09	-1.738255e+01	-1.339231e+02
1.300000e-06	-2.411136e-06	-1.981908e-09	-1.709537e+01	-1.335546e+02
1.310000e-06	-2.370370e-06	-1.979777e-09	-1.680633e+01	-1.331791e+02
1.320000e-06	-2.329305e-06	-1.978205e-09	-1.651517e+01	-1.327964e+02
1.330000e-06	-2.287951e-06	-1.971233e-09	-1.622197e+01	-1.324062e+02
1.340000e-06	-2.246347e-06	-1.962759e-09	-1.592699e+01	-1.320082e+02
1.350000e-06	-2.204405e-06	-1.954587e-09	-1.562961e+01	-1.316021e+02
1.360000e-06	-2.162015e-06	-1.944623e-09	-1.532906e+01	-1.311877e+02
1.370000e-06	-2.119364e-06	-1.931529e-09	-1.502666e+01	-1.307647e+02
1.380000e-06	-2.076627e-06	-1.920322e-09	-1.472364e+01	-1.303327e+02
1.390000e-06	-2.033764e-06	-1.914017e-09	-1.441974e+01	-1.298915e+02
1.400000e-06	-1.990659e-06	-1.913547e-09	-1.411411e+01	-1.294409e+02
1.410000e-06	-1.947320e-06	-1.913119e-09	-1.380683e+01	-1.289805e+02
1.420000e-06	-1.903855e-06	-1.908345e-09	-1.349866e+01	-1.285101e+02
1.430000e-06	-1.860299e-06	-1.896529e-09	-1.318984e+01	-1.280295e+02
1.440000e-06	-1.816644e-06	-1.881409e-09	-1.288032e+01	-1.275384e+02
1.450000e-06	-1.772891e-06	-1.864850e-09	-1.257010e+01	-1.270368e+02
1.460000e-06	-1.729085e-06	-1.850523e-09	-1.225951e+01	-1.265243e+02
1.470000e-06	-1.685271e-06	-1.840240e-09	-1.194887e+01	-1.260009e+02
1.480000e-06	-1.641363e-06	-1.836154e-09	-1.163755e+01	-1.254663e+02
1.490000e-06	-1.597342e-06	-1.836528e-09	-1.132543e+01	-1.249205e+02
1.500000e-06	-1.553292e-06	-1.834779e-09	-1.101311e+01	-1.243632e+02
1.510000e-06	-1.509189e-06	-1.828122e-09	-1.070041e+01	-1.237944e+02
1.520000e-06	-1.464974e-06	-1.819326e-09	-1.038692e+01	-1.232137e+02
1.530000e-06	-1.420626e-06	-1.807455e-09	-1.007249e+01	-1.226211e+02
1.540000e-06	-1.376151e-06	-1.792005e-09	-9.757145e+00	-1.220162e+02
1.550000e-06	-1.331643e-06	-1.777555e-09	-9.441581e+00	-1.213988e+02
1.560000e-06	-1.287176e-06	-1.768580e-09	-9.126299e+00	-1.207686e+02
1.570000e-06	-1.242578e-06	-1.762873e-09	-8.810092e+00	-1.201253e+02
1.580000e-06	-1.197708e-06	-1.758201e-09	-8.491957e+00	-1.194682e+02
1.590000e-06	-1.152761e-06	-1.753363e-09	-8.173277e+00	-1.187970e+02
1.600000e-06	-1.107797e-06	-1.746896e-09	-7.854473e+00	-1.181111e+02
1.610000e-06	-1.062720e-06	-1.734105e-09	-7.534871e+00	-1.174098e+02
1.620000e-06	-1.017591e-06	-1.714060e-09	-7.214900e+00	-1.166924e+02
1.630000e-06	-9.723416e-07	-1.693811e-09	-6.894070e+00	-1.159580e+02
1.640000e-06	-9.269881e-07	-1.678693e-09	-6.572506e+00	-1.152058e+02
1.650000e-06	-8.816102e-07	-1.668194e-09	-6.250769e+00	-1.144348e+02
1.660000e-06	-8.361180e-07	-1.658974e-09	-5.928221e+00	-1.136439e+02
1.670000e-06	-7.904976e-07	-1.651598e-09	-5.604765e+00	-1.128320e+02
1.680000e-06	-7.448309e-07	-1.644932e-09	-5.280980e+00	-1.119978e+02
1.690000e-06	-6.991659e-07	-1.632323e-09	-4.957207e+00	-1.111402e+02
1.700000e-06	-6.534722e-07	-1.610672e-09	-4.633231e+00	-1.102577e+02
1.710000e-06	-6.077827e-07	-1.587628e-09	-4.309284e+00	-1.093490e+02
1.720000e-06	-5.620821e-07	-1.571790e-09	-3.985259e+00	-1.084127e+02
1.730000e-06	-5.163654e-07	-1.559810e-09	-3.661120e+00	-1.074473e+02
1.740000e-06	-4.706292e-07	-1.544559e-09	-3.336843e+00	-1.064513e+02
1.750000e-06	-4.248511e-07	-1.532137e-09	-3.012268e+00	-1.054231e+02
1.760000e-06	-3.790536e-07	-1.524835e-09	-2.687556e+00	-1.043614e+02
1.770000e-06	-3.332222e-07	-1.512410e-09	-2.362603e+00	-1.032644e+02
1.780000e-06	-2.873327e-07	-1.487779e-09	-2.037239e+00	-1.021308e+02
1.790000e-06	-2.414186e-07	-1.460327e-09	-1.711700e+00	-1.009589e+02
1.800000e-06	-1.955348e-07	-1.440211e-09	-1.386376e+00	-9.974730e+01
1.810000e-06	-1.496541e-07	-1.426330e-09	-1.061074e+00	-9.849440e+01
1.820000e-06	-1.037190e-07	-1.409969e-09	-7.353856e-01	-9.719872e+01
1.830000e-06	-5.779847e-08	-1.389944e-09	-4.098011e-01	-9.585879e+01
1.840000e-06	-1.191870e-08	-1.372023e-09	-8.450564e-02	-9.447314e+01
1.850000e-06	3.399489e-08	-1.356297e-09	2.410297e-01	-9.304032e+01
1.860000e-06	7.992349e-08	-1.334324e-09	5.666714e-01	-9.155888e+01
1.870000e-06	1.258459e-07	-1.304510e-09	8.922689e-01	-9.002739e+01
1.880000e-06	1.717961e-07	-1.275016e-09	1.218064e+00	-8.844443e+01
1.890000e-06	2.177679e-07	-1.249119e-09	1.544012e+00	-8.680859e+01
1.900000e-06	2.636775e-07	-1.223110e-09	1.869519e+00	-8.511845e+01
1.910000e-06	3.095355e-07	-1.195781e-09	2.194661e+00	-8.337261e+01
1.920000e-06	3.554033e-07	-1.171225e-09	2.519871e+00	-8.156967e+01
1.930000e-06	4.012320e-07	-1.150468e-09	2.844804e+00	-7.970823e+01
1.940000e-06	4.469848e-07	-1.127198e-09	3.169200e+00	-7.778689e+01
1.950000e-06	4.927099e-07	-1.096813e-09	3.493398e+00	-7.580428e+01
1.960000e-06	5.383949e-07	-1.062799e-09	3.817313e+00	-7.375904e+01
1.970000e-06	5.839823e-07	-1.030326e-09	4.140536e+00	-7.164983e+01
1.980000e-06	6.294829e-07	-9.981347e-10	4.463143e+00	-6.947535e+01
1.990000e-06	6.750193e-07	-9.623138e-10	4.786003e+00	-6.723436e+01
2.000000e-06	7.205283e-07	-9.240776e-10	5.108670e+00	-6.492567e+01
2.010000e-06	7.659233e-07	-8.900753e-10	5.430529e+00	-6.254819e+01
2.020000e-06	8.112315e-07	-8.599078e-10	5.751772e+00	-6.010092e+01
2.030000e-06	8.565511e-07	-8.263067e-10	6.073095e+00	-5.758298e+01
2.040000e-06	9.018923e-07	-7.881449e-10	6.394572e+00	-5.499368e+01
2.050000e-06	9.471244e-07	-7.490043e-10	6.715276e+00	-5.233245e+01
2.060000e-06	9.923011e-07	-7.097435e-10	7.035586e+00	-4.959898e+01
2.070000e-06	1.037346e-06	-6.672311e-10	7.354959e+00	-4.679314e+01
2.080000e-06	1.082203e-06	-6.227081e-10	7.673007e+00	-4.391509e+01
2.090000e-06	1.127017e-06	-5.774888e-10	7.990742e+00	-4.096526e+01
2.100000e-06	1.171835e-06	-5.349154e-10	8.308511e+00	-3.794439e+01
2.110000e-06	1.216517e-06	-4.940123e-10	8.625316e+00	-3.485357e+01
2.120000e-06	1.261065e-06	-4.504358e-10	8.941169e+00	-3.169423e+01
2.130000e-06	1.305575e-06	-4.039597e-10	9.256756e+00	-2.846818e+01
2.140000e-06	1.349984e-06	-3.558924e-10	9.571620e+00	-2.517763e+01
2.150000e-06	1.394315e-06	-3.056534e-10	9.885932e+00	-2.182520e+01
2.160000e-06	1.438624e-06	-2.527315e-10	1.020009e+01	-1.841389e+01
2.170000e-06	1.482866e-06	-1.983073e-10	1.051378e+01	-1.494716e+01
2.180000e-06	1.526964e-06	-1.451764e-10	1.082644e+01	-1.142885e+01
2.190000e-06	1.570949e-06	-9.494589e-11	1.113830e+01	-7.863235e+00
2.200000e-06	1.614918e-06	-4.392947e-11	1.145005e+01	-4.254958e+00
2.210000e-06	1.658851e-06	1.018523e-11	1.176154e+01	-6.090518e-01
2.220000e-06	1.702684e-06	6.442079e-11	1.207232e+01	3.069100e+00
2.230000e-06	1.746481e-06	1.196031e-10	1.238285e+01	6.773794e+00
2.240000e-06	1.790214e-06	1.770479e-10	1.269293e+01	1.049904e+01
2.250000e-06	1.833885e-06	2.353040e-10	1.300256e+01	1.423859e+01
2.260000e-06	1.877592e-06	2.935708e-10	1.331245e+01	1.798601e+01
2.270000e-06	1.921147e-06	3.502923e-10	1.362127e+01	2.173469e+01
2.280000e-06	1.964527e-06	4.056892e-10	1.392884e+01	2.547793e+01
2.290000e-06	2.007761e-06	4.603312e-10	1.423538e+01	2.920896e+01
2.300000e-06	2.050729e-06	5.142195e-10	1.454002e+01	3.292103e+01
2.310000e-06	2.093506e-06	5.652325e-10	1.484332e+01	3.660743e+01
2.320000e-06	2.136059e-06	6.153353e-10	1.514502e+01	4.026158e+01
2.330000e-06	2.178421e-06	6.659713e-10	1.544538e+01	4.387707e+01
2.340000e-06	2.220493e-06	7.160278e-10	1.574368e+01	4.744770e+01
2.350000e-06	2.262092e-06	7.670450e-10	1.603862e+01	5.096755e+01
2.360000e-06	2.303377e-06	8.220057e-10	1.633134e+01	5.443103e+01
2.370000e-06	2.344400e-06	8.776916e-10	1.662220e+01	5.783292e+01
2.380000e-06	2.385081e-06	9.289852e-10	1.691064e+01	6.116838e+01
2.390000e-06	2.425520e-06	9.746768e-10	1.719735e+01	6.443304e+01
2.400000e-06	2.465811e-06	1.016197e-09	1.748303e+01	6.762299e+01
2.410000e-06	2.505992e-06	1.054977e-09	1.776791e+01	7.073480e+01
2.420000e-06	2.546016e-06	1.092681e-09	1.805170e+01	7.376557e+01
2.430000e-06	2.585897e-06	1.131986e-09	1.833445e+01	7.671290e+01
2.440000e-06	2.625718e-06	1.174198e-09	1.861679e+01	7.957491e+01
2.450000e-06	2.665453e-06	1.219362e-09	1.889852e+01	8.235023e+01
2.460000e-06	2.705114e-06	1.262425e-09	1.917972e+01	8.503801e+01
2.470000e-06	2.744664e-06	1.300256e-09	1.946014e+01	8.763788e+01
2.480000e-06	2.784065e-06	1.335221e-09	1.973950e+01	9.014993e+01
2.490000e-06	2.823313e-06	1.369133e-09	2.001778e+01	9.257470e+01
2.500000e-06	2.862345e-06	1.400863e-09	2.029452e+01	9.491312e+01
2.510000e-06	2.901172e-06	1.429144e-09	2.056981e+01	9.716650e+01
2.520000e-06	2.939771e-06	1.459415e-09	2.084348e+01	9.933649e+01
2.530000e-06	2.978089e-06	1.495037e-09	2.111516e+01	1.014250e+02
2.540000e-06	3.016233e-06	1.530797e-09	2.138562e+01	1.034342e+02
2.550000e-06	3.054203e-06	1.561460e-09	2.165483e+01	1.053665e+02
2.560000e-06	3.091994e-06	1.587995e-09	2.192278e+01	1.072245e+02
2.570000e-06	3.129590e-06	1.613370e-09	2.218934e+01	1.090107e+02
2.580000e-06	3.166881e-06	1.636307e-09	2.245373e+01	1.107279e+02
2.590000e-06	3.203926e-06	1.655990e-09	2.271639e+01	1.123788e+02
2.600000e-06	3.240789e-06	1.675951e-09	2.297775e+01	1.139663e+02
2.610000e-06	3.277436e-06	1.700833e-09	2.323759e+01	1.154930e+02
2.620000e-06	3.313859e-06	1.727733e-09	2.349584e+01	1.169616e+02
2.630000e-06	3.350049e-06	1.750444e-09	2.375243e+01	1.183746e+02
2.640000e-06	3.386043e-06	1.768142e-09	2.400763e+01	1.197346e+02
2.650000e-06	3.421907e-06	1.785080e-09	2.426192e+01	1.210437e+02
2.660000e-06	3.457656e-06	1.802526e-09	2.451538e+01	1.223043e+02
2.670000e-06	3.493282e-06	1.817819e-09	2.476797e+01	1.235183e+02
2.680000e-06	3.528749e-06	1.830813e-09	2.501944e+01	1.246877e+02
2.690000e-06	3.564038e-06	1.844738e-09	2.526964e+01	1.258141e+02
2.700000e-06	3.599068e-06	1.861337e-09	2.551801e+01	1.268992e+02
2.710000e-06	3.633675e-06	1.878976e-09	2.576338e+01	1.279444e+02
2.720000e-06	3.667797e-06	1.895427e-09	2.600531e+01	1.289510e+02
2.730000e-06	3.701402e-06	1.910508e-09	2.624358e+01	1.299204e+02
2.740000e-06	3.734415e-06	1.925611e-09	2.647765e+01	1.308535e+02
2.750000e-06	3.766977e-06	1.939636e-09	2.670852e+01	1.317514e+02
2.760000e-06	3.799243e-06	1.950344e-09	2.693729e+01	1.326152e+02
2.770000e-06	3.831306e-06	1.958487e-09	2.716462e+01	1.334457e+02
2.780000e-06	3.863250e-06	1.967143e-09	2.739111e+01	1.342439e+02
2.790000e-06	3.895021e-06	1.977478e-09	2.761637e+01	1.350106e+02
2.800000e-06	3.926661e-06	1.987379e-09	2.784070e+01	1.357466e+02
2.810000e-06	3.958159e-06	1.997206e-09	2.806403e+01	1.364530e+02
2.820000e-06	3.989315e-06	2.008247e-09	2.828493e+01	1.371306e+02
2.830000e-06	4.020196e-06	2.019422e-09	2.850389e+01	1.377802e+02
2.840000e-06	4.050854e-06	2.030753e-09	2.872126e+01	1.384030e+02
2.850000e-06	4.081138e-06	2.041058e-09	2.893597e+01	1.389999e+02
2.860000e-06	4.111123e-06	2.048611e-09	2.914857e+01	1.395718e+02
2.870000e-06	4.140922e-06	2.053623e-09	2.935986e+01	1.401200e+02
2.880000e-06	4.170524e-06	2.057120e-09	2.956974e+01	1.406454e+02
2.890000e-06	4.199862e-06	2.059839e-09	2.977775e+01	1.411491e+02
2.900000e-06	4.228860e-06	2.064266e-09	2.998335e+01	1.416323e+02
