# Temperatura_=_18.35
# Concentracion g/m^3_=_4090.0
# C_Vs_to_Am_M_A/Vsm_=_65563218390.804596
# pendiente_HvsI_1/m_=_3716.3
# ordenada_HvsI_A/m_=_1297.0
# frecuencia_Hz_=_135084.24328864305

Tiempo_(s)	Campo_(V.s)	Magnetizacion_(V.s)	Campo_(kA/m)	Magnetizacion_(A/m)
0.000000e+00	-5.406010e-06	-2.337127e-09	-3.839324e+01	-1.543643e+02
1.000000e-08	-5.406219e-06	-2.335470e-09	-3.839473e+01	-1.541994e+02
2.000000e-08	-5.406146e-06	-2.329092e-09	-3.839421e+01	-1.540341e+02
3.000000e-08	-5.405776e-06	-2.320067e-09	-3.839158e+01	-1.538704e+02
4.000000e-08	-5.405081e-06	-2.314684e-09	-3.838664e+01	-1.537106e+02
5.000000e-08	-5.403974e-06	-2.316214e-09	-3.837879e+01	-1.535568e+02
6.000000e-08	-5.402337e-06	-2.326777e-09	-3.836716e+01	-1.534111e+02
7.000000e-08	-5.399962e-06	-2.342375e-09	-3.835029e+01	-1.532754e+02
8.000000e-08	-5.396900e-06	-2.314592e-09	-3.832854e+01	-1.531516e+02
9.000000e-08	-5.393414e-06	-2.277587e-09	-3.830379e+01	-1.530412e+02
1.000000e-07	-5.389495e-06	-2.328122e-09	-3.827596e+01	-1.529458e+02
1.100000e-07	-5.385254e-06	-2.364892e-09	-3.824584e+01	-1.528664e+02
1.200000e-07	-5.380816e-06	-2.347516e-09	-3.821432e+01	-1.528041e+02
1.300000e-07	-5.376054e-06	-2.284032e-09	-3.818050e+01	-1.527594e+02
1.400000e-07	-5.370944e-06	-2.309853e-09	-3.814421e+01	-1.527326e+02
1.500000e-07	-5.365491e-06	-2.379593e-09	-3.810548e+01	-1.527236e+02
1.600000e-07	-5.359722e-06	-2.313534e-09	-3.806451e+01	-1.527323e+02
1.700000e-07	-5.353531e-06	-2.276705e-09	-3.802054e+01	-1.527578e+02
1.800000e-07	-5.346772e-06	-2.290780e-09	-3.797254e+01	-1.527992e+02
1.900000e-07	-5.339688e-06	-2.376847e-09	-3.792223e+01	-1.528552e+02
2.000000e-07	-5.332377e-06	-2.334161e-09	-3.787030e+01	-1.529243e+02
2.100000e-07	-5.324855e-06	-2.354595e-09	-3.781689e+01	-1.530047e+02
2.200000e-07	-5.317025e-06	-2.397037e-09	-3.776128e+01	-1.530943e+02
2.300000e-07	-5.308824e-06	-2.422424e-09	-3.770303e+01	-1.531909e+02
2.400000e-07	-5.300354e-06	-2.379109e-09	-3.764288e+01	-1.532923e+02
2.500000e-07	-5.291473e-06	-2.409128e-09	-3.757980e+01	-1.533958e+02
2.600000e-07	-5.281970e-06	-2.440399e-09	-3.751232e+01	-1.534990e+02
2.700000e-07	-5.271987e-06	-2.407234e-09	-3.744142e+01	-1.535994e+02
2.800000e-07	-5.261474e-06	-2.391008e-09	-3.736675e+01	-1.536945e+02
2.900000e-07	-5.250332e-06	-2.430186e-09	-3.728763e+01	-1.537818e+02
3.000000e-07	-5.238710e-06	-2.437623e-09	-3.720509e+01	-1.538590e+02
3.100000e-07	-5.226651e-06	-2.378097e-09	-3.711944e+01	-1.539240e+02
3.200000e-07	-5.214221e-06	-2.389178e-09	-3.703117e+01	-1.539748e+02
3.300000e-07	-5.201402e-06	-2.399131e-09	-3.694012e+01	-1.540095e+02
3.400000e-07	-5.188183e-06	-2.385684e-09	-3.684624e+01	-1.540268e+02
3.500000e-07	-5.174627e-06	-2.367726e-09	-3.674997e+01	-1.540253e+02
3.600000e-07	-5.160699e-06	-2.409575e-09	-3.665106e+01	-1.540041e+02
3.700000e-07	-5.146336e-06	-2.383154e-09	-3.654905e+01	-1.539625e+02
3.800000e-07	-5.131488e-06	-2.365493e-09	-3.644360e+01	-1.539002e+02
3.900000e-07	-5.116123e-06	-2.374361e-09	-3.633448e+01	-1.538170e+02
4.000000e-07	-5.100240e-06	-2.384916e-09	-3.622168e+01	-1.537131e+02
4.100000e-07	-5.083988e-06	-2.335428e-09	-3.610626e+01	-1.535891e+02
4.200000e-07	-5.067490e-06	-2.348527e-09	-3.598909e+01	-1.534457e+02
4.300000e-07	-5.050490e-06	-2.361012e-09	-3.586836e+01	-1.532838e+02
4.400000e-07	-5.033122e-06	-2.358742e-09	-3.574501e+01	-1.531045e+02
4.500000e-07	-5.015519e-06	-2.339763e-09	-3.561999e+01	-1.529092e+02
4.600000e-07	-4.997536e-06	-2.356897e-09	-3.549228e+01	-1.526994e+02
4.700000e-07	-4.979154e-06	-2.337113e-09	-3.536173e+01	-1.524765e+02
4.800000e-07	-4.960388e-06	-2.339305e-09	-3.522846e+01	-1.522423e+02
4.900000e-07	-4.941223e-06	-2.341964e-09	-3.509235e+01	-1.519983e+02
5.000000e-07	-4.921721e-06	-2.334030e-09	-3.495385e+01	-1.517462e+02
5.100000e-07	-4.901909e-06	-2.319694e-09	-3.481314e+01	-1.514876e+02
5.200000e-07	-4.881861e-06	-2.340503e-09	-3.467076e+01	-1.512240e+02
5.300000e-07	-4.861641e-06	-2.331179e-09	-3.452716e+01	-1.509568e+02
5.400000e-07	-4.841218e-06	-2.310835e-09	-3.438212e+01	-1.506873e+02
5.500000e-07	-4.820435e-06	-2.312359e-09	-3.423452e+01	-1.504166e+02
5.600000e-07	-4.799264e-06	-2.318517e-09	-3.408416e+01	-1.501457e+02
5.700000e-07	-4.777775e-06	-2.306561e-09	-3.393155e+01	-1.498753e+02
5.800000e-07	-4.755949e-06	-2.301219e-09	-3.377654e+01	-1.496061e+02
5.900000e-07	-4.733821e-06	-2.298871e-09	-3.361939e+01	-1.493383e+02
6.000000e-07	-4.711397e-06	-2.286101e-09	-3.346014e+01	-1.490722e+02
6.100000e-07	-4.688666e-06	-2.284997e-09	-3.329870e+01	-1.488079e+02
6.200000e-07	-4.665512e-06	-2.276267e-09	-3.313426e+01	-1.485450e+02
6.300000e-07	-4.641988e-06	-2.265963e-09	-3.296720e+01	-1.482834e+02
6.400000e-07	-4.618249e-06	-2.261166e-09	-3.279860e+01	-1.480225e+02
6.500000e-07	-4.594312e-06	-2.269833e-09	-3.262860e+01	-1.477618e+02
6.600000e-07	-4.570148e-06	-2.258825e-09	-3.245699e+01	-1.475005e+02
6.700000e-07	-4.545707e-06	-2.256111e-09	-3.228341e+01	-1.472379e+02
6.800000e-07	-4.520852e-06	-2.248973e-09	-3.210689e+01	-1.469733e+02
6.900000e-07	-4.495629e-06	-2.248505e-09	-3.192776e+01	-1.467058e+02
7.000000e-07	-4.470042e-06	-2.237105e-09	-3.174604e+01	-1.464346e+02
7.100000e-07	-4.443996e-06	-2.236555e-09	-3.156107e+01	-1.461590e+02
7.200000e-07	-4.417389e-06	-2.228835e-09	-3.137210e+01	-1.458782e+02
7.300000e-07	-4.390233e-06	-2.232610e-09	-3.117924e+01	-1.455916e+02
7.400000e-07	-4.362759e-06	-2.227849e-09	-3.098412e+01	-1.452986e+02
7.500000e-07	-4.335071e-06	-2.227259e-09	-3.078748e+01	-1.449990e+02
7.600000e-07	-4.307131e-06	-2.218527e-09	-3.058906e+01	-1.446923e+02
7.700000e-07	-4.278906e-06	-2.215254e-09	-3.038860e+01	-1.443784e+02
7.800000e-07	-4.250467e-06	-2.202386e-09	-3.018663e+01	-1.440573e+02
7.900000e-07	-4.221791e-06	-2.197065e-09	-2.998298e+01	-1.437290e+02
8.000000e-07	-4.192807e-06	-2.190978e-09	-2.977713e+01	-1.433939e+02
8.100000e-07	-4.163515e-06	-2.190379e-09	-2.956910e+01	-1.430522e+02
8.200000e-07	-4.133920e-06	-2.185666e-09	-2.935891e+01	-1.427045e+02
8.300000e-07	-4.104062e-06	-2.184021e-09	-2.914687e+01	-1.423512e+02
8.400000e-07	-4.073933e-06	-2.177596e-09	-2.893289e+01	-1.419931e+02
8.500000e-07	-4.043526e-06	-2.168390e-09	-2.871694e+01	-1.416309e+02
8.600000e-07	-4.012938e-06	-2.157670e-09	-2.849971e+01	-1.412653e+02
8.700000e-07	-3.982103e-06	-2.148915e-09	-2.828072e+01	-1.408971e+02
8.800000e-07	-3.950998e-06	-2.143288e-09	-2.805982e+01	-1.405270e+02
8.900000e-07	-3.919690e-06	-2.137993e-09	-2.783746e+01	-1.401558e+02
9.000000e-07	-3.888088e-06	-2.137836e-09	-2.761303e+01	-1.397841e+02
9.100000e-07	-3.856295e-06	-2.135277e-09	-2.738724e+01	-1.394126e+02
9.200000e-07	-3.824331e-06	-2.132266e-09	-2.716023e+01	-1.390419e+02
9.300000e-07	-3.792083e-06	-2.122284e-09	-2.693121e+01	-1.386723e+02
9.400000e-07	-3.759521e-06	-2.110783e-09	-2.669995e+01	-1.383042e+02
9.500000e-07	-3.726808e-06	-2.098280e-09	-2.646763e+01	-1.379378e+02
9.600000e-07	-3.693900e-06	-2.095736e-09	-2.623391e+01	-1.375732e+02
9.700000e-07	-3.660566e-06	-2.093139e-09	-2.599718e+01	-1.372102e+02
9.800000e-07	-3.626739e-06	-2.092758e-09	-2.575694e+01	-1.368488e+02
9.900000e-07	-3.592454e-06	-2.084152e-09	-2.551345e+01	-1.364885e+02
1.000000e-06	-3.557763e-06	-2.077837e-09	-2.526708e+01	-1.361288e+02
1.010000e-06	-3.522721e-06	-2.068073e-09	-2.501821e+01	-1.357693e+02
1.020000e-06	-3.487429e-06	-2.057602e-09	-2.476757e+01	-1.354093e+02
1.030000e-06	-3.451891e-06	-2.042570e-09	-2.451518e+01	-1.350479e+02
1.040000e-06	-3.416089e-06	-2.039112e-09	-2.426092e+01	-1.346843e+02
1.050000e-06	-3.380080e-06	-2.038062e-09	-2.400518e+01	-1.343177e+02
1.060000e-06	-3.343956e-06	-2.035450e-09	-2.374863e+01	-1.339471e+02
1.070000e-06	-3.307697e-06	-2.022698e-09	-2.349112e+01	-1.335716e+02
1.080000e-06	-3.271221e-06	-2.010510e-09	-2.323207e+01	-1.331902e+02
1.090000e-06	-3.234559e-06	-1.999393e-09	-2.297169e+01	-1.328020e+02
1.100000e-06	-3.197764e-06	-1.991105e-09	-2.271038e+01	-1.324062e+02
1.110000e-06	-3.160647e-06	-1.981592e-09	-2.244677e+01	-1.320019e+02
1.120000e-06	-3.123233e-06	-1.975971e-09	-2.218106e+01	-1.315885e+02
1.130000e-06	-3.085655e-06	-1.971791e-09	-2.191419e+01	-1.311652e+02
1.140000e-06	-3.047851e-06	-1.967598e-09	-2.164571e+01	-1.307315e+02
1.150000e-06	-3.009892e-06	-1.959815e-09	-2.137612e+01	-1.302870e+02
1.160000e-06	-2.971692e-06	-1.948156e-09	-2.110483e+01	-1.298313e+02
1.170000e-06	-2.933237e-06	-1.935916e-09	-2.083172e+01	-1.293642e+02
1.180000e-06	-2.894651e-06	-1.925418e-09	-2.055768e+01	-1.288857e+02
1.190000e-06	-2.855861e-06	-1.917115e-09	-2.028220e+01	-1.283956e+02
1.200000e-06	-2.816901e-06	-1.908300e-09	-2.000551e+01	-1.278942e+02
1.210000e-06	-2.777769e-06	-1.900450e-09	-1.972759e+01	-1.273815e+02
1.220000e-06	-2.738359e-06	-1.893149e-09	-1.944770e+01	-1.268579e+02
1.230000e-06	-2.698718e-06	-1.887624e-09	-1.916618e+01	-1.263236e+02
1.240000e-06	-2.658945e-06	-1.877306e-09	-1.888371e+01	-1.257791e+02
1.250000e-06	-2.619083e-06	-1.865865e-09	-1.860061e+01	-1.252247e+02
1.260000e-06	-2.579070e-06	-1.853146e-09	-1.831644e+01	-1.246609e+02
1.270000e-06	-2.538929e-06	-1.841122e-09	-1.803137e+01	-1.240881e+02
1.280000e-06	-2.498756e-06	-1.826944e-09	-1.774605e+01	-1.235067e+02
1.290000e-06	-2.458479e-06	-1.818586e-09	-1.746001e+01	-1.229171e+02
1.300000e-06	-2.418038e-06	-1.811643e-09	-1.717280e+01	-1.223196e+02
1.310000e-06	-2.377447e-06	-1.803732e-09	-1.688453e+01	-1.217144e+02
1.320000e-06	-2.336703e-06	-1.792638e-09	-1.659516e+01	-1.211019e+02
1.330000e-06	-2.295681e-06	-1.784922e-09	-1.630383e+01	-1.204820e+02
1.340000e-06	-2.254371e-06	-1.778216e-09	-1.601044e+01	-1.198549e+02
1.350000e-06	-2.212841e-06	-1.769754e-09	-1.571550e+01	-1.192205e+02
1.360000e-06	-2.171024e-06	-1.752825e-09	-1.541852e+01	-1.185785e+02
1.370000e-06	-2.128899e-06	-1.735160e-09	-1.511934e+01	-1.179289e+02
1.380000e-06	-2.086452e-06	-1.722144e-09	-1.481789e+01	-1.172712e+02
1.390000e-06	-2.043781e-06	-1.712633e-09	-1.451484e+01	-1.166050e+02
1.400000e-06	-2.000986e-06	-1.702664e-09	-1.421092e+01	-1.159298e+02
1.410000e-06	-1.957989e-06	-1.695203e-09	-1.390555e+01	-1.152451e+02
1.420000e-06	-1.914768e-06	-1.688228e-09	-1.359859e+01	-1.145502e+02
1.430000e-06	-1.871374e-06	-1.679397e-09	-1.329042e+01	-1.138445e+02
1.440000e-06	-1.827857e-06	-1.663950e-09	-1.298136e+01	-1.131273e+02
1.450000e-06	-1.784145e-06	-1.644637e-09	-1.267092e+01	-1.123978e+02
1.460000e-06	-1.740271e-06	-1.630583e-09	-1.235933e+01	-1.116553e+02
1.470000e-06	-1.696324e-06	-1.620567e-09	-1.204722e+01	-1.108990e+02
1.480000e-06	-1.652331e-06	-1.607672e-09	-1.173478e+01	-1.101283e+02
1.490000e-06	-1.608308e-06	-1.593645e-09	-1.142213e+01	-1.093423e+02
1.500000e-06	-1.564191e-06	-1.586002e-09	-1.110881e+01	-1.085404e+02
1.510000e-06	-1.520027e-06	-1.580663e-09	-1.079516e+01	-1.077220e+02
1.520000e-06	-1.475829e-06	-1.570169e-09	-1.048127e+01	-1.068864e+02
1.530000e-06	-1.431560e-06	-1.552764e-09	-1.016688e+01	-1.060330e+02
1.540000e-06	-1.387252e-06	-1.537259e-09	-9.852205e+00	-1.051612e+02
1.550000e-06	-1.342927e-06	-1.525809e-09	-9.537406e+00	-1.042705e+02
1.560000e-06	-1.298483e-06	-1.514360e-09	-9.221767e+00	-1.033604e+02
1.570000e-06	-1.253878e-06	-1.499168e-09	-8.904987e+00	-1.024304e+02
1.580000e-06	-1.209182e-06	-1.485830e-09	-8.587554e+00	-1.014800e+02
1.590000e-06	-1.164415e-06	-1.478045e-09	-8.269627e+00	-1.005088e+02
1.600000e-06	-1.119610e-06	-1.469003e-09	-7.951423e+00	-9.951612e+01
1.610000e-06	-1.074671e-06	-1.448887e-09	-7.632268e+00	-9.850156e+01
1.620000e-06	-1.029623e-06	-1.426256e-09	-7.312338e+00	-9.746452e+01
1.630000e-06	-9.845012e-07	-1.408181e-09	-6.991884e+00	-9.640437e+01
1.640000e-06	-9.393254e-07	-1.390589e-09	-6.671047e+00	-9.532041e+01
1.650000e-06	-8.941262e-07	-1.368212e-09	-6.350045e+00	-9.421187e+01
1.660000e-06	-8.487620e-07	-1.349173e-09	-6.027870e+00	-9.307791e+01
1.670000e-06	-8.033368e-07	-1.338211e-09	-5.705262e+00	-9.191758e+01
1.680000e-06	-7.578913e-07	-1.326928e-09	-5.382511e+00	-9.072982e+01
1.690000e-06	-7.124107e-07	-1.304175e-09	-5.059509e+00	-8.951348e+01
1.700000e-06	-6.669402e-07	-1.276213e-09	-4.736580e+00	-8.826730e+01
1.710000e-06	-6.213517e-07	-1.250537e-09	-4.412813e+00	-8.698993e+01
1.720000e-06	-5.756768e-07	-1.229322e-09	-4.088431e+00	-8.567989e+01
1.730000e-06	-5.299665e-07	-1.208308e-09	-3.763799e+00	-8.433565e+01
1.740000e-06	-4.842108e-07	-1.185578e-09	-3.438844e+00	-8.295557e+01
1.750000e-06	-4.384477e-07	-1.165533e-09	-3.113836e+00	-8.153797e+01
1.760000e-06	-3.926760e-07	-1.150762e-09	-2.788767e+00	-8.008110e+01
1.770000e-06	-3.468867e-07	-1.131786e-09	-2.463574e+00	-7.858322e+01
1.780000e-06	-3.010423e-07	-1.102233e-09	-2.137989e+00	-7.704255e+01
1.790000e-06	-2.551918e-07	-1.071226e-09	-1.812361e+00	-7.545733e+01
1.800000e-06	-2.093370e-07	-1.044948e-09	-1.486702e+00	-7.382587e+01
1.810000e-06	-1.635066e-07	-1.019099e-09	-1.161217e+00	-7.214651e+01
1.820000e-06	-1.176796e-07	-9.901656e-10	-8.357556e-01	-7.041773e+01
1.830000e-06	-7.181312e-08	-9.628819e-10	-5.100136e-01	-6.863808e+01
1.840000e-06	-2.597097e-08	-9.395200e-10	-1.844447e-01	-6.680630e+01
1.850000e-06	1.986596e-08	-9.165557e-10	1.410872e-01	-6.492126e+01
1.860000e-06	6.567383e-08	-8.861693e-10	4.664127e-01	-6.298206e+01
1.870000e-06	1.115048e-07	-8.511391e-10	7.919022e-01	-6.098796e+01
1.880000e-06	1.574349e-07	-8.192179e-10	1.118096e+00	-5.893850e+01
1.890000e-06	2.033931e-07	-7.898934e-10	1.444489e+00	-5.683341e+01
1.900000e-06	2.492653e-07	-7.544897e-10	1.770271e+00	-5.467272e+01
1.910000e-06	2.950754e-07	-7.154944e-10	2.095613e+00	-5.245668e+01
1.920000e-06	3.408832e-07	-6.805492e-10	2.420937e+00	-5.018581e+01
1.930000e-06	3.866630e-07	-6.499310e-10	2.746064e+00	-4.786091e+01
1.940000e-06	4.324986e-07	-6.166107e-10	3.071586e+00	-4.548301e+01
1.950000e-06	4.783500e-07	-5.794166e-10	3.397221e+00	-4.305341e+01
1.960000e-06	5.239893e-07	-5.428355e-10	3.721349e+00	-4.057364e+01
1.970000e-06	5.694748e-07	-5.071832e-10	4.044385e+00	-3.804545e+01
1.980000e-06	6.150105e-07	-4.676427e-10	4.367777e+00	-3.547080e+01
1.990000e-06	6.605834e-07	-4.256230e-10	4.691434e+00	-3.285183e+01
2.000000e-06	7.060941e-07	-3.869034e-10	5.014649e+00	-3.019085e+01
2.010000e-06	7.514733e-07	-3.512941e-10	5.336930e+00	-2.749032e+01
2.020000e-06	7.968454e-07	-3.122185e-10	5.659161e+00	-2.475280e+01
2.030000e-06	8.422882e-07	-2.728976e-10	5.981894e+00	-2.198096e+01
2.040000e-06	8.876233e-07	-2.361925e-10	6.303861e+00	-1.917751e+01
2.050000e-06	9.328306e-07	-1.972435e-10	6.624922e+00	-1.634524e+01
2.060000e-06	9.779323e-07	-1.546174e-10	6.945232e+00	-1.348693e+01
2.070000e-06	1.022963e-06	-1.093709e-10	7.265036e+00	-1.060537e+01
2.080000e-06	1.067916e-06	-6.693104e-11	7.584290e+00	-7.703342e+00
2.090000e-06	1.112763e-06	-2.824104e-11	7.902793e+00	-4.783563e+00
2.100000e-06	1.157525e-06	1.250918e-11	8.220691e+00	-1.848713e+00
2.110000e-06	1.202136e-06	5.475875e-11	8.537517e+00	1.098596e+00
2.120000e-06	1.246619e-06	9.451762e-11	8.853435e+00	4.055830e+00
2.130000e-06	1.291070e-06	1.334426e-10	9.169121e+00	7.020534e+00
2.140000e-06	1.335475e-06	1.741272e-10	9.484481e+00	9.990338e+00
2.150000e-06	1.379790e-06	2.223215e-10	9.799211e+00	1.296296e+01
2.160000e-06	1.424082e-06	2.712153e-10	1.011377e+01	1.593620e+01
2.170000e-06	1.468298e-06	3.136222e-10	1.042779e+01	1.890793e+01
2.180000e-06	1.512454e-06	3.519173e-10	1.074138e+01	2.187611e+01
2.190000e-06	1.556598e-06	3.903900e-10	1.105489e+01	2.483875e+01
2.200000e-06	1.600658e-06	4.285244e-10	1.136780e+01	2.779393e+01
2.210000e-06	1.644655e-06	4.662606e-10	1.168027e+01	3.073974e+01
2.220000e-06	1.688654e-06	5.102902e-10	1.199275e+01	3.367435e+01
2.230000e-06	1.732611e-06	5.603730e-10	1.230493e+01	3.659591e+01
2.240000e-06	1.776476e-06	6.086631e-10	1.261645e+01	3.950262e+01
2.250000e-06	1.820272e-06	6.496323e-10	1.292749e+01	4.239264e+01
2.260000e-06	1.863921e-06	6.859233e-10	1.323748e+01	4.526414e+01
2.270000e-06	1.907403e-06	7.234220e-10	1.354629e+01	4.811530e+01
2.280000e-06	1.950784e-06	7.611772e-10	1.385438e+01	5.094424e+01
2.290000e-06	1.994039e-06	7.964992e-10	1.416157e+01	5.374909e+01
2.300000e-06	2.036958e-06	8.345857e-10	1.446639e+01	5.652794e+01
2.310000e-06	2.079631e-06	8.788913e-10	1.476945e+01	5.927887e+01
2.320000e-06	2.122122e-06	9.269210e-10	1.507122e+01	6.199993e+01
2.330000e-06	2.164210e-06	9.699766e-10	1.537013e+01	6.468918e+01
2.340000e-06	2.206040e-06	1.004037e-09	1.566720e+01	6.734466e+01
2.350000e-06	2.247684e-06	1.033936e-09	1.596295e+01	6.996444e+01
2.360000e-06	2.289000e-06	1.068675e-09	1.625638e+01	7.254661e+01
2.370000e-06	2.329893e-06	1.105380e-09	1.654680e+01	7.508929e+01
2.380000e-06	2.370525e-06	1.139539e-09	1.683536e+01	7.759068e+01
2.390000e-06	2.411095e-06	1.175134e-09	1.712349e+01	8.004902e+01
2.400000e-06	2.451582e-06	1.215192e-09	1.741103e+01	8.246267e+01
2.410000e-06	2.491870e-06	1.253596e-09	1.769715e+01	8.483009e+01
2.420000e-06	2.532008e-06	1.283494e-09	1.798221e+01	8.714984e+01
2.430000e-06	2.572064e-06	1.311276e-09	1.826668e+01	8.942066e+01
2.440000e-06	2.612017e-06	1.342654e-09	1.855043e+01	9.164141e+01
2.450000e-06	2.651856e-06	1.374567e-09	1.883337e+01	9.381114e+01
2.460000e-06	2.691623e-06	1.403649e-09	1.911579e+01	9.592906e+01
2.470000e-06	2.731319e-06	1.430439e-09	1.939771e+01	9.799457e+01
2.480000e-06	2.770733e-06	1.458904e-09	1.967763e+01	1.000073e+02
2.490000e-06	2.809872e-06	1.488996e-09	1.995559e+01	1.019669e+02
2.500000e-06	2.848852e-06	1.516736e-09	2.023242e+01	1.038736e+02
2.510000e-06	2.887583e-06	1.543544e-09	2.050749e+01	1.057273e+02
2.520000e-06	2.926077e-06	1.571553e-09	2.078087e+01	1.075284e+02
2.530000e-06	2.964395e-06	1.598927e-09	2.105300e+01	1.092775e+02
2.540000e-06	3.002468e-06	1.623826e-09	2.132340e+01	1.109752e+02
2.550000e-06	3.040384e-06	1.648328e-09	2.159268e+01	1.126223e+02
2.560000e-06	3.078132e-06	1.674246e-09	2.186076e+01	1.142197e+02
2.570000e-06	3.115704e-06	1.699266e-09	2.212759e+01	1.157685e+02
2.580000e-06	3.153072e-06	1.719305e-09	2.239298e+01	1.172698e+02
2.590000e-06	3.190150e-06	1.736770e-09	2.265630e+01	1.187248e+02
2.600000e-06	3.227019e-06	1.756202e-09	2.291815e+01	1.201346e+02
2.610000e-06	3.263654e-06	1.779937e-09	2.317833e+01	1.215007e+02
2.620000e-06	3.300012e-06	1.801552e-09	2.343654e+01	1.228241e+02
2.630000e-06	3.336211e-06	1.818228e-09	2.369362e+01	1.241062e+02
2.640000e-06	3.372321e-06	1.834118e-09	2.395008e+01	1.253482e+02
2.650000e-06	3.408295e-06	1.849355e-09	2.420556e+01	1.265511e+02
2.660000e-06	3.444100e-06	1.861177e-09	2.445985e+01	1.277162e+02
2.670000e-06	3.479792e-06	1.869655e-09	2.471333e+01	1.288444e+02
2.680000e-06	3.515303e-06	1.883808e-09	2.496552e+01	1.299366e+02
2.690000e-06	3.550470e-06	1.904990e-09	2.521528e+01	1.309937e+02
2.700000e-06	3.585271e-06	1.923822e-09	2.546244e+01	1.320164e+02
2.710000e-06	3.619668e-06	1.938264e-09	2.570672e+01	1.330055e+02
2.720000e-06	3.653516e-06	1.949769e-09	2.594711e+01	1.339615e+02
2.730000e-06	3.686815e-06	1.961720e-09	2.618360e+01	1.348849e+02
2.740000e-06	3.719783e-06	1.973322e-09	2.641773e+01	1.357761e+02
2.750000e-06	3.752469e-06	1.981493e-09	2.664987e+01	1.366356e+02
2.760000e-06	3.784909e-06	1.991003e-09	2.688025e+01	1.374637e+02
2.770000e-06	3.817156e-06	2.006429e-09	2.710927e+01	1.382606e+02
2.780000e-06	3.849229e-06	2.022347e-09	2.733705e+01	1.390268e+02
2.790000e-06	3.881175e-06	2.033349e-09	2.756394e+01	1.397624e+02
2.800000e-06	3.912981e-06	2.039312e-09	2.778982e+01	1.404678e+02
2.810000e-06	3.944506e-06	2.044155e-09	2.801371e+01	1.411434e+02
2.820000e-06	3.975796e-06	2.047761e-09	2.823593e+01	1.417896e+02
2.830000e-06	4.006816e-06	2.048758e-09	2.845623e+01	1.424067e+02
2.840000e-06	4.037422e-06	2.052243e-09	2.867359e+01	1.429954e+02
2.850000e-06	4.067729e-06	2.066188e-09	2.888884e+01	1.435563e+02
2.860000e-06	4.097740e-06	2.085792e-09	2.910197e+01	1.440901e+02
2.870000e-06	4.127558e-06	2.099783e-09	2.931373e+01	1.445976e+02
2.880000e-06	4.157184e-06	2.105267e-09	2.952414e+01	1.450796e+02
2.890000e-06	4.186441e-06	2.104171e-09	2.973192e+01	1.455372e+02
2.900000e-06	4.215414e-06	2.102549e-09	2.993769e+01	1.459714e+02
