# Temperatura_=_-1.4
# Concentracion g/m^3_=_4090.0
# C_Vs_to_Am_M_A/Vsm_=_65563218390.804596
# pendiente_HvsI_1/m_=_3716.3
# ordenada_HvsI_A/m_=_1297.0
# frecuencia_Hz_=_135066.56200994202

Tiempo_(s)	Campo_(V.s)	Magnetizacion_(V.s)	Campo_(kA/m)	Magnetizacion_(A/m)
0.000000e+00	-5.409285e-06	-2.513608e-09	-3.840636e+01	-1.637655e+02
1.000000e-08	-5.409404e-06	-2.511664e-09	-3.840721e+01	-1.636736e+02
2.000000e-08	-5.409215e-06	-2.513044e-09	-3.840587e+01	-1.635853e+02
3.000000e-08	-5.408767e-06	-2.513271e-09	-3.840269e+01	-1.635021e+02
4.000000e-08	-5.407817e-06	-2.512066e-09	-3.839594e+01	-1.634258e+02
5.000000e-08	-5.406262e-06	-2.521168e-09	-3.838490e+01	-1.633578e+02
6.000000e-08	-5.404156e-06	-2.539562e-09	-3.836995e+01	-1.632995e+02
7.000000e-08	-5.401442e-06	-2.521062e-09	-3.835068e+01	-1.632524e+02
8.000000e-08	-5.398230e-06	-2.446035e-09	-3.832787e+01	-1.632175e+02
9.000000e-08	-5.394571e-06	-2.463125e-09	-3.830190e+01	-1.631958e+02
1.000000e-07	-5.390471e-06	-2.609901e-09	-3.827279e+01	-1.631880e+02
1.100000e-07	-5.386136e-06	-2.606219e-09	-3.824201e+01	-1.631948e+02
1.200000e-07	-5.381631e-06	-2.440976e-09	-3.821002e+01	-1.632163e+02
1.300000e-07	-5.376866e-06	-2.410014e-09	-3.817619e+01	-1.632527e+02
1.400000e-07	-5.371740e-06	-2.598230e-09	-3.813979e+01	-1.633038e+02
1.500000e-07	-5.366156e-06	-2.631180e-09	-3.810014e+01	-1.633690e+02
1.600000e-07	-5.360205e-06	-2.383818e-09	-3.805790e+01	-1.634478e+02
1.700000e-07	-5.353916e-06	-2.364922e-09	-3.801324e+01	-1.635391e+02
1.800000e-07	-5.347149e-06	-2.570001e-09	-3.796520e+01	-1.636417e+02
1.900000e-07	-5.339981e-06	-2.633434e-09	-3.791431e+01	-1.637544e+02
2.000000e-07	-5.332581e-06	-2.452556e-09	-3.786176e+01	-1.638755e+02
2.100000e-07	-5.325004e-06	-2.482559e-09	-3.780796e+01	-1.640032e+02
2.200000e-07	-5.317101e-06	-2.613297e-09	-3.775185e+01	-1.641356e+02
2.300000e-07	-5.308859e-06	-2.571916e-09	-3.769333e+01	-1.642708e+02
2.400000e-07	-5.300358e-06	-2.477594e-09	-3.763297e+01	-1.644066e+02
2.500000e-07	-5.291357e-06	-2.589034e-09	-3.756907e+01	-1.645409e+02
2.600000e-07	-5.281575e-06	-2.660424e-09	-3.749962e+01	-1.646715e+02
2.700000e-07	-5.271114e-06	-2.548356e-09	-3.742534e+01	-1.647963e+02
2.800000e-07	-5.260145e-06	-2.545056e-09	-3.734746e+01	-1.649131e+02
2.900000e-07	-5.248716e-06	-2.668257e-09	-3.726631e+01	-1.650201e+02
3.000000e-07	-5.236912e-06	-2.613289e-09	-3.718251e+01	-1.651153e+02
3.100000e-07	-5.224745e-06	-2.464940e-09	-3.709612e+01	-1.651970e+02
3.200000e-07	-5.212150e-06	-2.555993e-09	-3.700669e+01	-1.652637e+02
3.300000e-07	-5.199162e-06	-2.653002e-09	-3.691448e+01	-1.653139e+02
3.400000e-07	-5.185882e-06	-2.575851e-09	-3.682019e+01	-1.653465e+02
3.500000e-07	-5.172252e-06	-2.519365e-09	-3.672341e+01	-1.653607e+02
3.600000e-07	-5.158239e-06	-2.604746e-09	-3.662392e+01	-1.653557e+02
3.700000e-07	-5.143829e-06	-2.582980e-09	-3.652161e+01	-1.653311e+02
3.800000e-07	-5.128922e-06	-2.532493e-09	-3.641576e+01	-1.652867e+02
3.900000e-07	-5.113524e-06	-2.550928e-09	-3.630644e+01	-1.652227e+02
4.000000e-07	-5.097561e-06	-2.555727e-09	-3.619310e+01	-1.651393e+02
4.100000e-07	-5.081134e-06	-2.505511e-09	-3.607646e+01	-1.650370e+02
4.200000e-07	-5.064357e-06	-2.561122e-09	-3.595735e+01	-1.649167e+02
4.300000e-07	-5.047211e-06	-2.592592e-09	-3.583561e+01	-1.647792e+02
4.400000e-07	-5.029774e-06	-2.532509e-09	-3.571181e+01	-1.646258e+02
4.500000e-07	-5.012043e-06	-2.501477e-09	-3.558592e+01	-1.644576e+02
4.600000e-07	-4.993995e-06	-2.560207e-09	-3.545777e+01	-1.642760e+02
4.700000e-07	-4.975483e-06	-2.552003e-09	-3.532634e+01	-1.640827e+02
4.800000e-07	-4.956590e-06	-2.513572e-09	-3.519220e+01	-1.638790e+02
4.900000e-07	-4.937356e-06	-2.514282e-09	-3.505563e+01	-1.636665e+02
5.000000e-07	-4.917772e-06	-2.540976e-09	-3.491659e+01	-1.634470e+02
5.100000e-07	-4.897979e-06	-2.545931e-09	-3.477605e+01	-1.632219e+02
5.200000e-07	-4.877971e-06	-2.535480e-09	-3.463399e+01	-1.629927e+02
5.300000e-07	-4.857674e-06	-2.504158e-09	-3.448989e+01	-1.627610e+02
5.400000e-07	-4.837041e-06	-2.498975e-09	-3.434339e+01	-1.625279e+02
5.500000e-07	-4.816103e-06	-2.523942e-09	-3.419473e+01	-1.622948e+02
5.600000e-07	-4.794834e-06	-2.518077e-09	-3.404371e+01	-1.620628e+02
5.700000e-07	-4.773165e-06	-2.488306e-09	-3.388986e+01	-1.618327e+02
5.800000e-07	-4.751151e-06	-2.487117e-09	-3.373356e+01	-1.616054e+02
5.900000e-07	-4.728859e-06	-2.503643e-09	-3.357529e+01	-1.613815e+02
6.000000e-07	-4.706201e-06	-2.500528e-09	-3.341442e+01	-1.611613e+02
6.100000e-07	-4.683166e-06	-2.486551e-09	-3.325087e+01	-1.609452e+02
6.200000e-07	-4.659918e-06	-2.463410e-09	-3.308580e+01	-1.607332e+02
6.300000e-07	-4.636449e-06	-2.469127e-09	-3.291917e+01	-1.605252e+02
6.400000e-07	-4.612694e-06	-2.489496e-09	-3.275051e+01	-1.603212e+02
6.500000e-07	-4.588699e-06	-2.485218e-09	-3.258014e+01	-1.601206e+02
6.600000e-07	-4.564445e-06	-2.452063e-09	-3.240793e+01	-1.599231e+02
6.700000e-07	-4.539865e-06	-2.455260e-09	-3.223342e+01	-1.597280e+02
6.800000e-07	-4.514906e-06	-2.469374e-09	-3.205620e+01	-1.595347e+02
6.900000e-07	-4.489413e-06	-2.465634e-09	-3.187520e+01	-1.593424e+02
7.000000e-07	-4.463404e-06	-2.443530e-09	-3.169054e+01	-1.591505e+02
7.100000e-07	-4.437033e-06	-2.441909e-09	-3.150330e+01	-1.589579e+02
7.200000e-07	-4.410181e-06	-2.449452e-09	-3.131264e+01	-1.587641e+02
7.300000e-07	-4.382854e-06	-2.458620e-09	-3.111862e+01	-1.585681e+02
7.400000e-07	-4.355247e-06	-2.441069e-09	-3.092261e+01	-1.583692e+02
7.500000e-07	-4.327466e-06	-2.425391e-09	-3.072537e+01	-1.581666e+02
7.600000e-07	-4.299515e-06	-2.425129e-09	-3.052691e+01	-1.579598e+02
7.700000e-07	-4.271362e-06	-2.431835e-09	-3.032702e+01	-1.577482e+02
7.800000e-07	-4.242913e-06	-2.417924e-09	-3.012503e+01	-1.575312e+02
7.900000e-07	-4.214177e-06	-2.405570e-09	-2.992100e+01	-1.573084e+02
8.000000e-07	-4.185193e-06	-2.407445e-09	-2.971521e+01	-1.570797e+02
8.100000e-07	-4.155897e-06	-2.419353e-09	-2.950721e+01	-1.568447e+02
8.200000e-07	-4.126269e-06	-2.419301e-09	-2.929685e+01	-1.566034e+02
8.300000e-07	-4.096335e-06	-2.405805e-09	-2.908431e+01	-1.563558e+02
8.400000e-07	-4.066137e-06	-2.392800e-09	-2.886990e+01	-1.561020e+02
8.500000e-07	-4.035678e-06	-2.390058e-09	-2.865364e+01	-1.558421e+02
8.600000e-07	-4.004961e-06	-2.384328e-09	-2.843555e+01	-1.555765e+02
8.700000e-07	-3.974036e-06	-2.367604e-09	-2.821598e+01	-1.553056e+02
8.800000e-07	-3.942895e-06	-2.356345e-09	-2.799487e+01	-1.550295e+02
8.900000e-07	-3.911474e-06	-2.362170e-09	-2.777179e+01	-1.547490e+02
9.000000e-07	-3.879782e-06	-2.372301e-09	-2.754677e+01	-1.544643e+02
9.100000e-07	-3.847871e-06	-2.364913e-09	-2.732020e+01	-1.541760e+02
9.200000e-07	-3.815754e-06	-2.349150e-09	-2.709217e+01	-1.538845e+02
9.300000e-07	-3.783491e-06	-2.337625e-09	-2.686310e+01	-1.535904e+02
9.400000e-07	-3.750997e-06	-2.334461e-09	-2.663239e+01	-1.532941e+02
9.500000e-07	-3.718101e-06	-2.323707e-09	-2.639882e+01	-1.529960e+02
9.600000e-07	-3.684802e-06	-2.315438e-09	-2.616240e+01	-1.526966e+02
9.700000e-07	-3.651017e-06	-2.314674e-09	-2.592252e+01	-1.523960e+02
9.800000e-07	-3.616820e-06	-2.321091e-09	-2.567972e+01	-1.520945e+02
9.900000e-07	-3.582340e-06	-2.314729e-09	-2.543491e+01	-1.517925e+02
1.000000e-06	-3.547477e-06	-2.301109e-09	-2.518738e+01	-1.514898e+02
1.010000e-06	-3.512228e-06	-2.287361e-09	-2.493711e+01	-1.511867e+02
1.020000e-06	-3.476720e-06	-2.281353e-09	-2.468500e+01	-1.508829e+02
1.030000e-06	-3.441082e-06	-2.272832e-09	-2.443196e+01	-1.505785e+02
1.040000e-06	-3.405297e-06	-2.265348e-09	-2.417788e+01	-1.502731e+02
1.050000e-06	-3.369339e-06	-2.261091e-09	-2.392258e+01	-1.499666e+02
1.060000e-06	-3.333284e-06	-2.263231e-09	-2.366659e+01	-1.496585e+02
1.070000e-06	-3.297048e-06	-2.260038e-09	-2.340931e+01	-1.493486e+02
1.080000e-06	-3.260545e-06	-2.249727e-09	-2.315014e+01	-1.490362e+02
1.090000e-06	-3.223854e-06	-2.235274e-09	-2.288963e+01	-1.487211e+02
1.100000e-06	-3.186902e-06	-2.228345e-09	-2.262727e+01	-1.484025e+02
1.110000e-06	-3.149579e-06	-2.225774e-09	-2.236227e+01	-1.480800e+02
1.120000e-06	-3.112001e-06	-2.220829e-09	-2.209546e+01	-1.477531e+02
1.130000e-06	-3.074296e-06	-2.213549e-09	-2.182775e+01	-1.474211e+02
1.140000e-06	-3.036411e-06	-2.210985e-09	-2.155877e+01	-1.470835e+02
1.150000e-06	-2.998286e-06	-2.207992e-09	-2.128808e+01	-1.467397e+02
1.160000e-06	-2.959967e-06	-2.198475e-09	-2.101601e+01	-1.463893e+02
1.170000e-06	-2.921436e-06	-2.186789e-09	-2.074243e+01	-1.460316e+02
1.180000e-06	-2.882754e-06	-2.179174e-09	-2.046779e+01	-1.456664e+02
1.190000e-06	-2.843897e-06	-2.176338e-09	-2.019190e+01	-1.452930e+02
1.200000e-06	-2.804843e-06	-2.169197e-09	-1.991461e+01	-1.449113e+02
1.210000e-06	-2.765611e-06	-2.158415e-09	-1.963607e+01	-1.445207e+02
1.220000e-06	-2.726084e-06	-2.149191e-09	-1.935542e+01	-1.441211e+02
1.230000e-06	-2.686407e-06	-2.145718e-09	-1.907371e+01	-1.437121e+02
1.240000e-06	-2.646679e-06	-2.139149e-09	-1.879164e+01	-1.432937e+02
1.250000e-06	-2.606827e-06	-2.129814e-09	-1.850869e+01	-1.428656e+02
1.260000e-06	-2.566866e-06	-2.119701e-09	-1.822496e+01	-1.424278e+02
1.270000e-06	-2.526833e-06	-2.114563e-09	-1.794072e+01	-1.419801e+02
1.280000e-06	-2.486708e-06	-2.109395e-09	-1.765583e+01	-1.415226e+02
1.290000e-06	-2.446327e-06	-2.102014e-09	-1.736912e+01	-1.410552e+02
1.300000e-06	-2.405766e-06	-2.091239e-09	-1.708113e+01	-1.405780e+02
1.310000e-06	-2.365074e-06	-2.082173e-09	-1.679222e+01	-1.400910e+02
1.320000e-06	-2.324166e-06	-2.074483e-09	-1.650177e+01	-1.395943e+02
1.330000e-06	-2.282967e-06	-2.066675e-09	-1.620926e+01	-1.390878e+02
1.340000e-06	-2.241435e-06	-2.056721e-09	-1.591437e+01	-1.385717e+02
1.350000e-06	-2.199626e-06	-2.048009e-09	-1.561752e+01	-1.380459e+02
1.360000e-06	-2.157554e-06	-2.041078e-09	-1.531881e+01	-1.375107e+02
1.370000e-06	-2.115295e-06	-2.033580e-09	-1.501877e+01	-1.369658e+02
1.380000e-06	-2.072774e-06	-2.021927e-09	-1.471687e+01	-1.364115e+02
1.390000e-06	-2.029967e-06	-2.011256e-09	-1.441293e+01	-1.358475e+02
1.400000e-06	-1.986924e-06	-2.002786e-09	-1.410733e+01	-1.352740e+02
1.410000e-06	-1.943708e-06	-1.994292e-09	-1.380048e+01	-1.346907e+02
1.420000e-06	-1.900393e-06	-1.983780e-09	-1.349295e+01	-1.340976e+02
1.430000e-06	-1.856911e-06	-1.973071e-09	-1.318422e+01	-1.334945e+02
1.440000e-06	-1.813318e-06	-1.963152e-09	-1.287471e+01	-1.328813e+02
1.450000e-06	-1.769647e-06	-1.953984e-09	-1.256464e+01	-1.322576e+02
1.460000e-06	-1.725875e-06	-1.943906e-09	-1.225385e+01	-1.316233e+02
1.470000e-06	-1.682014e-06	-1.931065e-09	-1.194244e+01	-1.309780e+02
1.480000e-06	-1.638056e-06	-1.919338e-09	-1.163033e+01	-1.303214e+02
1.490000e-06	-1.594009e-06	-1.909446e-09	-1.131759e+01	-1.296530e+02
1.500000e-06	-1.549894e-06	-1.900261e-09	-1.100438e+01	-1.289726e+02
1.510000e-06	-1.505722e-06	-1.889351e-09	-1.069075e+01	-1.282795e+02
1.520000e-06	-1.461537e-06	-1.876488e-09	-1.037703e+01	-1.275734e+02
1.530000e-06	-1.417271e-06	-1.864691e-09	-1.006274e+01	-1.268536e+02
1.540000e-06	-1.372866e-06	-1.853713e-09	-9.747464e+00	-1.261197e+02
1.550000e-06	-1.328394e-06	-1.842218e-09	-9.431708e+00	-1.253710e+02
1.560000e-06	-1.283863e-06	-1.832951e-09	-9.115533e+00	-1.246070e+02
1.570000e-06	-1.239266e-06	-1.823637e-09	-8.798890e+00	-1.238269e+02
1.580000e-06	-1.194578e-06	-1.813021e-09	-8.481602e+00	-1.230301e+02
1.590000e-06	-1.149791e-06	-1.800913e-09	-8.163608e+00	-1.222158e+02
1.600000e-06	-1.104948e-06	-1.788271e-09	-7.845222e+00	-1.213833e+02
1.610000e-06	-1.060046e-06	-1.772850e-09	-7.526414e+00	-1.205318e+02
1.620000e-06	-1.014924e-06	-1.757230e-09	-7.206040e+00	-1.196605e+02
1.630000e-06	-9.696802e-07	-1.742612e-09	-6.884809e+00	-1.187686e+02
1.640000e-06	-9.244739e-07	-1.727987e-09	-6.563840e+00	-1.178552e+02
1.650000e-06	-8.791715e-07	-1.712595e-09	-6.242190e+00	-1.169194e+02
1.660000e-06	-8.337726e-07	-1.698933e-09	-5.919854e+00	-1.159602e+02
1.670000e-06	-7.883674e-07	-1.685234e-09	-5.597473e+00	-1.149768e+02
1.680000e-06	-7.429179e-07	-1.669969e-09	-5.274778e+00	-1.139681e+02
1.690000e-06	-6.973493e-07	-1.652147e-09	-4.951237e+00	-1.129331e+02
1.700000e-06	-6.516981e-07	-1.633633e-09	-4.627110e+00	-1.118707e+02
1.710000e-06	-6.059902e-07	-1.615878e-09	-4.302580e+00	-1.107800e+02
1.720000e-06	-5.603142e-07	-1.599463e-09	-3.978276e+00	-1.096599e+02
1.730000e-06	-5.146864e-07	-1.583828e-09	-3.654315e+00	-1.085091e+02
1.740000e-06	-4.689598e-07	-1.568216e-09	-3.329653e+00	-1.073266e+02
1.750000e-06	-4.231555e-07	-1.551929e-09	-3.004438e+00	-1.061113e+02
1.760000e-06	-3.773254e-07	-1.534490e-09	-2.679041e+00	-1.048619e+02
1.770000e-06	-3.314482e-07	-1.514617e-09	-2.353309e+00	-1.035773e+02
1.780000e-06	-2.855659e-07	-1.491589e-09	-2.027542e+00	-1.022563e+02
1.790000e-06	-2.396680e-07	-1.468353e-09	-1.701663e+00	-1.008976e+02
1.800000e-06	-1.937768e-07	-1.446506e-09	-1.375832e+00	-9.950009e+01
1.810000e-06	-1.479283e-07	-1.427984e-09	-1.050303e+00	-9.806250e+01
1.820000e-06	-1.020304e-07	-1.409749e-09	-7.244241e-01	-9.658359e+01
1.830000e-06	-5.607314e-08	-1.388560e-09	-3.981239e-01	-9.506214e+01
1.840000e-06	-1.011250e-08	-1.364619e-09	-7.179958e-02	-9.349692e+01
1.850000e-06	3.582887e-08	-1.340953e-09	2.543879e-01	-9.188669e+01
1.860000e-06	8.167496e-08	-1.316702e-09	5.798989e-01	-9.023024e+01
1.870000e-06	1.274833e-07	-1.289603e-09	9.051421e-01	-8.852636e+01
1.880000e-06	1.733659e-07	-1.261276e-09	1.230912e+00	-8.677385e+01
1.890000e-06	2.192775e-07	-1.235590e-09	1.556888e+00	-8.497153e+01
1.900000e-06	2.651994e-07	-1.210411e-09	1.882938e+00	-8.311824e+01
1.910000e-06	3.110539e-07	-1.182630e-09	2.208508e+00	-8.121284e+01
1.920000e-06	3.567633e-07	-1.152842e-09	2.533048e+00	-7.925424e+01
1.930000e-06	4.023744e-07	-1.123773e-09	2.856891e+00	-7.724136e+01
1.940000e-06	4.479918e-07	-1.095562e-09	3.180779e+00	-7.517317e+01
1.950000e-06	4.937219e-07	-1.064691e-09	3.505466e+00	-7.304870e+01
1.960000e-06	5.394685e-07	-1.030063e-09	3.830271e+00	-7.086702e+01
1.970000e-06	5.850745e-07	-9.959566e-10	4.154077e+00	-6.862727e+01
1.980000e-06	6.305927e-07	-9.647702e-10	4.477260e+00	-6.632866e+01
1.990000e-06	6.760849e-07	-9.342919e-10	4.800258e+00	-6.397049e+01
2.000000e-06	7.215678e-07	-9.008828e-10	5.123190e+00	-6.155215e+01
2.010000e-06	7.669826e-07	-8.645689e-10	5.445640e+00	-5.907312e+01
2.020000e-06	8.123657e-07	-8.288964e-10	5.767863e+00	-5.653302e+01
2.030000e-06	8.577517e-07	-7.944942e-10	6.090108e+00	-5.393158e+01
2.040000e-06	9.030301e-07	-7.567143e-10	6.411588e+00	-5.126868e+01
2.050000e-06	9.482355e-07	-7.148124e-10	6.732550e+00	-4.854435e+01
2.060000e-06	9.933634e-07	-6.727436e-10	7.052961e+00	-4.575881e+01
2.070000e-06	1.038370e-06	-6.341960e-10	7.372513e+00	-4.291244e+01
2.080000e-06	1.083258e-06	-5.943319e-10	7.691220e+00	-4.000583e+01
2.090000e-06	1.128093e-06	-5.495751e-10	8.009549e+00	-3.703979e+01
2.100000e-06	1.172826e-06	-5.049578e-10	8.327164e+00	-3.401533e+01
2.110000e-06	1.217414e-06	-4.620740e-10	8.643738e+00	-3.093371e+01
2.120000e-06	1.261896e-06	-4.180850e-10	8.959565e+00	-2.779645e+01
2.130000e-06	1.306270e-06	-3.698781e-10	9.274621e+00	-2.460531e+01
2.140000e-06	1.350561e-06	-3.182259e-10	9.589093e+00	-2.136232e+01
2.150000e-06	1.394795e-06	-2.682945e-10	9.903156e+00	-1.806979e+01
2.160000e-06	1.439012e-06	-2.196678e-10	1.021710e+01	-1.473028e+01
2.170000e-06	1.483178e-06	-1.676362e-10	1.053069e+01	-1.134665e+01
2.180000e-06	1.527259e-06	-1.143507e-10	1.084366e+01	-7.922028e+00
2.190000e-06	1.571259e-06	-6.518119e-11	1.115606e+01	-4.459800e+00
2.200000e-06	1.615179e-06	-1.884014e-11	1.146790e+01	-9.636257e-01
2.210000e-06	1.659080e-06	3.159106e-11	1.177961e+01	2.562590e+00
2.220000e-06	1.702976e-06	8.775934e-11	1.209127e+01	6.114701e+00
2.230000e-06	1.746812e-06	1.438008e-10	1.240251e+01	9.688343e+00
2.240000e-06	1.790543e-06	1.961466e-10	1.271300e+01	1.327895e+01
2.250000e-06	1.834181e-06	2.483715e-10	1.302284e+01	1.688177e+01
2.260000e-06	1.877774e-06	3.026776e-10	1.333235e+01	2.049192e+01
2.270000e-06	1.921269e-06	3.566237e-10	1.364117e+01	2.410437e+01
2.280000e-06	1.964626e-06	4.068704e-10	1.394900e+01	2.771399e+01
2.290000e-06	2.007849e-06	4.589600e-10	1.425589e+01	3.131563e+01
2.300000e-06	2.050899e-06	5.161008e-10	1.456155e+01	3.490406e+01
2.310000e-06	2.093662e-06	5.728884e-10	1.486517e+01	3.847409e+01
2.320000e-06	2.136061e-06	6.252683e-10	1.516621e+01	4.202057e+01
2.330000e-06	2.178222e-06	6.750085e-10	1.546555e+01	4.553842e+01
2.340000e-06	2.220177e-06	7.250188e-10	1.576344e+01	4.902269e+01
2.350000e-06	2.261782e-06	7.745500e-10	1.605884e+01	5.246857e+01
2.360000e-06	2.303002e-06	8.226562e-10	1.635150e+01	5.587145e+01
2.370000e-06	2.343950e-06	8.701085e-10	1.664223e+01	5.922691e+01
2.380000e-06	2.384595e-06	9.181259e-10	1.693082e+01	6.253081e+01
2.390000e-06	2.425025e-06	9.665273e-10	1.721788e+01	6.577928e+01
2.400000e-06	2.465388e-06	1.012098e-09	1.750446e+01	6.896875e+01
2.410000e-06	2.505609e-06	1.054419e-09	1.779003e+01	7.209597e+01
2.420000e-06	2.545699e-06	1.096386e-09	1.807467e+01	7.515804e+01
2.430000e-06	2.585720e-06	1.138614e-09	1.835882e+01	7.815241e+01
2.440000e-06	2.625654e-06	1.178537e-09	1.864236e+01	8.107690e+01
2.450000e-06	2.665439e-06	1.217187e-09	1.892484e+01	8.392971e+01
2.460000e-06	2.705124e-06	1.258713e-09	1.920660e+01	8.670939e+01
2.470000e-06	2.744654e-06	1.300521e-09	1.948727e+01	8.941488e+01
2.480000e-06	2.783941e-06	1.338044e-09	1.976621e+01	9.204549e+01
2.490000e-06	2.823065e-06	1.371687e-09	2.004400e+01	9.460087e+01
2.500000e-06	2.861984e-06	1.405162e-09	2.032032e+01	9.708102e+01
2.510000e-06	2.900610e-06	1.440814e-09	2.059457e+01	9.948624e+01
2.520000e-06	2.938989e-06	1.476660e-09	2.086706e+01	1.018172e+02
2.530000e-06	2.977215e-06	1.509973e-09	2.113847e+01	1.040746e+02
2.540000e-06	3.015239e-06	1.542258e-09	2.140844e+01	1.062599e+02
2.550000e-06	3.053009e-06	1.576166e-09	2.167661e+01	1.083741e+02
2.560000e-06	3.090574e-06	1.608442e-09	2.194333e+01	1.104190e+02
2.570000e-06	3.127989e-06	1.634002e-09	2.220898e+01	1.123963e+02
2.580000e-06	3.165222e-06	1.655067e-09	2.247334e+01	1.143076e+02
2.590000e-06	3.202230e-06	1.678457e-09	2.273610e+01	1.161551e+02
2.600000e-06	3.239000e-06	1.705638e-09	2.299717e+01	1.179408e+02
2.610000e-06	3.275503e-06	1.732412e-09	2.325634e+01	1.196665e+02
2.620000e-06	3.311803e-06	1.756540e-09	2.351407e+01	1.213345e+02
2.630000e-06	3.347922e-06	1.779651e-09	2.377052e+01	1.229468e+02
2.640000e-06	3.383890e-06	1.802966e-09	2.402590e+01	1.245054e+02
2.650000e-06	3.419771e-06	1.823557e-09	2.428065e+01	1.260122e+02
2.660000e-06	3.455571e-06	1.839520e-09	2.453484e+01	1.274692e+02
2.670000e-06	3.491196e-06	1.855043e-09	2.478777e+01	1.288782e+02
2.680000e-06	3.526546e-06	1.873788e-09	2.503876e+01	1.302408e+02
2.690000e-06	3.561679e-06	1.892989e-09	2.528821e+01	1.315588e+02
2.700000e-06	3.596464e-06	1.911499e-09	2.553519e+01	1.328335e+02
2.710000e-06	3.630715e-06	1.931152e-09	2.577837e+01	1.340664e+02
2.720000e-06	3.664459e-06	1.952458e-09	2.601796e+01	1.352589e+02
2.730000e-06	3.697788e-06	1.972315e-09	2.625459e+01	1.364120e+02
2.740000e-06	3.730705e-06	1.987073e-09	2.648831e+01	1.375268e+02
2.750000e-06	3.763335e-06	1.999962e-09	2.671999e+01	1.386045e+02
2.760000e-06	3.795783e-06	2.014094e-09	2.695037e+01	1.396457e+02
2.770000e-06	3.827961e-06	2.028256e-09	2.717884e+01	1.406515e+02
2.780000e-06	3.859898e-06	2.042866e-09	2.740559e+01	1.416226e+02
2.790000e-06	3.891697e-06	2.059036e-09	2.763137e+01	1.425596e+02
2.800000e-06	3.923428e-06	2.075968e-09	2.785666e+01	1.434635e+02
2.810000e-06	3.954944e-06	2.092100e-09	2.808043e+01	1.443347e+02
2.820000e-06	3.986157e-06	2.104412e-09	2.830204e+01	1.451740e+02
2.830000e-06	4.017053e-06	2.112327e-09	2.852140e+01	1.459821e+02
2.840000e-06	4.047601e-06	2.121701e-09	2.873830e+01	1.467597e+02
2.850000e-06	4.077817e-06	2.134137e-09	2.895283e+01	1.475074e+02
2.860000e-06	4.107728e-06	2.145754e-09	2.916521e+01	1.482261e+02
2.870000e-06	4.137358e-06	2.157573e-09	2.937558e+01	1.489164e+02
2.880000e-06	4.166773e-06	2.170209e-09	2.958443e+01	1.495791e+02
2.890000e-06	4.195935e-06	2.180803e-09	2.979149e+01	1.502152e+02
2.900000e-06	4.224819e-06	2.186920e-09	2.999656e+01	1.508255e+02
