# Temperatura_=_13.11
# Concentracion g/m^3_=_4090.0
# C_Vs_to_Am_M_A/Vsm_=_65563218390.804596
# pendiente_HvsI_1/m_=_3716.3
# ordenada_HvsI_A/m_=_1297.0
# frecuencia_Hz_=_135078.72955443885

Tiempo_(s)	Campo_(V.s)	Magnetizacion_(V.s)	Campo_(kA/m)	Magnetizacion_(A/m)
0.000000e+00	-5.442825e-06	-2.369659e-09	-3.839976e+01	-1.553341e+02
1.000000e-08	-5.442949e-06	-2.367759e-09	-3.840063e+01	-1.552208e+02
2.000000e-08	-5.442817e-06	-2.372548e-09	-3.839970e+01	-1.551054e+02
3.000000e-08	-5.442440e-06	-2.373941e-09	-3.839704e+01	-1.549896e+02
4.000000e-08	-5.441744e-06	-2.367248e-09	-3.839213e+01	-1.548753e+02
5.000000e-08	-5.440537e-06	-2.361048e-09	-3.838361e+01	-1.547642e+02
6.000000e-08	-5.438756e-06	-2.357290e-09	-3.837105e+01	-1.546582e+02
7.000000e-08	-5.436308e-06	-2.336006e-09	-3.835378e+01	-1.545590e+02
8.000000e-08	-5.433124e-06	-2.331891e-09	-3.833132e+01	-1.544681e+02
9.000000e-08	-5.429390e-06	-2.423888e-09	-3.830497e+01	-1.543870e+02
1.000000e-07	-5.425163e-06	-2.498705e-09	-3.827515e+01	-1.543168e+02
1.100000e-07	-5.420688e-06	-2.367849e-09	-3.824358e+01	-1.542585e+02
1.200000e-07	-5.416265e-06	-2.256605e-09	-3.821237e+01	-1.542130e+02
1.300000e-07	-5.411610e-06	-2.365650e-09	-3.817953e+01	-1.541808e+02
1.400000e-07	-5.406289e-06	-2.477775e-09	-3.814199e+01	-1.541620e+02
1.500000e-07	-5.400508e-06	-2.334386e-09	-3.810120e+01	-1.541567e+02
1.600000e-07	-5.394512e-06	-2.163625e-09	-3.805891e+01	-1.541645e+02
1.700000e-07	-5.388196e-06	-2.344068e-09	-3.801434e+01	-1.541849e+02
1.800000e-07	-5.381342e-06	-2.501198e-09	-3.796599e+01	-1.542169e+02
1.900000e-07	-5.373997e-06	-2.382230e-09	-3.791417e+01	-1.542596e+02
2.000000e-07	-5.366457e-06	-2.238754e-09	-3.786097e+01	-1.543114e+02
2.100000e-07	-5.358776e-06	-2.371536e-09	-3.780678e+01	-1.543709e+02
2.200000e-07	-5.350843e-06	-2.428864e-09	-3.775081e+01	-1.544363e+02
2.300000e-07	-5.342676e-06	-2.306076e-09	-3.769319e+01	-1.545057e+02
2.400000e-07	-5.334305e-06	-2.300074e-09	-3.763414e+01	-1.545770e+02
2.500000e-07	-5.325224e-06	-2.444565e-09	-3.757007e+01	-1.546482e+02
2.600000e-07	-5.315261e-06	-2.437618e-09	-3.749978e+01	-1.547171e+02
2.700000e-07	-5.304868e-06	-2.354864e-09	-3.742645e+01	-1.547815e+02
2.800000e-07	-5.294003e-06	-2.454026e-09	-3.734980e+01	-1.548394e+02
2.900000e-07	-5.282538e-06	-2.499251e-09	-3.726892e+01	-1.548886e+02
3.000000e-07	-5.270673e-06	-2.358905e-09	-3.718520e+01	-1.549272e+02
3.100000e-07	-5.258438e-06	-2.332571e-09	-3.709889e+01	-1.549534e+02
3.200000e-07	-5.245714e-06	-2.489585e-09	-3.700912e+01	-1.549656e+02
3.300000e-07	-5.232631e-06	-2.457648e-09	-3.691682e+01	-1.549623e+02
3.400000e-07	-5.219165e-06	-2.337512e-09	-3.682181e+01	-1.549424e+02
3.500000e-07	-5.205290e-06	-2.379980e-09	-3.672392e+01	-1.549049e+02
3.600000e-07	-5.191185e-06	-2.459362e-09	-3.662441e+01	-1.548490e+02
3.700000e-07	-5.176881e-06	-2.381816e-09	-3.652349e+01	-1.547744e+02
3.800000e-07	-5.162067e-06	-2.362105e-09	-3.641898e+01	-1.546808e+02
3.900000e-07	-5.146359e-06	-2.396581e-09	-3.630816e+01	-1.545684e+02
4.000000e-07	-5.130067e-06	-2.381777e-09	-3.619321e+01	-1.544374e+02
4.100000e-07	-5.113371e-06	-2.368007e-09	-3.607542e+01	-1.542885e+02
4.200000e-07	-5.096243e-06	-2.414700e-09	-3.595458e+01	-1.541226e+02
4.300000e-07	-5.078934e-06	-2.374931e-09	-3.583246e+01	-1.539405e+02
4.400000e-07	-5.061442e-06	-2.332746e-09	-3.570906e+01	-1.537437e+02
4.500000e-07	-5.043624e-06	-2.379136e-09	-3.558335e+01	-1.535333e+02
4.600000e-07	-5.025405e-06	-2.403701e-09	-3.545481e+01	-1.533109e+02
4.700000e-07	-5.006730e-06	-2.350865e-09	-3.532305e+01	-1.530781e+02
4.800000e-07	-4.987626e-06	-2.347719e-09	-3.518828e+01	-1.528365e+02
4.900000e-07	-4.968135e-06	-2.375337e-09	-3.505076e+01	-1.525878e+02
5.000000e-07	-4.948412e-06	-2.369866e-09	-3.491161e+01	-1.523337e+02
5.100000e-07	-4.928530e-06	-2.358203e-09	-3.477135e+01	-1.520756e+02
5.200000e-07	-4.908433e-06	-2.344503e-09	-3.462956e+01	-1.518153e+02
5.300000e-07	-4.888086e-06	-2.333125e-09	-3.448601e+01	-1.515541e+02
5.400000e-07	-4.867420e-06	-2.354632e-09	-3.434021e+01	-1.512933e+02
5.500000e-07	-4.846408e-06	-2.365919e-09	-3.419196e+01	-1.510341e+02
5.600000e-07	-4.824975e-06	-2.325942e-09	-3.404075e+01	-1.507776e+02
5.700000e-07	-4.803155e-06	-2.316306e-09	-3.388681e+01	-1.505245e+02
5.800000e-07	-4.781061e-06	-2.336029e-09	-3.373093e+01	-1.502755e+02
5.900000e-07	-4.758645e-06	-2.330074e-09	-3.357279e+01	-1.500311e+02
6.000000e-07	-4.735863e-06	-2.306680e-09	-3.341206e+01	-1.497915e+02
6.100000e-07	-4.712740e-06	-2.304577e-09	-3.324892e+01	-1.495568e+02
6.200000e-07	-4.689240e-06	-2.299747e-09	-3.308313e+01	-1.493269e+02
6.300000e-07	-4.665395e-06	-2.308442e-09	-3.291490e+01	-1.491015e+02
6.400000e-07	-4.641393e-06	-2.310233e-09	-3.274556e+01	-1.488801e+02
6.500000e-07	-4.617302e-06	-2.288000e-09	-3.257559e+01	-1.486622e+02
6.600000e-07	-4.593050e-06	-2.269583e-09	-3.240450e+01	-1.484472e+02
6.700000e-07	-4.568474e-06	-2.288897e-09	-3.223111e+01	-1.482341e+02
6.800000e-07	-4.543346e-06	-2.290645e-09	-3.205383e+01	-1.480222e+02
6.900000e-07	-4.517698e-06	-2.273682e-09	-3.187288e+01	-1.478105e+02
7.000000e-07	-4.491548e-06	-2.264865e-09	-3.168839e+01	-1.475982e+02
7.100000e-07	-4.464855e-06	-2.274913e-09	-3.150007e+01	-1.473842e+02
7.200000e-07	-4.437683e-06	-2.274323e-09	-3.130836e+01	-1.471676e+02
7.300000e-07	-4.410093e-06	-2.261022e-09	-3.111371e+01	-1.469477e+02
7.400000e-07	-4.382247e-06	-2.240599e-09	-3.091725e+01	-1.467235e+02
7.500000e-07	-4.354261e-06	-2.239516e-09	-3.071981e+01	-1.464945e+02
7.600000e-07	-4.326166e-06	-2.248621e-09	-3.052160e+01	-1.462598e+02
7.700000e-07	-4.297912e-06	-2.244225e-09	-3.032226e+01	-1.460190e+02
7.800000e-07	-4.269362e-06	-2.228757e-09	-3.012084e+01	-1.457717e+02
7.900000e-07	-4.240472e-06	-2.227152e-09	-2.991702e+01	-1.455177e+02
8.000000e-07	-4.211285e-06	-2.233153e-09	-2.971110e+01	-1.452566e+02
8.100000e-07	-4.181734e-06	-2.230020e-09	-2.950261e+01	-1.449885e+02
8.200000e-07	-4.151854e-06	-2.216906e-09	-2.929181e+01	-1.447134e+02
8.300000e-07	-4.121761e-06	-2.206148e-09	-2.907950e+01	-1.444315e+02
8.400000e-07	-4.091387e-06	-2.208024e-09	-2.886521e+01	-1.441430e+02
8.500000e-07	-4.060783e-06	-2.209484e-09	-2.864929e+01	-1.438483e+02
8.600000e-07	-4.029907e-06	-2.195870e-09	-2.843146e+01	-1.435478e+02
8.700000e-07	-3.998707e-06	-2.178276e-09	-2.821134e+01	-1.432420e+02
8.800000e-07	-3.967218e-06	-2.175838e-09	-2.798918e+01	-1.429313e+02
8.900000e-07	-3.935459e-06	-2.178363e-09	-2.776512e+01	-1.426163e+02
9.000000e-07	-3.903528e-06	-2.173341e-09	-2.753984e+01	-1.422975e+02
9.100000e-07	-3.871486e-06	-2.157096e-09	-2.731378e+01	-1.419754e+02
9.200000e-07	-3.839305e-06	-2.151504e-09	-2.708674e+01	-1.416505e+02
9.300000e-07	-3.806862e-06	-2.153559e-09	-2.685785e+01	-1.413232e+02
9.400000e-07	-3.774105e-06	-2.149288e-09	-2.662674e+01	-1.409939e+02
9.500000e-07	-3.741084e-06	-2.131701e-09	-2.639378e+01	-1.406629e+02
9.600000e-07	-3.707784e-06	-2.123199e-09	-2.615884e+01	-1.403305e+02
9.700000e-07	-3.674035e-06	-2.126585e-09	-2.592074e+01	-1.399967e+02
9.800000e-07	-3.639665e-06	-2.128051e-09	-2.567826e+01	-1.396617e+02
9.900000e-07	-3.604781e-06	-2.114211e-09	-2.543215e+01	-1.393254e+02
1.000000e-06	-3.569597e-06	-2.102279e-09	-2.518392e+01	-1.389876e+02
1.010000e-06	-3.534097e-06	-2.099472e-09	-2.493346e+01	-1.386482e+02
1.020000e-06	-3.498331e-06	-2.097049e-09	-2.468113e+01	-1.383068e+02
1.030000e-06	-3.462470e-06	-2.083929e-09	-2.442812e+01	-1.379631e+02
1.040000e-06	-3.426532e-06	-2.073440e-09	-2.417457e+01	-1.376167e+02
1.050000e-06	-3.390422e-06	-2.071497e-09	-2.391982e+01	-1.372670e+02
1.060000e-06	-3.354165e-06	-2.074412e-09	-2.366402e+01	-1.369135e+02
1.070000e-06	-3.317719e-06	-2.066451e-09	-2.340689e+01	-1.365557e+02
1.080000e-06	-3.281021e-06	-2.050339e-09	-2.314798e+01	-1.361930e+02
1.090000e-06	-3.244082e-06	-2.040063e-09	-2.288737e+01	-1.358248e+02
1.100000e-06	-3.206832e-06	-2.039898e-09	-2.262457e+01	-1.354505e+02
1.110000e-06	-3.169269e-06	-2.034755e-09	-2.235955e+01	-1.350696e+02
1.120000e-06	-3.131509e-06	-2.020440e-09	-2.209315e+01	-1.346816e+02
1.130000e-06	-3.093576e-06	-2.008003e-09	-2.182554e+01	-1.342861e+02
1.140000e-06	-3.055489e-06	-2.006458e-09	-2.155682e+01	-1.338825e+02
1.150000e-06	-3.017246e-06	-2.006841e-09	-2.128702e+01	-1.334707e+02
1.160000e-06	-2.978819e-06	-1.993965e-09	-2.101591e+01	-1.330502e+02
1.170000e-06	-2.940135e-06	-1.983534e-09	-2.074299e+01	-1.326210e+02
1.180000e-06	-2.901171e-06	-1.983554e-09	-2.046810e+01	-1.321828e+02
1.190000e-06	-2.862050e-06	-1.984310e-09	-2.019210e+01	-1.317357e+02
1.200000e-06	-2.822738e-06	-1.971356e-09	-1.991474e+01	-1.312795e+02
1.210000e-06	-2.783145e-06	-1.953981e-09	-1.963541e+01	-1.308144e+02
1.220000e-06	-2.743363e-06	-1.944981e-09	-1.935474e+01	-1.303406e+02
1.230000e-06	-2.703532e-06	-1.944833e-09	-1.907373e+01	-1.298581e+02
1.240000e-06	-2.663638e-06	-1.938357e-09	-1.879227e+01	-1.293671e+02
1.250000e-06	-2.623601e-06	-1.928224e-09	-1.850980e+01	-1.288680e+02
1.260000e-06	-2.583424e-06	-1.920793e-09	-1.822635e+01	-1.283609e+02
1.270000e-06	-2.543153e-06	-1.918108e-09	-1.794224e+01	-1.278461e+02
1.280000e-06	-2.502752e-06	-1.909067e-09	-1.765720e+01	-1.273238e+02
1.290000e-06	-2.462223e-06	-1.893562e-09	-1.737126e+01	-1.267943e+02
1.300000e-06	-2.421511e-06	-1.878710e-09	-1.708404e+01	-1.262577e+02
1.310000e-06	-2.380517e-06	-1.869945e-09	-1.679482e+01	-1.257141e+02
1.320000e-06	-2.339369e-06	-1.861638e-09	-1.650452e+01	-1.251637e+02
1.330000e-06	-2.297938e-06	-1.849766e-09	-1.621222e+01	-1.246064e+02
1.340000e-06	-2.256078e-06	-1.840298e-09	-1.591689e+01	-1.240422e+02
1.350000e-06	-2.213896e-06	-1.834542e-09	-1.561929e+01	-1.234710e+02
1.360000e-06	-2.171378e-06	-1.824718e-09	-1.531932e+01	-1.228926e+02
1.370000e-06	-2.128578e-06	-1.811005e-09	-1.501736e+01	-1.223066e+02
1.380000e-06	-2.085611e-06	-1.800672e-09	-1.471423e+01	-1.217127e+02
1.390000e-06	-2.042449e-06	-1.794268e-09	-1.440971e+01	-1.211105e+02
1.400000e-06	-1.999074e-06	-1.784280e-09	-1.410370e+01	-1.204994e+02
1.410000e-06	-1.955515e-06	-1.770075e-09	-1.379639e+01	-1.198788e+02
1.420000e-06	-1.911844e-06	-1.758428e-09	-1.348828e+01	-1.192481e+02
1.430000e-06	-1.868101e-06	-1.749748e-09	-1.317967e+01	-1.186065e+02
1.440000e-06	-1.824229e-06	-1.740441e-09	-1.287014e+01	-1.179533e+02
1.450000e-06	-1.780268e-06	-1.728056e-09	-1.256000e+01	-1.172876e+02
1.460000e-06	-1.736228e-06	-1.717164e-09	-1.224929e+01	-1.166086e+02
1.470000e-06	-1.692144e-06	-1.706695e-09	-1.193827e+01	-1.159155e+02
1.480000e-06	-1.647992e-06	-1.696582e-09	-1.162677e+01	-1.152073e+02
1.490000e-06	-1.603782e-06	-1.684222e-09	-1.131487e+01	-1.144832e+02
1.500000e-06	-1.559474e-06	-1.671243e-09	-1.100227e+01	-1.137423e+02
1.510000e-06	-1.515126e-06	-1.659391e-09	-1.068939e+01	-1.129838e+02
1.520000e-06	-1.470746e-06	-1.647124e-09	-1.037628e+01	-1.122068e+02
1.530000e-06	-1.426251e-06	-1.634032e-09	-1.006236e+01	-1.114105e+02
1.540000e-06	-1.381648e-06	-1.621543e-09	-9.747686e+00	-1.105940e+02
1.550000e-06	-1.336925e-06	-1.608753e-09	-9.432162e+00	-1.097567e+02
1.560000e-06	-1.292134e-06	-1.597724e-09	-9.116155e+00	-1.088977e+02
1.570000e-06	-1.247283e-06	-1.585634e-09	-8.799724e+00	-1.080164e+02
1.580000e-06	-1.202376e-06	-1.572439e-09	-8.482898e+00	-1.071121e+02
1.590000e-06	-1.157373e-06	-1.558934e-09	-8.165400e+00	-1.061842e+02
1.600000e-06	-1.112264e-06	-1.544937e-09	-7.847151e+00	-1.052320e+02
1.610000e-06	-1.066997e-06	-1.526117e-09	-7.527784e+00	-1.042548e+02
1.620000e-06	-1.021658e-06	-1.506575e-09	-7.207914e+00	-1.032521e+02
1.630000e-06	-9.762526e-07	-1.487896e-09	-6.887574e+00	-1.022233e+02
1.640000e-06	-9.306961e-07	-1.469913e-09	-6.566168e+00	-1.011677e+02
1.650000e-06	-8.850412e-07	-1.453847e-09	-6.244068e+00	-1.000847e+02
1.660000e-06	-8.393359e-07	-1.439406e-09	-5.921612e+00	-9.897368e+01
1.670000e-06	-7.936637e-07	-1.428669e-09	-5.599389e+00	-9.783386e+01
1.680000e-06	-7.479190e-07	-1.414841e-09	-5.276654e+00	-9.666457e+01
1.690000e-06	-7.020353e-07	-1.392001e-09	-4.952940e+00	-9.546503e+01
1.700000e-06	-6.560991e-07	-1.362155e-09	-4.628855e+00	-9.423443e+01
1.710000e-06	-6.101908e-07	-1.335269e-09	-4.304967e+00	-9.297193e+01
1.720000e-06	-5.642955e-07	-1.315347e-09	-3.981170e+00	-9.167661e+01
1.730000e-06	-5.183465e-07	-1.297171e-09	-3.656994e+00	-9.034752e+01
1.740000e-06	-4.723678e-07	-1.277595e-09	-3.332609e+00	-8.898366e+01
1.750000e-06	-4.263634e-07	-1.262633e-09	-3.008043e+00	-8.758398e+01
1.760000e-06	-3.803217e-07	-1.251429e-09	-2.683213e+00	-8.614739e+01
1.770000e-06	-3.343121e-07	-1.233568e-09	-2.358610e+00	-8.467279e+01
1.780000e-06	-2.882793e-07	-1.201751e-09	-2.033844e+00	-8.315903e+01
1.790000e-06	-2.421189e-07	-1.166702e-09	-1.708177e+00	-8.160496e+01
1.800000e-06	-1.959559e-07	-1.140260e-09	-1.382491e+00	-8.000942e+01
1.810000e-06	-1.498377e-07	-1.120180e-09	-1.057122e+00	-7.837128e+01
1.820000e-06	-1.037207e-07	-1.096820e-09	-7.317613e-01	-7.668939e+01
1.830000e-06	-5.760278e-08	-1.072601e-09	-4.063943e-01	-7.496269e+01
1.840000e-06	-1.150968e-08	-1.053411e-09	-8.120212e-02	-7.319012e+01
1.850000e-06	3.457922e-08	-1.033103e-09	2.439604e-01	-7.137070e+01
1.860000e-06	8.072641e-08	-1.001186e-09	5.695341e-01	-6.950355e+01
1.870000e-06	1.268860e-07	-9.606846e-10	8.951957e-01	-6.758785e+01
1.880000e-06	1.730471e-07	-9.259082e-10	1.220868e+00	-6.562289e+01
1.890000e-06	2.192329e-07	-9.016069e-10	1.546713e+00	-6.360809e+01
1.900000e-06	2.653801e-07	-8.758949e-10	1.872287e+00	-6.154298e+01
1.910000e-06	3.114289e-07	-8.464595e-10	2.197166e+00	-5.942722e+01
1.920000e-06	3.573868e-07	-8.182617e-10	2.521405e+00	-5.726063e+01
1.930000e-06	4.034108e-07	-7.947982e-10	2.846110e+00	-5.504318e+01
1.940000e-06	4.495415e-07	-7.650486e-10	3.171567e+00	-5.277498e+01
1.950000e-06	4.956533e-07	-7.211455e-10	3.496891e+00	-5.045631e+01
1.960000e-06	5.417283e-07	-6.744619e-10	3.821955e+00	-4.808761e+01
1.970000e-06	5.877225e-07	-6.365329e-10	4.146450e+00	-4.566949e+01
1.980000e-06	6.335994e-07	-6.052351e-10	4.470117e+00	-4.320272e+01
1.990000e-06	6.794682e-07	-5.694600e-10	4.793727e+00	-4.068821e+01
2.000000e-06	7.252399e-07	-5.311264e-10	5.116651e+00	-3.812704e+01
2.010000e-06	7.708045e-07	-4.969648e-10	5.438114e+00	-3.552046e+01
2.020000e-06	8.163125e-07	-4.644930e-10	5.759179e+00	-3.286984e+01
2.030000e-06	8.618266e-07	-4.259472e-10	6.080286e+00	-3.017670e+01
2.040000e-06	9.073377e-07	-3.804607e-10	6.401372e+00	-2.744269e+01
2.050000e-06	9.528442e-07	-3.351627e-10	6.722426e+00	-2.466961e+01
2.060000e-06	9.982795e-07	-2.958738e-10	7.042977e+00	-2.185934e+01
2.070000e-06	1.043605e-06	-2.567761e-10	7.362750e+00	-1.901390e+01
2.080000e-06	1.088865e-06	-2.131316e-10	7.682065e+00	-1.613540e+01
2.090000e-06	1.134041e-06	-1.676367e-10	8.000793e+00	-1.322606e+01
2.100000e-06	1.179122e-06	-1.267991e-10	8.318845e+00	-1.028818e+01
2.110000e-06	1.224131e-06	-8.923581e-11	8.636384e+00	-7.324144e+00
2.120000e-06	1.269057e-06	-4.855471e-11	8.953345e+00	-4.336409e+00
2.130000e-06	1.313817e-06	-2.854296e-12	9.269130e+00	-1.327506e+00
2.140000e-06	1.358431e-06	4.299511e-11	9.583884e+00	1.699973e+00
2.150000e-06	1.402904e-06	8.981881e-11	9.897646e+00	4.743379e+00
2.160000e-06	1.447329e-06	1.386149e-10	1.021107e+01	7.800010e+00
2.170000e-06	1.491754e-06	1.883241e-10	1.052449e+01	1.086712e+01
2.180000e-06	1.536064e-06	2.331830e-10	1.083711e+01	1.394191e+01
2.190000e-06	1.580300e-06	2.716736e-10	1.114920e+01	1.702156e+01
2.200000e-06	1.624446e-06	3.101081e-10	1.146066e+01	2.010321e+01
2.210000e-06	1.668558e-06	3.531322e-10	1.177187e+01	2.318397e+01
2.220000e-06	1.712657e-06	3.998628e-10	1.208299e+01	2.626095e+01
2.230000e-06	1.756692e-06	4.476587e-10	1.239366e+01	2.933123e+01
2.240000e-06	1.800652e-06	4.954363e-10	1.270381e+01	3.239188e+01
2.250000e-06	1.844531e-06	5.422453e-10	1.301338e+01	3.543999e+01
2.260000e-06	1.888382e-06	5.868780e-10	1.332275e+01	3.847264e+01
2.270000e-06	1.932160e-06	6.284852e-10	1.363161e+01	4.148695e+01
2.280000e-06	1.975765e-06	6.679435e-10	1.393925e+01	4.448005e+01
2.290000e-06	2.019210e-06	7.086486e-10	1.424576e+01	4.744912e+01
2.300000e-06	2.062470e-06	7.524258e-10	1.455096e+01	5.039139e+01
2.310000e-06	2.105510e-06	7.952678e-10	1.485462e+01	5.330414e+01
2.320000e-06	2.148262e-06	8.375140e-10	1.515624e+01	5.618475e+01
2.330000e-06	2.190818e-06	8.800961e-10	1.545648e+01	5.903066e+01
2.340000e-06	2.233134e-06	9.218501e-10	1.575502e+01	6.183943e+01
2.350000e-06	2.274992e-06	9.614788e-10	1.605033e+01	6.460871e+01
2.360000e-06	2.316566e-06	9.992482e-10	1.634364e+01	6.733630e+01
2.370000e-06	2.357927e-06	1.036166e-09	1.663545e+01	7.002011e+01
2.380000e-06	2.398987e-06	1.073744e-09	1.692513e+01	7.265823e+01
2.390000e-06	2.439795e-06	1.111767e-09	1.721304e+01	7.524886e+01
2.400000e-06	2.480412e-06	1.149586e-09	1.749959e+01	7.779040e+01
2.410000e-06	2.520834e-06	1.188304e-09	1.778478e+01	8.028143e+01
2.420000e-06	2.561079e-06	1.224380e-09	1.806871e+01	8.272068e+01
2.430000e-06	2.601241e-06	1.255232e-09	1.835205e+01	8.510707e+01
2.440000e-06	2.641373e-06	1.283388e-09	1.863519e+01	8.743974e+01
2.450000e-06	2.681424e-06	1.311051e-09	1.891775e+01	8.971797e+01
2.460000e-06	2.721359e-06	1.341637e-09	1.919950e+01	9.194125e+01
2.470000e-06	2.761193e-06	1.373138e-09	1.948053e+01	9.410926e+01
2.480000e-06	2.800861e-06	1.405833e-09	1.976040e+01	9.622183e+01
2.490000e-06	2.840372e-06	1.440889e-09	2.003915e+01	9.827899e+01
2.500000e-06	2.879606e-06	1.475079e-09	2.031595e+01	1.002809e+02
2.510000e-06	2.918460e-06	1.502828e-09	2.059007e+01	1.022279e+02
2.520000e-06	2.957133e-06	1.524757e-09	2.086292e+01	1.041204e+02
2.530000e-06	2.995673e-06	1.545622e-09	2.113482e+01	1.059591e+02
2.540000e-06	3.033967e-06	1.568793e-09	2.140499e+01	1.077446e+02
2.550000e-06	3.072071e-06	1.595414e-09	2.167381e+01	1.094777e+02
2.560000e-06	3.110034e-06	1.625255e-09	2.194165e+01	1.111593e+02
2.570000e-06	3.147869e-06	1.653780e-09	2.220858e+01	1.127903e+02
2.580000e-06	3.185517e-06	1.679457e-09	2.247419e+01	1.143717e+02
2.590000e-06	3.222890e-06	1.701136e-09	2.273786e+01	1.159045e+02
2.600000e-06	3.259972e-06	1.719303e-09	2.299948e+01	1.173898e+02
2.610000e-06	3.296728e-06	1.737638e-09	2.325880e+01	1.188286e+02
2.620000e-06	3.333227e-06	1.755503e-09	2.351630e+01	1.202219e+02
2.630000e-06	3.369521e-06	1.773897e-09	2.377236e+01	1.215707e+02
2.640000e-06	3.405674e-06	1.790741e-09	2.402742e+01	1.228761e+02
2.650000e-06	3.441756e-06	1.806137e-09	2.428198e+01	1.241390e+02
2.660000e-06	3.477730e-06	1.820332e-09	2.453578e+01	1.253603e+02
2.670000e-06	3.513570e-06	1.837898e-09	2.478864e+01	1.265410e+02
2.680000e-06	3.549183e-06	1.857652e-09	2.503989e+01	1.276819e+02
2.690000e-06	3.584500e-06	1.877111e-09	2.528906e+01	1.287838e+02
2.700000e-06	3.619474e-06	1.897862e-09	2.553580e+01	1.298475e+02
2.710000e-06	3.654004e-06	1.918072e-09	2.577942e+01	1.308737e+02
2.720000e-06	3.688075e-06	1.934152e-09	2.601979e+01	1.318633e+02
2.730000e-06	3.721684e-06	1.942369e-09	2.625691e+01	1.328169e+02
2.740000e-06	3.754944e-06	1.946092e-09	2.649156e+01	1.337352e+02
2.750000e-06	3.787824e-06	1.952359e-09	2.672353e+01	1.346190e+02
2.760000e-06	3.820331e-06	1.960594e-09	2.695287e+01	1.354690e+02
2.770000e-06	3.852651e-06	1.972595e-09	2.718089e+01	1.362859e+02
2.780000e-06	3.884802e-06	1.989561e-09	2.740773e+01	1.370705e+02
2.790000e-06	3.916811e-06	2.011295e-09	2.763356e+01	1.378237e+02
2.800000e-06	3.948680e-06	2.030965e-09	2.785839e+01	1.385462e+02
2.810000e-06	3.980377e-06	2.043047e-09	2.808202e+01	1.392391e+02
2.820000e-06	4.011688e-06	2.045956e-09	2.830292e+01	1.399031e+02
2.830000e-06	4.042606e-06	2.044478e-09	2.852105e+01	1.405394e+02
2.840000e-06	4.073398e-06	2.046654e-09	2.873829e+01	1.411491e+02
2.850000e-06	4.103921e-06	2.054624e-09	2.895363e+01	1.417331e+02
2.860000e-06	4.134065e-06	2.069575e-09	2.916631e+01	1.422928e+02
2.870000e-06	4.163996e-06	2.087507e-09	2.937747e+01	1.428292e+02
2.880000e-06	4.193691e-06	2.104833e-09	2.958697e+01	1.433437e+02
2.890000e-06	4.223046e-06	2.118374e-09	2.979407e+01	1.438375e+02
2.900000e-06	4.252111e-06	2.123150e-09	2.999913e+01	1.443119e+02
