# Temperatura_=_19.14
# Concentracion g/m^3_=_4090.0
# C_Vs_to_Am_M_A/Vsm_=_65563218390.804596
# pendiente_HvsI_1/m_=_3716.3
# ordenada_HvsI_A/m_=_1297.0
# frecuencia_Hz_=_135079.58865606235

Tiempo_(s)	Campo_(V.s)	Magnetizacion_(V.s)	Campo_(kA/m)	Magnetizacion_(A/m)
0.000000e+00	-5.388886e-06	-2.331020e-09	-3.839197e+01	-1.514829e+02
1.000000e-08	-5.388976e-06	-2.329427e-09	-3.839261e+01	-1.513671e+02
2.000000e-08	-5.388868e-06	-2.327833e-09	-3.839184e+01	-1.512500e+02
3.000000e-08	-5.388456e-06	-2.325069e-09	-3.838890e+01	-1.511331e+02
4.000000e-08	-5.387647e-06	-2.320879e-09	-3.838314e+01	-1.510177e+02
5.000000e-08	-5.386311e-06	-2.320183e-09	-3.837362e+01	-1.509051e+02
6.000000e-08	-5.384384e-06	-2.328510e-09	-3.835989e+01	-1.507965e+02
7.000000e-08	-5.381833e-06	-2.310530e-09	-3.834172e+01	-1.506933e+02
8.000000e-08	-5.378635e-06	-2.263111e-09	-3.831894e+01	-1.505965e+02
9.000000e-08	-5.374881e-06	-2.312376e-09	-3.829219e+01	-1.505070e+02
1.000000e-07	-5.370708e-06	-2.443346e-09	-3.826246e+01	-1.504257e+02
1.100000e-07	-5.366362e-06	-2.386297e-09	-3.823150e+01	-1.503532e+02
1.200000e-07	-5.361927e-06	-2.249417e-09	-3.819990e+01	-1.502900e+02
1.300000e-07	-5.357221e-06	-2.253059e-09	-3.816638e+01	-1.502365e+02
1.400000e-07	-5.352010e-06	-2.427099e-09	-3.812925e+01	-1.501926e+02
1.500000e-07	-5.346289e-06	-2.360834e-09	-3.808849e+01	-1.501584e+02
1.600000e-07	-5.340357e-06	-2.133713e-09	-3.804623e+01	-1.501334e+02
1.700000e-07	-5.334207e-06	-2.206093e-09	-3.800242e+01	-1.501171e+02
1.800000e-07	-5.327466e-06	-2.407117e-09	-3.795440e+01	-1.501089e+02
1.900000e-07	-5.320268e-06	-2.402260e-09	-3.790311e+01	-1.501078e+02
2.000000e-07	-5.312850e-06	-2.217995e-09	-3.785026e+01	-1.501129e+02
2.100000e-07	-5.305172e-06	-2.303185e-09	-3.779556e+01	-1.501229e+02
2.200000e-07	-5.297255e-06	-2.396072e-09	-3.773916e+01	-1.501367e+02
2.300000e-07	-5.289072e-06	-2.317402e-09	-3.768086e+01	-1.501526e+02
2.400000e-07	-5.280499e-06	-2.239188e-09	-3.761979e+01	-1.501694e+02
2.500000e-07	-5.271327e-06	-2.369682e-09	-3.755444e+01	-1.501855e+02
2.600000e-07	-5.261307e-06	-2.396485e-09	-3.748306e+01	-1.501994e+02
2.700000e-07	-5.250826e-06	-2.300876e-09	-3.740839e+01	-1.502095e+02
2.800000e-07	-5.239987e-06	-2.334452e-09	-3.733117e+01	-1.502145e+02
2.900000e-07	-5.228568e-06	-2.440947e-09	-3.724982e+01	-1.502128e+02
3.000000e-07	-5.216768e-06	-2.342074e-09	-3.716575e+01	-1.502032e+02
3.100000e-07	-5.204680e-06	-2.246728e-09	-3.707963e+01	-1.501845e+02
3.200000e-07	-5.192177e-06	-2.374145e-09	-3.699055e+01	-1.501555e+02
3.300000e-07	-5.179206e-06	-2.424023e-09	-3.689815e+01	-1.501155e+02
3.400000e-07	-5.165905e-06	-2.308537e-09	-3.680339e+01	-1.500634e+02
3.500000e-07	-5.152242e-06	-2.302347e-09	-3.670605e+01	-1.499989e+02
3.600000e-07	-5.138144e-06	-2.400560e-09	-3.660561e+01	-1.499214e+02
3.700000e-07	-5.123639e-06	-2.349924e-09	-3.650227e+01	-1.498307e+02
3.800000e-07	-5.108633e-06	-2.297701e-09	-3.639537e+01	-1.497267e+02
3.900000e-07	-5.092986e-06	-2.332766e-09	-3.628389e+01	-1.496096e+02
4.000000e-07	-5.076850e-06	-2.326487e-09	-3.616893e+01	-1.494795e+02
4.100000e-07	-5.060350e-06	-2.281307e-09	-3.605139e+01	-1.493370e+02
4.200000e-07	-5.043457e-06	-2.341787e-09	-3.593103e+01	-1.491826e+02
4.300000e-07	-5.026299e-06	-2.343533e-09	-3.580879e+01	-1.490169e+02
4.400000e-07	-5.008871e-06	-2.283760e-09	-3.568463e+01	-1.488408e+02
4.500000e-07	-4.991127e-06	-2.286765e-09	-3.555822e+01	-1.486552e+02
4.600000e-07	-4.973108e-06	-2.347604e-09	-3.542984e+01	-1.484609e+02
4.700000e-07	-4.954687e-06	-2.303807e-09	-3.529861e+01	-1.482590e+02
4.800000e-07	-4.935791e-06	-2.272271e-09	-3.516399e+01	-1.480506e+02
4.900000e-07	-4.916506e-06	-2.283748e-09	-3.502660e+01	-1.478365e+02
5.000000e-07	-4.896958e-06	-2.299816e-09	-3.488733e+01	-1.476178e+02
5.100000e-07	-4.877168e-06	-2.281558e-09	-3.474634e+01	-1.473955e+02
5.200000e-07	-4.857197e-06	-2.277499e-09	-3.460406e+01	-1.471704e+02
5.300000e-07	-4.837042e-06	-2.258442e-09	-3.446048e+01	-1.469433e+02
5.400000e-07	-4.816554e-06	-2.272719e-09	-3.431451e+01	-1.467149e+02
5.500000e-07	-4.795599e-06	-2.289813e-09	-3.416522e+01	-1.464859e+02
5.600000e-07	-4.774235e-06	-2.275841e-09	-3.401302e+01	-1.462567e+02
5.700000e-07	-4.752596e-06	-2.250434e-09	-3.385885e+01	-1.460277e+02
5.800000e-07	-4.730741e-06	-2.258527e-09	-3.370315e+01	-1.457993e+02
5.900000e-07	-4.708625e-06	-2.257643e-09	-3.354559e+01	-1.455714e+02
6.000000e-07	-4.686154e-06	-2.242775e-09	-3.338550e+01	-1.453442e+02
6.100000e-07	-4.663404e-06	-2.227148e-09	-3.322343e+01	-1.451174e+02
6.200000e-07	-4.640310e-06	-2.216544e-09	-3.305890e+01	-1.448910e+02
6.300000e-07	-4.616782e-06	-2.230751e-09	-3.289128e+01	-1.446646e+02
6.400000e-07	-4.593060e-06	-2.246364e-09	-3.272227e+01	-1.444378e+02
6.500000e-07	-4.569172e-06	-2.230946e-09	-3.255209e+01	-1.442102e+02
6.600000e-07	-4.545031e-06	-2.207227e-09	-3.238010e+01	-1.439811e+02
6.700000e-07	-4.520543e-06	-2.218630e-09	-3.220564e+01	-1.437500e+02
6.800000e-07	-4.495678e-06	-2.219345e-09	-3.202850e+01	-1.435164e+02
6.900000e-07	-4.470303e-06	-2.203911e-09	-3.184772e+01	-1.432795e+02
7.000000e-07	-4.444312e-06	-2.186985e-09	-3.166255e+01	-1.430388e+02
7.100000e-07	-4.417869e-06	-2.191670e-09	-3.147417e+01	-1.427937e+02
7.200000e-07	-4.390936e-06	-2.193566e-09	-3.128229e+01	-1.425436e+02
7.300000e-07	-4.363592e-06	-2.195212e-09	-3.108748e+01	-1.422879e+02
7.400000e-07	-4.336076e-06	-2.178508e-09	-3.089145e+01	-1.420262e+02
7.500000e-07	-4.308357e-06	-2.177440e-09	-3.069397e+01	-1.417581e+02
7.600000e-07	-4.280403e-06	-2.181540e-09	-3.049481e+01	-1.414832e+02
7.700000e-07	-4.252224e-06	-2.180317e-09	-3.029406e+01	-1.412013e+02
7.800000e-07	-4.223763e-06	-2.157425e-09	-3.009130e+01	-1.409122e+02
7.900000e-07	-4.195016e-06	-2.147067e-09	-2.988649e+01	-1.406158e+02
8.000000e-07	-4.166009e-06	-2.143316e-09	-2.967984e+01	-1.403121e+02
8.100000e-07	-4.136691e-06	-2.146081e-09	-2.947097e+01	-1.400013e+02
8.200000e-07	-4.107033e-06	-2.139602e-09	-2.925968e+01	-1.396834e+02
8.300000e-07	-4.077120e-06	-2.133914e-09	-2.904657e+01	-1.393587e+02
8.400000e-07	-4.046964e-06	-2.130282e-09	-2.883173e+01	-1.390275e+02
8.500000e-07	-4.016574e-06	-2.133028e-09	-2.861522e+01	-1.386902e+02
8.600000e-07	-3.985941e-06	-2.121172e-09	-2.839699e+01	-1.383472e+02
8.700000e-07	-3.955087e-06	-2.104827e-09	-2.817717e+01	-1.379989e+02
8.800000e-07	-3.924000e-06	-2.093628e-09	-2.795570e+01	-1.376459e+02
8.900000e-07	-3.892645e-06	-2.095263e-09	-2.773232e+01	-1.372886e+02
9.000000e-07	-3.861081e-06	-2.096952e-09	-2.750744e+01	-1.369276e+02
9.100000e-07	-3.829364e-06	-2.087650e-09	-2.728149e+01	-1.365634e+02
9.200000e-07	-3.797478e-06	-2.079410e-09	-2.705432e+01	-1.361965e+02
9.300000e-07	-3.765390e-06	-2.076764e-09	-2.682571e+01	-1.358273e+02
9.400000e-07	-3.732981e-06	-2.072902e-09	-2.659483e+01	-1.354564e+02
9.500000e-07	-3.700209e-06	-2.061016e-09	-2.636135e+01	-1.350841e+02
9.600000e-07	-3.667186e-06	-2.053373e-09	-2.612609e+01	-1.347108e+02
9.700000e-07	-3.633758e-06	-2.050141e-09	-2.588793e+01	-1.343368e+02
9.800000e-07	-3.599907e-06	-2.047550e-09	-2.564677e+01	-1.339624e+02
9.900000e-07	-3.565622e-06	-2.033377e-09	-2.540251e+01	-1.335877e+02
1.000000e-06	-3.530875e-06	-2.020677e-09	-2.515496e+01	-1.332130e+02
1.010000e-06	-3.495784e-06	-2.012258e-09	-2.490496e+01	-1.328382e+02
1.020000e-06	-3.460396e-06	-2.007760e-09	-2.465286e+01	-1.324634e+02
1.030000e-06	-3.424854e-06	-1.995620e-09	-2.439964e+01	-1.320886e+02
1.040000e-06	-3.389184e-06	-1.990452e-09	-2.414552e+01	-1.317135e+02
1.050000e-06	-3.353332e-06	-1.986853e-09	-2.389010e+01	-1.313381e+02
1.060000e-06	-3.317302e-06	-1.985023e-09	-2.363341e+01	-1.309621e+02
1.070000e-06	-3.281073e-06	-1.974594e-09	-2.337531e+01	-1.305852e+02
1.080000e-06	-3.244632e-06	-1.963281e-09	-2.311569e+01	-1.302070e+02
1.090000e-06	-3.208023e-06	-1.951586e-09	-2.285488e+01	-1.298273e+02
1.100000e-06	-3.171209e-06	-1.947457e-09	-2.259260e+01	-1.294457e+02
1.110000e-06	-3.134166e-06	-1.942501e-09	-2.232869e+01	-1.290615e+02
1.120000e-06	-3.096825e-06	-1.937439e-09	-2.206267e+01	-1.286745e+02
1.130000e-06	-3.059195e-06	-1.930572e-09	-2.179458e+01	-1.282841e+02
1.140000e-06	-3.021387e-06	-1.928331e-09	-2.152522e+01	-1.278898e+02
1.150000e-06	-2.983389e-06	-1.923175e-09	-2.125452e+01	-1.274911e+02
1.160000e-06	-2.945202e-06	-1.911884e-09	-2.098247e+01	-1.270874e+02
1.170000e-06	-2.906865e-06	-1.897427e-09	-2.070934e+01	-1.266782e+02
1.180000e-06	-2.868311e-06	-1.888068e-09	-2.043467e+01	-1.262630e+02
1.190000e-06	-2.829439e-06	-1.882267e-09	-2.015773e+01	-1.258413e+02
1.200000e-06	-2.790367e-06	-1.874296e-09	-1.987937e+01	-1.254124e+02
1.210000e-06	-2.751172e-06	-1.866270e-09	-1.960014e+01	-1.249759e+02
1.220000e-06	-2.711732e-06	-1.862689e-09	-1.931915e+01	-1.245313e+02
1.230000e-06	-2.672142e-06	-1.859708e-09	-1.903711e+01	-1.240780e+02
1.240000e-06	-2.632513e-06	-1.848668e-09	-1.875478e+01	-1.236156e+02
1.250000e-06	-2.592774e-06	-1.836862e-09	-1.847167e+01	-1.231436e+02
1.260000e-06	-2.552913e-06	-1.824903e-09	-1.818768e+01	-1.226616e+02
1.270000e-06	-2.512950e-06	-1.816266e-09	-1.790297e+01	-1.221691e+02
1.280000e-06	-2.472875e-06	-1.807077e-09	-1.761747e+01	-1.216657e+02
1.290000e-06	-2.432658e-06	-1.800191e-09	-1.733095e+01	-1.211510e+02
1.300000e-06	-2.392316e-06	-1.791024e-09	-1.704355e+01	-1.206246e+02
1.310000e-06	-2.351778e-06	-1.782625e-09	-1.675474e+01	-1.200863e+02
1.320000e-06	-2.311072e-06	-1.771676e-09	-1.646474e+01	-1.195357e+02
1.330000e-06	-2.270249e-06	-1.761202e-09	-1.617391e+01	-1.189726e+02
1.340000e-06	-2.229126e-06	-1.751440e-09	-1.588093e+01	-1.183967e+02
1.350000e-06	-2.187601e-06	-1.742633e-09	-1.558509e+01	-1.178078e+02
1.360000e-06	-2.145665e-06	-1.732673e-09	-1.528633e+01	-1.172058e+02
1.370000e-06	-2.103501e-06	-1.723325e-09	-1.498594e+01	-1.165904e+02
1.380000e-06	-2.061221e-06	-1.712180e-09	-1.468473e+01	-1.159616e+02
1.390000e-06	-2.018722e-06	-1.701487e-09	-1.438195e+01	-1.153192e+02
1.400000e-06	-1.975949e-06	-1.691372e-09	-1.407723e+01	-1.146633e+02
1.410000e-06	-1.932909e-06	-1.683098e-09	-1.377059e+01	-1.139938e+02
1.420000e-06	-1.889698e-06	-1.674423e-09	-1.346275e+01	-1.133106e+02
1.430000e-06	-1.846319e-06	-1.664460e-09	-1.315370e+01	-1.126138e+02
1.440000e-06	-1.802883e-06	-1.651008e-09	-1.284425e+01	-1.119034e+02
1.450000e-06	-1.759424e-06	-1.639067e-09	-1.253464e+01	-1.111794e+02
1.460000e-06	-1.715787e-06	-1.629421e-09	-1.222375e+01	-1.104418e+02
1.470000e-06	-1.672009e-06	-1.617505e-09	-1.191187e+01	-1.096906e+02
1.480000e-06	-1.628189e-06	-1.602186e-09	-1.159968e+01	-1.089258e+02
1.490000e-06	-1.584322e-06	-1.588978e-09	-1.128716e+01	-1.081474e+02
1.500000e-06	-1.540382e-06	-1.577986e-09	-1.097412e+01	-1.073552e+02
1.510000e-06	-1.496358e-06	-1.565256e-09	-1.066048e+01	-1.065492e+02
1.520000e-06	-1.452261e-06	-1.551205e-09	-1.034632e+01	-1.057290e+02
1.530000e-06	-1.408107e-06	-1.537045e-09	-1.003176e+01	-1.048946e+02
1.540000e-06	-1.363900e-06	-1.526095e-09	-9.716813e+00	-1.040455e+02
1.550000e-06	-1.319586e-06	-1.515260e-09	-9.401111e+00	-1.031814e+02
1.560000e-06	-1.275180e-06	-1.503466e-09	-9.084747e+00	-1.023016e+02
1.570000e-06	-1.230713e-06	-1.490910e-09	-8.767955e+00	-1.014057e+02
1.580000e-06	-1.186212e-06	-1.479532e-09	-8.450912e+00	-1.004929e+02
1.590000e-06	-1.141699e-06	-1.465052e-09	-8.133793e+00	-9.956230e+01
1.600000e-06	-1.097037e-06	-1.447035e-09	-7.815603e+00	-9.861303e+01
1.610000e-06	-1.052198e-06	-1.426233e-09	-7.496163e+00	-9.764402e+01
1.620000e-06	-1.007272e-06	-1.409904e-09	-7.176097e+00	-9.665408e+01
1.630000e-06	-9.623079e-07	-1.396155e-09	-6.855757e+00	-9.564192e+01
1.640000e-06	-9.172350e-07	-1.381313e-09	-6.534645e+00	-9.460617e+01
1.650000e-06	-8.719927e-07	-1.365863e-09	-6.212326e+00	-9.354531e+01
1.660000e-06	-8.266568e-07	-1.353393e-09	-5.889340e+00	-9.245776e+01
1.670000e-06	-7.813758e-07	-1.340959e-09	-5.566745e+00	-9.134185e+01
1.680000e-06	-7.360074e-07	-1.323186e-09	-5.243527e+00	-9.019583e+01
1.690000e-06	-6.905592e-07	-1.298691e-09	-4.919742e+00	-8.901791e+01
1.700000e-06	-6.450988e-07	-1.273462e-09	-4.595869e+00	-8.780626e+01
1.710000e-06	-5.996188e-07	-1.253262e-09	-4.271856e+00	-8.655901e+01
1.720000e-06	-5.541463e-07	-1.235814e-09	-3.947897e+00	-8.527430e+01
1.730000e-06	-5.085632e-07	-1.216451e-09	-3.623150e+00	-8.395029e+01
1.740000e-06	-4.629736e-07	-1.197174e-09	-3.298357e+00	-8.258514e+01
1.750000e-06	-4.173246e-07	-1.180028e-09	-2.973140e+00	-8.117711e+01
1.760000e-06	-3.715321e-07	-1.162360e-09	-2.646901e+00	-7.972450e+01
1.770000e-06	-3.257740e-07	-1.138759e-09	-2.320908e+00	-7.822571e+01
1.780000e-06	-2.800430e-07	-1.109334e-09	-1.995107e+00	-7.667926e+01
1.790000e-06	-2.342922e-07	-1.081652e-09	-1.669165e+00	-7.508379e+01
1.800000e-06	-1.886323e-07	-1.056301e-09	-1.343871e+00	-7.343807e+01
1.810000e-06	-1.429951e-07	-1.031661e-09	-1.018738e+00	-7.174106e+01
1.820000e-06	-9.727828e-08	-1.006257e-09	-6.930383e-01	-6.999185e+01
1.830000e-06	-5.153706e-08	-9.825048e-10	-3.671648e-01	-6.818975e+01
1.840000e-06	-5.788810e-09	-9.590645e-10	-4.124114e-02	-6.633424e+01
1.850000e-06	3.998431e-08	-9.325517e-10	2.848596e-01	-6.442499e+01
1.860000e-06	8.572451e-08	-8.994042e-10	6.107259e-01	-6.246186e+01
1.870000e-06	1.314357e-07	-8.628858e-10	9.363852e-01	-6.044495e+01
1.880000e-06	1.771930e-07	-8.300921e-10	1.262373e+00	-5.837451e+01
1.890000e-06	2.229804e-07	-8.000093e-10	1.588576e+00	-5.625101e+01
1.900000e-06	2.687392e-07	-7.661407e-10	1.914575e+00	-5.407510e+01
1.910000e-06	3.144969e-07	-7.299530e-10	2.240566e+00	-5.184761e+01
1.920000e-06	3.602216e-07	-6.956387e-10	2.566322e+00	-4.956955e+01
1.930000e-06	4.058511e-07	-6.634347e-10	2.891400e+00	-4.724207e+01
1.940000e-06	4.514342e-07	-6.296460e-10	3.216147e+00	-4.486650e+01
1.950000e-06	4.970186e-07	-5.923489e-10	3.540903e+00	-4.244428e+01
1.960000e-06	5.425288e-07	-5.535829e-10	3.865131e+00	-3.997696e+01
1.970000e-06	5.879781e-07	-5.159923e-10	4.188925e+00	-3.746623e+01
1.980000e-06	6.334113e-07	-4.783027e-10	4.512603e+00	-3.491385e+01
1.990000e-06	6.787363e-07	-4.375881e-10	4.835512e+00	-3.232167e+01
2.000000e-06	7.240152e-07	-3.959492e-10	5.158092e+00	-2.969158e+01
2.010000e-06	7.692847e-07	-3.570283e-10	5.480605e+00	-2.702556e+01
2.020000e-06	8.144548e-07	-3.193950e-10	5.802409e+00	-2.432561e+01
2.030000e-06	8.595563e-07	-2.811116e-10	6.123725e+00	-2.159376e+01
2.040000e-06	9.046278e-07	-2.414184e-10	6.444828e+00	-1.883207e+01
2.050000e-06	9.496937e-07	-2.001127e-10	6.765890e+00	-1.604262e+01
2.060000e-06	9.947494e-07	-1.589318e-10	7.086880e+00	-1.322750e+01
2.070000e-06	1.039709e-06	-1.190051e-10	7.407182e+00	-1.038880e+01
2.080000e-06	1.084516e-06	-8.012545e-11	7.726405e+00	-7.528617e+00
2.090000e-06	1.129180e-06	-3.828624e-11	8.044599e+00	-4.649063e+00
2.100000e-06	1.173689e-06	6.318922e-12	8.361695e+00	-1.752246e+00
2.110000e-06	1.218118e-06	4.987736e-11	8.678220e+00	1.159713e+00
2.120000e-06	1.262459e-06	8.987078e-11	8.994121e+00	4.084683e+00
2.130000e-06	1.306630e-06	1.304723e-10	9.308809e+00	7.020519e+00
2.140000e-06	1.350704e-06	1.744511e-10	9.622805e+00	9.965055e+00
2.150000e-06	1.394787e-06	2.194864e-10	9.936861e+00	1.291610e+01
2.160000e-06	1.438874e-06	2.624191e-10	1.025095e+01	1.587144e+01
2.170000e-06	1.482927e-06	3.054374e-10	1.056480e+01	1.882882e+01
2.180000e-06	1.526962e-06	3.498654e-10	1.087852e+01	2.178596e+01
2.190000e-06	1.570952e-06	3.933079e-10	1.119191e+01	2.474053e+01
2.200000e-06	1.614907e-06	4.347164e-10	1.150506e+01	2.769016e+01
2.210000e-06	1.658813e-06	4.765705e-10	1.181786e+01	3.063246e+01
2.220000e-06	1.702612e-06	5.203149e-10	1.212989e+01	3.356497e+01
2.230000e-06	1.746384e-06	5.633548e-10	1.244174e+01	3.648522e+01
2.240000e-06	1.790083e-06	6.040069e-10	1.275306e+01	3.939070e+01
2.250000e-06	1.833591e-06	6.430959e-10	1.306303e+01	4.227888e+01
2.260000e-06	1.876978e-06	6.829499e-10	1.337213e+01	4.514722e+01
2.270000e-06	1.920193e-06	7.237627e-10	1.368000e+01	4.799316e+01
2.280000e-06	1.963259e-06	7.631968e-10	1.398682e+01	5.081416e+01
2.290000e-06	2.006278e-06	8.030557e-10	1.429330e+01	5.360771e+01
2.300000e-06	2.049077e-06	8.469569e-10	1.459821e+01	5.637132e+01
2.310000e-06	2.091441e-06	8.897412e-10	1.490002e+01	5.910256e+01
2.320000e-06	2.133482e-06	9.288411e-10	1.519954e+01	6.179908e+01
2.330000e-06	2.175311e-06	9.646713e-10	1.549754e+01	6.445860e+01
2.340000e-06	2.216922e-06	9.985065e-10	1.579399e+01	6.707895e+01
2.350000e-06	2.258342e-06	1.032380e-09	1.608907e+01	6.965809e+01
2.360000e-06	2.299342e-06	1.068057e-09	1.638117e+01	7.219409e+01
2.370000e-06	2.339992e-06	1.104704e-09	1.667078e+01	7.468519e+01
2.380000e-06	2.380605e-06	1.142561e-09	1.696011e+01	7.712979e+01
2.390000e-06	2.421091e-06	1.180220e-09	1.724854e+01	7.952647e+01
2.400000e-06	2.461306e-06	1.214829e-09	1.753505e+01	8.187399e+01
2.410000e-06	2.501365e-06	1.245483e-09	1.782044e+01	8.417129e+01
2.420000e-06	2.541318e-06	1.273503e-09	1.810508e+01	8.641754e+01
2.430000e-06	2.581163e-06	1.302468e-09	1.838894e+01	8.861208e+01
2.440000e-06	2.620948e-06	1.332405e-09	1.867238e+01	9.075446e+01
2.450000e-06	2.660643e-06	1.362830e-09	1.895519e+01	9.284443e+01
2.460000e-06	2.700165e-06	1.395377e-09	1.923675e+01	9.488192e+01
2.470000e-06	2.739508e-06	1.427596e-09	1.951704e+01	9.686706e+01
2.480000e-06	2.778629e-06	1.456355e-09	1.979575e+01	9.880014e+01
2.490000e-06	2.817544e-06	1.482834e-09	2.007299e+01	1.006816e+02
2.500000e-06	2.856250e-06	1.508275e-09	2.034874e+01	1.025121e+02
2.510000e-06	2.894723e-06	1.533163e-09	2.062284e+01	1.042922e+02
2.520000e-06	2.933022e-06	1.558345e-09	2.089569e+01	1.060229e+02
2.530000e-06	2.971180e-06	1.584424e-09	2.116754e+01	1.077050e+02
2.540000e-06	3.009159e-06	1.610567e-09	2.143811e+01	1.093396e+02
2.550000e-06	3.046950e-06	1.637223e-09	2.170734e+01	1.109276e+02
2.560000e-06	3.084547e-06	1.661568e-09	2.197519e+01	1.124701e+02
2.570000e-06	3.121920e-06	1.681033e-09	2.224145e+01	1.139683e+02
2.580000e-06	3.159079e-06	1.699627e-09	2.250618e+01	1.154232e+02
2.590000e-06	3.195983e-06	1.719481e-09	2.276910e+01	1.168358e+02
2.600000e-06	3.232597e-06	1.740501e-09	2.302995e+01	1.182071e+02
2.610000e-06	3.268925e-06	1.760517e-09	2.328875e+01	1.195382e+02
2.620000e-06	3.305134e-06	1.777954e-09	2.354672e+01	1.208299e+02
2.630000e-06	3.341275e-06	1.795119e-09	2.380420e+01	1.220831e+02
2.640000e-06	3.377229e-06	1.811770e-09	2.406035e+01	1.232984e+02
2.650000e-06	3.413058e-06	1.825798e-09	2.431560e+01	1.244767e+02
2.660000e-06	3.448779e-06	1.838611e-09	2.457009e+01	1.256186e+02
2.670000e-06	3.484351e-06	1.854299e-09	2.482351e+01	1.267245e+02
2.680000e-06	3.519714e-06	1.871361e-09	2.507545e+01	1.277950e+02
2.690000e-06	3.554686e-06	1.885243e-09	2.532460e+01	1.288305e+02
2.700000e-06	3.589217e-06	1.897548e-09	2.557061e+01	1.298314e+02
2.710000e-06	3.623300e-06	1.913863e-09	2.581342e+01	1.307981e+02
2.720000e-06	3.656887e-06	1.932564e-09	2.605271e+01	1.317308e+02
2.730000e-06	3.690067e-06	1.945560e-09	2.628910e+01	1.326299e+02
2.740000e-06	3.722882e-06	1.954338e-09	2.652288e+01	1.334956e+02
2.750000e-06	3.755302e-06	1.966331e-09	2.675385e+01	1.343285e+02
2.760000e-06	3.787477e-06	1.981281e-09	2.698307e+01	1.351287e+02
2.770000e-06	3.819496e-06	1.992945e-09	2.721118e+01	1.358969e+02
2.780000e-06	3.851327e-06	1.999911e-09	2.743796e+01	1.366333e+02
2.790000e-06	3.883054e-06	2.009348e-09	2.766399e+01	1.373387e+02
2.800000e-06	3.914618e-06	2.022062e-09	2.788886e+01	1.380136e+02
2.810000e-06	3.945878e-06	2.033110e-09	2.811156e+01	1.386588e+02
2.820000e-06	3.976838e-06	2.039526e-09	2.833213e+01	1.392750e+02
2.830000e-06	4.007510e-06	2.046306e-09	2.855065e+01	1.398632e+02
2.840000e-06	4.037918e-06	2.056148e-09	2.876729e+01	1.404245e+02
2.850000e-06	4.068036e-06	2.065181e-09	2.898186e+01	1.409598e+02
2.860000e-06	4.097871e-06	2.070221e-09	2.919441e+01	1.414704e+02
2.870000e-06	4.127507e-06	2.072228e-09	2.940554e+01	1.419574e+02
2.880000e-06	4.156900e-06	2.075067e-09	2.961494e+01	1.424223e+02
2.890000e-06	4.185949e-06	2.081798e-09	2.982190e+01	1.428664e+02
2.900000e-06	4.214642e-06	2.088998e-09	3.002632e+01	1.432911e+02
