# Temperatura_=_16.71
# Concentracion g/m^3_=_4090.0
# C_Vs_to_Am_M_A/Vsm_=_65563218390.804596
# pendiente_HvsI_1/m_=_3716.3
# ordenada_HvsI_A/m_=_1297.0
# frecuencia_Hz_=_135081.10731395741

Tiempo_(s)	Campo_(V.s)	Magnetizacion_(V.s)	Campo_(kA/m)	Magnetizacion_(A/m)
0.000000e+00	-5.385434e-06	-2.422232e-09	-3.837950e+01	-1.546708e+02
1.000000e-08	-5.385656e-06	-2.420476e-09	-3.838109e+01	-1.545622e+02
2.000000e-08	-5.385683e-06	-2.419444e-09	-3.838128e+01	-1.544556e+02
3.000000e-08	-5.385519e-06	-2.418819e-09	-3.838011e+01	-1.543529e+02
4.000000e-08	-5.385013e-06	-2.417123e-09	-3.837651e+01	-1.542560e+02
5.000000e-08	-5.384067e-06	-2.415294e-09	-3.836976e+01	-1.541666e+02
6.000000e-08	-5.382613e-06	-2.420930e-09	-3.835940e+01	-1.540863e+02
7.000000e-08	-5.380423e-06	-2.428272e-09	-3.834380e+01	-1.540165e+02
8.000000e-08	-5.377562e-06	-2.408151e-09	-3.832341e+01	-1.539585e+02
9.000000e-08	-5.374218e-06	-2.355620e-09	-3.829957e+01	-1.539135e+02
1.000000e-07	-5.370415e-06	-2.383586e-09	-3.827247e+01	-1.538822e+02
1.100000e-07	-5.366236e-06	-2.481927e-09	-3.824269e+01	-1.538652e+02
1.200000e-07	-5.361832e-06	-2.474910e-09	-3.821130e+01	-1.538629e+02
1.300000e-07	-5.357251e-06	-2.347275e-09	-3.817866e+01	-1.538752e+02
1.400000e-07	-5.352342e-06	-2.339738e-09	-3.814368e+01	-1.539020e+02
1.500000e-07	-5.346987e-06	-2.484971e-09	-3.810551e+01	-1.539426e+02
1.600000e-07	-5.341309e-06	-2.482619e-09	-3.806505e+01	-1.539964e+02
1.700000e-07	-5.335330e-06	-2.291890e-09	-3.802244e+01	-1.540622e+02
1.800000e-07	-5.328921e-06	-2.286634e-09	-3.797676e+01	-1.541387e+02
1.900000e-07	-5.322138e-06	-2.475011e-09	-3.792842e+01	-1.542245e+02
2.000000e-07	-5.315036e-06	-2.493540e-09	-3.787781e+01	-1.543177e+02
2.100000e-07	-5.307606e-06	-2.355874e-09	-3.782486e+01	-1.544166e+02
2.200000e-07	-5.299864e-06	-2.368840e-09	-3.776968e+01	-1.545190e+02
2.300000e-07	-5.291924e-06	-2.486059e-09	-3.771310e+01	-1.546228e+02
2.400000e-07	-5.283723e-06	-2.433313e-09	-3.765466e+01	-1.547259e+02
2.500000e-07	-5.275035e-06	-2.355604e-09	-3.759274e+01	-1.548260e+02
2.600000e-07	-5.265698e-06	-2.422026e-09	-3.752620e+01	-1.549209e+02
2.700000e-07	-5.255685e-06	-2.467424e-09	-3.745485e+01	-1.550086e+02
2.800000e-07	-5.245017e-06	-2.374920e-09	-3.737882e+01	-1.550868e+02
2.900000e-07	-5.233846e-06	-2.362434e-09	-3.729921e+01	-1.551539e+02
3.000000e-07	-5.222316e-06	-2.450650e-09	-3.721704e+01	-1.552078e+02
3.100000e-07	-5.210395e-06	-2.410279e-09	-3.713208e+01	-1.552472e+02
3.200000e-07	-5.198090e-06	-2.305561e-09	-3.704439e+01	-1.552706e+02
3.300000e-07	-5.185380e-06	-2.373095e-09	-3.695381e+01	-1.552768e+02
3.400000e-07	-5.172399e-06	-2.446731e-09	-3.686130e+01	-1.552651e+02
3.500000e-07	-5.159103e-06	-2.376741e-09	-3.676655e+01	-1.552347e+02
3.600000e-07	-5.145365e-06	-2.347907e-09	-3.666864e+01	-1.551853e+02
3.700000e-07	-5.131230e-06	-2.413028e-09	-3.656791e+01	-1.551168e+02
3.800000e-07	-5.116646e-06	-2.394230e-09	-3.646398e+01	-1.550294e+02
3.900000e-07	-5.101552e-06	-2.338382e-09	-3.635641e+01	-1.549235e+02
4.000000e-07	-5.085893e-06	-2.369408e-09	-3.624482e+01	-1.547998e+02
4.100000e-07	-5.069661e-06	-2.370450e-09	-3.612913e+01	-1.546590e+02
4.200000e-07	-5.052959e-06	-2.332189e-09	-3.601011e+01	-1.545023e+02
4.300000e-07	-5.035939e-06	-2.364440e-09	-3.588882e+01	-1.543308e+02
4.400000e-07	-5.018763e-06	-2.400700e-09	-3.576641e+01	-1.541461e+02
4.500000e-07	-5.001251e-06	-2.347780e-09	-3.564161e+01	-1.539494e+02
4.600000e-07	-4.983286e-06	-2.329836e-09	-3.551358e+01	-1.537425e+02
4.700000e-07	-4.965043e-06	-2.368765e-09	-3.538357e+01	-1.535268e+02
4.800000e-07	-4.946405e-06	-2.361802e-09	-3.525075e+01	-1.533041e+02
4.900000e-07	-4.927437e-06	-2.324489e-09	-3.511557e+01	-1.530758e+02
5.000000e-07	-4.908127e-06	-2.333908e-09	-3.497796e+01	-1.528435e+02
5.100000e-07	-4.888409e-06	-2.346757e-09	-3.483744e+01	-1.526086e+02
5.200000e-07	-4.868489e-06	-2.348672e-09	-3.469548e+01	-1.523726e+02
5.300000e-07	-4.848434e-06	-2.346032e-09	-3.455255e+01	-1.521367e+02
5.400000e-07	-4.828165e-06	-2.328311e-09	-3.440810e+01	-1.519018e+02
5.500000e-07	-4.807505e-06	-2.317260e-09	-3.426087e+01	-1.516689e+02
5.600000e-07	-4.786447e-06	-2.334520e-09	-3.411080e+01	-1.514388e+02
5.700000e-07	-4.765068e-06	-2.328818e-09	-3.395844e+01	-1.512119e+02
5.800000e-07	-4.743429e-06	-2.301170e-09	-3.380423e+01	-1.509887e+02
5.900000e-07	-4.721527e-06	-2.301733e-09	-3.364815e+01	-1.507693e+02
6.000000e-07	-4.699336e-06	-2.317710e-09	-3.349000e+01	-1.505537e+02
6.100000e-07	-4.676799e-06	-2.315711e-09	-3.332939e+01	-1.503417e+02
6.200000e-07	-4.653865e-06	-2.303205e-09	-3.316595e+01	-1.501330e+02
6.300000e-07	-4.630574e-06	-2.290523e-09	-3.299996e+01	-1.499271e+02
6.400000e-07	-4.607004e-06	-2.289967e-09	-3.283199e+01	-1.497234e+02
6.500000e-07	-4.583251e-06	-2.302546e-09	-3.266272e+01	-1.495211e+02
6.600000e-07	-4.559253e-06	-2.294362e-09	-3.249169e+01	-1.493195e+02
6.700000e-07	-4.534948e-06	-2.270342e-09	-3.231848e+01	-1.491177e+02
6.800000e-07	-4.510270e-06	-2.272631e-09	-3.214261e+01	-1.489149e+02
6.900000e-07	-4.485147e-06	-2.288847e-09	-3.196358e+01	-1.487100e+02
7.000000e-07	-4.459613e-06	-2.280818e-09	-3.178161e+01	-1.485021e+02
7.100000e-07	-4.433751e-06	-2.261335e-09	-3.159730e+01	-1.482905e+02
7.200000e-07	-4.407414e-06	-2.253475e-09	-3.140961e+01	-1.480742e+02
7.300000e-07	-4.380541e-06	-2.259313e-09	-3.121810e+01	-1.478524e+02
7.400000e-07	-4.353280e-06	-2.260037e-09	-3.102382e+01	-1.476245e+02
7.500000e-07	-4.325700e-06	-2.246086e-09	-3.082727e+01	-1.473899e+02
7.600000e-07	-4.297909e-06	-2.231371e-09	-3.062922e+01	-1.471481e+02
7.700000e-07	-4.269938e-06	-2.236167e-09	-3.042988e+01	-1.468987e+02
7.800000e-07	-4.241721e-06	-2.240192e-09	-3.022879e+01	-1.466413e+02
7.900000e-07	-4.213219e-06	-2.228152e-09	-3.002567e+01	-1.463760e+02
8.000000e-07	-4.184481e-06	-2.212552e-09	-2.982087e+01	-1.461025e+02
8.100000e-07	-4.155438e-06	-2.211860e-09	-2.961389e+01	-1.458210e+02
8.200000e-07	-4.126085e-06	-2.215236e-09	-2.940470e+01	-1.455317e+02
8.300000e-07	-4.096409e-06	-2.210415e-09	-2.919322e+01	-1.452347e+02
8.400000e-07	-4.066475e-06	-2.196448e-09	-2.897989e+01	-1.449305e+02
8.500000e-07	-4.036329e-06	-2.187917e-09	-2.876506e+01	-1.446193e+02
8.600000e-07	-4.005901e-06	-2.188445e-09	-2.854821e+01	-1.443017e+02
8.700000e-07	-3.975183e-06	-2.182914e-09	-2.832930e+01	-1.439782e+02
8.800000e-07	-3.944141e-06	-2.166341e-09	-2.810808e+01	-1.436491e+02
8.900000e-07	-3.912908e-06	-2.152646e-09	-2.788549e+01	-1.433152e+02
9.000000e-07	-3.881503e-06	-2.155042e-09	-2.766168e+01	-1.429768e+02
9.100000e-07	-3.849867e-06	-2.161420e-09	-2.743623e+01	-1.426344e+02
9.200000e-07	-3.818028e-06	-2.155848e-09	-2.720933e+01	-1.422886e+02
9.300000e-07	-3.786014e-06	-2.145162e-09	-2.698118e+01	-1.419396e+02
9.400000e-07	-3.753779e-06	-2.138803e-09	-2.675145e+01	-1.415879e+02
9.500000e-07	-3.721276e-06	-2.132492e-09	-2.651982e+01	-1.412337e+02
9.600000e-07	-3.688437e-06	-2.118347e-09	-2.628579e+01	-1.408772e+02
9.700000e-07	-3.655239e-06	-2.102492e-09	-2.604920e+01	-1.405186e+02
9.800000e-07	-3.621711e-06	-2.096919e-09	-2.581026e+01	-1.401580e+02
9.900000e-07	-3.587782e-06	-2.097932e-09	-2.556847e+01	-1.397953e+02
1.000000e-06	-3.553365e-06	-2.094649e-09	-2.532319e+01	-1.394305e+02
1.010000e-06	-3.518585e-06	-2.087614e-09	-2.507533e+01	-1.390635e+02
1.020000e-06	-3.483545e-06	-2.081493e-09	-2.482562e+01	-1.386941e+02
1.030000e-06	-3.448210e-06	-2.073020e-09	-2.457380e+01	-1.383220e+02
1.040000e-06	-3.412634e-06	-2.063087e-09	-2.432027e+01	-1.379470e+02
1.050000e-06	-3.376835e-06	-2.054291e-09	-2.406515e+01	-1.375687e+02
1.060000e-06	-3.340858e-06	-2.046706e-09	-2.380875e+01	-1.371869e+02
1.070000e-06	-3.304748e-06	-2.041361e-09	-2.355141e+01	-1.368012e+02
1.080000e-06	-3.268504e-06	-2.036426e-09	-2.329312e+01	-1.364112e+02
1.090000e-06	-3.232051e-06	-2.029588e-09	-2.303334e+01	-1.360166e+02
1.100000e-06	-3.195270e-06	-2.023706e-09	-2.277122e+01	-1.356170e+02
1.110000e-06	-3.158260e-06	-2.019624e-09	-2.250746e+01	-1.352122e+02
1.120000e-06	-3.121141e-06	-2.014023e-09	-2.224294e+01	-1.348019e+02
1.130000e-06	-3.083840e-06	-2.003884e-09	-2.197711e+01	-1.343859e+02
1.140000e-06	-3.046250e-06	-1.994574e-09	-2.170922e+01	-1.339639e+02
1.150000e-06	-3.008440e-06	-1.988926e-09	-2.143976e+01	-1.335357e+02
1.160000e-06	-2.970451e-06	-1.981170e-09	-2.116903e+01	-1.331013e+02
1.170000e-06	-2.932215e-06	-1.969685e-09	-2.089654e+01	-1.326606e+02
1.180000e-06	-2.893839e-06	-1.958905e-09	-2.062306e+01	-1.322134e+02
1.190000e-06	-2.855234e-06	-1.951654e-09	-2.034794e+01	-1.317598e+02
1.200000e-06	-2.816455e-06	-1.944290e-09	-2.007158e+01	-1.312997e+02
1.210000e-06	-2.777566e-06	-1.932258e-09	-1.979443e+01	-1.308331e+02
1.220000e-06	-2.738420e-06	-1.922785e-09	-1.951545e+01	-1.303601e+02
1.230000e-06	-2.699025e-06	-1.918894e-09	-1.923470e+01	-1.298808e+02
1.240000e-06	-2.659379e-06	-1.916163e-09	-1.895217e+01	-1.293950e+02
1.250000e-06	-2.619616e-06	-1.908869e-09	-1.866879e+01	-1.289027e+02
1.260000e-06	-2.579842e-06	-1.898728e-09	-1.838535e+01	-1.284041e+02
1.270000e-06	-2.539955e-06	-1.888207e-09	-1.810109e+01	-1.278990e+02
1.280000e-06	-2.499931e-06	-1.876714e-09	-1.781586e+01	-1.273873e+02
1.290000e-06	-2.459784e-06	-1.865861e-09	-1.752975e+01	-1.268689e+02
1.300000e-06	-2.419513e-06	-1.856781e-09	-1.724275e+01	-1.263436e+02
1.310000e-06	-2.379091e-06	-1.849044e-09	-1.695469e+01	-1.258112e+02
1.320000e-06	-2.338458e-06	-1.841867e-09	-1.666512e+01	-1.252714e+02
1.330000e-06	-2.297626e-06	-1.832550e-09	-1.637412e+01	-1.247238e+02
1.340000e-06	-2.256566e-06	-1.821652e-09	-1.608151e+01	-1.241681e+02
1.350000e-06	-2.215201e-06	-1.811482e-09	-1.578672e+01	-1.236038e+02
1.360000e-06	-2.173572e-06	-1.799377e-09	-1.549005e+01	-1.230305e+02
1.370000e-06	-2.131820e-06	-1.784067e-09	-1.519250e+01	-1.224475e+02
1.380000e-06	-2.089893e-06	-1.768984e-09	-1.489371e+01	-1.218545e+02
1.390000e-06	-2.047625e-06	-1.758830e-09	-1.459248e+01	-1.212506e+02
1.400000e-06	-2.004976e-06	-1.753462e-09	-1.428854e+01	-1.206355e+02
1.410000e-06	-1.962118e-06	-1.749332e-09	-1.398311e+01	-1.200083e+02
1.420000e-06	-1.919205e-06	-1.742399e-09	-1.367729e+01	-1.193685e+02
1.430000e-06	-1.876084e-06	-1.732209e-09	-1.336998e+01	-1.187155e+02
1.440000e-06	-1.832704e-06	-1.718017e-09	-1.306084e+01	-1.180486e+02
1.450000e-06	-1.789219e-06	-1.699161e-09	-1.275094e+01	-1.173672e+02
1.460000e-06	-1.745608e-06	-1.680996e-09	-1.244014e+01	-1.166708e+02
1.470000e-06	-1.701833e-06	-1.667425e-09	-1.212818e+01	-1.159587e+02
1.480000e-06	-1.658011e-06	-1.656481e-09	-1.181588e+01	-1.152305e+02
1.490000e-06	-1.614181e-06	-1.647647e-09	-1.150352e+01	-1.144856e+02
1.500000e-06	-1.570257e-06	-1.641115e-09	-1.119050e+01	-1.137236e+02
1.510000e-06	-1.526174e-06	-1.633954e-09	-1.087634e+01	-1.129440e+02
1.520000e-06	-1.482052e-06	-1.622831e-09	-1.056190e+01	-1.121464e+02
1.530000e-06	-1.437901e-06	-1.605349e-09	-1.024726e+01	-1.113305e+02
1.540000e-06	-1.393669e-06	-1.588473e-09	-9.932036e+00	-1.104959e+02
1.550000e-06	-1.349440e-06	-1.573567e-09	-9.616840e+00	-1.096422e+02
1.560000e-06	-1.305196e-06	-1.558442e-09	-9.301532e+00	-1.087690e+02
1.570000e-06	-1.260859e-06	-1.546148e-09	-8.985558e+00	-1.078760e+02
1.580000e-06	-1.216420e-06	-1.534981e-09	-8.668864e+00	-1.069628e+02
1.590000e-06	-1.171934e-06	-1.524320e-09	-8.351831e+00	-1.060289e+02
1.600000e-06	-1.127355e-06	-1.511195e-09	-8.034142e+00	-1.050739e+02
1.610000e-06	-1.082595e-06	-1.493597e-09	-7.715157e+00	-1.040973e+02
1.620000e-06	-1.037677e-06	-1.471416e-09	-7.395044e+00	-1.030985e+02
1.630000e-06	-9.926419e-07	-1.451425e-09	-7.074101e+00	-1.020769e+02
1.640000e-06	-9.475619e-07	-1.434553e-09	-6.752837e+00	-1.010317e+02
1.650000e-06	-9.024617e-07	-1.416611e-09	-6.431428e+00	-9.996202e+01
1.660000e-06	-8.573112e-07	-1.399058e-09	-6.109662e+00	-9.886708e+01
1.670000e-06	-8.121445e-07	-1.384928e-09	-5.787779e+00	-9.774582e+01
1.680000e-06	-7.668847e-07	-1.372816e-09	-5.465234e+00	-9.659714e+01
1.690000e-06	-7.215471e-07	-1.355086e-09	-5.142134e+00	-9.541985e+01
1.700000e-06	-6.761700e-07	-1.331318e-09	-4.818752e+00	-9.421267e+01
1.710000e-06	-6.307129e-07	-1.308365e-09	-4.494800e+00	-9.297422e+01
1.720000e-06	-5.851526e-07	-1.289950e-09	-4.170113e+00	-9.170305e+01
1.730000e-06	-5.395515e-07	-1.274375e-09	-3.845135e+00	-9.039767e+01
1.740000e-06	-4.940108e-07	-1.256539e-09	-3.520587e+00	-8.905649e+01
1.750000e-06	-4.484839e-07	-1.235892e-09	-3.196138e+00	-8.767793e+01
1.760000e-06	-4.029650e-07	-1.217176e-09	-2.871746e+00	-8.626035e+01
1.770000e-06	-3.574396e-07	-1.199133e-09	-2.547307e+00	-8.480214e+01
1.780000e-06	-3.118591e-07	-1.175341e-09	-2.222476e+00	-8.330169e+01
1.790000e-06	-2.662147e-07	-1.145121e-09	-1.897190e+00	-8.175743e+01
1.800000e-06	-2.204515e-07	-1.117008e-09	-1.571056e+00	-8.016784e+01
1.810000e-06	-1.746905e-07	-1.095151e-09	-1.244939e+00	-7.853149e+01
1.820000e-06	-1.289903e-07	-1.074788e-09	-9.192547e-01	-7.684704e+01
1.830000e-06	-8.328599e-08	-1.050142e-09	-5.935409e-01	-7.511327e+01
1.840000e-06	-3.758129e-08	-1.023018e-09	-2.678245e-01	-7.332910e+01
1.850000e-06	8.053726e-09	-9.960484e-10	5.739519e-02	-7.149358e+01
1.860000e-06	5.371003e-08	-9.682134e-10	3.827666e-01	-6.960595e+01
1.870000e-06	9.943932e-08	-9.360515e-10	7.086582e-01	-6.766563e+01
1.880000e-06	1.451271e-07	-9.023892e-10	1.034254e+00	-6.567221e+01
1.890000e-06	1.908168e-07	-8.737309e-10	1.359863e+00	-6.362550e+01
1.900000e-06	2.364618e-07	-8.476231e-10	1.685155e+00	-6.152550e+01
1.910000e-06	2.820389e-07	-8.166301e-10	2.009961e+00	-5.937243e+01
1.920000e-06	3.276407e-07	-7.823801e-10	2.334944e+00	-5.716669e+01
1.930000e-06	3.732391e-07	-7.491728e-10	2.659903e+00	-5.490893e+01
1.940000e-06	4.187864e-07	-7.158011e-10	2.984498e+00	-5.259995e+01
1.950000e-06	4.642925e-07	-6.799301e-10	3.308799e+00	-5.024077e+01
1.960000e-06	5.098184e-07	-6.413824e-10	3.633241e+00	-4.783260e+01
1.970000e-06	5.553126e-07	-6.053742e-10	3.957457e+00	-4.537681e+01
1.980000e-06	6.007108e-07	-5.710567e-10	4.280989e+00	-4.287492e+01
1.990000e-06	6.460679e-07	-5.332614e-10	4.604228e+00	-4.032862e+01
2.000000e-06	6.913671e-07	-4.929845e-10	4.927055e+00	-3.773970e+01
2.010000e-06	7.366653e-07	-4.527488e-10	5.249874e+00	-3.511010e+01
2.020000e-06	7.819125e-07	-4.144474e-10	5.572330e+00	-3.244182e+01
2.030000e-06	8.270476e-07	-3.774654e-10	5.893987e+00	-2.973698e+01
2.040000e-06	8.721625e-07	-3.398996e-10	6.215500e+00	-2.699775e+01
2.050000e-06	9.171903e-07	-3.006618e-10	6.536393e+00	-2.422635e+01
2.060000e-06	9.620382e-07	-2.591112e-10	6.856002e+00	-2.142504e+01
2.070000e-06	1.006780e-06	-2.171747e-10	7.174858e+00	-1.859612e+01
2.080000e-06	1.051463e-06	-1.721443e-10	7.493295e+00	-1.574189e+01
2.090000e-06	1.096086e-06	-1.261540e-10	7.811302e+00	-1.286468e+01
2.100000e-06	1.140672e-06	-8.056490e-11	8.129042e+00	-9.966788e+00
2.110000e-06	1.185207e-06	-4.021703e-11	8.446420e+00	-7.050536e+00
2.120000e-06	1.229686e-06	-2.294995e-12	8.763409e+00	-4.118219e+00
2.130000e-06	1.274083e-06	3.666449e-11	9.079804e+00	-1.172124e+00
2.140000e-06	1.318378e-06	7.764321e-11	9.395470e+00	1.785476e+00
2.150000e-06	1.362600e-06	1.231050e-10	9.710624e+00	4.752324e+00
2.160000e-06	1.406744e-06	1.726017e-10	1.002522e+01	7.726171e+00
2.170000e-06	1.450831e-06	2.239953e-10	1.033940e+01	1.070478e+01
2.180000e-06	1.494876e-06	2.710591e-10	1.065329e+01	1.368592e+01
2.190000e-06	1.538893e-06	3.118026e-10	1.096698e+01	1.666737e+01
2.200000e-06	1.582870e-06	3.480297e-10	1.128038e+01	1.964688e+01
2.210000e-06	1.626775e-06	3.845246e-10	1.159328e+01	2.262224e+01
2.220000e-06	1.670627e-06	4.232396e-10	1.190579e+01	2.559120e+01
2.230000e-06	1.714452e-06	4.654317e-10	1.221811e+01	2.855150e+01
2.240000e-06	1.758197e-06	5.107708e-10	1.252986e+01	3.150089e+01
2.250000e-06	1.801833e-06	5.591016e-10	1.284083e+01	3.443709e+01
2.260000e-06	1.845369e-06	6.063185e-10	1.315109e+01	3.735780e+01
2.270000e-06	1.888760e-06	6.481131e-10	1.346032e+01	4.026075e+01
2.280000e-06	1.931920e-06	6.851262e-10	1.376790e+01	4.314362e+01
2.290000e-06	1.974792e-06	7.227053e-10	1.407343e+01	4.600412e+01
2.300000e-06	2.017445e-06	7.631271e-10	1.437740e+01	4.883996e+01
2.310000e-06	2.059864e-06	8.053014e-10	1.467970e+01	5.164887e+01
2.320000e-06	2.102064e-06	8.456903e-10	1.498044e+01	5.442859e+01
2.330000e-06	2.144063e-06	8.865034e-10	1.527975e+01	5.717692e+01
2.340000e-06	2.185687e-06	9.282480e-10	1.557638e+01	5.989170e+01
2.350000e-06	2.226945e-06	9.677161e-10	1.587041e+01	6.257082e+01
2.360000e-06	2.268011e-06	1.002475e-09	1.616307e+01	6.521228e+01
2.370000e-06	2.308847e-06	1.037178e-09	1.645408e+01	6.781414e+01
2.380000e-06	2.349449e-06	1.074167e-09	1.674344e+01	7.037458e+01
2.390000e-06	2.389833e-06	1.109982e-09	1.703124e+01	7.289188e+01
2.400000e-06	2.429992e-06	1.142938e-09	1.731743e+01	7.536448e+01
2.410000e-06	2.470094e-06	1.174205e-09	1.760322e+01	7.779092e+01
2.420000e-06	2.510147e-06	1.205161e-09	1.788866e+01	8.016994e+01
2.430000e-06	2.550107e-06	1.236433e-09	1.817343e+01	8.250039e+01
2.440000e-06	2.589944e-06	1.268229e-09	1.845734e+01	8.478133e+01
2.450000e-06	2.629660e-06	1.300442e-09	1.874037e+01	8.701196e+01
2.460000e-06	2.669289e-06	1.332470e-09	1.902279e+01	8.919167e+01
2.470000e-06	2.708754e-06	1.363513e-09	1.930404e+01	9.132002e+01
2.480000e-06	2.748003e-06	1.394991e-09	1.958375e+01	9.339675e+01
2.490000e-06	2.787157e-06	1.424760e-09	1.986278e+01	9.542175e+01
2.500000e-06	2.826195e-06	1.451402e-09	2.014099e+01	9.739509e+01
2.510000e-06	2.864882e-06	1.475428e-09	2.041669e+01	9.931698e+01
2.520000e-06	2.903265e-06	1.500771e-09	2.069023e+01	1.011878e+02
2.530000e-06	2.941482e-06	1.528327e-09	2.096258e+01	1.030080e+02
2.540000e-06	2.979504e-06	1.555500e-09	2.123355e+01	1.047782e+02
2.550000e-06	3.017329e-06	1.581688e-09	2.150311e+01	1.064992e+02
2.560000e-06	3.055060e-06	1.609278e-09	2.177200e+01	1.081716e+02
2.570000e-06	3.092567e-06	1.634789e-09	2.203930e+01	1.097965e+02
2.580000e-06	3.129801e-06	1.656332e-09	2.230465e+01	1.113746e+02
2.590000e-06	3.166859e-06	1.674748e-09	2.256874e+01	1.129070e+02
2.600000e-06	3.203616e-06	1.691702e-09	2.283069e+01	1.143946e+02
2.610000e-06	3.240114e-06	1.710483e-09	2.309080e+01	1.158385e+02
2.620000e-06	3.276441e-06	1.731221e-09	2.334969e+01	1.172396e+02
2.630000e-06	3.312546e-06	1.752369e-09	2.360699e+01	1.185990e+02
2.640000e-06	3.348468e-06	1.773583e-09	2.386299e+01	1.199174e+02
2.650000e-06	3.384339e-06	1.793601e-09	2.411863e+01	1.211960e+02
2.660000e-06	3.420101e-06	1.810294e-09	2.437348e+01	1.224355e+02
2.670000e-06	3.455680e-06	1.825316e-09	2.462704e+01	1.236367e+02
2.680000e-06	3.491087e-06	1.840785e-09	2.487937e+01	1.248006e+02
2.690000e-06	3.526167e-06	1.853727e-09	2.512936e+01	1.259277e+02
2.700000e-06	3.560863e-06	1.865034e-09	2.537663e+01	1.270188e+02
2.710000e-06	3.595105e-06	1.879511e-09	2.562065e+01	1.280746e+02
2.720000e-06	3.628946e-06	1.898516e-09	2.586182e+01	1.290956e+02
2.730000e-06	3.662400e-06	1.917681e-09	2.610024e+01	1.300825e+02
2.740000e-06	3.695363e-06	1.932595e-09	2.633515e+01	1.310359e+02
2.750000e-06	3.727943e-06	1.944415e-09	2.656733e+01	1.319562e+02
2.760000e-06	3.760201e-06	1.957156e-09	2.679722e+01	1.328442e+02
2.770000e-06	3.792245e-06	1.968676e-09	2.702558e+01	1.337003e+02
2.780000e-06	3.824180e-06	1.976615e-09	2.725317e+01	1.345252e+02
2.790000e-06	3.855994e-06	1.984865e-09	2.747989e+01	1.353194e+02
2.800000e-06	3.887678e-06	1.997902e-09	2.770569e+01	1.360837e+02
2.810000e-06	3.919215e-06	2.014258e-09	2.793044e+01	1.368187e+02
2.820000e-06	3.950450e-06	2.027593e-09	2.815304e+01	1.375252e+02
2.830000e-06	3.981314e-06	2.036909e-09	2.837299e+01	1.382040e+02
2.840000e-06	4.011893e-06	2.046079e-09	2.859091e+01	1.388560e+02
2.850000e-06	4.042181e-06	2.056832e-09	2.880676e+01	1.394820e+02
2.860000e-06	4.072191e-06	2.066719e-09	2.902063e+01	1.400830e+02
2.870000e-06	4.101987e-06	2.074872e-09	2.923297e+01	1.406600e+02
2.880000e-06	4.131546e-06	2.082525e-09	2.944362e+01	1.412142e+02
2.890000e-06	4.160790e-06	2.089409e-09	2.965203e+01	1.417465e+02
2.900000e-06	4.189828e-06	2.093762e-09	2.985897e+01	1.422582e+02
