# Temperatura_=_16.26
# Concentracion g/m^3_=_4090.0
# C_Vs_to_Am_M_A/Vsm_=_65563218390.804596
# pendiente_HvsI_1/m_=_3716.3
# ordenada_HvsI_A/m_=_1297.0
# frecuencia_Hz_=_135077.32151944772

Tiempo_(s)	Campo_(V.s)	Magnetizacion_(V.s)	Campo_(kA/m)	Magnetizacion_(A/m)
0.000000e+00	-5.411407e-06	-2.396094e-09	-3.839516e+01	-1.550915e+02
1.000000e-08	-5.411600e-06	-2.388321e-09	-3.839654e+01	-1.549927e+02
2.000000e-08	-5.411553e-06	-2.378077e-09	-3.839620e+01	-1.548907e+02
3.000000e-08	-5.411257e-06	-2.367624e-09	-3.839411e+01	-1.547864e+02
4.000000e-08	-5.410639e-06	-2.361972e-09	-3.838972e+01	-1.546810e+02
5.000000e-08	-5.409581e-06	-2.366919e-09	-3.838221e+01	-1.545753e+02
6.000000e-08	-5.408013e-06	-2.376521e-09	-3.837109e+01	-1.544704e+02
7.000000e-08	-5.405777e-06	-2.387203e-09	-3.835522e+01	-1.543674e+02
8.000000e-08	-5.402794e-06	-2.406696e-09	-3.833405e+01	-1.542670e+02
9.000000e-08	-5.399259e-06	-2.373462e-09	-3.830897e+01	-1.541701e+02
1.000000e-07	-5.395310e-06	-2.338152e-09	-3.828095e+01	-1.540775e+02
1.100000e-07	-5.391102e-06	-2.418121e-09	-3.825110e+01	-1.539898e+02
1.200000e-07	-5.386717e-06	-2.457866e-09	-3.821999e+01	-1.539075e+02
1.300000e-07	-5.382015e-06	-2.333050e-09	-3.818663e+01	-1.538310e+02
1.400000e-07	-5.376916e-06	-2.278944e-09	-3.815045e+01	-1.537605e+02
1.500000e-07	-5.371506e-06	-2.386083e-09	-3.811206e+01	-1.536963e+02
1.600000e-07	-5.365830e-06	-2.503764e-09	-3.807179e+01	-1.536382e+02
1.700000e-07	-5.359640e-06	-2.287002e-09	-3.802787e+01	-1.535861e+02
1.800000e-07	-5.353042e-06	-2.239681e-09	-3.798105e+01	-1.535396e+02
1.900000e-07	-5.346165e-06	-2.398610e-09	-3.793226e+01	-1.534983e+02
2.000000e-07	-5.338927e-06	-2.491051e-09	-3.788091e+01	-1.534617e+02
2.100000e-07	-5.331339e-06	-2.295098e-09	-3.782706e+01	-1.534290e+02
2.200000e-07	-5.323457e-06	-2.263993e-09	-3.777115e+01	-1.533994e+02
2.300000e-07	-5.315395e-06	-2.416314e-09	-3.771394e+01	-1.533721e+02
2.400000e-07	-5.307075e-06	-2.396099e-09	-3.765491e+01	-1.533459e+02
2.500000e-07	-5.298159e-06	-2.267380e-09	-3.759165e+01	-1.533200e+02
2.600000e-07	-5.288659e-06	-2.322578e-09	-3.752424e+01	-1.532933e+02
2.700000e-07	-5.278556e-06	-2.457995e-09	-3.745256e+01	-1.532646e+02
2.800000e-07	-5.267814e-06	-2.349063e-09	-3.737634e+01	-1.532328e+02
2.900000e-07	-5.256663e-06	-2.283785e-09	-3.729722e+01	-1.531970e+02
3.000000e-07	-5.245096e-06	-2.399710e-09	-3.721515e+01	-1.531560e+02
3.100000e-07	-5.233117e-06	-2.439605e-09	-3.713016e+01	-1.531089e+02
3.200000e-07	-5.220698e-06	-2.262482e-09	-3.704205e+01	-1.530548e+02
3.300000e-07	-5.207953e-06	-2.315147e-09	-3.695161e+01	-1.529929e+02
3.400000e-07	-5.194825e-06	-2.428577e-09	-3.685847e+01	-1.529225e+02
3.500000e-07	-5.181346e-06	-2.377608e-09	-3.676283e+01	-1.528429e+02
3.600000e-07	-5.167572e-06	-2.280693e-09	-3.666510e+01	-1.527538e+02
3.700000e-07	-5.153365e-06	-2.394819e-09	-3.656430e+01	-1.526547e+02
3.800000e-07	-5.138609e-06	-2.380378e-09	-3.645960e+01	-1.525454e+02
3.900000e-07	-5.123236e-06	-2.304231e-09	-3.635053e+01	-1.524260e+02
4.000000e-07	-5.107353e-06	-2.328502e-09	-3.623784e+01	-1.522963e+02
4.100000e-07	-5.090954e-06	-2.369786e-09	-3.612148e+01	-1.521566e+02
4.200000e-07	-5.074092e-06	-2.272870e-09	-3.600184e+01	-1.520073e+02
4.300000e-07	-5.057044e-06	-2.301461e-09	-3.588088e+01	-1.518486e+02
4.400000e-07	-5.039768e-06	-2.372398e-09	-3.575831e+01	-1.516811e+02
4.500000e-07	-5.022159e-06	-2.323332e-09	-3.563336e+01	-1.515055e+02
4.600000e-07	-5.004214e-06	-2.269953e-09	-3.550604e+01	-1.513223e+02
4.700000e-07	-4.985963e-06	-2.336638e-09	-3.537654e+01	-1.511323e+02
4.800000e-07	-4.967349e-06	-2.333597e-09	-3.524447e+01	-1.509362e+02
4.900000e-07	-4.948193e-06	-2.275250e-09	-3.510856e+01	-1.507349e+02
5.000000e-07	-4.928598e-06	-2.281766e-09	-3.496953e+01	-1.505291e+02
5.100000e-07	-4.908797e-06	-2.296763e-09	-3.482903e+01	-1.503195e+02
5.200000e-07	-4.888800e-06	-2.291270e-09	-3.468715e+01	-1.501070e+02
5.300000e-07	-4.868571e-06	-2.302379e-09	-3.454363e+01	-1.498922e+02
5.400000e-07	-4.848077e-06	-2.296246e-09	-3.439822e+01	-1.496758e+02
5.500000e-07	-4.827255e-06	-2.262662e-09	-3.425048e+01	-1.494583e+02
5.600000e-07	-4.806041e-06	-2.286949e-09	-3.409996e+01	-1.492402e+02
5.700000e-07	-4.784526e-06	-2.290917e-09	-3.394731e+01	-1.490220e+02
5.800000e-07	-4.762727e-06	-2.258760e-09	-3.379263e+01	-1.488039e+02
5.900000e-07	-4.740604e-06	-2.244944e-09	-3.363567e+01	-1.485861e+02
6.000000e-07	-4.718215e-06	-2.269875e-09	-3.347681e+01	-1.483688e+02
6.100000e-07	-4.695487e-06	-2.258448e-09	-3.331555e+01	-1.481519e+02
6.200000e-07	-4.672337e-06	-2.253963e-09	-3.315130e+01	-1.479355e+02
6.300000e-07	-4.648889e-06	-2.235036e-09	-3.298493e+01	-1.477192e+02
6.400000e-07	-4.625201e-06	-2.232251e-09	-3.281685e+01	-1.475028e+02
6.500000e-07	-4.601304e-06	-2.239773e-09	-3.264730e+01	-1.472860e+02
6.600000e-07	-4.577212e-06	-2.249313e-09	-3.247636e+01	-1.470685e+02
6.700000e-07	-4.552805e-06	-2.217954e-09	-3.230319e+01	-1.468496e+02
6.800000e-07	-4.527982e-06	-2.221064e-09	-3.212707e+01	-1.466290e+02
6.900000e-07	-4.502710e-06	-2.236457e-09	-3.194775e+01	-1.464061e+02
7.000000e-07	-4.477054e-06	-2.239248e-09	-3.176572e+01	-1.461804e+02
7.100000e-07	-4.450770e-06	-2.214041e-09	-3.157923e+01	-1.459513e+02
7.200000e-07	-4.423872e-06	-2.207844e-09	-3.138838e+01	-1.457184e+02
7.300000e-07	-4.396656e-06	-2.203668e-09	-3.119528e+01	-1.454811e+02
7.400000e-07	-4.369196e-06	-2.208771e-09	-3.100044e+01	-1.452390e+02
7.500000e-07	-4.341471e-06	-2.196014e-09	-3.080373e+01	-1.449918e+02
7.600000e-07	-4.313514e-06	-2.186012e-09	-3.060536e+01	-1.447389e+02
7.700000e-07	-4.285357e-06	-2.191965e-09	-3.040559e+01	-1.444803e+02
7.800000e-07	-4.257063e-06	-2.203752e-09	-3.020483e+01	-1.442157e+02
7.900000e-07	-4.228502e-06	-2.194490e-09	-3.000218e+01	-1.439449e+02
8.000000e-07	-4.199530e-06	-2.177537e-09	-2.979662e+01	-1.436680e+02
8.100000e-07	-4.170230e-06	-2.170564e-09	-2.958873e+01	-1.433849e+02
8.200000e-07	-4.140690e-06	-2.165681e-09	-2.937914e+01	-1.430959e+02
8.300000e-07	-4.110910e-06	-2.158700e-09	-2.916784e+01	-1.428010e+02
8.400000e-07	-4.080805e-06	-2.145817e-09	-2.895424e+01	-1.425006e+02
8.500000e-07	-4.050453e-06	-2.142512e-09	-2.873889e+01	-1.421950e+02
8.600000e-07	-4.019765e-06	-2.146838e-09	-2.852115e+01	-1.418845e+02
8.700000e-07	-3.988692e-06	-2.152877e-09	-2.830068e+01	-1.415696e+02
8.800000e-07	-3.957484e-06	-2.139491e-09	-2.807925e+01	-1.412507e+02
8.900000e-07	-3.926123e-06	-2.126501e-09	-2.785674e+01	-1.409283e+02
9.000000e-07	-3.894513e-06	-2.119618e-09	-2.763246e+01	-1.406028e+02
9.100000e-07	-3.862750e-06	-2.121909e-09	-2.740709e+01	-1.402748e+02
9.200000e-07	-3.830832e-06	-2.107943e-09	-2.718062e+01	-1.399446e+02
9.300000e-07	-3.798677e-06	-2.097336e-09	-2.695248e+01	-1.396127e+02
9.400000e-07	-3.766242e-06	-2.092198e-09	-2.672234e+01	-1.392795e+02
9.500000e-07	-3.733506e-06	-2.100463e-09	-2.649007e+01	-1.389453e+02
9.600000e-07	-3.700541e-06	-2.096798e-09	-2.625618e+01	-1.386104e+02
9.700000e-07	-3.667192e-06	-2.089277e-09	-2.601957e+01	-1.382749e+02
9.800000e-07	-3.633366e-06	-2.079260e-09	-2.577956e+01	-1.379391e+02
9.900000e-07	-3.599101e-06	-2.075327e-09	-2.553644e+01	-1.376029e+02
1.000000e-06	-3.564335e-06	-2.061404e-09	-2.528977e+01	-1.372664e+02
1.010000e-06	-3.529195e-06	-2.048691e-09	-2.504044e+01	-1.369294e+02
1.020000e-06	-3.493779e-06	-2.036505e-09	-2.478916e+01	-1.365917e+02
1.030000e-06	-3.458148e-06	-2.032694e-09	-2.453635e+01	-1.362531e+02
1.040000e-06	-3.422345e-06	-2.028535e-09	-2.428232e+01	-1.359133e+02
1.050000e-06	-3.386374e-06	-2.025249e-09	-2.402710e+01	-1.355717e+02
1.060000e-06	-3.350263e-06	-2.018970e-09	-2.377088e+01	-1.352280e+02
1.070000e-06	-3.314033e-06	-2.014950e-09	-2.351382e+01	-1.348816e+02
1.080000e-06	-3.277609e-06	-2.008336e-09	-2.325539e+01	-1.345319e+02
1.090000e-06	-3.240928e-06	-1.997829e-09	-2.299513e+01	-1.341783e+02
1.100000e-06	-3.204030e-06	-1.988479e-09	-2.273332e+01	-1.338202e+02
1.110000e-06	-3.166848e-06	-1.984774e-09	-2.246951e+01	-1.334568e+02
1.120000e-06	-3.129332e-06	-1.982824e-09	-2.220332e+01	-1.330877e+02
1.130000e-06	-3.091613e-06	-1.975434e-09	-2.193570e+01	-1.327120e+02
1.140000e-06	-3.053782e-06	-1.966321e-09	-2.166728e+01	-1.323291e+02
1.150000e-06	-3.015803e-06	-1.956455e-09	-2.139781e+01	-1.319385e+02
1.160000e-06	-2.977529e-06	-1.948291e-09	-2.112625e+01	-1.315396e+02
1.170000e-06	-2.938984e-06	-1.937691e-09	-2.085276e+01	-1.311317e+02
1.180000e-06	-2.900270e-06	-1.930851e-09	-2.057808e+01	-1.307144e+02
1.190000e-06	-2.861415e-06	-1.925083e-09	-2.030239e+01	-1.302873e+02
1.200000e-06	-2.822377e-06	-1.923235e-09	-2.002541e+01	-1.298500e+02
1.210000e-06	-2.783139e-06	-1.914617e-09	-1.974701e+01	-1.294021e+02
1.220000e-06	-2.743723e-06	-1.904198e-09	-1.946734e+01	-1.289435e+02
1.230000e-06	-2.704131e-06	-1.892302e-09	-1.918643e+01	-1.284737e+02
1.240000e-06	-2.664428e-06	-1.885276e-09	-1.890472e+01	-1.279929e+02
1.250000e-06	-2.624551e-06	-1.876554e-09	-1.862179e+01	-1.275007e+02
1.260000e-06	-2.584523e-06	-1.872688e-09	-1.833778e+01	-1.269973e+02
1.270000e-06	-2.544425e-06	-1.866708e-09	-1.805328e+01	-1.264825e+02
1.280000e-06	-2.504243e-06	-1.859051e-09	-1.776818e+01	-1.259566e+02
1.290000e-06	-2.463943e-06	-1.848663e-09	-1.748224e+01	-1.254195e+02
1.300000e-06	-2.423443e-06	-1.838643e-09	-1.719488e+01	-1.248713e+02
1.310000e-06	-2.382753e-06	-1.824364e-09	-1.690618e+01	-1.243122e+02
1.320000e-06	-2.341940e-06	-1.812877e-09	-1.661660e+01	-1.237424e+02
1.330000e-06	-2.300972e-06	-1.804117e-09	-1.632592e+01	-1.231620e+02
1.340000e-06	-2.259757e-06	-1.799428e-09	-1.603349e+01	-1.225711e+02
1.350000e-06	-2.218161e-06	-1.793370e-09	-1.573836e+01	-1.219699e+02
1.360000e-06	-2.176233e-06	-1.782634e-09	-1.544087e+01	-1.213585e+02
1.370000e-06	-2.134016e-06	-1.770111e-09	-1.514133e+01	-1.207370e+02
1.380000e-06	-2.091508e-06	-1.757780e-09	-1.483973e+01	-1.201055e+02
1.390000e-06	-2.048732e-06	-1.748168e-09	-1.453622e+01	-1.194640e+02
1.400000e-06	-2.005629e-06	-1.739367e-09	-1.423040e+01	-1.188124e+02
1.410000e-06	-1.962340e-06	-1.732191e-09	-1.392325e+01	-1.181507e+02
1.420000e-06	-1.918977e-06	-1.725871e-09	-1.361558e+01	-1.174788e+02
1.430000e-06	-1.875449e-06	-1.716904e-09	-1.330674e+01	-1.167966e+02
1.440000e-06	-1.831780e-06	-1.700239e-09	-1.299690e+01	-1.161038e+02
1.450000e-06	-1.788041e-06	-1.680860e-09	-1.268656e+01	-1.154002e+02
1.460000e-06	-1.744187e-06	-1.664354e-09	-1.237540e+01	-1.146854e+02
1.470000e-06	-1.700221e-06	-1.654172e-09	-1.206345e+01	-1.139591e+02
1.480000e-06	-1.656227e-06	-1.645156e-09	-1.175131e+01	-1.132209e+02
1.490000e-06	-1.612249e-06	-1.638859e-09	-1.143927e+01	-1.124702e+02
1.500000e-06	-1.568199e-06	-1.634038e-09	-1.112673e+01	-1.117065e+02
1.510000e-06	-1.524042e-06	-1.627821e-09	-1.081343e+01	-1.109293e+02
1.520000e-06	-1.479816e-06	-1.613353e-09	-1.049963e+01	-1.101380e+02
1.530000e-06	-1.435518e-06	-1.592269e-09	-1.018533e+01	-1.093319e+02
1.540000e-06	-1.391182e-06	-1.572211e-09	-9.870753e+00	-1.085102e+02
1.550000e-06	-1.346767e-06	-1.555439e-09	-9.555623e+00	-1.076722e+02
1.560000e-06	-1.302163e-06	-1.540924e-09	-9.239142e+00	-1.068172e+02
1.570000e-06	-1.257486e-06	-1.531950e-09	-8.922147e+00	-1.059443e+02
1.580000e-06	-1.212756e-06	-1.524332e-09	-8.604783e+00	-1.050526e+02
1.590000e-06	-1.167911e-06	-1.515904e-09	-8.286595e+00	-1.041412e+02
1.600000e-06	-1.123003e-06	-1.502855e-09	-7.967966e+00	-1.032093e+02
1.610000e-06	-1.078070e-06	-1.483242e-09	-7.649155e+00	-1.022558e+02
1.620000e-06	-1.033074e-06	-1.459287e-09	-7.329898e+00	-1.012797e+02
1.630000e-06	-9.879096e-07	-1.438196e-09	-7.009444e+00	-1.002800e+02
1.640000e-06	-9.426845e-07	-1.420334e-09	-6.688562e+00	-9.925559e+01
1.650000e-06	-8.974017e-07	-1.405329e-09	-6.367270e+00	-9.820541e+01
1.660000e-06	-8.520091e-07	-1.391136e-09	-6.045199e+00	-9.712831e+01
1.670000e-06	-8.065996e-07	-1.378593e-09	-5.723008e+00	-9.602311e+01
1.680000e-06	-7.611470e-07	-1.366535e-09	-5.400512e+00	-9.488862e+01
1.690000e-06	-7.156080e-07	-1.348967e-09	-5.077402e+00	-9.372361e+01
1.700000e-06	-6.700245e-07	-1.324667e-09	-4.753977e+00	-9.252683e+01
1.710000e-06	-6.243958e-07	-1.299468e-09	-4.430231e+00	-9.129701e+01
1.720000e-06	-5.786874e-07	-1.278215e-09	-4.105919e+00	-9.003285e+01
1.730000e-06	-5.329020e-07	-1.259494e-09	-3.781061e+00	-8.873304e+01
1.740000e-06	-4.871089e-07	-1.240207e-09	-3.456149e+00	-8.739626e+01
1.750000e-06	-4.413680e-07	-1.221488e-09	-3.131607e+00	-8.602120e+01
1.760000e-06	-3.955523e-07	-1.204400e-09	-2.806534e+00	-8.460654e+01
1.770000e-06	-3.496200e-07	-1.185278e-09	-2.480634e+00	-8.315097e+01
1.780000e-06	-3.036771e-07	-1.161180e-09	-2.154658e+00	-8.165321e+01
1.790000e-06	-2.577434e-07	-1.133177e-09	-1.828748e+00	-8.011200e+01
1.800000e-06	-2.118145e-07	-1.107181e-09	-1.502872e+00	-7.852612e+01
1.810000e-06	-1.659021e-07	-1.083017e-09	-1.177113e+00	-7.689441e+01
1.820000e-06	-1.199831e-07	-1.058737e-09	-8.513075e-01	-7.521576e+01
1.830000e-06	-7.410700e-08	-1.031401e-09	-5.258061e-01	-7.348912e+01
1.840000e-06	-2.828628e-08	-1.005299e-09	-2.006976e-01	-7.171355e+01
1.850000e-06	1.755875e-08	-9.801193e-10	1.245833e-01	-6.988818e+01
1.860000e-06	6.347037e-08	-9.546740e-10	4.503367e-01	-6.801226e+01
1.870000e-06	1.094003e-07	-9.266042e-10	7.762198e-01	-6.608514e+01
1.880000e-06	1.553077e-07	-8.964093e-10	1.101944e+00	-6.410630e+01
1.890000e-06	2.012230e-07	-8.656322e-10	1.427723e+00	-6.207536e+01
1.900000e-06	2.471019e-07	-8.333885e-10	1.753245e+00	-5.999207e+01
1.910000e-06	2.929416e-07	-7.992344e-10	2.078487e+00	-5.785636e+01
1.920000e-06	3.387821e-07	-7.651268e-10	2.403736e+00	-5.566829e+01
1.930000e-06	3.846062e-07	-7.306732e-10	2.728869e+00	-5.342810e+01
1.940000e-06	4.303344e-07	-6.980053e-10	3.053321e+00	-5.113618e+01
1.950000e-06	4.760440e-07	-6.684137e-10	3.377641e+00	-4.879310e+01
1.960000e-06	5.218124e-07	-6.398847e-10	3.702378e+00	-4.639963e+01
1.970000e-06	5.675215e-07	-6.083640e-10	4.026695e+00	-4.395666e+01
1.980000e-06	6.130865e-07	-5.706010e-10	4.349988e+00	-4.146531e+01
1.990000e-06	6.585696e-07	-5.291823e-10	4.672702e+00	-3.892682e+01
2.000000e-06	7.040015e-07	-4.904057e-10	4.995051e+00	-3.634264e+01
2.010000e-06	7.494633e-07	-4.531606e-10	5.317613e+00	-3.371434e+01
2.020000e-06	7.949505e-07	-4.143648e-10	5.640355e+00	-3.104369e+01
2.030000e-06	8.403509e-07	-3.774650e-10	5.962482e+00	-2.833257e+01
2.040000e-06	8.856831e-07	-3.441052e-10	6.284123e+00	-2.558302e+01
2.050000e-06	9.309890e-07	-3.096537e-10	6.605579e+00	-2.279721e+01
2.060000e-06	9.762091e-07	-2.684959e-10	6.926427e+00	-1.997742e+01
2.070000e-06	1.021362e-06	-2.221281e-10	7.246796e+00	-1.712605e+01
2.080000e-06	1.066433e-06	-1.761962e-10	7.566589e+00	-1.424560e+01
2.090000e-06	1.111404e-06	-1.335414e-10	7.885666e+00	-1.133866e+01
2.100000e-06	1.156258e-06	-9.082661e-11	8.203917e+00	-8.407881e+00
2.110000e-06	1.200915e-06	-4.939709e-11	8.520764e+00	-5.455999e+00
2.120000e-06	1.245539e-06	-8.670951e-12	8.837383e+00	-2.485789e+00
2.130000e-06	1.290031e-06	3.154020e-11	9.153062e+00	4.999260e-01
2.140000e-06	1.334325e-06	7.304293e-11	9.467343e+00	3.498296e+00
2.150000e-06	1.378595e-06	1.169802e-10	9.781447e+00	6.506450e+00
2.160000e-06	1.422845e-06	1.643822e-10	1.009541e+01	9.521510e+00
2.170000e-06	1.467101e-06	2.135794e-10	1.040941e+01	1.254060e+01
2.180000e-06	1.511294e-06	2.600928e-10	1.072298e+01	1.556085e+01
2.190000e-06	1.555385e-06	3.021953e-10	1.103581e+01	1.857942e+01
2.200000e-06	1.599438e-06	3.408438e-10	1.134838e+01	2.159350e+01
2.210000e-06	1.643437e-06	3.805030e-10	1.166056e+01	2.460030e+01
2.220000e-06	1.687380e-06	4.242458e-10	1.197235e+01	2.759709e+01
2.230000e-06	1.731298e-06	4.693661e-10	1.228396e+01	3.058120e+01
2.240000e-06	1.775165e-06	5.143322e-10	1.259520e+01	3.355000e+01
2.250000e-06	1.818969e-06	5.582911e-10	1.290600e+01	3.650092e+01
2.260000e-06	1.862749e-06	6.017653e-10	1.321663e+01	3.943149e+01
2.270000e-06	1.906381e-06	6.464235e-10	1.352621e+01	4.233929e+01
2.280000e-06	1.949759e-06	6.895923e-10	1.383399e+01	4.522199e+01
2.290000e-06	1.993041e-06	7.294215e-10	1.414108e+01	4.807734e+01
2.300000e-06	2.036197e-06	7.711534e-10	1.444728e+01	5.090318e+01
2.310000e-06	2.079042e-06	8.144259e-10	1.475128e+01	5.369744e+01
2.320000e-06	2.121544e-06	8.562972e-10	1.505284e+01	5.645816e+01
2.330000e-06	2.163681e-06	8.932990e-10	1.535181e+01	5.918347e+01
2.340000e-06	2.205418e-06	9.261963e-10	1.564794e+01	6.187160e+01
2.350000e-06	2.246866e-06	9.611218e-10	1.594202e+01	6.452088e+01
2.360000e-06	2.288118e-06	1.001093e-09	1.623472e+01	6.712976e+01
2.370000e-06	2.329118e-06	1.044951e-09	1.652562e+01	6.969681e+01
2.380000e-06	2.369910e-06	1.087913e-09	1.681506e+01	7.222068e+01
2.390000e-06	2.410530e-06	1.128530e-09	1.710326e+01	7.470016e+01
2.400000e-06	2.450985e-06	1.163428e-09	1.739030e+01	7.713416e+01
2.410000e-06	2.491305e-06	1.192046e-09	1.767638e+01	7.952168e+01
2.420000e-06	2.531490e-06	1.216719e-09	1.796150e+01	8.186186e+01
2.430000e-06	2.571561e-06	1.243363e-09	1.824581e+01	8.415394e+01
2.440000e-06	2.611544e-06	1.275222e-09	1.852950e+01	8.639730e+01
2.450000e-06	2.651464e-06	1.311081e-09	1.881274e+01	8.859140e+01
2.460000e-06	2.691253e-06	1.347913e-09	1.909505e+01	9.073584e+01
2.470000e-06	2.730823e-06	1.382332e-09	1.937581e+01	9.283032e+01
2.480000e-06	2.770272e-06	1.410344e-09	1.965571e+01	9.487466e+01
2.490000e-06	2.809581e-06	1.434314e-09	1.993462e+01	9.686877e+01
2.500000e-06	2.848606e-06	1.457539e-09	2.021151e+01	9.881266e+01
2.510000e-06	2.887314e-06	1.480970e-09	2.048615e+01	1.007065e+02
2.520000e-06	2.925818e-06	1.505443e-09	2.075935e+01	1.025504e+02
2.530000e-06	2.964207e-06	1.533173e-09	2.103172e+01	1.043446e+02
2.540000e-06	3.002388e-06	1.563328e-09	2.130263e+01	1.060897e+02
2.550000e-06	3.040359e-06	1.593326e-09	2.157204e+01	1.077860e+02
2.560000e-06	3.078119e-06	1.620505e-09	2.183996e+01	1.094340e+02
2.570000e-06	3.115652e-06	1.642915e-09	2.210626e+01	1.110343e+02
2.580000e-06	3.152998e-06	1.660620e-09	2.237124e+01	1.125875e+02
2.590000e-06	3.190133e-06	1.677807e-09	2.263472e+01	1.140944e+02
2.600000e-06	3.227053e-06	1.695975e-09	2.289668e+01	1.155556e+02
2.610000e-06	3.263700e-06	1.714495e-09	2.315670e+01	1.169719e+02
2.620000e-06	3.300085e-06	1.734439e-09	2.341486e+01	1.183440e+02
2.630000e-06	3.336333e-06	1.755862e-09	2.367204e+01	1.196729e+02
2.640000e-06	3.372449e-06	1.776406e-09	2.392830e+01	1.209594e+02
2.650000e-06	3.408459e-06	1.792424e-09	2.418379e+01	1.222042e+02
2.660000e-06	3.444374e-06	1.806860e-09	2.443862e+01	1.234083e+02
2.670000e-06	3.480125e-06	1.822864e-09	2.469228e+01	1.245726e+02
2.680000e-06	3.515648e-06	1.839050e-09	2.494432e+01	1.256979e+02
2.690000e-06	3.550884e-06	1.852405e-09	2.519433e+01	1.267852e+02
2.700000e-06	3.585800e-06	1.863816e-09	2.544207e+01	1.278353e+02
2.710000e-06	3.620366e-06	1.877944e-09	2.568732e+01	1.288491e+02
2.720000e-06	3.654463e-06	1.894990e-09	2.592925e+01	1.298275e+02
2.730000e-06	3.688077e-06	1.910008e-09	2.616775e+01	1.307714e+02
2.740000e-06	3.721312e-06	1.921638e-09	2.640356e+01	1.316818e+02
2.750000e-06	3.754160e-06	1.933238e-09	2.663662e+01	1.325596e+02
2.760000e-06	3.786627e-06	1.948310e-09	2.686699e+01	1.334055e+02
2.770000e-06	3.818867e-06	1.961378e-09	2.709573e+01	1.342207e+02
2.780000e-06	3.850977e-06	1.968691e-09	2.732356e+01	1.350060e+02
2.790000e-06	3.882958e-06	1.975321e-09	2.755047e+01	1.357623e+02
2.800000e-06	3.914794e-06	1.985359e-09	2.777636e+01	1.364905e+02
2.810000e-06	3.946332e-06	1.995493e-09	2.800013e+01	1.371917e+02
2.820000e-06	3.977511e-06	2.004677e-09	2.822135e+01	1.378668e+02
2.830000e-06	4.008406e-06	2.012730e-09	2.844056e+01	1.385168e+02
2.840000e-06	4.038968e-06	2.022062e-09	2.865740e+01	1.391425e+02
2.850000e-06	4.069231e-06	2.034866e-09	2.887213e+01	1.397451e+02
2.860000e-06	4.099298e-06	2.047588e-09	2.908545e+01	1.403254e+02
2.870000e-06	4.129180e-06	2.056815e-09	2.929747e+01	1.408846e+02
2.880000e-06	4.158814e-06	2.064701e-09	2.950774e+01	1.414234e+02
2.890000e-06	4.188133e-06	2.071260e-09	2.971576e+01	1.419430e+02
2.900000e-06	4.217109e-06	2.075511e-09	2.992135e+01	1.424443e+02
