# Temperatura_=_-11.79
# Concentracion g/m^3_=_4090.0
# C_Vs_to_Am_M_A/Vsm_=_65563218390.804596
# pendiente_HvsI_1/m_=_3716.3
# ordenada_HvsI_A/m_=_1297.0
# frecuencia_Hz_=_135072.21610585324

Tiempo_(s)	Campo_(V.s)	Magnetizacion_(V.s)	Campo_(kA/m)	Magnetizacion_(A/m)
0.000000e+00	-5.406271e-06	-1.913753e-09	-3.840512e+01	-1.260311e+02
1.000000e-08	-5.406367e-06	-1.920237e-09	-3.840580e+01	-1.260208e+02
2.000000e-08	-5.406265e-06	-1.926140e-09	-3.840508e+01	-1.260087e+02
3.000000e-08	-5.405833e-06	-1.926057e-09	-3.840201e+01	-1.259958e+02
4.000000e-08	-5.404964e-06	-1.919074e-09	-3.839583e+01	-1.259829e+02
5.000000e-08	-5.403547e-06	-1.914656e-09	-3.838577e+01	-1.259708e+02
6.000000e-08	-5.401528e-06	-1.930179e-09	-3.837142e+01	-1.259601e+02
7.000000e-08	-5.398895e-06	-1.933660e-09	-3.835272e+01	-1.259514e+02
8.000000e-08	-5.395629e-06	-1.850804e-09	-3.832952e+01	-1.259453e+02
9.000000e-08	-5.391840e-06	-1.815708e-09	-3.830260e+01	-1.259420e+02
1.000000e-07	-5.387756e-06	-1.982515e-09	-3.827359e+01	-1.259419e+02
1.100000e-07	-5.383423e-06	-2.063592e-09	-3.824281e+01	-1.259451e+02
1.200000e-07	-5.378834e-06	-1.882927e-09	-3.821021e+01	-1.259515e+02
1.300000e-07	-5.374019e-06	-1.791593e-09	-3.817601e+01	-1.259611e+02
1.400000e-07	-5.368876e-06	-1.946605e-09	-3.813947e+01	-1.259734e+02
1.500000e-07	-5.363362e-06	-2.101813e-09	-3.810030e+01	-1.259882e+02
1.600000e-07	-5.357436e-06	-1.843021e-09	-3.805820e+01	-1.260048e+02
1.700000e-07	-5.351120e-06	-1.764454e-09	-3.801333e+01	-1.260227e+02
1.800000e-07	-5.344439e-06	-1.953371e-09	-3.796587e+01	-1.260410e+02
1.900000e-07	-5.337400e-06	-2.083452e-09	-3.791587e+01	-1.260589e+02
2.000000e-07	-5.330057e-06	-1.909078e-09	-3.786371e+01	-1.260756e+02
2.100000e-07	-5.322482e-06	-1.899204e-09	-3.780990e+01	-1.260900e+02
2.200000e-07	-5.314651e-06	-2.064941e-09	-3.775427e+01	-1.261011e+02
2.300000e-07	-5.306498e-06	-2.027539e-09	-3.769635e+01	-1.261078e+02
2.400000e-07	-5.297823e-06	-1.895511e-09	-3.763473e+01	-1.261092e+02
2.500000e-07	-5.288510e-06	-1.973361e-09	-3.756857e+01	-1.261041e+02
2.600000e-07	-5.278492e-06	-2.098927e-09	-3.749740e+01	-1.260916e+02
2.700000e-07	-5.267909e-06	-1.935700e-09	-3.742222e+01	-1.260707e+02
2.800000e-07	-5.256947e-06	-1.886382e-09	-3.734435e+01	-1.260405e+02
2.900000e-07	-5.245565e-06	-2.041035e-09	-3.726350e+01	-1.260002e+02
3.000000e-07	-5.233792e-06	-2.050686e-09	-3.717986e+01	-1.259491e+02
3.100000e-07	-5.221574e-06	-1.838082e-09	-3.709307e+01	-1.258865e+02
3.200000e-07	-5.208995e-06	-1.906772e-09	-3.700371e+01	-1.258119e+02
3.300000e-07	-5.196050e-06	-2.024042e-09	-3.691175e+01	-1.257250e+02
3.400000e-07	-5.182710e-06	-1.955035e-09	-3.681698e+01	-1.256255e+02
3.500000e-07	-5.168953e-06	-1.869676e-09	-3.671925e+01	-1.255132e+02
3.600000e-07	-5.154838e-06	-1.987693e-09	-3.661898e+01	-1.253883e+02
3.700000e-07	-5.140357e-06	-1.952395e-09	-3.651612e+01	-1.252507e+02
3.800000e-07	-5.125366e-06	-1.893634e-09	-3.640962e+01	-1.251007e+02
3.900000e-07	-5.109825e-06	-1.935569e-09	-3.629922e+01	-1.249388e+02
4.000000e-07	-5.093689e-06	-1.958583e-09	-3.618460e+01	-1.247653e+02
4.100000e-07	-5.076989e-06	-1.855044e-09	-3.606596e+01	-1.245809e+02
4.200000e-07	-5.059990e-06	-1.908657e-09	-3.594520e+01	-1.243862e+02
4.300000e-07	-5.042697e-06	-1.977484e-09	-3.582236e+01	-1.241819e+02
4.400000e-07	-5.025130e-06	-1.908220e-09	-3.569756e+01	-1.239688e+02
4.500000e-07	-5.007323e-06	-1.862853e-09	-3.557107e+01	-1.237477e+02
4.600000e-07	-4.989092e-06	-1.930352e-09	-3.544156e+01	-1.235195e+02
4.700000e-07	-4.970442e-06	-1.929068e-09	-3.530907e+01	-1.232851e+02
4.800000e-07	-4.951390e-06	-1.878816e-09	-3.517373e+01	-1.230452e+02
4.900000e-07	-4.931994e-06	-1.883505e-09	-3.503595e+01	-1.228006e+02
5.000000e-07	-4.912384e-06	-1.878215e-09	-3.489664e+01	-1.225522e+02
5.100000e-07	-4.892612e-06	-1.883537e-09	-3.475618e+01	-1.223007e+02
5.200000e-07	-4.872624e-06	-1.897454e-09	-3.461419e+01	-1.220467e+02
5.300000e-07	-4.852348e-06	-1.880243e-09	-3.447015e+01	-1.217909e+02
5.400000e-07	-4.831800e-06	-1.844577e-09	-3.432419e+01	-1.215337e+02
5.500000e-07	-4.810891e-06	-1.886171e-09	-3.417565e+01	-1.212756e+02
5.600000e-07	-4.789590e-06	-1.885686e-09	-3.402434e+01	-1.210168e+02
5.700000e-07	-4.767961e-06	-1.848914e-09	-3.387069e+01	-1.207576e+02
5.800000e-07	-4.745927e-06	-1.829142e-09	-3.371416e+01	-1.204982e+02
5.900000e-07	-4.723620e-06	-1.852056e-09	-3.355570e+01	-1.202386e+02
6.000000e-07	-4.701054e-06	-1.847446e-09	-3.339539e+01	-1.199786e+02
6.100000e-07	-4.678151e-06	-1.853920e-09	-3.323269e+01	-1.197183e+02
6.200000e-07	-4.655032e-06	-1.829901e-09	-3.306846e+01	-1.194572e+02
6.300000e-07	-4.631603e-06	-1.826418e-09	-3.290202e+01	-1.191952e+02
6.400000e-07	-4.607819e-06	-1.840074e-09	-3.273307e+01	-1.189318e+02
6.500000e-07	-4.583835e-06	-1.844286e-09	-3.256269e+01	-1.186667e+02
6.600000e-07	-4.559599e-06	-1.797773e-09	-3.239052e+01	-1.183994e+02
6.700000e-07	-4.535040e-06	-1.790185e-09	-3.221606e+01	-1.181293e+02
6.800000e-07	-4.510068e-06	-1.805593e-09	-3.203866e+01	-1.178561e+02
6.900000e-07	-4.484619e-06	-1.817354e-09	-3.185788e+01	-1.175791e+02
7.000000e-07	-4.458647e-06	-1.803377e-09	-3.167338e+01	-1.172979e+02
7.100000e-07	-4.432136e-06	-1.798053e-09	-3.148505e+01	-1.170119e+02
7.200000e-07	-4.405104e-06	-1.798601e-09	-3.129302e+01	-1.167207e+02
7.300000e-07	-4.377689e-06	-1.806605e-09	-3.109827e+01	-1.164239e+02
7.400000e-07	-4.350083e-06	-1.789307e-09	-3.090216e+01	-1.161211e+02
7.500000e-07	-4.322292e-06	-1.764832e-09	-3.070474e+01	-1.158120e+02
7.600000e-07	-4.294333e-06	-1.766347e-09	-3.050613e+01	-1.154962e+02
7.700000e-07	-4.266203e-06	-1.780116e-09	-3.030629e+01	-1.151735e+02
7.800000e-07	-4.237757e-06	-1.776701e-09	-3.010422e+01	-1.148439e+02
7.900000e-07	-4.208980e-06	-1.760663e-09	-2.989979e+01	-1.145072e+02
8.000000e-07	-4.179886e-06	-1.757588e-09	-2.969311e+01	-1.141634e+02
8.100000e-07	-4.150432e-06	-1.758639e-09	-2.948388e+01	-1.138125e+02
8.200000e-07	-4.120702e-06	-1.757823e-09	-2.927268e+01	-1.134546e+02
8.300000e-07	-4.090712e-06	-1.738225e-09	-2.905964e+01	-1.130899e+02
8.400000e-07	-4.060547e-06	-1.726850e-09	-2.884535e+01	-1.127186e+02
8.500000e-07	-4.030105e-06	-1.727457e-09	-2.862910e+01	-1.123410e+02
8.600000e-07	-3.999302e-06	-1.733884e-09	-2.841028e+01	-1.119572e+02
8.700000e-07	-3.968366e-06	-1.719438e-09	-2.819052e+01	-1.115676e+02
8.800000e-07	-3.937164e-06	-1.707398e-09	-2.796886e+01	-1.111725e+02
8.900000e-07	-3.905585e-06	-1.703322e-09	-2.774453e+01	-1.107723e+02
9.000000e-07	-3.873867e-06	-1.711223e-09	-2.751921e+01	-1.103672e+02
9.100000e-07	-3.842003e-06	-1.697732e-09	-2.729286e+01	-1.099576e+02
9.200000e-07	-3.809936e-06	-1.679935e-09	-2.706506e+01	-1.095438e+02
9.300000e-07	-3.777649e-06	-1.666043e-09	-2.683570e+01	-1.091261e+02
9.400000e-07	-3.745033e-06	-1.670255e-09	-2.660400e+01	-1.087047e+02
9.500000e-07	-3.712093e-06	-1.665847e-09	-2.637000e+01	-1.082798e+02
9.600000e-07	-3.678803e-06	-1.656828e-09	-2.613352e+01	-1.078516e+02
9.700000e-07	-3.645074e-06	-1.647372e-09	-2.589391e+01	-1.074202e+02
9.800000e-07	-3.610947e-06	-1.650500e-09	-2.565148e+01	-1.069858e+02
9.900000e-07	-3.576358e-06	-1.642254e-09	-2.540577e+01	-1.065483e+02
1.000000e-06	-3.541291e-06	-1.625615e-09	-2.515666e+01	-1.061077e+02
1.010000e-06	-3.505938e-06	-1.608147e-09	-2.490552e+01	-1.056640e+02
1.020000e-06	-3.470399e-06	-1.601469e-09	-2.465305e+01	-1.052169e+02
1.030000e-06	-3.434731e-06	-1.596267e-09	-2.439968e+01	-1.047665e+02
1.040000e-06	-3.398939e-06	-1.588939e-09	-2.414541e+01	-1.043124e+02
1.050000e-06	-3.362973e-06	-1.581631e-09	-2.388992e+01	-1.038543e+02
1.060000e-06	-3.326850e-06	-1.579581e-09	-2.363331e+01	-1.033921e+02
1.070000e-06	-3.290538e-06	-1.577338e-09	-2.337536e+01	-1.029254e+02
1.080000e-06	-3.253965e-06	-1.563525e-09	-2.311555e+01	-1.024539e+02
1.090000e-06	-3.217112e-06	-1.543387e-09	-2.285375e+01	-1.019772e+02
1.100000e-06	-3.180002e-06	-1.529721e-09	-2.259013e+01	-1.014949e+02
1.110000e-06	-3.142682e-06	-1.525755e-09	-2.232501e+01	-1.010067e+02
1.120000e-06	-3.105151e-06	-1.518579e-09	-2.205840e+01	-1.005123e+02
1.130000e-06	-3.067443e-06	-1.509979e-09	-2.179053e+01	-1.000112e+02
1.140000e-06	-3.029591e-06	-1.503535e-09	-2.152164e+01	-9.950305e+01
1.150000e-06	-2.991599e-06	-1.502336e-09	-2.125175e+01	-9.898759e+01
1.160000e-06	-2.953327e-06	-1.492938e-09	-2.097987e+01	-9.846448e+01
1.170000e-06	-2.914668e-06	-1.479024e-09	-2.070525e+01	-9.793343e+01
1.180000e-06	-2.875853e-06	-1.463060e-09	-2.042951e+01	-9.739415e+01
1.190000e-06	-2.836946e-06	-1.457055e-09	-2.015312e+01	-9.684643e+01
1.200000e-06	-2.797905e-06	-1.448071e-09	-1.987579e+01	-9.629004e+01
1.210000e-06	-2.758679e-06	-1.436485e-09	-1.959713e+01	-9.572482e+01
1.220000e-06	-2.719197e-06	-1.424229e-09	-1.931666e+01	-9.515062e+01
1.230000e-06	-2.679567e-06	-1.420878e-09	-1.903513e+01	-9.456733e+01
1.240000e-06	-2.639865e-06	-1.414287e-09	-1.875310e+01	-9.397486e+01
1.250000e-06	-2.600042e-06	-1.405454e-09	-1.847020e+01	-9.337315e+01
1.260000e-06	-2.560127e-06	-1.391434e-09	-1.818665e+01	-9.276218e+01
1.270000e-06	-2.520117e-06	-1.381016e-09	-1.790243e+01	-9.214195e+01
1.280000e-06	-2.479938e-06	-1.372158e-09	-1.761701e+01	-9.151246e+01
1.290000e-06	-2.439627e-06	-1.363281e-09	-1.733065e+01	-9.087376e+01
1.300000e-06	-2.399168e-06	-1.350315e-09	-1.704323e+01	-9.022589e+01
1.310000e-06	-2.358463e-06	-1.338015e-09	-1.675407e+01	-8.956891e+01
1.320000e-06	-2.317416e-06	-1.329122e-09	-1.646248e+01	-8.890289e+01
1.330000e-06	-2.276097e-06	-1.320976e-09	-1.616896e+01	-8.822791e+01
1.340000e-06	-2.234614e-06	-1.309281e-09	-1.587427e+01	-8.754405e+01
1.350000e-06	-2.192898e-06	-1.296302e-09	-1.557793e+01	-8.685138e+01
1.360000e-06	-2.150816e-06	-1.286121e-09	-1.527899e+01	-8.614998e+01
1.370000e-06	-2.108380e-06	-1.275060e-09	-1.497753e+01	-8.543991e+01
1.380000e-06	-2.065670e-06	-1.260690e-09	-1.467413e+01	-8.472125e+01
1.390000e-06	-2.022745e-06	-1.246429e-09	-1.436920e+01	-8.399403e+01
1.400000e-06	-1.979659e-06	-1.236356e-09	-1.406312e+01	-8.325831e+01
1.410000e-06	-1.936447e-06	-1.227335e-09	-1.375615e+01	-8.251411e+01
1.420000e-06	-1.893127e-06	-1.217413e-09	-1.344841e+01	-8.176145e+01
1.430000e-06	-1.849647e-06	-1.201689e-09	-1.313954e+01	-8.100032e+01
1.440000e-06	-1.806042e-06	-1.184553e-09	-1.282978e+01	-8.023072e+01
1.450000e-06	-1.762380e-06	-1.170660e-09	-1.251961e+01	-7.945262e+01
1.460000e-06	-1.718607e-06	-1.162020e-09	-1.220866e+01	-7.866597e+01
1.470000e-06	-1.674737e-06	-1.149991e-09	-1.189702e+01	-7.787073e+01
1.480000e-06	-1.630848e-06	-1.137952e-09	-1.158523e+01	-7.706681e+01
1.490000e-06	-1.586893e-06	-1.127506e-09	-1.127299e+01	-7.625414e+01
1.500000e-06	-1.542800e-06	-1.116440e-09	-1.095975e+01	-7.543262e+01
1.510000e-06	-1.498679e-06	-1.100245e-09	-1.064633e+01	-7.460213e+01
1.520000e-06	-1.454546e-06	-1.083673e-09	-1.033282e+01	-7.376255e+01
1.530000e-06	-1.410284e-06	-1.069863e-09	-1.001839e+01	-7.291374e+01
1.540000e-06	-1.365906e-06	-1.059055e-09	-9.703139e+00	-7.205557e+01
1.550000e-06	-1.321479e-06	-1.048535e-09	-9.387532e+00	-7.118787e+01
1.560000e-06	-1.277057e-06	-1.038923e-09	-9.071971e+00	-7.031047e+01
1.570000e-06	-1.232546e-06	-1.026898e-09	-8.755770e+00	-6.942321e+01
1.580000e-06	-1.187849e-06	-1.012905e-09	-8.438250e+00	-6.852590e+01
1.590000e-06	-1.143019e-06	-9.958066e-10	-8.119792e+00	-6.761834e+01
1.600000e-06	-1.098150e-06	-9.783265e-10	-7.801045e+00	-6.670035e+01
1.610000e-06	-1.053169e-06	-9.583804e-10	-7.481513e+00	-6.577172e+01
1.620000e-06	-1.008000e-06	-9.431826e-10	-7.160640e+00	-6.483225e+01
1.630000e-06	-9.627761e-07	-9.308123e-10	-6.839378e+00	-6.388173e+01
1.640000e-06	-9.175417e-07	-9.181249e-10	-6.518041e+00	-6.291995e+01
1.650000e-06	-8.722767e-07	-9.046363e-10	-6.196487e+00	-6.194670e+01
1.660000e-06	-8.270360e-07	-8.905203e-10	-5.875106e+00	-6.096178e+01
1.670000e-06	-7.817128e-07	-8.762983e-10	-5.553139e+00	-5.996499e+01
1.680000e-06	-7.362510e-07	-8.577144e-10	-5.230186e+00	-5.895611e+01
1.690000e-06	-6.906883e-07	-8.357221e-10	-4.906518e+00	-5.793497e+01
1.700000e-06	-6.450887e-07	-8.158791e-10	-4.582587e+00	-5.690138e+01
1.710000e-06	-5.994484e-07	-8.019932e-10	-4.258367e+00	-5.585517e+01
1.720000e-06	-5.537449e-07	-7.894344e-10	-3.933698e+00	-5.479618e+01
1.730000e-06	-5.080533e-07	-7.742645e-10	-3.609114e+00	-5.372426e+01
1.740000e-06	-4.623362e-07	-7.570555e-10	-3.284348e+00	-5.263929e+01
1.750000e-06	-4.165522e-07	-7.438375e-10	-2.959108e+00	-5.154116e+01
1.760000e-06	-3.707780e-07	-7.324093e-10	-2.633936e+00	-5.042977e+01
1.770000e-06	-3.250266e-07	-7.170971e-10	-2.308927e+00	-4.930506e+01
1.780000e-06	-2.792461e-07	-6.963072e-10	-1.983711e+00	-4.816698e+01
1.790000e-06	-2.334800e-07	-6.765186e-10	-1.658597e+00	-4.701550e+01
1.800000e-06	-1.877303e-07	-6.570446e-10	-1.333600e+00	-4.585063e+01
1.810000e-06	-1.419511e-07	-6.393137e-10	-1.008394e+00	-4.467238e+01
1.820000e-06	-9.611223e-08	-6.227476e-10	-6.827629e-01	-4.348080e+01
1.830000e-06	-5.026261e-08	-6.077304e-10	-3.570560e-01	-4.227596e+01
1.840000e-06	-4.458170e-09	-5.902823e-10	-3.166999e-02	-4.105794e+01
1.850000e-06	4.131883e-08	-5.712040e-10	2.935211e-01	-3.982685e+01
1.860000e-06	8.709457e-08	-5.511766e-10	6.187032e-01	-3.858282e+01
1.870000e-06	1.328989e-07	-5.298244e-10	9.440886e-01	-3.732599e+01
1.880000e-06	1.786851e-07	-5.081905e-10	1.269345e+00	-3.605651e+01
1.890000e-06	2.245118e-07	-4.884114e-10	1.594889e+00	-3.477454e+01
1.900000e-06	2.704176e-07	-4.677229e-10	1.920995e+00	-3.348025e+01
1.910000e-06	3.162528e-07	-4.472191e-10	2.246599e+00	-3.217383e+01
1.920000e-06	3.620002e-07	-4.276347e-10	2.571581e+00	-3.085544e+01
1.930000e-06	4.077114e-07	-4.089999e-10	2.896304e+00	-2.952527e+01
1.940000e-06	4.534116e-07	-3.893748e-10	3.220950e+00	-2.818348e+01
1.950000e-06	4.990872e-07	-3.689327e-10	3.545420e+00	-2.683023e+01
1.960000e-06	5.447170e-07	-3.500409e-10	3.869566e+00	-2.546567e+01
1.970000e-06	5.903397e-07	-3.320738e-10	4.193661e+00	-2.408995e+01
1.980000e-06	6.359679e-07	-3.127076e-10	4.517795e+00	-2.270317e+01
1.990000e-06	6.815690e-07	-2.902280e-10	4.841736e+00	-2.130547e+01
2.000000e-06	7.271328e-07	-2.667305e-10	5.165413e+00	-1.989691e+01
2.010000e-06	7.726374e-07	-2.453205e-10	5.488669e+00	-1.847759e+01
2.020000e-06	8.181050e-07	-2.259321e-10	5.811662e+00	-1.704757e+01
2.030000e-06	8.634810e-07	-2.061651e-10	6.134004e+00	-1.560688e+01
2.040000e-06	9.087113e-07	-1.857325e-10	6.455312e+00	-1.415557e+01
2.050000e-06	9.538436e-07	-1.662201e-10	6.775923e+00	-1.269365e+01
2.060000e-06	9.988245e-07	-1.491404e-10	7.095459e+00	-1.122116e+01
2.070000e-06	1.043664e-06	-1.300118e-10	7.413993e+00	-9.738113e+00
2.080000e-06	1.088487e-06	-1.062902e-10	7.732404e+00	-8.244526e+00
2.090000e-06	1.133282e-06	-7.716480e-11	8.050620e+00	-6.740433e+00
2.100000e-06	1.177961e-06	-5.064583e-11	8.368009e+00	-5.225879e+00
2.110000e-06	1.222550e-06	-2.886884e-11	8.684761e+00	-3.700929e+00
2.120000e-06	1.267057e-06	-1.087817e-11	9.000932e+00	-2.165675e+00
2.130000e-06	1.311490e-06	5.994530e-12	9.316578e+00	-6.202377e-01
2.140000e-06	1.355874e-06	2.263733e-11	9.631870e+00	9.352207e-01
2.150000e-06	1.400135e-06	4.109098e-11	9.946289e+00	2.500496e+00
2.160000e-06	1.444293e-06	6.343522e-11	1.025998e+01	4.075334e+00
2.170000e-06	1.488386e-06	9.164061e-11	1.057321e+01	5.659426e+00
2.180000e-06	1.532400e-06	1.224923e-10	1.088588e+01	7.252406e+00
2.190000e-06	1.576367e-06	1.497794e-10	1.119821e+01	8.853845e+00
2.200000e-06	1.620279e-06	1.700203e-10	1.151015e+01	1.046325e+01
2.210000e-06	1.664169e-06	1.862891e-10	1.182194e+01	1.208006e+01
2.220000e-06	1.708008e-06	2.034095e-10	1.213336e+01	1.370364e+01
2.230000e-06	1.751772e-06	2.221365e-10	1.244425e+01	1.533330e+01
2.240000e-06	1.795467e-06	2.422002e-10	1.275466e+01	1.696828e+01
2.250000e-06	1.839087e-06	2.659073e-10	1.306452e+01	1.860775e+01
2.260000e-06	1.882637e-06	2.957960e-10	1.337389e+01	2.025082e+01
2.270000e-06	1.926069e-06	3.284731e-10	1.368243e+01	2.189656e+01
2.280000e-06	1.969371e-06	3.544303e-10	1.399003e+01	2.354396e+01
2.290000e-06	2.012528e-06	3.730151e-10	1.429661e+01	2.519200e+01
2.300000e-06	2.055442e-06	3.921033e-10	1.460147e+01	2.683958e+01
2.310000e-06	2.098090e-06	4.111289e-10	1.490443e+01	2.848563e+01
2.320000e-06	2.140483e-06	4.317438e-10	1.520559e+01	3.012900e+01
2.330000e-06	2.182563e-06	4.524062e-10	1.550451e+01	3.176856e+01
2.340000e-06	2.224312e-06	4.762484e-10	1.580109e+01	3.340318e+01
2.350000e-06	2.265731e-06	5.037276e-10	1.609532e+01	3.503173e+01
2.360000e-06	2.306919e-06	5.318718e-10	1.638791e+01	3.665309e+01
2.370000e-06	2.347884e-06	5.579562e-10	1.667892e+01	3.826617e+01
2.380000e-06	2.388539e-06	5.824620e-10	1.696773e+01	3.986992e+01
2.390000e-06	2.428949e-06	6.037389e-10	1.725479e+01	4.146332e+01
2.400000e-06	2.469208e-06	6.214835e-10	1.754078e+01	4.304542e+01
2.410000e-06	2.509327e-06	6.385636e-10	1.782578e+01	4.461529e+01
2.420000e-06	2.549343e-06	6.586285e-10	1.811005e+01	4.617211e+01
2.430000e-06	2.589302e-06	6.827721e-10	1.839391e+01	4.771508e+01
2.440000e-06	2.629164e-06	7.076714e-10	1.867708e+01	4.924350e+01
2.450000e-06	2.668925e-06	7.308713e-10	1.895953e+01	5.075673e+01
2.460000e-06	2.708580e-06	7.549153e-10	1.924123e+01	5.225421e+01
2.470000e-06	2.748013e-06	7.791953e-10	1.952136e+01	5.373544e+01
2.480000e-06	2.787218e-06	7.988697e-10	1.979987e+01	5.520001e+01
2.490000e-06	2.826294e-06	8.140426e-10	2.007745e+01	5.664757e+01
2.500000e-06	2.865144e-06	8.314478e-10	2.035344e+01	5.807785e+01
2.510000e-06	2.903702e-06	8.537552e-10	2.062735e+01	5.949063e+01
2.520000e-06	2.942069e-06	8.758484e-10	2.089990e+01	6.088575e+01
2.530000e-06	2.980265e-06	8.960535e-10	2.117123e+01	6.226311e+01
2.540000e-06	3.018272e-06	9.167189e-10	2.144123e+01	6.362265e+01
2.550000e-06	3.056202e-06	9.416238e-10	2.171067e+01	6.496436e+01
2.560000e-06	3.093939e-06	9.640272e-10	2.197875e+01	6.628827e+01
2.570000e-06	3.131357e-06	9.798852e-10	2.224456e+01	6.759441e+01
2.580000e-06	3.168531e-06	9.948661e-10	2.250864e+01	6.888286e+01
2.590000e-06	3.205555e-06	1.013369e-09	2.277165e+01	7.015369e+01
2.600000e-06	3.242434e-06	1.032470e-09	2.303363e+01	7.140701e+01
2.610000e-06	3.279072e-06	1.048580e-09	2.329390e+01	7.264291e+01
2.620000e-06	3.315465e-06	1.062616e-09	2.355243e+01	7.386148e+01
2.630000e-06	3.351601e-06	1.080530e-09	2.380914e+01	7.506281e+01
2.640000e-06	3.387548e-06	1.101898e-09	2.406450e+01	7.624697e+01
2.650000e-06	3.423361e-06	1.120411e-09	2.431891e+01	7.741403e+01
2.660000e-06	3.459092e-06	1.132942e-09	2.457273e+01	7.856404e+01
2.670000e-06	3.494663e-06	1.147291e-09	2.482542e+01	7.969703e+01
2.680000e-06	3.529929e-06	1.165115e-09	2.507594e+01	8.081302e+01
2.690000e-06	3.564922e-06	1.178472e-09	2.532452e+01	8.191201e+01
2.700000e-06	3.599635e-06	1.187400e-09	2.557112e+01	8.299401e+01
2.710000e-06	3.633972e-06	1.199485e-09	2.581505e+01	8.405897e+01
2.720000e-06	3.667800e-06	1.217738e-09	2.605535e+01	8.510687e+01
2.730000e-06	3.701074e-06	1.235380e-09	2.629172e+01	8.613767e+01
2.740000e-06	3.733925e-06	1.249042e-09	2.652509e+01	8.715133e+01
2.750000e-06	3.766510e-06	1.263978e-09	2.675657e+01	8.814782e+01
2.760000e-06	3.798855e-06	1.282102e-09	2.698634e+01	8.912708e+01
2.770000e-06	3.830995e-06	1.297864e-09	2.721466e+01	9.008910e+01
2.780000e-06	3.862965e-06	1.307576e-09	2.744177e+01	9.103386e+01
2.790000e-06	3.894787e-06	1.316274e-09	2.766782e+01	9.196135e+01
2.800000e-06	3.926424e-06	1.328879e-09	2.789257e+01	9.287159e+01
2.810000e-06	3.957758e-06	1.344669e-09	2.811516e+01	9.376461e+01
2.820000e-06	3.988887e-06	1.357988e-09	2.833629e+01	9.464048e+01
2.830000e-06	4.019792e-06	1.367142e-09	2.855584e+01	9.549928e+01
2.840000e-06	4.050315e-06	1.380229e-09	2.877267e+01	9.634110e+01
2.850000e-06	4.080468e-06	1.397673e-09	2.898687e+01	9.716608e+01
2.860000e-06	4.110360e-06	1.412228e-09	2.919922e+01	9.797437e+01
2.870000e-06	4.140024e-06	1.421351e-09	2.940994e+01	9.876615e+01
2.880000e-06	4.169435e-06	1.428915e-09	2.961887e+01	9.954162e+01
2.890000e-06	4.198547e-06	1.438103e-09	2.982568e+01	1.003010e+02
2.900000e-06	4.227283e-06	1.448729e-09	3.002982e+01	1.010445e+02
