# Temperatura_=_-3.2
# Concentracion g/m^3_=_4090.0
# C_Vs_to_Am_M_A/Vsm_=_65563218390.804596
# pendiente_HvsI_1/m_=_3716.3
# ordenada_HvsI_A/m_=_1297.0
# frecuencia_Hz_=_135073.1584841673

Tiempo_(s)	Campo_(V.s)	Magnetizacion_(V.s)	Campo_(kA/m)	Magnetizacion_(A/m)
0.000000e+00	-5.414521e-06	-2.117140e-09	-3.839756e+01	-1.368784e+02
1.000000e-08	-5.414701e-06	-2.116501e-09	-3.839883e+01	-1.367601e+02
2.000000e-08	-5.414632e-06	-2.115496e-09	-3.839835e+01	-1.366437e+02
3.000000e-08	-5.414354e-06	-2.111007e-09	-3.839637e+01	-1.365311e+02
4.000000e-08	-5.413709e-06	-2.106130e-09	-3.839180e+01	-1.364244e+02
5.000000e-08	-5.412549e-06	-2.103296e-09	-3.838357e+01	-1.363253e+02
6.000000e-08	-5.410919e-06	-2.111670e-09	-3.837202e+01	-1.362358e+02
7.000000e-08	-5.408685e-06	-2.126812e-09	-3.835617e+01	-1.361574e+02
8.000000e-08	-5.405787e-06	-2.102403e-09	-3.833562e+01	-1.360916e+02
9.000000e-08	-5.402285e-06	-2.036736e-09	-3.831079e+01	-1.360399e+02
1.000000e-07	-5.398317e-06	-2.064323e-09	-3.828264e+01	-1.360032e+02
1.100000e-07	-5.394020e-06	-2.181132e-09	-3.825218e+01	-1.359825e+02
1.200000e-07	-5.389575e-06	-2.155195e-09	-3.822065e+01	-1.359783e+02
1.300000e-07	-5.385022e-06	-2.041625e-09	-3.818836e+01	-1.359909e+02
1.400000e-07	-5.380024e-06	-2.036501e-09	-3.815292e+01	-1.360205e+02
1.500000e-07	-5.374597e-06	-2.193228e-09	-3.811444e+01	-1.360667e+02
1.600000e-07	-5.368904e-06	-2.170884e-09	-3.807406e+01	-1.361290e+02
1.700000e-07	-5.362835e-06	-1.989092e-09	-3.803102e+01	-1.362067e+02
1.800000e-07	-5.356261e-06	-2.010654e-09	-3.798440e+01	-1.362985e+02
1.900000e-07	-5.349325e-06	-2.171461e-09	-3.793522e+01	-1.364032e+02
2.000000e-07	-5.342160e-06	-2.173317e-09	-3.788440e+01	-1.365192e+02
2.100000e-07	-5.334741e-06	-2.052354e-09	-3.783180e+01	-1.366447e+02
2.200000e-07	-5.327070e-06	-2.119892e-09	-3.777739e+01	-1.367778e+02
2.300000e-07	-5.319019e-06	-2.210537e-09	-3.772030e+01	-1.369164e+02
2.400000e-07	-5.310644e-06	-2.142490e-09	-3.766091e+01	-1.370583e+02
2.500000e-07	-5.301864e-06	-2.071657e-09	-3.759864e+01	-1.372011e+02
2.600000e-07	-5.292451e-06	-2.163332e-09	-3.753189e+01	-1.373427e+02
2.700000e-07	-5.282418e-06	-2.179268e-09	-3.746074e+01	-1.374807e+02
2.800000e-07	-5.271863e-06	-2.094689e-09	-3.738589e+01	-1.376128e+02
2.900000e-07	-5.260760e-06	-2.122300e-09	-3.730715e+01	-1.377369e+02
3.000000e-07	-5.249150e-06	-2.226198e-09	-3.722482e+01	-1.378509e+02
3.100000e-07	-5.237199e-06	-2.169870e-09	-3.714007e+01	-1.379530e+02
3.200000e-07	-5.224957e-06	-2.088504e-09	-3.705325e+01	-1.380414e+02
3.300000e-07	-5.212264e-06	-2.161578e-09	-3.696323e+01	-1.381147e+02
3.400000e-07	-5.199186e-06	-2.196987e-09	-3.687049e+01	-1.381714e+02
3.500000e-07	-5.185774e-06	-2.115216e-09	-3.677538e+01	-1.382107e+02
3.600000e-07	-5.171950e-06	-2.119764e-09	-3.667734e+01	-1.382318e+02
3.700000e-07	-5.157711e-06	-2.180122e-09	-3.657637e+01	-1.382341e+02
3.800000e-07	-5.142878e-06	-2.143682e-09	-3.647118e+01	-1.382173e+02
3.900000e-07	-5.127520e-06	-2.116515e-09	-3.636227e+01	-1.381817e+02
4.000000e-07	-5.111668e-06	-2.166012e-09	-3.624985e+01	-1.381273e+02
4.100000e-07	-5.095278e-06	-2.145810e-09	-3.613362e+01	-1.380549e+02
4.200000e-07	-5.078458e-06	-2.094294e-09	-3.601434e+01	-1.379651e+02
4.300000e-07	-5.061267e-06	-2.139956e-09	-3.589242e+01	-1.378589e+02
4.400000e-07	-5.043936e-06	-2.161249e-09	-3.576952e+01	-1.377375e+02
4.500000e-07	-5.026371e-06	-2.110214e-09	-3.564496e+01	-1.376022e+02
4.600000e-07	-5.008367e-06	-2.101465e-09	-3.551728e+01	-1.374545e+02
4.700000e-07	-4.989996e-06	-2.142905e-09	-3.538700e+01	-1.372958e+02
4.800000e-07	-4.971261e-06	-2.126443e-09	-3.525414e+01	-1.371279e+02
4.900000e-07	-4.952145e-06	-2.109087e-09	-3.511858e+01	-1.369523e+02
5.000000e-07	-4.932714e-06	-2.114010e-09	-3.498078e+01	-1.367707e+02
5.100000e-07	-4.912981e-06	-2.118836e-09	-3.484084e+01	-1.365847e+02
5.200000e-07	-4.892972e-06	-2.117508e-09	-3.469895e+01	-1.363958e+02
5.300000e-07	-4.872776e-06	-2.122912e-09	-3.455572e+01	-1.362055e+02
5.400000e-07	-4.852339e-06	-2.095041e-09	-3.441079e+01	-1.360151e+02
5.500000e-07	-4.831582e-06	-2.085882e-09	-3.426360e+01	-1.358258e+02
5.600000e-07	-4.810415e-06	-2.101324e-09	-3.411349e+01	-1.356387e+02
5.700000e-07	-4.788923e-06	-2.101079e-09	-3.396107e+01	-1.354546e+02
5.800000e-07	-4.767108e-06	-2.082306e-09	-3.380637e+01	-1.352741e+02
5.900000e-07	-4.744957e-06	-2.088908e-09	-3.364929e+01	-1.350979e+02
6.000000e-07	-4.722552e-06	-2.098850e-09	-3.349040e+01	-1.349263e+02
6.100000e-07	-4.699799e-06	-2.098896e-09	-3.332905e+01	-1.347592e+02
6.200000e-07	-4.676688e-06	-2.083072e-09	-3.316515e+01	-1.345968e+02
6.300000e-07	-4.653260e-06	-2.061837e-09	-3.299901e+01	-1.344387e+02
6.400000e-07	-4.629572e-06	-2.060446e-09	-3.283102e+01	-1.342846e+02
6.500000e-07	-4.605706e-06	-2.076041e-09	-3.266177e+01	-1.341339e+02
6.600000e-07	-4.581611e-06	-2.070048e-09	-3.249090e+01	-1.339860e+02
6.700000e-07	-4.557210e-06	-2.053345e-09	-3.231786e+01	-1.338401e+02
6.800000e-07	-4.532397e-06	-2.060956e-09	-3.214190e+01	-1.336954e+02
6.900000e-07	-4.507109e-06	-2.072490e-09	-3.196256e+01	-1.335509e+02
7.000000e-07	-4.481365e-06	-2.064063e-09	-3.178000e+01	-1.334058e+02
7.100000e-07	-4.455123e-06	-2.043815e-09	-3.159390e+01	-1.332591e+02
7.200000e-07	-4.428449e-06	-2.034177e-09	-3.140474e+01	-1.331098e+02
7.300000e-07	-4.401336e-06	-2.035887e-09	-3.121247e+01	-1.329571e+02
7.400000e-07	-4.373783e-06	-2.040128e-09	-3.101707e+01	-1.328001e+02
7.500000e-07	-4.346011e-06	-2.030867e-09	-3.082013e+01	-1.326380e+02
7.600000e-07	-4.318079e-06	-2.026336e-09	-3.062204e+01	-1.324701e+02
7.700000e-07	-4.289933e-06	-2.031136e-09	-3.042244e+01	-1.322959e+02
7.800000e-07	-4.261565e-06	-2.035572e-09	-3.022127e+01	-1.321148e+02
7.900000e-07	-4.232925e-06	-2.022377e-09	-3.001817e+01	-1.319266e+02
8.000000e-07	-4.204043e-06	-2.008763e-09	-2.981334e+01	-1.317310e+02
8.100000e-07	-4.174843e-06	-2.002202e-09	-2.960627e+01	-1.315279e+02
8.200000e-07	-4.145319e-06	-2.006806e-09	-2.939690e+01	-1.313173e+02
8.300000e-07	-4.115567e-06	-2.006300e-09	-2.918591e+01	-1.310994e+02
8.400000e-07	-4.085586e-06	-1.999358e-09	-2.897329e+01	-1.308744e+02
8.500000e-07	-4.055359e-06	-1.994020e-09	-2.875894e+01	-1.306427e+02
8.600000e-07	-4.024834e-06	-1.999062e-09	-2.854247e+01	-1.304048e+02
8.700000e-07	-3.994017e-06	-1.994305e-09	-2.832393e+01	-1.301611e+02
8.800000e-07	-3.962872e-06	-1.980141e-09	-2.810306e+01	-1.299123e+02
8.900000e-07	-3.931438e-06	-1.967677e-09	-2.788014e+01	-1.296591e+02
9.000000e-07	-3.899858e-06	-1.969488e-09	-2.765619e+01	-1.294019e+02
9.100000e-07	-3.868149e-06	-1.971309e-09	-2.743132e+01	-1.291417e+02
9.200000e-07	-3.836256e-06	-1.962443e-09	-2.720515e+01	-1.288789e+02
9.300000e-07	-3.804135e-06	-1.950059e-09	-2.697736e+01	-1.286143e+02
9.400000e-07	-3.771759e-06	-1.945750e-09	-2.674777e+01	-1.283485e+02
9.500000e-07	-3.739091e-06	-1.944983e-09	-2.651610e+01	-1.280819e+02
9.600000e-07	-3.706045e-06	-1.936849e-09	-2.628175e+01	-1.278151e+02
9.700000e-07	-3.672583e-06	-1.926666e-09	-2.604445e+01	-1.275486e+02
9.800000e-07	-3.638718e-06	-1.926076e-09	-2.580429e+01	-1.272825e+02
9.900000e-07	-3.604352e-06	-1.928740e-09	-2.556058e+01	-1.270171e+02
1.000000e-06	-3.569503e-06	-1.919310e-09	-2.531345e+01	-1.267525e+02
1.010000e-06	-3.534374e-06	-1.905975e-09	-2.506433e+01	-1.264889e+02
1.020000e-06	-3.499002e-06	-1.899079e-09	-2.481348e+01	-1.262259e+02
1.030000e-06	-3.463448e-06	-1.896799e-09	-2.456135e+01	-1.259636e+02
1.040000e-06	-3.427743e-06	-1.889409e-09	-2.430814e+01	-1.257016e+02
1.050000e-06	-3.391806e-06	-1.883225e-09	-2.405330e+01	-1.254396e+02
1.060000e-06	-3.355714e-06	-1.881865e-09	-2.379734e+01	-1.251771e+02
1.070000e-06	-3.319464e-06	-1.885166e-09	-2.354028e+01	-1.249137e+02
1.080000e-06	-3.283040e-06	-1.882700e-09	-2.328197e+01	-1.246487e+02
1.090000e-06	-3.246367e-06	-1.875254e-09	-2.302190e+01	-1.243816e+02
1.100000e-06	-3.209458e-06	-1.867827e-09	-2.276016e+01	-1.241117e+02
1.110000e-06	-3.172319e-06	-1.865495e-09	-2.249678e+01	-1.238385e+02
1.120000e-06	-3.134902e-06	-1.858718e-09	-2.223144e+01	-1.235612e+02
1.130000e-06	-3.097294e-06	-1.847539e-09	-2.196474e+01	-1.232791e+02
1.140000e-06	-3.059502e-06	-1.838556e-09	-2.169673e+01	-1.229918e+02
1.150000e-06	-3.021519e-06	-1.839259e-09	-2.142737e+01	-1.226986e+02
1.160000e-06	-2.983299e-06	-1.837627e-09	-2.115633e+01	-1.223989e+02
1.170000e-06	-2.944888e-06	-1.829382e-09	-2.088394e+01	-1.220923e+02
1.180000e-06	-2.906284e-06	-1.818262e-09	-2.061017e+01	-1.217784e+02
1.190000e-06	-2.867379e-06	-1.812679e-09	-2.033428e+01	-1.214567e+02
1.200000e-06	-2.828280e-06	-1.810017e-09	-2.005700e+01	-1.211270e+02
1.210000e-06	-2.789010e-06	-1.802159e-09	-1.977851e+01	-1.207892e+02
1.220000e-06	-2.749537e-06	-1.791365e-09	-1.949858e+01	-1.204429e+02
1.230000e-06	-2.709858e-06	-1.784098e-09	-1.921720e+01	-1.200883e+02
1.240000e-06	-2.670043e-06	-1.779387e-09	-1.893485e+01	-1.197252e+02
1.250000e-06	-2.630213e-06	-1.773070e-09	-1.865239e+01	-1.193538e+02
1.260000e-06	-2.590300e-06	-1.765735e-09	-1.836934e+01	-1.189741e+02
1.270000e-06	-2.550294e-06	-1.759416e-09	-1.808563e+01	-1.185864e+02
1.280000e-06	-2.510192e-06	-1.755556e-09	-1.780125e+01	-1.181908e+02
1.290000e-06	-2.469985e-06	-1.751101e-09	-1.751612e+01	-1.177877e+02
1.300000e-06	-2.429576e-06	-1.744166e-09	-1.722955e+01	-1.173772e+02
1.310000e-06	-2.388887e-06	-1.733021e-09	-1.694101e+01	-1.169596e+02
1.320000e-06	-2.347939e-06	-1.722915e-09	-1.665062e+01	-1.165353e+02
1.330000e-06	-2.306861e-06	-1.716091e-09	-1.635931e+01	-1.161044e+02
1.340000e-06	-2.265672e-06	-1.711493e-09	-1.606722e+01	-1.156673e+02
1.350000e-06	-2.224074e-06	-1.705668e-09	-1.577222e+01	-1.152242e+02
1.360000e-06	-2.182153e-06	-1.698672e-09	-1.547493e+01	-1.147751e+02
1.370000e-06	-2.140001e-06	-1.690851e-09	-1.517601e+01	-1.143203e+02
1.380000e-06	-2.097490e-06	-1.681467e-09	-1.487453e+01	-1.138598e+02
1.390000e-06	-2.054672e-06	-1.670811e-09	-1.457089e+01	-1.133935e+02
1.400000e-06	-2.011658e-06	-1.661708e-09	-1.426585e+01	-1.129215e+02
1.410000e-06	-1.968448e-06	-1.653252e-09	-1.395943e+01	-1.124437e+02
1.420000e-06	-1.924994e-06	-1.646279e-09	-1.365126e+01	-1.119596e+02
1.430000e-06	-1.881389e-06	-1.641097e-09	-1.334204e+01	-1.114692e+02
1.440000e-06	-1.837751e-06	-1.636647e-09	-1.303258e+01	-1.109720e+02
1.450000e-06	-1.794043e-06	-1.628887e-09	-1.272262e+01	-1.104677e+02
1.460000e-06	-1.750232e-06	-1.620168e-09	-1.241192e+01	-1.099556e+02
1.470000e-06	-1.706354e-06	-1.611433e-09	-1.210076e+01	-1.094353e+02
1.480000e-06	-1.662422e-06	-1.602668e-09	-1.178921e+01	-1.089061e+02
1.490000e-06	-1.618434e-06	-1.591872e-09	-1.147727e+01	-1.083674e+02
1.500000e-06	-1.574328e-06	-1.582079e-09	-1.116449e+01	-1.078185e+02
1.510000e-06	-1.530166e-06	-1.575260e-09	-1.085131e+01	-1.072586e+02
1.520000e-06	-1.485999e-06	-1.568993e-09	-1.053809e+01	-1.066869e+02
1.530000e-06	-1.441747e-06	-1.562740e-09	-1.022428e+01	-1.061027e+02
1.540000e-06	-1.397374e-06	-1.557002e-09	-9.909605e+00	-1.055052e+02
1.550000e-06	-1.352898e-06	-1.548875e-09	-9.594200e+00	-1.048936e+02
1.560000e-06	-1.308441e-06	-1.537183e-09	-9.278929e+00	-1.042670e+02
1.570000e-06	-1.263925e-06	-1.523392e-09	-8.963235e+00	-1.036247e+02
1.580000e-06	-1.219268e-06	-1.508642e-09	-8.646545e+00	-1.029659e+02
1.590000e-06	-1.174513e-06	-1.497760e-09	-8.329162e+00	-1.022899e+02
1.600000e-06	-1.129684e-06	-1.490821e-09	-8.011252e+00	-1.015959e+02
1.610000e-06	-1.084767e-06	-1.484884e-09	-7.692722e+00	-1.008833e+02
1.620000e-06	-1.039704e-06	-1.473260e-09	-7.373151e+00	-1.001515e+02
1.630000e-06	-9.944498e-07	-1.458383e-09	-7.052229e+00	-9.939968e+01
1.640000e-06	-9.490796e-07	-1.442410e-09	-6.730483e+00	-9.862740e+01
1.650000e-06	-9.037309e-07	-1.425354e-09	-6.408888e+00	-9.783408e+01
1.660000e-06	-8.583183e-07	-1.410900e-09	-6.086841e+00	-9.701918e+01
1.670000e-06	-8.128357e-07	-1.401564e-09	-5.764297e+00	-9.618221e+01
1.680000e-06	-7.672850e-07	-1.393755e-09	-5.441270e+00	-9.532267e+01
1.690000e-06	-7.216761e-07	-1.382153e-09	-5.117831e+00	-9.444011e+01
1.700000e-06	-6.761047e-07	-1.365001e-09	-4.794657e+00	-9.353405e+01
1.710000e-06	-6.304978e-07	-1.346471e-09	-4.471231e+00	-9.260404e+01
1.720000e-06	-5.848530e-07	-1.330174e-09	-4.147537e+00	-9.164960e+01
1.730000e-06	-5.392292e-07	-1.317336e-09	-3.823992e+00	-9.067025e+01
1.740000e-06	-4.936509e-07	-1.304517e-09	-3.500769e+00	-8.966545e+01
1.750000e-06	-4.479766e-07	-1.290739e-09	-3.176866e+00	-8.863467e+01
1.760000e-06	-4.021574e-07	-1.278095e-09	-2.851935e+00	-8.757729e+01
1.770000e-06	-3.563061e-07	-1.265247e-09	-2.526776e+00	-8.649267e+01
1.780000e-06	-3.104258e-07	-1.246112e-09	-2.201412e+00	-8.538009e+01
1.790000e-06	-2.644487e-07	-1.221584e-09	-1.875361e+00	-8.423876e+01
1.800000e-06	-2.184614e-07	-1.199131e-09	-1.549238e+00	-8.306782e+01
1.810000e-06	-1.725599e-07	-1.182057e-09	-1.223724e+00	-8.186632e+01
1.820000e-06	-1.266887e-07	-1.168066e-09	-8.984245e-01	-8.063323e+01
1.830000e-06	-8.088462e-08	-1.151637e-09	-5.736005e-01	-7.936743e+01
1.840000e-06	-3.508105e-08	-1.131931e-09	-2.487804e-01	-7.806770e+01
1.850000e-06	1.078945e-08	-1.110449e-09	7.651434e-02	-7.673274e+01
1.860000e-06	5.662730e-08	-1.087940e-09	4.015775e-01	-7.536113e+01
1.870000e-06	1.024376e-07	-1.061800e-09	7.264457e-01	-7.395141e+01
1.880000e-06	1.482978e-07	-1.035731e-09	1.051667e+00	-7.250201e+01
1.890000e-06	1.942278e-07	-1.013404e-09	1.377384e+00	-7.101128e+01
1.900000e-06	2.401822e-07	-9.928448e-10	1.703274e+00	-6.947753e+01
1.910000e-06	2.860999e-07	-9.711589e-10	2.028903e+00	-6.789900e+01
1.920000e-06	3.319822e-07	-9.498598e-10	2.354281e+00	-6.627391e+01
1.930000e-06	3.778468e-07	-9.283169e-10	2.679535e+00	-6.460043e+01
1.940000e-06	4.237198e-07	-9.042616e-10	3.004847e+00	-6.287675e+01
1.950000e-06	4.694757e-07	-8.759102e-10	3.329329e+00	-6.110107e+01
1.960000e-06	5.151141e-07	-8.447600e-10	3.652978e+00	-5.927161e+01
1.970000e-06	5.607748e-07	-8.133974e-10	3.976784e+00	-5.738668e+01
1.980000e-06	6.064028e-07	-7.844924e-10	4.300360e+00	-5.544463e+01
1.990000e-06	6.519433e-07	-7.567684e-10	4.623314e+00	-5.344395e+01
2.000000e-06	6.974260e-07	-7.298167e-10	4.945859e+00	-5.138324e+01
2.010000e-06	7.428615e-07	-7.038274e-10	5.268069e+00	-4.926126e+01
2.020000e-06	7.883391e-07	-6.750299e-10	5.590577e+00	-4.707697e+01
2.030000e-06	8.338094e-07	-6.424346e-10	5.913034e+00	-4.482952e+01
2.040000e-06	8.791631e-07	-6.084356e-10	6.234664e+00	-4.251828e+01
2.050000e-06	9.244407e-07	-5.718076e-10	6.555754e+00	-4.014290e+01
2.060000e-06	9.695922e-07	-5.321714e-10	6.875949e+00	-3.770329e+01
2.070000e-06	1.014598e-06	-4.933170e-10	7.195109e+00	-3.519968e+01
2.080000e-06	1.059574e-06	-4.570732e-10	7.514067e+00	-3.263258e+01
2.090000e-06	1.104581e-06	-4.226063e-10	7.833233e+00	-3.000287e+01
2.100000e-06	1.149469e-06	-3.852338e-10	8.151560e+00	-2.731175e+01
2.110000e-06	1.194194e-06	-3.467390e-10	8.468732e+00	-2.456080e+01
2.120000e-06	1.238891e-06	-3.090558e-10	8.785705e+00	-2.175193e+01
2.130000e-06	1.283560e-06	-2.705413e-10	9.102482e+00	-1.888745e+01
2.140000e-06	1.328132e-06	-2.262822e-10	9.418564e+00	-1.597001e+01
2.150000e-06	1.372562e-06	-1.772570e-10	9.733647e+00	-1.300265e+01
2.160000e-06	1.416910e-06	-1.291937e-10	1.004815e+01	-9.988734e+00
2.170000e-06	1.461172e-06	-8.450475e-11	1.036204e+01	-6.931987e+00
2.180000e-06	1.505355e-06	-4.203772e-11	1.067536e+01	-3.836452e+00
2.190000e-06	1.549477e-06	1.589772e-12	1.098825e+01	-7.064782e-01
2.200000e-06	1.593522e-06	4.561069e-11	1.130060e+01	2.453305e+00
2.210000e-06	1.637554e-06	9.031244e-11	1.161286e+01	5.638015e+00
2.220000e-06	1.681541e-06	1.384639e-10	1.192480e+01	8.842549e+00
2.230000e-06	1.725403e-06	1.900364e-10	1.223585e+01	1.206161e+01
2.240000e-06	1.769178e-06	2.449597e-10	1.254628e+01	1.528977e+01
2.250000e-06	1.812915e-06	2.987412e-10	1.285645e+01	1.852147e+01
2.260000e-06	1.856532e-06	3.470818e-10	1.316577e+01	2.175109e+01
2.270000e-06	1.900049e-06	3.912452e-10	1.347437e+01	2.497298e+01
2.280000e-06	1.943478e-06	4.352003e-10	1.378235e+01	2.818151e+01
2.290000e-06	1.986783e-06	4.809293e-10	1.408945e+01	3.137110e+01
2.300000e-06	2.029931e-06	5.273872e-10	1.439544e+01	3.453630e+01
2.310000e-06	2.072845e-06	5.738802e-10	1.469977e+01	3.767177e+01
2.320000e-06	2.115516e-06	6.196651e-10	1.500237e+01	4.077238e+01
2.330000e-06	2.157934e-06	6.648975e-10	1.530318e+01	4.383322e+01
2.340000e-06	2.199977e-06	7.076370e-10	1.560133e+01	4.684964e+01
2.350000e-06	2.241721e-06	7.466046e-10	1.589736e+01	4.981729e+01
2.360000e-06	2.283249e-06	7.837618e-10	1.619186e+01	5.273214e+01
2.370000e-06	2.324453e-06	8.240967e-10	1.648407e+01	5.559052e+01
2.380000e-06	2.365368e-06	8.655727e-10	1.677422e+01	5.838912e+01
2.390000e-06	2.406031e-06	9.070135e-10	1.706259e+01	6.112503e+01
2.400000e-06	2.446472e-06	9.458839e-10	1.734938e+01	6.379573e+01
2.410000e-06	2.486758e-06	9.826810e-10	1.763506e+01	6.639913e+01
2.420000e-06	2.526963e-06	1.016650e-09	1.792018e+01	6.893354e+01
2.430000e-06	2.567054e-06	1.046178e-09	1.820449e+01	7.139767e+01
2.440000e-06	2.606967e-06	1.077313e-09	1.848754e+01	7.379065e+01
2.450000e-06	2.646766e-06	1.110812e-09	1.876978e+01	7.611199e+01
2.460000e-06	2.686475e-06	1.147333e-09	1.905138e+01	7.836158e+01
2.470000e-06	2.726086e-06	1.185484e-09	1.933228e+01	8.053967e+01
2.480000e-06	2.765558e-06	1.219833e-09	1.961220e+01	8.264681e+01
2.490000e-06	2.804909e-06	1.249109e-09	1.989126e+01	8.468389e+01
2.500000e-06	2.844056e-06	1.271790e-09	2.016888e+01	8.665205e+01
2.510000e-06	2.882901e-06	1.291908e-09	2.044435e+01	8.855268e+01
2.520000e-06	2.921488e-06	1.313610e-09	2.071800e+01	9.038738e+01
2.530000e-06	2.959893e-06	1.341224e-09	2.099034e+01	9.215790e+01
2.540000e-06	2.998159e-06	1.374600e-09	2.126171e+01	9.386615e+01
2.550000e-06	3.036235e-06	1.406570e-09	2.153173e+01	9.551415e+01
2.560000e-06	3.074072e-06	1.435840e-09	2.180005e+01	9.710396e+01
2.570000e-06	3.111662e-06	1.458466e-09	2.206663e+01	9.863769e+01
2.580000e-06	3.149075e-06	1.472187e-09	2.233195e+01	1.001175e+02
2.590000e-06	3.186270e-06	1.481934e-09	2.259572e+01	1.015454e+02
2.600000e-06	3.223242e-06	1.493608e-09	2.285791e+01	1.029235e+02
2.610000e-06	3.259956e-06	1.510534e-09	2.311827e+01	1.042538e+02
2.620000e-06	3.296442e-06	1.534246e-09	2.337702e+01	1.055381e+02
2.630000e-06	3.332711e-06	1.560988e-09	2.363421e+01	1.067783e+02
2.640000e-06	3.368750e-06	1.585798e-09	2.388979e+01	1.079759e+02
2.650000e-06	3.404712e-06	1.604880e-09	2.414482e+01	1.091326e+02
2.660000e-06	3.440560e-06	1.616604e-09	2.439904e+01	1.102498e+02
2.670000e-06	3.476213e-06	1.623135e-09	2.465188e+01	1.113288e+02
2.680000e-06	3.511651e-06	1.630661e-09	2.490319e+01	1.123707e+02
2.690000e-06	3.546876e-06	1.641838e-09	2.515299e+01	1.133765e+02
2.700000e-06	3.581818e-06	1.656759e-09	2.540078e+01	1.143473e+02
2.710000e-06	3.616393e-06	1.675033e-09	2.564597e+01	1.152838e+02
2.720000e-06	3.650623e-06	1.696068e-09	2.588872e+01	1.161868e+02
2.730000e-06	3.684375e-06	1.716304e-09	2.612807e+01	1.170570e+02
2.740000e-06	3.717574e-06	1.730791e-09	2.636351e+01	1.178951e+02
2.750000e-06	3.750447e-06	1.737534e-09	2.659663e+01	1.187016e+02
2.760000e-06	3.783024e-06	1.741290e-09	2.682765e+01	1.194771e+02
2.770000e-06	3.815290e-06	1.746861e-09	2.705647e+01	1.202221e+02
2.780000e-06	3.847335e-06	1.755748e-09	2.728372e+01	1.209374e+02
2.790000e-06	3.879235e-06	1.767078e-09	2.750994e+01	1.216234e+02
2.800000e-06	3.911010e-06	1.778037e-09	2.773527e+01	1.222809e+02
2.810000e-06	3.942585e-06	1.790030e-09	2.795919e+01	1.229105e+02
2.820000e-06	3.973891e-06	1.802637e-09	2.818120e+01	1.235131e+02
2.830000e-06	4.004816e-06	1.809563e-09	2.840051e+01	1.240894e+02
2.840000e-06	4.035476e-06	1.811964e-09	2.861794e+01	1.246404e+02
2.850000e-06	4.065992e-06	1.817566e-09	2.883434e+01	1.251670e+02
2.860000e-06	4.096176e-06	1.829403e-09	2.904840e+01	1.256703e+02
2.870000e-06	4.126047e-06	1.841544e-09	2.926023e+01	1.261514e+02
2.880000e-06	4.155720e-06	1.847328e-09	2.947066e+01	1.266113e+02
2.890000e-06	4.185143e-06	1.848880e-09	2.967932e+01	1.270514e+02
2.900000e-06	4.214271e-06	1.853458e-09	2.988588e+01	1.274728e+02
