# Temperatura_=_-2.2
# Concentracion g/m^3_=_4090.0
# C_Vs_to_Am_M_A/Vsm_=_65563218390.804596
# pendiente_HvsI_1/m_=_3716.3
# ordenada_HvsI_A/m_=_1297.0
# frecuencia_Hz_=_135069.10658044243

Tiempo_(s)	Campo_(V.s)	Magnetizacion_(V.s)	Campo_(kA/m)	Magnetizacion_(A/m)
0.000000e+00	-5.427713e-06	-2.235778e-09	-3.840355e+01	-1.467312e+02
1.000000e-08	-5.427865e-06	-2.236488e-09	-3.840462e+01	-1.466160e+02
2.000000e-08	-5.427704e-06	-2.241933e-09	-3.840348e+01	-1.465025e+02
3.000000e-08	-5.427305e-06	-2.244460e-09	-3.840066e+01	-1.463927e+02
4.000000e-08	-5.426642e-06	-2.242035e-09	-3.839597e+01	-1.462885e+02
5.000000e-08	-5.425562e-06	-2.240447e-09	-3.838833e+01	-1.461919e+02
6.000000e-08	-5.423922e-06	-2.251710e-09	-3.837673e+01	-1.461045e+02
7.000000e-08	-5.421615e-06	-2.266131e-09	-3.836040e+01	-1.460280e+02
8.000000e-08	-5.418601e-06	-2.240578e-09	-3.833907e+01	-1.459638e+02
9.000000e-08	-5.415058e-06	-2.174729e-09	-3.831401e+01	-1.459131e+02
1.000000e-07	-5.411092e-06	-2.204345e-09	-3.828595e+01	-1.458770e+02
1.100000e-07	-5.406818e-06	-2.330165e-09	-3.825570e+01	-1.458561e+02
1.200000e-07	-5.402328e-06	-2.341328e-09	-3.822394e+01	-1.458508e+02
1.300000e-07	-5.397575e-06	-2.156797e-09	-3.819031e+01	-1.458614e+02
1.400000e-07	-5.392533e-06	-2.164505e-09	-3.815463e+01	-1.458876e+02
1.500000e-07	-5.387118e-06	-2.335248e-09	-3.811632e+01	-1.459291e+02
1.600000e-07	-5.381218e-06	-2.372582e-09	-3.807457e+01	-1.459852e+02
1.700000e-07	-5.374825e-06	-2.139508e-09	-3.802934e+01	-1.460549e+02
1.800000e-07	-5.368086e-06	-2.114475e-09	-3.798166e+01	-1.461370e+02
1.900000e-07	-5.361083e-06	-2.340906e-09	-3.793211e+01	-1.462299e+02
2.000000e-07	-5.353779e-06	-2.360298e-09	-3.788043e+01	-1.463322e+02
2.100000e-07	-5.346182e-06	-2.210247e-09	-3.782668e+01	-1.464420e+02
2.200000e-07	-5.338322e-06	-2.218316e-09	-3.777106e+01	-1.465572e+02
2.300000e-07	-5.330259e-06	-2.380262e-09	-3.771401e+01	-1.466759e+02
2.400000e-07	-5.321853e-06	-2.292861e-09	-3.765454e+01	-1.467959e+02
2.500000e-07	-5.312932e-06	-2.199340e-09	-3.759142e+01	-1.469151e+02
2.600000e-07	-5.303437e-06	-2.284816e-09	-3.752424e+01	-1.470313e+02
2.700000e-07	-5.293301e-06	-2.371621e-09	-3.745252e+01	-1.471424e+02
2.800000e-07	-5.282474e-06	-2.242740e-09	-3.737592e+01	-1.472465e+02
2.900000e-07	-5.271152e-06	-2.255490e-09	-3.729580e+01	-1.473416e+02
3.000000e-07	-5.259464e-06	-2.391931e-09	-3.721311e+01	-1.474260e+02
3.100000e-07	-5.247345e-06	-2.350846e-09	-3.712736e+01	-1.474982e+02
3.200000e-07	-5.234833e-06	-2.197587e-09	-3.703884e+01	-1.475569e+02
3.300000e-07	-5.221967e-06	-2.280467e-09	-3.694780e+01	-1.476007e+02
3.400000e-07	-5.208672e-06	-2.378743e-09	-3.685373e+01	-1.476290e+02
3.500000e-07	-5.194979e-06	-2.289939e-09	-3.675685e+01	-1.476410e+02
3.600000e-07	-5.181000e-06	-2.241441e-09	-3.665794e+01	-1.476363e+02
3.700000e-07	-5.166640e-06	-2.330507e-09	-3.655634e+01	-1.476147e+02
3.800000e-07	-5.151751e-06	-2.312405e-09	-3.645099e+01	-1.475764e+02
3.900000e-07	-5.136288e-06	-2.256722e-09	-3.634158e+01	-1.475217e+02
4.000000e-07	-5.120283e-06	-2.300127e-09	-3.622834e+01	-1.474511e+02
4.100000e-07	-5.103883e-06	-2.297344e-09	-3.611230e+01	-1.473654e+02
4.200000e-07	-5.087066e-06	-2.235136e-09	-3.599331e+01	-1.472655e+02
4.300000e-07	-5.069893e-06	-2.276610e-09	-3.587180e+01	-1.471524e+02
4.400000e-07	-5.052426e-06	-2.334511e-09	-3.574822e+01	-1.470275e+02
4.500000e-07	-5.034669e-06	-2.257959e-09	-3.562258e+01	-1.468920e+02
4.600000e-07	-5.016666e-06	-2.236437e-09	-3.549520e+01	-1.467473e+02
4.700000e-07	-4.998293e-06	-2.292409e-09	-3.536520e+01	-1.465949e+02
4.800000e-07	-4.979434e-06	-2.300428e-09	-3.523177e+01	-1.464363e+02
4.900000e-07	-4.960075e-06	-2.240749e-09	-3.509480e+01	-1.462728e+02
5.000000e-07	-4.940500e-06	-2.250776e-09	-3.495629e+01	-1.461060e+02
5.100000e-07	-4.920751e-06	-2.263404e-09	-3.481656e+01	-1.459370e+02
5.200000e-07	-4.900746e-06	-2.276533e-09	-3.467501e+01	-1.457673e+02
5.300000e-07	-4.880537e-06	-2.264538e-09	-3.453203e+01	-1.455979e+02
5.400000e-07	-4.860091e-06	-2.250224e-09	-3.438736e+01	-1.454298e+02
5.500000e-07	-4.839254e-06	-2.232434e-09	-3.423993e+01	-1.452640e+02
5.600000e-07	-4.818045e-06	-2.262831e-09	-3.408986e+01	-1.451011e+02
5.700000e-07	-4.796550e-06	-2.257637e-09	-3.393778e+01	-1.449418e+02
5.800000e-07	-4.774738e-06	-2.233570e-09	-3.378345e+01	-1.447864e+02
5.900000e-07	-4.752566e-06	-2.225024e-09	-3.362657e+01	-1.446353e+02
6.000000e-07	-4.729969e-06	-2.250275e-09	-3.346669e+01	-1.444885e+02
6.100000e-07	-4.707028e-06	-2.252117e-09	-3.330437e+01	-1.443460e+02
6.200000e-07	-4.683832e-06	-2.237636e-09	-3.314025e+01	-1.442077e+02
6.300000e-07	-4.660357e-06	-2.212938e-09	-3.297415e+01	-1.440731e+02
6.400000e-07	-4.636578e-06	-2.219422e-09	-3.280591e+01	-1.439419e+02
6.500000e-07	-4.612582e-06	-2.239690e-09	-3.263613e+01	-1.438136e+02
6.600000e-07	-4.588429e-06	-2.230000e-09	-3.246523e+01	-1.436876e+02
6.700000e-07	-4.564002e-06	-2.202185e-09	-3.229240e+01	-1.435633e+02
6.800000e-07	-4.539142e-06	-2.210265e-09	-3.211650e+01	-1.434399e+02
6.900000e-07	-4.513668e-06	-2.235002e-09	-3.193626e+01	-1.433167e+02
7.000000e-07	-4.487643e-06	-2.228699e-09	-3.175212e+01	-1.431931e+02
7.100000e-07	-4.461203e-06	-2.209190e-09	-3.156505e+01	-1.430684e+02
7.200000e-07	-4.434301e-06	-2.200292e-09	-3.137470e+01	-1.429418e+02
7.300000e-07	-4.407001e-06	-2.210380e-09	-3.118155e+01	-1.428127e+02
7.400000e-07	-4.379408e-06	-2.209488e-09	-3.098631e+01	-1.426806e+02
7.500000e-07	-4.351562e-06	-2.194079e-09	-3.078929e+01	-1.425449e+02
7.600000e-07	-4.323540e-06	-2.176655e-09	-3.059102e+01	-1.424052e+02
7.700000e-07	-4.295391e-06	-2.191751e-09	-3.039185e+01	-1.422612e+02
7.800000e-07	-4.267045e-06	-2.198856e-09	-3.019129e+01	-1.421126e+02
7.900000e-07	-4.238366e-06	-2.188772e-09	-2.998837e+01	-1.419592e+02
8.000000e-07	-4.209366e-06	-2.172746e-09	-2.978318e+01	-1.418008e+02
8.100000e-07	-4.180039e-06	-2.178923e-09	-2.957569e+01	-1.416376e+02
8.200000e-07	-4.150343e-06	-2.181602e-09	-2.936557e+01	-1.414695e+02
8.300000e-07	-4.120404e-06	-2.178789e-09	-2.915374e+01	-1.412967e+02
8.400000e-07	-4.090270e-06	-2.160133e-09	-2.894052e+01	-1.411193e+02
8.500000e-07	-4.059895e-06	-2.158641e-09	-2.872561e+01	-1.409377e+02
8.600000e-07	-4.029184e-06	-2.163107e-09	-2.850832e+01	-1.407521e+02
8.700000e-07	-3.998167e-06	-2.166546e-09	-2.828886e+01	-1.405629e+02
8.800000e-07	-3.966935e-06	-2.152858e-09	-2.806788e+01	-1.403704e+02
8.900000e-07	-3.935528e-06	-2.148434e-09	-2.784566e+01	-1.401750e+02
9.000000e-07	-3.903928e-06	-2.153329e-09	-2.762207e+01	-1.399771e+02
9.100000e-07	-3.872110e-06	-2.153767e-09	-2.739694e+01	-1.397770e+02
9.200000e-07	-3.840126e-06	-2.134884e-09	-2.717064e+01	-1.395751e+02
9.300000e-07	-3.807892e-06	-2.117060e-09	-2.694258e+01	-1.393718e+02
9.400000e-07	-3.775391e-06	-2.114950e-09	-2.671261e+01	-1.391672e+02
9.500000e-07	-3.742558e-06	-2.121319e-09	-2.648030e+01	-1.389617e+02
9.600000e-07	-3.709292e-06	-2.119712e-09	-2.624493e+01	-1.387554e+02
9.700000e-07	-3.675656e-06	-2.115813e-09	-2.600695e+01	-1.385485e+02
9.800000e-07	-3.641500e-06	-2.117959e-09	-2.576527e+01	-1.383412e+02
9.900000e-07	-3.606827e-06	-2.117227e-09	-2.551995e+01	-1.381333e+02
1.000000e-06	-3.571845e-06	-2.104906e-09	-2.527243e+01	-1.379250e+02
1.010000e-06	-3.536586e-06	-2.085109e-09	-2.502296e+01	-1.377161e+02
1.020000e-06	-3.501059e-06	-2.073368e-09	-2.477159e+01	-1.375066e+02
1.030000e-06	-3.465293e-06	-2.069434e-09	-2.451853e+01	-1.372961e+02
1.040000e-06	-3.429384e-06	-2.072447e-09	-2.426446e+01	-1.370846e+02
1.050000e-06	-3.393368e-06	-2.072859e-09	-2.400962e+01	-1.368716e+02
1.060000e-06	-3.357163e-06	-2.075996e-09	-2.375346e+01	-1.366570e+02
1.070000e-06	-3.320736e-06	-2.077432e-09	-2.349572e+01	-1.364404e+02
1.080000e-06	-3.284108e-06	-2.075559e-09	-2.323656e+01	-1.362213e+02
1.090000e-06	-3.247270e-06	-2.060116e-09	-2.297592e+01	-1.359994e+02
1.100000e-06	-3.210181e-06	-2.047436e-09	-2.271349e+01	-1.357744e+02
1.110000e-06	-3.172820e-06	-2.041115e-09	-2.244915e+01	-1.355456e+02
1.120000e-06	-3.135224e-06	-2.041969e-09	-2.218314e+01	-1.353128e+02
1.130000e-06	-3.097410e-06	-2.037555e-09	-2.191559e+01	-1.350756e+02
1.140000e-06	-3.059441e-06	-2.034329e-09	-2.164694e+01	-1.348334e+02
1.150000e-06	-3.021306e-06	-2.029702e-09	-2.137712e+01	-1.345859e+02
1.160000e-06	-2.982950e-06	-2.025379e-09	-2.110573e+01	-1.343327e+02
1.170000e-06	-2.944356e-06	-2.014373e-09	-2.083266e+01	-1.340734e+02
1.180000e-06	-2.905525e-06	-2.003268e-09	-2.055791e+01	-1.338077e+02
1.190000e-06	-2.866464e-06	-1.996109e-09	-2.028154e+01	-1.335352e+02
1.200000e-06	-2.827266e-06	-1.996266e-09	-2.000420e+01	-1.332556e+02
1.210000e-06	-2.787892e-06	-1.993396e-09	-1.972561e+01	-1.329687e+02
1.220000e-06	-2.748305e-06	-1.985691e-09	-1.944551e+01	-1.326742e+02
1.230000e-06	-2.708600e-06	-1.976626e-09	-1.916458e+01	-1.323720e+02
1.240000e-06	-2.668801e-06	-1.970582e-09	-1.888298e+01	-1.320617e+02
1.250000e-06	-2.628890e-06	-1.963757e-09	-1.860060e+01	-1.317434e+02
1.260000e-06	-2.588818e-06	-1.957120e-09	-1.831707e+01	-1.314168e+02
1.270000e-06	-2.548680e-06	-1.952736e-09	-1.803307e+01	-1.310818e+02
1.280000e-06	-2.508514e-06	-1.950574e-09	-1.774888e+01	-1.307385e+02
1.290000e-06	-2.468206e-06	-1.950362e-09	-1.746368e+01	-1.303867e+02
1.300000e-06	-2.427637e-06	-1.944131e-09	-1.717664e+01	-1.300265e+02
1.310000e-06	-2.386786e-06	-1.932167e-09	-1.688760e+01	-1.296578e+02
1.320000e-06	-2.345697e-06	-1.919225e-09	-1.659688e+01	-1.292807e+02
1.330000e-06	-2.304342e-06	-1.911386e-09	-1.630427e+01	-1.288953e+02
1.340000e-06	-2.262706e-06	-1.906468e-09	-1.600968e+01	-1.285016e+02
1.350000e-06	-2.220781e-06	-1.903908e-09	-1.571304e+01	-1.280998e+02
1.360000e-06	-2.178693e-06	-1.900817e-09	-1.541525e+01	-1.276898e+02
1.370000e-06	-2.136376e-06	-1.898485e-09	-1.511584e+01	-1.272718e+02
1.380000e-06	-2.093654e-06	-1.893089e-09	-1.481356e+01	-1.268458e+02
1.390000e-06	-2.050665e-06	-1.884682e-09	-1.450939e+01	-1.264121e+02
1.400000e-06	-2.007476e-06	-1.870864e-09	-1.420381e+01	-1.259706e+02
1.410000e-06	-1.964140e-06	-1.857942e-09	-1.389719e+01	-1.255214e+02
1.420000e-06	-1.920692e-06	-1.848741e-09	-1.358977e+01	-1.250646e+02
1.430000e-06	-1.877100e-06	-1.845271e-09	-1.328134e+01	-1.246002e+02
1.440000e-06	-1.833347e-06	-1.840311e-09	-1.297176e+01	-1.241282e+02
1.450000e-06	-1.789465e-06	-1.833948e-09	-1.266128e+01	-1.236486e+02
1.460000e-06	-1.745564e-06	-1.828930e-09	-1.235066e+01	-1.231612e+02
1.470000e-06	-1.701638e-06	-1.824005e-09	-1.203987e+01	-1.226660e+02
1.480000e-06	-1.657600e-06	-1.813134e-09	-1.172828e+01	-1.221627e+02
1.490000e-06	-1.613533e-06	-1.800675e-09	-1.141648e+01	-1.216512e+02
1.500000e-06	-1.569445e-06	-1.790675e-09	-1.110454e+01	-1.211311e+02
1.510000e-06	-1.525268e-06	-1.785201e-09	-1.079197e+01	-1.206021e+02
1.520000e-06	-1.480924e-06	-1.777563e-09	-1.047821e+01	-1.200638e+02
1.530000e-06	-1.436457e-06	-1.766435e-09	-1.016359e+01	-1.195156e+02
1.540000e-06	-1.391956e-06	-1.756057e-09	-9.848726e+00	-1.189569e+02
1.550000e-06	-1.347387e-06	-1.749169e-09	-9.533379e+00	-1.183872e+02
1.560000e-06	-1.302715e-06	-1.742931e-09	-9.217303e+00	-1.178058e+02
1.570000e-06	-1.257961e-06	-1.735714e-09	-8.900646e+00	-1.172118e+02
1.580000e-06	-1.213143e-06	-1.727719e-09	-8.583542e+00	-1.166044e+02
1.590000e-06	-1.168297e-06	-1.717722e-09	-8.266237e+00	-1.159826e+02
1.600000e-06	-1.123364e-06	-1.705169e-09	-7.948310e+00	-1.153456e+02
1.610000e-06	-1.078227e-06	-1.688600e-09	-7.628945e+00	-1.146923e+02
1.620000e-06	-1.033022e-06	-1.670574e-09	-7.309102e+00	-1.140216e+02
1.630000e-06	-9.878143e-07	-1.657414e-09	-6.989237e+00	-1.133323e+02
1.640000e-06	-9.424627e-07	-1.649655e-09	-6.668354e+00	-1.126235e+02
1.650000e-06	-8.969826e-07	-1.641202e-09	-6.346562e+00	-1.118938e+02
1.660000e-06	-8.514526e-07	-1.632089e-09	-6.024415e+00	-1.111421e+02
1.670000e-06	-8.058555e-07	-1.623720e-09	-5.701795e+00	-1.103672e+02
1.680000e-06	-7.602063e-07	-1.613971e-09	-5.378807e+00	-1.095679e+02
1.690000e-06	-7.145092e-07	-1.594199e-09	-5.055479e+00	-1.087429e+02
1.700000e-06	-6.687337e-07	-1.568344e-09	-4.731596e+00	-1.078911e+02
1.710000e-06	-6.229281e-07	-1.547622e-09	-4.407500e+00	-1.070113e+02
1.720000e-06	-5.771278e-07	-1.538408e-09	-4.083442e+00	-1.061023e+02
1.730000e-06	-5.313124e-07	-1.529996e-09	-3.759278e+00	-1.051630e+02
1.740000e-06	-4.854696e-07	-1.518602e-09	-3.434919e+00	-1.041923e+02
1.750000e-06	-4.395313e-07	-1.508540e-09	-3.109885e+00	-1.031891e+02
1.760000e-06	-3.935664e-07	-1.500870e-09	-2.784662e+00	-1.021522e+02
1.770000e-06	-3.476168e-07	-1.487158e-09	-2.459547e+00	-1.010806e+02
1.780000e-06	-3.015953e-07	-1.463465e-09	-2.133924e+00	-9.997328e+01
1.790000e-06	-2.555190e-07	-1.434941e-09	-1.807913e+00	-9.882915e+01
1.800000e-06	-2.094822e-07	-1.412415e-09	-1.482182e+00	-9.764716e+01
1.810000e-06	-1.634658e-07	-1.395005e-09	-1.156595e+00	-9.642623e+01
1.820000e-06	-1.174159e-07	-1.377779e-09	-8.307714e-01	-9.516528e+01
1.830000e-06	-7.139422e-08	-1.360587e-09	-5.051467e-01	-9.386316e+01
1.840000e-06	-2.536535e-08	-1.345991e-09	-1.794714e-01	-9.251871e+01
1.850000e-06	2.074952e-08	-1.330488e-09	1.468124e-01	-9.113070e+01
1.860000e-06	6.689094e-08	-1.308413e-09	4.732839e-01	-8.969783e+01
1.870000e-06	1.129887e-07	-1.280906e-09	7.994469e-01	-8.821873e+01
1.880000e-06	1.590385e-07	-1.254169e-09	1.125270e+00	-8.669195e+01
1.890000e-06	2.050210e-07	-1.230023e-09	1.450617e+00	-8.511595e+01
1.900000e-06	2.509679e-07	-1.203787e-09	1.775712e+00	-8.348909e+01
1.910000e-06	2.969417e-07	-1.175660e-09	2.100998e+00	-8.180965e+01
1.920000e-06	3.428663e-07	-1.150386e-09	2.425936e+00	-8.007581e+01
1.930000e-06	3.887591e-07	-1.130875e-09	2.750648e+00	-7.828566e+01
1.940000e-06	4.346390e-07	-1.110781e-09	3.075269e+00	-7.643721e+01
1.950000e-06	4.804431e-07	-1.083721e-09	3.399354e+00	-7.452840e+01
1.960000e-06	5.261794e-07	-1.050355e-09	3.722959e+00	-7.255714e+01
1.970000e-06	5.719054e-07	-1.018290e-09	4.046492e+00	-7.052128e+01
1.980000e-06	6.176750e-07	-9.871772e-10	4.370333e+00	-6.841868e+01
1.990000e-06	6.633473e-07	-9.541925e-10	4.693485e+00	-6.624721e+01
2.000000e-06	7.089433e-07	-9.203143e-10	5.016097e+00	-6.400480e+01
2.010000e-06	7.545539e-07	-8.887685e-10	5.338814e+00	-6.168945e+01
2.020000e-06	8.000971e-07	-8.597896e-10	5.661052e+00	-5.929930e+01
2.030000e-06	8.455883e-07	-8.286478e-10	5.982923e+00	-5.683264e+01
2.040000e-06	8.910408e-07	-7.913087e-10	6.304520e+00	-5.428795e+01
2.050000e-06	9.363947e-07	-7.514606e-10	6.625420e+00	-5.166397e+01
2.060000e-06	9.816682e-07	-7.110930e-10	6.945750e+00	-4.895971e+01
2.070000e-06	1.026935e-06	-6.709591e-10	7.266033e+00	-4.617451e+01
2.080000e-06	1.072101e-06	-6.289003e-10	7.585605e+00	-4.330808e+01
2.090000e-06	1.117086e-06	-5.843507e-10	7.903897e+00	-4.036054e+01
2.100000e-06	1.162025e-06	-5.387435e-10	8.221857e+00	-3.733243e+01
2.110000e-06	1.206924e-06	-4.941398e-10	8.539539e+00	-3.422477e+01
2.120000e-06	1.251680e-06	-4.514391e-10	8.856204e+00	-3.103909e+01
2.130000e-06	1.296340e-06	-4.097712e-10	9.172195e+00	-2.777742e+01
2.140000e-06	1.340898e-06	-3.643344e-10	9.487465e+00	-2.444234e+01
2.150000e-06	1.385354e-06	-3.122454e-10	9.802015e+00	-2.103698e+01
2.160000e-06	1.429729e-06	-2.577341e-10	1.011598e+01	-1.756501e+01
2.170000e-06	1.473973e-06	-2.035970e-10	1.042903e+01	-1.403065e+01
2.180000e-06	1.518179e-06	-1.493426e-10	1.074181e+01	-1.043865e+01
2.190000e-06	1.562413e-06	-9.492162e-11	1.105479e+01	-6.794296e+00
2.200000e-06	1.606580e-06	-4.107798e-11	1.136728e+01	-3.103337e+00
2.210000e-06	1.650628e-06	1.092153e-11	1.167895e+01	6.280072e-01
2.220000e-06	1.694622e-06	6.401085e-11	1.199022e+01	4.393108e+00
2.230000e-06	1.738594e-06	1.218975e-10	1.230135e+01	8.184968e+00
2.240000e-06	1.782518e-06	1.821016e-10	1.261213e+01	1.199628e+01
2.250000e-06	1.826315e-06	2.419565e-10	1.292201e+01	1.581948e+01
2.260000e-06	1.869964e-06	3.002230e-10	1.323085e+01	1.964681e+01
2.270000e-06	1.913504e-06	3.594403e-10	1.353892e+01	2.347041e+01
2.280000e-06	1.956949e-06	4.182538e-10	1.384631e+01	2.728234e+01
2.290000e-06	2.000284e-06	4.742279e-10	1.415292e+01	3.107471e+01
2.300000e-06	2.043408e-06	5.280801e-10	1.445804e+01	3.483970e+01
2.310000e-06	2.086227e-06	5.835598e-10	1.476101e+01	3.856966e+01
2.320000e-06	2.128798e-06	6.396929e-10	1.506222e+01	4.225719e+01
2.330000e-06	2.171205e-06	6.931893e-10	1.536226e+01	4.589518e+01
2.340000e-06	2.213354e-06	7.429216e-10	1.566049e+01	4.947689e+01
2.350000e-06	2.255209e-06	7.920284e-10	1.595663e+01	5.299601e+01
2.360000e-06	2.296758e-06	8.435263e-10	1.625061e+01	5.644672e+01
2.370000e-06	2.338042e-06	8.956095e-10	1.654272e+01	5.982371e+01
2.380000e-06	2.379120e-06	9.452998e-10	1.683336e+01	6.312223e+01
2.390000e-06	2.419966e-06	9.927257e-10	1.712236e+01	6.633816e+01
2.400000e-06	2.460612e-06	1.037586e-09	1.740995e+01	6.946797e+01
2.410000e-06	2.500974e-06	1.080288e-09	1.769553e+01	7.250878e+01
2.420000e-06	2.541115e-06	1.119371e-09	1.797955e+01	7.545834e+01
2.430000e-06	2.581191e-06	1.155789e-09	1.826311e+01	7.831506e+01
2.440000e-06	2.621229e-06	1.193841e-09	1.854639e+01	8.107794e+01
2.450000e-06	2.661191e-06	1.231819e-09	1.882914e+01	8.374662e+01
2.460000e-06	2.700976e-06	1.268307e-09	1.911063e+01	8.632129e+01
2.470000e-06	2.740599e-06	1.305014e-09	1.939099e+01	8.880271e+01
2.480000e-06	2.780086e-06	1.342210e-09	1.967038e+01	9.119210e+01
2.490000e-06	2.819398e-06	1.377441e-09	1.994853e+01	9.349117e+01
2.500000e-06	2.858530e-06	1.408790e-09	2.022540e+01	9.570202e+01
2.510000e-06	2.897399e-06	1.435500e-09	2.050042e+01	9.782709e+01
2.520000e-06	2.936021e-06	1.462083e-09	2.077369e+01	9.986910e+01
2.530000e-06	2.974433e-06	1.490974e-09	2.104547e+01	1.018310e+02
2.540000e-06	3.012624e-06	1.519521e-09	2.131569e+01	1.037160e+02
2.550000e-06	3.050636e-06	1.547121e-09	2.158464e+01	1.055273e+02
2.560000e-06	3.088481e-06	1.576299e-09	2.185241e+01	1.072681e+02
2.570000e-06	3.126164e-06	1.604530e-09	2.211904e+01	1.089418e+02
2.580000e-06	3.163596e-06	1.628413e-09	2.238389e+01	1.105517e+02
2.590000e-06	3.200784e-06	1.647082e-09	2.264701e+01	1.121008e+02
2.600000e-06	3.237790e-06	1.664209e-09	2.290884e+01	1.135922e+02
2.610000e-06	3.274553e-06	1.684603e-09	2.316895e+01	1.150288e+02
2.620000e-06	3.311055e-06	1.706146e-09	2.342723e+01	1.164131e+02
2.630000e-06	3.347363e-06	1.724011e-09	2.368412e+01	1.177477e+02
2.640000e-06	3.383534e-06	1.740084e-09	2.394005e+01	1.190347e+02
2.650000e-06	3.419584e-06	1.758700e-09	2.419512e+01	1.202762e+02
2.660000e-06	3.455473e-06	1.778275e-09	2.444905e+01	1.214737e+02
2.670000e-06	3.491203e-06	1.794441e-09	2.470185e+01	1.226289e+02
2.680000e-06	3.526750e-06	1.808127e-09	2.495337e+01	1.237430e+02
2.690000e-06	3.562073e-06	1.821905e-09	2.520329e+01	1.248170e+02
2.700000e-06	3.597120e-06	1.835625e-09	2.545126e+01	1.258519e+02
2.710000e-06	3.631786e-06	1.849192e-09	2.569654e+01	1.268482e+02
2.720000e-06	3.666021e-06	1.862323e-09	2.593877e+01	1.278067e+02
2.730000e-06	3.699699e-06	1.875967e-09	2.617706e+01	1.287278e+02
2.740000e-06	3.732898e-06	1.890368e-09	2.641196e+01	1.296118e+02
2.750000e-06	3.765780e-06	1.904399e-09	2.664461e+01	1.304592e+02
2.760000e-06	3.798350e-06	1.916347e-09	2.687506e+01	1.312704e+02
2.770000e-06	3.830645e-06	1.926785e-09	2.710356e+01	1.320456e+02
2.780000e-06	3.862748e-06	1.937431e-09	2.733071e+01	1.327853e+02
2.790000e-06	3.894706e-06	1.948331e-09	2.755682e+01	1.334900e+02
2.800000e-06	3.926491e-06	1.957537e-09	2.778172e+01	1.341604e+02
2.810000e-06	3.958095e-06	1.964087e-09	2.800533e+01	1.347970e+02
2.820000e-06	3.989488e-06	1.969882e-09	2.822745e+01	1.354008e+02
2.830000e-06	4.020566e-06	1.978311e-09	2.844734e+01	1.359728e+02
2.840000e-06	4.051298e-06	1.988405e-09	2.866478e+01	1.365140e+02
2.850000e-06	4.081739e-06	1.999937e-09	2.888017e+01	1.370256e+02
2.860000e-06	4.111902e-06	2.011698e-09	2.909358e+01	1.375091e+02
2.870000e-06	4.141786e-06	2.020995e-09	2.930503e+01	1.379660e+02
2.880000e-06	4.171406e-06	2.023547e-09	2.951460e+01	1.383978e+02
2.890000e-06	4.200710e-06	2.022370e-09	2.972194e+01	1.388062e+02
2.900000e-06	4.229712e-06	2.023232e-09	2.992714e+01	1.391931e+02
