# Temperatura_=_-1.22
# Concentracion g/m^3_=_4090.0
# C_Vs_to_Am_M_A/Vsm_=_65563218390.804596
# pendiente_HvsI_1/m_=_3716.3
# ordenada_HvsI_A/m_=_1297.0
# frecuencia_Hz_=_135060.3255402531

Tiempo_(s)	Campo_(V.s)	Magnetizacion_(V.s)	Campo_(kA/m)	Magnetizacion_(A/m)
0.000000e+00	-5.442446e-06	-2.536093e-09	-3.839502e+01	-1.663374e+02
1.000000e-08	-5.442667e-06	-2.535581e-09	-3.839657e+01	-1.661904e+02
2.000000e-08	-5.442706e-06	-2.533462e-09	-3.839684e+01	-1.660432e+02
3.000000e-08	-5.442507e-06	-2.531533e-09	-3.839544e+01	-1.658981e+02
4.000000e-08	-5.441930e-06	-2.532049e-09	-3.839137e+01	-1.657572e+02
5.000000e-08	-5.440794e-06	-2.531044e-09	-3.838336e+01	-1.656227e+02
6.000000e-08	-5.439119e-06	-2.528379e-09	-3.837154e+01	-1.654965e+02
7.000000e-08	-5.436916e-06	-2.523428e-09	-3.835600e+01	-1.653807e+02
8.000000e-08	-5.434083e-06	-2.507607e-09	-3.833602e+01	-1.652770e+02
9.000000e-08	-5.430654e-06	-2.511758e-09	-3.831182e+01	-1.651868e+02
1.000000e-07	-5.426711e-06	-2.579572e-09	-3.828401e+01	-1.651117e+02
1.100000e-07	-5.422460e-06	-2.603674e-09	-3.825402e+01	-1.650526e+02
1.200000e-07	-5.418117e-06	-2.528898e-09	-3.822338e+01	-1.650104e+02
1.300000e-07	-5.413641e-06	-2.459592e-09	-3.819180e+01	-1.649856e+02
1.400000e-07	-5.408770e-06	-2.536696e-09	-3.815744e+01	-1.649783e+02
1.500000e-07	-5.403325e-06	-2.597227e-09	-3.811903e+01	-1.649885e+02
1.600000e-07	-5.397493e-06	-2.498580e-09	-3.807788e+01	-1.650158e+02
1.700000e-07	-5.391366e-06	-2.427198e-09	-3.803465e+01	-1.650594e+02
1.800000e-07	-5.384720e-06	-2.523923e-09	-3.798777e+01	-1.651183e+02
1.900000e-07	-5.377595e-06	-2.633555e-09	-3.793750e+01	-1.651911e+02
2.000000e-07	-5.370288e-06	-2.551481e-09	-3.788596e+01	-1.652763e+02
2.100000e-07	-5.362849e-06	-2.501366e-09	-3.783348e+01	-1.653721e+02
2.200000e-07	-5.355057e-06	-2.557291e-09	-3.777851e+01	-1.654765e+02
2.300000e-07	-5.347007e-06	-2.603161e-09	-3.772172e+01	-1.655873e+02
2.400000e-07	-5.338736e-06	-2.542175e-09	-3.766337e+01	-1.657021e+02
2.500000e-07	-5.329981e-06	-2.560067e-09	-3.760160e+01	-1.658187e+02
2.600000e-07	-5.320412e-06	-2.630870e-09	-3.753409e+01	-1.659345e+02
2.700000e-07	-5.310104e-06	-2.632910e-09	-3.746137e+01	-1.660472e+02
2.800000e-07	-5.299384e-06	-2.592266e-09	-3.738575e+01	-1.661543e+02
2.900000e-07	-5.288262e-06	-2.634351e-09	-3.730728e+01	-1.662535e+02
3.000000e-07	-5.276701e-06	-2.658470e-09	-3.722572e+01	-1.663427e+02
3.100000e-07	-5.264770e-06	-2.595739e-09	-3.714155e+01	-1.664198e+02
3.200000e-07	-5.252420e-06	-2.592698e-09	-3.705443e+01	-1.664829e+02
3.300000e-07	-5.239625e-06	-2.664418e-09	-3.696417e+01	-1.665305e+02
3.400000e-07	-5.226438e-06	-2.656705e-09	-3.687113e+01	-1.665612e+02
3.500000e-07	-5.212839e-06	-2.584820e-09	-3.677520e+01	-1.665739e+02
3.600000e-07	-5.198899e-06	-2.600555e-09	-3.667685e+01	-1.665677e+02
3.700000e-07	-5.184644e-06	-2.631623e-09	-3.657629e+01	-1.665421e+02
3.800000e-07	-5.169914e-06	-2.603626e-09	-3.647237e+01	-1.664968e+02
3.900000e-07	-5.154552e-06	-2.577805e-09	-3.636400e+01	-1.664319e+02
4.000000e-07	-5.138636e-06	-2.605624e-09	-3.625171e+01	-1.663476e+02
4.100000e-07	-5.122263e-06	-2.602906e-09	-3.613620e+01	-1.662445e+02
4.200000e-07	-5.105444e-06	-2.598752e-09	-3.601755e+01	-1.661235e+02
4.300000e-07	-5.088262e-06	-2.603320e-09	-3.589634e+01	-1.659855e+02
4.400000e-07	-5.070908e-06	-2.591416e-09	-3.577391e+01	-1.658318e+02
4.500000e-07	-5.053336e-06	-2.554772e-09	-3.564994e+01	-1.656636e+02
4.600000e-07	-5.035370e-06	-2.575690e-09	-3.552320e+01	-1.654826e+02
4.700000e-07	-5.016930e-06	-2.591475e-09	-3.539311e+01	-1.652903e+02
4.800000e-07	-4.998063e-06	-2.574813e-09	-3.526001e+01	-1.650883e+02
4.900000e-07	-4.978842e-06	-2.557145e-09	-3.512441e+01	-1.648783e+02
5.000000e-07	-4.959308e-06	-2.580528e-09	-3.498660e+01	-1.646620e+02
5.100000e-07	-4.939535e-06	-2.577321e-09	-3.484711e+01	-1.644409e+02
5.200000e-07	-4.919564e-06	-2.555840e-09	-3.470622e+01	-1.642166e+02
5.300000e-07	-4.899332e-06	-2.534756e-09	-3.456348e+01	-1.639905e+02
5.400000e-07	-4.878819e-06	-2.537503e-09	-3.441877e+01	-1.637639e+02
5.500000e-07	-4.857993e-06	-2.543884e-09	-3.427185e+01	-1.635378e+02
5.600000e-07	-4.836852e-06	-2.550535e-09	-3.412270e+01	-1.633132e+02
5.700000e-07	-4.815365e-06	-2.540705e-09	-3.397112e+01	-1.630910e+02
5.800000e-07	-4.793498e-06	-2.535232e-09	-3.381686e+01	-1.628716e+02
5.900000e-07	-4.771298e-06	-2.537790e-09	-3.366024e+01	-1.626554e+02
6.000000e-07	-4.748802e-06	-2.530787e-09	-3.350154e+01	-1.624427e+02
6.100000e-07	-4.725880e-06	-2.510131e-09	-3.333983e+01	-1.622333e+02
6.200000e-07	-4.702548e-06	-2.497639e-09	-3.317522e+01	-1.620270e+02
6.300000e-07	-4.678994e-06	-2.503334e-09	-3.300906e+01	-1.618236e+02
6.400000e-07	-4.655223e-06	-2.514898e-09	-3.284136e+01	-1.616225e+02
6.500000e-07	-4.631240e-06	-2.518880e-09	-3.267217e+01	-1.614230e+02
6.600000e-07	-4.607020e-06	-2.505340e-09	-3.250130e+01	-1.612244e+02
6.700000e-07	-4.582520e-06	-2.498696e-09	-3.232846e+01	-1.610259e+02
6.800000e-07	-4.557584e-06	-2.497808e-09	-3.215254e+01	-1.608266e+02
6.900000e-07	-4.532132e-06	-2.492122e-09	-3.197299e+01	-1.606255e+02
7.000000e-07	-4.506183e-06	-2.477154e-09	-3.178993e+01	-1.604217e+02
7.100000e-07	-4.479745e-06	-2.478709e-09	-3.160341e+01	-1.602144e+02
7.200000e-07	-4.452859e-06	-2.482039e-09	-3.141374e+01	-1.600026e+02
7.300000e-07	-4.425533e-06	-2.481117e-09	-3.122096e+01	-1.597857e+02
7.400000e-07	-4.397870e-06	-2.469344e-09	-3.102581e+01	-1.595628e+02
7.500000e-07	-4.370024e-06	-2.462679e-09	-3.082936e+01	-1.593335e+02
7.600000e-07	-4.342084e-06	-2.455765e-09	-3.063225e+01	-1.590972e+02
7.700000e-07	-4.313967e-06	-2.454550e-09	-3.043389e+01	-1.588536e+02
7.800000e-07	-4.285522e-06	-2.445867e-09	-3.023322e+01	-1.586026e+02
7.900000e-07	-4.256769e-06	-2.444351e-09	-3.003038e+01	-1.583440e+02
8.000000e-07	-4.227675e-06	-2.442731e-09	-2.982513e+01	-1.580779e+02
8.100000e-07	-4.198240e-06	-2.442899e-09	-2.961747e+01	-1.578045e+02
8.200000e-07	-4.168530e-06	-2.436082e-09	-2.940787e+01	-1.575241e+02
8.300000e-07	-4.138529e-06	-2.431926e-09	-2.919622e+01	-1.572373e+02
8.400000e-07	-4.108277e-06	-2.424510e-09	-2.898280e+01	-1.569445e+02
8.500000e-07	-4.077792e-06	-2.419498e-09	-2.876774e+01	-1.566463e+02
8.600000e-07	-4.046918e-06	-2.414170e-09	-2.854993e+01	-1.563435e+02
8.700000e-07	-4.015686e-06	-2.406854e-09	-2.832960e+01	-1.560368e+02
8.800000e-07	-3.984309e-06	-2.398558e-09	-2.810825e+01	-1.557270e+02
8.900000e-07	-3.952825e-06	-2.394004e-09	-2.788613e+01	-1.554147e+02
9.000000e-07	-3.921200e-06	-2.393864e-09	-2.766302e+01	-1.551009e+02
9.100000e-07	-3.889373e-06	-2.393237e-09	-2.743849e+01	-1.547860e+02
9.200000e-07	-3.857351e-06	-2.388456e-09	-2.721259e+01	-1.544709e+02
9.300000e-07	-3.825133e-06	-2.379878e-09	-2.698529e+01	-1.541561e+02
9.400000e-07	-3.792547e-06	-2.370876e-09	-2.675541e+01	-1.538421e+02
9.500000e-07	-3.759642e-06	-2.361604e-09	-2.652328e+01	-1.535292e+02
9.600000e-07	-3.726385e-06	-2.356405e-09	-2.628866e+01	-1.532178e+02
9.700000e-07	-3.692565e-06	-2.352809e-09	-2.605006e+01	-1.529079e+02
9.800000e-07	-3.658291e-06	-2.350952e-09	-2.580827e+01	-1.525996e+02
9.900000e-07	-3.623589e-06	-2.344467e-09	-2.556346e+01	-1.522927e+02
1.000000e-06	-3.588525e-06	-2.338724e-09	-2.531609e+01	-1.519871e+02
1.010000e-06	-3.553235e-06	-2.332921e-09	-2.506713e+01	-1.516824e+02
1.020000e-06	-3.517713e-06	-2.326594e-09	-2.481653e+01	-1.513782e+02
1.030000e-06	-3.482017e-06	-2.314901e-09	-2.456470e+01	-1.510738e+02
1.040000e-06	-3.446190e-06	-2.308923e-09	-2.431196e+01	-1.507685e+02
1.050000e-06	-3.410220e-06	-2.306111e-09	-2.405819e+01	-1.504618e+02
1.060000e-06	-3.374005e-06	-2.303832e-09	-2.380271e+01	-1.501527e+02
1.070000e-06	-3.337525e-06	-2.295971e-09	-2.354535e+01	-1.498404e+02
1.080000e-06	-3.300861e-06	-2.290322e-09	-2.328670e+01	-1.495241e+02
1.090000e-06	-3.263962e-06	-2.283072e-09	-2.302639e+01	-1.492029e+02
1.100000e-06	-3.226782e-06	-2.275593e-09	-2.276409e+01	-1.488759e+02
1.110000e-06	-3.189310e-06	-2.267149e-09	-2.249974e+01	-1.485423e+02
1.120000e-06	-3.151621e-06	-2.260610e-09	-2.223385e+01	-1.482013e+02
1.130000e-06	-3.113883e-06	-2.252961e-09	-2.196762e+01	-1.478522e+02
1.140000e-06	-3.076020e-06	-2.245230e-09	-2.170050e+01	-1.474943e+02
1.150000e-06	-3.037837e-06	-2.237452e-09	-2.143113e+01	-1.471270e+02
1.160000e-06	-2.999363e-06	-2.228436e-09	-2.115971e+01	-1.467498e+02
1.170000e-06	-2.960720e-06	-2.216947e-09	-2.088710e+01	-1.463624e+02
1.180000e-06	-2.921919e-06	-2.205484e-09	-2.061336e+01	-1.459644e+02
1.190000e-06	-2.882902e-06	-2.198155e-09	-2.033811e+01	-1.455557e+02
1.200000e-06	-2.843642e-06	-2.194917e-09	-2.006114e+01	-1.451361e+02
1.210000e-06	-2.804228e-06	-2.187675e-09	-1.978308e+01	-1.447057e+02
1.220000e-06	-2.764681e-06	-2.176297e-09	-1.950409e+01	-1.442645e+02
1.230000e-06	-2.724956e-06	-2.165814e-09	-1.922384e+01	-1.438128e+02
1.240000e-06	-2.685114e-06	-2.157848e-09	-1.894277e+01	-1.433508e+02
1.250000e-06	-2.645139e-06	-2.151458e-09	-1.866075e+01	-1.428787e+02
1.260000e-06	-2.605075e-06	-2.141255e-09	-1.837811e+01	-1.423969e+02
1.270000e-06	-2.564967e-06	-2.130718e-09	-1.809516e+01	-1.419059e+02
1.280000e-06	-2.524755e-06	-2.124295e-09	-1.781148e+01	-1.414060e+02
1.290000e-06	-2.484382e-06	-2.121508e-09	-1.752666e+01	-1.408976e+02
1.300000e-06	-2.443684e-06	-2.114337e-09	-1.723954e+01	-1.403812e+02
1.310000e-06	-2.402756e-06	-2.101622e-09	-1.695080e+01	-1.398570e+02
1.320000e-06	-2.361601e-06	-2.089080e-09	-1.666047e+01	-1.393255e+02
1.330000e-06	-2.320145e-06	-2.081820e-09	-1.636801e+01	-1.387869e+02
1.340000e-06	-2.278441e-06	-2.072475e-09	-1.607380e+01	-1.382415e+02
1.350000e-06	-2.236327e-06	-2.062117e-09	-1.577669e+01	-1.376894e+02
1.360000e-06	-2.193822e-06	-2.050126e-09	-1.547683e+01	-1.371308e+02
1.370000e-06	-2.151125e-06	-2.041813e-09	-1.517561e+01	-1.365657e+02
1.380000e-06	-2.108266e-06	-2.036314e-09	-1.487326e+01	-1.359939e+02
1.390000e-06	-2.065203e-06	-2.029067e-09	-1.456946e+01	-1.354154e+02
1.400000e-06	-2.021952e-06	-2.018180e-09	-1.426434e+01	-1.348299e+02
1.410000e-06	-1.978489e-06	-2.007582e-09	-1.395771e+01	-1.342371e+02
1.420000e-06	-1.934845e-06	-1.995881e-09	-1.364981e+01	-1.336367e+02
1.430000e-06	-1.891152e-06	-1.981614e-09	-1.334157e+01	-1.330281e+02
1.440000e-06	-1.847385e-06	-1.966307e-09	-1.303281e+01	-1.324109e+02
1.450000e-06	-1.803585e-06	-1.952908e-09	-1.272381e+01	-1.317844e+02
1.460000e-06	-1.759748e-06	-1.944435e-09	-1.241455e+01	-1.311481e+02
1.470000e-06	-1.715808e-06	-1.938165e-09	-1.210457e+01	-1.305013e+02
1.480000e-06	-1.671796e-06	-1.930451e-09	-1.179408e+01	-1.298434e+02
1.490000e-06	-1.627700e-06	-1.921658e-09	-1.148299e+01	-1.291734e+02
1.500000e-06	-1.583495e-06	-1.912366e-09	-1.117113e+01	-1.284909e+02
1.510000e-06	-1.539172e-06	-1.899191e-09	-1.085845e+01	-1.277950e+02
1.520000e-06	-1.494760e-06	-1.884557e-09	-1.054513e+01	-1.270849e+02
1.530000e-06	-1.450268e-06	-1.871614e-09	-1.023126e+01	-1.263600e+02
1.540000e-06	-1.405681e-06	-1.860947e-09	-9.916705e+00	-1.256195e+02
1.550000e-06	-1.360980e-06	-1.849319e-09	-9.601355e+00	-1.248628e+02
1.560000e-06	-1.316236e-06	-1.838285e-09	-9.285696e+00	-1.240891e+02
1.570000e-06	-1.271457e-06	-1.829514e-09	-8.969792e+00	-1.232978e+02
1.580000e-06	-1.226506e-06	-1.822614e-09	-8.652677e+00	-1.224883e+02
1.590000e-06	-1.181417e-06	-1.812481e-09	-8.334581e+00	-1.216598e+02
1.600000e-06	-1.136286e-06	-1.797824e-09	-8.016198e+00	-1.208118e+02
1.610000e-06	-1.091051e-06	-1.782719e-09	-7.697072e+00	-1.199437e+02
1.620000e-06	-1.045720e-06	-1.766329e-09	-7.377275e+00	-1.190548e+02
1.630000e-06	-1.000301e-06	-1.749374e-09	-7.056857e+00	-1.181445e+02
1.640000e-06	-9.547770e-07	-1.731663e-09	-6.735699e+00	-1.172123e+02
1.650000e-06	-9.091970e-07	-1.715024e-09	-6.414144e+00	-1.162574e+02
1.660000e-06	-8.635124e-07	-1.703793e-09	-6.091851e+00	-1.152792e+02
1.670000e-06	-8.177791e-07	-1.692914e-09	-5.769215e+00	-1.142770e+02
1.680000e-06	-7.720705e-07	-1.677245e-09	-5.446752e+00	-1.132501e+02
1.690000e-06	-7.262903e-07	-1.657328e-09	-5.123785e+00	-1.121976e+02
1.700000e-06	-6.804846e-07	-1.637701e-09	-4.800638e+00	-1.111188e+02
1.710000e-06	-6.346388e-07	-1.619308e-09	-4.477208e+00	-1.100128e+02
1.720000e-06	-5.886586e-07	-1.599600e-09	-4.152830e+00	-1.088785e+02
1.730000e-06	-5.426754e-07	-1.579155e-09	-3.828431e+00	-1.077151e+02
1.740000e-06	-4.968108e-07	-1.561343e-09	-3.504868e+00	-1.065214e+02
1.750000e-06	-4.509181e-07	-1.545771e-09	-3.181108e+00	-1.052963e+02
1.760000e-06	-4.048643e-07	-1.531213e-09	-2.856211e+00	-1.040387e+02
1.770000e-06	-3.588126e-07	-1.513602e-09	-2.531328e+00	-1.027471e+02
1.780000e-06	-3.127718e-07	-1.490553e-09	-2.206522e+00	-1.014205e+02
1.790000e-06	-2.666525e-07	-1.465021e-09	-1.881163e+00	-1.000574e+02
1.800000e-06	-2.205252e-07	-1.439034e-09	-1.555747e+00	-9.865636e+01
1.810000e-06	-1.744229e-07	-1.413516e-09	-1.230507e+00	-9.721601e+01
1.820000e-06	-1.282733e-07	-1.390211e-09	-9.049339e-01	-9.573488e+01
1.830000e-06	-8.209665e-08	-1.368934e-09	-5.791701e-01	-9.421149e+01
1.840000e-06	-3.599987e-08	-1.346387e-09	-2.539695e-01	-9.264434e+01
1.850000e-06	1.008016e-08	-1.322623e-09	7.111285e-02	-9.103194e+01
1.860000e-06	5.618307e-08	-1.298495e-09	3.963567e-01	-8.937280e+01
1.870000e-06	1.022453e-07	-1.272391e-09	7.213133e-01	-8.766548e+01
1.880000e-06	1.483191e-07	-1.242376e-09	1.046352e+00	-8.590854e+01
1.890000e-06	1.943855e-07	-1.211081e-09	1.371338e+00	-8.410058e+01
1.900000e-06	2.404066e-07	-1.181034e-09	1.696005e+00	-8.224026e+01
1.910000e-06	2.864222e-07	-1.151596e-09	2.020633e+00	-8.032631e+01
1.920000e-06	3.324614e-07	-1.119852e-09	2.345427e+00	-7.835751e+01
1.930000e-06	3.785537e-07	-1.087225e-09	2.670596e+00	-7.633273e+01
1.940000e-06	4.246287e-07	-1.057279e-09	2.995643e+00	-7.425092e+01
1.950000e-06	4.706683e-07	-1.029027e-09	3.320440e+00	-7.211112e+01
1.960000e-06	5.166234e-07	-9.983640e-10	3.644641e+00	-6.991249e+01
1.970000e-06	5.624662e-07	-9.646777e-10	3.968049e+00	-6.765427e+01
1.980000e-06	6.082799e-07	-9.310852e-10	4.291254e+00	-6.533583e+01
1.990000e-06	6.540617e-07	-8.989213e-10	4.614232e+00	-6.295668e+01
2.000000e-06	6.997910e-07	-8.634326e-10	4.936840e+00	-6.051644e+01
2.010000e-06	7.454834e-07	-8.233127e-10	5.259187e+00	-5.801486e+01
2.020000e-06	7.911282e-07	-7.838105e-10	5.581199e+00	-5.545185e+01
2.030000e-06	8.367629e-07	-7.472443e-10	5.903140e+00	-5.282746e+01
2.040000e-06	8.823620e-07	-7.099471e-10	6.224830e+00	-5.014189e+01
2.050000e-06	9.278897e-07	-6.695235e-10	6.546015e+00	-4.739551e+01
2.060000e-06	9.733606e-07	-6.277108e-10	6.866801e+00	-4.458887e+01
2.070000e-06	1.018730e-06	-5.889178e-10	7.186870e+00	-4.172267e+01
2.080000e-06	1.064005e-06	-5.515690e-10	7.506270e+00	-3.879782e+01
2.090000e-06	1.109257e-06	-5.078161e-10	7.825511e+00	-3.581540e+01
2.100000e-06	1.154469e-06	-4.581942e-10	8.144469e+00	-3.277670e+01
2.110000e-06	1.199534e-06	-4.103234e-10	8.462395e+00	-2.968321e+01
2.120000e-06	1.244451e-06	-3.658466e-10	8.779270e+00	-2.653664e+01
2.130000e-06	1.289196e-06	-3.229324e-10	9.094933e+00	-2.333890e+01
2.140000e-06	1.333803e-06	-2.784705e-10	9.409626e+00	-2.009212e+01
2.150000e-06	1.378379e-06	-2.328908e-10	9.724101e+00	-1.679867e+01
2.160000e-06	1.422830e-06	-1.880417e-10	1.003769e+01	-1.346114e+01
2.170000e-06	1.467183e-06	-1.388373e-10	1.035059e+01	-1.008235e+01
2.180000e-06	1.511528e-06	-8.482829e-11	1.066343e+01	-6.665338e+00
2.190000e-06	1.555741e-06	-3.134203e-11	1.097534e+01	-3.213376e+00
2.200000e-06	1.599785e-06	1.839208e-11	1.128606e+01	2.700481e-01
2.210000e-06	1.643761e-06	6.908714e-11	1.159629e+01	3.781231e+00
2.220000e-06	1.687725e-06	1.255776e-10	1.190645e+01	7.316268e+00
2.230000e-06	1.731639e-06	1.835826e-10	1.221626e+01	1.087106e+01
2.240000e-06	1.775480e-06	2.359286e-10	1.252554e+01	1.444134e+01
2.250000e-06	1.819295e-06	2.852370e-10	1.283464e+01	1.802267e+01
2.260000e-06	1.863111e-06	3.394453e-10	1.314375e+01	2.161048e+01
2.270000e-06	1.906891e-06	3.958597e-10	1.345261e+01	2.520009e+01
2.280000e-06	1.950605e-06	4.467263e-10	1.376100e+01	2.878670e+01
2.290000e-06	1.994152e-06	4.974678e-10	1.406821e+01	3.236549e+01
2.300000e-06	2.037598e-06	5.556032e-10	1.437472e+01	3.593155e+01
2.310000e-06	2.080989e-06	6.163679e-10	1.468083e+01	3.948002e+01
2.320000e-06	2.124108e-06	6.698771e-10	1.498502e+01	4.300602e+01
2.330000e-06	2.166887e-06	7.160309e-10	1.528681e+01	4.650475e+01
2.340000e-06	2.209397e-06	7.618012e-10	1.558671e+01	4.997151e+01
2.350000e-06	2.251602e-06	8.079090e-10	1.588446e+01	5.340170e+01
2.360000e-06	2.293345e-06	8.523811e-10	1.617894e+01	5.679090e+01
2.370000e-06	2.334675e-06	8.994140e-10	1.647051e+01	6.013488e+01
2.380000e-06	2.375843e-06	9.531328e-10	1.676094e+01	6.342960e+01
2.390000e-06	2.416808e-06	1.010543e-09	1.704994e+01	6.667130e+01
2.400000e-06	2.457561e-06	1.061256e-09	1.733744e+01	6.985647e+01
2.410000e-06	2.498142e-06	1.101347e-09	1.762373e+01	7.298191e+01
2.420000e-06	2.538480e-06	1.138006e-09	1.790831e+01	7.604474e+01
2.430000e-06	2.578658e-06	1.177409e-09	1.819175e+01	7.904239e+01
2.440000e-06	2.618701e-06	1.217392e-09	1.847424e+01	8.197265e+01
2.450000e-06	2.658620e-06	1.255574e-09	1.875586e+01	8.483365e+01
2.460000e-06	2.698464e-06	1.296532e-09	1.903695e+01	8.762390e+01
2.470000e-06	2.738239e-06	1.343848e-09	1.931755e+01	9.034223e+01
2.480000e-06	2.777945e-06	1.390875e-09	1.959766e+01	9.298786e+01
2.490000e-06	2.817539e-06	1.428869e-09	1.987699e+01	9.556032e+01
2.500000e-06	2.856959e-06	1.462500e-09	2.015508e+01	9.805950e+01
2.510000e-06	2.896178e-06	1.497158e-09	2.043177e+01	1.004856e+02
2.520000e-06	2.935130e-06	1.531314e-09	2.070656e+01	1.028390e+02
2.530000e-06	2.973746e-06	1.562135e-09	2.097899e+01	1.051206e+02
2.540000e-06	3.012072e-06	1.590025e-09	2.124937e+01	1.073314e+02
2.550000e-06	3.050251e-06	1.621334e-09	2.151871e+01	1.094725e+02
2.560000e-06	3.088280e-06	1.658415e-09	2.178700e+01	1.115454e+02
2.570000e-06	3.126136e-06	1.691790e-09	2.205406e+01	1.135516e+02
2.580000e-06	3.163841e-06	1.717690e-09	2.232006e+01	1.154929e+02
2.590000e-06	3.201362e-06	1.743804e-09	2.258476e+01	1.173711e+02
2.600000e-06	3.238609e-06	1.771628e-09	2.284753e+01	1.191880e+02
2.610000e-06	3.275500e-06	1.796502e-09	2.310778e+01	1.209455e+02
2.620000e-06	3.312115e-06	1.816950e-09	2.336610e+01	1.226456e+02
2.630000e-06	3.348506e-06	1.836952e-09	2.362282e+01	1.242902e+02
2.640000e-06	3.384698e-06	1.861526e-09	2.387815e+01	1.258811e+02
2.650000e-06	3.420757e-06	1.886646e-09	2.413253e+01	1.274202e+02
2.660000e-06	3.456651e-06	1.906644e-09	2.438576e+01	1.289093e+02
2.670000e-06	3.492419e-06	1.925248e-09	2.463809e+01	1.303499e+02
2.680000e-06	3.528103e-06	1.947048e-09	2.488983e+01	1.317437e+02
2.690000e-06	3.563646e-06	1.967593e-09	2.514058e+01	1.330922e+02
2.700000e-06	3.598968e-06	1.983468e-09	2.538977e+01	1.343966e+02
2.710000e-06	3.633952e-06	1.999226e-09	2.563657e+01	1.356583e+02
2.720000e-06	3.668523e-06	2.018710e-09	2.588046e+01	1.368784e+02
2.730000e-06	3.702642e-06	2.039238e-09	2.612116e+01	1.380580e+02
2.740000e-06	3.736243e-06	2.054889e-09	2.635820e+01	1.391981e+02
2.750000e-06	3.769384e-06	2.068142e-09	2.659201e+01	1.402994e+02
2.760000e-06	3.802118e-06	2.086434e-09	2.682293e+01	1.413629e+02
2.770000e-06	3.834510e-06	2.104374e-09	2.705145e+01	1.423894e+02
2.780000e-06	3.866712e-06	2.115378e-09	2.727863e+01	1.433795e+02
2.790000e-06	3.898736e-06	2.123895e-09	2.750455e+01	1.443340e+02
2.800000e-06	3.930631e-06	2.136152e-09	2.772956e+01	1.452535e+02
2.810000e-06	3.962402e-06	2.152148e-09	2.795370e+01	1.461389e+02
2.820000e-06	3.993908e-06	2.163281e-09	2.817596e+01	1.469907e+02
2.830000e-06	4.025093e-06	2.167255e-09	2.839596e+01	1.478098e+02
2.840000e-06	4.056005e-06	2.175487e-09	2.861404e+01	1.485969e+02
2.850000e-06	4.086610e-06	2.192188e-09	2.882995e+01	1.493528e+02
2.860000e-06	4.116843e-06	2.207894e-09	2.904323e+01	1.500786e+02
2.870000e-06	4.146768e-06	2.216877e-09	2.925435e+01	1.507750e+02
2.880000e-06	4.176470e-06	2.223750e-09	2.946389e+01	1.514431e+02
2.890000e-06	4.205986e-06	2.232301e-09	2.967211e+01	1.520840e+02
2.900000e-06	4.235203e-06	2.238594e-09	2.987824e+01	1.526987e+02
