# Temperatura_=_19.29
# Concentracion g/m^3_=_4090.0
# C_Vs_to_Am_M_A/Vsm_=_65563218390.804596
# pendiente_HvsI_1/m_=_3716.3
# ordenada_HvsI_A/m_=_1297.0
# frecuencia_Hz_=_135078.4824145622

Tiempo_(s)	Campo_(V.s)	Magnetizacion_(V.s)	Campo_(kA/m)	Magnetizacion_(A/m)
0.000000e+00	-5.407954e-06	-2.307915e-09	-3.839122e+01	-1.513527e+02
1.000000e-08	-5.408162e-06	-2.306279e-09	-3.839270e+01	-1.512035e+02
2.000000e-08	-5.408139e-06	-2.305775e-09	-3.839254e+01	-1.510523e+02
3.000000e-08	-5.407915e-06	-2.307054e-09	-3.839095e+01	-1.509011e+02
4.000000e-08	-5.407314e-06	-2.306976e-09	-3.838668e+01	-1.507519e+02
5.000000e-08	-5.406135e-06	-2.305518e-09	-3.837831e+01	-1.506068e+02
6.000000e-08	-5.404408e-06	-2.302685e-09	-3.836606e+01	-1.504677e+02
7.000000e-08	-5.402108e-06	-2.299553e-09	-3.834972e+01	-1.503366e+02
8.000000e-08	-5.399216e-06	-2.293808e-09	-3.832920e+01	-1.502153e+02
9.000000e-08	-5.395804e-06	-2.296033e-09	-3.830497e+01	-1.501054e+02
1.000000e-07	-5.391911e-06	-2.322525e-09	-3.827734e+01	-1.500084e+02
1.100000e-07	-5.387690e-06	-2.346114e-09	-3.824737e+01	-1.499254e+02
1.200000e-07	-5.383390e-06	-2.302333e-09	-3.821685e+01	-1.498575e+02
1.300000e-07	-5.378961e-06	-2.253868e-09	-3.818541e+01	-1.498053e+02
1.400000e-07	-5.374151e-06	-2.316009e-09	-3.815126e+01	-1.497692e+02
1.500000e-07	-5.368816e-06	-2.342342e-09	-3.811338e+01	-1.497494e+02
1.600000e-07	-5.363102e-06	-2.276307e-09	-3.807282e+01	-1.497457e+02
1.700000e-07	-5.357041e-06	-2.205441e-09	-3.802979e+01	-1.497576e+02
1.800000e-07	-5.350371e-06	-2.290819e-09	-3.798244e+01	-1.497842e+02
1.900000e-07	-5.343205e-06	-2.379135e-09	-3.793157e+01	-1.498246e+02
2.000000e-07	-5.335869e-06	-2.298601e-09	-3.787949e+01	-1.498774e+02
2.100000e-07	-5.328453e-06	-2.257064e-09	-3.782685e+01	-1.499410e+02
2.200000e-07	-5.320702e-06	-2.316058e-09	-3.777182e+01	-1.500135e+02
2.300000e-07	-5.312624e-06	-2.377293e-09	-3.771447e+01	-1.500931e+02
2.400000e-07	-5.304377e-06	-2.297399e-09	-3.765593e+01	-1.501774e+02
2.500000e-07	-5.295713e-06	-2.304848e-09	-3.759442e+01	-1.502644e+02
2.600000e-07	-5.286142e-06	-2.367963e-09	-3.752648e+01	-1.503516e+02
2.700000e-07	-5.275850e-06	-2.379072e-09	-3.745341e+01	-1.504366e+02
2.800000e-07	-5.265183e-06	-2.324285e-09	-3.737769e+01	-1.505171e+02
2.900000e-07	-5.254037e-06	-2.367281e-09	-3.729857e+01	-1.505909e+02
3.000000e-07	-5.242386e-06	-2.394074e-09	-3.721585e+01	-1.506555e+02
3.100000e-07	-5.230420e-06	-2.331508e-09	-3.713091e+01	-1.507091e+02
3.200000e-07	-5.218150e-06	-2.319680e-09	-3.704380e+01	-1.507495e+02
3.300000e-07	-5.205481e-06	-2.392437e-09	-3.695386e+01	-1.507752e+02
3.400000e-07	-5.192456e-06	-2.374539e-09	-3.686140e+01	-1.507845e+02
3.500000e-07	-5.179038e-06	-2.299219e-09	-3.676615e+01	-1.507763e+02
3.600000e-07	-5.165239e-06	-2.348690e-09	-3.666819e+01	-1.507494e+02
3.700000e-07	-5.151020e-06	-2.393511e-09	-3.656724e+01	-1.507033e+02
3.800000e-07	-5.136334e-06	-2.334657e-09	-3.646299e+01	-1.506373e+02
3.900000e-07	-5.121076e-06	-2.299930e-09	-3.635467e+01	-1.505515e+02
4.000000e-07	-5.105221e-06	-2.346539e-09	-3.624212e+01	-1.504458e+02
4.100000e-07	-5.088980e-06	-2.330052e-09	-3.612682e+01	-1.503208e+02
4.200000e-07	-5.072364e-06	-2.305186e-09	-3.600886e+01	-1.501770e+02
4.300000e-07	-5.055327e-06	-2.324587e-09	-3.588792e+01	-1.500153e+02
4.400000e-07	-5.038044e-06	-2.329254e-09	-3.576522e+01	-1.498369e+02
4.500000e-07	-5.020483e-06	-2.296160e-09	-3.564056e+01	-1.496430e+02
4.600000e-07	-5.002646e-06	-2.330202e-09	-3.551394e+01	-1.494352e+02
4.700000e-07	-4.984436e-06	-2.335311e-09	-3.538466e+01	-1.492149e+02
4.800000e-07	-4.965748e-06	-2.300140e-09	-3.525200e+01	-1.489838e+02
4.900000e-07	-4.946612e-06	-2.291330e-09	-3.511614e+01	-1.487436e+02
5.000000e-07	-4.927161e-06	-2.323181e-09	-3.497807e+01	-1.484960e+02
5.100000e-07	-4.907491e-06	-2.296290e-09	-3.483843e+01	-1.482428e+02
5.200000e-07	-4.887583e-06	-2.280698e-09	-3.469710e+01	-1.479855e+02
5.300000e-07	-4.867486e-06	-2.287612e-09	-3.455443e+01	-1.477258e+02
5.400000e-07	-4.847134e-06	-2.294262e-09	-3.440995e+01	-1.474650e+02
5.500000e-07	-4.826395e-06	-2.285460e-09	-3.426272e+01	-1.472045e+02
5.600000e-07	-4.805277e-06	-2.289944e-09	-3.411280e+01	-1.469455e+02
5.700000e-07	-4.783856e-06	-2.271158e-09	-3.396074e+01	-1.466888e+02
5.800000e-07	-4.762170e-06	-2.263436e-09	-3.380679e+01	-1.464352e+02
5.900000e-07	-4.740184e-06	-2.268887e-09	-3.365071e+01	-1.461854e+02
6.000000e-07	-4.717815e-06	-2.261569e-09	-3.349191e+01	-1.459396e+02
6.100000e-07	-4.695096e-06	-2.243482e-09	-3.333063e+01	-1.456981e+02
6.200000e-07	-4.672082e-06	-2.248292e-09	-3.316725e+01	-1.454607e+02
6.300000e-07	-4.648744e-06	-2.254060e-09	-3.300157e+01	-1.452272e+02
6.400000e-07	-4.625121e-06	-2.248381e-09	-3.283387e+01	-1.449972e+02
6.500000e-07	-4.601265e-06	-2.242339e-09	-3.266452e+01	-1.447702e+02
6.600000e-07	-4.577159e-06	-2.233295e-09	-3.249339e+01	-1.445454e+02
6.700000e-07	-4.552806e-06	-2.229318e-09	-3.232051e+01	-1.443220e+02
6.800000e-07	-4.528116e-06	-2.229554e-09	-3.214523e+01	-1.440991e+02
6.900000e-07	-4.502903e-06	-2.228321e-09	-3.196624e+01	-1.438757e+02
7.000000e-07	-4.477235e-06	-2.217970e-09	-3.178402e+01	-1.436508e+02
7.100000e-07	-4.451184e-06	-2.218834e-09	-3.159909e+01	-1.434233e+02
7.200000e-07	-4.424550e-06	-2.213402e-09	-3.141001e+01	-1.431923e+02
7.300000e-07	-4.397402e-06	-2.204988e-09	-3.121729e+01	-1.429567e+02
7.400000e-07	-4.369937e-06	-2.192540e-09	-3.102231e+01	-1.427157e+02
7.500000e-07	-4.342222e-06	-2.192977e-09	-3.082557e+01	-1.424684e+02
7.600000e-07	-4.314354e-06	-2.192682e-09	-3.062773e+01	-1.422142e+02
7.700000e-07	-4.286372e-06	-2.195588e-09	-3.042908e+01	-1.419525e+02
7.800000e-07	-4.258174e-06	-2.185396e-09	-3.022890e+01	-1.416827e+02
7.900000e-07	-4.229615e-06	-2.179004e-09	-3.002616e+01	-1.414045e+02
8.000000e-07	-4.200778e-06	-2.169710e-09	-2.982145e+01	-1.411179e+02
8.100000e-07	-4.171632e-06	-2.164999e-09	-2.961454e+01	-1.408227e+02
8.200000e-07	-4.142113e-06	-2.156140e-09	-2.940498e+01	-1.405190e+02
8.300000e-07	-4.112312e-06	-2.156168e-09	-2.919343e+01	-1.402072e+02
8.400000e-07	-4.082252e-06	-2.153467e-09	-2.898003e+01	-1.398876e+02
8.500000e-07	-4.051999e-06	-2.151190e-09	-2.876526e+01	-1.395606e+02
8.600000e-07	-4.021527e-06	-2.142805e-09	-2.854894e+01	-1.392268e+02
8.700000e-07	-3.990770e-06	-2.132449e-09	-2.833060e+01	-1.388870e+02
8.800000e-07	-3.959745e-06	-2.119762e-09	-2.811035e+01	-1.385419e+02
8.900000e-07	-3.928424e-06	-2.110218e-09	-2.788800e+01	-1.381921e+02
9.000000e-07	-3.896840e-06	-2.105187e-09	-2.766379e+01	-1.378386e+02
9.100000e-07	-3.865096e-06	-2.103212e-09	-2.743843e+01	-1.374820e+02
9.200000e-07	-3.833185e-06	-2.097674e-09	-2.721190e+01	-1.371232e+02
9.300000e-07	-3.801075e-06	-2.090755e-09	-2.698395e+01	-1.367629e+02
9.400000e-07	-3.768695e-06	-2.083366e-09	-2.675408e+01	-1.364017e+02
9.500000e-07	-3.736005e-06	-2.074560e-09	-2.652201e+01	-1.360402e+02
9.600000e-07	-3.703064e-06	-2.066757e-09	-2.628816e+01	-1.356790e+02
9.700000e-07	-3.669744e-06	-2.058850e-09	-2.605162e+01	-1.353185e+02
9.800000e-07	-3.635910e-06	-2.055319e-09	-2.581143e+01	-1.349588e+02
9.900000e-07	-3.601545e-06	-2.049841e-09	-2.556747e+01	-1.346003e+02
1.000000e-06	-3.566668e-06	-2.042083e-09	-2.531988e+01	-1.342428e+02
1.010000e-06	-3.531466e-06	-2.031999e-09	-2.506998e+01	-1.338865e+02
1.020000e-06	-3.496037e-06	-2.025352e-09	-2.481847e+01	-1.335310e+02
1.030000e-06	-3.460374e-06	-2.015995e-09	-2.456530e+01	-1.331760e+02
1.040000e-06	-3.424572e-06	-2.009936e-09	-2.431114e+01	-1.328212e+02
1.050000e-06	-3.388689e-06	-2.006203e-09	-2.405641e+01	-1.324660e+02
1.060000e-06	-3.352668e-06	-2.005574e-09	-2.380069e+01	-1.321099e+02
1.070000e-06	-3.316491e-06	-1.999827e-09	-2.354387e+01	-1.317521e+02
1.080000e-06	-3.280146e-06	-1.991403e-09	-2.328586e+01	-1.313920e+02
1.090000e-06	-3.243584e-06	-1.978543e-09	-2.302630e+01	-1.310287e+02
1.100000e-06	-3.206715e-06	-1.968870e-09	-2.276456e+01	-1.306616e+02
1.110000e-06	-3.169487e-06	-1.961181e-09	-2.250028e+01	-1.302898e+02
1.120000e-06	-3.132022e-06	-1.957309e-09	-2.223432e+01	-1.299125e+02
1.130000e-06	-3.094373e-06	-1.951904e-09	-2.196705e+01	-1.295290e+02
1.140000e-06	-3.056484e-06	-1.948360e-09	-2.169807e+01	-1.291385e+02
1.150000e-06	-3.018450e-06	-1.944652e-09	-2.142807e+01	-1.287405e+02
1.160000e-06	-2.980379e-06	-1.937189e-09	-2.115780e+01	-1.283343e+02
1.170000e-06	-2.942117e-06	-1.922652e-09	-2.088618e+01	-1.279194e+02
1.180000e-06	-2.903579e-06	-1.910727e-09	-2.061259e+01	-1.274954e+02
1.190000e-06	-2.864821e-06	-1.902977e-09	-2.033745e+01	-1.270618e+02
1.200000e-06	-2.825830e-06	-1.898033e-09	-2.006065e+01	-1.266184e+02
1.210000e-06	-2.786609e-06	-1.890020e-09	-1.978222e+01	-1.261651e+02
1.220000e-06	-2.747128e-06	-1.880382e-09	-1.950194e+01	-1.257016e+02
1.230000e-06	-2.707486e-06	-1.871626e-09	-1.922053e+01	-1.252280e+02
1.240000e-06	-2.667782e-06	-1.862597e-09	-1.893867e+01	-1.247443e+02
1.250000e-06	-2.627989e-06	-1.853212e-09	-1.865617e+01	-1.242507e+02
1.260000e-06	-2.588067e-06	-1.842769e-09	-1.837276e+01	-1.237471e+02
1.270000e-06	-2.548034e-06	-1.836761e-09	-1.808857e+01	-1.232339e+02
1.280000e-06	-2.507968e-06	-1.831074e-09	-1.780414e+01	-1.227113e+02
1.290000e-06	-2.467785e-06	-1.824294e-09	-1.751888e+01	-1.221794e+02
1.300000e-06	-2.427386e-06	-1.811772e-09	-1.723209e+01	-1.216386e+02
1.310000e-06	-2.386786e-06	-1.795950e-09	-1.694387e+01	-1.210891e+02
1.320000e-06	-2.345921e-06	-1.779588e-09	-1.665377e+01	-1.205310e+02
1.330000e-06	-2.304818e-06	-1.768319e-09	-1.636197e+01	-1.199646e+02
1.340000e-06	-2.263481e-06	-1.759276e-09	-1.606852e+01	-1.193899e+02
1.350000e-06	-2.221880e-06	-1.754361e-09	-1.577319e+01	-1.188071e+02
1.360000e-06	-2.179989e-06	-1.750128e-09	-1.547581e+01	-1.182161e+02
1.370000e-06	-2.137698e-06	-1.742476e-09	-1.517558e+01	-1.176170e+02
1.380000e-06	-2.095073e-06	-1.729116e-09	-1.487299e+01	-1.170095e+02
1.390000e-06	-2.052387e-06	-1.713465e-09	-1.456996e+01	-1.163935e+02
1.400000e-06	-2.009540e-06	-1.701234e-09	-1.426578e+01	-1.157688e+02
1.410000e-06	-1.966366e-06	-1.693089e-09	-1.395929e+01	-1.151348e+02
1.420000e-06	-1.922985e-06	-1.683245e-09	-1.365133e+01	-1.144913e+02
1.430000e-06	-1.879484e-06	-1.670227e-09	-1.334252e+01	-1.138377e+02
1.440000e-06	-1.835875e-06	-1.656005e-09	-1.303293e+01	-1.131734e+02
1.450000e-06	-1.792171e-06	-1.642799e-09	-1.272267e+01	-1.124979e+02
1.460000e-06	-1.748435e-06	-1.631242e-09	-1.241219e+01	-1.118104e+02
1.470000e-06	-1.704587e-06	-1.619460e-09	-1.210091e+01	-1.111103e+02
1.480000e-06	-1.660648e-06	-1.607485e-09	-1.178899e+01	-1.103967e+02
1.490000e-06	-1.616663e-06	-1.598888e-09	-1.147674e+01	-1.096689e+02
1.500000e-06	-1.572641e-06	-1.591642e-09	-1.116422e+01	-1.089260e+02
1.510000e-06	-1.528584e-06	-1.579716e-09	-1.085147e+01	-1.081673e+02
1.520000e-06	-1.484408e-06	-1.564653e-09	-1.053786e+01	-1.073919e+02
1.530000e-06	-1.440142e-06	-1.547277e-09	-1.022361e+01	-1.065989e+02
1.540000e-06	-1.395850e-06	-1.533419e-09	-9.909183e+00	-1.057875e+02
1.550000e-06	-1.351534e-06	-1.522777e-09	-9.594577e+00	-1.049569e+02
1.560000e-06	-1.307211e-06	-1.511243e-09	-9.279930e+00	-1.041062e+02
1.570000e-06	-1.262729e-06	-1.500246e-09	-8.964148e+00	-1.032347e+02
1.580000e-06	-1.218041e-06	-1.490191e-09	-8.646911e+00	-1.023414e+02
1.590000e-06	-1.173281e-06	-1.479841e-09	-8.329159e+00	-1.014257e+02
1.600000e-06	-1.128445e-06	-1.466120e-09	-8.010864e+00	-1.004866e+02
1.610000e-06	-1.083482e-06	-1.444699e-09	-7.691674e+00	-9.952349e+01
1.620000e-06	-1.038399e-06	-1.418507e-09	-7.371624e+00	-9.853544e+01
1.630000e-06	-9.932212e-07	-1.397262e-09	-7.050907e+00	-9.752167e+01
1.640000e-06	-9.479830e-07	-1.384257e-09	-6.729760e+00	-9.648134e+01
1.650000e-06	-9.026751e-07	-1.373588e-09	-6.408117e+00	-9.541361e+01
1.660000e-06	-8.572981e-07	-1.361913e-09	-6.085985e+00	-9.431760e+01
1.670000e-06	-8.119124e-07	-1.350914e-09	-5.763790e+00	-9.319240e+01
1.680000e-06	-7.665479e-07	-1.338659e-09	-5.441747e+00	-9.203705e+01
1.690000e-06	-7.210664e-07	-1.317683e-09	-5.118872e+00	-9.085059e+01
1.700000e-06	-6.754535e-07	-1.288092e-09	-4.795065e+00	-8.963197e+01
1.710000e-06	-6.298615e-07	-1.260529e-09	-4.471405e+00	-8.838012e+01
1.720000e-06	-5.842867e-07	-1.241382e-09	-4.147869e+00	-8.709391e+01
1.730000e-06	-5.386039e-07	-1.226388e-09	-3.823565e+00	-8.577219e+01
1.740000e-06	-4.928495e-07	-1.208743e-09	-3.498753e+00	-8.441374e+01
1.750000e-06	-4.471569e-07	-1.188121e-09	-3.174380e+00	-8.301733e+01
1.760000e-06	-4.013862e-07	-1.171235e-09	-2.849453e+00	-8.158167e+01
1.770000e-06	-3.554910e-07	-1.153734e-09	-2.523642e+00	-8.010547e+01
1.780000e-06	-3.096270e-07	-1.128781e-09	-2.198051e+00	-7.858743e+01
1.790000e-06	-2.637943e-07	-1.098893e-09	-1.872683e+00	-7.702623e+01
1.800000e-06	-2.179304e-07	-1.070650e-09	-1.547094e+00	-7.542059e+01
1.810000e-06	-1.720390e-07	-1.047388e-09	-1.221310e+00	-7.376925e+01
1.820000e-06	-1.261251e-07	-1.024246e-09	-8.953662e-01	-7.207097e+01
1.830000e-06	-8.019305e-08	-9.981982e-10	-5.692928e-01	-7.032459e+01
1.840000e-06	-3.428032e-08	-9.704434e-10	-2.433570e-01	-6.852902e+01
1.850000e-06	1.158604e-08	-9.426245e-10	8.224967e-02	-6.668328e+01
1.860000e-06	5.747724e-08	-9.158995e-10	4.080327e-01	-6.478647e+01
1.870000e-06	1.033634e-07	-8.889454e-10	7.337796e-01	-6.283782e+01
1.880000e-06	1.492089e-07	-8.582445e-10	1.059239e+00	-6.083672e+01
1.890000e-06	1.950314e-07	-8.281236e-10	1.384534e+00	-5.878269e+01
1.900000e-06	2.408404e-07	-7.980399e-10	1.709733e+00	-5.667544e+01
1.910000e-06	2.866081e-07	-7.646194e-10	2.034640e+00	-5.451484e+01
1.920000e-06	3.324161e-07	-7.274301e-10	2.359832e+00	-5.230096e+01
1.930000e-06	3.782180e-07	-6.905001e-10	2.684981e+00	-5.003408e+01
1.940000e-06	4.239396e-07	-6.570729e-10	3.009560e+00	-4.771464e+01
1.950000e-06	4.697055e-07	-6.270065e-10	3.334454e+00	-4.534333e+01
1.960000e-06	5.154474e-07	-5.961741e-10	3.659176e+00	-4.292103e+01
1.970000e-06	5.611487e-07	-5.619655e-10	3.983611e+00	-4.044883e+01
1.980000e-06	6.068577e-07	-5.248356e-10	4.308101e+00	-3.792801e+01
1.990000e-06	6.524617e-07	-4.863196e-10	4.631845e+00	-3.536008e+01
2.000000e-06	6.979042e-07	-4.463755e-10	4.954442e+00	-3.274671e+01
2.010000e-06	7.433006e-07	-4.025903e-10	5.276713e+00	-3.008977e+01
2.020000e-06	7.887125e-07	-3.596331e-10	5.599094e+00	-2.739129e+01
2.030000e-06	8.341081e-07	-3.215930e-10	5.921358e+00	-2.465348e+01
2.040000e-06	8.794241e-07	-2.857317e-10	6.243058e+00	-2.187868e+01
2.050000e-06	9.245682e-07	-2.486942e-10	6.563538e+00	-1.906936e+01
2.060000e-06	9.696272e-07	-2.090631e-10	6.883412e+00	-1.622813e+01
2.070000e-06	1.014618e-06	-1.700487e-10	7.202802e+00	-1.335767e+01
2.080000e-06	1.059513e-06	-1.290018e-10	7.521514e+00	-1.046077e+01
2.090000e-06	1.104393e-06	-8.352965e-11	7.840121e+00	-7.540274e+00
2.100000e-06	1.149192e-06	-3.811472e-11	8.158145e+00	-4.599096e+00
2.110000e-06	1.193903e-06	5.241945e-12	8.475550e+00	-1.640181e+00
2.120000e-06	1.238529e-06	4.879855e-11	8.792354e+00	1.333503e+00
2.130000e-06	1.282977e-06	9.139091e-11	9.107892e+00	4.318972e+00
2.140000e-06	1.327348e-06	1.330234e-10	9.422880e+00	7.313247e+00
2.150000e-06	1.371714e-06	1.782346e-10	9.737840e+00	1.031336e+01
2.160000e-06	1.416021e-06	2.240432e-10	1.005238e+01	1.331637e+01
2.170000e-06	1.460235e-06	2.669490e-10	1.036625e+01	1.631937e+01
2.180000e-06	1.504377e-06	3.078379e-10	1.067962e+01	1.931948e+01
2.190000e-06	1.548450e-06	3.502151e-10	1.099249e+01	2.231390e+01
2.200000e-06	1.592401e-06	3.924867e-10	1.130450e+01	2.529987e+01
2.210000e-06	1.636273e-06	4.353632e-10	1.161595e+01	2.827468e+01
2.220000e-06	1.680104e-06	4.801582e-10	1.192711e+01	3.123571e+01
2.230000e-06	1.723888e-06	5.254468e-10	1.223793e+01	3.418039e+01
2.240000e-06	1.767656e-06	5.681396e-10	1.254864e+01	3.710625e+01
2.250000e-06	1.811391e-06	6.094597e-10	1.285912e+01	4.001087e+01
2.260000e-06	1.855006e-06	6.485413e-10	1.316874e+01	4.289193e+01
2.270000e-06	1.898470e-06	6.867339e-10	1.347730e+01	4.574718e+01
2.280000e-06	1.941787e-06	7.248432e-10	1.378480e+01	4.857446e+01
2.290000e-06	1.984941e-06	7.656381e-10	1.409115e+01	5.137169e+01
2.300000e-06	2.027890e-06	8.086183e-10	1.439605e+01	5.413690e+01
2.310000e-06	2.070615e-06	8.511220e-10	1.469936e+01	5.686819e+01
2.320000e-06	2.113055e-06	8.913762e-10	1.500064e+01	5.956377e+01
2.330000e-06	2.155204e-06	9.309990e-10	1.529986e+01	6.222192e+01
2.340000e-06	2.197107e-06	9.690517e-10	1.559733e+01	6.484105e+01
2.350000e-06	2.238683e-06	1.001972e-09	1.589248e+01	6.741965e+01
2.360000e-06	2.279949e-06	1.031667e-09	1.618543e+01	6.995634e+01
2.370000e-06	2.321063e-06	1.061487e-09	1.647729e+01	7.244981e+01
2.380000e-06	2.361976e-06	1.093735e-09	1.676774e+01	7.489891e+01
2.390000e-06	2.402760e-06	1.128478e-09	1.705727e+01	7.730255e+01
2.400000e-06	2.443403e-06	1.165224e-09	1.734579e+01	7.965979e+01
2.410000e-06	2.483764e-06	1.201766e-09	1.763231e+01	8.196981e+01
2.420000e-06	2.523942e-06	1.237980e-09	1.791754e+01	8.423189e+01
2.430000e-06	2.563988e-06	1.270456e-09	1.820183e+01	8.644542e+01
2.440000e-06	2.603956e-06	1.298740e-09	1.848556e+01	8.860995e+01
2.450000e-06	2.643835e-06	1.323297e-09	1.876866e+01	9.072511e+01
2.460000e-06	2.683562e-06	1.348444e-09	1.905068e+01	9.279065e+01
2.470000e-06	2.723100e-06	1.376374e-09	1.933137e+01	9.480646e+01
2.480000e-06	2.762482e-06	1.406481e-09	1.961095e+01	9.677251e+01
2.490000e-06	2.801689e-06	1.436791e-09	1.988928e+01	9.868889e+01
2.500000e-06	2.840646e-06	1.468184e-09	2.016583e+01	1.005558e+02
2.510000e-06	2.879434e-06	1.500325e-09	2.044119e+01	1.023735e+02
2.520000e-06	2.918033e-06	1.528489e-09	2.071521e+01	1.041423e+02
2.530000e-06	2.956399e-06	1.552230e-09	2.098756e+01	1.058627e+02
2.540000e-06	2.994568e-06	1.573196e-09	2.125852e+01	1.075352e+02
2.550000e-06	3.032586e-06	1.591888e-09	2.152842e+01	1.091604e+02
2.560000e-06	3.070406e-06	1.613403e-09	2.179690e+01	1.107388e+02
2.570000e-06	3.108015e-06	1.634717e-09	2.206389e+01	1.122712e+02
2.580000e-06	3.145444e-06	1.653303e-09	2.232960e+01	1.137582e+02
2.590000e-06	3.182635e-06	1.674436e-09	2.259362e+01	1.152005e+02
2.600000e-06	3.219512e-06	1.699226e-09	2.285541e+01	1.165989e+02
2.610000e-06	3.256117e-06	1.725105e-09	2.311527e+01	1.179540e+02
2.620000e-06	3.292587e-06	1.747054e-09	2.337417e+01	1.192667e+02
2.630000e-06	3.328862e-06	1.764800e-09	2.363169e+01	1.205376e+02
2.640000e-06	3.364980e-06	1.780727e-09	2.388809e+01	1.217674e+02
2.650000e-06	3.400979e-06	1.794363e-09	2.414365e+01	1.229569e+02
2.660000e-06	3.436796e-06	1.805161e-09	2.439792e+01	1.241067e+02
2.670000e-06	3.472459e-06	1.817081e-09	2.465109e+01	1.252175e+02
2.680000e-06	3.507955e-06	1.832802e-09	2.490308e+01	1.262899e+02
2.690000e-06	3.543199e-06	1.851437e-09	2.515327e+01	1.273247e+02
2.700000e-06	3.578117e-06	1.869819e-09	2.540116e+01	1.283223e+02
2.710000e-06	3.612737e-06	1.887159e-09	2.564693e+01	1.292835e+02
2.720000e-06	3.646925e-06	1.904440e-09	2.588963e+01	1.302089e+02
2.730000e-06	3.680619e-06	1.920192e-09	2.612882e+01	1.310990e+02
2.740000e-06	3.713870e-06	1.929907e-09	2.636487e+01	1.319546e+02
2.750000e-06	3.746750e-06	1.935696e-09	2.659829e+01	1.327763e+02
2.760000e-06	3.779335e-06	1.943086e-09	2.682961e+01	1.335647e+02
2.770000e-06	3.811642e-06	1.953628e-09	2.705896e+01	1.343207e+02
2.780000e-06	3.843773e-06	1.964535e-09	2.728706e+01	1.350450e+02
2.790000e-06	3.875737e-06	1.974920e-09	2.751397e+01	1.357383e+02
2.800000e-06	3.907523e-06	1.987375e-09	2.773962e+01	1.364015e+02
2.810000e-06	3.939004e-06	2.001429e-09	2.796311e+01	1.370356e+02
2.820000e-06	3.970263e-06	2.013003e-09	2.818501e+01	1.376416e+02
2.830000e-06	4.001331e-06	2.019068e-09	2.840557e+01	1.382203e+02
2.840000e-06	4.032020e-06	2.021849e-09	2.862343e+01	1.387730e+02
2.850000e-06	4.062405e-06	2.027156e-09	2.883914e+01	1.393008e+02
2.860000e-06	4.092656e-06	2.036367e-09	2.905389e+01	1.398049e+02
2.870000e-06	4.122649e-06	2.045607e-09	2.926681e+01	1.402864e+02
2.880000e-06	4.152302e-06	2.053668e-09	2.947732e+01	1.407467e+02
2.890000e-06	4.181680e-06	2.059000e-09	2.968587e+01	1.411870e+02
2.900000e-06	4.210726e-06	2.063189e-09	2.989207e+01	1.416088e+02
