# Temperatura_=_-1.9
# Concentracion g/m^3_=_4090.0
# C_Vs_to_Am_M_A/Vsm_=_65563218390.804596
# pendiente_HvsI_1/m_=_3716.3
# ordenada_HvsI_A/m_=_1297.0
# frecuencia_Hz_=_135065.42809905682

Tiempo_(s)	Campo_(V.s)	Magnetizacion_(V.s)	Campo_(kA/m)	Magnetizacion_(A/m)
0.000000e+00	-5.377532e-06	-2.301619e-09	-3.840280e+01	-1.489323e+02
1.000000e-08	-5.377717e-06	-2.304640e-09	-3.840411e+01	-1.488634e+02
2.000000e-08	-5.377679e-06	-2.312193e-09	-3.840384e+01	-1.488009e+02
3.000000e-08	-5.377413e-06	-2.313288e-09	-3.840195e+01	-1.487462e+02
4.000000e-08	-5.376891e-06	-2.306791e-09	-3.839822e+01	-1.487004e+02
5.000000e-08	-5.375943e-06	-2.304047e-09	-3.839145e+01	-1.486647e+02
6.000000e-08	-5.374365e-06	-2.312339e-09	-3.838018e+01	-1.486403e+02
7.000000e-08	-5.372200e-06	-2.328971e-09	-3.836471e+01	-1.486277e+02
8.000000e-08	-5.369433e-06	-2.278119e-09	-3.834496e+01	-1.486278e+02
9.000000e-08	-5.366019e-06	-2.211803e-09	-3.832058e+01	-1.486408e+02
1.000000e-07	-5.362127e-06	-2.332009e-09	-3.829279e+01	-1.486671e+02
1.100000e-07	-5.357885e-06	-2.485491e-09	-3.826249e+01	-1.487065e+02
1.200000e-07	-5.353389e-06	-2.315026e-09	-3.823038e+01	-1.487589e+02
1.300000e-07	-5.348806e-06	-2.142512e-09	-3.819765e+01	-1.488238e+02
1.400000e-07	-5.344007e-06	-2.257339e-09	-3.816338e+01	-1.489004e+02
1.500000e-07	-5.338703e-06	-2.508497e-09	-3.812550e+01	-1.489880e+02
1.600000e-07	-5.332918e-06	-2.306928e-09	-3.808419e+01	-1.490852e+02
1.700000e-07	-5.326948e-06	-2.076711e-09	-3.804156e+01	-1.491910e+02
1.800000e-07	-5.320605e-06	-2.277820e-09	-3.799626e+01	-1.493039e+02
1.900000e-07	-5.313719e-06	-2.526818e-09	-3.794709e+01	-1.494222e+02
2.000000e-07	-5.306486e-06	-2.351796e-09	-3.789543e+01	-1.495443e+02
2.100000e-07	-5.299133e-06	-2.171556e-09	-3.784292e+01	-1.496685e+02
2.200000e-07	-5.291549e-06	-2.369488e-09	-3.778876e+01	-1.497929e+02
2.300000e-07	-5.283537e-06	-2.447730e-09	-3.773155e+01	-1.499157e+02
2.400000e-07	-5.275207e-06	-2.257704e-09	-3.767206e+01	-1.500352e+02
2.500000e-07	-5.266562e-06	-2.230963e-09	-3.761032e+01	-1.501495e+02
2.600000e-07	-5.257254e-06	-2.455980e-09	-3.754385e+01	-1.502570e+02
2.700000e-07	-5.247199e-06	-2.385123e-09	-3.747204e+01	-1.503559e+02
2.800000e-07	-5.236611e-06	-2.219968e-09	-3.739643e+01	-1.504450e+02
2.900000e-07	-5.225491e-06	-2.340497e-09	-3.731702e+01	-1.505227e+02
3.000000e-07	-5.213943e-06	-2.465325e-09	-3.723455e+01	-1.505880e+02
3.100000e-07	-5.202050e-06	-2.233316e-09	-3.714961e+01	-1.506398e+02
3.200000e-07	-5.189840e-06	-2.182846e-09	-3.706242e+01	-1.506774e+02
3.300000e-07	-5.177174e-06	-2.389545e-09	-3.697197e+01	-1.507000e+02
3.400000e-07	-5.164132e-06	-2.387400e-09	-3.687883e+01	-1.507074e+02
3.500000e-07	-5.150762e-06	-2.203958e-09	-3.678336e+01	-1.506993e+02
3.600000e-07	-5.137059e-06	-2.299208e-09	-3.668550e+01	-1.506757e+02
3.700000e-07	-5.123002e-06	-2.383013e-09	-3.658511e+01	-1.506369e+02
3.800000e-07	-5.108461e-06	-2.275221e-09	-3.648127e+01	-1.505831e+02
3.900000e-07	-5.093322e-06	-2.253014e-09	-3.637315e+01	-1.505150e+02
4.000000e-07	-5.077515e-06	-2.340942e-09	-3.626027e+01	-1.504332e+02
4.100000e-07	-5.061142e-06	-2.264132e-09	-3.614335e+01	-1.503386e+02
4.200000e-07	-5.044442e-06	-2.233257e-09	-3.602409e+01	-1.502321e+02
4.300000e-07	-5.027434e-06	-2.344095e-09	-3.590262e+01	-1.501148e+02
4.400000e-07	-5.010118e-06	-2.319201e-09	-3.577897e+01	-1.499879e+02
4.500000e-07	-4.992620e-06	-2.216334e-09	-3.565401e+01	-1.498524e+02
4.600000e-07	-4.974761e-06	-2.274164e-09	-3.552647e+01	-1.497096e+02
4.700000e-07	-4.956439e-06	-2.338007e-09	-3.539563e+01	-1.495607e+02
4.800000e-07	-4.937748e-06	-2.260340e-09	-3.526215e+01	-1.494069e+02
4.900000e-07	-4.918736e-06	-2.237154e-09	-3.512638e+01	-1.492492e+02
5.000000e-07	-4.899397e-06	-2.270949e-09	-3.498827e+01	-1.490888e+02
5.100000e-07	-4.879748e-06	-2.280100e-09	-3.484795e+01	-1.489266e+02
5.200000e-07	-4.859873e-06	-2.274490e-09	-3.470602e+01	-1.487637e+02
5.300000e-07	-4.839790e-06	-2.273440e-09	-3.456260e+01	-1.486007e+02
5.400000e-07	-4.819436e-06	-2.233795e-09	-3.441724e+01	-1.484384e+02
5.500000e-07	-4.798781e-06	-2.253840e-09	-3.426974e+01	-1.482774e+02
5.600000e-07	-4.777833e-06	-2.279910e-09	-3.412014e+01	-1.481182e+02
5.700000e-07	-4.756539e-06	-2.249461e-09	-3.396807e+01	-1.479611e+02
5.800000e-07	-4.734890e-06	-2.213381e-09	-3.381347e+01	-1.478063e+02
5.900000e-07	-4.712902e-06	-2.245129e-09	-3.365645e+01	-1.476540e+02
6.000000e-07	-4.690627e-06	-2.257315e-09	-3.349737e+01	-1.475042e+02
6.100000e-07	-4.668074e-06	-2.252118e-09	-3.333631e+01	-1.473568e+02
6.200000e-07	-4.645069e-06	-2.228770e-09	-3.317202e+01	-1.472116e+02
6.300000e-07	-4.621719e-06	-2.219413e-09	-3.300527e+01	-1.470684e+02
6.400000e-07	-4.598191e-06	-2.235356e-09	-3.283725e+01	-1.469268e+02
6.500000e-07	-4.574433e-06	-2.253927e-09	-3.266759e+01	-1.467866e+02
6.600000e-07	-4.550416e-06	-2.216463e-09	-3.249608e+01	-1.466473e+02
6.700000e-07	-4.526188e-06	-2.197189e-09	-3.232305e+01	-1.465085e+02
6.800000e-07	-4.501679e-06	-2.222991e-09	-3.214803e+01	-1.463697e+02
6.900000e-07	-4.476678e-06	-2.239187e-09	-3.196949e+01	-1.462306e+02
7.000000e-07	-4.451235e-06	-2.214667e-09	-3.178779e+01	-1.460906e+02
7.100000e-07	-4.425281e-06	-2.195434e-09	-3.160245e+01	-1.459494e+02
7.200000e-07	-4.398737e-06	-2.199326e-09	-3.141288e+01	-1.458066e+02
7.300000e-07	-4.371763e-06	-2.212632e-09	-3.122025e+01	-1.456619e+02
7.400000e-07	-4.344441e-06	-2.205336e-09	-3.102514e+01	-1.455149e+02
7.500000e-07	-4.316819e-06	-2.180491e-09	-3.082788e+01	-1.453654e+02
7.600000e-07	-4.288970e-06	-2.182330e-09	-3.062900e+01	-1.452132e+02
7.700000e-07	-4.260992e-06	-2.202349e-09	-3.042920e+01	-1.450581e+02
7.800000e-07	-4.232845e-06	-2.199330e-09	-3.022820e+01	-1.449000e+02
7.900000e-07	-4.204443e-06	-2.172045e-09	-3.002536e+01	-1.447389e+02
8.000000e-07	-4.175787e-06	-2.162878e-09	-2.982072e+01	-1.445748e+02
8.100000e-07	-4.146798e-06	-2.166970e-09	-2.961370e+01	-1.444076e+02
8.200000e-07	-4.117384e-06	-2.170854e-09	-2.940365e+01	-1.442374e+02
8.300000e-07	-4.087708e-06	-2.158286e-09	-2.919172e+01	-1.440643e+02
8.400000e-07	-4.057735e-06	-2.151963e-09	-2.897768e+01	-1.438883e+02
8.500000e-07	-4.027491e-06	-2.159430e-09	-2.876169e+01	-1.437097e+02
8.600000e-07	-3.997041e-06	-2.174441e-09	-2.854423e+01	-1.435285e+02
8.700000e-07	-3.966266e-06	-2.160870e-09	-2.832446e+01	-1.433448e+02
8.800000e-07	-3.935117e-06	-2.140363e-09	-2.810202e+01	-1.431587e+02
8.900000e-07	-3.903768e-06	-2.130227e-09	-2.787814e+01	-1.429705e+02
9.000000e-07	-3.872294e-06	-2.138671e-09	-2.765337e+01	-1.427801e+02
9.100000e-07	-3.840654e-06	-2.134446e-09	-2.742742e+01	-1.425876e+02
9.200000e-07	-3.808874e-06	-2.123646e-09	-2.720047e+01	-1.423932e+02
9.300000e-07	-3.776852e-06	-2.120402e-09	-2.697179e+01	-1.421968e+02
9.400000e-07	-3.744650e-06	-2.132203e-09	-2.674183e+01	-1.419986e+02
9.500000e-07	-3.712301e-06	-2.130618e-09	-2.651081e+01	-1.417984e+02
9.600000e-07	-3.679644e-06	-2.115403e-09	-2.627759e+01	-1.415962e+02
9.700000e-07	-3.646628e-06	-2.103025e-09	-2.604182e+01	-1.413921e+02
9.800000e-07	-3.613194e-06	-2.108003e-09	-2.580305e+01	-1.411858e+02
9.900000e-07	-3.579148e-06	-2.109428e-09	-2.555992e+01	-1.409774e+02
1.000000e-06	-3.544676e-06	-2.098312e-09	-2.531375e+01	-1.407668e+02
1.010000e-06	-3.509919e-06	-2.088374e-09	-2.506553e+01	-1.405538e+02
1.020000e-06	-3.474853e-06	-2.088748e-09	-2.481511e+01	-1.403383e+02
1.030000e-06	-3.439471e-06	-2.088038e-09	-2.456244e+01	-1.401202e+02
1.040000e-06	-3.403774e-06	-2.079190e-09	-2.430751e+01	-1.398993e+02
1.050000e-06	-3.367923e-06	-2.072469e-09	-2.405149e+01	-1.396756e+02
1.060000e-06	-3.331998e-06	-2.074288e-09	-2.379494e+01	-1.394489e+02
1.070000e-06	-3.295953e-06	-2.079705e-09	-2.353753e+01	-1.392190e+02
1.080000e-06	-3.259766e-06	-2.074532e-09	-2.327910e+01	-1.389859e+02
1.090000e-06	-3.223391e-06	-2.061159e-09	-2.301934e+01	-1.387494e+02
1.100000e-06	-3.186794e-06	-2.049072e-09	-2.275799e+01	-1.385094e+02
1.110000e-06	-3.149965e-06	-2.048214e-09	-2.249498e+01	-1.382659e+02
1.120000e-06	-3.112837e-06	-2.044765e-09	-2.222983e+01	-1.380187e+02
1.130000e-06	-3.075478e-06	-2.040121e-09	-2.196304e+01	-1.377677e+02
1.140000e-06	-3.037895e-06	-2.038576e-09	-2.169465e+01	-1.375128e+02
1.150000e-06	-3.000070e-06	-2.045566e-09	-2.142453e+01	-1.372539e+02
1.160000e-06	-2.962067e-06	-2.043594e-09	-2.115313e+01	-1.369909e+02
1.170000e-06	-2.923886e-06	-2.030125e-09	-2.088047e+01	-1.367237e+02
1.180000e-06	-2.885524e-06	-2.013379e-09	-2.060651e+01	-1.364522e+02
1.190000e-06	-2.847000e-06	-2.007331e-09	-2.033140e+01	-1.361761e+02
1.200000e-06	-2.808281e-06	-2.005056e-09	-2.005490e+01	-1.358954e+02
1.210000e-06	-2.769262e-06	-2.001072e-09	-1.977625e+01	-1.356099e+02
1.220000e-06	-2.729956e-06	-1.998683e-09	-1.949555e+01	-1.353193e+02
1.230000e-06	-2.690478e-06	-2.004222e-09	-1.921362e+01	-1.350234e+02
1.240000e-06	-2.650860e-06	-2.003377e-09	-1.893069e+01	-1.347221e+02
1.250000e-06	-2.611165e-06	-1.994582e-09	-1.864722e+01	-1.344149e+02
1.260000e-06	-2.571401e-06	-1.981571e-09	-1.836325e+01	-1.341017e+02
1.270000e-06	-2.531509e-06	-1.970522e-09	-1.807837e+01	-1.337821e+02
1.280000e-06	-2.491519e-06	-1.963541e-09	-1.779279e+01	-1.334557e+02
1.290000e-06	-2.451426e-06	-1.958297e-09	-1.750647e+01	-1.331223e+02
1.300000e-06	-2.411221e-06	-1.953953e-09	-1.721935e+01	-1.327816e+02
1.310000e-06	-2.370872e-06	-1.951492e-09	-1.693121e+01	-1.324330e+02
1.320000e-06	-2.330347e-06	-1.950616e-09	-1.664180e+01	-1.320764e+02
1.330000e-06	-2.289585e-06	-1.945762e-09	-1.635071e+01	-1.317112e+02
1.340000e-06	-2.248601e-06	-1.937783e-09	-1.605803e+01	-1.313373e+02
1.350000e-06	-2.207401e-06	-1.928113e-09	-1.576381e+01	-1.309542e+02
1.360000e-06	-2.165898e-06	-1.915777e-09	-1.546742e+01	-1.305617e+02
1.370000e-06	-2.124206e-06	-1.901234e-09	-1.516968e+01	-1.301594e+02
1.380000e-06	-2.082223e-06	-1.889832e-09	-1.486986e+01	-1.297470e+02
1.390000e-06	-2.039882e-06	-1.883818e-09	-1.456749e+01	-1.293244e+02
1.400000e-06	-1.997410e-06	-1.882305e-09	-1.426419e+01	-1.288913e+02
1.410000e-06	-1.954736e-06	-1.879627e-09	-1.395944e+01	-1.284474e+02
1.420000e-06	-1.911824e-06	-1.875451e-09	-1.365299e+01	-1.279928e+02
1.430000e-06	-1.868712e-06	-1.867939e-09	-1.334511e+01	-1.275272e+02
1.440000e-06	-1.825345e-06	-1.857729e-09	-1.303541e+01	-1.270505e+02
1.450000e-06	-1.781875e-06	-1.843582e-09	-1.272498e+01	-1.265627e+02
1.460000e-06	-1.738354e-06	-1.832936e-09	-1.241418e+01	-1.260636e+02
1.470000e-06	-1.694665e-06	-1.825502e-09	-1.210218e+01	-1.255533e+02
1.480000e-06	-1.650819e-06	-1.817843e-09	-1.178906e+01	-1.250316e+02
1.490000e-06	-1.606900e-06	-1.809703e-09	-1.147542e+01	-1.244986e+02
1.500000e-06	-1.562950e-06	-1.802335e-09	-1.116156e+01	-1.239541e+02
1.510000e-06	-1.518952e-06	-1.797236e-09	-1.084736e+01	-1.233981e+02
1.520000e-06	-1.474872e-06	-1.790872e-09	-1.053256e+01	-1.228305e+02
1.530000e-06	-1.430709e-06	-1.779991e-09	-1.021718e+01	-1.222511e+02
1.540000e-06	-1.386466e-06	-1.770350e-09	-9.901229e+00	-1.216598e+02
1.550000e-06	-1.342189e-06	-1.761987e-09	-9.585029e+00	-1.210563e+02
1.560000e-06	-1.297939e-06	-1.751583e-09	-9.269027e+00	-1.204402e+02
1.570000e-06	-1.253665e-06	-1.737992e-09	-8.952848e+00	-1.198113e+02
1.580000e-06	-1.209321e-06	-1.724304e-09	-8.636177e+00	-1.191690e+02
1.590000e-06	-1.164836e-06	-1.714895e-09	-8.318491e+00	-1.185129e+02
1.600000e-06	-1.120275e-06	-1.710548e-09	-8.000267e+00	-1.178423e+02
1.610000e-06	-1.075614e-06	-1.702383e-09	-7.681328e+00	-1.171566e+02
1.620000e-06	-1.030865e-06	-1.688802e-09	-7.361759e+00	-1.164550e+02
1.630000e-06	-9.860623e-07	-1.676816e-09	-7.041808e+00	-1.157366e+02
1.640000e-06	-9.411193e-07	-1.664880e-09	-6.720855e+00	-1.150004e+02
1.650000e-06	-8.961465e-07	-1.649382e-09	-6.399688e+00	-1.142455e+02
1.660000e-06	-8.511503e-07	-1.631507e-09	-6.078355e+00	-1.134708e+02
1.670000e-06	-8.061259e-07	-1.618290e-09	-5.756821e+00	-1.126751e+02
1.680000e-06	-7.609658e-07	-1.611727e-09	-5.434317e+00	-1.118571e+02
1.690000e-06	-7.156573e-07	-1.602832e-09	-5.110754e+00	-1.110157e+02
1.700000e-06	-6.703571e-07	-1.586967e-09	-4.787249e+00	-1.101493e+02
1.710000e-06	-6.250627e-07	-1.569059e-09	-4.463787e+00	-1.092568e+02
1.720000e-06	-5.797099e-07	-1.554633e-09	-4.139906e+00	-1.083367e+02
1.730000e-06	-5.343111e-07	-1.542446e-09	-3.815698e+00	-1.073876e+02
1.740000e-06	-4.888808e-07	-1.526211e-09	-3.491265e+00	-1.064081e+02
1.750000e-06	-4.433843e-07	-1.509846e-09	-3.166359e+00	-1.053966e+02
1.760000e-06	-3.978520e-07	-1.499846e-09	-2.841197e+00	-1.043519e+02
1.770000e-06	-3.522850e-07	-1.492714e-09	-2.515788e+00	-1.032725e+02
1.780000e-06	-3.066696e-07	-1.477010e-09	-2.190032e+00	-1.021569e+02
1.790000e-06	-2.610661e-07	-1.452693e-09	-1.864362e+00	-1.010037e+02
1.800000e-06	-2.154871e-07	-1.429832e-09	-1.538867e+00	-9.981163e+01
1.810000e-06	-1.698639e-07	-1.412718e-09	-1.213056e+00	-9.857926e+01
1.820000e-06	-1.242733e-07	-1.395572e-09	-8.874779e-01	-9.730523e+01
1.830000e-06	-7.872588e-08	-1.375070e-09	-5.622084e-01	-9.598822e+01
1.840000e-06	-3.314485e-08	-1.357332e-09	-2.366987e-01	-9.462690e+01
1.850000e-06	1.248112e-08	-1.344134e-09	8.913191e-02	-9.321994e+01
1.860000e-06	5.813873e-08	-1.327273e-09	4.151885e-01	-9.176603e+01
1.870000e-06	1.038193e-07	-1.301389e-09	7.414091e-01	-9.026385e+01
1.880000e-06	1.494408e-07	-1.272160e-09	1.067208e+00	-8.871208e+01
1.890000e-06	1.950333e-07	-1.247854e-09	1.392800e+00	-8.710939e+01
1.900000e-06	2.406330e-07	-1.223952e-09	1.718443e+00	-8.545441e+01
1.910000e-06	2.861243e-07	-1.197309e-09	2.043311e+00	-8.374578e+01
1.920000e-06	3.316025e-07	-1.171851e-09	2.368087e+00	-8.198210e+01
1.930000e-06	3.771351e-07	-1.151010e-09	2.693250e+00	-8.016196e+01
1.940000e-06	4.226187e-07	-1.129857e-09	3.018065e+00	-7.828392e+01
1.950000e-06	4.680459e-07	-1.100587e-09	3.342476e+00	-7.634654e+01
1.960000e-06	5.134163e-07	-1.066192e-09	3.666482e+00	-7.434835e+01
1.970000e-06	5.586986e-07	-1.033324e-09	3.989858e+00	-7.228789e+01
1.980000e-06	6.039596e-07	-1.001976e-09	4.313082e+00	-7.016371e+01
1.990000e-06	6.491846e-07	-9.689206e-10	4.636049e+00	-6.797438e+01
2.000000e-06	6.943295e-07	-9.366064e-10	4.958444e+00	-6.571852e+01
2.010000e-06	7.394517e-07	-9.075157e-10	5.280678e+00	-6.339481e+01
2.020000e-06	7.845946e-07	-8.782142e-10	5.603059e+00	-6.100200e+01
2.030000e-06	8.296827e-07	-8.445373e-10	5.925048e+00	-5.853898e+01
2.040000e-06	8.746437e-07	-8.052573e-10	6.246129e+00	-5.600475e+01
2.050000e-06	9.194819e-07	-7.643686e-10	6.566334e+00	-5.339849e+01
2.060000e-06	9.642933e-07	-7.268230e-10	6.886348e+00	-5.071958e+01
2.070000e-06	1.009059e-06	-6.872543e-10	7.206039e+00	-4.796762e+01
2.080000e-06	1.053712e-06	-6.430131e-10	7.524915e+00	-4.514248e+01
2.090000e-06	1.098344e-06	-5.995794e-10	7.843649e+00	-4.224430e+01
2.100000e-06	1.142912e-06	-5.592219e-10	8.161929e+00	-3.927355e+01
2.110000e-06	1.187309e-06	-5.176559e-10	8.478976e+00	-3.623107e+01
2.120000e-06	1.231608e-06	-4.706328e-10	8.795334e+00	-3.311803e+01
2.130000e-06	1.275874e-06	-4.230592e-10	9.111456e+00	-2.993604e+01
2.140000e-06	1.320114e-06	-3.772852e-10	9.427383e+00	-2.668708e+01
2.150000e-06	1.364364e-06	-3.285790e-10	9.743390e+00	-2.337360e+01
2.160000e-06	1.408574e-06	-2.746871e-10	1.005911e+01	-1.999847e+01
2.170000e-06	1.452674e-06	-2.214801e-10	1.037404e+01	-1.656500e+01
2.180000e-06	1.496700e-06	-1.712061e-10	1.068845e+01	-1.307697e+01
2.190000e-06	1.540635e-06	-1.204015e-10	1.100220e+01	-9.538562e+00
2.200000e-06	1.584511e-06	-6.806472e-11	1.131554e+01	-5.954414e+00
2.210000e-06	1.628415e-06	-1.449328e-11	1.162907e+01	-2.329560e+00
2.220000e-06	1.672254e-06	3.881412e-11	1.194214e+01	1.330583e+00
2.230000e-06	1.715998e-06	9.293280e-11	1.225453e+01	5.020243e+00
2.240000e-06	1.759640e-06	1.494807e-10	1.256619e+01	8.733331e+00
2.250000e-06	1.803111e-06	2.088516e-10	1.287663e+01	1.246348e+01
2.260000e-06	1.846422e-06	2.660544e-10	1.318593e+01	1.620410e+01
2.270000e-06	1.889614e-06	3.211150e-10	1.349438e+01	1.994842e+01
2.280000e-06	1.932606e-06	3.780158e-10	1.380140e+01	2.368952e+01
2.290000e-06	1.975297e-06	4.351286e-10	1.410627e+01	2.742044e+01
2.300000e-06	2.017737e-06	4.913407e-10	1.440935e+01	3.113420e+01
2.310000e-06	2.059952e-06	5.469367e-10	1.471082e+01	3.482385e+01
2.320000e-06	2.101960e-06	6.014590e-10	1.501081e+01	3.848257e+01
2.330000e-06	2.143749e-06	6.554939e-10	1.530925e+01	4.210370e+01
2.340000e-06	2.185270e-06	7.068368e-10	1.560576e+01	4.568080e+01
2.350000e-06	2.226546e-06	7.543138e-10	1.590052e+01	4.920770e+01
2.360000e-06	2.267583e-06	8.033277e-10	1.619359e+01	5.267858e+01
2.370000e-06	2.308362e-06	8.565723e-10	1.648480e+01	5.608799e+01
2.380000e-06	2.348912e-06	9.089691e-10	1.677438e+01	5.943089e+01
2.390000e-06	2.389289e-06	9.569290e-10	1.706273e+01	6.270273e+01
2.400000e-06	2.429491e-06	1.002023e-09	1.734983e+01	6.589940e+01
2.410000e-06	2.469534e-06	1.046793e-09	1.763578e+01	6.901735e+01
2.420000e-06	2.509534e-06	1.087994e-09	1.792144e+01	7.205354e+01
2.430000e-06	2.549454e-06	1.124306e-09	1.820652e+01	7.500548e+01
2.440000e-06	2.589170e-06	1.159491e-09	1.849015e+01	7.787120e+01
2.450000e-06	2.628851e-06	1.197450e-09	1.877353e+01	8.064932e+01
2.460000e-06	2.668485e-06	1.237649e-09	1.905657e+01	8.333896e+01
2.470000e-06	2.707922e-06	1.276983e-09	1.933820e+01	8.593976e+01
2.480000e-06	2.747119e-06	1.315135e-09	1.961811e+01	8.845186e+01
2.490000e-06	2.786063e-06	1.351944e-09	1.989623e+01	9.087584e+01
2.500000e-06	2.824777e-06	1.386146e-09	2.017270e+01	9.321276e+01
2.510000e-06	2.863265e-06	1.415743e-09	2.044756e+01	9.546401e+01
2.520000e-06	2.901592e-06	1.440520e-09	2.072126e+01	9.763139e+01
2.530000e-06	2.939848e-06	1.465652e-09	2.099446e+01	9.971695e+01
2.540000e-06	2.977987e-06	1.494908e-09	2.126682e+01	1.017230e+02
2.550000e-06	3.015835e-06	1.527132e-09	2.153711e+01	1.036522e+02
2.560000e-06	3.053430e-06	1.561628e-09	2.180559e+01	1.055071e+02
2.570000e-06	3.090824e-06	1.591830e-09	2.207263e+01	1.072907e+02
2.580000e-06	3.128006e-06	1.615773e-09	2.233816e+01	1.090057e+02
2.590000e-06	3.164970e-06	1.634938e-09	2.260213e+01	1.106552e+02
2.600000e-06	3.201706e-06	1.651211e-09	2.286448e+01	1.122421e+02
2.610000e-06	3.238214e-06	1.670066e-09	2.312519e+01	1.137691e+02
2.620000e-06	3.274503e-06	1.692248e-09	2.338434e+01	1.152391e+02
2.630000e-06	3.310604e-06	1.716559e-09	2.364216e+01	1.166548e+02
2.640000e-06	3.346527e-06	1.742637e-09	2.389869e+01	1.180187e+02
2.650000e-06	3.382346e-06	1.765272e-09	2.415449e+01	1.193331e+02
2.660000e-06	3.418055e-06	1.779477e-09	2.440950e+01	1.206003e+02
2.670000e-06	3.453545e-06	1.788467e-09	2.466295e+01	1.218223e+02
2.680000e-06	3.488730e-06	1.800116e-09	2.491421e+01	1.230009e+02
2.690000e-06	3.523570e-06	1.815273e-09	2.516302e+01	1.241379e+02
2.700000e-06	3.558084e-06	1.831694e-09	2.540949e+01	1.252347e+02
2.710000e-06	3.592267e-06	1.850399e-09	2.565361e+01	1.262927e+02
2.720000e-06	3.626006e-06	1.870789e-09	2.589455e+01	1.273129e+02
2.730000e-06	3.659276e-06	1.888845e-09	2.613214e+01	1.282965e+02
2.740000e-06	3.692211e-06	1.900410e-09	2.636734e+01	1.292444e+02
2.750000e-06	3.724828e-06	1.908109e-09	2.660027e+01	1.301574e+02
2.760000e-06	3.757137e-06	1.917876e-09	2.683100e+01	1.310362e+02
2.770000e-06	3.789250e-06	1.930298e-09	2.706033e+01	1.318814e+02
2.780000e-06	3.821209e-06	1.942274e-09	2.728856e+01	1.326938e+02
2.790000e-06	3.853057e-06	1.954796e-09	2.751600e+01	1.334738e+02
2.800000e-06	3.884763e-06	1.966878e-09	2.774242e+01	1.342222e+02
2.810000e-06	3.916239e-06	1.976912e-09	2.796720e+01	1.349395e+02
2.820000e-06	3.947429e-06	1.985538e-09	2.818994e+01	1.356264e+02
2.830000e-06	3.978267e-06	1.991320e-09	2.841016e+01	1.362835e+02
2.840000e-06	4.008730e-06	1.998042e-09	2.862771e+01	1.369117e+02
2.850000e-06	4.038936e-06	2.008827e-09	2.884343e+01	1.375116e+02
2.860000e-06	4.068933e-06	2.021882e-09	2.905764e+01	1.380842e+02
2.870000e-06	4.098646e-06	2.032574e-09	2.926983e+01	1.386304e+02
2.880000e-06	4.128138e-06	2.039168e-09	2.948044e+01	1.391512e+02
2.890000e-06	4.157326e-06	2.044260e-09	2.968888e+01	1.396476e+02
2.900000e-06	4.186165e-06	2.048752e-09	2.989484e+01	1.401206e+02
