# Temperatura_=_9.4
# Concentracion g/m^3_=_4090.0
# C_Vs_to_Am_M_A/Vsm_=_65563218390.804596
# pendiente_HvsI_1/m_=_3716.3
# ordenada_HvsI_A/m_=_1297.0
# frecuencia_Hz_=_135066.00299688274

Tiempo_(s)	Campo_(V.s)	Magnetizacion_(V.s)	Campo_(kA/m)	Magnetizacion_(A/m)
0.000000e+00	-5.410749e-06	-2.483044e-09	-3.840478e+01	-1.604242e+02
1.000000e-08	-5.410805e-06	-2.485708e-09	-3.840517e+01	-1.603144e+02
2.000000e-08	-5.410597e-06	-2.488354e-09	-3.840370e+01	-1.602065e+02
3.000000e-08	-5.410092e-06	-2.489940e-09	-3.840012e+01	-1.601025e+02
4.000000e-08	-5.409189e-06	-2.489516e-09	-3.839371e+01	-1.600040e+02
5.000000e-08	-5.407762e-06	-2.484669e-09	-3.838358e+01	-1.599128e+02
6.000000e-08	-5.405757e-06	-2.477244e-09	-3.836934e+01	-1.598304e+02
7.000000e-08	-5.403117e-06	-2.464615e-09	-3.835061e+01	-1.597582e+02
8.000000e-08	-5.399819e-06	-2.438117e-09	-3.832720e+01	-1.596977e+02
9.000000e-08	-5.396020e-06	-2.463738e-09	-3.830023e+01	-1.596498e+02
1.000000e-07	-5.391910e-06	-2.549869e-09	-3.827106e+01	-1.596154e+02
1.100000e-07	-5.387600e-06	-2.528667e-09	-3.824047e+01	-1.595952e+02
1.200000e-07	-5.383094e-06	-2.423335e-09	-3.820849e+01	-1.595895e+02
1.300000e-07	-5.378281e-06	-2.426288e-09	-3.817433e+01	-1.595986e+02
1.400000e-07	-5.373013e-06	-2.526998e-09	-3.813694e+01	-1.596222e+02
1.500000e-07	-5.367335e-06	-2.529776e-09	-3.809663e+01	-1.596600e+02
1.600000e-07	-5.361356e-06	-2.372068e-09	-3.805420e+01	-1.597112e+02
1.700000e-07	-5.354974e-06	-2.403911e-09	-3.800890e+01	-1.597750e+02
1.800000e-07	-5.348105e-06	-2.542171e-09	-3.796014e+01	-1.598501e+02
1.900000e-07	-5.340898e-06	-2.563218e-09	-3.790899e+01	-1.599352e+02
2.000000e-07	-5.333506e-06	-2.437820e-09	-3.785652e+01	-1.600285e+02
2.100000e-07	-5.325892e-06	-2.470364e-09	-3.780248e+01	-1.601285e+02
2.200000e-07	-5.318007e-06	-2.558984e-09	-3.774651e+01	-1.602330e+02
2.300000e-07	-5.309824e-06	-2.519228e-09	-3.768842e+01	-1.603401e+02
2.400000e-07	-5.301191e-06	-2.455452e-09	-3.762715e+01	-1.604476e+02
2.500000e-07	-5.291876e-06	-2.518059e-09	-3.756103e+01	-1.605533e+02
2.600000e-07	-5.281965e-06	-2.556786e-09	-3.749069e+01	-1.606552e+02
2.700000e-07	-5.271528e-06	-2.478632e-09	-3.741661e+01	-1.607510e+02
2.800000e-07	-5.260448e-06	-2.485695e-09	-3.733796e+01	-1.608387e+02
2.900000e-07	-5.248963e-06	-2.554050e-09	-3.725644e+01	-1.609163e+02
3.000000e-07	-5.237186e-06	-2.517193e-09	-3.717285e+01	-1.609820e+02
3.100000e-07	-5.224993e-06	-2.438033e-09	-3.708631e+01	-1.610341e+02
3.200000e-07	-5.212325e-06	-2.517150e-09	-3.699640e+01	-1.610712e+02
3.300000e-07	-5.199258e-06	-2.558017e-09	-3.690364e+01	-1.610921e+02
3.400000e-07	-5.185840e-06	-2.498006e-09	-3.680841e+01	-1.610957e+02
3.500000e-07	-5.172086e-06	-2.475320e-09	-3.671078e+01	-1.610812e+02
3.600000e-07	-5.158042e-06	-2.539979e-09	-3.661110e+01	-1.610483e+02
3.700000e-07	-5.143617e-06	-2.505406e-09	-3.650871e+01	-1.609966e+02
3.800000e-07	-5.128619e-06	-2.473730e-09	-3.640226e+01	-1.609262e+02
3.900000e-07	-5.113031e-06	-2.493792e-09	-3.629162e+01	-1.608373e+02
4.000000e-07	-5.096866e-06	-2.500539e-09	-3.617688e+01	-1.607304e+02
4.100000e-07	-5.080246e-06	-2.463113e-09	-3.605891e+01	-1.606064e+02
4.200000e-07	-5.063327e-06	-2.494516e-09	-3.593882e+01	-1.604661e+02
4.300000e-07	-5.046131e-06	-2.500249e-09	-3.581677e+01	-1.603107e+02
4.400000e-07	-5.028678e-06	-2.459400e-09	-3.569289e+01	-1.601415e+02
4.500000e-07	-5.010903e-06	-2.452607e-09	-3.556673e+01	-1.599597e+02
4.600000e-07	-4.992759e-06	-2.484337e-09	-3.543794e+01	-1.597670e+02
4.700000e-07	-4.974268e-06	-2.463675e-09	-3.530669e+01	-1.595648e+02
4.800000e-07	-4.955410e-06	-2.445180e-09	-3.517285e+01	-1.593548e+02
4.900000e-07	-4.936071e-06	-2.455849e-09	-3.503558e+01	-1.591384e+02
5.000000e-07	-4.916378e-06	-2.455284e-09	-3.489580e+01	-1.589171e+02
5.100000e-07	-4.896495e-06	-2.449593e-09	-3.475467e+01	-1.586925e+02
5.200000e-07	-4.876417e-06	-2.450099e-09	-3.461216e+01	-1.584658e+02
5.300000e-07	-4.856099e-06	-2.432858e-09	-3.446795e+01	-1.582382e+02
5.400000e-07	-4.835418e-06	-2.422486e-09	-3.432115e+01	-1.580108e+02
5.500000e-07	-4.814310e-06	-2.439894e-09	-3.417134e+01	-1.577845e+02
5.600000e-07	-4.792907e-06	-2.430497e-09	-3.401942e+01	-1.575599e+02
5.700000e-07	-4.771288e-06	-2.409397e-09	-3.386597e+01	-1.573377e+02
5.800000e-07	-4.749395e-06	-2.410245e-09	-3.371057e+01	-1.571181e+02
5.900000e-07	-4.727150e-06	-2.418310e-09	-3.355268e+01	-1.569012e+02
6.000000e-07	-4.704563e-06	-2.403367e-09	-3.339237e+01	-1.566870e+02
6.100000e-07	-4.681575e-06	-2.397066e-09	-3.322920e+01	-1.564753e+02
6.200000e-07	-4.658129e-06	-2.386119e-09	-3.306278e+01	-1.562656e+02
6.300000e-07	-4.634422e-06	-2.384197e-09	-3.289451e+01	-1.560574e+02
6.400000e-07	-4.610559e-06	-2.388693e-09	-3.272514e+01	-1.558500e+02
6.500000e-07	-4.586564e-06	-2.387328e-09	-3.255482e+01	-1.556425e+02
6.600000e-07	-4.562354e-06	-2.365224e-09	-3.238298e+01	-1.554340e+02
6.700000e-07	-4.537841e-06	-2.364537e-09	-3.220899e+01	-1.552236e+02
6.800000e-07	-4.513007e-06	-2.367446e-09	-3.203272e+01	-1.550104e+02
6.900000e-07	-4.487634e-06	-2.362281e-09	-3.185263e+01	-1.547932e+02
7.000000e-07	-4.461629e-06	-2.350032e-09	-3.166805e+01	-1.545710e+02
7.100000e-07	-4.435097e-06	-2.351556e-09	-3.147973e+01	-1.543430e+02
7.200000e-07	-4.408025e-06	-2.349885e-09	-3.128758e+01	-1.541083e+02
7.300000e-07	-4.380539e-06	-2.347635e-09	-3.109248e+01	-1.538659e+02
7.400000e-07	-4.352816e-06	-2.334872e-09	-3.089571e+01	-1.536154e+02
7.500000e-07	-4.324894e-06	-2.326106e-09	-3.069752e+01	-1.533560e+02
7.600000e-07	-4.296832e-06	-2.324469e-09	-3.049834e+01	-1.530874e+02
7.700000e-07	-4.268608e-06	-2.323975e-09	-3.029802e+01	-1.528093e+02
7.800000e-07	-4.240191e-06	-2.315027e-09	-3.009631e+01	-1.525215e+02
7.900000e-07	-4.211462e-06	-2.311364e-09	-2.989240e+01	-1.522241e+02
8.000000e-07	-4.182343e-06	-2.313260e-09	-2.968572e+01	-1.519172e+02
8.100000e-07	-4.152914e-06	-2.312642e-09	-2.947683e+01	-1.516011e+02
8.200000e-07	-4.123234e-06	-2.305016e-09	-2.926617e+01	-1.512764e+02
8.300000e-07	-4.093240e-06	-2.292835e-09	-2.905327e+01	-1.509435e+02
8.400000e-07	-4.062907e-06	-2.284888e-09	-2.883797e+01	-1.506031e+02
8.500000e-07	-4.032315e-06	-2.281750e-09	-2.862084e+01	-1.502560e+02
8.600000e-07	-4.001479e-06	-2.277269e-09	-2.840197e+01	-1.499031e+02
8.700000e-07	-3.970420e-06	-2.265912e-09	-2.818152e+01	-1.495452e+02
8.800000e-07	-3.939154e-06	-2.259659e-09	-2.795959e+01	-1.491833e+02
8.900000e-07	-3.907601e-06	-2.260449e-09	-2.773564e+01	-1.488182e+02
9.000000e-07	-3.875717e-06	-2.262901e-09	-2.750932e+01	-1.484508e+02
9.100000e-07	-3.843694e-06	-2.252304e-09	-2.728203e+01	-1.480820e+02
9.200000e-07	-3.811614e-06	-2.239641e-09	-2.705433e+01	-1.477126e+02
9.300000e-07	-3.779362e-06	-2.229264e-09	-2.682541e+01	-1.473434e+02
9.400000e-07	-3.746858e-06	-2.224624e-09	-2.659470e+01	-1.469748e+02
9.500000e-07	-3.714088e-06	-2.214791e-09	-2.636211e+01	-1.466074e+02
9.600000e-07	-3.681005e-06	-2.208872e-09	-2.612729e+01	-1.462417e+02
9.700000e-07	-3.647446e-06	-2.208864e-09	-2.588909e+01	-1.458778e+02
9.800000e-07	-3.613367e-06	-2.211677e-09	-2.564720e+01	-1.455158e+02
9.900000e-07	-3.578843e-06	-2.201345e-09	-2.540215e+01	-1.451558e+02
1.000000e-06	-3.543919e-06	-2.188475e-09	-2.515427e+01	-1.447976e+02
1.010000e-06	-3.508613e-06	-2.179607e-09	-2.490367e+01	-1.444408e+02
1.020000e-06	-3.473027e-06	-2.176125e-09	-2.465108e+01	-1.440850e+02
1.030000e-06	-3.437263e-06	-2.169144e-09	-2.439724e+01	-1.437297e+02
1.040000e-06	-3.401369e-06	-2.165001e-09	-2.414246e+01	-1.433742e+02
1.050000e-06	-3.365305e-06	-2.163897e-09	-2.388649e+01	-1.430179e+02
1.060000e-06	-3.329067e-06	-2.164261e-09	-2.362928e+01	-1.426598e+02
1.070000e-06	-3.292760e-06	-2.156581e-09	-2.337157e+01	-1.422991e+02
1.080000e-06	-3.256265e-06	-2.141698e-09	-2.311253e+01	-1.419349e+02
1.090000e-06	-3.219466e-06	-2.128050e-09	-2.285134e+01	-1.415662e+02
1.100000e-06	-3.182379e-06	-2.123192e-09	-2.258811e+01	-1.411922e+02
1.110000e-06	-3.145075e-06	-2.121396e-09	-2.232333e+01	-1.408119e+02
1.120000e-06	-3.107580e-06	-2.115921e-09	-2.205719e+01	-1.404244e+02
1.130000e-06	-3.069822e-06	-2.112044e-09	-2.178919e+01	-1.400289e+02
1.140000e-06	-3.031852e-06	-2.110493e-09	-2.151968e+01	-1.396246e+02
1.150000e-06	-2.993729e-06	-2.101780e-09	-2.124909e+01	-1.392109e+02
1.160000e-06	-2.955470e-06	-2.081219e-09	-2.097753e+01	-1.387871e+02
1.170000e-06	-2.916999e-06	-2.060909e-09	-2.070447e+01	-1.383527e+02
1.180000e-06	-2.878194e-06	-2.048021e-09	-2.042904e+01	-1.379074e+02
1.190000e-06	-2.839147e-06	-2.044299e-09	-2.015189e+01	-1.374508e+02
1.200000e-06	-2.799966e-06	-2.040154e-09	-1.987379e+01	-1.369827e+02
1.210000e-06	-2.760570e-06	-2.036612e-09	-1.959416e+01	-1.365031e+02
1.220000e-06	-2.720991e-06	-2.032971e-09	-1.931324e+01	-1.360119e+02
1.230000e-06	-2.681282e-06	-2.027321e-09	-1.903138e+01	-1.355093e+02
1.240000e-06	-2.641489e-06	-2.011724e-09	-1.874894e+01	-1.349953e+02
1.250000e-06	-2.601592e-06	-1.994038e-09	-1.846576e+01	-1.344703e+02
1.260000e-06	-2.561551e-06	-1.978650e-09	-1.818155e+01	-1.339346e+02
1.270000e-06	-2.521423e-06	-1.968872e-09	-1.789673e+01	-1.333884e+02
1.280000e-06	-2.481163e-06	-1.961791e-09	-1.761097e+01	-1.328321e+02
1.290000e-06	-2.440758e-06	-1.957195e-09	-1.732418e+01	-1.322662e+02
1.300000e-06	-2.400204e-06	-1.951296e-09	-1.703633e+01	-1.316910e+02
1.310000e-06	-2.359473e-06	-1.942429e-09	-1.674722e+01	-1.311068e+02
1.320000e-06	-2.318583e-06	-1.931036e-09	-1.645699e+01	-1.305140e+02
1.330000e-06	-2.277485e-06	-1.918820e-09	-1.616529e+01	-1.299130e+02
1.340000e-06	-2.236063e-06	-1.903315e-09	-1.587128e+01	-1.293038e+02
1.350000e-06	-2.194344e-06	-1.887549e-09	-1.557516e+01	-1.286867e+02
1.360000e-06	-2.152346e-06	-1.874499e-09	-1.527707e+01	-1.280619e+02
1.370000e-06	-2.110068e-06	-1.865685e-09	-1.497698e+01	-1.274293e+02
1.380000e-06	-2.067485e-06	-1.860054e-09	-1.467474e+01	-1.267889e+02
1.390000e-06	-2.024587e-06	-1.854641e-09	-1.437025e+01	-1.261405e+02
1.400000e-06	-1.981452e-06	-1.848601e-09	-1.406409e+01	-1.254840e+02
1.410000e-06	-1.938113e-06	-1.840257e-09	-1.375647e+01	-1.248190e+02
1.420000e-06	-1.894648e-06	-1.827468e-09	-1.344796e+01	-1.241451e+02
1.430000e-06	-1.851058e-06	-1.806302e-09	-1.313857e+01	-1.234619e+02
1.440000e-06	-1.807349e-06	-1.780931e-09	-1.282832e+01	-1.227687e+02
1.450000e-06	-1.763522e-06	-1.764345e-09	-1.251724e+01	-1.220652e+02
1.460000e-06	-1.719606e-06	-1.759643e-09	-1.220553e+01	-1.213504e+02
1.470000e-06	-1.675660e-06	-1.759091e-09	-1.189361e+01	-1.206239e+02
1.480000e-06	-1.631639e-06	-1.758468e-09	-1.158116e+01	-1.198847e+02
1.490000e-06	-1.587578e-06	-1.753976e-09	-1.126842e+01	-1.191321e+02
1.500000e-06	-1.543483e-06	-1.743329e-09	-1.095544e+01	-1.183654e+02
1.510000e-06	-1.499330e-06	-1.723445e-09	-1.064205e+01	-1.175836e+02
1.520000e-06	-1.455134e-06	-1.696549e-09	-1.032835e+01	-1.167860e+02
1.530000e-06	-1.410885e-06	-1.672333e-09	-1.001427e+01	-1.159718e+02
1.540000e-06	-1.366586e-06	-1.658660e-09	-9.699844e+00	-1.151400e+02
1.550000e-06	-1.322157e-06	-1.653320e-09	-9.384497e+00	-1.142899e+02
1.560000e-06	-1.277561e-06	-1.652274e-09	-9.067958e+00	-1.134207e+02
1.570000e-06	-1.232893e-06	-1.648264e-09	-8.750909e+00	-1.125316e+02
1.580000e-06	-1.188228e-06	-1.638970e-09	-8.433887e+00	-1.116218e+02
1.590000e-06	-1.143467e-06	-1.622228e-09	-8.116175e+00	-1.106905e+02
1.600000e-06	-1.098486e-06	-1.596792e-09	-7.796911e+00	-1.097370e+02
1.610000e-06	-1.053413e-06	-1.566757e-09	-7.476984e+00	-1.087604e+02
1.620000e-06	-1.008334e-06	-1.546213e-09	-7.157019e+00	-1.077601e+02
1.630000e-06	-9.632033e-07	-1.535772e-09	-6.836689e+00	-1.067352e+02
1.640000e-06	-9.179820e-07	-1.527781e-09	-6.515714e+00	-1.056851e+02
1.650000e-06	-8.726939e-07	-1.518251e-09	-6.194266e+00	-1.046088e+02
1.660000e-06	-8.273684e-07	-1.508002e-09	-5.872551e+00	-1.035056e+02
1.670000e-06	-7.820097e-07	-1.495320e-09	-5.550601e+00	-1.023747e+02
1.680000e-06	-7.366481e-07	-1.473259e-09	-5.228630e+00	-1.012151e+02
1.690000e-06	-6.911515e-07	-1.443407e-09	-4.905702e+00	-1.000261e+02
1.700000e-06	-6.455272e-07	-1.415489e-09	-4.581866e+00	-9.880652e+01
1.710000e-06	-5.999104e-07	-1.395677e-09	-4.258085e+00	-9.755553e+01
1.720000e-06	-5.542866e-07	-1.381983e-09	-3.934253e+00	-9.627205e+01
1.730000e-06	-5.086187e-07	-1.366613e-09	-3.610108e+00	-9.495500e+01
1.740000e-06	-4.629288e-07	-1.348947e-09	-3.285807e+00	-9.360328e+01
1.750000e-06	-4.172230e-07	-1.333612e-09	-2.961393e+00	-9.221572e+01
1.760000e-06	-3.714589e-07	-1.318250e-09	-2.636566e+00	-9.079114e+01
1.770000e-06	-3.256428e-07	-1.294551e-09	-2.311369e+00	-8.932833e+01
1.780000e-06	-2.797887e-07	-1.261321e-09	-1.985903e+00	-8.782604e+01
1.790000e-06	-2.339337e-07	-1.228711e-09	-1.660431e+00	-8.628305e+01
1.800000e-06	-1.881070e-07	-1.200969e-09	-1.335159e+00	-8.469810e+01
1.810000e-06	-1.422358e-07	-1.176815e-09	-1.009571e+00	-8.306997e+01
1.820000e-06	-9.633487e-08	-1.152749e-09	-6.837722e-01	-8.139746e+01
1.830000e-06	-5.049959e-08	-1.128996e-09	-3.584394e-01	-7.967939e+01
1.840000e-06	-4.714557e-09	-1.106654e-09	-3.346330e-02	-7.791466e+01
1.850000e-06	4.110039e-08	-1.083180e-09	2.917251e-01	-7.610222e+01
1.860000e-06	8.692125e-08	-1.052861e-09	6.169555e-01	-7.424109e+01
1.870000e-06	1.327468e-07	-1.017370e-09	9.422190e-01	-7.233041e+01
1.880000e-06	1.786151e-07	-9.832499e-10	1.267787e+00	-7.036940e+01
1.890000e-06	2.244625e-07	-9.525180e-10	1.593205e+00	-6.835742e+01
1.900000e-06	2.703342e-07	-9.195542e-10	1.918797e+00	-6.629393e+01
1.910000e-06	3.162400e-07	-8.847648e-10	2.244630e+00	-6.417856e+01
1.920000e-06	3.620846e-07	-8.535048e-10	2.570029e+00	-6.201106e+01
1.930000e-06	4.078738e-07	-8.265461e-10	2.895034e+00	-5.979134e+01
1.940000e-06	4.536371e-07	-7.977570e-10	3.219856e+00	-5.751949e+01
1.950000e-06	4.993951e-07	-7.624424e-10	3.544640e+00	-5.519573e+01
1.960000e-06	5.450921e-07	-7.235970e-10	3.868991e+00	-5.282046e+01
1.970000e-06	5.906879e-07	-6.846595e-10	4.192624e+00	-5.039426e+01
1.980000e-06	6.362703e-07	-6.452157e-10	4.516163e+00	-4.791785e+01
1.990000e-06	6.818713e-07	-6.040566e-10	4.839832e+00	-4.539212e+01
2.000000e-06	7.274272e-07	-5.640153e-10	5.163182e+00	-4.281812e+01
2.010000e-06	7.729120e-07	-5.285970e-10	5.486027e+00	-4.019706e+01
2.020000e-06	8.182531e-07	-4.958142e-10	5.807852e+00	-3.753028e+01
2.030000e-06	8.635042e-07	-4.609288e-10	6.129038e+00	-3.481927e+01
2.040000e-06	9.087760e-07	-4.206203e-10	6.450372e+00	-3.206566e+01
2.050000e-06	9.540282e-07	-3.776360e-10	6.771566e+00	-2.927119e+01
2.060000e-06	9.992275e-07	-3.357587e-10	7.092385e+00	-2.643772e+01
2.070000e-06	1.044250e-06	-2.925915e-10	7.411951e+00	-2.356723e+01
2.080000e-06	1.089133e-06	-2.480536e-10	7.730522e+00	-2.066178e+01
2.090000e-06	1.134021e-06	-2.057714e-10	8.049134e+00	-1.772354e+01
2.100000e-06	1.178874e-06	-1.673459e-10	8.367493e+00	-1.475476e+01
2.110000e-06	1.223539e-06	-1.277840e-10	8.684515e+00	-1.175774e+01
2.120000e-06	1.268023e-06	-8.443063e-11	9.000256e+00	-8.734894e+00
2.130000e-06	1.312426e-06	-3.949591e-11	9.315428e+00	-5.688667e+00
2.140000e-06	1.356691e-06	4.737643e-12	9.629610e+00	-2.621571e+00
2.150000e-06	1.400926e-06	5.053474e-11	9.943586e+00	4.638300e-01
2.160000e-06	1.445227e-06	1.003379e-10	1.025803e+01	3.564925e+00
2.170000e-06	1.489470e-06	1.505303e-10	1.057206e+01	6.679060e+00
2.180000e-06	1.533591e-06	1.961707e-10	1.088522e+01	9.803542e+00
2.190000e-06	1.577604e-06	2.388619e-10	1.119762e+01	1.293564e+01
2.200000e-06	1.621587e-06	2.826835e-10	1.150981e+01	1.607261e+01
2.210000e-06	1.665567e-06	3.282301e-10	1.182197e+01	1.921164e+01
2.220000e-06	1.709501e-06	3.732160e-10	1.213381e+01	2.234994e+01
2.230000e-06	1.753382e-06	4.180305e-10	1.244527e+01	2.548467e+01
2.240000e-06	1.797224e-06	4.640663e-10	1.275646e+01	2.861300e+01
2.250000e-06	1.840981e-06	5.089934e-10	1.306704e+01	3.173205e+01
2.260000e-06	1.884545e-06	5.518769e-10	1.337625e+01	3.483899e+01
2.270000e-06	1.927866e-06	5.946391e-10	1.368374e+01	3.793096e+01
2.280000e-06	1.971005e-06	6.385842e-10	1.398993e+01	4.100511e+01
2.290000e-06	2.013950e-06	6.830414e-10	1.429475e+01	4.405862e+01
2.300000e-06	2.056663e-06	7.275557e-10	1.459792e+01	4.708872e+01
2.310000e-06	2.099167e-06	7.708358e-10	1.489961e+01	5.009263e+01
2.320000e-06	2.141406e-06	8.121647e-10	1.519942e+01	5.306767e+01
2.330000e-06	2.183377e-06	8.514986e-10	1.549732e+01	5.601120e+01
2.340000e-06	2.225129e-06	8.877479e-10	1.579367e+01	5.892066e+01
2.350000e-06	2.266621e-06	9.241635e-10	1.608818e+01	6.179357e+01
2.360000e-06	2.307759e-06	9.646905e-10	1.638017e+01	6.462756e+01
2.370000e-06	2.348504e-06	1.008861e-09	1.666937e+01	6.742039e+01
2.380000e-06	2.389080e-06	1.055882e-09	1.695738e+01	7.016991e+01
2.390000e-06	2.429587e-06	1.098846e-09	1.724488e+01	7.287413e+01
2.400000e-06	2.469885e-06	1.135372e-09	1.753092e+01	7.553122e+01
2.410000e-06	2.510062e-06	1.167478e-09	1.781609e+01	7.813950e+01
2.420000e-06	2.550144e-06	1.197142e-09	1.810059e+01	8.069746e+01
2.430000e-06	2.590074e-06	1.226349e-09	1.838400e+01	8.320377e+01
2.440000e-06	2.629909e-06	1.256944e-09	1.866674e+01	8.565728e+01
2.450000e-06	2.669665e-06	1.293934e-09	1.894893e+01	8.805704e+01
2.460000e-06	2.709343e-06	1.335600e-09	1.923056e+01	9.040230e+01
2.470000e-06	2.749000e-06	1.377900e-09	1.951204e+01	9.269248e+01
2.480000e-06	2.788561e-06	1.415361e-09	1.979284e+01	9.492721e+01
2.490000e-06	2.827759e-06	1.446042e-09	2.007106e+01	9.710629e+01
2.500000e-06	2.866576e-06	1.470934e-09	2.034658e+01	9.922973e+01
2.510000e-06	2.905208e-06	1.490024e-09	2.062078e+01	1.012977e+02
2.520000e-06	2.943672e-06	1.509476e-09	2.089379e+01	1.033105e+02
2.530000e-06	2.981856e-06	1.537444e-09	2.116482e+01	1.052687e+02
2.540000e-06	3.019815e-06	1.574583e-09	2.143424e+01	1.071728e+02
2.550000e-06	3.057666e-06	1.614670e-09	2.170291e+01	1.090237e+02
2.560000e-06	3.095302e-06	1.648699e-09	2.197004e+01	1.108222e+02
2.570000e-06	3.132723e-06	1.675122e-09	2.223565e+01	1.125693e+02
2.580000e-06	3.169983e-06	1.695252e-09	2.250012e+01	1.142659e+02
2.590000e-06	3.207057e-06	1.710719e-09	2.276326e+01	1.159133e+02
2.600000e-06	3.243947e-06	1.724772e-09	2.302511e+01	1.175126e+02
2.610000e-06	3.280524e-06	1.745197e-09	2.328473e+01	1.190649e+02
2.620000e-06	3.316804e-06	1.774262e-09	2.354223e+01	1.205714e+02
2.630000e-06	3.352925e-06	1.804872e-09	2.379862e+01	1.220333e+02
2.640000e-06	3.388941e-06	1.830452e-09	2.405426e+01	1.234518e+02
2.650000e-06	3.424888e-06	1.848043e-09	2.430940e+01	1.248281e+02
2.660000e-06	3.460709e-06	1.860337e-09	2.456365e+01	1.261631e+02
2.670000e-06	3.496347e-06	1.872271e-09	2.481661e+01	1.274581e+02
2.680000e-06	3.531751e-06	1.885566e-09	2.506790e+01	1.287139e+02
2.690000e-06	3.566856e-06	1.902417e-09	2.531707e+01	1.299316e+02
2.700000e-06	3.601544e-06	1.924224e-09	2.556328e+01	1.311119e+02
2.710000e-06	3.635711e-06	1.948560e-09	2.580580e+01	1.322558e+02
2.720000e-06	3.669403e-06	1.969862e-09	2.604494e+01	1.333640e+02
2.730000e-06	3.702664e-06	1.983402e-09	2.628102e+01	1.344372e+02
2.740000e-06	3.735530e-06	1.992163e-09	2.651430e+01	1.354761e+02
2.750000e-06	3.768086e-06	2.000960e-09	2.674538e+01	1.364812e+02
2.760000e-06	3.800428e-06	2.012295e-09	2.697493e+01	1.374532e+02
2.770000e-06	3.832587e-06	2.025402e-09	2.720319e+01	1.383926e+02
2.780000e-06	3.864580e-06	2.040087e-09	2.743028e+01	1.392999e+02
2.790000e-06	3.896448e-06	2.055699e-09	2.765647e+01	1.401757e+02
2.800000e-06	3.928086e-06	2.070823e-09	2.788103e+01	1.410203e+02
2.810000e-06	3.959459e-06	2.082648e-09	2.810371e+01	1.418345e+02
2.820000e-06	3.990693e-06	2.090486e-09	2.832541e+01	1.426186e+02
2.830000e-06	4.021631e-06	2.096525e-09	2.854501e+01	1.433733e+02
2.840000e-06	4.052104e-06	2.105950e-09	2.876130e+01	1.440992e+02
2.850000e-06	4.082314e-06	2.118045e-09	2.897573e+01	1.447968e+02
2.860000e-06	4.112306e-06	2.130245e-09	2.918860e+01	1.454668e+02
2.870000e-06	4.142005e-06	2.141256e-09	2.939941e+01	1.461100e+02
2.880000e-06	4.171465e-06	2.150053e-09	2.960851e+01	1.467272e+02
2.890000e-06	4.200666e-06	2.157454e-09	2.981577e+01	1.473190e+02
2.900000e-06	4.229568e-06	2.164056e-09	3.002091e+01	1.478864e+02
