# Temperatura_=_-1.38
# Concentracion g/m^3_=_4090.0
# C_Vs_to_Am_M_A/Vsm_=_65563218390.804596
# pendiente_HvsI_1/m_=_3716.3
# ordenada_HvsI_A/m_=_1297.0
# frecuencia_Hz_=_135062.12646547923

Tiempo_(s)	Campo_(V.s)	Magnetizacion_(V.s)	Campo_(kA/m)	Magnetizacion_(A/m)
0.000000e+00	-5.407032e-06	-2.506822e-09	-3.839573e+01	-1.622165e+02
1.000000e-08	-5.407318e-06	-2.508109e-09	-3.839776e+01	-1.621055e+02
2.000000e-08	-5.407305e-06	-2.511606e-09	-3.839767e+01	-1.619986e+02
3.000000e-08	-5.406969e-06	-2.511881e-09	-3.839528e+01	-1.618978e+02
4.000000e-08	-5.406232e-06	-2.510468e-09	-3.839005e+01	-1.618050e+02
5.000000e-08	-5.404999e-06	-2.512777e-09	-3.838129e+01	-1.617218e+02
6.000000e-08	-5.403138e-06	-2.518907e-09	-3.836808e+01	-1.616500e+02
7.000000e-08	-5.400624e-06	-2.523211e-09	-3.835023e+01	-1.615909e+02
8.000000e-08	-5.397569e-06	-2.512702e-09	-3.832853e+01	-1.615457e+02
9.000000e-08	-5.394006e-06	-2.499673e-09	-3.830323e+01	-1.615153e+02
1.000000e-07	-5.389981e-06	-2.522196e-09	-3.827465e+01	-1.615005e+02
1.100000e-07	-5.385745e-06	-2.557952e-09	-3.824457e+01	-1.615016e+02
1.200000e-07	-5.381384e-06	-2.522686e-09	-3.821360e+01	-1.615187e+02
1.300000e-07	-5.376686e-06	-2.475649e-09	-3.818024e+01	-1.615516e+02
1.400000e-07	-5.371590e-06	-2.484366e-09	-3.814406e+01	-1.615999e+02
1.500000e-07	-5.366140e-06	-2.541106e-09	-3.810535e+01	-1.616627e+02
1.600000e-07	-5.360326e-06	-2.506633e-09	-3.806407e+01	-1.617389e+02
1.700000e-07	-5.354123e-06	-2.453098e-09	-3.802002e+01	-1.618273e+02
1.800000e-07	-5.347464e-06	-2.489194e-09	-3.797273e+01	-1.619262e+02
1.900000e-07	-5.340392e-06	-2.559214e-09	-3.792251e+01	-1.620339e+02
2.000000e-07	-5.333050e-06	-2.533860e-09	-3.787038e+01	-1.621484e+02
2.100000e-07	-5.325502e-06	-2.484263e-09	-3.781678e+01	-1.622676e+02
2.200000e-07	-5.317744e-06	-2.520559e-09	-3.776169e+01	-1.623892e+02
2.300000e-07	-5.309715e-06	-2.559470e-09	-3.770468e+01	-1.625109e+02
2.400000e-07	-5.301322e-06	-2.530556e-09	-3.764508e+01	-1.626305e+02
2.500000e-07	-5.292333e-06	-2.510981e-09	-3.758125e+01	-1.627455e+02
2.600000e-07	-5.282605e-06	-2.560500e-09	-3.751216e+01	-1.628537e+02
2.700000e-07	-5.272275e-06	-2.562646e-09	-3.743881e+01	-1.629529e+02
2.800000e-07	-5.261460e-06	-2.520149e-09	-3.736201e+01	-1.630411e+02
2.900000e-07	-5.250191e-06	-2.524269e-09	-3.728199e+01	-1.631164e+02
3.000000e-07	-5.238516e-06	-2.560813e-09	-3.719909e+01	-1.631770e+02
3.100000e-07	-5.226467e-06	-2.525239e-09	-3.711352e+01	-1.632214e+02
3.200000e-07	-5.214042e-06	-2.501745e-09	-3.702529e+01	-1.632485e+02
3.300000e-07	-5.201279e-06	-2.533859e-09	-3.693466e+01	-1.632572e+02
3.400000e-07	-5.188167e-06	-2.544775e-09	-3.684155e+01	-1.632468e+02
3.500000e-07	-5.174656e-06	-2.506996e-09	-3.674561e+01	-1.632168e+02
3.600000e-07	-5.160778e-06	-2.520140e-09	-3.664706e+01	-1.631671e+02
3.700000e-07	-5.146526e-06	-2.536198e-09	-3.654586e+01	-1.630978e+02
3.800000e-07	-5.131718e-06	-2.509900e-09	-3.644070e+01	-1.630093e+02
3.900000e-07	-5.116288e-06	-2.493034e-09	-3.633113e+01	-1.629022e+02
4.000000e-07	-5.100291e-06	-2.516297e-09	-3.621754e+01	-1.627773e+02
4.100000e-07	-5.083854e-06	-2.498855e-09	-3.610082e+01	-1.626357e+02
4.200000e-07	-5.067145e-06	-2.475483e-09	-3.598216e+01	-1.624787e+02
4.300000e-07	-5.050150e-06	-2.494388e-09	-3.586149e+01	-1.623076e+02
4.400000e-07	-5.032904e-06	-2.506159e-09	-3.573902e+01	-1.621239e+02
4.500000e-07	-5.015341e-06	-2.482632e-09	-3.561431e+01	-1.619293e+02
4.600000e-07	-4.997367e-06	-2.477101e-09	-3.548667e+01	-1.617254e+02
4.700000e-07	-4.978964e-06	-2.488615e-09	-3.535599e+01	-1.615139e+02
4.800000e-07	-4.960198e-06	-2.479729e-09	-3.522273e+01	-1.612964e+02
4.900000e-07	-4.941091e-06	-2.468014e-09	-3.508705e+01	-1.610746e+02
5.000000e-07	-4.921647e-06	-2.464501e-09	-3.494898e+01	-1.608501e+02
5.100000e-07	-4.901945e-06	-2.465620e-09	-3.480907e+01	-1.606242e+02
5.200000e-07	-4.881992e-06	-2.467655e-09	-3.466738e+01	-1.603983e+02
5.300000e-07	-4.861828e-06	-2.469298e-09	-3.452420e+01	-1.601736e+02
5.400000e-07	-4.841397e-06	-2.457461e-09	-3.437911e+01	-1.599511e+02
5.500000e-07	-4.820530e-06	-2.451872e-09	-3.423094e+01	-1.597316e+02
5.600000e-07	-4.799272e-06	-2.449577e-09	-3.407998e+01	-1.595157e+02
5.700000e-07	-4.777754e-06	-2.445455e-09	-3.392718e+01	-1.593040e+02
5.800000e-07	-4.755930e-06	-2.437829e-09	-3.377221e+01	-1.590966e+02
5.900000e-07	-4.733825e-06	-2.437716e-09	-3.361523e+01	-1.588937e+02
6.000000e-07	-4.711417e-06	-2.434951e-09	-3.345612e+01	-1.586951e+02
6.100000e-07	-4.688605e-06	-2.435700e-09	-3.329413e+01	-1.585006e+02
6.200000e-07	-4.665428e-06	-2.426499e-09	-3.312954e+01	-1.583098e+02
6.300000e-07	-4.641982e-06	-2.414311e-09	-3.296305e+01	-1.581221e+02
6.400000e-07	-4.618274e-06	-2.412378e-09	-3.279470e+01	-1.579368e+02
6.500000e-07	-4.594364e-06	-2.420122e-09	-3.262491e+01	-1.577533e+02
6.600000e-07	-4.570270e-06	-2.413572e-09	-3.245382e+01	-1.575705e+02
6.700000e-07	-4.545832e-06	-2.406638e-09	-3.228029e+01	-1.573877e+02
6.800000e-07	-4.521029e-06	-2.407028e-09	-3.210416e+01	-1.572040e+02
6.900000e-07	-4.495782e-06	-2.408389e-09	-3.192488e+01	-1.570184e+02
7.000000e-07	-4.470005e-06	-2.401172e-09	-3.174183e+01	-1.568301e+02
7.100000e-07	-4.443679e-06	-2.391906e-09	-3.155489e+01	-1.566381e+02
7.200000e-07	-4.416821e-06	-2.382342e-09	-3.136417e+01	-1.564417e+02
7.300000e-07	-4.389623e-06	-2.380406e-09	-3.117104e+01	-1.562403e+02
7.400000e-07	-4.362182e-06	-2.382947e-09	-3.097617e+01	-1.560331e+02
7.500000e-07	-4.334506e-06	-2.380554e-09	-3.077964e+01	-1.558196e+02
7.600000e-07	-4.306607e-06	-2.377882e-09	-3.058153e+01	-1.555994e+02
7.700000e-07	-4.278464e-06	-2.379419e-09	-3.038169e+01	-1.553722e+02
7.800000e-07	-4.250039e-06	-2.376907e-09	-3.017984e+01	-1.551379e+02
7.900000e-07	-4.221349e-06	-2.364647e-09	-2.997610e+01	-1.548963e+02
8.000000e-07	-4.192385e-06	-2.350871e-09	-2.977043e+01	-1.546475e+02
8.100000e-07	-4.163102e-06	-2.342018e-09	-2.956250e+01	-1.543916e+02
8.200000e-07	-4.133519e-06	-2.342106e-09	-2.935242e+01	-1.541289e+02
8.300000e-07	-4.103674e-06	-2.343705e-09	-2.914049e+01	-1.538597e+02
8.400000e-07	-4.073603e-06	-2.342956e-09	-2.892695e+01	-1.535845e+02
8.500000e-07	-4.043195e-06	-2.342428e-09	-2.871103e+01	-1.533036e+02
8.600000e-07	-4.012488e-06	-2.341042e-09	-2.849297e+01	-1.530176e+02
8.700000e-07	-3.981601e-06	-2.328955e-09	-2.827364e+01	-1.527271e+02
8.800000e-07	-3.950498e-06	-2.313344e-09	-2.805278e+01	-1.524326e+02
8.900000e-07	-3.919193e-06	-2.302003e-09	-2.783048e+01	-1.521346e+02
9.000000e-07	-3.887699e-06	-2.302548e-09	-2.760684e+01	-1.518338e+02
9.100000e-07	-3.855961e-06	-2.305071e-09	-2.738146e+01	-1.515307e+02
9.200000e-07	-3.823995e-06	-2.305424e-09	-2.715447e+01	-1.512256e+02
9.300000e-07	-3.791850e-06	-2.302005e-09	-2.692621e+01	-1.509192e+02
9.400000e-07	-3.759491e-06	-2.297069e-09	-2.669642e+01	-1.506118e+02
9.500000e-07	-3.726744e-06	-2.287027e-09	-2.646388e+01	-1.503036e+02
9.600000e-07	-3.693573e-06	-2.274761e-09	-2.622833e+01	-1.499949e+02
9.700000e-07	-3.660030e-06	-2.265302e-09	-2.599014e+01	-1.496859e+02
9.800000e-07	-3.625949e-06	-2.262964e-09	-2.574813e+01	-1.493767e+02
9.900000e-07	-3.591351e-06	-2.259915e-09	-2.550245e+01	-1.490673e+02
1.000000e-06	-3.556433e-06	-2.254307e-09	-2.525449e+01	-1.487576e+02
1.010000e-06	-3.521279e-06	-2.249171e-09	-2.500486e+01	-1.484475e+02
1.020000e-06	-3.485883e-06	-2.243209e-09	-2.475351e+01	-1.481368e+02
1.030000e-06	-3.450291e-06	-2.232508e-09	-2.450077e+01	-1.478253e+02
1.040000e-06	-3.414531e-06	-2.220783e-09	-2.424684e+01	-1.475127e+02
1.050000e-06	-3.378600e-06	-2.213838e-09	-2.399168e+01	-1.471985e+02
1.060000e-06	-3.342555e-06	-2.211189e-09	-2.373573e+01	-1.468825e+02
1.070000e-06	-3.306410e-06	-2.208677e-09	-2.347906e+01	-1.465642e+02
1.080000e-06	-3.270054e-06	-2.203743e-09	-2.322089e+01	-1.462432e+02
1.090000e-06	-3.233348e-06	-2.196294e-09	-2.296024e+01	-1.459192e+02
1.100000e-06	-3.196400e-06	-2.188558e-09	-2.269787e+01	-1.455916e+02
1.110000e-06	-3.159203e-06	-2.181342e-09	-2.243373e+01	-1.452600e+02
1.120000e-06	-3.121709e-06	-2.172728e-09	-2.216748e+01	-1.449241e+02
1.130000e-06	-3.084072e-06	-2.165514e-09	-2.190022e+01	-1.445835e+02
1.140000e-06	-3.046216e-06	-2.161704e-09	-2.163140e+01	-1.442378e+02
1.150000e-06	-3.008144e-06	-2.160082e-09	-2.136105e+01	-1.438867e+02
1.160000e-06	-2.969955e-06	-2.154482e-09	-2.108987e+01	-1.435299e+02
1.170000e-06	-2.931553e-06	-2.147341e-09	-2.081717e+01	-1.431672e+02
1.180000e-06	-2.892905e-06	-2.138494e-09	-2.054273e+01	-1.427983e+02
1.190000e-06	-2.854079e-06	-2.129954e-09	-2.026702e+01	-1.424230e+02
1.200000e-06	-2.815073e-06	-2.120969e-09	-1.999004e+01	-1.420412e+02
1.210000e-06	-2.775773e-06	-2.112407e-09	-1.971097e+01	-1.416527e+02
1.220000e-06	-2.736303e-06	-2.106338e-09	-1.943069e+01	-1.412574e+02
1.230000e-06	-2.696822e-06	-2.103179e-09	-1.915033e+01	-1.408552e+02
1.240000e-06	-2.657247e-06	-2.098575e-09	-1.886931e+01	-1.404459e+02
1.250000e-06	-2.617492e-06	-2.092339e-09	-1.858700e+01	-1.400296e+02
1.260000e-06	-2.577600e-06	-2.084915e-09	-1.830373e+01	-1.396062e+02
1.270000e-06	-2.537605e-06	-2.076922e-09	-1.801972e+01	-1.391754e+02
1.280000e-06	-2.497500e-06	-2.066809e-09	-1.773493e+01	-1.387374e+02
1.290000e-06	-2.457281e-06	-2.057371e-09	-1.744933e+01	-1.382918e+02
1.300000e-06	-2.416879e-06	-2.050691e-09	-1.716244e+01	-1.378388e+02
1.310000e-06	-2.376276e-06	-2.043895e-09	-1.687411e+01	-1.373780e+02
1.320000e-06	-2.335502e-06	-2.035926e-09	-1.658457e+01	-1.369094e+02
1.330000e-06	-2.294512e-06	-2.028158e-09	-1.629350e+01	-1.364327e+02
1.340000e-06	-2.253155e-06	-2.021764e-09	-1.599982e+01	-1.359479e+02
1.350000e-06	-2.211371e-06	-2.013714e-09	-1.570311e+01	-1.354546e+02
1.360000e-06	-2.169266e-06	-2.002811e-09	-1.540411e+01	-1.349527e+02
1.370000e-06	-2.126919e-06	-1.992410e-09	-1.510341e+01	-1.344418e+02
1.380000e-06	-2.084335e-06	-1.984060e-09	-1.480102e+01	-1.339218e+02
1.390000e-06	-2.041523e-06	-1.976939e-09	-1.449700e+01	-1.333923e+02
1.400000e-06	-1.998509e-06	-1.969948e-09	-1.419156e+01	-1.328531e+02
1.410000e-06	-1.955380e-06	-1.961575e-09	-1.388530e+01	-1.323038e+02
1.420000e-06	-1.912138e-06	-1.953879e-09	-1.357823e+01	-1.317441e+02
1.430000e-06	-1.868726e-06	-1.945345e-09	-1.326996e+01	-1.311737e+02
1.440000e-06	-1.825188e-06	-1.933569e-09	-1.296079e+01	-1.305922e+02
1.450000e-06	-1.781552e-06	-1.918821e-09	-1.265093e+01	-1.299993e+02
1.460000e-06	-1.737797e-06	-1.907595e-09	-1.234022e+01	-1.293948e+02
1.470000e-06	-1.693977e-06	-1.901680e-09	-1.202905e+01	-1.287781e+02
1.480000e-06	-1.650103e-06	-1.894450e-09	-1.171750e+01	-1.281491e+02
1.490000e-06	-1.606178e-06	-1.882461e-09	-1.140559e+01	-1.275073e+02
1.500000e-06	-1.562202e-06	-1.870031e-09	-1.109331e+01	-1.268524e+02
1.510000e-06	-1.518172e-06	-1.859562e-09	-1.078065e+01	-1.261840e+02
1.520000e-06	-1.474131e-06	-1.848249e-09	-1.046791e+01	-1.255019e+02
1.530000e-06	-1.429996e-06	-1.834034e-09	-1.015450e+01	-1.248055e+02
1.540000e-06	-1.385725e-06	-1.822063e-09	-9.840132e+00	-1.240945e+02
1.550000e-06	-1.341374e-06	-1.814096e-09	-9.525194e+00	-1.233684e+02
1.560000e-06	-1.296933e-06	-1.806827e-09	-9.209616e+00	-1.226269e+02
1.570000e-06	-1.252433e-06	-1.797342e-09	-8.893616e+00	-1.218695e+02
1.580000e-06	-1.207863e-06	-1.786216e-09	-8.577125e+00	-1.210955e+02
1.590000e-06	-1.163149e-06	-1.775092e-09	-8.259604e+00	-1.203046e+02
1.600000e-06	-1.118331e-06	-1.761861e-09	-7.941349e+00	-1.194960e+02
1.610000e-06	-1.073393e-06	-1.745093e-09	-7.622239e+00	-1.186692e+02
1.620000e-06	-1.028419e-06	-1.728213e-09	-7.302879e+00	-1.178234e+02
1.630000e-06	-9.834173e-07	-1.716182e-09	-6.983318e+00	-1.169579e+02
1.640000e-06	-9.382262e-07	-1.705635e-09	-6.662413e+00	-1.160719e+02
1.650000e-06	-8.929230e-07	-1.692941e-09	-6.340712e+00	-1.151646e+02
1.660000e-06	-8.475688e-07	-1.679695e-09	-6.018648e+00	-1.142350e+02
1.670000e-06	-8.021952e-07	-1.666266e-09	-5.696447e+00	-1.132821e+02
1.680000e-06	-7.567918e-07	-1.651740e-09	-5.374034e+00	-1.123051e+02
1.690000e-06	-7.112697e-07	-1.633581e-09	-5.050778e+00	-1.113028e+02
1.700000e-06	-6.656904e-07	-1.610975e-09	-4.727116e+00	-1.102741e+02
1.710000e-06	-6.201231e-07	-1.589422e-09	-4.403539e+00	-1.092179e+02
1.720000e-06	-5.745827e-07	-1.572681e-09	-4.080154e+00	-1.081330e+02
1.730000e-06	-5.290331e-07	-1.557550e-09	-3.756703e+00	-1.070182e+02
1.740000e-06	-4.834136e-07	-1.540242e-09	-3.432755e+00	-1.058723e+02
1.750000e-06	-4.377246e-07	-1.523710e-09	-3.108314e+00	-1.046941e+02
1.760000e-06	-3.919762e-07	-1.511054e-09	-2.783452e+00	-1.034822e+02
1.770000e-06	-3.461552e-07	-1.497132e-09	-2.458073e+00	-1.022354e+02
1.780000e-06	-3.003050e-07	-1.475029e-09	-2.132488e+00	-1.009525e+02
1.790000e-06	-2.544731e-07	-1.448324e-09	-1.807032e+00	-9.963227e+01
1.800000e-06	-2.086641e-07	-1.424353e-09	-1.481739e+00	-9.827336e+01
1.810000e-06	-1.628829e-07	-1.403782e-09	-1.156643e+00	-9.687459e+01
1.820000e-06	-1.171219e-07	-1.382905e-09	-8.316911e-01	-9.543475e+01
1.830000e-06	-7.136564e-08	-1.360704e-09	-5.067726e-01	-9.395263e+01
1.840000e-06	-2.550459e-08	-1.340196e-09	-1.811099e-01	-9.242707e+01
1.850000e-06	2.045477e-08	-1.321781e-09	1.452508e-01	-9.085692e+01
1.860000e-06	6.634322e-08	-1.299886e-09	4.711080e-01	-8.924103e+01
1.870000e-06	1.121650e-07	-1.270277e-09	7.964917e-01	-8.757832e+01
1.880000e-06	1.579698e-07	-1.239686e-09	1.121755e+00	-8.586768e+01
1.890000e-06	2.037286e-07	-1.213155e-09	1.446692e+00	-8.410807e+01
1.900000e-06	2.494703e-07	-1.187109e-09	1.771507e+00	-8.229843e+01
1.910000e-06	2.952598e-07	-1.157491e-09	2.096662e+00	-8.043774e+01
1.920000e-06	3.410345e-07	-1.127940e-09	2.421711e+00	-7.852499e+01
1.930000e-06	3.867755e-07	-1.103085e-09	2.746521e+00	-7.655921e+01
1.940000e-06	4.325135e-07	-1.079074e-09	3.071310e+00	-7.453942e+01
1.950000e-06	4.781787e-07	-1.049372e-09	3.395582e+00	-7.246468e+01
1.960000e-06	5.238149e-07	-1.015107e-09	3.719648e+00	-7.033409e+01
1.970000e-06	5.693807e-07	-9.833813e-10	4.043214e+00	-6.814675e+01
1.980000e-06	6.148617e-07	-9.537419e-10	4.366178e+00	-6.590181e+01
1.990000e-06	6.603546e-07	-9.220630e-10	4.689226e+00	-6.359847e+01
2.000000e-06	7.058479e-07	-8.837697e-10	5.012277e+00	-6.123599e+01
2.010000e-06	7.512851e-07	-8.400536e-10	5.334930e+00	-5.881368e+01
2.020000e-06	7.966723e-07	-8.005048e-10	5.657228e+00	-5.633095e+01
2.030000e-06	8.419738e-07	-7.669309e-10	5.978917e+00	-5.378727e+01
2.040000e-06	8.871988e-07	-7.331093e-10	6.300063e+00	-5.118226e+01
2.050000e-06	9.324387e-07	-6.977850e-10	6.621315e+00	-4.851566e+01
2.060000e-06	9.776112e-07	-6.611826e-10	6.942088e+00	-4.578733e+01
2.070000e-06	1.022665e-06	-6.203872e-10	7.262018e+00	-4.299734e+01
2.080000e-06	1.067596e-06	-5.745644e-10	7.581080e+00	-4.014592e+01
2.090000e-06	1.112445e-06	-5.269249e-10	7.899557e+00	-3.723353e+01
2.100000e-06	1.157178e-06	-4.821086e-10	8.217208e+00	-3.426083e+01
2.110000e-06	1.201811e-06	-4.405774e-10	8.534150e+00	-3.122876e+01
2.120000e-06	1.246407e-06	-3.990163e-10	8.850829e+00	-2.813852e+01
2.130000e-06	1.290875e-06	-3.570666e-10	9.166598e+00	-2.499157e+01
2.140000e-06	1.335198e-06	-3.127336e-10	9.481340e+00	-2.178971e+01
2.150000e-06	1.379466e-06	-2.633079e-10	9.795686e+00	-1.853501e+01
2.160000e-06	1.423651e-06	-2.078443e-10	1.010945e+01	-1.522989e+01
2.170000e-06	1.467706e-06	-1.516888e-10	1.042229e+01	-1.187708e+01
2.180000e-06	1.511736e-06	-1.010864e-10	1.073494e+01	-8.479633e+00
2.190000e-06	1.555752e-06	-5.539361e-11	1.104751e+01	-5.040932e+00
2.200000e-06	1.599686e-06	-9.610112e-12	1.135949e+01	-1.564677e+00
2.210000e-06	1.643552e-06	4.066467e-11	1.167098e+01	1.945125e+00
2.220000e-06	1.687374e-06	9.479108e-11	1.198217e+01	5.484178e+00
2.230000e-06	1.731139e-06	1.514667e-10	1.229295e+01	9.047915e+00
2.240000e-06	1.774872e-06	2.089729e-10	1.260350e+01	1.263152e+01
2.250000e-06	1.818575e-06	2.635554e-10	1.291383e+01	1.622996e+01
2.260000e-06	1.862176e-06	3.155300e-10	1.322345e+01	1.983801e+01
2.270000e-06	1.905692e-06	3.662547e-10	1.353246e+01	2.345031e+01
2.280000e-06	1.949165e-06	4.160447e-10	1.384116e+01	2.706136e+01
2.290000e-06	1.992494e-06	4.685097e-10	1.414885e+01	3.066562e+01
2.300000e-06	2.035577e-06	5.238520e-10	1.445478e+01	3.425750e+01
2.310000e-06	2.078426e-06	5.828341e-10	1.475906e+01	3.783142e+01
2.320000e-06	2.121027e-06	6.399018e-10	1.506157e+01	4.138188e+01
2.330000e-06	2.163329e-06	6.928738e-10	1.536196e+01	4.490348e+01
2.340000e-06	2.205294e-06	7.405432e-10	1.565995e+01	4.839096e+01
2.350000e-06	2.246889e-06	7.860587e-10	1.595532e+01	5.183925e+01
2.360000e-06	2.288188e-06	8.332347e-10	1.624859e+01	5.524354e+01
2.370000e-06	2.329238e-06	8.829088e-10	1.654009e+01	5.859926e+01
2.380000e-06	2.370027e-06	9.353175e-10	1.682974e+01	6.190216e+01
2.390000e-06	2.410658e-06	9.894984e-10	1.711826e+01	6.514830e+01
2.400000e-06	2.451153e-06	1.042550e-09	1.740581e+01	6.833415e+01
2.410000e-06	2.491420e-06	1.089708e-09	1.769175e+01	7.145651e+01
2.420000e-06	2.531468e-06	1.129763e-09	1.797614e+01	7.451260e+01
2.430000e-06	2.571368e-06	1.165521e-09	1.825948e+01	7.750006e+01
2.440000e-06	2.611188e-06	1.199635e-09	1.854223e+01	8.041692e+01
2.450000e-06	2.650960e-06	1.233938e-09	1.882466e+01	8.326163e+01
2.460000e-06	2.690695e-06	1.272432e-09	1.910682e+01	8.603305e+01
2.470000e-06	2.730357e-06	1.316486e-09	1.938846e+01	8.873044e+01
2.480000e-06	2.769864e-06	1.362240e-09	1.966901e+01	9.135343e+01
2.490000e-06	2.809188e-06	1.403356e-09	1.994825e+01	9.390201e+01
2.500000e-06	2.848211e-06	1.439817e-09	2.022536e+01	9.637650e+01
2.510000e-06	2.886963e-06	1.472385e-09	2.050053e+01	9.877754e+01
2.520000e-06	2.925536e-06	1.503217e-09	2.077444e+01	1.011060e+02
2.530000e-06	2.963865e-06	1.532290e-09	2.104662e+01	1.033631e+02
2.540000e-06	3.002002e-06	1.561216e-09	2.131744e+01	1.055501e+02
2.550000e-06	3.039996e-06	1.592105e-09	2.158724e+01	1.076686e+02
2.560000e-06	3.077864e-06	1.627262e-09	2.185614e+01	1.097202e+02
2.570000e-06	3.115517e-06	1.659837e-09	2.212351e+01	1.117067e+02
2.580000e-06	3.152904e-06	1.687311e-09	2.238900e+01	1.136298e+02
2.590000e-06	3.190069e-06	1.712786e-09	2.265291e+01	1.154915e+02
2.600000e-06	3.226901e-06	1.736243e-09	2.291446e+01	1.172935e+02
2.610000e-06	3.263383e-06	1.757338e-09	2.317352e+01	1.190378e+02
2.620000e-06	3.299670e-06	1.778357e-09	2.343120e+01	1.207260e+02
2.630000e-06	3.335809e-06	1.800938e-09	2.368782e+01	1.223598e+02
2.640000e-06	3.371790e-06	1.825076e-09	2.394333e+01	1.239409e+02
2.650000e-06	3.407622e-06	1.848288e-09	2.419777e+01	1.254708e+02
2.660000e-06	3.443321e-06	1.867693e-09	2.445128e+01	1.269509e+02
2.670000e-06	3.478946e-06	1.886380e-09	2.470425e+01	1.283825e+02
2.680000e-06	3.514451e-06	1.907851e-09	2.495637e+01	1.297666e+02
2.690000e-06	3.549654e-06	1.927235e-09	2.520635e+01	1.311046e+02
2.700000e-06	3.584465e-06	1.941440e-09	2.545355e+01	1.323972e+02
2.710000e-06	3.618922e-06	1.959182e-09	2.569823e+01	1.336453e+02
2.720000e-06	3.652957e-06	1.981262e-09	2.593991e+01	1.348499e+02
2.730000e-06	3.686463e-06	2.002561e-09	2.617785e+01	1.360116e+02
2.740000e-06	3.719534e-06	2.015550e-09	2.641268e+01	1.371310e+02
2.750000e-06	3.752253e-06	2.024024e-09	2.664502e+01	1.382090e+02
2.760000e-06	3.784620e-06	2.035891e-09	2.687487e+01	1.392461e+02
2.770000e-06	3.816737e-06	2.052681e-09	2.710293e+01	1.402430e+02
2.780000e-06	3.848674e-06	2.070424e-09	2.732972e+01	1.412004e+02
2.790000e-06	3.880476e-06	2.086955e-09	2.755554e+01	1.421190e+02
2.800000e-06	3.912129e-06	2.103443e-09	2.778032e+01	1.429996e+02
2.810000e-06	3.943608e-06	2.118980e-09	2.800385e+01	1.438430e+02
2.820000e-06	3.974904e-06	2.128813e-09	2.822609e+01	1.446502e+02
2.830000e-06	4.005855e-06	2.131131e-09	2.844587e+01	1.454222e+02
2.840000e-06	4.036444e-06	2.133648e-09	2.866308e+01	1.461600e+02
2.850000e-06	4.066730e-06	2.145244e-09	2.887814e+01	1.468648e+02
2.860000e-06	4.096740e-06	2.163558e-09	2.909125e+01	1.475380e+02
2.870000e-06	4.126566e-06	2.181250e-09	2.930305e+01	1.481807e+02
2.880000e-06	4.156159e-06	2.195559e-09	2.951319e+01	1.487945e+02
2.890000e-06	4.185428e-06	2.206054e-09	2.972103e+01	1.493807e+02
2.900000e-06	4.214372e-06	2.211686e-09	2.992656e+01	1.499410e+02
