# Temperatura_=_-1.2
# Concentracion g/m^3_=_4090.0
# C_Vs_to_Am_M_A/Vsm_=_65563218390.804596
# pendiente_HvsI_1/m_=_3716.3
# ordenada_HvsI_A/m_=_1297.0
# frecuencia_Hz_=_135060.91214164472

Tiempo_(s)	Campo_(V.s)	Magnetizacion_(V.s)	Campo_(kA/m)	Magnetizacion_(A/m)
0.000000e+00	-5.418341e-06	-2.491100e-09	-3.839950e+01	-1.622497e+02
1.000000e-08	-5.418440e-06	-2.492489e-09	-3.840020e+01	-1.621351e+02
2.000000e-08	-5.418296e-06	-2.492707e-09	-3.839918e+01	-1.620241e+02
3.000000e-08	-5.417790e-06	-2.490562e-09	-3.839560e+01	-1.619190e+02
4.000000e-08	-5.416737e-06	-2.489147e-09	-3.838813e+01	-1.618219e+02
5.000000e-08	-5.415120e-06	-2.491693e-09	-3.837667e+01	-1.617347e+02
6.000000e-08	-5.413017e-06	-2.506579e-09	-3.836177e+01	-1.616594e+02
7.000000e-08	-5.410273e-06	-2.491906e-09	-3.834232e+01	-1.615977e+02
8.000000e-08	-5.406827e-06	-2.418205e-09	-3.831790e+01	-1.615512e+02
9.000000e-08	-5.402930e-06	-2.413530e-09	-3.829028e+01	-1.615211e+02
1.000000e-07	-5.398784e-06	-2.584872e-09	-3.826090e+01	-1.615084e+02
1.100000e-07	-5.394461e-06	-2.588288e-09	-3.823026e+01	-1.615139e+02
1.200000e-07	-5.389906e-06	-2.429816e-09	-3.819798e+01	-1.615380e+02
1.300000e-07	-5.385030e-06	-2.361060e-09	-3.816342e+01	-1.615809e+02
1.400000e-07	-5.379768e-06	-2.567270e-09	-3.812614e+01	-1.616421e+02
1.500000e-07	-5.374062e-06	-2.611986e-09	-3.808570e+01	-1.617214e+02
1.600000e-07	-5.367904e-06	-2.373694e-09	-3.804205e+01	-1.618176e+02
1.700000e-07	-5.361398e-06	-2.332983e-09	-3.799594e+01	-1.619297e+02
1.800000e-07	-5.354594e-06	-2.571667e-09	-3.794772e+01	-1.620561e+02
1.900000e-07	-5.347463e-06	-2.642751e-09	-3.789719e+01	-1.621952e+02
2.000000e-07	-5.340067e-06	-2.447531e-09	-3.784477e+01	-1.623448e+02
2.100000e-07	-5.332379e-06	-2.467153e-09	-3.779029e+01	-1.625029e+02
2.200000e-07	-5.324370e-06	-2.626561e-09	-3.773353e+01	-1.626669e+02
2.300000e-07	-5.316035e-06	-2.592126e-09	-3.767446e+01	-1.628345e+02
2.400000e-07	-5.307233e-06	-2.456394e-09	-3.761208e+01	-1.630030e+02
2.500000e-07	-5.297870e-06	-2.579811e-09	-3.754573e+01	-1.631698e+02
2.600000e-07	-5.287944e-06	-2.668259e-09	-3.747538e+01	-1.633323e+02
2.700000e-07	-5.277435e-06	-2.546034e-09	-3.740090e+01	-1.634878e+02
2.800000e-07	-5.266364e-06	-2.512318e-09	-3.732244e+01	-1.636339e+02
2.900000e-07	-5.254808e-06	-2.674072e-09	-3.724055e+01	-1.637682e+02
3.000000e-07	-5.242833e-06	-2.624142e-09	-3.715568e+01	-1.638885e+02
3.100000e-07	-5.230548e-06	-2.473997e-09	-3.706862e+01	-1.639928e+02
3.200000e-07	-5.217880e-06	-2.551770e-09	-3.697884e+01	-1.640794e+02
3.300000e-07	-5.204773e-06	-2.672623e-09	-3.688595e+01	-1.641467e+02
3.400000e-07	-5.191336e-06	-2.564973e-09	-3.679072e+01	-1.641936e+02
3.500000e-07	-5.177614e-06	-2.527760e-09	-3.669348e+01	-1.642191e+02
3.600000e-07	-5.163506e-06	-2.609214e-09	-3.659349e+01	-1.642227e+02
3.700000e-07	-5.148862e-06	-2.581587e-09	-3.648972e+01	-1.642040e+02
3.800000e-07	-5.133643e-06	-2.510466e-09	-3.638186e+01	-1.641632e+02
3.900000e-07	-5.117911e-06	-2.568758e-09	-3.627037e+01	-1.641004e+02
4.000000e-07	-5.101714e-06	-2.569787e-09	-3.615558e+01	-1.640163e+02
4.100000e-07	-5.085143e-06	-2.501603e-09	-3.603814e+01	-1.639118e+02
4.200000e-07	-5.068248e-06	-2.560748e-09	-3.591841e+01	-1.637880e+02
4.300000e-07	-5.051063e-06	-2.610597e-09	-3.579662e+01	-1.636462e+02
4.400000e-07	-5.033591e-06	-2.535734e-09	-3.567280e+01	-1.634880e+02
4.500000e-07	-5.015747e-06	-2.500346e-09	-3.554634e+01	-1.633151e+02
4.600000e-07	-4.997514e-06	-2.562798e-09	-3.541712e+01	-1.631291e+02
4.700000e-07	-4.978918e-06	-2.547978e-09	-3.528533e+01	-1.629321e+02
4.800000e-07	-4.959934e-06	-2.517054e-09	-3.515080e+01	-1.627258e+02
4.900000e-07	-4.940573e-06	-2.519863e-09	-3.501358e+01	-1.625121e+02
5.000000e-07	-4.920945e-06	-2.532125e-09	-3.487448e+01	-1.622930e+02
5.100000e-07	-4.901112e-06	-2.529588e-09	-3.473392e+01	-1.620703e+02
5.200000e-07	-4.881082e-06	-2.539271e-09	-3.459197e+01	-1.618455e+02
5.300000e-07	-4.860729e-06	-2.496460e-09	-3.444773e+01	-1.616203e+02
5.400000e-07	-4.840087e-06	-2.482854e-09	-3.430144e+01	-1.613961e+02
5.500000e-07	-4.819164e-06	-2.511735e-09	-3.415316e+01	-1.611741e+02
5.600000e-07	-4.797796e-06	-2.518396e-09	-3.400173e+01	-1.609553e+02
5.700000e-07	-4.776049e-06	-2.480615e-09	-3.384761e+01	-1.607404e+02
5.800000e-07	-4.754032e-06	-2.484248e-09	-3.369158e+01	-1.605302e+02
5.900000e-07	-4.731705e-06	-2.491819e-09	-3.353335e+01	-1.603250e+02
6.000000e-07	-4.709052e-06	-2.489677e-09	-3.337281e+01	-1.601248e+02
6.100000e-07	-4.686067e-06	-2.475133e-09	-3.320991e+01	-1.599298e+02
6.200000e-07	-4.662699e-06	-2.454677e-09	-3.304430e+01	-1.597396e+02
6.300000e-07	-4.639067e-06	-2.446833e-09	-3.287682e+01	-1.595537e+02
6.400000e-07	-4.615277e-06	-2.473413e-09	-3.270822e+01	-1.593717e+02
6.500000e-07	-4.591256e-06	-2.472695e-09	-3.253799e+01	-1.591927e+02
6.600000e-07	-4.566933e-06	-2.441275e-09	-3.236562e+01	-1.590158e+02
6.700000e-07	-4.542185e-06	-2.436463e-09	-3.219023e+01	-1.588401e+02
6.800000e-07	-4.517036e-06	-2.452679e-09	-3.201199e+01	-1.586646e+02
6.900000e-07	-4.491454e-06	-2.447759e-09	-3.183070e+01	-1.584881e+02
7.000000e-07	-4.465283e-06	-2.427349e-09	-3.164523e+01	-1.583097e+02
7.100000e-07	-4.438540e-06	-2.418963e-09	-3.145570e+01	-1.581281e+02
7.200000e-07	-4.411427e-06	-2.423593e-09	-3.126355e+01	-1.579425e+02
7.300000e-07	-4.384008e-06	-2.432278e-09	-3.106923e+01	-1.577517e+02
7.400000e-07	-4.356282e-06	-2.416239e-09	-3.087274e+01	-1.575550e+02
7.500000e-07	-4.328386e-06	-2.398365e-09	-3.067504e+01	-1.573514e+02
7.600000e-07	-4.300328e-06	-2.398934e-09	-3.047620e+01	-1.571405e+02
7.700000e-07	-4.272016e-06	-2.410191e-09	-3.027555e+01	-1.569215e+02
7.800000e-07	-4.243395e-06	-2.397415e-09	-3.007272e+01	-1.566941e+02
7.900000e-07	-4.214431e-06	-2.382406e-09	-2.986745e+01	-1.564581e+02
8.000000e-07	-4.185101e-06	-2.378563e-09	-2.965959e+01	-1.562134e+02
8.100000e-07	-4.155559e-06	-2.391218e-09	-2.945023e+01	-1.559599e+02
8.200000e-07	-4.125878e-06	-2.390787e-09	-2.923988e+01	-1.556979e+02
8.300000e-07	-4.095892e-06	-2.379260e-09	-2.902737e+01	-1.554276e+02
8.400000e-07	-4.065522e-06	-2.365277e-09	-2.881214e+01	-1.551496e+02
8.500000e-07	-4.034873e-06	-2.367344e-09	-2.859493e+01	-1.548643e+02
8.600000e-07	-4.003969e-06	-2.362785e-09	-2.837592e+01	-1.545723e+02
8.700000e-07	-3.972774e-06	-2.348680e-09	-2.815484e+01	-1.542744e+02
8.800000e-07	-3.941391e-06	-2.333436e-09	-2.793243e+01	-1.539714e+02
8.900000e-07	-3.909855e-06	-2.341930e-09	-2.770894e+01	-1.536639e+02
9.000000e-07	-3.878112e-06	-2.351841e-09	-2.748397e+01	-1.533529e+02
9.100000e-07	-3.846180e-06	-2.345510e-09	-2.725768e+01	-1.530392e+02
9.200000e-07	-3.814075e-06	-2.325761e-09	-2.703015e+01	-1.527235e+02
9.300000e-07	-3.781735e-06	-2.314995e-09	-2.680096e+01	-1.524066e+02
9.400000e-07	-3.749001e-06	-2.312537e-09	-2.656898e+01	-1.520891e+02
9.500000e-07	-3.715904e-06	-2.308001e-09	-2.633441e+01	-1.517718e+02
9.600000e-07	-3.682479e-06	-2.300476e-09	-2.609753e+01	-1.514552e+02
9.700000e-07	-3.648582e-06	-2.300380e-09	-2.585731e+01	-1.511397e+02
9.800000e-07	-3.614191e-06	-2.304516e-09	-2.561358e+01	-1.508256e+02
9.900000e-07	-3.579320e-06	-2.297137e-09	-2.536645e+01	-1.505133e+02
1.000000e-06	-3.544114e-06	-2.282492e-09	-2.511695e+01	-1.502028e+02
1.010000e-06	-3.508774e-06	-2.268589e-09	-2.486650e+01	-1.498941e+02
1.020000e-06	-3.473296e-06	-2.262355e-09	-2.461507e+01	-1.495872e+02
1.030000e-06	-3.437590e-06	-2.259367e-09	-2.436202e+01	-1.492818e+02
1.040000e-06	-3.401729e-06	-2.259028e-09	-2.410787e+01	-1.489777e+02
1.050000e-06	-3.365754e-06	-2.255738e-09	-2.385292e+01	-1.486743e+02
1.060000e-06	-3.329552e-06	-2.252942e-09	-2.359636e+01	-1.483714e+02
1.070000e-06	-3.293075e-06	-2.243621e-09	-2.333785e+01	-1.480682e+02
1.080000e-06	-3.256338e-06	-2.229025e-09	-2.307750e+01	-1.477641e+02
1.090000e-06	-3.219439e-06	-2.212925e-09	-2.281599e+01	-1.474585e+02
1.100000e-06	-3.182360e-06	-2.207797e-09	-2.255322e+01	-1.471507e+02
1.110000e-06	-3.145037e-06	-2.207769e-09	-2.228871e+01	-1.468398e+02
1.120000e-06	-3.107476e-06	-2.208745e-09	-2.202252e+01	-1.465252e+02
1.130000e-06	-3.069726e-06	-2.202805e-09	-2.175499e+01	-1.462060e+02
1.140000e-06	-3.031813e-06	-2.197239e-09	-2.148630e+01	-1.458816e+02
1.150000e-06	-2.993721e-06	-2.185821e-09	-2.121635e+01	-1.455511e+02
1.160000e-06	-2.955435e-06	-2.170120e-09	-2.094501e+01	-1.452138e+02
1.170000e-06	-2.916960e-06	-2.153122e-09	-2.067234e+01	-1.448692e+02
1.180000e-06	-2.878212e-06	-2.143723e-09	-2.039774e+01	-1.445165e+02
1.190000e-06	-2.839189e-06	-2.142015e-09	-2.012118e+01	-1.441552e+02
1.200000e-06	-2.799966e-06	-2.141335e-09	-1.984321e+01	-1.437847e+02
1.210000e-06	-2.760565e-06	-2.137446e-09	-1.956398e+01	-1.434046e+02
1.220000e-06	-2.721027e-06	-2.133897e-09	-1.928377e+01	-1.430145e+02
1.230000e-06	-2.681361e-06	-2.128298e-09	-1.900267e+01	-1.426140e+02
1.240000e-06	-2.641627e-06	-2.115689e-09	-1.872107e+01	-1.422028e+02
1.250000e-06	-2.601800e-06	-2.099379e-09	-1.843882e+01	-1.417807e+02
1.260000e-06	-2.561819e-06	-2.086298e-09	-1.815548e+01	-1.413475e+02
1.270000e-06	-2.521730e-06	-2.077859e-09	-1.787137e+01	-1.409031e+02
1.280000e-06	-2.481544e-06	-2.071958e-09	-1.758657e+01	-1.404473e+02
1.290000e-06	-2.441184e-06	-2.067081e-09	-1.730054e+01	-1.399801e+02
1.300000e-06	-2.400715e-06	-2.059176e-09	-1.701374e+01	-1.395015e+02
1.310000e-06	-2.360058e-06	-2.051409e-09	-1.672560e+01	-1.390114e+02
1.320000e-06	-2.318997e-06	-2.041902e-09	-1.643461e+01	-1.385099e+02
1.330000e-06	-2.277583e-06	-2.029027e-09	-1.614111e+01	-1.379971e+02
1.340000e-06	-2.235797e-06	-2.014872e-09	-1.584498e+01	-1.374729e+02
1.350000e-06	-2.193629e-06	-2.004082e-09	-1.554613e+01	-1.369374e+02
1.360000e-06	-2.151181e-06	-1.995595e-09	-1.524531e+01	-1.363907e+02
1.370000e-06	-2.108471e-06	-1.988247e-09	-1.494262e+01	-1.358329e+02
1.380000e-06	-2.065581e-06	-1.978984e-09	-1.463867e+01	-1.352640e+02
1.390000e-06	-2.022531e-06	-1.971161e-09	-1.433357e+01	-1.346840e+02
1.400000e-06	-1.979280e-06	-1.961691e-09	-1.402705e+01	-1.340929e+02
1.410000e-06	-1.935906e-06	-1.949296e-09	-1.371966e+01	-1.334909e+02
1.420000e-06	-1.892442e-06	-1.934796e-09	-1.341164e+01	-1.328778e+02
1.430000e-06	-1.848889e-06	-1.921918e-09	-1.310298e+01	-1.322536e+02
1.440000e-06	-1.805247e-06	-1.910164e-09	-1.279369e+01	-1.316184e+02
1.450000e-06	-1.761496e-06	-1.901936e-09	-1.248363e+01	-1.309719e+02
1.460000e-06	-1.717669e-06	-1.896048e-09	-1.217303e+01	-1.303142e+02
1.470000e-06	-1.673711e-06	-1.888798e-09	-1.186150e+01	-1.296452e+02
1.480000e-06	-1.629623e-06	-1.878436e-09	-1.154905e+01	-1.289645e+02
1.490000e-06	-1.585485e-06	-1.866360e-09	-1.123625e+01	-1.282722e+02
1.500000e-06	-1.541332e-06	-1.853736e-09	-1.092334e+01	-1.275679e+02
1.510000e-06	-1.497161e-06	-1.842297e-09	-1.061030e+01	-1.268514e+02
1.520000e-06	-1.452847e-06	-1.830319e-09	-1.029625e+01	-1.261224e+02
1.530000e-06	-1.408407e-06	-1.819156e-09	-9.981306e+00	-1.253805e+02
1.540000e-06	-1.363952e-06	-1.811048e-09	-9.666254e+00	-1.246255e+02
1.550000e-06	-1.319460e-06	-1.804390e-09	-9.350942e+00	-1.238568e+02
1.560000e-06	-1.274928e-06	-1.795850e-09	-9.035350e+00	-1.230740e+02
1.570000e-06	-1.230303e-06	-1.782506e-09	-8.719090e+00	-1.222765e+02
1.580000e-06	-1.185494e-06	-1.766939e-09	-8.401531e+00	-1.214638e+02
1.590000e-06	-1.140550e-06	-1.753369e-09	-8.083022e+00	-1.206353e+02
1.600000e-06	-1.095570e-06	-1.740865e-09	-7.764247e+00	-1.197901e+02
1.610000e-06	-1.050544e-06	-1.728792e-09	-7.445148e+00	-1.189275e+02
1.620000e-06	-1.005365e-06	-1.715891e-09	-7.124970e+00	-1.180467e+02
1.630000e-06	-9.600495e-07	-1.702338e-09	-6.803820e+00	-1.171468e+02
1.640000e-06	-9.146633e-07	-1.690582e-09	-6.482171e+00	-1.162268e+02
1.650000e-06	-8.692733e-07	-1.679031e-09	-6.160495e+00	-1.152857e+02
1.660000e-06	-8.238802e-07	-1.668064e-09	-5.838795e+00	-1.143224e+02
1.670000e-06	-7.784023e-07	-1.656968e-09	-5.516496e+00	-1.133358e+02
1.680000e-06	-7.328122e-07	-1.643944e-09	-5.193402e+00	-1.123245e+02
1.690000e-06	-6.871855e-07	-1.627377e-09	-4.870048e+00	-1.112874e+02
1.700000e-06	-6.415556e-07	-1.608583e-09	-4.546671e+00	-1.102232e+02
1.710000e-06	-5.958566e-07	-1.588281e-09	-4.222805e+00	-1.091305e+02
1.720000e-06	-5.500899e-07	-1.569969e-09	-3.898458e+00	-1.080078e+02
1.730000e-06	-5.042826e-07	-1.550424e-09	-3.573824e+00	-1.068539e+02
1.740000e-06	-4.584983e-07	-1.531644e-09	-3.249353e+00	-1.056672e+02
1.750000e-06	-4.127037e-07	-1.518736e-09	-2.924809e+00	-1.044464e+02
1.760000e-06	-3.668450e-07	-1.507988e-09	-2.599811e+00	-1.031898e+02
1.770000e-06	-3.209961e-07	-1.488114e-09	-2.274883e+00	-1.018962e+02
1.780000e-06	-2.751444e-07	-1.459774e-09	-1.949934e+00	-1.005641e+02
1.790000e-06	-2.292248e-07	-1.430607e-09	-1.624504e+00	-9.919201e+01
1.800000e-06	-1.832722e-07	-1.404617e-09	-1.298841e+00	-9.777859e+01
1.810000e-06	-1.373111e-07	-1.381236e-09	-9.731166e-01	-9.632247e+01
1.820000e-06	-9.131952e-08	-1.360563e-09	-6.471767e-01	-9.482235e+01
1.830000e-06	-4.536370e-08	-1.341967e-09	-3.214902e-01	-9.327696e+01
1.840000e-06	5.743256e-10	-1.324326e-09	4.070215e-03	-9.168509e+01
1.850000e-06	4.652724e-08	-1.303400e-09	3.297361e-01	-9.004558e+01
1.860000e-06	9.242979e-08	-1.275015e-09	6.550451e-01	-8.835733e+01
1.870000e-06	1.382873e-07	-1.241035e-09	9.800348e-01	-8.661931e+01
1.880000e-06	1.841714e-07	-1.208645e-09	1.305213e+00	-8.483057e+01
1.890000e-06	2.300830e-07	-1.178655e-09	1.630586e+00	-8.299019e+01
1.900000e-06	2.759930e-07	-1.147137e-09	1.955948e+00	-8.109736e+01
1.910000e-06	3.218506e-07	-1.117912e-09	2.280938e+00	-7.915131e+01
1.920000e-06	3.677059e-07	-1.094014e-09	2.605912e+00	-7.715135e+01
1.930000e-06	4.135911e-07	-1.071278e-09	2.931098e+00	-7.509686e+01
1.940000e-06	4.594175e-07	-1.042401e-09	3.255868e+00	-7.298729e+01
1.950000e-06	5.051817e-07	-1.006306e-09	3.580196e+00	-7.082215e+01
1.960000e-06	5.508959e-07	-9.687208e-10	3.904170e+00	-6.860105e+01
1.970000e-06	5.965440e-07	-9.346828e-10	4.227676e+00	-6.632363e+01
1.980000e-06	6.421507e-07	-8.995990e-10	4.550889e+00	-6.398965e+01
1.990000e-06	6.877746e-07	-8.628472e-10	4.874222e+00	-6.159890e+01
2.000000e-06	7.333364e-07	-8.283086e-10	5.197117e+00	-5.915130e+01
2.010000e-06	7.788153e-07	-7.960579e-10	5.519423e+00	-5.664681e+01
2.020000e-06	8.242020e-07	-7.619683e-10	5.841076e+00	-5.408551e+01
2.030000e-06	8.695084e-07	-7.232391e-10	6.162161e+00	-5.146757e+01
2.040000e-06	9.148445e-07	-6.813306e-10	6.483455e+00	-4.879327e+01
2.050000e-06	9.601913e-07	-6.411235e-10	6.804825e+00	-4.606301e+01
2.060000e-06	1.005431e-06	-6.028649e-10	7.125440e+00	-4.327730e+01
2.070000e-06	1.050525e-06	-5.627843e-10	7.445018e+00	-4.043681e+01
2.080000e-06	1.095544e-06	-5.199728e-10	7.764063e+00	-3.754234e+01
2.090000e-06	1.140529e-06	-4.784491e-10	8.082867e+00	-3.459487e+01
2.100000e-06	1.185406e-06	-4.384072e-10	8.400910e+00	-3.159553e+01
2.110000e-06	1.230068e-06	-3.961514e-10	8.717428e+00	-2.854566e+01
2.120000e-06	1.274607e-06	-3.514517e-10	9.033072e+00	-2.544677e+01
2.130000e-06	1.319112e-06	-3.073838e-10	9.348476e+00	-2.230060e+01
2.140000e-06	1.363515e-06	-2.629349e-10	9.663162e+00	-1.910910e+01
2.150000e-06	1.407847e-06	-2.161696e-10	9.977338e+00	-1.587444e+01
2.160000e-06	1.452117e-06	-1.654389e-10	1.029108e+01	-1.259903e+01
2.170000e-06	1.496323e-06	-1.127931e-10	1.060436e+01	-9.285487e+00
2.180000e-06	1.540474e-06	-6.399110e-11	1.091726e+01	-5.936701e+00
2.190000e-06	1.584518e-06	-1.700917e-11	1.122939e+01	-2.555775e+00
2.200000e-06	1.628464e-06	3.243047e-11	1.154084e+01	8.539517e-01
2.210000e-06	1.672356e-06	8.341822e-11	1.185190e+01	4.288919e+00
2.220000e-06	1.716185e-06	1.326204e-10	1.216252e+01	7.745351e+00
2.230000e-06	1.759966e-06	1.826077e-10	1.247279e+01	1.121928e+01
2.240000e-06	1.803719e-06	2.360827e-10	1.278286e+01	1.470654e+01
2.250000e-06	1.847401e-06	2.888113e-10	1.309243e+01	1.820282e+01
2.260000e-06	1.891005e-06	3.396151e-10	1.340145e+01	2.170366e+01
2.270000e-06	1.934555e-06	3.894811e-10	1.371009e+01	2.520449e+01
2.280000e-06	1.977962e-06	4.403541e-10	1.401771e+01	2.870066e+01
2.290000e-06	2.021125e-06	4.934059e-10	1.432361e+01	3.218746e+01
2.300000e-06	2.064094e-06	5.444803e-10	1.462812e+01	3.566015e+01
2.310000e-06	2.106910e-06	5.930458e-10	1.493156e+01	3.911403e+01
2.320000e-06	2.149468e-06	6.402265e-10	1.523317e+01	4.254441e+01
2.330000e-06	2.191703e-06	6.861607e-10	1.553249e+01	4.594670e+01
2.340000e-06	2.233633e-06	7.284803e-10	1.582964e+01	4.931644e+01
2.350000e-06	2.275250e-06	7.731549e-10	1.612457e+01	5.264929e+01
2.360000e-06	2.316547e-06	8.248368e-10	1.641724e+01	5.594111e+01
2.370000e-06	2.357500e-06	8.810958e-10	1.670748e+01	5.918797e+01
2.380000e-06	2.398157e-06	9.364460e-10	1.699561e+01	6.238619e+01
2.390000e-06	2.438655e-06	9.845002e-10	1.728262e+01	6.553234e+01
2.400000e-06	2.478990e-06	1.024657e-09	1.756847e+01	6.862329e+01
2.410000e-06	2.519157e-06	1.060280e-09	1.785313e+01	7.165622e+01
2.420000e-06	2.559199e-06	1.094488e-09	1.813691e+01	7.462863e+01
2.430000e-06	2.599158e-06	1.131497e-09	1.842010e+01	7.753835e+01
2.440000e-06	2.639015e-06	1.172994e-09	1.870256e+01	8.038356e+01
2.450000e-06	2.678782e-06	1.217963e-09	1.898439e+01	8.316276e+01
2.460000e-06	2.718443e-06	1.264042e-09	1.926546e+01	8.587482e+01
2.470000e-06	2.757983e-06	1.307777e-09	1.954568e+01	8.851892e+01
2.480000e-06	2.797423e-06	1.345045e-09	1.982519e+01	9.109457e+01
2.490000e-06	2.836633e-06	1.376775e-09	2.010307e+01	9.360158e+01
2.500000e-06	2.875684e-06	1.406732e-09	2.037982e+01	9.604006e+01
2.510000e-06	2.914569e-06	1.436813e-09	2.065540e+01	9.841038e+01
2.520000e-06	2.953170e-06	1.470064e-09	2.092896e+01	1.007132e+02
2.530000e-06	2.991447e-06	1.506614e-09	2.120023e+01	1.029492e+02
2.540000e-06	3.029485e-06	1.544273e-09	2.146980e+01	1.051195e+02
2.550000e-06	3.067348e-06	1.580196e-09	2.173813e+01	1.072254e+02
2.560000e-06	3.104996e-06	1.612395e-09	2.200495e+01	1.092680e+02
2.570000e-06	3.142441e-06	1.638643e-09	2.227032e+01	1.112487e+02
2.580000e-06	3.179716e-06	1.662555e-09	2.253448e+01	1.131692e+02
2.590000e-06	3.216821e-06	1.686454e-09	2.279745e+01	1.150308e+02
2.600000e-06	3.253625e-06	1.711707e-09	2.305827e+01	1.168351e+02
2.610000e-06	3.290119e-06	1.738541e-09	2.331690e+01	1.185837e+02
2.620000e-06	3.326351e-06	1.765386e-09	2.357367e+01	1.202781e+02
2.630000e-06	3.362441e-06	1.790737e-09	2.382945e+01	1.219196e+02
2.640000e-06	3.398501e-06	1.812790e-09	2.408500e+01	1.235098e+02
2.650000e-06	3.434442e-06	1.832421e-09	2.433971e+01	1.250499e+02
2.660000e-06	3.470162e-06	1.853233e-09	2.459285e+01	1.265412e+02
2.670000e-06	3.505706e-06	1.876179e-09	2.484475e+01	1.279848e+02
2.680000e-06	3.541058e-06	1.897959e-09	2.509529e+01	1.293818e+02
2.690000e-06	3.576212e-06	1.916301e-09	2.534443e+01	1.307333e+02
2.700000e-06	3.611087e-06	1.933832e-09	2.559158e+01	1.320400e+02
2.710000e-06	3.645518e-06	1.950452e-09	2.583560e+01	1.333029e+02
2.720000e-06	3.679391e-06	1.967177e-09	2.607565e+01	1.345228e+02
2.730000e-06	3.712697e-06	1.983358e-09	2.631169e+01	1.357002e+02
2.740000e-06	3.745639e-06	1.999967e-09	2.654515e+01	1.368360e+02
2.750000e-06	3.778230e-06	2.018568e-09	2.677612e+01	1.379308e+02
2.760000e-06	3.810527e-06	2.036703e-09	2.700500e+01	1.389852e+02
2.770000e-06	3.842641e-06	2.051614e-09	2.723260e+01	1.399999e+02
2.780000e-06	3.874550e-06	2.062686e-09	2.745873e+01	1.409756e+02
2.790000e-06	3.906282e-06	2.071961e-09	2.768362e+01	1.419130e+02
2.800000e-06	3.937886e-06	2.081182e-09	2.790759e+01	1.428129e+02
2.810000e-06	3.969326e-06	2.092038e-09	2.813040e+01	1.436760e+02
2.820000e-06	4.000470e-06	2.104089e-09	2.835112e+01	1.445034e+02
2.830000e-06	4.031225e-06	2.116356e-09	2.856908e+01	1.452959e+02
2.840000e-06	4.061687e-06	2.128194e-09	2.878496e+01	1.460546e+02
2.850000e-06	4.091975e-06	2.140107e-09	2.899962e+01	1.467806e+02
2.860000e-06	4.121978e-06	2.152168e-09	2.921224e+01	1.474751e+02
2.870000e-06	4.151721e-06	2.161298e-09	2.942303e+01	1.481393e+02
2.880000e-06	4.181216e-06	2.164483e-09	2.963206e+01	1.487746e+02
2.890000e-06	4.210394e-06	2.164979e-09	2.983884e+01	1.493824e+02
2.900000e-06	4.239246e-06	2.167845e-09	3.004332e+01	1.499641e+02
