# Temperatura_=_-2.7
# Concentracion g/m^3_=_4090.0
# C_Vs_to_Am_M_A/Vsm_=_65563218390.804596
# pendiente_HvsI_1/m_=_3716.3
# ordenada_HvsI_A/m_=_1297.0
# frecuencia_Hz_=_135069.8917843409

Tiempo_(s)	Campo_(V.s)	Magnetizacion_(V.s)	Campo_(kA/m)	Magnetizacion_(A/m)
0.000000e+00	-5.429048e-06	-2.175162e-09	-3.838861e+01	-1.437212e+02
1.000000e-08	-5.429177e-06	-2.174881e-09	-3.838952e+01	-1.436191e+02
2.000000e-08	-5.429050e-06	-2.174589e-09	-3.838862e+01	-1.435197e+02
3.000000e-08	-5.428647e-06	-2.173608e-09	-3.838577e+01	-1.434247e+02
4.000000e-08	-5.427823e-06	-2.173281e-09	-3.837994e+01	-1.433359e+02
5.000000e-08	-5.426488e-06	-2.181075e-09	-3.837050e+01	-1.432547e+02
6.000000e-08	-5.424555e-06	-2.196224e-09	-3.835683e+01	-1.431825e+02
7.000000e-08	-5.422015e-06	-2.192943e-09	-3.833887e+01	-1.431209e+02
8.000000e-08	-5.418954e-06	-2.125881e-09	-3.831723e+01	-1.430709e+02
9.000000e-08	-5.415312e-06	-2.085074e-09	-3.829148e+01	-1.430335e+02
1.000000e-07	-5.411294e-06	-2.198911e-09	-3.826307e+01	-1.430096e+02
1.100000e-07	-5.407028e-06	-2.337525e-09	-3.823290e+01	-1.429996e+02
1.200000e-07	-5.402425e-06	-2.182059e-09	-3.820035e+01	-1.430041e+02
1.300000e-07	-5.397605e-06	-2.049350e-09	-3.816627e+01	-1.430230e+02
1.400000e-07	-5.392536e-06	-2.177543e-09	-3.813043e+01	-1.430564e+02
1.500000e-07	-5.386979e-06	-2.364463e-09	-3.809114e+01	-1.431037e+02
1.600000e-07	-5.380856e-06	-2.175218e-09	-3.804784e+01	-1.431644e+02
1.700000e-07	-5.374396e-06	-1.949554e-09	-3.800216e+01	-1.432377e+02
1.800000e-07	-5.367715e-06	-2.145153e-09	-3.795492e+01	-1.433226e+02
1.900000e-07	-5.360702e-06	-2.349649e-09	-3.790533e+01	-1.434177e+02
2.000000e-07	-5.353342e-06	-2.228698e-09	-3.785329e+01	-1.435217e+02
2.100000e-07	-5.345708e-06	-2.079717e-09	-3.779931e+01	-1.436331e+02
2.200000e-07	-5.337807e-06	-2.264288e-09	-3.774344e+01	-1.437501e+02
2.300000e-07	-5.329615e-06	-2.327826e-09	-3.768552e+01	-1.438710e+02
2.400000e-07	-5.321124e-06	-2.178072e-09	-3.762548e+01	-1.439938e+02
2.500000e-07	-5.312118e-06	-2.153816e-09	-3.756179e+01	-1.441168e+02
2.600000e-07	-5.302423e-06	-2.330898e-09	-3.749324e+01	-1.442380e+02
2.700000e-07	-5.292000e-06	-2.286142e-09	-3.741954e+01	-1.443555e+02
2.800000e-07	-5.281009e-06	-2.175164e-09	-3.734183e+01	-1.444675e+02
2.900000e-07	-5.269659e-06	-2.295381e-09	-3.726157e+01	-1.445723e+02
3.000000e-07	-5.257912e-06	-2.393495e-09	-3.717851e+01	-1.446683e+02
3.100000e-07	-5.245693e-06	-2.210189e-09	-3.709211e+01	-1.447539e+02
3.200000e-07	-5.233125e-06	-2.166008e-09	-3.700324e+01	-1.448277e+02
3.300000e-07	-5.220223e-06	-2.345886e-09	-3.691201e+01	-1.448887e+02
3.400000e-07	-5.206904e-06	-2.342759e-09	-3.681783e+01	-1.449358e+02
3.500000e-07	-5.193231e-06	-2.196637e-09	-3.672115e+01	-1.449682e+02
3.600000e-07	-5.179206e-06	-2.255952e-09	-3.662198e+01	-1.449854e+02
3.700000e-07	-5.164687e-06	-2.327163e-09	-3.651932e+01	-1.449869e+02
3.800000e-07	-5.149663e-06	-2.239537e-09	-3.641308e+01	-1.449726e+02
3.900000e-07	-5.134139e-06	-2.227745e-09	-3.630331e+01	-1.449425e+02
4.000000e-07	-5.117992e-06	-2.281577e-09	-3.618914e+01	-1.448968e+02
4.100000e-07	-5.101359e-06	-2.223654e-09	-3.607153e+01	-1.448359e+02
4.200000e-07	-5.084434e-06	-2.200838e-09	-3.595185e+01	-1.447605e+02
4.300000e-07	-5.067193e-06	-2.301144e-09	-3.582994e+01	-1.446711e+02
4.400000e-07	-5.049653e-06	-2.267196e-09	-3.570592e+01	-1.445688e+02
4.500000e-07	-5.031803e-06	-2.185238e-09	-3.557970e+01	-1.444545e+02
4.600000e-07	-5.013620e-06	-2.230092e-09	-3.545113e+01	-1.443293e+02
4.700000e-07	-4.995093e-06	-2.284843e-09	-3.532013e+01	-1.441943e+02
4.800000e-07	-4.976165e-06	-2.209995e-09	-3.518629e+01	-1.440508e+02
4.900000e-07	-4.956878e-06	-2.193527e-09	-3.504991e+01	-1.438999e+02
5.000000e-07	-4.937233e-06	-2.221673e-09	-3.491100e+01	-1.437430e+02
5.100000e-07	-4.917312e-06	-2.229225e-09	-3.477014e+01	-1.435812e+02
5.200000e-07	-4.897253e-06	-2.219546e-09	-3.462830e+01	-1.434158e+02
5.300000e-07	-4.877035e-06	-2.219690e-09	-3.448534e+01	-1.432478e+02
5.400000e-07	-4.856507e-06	-2.185226e-09	-3.434018e+01	-1.430784e+02
5.500000e-07	-4.835596e-06	-2.206179e-09	-3.419232e+01	-1.429084e+02
5.600000e-07	-4.814336e-06	-2.233677e-09	-3.404200e+01	-1.427387e+02
5.700000e-07	-4.792762e-06	-2.203390e-09	-3.388945e+01	-1.425701e+02
5.800000e-07	-4.770862e-06	-2.168911e-09	-3.373459e+01	-1.424033e+02
5.900000e-07	-4.748629e-06	-2.201018e-09	-3.357739e+01	-1.422386e+02
6.000000e-07	-4.726030e-06	-2.214973e-09	-3.341759e+01	-1.420765e+02
6.100000e-07	-4.703048e-06	-2.197106e-09	-3.325508e+01	-1.419173e+02
6.200000e-07	-4.679695e-06	-2.176458e-09	-3.308996e+01	-1.417609e+02
6.300000e-07	-4.656068e-06	-2.173608e-09	-3.292289e+01	-1.416075e+02
6.400000e-07	-4.632244e-06	-2.188894e-09	-3.275443e+01	-1.414569e+02
6.500000e-07	-4.608217e-06	-2.198008e-09	-3.258454e+01	-1.413089e+02
6.600000e-07	-4.583977e-06	-2.171000e-09	-3.241314e+01	-1.411631e+02
6.700000e-07	-4.559400e-06	-2.152198e-09	-3.223935e+01	-1.410192e+02
6.800000e-07	-4.534362e-06	-2.175687e-09	-3.206231e+01	-1.408766e+02
6.900000e-07	-4.508803e-06	-2.185911e-09	-3.188159e+01	-1.407347e+02
7.000000e-07	-4.482698e-06	-2.164370e-09	-3.169699e+01	-1.405931e+02
7.100000e-07	-4.456140e-06	-2.141228e-09	-3.150920e+01	-1.404511e+02
7.200000e-07	-4.429242e-06	-2.147370e-09	-3.131901e+01	-1.403080e+02
7.300000e-07	-4.401950e-06	-2.156539e-09	-3.112603e+01	-1.401631e+02
7.400000e-07	-4.374308e-06	-2.154524e-09	-3.093057e+01	-1.400159e+02
7.500000e-07	-4.346432e-06	-2.134501e-09	-3.073347e+01	-1.398657e+02
7.600000e-07	-4.318375e-06	-2.137016e-09	-3.053507e+01	-1.397120e+02
7.700000e-07	-4.290097e-06	-2.146855e-09	-3.033512e+01	-1.395541e+02
7.800000e-07	-4.261547e-06	-2.142537e-09	-3.013325e+01	-1.393916e+02
7.900000e-07	-4.232728e-06	-2.116979e-09	-2.992947e+01	-1.392240e+02
8.000000e-07	-4.203668e-06	-2.112359e-09	-2.972398e+01	-1.390511e+02
8.100000e-07	-4.174388e-06	-2.121411e-09	-2.951695e+01	-1.388723e+02
8.200000e-07	-4.144785e-06	-2.132814e-09	-2.930762e+01	-1.386877e+02
8.300000e-07	-4.114811e-06	-2.126222e-09	-2.909568e+01	-1.384969e+02
8.400000e-07	-4.084476e-06	-2.121132e-09	-2.888119e+01	-1.383000e+02
8.500000e-07	-4.053848e-06	-2.121407e-09	-2.866461e+01	-1.380969e+02
8.600000e-07	-4.023001e-06	-2.125030e-09	-2.844649e+01	-1.378876e+02
8.700000e-07	-3.991910e-06	-2.109061e-09	-2.822665e+01	-1.376724e+02
8.800000e-07	-3.960551e-06	-2.089816e-09	-2.800492e+01	-1.374515e+02
8.900000e-07	-3.928982e-06	-2.087684e-09	-2.778169e+01	-1.372250e+02
9.000000e-07	-3.897272e-06	-2.104462e-09	-2.755747e+01	-1.369933e+02
9.100000e-07	-3.865392e-06	-2.107344e-09	-2.733205e+01	-1.367567e+02
9.200000e-07	-3.833318e-06	-2.094519e-09	-2.710525e+01	-1.365157e+02
9.300000e-07	-3.801006e-06	-2.084110e-09	-2.687678e+01	-1.362707e+02
9.400000e-07	-3.768359e-06	-2.082706e-09	-2.664593e+01	-1.360220e+02
9.500000e-07	-3.735308e-06	-2.075940e-09	-2.641223e+01	-1.357702e+02
9.600000e-07	-3.701880e-06	-2.060892e-09	-2.617586e+01	-1.355157e+02
9.700000e-07	-3.668059e-06	-2.055494e-09	-2.593671e+01	-1.352590e+02
9.800000e-07	-3.633817e-06	-2.061392e-09	-2.569459e+01	-1.350004e+02
9.900000e-07	-3.599135e-06	-2.064991e-09	-2.544936e+01	-1.347404e+02
1.000000e-06	-3.564101e-06	-2.054355e-09	-2.520163e+01	-1.344794e+02
1.010000e-06	-3.528734e-06	-2.041295e-09	-2.495155e+01	-1.342176e+02
1.020000e-06	-3.493111e-06	-2.033123e-09	-2.469966e+01	-1.339555e+02
1.030000e-06	-3.457400e-06	-2.030286e-09	-2.444715e+01	-1.336932e+02
1.040000e-06	-3.421565e-06	-2.024948e-09	-2.419377e+01	-1.334310e+02
1.050000e-06	-3.385552e-06	-2.023390e-09	-2.393912e+01	-1.331689e+02
1.060000e-06	-3.349306e-06	-2.022597e-09	-2.368282e+01	-1.329071e+02
1.070000e-06	-3.312884e-06	-2.025236e-09	-2.342529e+01	-1.326455e+02
1.080000e-06	-3.276256e-06	-2.018665e-09	-2.316629e+01	-1.323842e+02
1.090000e-06	-3.239355e-06	-2.006377e-09	-2.290536e+01	-1.321229e+02
1.100000e-06	-3.202181e-06	-1.994052e-09	-2.264251e+01	-1.318616e+02
1.110000e-06	-3.164768e-06	-1.991844e-09	-2.237796e+01	-1.316000e+02
1.120000e-06	-3.127198e-06	-1.988959e-09	-2.211231e+01	-1.313377e+02
1.130000e-06	-3.089426e-06	-1.984566e-09	-2.184522e+01	-1.310745e+02
1.140000e-06	-3.051440e-06	-1.979447e-09	-2.157662e+01	-1.308099e+02
1.150000e-06	-3.013241e-06	-1.979054e-09	-2.130652e+01	-1.305435e+02
1.160000e-06	-2.974763e-06	-1.974572e-09	-2.103444e+01	-1.302748e+02
1.170000e-06	-2.936016e-06	-1.964462e-09	-2.076046e+01	-1.300032e+02
1.180000e-06	-2.897100e-06	-1.951161e-09	-2.048529e+01	-1.297281e+02
1.190000e-06	-2.858097e-06	-1.943708e-09	-2.020950e+01	-1.294491e+02
1.200000e-06	-2.818864e-06	-1.939215e-09	-1.993209e+01	-1.291655e+02
1.210000e-06	-2.779411e-06	-1.934804e-09	-1.965312e+01	-1.288766e+02
1.220000e-06	-2.739873e-06	-1.931795e-09	-1.937354e+01	-1.285820e+02
1.230000e-06	-2.700207e-06	-1.931565e-09	-1.909307e+01	-1.282810e+02
1.240000e-06	-2.660399e-06	-1.929203e-09	-1.881159e+01	-1.279730e+02
1.250000e-06	-2.620452e-06	-1.922879e-09	-1.852913e+01	-1.276574e+02
1.260000e-06	-2.580371e-06	-1.915021e-09	-1.824571e+01	-1.273339e+02
1.270000e-06	-2.540131e-06	-1.905180e-09	-1.796118e+01	-1.270018e+02
1.280000e-06	-2.499716e-06	-1.898416e-09	-1.767540e+01	-1.266607e+02
1.290000e-06	-2.459155e-06	-1.895159e-09	-1.738859e+01	-1.263103e+02
1.300000e-06	-2.418495e-06	-1.892334e-09	-1.710109e+01	-1.259502e+02
1.310000e-06	-2.377669e-06	-1.885694e-09	-1.681241e+01	-1.255801e+02
1.320000e-06	-2.336577e-06	-1.879445e-09	-1.652185e+01	-1.251998e+02
1.330000e-06	-2.295221e-06	-1.872924e-09	-1.622943e+01	-1.248091e+02
1.340000e-06	-2.253559e-06	-1.866562e-09	-1.593484e+01	-1.244079e+02
1.350000e-06	-2.211625e-06	-1.856603e-09	-1.563832e+01	-1.239961e+02
1.360000e-06	-2.169386e-06	-1.846648e-09	-1.533965e+01	-1.235738e+02
1.370000e-06	-2.126805e-06	-1.838705e-09	-1.503856e+01	-1.231409e+02
1.380000e-06	-2.084056e-06	-1.833659e-09	-1.473628e+01	-1.226976e+02
1.390000e-06	-2.041108e-06	-1.826837e-09	-1.443260e+01	-1.222439e+02
1.400000e-06	-1.997903e-06	-1.819334e-09	-1.412710e+01	-1.217800e+02
1.410000e-06	-1.954569e-06	-1.812703e-09	-1.382069e+01	-1.213060e+02
1.420000e-06	-1.911125e-06	-1.809098e-09	-1.351350e+01	-1.208222e+02
1.430000e-06	-1.867546e-06	-1.802619e-09	-1.320535e+01	-1.203287e+02
1.440000e-06	-1.823834e-06	-1.791099e-09	-1.289627e+01	-1.198256e+02
1.450000e-06	-1.780013e-06	-1.780093e-09	-1.258641e+01	-1.193131e+02
1.460000e-06	-1.736114e-06	-1.776140e-09	-1.227600e+01	-1.187914e+02
1.470000e-06	-1.692158e-06	-1.771715e-09	-1.196519e+01	-1.182605e+02
1.480000e-06	-1.648177e-06	-1.761492e-09	-1.165420e+01	-1.177204e+02
1.490000e-06	-1.604138e-06	-1.750256e-09	-1.134280e+01	-1.171712e+02
1.500000e-06	-1.560013e-06	-1.742844e-09	-1.103080e+01	-1.166127e+02
1.510000e-06	-1.515784e-06	-1.736219e-09	-1.071806e+01	-1.160447e+02
1.520000e-06	-1.471467e-06	-1.725587e-09	-1.040469e+01	-1.154672e+02
1.530000e-06	-1.427117e-06	-1.711139e-09	-1.009110e+01	-1.148796e+02
1.540000e-06	-1.382644e-06	-1.701572e-09	-9.776629e+00	-1.142816e+02
1.550000e-06	-1.338065e-06	-1.698594e-09	-9.461410e+00	-1.136728e+02
1.560000e-06	-1.293424e-06	-1.693770e-09	-9.145753e+00	-1.130525e+02
1.570000e-06	-1.248646e-06	-1.683320e-09	-8.829134e+00	-1.124201e+02
1.580000e-06	-1.203804e-06	-1.672153e-09	-8.512057e+00	-1.117749e+02
1.590000e-06	-1.158875e-06	-1.662464e-09	-8.194363e+00	-1.111159e+02
1.600000e-06	-1.113807e-06	-1.650834e-09	-7.875691e+00	-1.104424e+02
1.610000e-06	-1.068654e-06	-1.636375e-09	-7.556411e+00	-1.097533e+02
1.620000e-06	-1.023444e-06	-1.623711e-09	-7.236737e+00	-1.090475e+02
1.630000e-06	-9.782034e-07	-1.616164e-09	-6.916841e+00	-1.083241e+02
1.640000e-06	-9.328533e-07	-1.606677e-09	-6.596172e+00	-1.075818e+02
1.650000e-06	-8.873871e-07	-1.591790e-09	-6.274683e+00	-1.068195e+02
1.660000e-06	-8.418953e-07	-1.576210e-09	-5.953011e+00	-1.060360e+02
1.670000e-06	-7.963885e-07	-1.565995e-09	-5.631235e+00	-1.052301e+02
1.680000e-06	-7.507909e-07	-1.556242e-09	-5.308815e+00	-1.044005e+02
1.690000e-06	-7.050918e-07	-1.540925e-09	-4.985679e+00	-1.035460e+02
1.700000e-06	-6.593594e-07	-1.522150e-09	-4.662307e+00	-1.026654e+02
1.710000e-06	-6.135925e-07	-1.508877e-09	-4.338691e+00	-1.017575e+02
1.720000e-06	-5.677835e-07	-1.498909e-09	-4.014777e+00	-1.008211e+02
1.730000e-06	-5.220333e-07	-1.485170e-09	-3.691279e+00	-9.985493e+01
1.740000e-06	-4.763157e-07	-1.466358e-09	-3.368011e+00	-9.885790e+01
1.750000e-06	-4.305592e-07	-1.451861e-09	-3.044469e+00	-9.782885e+01
1.760000e-06	-3.847540e-07	-1.442964e-09	-2.720582e+00	-9.676666e+01
1.770000e-06	-3.389149e-07	-1.429691e-09	-2.396455e+00	-9.567021e+01
1.780000e-06	-2.930570e-07	-1.407138e-09	-2.072196e+00	-9.453842e+01
1.790000e-06	-2.471458e-07	-1.384654e-09	-1.747559e+00	-9.337019e+01
1.800000e-06	-2.011824e-07	-1.367192e-09	-1.422554e+00	-9.216442e+01
1.810000e-06	-1.551650e-07	-1.349805e-09	-1.097166e+00	-9.092000e+01
1.820000e-06	-1.091599e-07	-1.328296e-09	-7.718655e-01	-8.963580e+01
1.830000e-06	-6.317009e-08	-1.306214e-09	-4.466734e-01	-8.831067e+01
1.840000e-06	-1.718029e-08	-1.288266e-09	-1.214812e-01	-8.694341e+01
1.850000e-06	2.873672e-08	-1.271370e-09	2.031963e-01	-8.553277e+01
1.860000e-06	7.458063e-08	-1.249683e-09	5.273570e-01	-8.407747e+01
1.870000e-06	1.204617e-07	-1.221459e-09	8.517802e-01	-8.257613e+01
1.880000e-06	1.664345e-07	-1.194508e-09	1.176852e+00	-8.102733e+01
1.890000e-06	2.124348e-07	-1.172908e-09	1.502119e+00	-7.942957e+01
1.900000e-06	2.584601e-07	-1.148573e-09	1.827562e+00	-7.778127e+01
1.910000e-06	3.045240e-07	-1.119087e-09	2.153278e+00	-7.608080e+01
1.920000e-06	3.505235e-07	-1.091580e-09	2.478539e+00	-7.432643e+01
1.930000e-06	3.964330e-07	-1.069537e-09	2.803164e+00	-7.251639e+01
1.940000e-06	4.423125e-07	-1.048067e-09	3.127576e+00	-7.064888e+01
1.950000e-06	4.881465e-07	-1.020603e-09	3.451666e+00	-6.872203e+01
1.960000e-06	5.339547e-07	-9.892681e-10	3.775575e+00	-6.673397e+01
1.970000e-06	5.797673e-07	-9.590091e-10	4.099514e+00	-6.468283e+01
1.980000e-06	6.255011e-07	-9.276601e-10	4.422896e+00	-6.256677e+01
1.990000e-06	6.711523e-07	-8.922202e-10	4.745694e+00	-6.038401e+01
2.000000e-06	7.168443e-07	-8.573243e-10	5.068780e+00	-5.813284e+01
2.010000e-06	7.625893e-07	-8.263318e-10	5.392242e+00	-5.581170e+01
2.020000e-06	8.082172e-07	-7.958811e-10	5.714875e+00	-5.341914e+01
2.030000e-06	8.536652e-07	-7.608427e-10	6.036236e+00	-5.095392e+01
2.040000e-06	8.990700e-07	-7.248385e-10	6.357292e+00	-4.841503e+01
2.050000e-06	9.444749e-07	-6.898855e-10	6.678348e+00	-4.580172e+01
2.060000e-06	9.897639e-07	-6.520113e-10	6.998585e+00	-4.311351e+01
2.070000e-06	1.034954e-06	-6.092641e-10	7.318121e+00	-4.035029e+01
2.080000e-06	1.080089e-06	-5.649173e-10	7.637272e+00	-3.751229e+01
2.090000e-06	1.125129e-06	-5.205321e-10	7.955749e+00	-3.460015e+01
2.100000e-06	1.170079e-06	-4.770209e-10	8.273583e+00	-3.161493e+01
2.110000e-06	1.214945e-06	-4.336907e-10	8.590831e+00	-2.855813e+01
2.120000e-06	1.259689e-06	-3.915214e-10	8.907214e+00	-2.543173e+01
2.130000e-06	1.304264e-06	-3.503773e-10	9.222406e+00	-2.223817e+01
2.140000e-06	1.348741e-06	-3.057677e-10	9.536900e+00	-1.898040e+01
2.150000e-06	1.393210e-06	-2.551001e-10	9.851335e+00	-1.566184e+01
2.160000e-06	1.437671e-06	-2.024248e-10	1.016572e+01	-1.228640e+01
2.170000e-06	1.482060e-06	-1.510873e-10	1.047959e+01	-8.858477e+00
2.180000e-06	1.526311e-06	-1.010578e-10	1.079249e+01	-5.382911e+00
2.190000e-06	1.570454e-06	-5.197631e-11	1.110463e+01	-1.864981e+00
2.200000e-06	1.614523e-06	-3.525010e-12	1.141624e+01	1.689634e+00
2.210000e-06	1.658572e-06	4.613328e-11	1.172771e+01	5.274886e+00
2.220000e-06	1.702583e-06	1.006697e-10	1.203891e+01	8.884406e+00
2.230000e-06	1.746496e-06	1.602072e-10	1.234941e+01	1.251155e+01
2.240000e-06	1.790340e-06	2.209108e-10	1.265943e+01	1.614944e+01
2.250000e-06	1.834165e-06	2.769280e-10	1.296932e+01	1.979105e+01
2.260000e-06	1.877926e-06	3.293968e-10	1.327875e+01	2.342923e+01
2.270000e-06	1.921469e-06	3.814221e-10	1.358664e+01	2.705678e+01
2.280000e-06	1.964853e-06	4.338938e-10	1.389340e+01	3.066655e+01
2.290000e-06	2.008130e-06	4.863497e-10	1.419941e+01	3.425143e+01
2.300000e-06	2.051343e-06	5.399958e-10	1.450497e+01	3.780449e+01
2.310000e-06	2.094419e-06	5.934594e-10	1.480956e+01	4.131897e+01
2.320000e-06	2.137318e-06	6.446847e-10	1.511290e+01	4.478841e+01
2.330000e-06	2.179963e-06	6.943179e-10	1.541444e+01	4.820666e+01
2.340000e-06	2.222142e-06	7.403172e-10	1.571269e+01	5.156795e+01
2.350000e-06	2.263952e-06	7.864348e-10	1.600832e+01	5.486692e+01
2.360000e-06	2.305472e-06	8.341160e-10	1.630191e+01	5.809869e+01
2.370000e-06	2.346669e-06	8.812315e-10	1.659321e+01	6.125886e+01
2.380000e-06	2.387639e-06	9.263106e-10	1.688291e+01	6.434358e+01
2.390000e-06	2.428391e-06	9.684936e-10	1.717107e+01	6.734952e+01
2.400000e-06	2.468893e-06	1.007992e-09	1.745745e+01	7.027394e+01
2.410000e-06	2.509242e-06	1.045895e-09	1.774276e+01	7.311465e+01
2.420000e-06	2.549481e-06	1.082847e-09	1.802729e+01	7.587004e+01
2.430000e-06	2.589560e-06	1.121219e-09	1.831069e+01	7.853904e+01
2.440000e-06	2.629496e-06	1.160797e-09	1.859307e+01	8.112113e+01
2.450000e-06	2.669380e-06	1.196456e-09	1.887509e+01	8.361631e+01
2.460000e-06	2.709184e-06	1.227784e-09	1.915654e+01	8.602506e+01
2.470000e-06	2.748827e-06	1.257170e-09	1.943686e+01	8.834832e+01
2.480000e-06	2.788336e-06	1.286649e-09	1.971622e+01	9.058745e+01
2.490000e-06	2.827719e-06	1.316646e-09	1.999470e+01	9.274417e+01
2.500000e-06	2.866871e-06	1.349941e-09	2.027154e+01	9.482051e+01
2.510000e-06	2.905764e-06	1.385450e-09	2.054656e+01	9.681880e+01
2.520000e-06	2.944379e-06	1.421238e-09	2.081960e+01	9.874158e+01
2.530000e-06	2.982750e-06	1.450877e-09	2.109092e+01	1.005915e+02
2.540000e-06	3.020931e-06	1.474204e-09	2.136090e+01	1.023715e+02
2.550000e-06	3.058946e-06	1.492653e-09	2.162970e+01	1.040845e+02
2.560000e-06	3.096728e-06	1.510537e-09	2.189685e+01	1.057332e+02
2.570000e-06	3.134268e-06	1.529191e-09	2.216230e+01	1.073207e+02
2.580000e-06	3.171681e-06	1.551619e-09	2.242685e+01	1.088497e+02
2.590000e-06	3.208897e-06	1.578992e-09	2.269000e+01	1.103231e+02
2.600000e-06	3.245880e-06	1.608323e-09	2.295150e+01	1.117434e+02
2.610000e-06	3.282652e-06	1.636356e-09	2.321151e+01	1.131130e+02
2.620000e-06	3.319214e-06	1.656887e-09	2.347004e+01	1.144343e+02
2.630000e-06	3.355581e-06	1.668845e-09	2.372719e+01	1.157093e+02
2.640000e-06	3.391712e-06	1.677622e-09	2.398267e+01	1.169399e+02
2.650000e-06	3.427672e-06	1.687492e-09	2.423694e+01	1.181278e+02
2.660000e-06	3.463535e-06	1.700081e-09	2.449054e+01	1.192744e+02
2.670000e-06	3.499253e-06	1.717347e-09	2.474310e+01	1.203810e+02
2.680000e-06	3.534789e-06	1.737901e-09	2.499437e+01	1.214487e+02
2.690000e-06	3.570063e-06	1.758180e-09	2.524378e+01	1.224785e+02
2.700000e-06	3.605023e-06	1.774652e-09	2.549099e+01	1.234710e+02
2.710000e-06	3.639710e-06	1.785724e-09	2.573626e+01	1.244270e+02
2.720000e-06	3.673958e-06	1.793209e-09	2.597843e+01	1.253469e+02
2.730000e-06	3.707645e-06	1.802475e-09	2.621663e+01	1.262312e+02
2.740000e-06	3.740937e-06	1.812443e-09	2.645203e+01	1.270804e+02
2.750000e-06	3.773838e-06	1.825391e-09	2.668467e+01	1.278947e+02
2.760000e-06	3.806310e-06	1.840762e-09	2.691428e+01	1.286746e+02
2.770000e-06	3.838526e-06	1.856962e-09	2.714208e+01	1.294206e+02
2.780000e-06	3.870605e-06	1.870222e-09	2.736891e+01	1.301329e+02
2.790000e-06	3.902513e-06	1.879308e-09	2.759453e+01	1.308122e+02
2.800000e-06	3.934281e-06	1.885200e-09	2.781916e+01	1.314591e+02
2.810000e-06	3.965903e-06	1.891116e-09	2.804276e+01	1.320741e+02
2.820000e-06	3.997288e-06	1.896662e-09	2.826468e+01	1.326583e+02
2.830000e-06	4.028307e-06	1.902311e-09	2.848401e+01	1.332123e+02
2.840000e-06	4.058881e-06	1.911522e-09	2.870020e+01	1.337374e+02
2.850000e-06	4.089219e-06	1.923541e-09	2.891472e+01	1.342345e+02
2.860000e-06	4.119350e-06	1.935014e-09	2.912778e+01	1.347051e+02
2.870000e-06	4.149192e-06	1.941780e-09	2.933878e+01	1.351503e+02
2.880000e-06	4.178829e-06	1.945567e-09	2.954835e+01	1.355716e+02
2.890000e-06	4.208201e-06	1.950134e-09	2.975604e+01	1.359705e+02
2.900000e-06	4.237246e-06	1.954025e-09	2.996141e+01	1.363486e+02
