# Temperatura_=_-1.9
# Concentracion g/m^3_=_4090.0
# C_Vs_to_Am_M_A/Vsm_=_65563218390.804596
# pendiente_HvsI_1/m_=_3716.3
# ordenada_HvsI_A/m_=_1297.0
# frecuencia_Hz_=_135069.53704394636

Tiempo_(s)	Campo_(V.s)	Magnetizacion_(V.s)	Campo_(kA/m)	Magnetizacion_(A/m)
0.000000e+00	-5.414284e-06	-2.317417e-09	-3.839827e+01	-1.509528e+02
1.000000e-08	-5.414419e-06	-2.316723e-09	-3.839922e+01	-1.508541e+02
2.000000e-08	-5.414346e-06	-2.315935e-09	-3.839871e+01	-1.507610e+02
3.000000e-08	-5.413919e-06	-2.313571e-09	-3.839568e+01	-1.506753e+02
4.000000e-08	-5.413101e-06	-2.312210e-09	-3.838988e+01	-1.505989e+02
5.000000e-08	-5.411793e-06	-2.317232e-09	-3.838060e+01	-1.505335e+02
6.000000e-08	-5.409738e-06	-2.325249e-09	-3.836603e+01	-1.504806e+02
7.000000e-08	-5.407016e-06	-2.306761e-09	-3.834672e+01	-1.504414e+02
8.000000e-08	-5.403773e-06	-2.268051e-09	-3.832372e+01	-1.504171e+02
9.000000e-08	-5.400001e-06	-2.304087e-09	-3.829697e+01	-1.504086e+02
1.000000e-07	-5.395885e-06	-2.407259e-09	-3.826778e+01	-1.504163e+02
1.100000e-07	-5.391595e-06	-2.372146e-09	-3.823736e+01	-1.504407e+02
1.200000e-07	-5.387183e-06	-2.255409e-09	-3.820606e+01	-1.504815e+02
1.300000e-07	-5.382444e-06	-2.250371e-09	-3.817245e+01	-1.505387e+02
1.400000e-07	-5.377213e-06	-2.397732e-09	-3.813536e+01	-1.506114e+02
1.500000e-07	-5.371615e-06	-2.375608e-09	-3.809566e+01	-1.506990e+02
1.600000e-07	-5.365732e-06	-2.211769e-09	-3.805393e+01	-1.508001e+02
1.700000e-07	-5.359501e-06	-2.232964e-09	-3.800974e+01	-1.509135e+02
1.800000e-07	-5.352738e-06	-2.397849e-09	-3.796178e+01	-1.510375e+02
1.900000e-07	-5.345514e-06	-2.399663e-09	-3.791055e+01	-1.511702e+02
2.000000e-07	-5.338126e-06	-2.278376e-09	-3.785815e+01	-1.513097e+02
2.100000e-07	-5.330536e-06	-2.315344e-09	-3.780432e+01	-1.514539e+02
2.200000e-07	-5.322662e-06	-2.396867e-09	-3.774848e+01	-1.516005e+02
2.300000e-07	-5.314494e-06	-2.348495e-09	-3.769055e+01	-1.517474e+02
2.400000e-07	-5.305961e-06	-2.298309e-09	-3.763004e+01	-1.518922e+02
2.500000e-07	-5.296851e-06	-2.390909e-09	-3.756543e+01	-1.520328e+02
2.600000e-07	-5.286952e-06	-2.416405e-09	-3.749522e+01	-1.521670e+02
2.700000e-07	-5.276423e-06	-2.345406e-09	-3.742055e+01	-1.522927e+02
2.800000e-07	-5.265498e-06	-2.358742e-09	-3.734307e+01	-1.524081e+02
2.900000e-07	-5.254221e-06	-2.441732e-09	-3.726310e+01	-1.525114e+02
3.000000e-07	-5.242487e-06	-2.377596e-09	-3.717987e+01	-1.526010e+02
3.100000e-07	-5.230298e-06	-2.303404e-09	-3.709343e+01	-1.526758e+02
3.200000e-07	-5.217737e-06	-2.379351e-09	-3.700435e+01	-1.527347e+02
3.300000e-07	-5.204820e-06	-2.433814e-09	-3.691274e+01	-1.527767e+02
3.400000e-07	-5.191553e-06	-2.349867e-09	-3.681865e+01	-1.528015e+02
3.500000e-07	-5.177971e-06	-2.336253e-09	-3.672232e+01	-1.528088e+02
3.600000e-07	-5.164058e-06	-2.391815e-09	-3.662365e+01	-1.527984e+02
3.700000e-07	-5.149554e-06	-2.369604e-09	-3.652080e+01	-1.527708e+02
3.800000e-07	-5.134420e-06	-2.324530e-09	-3.641346e+01	-1.527265e+02
3.900000e-07	-5.118667e-06	-2.358061e-09	-3.630174e+01	-1.526660e+02
4.000000e-07	-5.102361e-06	-2.359845e-09	-3.618610e+01	-1.525904e+02
4.100000e-07	-5.085825e-06	-2.330030e-09	-3.606883e+01	-1.525009e+02
4.200000e-07	-5.069079e-06	-2.359842e-09	-3.595006e+01	-1.523986e+02
4.300000e-07	-5.051957e-06	-2.374304e-09	-3.582863e+01	-1.522849e+02
4.400000e-07	-5.034452e-06	-2.325445e-09	-3.570449e+01	-1.521613e+02
4.500000e-07	-5.016687e-06	-2.313708e-09	-3.557850e+01	-1.520294e+02
4.600000e-07	-4.998567e-06	-2.356578e-09	-3.544999e+01	-1.518907e+02
4.700000e-07	-4.980006e-06	-2.345983e-09	-3.531835e+01	-1.517467e+02
4.800000e-07	-4.961014e-06	-2.316687e-09	-3.518366e+01	-1.515989e+02
4.900000e-07	-4.941672e-06	-2.322391e-09	-3.504649e+01	-1.514488e+02
5.000000e-07	-4.922102e-06	-2.341933e-09	-3.490769e+01	-1.512976e+02
5.100000e-07	-4.902316e-06	-2.335250e-09	-3.476738e+01	-1.511466e+02
5.200000e-07	-4.882385e-06	-2.325533e-09	-3.462602e+01	-1.509969e+02
5.300000e-07	-4.862235e-06	-2.308386e-09	-3.448312e+01	-1.508492e+02
5.400000e-07	-4.841691e-06	-2.308352e-09	-3.433742e+01	-1.507045e+02
5.500000e-07	-4.820730e-06	-2.315579e-09	-3.418876e+01	-1.505631e+02
5.600000e-07	-4.799370e-06	-2.314904e-09	-3.403728e+01	-1.504255e+02
5.700000e-07	-4.777683e-06	-2.299808e-09	-3.388347e+01	-1.502918e+02
5.800000e-07	-4.755794e-06	-2.302380e-09	-3.372823e+01	-1.501621e+02
5.900000e-07	-4.733655e-06	-2.310782e-09	-3.357123e+01	-1.500361e+02
6.000000e-07	-4.711081e-06	-2.313645e-09	-3.341113e+01	-1.499136e+02
6.100000e-07	-4.688059e-06	-2.296637e-09	-3.324785e+01	-1.497940e+02
6.200000e-07	-4.664760e-06	-2.280445e-09	-3.308262e+01	-1.496768e+02
6.300000e-07	-4.641237e-06	-2.285412e-09	-3.291580e+01	-1.495613e+02
6.400000e-07	-4.617515e-06	-2.301628e-09	-3.274755e+01	-1.494467e+02
6.500000e-07	-4.593593e-06	-2.290639e-09	-3.257790e+01	-1.493322e+02
6.600000e-07	-4.569372e-06	-2.274931e-09	-3.240612e+01	-1.492169e+02
6.700000e-07	-4.544771e-06	-2.281600e-09	-3.223165e+01	-1.491000e+02
6.800000e-07	-4.519747e-06	-2.293364e-09	-3.205418e+01	-1.489805e+02
6.900000e-07	-4.494292e-06	-2.289069e-09	-3.187366e+01	-1.488577e+02
7.000000e-07	-4.468296e-06	-2.276691e-09	-3.168929e+01	-1.487308e+02
7.100000e-07	-4.441618e-06	-2.272490e-09	-3.150009e+01	-1.485990e+02
7.200000e-07	-4.414480e-06	-2.278041e-09	-3.130763e+01	-1.484619e+02
7.300000e-07	-4.387119e-06	-2.279973e-09	-3.111358e+01	-1.483189e+02
7.400000e-07	-4.359531e-06	-2.264466e-09	-3.091792e+01	-1.481696e+02
7.500000e-07	-4.331761e-06	-2.253687e-09	-3.072098e+01	-1.480138e+02
7.600000e-07	-4.303829e-06	-2.260394e-09	-3.052289e+01	-1.478513e+02
7.700000e-07	-4.275697e-06	-2.269538e-09	-3.032337e+01	-1.476821e+02
7.800000e-07	-4.247199e-06	-2.264281e-09	-3.012127e+01	-1.475064e+02
7.900000e-07	-4.218328e-06	-2.258272e-09	-2.991651e+01	-1.473243e+02
8.000000e-07	-4.189119e-06	-2.256871e-09	-2.970936e+01	-1.471362e+02
8.100000e-07	-4.159541e-06	-2.257150e-09	-2.949959e+01	-1.469424e+02
8.200000e-07	-4.129762e-06	-2.244880e-09	-2.928840e+01	-1.467436e+02
8.300000e-07	-4.099829e-06	-2.231836e-09	-2.907611e+01	-1.465402e+02
8.400000e-07	-4.069632e-06	-2.229481e-09	-2.886195e+01	-1.463329e+02
8.500000e-07	-4.039064e-06	-2.240408e-09	-2.864516e+01	-1.461223e+02
8.600000e-07	-4.008135e-06	-2.241470e-09	-2.842582e+01	-1.459091e+02
8.700000e-07	-3.977001e-06	-2.232470e-09	-2.820501e+01	-1.456940e+02
8.800000e-07	-3.945689e-06	-2.223009e-09	-2.798294e+01	-1.454775e+02
8.900000e-07	-3.914188e-06	-2.221201e-09	-2.775954e+01	-1.452602e+02
9.000000e-07	-3.882535e-06	-2.212530e-09	-2.753506e+01	-1.450428e+02
9.100000e-07	-3.850782e-06	-2.197368e-09	-2.730986e+01	-1.448256e+02
9.200000e-07	-3.818846e-06	-2.189027e-09	-2.708337e+01	-1.446090e+02
9.300000e-07	-3.786617e-06	-2.196255e-09	-2.685480e+01	-1.443934e+02
9.400000e-07	-3.754105e-06	-2.204298e-09	-2.662423e+01	-1.441789e+02
9.500000e-07	-3.721230e-06	-2.202439e-09	-2.639107e+01	-1.439657e+02
9.600000e-07	-3.687915e-06	-2.196855e-09	-2.615481e+01	-1.437537e+02
9.700000e-07	-3.654093e-06	-2.195184e-09	-2.591494e+01	-1.435428e+02
9.800000e-07	-3.619676e-06	-2.189337e-09	-2.567085e+01	-1.433328e+02
9.900000e-07	-3.584876e-06	-2.173003e-09	-2.542405e+01	-1.431235e+02
1.000000e-06	-3.549816e-06	-2.157371e-09	-2.517540e+01	-1.429144e+02
1.010000e-06	-3.514454e-06	-2.153524e-09	-2.492461e+01	-1.427051e+02
1.020000e-06	-3.478930e-06	-2.159088e-09	-2.467267e+01	-1.424951e+02
1.030000e-06	-3.443270e-06	-2.161018e-09	-2.441978e+01	-1.422837e+02
1.040000e-06	-3.407463e-06	-2.158273e-09	-2.416583e+01	-1.420703e+02
1.050000e-06	-3.371494e-06	-2.154413e-09	-2.391074e+01	-1.418543e+02
1.060000e-06	-3.335305e-06	-2.150888e-09	-2.365408e+01	-1.416350e+02
1.070000e-06	-3.298886e-06	-2.139715e-09	-2.339580e+01	-1.414117e+02
1.080000e-06	-3.262243e-06	-2.123080e-09	-2.313593e+01	-1.411839e+02
1.090000e-06	-3.225353e-06	-2.111434e-09	-2.287430e+01	-1.409508e+02
1.100000e-06	-3.188185e-06	-2.113140e-09	-2.261071e+01	-1.407118e+02
1.110000e-06	-3.150776e-06	-2.117350e-09	-2.234540e+01	-1.404665e+02
1.120000e-06	-3.113199e-06	-2.115500e-09	-2.207890e+01	-1.402144e+02
1.130000e-06	-3.075506e-06	-2.108298e-09	-2.181158e+01	-1.399550e+02
1.140000e-06	-3.037607e-06	-2.103157e-09	-2.154280e+01	-1.396879e+02
1.150000e-06	-2.999499e-06	-2.095554e-09	-2.127254e+01	-1.394130e+02
1.160000e-06	-2.961275e-06	-2.083482e-09	-2.100145e+01	-1.391300e+02
1.170000e-06	-2.922847e-06	-2.071230e-09	-2.072892e+01	-1.388388e+02
1.180000e-06	-2.884079e-06	-2.066476e-09	-2.045397e+01	-1.385393e+02
1.190000e-06	-2.845040e-06	-2.066706e-09	-2.017711e+01	-1.382315e+02
1.200000e-06	-2.805800e-06	-2.064422e-09	-1.989882e+01	-1.379156e+02
1.210000e-06	-2.766330e-06	-2.057166e-09	-1.961889e+01	-1.375916e+02
1.220000e-06	-2.726762e-06	-2.051217e-09	-1.933828e+01	-1.372598e+02
1.230000e-06	-2.687123e-06	-2.046152e-09	-1.905715e+01	-1.369204e+02
1.240000e-06	-2.647330e-06	-2.039212e-09	-1.877494e+01	-1.365735e+02
1.250000e-06	-2.607452e-06	-2.031159e-09	-1.849213e+01	-1.362196e+02
1.260000e-06	-2.567529e-06	-2.024942e-09	-1.820899e+01	-1.358588e+02
1.270000e-06	-2.527488e-06	-2.020313e-09	-1.792502e+01	-1.354914e+02
1.280000e-06	-2.487301e-06	-2.015371e-09	-1.764002e+01	-1.351177e+02
1.290000e-06	-2.446914e-06	-2.008330e-09	-1.735359e+01	-1.347380e+02
1.300000e-06	-2.406336e-06	-1.998730e-09	-1.706581e+01	-1.343524e+02
1.310000e-06	-2.365547e-06	-1.989949e-09	-1.677653e+01	-1.339611e+02
1.320000e-06	-2.324521e-06	-1.981905e-09	-1.648557e+01	-1.335643e+02
1.330000e-06	-2.283257e-06	-1.974323e-09	-1.619293e+01	-1.331620e+02
1.340000e-06	-2.241666e-06	-1.968179e-09	-1.589796e+01	-1.327542e+02
1.350000e-06	-2.199808e-06	-1.962927e-09	-1.560111e+01	-1.323409e+02
1.360000e-06	-2.157667e-06	-1.955737e-09	-1.530224e+01	-1.319221e+02
1.370000e-06	-2.115226e-06	-1.946138e-09	-1.500125e+01	-1.314975e+02
1.380000e-06	-2.072544e-06	-1.936566e-09	-1.469855e+01	-1.310670e+02
1.390000e-06	-2.029695e-06	-1.928823e-09	-1.439466e+01	-1.306302e+02
1.400000e-06	-1.986679e-06	-1.921585e-09	-1.408959e+01	-1.301869e+02
1.410000e-06	-1.943395e-06	-1.916265e-09	-1.378262e+01	-1.297367e+02
1.420000e-06	-1.899924e-06	-1.910805e-09	-1.347432e+01	-1.292791e+02
1.430000e-06	-1.856392e-06	-1.903234e-09	-1.316559e+01	-1.288136e+02
1.440000e-06	-1.812819e-06	-1.892541e-09	-1.285657e+01	-1.283399e+02
1.450000e-06	-1.769181e-06	-1.881860e-09	-1.254709e+01	-1.278573e+02
1.460000e-06	-1.725449e-06	-1.873682e-09	-1.223694e+01	-1.273652e+02
1.470000e-06	-1.681605e-06	-1.866015e-09	-1.192600e+01	-1.268631e+02
1.480000e-06	-1.637698e-06	-1.856900e-09	-1.161461e+01	-1.263503e+02
1.490000e-06	-1.593760e-06	-1.849625e-09	-1.130300e+01	-1.258263e+02
1.500000e-06	-1.549784e-06	-1.843788e-09	-1.099112e+01	-1.252903e+02
1.510000e-06	-1.505673e-06	-1.835292e-09	-1.067828e+01	-1.247418e+02
1.520000e-06	-1.461459e-06	-1.820353e-09	-1.036471e+01	-1.241801e+02
1.530000e-06	-1.417191e-06	-1.805783e-09	-1.005076e+01	-1.236045e+02
1.540000e-06	-1.372814e-06	-1.797789e-09	-9.736037e+00	-1.230144e+02
1.550000e-06	-1.328343e-06	-1.795083e-09	-9.420650e+00	-1.224092e+02
1.560000e-06	-1.283807e-06	-1.791164e-09	-9.104795e+00	-1.217881e+02
1.570000e-06	-1.239234e-06	-1.784657e-09	-8.788688e+00	-1.211507e+02
1.580000e-06	-1.194589e-06	-1.778090e-09	-8.472062e+00	-1.204961e+02
1.590000e-06	-1.149759e-06	-1.768695e-09	-8.154127e+00	-1.198237e+02
1.600000e-06	-1.104763e-06	-1.753975e-09	-7.835011e+00	-1.191329e+02
1.610000e-06	-1.059713e-06	-1.735748e-09	-7.515519e+00	-1.184230e+02
1.620000e-06	-1.014567e-06	-1.720775e-09	-7.195338e+00	-1.176934e+02
1.630000e-06	-9.693271e-07	-1.710544e-09	-6.874497e+00	-1.169432e+02
1.640000e-06	-9.240620e-07	-1.699152e-09	-6.553475e+00	-1.161719e+02
1.650000e-06	-8.786928e-07	-1.687722e-09	-6.231716e+00	-1.153787e+02
1.660000e-06	-8.332199e-07	-1.680793e-09	-5.909221e+00	-1.145627e+02
1.670000e-06	-7.876842e-07	-1.674812e-09	-5.586280e+00	-1.137233e+02
1.680000e-06	-7.420969e-07	-1.662738e-09	-5.262974e+00	-1.128597e+02
1.690000e-06	-6.965230e-07	-1.641604e-09	-4.939762e+00	-1.119709e+02
1.700000e-06	-6.509851e-07	-1.618347e-09	-4.616806e+00	-1.110561e+02
1.710000e-06	-6.054000e-07	-1.602707e-09	-4.293515e+00	-1.101144e+02
1.720000e-06	-5.597528e-07	-1.592541e-09	-3.969784e+00	-1.091449e+02
1.730000e-06	-5.140987e-07	-1.578511e-09	-3.646004e+00	-1.081465e+02
1.740000e-06	-4.683522e-07	-1.564005e-09	-3.321568e+00	-1.071182e+02
1.750000e-06	-4.225711e-07	-1.554353e-09	-2.996887e+00	-1.060590e+02
1.760000e-06	-3.767920e-07	-1.544081e-09	-2.672220e+00	-1.049677e+02
1.770000e-06	-3.309949e-07	-1.523415e-09	-2.347426e+00	-1.038431e+02
1.780000e-06	-2.852054e-07	-1.496044e-09	-2.022685e+00	-1.026840e+02
1.790000e-06	-2.393989e-07	-1.471143e-09	-1.697824e+00	-1.014892e+02
1.800000e-06	-1.935797e-07	-1.452512e-09	-1.372873e+00	-1.002573e+02
1.810000e-06	-1.477338e-07	-1.436151e-09	-1.047733e+00	-9.898699e+01
1.820000e-06	-1.018347e-07	-1.417397e-09	-7.222151e-01	-9.767678e+01
1.830000e-06	-5.598310e-08	-1.399780e-09	-3.970339e-01	-9.632522e+01
1.840000e-06	-1.015283e-08	-1.382952e-09	-7.200415e-02	-9.493079e+01
1.850000e-06	3.573420e-08	-1.364358e-09	2.534280e-01	-9.349190e+01
1.860000e-06	8.173850e-08	-1.338884e-09	5.796919e-01	-9.200691e+01
1.870000e-06	1.277769e-07	-1.307477e-09	9.061973e-01	-9.047416e+01
1.880000e-06	1.736872e-07	-1.280431e-09	1.231795e+00	-8.889192e+01
1.890000e-06	2.195908e-07	-1.258205e-09	1.557344e+00	-8.725841e+01
1.900000e-06	2.655841e-07	-1.237421e-09	1.883530e+00	-8.557185e+01
1.910000e-06	3.115948e-07	-1.213263e-09	2.209840e+00	-8.383040e+01
1.920000e-06	3.574700e-07	-1.187951e-09	2.535188e+00	-8.203222e+01
1.930000e-06	4.032012e-07	-1.163599e-09	2.859515e+00	-8.017544e+01
1.940000e-06	4.489035e-07	-1.136093e-09	3.183637e+00	-7.825820e+01
1.950000e-06	4.946572e-07	-1.103272e-09	3.508124e+00	-7.627865e+01
1.960000e-06	5.403728e-07	-1.070102e-09	3.832341e+00	-7.423500e+01
1.970000e-06	5.860162e-07	-1.040517e-09	4.156044e+00	-7.212545e+01
1.980000e-06	6.316113e-07	-1.013205e-09	4.479407e+00	-6.994832e+01
1.990000e-06	6.771616e-07	-9.833244e-10	4.802451e+00	-6.770198e+01
2.000000e-06	7.226413e-07	-9.497511e-10	5.124994e+00	-6.538494e+01
2.010000e-06	7.680690e-07	-9.164894e-10	5.447168e+00	-6.299581e+01
2.020000e-06	8.135197e-07	-8.826821e-10	5.769506e+00	-6.053338e+01
2.030000e-06	8.589491e-07	-8.460098e-10	6.091693e+00	-5.799663e+01
2.040000e-06	9.042753e-07	-8.067400e-10	6.413148e+00	-5.538474e+01
2.050000e-06	9.494923e-07	-7.671229e-10	6.733828e+00	-5.269713e+01
2.060000e-06	9.946624e-07	-7.295101e-10	7.054176e+00	-4.993349e+01
2.070000e-06	1.039775e-06	-6.906802e-10	7.374119e+00	-4.709380e+01
2.080000e-06	1.084816e-06	-6.485472e-10	7.693545e+00	-4.417837e+01
2.090000e-06	1.129824e-06	-6.061000e-10	8.012742e+00	-4.118783e+01
2.100000e-06	1.174672e-06	-5.637086e-10	8.330809e+00	-3.812319e+01
2.110000e-06	1.219325e-06	-5.210566e-10	8.647492e+00	-3.498586e+01
2.120000e-06	1.263863e-06	-4.753571e-10	8.963357e+00	-3.177761e+01
2.130000e-06	1.308332e-06	-4.265902e-10	9.278730e+00	-2.850067e+01
2.140000e-06	1.352807e-06	-3.762859e-10	9.594145e+00	-2.515767e+01
2.150000e-06	1.397224e-06	-3.266621e-10	9.909158e+00	-2.175166e+01
2.160000e-06	1.441443e-06	-2.756927e-10	1.022276e+01	-1.828613e+01
2.170000e-06	1.485533e-06	-2.220394e-10	1.053545e+01	-1.476501e+01
2.180000e-06	1.529617e-06	-1.688838e-10	1.084809e+01	-1.119261e+01
2.190000e-06	1.573653e-06	-1.187218e-10	1.116040e+01	-7.573682e+00
2.200000e-06	1.617637e-06	-6.782643e-11	1.147233e+01	-3.913321e+00
2.210000e-06	1.661547e-06	-1.173116e-11	1.178374e+01	-2.169942e-01
2.220000e-06	1.705342e-06	4.737882e-11	1.209434e+01	3.509510e+00
2.230000e-06	1.749068e-06	1.051940e-10	1.240444e+01	7.260114e+00
2.240000e-06	1.792773e-06	1.611340e-10	1.271440e+01	1.102849e+01
2.250000e-06	1.836371e-06	2.165496e-10	1.302360e+01	1.480811e+01
2.260000e-06	1.879875e-06	2.733107e-10	1.333213e+01	1.859228e+01
2.270000e-06	1.923380e-06	3.310406e-10	1.364067e+01	2.237421e+01
2.280000e-06	1.966763e-06	3.862132e-10	1.394834e+01	2.614704e+01
2.290000e-06	2.009917e-06	4.386826e-10	1.425439e+01	2.990393e+01
2.300000e-06	2.052893e-06	4.936422e-10	1.455918e+01	3.363807e+01
2.310000e-06	2.095685e-06	5.516045e-10	1.486266e+01	3.734277e+01
2.320000e-06	2.138200e-06	6.094807e-10	1.516418e+01	4.101152e+01
2.330000e-06	2.180457e-06	6.633864e-10	1.546387e+01	4.463801e+01
2.340000e-06	2.222453e-06	7.132976e-10	1.576171e+01	4.821620e+01
2.350000e-06	2.264107e-06	7.636213e-10	1.605712e+01	5.174037e+01
2.360000e-06	2.305475e-06	8.153363e-10	1.635050e+01	5.520516e+01
2.370000e-06	2.346575e-06	8.656607e-10	1.664198e+01	5.860561e+01
2.380000e-06	2.387400e-06	9.138124e-10	1.693152e+01	6.193718e+01
2.390000e-06	2.427953e-06	9.619967e-10	1.721912e+01	6.519583e+01
2.400000e-06	2.468238e-06	1.010939e-09	1.750482e+01	6.837795e+01
2.410000e-06	2.508370e-06	1.056410e-09	1.778943e+01	7.148048e+01
2.420000e-06	2.548394e-06	1.096349e-09	1.807329e+01	7.450085e+01
2.430000e-06	2.588307e-06	1.134899e-09	1.835635e+01	7.743699e+01
2.440000e-06	2.628152e-06	1.174961e-09	1.863894e+01	8.028738e+01
2.450000e-06	2.667893e-06	1.215306e-09	1.892078e+01	8.305097e+01
2.460000e-06	2.707523e-06	1.252573e-09	1.920184e+01	8.572721e+01
2.470000e-06	2.747065e-06	1.289408e-09	1.948227e+01	8.831601e+01
2.480000e-06	2.786481e-06	1.328309e-09	1.976181e+01	9.081773e+01
2.490000e-06	2.825678e-06	1.365505e-09	2.003980e+01	9.323312e+01
2.500000e-06	2.864596e-06	1.397375e-09	2.031580e+01	9.556330e+01
2.510000e-06	2.903304e-06	1.427264e-09	2.059032e+01	9.780976e+01
2.520000e-06	2.941803e-06	1.458110e-09	2.086336e+01	9.997424e+01
2.530000e-06	2.980056e-06	1.488846e-09	2.113465e+01	1.020587e+02
2.540000e-06	3.018117e-06	1.518246e-09	2.140458e+01	1.040655e+02
2.550000e-06	3.056029e-06	1.547053e-09	2.167345e+01	1.059968e+02
2.560000e-06	3.093758e-06	1.575908e-09	2.194102e+01	1.078552e+02
2.570000e-06	3.131252e-06	1.602915e-09	2.220693e+01	1.096433e+02
2.580000e-06	3.168550e-06	1.625672e-09	2.247145e+01	1.113636e+02
2.590000e-06	3.205677e-06	1.645376e-09	2.273476e+01	1.130187e+02
2.600000e-06	3.242583e-06	1.667618e-09	2.299650e+01	1.146112e+02
2.610000e-06	3.279218e-06	1.693039e-09	2.325631e+01	1.161436e+02
2.620000e-06	3.315519e-06	1.716068e-09	2.351376e+01	1.176182e+02
2.630000e-06	3.351591e-06	1.734906e-09	2.376959e+01	1.190373e+02
2.640000e-06	3.387539e-06	1.752526e-09	2.402453e+01	1.204032e+02
2.650000e-06	3.423361e-06	1.770190e-09	2.427858e+01	1.217177e+02
2.660000e-06	3.459093e-06	1.786765e-09	2.453199e+01	1.229828e+02
2.670000e-06	3.494654e-06	1.801677e-09	2.478419e+01	1.242001e+02
2.680000e-06	3.530019e-06	1.815899e-09	2.503500e+01	1.253713e+02
2.690000e-06	3.565161e-06	1.831007e-09	2.528423e+01	1.264977e+02
2.700000e-06	3.599984e-06	1.847118e-09	2.553120e+01	1.275806e+02
2.710000e-06	3.634542e-06	1.862524e-09	2.577628e+01	1.286213e+02
2.720000e-06	3.668740e-06	1.876352e-09	2.601882e+01	1.296207e+02
2.730000e-06	3.702370e-06	1.890006e-09	2.625732e+01	1.305798e+02
2.740000e-06	3.735405e-06	1.904330e-09	2.649161e+01	1.314997e+02
2.750000e-06	3.768008e-06	1.917200e-09	2.672283e+01	1.323811e+02
2.760000e-06	3.800313e-06	1.927074e-09	2.695194e+01	1.332250e+02
2.770000e-06	3.832403e-06	1.936745e-09	2.717952e+01	1.340321e+02
2.780000e-06	3.864318e-06	1.947999e-09	2.740586e+01	1.348034e+02
2.790000e-06	3.896064e-06	1.959419e-09	2.763101e+01	1.355397e+02
2.800000e-06	3.927702e-06	1.970315e-09	2.785538e+01	1.362420e+02
2.810000e-06	3.959186e-06	1.981620e-09	2.807867e+01	1.369114e+02
2.820000e-06	3.990422e-06	1.991628e-09	2.830019e+01	1.375487e+02
2.830000e-06	4.021336e-06	1.998941e-09	2.851944e+01	1.381553e+02
2.840000e-06	4.051855e-06	2.007008e-09	2.873588e+01	1.387324e+02
2.850000e-06	4.082047e-06	2.017798e-09	2.895000e+01	1.392812e+02
2.860000e-06	4.112000e-06	2.029300e-09	2.916243e+01	1.398030e+02
2.870000e-06	4.141702e-06	2.039160e-09	2.937308e+01	1.402995e+02
2.880000e-06	4.171214e-06	2.046369e-09	2.958238e+01	1.407719e+02
2.890000e-06	4.200454e-06	2.051582e-09	2.978975e+01	1.412219e+02
2.900000e-06	4.229357e-06	2.055632e-09	2.999473e+01	1.416510e+02
