# Temperatura_=_-1.1
# Concentracion g/m^3_=_4090.0
# C_Vs_to_Am_M_A/Vsm_=_65563218390.804596
# pendiente_HvsI_1/m_=_3716.3
# ordenada_HvsI_A/m_=_1297.0
# frecuencia_Hz_=_135061.58829792286

Tiempo_(s)	Campo_(V.s)	Magnetizacion_(V.s)	Campo_(kA/m)	Magnetizacion_(A/m)
0.000000e+00	-5.405239e-06	-2.603705e-09	-3.840029e+01	-1.685119e+02
1.000000e-08	-5.405232e-06	-2.606288e-09	-3.840024e+01	-1.684589e+02
2.000000e-08	-5.404985e-06	-2.604311e-09	-3.839849e+01	-1.684124e+02
3.000000e-08	-5.404531e-06	-2.600642e-09	-3.839526e+01	-1.683737e+02
4.000000e-08	-5.403737e-06	-2.600591e-09	-3.838962e+01	-1.683440e+02
5.000000e-08	-5.402373e-06	-2.609260e-09	-3.837993e+01	-1.683244e+02
6.000000e-08	-5.400418e-06	-2.637031e-09	-3.836604e+01	-1.683159e+02
7.000000e-08	-5.397829e-06	-2.618644e-09	-3.834765e+01	-1.683191e+02
8.000000e-08	-5.394598e-06	-2.516235e-09	-3.832470e+01	-1.683347e+02
9.000000e-08	-5.390887e-06	-2.501216e-09	-3.829833e+01	-1.683630e+02
1.000000e-07	-5.386785e-06	-2.668022e-09	-3.826919e+01	-1.684042e+02
1.100000e-07	-5.382380e-06	-2.701684e-09	-3.823790e+01	-1.684583e+02
1.200000e-07	-5.377763e-06	-2.552680e-09	-3.820509e+01	-1.685250e+02
1.300000e-07	-5.372855e-06	-2.476627e-09	-3.817023e+01	-1.686038e+02
1.400000e-07	-5.367594e-06	-2.685433e-09	-3.813285e+01	-1.686941e+02
1.500000e-07	-5.361909e-06	-2.748384e-09	-3.809246e+01	-1.687949e+02
1.600000e-07	-5.355863e-06	-2.533205e-09	-3.804951e+01	-1.689051e+02
1.700000e-07	-5.349531e-06	-2.459365e-09	-3.800453e+01	-1.690237e+02
1.800000e-07	-5.342828e-06	-2.652493e-09	-3.795691e+01	-1.691490e+02
1.900000e-07	-5.335761e-06	-2.727540e-09	-3.790670e+01	-1.692796e+02
2.000000e-07	-5.328413e-06	-2.586503e-09	-3.785450e+01	-1.694138e+02
2.100000e-07	-5.320749e-06	-2.616853e-09	-3.780005e+01	-1.695500e+02
2.200000e-07	-5.312820e-06	-2.753760e-09	-3.774372e+01	-1.696862e+02
2.300000e-07	-5.304520e-06	-2.722479e-09	-3.768475e+01	-1.698207e+02
2.400000e-07	-5.295686e-06	-2.606619e-09	-3.762199e+01	-1.699517e+02
2.500000e-07	-5.286348e-06	-2.698214e-09	-3.755566e+01	-1.700774e+02
2.600000e-07	-5.276515e-06	-2.754113e-09	-3.748580e+01	-1.701959e+02
2.700000e-07	-5.266182e-06	-2.634556e-09	-3.741239e+01	-1.703058e+02
2.800000e-07	-5.255206e-06	-2.612510e-09	-3.733441e+01	-1.704053e+02
2.900000e-07	-5.243737e-06	-2.762932e-09	-3.725294e+01	-1.704931e+02
3.000000e-07	-5.231904e-06	-2.724448e-09	-3.716887e+01	-1.705678e+02
3.100000e-07	-5.219663e-06	-2.595419e-09	-3.708191e+01	-1.706284e+02
3.200000e-07	-5.207047e-06	-2.649610e-09	-3.699228e+01	-1.706738e+02
3.300000e-07	-5.194102e-06	-2.738856e-09	-3.690032e+01	-1.707033e+02
3.400000e-07	-5.180881e-06	-2.652723e-09	-3.680639e+01	-1.707163e+02
3.500000e-07	-5.167252e-06	-2.622839e-09	-3.670956e+01	-1.707124e+02
3.600000e-07	-5.153065e-06	-2.676385e-09	-3.660878e+01	-1.706914e+02
3.700000e-07	-5.138396e-06	-2.654041e-09	-3.650457e+01	-1.706533e+02
3.800000e-07	-5.123400e-06	-2.622408e-09	-3.639803e+01	-1.705982e+02
3.900000e-07	-5.107931e-06	-2.672694e-09	-3.628813e+01	-1.705265e+02
4.000000e-07	-5.091839e-06	-2.651745e-09	-3.617381e+01	-1.704387e+02
4.100000e-07	-5.075282e-06	-2.588569e-09	-3.605619e+01	-1.703354e+02
4.200000e-07	-5.058378e-06	-2.636820e-09	-3.593610e+01	-1.702174e+02
4.300000e-07	-5.041155e-06	-2.668961e-09	-3.581374e+01	-1.700856e+02
4.400000e-07	-5.023692e-06	-2.602142e-09	-3.568968e+01	-1.699408e+02
4.500000e-07	-5.005931e-06	-2.578053e-09	-3.556350e+01	-1.697841e+02
4.600000e-07	-4.987724e-06	-2.632577e-09	-3.543415e+01	-1.696166e+02
4.700000e-07	-4.969121e-06	-2.633509e-09	-3.530199e+01	-1.694393e+02
4.800000e-07	-4.950227e-06	-2.611511e-09	-3.516776e+01	-1.692534e+02
4.900000e-07	-4.930962e-06	-2.602426e-09	-3.503090e+01	-1.690598e+02
5.000000e-07	-4.911287e-06	-2.606519e-09	-3.489112e+01	-1.688596e+02
5.100000e-07	-4.891368e-06	-2.615909e-09	-3.474961e+01	-1.686537e+02
5.200000e-07	-4.871237e-06	-2.623316e-09	-3.460660e+01	-1.684431e+02
5.300000e-07	-4.850824e-06	-2.582887e-09	-3.446158e+01	-1.682286e+02
5.400000e-07	-4.830162e-06	-2.571918e-09	-3.431479e+01	-1.680108e+02
5.500000e-07	-4.809188e-06	-2.601984e-09	-3.416578e+01	-1.677905e+02
5.600000e-07	-4.787865e-06	-2.610084e-09	-3.401430e+01	-1.675681e+02
5.700000e-07	-4.766269e-06	-2.581710e-09	-3.386087e+01	-1.673441e+02
5.800000e-07	-4.744347e-06	-2.578912e-09	-3.370514e+01	-1.671187e+02
5.900000e-07	-4.722080e-06	-2.585190e-09	-3.354695e+01	-1.668921e+02
6.000000e-07	-4.699488e-06	-2.589086e-09	-3.338645e+01	-1.666646e+02
6.100000e-07	-4.676591e-06	-2.573859e-09	-3.322378e+01	-1.664360e+02
6.200000e-07	-4.653355e-06	-2.545281e-09	-3.305871e+01	-1.662064e+02
6.300000e-07	-4.629764e-06	-2.536461e-09	-3.289111e+01	-1.659756e+02
6.400000e-07	-4.605913e-06	-2.561250e-09	-3.272166e+01	-1.657434e+02
6.500000e-07	-4.581821e-06	-2.561750e-09	-3.255051e+01	-1.655095e+02
6.600000e-07	-4.557483e-06	-2.539163e-09	-3.237760e+01	-1.652736e+02
6.700000e-07	-4.532911e-06	-2.538016e-09	-3.220303e+01	-1.650355e+02
6.800000e-07	-4.507889e-06	-2.553755e-09	-3.202527e+01	-1.647949e+02
6.900000e-07	-4.482375e-06	-2.549692e-09	-3.184402e+01	-1.645513e+02
7.000000e-07	-4.456424e-06	-2.527271e-09	-3.165965e+01	-1.643044e+02
7.100000e-07	-4.430000e-06	-2.512213e-09	-3.147192e+01	-1.640541e+02
7.200000e-07	-4.403120e-06	-2.516054e-09	-3.128097e+01	-1.637999e+02
7.300000e-07	-4.375830e-06	-2.524832e-09	-3.108709e+01	-1.635417e+02
7.400000e-07	-4.348265e-06	-2.511396e-09	-3.089126e+01	-1.632793e+02
7.500000e-07	-4.320466e-06	-2.496534e-09	-3.069376e+01	-1.630125e+02
7.600000e-07	-4.292399e-06	-2.500019e-09	-3.049437e+01	-1.627412e+02
7.700000e-07	-4.264077e-06	-2.508303e-09	-3.029317e+01	-1.624654e+02
7.800000e-07	-4.235514e-06	-2.494492e-09	-3.009024e+01	-1.621850e+02
7.900000e-07	-4.206680e-06	-2.476284e-09	-2.988540e+01	-1.619002e+02
8.000000e-07	-4.177595e-06	-2.470543e-09	-2.967877e+01	-1.616109e+02
8.100000e-07	-4.148253e-06	-2.479081e-09	-2.947032e+01	-1.613173e+02
8.200000e-07	-4.118625e-06	-2.476272e-09	-2.925983e+01	-1.610196e+02
8.300000e-07	-4.088673e-06	-2.462071e-09	-2.904705e+01	-1.607179e+02
8.400000e-07	-4.058400e-06	-2.449833e-09	-2.883198e+01	-1.604124e+02
8.500000e-07	-4.027848e-06	-2.453571e-09	-2.861493e+01	-1.601033e+02
8.600000e-07	-3.997067e-06	-2.451116e-09	-2.839626e+01	-1.597909e+02
8.700000e-07	-3.966110e-06	-2.437357e-09	-2.817633e+01	-1.594753e+02
8.800000e-07	-3.934869e-06	-2.422867e-09	-2.795438e+01	-1.591567e+02
8.900000e-07	-3.903268e-06	-2.427734e-09	-2.772988e+01	-1.588354e+02
9.000000e-07	-3.871470e-06	-2.434073e-09	-2.750398e+01	-1.585114e+02
9.100000e-07	-3.839584e-06	-2.425059e-09	-2.727745e+01	-1.581849e+02
9.200000e-07	-3.807432e-06	-2.405236e-09	-2.704903e+01	-1.578560e+02
9.300000e-07	-3.775010e-06	-2.396215e-09	-2.681870e+01	-1.575247e+02
9.400000e-07	-3.742408e-06	-2.396175e-09	-2.658709e+01	-1.571911e+02
9.500000e-07	-3.709479e-06	-2.392397e-09	-2.635315e+01	-1.568551e+02
9.600000e-07	-3.676110e-06	-2.383593e-09	-2.611609e+01	-1.565168e+02
9.700000e-07	-3.642371e-06	-2.381419e-09	-2.587639e+01	-1.561759e+02
9.800000e-07	-3.608291e-06	-2.384606e-09	-2.563429e+01	-1.558324e+02
9.900000e-07	-3.573879e-06	-2.378836e-09	-2.538981e+01	-1.554862e+02
1.000000e-06	-3.539134e-06	-2.363630e-09	-2.514297e+01	-1.551371e+02
1.010000e-06	-3.503976e-06	-2.349322e-09	-2.489320e+01	-1.547848e+02
1.020000e-06	-3.468480e-06	-2.341370e-09	-2.464103e+01	-1.544292e+02
1.030000e-06	-3.432755e-06	-2.336427e-09	-2.438723e+01	-1.540701e+02
1.040000e-06	-3.396891e-06	-2.333905e-09	-2.413244e+01	-1.537072e+02
1.050000e-06	-3.360909e-06	-2.330254e-09	-2.387681e+01	-1.533404e+02
1.060000e-06	-3.324727e-06	-2.326904e-09	-2.361976e+01	-1.529694e+02
1.070000e-06	-3.288348e-06	-2.318557e-09	-2.336132e+01	-1.525939e+02
1.080000e-06	-3.251764e-06	-2.304420e-09	-2.310142e+01	-1.522139e+02
1.090000e-06	-3.214911e-06	-2.288324e-09	-2.283960e+01	-1.518292e+02
1.100000e-06	-3.177874e-06	-2.281495e-09	-2.257649e+01	-1.514395e+02
1.110000e-06	-3.140704e-06	-2.278544e-09	-2.231242e+01	-1.510448e+02
1.120000e-06	-3.103278e-06	-2.273267e-09	-2.204653e+01	-1.506448e+02
1.130000e-06	-3.065628e-06	-2.264387e-09	-2.177905e+01	-1.502397e+02
1.140000e-06	-3.027764e-06	-2.259780e-09	-2.151006e+01	-1.498291e+02
1.150000e-06	-2.989687e-06	-2.254406e-09	-2.123955e+01	-1.494132e+02
1.160000e-06	-2.951379e-06	-2.244413e-09	-2.096740e+01	-1.489917e+02
1.170000e-06	-2.912830e-06	-2.229630e-09	-2.069354e+01	-1.485647e+02
1.180000e-06	-2.874157e-06	-2.218724e-09	-2.041880e+01	-1.481321e+02
1.190000e-06	-2.835346e-06	-2.212607e-09	-2.014307e+01	-1.476939e+02
1.200000e-06	-2.796254e-06	-2.206881e-09	-1.986535e+01	-1.472500e+02
1.210000e-06	-2.756869e-06	-2.198908e-09	-1.958555e+01	-1.468004e+02
1.220000e-06	-2.717363e-06	-2.193735e-09	-1.930489e+01	-1.463448e+02
1.230000e-06	-2.677743e-06	-2.189990e-09	-1.902342e+01	-1.458833e+02
1.240000e-06	-2.638029e-06	-2.184752e-09	-1.874128e+01	-1.454158e+02
1.250000e-06	-2.598209e-06	-2.177120e-09	-1.845839e+01	-1.449419e+02
1.260000e-06	-2.558217e-06	-2.165874e-09	-1.817427e+01	-1.444616e+02
1.270000e-06	-2.518134e-06	-2.154784e-09	-1.788951e+01	-1.439746e+02
1.280000e-06	-2.477904e-06	-2.147163e-09	-1.760370e+01	-1.434806e+02
1.290000e-06	-2.437517e-06	-2.140535e-09	-1.731679e+01	-1.429794e+02
1.300000e-06	-2.396978e-06	-2.130477e-09	-1.702879e+01	-1.424706e+02
1.310000e-06	-2.356183e-06	-2.120415e-09	-1.673897e+01	-1.419538e+02
1.320000e-06	-2.315211e-06	-2.114724e-09	-1.644789e+01	-1.414286e+02
1.330000e-06	-2.274050e-06	-2.111606e-09	-1.615547e+01	-1.408947e+02
1.340000e-06	-2.232568e-06	-2.104996e-09	-1.586077e+01	-1.403515e+02
1.350000e-06	-2.190862e-06	-2.094725e-09	-1.556448e+01	-1.397986e+02
1.360000e-06	-2.148970e-06	-2.081704e-09	-1.526687e+01	-1.392355e+02
1.370000e-06	-2.106746e-06	-2.068484e-09	-1.496690e+01	-1.386617e+02
1.380000e-06	-2.064194e-06	-2.055184e-09	-1.466460e+01	-1.380768e+02
1.390000e-06	-2.021403e-06	-2.042299e-09	-1.436060e+01	-1.374803e+02
1.400000e-06	-1.978448e-06	-2.032135e-09	-1.405543e+01	-1.368718e+02
1.410000e-06	-1.935320e-06	-2.028117e-09	-1.374904e+01	-1.362507e+02
1.420000e-06	-1.892021e-06	-2.023246e-09	-1.344144e+01	-1.356167e+02
1.430000e-06	-1.848617e-06	-2.012710e-09	-1.313308e+01	-1.349693e+02
1.440000e-06	-1.805124e-06	-1.995582e-09	-1.282410e+01	-1.343083e+02
1.450000e-06	-1.761452e-06	-1.980361e-09	-1.251383e+01	-1.336333e+02
1.460000e-06	-1.717602e-06	-1.971004e-09	-1.220231e+01	-1.329440e+02
1.470000e-06	-1.673726e-06	-1.961037e-09	-1.189060e+01	-1.322400e+02
1.480000e-06	-1.629816e-06	-1.947248e-09	-1.157865e+01	-1.315213e+02
1.490000e-06	-1.585776e-06	-1.935371e-09	-1.126578e+01	-1.307876e+02
1.500000e-06	-1.541569e-06	-1.927588e-09	-1.095173e+01	-1.300386e+02
1.510000e-06	-1.497287e-06	-1.918953e-09	-1.063714e+01	-1.292743e+02
1.520000e-06	-1.453019e-06	-1.904447e-09	-1.032264e+01	-1.284944e+02
1.530000e-06	-1.408734e-06	-1.885390e-09	-1.000803e+01	-1.276988e+02
1.540000e-06	-1.364403e-06	-1.869342e-09	-9.693091e+00	-1.268873e+02
1.550000e-06	-1.319968e-06	-1.857118e-09	-9.377413e+00	-1.260598e+02
1.560000e-06	-1.275465e-06	-1.843348e-09	-9.061254e+00	-1.252159e+02
1.570000e-06	-1.230919e-06	-1.829602e-09	-8.744787e+00	-1.243556e+02
1.580000e-06	-1.186266e-06	-1.819099e-09	-8.427560e+00	-1.234784e+02
1.590000e-06	-1.141515e-06	-1.810533e-09	-8.109635e+00	-1.225841e+02
1.600000e-06	-1.096653e-06	-1.797496e-09	-7.790925e+00	-1.216722e+02
1.610000e-06	-1.051676e-06	-1.776116e-09	-7.471393e+00	-1.207423e+02
1.620000e-06	-1.006636e-06	-1.755492e-09	-7.151416e+00	-1.197937e+02
1.630000e-06	-9.615481e-07	-1.738568e-09	-6.831100e+00	-1.188259e+02
1.640000e-06	-9.164434e-07	-1.722814e-09	-6.510664e+00	-1.178381e+02
1.650000e-06	-8.712941e-07	-1.708408e-09	-6.189911e+00	-1.168294e+02
1.660000e-06	-8.260818e-07	-1.699169e-09	-5.868710e+00	-1.157991e+02
1.670000e-06	-7.807972e-07	-1.691833e-09	-5.546996e+00	-1.147460e+02
1.680000e-06	-7.353974e-07	-1.677446e-09	-5.224463e+00	-1.136690e+02
1.690000e-06	-6.899472e-07	-1.653319e-09	-4.901573e+00	-1.125670e+02
1.700000e-06	-6.444723e-07	-1.623763e-09	-4.578507e+00	-1.114387e+02
1.710000e-06	-5.989313e-07	-1.597538e-09	-4.254971e+00	-1.102827e+02
1.720000e-06	-5.533199e-07	-1.577316e-09	-3.930935e+00	-1.090977e+02
1.730000e-06	-5.076660e-07	-1.559406e-09	-3.606598e+00	-1.078821e+02
1.740000e-06	-4.619819e-07	-1.545022e-09	-3.282046e+00	-1.066344e+02
1.750000e-06	-4.161864e-07	-1.535143e-09	-2.956702e+00	-1.053531e+02
1.760000e-06	-3.703334e-07	-1.523388e-09	-2.630949e+00	-1.040367e+02
1.770000e-06	-3.245221e-07	-1.499889e-09	-2.305493e+00	-1.026834e+02
1.780000e-06	-2.786468e-07	-1.467292e-09	-1.979583e+00	-1.012918e+02
1.790000e-06	-2.327525e-07	-1.437345e-09	-1.653537e+00	-9.986036e+01
1.800000e-06	-1.869078e-07	-1.411564e-09	-1.327844e+00	-9.838743e+01
1.810000e-06	-1.410792e-07	-1.388119e-09	-1.002265e+00	-9.687157e+01
1.820000e-06	-9.522884e-08	-1.368931e-09	-6.765316e-01	-9.531135e+01
1.830000e-06	-4.938616e-08	-1.352804e-09	-3.508528e-01	-9.370540e+01
1.840000e-06	-3.592524e-09	-1.334109e-09	-2.552227e-02	-9.205240e+01
1.850000e-06	4.224811e-08	-1.308374e-09	3.001421e-01	-9.035115e+01
1.860000e-06	8.817163e-08	-1.274576e-09	6.263953e-01	-8.860052e+01
1.870000e-06	1.340784e-07	-1.240286e-09	9.525296e-01	-8.679946e+01
1.880000e-06	1.799874e-07	-1.210384e-09	1.278680e+00	-8.494704e+01
1.890000e-06	2.258645e-07	-1.183231e-09	1.604603e+00	-8.304242e+01
1.900000e-06	2.716548e-07	-1.155036e-09	1.929910e+00	-8.108486e+01
1.910000e-06	3.174768e-07	-1.126535e-09	2.255442e+00	-7.907372e+01
1.920000e-06	3.633427e-07	-1.098440e-09	2.581286e+00	-7.700846e+01
1.930000e-06	4.091632e-07	-1.067289e-09	2.906807e+00	-7.488866e+01
1.940000e-06	4.549079e-07	-1.031820e-09	3.231790e+00	-7.271397e+01
1.950000e-06	5.005377e-07	-9.961098e-10	3.555956e+00	-7.048416e+01
1.960000e-06	5.461155e-07	-9.639113e-10	3.879753e+00	-6.819906e+01
1.970000e-06	5.917491e-07	-9.338170e-10	4.203947e+00	-6.585861e+01
1.980000e-06	6.373486e-07	-9.026587e-10	4.527898e+00	-6.346285e+01
1.990000e-06	6.828633e-07	-8.683515e-10	4.851247e+00	-6.101187e+01
2.000000e-06	7.283766e-07	-8.321160e-10	5.174586e+00	-5.850587e+01
2.010000e-06	7.738538e-07	-7.941126e-10	5.497668e+00	-5.594513e+01
2.020000e-06	8.192089e-07	-7.532025e-10	5.819883e+00	-5.332999e+01
2.030000e-06	8.644677e-07	-7.102686e-10	6.141414e+00	-5.066089e+01
2.040000e-06	9.096939e-07	-6.700465e-10	6.462714e+00	-4.793837e+01
2.050000e-06	9.548906e-07	-6.322517e-10	6.783803e+00	-4.516304e+01
2.060000e-06	9.999537e-07	-5.944948e-10	7.103944e+00	-4.233562e+01
2.070000e-06	1.044879e-06	-5.558531e-10	7.423104e+00	-3.945692e+01
2.080000e-06	1.089704e-06	-5.156375e-10	7.741554e+00	-3.652786e+01
2.090000e-06	1.134386e-06	-4.718595e-10	8.058984e+00	-3.354950e+01
2.100000e-06	1.178986e-06	-4.259750e-10	8.375840e+00	-3.052301e+01
2.110000e-06	1.223558e-06	-3.777935e-10	8.692492e+00	-2.744970e+01
2.120000e-06	1.268075e-06	-3.307030e-10	9.008753e+00	-2.433102e+01
2.130000e-06	1.312489e-06	-2.881326e-10	9.324277e+00	-2.116860e+01
2.140000e-06	1.356832e-06	-2.449830e-10	9.639302e+00	-1.796421e+01
2.150000e-06	1.401138e-06	-1.976275e-10	9.954069e+00	-1.471982e+01
2.160000e-06	1.445405e-06	-1.473883e-10	1.026855e+01	-1.143758e+01
2.170000e-06	1.489611e-06	-9.592968e-11	1.058260e+01	-8.119807e+00
2.180000e-06	1.533733e-06	-4.505029e-11	1.089605e+01	-4.769045e+00
2.190000e-06	1.577802e-06	5.537355e-12	1.120914e+01	-1.388021e+00
2.200000e-06	1.621866e-06	5.503460e-11	1.152218e+01	2.020335e+00
2.210000e-06	1.665880e-06	1.032829e-10	1.183486e+01	5.452895e+00
2.220000e-06	1.709793e-06	1.514532e-10	1.214683e+01	8.906337e+00
2.230000e-06	1.753668e-06	2.022924e-10	1.245853e+01	1.237715e+01
2.240000e-06	1.797467e-06	2.557673e-10	1.276969e+01	1.586166e+01
2.250000e-06	1.841148e-06	3.090611e-10	1.308002e+01	1.935600e+01
2.260000e-06	1.884717e-06	3.628271e-10	1.338954e+01	2.285619e+01
2.270000e-06	1.928168e-06	4.160763e-10	1.369823e+01	2.635809e+01
2.280000e-06	1.971434e-06	4.691155e-10	1.400560e+01	2.985748e+01
2.290000e-06	2.014468e-06	5.219813e-10	1.431133e+01	3.335004e+01
2.300000e-06	2.057227e-06	5.748289e-10	1.461510e+01	3.683138e+01
2.310000e-06	2.099724e-06	6.247209e-10	1.491701e+01	4.029711e+01
2.320000e-06	2.141962e-06	6.723908e-10	1.521708e+01	4.374282e+01
2.330000e-06	2.183901e-06	7.200446e-10	1.551503e+01	4.716413e+01
2.340000e-06	2.225583e-06	7.677053e-10	1.581115e+01	5.055672e+01
2.350000e-06	2.266891e-06	8.164918e-10	1.610461e+01	5.391638e+01
2.360000e-06	2.307840e-06	8.686616e-10	1.639553e+01	5.723899e+01
2.370000e-06	2.348517e-06	9.200564e-10	1.668451e+01	6.052062e+01
2.380000e-06	2.388994e-06	9.691001e-10	1.697207e+01	6.375748e+01
2.390000e-06	2.429395e-06	1.014812e-09	1.725909e+01	6.694604e+01
2.400000e-06	2.469667e-06	1.056996e-09	1.754519e+01	7.008295e+01
2.410000e-06	2.509779e-06	1.096432e-09	1.783016e+01	7.316515e+01
2.420000e-06	2.549778e-06	1.134937e-09	1.811432e+01	7.618986e+01
2.430000e-06	2.589761e-06	1.176078e-09	1.839837e+01	7.915455e+01
2.440000e-06	2.629732e-06	1.219749e-09	1.868233e+01	8.205705e+01
2.450000e-06	2.669538e-06	1.263277e-09	1.896513e+01	8.489546e+01
2.460000e-06	2.709184e-06	1.305134e-09	1.924678e+01	8.766822e+01
2.470000e-06	2.748676e-06	1.346692e-09	1.952734e+01	9.037408e+01
2.480000e-06	2.787982e-06	1.386670e-09	1.980659e+01	9.301211e+01
2.490000e-06	2.827091e-06	1.422742e-09	2.008442e+01	9.558169e+01
2.500000e-06	2.865830e-06	1.455303e-09	2.035964e+01	9.808249e+01
2.510000e-06	2.904288e-06	1.487227e-09	2.063286e+01	1.005145e+02
2.520000e-06	2.942601e-06	1.520784e-09	2.090504e+01	1.028779e+02
2.530000e-06	2.980739e-06	1.555924e-09	2.117598e+01	1.051733e+02
2.540000e-06	3.018733e-06	1.591353e-09	2.144590e+01	1.074013e+02
2.550000e-06	3.056578e-06	1.627939e-09	2.171476e+01	1.095629e+02
2.560000e-06	3.094261e-06	1.661464e-09	2.198247e+01	1.116591e+02
2.570000e-06	3.131719e-06	1.688824e-09	2.224859e+01	1.136914e+02
2.580000e-06	3.168929e-06	1.711713e-09	2.251294e+01	1.156609e+02
2.590000e-06	3.205920e-06	1.733832e-09	2.277573e+01	1.175693e+02
2.600000e-06	3.242678e-06	1.758583e-09	2.303687e+01	1.194181e+02
2.610000e-06	3.279132e-06	1.786247e-09	2.329584e+01	1.212090e+02
2.620000e-06	3.315373e-06	1.813366e-09	2.355332e+01	1.229435e+02
2.630000e-06	3.351477e-06	1.839467e-09	2.380980e+01	1.246235e+02
2.640000e-06	3.387440e-06	1.864595e-09	2.406530e+01	1.262504e+02
2.650000e-06	3.423289e-06	1.887036e-09	2.431998e+01	1.278261e+02
2.660000e-06	3.459041e-06	1.905341e-09	2.457397e+01	1.293519e+02
2.670000e-06	3.494678e-06	1.921525e-09	2.482714e+01	1.308294e+02
2.680000e-06	3.530107e-06	1.937320e-09	2.507884e+01	1.322602e+02
2.690000e-06	3.565196e-06	1.954361e-09	2.532812e+01	1.336454e+02
2.700000e-06	3.599719e-06	1.974853e-09	2.557339e+01	1.349865e+02
2.710000e-06	3.633780e-06	1.997552e-09	2.581537e+01	1.362846e+02
2.720000e-06	3.667430e-06	2.018934e-09	2.605442e+01	1.375408e+02
2.730000e-06	3.700599e-06	2.036674e-09	2.629006e+01	1.387562e+02
2.740000e-06	3.733379e-06	2.051006e-09	2.652294e+01	1.399318e+02
2.750000e-06	3.765885e-06	2.064438e-09	2.675387e+01	1.410683e+02
2.760000e-06	3.798212e-06	2.078676e-09	2.698353e+01	1.421667e+02
2.770000e-06	3.830341e-06	2.092633e-09	2.721179e+01	1.432277e+02
2.780000e-06	3.862282e-06	2.105961e-09	2.743870e+01	1.442520e+02
2.790000e-06	3.894081e-06	2.122225e-09	2.766461e+01	1.452404e+02
2.800000e-06	3.925771e-06	2.141690e-09	2.788975e+01	1.461935e+02
2.810000e-06	3.957245e-06	2.158576e-09	2.811335e+01	1.471121e+02
2.820000e-06	3.988291e-06	2.170171e-09	2.833391e+01	1.479966e+02
2.830000e-06	4.018963e-06	2.179639e-09	2.855181e+01	1.488480e+02
2.840000e-06	4.049433e-06	2.192156e-09	2.876827e+01	1.496667e+02
2.850000e-06	4.079623e-06	2.206608e-09	2.898275e+01	1.504537e+02
2.860000e-06	4.109521e-06	2.219544e-09	2.919516e+01	1.512095e+02
2.870000e-06	4.139136e-06	2.230766e-09	2.940555e+01	1.519350e+02
2.880000e-06	4.168551e-06	2.241533e-09	2.961452e+01	1.526311e+02
2.890000e-06	4.197691e-06	2.251312e-09	2.982154e+01	1.532984e+02
2.900000e-06	4.226409e-06	2.257972e-09	3.002556e+01	1.539381e+02
