# Temperatura_=_-2.0
# Concentracion g/m^3_=_4090.0
# C_Vs_to_Am_M_A/Vsm_=_65563218390.804596
# pendiente_HvsI_1/m_=_3716.3
# ordenada_HvsI_A/m_=_1297.0
# frecuencia_Hz_=_135070.7334896712

Tiempo_(s)	Campo_(V.s)	Magnetizacion_(V.s)	Campo_(kA/m)	Magnetizacion_(A/m)
0.000000e+00	-5.392731e-06	-2.285275e-09	-3.840251e+01	-1.489352e+02
1.000000e-08	-5.392741e-06	-2.286372e-09	-3.840257e+01	-1.488646e+02
2.000000e-08	-5.392487e-06	-2.284218e-09	-3.840077e+01	-1.488002e+02
3.000000e-08	-5.391974e-06	-2.279517e-09	-3.839711e+01	-1.487437e+02
4.000000e-08	-5.391032e-06	-2.273205e-09	-3.839041e+01	-1.486966e+02
5.000000e-08	-5.389510e-06	-2.268890e-09	-3.837957e+01	-1.486603e+02
6.000000e-08	-5.387334e-06	-2.272210e-09	-3.836407e+01	-1.486363e+02
7.000000e-08	-5.384556e-06	-2.274152e-09	-3.834429e+01	-1.486255e+02
8.000000e-08	-5.381197e-06	-2.249559e-09	-3.832037e+01	-1.486286e+02
9.000000e-08	-5.377307e-06	-2.263281e-09	-3.829267e+01	-1.486464e+02
1.000000e-07	-5.373103e-06	-2.330431e-09	-3.826273e+01	-1.486792e+02
1.100000e-07	-5.368756e-06	-2.287610e-09	-3.823178e+01	-1.487268e+02
1.200000e-07	-5.364295e-06	-2.216860e-09	-3.820001e+01	-1.487892e+02
1.300000e-07	-5.359385e-06	-2.239643e-09	-3.816505e+01	-1.488658e+02
1.400000e-07	-5.353961e-06	-2.320815e-09	-3.812642e+01	-1.489558e+02
1.500000e-07	-5.348311e-06	-2.298167e-09	-3.808618e+01	-1.490582e+02
1.600000e-07	-5.342313e-06	-2.157936e-09	-3.804347e+01	-1.491718e+02
1.700000e-07	-5.335830e-06	-2.254909e-09	-3.799730e+01	-1.492950e+02
1.800000e-07	-5.328982e-06	-2.354793e-09	-3.794854e+01	-1.494262e+02
1.900000e-07	-5.321926e-06	-2.324804e-09	-3.789829e+01	-1.495635e+02
2.000000e-07	-5.314615e-06	-2.210797e-09	-3.784623e+01	-1.497052e+02
2.100000e-07	-5.306959e-06	-2.303993e-09	-3.779171e+01	-1.498490e+02
2.200000e-07	-5.299042e-06	-2.366777e-09	-3.773533e+01	-1.499929e+02
2.300000e-07	-5.290885e-06	-2.305827e-09	-3.767724e+01	-1.501348e+02
2.400000e-07	-5.282245e-06	-2.277839e-09	-3.761572e+01	-1.502727e+02
2.500000e-07	-5.272923e-06	-2.367370e-09	-3.754933e+01	-1.504044e+02
2.600000e-07	-5.262892e-06	-2.372709e-09	-3.747790e+01	-1.505281e+02
2.700000e-07	-5.252290e-06	-2.281784e-09	-3.740240e+01	-1.506420e+02
2.800000e-07	-5.241247e-06	-2.317094e-09	-3.732376e+01	-1.507444e+02
2.900000e-07	-5.229755e-06	-2.380970e-09	-3.724193e+01	-1.508338e+02
3.000000e-07	-5.217867e-06	-2.321085e-09	-3.715727e+01	-1.509089e+02
3.100000e-07	-5.205602e-06	-2.254122e-09	-3.706993e+01	-1.509687e+02
3.200000e-07	-5.192958e-06	-2.361685e-09	-3.697989e+01	-1.510123e+02
3.300000e-07	-5.179928e-06	-2.359466e-09	-3.688710e+01	-1.510391e+02
3.400000e-07	-5.166539e-06	-2.273523e-09	-3.679176e+01	-1.510488e+02
3.500000e-07	-5.152749e-06	-2.281130e-09	-3.669355e+01	-1.510412e+02
3.600000e-07	-5.138528e-06	-2.363456e-09	-3.659229e+01	-1.510166e+02
3.700000e-07	-5.123862e-06	-2.292639e-09	-3.648784e+01	-1.509751e+02
3.800000e-07	-5.108658e-06	-2.265438e-09	-3.637958e+01	-1.509175e+02
3.900000e-07	-5.092779e-06	-2.312389e-09	-3.626650e+01	-1.508443e+02
4.000000e-07	-5.076444e-06	-2.312428e-09	-3.615017e+01	-1.507566e+02
4.100000e-07	-5.059833e-06	-2.257795e-09	-3.603188e+01	-1.506554e+02
4.200000e-07	-5.042878e-06	-2.307815e-09	-3.591114e+01	-1.505419e+02
4.300000e-07	-5.025620e-06	-2.308100e-09	-3.578825e+01	-1.504173e+02
4.400000e-07	-5.008150e-06	-2.262447e-09	-3.566384e+01	-1.502831e+02
4.500000e-07	-4.990361e-06	-2.270861e-09	-3.553716e+01	-1.501406e+02
4.600000e-07	-4.972160e-06	-2.313088e-09	-3.540755e+01	-1.499911e+02
4.700000e-07	-4.953605e-06	-2.269742e-09	-3.527542e+01	-1.498362e+02
4.800000e-07	-4.934707e-06	-2.257484e-09	-3.514084e+01	-1.496770e+02
4.900000e-07	-4.915419e-06	-2.284252e-09	-3.500349e+01	-1.495149e+02
5.000000e-07	-4.895790e-06	-2.278103e-09	-3.486371e+01	-1.493511e+02
5.100000e-07	-4.875920e-06	-2.257907e-09	-3.472221e+01	-1.491865e+02
5.200000e-07	-4.855836e-06	-2.267089e-09	-3.457919e+01	-1.490223e+02
5.300000e-07	-4.835488e-06	-2.260399e-09	-3.443429e+01	-1.488592e+02
5.400000e-07	-4.814770e-06	-2.253115e-09	-3.428675e+01	-1.486979e+02
5.500000e-07	-4.793743e-06	-2.265066e-09	-3.413702e+01	-1.485389e+02
5.600000e-07	-4.772440e-06	-2.252828e-09	-3.398531e+01	-1.483826e+02
5.700000e-07	-4.750808e-06	-2.239141e-09	-3.383127e+01	-1.482293e+02
5.800000e-07	-4.728863e-06	-2.245487e-09	-3.367499e+01	-1.480791e+02
5.900000e-07	-4.706628e-06	-2.248366e-09	-3.351666e+01	-1.479319e+02
6.000000e-07	-4.684046e-06	-2.232249e-09	-3.335584e+01	-1.477877e+02
6.100000e-07	-4.661068e-06	-2.234081e-09	-3.319221e+01	-1.476460e+02
6.200000e-07	-4.637682e-06	-2.226399e-09	-3.302568e+01	-1.475067e+02
6.300000e-07	-4.613951e-06	-2.228918e-09	-3.285669e+01	-1.473692e+02
6.400000e-07	-4.590076e-06	-2.228815e-09	-3.268667e+01	-1.472330e+02
6.500000e-07	-4.566091e-06	-2.222992e-09	-3.251587e+01	-1.470976e+02
6.600000e-07	-4.541867e-06	-2.205957e-09	-3.234337e+01	-1.469625e+02
6.700000e-07	-4.517351e-06	-2.216977e-09	-3.216878e+01	-1.468269e+02
6.800000e-07	-4.492492e-06	-2.213753e-09	-3.199176e+01	-1.466904e+02
6.900000e-07	-4.467082e-06	-2.207157e-09	-3.181081e+01	-1.465524e+02
7.000000e-07	-4.440963e-06	-2.200537e-09	-3.162481e+01	-1.464122e+02
7.100000e-07	-4.414351e-06	-2.205326e-09	-3.143530e+01	-1.462695e+02
7.200000e-07	-4.387450e-06	-2.198224e-09	-3.124374e+01	-1.461237e+02
7.300000e-07	-4.360175e-06	-2.198172e-09	-3.104951e+01	-1.459744e+02
7.400000e-07	-4.332533e-06	-2.187373e-09	-3.085266e+01	-1.458214e+02
7.500000e-07	-4.304703e-06	-2.185577e-09	-3.065448e+01	-1.456643e+02
7.600000e-07	-4.276699e-06	-2.185705e-09	-3.045506e+01	-1.455030e+02
7.700000e-07	-4.248459e-06	-2.183975e-09	-3.025396e+01	-1.453373e+02
7.800000e-07	-4.219943e-06	-2.172785e-09	-3.005089e+01	-1.451672e+02
7.900000e-07	-4.191160e-06	-2.169238e-09	-2.984593e+01	-1.449927e+02
8.000000e-07	-4.162055e-06	-2.168238e-09	-2.963866e+01	-1.448140e+02
8.100000e-07	-4.132614e-06	-2.169116e-09	-2.942901e+01	-1.446310e+02
8.200000e-07	-4.102930e-06	-2.168162e-09	-2.921762e+01	-1.444439e+02
8.300000e-07	-4.072979e-06	-2.163938e-09	-2.900434e+01	-1.442531e+02
8.400000e-07	-4.042813e-06	-2.160317e-09	-2.878952e+01	-1.440587e+02
8.500000e-07	-4.012426e-06	-2.157866e-09	-2.857313e+01	-1.438610e+02
8.600000e-07	-3.981657e-06	-2.151704e-09	-2.835402e+01	-1.436602e+02
8.700000e-07	-3.950599e-06	-2.142131e-09	-2.813285e+01	-1.434567e+02
8.800000e-07	-3.919362e-06	-2.139598e-09	-2.791041e+01	-1.432507e+02
8.900000e-07	-3.887891e-06	-2.141998e-09	-2.768630e+01	-1.430425e+02
9.000000e-07	-3.856253e-06	-2.146625e-09	-2.746100e+01	-1.428324e+02
9.100000e-07	-3.824464e-06	-2.141327e-09	-2.723462e+01	-1.426205e+02
9.200000e-07	-3.792415e-06	-2.137788e-09	-2.700639e+01	-1.424070e+02
9.300000e-07	-3.760111e-06	-2.131932e-09	-2.677636e+01	-1.421922e+02
9.400000e-07	-3.727557e-06	-2.129507e-09	-2.654454e+01	-1.419763e+02
9.500000e-07	-3.694695e-06	-2.121781e-09	-2.631052e+01	-1.417592e+02
9.600000e-07	-3.661571e-06	-2.119820e-09	-2.607464e+01	-1.415411e+02
9.700000e-07	-3.628083e-06	-2.119283e-09	-2.583616e+01	-1.413221e+02
9.800000e-07	-3.594021e-06	-2.120754e-09	-2.559360e+01	-1.411022e+02
9.900000e-07	-3.559475e-06	-2.111958e-09	-2.534759e+01	-1.408814e+02
1.000000e-06	-3.524624e-06	-2.107435e-09	-2.509941e+01	-1.406596e+02
1.010000e-06	-3.489465e-06	-2.102841e-09	-2.484904e+01	-1.404368e+02
1.020000e-06	-3.453980e-06	-2.099799e-09	-2.459635e+01	-1.402129e+02
1.030000e-06	-3.418277e-06	-2.092426e-09	-2.434210e+01	-1.399879e+02
1.040000e-06	-3.382492e-06	-2.090873e-09	-2.408727e+01	-1.397617e+02
1.050000e-06	-3.346563e-06	-2.089671e-09	-2.383141e+01	-1.395341e+02
1.060000e-06	-3.310424e-06	-2.091250e-09	-2.357406e+01	-1.393051e+02
1.070000e-06	-3.274144e-06	-2.088573e-09	-2.331570e+01	-1.390745e+02
1.080000e-06	-3.237703e-06	-2.083330e-09	-2.305621e+01	-1.388421e+02
1.090000e-06	-3.201024e-06	-2.075389e-09	-2.279501e+01	-1.386078e+02
1.100000e-06	-3.164084e-06	-2.070544e-09	-2.253195e+01	-1.383716e+02
1.110000e-06	-3.126884e-06	-2.065843e-09	-2.226704e+01	-1.381331e+02
1.120000e-06	-3.089472e-06	-2.061415e-09	-2.200063e+01	-1.378924e+02
1.130000e-06	-3.051872e-06	-2.057740e-09	-2.173287e+01	-1.376491e+02
1.140000e-06	-3.014039e-06	-2.055025e-09	-2.146346e+01	-1.374030e+02
1.150000e-06	-2.976059e-06	-2.051114e-09	-2.119299e+01	-1.371541e+02
1.160000e-06	-2.937928e-06	-2.042890e-09	-2.092146e+01	-1.369019e+02
1.170000e-06	-2.899559e-06	-2.034391e-09	-2.064823e+01	-1.366464e+02
1.180000e-06	-2.860929e-06	-2.028717e-09	-2.037314e+01	-1.363872e+02
1.190000e-06	-2.822071e-06	-2.026617e-09	-2.009642e+01	-1.361240e+02
1.200000e-06	-2.782973e-06	-2.020029e-09	-1.981800e+01	-1.358566e+02
1.210000e-06	-2.743698e-06	-2.014575e-09	-1.953832e+01	-1.355845e+02
1.220000e-06	-2.704251e-06	-2.009971e-09	-1.925741e+01	-1.353074e+02
1.230000e-06	-2.664578e-06	-2.008804e-09	-1.897489e+01	-1.350250e+02
1.240000e-06	-2.624783e-06	-2.005114e-09	-1.869150e+01	-1.347368e+02
1.250000e-06	-2.584922e-06	-2.001175e-09	-1.840765e+01	-1.344423e+02
1.260000e-06	-2.544984e-06	-1.992368e-09	-1.812324e+01	-1.341412e+02
1.270000e-06	-2.504911e-06	-1.986569e-09	-1.783787e+01	-1.338330e+02
1.280000e-06	-2.464744e-06	-1.981901e-09	-1.755184e+01	-1.335172e+02
1.290000e-06	-2.424476e-06	-1.977715e-09	-1.726509e+01	-1.331934e+02
1.300000e-06	-2.384058e-06	-1.970629e-09	-1.697726e+01	-1.328612e+02
1.310000e-06	-2.343461e-06	-1.965708e-09	-1.668816e+01	-1.325200e+02
1.320000e-06	-2.302660e-06	-1.960755e-09	-1.639761e+01	-1.321695e+02
1.330000e-06	-2.261590e-06	-1.954835e-09	-1.610515e+01	-1.318094e+02
1.340000e-06	-2.220243e-06	-1.945798e-09	-1.581070e+01	-1.314391e+02
1.350000e-06	-2.178688e-06	-1.936249e-09	-1.551479e+01	-1.310585e+02
1.360000e-06	-2.136795e-06	-1.927506e-09	-1.521646e+01	-1.306671e+02
1.370000e-06	-2.094573e-06	-1.921524e-09	-1.491579e+01	-1.302649e+02
1.380000e-06	-2.052256e-06	-1.914801e-09	-1.461445e+01	-1.298516e+02
1.390000e-06	-2.009776e-06	-1.906973e-09	-1.431194e+01	-1.294270e+02
1.400000e-06	-1.966993e-06	-1.899851e-09	-1.400728e+01	-1.289910e+02
1.410000e-06	-1.923910e-06	-1.894761e-09	-1.370047e+01	-1.285437e+02
1.420000e-06	-1.880598e-06	-1.888813e-09	-1.339204e+01	-1.280850e+02
1.430000e-06	-1.837141e-06	-1.879571e-09	-1.308258e+01	-1.276149e+02
1.440000e-06	-1.793543e-06	-1.868063e-09	-1.277211e+01	-1.271335e+02
1.450000e-06	-1.749822e-06	-1.858037e-09	-1.246076e+01	-1.266409e+02
1.460000e-06	-1.706051e-06	-1.851899e-09	-1.214906e+01	-1.261372e+02
1.470000e-06	-1.662221e-06	-1.844983e-09	-1.183694e+01	-1.256224e+02
1.480000e-06	-1.618264e-06	-1.837620e-09	-1.152392e+01	-1.250968e+02
1.490000e-06	-1.574220e-06	-1.830730e-09	-1.121028e+01	-1.245603e+02
1.500000e-06	-1.530118e-06	-1.824405e-09	-1.089622e+01	-1.240130e+02
1.510000e-06	-1.485985e-06	-1.817137e-09	-1.058194e+01	-1.234550e+02
1.520000e-06	-1.441843e-06	-1.806681e-09	-1.026760e+01	-1.228862e+02
1.530000e-06	-1.397700e-06	-1.796679e-09	-9.953246e+00	-1.223065e+02
1.540000e-06	-1.353482e-06	-1.789598e-09	-9.638360e+00	-1.217157e+02
1.550000e-06	-1.309144e-06	-1.783296e-09	-9.322628e+00	-1.211135e+02
1.560000e-06	-1.264725e-06	-1.777385e-09	-9.006312e+00	-1.204997e+02
1.570000e-06	-1.220216e-06	-1.767975e-09	-8.689357e+00	-1.198736e+02
1.580000e-06	-1.175647e-06	-1.759571e-09	-8.371968e+00	-1.192348e+02
1.590000e-06	-1.131075e-06	-1.751167e-09	-8.054567e+00	-1.185825e+02
1.600000e-06	-1.086418e-06	-1.741638e-09	-7.736560e+00	-1.179160e+02
1.610000e-06	-1.041630e-06	-1.727609e-09	-7.417614e+00	-1.172344e+02
1.620000e-06	-9.967748e-07	-1.714554e-09	-7.098193e+00	-1.165366e+02
1.630000e-06	-9.517924e-07	-1.702146e-09	-6.777867e+00	-1.158216e+02
1.640000e-06	-9.066911e-07	-1.689829e-09	-6.456693e+00	-1.150880e+02
1.650000e-06	-8.615760e-07	-1.678536e-09	-6.135421e+00	-1.143347e+02
1.660000e-06	-8.164741e-07	-1.670453e-09	-5.814243e+00	-1.135603e+02
1.670000e-06	-7.712709e-07	-1.664310e-09	-5.492344e+00	-1.127632e+02
1.680000e-06	-7.259230e-07	-1.654579e-09	-5.169415e+00	-1.119420e+02
1.690000e-06	-6.804787e-07	-1.637887e-09	-4.845798e+00	-1.110951e+02
1.700000e-06	-6.349777e-07	-1.618576e-09	-4.521779e+00	-1.102210e+02
1.710000e-06	-5.894608e-07	-1.600667e-09	-4.197645e+00	-1.093182e+02
1.720000e-06	-5.439548e-07	-1.586216e-09	-3.873589e+00	-1.083849e+02
1.730000e-06	-4.984115e-07	-1.572183e-09	-3.549268e+00	-1.074196e+02
1.740000e-06	-4.528678e-07	-1.558762e-09	-3.224944e+00	-1.064208e+02
1.750000e-06	-4.072668e-07	-1.549866e-09	-2.900212e+00	-1.053869e+02
1.760000e-06	-3.616093e-07	-1.541515e-09	-2.575078e+00	-1.043165e+02
1.770000e-06	-3.159595e-07	-1.525323e-09	-2.249999e+00	-1.032081e+02
1.780000e-06	-2.702438e-07	-1.501108e-09	-1.924449e+00	-1.020603e+02
1.790000e-06	-2.245203e-07	-1.477636e-09	-1.598845e+00	-1.008719e+02
1.800000e-06	-1.787961e-07	-1.457505e-09	-1.273236e+00	-9.964145e+01
1.810000e-06	-1.330362e-07	-1.440501e-09	-9.473721e-01	-9.836780e+01
1.820000e-06	-8.727453e-08	-1.421821e-09	-6.214960e-01	-9.704976e+01
1.830000e-06	-4.154024e-08	-1.402204e-09	-2.958148e-01	-9.568619e+01
1.840000e-06	4.259636e-09	-1.381488e-09	3.033355e-02	-9.427596e+01
1.850000e-06	5.003381e-08	-1.359533e-09	3.562988e-01	-9.281800e+01
1.860000e-06	9.567700e-08	-1.334169e-09	6.813313e-01	-9.131123e+01
1.870000e-06	1.413004e-07	-1.307883e-09	1.006223e+00	-8.975457e+01
1.880000e-06	1.869516e-07	-1.283867e-09	1.331313e+00	-8.814693e+01
1.890000e-06	2.326802e-07	-1.260221e-09	1.656953e+00	-8.648723e+01
1.900000e-06	2.784993e-07	-1.232217e-09	1.983238e+00	-8.477431e+01
1.910000e-06	3.243156e-07	-1.202451e-09	2.309503e+00	-8.300700e+01
1.920000e-06	3.700655e-07	-1.174877e-09	2.635296e+00	-8.118410e+01
1.930000e-06	4.157063e-07	-1.149242e-09	2.960311e+00	-7.930431e+01
1.940000e-06	4.612542e-07	-1.122670e-09	3.284665e+00	-7.736633e+01
1.950000e-06	5.068287e-07	-1.093544e-09	3.609209e+00	-7.536878e+01
1.960000e-06	5.523837e-07	-1.062263e-09	3.933613e+00	-7.331023e+01
1.970000e-06	5.978536e-07	-1.030550e-09	4.257412e+00	-7.118925e+01
1.980000e-06	6.433727e-07	-9.979394e-10	4.581561e+00	-6.900434e+01
1.990000e-06	6.888554e-07	-9.637812e-10	4.905450e+00	-6.675402e+01
2.000000e-06	7.341840e-07	-9.282012e-10	5.228242e+00	-6.443681e+01
2.010000e-06	7.794888e-07	-8.937969e-10	5.550865e+00	-6.205127e+01
2.020000e-06	8.247329e-07	-8.592567e-10	5.873056e+00	-5.959603e+01
2.030000e-06	8.698656e-07	-8.233879e-10	6.194453e+00	-5.706982e+01
2.040000e-06	9.149419e-07	-7.850233e-10	6.515448e+00	-5.447147e+01
2.050000e-06	9.599639e-07	-7.439345e-10	6.836058e+00	-5.180002e+01
2.060000e-06	1.004869e-06	-7.031939e-10	7.155834e+00	-4.905467e+01
2.070000e-06	1.049636e-06	-6.631917e-10	7.474628e+00	-4.623489e+01
2.080000e-06	1.094362e-06	-6.230943e-10	7.793126e+00	-4.334041e+01
2.090000e-06	1.139045e-06	-5.791582e-10	8.111324e+00	-4.037131e+01
2.100000e-06	1.183620e-06	-5.335372e-10	8.428750e+00	-3.732800e+01
2.110000e-06	1.228068e-06	-4.868673e-10	8.745273e+00	-3.421127e+01
2.120000e-06	1.272454e-06	-4.420928e-10	9.061347e+00	-3.102237e+01
2.130000e-06	1.316828e-06	-3.955567e-10	9.377344e+00	-2.776297e+01
2.140000e-06	1.361112e-06	-3.443924e-10	9.692697e+00	-2.443521e+01
2.150000e-06	1.405270e-06	-2.921966e-10	1.000715e+01	-2.104174e+01
2.160000e-06	1.449366e-06	-2.429219e-10	1.032117e+01	-1.758569e+01
2.170000e-06	1.493436e-06	-1.941874e-10	1.063500e+01	-1.407071e+01
2.180000e-06	1.537449e-06	-1.447748e-10	1.094842e+01	-1.050094e+01
2.190000e-06	1.581396e-06	-9.521564e-11	1.126138e+01	-6.881028e+00
2.200000e-06	1.625304e-06	-4.419415e-11	1.157405e+01	-3.216083e+00
2.210000e-06	1.669185e-06	1.326677e-11	1.188653e+01	4.883230e-01
2.220000e-06	1.713024e-06	7.645840e-11	1.219872e+01	4.226200e+00
2.230000e-06	1.756742e-06	1.396286e-10	1.251004e+01	7.991175e+00
2.240000e-06	1.800377e-06	1.973372e-10	1.282078e+01	1.177654e+01
2.250000e-06	1.844000e-06	2.504202e-10	1.313142e+01	1.557530e+01
2.260000e-06	1.887468e-06	3.028353e-10	1.344096e+01	1.938023e+01
2.270000e-06	1.930686e-06	3.566571e-10	1.374872e+01	2.318394e+01
2.280000e-06	1.973719e-06	4.114800e-10	1.405517e+01	2.697894e+01
2.290000e-06	2.016567e-06	4.675946e-10	1.436030e+01	3.075769e+01
2.300000e-06	2.059141e-06	5.278650e-10	1.466348e+01	3.451270e+01
2.310000e-06	2.101454e-06	5.902943e-10	1.496479e+01	3.823658e+01
2.320000e-06	2.143507e-06	6.492885e-10	1.526426e+01	4.192212e+01
2.330000e-06	2.185261e-06	7.006618e-10	1.556159e+01	4.556232e+01
2.340000e-06	2.226711e-06	7.488580e-10	1.585676e+01	4.915053e+01
2.350000e-06	2.267824e-06	7.963282e-10	1.614954e+01	5.268044e+01
2.360000e-06	2.308674e-06	8.447957e-10	1.644044e+01	5.614615e+01
2.370000e-06	2.349327e-06	8.920232e-10	1.672994e+01	5.954228e+01
2.380000e-06	2.389858e-06	9.392295e-10	1.701857e+01	6.286391e+01
2.390000e-06	2.430190e-06	9.862930e-10	1.730578e+01	6.610671e+01
2.400000e-06	2.470322e-06	1.031640e-09	1.759156e+01	6.926692e+01
2.410000e-06	2.510386e-06	1.073046e-09	1.787686e+01	7.234137e+01
2.420000e-06	2.550356e-06	1.111119e-09	1.816150e+01	7.532751e+01
2.430000e-06	2.590238e-06	1.150183e-09	1.844550e+01	7.822342e+01
2.440000e-06	2.630002e-06	1.191214e-09	1.872867e+01	8.102777e+01
2.450000e-06	2.669725e-06	1.231291e-09	1.901154e+01	8.373983e+01
2.460000e-06	2.709419e-06	1.270333e-09	1.929421e+01	8.635944e+01
2.470000e-06	2.748925e-06	1.307660e-09	1.957554e+01	8.888700e+01
2.480000e-06	2.788190e-06	1.343566e-09	1.985515e+01	9.132341e+01
2.490000e-06	2.827188e-06	1.376512e-09	2.013286e+01	9.367002e+01
2.500000e-06	2.865921e-06	1.405641e-09	2.040869e+01	9.592862e+01
2.510000e-06	2.904428e-06	1.433497e-09	2.068290e+01	9.810136e+01
2.520000e-06	2.942789e-06	1.465192e-09	2.095607e+01	1.001907e+02
2.530000e-06	2.980939e-06	1.500166e-09	2.122775e+01	1.021994e+02
2.540000e-06	3.018879e-06	1.533667e-09	2.149792e+01	1.041303e+02
2.550000e-06	3.056641e-06	1.564508e-09	2.176683e+01	1.059865e+02
2.560000e-06	3.094150e-06	1.588807e-09	2.203394e+01	1.077712e+02
2.570000e-06	3.131453e-06	1.608268e-09	2.229958e+01	1.094876e+02
2.580000e-06	3.168571e-06	1.625975e-09	2.256390e+01	1.111388e+02
2.590000e-06	3.205391e-06	1.644426e-09	2.282610e+01	1.127279e+02
2.600000e-06	3.241877e-06	1.666875e-09	2.308593e+01	1.142579e+02
2.610000e-06	3.278168e-06	1.693889e-09	2.334436e+01	1.157317e+02
2.620000e-06	3.314311e-06	1.722048e-09	2.360174e+01	1.171521e+02
2.630000e-06	3.350336e-06	1.746517e-09	2.385828e+01	1.185213e+02
2.640000e-06	3.386250e-06	1.763843e-09	2.411403e+01	1.198419e+02
2.650000e-06	3.422048e-06	1.776129e-09	2.436896e+01	1.211158e+02
2.660000e-06	3.457725e-06	1.787268e-09	2.462302e+01	1.223448e+02
2.670000e-06	3.493131e-06	1.802019e-09	2.487515e+01	1.235306e+02
2.680000e-06	3.528257e-06	1.819412e-09	2.512529e+01	1.246746e+02
2.690000e-06	3.563174e-06	1.836400e-09	2.537394e+01	1.257779e+02
2.700000e-06	3.597702e-06	1.854428e-09	2.561981e+01	1.268415e+02
2.710000e-06	3.631636e-06	1.874260e-09	2.586146e+01	1.278663e+02
2.720000e-06	3.665048e-06	1.892221e-09	2.609940e+01	1.288528e+02
2.730000e-06	3.698095e-06	1.905130e-09	2.633473e+01	1.298018e+02
2.740000e-06	3.730806e-06	1.913019e-09	2.656767e+01	1.307136e+02
2.750000e-06	3.763190e-06	1.921903e-09	2.679828e+01	1.315886e+02
2.760000e-06	3.795323e-06	1.933897e-09	2.702710e+01	1.324273e+02
2.770000e-06	3.827296e-06	1.945715e-09	2.725479e+01	1.332300e+02
2.780000e-06	3.859151e-06	1.955392e-09	2.748164e+01	1.339971e+02
2.790000e-06	3.890899e-06	1.965308e-09	2.770772e+01	1.347291e+02
2.800000e-06	3.922499e-06	1.977338e-09	2.793274e+01	1.354265e+02
2.810000e-06	3.953809e-06	1.988010e-09	2.815571e+01	1.360899e+02
2.820000e-06	3.984760e-06	1.994045e-09	2.837612e+01	1.367200e+02
2.830000e-06	4.015315e-06	1.998822e-09	2.859370e+01	1.373176e+02
2.840000e-06	4.045597e-06	2.007261e-09	2.880935e+01	1.378838e+02
2.850000e-06	4.075682e-06	2.016733e-09	2.902359e+01	1.384195e+02
2.860000e-06	4.105541e-06	2.023428e-09	2.923621e+01	1.389260e+02
2.870000e-06	4.135172e-06	2.028721e-09	2.944722e+01	1.394046e+02
2.880000e-06	4.164509e-06	2.034548e-09	2.965614e+01	1.398565e+02
2.890000e-06	4.193503e-06	2.039091e-09	2.986261e+01	1.402835e+02
2.900000e-06	4.222192e-06	2.042186e-09	3.006691e+01	1.406868e+02
