# Temperatura_=_-2.39
# Concentracion g/m^3_=_4090.0
# C_Vs_to_Am_M_A/Vsm_=_65563218390.804596
# pendiente_HvsI_1/m_=_3716.3
# ordenada_HvsI_A/m_=_1297.0
# frecuencia_Hz_=_135069.47314230207

Tiempo_(s)	Campo_(V.s)	Magnetizacion_(V.s)	Campo_(kA/m)	Magnetizacion_(A/m)
0.000000e+00	-5.433230e-06	-2.293986e-09	-3.838979e+01	-1.487483e+02
1.000000e-08	-5.433270e-06	-2.293161e-09	-3.839008e+01	-1.486895e+02
2.000000e-08	-5.433064e-06	-2.291367e-09	-3.838861e+01	-1.486318e+02
3.000000e-08	-5.432537e-06	-2.289709e-09	-3.838490e+01	-1.485761e+02
4.000000e-08	-5.431592e-06	-2.286521e-09	-3.837821e+01	-1.485230e+02
5.000000e-08	-5.430119e-06	-2.282736e-09	-3.836781e+01	-1.484732e+02
6.000000e-08	-5.428202e-06	-2.284018e-09	-3.835427e+01	-1.484275e+02
7.000000e-08	-5.425721e-06	-2.262966e-09	-3.833673e+01	-1.483862e+02
8.000000e-08	-5.422514e-06	-2.229422e-09	-3.831408e+01	-1.483498e+02
9.000000e-08	-5.418710e-06	-2.277467e-09	-3.828720e+01	-1.483184e+02
1.000000e-07	-5.414422e-06	-2.386339e-09	-3.825690e+01	-1.482922e+02
1.100000e-07	-5.409957e-06	-2.324527e-09	-3.822535e+01	-1.482712e+02
1.200000e-07	-5.405435e-06	-2.194598e-09	-3.819340e+01	-1.482552e+02
1.300000e-07	-5.400632e-06	-2.215169e-09	-3.815946e+01	-1.482439e+02
1.400000e-07	-5.395354e-06	-2.376813e-09	-3.812217e+01	-1.482371e+02
1.500000e-07	-5.389602e-06	-2.318103e-09	-3.808153e+01	-1.482341e+02
1.600000e-07	-5.383598e-06	-2.130773e-09	-3.803910e+01	-1.482345e+02
1.700000e-07	-5.377195e-06	-2.182678e-09	-3.799386e+01	-1.482375e+02
1.800000e-07	-5.370255e-06	-2.380855e-09	-3.794482e+01	-1.482424e+02
1.900000e-07	-5.362962e-06	-2.343219e-09	-3.789330e+01	-1.482485e+02
2.000000e-07	-5.355487e-06	-2.190648e-09	-3.784048e+01	-1.482548e+02
2.100000e-07	-5.347761e-06	-2.250983e-09	-3.778589e+01	-1.482607e+02
2.200000e-07	-5.339719e-06	-2.359604e-09	-3.772907e+01	-1.482651e+02
2.300000e-07	-5.331389e-06	-2.283234e-09	-3.767021e+01	-1.482673e+02
2.400000e-07	-5.322718e-06	-2.215109e-09	-3.760894e+01	-1.482665e+02
2.500000e-07	-5.313491e-06	-2.331481e-09	-3.754375e+01	-1.482619e+02
2.600000e-07	-5.303603e-06	-2.357348e-09	-3.747388e+01	-1.482529e+02
2.700000e-07	-5.293114e-06	-2.252729e-09	-3.739977e+01	-1.482386e+02
2.800000e-07	-5.282084e-06	-2.267655e-09	-3.732183e+01	-1.482187e+02
2.900000e-07	-5.270621e-06	-2.363984e-09	-3.724084e+01	-1.481926e+02
3.000000e-07	-5.258754e-06	-2.267820e-09	-3.715699e+01	-1.481598e+02
3.100000e-07	-5.246508e-06	-2.185837e-09	-3.707046e+01	-1.481202e+02
3.200000e-07	-5.233822e-06	-2.287904e-09	-3.698083e+01	-1.480735e+02
3.300000e-07	-5.220770e-06	-2.342936e-09	-3.688860e+01	-1.480195e+02
3.400000e-07	-5.207382e-06	-2.229962e-09	-3.679401e+01	-1.479582e+02
3.500000e-07	-5.193588e-06	-2.232932e-09	-3.669654e+01	-1.478898e+02
3.600000e-07	-5.179380e-06	-2.298474e-09	-3.659615e+01	-1.478143e+02
3.700000e-07	-5.164785e-06	-2.261340e-09	-3.649303e+01	-1.477319e+02
3.800000e-07	-5.149602e-06	-2.211163e-09	-3.638575e+01	-1.476430e+02
3.900000e-07	-5.133681e-06	-2.257254e-09	-3.627325e+01	-1.475478e+02
4.000000e-07	-5.117275e-06	-2.247027e-09	-3.615734e+01	-1.474468e+02
4.100000e-07	-5.100592e-06	-2.221058e-09	-3.603945e+01	-1.473405e+02
4.200000e-07	-5.083607e-06	-2.270328e-09	-3.591944e+01	-1.472292e+02
4.300000e-07	-5.066312e-06	-2.281708e-09	-3.579724e+01	-1.471135e+02
4.400000e-07	-5.048718e-06	-2.216543e-09	-3.567293e+01	-1.469939e+02
4.500000e-07	-5.030835e-06	-2.218770e-09	-3.554657e+01	-1.468709e+02
4.600000e-07	-5.012622e-06	-2.262378e-09	-3.541789e+01	-1.467449e+02
4.700000e-07	-4.994035e-06	-2.235919e-09	-3.528655e+01	-1.466165e+02
4.800000e-07	-4.974976e-06	-2.209430e-09	-3.515188e+01	-1.464861e+02
4.900000e-07	-4.955456e-06	-2.228859e-09	-3.501396e+01	-1.463542e+02
5.000000e-07	-4.935632e-06	-2.249627e-09	-3.487390e+01	-1.462212e+02
5.100000e-07	-4.915573e-06	-2.247118e-09	-3.473216e+01	-1.460874e+02
5.200000e-07	-4.895350e-06	-2.238309e-09	-3.458927e+01	-1.459532e+02
5.300000e-07	-4.874949e-06	-2.212626e-09	-3.444512e+01	-1.458190e+02
5.400000e-07	-4.854316e-06	-2.216176e-09	-3.429934e+01	-1.456848e+02
5.500000e-07	-4.833317e-06	-2.229971e-09	-3.415096e+01	-1.455510e+02
5.600000e-07	-4.811877e-06	-2.217635e-09	-3.399947e+01	-1.454178e+02
5.700000e-07	-4.790125e-06	-2.194469e-09	-3.384577e+01	-1.452852e+02
5.800000e-07	-4.768105e-06	-2.208378e-09	-3.369019e+01	-1.451533e+02
5.900000e-07	-4.745747e-06	-2.217476e-09	-3.353221e+01	-1.450222e+02
6.000000e-07	-4.723014e-06	-2.213777e-09	-3.337159e+01	-1.448919e+02
6.100000e-07	-4.699824e-06	-2.196714e-09	-3.320773e+01	-1.447623e+02
6.200000e-07	-4.676325e-06	-2.186456e-09	-3.304170e+01	-1.446334e+02
6.300000e-07	-4.652673e-06	-2.192124e-09	-3.287458e+01	-1.445051e+02
6.400000e-07	-4.628746e-06	-2.208146e-09	-3.270551e+01	-1.443772e+02
6.500000e-07	-4.604599e-06	-2.191529e-09	-3.253490e+01	-1.442496e+02
6.600000e-07	-4.580245e-06	-2.172944e-09	-3.236282e+01	-1.441221e+02
6.700000e-07	-4.555582e-06	-2.182475e-09	-3.218856e+01	-1.439944e+02
6.800000e-07	-4.530499e-06	-2.196385e-09	-3.201133e+01	-1.438663e+02
6.900000e-07	-4.504873e-06	-2.184552e-09	-3.183026e+01	-1.437375e+02
7.000000e-07	-4.478713e-06	-2.171610e-09	-3.164542e+01	-1.436077e+02
7.100000e-07	-4.452079e-06	-2.170852e-09	-3.145723e+01	-1.434767e+02
7.200000e-07	-4.424933e-06	-2.177394e-09	-3.126542e+01	-1.433439e+02
7.300000e-07	-4.397375e-06	-2.175009e-09	-3.107071e+01	-1.432092e+02
7.400000e-07	-4.369581e-06	-2.160844e-09	-3.087432e+01	-1.430721e+02
7.500000e-07	-4.341624e-06	-2.155398e-09	-3.067678e+01	-1.429322e+02
7.600000e-07	-4.313496e-06	-2.166658e-09	-3.047804e+01	-1.427891e+02
7.700000e-07	-4.285133e-06	-2.173230e-09	-3.027764e+01	-1.426425e+02
7.800000e-07	-4.256490e-06	-2.163069e-09	-3.007525e+01	-1.424919e+02
7.900000e-07	-4.227535e-06	-2.154104e-09	-2.987066e+01	-1.423370e+02
8.000000e-07	-4.198240e-06	-2.150166e-09	-2.966367e+01	-1.421772e+02
8.100000e-07	-4.168626e-06	-2.147840e-09	-2.945443e+01	-1.420124e+02
8.200000e-07	-4.138770e-06	-2.138325e-09	-2.924348e+01	-1.418421e+02
8.300000e-07	-4.108691e-06	-2.129562e-09	-2.903094e+01	-1.416660e+02
8.400000e-07	-4.078399e-06	-2.129372e-09	-2.881691e+01	-1.414839e+02
8.500000e-07	-4.047878e-06	-2.140744e-09	-2.860126e+01	-1.412954e+02
8.600000e-07	-4.017046e-06	-2.140370e-09	-2.838340e+01	-1.411004e+02
8.700000e-07	-3.985869e-06	-2.129271e-09	-2.816311e+01	-1.408987e+02
8.800000e-07	-3.954374e-06	-2.116753e-09	-2.794058e+01	-1.406904e+02
8.900000e-07	-3.922612e-06	-2.116069e-09	-2.771616e+01	-1.404752e+02
9.000000e-07	-3.890710e-06	-2.112791e-09	-2.749075e+01	-1.402534e+02
9.100000e-07	-3.858694e-06	-2.103743e-09	-2.726453e+01	-1.400250e+02
9.200000e-07	-3.826492e-06	-2.094565e-09	-2.703699e+01	-1.397902e+02
9.300000e-07	-3.794104e-06	-2.096334e-09	-2.680815e+01	-1.395493e+02
9.400000e-07	-3.761381e-06	-2.099108e-09	-2.657694e+01	-1.393026e+02
9.500000e-07	-3.728227e-06	-2.094458e-09	-2.634268e+01	-1.390506e+02
9.600000e-07	-3.694651e-06	-2.083693e-09	-2.610545e+01	-1.387936e+02
9.700000e-07	-3.660536e-06	-2.080458e-09	-2.586440e+01	-1.385322e+02
9.800000e-07	-3.626040e-06	-2.079414e-09	-2.562066e+01	-1.382671e+02
9.900000e-07	-3.591307e-06	-2.072131e-09	-2.537524e+01	-1.379987e+02
1.000000e-06	-3.556135e-06	-2.062649e-09	-2.512672e+01	-1.377278e+02
1.010000e-06	-3.520559e-06	-2.058599e-09	-2.487535e+01	-1.374551e+02
1.020000e-06	-3.484830e-06	-2.054537e-09	-2.462290e+01	-1.371811e+02
1.030000e-06	-3.448985e-06	-2.049194e-09	-2.436963e+01	-1.369066e+02
1.040000e-06	-3.412986e-06	-2.045779e-09	-2.411527e+01	-1.366322e+02
1.050000e-06	-3.376838e-06	-2.044662e-09	-2.385986e+01	-1.363585e+02
1.060000e-06	-3.340512e-06	-2.044499e-09	-2.360319e+01	-1.360860e+02
1.070000e-06	-3.303940e-06	-2.040293e-09	-2.334478e+01	-1.358153e+02
1.080000e-06	-3.267114e-06	-2.032520e-09	-2.308458e+01	-1.355468e+02
1.090000e-06	-3.230110e-06	-2.025187e-09	-2.282312e+01	-1.352807e+02
1.100000e-06	-3.192947e-06	-2.023423e-09	-2.256053e+01	-1.350172e+02
1.110000e-06	-3.155552e-06	-2.022232e-09	-2.229631e+01	-1.347566e+02
1.120000e-06	-3.117899e-06	-2.019122e-09	-2.203027e+01	-1.344987e+02
1.130000e-06	-3.080009e-06	-2.011262e-09	-2.176254e+01	-1.342435e+02
1.140000e-06	-3.041886e-06	-2.007703e-09	-2.149318e+01	-1.339906e+02
1.150000e-06	-3.003565e-06	-2.004649e-09	-2.122241e+01	-1.337397e+02
1.160000e-06	-2.965083e-06	-1.998499e-09	-2.095051e+01	-1.334903e+02
1.170000e-06	-2.926434e-06	-1.988487e-09	-2.067742e+01	-1.332417e+02
1.180000e-06	-2.887566e-06	-1.982570e-09	-2.040279e+01	-1.329931e+02
1.190000e-06	-2.848484e-06	-1.981767e-09	-2.012665e+01	-1.327438e+02
1.200000e-06	-2.809171e-06	-1.979843e-09	-1.984887e+01	-1.324928e+02
1.210000e-06	-2.769705e-06	-1.973487e-09	-1.957002e+01	-1.322391e+02
1.220000e-06	-2.730096e-06	-1.969269e-09	-1.929015e+01	-1.319816e+02
1.230000e-06	-2.690306e-06	-1.967046e-09	-1.900900e+01	-1.317193e+02
1.240000e-06	-2.650380e-06	-1.964446e-09	-1.872690e+01	-1.314509e+02
1.250000e-06	-2.610320e-06	-1.958276e-09	-1.844384e+01	-1.311754e+02
1.260000e-06	-2.570141e-06	-1.950006e-09	-1.815995e+01	-1.308917e+02
1.270000e-06	-2.529847e-06	-1.942270e-09	-1.787524e+01	-1.305986e+02
1.280000e-06	-2.489441e-06	-1.936582e-09	-1.758974e+01	-1.302953e+02
1.290000e-06	-2.448955e-06	-1.930606e-09	-1.730368e+01	-1.299808e+02
1.300000e-06	-2.408314e-06	-1.921685e-09	-1.701652e+01	-1.296541e+02
1.310000e-06	-2.367432e-06	-1.914264e-09	-1.672766e+01	-1.293147e+02
1.320000e-06	-2.326287e-06	-1.910579e-09	-1.643694e+01	-1.289619e+02
1.330000e-06	-2.284825e-06	-1.906332e-09	-1.614398e+01	-1.285952e+02
1.340000e-06	-2.243068e-06	-1.898722e-09	-1.584894e+01	-1.282143e+02
1.350000e-06	-2.201016e-06	-1.888288e-09	-1.555181e+01	-1.278189e+02
1.360000e-06	-2.158654e-06	-1.879592e-09	-1.525249e+01	-1.274091e+02
1.370000e-06	-2.116045e-06	-1.874121e-09	-1.495142e+01	-1.269849e+02
1.380000e-06	-2.073151e-06	-1.866317e-09	-1.464835e+01	-1.265465e+02
1.390000e-06	-2.030078e-06	-1.856599e-09	-1.434401e+01	-1.260942e+02
1.400000e-06	-1.986972e-06	-1.849829e-09	-1.403943e+01	-1.256285e+02
1.410000e-06	-1.943651e-06	-1.845334e-09	-1.373333e+01	-1.251499e+02
1.420000e-06	-1.900054e-06	-1.836154e-09	-1.342529e+01	-1.246590e+02
1.430000e-06	-1.856312e-06	-1.824281e-09	-1.311622e+01	-1.241564e+02
1.440000e-06	-1.812446e-06	-1.812242e-09	-1.280627e+01	-1.236429e+02
1.450000e-06	-1.768493e-06	-1.804174e-09	-1.249571e+01	-1.231191e+02
1.460000e-06	-1.724552e-06	-1.798879e-09	-1.218524e+01	-1.225856e+02
1.470000e-06	-1.680526e-06	-1.791200e-09	-1.187416e+01	-1.220432e+02
1.480000e-06	-1.636363e-06	-1.782396e-09	-1.156212e+01	-1.214923e+02
1.490000e-06	-1.592107e-06	-1.777257e-09	-1.124941e+01	-1.209335e+02
1.500000e-06	-1.547750e-06	-1.770953e-09	-1.093600e+01	-1.203671e+02
1.510000e-06	-1.503364e-06	-1.758768e-09	-1.062238e+01	-1.197934e+02
1.520000e-06	-1.458931e-06	-1.743261e-09	-1.030842e+01	-1.192124e+02
1.530000e-06	-1.414438e-06	-1.733573e-09	-9.994051e+00	-1.186241e+02
1.540000e-06	-1.369845e-06	-1.730239e-09	-9.678969e+00	-1.180283e+02
1.550000e-06	-1.325138e-06	-1.725309e-09	-9.363079e+00	-1.174245e+02
1.560000e-06	-1.280427e-06	-1.716713e-09	-9.047165e+00	-1.168121e+02
1.570000e-06	-1.235708e-06	-1.709513e-09	-8.731192e+00	-1.161904e+02
1.580000e-06	-1.190919e-06	-1.703886e-09	-8.414723e+00	-1.155585e+02
1.590000e-06	-1.145982e-06	-1.696172e-09	-8.097210e+00	-1.149151e+02
1.600000e-06	-1.100858e-06	-1.682206e-09	-7.778375e+00	-1.142591e+02
1.610000e-06	-1.055635e-06	-1.664285e-09	-7.458844e+00	-1.135891e+02
1.620000e-06	-1.010364e-06	-1.651483e-09	-7.138967e+00	-1.129035e+02
1.630000e-06	-9.649931e-07	-1.642708e-09	-6.818390e+00	-1.122007e+02
1.640000e-06	-9.195443e-07	-1.631823e-09	-6.497261e+00	-1.114790e+02
1.650000e-06	-8.740397e-07	-1.622260e-09	-6.175737e+00	-1.107365e+02
1.660000e-06	-8.284883e-07	-1.617787e-09	-5.853883e+00	-1.099715e+02
1.670000e-06	-7.828845e-07	-1.613263e-09	-5.531659e+00	-1.091822e+02
1.680000e-06	-7.371577e-07	-1.600289e-09	-5.208565e+00	-1.083668e+02
1.690000e-06	-6.913644e-07	-1.579187e-09	-4.885001e+00	-1.075234e+02
1.700000e-06	-6.456095e-07	-1.558490e-09	-4.561709e+00	-1.066504e+02
1.710000e-06	-5.998309e-07	-1.541935e-09	-4.238249e+00	-1.057461e+02
1.720000e-06	-5.539805e-07	-1.527126e-09	-3.914282e+00	-1.048089e+02
1.730000e-06	-5.080629e-07	-1.510598e-09	-3.589840e+00	-1.038374e+02
1.740000e-06	-4.620839e-07	-1.497207e-09	-3.264965e+00	-1.028302e+02
1.750000e-06	-4.161139e-07	-1.489423e-09	-2.940153e+00	-1.017861e+02
1.760000e-06	-3.700988e-07	-1.481803e-09	-2.615022e+00	-1.007039e+02
1.770000e-06	-3.240621e-07	-1.467025e-09	-2.289739e+00	-9.958258e+01
1.780000e-06	-2.780597e-07	-1.446454e-09	-1.964698e+00	-9.842127e+01
1.790000e-06	-2.320377e-07	-1.424354e-09	-1.639518e+00	-9.721913e+01
1.800000e-06	-1.859724e-07	-1.401591e-09	-1.314032e+00	-9.597540e+01
1.810000e-06	-1.399248e-07	-1.377428e-09	-9.886721e-01	-9.468939e+01
1.820000e-06	-9.389281e-08	-1.353982e-09	-6.634221e-01	-9.336046e+01
1.830000e-06	-4.784540e-08	-1.334375e-09	-3.380632e-01	-9.198797e+01
1.840000e-06	-1.804738e-09	-1.318463e-09	-1.275181e-02	-9.057130e+01
1.850000e-06	4.422233e-08	-1.302743e-09	3.124635e-01	-8.910977e+01
1.860000e-06	9.029414e-08	-1.283607e-09	6.379949e-01	-8.760269e+01
1.870000e-06	1.364062e-07	-1.260568e-09	9.638107e-01	-8.604926e+01
1.880000e-06	1.824825e-07	-1.233744e-09	1.289374e+00	-8.444860e+01
1.890000e-06	2.285171e-07	-1.204446e-09	1.614642e+00	-8.279972e+01
1.900000e-06	2.744715e-07	-1.173006e-09	1.939344e+00	-8.110149e+01
1.910000e-06	3.204346e-07	-1.142588e-09	2.264108e+00	-7.935266e+01
1.920000e-06	3.664381e-07	-1.116634e-09	2.589156e+00	-7.755181e+01
1.930000e-06	4.124389e-07	-1.093058e-09	2.914186e+00	-7.569739e+01
1.940000e-06	4.583981e-07	-1.068707e-09	3.238922e+00	-7.378769e+01
1.950000e-06	5.042406e-07	-1.042636e-09	3.562833e+00	-7.182087e+01
1.960000e-06	5.500151e-07	-1.014728e-09	3.886263e+00	-6.979497e+01
1.970000e-06	5.958337e-07	-9.824768e-10	4.210006e+00	-6.770793e+01
1.980000e-06	6.416254e-07	-9.448022e-10	4.533558e+00	-6.555761e+01
1.990000e-06	6.872864e-07	-9.054109e-10	4.856187e+00	-6.334183e+01
2.000000e-06	7.328757e-07	-8.683000e-10	5.178309e+00	-6.105841e+01
2.010000e-06	7.784615e-07	-8.334442e-10	5.500407e+00	-5.870520e+01
2.020000e-06	8.240652e-07	-8.005869e-10	5.822630e+00	-5.628014e+01
2.030000e-06	8.695995e-07	-7.698756e-10	6.144364e+00	-5.378129e+01
2.040000e-06	9.150655e-07	-7.379337e-10	6.465615e+00	-5.120689e+01
2.050000e-06	9.605135e-07	-7.017372e-10	6.786739e+00	-4.855544e+01
2.060000e-06	1.005843e-06	-6.604656e-10	7.107026e+00	-4.582569e+01
2.070000e-06	1.051061e-06	-6.168047e-10	7.426525e+00	-4.301676e+01
2.080000e-06	1.096221e-06	-5.713962e-10	7.745613e+00	-4.012813e+01
2.090000e-06	1.141289e-06	-5.225025e-10	8.064055e+00	-3.715974e+01
2.100000e-06	1.186227e-06	-4.756079e-10	8.381573e+00	-3.411199e+01
2.110000e-06	1.231074e-06	-4.337528e-10	8.698450e+00	-3.098580e+01
2.120000e-06	1.275837e-06	-3.929640e-10	9.014733e+00	-2.778264e+01
2.130000e-06	1.320489e-06	-3.478387e-10	9.330231e+00	-2.450455e+01
2.140000e-06	1.365042e-06	-2.976710e-10	9.645033e+00	-2.115417e+01
2.150000e-06	1.409546e-06	-2.454699e-10	9.959485e+00	-1.773471e+01
2.160000e-06	1.453952e-06	-1.912638e-10	1.027325e+01	-1.425002e+01
2.170000e-06	1.498204e-06	-1.352379e-10	1.058592e+01	-1.070449e+01
2.180000e-06	1.542365e-06	-8.078057e-11	1.089795e+01	-7.103134e+00
2.190000e-06	1.586442e-06	-3.150222e-11	1.120939e+01	-3.451483e+00
2.200000e-06	1.630476e-06	1.712193e-11	1.152052e+01	2.444117e-01
2.210000e-06	1.674498e-06	7.376210e-11	1.183157e+01	3.978028e+00
2.220000e-06	1.718469e-06	1.372806e-10	1.214226e+01	7.742428e+00
2.230000e-06	1.762400e-06	2.001738e-10	1.245266e+01	1.153031e+01
2.240000e-06	1.806320e-06	2.579761e-10	1.276299e+01	1.533409e+01
2.250000e-06	1.850190e-06	3.097631e-10	1.307296e+01	1.914594e+01
2.260000e-06	1.893978e-06	3.603043e-10	1.338236e+01	2.295789e+01
2.270000e-06	1.937671e-06	4.114434e-10	1.369108e+01	2.676190e+01
2.280000e-06	1.981172e-06	4.623269e-10	1.399845e+01	3.054991e+01
2.290000e-06	2.024432e-06	5.183947e-10	1.430411e+01	3.431398e+01
2.300000e-06	2.067453e-06	5.805285e-10	1.460808e+01	3.804629e+01
2.310000e-06	2.110257e-06	6.442796e-10	1.491053e+01	4.173928e+01
2.320000e-06	2.152869e-06	7.052392e-10	1.521161e+01	4.538569e+01
2.330000e-06	2.195231e-06	7.592893e-10	1.551093e+01	4.897863e+01
2.340000e-06	2.237290e-06	8.067697e-10	1.580811e+01	5.251166e+01
2.350000e-06	2.279025e-06	8.494302e-10	1.610300e+01	5.597883e+01
2.360000e-06	2.320469e-06	8.908796e-10	1.639583e+01	5.937472e+01
2.370000e-06	2.361582e-06	9.349323e-10	1.668632e+01	6.269450e+01
2.380000e-06	2.402409e-06	9.846493e-10	1.697480e+01	6.593394e+01
2.390000e-06	2.443071e-06	1.036160e-09	1.726211e+01	6.908945e+01
2.400000e-06	2.483576e-06	1.084506e-09	1.754830e+01	7.215810e+01
2.410000e-06	2.523885e-06	1.127843e-09	1.783311e+01	7.513757e+01
2.420000e-06	2.564053e-06	1.167320e-09	1.811693e+01	7.802622e+01
2.430000e-06	2.604149e-06	1.205168e-09	1.840024e+01	8.082301e+01
2.440000e-06	2.644153e-06	1.237942e-09	1.868290e+01	8.352752e+01
2.450000e-06	2.684060e-06	1.267005e-09	1.896487e+01	8.613989e+01
2.460000e-06	2.723866e-06	1.300666e-09	1.924613e+01	8.866079e+01
2.470000e-06	2.763559e-06	1.340696e-09	1.952659e+01	9.109139e+01
2.480000e-06	2.803080e-06	1.379860e-09	1.980583e+01	9.343330e+01
2.490000e-06	2.842398e-06	1.414862e-09	2.008364e+01	9.568849e+01
2.500000e-06	2.881482e-06	1.447343e-09	2.035980e+01	9.785929e+01
2.510000e-06	2.920267e-06	1.477487e-09	2.063385e+01	9.994828e+01
2.520000e-06	2.958816e-06	1.503360e-09	2.090623e+01	1.019583e+02
2.530000e-06	2.997184e-06	1.526994e-09	2.117732e+01	1.038922e+02
2.540000e-06	3.035397e-06	1.552910e-09	2.144733e+01	1.057531e+02
2.550000e-06	3.073441e-06	1.584129e-09	2.171613e+01	1.075440e+02
2.560000e-06	3.111278e-06	1.614827e-09	2.198348e+01	1.092682e+02
2.570000e-06	3.148913e-06	1.638878e-09	2.224940e+01	1.109285e+02
2.580000e-06	3.186298e-06	1.658545e-09	2.251355e+01	1.125278e+02
2.590000e-06	3.223409e-06	1.678786e-09	2.277577e+01	1.140691e+02
2.600000e-06	3.260274e-06	1.699878e-09	2.303625e+01	1.155549e+02
2.610000e-06	3.296937e-06	1.719944e-09	2.329530e+01	1.169876e+02
2.620000e-06	3.333405e-06	1.740414e-09	2.355297e+01	1.183696e+02
2.630000e-06	3.369703e-06	1.764995e-09	2.380944e+01	1.197028e+02
2.640000e-06	3.405872e-06	1.789421e-09	2.406500e+01	1.209891e+02
2.650000e-06	3.441927e-06	1.805872e-09	2.431976e+01	1.222301e+02
2.660000e-06	3.477844e-06	1.815072e-09	2.457354e+01	1.234272e+02
2.670000e-06	3.513597e-06	1.825664e-09	2.482616e+01	1.245816e+02
2.680000e-06	3.549084e-06	1.841063e-09	2.507691e+01	1.256944e+02
2.690000e-06	3.584303e-06	1.854930e-09	2.532576e+01	1.267663e+02
2.700000e-06	3.619291e-06	1.867443e-09	2.557297e+01	1.277984e+02
2.710000e-06	3.653934e-06	1.886301e-09	2.581775e+01	1.287910e+02
2.720000e-06	3.688023e-06	1.911779e-09	2.605861e+01	1.297450e+02
2.730000e-06	3.721446e-06	1.932781e-09	2.629477e+01	1.306607e+02
2.740000e-06	3.754387e-06	1.942875e-09	2.652752e+01	1.315388e+02
2.750000e-06	3.787028e-06	1.947693e-09	2.675816e+01	1.323798e+02
2.760000e-06	3.819478e-06	1.954798e-09	2.698744e+01	1.331842e+02
2.770000e-06	3.851746e-06	1.963001e-09	2.721544e+01	1.339526e+02
2.780000e-06	3.883815e-06	1.969730e-09	2.744202e+01	1.346858e+02
2.790000e-06	3.915746e-06	1.978531e-09	2.766764e+01	1.353845e+02
2.800000e-06	3.947500e-06	1.993303e-09	2.789201e+01	1.360496e+02
2.810000e-06	3.979012e-06	2.009499e-09	2.811467e+01	1.366821e+02
2.820000e-06	4.010247e-06	2.019228e-09	2.833536e+01	1.372831e+02
2.830000e-06	4.041127e-06	2.022313e-09	2.855355e+01	1.378538e+02
2.840000e-06	4.071718e-06	2.025878e-09	2.876970e+01	1.383955e+02
2.850000e-06	4.102091e-06	2.032818e-09	2.898430e+01	1.389095e+02
2.860000e-06	4.132127e-06	2.039780e-09	2.919653e+01	1.393975e+02
2.870000e-06	4.161878e-06	2.046172e-09	2.940675e+01	1.398609e+02
2.880000e-06	4.191458e-06	2.053030e-09	2.961575e+01	1.403012e+02
2.890000e-06	4.220727e-06	2.059887e-09	2.982256e+01	1.407203e+02
2.900000e-06	4.249584e-06	2.065512e-09	3.002646e+01	1.411195e+02
