# Temperatura_=_17.9
# Concentracion g/m^3_=_4090.0
# C_Vs_to_Am_M_A/Vsm_=_65563218390.804596
# pendiente_HvsI_1/m_=_3716.3
# ordenada_HvsI_A/m_=_1297.0
# frecuencia_Hz_=_135081.97632260833

Tiempo_(s)	Campo_(V.s)	Magnetizacion_(V.s)	Campo_(kA/m)	Magnetizacion_(A/m)
0.000000e+00	-5.409902e-06	-2.314917e-09	-3.840298e+01	-1.523972e+02
1.000000e-08	-5.410021e-06	-2.310370e-09	-3.840383e+01	-1.522056e+02
2.000000e-08	-5.409960e-06	-2.309382e-09	-3.840339e+01	-1.520158e+02
3.000000e-08	-5.409649e-06	-2.307126e-09	-3.840119e+01	-1.518303e+02
4.000000e-08	-5.408978e-06	-2.303735e-09	-3.839642e+01	-1.516516e+02
5.000000e-08	-5.407728e-06	-2.307619e-09	-3.838755e+01	-1.514821e+02
6.000000e-08	-5.405892e-06	-2.328430e-09	-3.837452e+01	-1.513243e+02
7.000000e-08	-5.403528e-06	-2.322784e-09	-3.835774e+01	-1.511803e+02
8.000000e-08	-5.400440e-06	-2.230416e-09	-3.833582e+01	-1.510520e+02
9.000000e-08	-5.396817e-06	-2.183085e-09	-3.831010e+01	-1.509412e+02
1.000000e-07	-5.392838e-06	-2.380450e-09	-3.828185e+01	-1.508494e+02
1.100000e-07	-5.388502e-06	-2.480171e-09	-3.825107e+01	-1.507776e+02
1.200000e-07	-5.383936e-06	-2.290333e-09	-3.821866e+01	-1.507267e+02
1.300000e-07	-5.379269e-06	-2.119066e-09	-3.818554e+01	-1.506972e+02
1.400000e-07	-5.374331e-06	-2.344244e-09	-3.815048e+01	-1.506892e+02
1.500000e-07	-5.368824e-06	-2.521014e-09	-3.811139e+01	-1.507023e+02
1.600000e-07	-5.362886e-06	-2.246344e-09	-3.806924e+01	-1.507360e+02
1.700000e-07	-5.356711e-06	-2.046565e-09	-3.802540e+01	-1.507892e+02
1.800000e-07	-5.350109e-06	-2.308283e-09	-3.797853e+01	-1.508605e+02
1.900000e-07	-5.342993e-06	-2.523358e-09	-3.792802e+01	-1.509484e+02
2.000000e-07	-5.335538e-06	-2.323525e-09	-3.787510e+01	-1.510507e+02
2.100000e-07	-5.327932e-06	-2.240225e-09	-3.782111e+01	-1.511654e+02
2.200000e-07	-5.320155e-06	-2.435383e-09	-3.776591e+01	-1.512898e+02
2.300000e-07	-5.312001e-06	-2.445739e-09	-3.770802e+01	-1.514213e+02
2.400000e-07	-5.303408e-06	-2.236517e-09	-3.764702e+01	-1.515572e+02
2.500000e-07	-5.294389e-06	-2.307256e-09	-3.758300e+01	-1.516946e+02
2.600000e-07	-5.284711e-06	-2.483158e-09	-3.751430e+01	-1.518305e+02
2.700000e-07	-5.274219e-06	-2.381938e-09	-3.743982e+01	-1.519619e+02
2.800000e-07	-5.263239e-06	-2.282304e-09	-3.736188e+01	-1.520861e+02
2.900000e-07	-5.251981e-06	-2.486013e-09	-3.728196e+01	-1.522002e+02
3.000000e-07	-5.240318e-06	-2.520830e-09	-3.719917e+01	-1.523017e+02
3.100000e-07	-5.228199e-06	-2.287164e-09	-3.711314e+01	-1.523881e+02
3.200000e-07	-5.215691e-06	-2.289260e-09	-3.702435e+01	-1.524572e+02
3.300000e-07	-5.202726e-06	-2.496699e-09	-3.693232e+01	-1.525072e+02
3.400000e-07	-5.189418e-06	-2.423333e-09	-3.683785e+01	-1.525363e+02
3.500000e-07	-5.175861e-06	-2.299930e-09	-3.674161e+01	-1.525432e+02
3.600000e-07	-5.161925e-06	-2.400512e-09	-3.664268e+01	-1.525271e+02
3.700000e-07	-5.147549e-06	-2.450478e-09	-3.654063e+01	-1.524872e+02
3.800000e-07	-5.132698e-06	-2.342732e-09	-3.643521e+01	-1.524233e+02
3.900000e-07	-5.117281e-06	-2.358335e-09	-3.632577e+01	-1.523354e+02
4.000000e-07	-5.101152e-06	-2.389938e-09	-3.621128e+01	-1.522238e+02
4.100000e-07	-5.084451e-06	-2.306434e-09	-3.609272e+01	-1.520894e+02
4.200000e-07	-5.067567e-06	-2.335724e-09	-3.597287e+01	-1.519330e+02
4.300000e-07	-5.050461e-06	-2.432651e-09	-3.585144e+01	-1.517560e+02
4.400000e-07	-5.032987e-06	-2.364947e-09	-3.572740e+01	-1.515599e+02
4.500000e-07	-5.015269e-06	-2.280662e-09	-3.560163e+01	-1.513462e+02
4.600000e-07	-4.997255e-06	-2.360977e-09	-3.547375e+01	-1.511170e+02
4.700000e-07	-4.978844e-06	-2.384168e-09	-3.534306e+01	-1.508741e+02
4.800000e-07	-4.960012e-06	-2.313207e-09	-3.520937e+01	-1.506197e+02
4.900000e-07	-4.940756e-06	-2.294907e-09	-3.507268e+01	-1.503557e+02
5.000000e-07	-4.921175e-06	-2.335112e-09	-3.493368e+01	-1.500843e+02
5.100000e-07	-4.901357e-06	-2.341975e-09	-3.479300e+01	-1.498076e+02
5.200000e-07	-4.881347e-06	-2.348522e-09	-3.465096e+01	-1.495274e+02
5.300000e-07	-4.861093e-06	-2.311615e-09	-3.450718e+01	-1.492455e+02
5.400000e-07	-4.840569e-06	-2.279146e-09	-3.436149e+01	-1.489637e+02
5.500000e-07	-4.819790e-06	-2.304620e-09	-3.421399e+01	-1.486835e+02
5.600000e-07	-4.798582e-06	-2.328673e-09	-3.406344e+01	-1.484061e+02
5.700000e-07	-4.776986e-06	-2.279888e-09	-3.391014e+01	-1.481325e+02
5.800000e-07	-4.755153e-06	-2.265121e-09	-3.375515e+01	-1.478636e+02
5.900000e-07	-4.732950e-06	-2.296367e-09	-3.359754e+01	-1.476000e+02
6.000000e-07	-4.710374e-06	-2.310665e-09	-3.343728e+01	-1.473420e+02
6.100000e-07	-4.687537e-06	-2.284588e-09	-3.327517e+01	-1.470898e+02
6.200000e-07	-4.664422e-06	-2.254929e-09	-3.311109e+01	-1.468430e+02
6.300000e-07	-4.641000e-06	-2.244922e-09	-3.294482e+01	-1.466015e+02
6.400000e-07	-4.617286e-06	-2.272933e-09	-3.277648e+01	-1.463646e+02
6.500000e-07	-4.593321e-06	-2.278494e-09	-3.260636e+01	-1.461316e+02
6.600000e-07	-4.569149e-06	-2.241437e-09	-3.243478e+01	-1.459016e+02
6.700000e-07	-4.544664e-06	-2.229702e-09	-3.226096e+01	-1.456736e+02
6.800000e-07	-4.519669e-06	-2.258450e-09	-3.208353e+01	-1.454465e+02
6.900000e-07	-4.494183e-06	-2.262432e-09	-3.190262e+01	-1.452191e+02
7.000000e-07	-4.468207e-06	-2.230501e-09	-3.171823e+01	-1.449902e+02
7.100000e-07	-4.441712e-06	-2.214436e-09	-3.153015e+01	-1.447586e+02
7.200000e-07	-4.414748e-06	-2.226653e-09	-3.133874e+01	-1.445231e+02
7.300000e-07	-4.387384e-06	-2.243303e-09	-3.114449e+01	-1.442825e+02
7.400000e-07	-4.359746e-06	-2.228466e-09	-3.094830e+01	-1.440359e+02
7.500000e-07	-4.331957e-06	-2.204565e-09	-3.075104e+01	-1.437822e+02
7.600000e-07	-4.304044e-06	-2.205898e-09	-3.055289e+01	-1.435207e+02
7.700000e-07	-4.275921e-06	-2.223051e-09	-3.035325e+01	-1.432507e+02
7.800000e-07	-4.247538e-06	-2.209893e-09	-3.015177e+01	-1.429717e+02
7.900000e-07	-4.218797e-06	-2.188477e-09	-2.994775e+01	-1.426832e+02
8.000000e-07	-4.189669e-06	-2.185368e-09	-2.974098e+01	-1.423851e+02
8.100000e-07	-4.160262e-06	-2.201145e-09	-2.953223e+01	-1.420774e+02
8.200000e-07	-4.130563e-06	-2.200532e-09	-2.932141e+01	-1.417602e+02
8.300000e-07	-4.100606e-06	-2.183329e-09	-2.910876e+01	-1.414338e+02
8.400000e-07	-4.070404e-06	-2.167174e-09	-2.889436e+01	-1.410986e+02
8.500000e-07	-4.039924e-06	-2.173033e-09	-2.867799e+01	-1.407551e+02
8.600000e-07	-4.009316e-06	-2.170530e-09	-2.846072e+01	-1.404041e+02
8.700000e-07	-3.978502e-06	-2.149585e-09	-2.824198e+01	-1.400462e+02
8.800000e-07	-3.947288e-06	-2.127373e-09	-2.802040e+01	-1.396824e+02
8.900000e-07	-3.915781e-06	-2.132728e-09	-2.779675e+01	-1.393133e+02
9.000000e-07	-3.884078e-06	-2.143962e-09	-2.757170e+01	-1.389401e+02
9.100000e-07	-3.852209e-06	-2.136715e-09	-2.734547e+01	-1.385634e+02
9.200000e-07	-3.820213e-06	-2.116006e-09	-2.711835e+01	-1.381842e+02
9.300000e-07	-3.788129e-06	-2.108272e-09	-2.689059e+01	-1.378032e+02
9.400000e-07	-3.755758e-06	-2.109576e-09	-2.666080e+01	-1.374213e+02
9.500000e-07	-3.722881e-06	-2.100335e-09	-2.642742e+01	-1.370390e+02
9.600000e-07	-3.689578e-06	-2.082363e-09	-2.619101e+01	-1.366570e+02
9.700000e-07	-3.655933e-06	-2.076384e-09	-2.595218e+01	-1.362757e+02
9.800000e-07	-3.621869e-06	-2.082457e-09	-2.571037e+01	-1.358954e+02
9.900000e-07	-3.587301e-06	-2.078024e-09	-2.546498e+01	-1.355163e+02
1.000000e-06	-3.552324e-06	-2.059806e-09	-2.521669e+01	-1.351385e+02
1.010000e-06	-3.517064e-06	-2.046032e-09	-2.496640e+01	-1.347620e+02
1.020000e-06	-3.481587e-06	-2.044822e-09	-2.471456e+01	-1.343864e+02
1.030000e-06	-3.445965e-06	-2.039424e-09	-2.446169e+01	-1.340116e+02
1.040000e-06	-3.410208e-06	-2.027857e-09	-2.420786e+01	-1.336370e+02
1.050000e-06	-3.374340e-06	-2.017229e-09	-2.395325e+01	-1.332622e+02
1.060000e-06	-3.338331e-06	-2.017467e-09	-2.369763e+01	-1.328866e+02
1.070000e-06	-3.302053e-06	-2.016783e-09	-2.344011e+01	-1.325093e+02
1.080000e-06	-3.265436e-06	-2.007107e-09	-2.318018e+01	-1.321298e+02
1.090000e-06	-3.228584e-06	-1.990736e-09	-2.291858e+01	-1.317472e+02
1.100000e-06	-3.191586e-06	-1.984982e-09	-2.265594e+01	-1.313606e+02
1.110000e-06	-3.154335e-06	-1.983297e-09	-2.239151e+01	-1.309693e+02
1.120000e-06	-3.116856e-06	-1.975518e-09	-2.212546e+01	-1.305724e+02
1.130000e-06	-3.079227e-06	-1.960982e-09	-2.185835e+01	-1.301692e+02
1.140000e-06	-3.041367e-06	-1.955102e-09	-2.158959e+01	-1.297589e+02
1.150000e-06	-3.003215e-06	-1.955056e-09	-2.131876e+01	-1.293408e+02
1.160000e-06	-2.964825e-06	-1.947077e-09	-2.104625e+01	-1.289143e+02
1.170000e-06	-2.926326e-06	-1.928922e-09	-2.077295e+01	-1.284787e+02
1.180000e-06	-2.887768e-06	-1.917834e-09	-2.049925e+01	-1.280338e+02
1.190000e-06	-2.848874e-06	-1.914986e-09	-2.022315e+01	-1.275790e+02
1.200000e-06	-2.809734e-06	-1.910571e-09	-1.994531e+01	-1.271141e+02
1.210000e-06	-2.770499e-06	-1.897452e-09	-1.966679e+01	-1.266389e+02
1.220000e-06	-2.730940e-06	-1.885448e-09	-1.938598e+01	-1.261532e+02
1.230000e-06	-2.691259e-06	-1.881557e-09	-1.910430e+01	-1.256570e+02
1.240000e-06	-2.651557e-06	-1.878744e-09	-1.882246e+01	-1.251503e+02
1.250000e-06	-2.611734e-06	-1.869318e-09	-1.853978e+01	-1.246333e+02
1.260000e-06	-2.571825e-06	-1.855813e-09	-1.825648e+01	-1.241060e+02
1.270000e-06	-2.531784e-06	-1.846308e-09	-1.797224e+01	-1.235687e+02
1.280000e-06	-2.491604e-06	-1.841359e-09	-1.768702e+01	-1.230215e+02
1.290000e-06	-2.451333e-06	-1.833334e-09	-1.740115e+01	-1.224648e+02
1.300000e-06	-2.410929e-06	-1.820031e-09	-1.711433e+01	-1.218988e+02
1.310000e-06	-2.370266e-06	-1.809410e-09	-1.682569e+01	-1.213237e+02
1.320000e-06	-2.329272e-06	-1.802815e-09	-1.653468e+01	-1.207398e+02
1.330000e-06	-2.288002e-06	-1.794774e-09	-1.624172e+01	-1.201472e+02
1.340000e-06	-2.246452e-06	-1.782516e-09	-1.594677e+01	-1.195461e+02
1.350000e-06	-2.204625e-06	-1.771794e-09	-1.564986e+01	-1.189367e+02
1.360000e-06	-2.162489e-06	-1.763660e-09	-1.535075e+01	-1.183189e+02
1.370000e-06	-2.120025e-06	-1.756668e-09	-1.504931e+01	-1.176927e+02
1.380000e-06	-2.077256e-06	-1.745956e-09	-1.474571e+01	-1.170582e+02
1.390000e-06	-2.034371e-06	-1.734922e-09	-1.444128e+01	-1.164151e+02
1.400000e-06	-1.991412e-06	-1.724881e-09	-1.413633e+01	-1.157632e+02
1.410000e-06	-1.948224e-06	-1.715911e-09	-1.382976e+01	-1.151023e+02
1.420000e-06	-1.904776e-06	-1.705869e-09	-1.352133e+01	-1.144319e+02
1.430000e-06	-1.861147e-06	-1.694661e-09	-1.321163e+01	-1.137517e+02
1.440000e-06	-1.817479e-06	-1.680188e-09	-1.290164e+01	-1.130611e+02
1.450000e-06	-1.773766e-06	-1.667819e-09	-1.259134e+01	-1.123596e+02
1.460000e-06	-1.729997e-06	-1.658311e-09	-1.228064e+01	-1.116466e+02
1.470000e-06	-1.686104e-06	-1.648272e-09	-1.196906e+01	-1.109215e+02
1.480000e-06	-1.642156e-06	-1.634734e-09	-1.165709e+01	-1.101835e+02
1.490000e-06	-1.598227e-06	-1.620673e-09	-1.134525e+01	-1.094319e+02
1.500000e-06	-1.554263e-06	-1.608004e-09	-1.103317e+01	-1.086661e+02
1.510000e-06	-1.510192e-06	-1.595921e-09	-1.072032e+01	-1.078851e+02
1.520000e-06	-1.466009e-06	-1.581989e-09	-1.040668e+01	-1.070883e+02
1.530000e-06	-1.421793e-06	-1.565608e-09	-1.009281e+01	-1.062748e+02
1.540000e-06	-1.377532e-06	-1.549472e-09	-9.778613e+00	-1.054437e+02
1.550000e-06	-1.333158e-06	-1.536404e-09	-9.463618e+00	-1.045944e+02
1.560000e-06	-1.288709e-06	-1.526101e-09	-9.148093e+00	-1.037259e+02
1.570000e-06	-1.244193e-06	-1.514397e-09	-8.832084e+00	-1.028373e+02
1.580000e-06	-1.199487e-06	-1.501321e-09	-8.514737e+00	-1.019280e+02
1.590000e-06	-1.154696e-06	-1.488236e-09	-8.196781e+00	-1.009969e+02
1.600000e-06	-1.109843e-06	-1.471547e-09	-7.878382e+00	-1.000432e+02
1.610000e-06	-1.064839e-06	-1.449936e-09	-7.558918e+00	-9.906604e+01
1.620000e-06	-1.019797e-06	-1.429762e-09	-7.239177e+00	-9.806449e+01
1.630000e-06	-9.746167e-07	-1.412754e-09	-6.918460e+00	-9.703762e+01
1.640000e-06	-9.292525e-07	-1.397949e-09	-6.596436e+00	-9.598446e+01
1.650000e-06	-8.838580e-07	-1.382737e-09	-6.274196e+00	-9.490401e+01
1.660000e-06	-8.384626e-07	-1.369952e-09	-5.951950e+00	-9.379523e+01
1.670000e-06	-7.929974e-07	-1.356932e-09	-5.629209e+00	-9.265705e+01
1.680000e-06	-7.474557e-07	-1.339414e-09	-5.305924e+00	-9.148835e+01
1.690000e-06	-7.019346e-07	-1.314786e-09	-4.982786e+00	-9.028796e+01
1.700000e-06	-6.563951e-07	-1.286206e-09	-4.659517e+00	-8.905469e+01
1.710000e-06	-6.107722e-07	-1.261167e-09	-4.335657e+00	-8.778728e+01
1.720000e-06	-5.651247e-07	-1.242593e-09	-4.011621e+00	-8.648445e+01
1.730000e-06	-5.194396e-07	-1.225434e-09	-3.687318e+00	-8.514488e+01
1.740000e-06	-4.737121e-07	-1.207029e-09	-3.362715e+00	-8.376722e+01
1.750000e-06	-4.279599e-07	-1.191387e-09	-3.037936e+00	-8.235011e+01
1.760000e-06	-3.822208e-07	-1.177362e-09	-2.713251e+00	-8.089217e+01
1.770000e-06	-3.364849e-07	-1.153760e-09	-2.388588e+00	-7.939203e+01
1.780000e-06	-2.906644e-07	-1.118990e-09	-2.063324e+00	-7.784833e+01
1.790000e-06	-2.448437e-07	-1.082492e-09	-1.738059e+00	-7.625974e+01
1.800000e-06	-1.990090e-07	-1.054240e-09	-1.412695e+00	-7.462497e+01
1.810000e-06	-1.530294e-07	-1.032638e-09	-1.086302e+00	-7.294280e+01
1.820000e-06	-1.070743e-07	-1.013194e-09	-7.600825e-01	-7.121206e+01
1.830000e-06	-6.116924e-08	-9.936087e-10	-4.342188e-01	-6.943169e+01
1.840000e-06	-1.530100e-08	-9.739455e-10	-1.086164e-01	-6.760073e+01
1.850000e-06	3.046334e-08	-9.484449e-10	2.162485e-01	-6.571835e+01
1.860000e-06	7.625402e-08	-9.123557e-10	5.413004e-01	-6.378385e+01
1.870000e-06	1.220869e-07	-8.711933e-10	8.666521e-01	-6.179667e+01
1.880000e-06	1.678984e-07	-8.337131e-10	1.191852e+00	-5.975643e+01
1.890000e-06	2.136787e-07	-8.047534e-10	1.516829e+00	-5.766292e+01
1.900000e-06	2.594546e-07	-7.784183e-10	1.841777e+00	-5.551611e+01
1.910000e-06	3.052970e-07	-7.510235e-10	2.167195e+00	-5.331616e+01
1.920000e-06	3.512067e-07	-7.236372e-10	2.493092e+00	-5.106343e+01
1.930000e-06	3.970245e-07	-6.952393e-10	2.818337e+00	-4.875849e+01
1.940000e-06	4.428365e-07	-6.589268e-10	3.143540e+00	-4.640208e+01
1.950000e-06	4.886953e-07	-6.159776e-10	3.469076e+00	-4.399517e+01
1.960000e-06	5.344086e-07	-5.728158e-10	3.793578e+00	-4.153891e+01
1.970000e-06	5.799896e-07	-5.353612e-10	4.117142e+00	-3.903463e+01
1.980000e-06	6.255161e-07	-4.990546e-10	4.440318e+00	-3.648387e+01
1.990000e-06	6.710014e-07	-4.621736e-10	4.763202e+00	-3.388832e+01
2.000000e-06	7.165077e-07	-4.264894e-10	5.086235e+00	-3.124982e+01
2.010000e-06	7.619940e-07	-3.935459e-10	5.409127e+00	-2.857040e+01
2.020000e-06	8.073927e-07	-3.585876e-10	5.731396e+00	-2.585219e+01
2.030000e-06	8.527581e-07	-3.183582e-10	6.053429e+00	-2.309744e+01
2.040000e-06	8.980205e-07	-2.751768e-10	6.374731e+00	-2.030853e+01
2.050000e-06	9.432144e-07	-2.338291e-10	6.695546e+00	-1.748791e+01
2.060000e-06	9.883827e-07	-1.931685e-10	7.016180e+00	-1.463812e+01
2.070000e-06	1.033526e-06	-1.482359e-10	7.336639e+00	-1.176173e+01
2.080000e-06	1.078621e-06	-1.034915e-10	7.656749e+00	-8.861394e+00
2.090000e-06	1.123524e-06	-6.372827e-11	7.975503e+00	-5.939766e+00
2.100000e-06	1.168282e-06	-2.703939e-11	8.293220e+00	-2.999533e+00
2.110000e-06	1.212872e-06	1.264208e-11	8.609752e+00	-4.338340e-02
2.120000e-06	1.257370e-06	5.490190e-11	8.925623e+00	2.925999e+00
2.130000e-06	1.301844e-06	9.390703e-11	9.241333e+00	5.905945e+00
2.140000e-06	1.346236e-06	1.343141e-10	9.556456e+00	8.893806e+00
2.150000e-06	1.390563e-06	1.792338e-10	9.871117e+00	1.188697e+01
2.160000e-06	1.434842e-06	2.279883e-10	1.018544e+01	1.488284e+01
2.170000e-06	1.479050e-06	2.751015e-10	1.049925e+01	1.787888e+01
2.180000e-06	1.523142e-06	3.182517e-10	1.081225e+01	2.087258e+01
2.190000e-06	1.567137e-06	3.612913e-10	1.112455e+01	2.386149e+01
2.200000e-06	1.611083e-06	4.042935e-10	1.143651e+01	2.684318e+01
2.210000e-06	1.654979e-06	4.465967e-10	1.174811e+01	2.981529e+01
2.220000e-06	1.698791e-06	4.869900e-10	1.205912e+01	3.277548e+01
2.230000e-06	1.742555e-06	5.262549e-10	1.236978e+01	3.572146e+01
2.240000e-06	1.786306e-06	5.680906e-10	1.268036e+01	3.865100e+01
2.250000e-06	1.829919e-06	6.120259e-10	1.298995e+01	4.156189e+01
2.260000e-06	1.873303e-06	6.541674e-10	1.329792e+01	4.445197e+01
2.270000e-06	1.916641e-06	6.960701e-10	1.360556e+01	4.731912e+01
2.280000e-06	1.959971e-06	7.385974e-10	1.391314e+01	5.016125e+01
2.290000e-06	2.003225e-06	7.805679e-10	1.422019e+01	5.297633e+01
2.300000e-06	2.046328e-06	8.204761e-10	1.452616e+01	5.576237e+01
2.310000e-06	2.089204e-06	8.576458e-10	1.483052e+01	5.851742e+01
2.320000e-06	2.131713e-06	8.936147e-10	1.513228e+01	6.123957e+01
2.330000e-06	2.173838e-06	9.317537e-10	1.543131e+01	6.392698e+01
2.340000e-06	2.215823e-06	9.699935e-10	1.572935e+01	6.657787e+01
2.350000e-06	2.257567e-06	1.006817e-09	1.602567e+01	6.919051e+01
2.360000e-06	2.298886e-06	1.044182e-09	1.631898e+01	7.176325e+01
2.370000e-06	2.339917e-06	1.083539e-09	1.661024e+01	7.429452e+01
2.380000e-06	2.380758e-06	1.122125e-09	1.690016e+01	7.678282e+01
2.390000e-06	2.421344e-06	1.158351e-09	1.718826e+01	7.922677e+01
2.400000e-06	2.461679e-06	1.191253e-09	1.747459e+01	8.162505e+01
2.410000e-06	2.501847e-06	1.222397e-09	1.775973e+01	8.397648e+01
2.420000e-06	2.541943e-06	1.252420e-09	1.804436e+01	8.627998e+01
2.430000e-06	2.581930e-06	1.282313e-09	1.832821e+01	8.853457e+01
2.440000e-06	2.621762e-06	1.311401e-09	1.861096e+01	9.073943e+01
2.450000e-06	2.661499e-06	1.340480e-09	1.889304e+01	9.289383e+01
2.460000e-06	2.701183e-06	1.372438e-09	1.917475e+01	9.499720e+01
2.470000e-06	2.740746e-06	1.405982e-09	1.945559e+01	9.704908e+01
2.480000e-06	2.780065e-06	1.437948e-09	1.973470e+01	9.904917e+01
2.490000e-06	2.819139e-06	1.468353e-09	2.001207e+01	1.009973e+02
2.500000e-06	2.858040e-06	1.495802e-09	2.028821e+01	1.028933e+02
2.510000e-06	2.896747e-06	1.518446e-09	2.056298e+01	1.047374e+02
2.520000e-06	2.935193e-06	1.538355e-09	2.083590e+01	1.065298e+02
2.530000e-06	2.973456e-06	1.559295e-09	2.110752e+01	1.082706e+02
2.540000e-06	3.011552e-06	1.583249e-09	2.137794e+01	1.099604e+02
2.550000e-06	3.049449e-06	1.610581e-09	2.164696e+01	1.115997e+02
2.560000e-06	3.087204e-06	1.639713e-09	2.191497e+01	1.131891e+02
2.570000e-06	3.124785e-06	1.666738e-09	2.218175e+01	1.147293e+02
2.580000e-06	3.162131e-06	1.688327e-09	2.244685e+01	1.162210e+02
2.590000e-06	3.199185e-06	1.705564e-09	2.270989e+01	1.176651e+02
2.600000e-06	3.236011e-06	1.721193e-09	2.297130e+01	1.190625e+02
2.610000e-06	3.272621e-06	1.736608e-09	2.323118e+01	1.204140e+02
2.620000e-06	3.308974e-06	1.754135e-09	2.348924e+01	1.217207e+02
2.630000e-06	3.345105e-06	1.774320e-09	2.374572e+01	1.229836e+02
2.640000e-06	3.381044e-06	1.796608e-09	2.400084e+01	1.242036e+02
2.650000e-06	3.416863e-06	1.817608e-09	2.425511e+01	1.253817e+02
2.660000e-06	3.452574e-06	1.834516e-09	2.450860e+01	1.265190e+02
2.670000e-06	3.488173e-06	1.846897e-09	2.476131e+01	1.276164e+02
2.680000e-06	3.523703e-06	1.857421e-09	2.501352e+01	1.286750e+02
2.690000e-06	3.558990e-06	1.868169e-09	2.526401e+01	1.296958e+02
2.700000e-06	3.593863e-06	1.880962e-09	2.551157e+01	1.306798e+02
2.710000e-06	3.628307e-06	1.896192e-09	2.575607e+01	1.316279e+02
2.720000e-06	3.662323e-06	1.912535e-09	2.599754e+01	1.325412e+02
2.730000e-06	3.695865e-06	1.926594e-09	2.623564e+01	1.334205e+02
2.740000e-06	3.728880e-06	1.938342e-09	2.647000e+01	1.342669e+02
2.750000e-06	3.761534e-06	1.948178e-09	2.670180e+01	1.350812e+02
2.760000e-06	3.793872e-06	1.956745e-09	2.693136e+01	1.358645e+02
2.770000e-06	3.826001e-06	1.962980e-09	2.715943e+01	1.366177e+02
2.780000e-06	3.858005e-06	1.968891e-09	2.738662e+01	1.373418e+02
2.790000e-06	3.889849e-06	1.978455e-09	2.761267e+01	1.380377e+02
2.800000e-06	3.921522e-06	1.990291e-09	2.783750e+01	1.387065e+02
2.810000e-06	3.952913e-06	2.002351e-09	2.806033e+01	1.393490e+02
2.820000e-06	3.984146e-06	2.013779e-09	2.828205e+01	1.399663e+02
2.830000e-06	4.015127e-06	2.024188e-09	2.850197e+01	1.405594e+02
2.840000e-06	4.045622e-06	2.032376e-09	2.871844e+01	1.411294e+02
2.850000e-06	4.075869e-06	2.039227e-09	2.893315e+01	1.416772e+02
2.860000e-06	4.105886e-06	2.045279e-09	2.914623e+01	1.422039e+02
2.870000e-06	4.135605e-06	2.050421e-09	2.935720e+01	1.427106e+02
2.880000e-06	4.165136e-06	2.056105e-09	2.956683e+01	1.431982e+02
2.890000e-06	4.194280e-06	2.063825e-09	2.977372e+01	1.436677e+02
2.900000e-06	4.223043e-06	2.072138e-09	2.997789e+01	1.441202e+02
