# Temperatura_=_-1.9
# Concentracion g/m^3_=_4090.0
# C_Vs_to_Am_M_A/Vsm_=_65563218390.804596
# pendiente_HvsI_1/m_=_3716.3
# ordenada_HvsI_A/m_=_1297.0
# frecuencia_Hz_=_135071.16048210935

Tiempo_(s)	Campo_(V.s)	Magnetizacion_(V.s)	Campo_(kA/m)	Magnetizacion_(A/m)
0.000000e+00	-5.388717e-06	-2.381148e-09	-3.839991e+01	-1.530259e+02
1.000000e-08	-5.388938e-06	-2.385570e-09	-3.840148e+01	-1.529403e+02
2.000000e-08	-5.388928e-06	-2.390489e-09	-3.840141e+01	-1.528597e+02
3.000000e-08	-5.388655e-06	-2.388782e-09	-3.839947e+01	-1.527862e+02
4.000000e-08	-5.388027e-06	-2.382140e-09	-3.839499e+01	-1.527218e+02
5.000000e-08	-5.386948e-06	-2.378296e-09	-3.838730e+01	-1.526685e+02
6.000000e-08	-5.385262e-06	-2.379696e-09	-3.837529e+01	-1.526279e+02
7.000000e-08	-5.382910e-06	-2.391095e-09	-3.835853e+01	-1.526016e+02
8.000000e-08	-5.379955e-06	-2.386787e-09	-3.833747e+01	-1.525908e+02
9.000000e-08	-5.376440e-06	-2.352740e-09	-3.831242e+01	-1.525964e+02
1.000000e-07	-5.372456e-06	-2.374258e-09	-3.828403e+01	-1.526190e+02
1.100000e-07	-5.368198e-06	-2.460589e-09	-3.825369e+01	-1.526591e+02
1.200000e-07	-5.363802e-06	-2.379431e-09	-3.822236e+01	-1.527166e+02
1.300000e-07	-5.359239e-06	-2.304860e-09	-3.818985e+01	-1.527912e+02
1.400000e-07	-5.354315e-06	-2.345500e-09	-3.815476e+01	-1.528822e+02
1.500000e-07	-5.348888e-06	-2.456500e-09	-3.811609e+01	-1.529888e+02
1.600000e-07	-5.343043e-06	-2.389076e-09	-3.807444e+01	-1.531095e+02
1.700000e-07	-5.336879e-06	-2.250332e-09	-3.803051e+01	-1.532430e+02
1.800000e-07	-5.330347e-06	-2.386736e-09	-3.798396e+01	-1.533874e+02
1.900000e-07	-5.323374e-06	-2.497049e-09	-3.793428e+01	-1.535406e+02
2.000000e-07	-5.316036e-06	-2.412186e-09	-3.788198e+01	-1.537006e+02
2.100000e-07	-5.308572e-06	-2.288717e-09	-3.782879e+01	-1.538649e+02
2.200000e-07	-5.300934e-06	-2.421144e-09	-3.777437e+01	-1.540313e+02
2.300000e-07	-5.292989e-06	-2.475321e-09	-3.771775e+01	-1.541971e+02
2.400000e-07	-5.284761e-06	-2.366055e-09	-3.765912e+01	-1.543599e+02
2.500000e-07	-5.276005e-06	-2.329653e-09	-3.759672e+01	-1.545174e+02
2.600000e-07	-5.266543e-06	-2.457335e-09	-3.752930e+01	-1.546670e+02
2.700000e-07	-5.256358e-06	-2.436681e-09	-3.745672e+01	-1.548066e+02
2.800000e-07	-5.245639e-06	-2.327629e-09	-3.738034e+01	-1.549341e+02
2.900000e-07	-5.234534e-06	-2.387293e-09	-3.730120e+01	-1.550476e+02
3.000000e-07	-5.223000e-06	-2.471067e-09	-3.721901e+01	-1.551454e+02
3.100000e-07	-5.211061e-06	-2.360613e-09	-3.713393e+01	-1.552262e+02
3.200000e-07	-5.198828e-06	-2.307248e-09	-3.704676e+01	-1.552887e+02
3.300000e-07	-5.186269e-06	-2.431750e-09	-3.695727e+01	-1.553322e+02
3.400000e-07	-5.173275e-06	-2.412897e-09	-3.686467e+01	-1.553560e+02
3.500000e-07	-5.159877e-06	-2.298823e-09	-3.676919e+01	-1.553599e+02
3.600000e-07	-5.146102e-06	-2.353739e-09	-3.667103e+01	-1.553438e+02
3.700000e-07	-5.131946e-06	-2.434211e-09	-3.657016e+01	-1.553082e+02
3.800000e-07	-5.117284e-06	-2.347329e-09	-3.646568e+01	-1.552535e+02
3.900000e-07	-5.101979e-06	-2.328278e-09	-3.635662e+01	-1.551805e+02
4.000000e-07	-5.086146e-06	-2.397050e-09	-3.624379e+01	-1.550903e+02
4.100000e-07	-5.069886e-06	-2.362946e-09	-3.612792e+01	-1.549842e+02
4.200000e-07	-5.053277e-06	-2.304394e-09	-3.600957e+01	-1.548636e+02
4.300000e-07	-5.036318e-06	-2.373678e-09	-3.588872e+01	-1.547299e+02
4.400000e-07	-5.019107e-06	-2.369278e-09	-3.576608e+01	-1.545848e+02
4.500000e-07	-5.001729e-06	-2.313460e-09	-3.564223e+01	-1.544300e+02
4.600000e-07	-4.983992e-06	-2.339862e-09	-3.551585e+01	-1.542673e+02
4.700000e-07	-4.965826e-06	-2.386354e-09	-3.538639e+01	-1.540983e+02
4.800000e-07	-4.947215e-06	-2.329462e-09	-3.525377e+01	-1.539248e+02
4.900000e-07	-4.928138e-06	-2.321537e-09	-3.511783e+01	-1.537483e+02
5.000000e-07	-4.908624e-06	-2.345350e-09	-3.497877e+01	-1.535704e+02
5.100000e-07	-4.888890e-06	-2.336203e-09	-3.483815e+01	-1.533925e+02
5.200000e-07	-4.868996e-06	-2.321941e-09	-3.469639e+01	-1.532158e+02
5.300000e-07	-4.848889e-06	-2.339098e-09	-3.455310e+01	-1.530413e+02
5.400000e-07	-4.828603e-06	-2.319853e-09	-3.440854e+01	-1.528700e+02
5.500000e-07	-4.808062e-06	-2.320022e-09	-3.426217e+01	-1.527026e+02
5.600000e-07	-4.787073e-06	-2.333698e-09	-3.411260e+01	-1.525396e+02
5.700000e-07	-4.765647e-06	-2.317893e-09	-3.395992e+01	-1.523813e+02
5.800000e-07	-4.743971e-06	-2.300963e-09	-3.380546e+01	-1.522278e+02
5.900000e-07	-4.722074e-06	-2.319135e-09	-3.364942e+01	-1.520791e+02
6.000000e-07	-4.699815e-06	-2.316689e-09	-3.349080e+01	-1.519350e+02
6.100000e-07	-4.677126e-06	-2.300686e-09	-3.332912e+01	-1.517951e+02
6.200000e-07	-4.654052e-06	-2.296970e-09	-3.316470e+01	-1.516588e+02
6.300000e-07	-4.630634e-06	-2.288567e-09	-3.299782e+01	-1.515256e+02
6.400000e-07	-4.606977e-06	-2.289745e-09	-3.282924e+01	-1.513946e+02
6.500000e-07	-4.583140e-06	-2.296436e-09	-3.265938e+01	-1.512652e+02
6.600000e-07	-4.559097e-06	-2.284500e-09	-3.248805e+01	-1.511363e+02
6.700000e-07	-4.534832e-06	-2.270111e-09	-3.231514e+01	-1.510072e+02
6.800000e-07	-4.510259e-06	-2.287348e-09	-3.214003e+01	-1.508768e+02
6.900000e-07	-4.485296e-06	-2.289429e-09	-3.196214e+01	-1.507444e+02
7.000000e-07	-4.459799e-06	-2.276415e-09	-3.178045e+01	-1.506089e+02
7.100000e-07	-4.433709e-06	-2.265135e-09	-3.159454e+01	-1.504697e+02
7.200000e-07	-4.407055e-06	-2.267579e-09	-3.140460e+01	-1.503260e+02
7.300000e-07	-4.379894e-06	-2.263088e-09	-3.121105e+01	-1.501770e+02
7.400000e-07	-4.352387e-06	-2.261503e-09	-3.101504e+01	-1.500223e+02
7.500000e-07	-4.324689e-06	-2.249759e-09	-3.081766e+01	-1.498613e+02
7.600000e-07	-4.296808e-06	-2.251095e-09	-3.061898e+01	-1.496937e+02
7.700000e-07	-4.268727e-06	-2.254132e-09	-3.041888e+01	-1.495192e+02
7.800000e-07	-4.240488e-06	-2.249098e-09	-3.021765e+01	-1.493377e+02
7.900000e-07	-4.212056e-06	-2.230308e-09	-3.001504e+01	-1.491490e+02
8.000000e-07	-4.183406e-06	-2.227273e-09	-2.981088e+01	-1.489533e+02
8.100000e-07	-4.154395e-06	-2.227119e-09	-2.960415e+01	-1.487507e+02
8.200000e-07	-4.124999e-06	-2.227366e-09	-2.939467e+01	-1.485413e+02
8.300000e-07	-4.095337e-06	-2.222850e-09	-2.918330e+01	-1.483256e+02
8.400000e-07	-4.065409e-06	-2.221333e-09	-2.897004e+01	-1.481037e+02
8.500000e-07	-4.035211e-06	-2.219723e-09	-2.875484e+01	-1.478763e+02
8.600000e-07	-4.004732e-06	-2.217613e-09	-2.853765e+01	-1.476436e+02
8.700000e-07	-3.974037e-06	-2.203082e-09	-2.831892e+01	-1.474063e+02
8.800000e-07	-3.943072e-06	-2.190375e-09	-2.809827e+01	-1.471646e+02
8.900000e-07	-3.911778e-06	-2.187688e-09	-2.787526e+01	-1.469193e+02
9.000000e-07	-3.880224e-06	-2.192756e-09	-2.765041e+01	-1.466706e+02
9.100000e-07	-3.848494e-06	-2.191623e-09	-2.742430e+01	-1.464192e+02
9.200000e-07	-3.816611e-06	-2.182578e-09	-2.719710e+01	-1.461653e+02
9.300000e-07	-3.784544e-06	-2.176177e-09	-2.696860e+01	-1.459094e+02
9.400000e-07	-3.752326e-06	-2.170611e-09	-2.673901e+01	-1.456520e+02
9.500000e-07	-3.719922e-06	-2.163221e-09	-2.650810e+01	-1.453931e+02
9.600000e-07	-3.687168e-06	-2.153297e-09	-2.627470e+01	-1.451332e+02
9.700000e-07	-3.653908e-06	-2.152237e-09	-2.603769e+01	-1.448725e+02
9.800000e-07	-3.620269e-06	-2.156340e-09	-2.579798e+01	-1.446110e+02
9.900000e-07	-3.586335e-06	-2.156580e-09	-2.555616e+01	-1.443490e+02
1.000000e-06	-3.551954e-06	-2.145122e-09	-2.531116e+01	-1.440864e+02
1.010000e-06	-3.517109e-06	-2.137386e-09	-2.506286e+01	-1.438233e+02
1.020000e-06	-3.481874e-06	-2.131792e-09	-2.481178e+01	-1.435597e+02
1.030000e-06	-3.446334e-06	-2.126333e-09	-2.455852e+01	-1.432955e+02
1.040000e-06	-3.410582e-06	-2.116271e-09	-2.430375e+01	-1.430306e+02
1.050000e-06	-3.374687e-06	-2.114804e-09	-2.404796e+01	-1.427649e+02
1.060000e-06	-3.338711e-06	-2.115430e-09	-2.379160e+01	-1.424982e+02
1.070000e-06	-3.302641e-06	-2.116231e-09	-2.353456e+01	-1.422304e+02
1.080000e-06	-3.266445e-06	-2.109215e-09	-2.327663e+01	-1.419613e+02
1.090000e-06	-3.230006e-06	-2.099635e-09	-2.301697e+01	-1.416907e+02
1.100000e-06	-3.193293e-06	-2.089650e-09	-2.275535e+01	-1.414183e+02
1.110000e-06	-3.156350e-06	-2.086531e-09	-2.249209e+01	-1.411440e+02
1.120000e-06	-3.119121e-06	-2.082727e-09	-2.222681e+01	-1.408675e+02
1.130000e-06	-3.081613e-06	-2.078537e-09	-2.195952e+01	-1.405886e+02
1.140000e-06	-3.043867e-06	-2.073261e-09	-2.169055e+01	-1.403070e+02
1.150000e-06	-3.005974e-06	-2.070613e-09	-2.142052e+01	-1.400224e+02
1.160000e-06	-2.967956e-06	-2.062384e-09	-2.114961e+01	-1.397347e+02
1.170000e-06	-2.929792e-06	-2.049850e-09	-2.087765e+01	-1.394435e+02
1.180000e-06	-2.891436e-06	-2.039992e-09	-2.060433e+01	-1.391486e+02
1.190000e-06	-2.852817e-06	-2.036183e-09	-2.032913e+01	-1.388495e+02
1.200000e-06	-2.813965e-06	-2.034020e-09	-2.005227e+01	-1.385462e+02
1.210000e-06	-2.774849e-06	-2.029283e-09	-1.977353e+01	-1.382381e+02
1.220000e-06	-2.735433e-06	-2.025550e-09	-1.949265e+01	-1.379250e+02
1.230000e-06	-2.695824e-06	-2.022462e-09	-1.921040e+01	-1.376066e+02
1.240000e-06	-2.656160e-06	-2.016441e-09	-1.892775e+01	-1.372823e+02
1.250000e-06	-2.616414e-06	-2.005620e-09	-1.864452e+01	-1.369520e+02
1.260000e-06	-2.576535e-06	-1.996919e-09	-1.836035e+01	-1.366151e+02
1.270000e-06	-2.536573e-06	-1.989377e-09	-1.807558e+01	-1.362714e+02
1.280000e-06	-2.496526e-06	-1.985163e-09	-1.779020e+01	-1.359203e+02
1.290000e-06	-2.456370e-06	-1.981776e-09	-1.750405e+01	-1.355615e+02
1.300000e-06	-2.416124e-06	-1.977753e-09	-1.721726e+01	-1.351947e+02
1.310000e-06	-2.375852e-06	-1.970141e-09	-1.693028e+01	-1.348193e+02
1.320000e-06	-2.335447e-06	-1.961916e-09	-1.664236e+01	-1.344352e+02
1.330000e-06	-2.294780e-06	-1.953280e-09	-1.635256e+01	-1.340418e+02
1.340000e-06	-2.253850e-06	-1.947561e-09	-1.606090e+01	-1.336389e+02
1.350000e-06	-2.212660e-06	-1.942438e-09	-1.576738e+01	-1.332262e+02
1.360000e-06	-2.171091e-06	-1.937154e-09	-1.547116e+01	-1.328035e+02
1.370000e-06	-2.129176e-06	-1.930061e-09	-1.517247e+01	-1.323705e+02
1.380000e-06	-2.087015e-06	-1.923978e-09	-1.487203e+01	-1.319270e+02
1.390000e-06	-2.044485e-06	-1.915721e-09	-1.456897e+01	-1.314729e+02
1.400000e-06	-2.001659e-06	-1.906808e-09	-1.426379e+01	-1.310082e+02
1.410000e-06	-1.958659e-06	-1.898421e-09	-1.395737e+01	-1.305327e+02
1.420000e-06	-1.915460e-06	-1.893149e-09	-1.364954e+01	-1.300465e+02
1.430000e-06	-1.872138e-06	-1.887197e-09	-1.334083e+01	-1.295495e+02
1.440000e-06	-1.828700e-06	-1.877741e-09	-1.303129e+01	-1.290419e+02
1.450000e-06	-1.785112e-06	-1.866054e-09	-1.272068e+01	-1.285237e+02
1.460000e-06	-1.741418e-06	-1.857075e-09	-1.240931e+01	-1.279950e+02
1.470000e-06	-1.697620e-06	-1.849818e-09	-1.209721e+01	-1.274559e+02
1.480000e-06	-1.653743e-06	-1.840951e-09	-1.178454e+01	-1.269066e+02
1.490000e-06	-1.609806e-06	-1.830571e-09	-1.147145e+01	-1.263471e+02
1.500000e-06	-1.565811e-06	-1.823237e-09	-1.115794e+01	-1.257774e+02
1.510000e-06	-1.521795e-06	-1.819178e-09	-1.084429e+01	-1.251977e+02
1.520000e-06	-1.477703e-06	-1.810808e-09	-1.053009e+01	-1.246079e+02
1.530000e-06	-1.433477e-06	-1.798198e-09	-1.021494e+01	-1.240079e+02
1.540000e-06	-1.389211e-06	-1.791723e-09	-9.899495e+00	-1.233975e+02
1.550000e-06	-1.344915e-06	-1.789392e-09	-9.583843e+00	-1.227766e+02
1.560000e-06	-1.300533e-06	-1.781417e-09	-9.267576e+00	-1.221448e+02
1.570000e-06	-1.256120e-06	-1.768130e-09	-8.951091e+00	-1.215017e+02
1.580000e-06	-1.211638e-06	-1.753088e-09	-8.634113e+00	-1.208468e+02
1.590000e-06	-1.167084e-06	-1.744037e-09	-8.316624e+00	-1.201794e+02
1.600000e-06	-1.122462e-06	-1.735976e-09	-7.998643e+00	-1.194987e+02
1.610000e-06	-1.077686e-06	-1.722903e-09	-7.679569e+00	-1.188040e+02
1.620000e-06	-1.032769e-06	-1.708359e-09	-7.359496e+00	-1.180942e+02
1.630000e-06	-9.877962e-07	-1.700596e-09	-7.039019e+00	-1.173682e+02
1.640000e-06	-9.428424e-07	-1.694702e-09	-6.718680e+00	-1.166249e+02
1.650000e-06	-8.977980e-07	-1.683844e-09	-6.397694e+00	-1.158629e+02
1.660000e-06	-8.526388e-07	-1.669223e-09	-6.075890e+00	-1.150809e+02
1.670000e-06	-8.074441e-07	-1.656747e-09	-5.753833e+00	-1.142774e+02
1.680000e-06	-7.621678e-07	-1.645388e-09	-5.431195e+00	-1.134510e+02
1.690000e-06	-7.168859e-07	-1.629077e-09	-5.108517e+00	-1.126000e+02
1.700000e-06	-6.715736e-07	-1.609082e-09	-4.785622e+00	-1.117228e+02
1.710000e-06	-6.261619e-07	-1.594567e-09	-4.462020e+00	-1.108179e+02
1.720000e-06	-5.807173e-07	-1.585058e-09	-4.138181e+00	-1.098835e+02
1.730000e-06	-5.351800e-07	-1.574783e-09	-3.813684e+00	-1.089182e+02
1.740000e-06	-4.895418e-07	-1.558998e-09	-3.488467e+00	-1.079201e+02
1.750000e-06	-4.438798e-07	-1.543218e-09	-3.163080e+00	-1.068879e+02
1.760000e-06	-3.982619e-07	-1.532168e-09	-2.838007e+00	-1.058199e+02
1.770000e-06	-3.526389e-07	-1.518133e-09	-2.512899e+00	-1.047147e+02
1.780000e-06	-3.069121e-07	-1.495220e-09	-2.187050e+00	-1.035708e+02
1.790000e-06	-2.611475e-07	-1.471005e-09	-1.860933e+00	-1.023869e+02
1.800000e-06	-2.154456e-07	-1.453423e-09	-1.535262e+00	-1.011616e+02
1.810000e-06	-1.696904e-07	-1.438764e-09	-1.209211e+00	-9.989371e+01
1.820000e-06	-1.238343e-07	-1.420871e-09	-8.824411e-01	-9.858206e+01
1.830000e-06	-7.800144e-08	-1.400624e-09	-5.558370e-01	-9.722552e+01
1.840000e-06	-3.227499e-08	-1.381788e-09	-2.299911e-01	-9.582299e+01
1.850000e-06	1.342513e-08	-1.362731e-09	9.566727e-02	-9.437344e+01
1.860000e-06	5.914223e-08	-1.338841e-09	4.214466e-01	-9.287585e+01
1.870000e-06	1.048273e-07	-1.312571e-09	7.469973e-01	-9.132923e+01
1.880000e-06	1.505492e-07	-1.290055e-09	1.072811e+00	-8.973260e+01
1.890000e-06	1.962745e-07	-1.269990e-09	1.398649e+00	-8.808496e+01
1.900000e-06	2.419912e-07	-1.245489e-09	1.724425e+00	-8.638531e+01
1.910000e-06	2.877428e-07	-1.213952e-09	2.050451e+00	-8.463260e+01
1.920000e-06	3.335149e-07	-1.184147e-09	2.376621e+00	-8.282577e+01
1.930000e-06	3.792386e-07	-1.158840e-09	2.702448e+00	-8.096369e+01
1.940000e-06	4.249071e-07	-1.134130e-09	3.027881e+00	-7.904519e+01
1.950000e-06	4.705658e-07	-1.107479e-09	3.353244e+00	-7.706905e+01
1.960000e-06	5.161000e-07	-1.081623e-09	3.677720e+00	-7.503399e+01
1.970000e-06	5.615484e-07	-1.054518e-09	4.001585e+00	-7.293869e+01
1.980000e-06	6.069925e-07	-1.023118e-09	4.325418e+00	-7.078177e+01
1.990000e-06	6.523347e-07	-9.859987e-10	4.648526e+00	-6.856185e+01
2.000000e-06	6.976499e-07	-9.477920e-10	4.971441e+00	-6.627753e+01
2.010000e-06	7.430179e-07	-9.129231e-10	5.294733e+00	-6.392739e+01
2.020000e-06	7.882903e-07	-8.807884e-10	5.617343e+00	-6.151007e+01
2.030000e-06	8.334091e-07	-8.482133e-10	5.938859e+00	-5.902428e+01
2.040000e-06	8.784677e-07	-8.146234e-10	6.259946e+00	-5.646879e+01
2.050000e-06	9.234428e-07	-7.792512e-10	6.580438e+00	-5.384250e+01
2.060000e-06	9.682985e-07	-7.405565e-10	6.900079e+00	-5.114450e+01
2.070000e-06	1.013148e-06	-6.959945e-10	7.219677e+00	-4.837403e+01
2.080000e-06	1.057978e-06	-6.477274e-10	7.539133e+00	-4.553062e+01
2.090000e-06	1.102648e-06	-6.003344e-10	7.857451e+00	-4.261402e+01
2.100000e-06	1.147218e-06	-5.568739e-10	8.175058e+00	-3.962435e+01
2.110000e-06	1.191716e-06	-5.172290e-10	8.492147e+00	-3.656203e+01
2.120000e-06	1.236066e-06	-4.769043e-10	8.808185e+00	-3.342790e+01
2.130000e-06	1.280353e-06	-4.348484e-10	9.123774e+00	-3.022320e+01
2.140000e-06	1.324652e-06	-3.912151e-10	9.439446e+00	-2.694961e+01
2.150000e-06	1.368912e-06	-3.426261e-10	9.754842e+00	-2.360929e+01
2.160000e-06	1.413081e-06	-2.865670e-10	1.006959e+01	-2.020486e+01
2.170000e-06	1.457188e-06	-2.302436e-10	1.038390e+01	-1.673946e+01
2.180000e-06	1.501224e-06	-1.781259e-10	1.069770e+01	-1.321671e+01
2.190000e-06	1.545207e-06	-1.275930e-10	1.101112e+01	-9.640719e+00
2.200000e-06	1.589171e-06	-7.585227e-11	1.132441e+01	-6.016096e+00
2.210000e-06	1.633094e-06	-2.325391e-11	1.163740e+01	-2.347906e+00
2.220000e-06	1.676973e-06	2.982047e-11	1.195008e+01	1.358343e+00
2.230000e-06	1.720835e-06	8.509299e-11	1.226264e+01	5.096734e+00
2.240000e-06	1.764660e-06	1.464530e-10	1.257494e+01	8.860979e+00
2.250000e-06	1.808340e-06	2.079032e-10	1.288620e+01	1.264447e+01
2.260000e-06	1.851737e-06	2.651635e-10	1.319545e+01	1.644032e+01
2.270000e-06	1.894911e-06	3.205349e-10	1.350310e+01	2.024142e+01
2.280000e-06	1.937925e-06	3.765252e-10	1.380962e+01	2.404054e+01
2.290000e-06	1.980700e-06	4.330961e-10	1.411443e+01	2.783032e+01
2.300000e-06	2.023258e-06	4.892951e-10	1.441771e+01	3.160341e+01
2.310000e-06	2.065668e-06	5.449412e-10	1.471991e+01	3.535247e+01
2.320000e-06	2.107945e-06	6.005728e-10	1.502118e+01	3.907032e+01
2.330000e-06	2.149942e-06	6.566573e-10	1.532045e+01	4.274992e+01
2.340000e-06	2.191502e-06	7.083594e-10	1.561660e+01	4.638451e+01
2.350000e-06	2.232709e-06	7.548431e-10	1.591025e+01	4.996762e+01
2.360000e-06	2.273702e-06	8.028328e-10	1.620236e+01	5.349316e+01
2.370000e-06	2.314521e-06	8.561284e-10	1.649324e+01	5.695547e+01
2.380000e-06	2.355131e-06	9.086233e-10	1.678262e+01	6.034935e+01
2.390000e-06	2.395516e-06	9.571839e-10	1.707041e+01	6.367012e+01
2.400000e-06	2.435763e-06	1.004384e-09	1.735721e+01	6.691362e+01
2.410000e-06	2.475921e-06	1.050887e-09	1.764337e+01	7.007630e+01
2.420000e-06	2.515987e-06	1.093474e-09	1.792888e+01	7.315516e+01
2.430000e-06	2.555949e-06	1.130865e-09	1.821365e+01	7.614782e+01
2.440000e-06	2.595807e-06	1.168245e-09	1.849768e+01	7.905247e+01
2.450000e-06	2.635602e-06	1.209080e-09	1.878126e+01	8.186792e+01
2.460000e-06	2.675291e-06	1.250432e-09	1.906408e+01	8.459352e+01
2.470000e-06	2.714805e-06	1.289521e-09	1.934565e+01	8.722917e+01
2.480000e-06	2.754034e-06	1.326262e-09	1.962520e+01	8.977530e+01
2.490000e-06	2.793012e-06	1.361511e-09	1.990296e+01	9.223281e+01
2.500000e-06	2.831927e-06	1.394253e-09	2.018026e+01	9.460301e+01
2.510000e-06	2.870555e-06	1.422983e-09	2.045553e+01	9.688764e+01
2.520000e-06	2.908857e-06	1.450886e-09	2.072847e+01	9.908874e+01
2.530000e-06	2.947031e-06	1.482737e-09	2.100050e+01	1.012086e+02
2.540000e-06	2.985073e-06	1.516435e-09	2.127158e+01	1.032499e+02
2.550000e-06	3.022951e-06	1.548120e-09	2.154150e+01	1.052153e+02
2.560000e-06	3.060624e-06	1.578939e-09	2.180995e+01	1.071076e+02
2.570000e-06	3.098121e-06	1.608211e-09	2.207716e+01	1.089298e+02
2.580000e-06	3.135369e-06	1.635696e-09	2.234258e+01	1.106848e+02
2.590000e-06	3.172400e-06	1.657663e-09	2.260647e+01	1.123755e+02
2.600000e-06	3.209220e-06	1.674973e-09	2.286885e+01	1.140047e+02
2.610000e-06	3.245749e-06	1.693806e-09	2.312915e+01	1.155751e+02
2.620000e-06	3.282048e-06	1.715579e-09	2.338782e+01	1.170894e+02
2.630000e-06	3.318203e-06	1.738129e-09	2.364546e+01	1.185499e+02
2.640000e-06	3.354242e-06	1.759193e-09	2.390227e+01	1.199589e+02
2.650000e-06	3.390152e-06	1.780996e-09	2.415817e+01	1.213185e+02
2.660000e-06	3.425958e-06	1.802812e-09	2.441332e+01	1.226304e+02
2.670000e-06	3.461613e-06	1.822174e-09	2.466740e+01	1.238962e+02
2.680000e-06	3.497123e-06	1.836442e-09	2.492044e+01	1.251176e+02
2.690000e-06	3.532298e-06	1.846963e-09	2.517110e+01	1.262957e+02
2.700000e-06	3.566999e-06	1.857454e-09	2.541838e+01	1.274315e+02
2.710000e-06	3.601289e-06	1.870623e-09	2.566273e+01	1.285262e+02
2.720000e-06	3.635158e-06	1.887063e-09	2.590408e+01	1.295804e+02
2.730000e-06	3.668616e-06	1.905945e-09	2.614250e+01	1.305949e+02
2.740000e-06	3.701585e-06	1.927125e-09	2.637743e+01	1.315704e+02
2.750000e-06	3.734197e-06	1.946516e-09	2.660983e+01	1.325075e+02
2.760000e-06	3.766566e-06	1.960688e-09	2.684049e+01	1.334068e+02
2.770000e-06	3.798733e-06	1.968914e-09	2.706971e+01	1.342688e+02
2.780000e-06	3.830786e-06	1.973745e-09	2.729811e+01	1.350943e+02
2.790000e-06	3.862679e-06	1.979915e-09	2.752539e+01	1.358839e+02
2.800000e-06	3.894343e-06	1.988229e-09	2.775103e+01	1.366385e+02
2.810000e-06	3.925775e-06	2.000313e-09	2.797501e+01	1.373587e+02
2.820000e-06	3.956946e-06	2.016158e-09	2.819713e+01	1.380458e+02
2.830000e-06	3.987811e-06	2.031080e-09	2.841708e+01	1.387006e+02
2.840000e-06	4.018332e-06	2.043416e-09	2.863457e+01	1.393245e+02
2.850000e-06	4.048552e-06	2.053862e-09	2.884991e+01	1.399187e+02
2.860000e-06	4.078487e-06	2.063166e-09	2.906323e+01	1.404846e+02
2.870000e-06	4.108164e-06	2.071141e-09	2.927471e+01	1.410238e+02
2.880000e-06	4.137679e-06	2.075731e-09	2.948503e+01	1.415377e+02
2.890000e-06	4.166898e-06	2.076334e-09	2.969324e+01	1.420281e+02
2.900000e-06	4.195762e-06	2.078542e-09	2.989893e+01	1.424967e+02
