# Temperatura_=_-1.0
# Concentracion g/m^3_=_4090.0
# C_Vs_to_Am_M_A/Vsm_=_65563218390.804596
# pendiente_HvsI_1/m_=_3716.3
# ordenada_HvsI_A/m_=_1297.0
# frecuencia_Hz_=_135065.39627409243

Tiempo_(s)	Campo_(V.s)	Magnetizacion_(V.s)	Campo_(kA/m)	Magnetizacion_(A/m)
0.000000e+00	-5.393079e-06	-2.619155e-09	-3.839960e+01	-1.709391e+02
1.000000e-08	-5.393135e-06	-2.622599e-09	-3.840000e+01	-1.708798e+02
2.000000e-08	-5.392946e-06	-2.620851e-09	-3.839866e+01	-1.708208e+02
3.000000e-08	-5.392357e-06	-2.618631e-09	-3.839446e+01	-1.707635e+02
4.000000e-08	-5.391321e-06	-2.618964e-09	-3.838708e+01	-1.707092e+02
5.000000e-08	-5.389818e-06	-2.621965e-09	-3.837639e+01	-1.706590e+02
6.000000e-08	-5.387703e-06	-2.633703e-09	-3.836132e+01	-1.706141e+02
7.000000e-08	-5.384948e-06	-2.614163e-09	-3.834171e+01	-1.705755e+02
8.000000e-08	-5.381643e-06	-2.549573e-09	-3.831818e+01	-1.705440e+02
9.000000e-08	-5.377812e-06	-2.578270e-09	-3.829090e+01	-1.705205e+02
1.000000e-07	-5.373580e-06	-2.721557e-09	-3.826077e+01	-1.705054e+02
1.100000e-07	-5.369174e-06	-2.675687e-09	-3.822939e+01	-1.704991e+02
1.200000e-07	-5.364624e-06	-2.521287e-09	-3.819700e+01	-1.705018e+02
1.300000e-07	-5.359749e-06	-2.544743e-09	-3.816229e+01	-1.705134e+02
1.400000e-07	-5.354437e-06	-2.729614e-09	-3.812446e+01	-1.705338e+02
1.500000e-07	-5.348712e-06	-2.701650e-09	-3.808370e+01	-1.705625e+02
1.600000e-07	-5.342652e-06	-2.466891e-09	-3.804055e+01	-1.705990e+02
1.700000e-07	-5.336250e-06	-2.536864e-09	-3.799497e+01	-1.706423e+02
1.800000e-07	-5.329419e-06	-2.748753e-09	-3.794633e+01	-1.706915e+02
1.900000e-07	-5.322154e-06	-2.716683e-09	-3.789460e+01	-1.707455e+02
2.000000e-07	-5.314675e-06	-2.543277e-09	-3.784135e+01	-1.708029e+02
2.100000e-07	-5.307085e-06	-2.640411e-09	-3.778731e+01	-1.708625e+02
2.200000e-07	-5.299207e-06	-2.771843e-09	-3.773122e+01	-1.709227e+02
2.300000e-07	-5.290955e-06	-2.665139e-09	-3.767246e+01	-1.709819e+02
2.400000e-07	-5.282194e-06	-2.587460e-09	-3.761008e+01	-1.710387e+02
2.500000e-07	-5.272741e-06	-2.729266e-09	-3.754277e+01	-1.710913e+02
2.600000e-07	-5.262678e-06	-2.770210e-09	-3.747113e+01	-1.711382e+02
2.700000e-07	-5.252123e-06	-2.627143e-09	-3.739597e+01	-1.711778e+02
2.800000e-07	-5.241051e-06	-2.666638e-09	-3.731714e+01	-1.712087e+02
2.900000e-07	-5.229506e-06	-2.800316e-09	-3.723493e+01	-1.712295e+02
3.000000e-07	-5.217544e-06	-2.697008e-09	-3.714976e+01	-1.712390e+02
3.100000e-07	-5.205294e-06	-2.575332e-09	-3.706255e+01	-1.712360e+02
3.200000e-07	-5.192744e-06	-2.710141e-09	-3.697318e+01	-1.712195e+02
3.300000e-07	-5.179769e-06	-2.764000e-09	-3.688080e+01	-1.711888e+02
3.400000e-07	-5.166427e-06	-2.630014e-09	-3.678580e+01	-1.711433e+02
3.500000e-07	-5.152760e-06	-2.634148e-09	-3.668849e+01	-1.710825e+02
3.600000e-07	-5.138731e-06	-2.739625e-09	-3.658860e+01	-1.710061e+02
3.700000e-07	-5.124242e-06	-2.675166e-09	-3.648544e+01	-1.709142e+02
3.800000e-07	-5.109146e-06	-2.623467e-09	-3.637796e+01	-1.708068e+02
3.900000e-07	-5.093382e-06	-2.684048e-09	-3.626571e+01	-1.706844e+02
4.000000e-07	-5.077088e-06	-2.664814e-09	-3.614970e+01	-1.705473e+02
4.100000e-07	-5.060505e-06	-2.596699e-09	-3.603162e+01	-1.703962e+02
4.200000e-07	-5.043656e-06	-2.664886e-09	-3.591165e+01	-1.702319e+02
4.300000e-07	-5.026482e-06	-2.688221e-09	-3.578937e+01	-1.700553e+02
4.400000e-07	-5.009104e-06	-2.609848e-09	-3.566564e+01	-1.698673e+02
4.500000e-07	-4.991476e-06	-2.614768e-09	-3.554012e+01	-1.696692e+02
4.600000e-07	-4.973360e-06	-2.676910e-09	-3.541113e+01	-1.694619e+02
4.700000e-07	-4.954701e-06	-2.641538e-09	-3.527828e+01	-1.692467e+02
4.800000e-07	-4.935619e-06	-2.604421e-09	-3.514241e+01	-1.690248e+02
4.900000e-07	-4.916239e-06	-2.627074e-09	-3.500443e+01	-1.687973e+02
5.000000e-07	-4.896619e-06	-2.633861e-09	-3.486473e+01	-1.685653e+02
5.100000e-07	-4.876794e-06	-2.627921e-09	-3.472357e+01	-1.683300e+02
5.200000e-07	-4.856769e-06	-2.625092e-09	-3.458099e+01	-1.680922e+02
5.300000e-07	-4.836519e-06	-2.601310e-09	-3.443680e+01	-1.678530e+02
5.400000e-07	-4.815983e-06	-2.599055e-09	-3.429058e+01	-1.676131e+02
5.500000e-07	-4.795057e-06	-2.626299e-09	-3.414159e+01	-1.673733e+02
5.600000e-07	-4.773722e-06	-2.607877e-09	-3.398968e+01	-1.671341e+02
5.700000e-07	-4.752046e-06	-2.580082e-09	-3.383535e+01	-1.668959e+02
5.800000e-07	-4.730067e-06	-2.590902e-09	-3.367885e+01	-1.666591e+02
5.900000e-07	-4.707777e-06	-2.602111e-09	-3.352014e+01	-1.664239e+02
6.000000e-07	-4.685094e-06	-2.591396e-09	-3.335863e+01	-1.661903e+02
6.100000e-07	-4.662061e-06	-2.580893e-09	-3.319463e+01	-1.659582e+02
6.200000e-07	-4.638812e-06	-2.561010e-09	-3.302910e+01	-1.657275e+02
6.300000e-07	-4.615273e-06	-2.564183e-09	-3.286150e+01	-1.654979e+02
6.400000e-07	-4.591467e-06	-2.580805e-09	-3.269199e+01	-1.652689e+02
6.500000e-07	-4.567483e-06	-2.566639e-09	-3.252123e+01	-1.650402e+02
6.600000e-07	-4.543265e-06	-2.540252e-09	-3.234879e+01	-1.648112e+02
6.700000e-07	-4.518681e-06	-2.553488e-09	-3.217374e+01	-1.645814e+02
6.800000e-07	-4.493687e-06	-2.563360e-09	-3.199578e+01	-1.643500e+02
6.900000e-07	-4.468249e-06	-2.546640e-09	-3.181466e+01	-1.641165e+02
7.000000e-07	-4.442211e-06	-2.529111e-09	-3.162927e+01	-1.638803e+02
7.100000e-07	-4.415559e-06	-2.528941e-09	-3.143950e+01	-1.636407e+02
7.200000e-07	-4.388465e-06	-2.532251e-09	-3.124659e+01	-1.633970e+02
7.300000e-07	-4.361108e-06	-2.530575e-09	-3.105180e+01	-1.631488e+02
7.400000e-07	-4.333571e-06	-2.514331e-09	-3.085573e+01	-1.628955e+02
7.500000e-07	-4.305900e-06	-2.508907e-09	-3.065871e+01	-1.626366e+02
7.600000e-07	-4.278040e-06	-2.521636e-09	-3.046035e+01	-1.623718e+02
7.700000e-07	-4.249940e-06	-2.522876e-09	-3.026027e+01	-1.621006e+02
7.800000e-07	-4.221560e-06	-2.503131e-09	-3.005820e+01	-1.618229e+02
7.900000e-07	-4.192837e-06	-2.490775e-09	-2.985369e+01	-1.615385e+02
8.000000e-07	-4.163750e-06	-2.492205e-09	-2.964658e+01	-1.612472e+02
8.100000e-07	-4.134345e-06	-2.492410e-09	-2.943721e+01	-1.609491e+02
8.200000e-07	-4.104673e-06	-2.484229e-09	-2.922594e+01	-1.606442e+02
8.300000e-07	-4.074738e-06	-2.472148e-09	-2.901280e+01	-1.603327e+02
8.400000e-07	-4.044566e-06	-2.470545e-09	-2.879797e+01	-1.600146e+02
8.500000e-07	-4.014182e-06	-2.475656e-09	-2.858163e+01	-1.596903e+02
8.600000e-07	-3.983485e-06	-2.468493e-09	-2.836306e+01	-1.593600e+02
8.700000e-07	-3.952561e-06	-2.451090e-09	-2.814288e+01	-1.590241e+02
8.800000e-07	-3.921451e-06	-2.444642e-09	-2.792137e+01	-1.586829e+02
8.900000e-07	-3.890004e-06	-2.449381e-09	-2.769747e+01	-1.583368e+02
9.000000e-07	-3.858326e-06	-2.449317e-09	-2.747191e+01	-1.579862e+02
9.100000e-07	-3.826526e-06	-2.433858e-09	-2.724549e+01	-1.576315e+02
9.200000e-07	-3.794573e-06	-2.417996e-09	-2.701798e+01	-1.572730e+02
9.300000e-07	-3.762327e-06	-2.410630e-09	-2.678838e+01	-1.569113e+02
9.400000e-07	-3.729718e-06	-2.408441e-09	-2.655620e+01	-1.565465e+02
9.500000e-07	-3.696863e-06	-2.399961e-09	-2.632227e+01	-1.561790e+02
9.600000e-07	-3.663722e-06	-2.394925e-09	-2.608630e+01	-1.558091e+02
9.700000e-07	-3.630134e-06	-2.397861e-09	-2.584715e+01	-1.554371e+02
9.800000e-07	-3.596082e-06	-2.398516e-09	-2.560469e+01	-1.550631e+02
9.900000e-07	-3.561563e-06	-2.384892e-09	-2.535891e+01	-1.546873e+02
1.000000e-06	-3.526710e-06	-2.367021e-09	-2.511075e+01	-1.543097e+02
1.010000e-06	-3.491533e-06	-2.352506e-09	-2.486028e+01	-1.539305e+02
1.020000e-06	-3.456045e-06	-2.342602e-09	-2.460760e+01	-1.535497e+02
1.030000e-06	-3.420401e-06	-2.333583e-09	-2.435382e+01	-1.531670e+02
1.040000e-06	-3.384625e-06	-2.331642e-09	-2.409908e+01	-1.527826e+02
1.050000e-06	-3.348719e-06	-2.335204e-09	-2.384343e+01	-1.523961e+02
1.060000e-06	-3.312631e-06	-2.338558e-09	-2.358647e+01	-1.520075e+02
1.070000e-06	-3.276368e-06	-2.332340e-09	-2.332827e+01	-1.516164e+02
1.080000e-06	-3.239908e-06	-2.316126e-09	-2.306868e+01	-1.512225e+02
1.090000e-06	-3.203173e-06	-2.299459e-09	-2.280711e+01	-1.508257e+02
1.100000e-06	-3.166189e-06	-2.288698e-09	-2.254378e+01	-1.504254e+02
1.110000e-06	-3.128985e-06	-2.278434e-09	-2.227889e+01	-1.500214e+02
1.120000e-06	-3.091554e-06	-2.269657e-09	-2.201237e+01	-1.496133e+02
1.130000e-06	-3.053896e-06	-2.266535e-09	-2.174424e+01	-1.492006e+02
1.140000e-06	-3.016014e-06	-2.267598e-09	-2.147451e+01	-1.487829e+02
1.150000e-06	-2.977930e-06	-2.264616e-09	-2.120334e+01	-1.483597e+02
1.160000e-06	-2.939723e-06	-2.253699e-09	-2.093131e+01	-1.479306e+02
1.170000e-06	-2.901288e-06	-2.240194e-09	-2.065764e+01	-1.474952e+02
1.180000e-06	-2.862519e-06	-2.227572e-09	-2.038160e+01	-1.470529e+02
1.190000e-06	-2.823553e-06	-2.218638e-09	-2.010416e+01	-1.466034e+02
1.200000e-06	-2.784413e-06	-2.207961e-09	-1.982547e+01	-1.461461e+02
1.210000e-06	-2.745090e-06	-2.198554e-09	-1.954549e+01	-1.456806e+02
1.220000e-06	-2.705660e-06	-2.193522e-09	-1.926474e+01	-1.452065e+02
1.230000e-06	-2.666081e-06	-2.189537e-09	-1.898293e+01	-1.447233e+02
1.240000e-06	-2.626341e-06	-2.181687e-09	-1.869998e+01	-1.442306e+02
1.250000e-06	-2.586538e-06	-2.172914e-09	-1.841657e+01	-1.437280e+02
1.260000e-06	-2.546696e-06	-2.162188e-09	-1.813289e+01	-1.432151e+02
1.270000e-06	-2.506757e-06	-2.150966e-09	-1.784852e+01	-1.426916e+02
1.280000e-06	-2.466649e-06	-2.140233e-09	-1.756294e+01	-1.421571e+02
1.290000e-06	-2.426403e-06	-2.129618e-09	-1.727639e+01	-1.416114e+02
1.300000e-06	-2.385967e-06	-2.117135e-09	-1.698848e+01	-1.410540e+02
1.310000e-06	-2.345309e-06	-2.106968e-09	-1.669898e+01	-1.404848e+02
1.320000e-06	-2.304478e-06	-2.099478e-09	-1.640826e+01	-1.399036e+02
1.330000e-06	-2.263412e-06	-2.093068e-09	-1.611586e+01	-1.393101e+02
1.340000e-06	-2.222131e-06	-2.082590e-09	-1.582194e+01	-1.387042e+02
1.350000e-06	-2.180602e-06	-2.068573e-09	-1.552624e+01	-1.380858e+02
1.360000e-06	-2.138746e-06	-2.055354e-09	-1.522822e+01	-1.374549e+02
1.370000e-06	-2.096576e-06	-2.044520e-09	-1.492796e+01	-1.368112e+02
1.380000e-06	-2.054151e-06	-2.033459e-09	-1.462589e+01	-1.361549e+02
1.390000e-06	-2.011494e-06	-2.022732e-09	-1.432217e+01	-1.354860e+02
1.400000e-06	-1.968598e-06	-2.013817e-09	-1.401674e+01	-1.348046e+02
1.410000e-06	-1.925508e-06	-2.006637e-09	-1.370993e+01	-1.341106e+02
1.420000e-06	-1.882191e-06	-1.996482e-09	-1.340150e+01	-1.334042e+02
1.430000e-06	-1.838738e-06	-1.980483e-09	-1.309212e+01	-1.326856e+02
1.440000e-06	-1.795196e-06	-1.961476e-09	-1.278209e+01	-1.319549e+02
1.450000e-06	-1.751511e-06	-1.946943e-09	-1.247104e+01	-1.312121e+02
1.460000e-06	-1.707771e-06	-1.936930e-09	-1.215961e+01	-1.304575e+02
1.470000e-06	-1.663978e-06	-1.925590e-09	-1.184780e+01	-1.296912e+02
1.480000e-06	-1.620113e-06	-1.913547e-09	-1.153547e+01	-1.289133e+02
1.490000e-06	-1.576172e-06	-1.903353e-09	-1.122260e+01	-1.281238e+02
1.500000e-06	-1.532172e-06	-1.892638e-09	-1.090931e+01	-1.273228e+02
1.510000e-06	-1.488120e-06	-1.874989e-09	-1.059566e+01	-1.265103e+02
1.520000e-06	-1.443996e-06	-1.852419e-09	-1.028148e+01	-1.256863e+02
1.530000e-06	-1.399804e-06	-1.834068e-09	-9.966833e+00	-1.248505e+02
1.540000e-06	-1.355566e-06	-1.823825e-09	-9.651854e+00	-1.240027e+02
1.550000e-06	-1.311318e-06	-1.814504e-09	-9.336797e+00	-1.231428e+02
1.560000e-06	-1.267043e-06	-1.801730e-09	-9.021556e+00	-1.222702e+02
1.570000e-06	-1.222693e-06	-1.787970e-09	-8.705772e+00	-1.213845e+02
1.580000e-06	-1.178171e-06	-1.776755e-09	-8.388769e+00	-1.204851e+02
1.590000e-06	-1.133441e-06	-1.762515e-09	-8.070283e+00	-1.195712e+02
1.600000e-06	-1.088631e-06	-1.742333e-09	-7.751228e+00	-1.186421e+02
1.610000e-06	-1.043792e-06	-1.720124e-09	-7.431972e+00	-1.176968e+02
1.620000e-06	-9.988936e-07	-1.704963e-09	-7.112285e+00	-1.167343e+02
1.630000e-06	-9.539152e-07	-1.692601e-09	-6.792032e+00	-1.157534e+02
1.640000e-06	-9.088519e-07	-1.676932e-09	-6.471173e+00	-1.147528e+02
1.650000e-06	-8.636956e-07	-1.660584e-09	-6.149653e+00	-1.137313e+02
1.660000e-06	-8.184525e-07	-1.648709e-09	-5.827515e+00	-1.126874e+02
1.670000e-06	-7.731150e-07	-1.637387e-09	-5.504705e+00	-1.116196e+02
1.680000e-06	-7.277380e-07	-1.618927e-09	-5.181614e+00	-1.105262e+02
1.690000e-06	-6.823704e-07	-1.594595e-09	-4.858589e+00	-1.094058e+02
1.700000e-06	-6.369178e-07	-1.571511e-09	-4.534959e+00	-1.082565e+02
1.710000e-06	-5.914318e-07	-1.551620e-09	-4.211091e+00	-1.070767e+02
1.720000e-06	-5.459693e-07	-1.530754e-09	-3.887390e+00	-1.058647e+02
1.730000e-06	-5.004926e-07	-1.507346e-09	-3.563589e+00	-1.046187e+02
1.740000e-06	-4.549755e-07	-1.488127e-09	-3.239500e+00	-1.033372e+02
1.750000e-06	-4.093554e-07	-1.477171e-09	-2.914677e+00	-1.020185e+02
1.760000e-06	-3.636607e-07	-1.465000e-09	-2.589323e+00	-1.006609e+02
1.770000e-06	-3.179730e-07	-1.442053e-09	-2.264019e+00	-9.926296e+01
1.780000e-06	-2.723119e-07	-1.412671e-09	-1.938905e+00	-9.782324e+01
1.790000e-06	-2.266803e-07	-1.386902e-09	-1.614001e+00	-9.634038e+01
1.800000e-06	-1.810092e-07	-1.362472e-09	-1.288815e+00	-9.481311e+01
1.810000e-06	-1.352628e-07	-1.335889e-09	-9.630932e-01	-9.324029e+01
1.820000e-06	-8.943222e-08	-1.311056e-09	-6.367720e-01	-9.162089e+01
1.830000e-06	-4.354359e-08	-1.290621e-09	-3.100375e-01	-8.995398e+01
1.840000e-06	2.281354e-09	-1.271396e-09	1.624361e-02	-8.823878e+01
1.850000e-06	4.804226e-08	-1.248449e-09	3.420687e-01	-8.647459e+01
1.860000e-06	9.377916e-08	-1.220047e-09	6.677229e-01	-8.466087e+01
1.870000e-06	1.394617e-07	-1.189600e-09	9.929904e-01	-8.279717e+01
1.880000e-06	1.851056e-07	-1.158948e-09	1.317982e+00	-8.088314e+01
1.890000e-06	2.307624e-07	-1.127567e-09	1.643066e+00	-7.891856e+01
1.900000e-06	2.764463e-07	-1.094685e-09	1.968343e+00	-7.690328e+01
1.910000e-06	3.221398e-07	-1.063237e-09	2.293688e+00	-7.483723e+01
1.920000e-06	3.678363e-07	-1.034898e-09	2.619054e+00	-7.272045e+01
1.930000e-06	4.135075e-07	-1.005799e-09	2.944241e+00	-7.055301e+01
1.940000e-06	4.590780e-07	-9.730530e-10	3.268710e+00	-6.833505e+01
1.950000e-06	5.046259e-07	-9.390434e-10	3.593019e+00	-6.606674e+01
1.960000e-06	5.501888e-07	-9.056048e-10	3.917434e+00	-6.374832e+01
1.970000e-06	5.957254e-07	-8.705591e-10	4.241662e+00	-6.138002e+01
1.980000e-06	6.411952e-07	-8.318914e-10	4.565414e+00	-5.896213e+01
1.990000e-06	6.865379e-07	-7.918806e-10	4.888262e+00	-5.649493e+01
2.000000e-06	7.318234e-07	-7.547262e-10	5.210702e+00	-5.397872e+01
2.010000e-06	7.770518e-07	-7.179823e-10	5.532736e+00	-5.141384e+01
2.020000e-06	8.221882e-07	-6.791065e-10	5.854114e+00	-4.880062e+01
2.030000e-06	8.672966e-07	-6.407796e-10	6.175293e+00	-4.613942e+01
2.040000e-06	9.122904e-07	-6.041367e-10	6.495657e+00	-4.343063e+01
2.050000e-06	9.571742e-07	-5.670839e-10	6.815236e+00	-4.067466e+01
2.060000e-06	1.002117e-06	-5.260869e-10	7.135233e+00	-3.787200e+01
2.070000e-06	1.047014e-06	-4.823008e-10	7.454910e+00	-3.502315e+01
2.080000e-06	1.091755e-06	-4.383425e-10	7.773476e+00	-3.212874e+01
2.090000e-06	1.136391e-06	-3.953476e-10	8.091286e+00	-2.918944e+01
2.100000e-06	1.180915e-06	-3.525436e-10	8.408305e+00	-2.620605e+01
2.110000e-06	1.225356e-06	-3.099192e-10	8.724733e+00	-2.317948e+01
2.120000e-06	1.269735e-06	-2.685809e-10	9.040719e+00	-2.011079e+01
2.130000e-06	1.314043e-06	-2.251668e-10	9.356197e+00	-1.700120e+01
2.140000e-06	1.358307e-06	-1.786188e-10	9.671369e+00	-1.385209e+01
2.150000e-06	1.402485e-06	-1.305905e-10	9.985922e+00	-1.066504e+01
2.160000e-06	1.446587e-06	-8.344787e-11	1.029993e+01	-7.441840e+00
2.170000e-06	1.490675e-06	-3.570159e-11	1.061385e+01	-4.184486e+00
2.180000e-06	1.534696e-06	1.375213e-11	1.092729e+01	-8.952027e-01
2.190000e-06	1.578600e-06	6.394526e-11	1.123989e+01	2.423550e+00
2.200000e-06	1.622465e-06	1.132208e-10	1.155221e+01	5.769079e+00
2.210000e-06	1.666338e-06	1.620716e-10	1.186460e+01	9.138454e+00
2.220000e-06	1.710107e-06	2.106906e-10	1.217624e+01	1.252851e+01
2.230000e-06	1.753733e-06	2.595325e-10	1.248687e+01	1.593586e+01
2.240000e-06	1.797275e-06	3.071096e-10	1.279689e+01	1.935690e+01
2.250000e-06	1.840717e-06	3.558253e-10	1.310621e+01	2.278782e+01
2.260000e-06	1.884030e-06	4.080445e-10	1.341460e+01	2.622466e+01
2.270000e-06	1.927242e-06	4.606113e-10	1.372228e+01	2.966325e+01
2.280000e-06	1.970341e-06	5.108324e-10	1.402915e+01	3.309934e+01
2.290000e-06	2.013250e-06	5.615916e-10	1.433467e+01	3.652855e+01
2.300000e-06	2.055963e-06	6.156012e-10	1.463879e+01	3.994643e+01
2.310000e-06	2.098400e-06	6.670622e-10	1.494095e+01	4.334849e+01
2.320000e-06	2.140560e-06	7.134251e-10	1.524114e+01	4.673024e+01
2.330000e-06	2.182436e-06	7.578181e-10	1.553930e+01	5.008722e+01
2.340000e-06	2.223911e-06	8.049313e-10	1.583461e+01	5.341505e+01
2.350000e-06	2.265172e-06	8.542641e-10	1.612840e+01	5.670943e+01
2.360000e-06	2.306280e-06	9.034762e-10	1.642109e+01	5.996623e+01
2.370000e-06	2.347055e-06	9.524475e-10	1.671141e+01	6.318146e+01
2.380000e-06	2.387557e-06	1.003040e-09	1.699980e+01	6.635138e+01
2.390000e-06	2.427885e-06	1.052203e-09	1.728694e+01	6.947246e+01
2.400000e-06	2.468047e-06	1.095696e-09	1.757290e+01	7.254142e+01
2.410000e-06	2.508071e-06	1.133778e-09	1.785788e+01	7.555530e+01
2.420000e-06	2.548009e-06	1.172896e-09	1.814224e+01	7.851143e+01
2.430000e-06	2.587857e-06	1.214673e-09	1.842596e+01	8.140747e+01
2.440000e-06	2.627626e-06	1.254978e-09	1.870912e+01	8.424139e+01
2.450000e-06	2.667297e-06	1.291506e-09	1.899159e+01	8.701153e+01
2.460000e-06	2.706795e-06	1.327440e-09	1.927282e+01	8.971655e+01
2.470000e-06	2.746199e-06	1.364998e-09	1.955339e+01	9.235547e+01
2.480000e-06	2.785480e-06	1.404088e-09	1.983307e+01	9.492761e+01
2.490000e-06	2.824456e-06	1.443478e-09	2.011059e+01	9.743265e+01
2.500000e-06	2.863222e-06	1.481009e-09	2.038661e+01	9.987054e+01
2.510000e-06	2.901728e-06	1.516947e-09	2.066078e+01	1.022415e+02
2.520000e-06	2.939917e-06	1.549757e-09	2.093269e+01	1.045462e+02
2.530000e-06	2.977979e-06	1.576781e-09	2.120370e+01	1.067852e+02
2.540000e-06	3.015899e-06	1.601032e-09	2.147369e+01	1.089595e+02
2.550000e-06	3.053695e-06	1.630471e-09	2.174281e+01	1.110704e+02
2.560000e-06	3.091292e-06	1.663764e-09	2.201051e+01	1.131190e+02
2.570000e-06	3.128601e-06	1.695135e-09	2.227615e+01	1.151069e+02
2.580000e-06	3.165664e-06	1.725635e-09	2.254004e+01	1.170356e+02
2.590000e-06	3.202480e-06	1.755920e-09	2.280218e+01	1.189066e+02
2.600000e-06	3.239046e-06	1.783501e-09	2.306253e+01	1.207217e+02
2.610000e-06	3.275401e-06	1.806058e-09	2.332139e+01	1.224823e+02
2.620000e-06	3.311587e-06	1.824074e-09	2.357904e+01	1.241903e+02
2.630000e-06	3.347614e-06	1.844044e-09	2.383556e+01	1.258471e+02
2.640000e-06	3.383484e-06	1.866224e-09	2.409096e+01	1.274543e+02
2.650000e-06	3.419187e-06	1.888306e-09	2.434517e+01	1.290133e+02
2.660000e-06	3.454829e-06	1.909431e-09	2.459895e+01	1.305257e+02
2.670000e-06	3.490347e-06	1.932827e-09	2.485184e+01	1.319926e+02
2.680000e-06	3.525539e-06	1.956167e-09	2.510241e+01	1.334153e+02
2.690000e-06	3.560411e-06	1.973268e-09	2.535070e+01	1.347949e+02
2.700000e-06	3.594889e-06	1.984951e-09	2.559619e+01	1.361324e+02
2.710000e-06	3.628908e-06	1.998765e-09	2.583842e+01	1.374288e+02
2.720000e-06	3.662564e-06	2.019209e-09	2.607805e+01	1.386848e+02
2.730000e-06	3.695777e-06	2.040457e-09	2.631454e+01	1.399014e+02
2.740000e-06	3.728568e-06	2.059039e-09	2.654801e+01	1.410791e+02
2.750000e-06	3.761099e-06	2.076940e-09	2.677964e+01	1.422186e+02
2.760000e-06	3.793336e-06	2.094444e-09	2.700917e+01	1.433205e+02
2.770000e-06	3.825339e-06	2.108085e-09	2.723703e+01	1.443854e+02
2.780000e-06	3.857227e-06	2.117813e-09	2.746409e+01	1.454139e+02
2.790000e-06	3.888943e-06	2.128777e-09	2.768991e+01	1.464066e+02
2.800000e-06	3.920428e-06	2.144488e-09	2.791409e+01	1.473641e+02
2.810000e-06	3.951669e-06	2.162914e-09	2.813653e+01	1.482869e+02
2.820000e-06	3.982643e-06	2.177054e-09	2.835707e+01	1.491758e+02
2.830000e-06	4.013328e-06	2.188122e-09	2.857555e+01	1.500315e+02
2.840000e-06	4.043697e-06	2.201415e-09	2.879179e+01	1.508548e+02
2.850000e-06	4.073746e-06	2.215044e-09	2.900574e+01	1.516464e+02
2.860000e-06	4.103566e-06	2.224712e-09	2.921806e+01	1.524073e+02
2.870000e-06	4.133215e-06	2.231273e-09	2.942916e+01	1.531384e+02
2.880000e-06	4.162562e-06	2.238397e-09	2.963812e+01	1.538407e+02
2.890000e-06	4.191573e-06	2.245294e-09	2.984468e+01	1.545154e+02
2.900000e-06	4.220294e-06	2.252122e-09	3.004918e+01	1.551635e+02
