# Temperatura_=_20.1
# Concentracion g/m^3_=_4090.0
# C_Vs_to_Am_M_A/Vsm_=_65563218390.804596
# pendiente_HvsI_1/m_=_3716.3
# ordenada_HvsI_A/m_=_1297.0
# frecuencia_Hz_=_135077.785278807

Tiempo_(s)	Campo_(V.s)	Magnetizacion_(V.s)	Campo_(kA/m)	Magnetizacion_(A/m)
0.000000e+00	-5.419688e-06	-2.354746e-09	-3.839277e+01	-1.553142e+02
1.000000e-08	-5.419804e-06	-2.357823e-09	-3.839360e+01	-1.551904e+02
2.000000e-08	-5.419679e-06	-2.359858e-09	-3.839271e+01	-1.550661e+02
3.000000e-08	-5.419221e-06	-2.356589e-09	-3.838946e+01	-1.549434e+02
4.000000e-08	-5.418361e-06	-2.351696e-09	-3.838338e+01	-1.548237e+02
5.000000e-08	-5.416912e-06	-2.353333e-09	-3.837311e+01	-1.547090e+02
6.000000e-08	-5.414847e-06	-2.366894e-09	-3.835848e+01	-1.546008e+02
7.000000e-08	-5.412196e-06	-2.357732e-09	-3.833970e+01	-1.545008e+02
8.000000e-08	-5.408938e-06	-2.296606e-09	-3.831662e+01	-1.544103e+02
9.000000e-08	-5.405204e-06	-2.294686e-09	-3.829017e+01	-1.543307e+02
1.000000e-07	-5.401077e-06	-2.433489e-09	-3.826093e+01	-1.542630e+02
1.100000e-07	-5.396679e-06	-2.457733e-09	-3.822978e+01	-1.542081e+02
1.200000e-07	-5.392067e-06	-2.309918e-09	-3.819711e+01	-1.541666e+02
1.300000e-07	-5.387199e-06	-2.243879e-09	-3.816262e+01	-1.541391e+02
1.400000e-07	-5.381945e-06	-2.405661e-09	-3.812541e+01	-1.541256e+02
1.500000e-07	-5.376298e-06	-2.462079e-09	-3.808540e+01	-1.541260e+02
1.600000e-07	-5.370300e-06	-2.239841e-09	-3.804291e+01	-1.541399e+02
1.700000e-07	-5.363857e-06	-2.183469e-09	-3.799727e+01	-1.541668e+02
1.800000e-07	-5.356974e-06	-2.395685e-09	-3.794851e+01	-1.542058e+02
1.900000e-07	-5.349683e-06	-2.484191e-09	-3.789686e+01	-1.542556e+02
2.000000e-07	-5.342147e-06	-2.318565e-09	-3.784348e+01	-1.543151e+02
2.100000e-07	-5.334419e-06	-2.311897e-09	-3.778874e+01	-1.543826e+02
2.200000e-07	-5.326483e-06	-2.454044e-09	-3.773251e+01	-1.544565e+02
2.300000e-07	-5.318258e-06	-2.423197e-09	-3.767425e+01	-1.545350e+02
2.400000e-07	-5.309576e-06	-2.301009e-09	-3.761275e+01	-1.546159e+02
2.500000e-07	-5.300306e-06	-2.383576e-09	-3.754708e+01	-1.546975e+02
2.600000e-07	-5.290347e-06	-2.477691e-09	-3.747653e+01	-1.547775e+02
2.700000e-07	-5.279734e-06	-2.383377e-09	-3.740135e+01	-1.548540e+02
2.800000e-07	-5.268549e-06	-2.362541e-09	-3.732211e+01	-1.549249e+02
2.900000e-07	-5.257038e-06	-2.503131e-09	-3.724057e+01	-1.549881e+02
3.000000e-07	-5.245253e-06	-2.484115e-09	-3.715708e+01	-1.550419e+02
3.100000e-07	-5.233073e-06	-2.338732e-09	-3.707081e+01	-1.550846e+02
3.200000e-07	-5.220427e-06	-2.392918e-09	-3.698122e+01	-1.551144e+02
3.300000e-07	-5.207365e-06	-2.493929e-09	-3.688869e+01	-1.551301e+02
3.400000e-07	-5.193977e-06	-2.410509e-09	-3.679385e+01	-1.551304e+02
3.500000e-07	-5.180277e-06	-2.360843e-09	-3.669680e+01	-1.551144e+02
3.600000e-07	-5.166283e-06	-2.449657e-09	-3.659767e+01	-1.550813e+02
3.700000e-07	-5.151864e-06	-2.439695e-09	-3.649552e+01	-1.550305e+02
3.800000e-07	-5.136815e-06	-2.372960e-09	-3.638891e+01	-1.549618e+02
3.900000e-07	-5.121112e-06	-2.407435e-09	-3.627768e+01	-1.548752e+02
4.000000e-07	-5.104923e-06	-2.413879e-09	-3.616300e+01	-1.547709e+02
4.100000e-07	-5.088292e-06	-2.344001e-09	-3.604519e+01	-1.546492e+02
4.200000e-07	-5.071373e-06	-2.380740e-09	-3.592533e+01	-1.545107e+02
4.300000e-07	-5.054159e-06	-2.433441e-09	-3.580339e+01	-1.543563e+02
4.400000e-07	-5.036576e-06	-2.378464e-09	-3.567883e+01	-1.541869e+02
4.500000e-07	-5.018707e-06	-2.350589e-09	-3.555225e+01	-1.540034e+02
4.600000e-07	-5.000465e-06	-2.411132e-09	-3.542302e+01	-1.538072e+02
4.700000e-07	-4.981843e-06	-2.403285e-09	-3.529110e+01	-1.535995e+02
4.800000e-07	-4.962931e-06	-2.356275e-09	-3.515713e+01	-1.533815e+02
4.900000e-07	-4.943693e-06	-2.356069e-09	-3.502085e+01	-1.531547e+02
5.000000e-07	-4.924077e-06	-2.366221e-09	-3.488189e+01	-1.529202e+02
5.100000e-07	-4.904205e-06	-2.363274e-09	-3.474112e+01	-1.526794e+02
5.200000e-07	-4.884156e-06	-2.374068e-09	-3.459909e+01	-1.524336e+02
5.300000e-07	-4.863818e-06	-2.357567e-09	-3.445502e+01	-1.521837e+02
5.400000e-07	-4.843170e-06	-2.340432e-09	-3.430875e+01	-1.519309e+02
5.500000e-07	-4.822184e-06	-2.361397e-09	-3.416009e+01	-1.516760e+02
5.600000e-07	-4.800826e-06	-2.363489e-09	-3.400879e+01	-1.514199e+02
5.700000e-07	-4.779199e-06	-2.326698e-09	-3.385558e+01	-1.511631e+02
5.800000e-07	-4.757229e-06	-2.319212e-09	-3.369995e+01	-1.509062e+02
5.900000e-07	-4.734940e-06	-2.335702e-09	-3.354206e+01	-1.506494e+02
6.000000e-07	-4.712304e-06	-2.336495e-09	-3.338171e+01	-1.503928e+02
6.100000e-07	-4.689236e-06	-2.325534e-09	-3.321830e+01	-1.501366e+02
6.200000e-07	-4.665911e-06	-2.308328e-09	-3.305306e+01	-1.498807e+02
6.300000e-07	-4.642319e-06	-2.303043e-09	-3.288594e+01	-1.496246e+02
6.400000e-07	-4.618507e-06	-2.315433e-09	-3.271725e+01	-1.493682e+02
6.500000e-07	-4.594537e-06	-2.311546e-09	-3.254745e+01	-1.491110e+02
6.600000e-07	-4.570286e-06	-2.284770e-09	-3.237565e+01	-1.488524e+02
6.700000e-07	-4.545675e-06	-2.282022e-09	-3.220132e+01	-1.485919e+02
6.800000e-07	-4.520491e-06	-2.293684e-09	-3.202291e+01	-1.483288e+02
6.900000e-07	-4.494641e-06	-2.289716e-09	-3.183979e+01	-1.480625e+02
7.000000e-07	-4.468372e-06	-2.271000e-09	-3.165370e+01	-1.477923e+02
7.100000e-07	-4.441761e-06	-2.260425e-09	-3.146519e+01	-1.475178e+02
7.200000e-07	-4.414713e-06	-2.261824e-09	-3.127359e+01	-1.472382e+02
7.300000e-07	-4.387286e-06	-2.268770e-09	-3.107929e+01	-1.469531e+02
7.400000e-07	-4.359598e-06	-2.258310e-09	-3.088316e+01	-1.466620e+02
7.500000e-07	-4.331749e-06	-2.245397e-09	-3.068588e+01	-1.463646e+02
7.600000e-07	-4.303781e-06	-2.245811e-09	-3.048775e+01	-1.460606e+02
7.700000e-07	-4.275586e-06	-2.246905e-09	-3.028802e+01	-1.457499e+02
7.800000e-07	-4.247020e-06	-2.230139e-09	-3.008566e+01	-1.454323e+02
7.900000e-07	-4.218125e-06	-2.210496e-09	-2.988097e+01	-1.451079e+02
8.000000e-07	-4.188962e-06	-2.202221e-09	-2.967438e+01	-1.447768e+02
8.100000e-07	-4.159463e-06	-2.206664e-09	-2.946541e+01	-1.444393e+02
8.200000e-07	-4.129685e-06	-2.209071e-09	-2.925446e+01	-1.440957e+02
8.300000e-07	-4.099738e-06	-2.202373e-09	-2.904232e+01	-1.437462e+02
8.400000e-07	-4.069614e-06	-2.193272e-09	-2.882892e+01	-1.433915e+02
8.500000e-07	-4.039240e-06	-2.193458e-09	-2.861376e+01	-1.430319e+02
8.600000e-07	-4.008397e-06	-2.186665e-09	-2.839527e+01	-1.426681e+02
8.700000e-07	-3.977226e-06	-2.165668e-09	-2.817445e+01	-1.423005e+02
8.800000e-07	-3.945943e-06	-2.144877e-09	-2.795284e+01	-1.419297e+02
8.900000e-07	-3.914425e-06	-2.142425e-09	-2.772957e+01	-1.415562e+02
9.000000e-07	-3.882670e-06	-2.150519e-09	-2.750462e+01	-1.411806e+02
9.100000e-07	-3.850739e-06	-2.148510e-09	-2.727843e+01	-1.408034e+02
9.200000e-07	-3.818588e-06	-2.137425e-09	-2.705067e+01	-1.404249e+02
9.300000e-07	-3.786214e-06	-2.129582e-09	-2.682134e+01	-1.400454e+02
9.400000e-07	-3.753609e-06	-2.127794e-09	-2.659036e+01	-1.396654e+02
9.500000e-07	-3.720704e-06	-2.118493e-09	-2.635727e+01	-1.392850e+02
9.600000e-07	-3.687375e-06	-2.101365e-09	-2.612117e+01	-1.389042e+02
9.700000e-07	-3.653406e-06	-2.089278e-09	-2.588053e+01	-1.385232e+02
9.800000e-07	-3.618930e-06	-2.088560e-09	-2.563631e+01	-1.381418e+02
9.900000e-07	-3.584139e-06	-2.085084e-09	-2.538984e+01	-1.377598e+02
1.000000e-06	-3.549030e-06	-2.076668e-09	-2.514113e+01	-1.373772e+02
1.010000e-06	-3.513708e-06	-2.067156e-09	-2.489091e+01	-1.369935e+02
1.020000e-06	-3.478149e-06	-2.061635e-09	-2.463902e+01	-1.366083e+02
1.030000e-06	-3.442385e-06	-2.056535e-09	-2.438567e+01	-1.362212e+02
1.040000e-06	-3.406522e-06	-2.051194e-09	-2.413161e+01	-1.358318e+02
1.050000e-06	-3.370479e-06	-2.042840e-09	-2.387629e+01	-1.354394e+02
1.060000e-06	-3.334241e-06	-2.037735e-09	-2.361958e+01	-1.350436e+02
1.070000e-06	-3.297835e-06	-2.032451e-09	-2.336168e+01	-1.346438e+02
1.080000e-06	-3.261237e-06	-2.023992e-09	-2.310243e+01	-1.342393e+02
1.090000e-06	-3.224416e-06	-2.011994e-09	-2.284159e+01	-1.338297e+02
1.100000e-06	-3.187306e-06	-2.002830e-09	-2.257870e+01	-1.334144e+02
1.110000e-06	-3.149870e-06	-1.997299e-09	-2.231351e+01	-1.329930e+02
1.120000e-06	-3.112249e-06	-1.992432e-09	-2.204700e+01	-1.325649e+02
1.130000e-06	-3.074529e-06	-1.984789e-09	-2.177979e+01	-1.321297e+02
1.140000e-06	-3.036567e-06	-1.979368e-09	-2.151087e+01	-1.316871e+02
1.150000e-06	-2.998360e-06	-1.975637e-09	-2.124022e+01	-1.312369e+02
1.160000e-06	-2.960068e-06	-1.969517e-09	-2.096896e+01	-1.307786e+02
1.170000e-06	-2.921610e-06	-1.958771e-09	-2.069653e+01	-1.303122e+02
1.180000e-06	-2.882897e-06	-1.946305e-09	-2.042229e+01	-1.298376e+02
1.190000e-06	-2.843965e-06	-1.937661e-09	-2.014649e+01	-1.293545e+02
1.200000e-06	-2.804722e-06	-1.928666e-09	-1.986850e+01	-1.288631e+02
1.210000e-06	-2.765191e-06	-1.917481e-09	-1.958846e+01	-1.283632e+02
1.220000e-06	-2.725549e-06	-1.909204e-09	-1.930764e+01	-1.278549e+02
1.230000e-06	-2.685899e-06	-1.907223e-09	-1.902676e+01	-1.273383e+02
1.240000e-06	-2.646175e-06	-1.904475e-09	-1.874536e+01	-1.268134e+02
1.250000e-06	-2.606294e-06	-1.896187e-09	-1.846284e+01	-1.262802e+02
1.260000e-06	-2.566312e-06	-1.880493e-09	-1.817962e+01	-1.257387e+02
1.270000e-06	-2.526245e-06	-1.864195e-09	-1.789578e+01	-1.251890e+02
1.280000e-06	-2.486002e-06	-1.851631e-09	-1.761070e+01	-1.246311e+02
1.290000e-06	-2.445567e-06	-1.843102e-09	-1.732426e+01	-1.240649e+02
1.300000e-06	-2.404954e-06	-1.831950e-09	-1.703657e+01	-1.234903e+02
1.310000e-06	-2.364129e-06	-1.821567e-09	-1.674736e+01	-1.229071e+02
1.320000e-06	-2.322984e-06	-1.815285e-09	-1.645589e+01	-1.223151e+02
1.330000e-06	-2.281554e-06	-1.809631e-09	-1.616240e+01	-1.217141e+02
1.340000e-06	-2.239951e-06	-1.798642e-09	-1.586769e+01	-1.211037e+02
1.350000e-06	-2.198091e-06	-1.783640e-09	-1.557116e+01	-1.204835e+02
1.360000e-06	-2.155846e-06	-1.769998e-09	-1.527189e+01	-1.198531e+02
1.370000e-06	-2.113278e-06	-1.758637e-09	-1.497035e+01	-1.192121e+02
1.380000e-06	-2.070510e-06	-1.744921e-09	-1.466738e+01	-1.185598e+02
1.390000e-06	-2.027530e-06	-1.730714e-09	-1.436291e+01	-1.178958e+02
1.400000e-06	-1.984319e-06	-1.720855e-09	-1.405681e+01	-1.172193e+02
1.410000e-06	-1.940927e-06	-1.715672e-09	-1.374942e+01	-1.165299e+02
1.420000e-06	-1.897463e-06	-1.708010e-09	-1.344152e+01	-1.158268e+02
1.430000e-06	-1.853927e-06	-1.694464e-09	-1.313312e+01	-1.151095e+02
1.440000e-06	-1.810242e-06	-1.677281e-09	-1.282366e+01	-1.143772e+02
1.450000e-06	-1.766419e-06	-1.662230e-09	-1.251322e+01	-1.136295e+02
1.460000e-06	-1.722579e-06	-1.649974e-09	-1.220266e+01	-1.128657e+02
1.470000e-06	-1.678714e-06	-1.636030e-09	-1.189192e+01	-1.120853e+02
1.480000e-06	-1.634752e-06	-1.621425e-09	-1.158050e+01	-1.112877e+02
1.490000e-06	-1.590719e-06	-1.611484e-09	-1.126856e+01	-1.104725e+02
1.500000e-06	-1.546569e-06	-1.603513e-09	-1.095581e+01	-1.096392e+02
1.510000e-06	-1.502344e-06	-1.590730e-09	-1.064252e+01	-1.087875e+02
1.520000e-06	-1.458098e-06	-1.572153e-09	-1.032909e+01	-1.079169e+02
1.530000e-06	-1.413810e-06	-1.554292e-09	-1.001535e+01	-1.070272e+02
1.540000e-06	-1.369425e-06	-1.540633e-09	-9.700929e+00	-1.061181e+02
1.550000e-06	-1.324863e-06	-1.523788e-09	-9.385259e+00	-1.051892e+02
1.560000e-06	-1.280292e-06	-1.505194e-09	-9.069516e+00	-1.042402e+02
1.570000e-06	-1.235699e-06	-1.489066e-09	-8.753623e+00	-1.032710e+02
1.580000e-06	-1.190890e-06	-1.476531e-09	-8.436199e+00	-1.022812e+02
1.590000e-06	-1.145897e-06	-1.463584e-09	-8.117471e+00	-1.012705e+02
1.600000e-06	-1.100836e-06	-1.447930e-09	-7.798265e+00	-1.002386e+02
1.610000e-06	-1.055791e-06	-1.429317e-09	-7.479167e+00	-9.918497e+01
1.620000e-06	-1.010636e-06	-1.413788e-09	-7.159289e+00	-9.810919e+01
1.630000e-06	-9.653682e-07	-1.398823e-09	-6.838616e+00	-9.701069e+01
1.640000e-06	-9.200453e-07	-1.379544e-09	-6.517551e+00	-9.588881e+01
1.650000e-06	-8.745876e-07	-1.359244e-09	-6.195531e+00	-9.474280e+01
1.660000e-06	-8.290160e-07	-1.342828e-09	-5.872704e+00	-9.357179e+01
1.670000e-06	-7.834775e-07	-1.328643e-09	-5.550112e+00	-9.237479e+01
1.680000e-06	-7.379374e-07	-1.309940e-09	-5.227508e+00	-9.115070e+01
1.690000e-06	-6.922700e-07	-1.287443e-09	-4.904003e+00	-8.989829e+01
1.700000e-06	-6.465401e-07	-1.267310e-09	-4.580055e+00	-8.861622e+01
1.710000e-06	-6.007712e-07	-1.249315e-09	-4.255830e+00	-8.730304e+01
1.720000e-06	-5.549770e-07	-1.230327e-09	-3.931427e+00	-8.595719e+01
1.730000e-06	-5.091946e-07	-1.208482e-09	-3.607106e+00	-8.457701e+01
1.740000e-06	-4.634012e-07	-1.187658e-09	-3.282709e+00	-8.316077e+01
1.750000e-06	-4.175240e-07	-1.169389e-09	-2.957717e+00	-8.170669e+01
1.760000e-06	-3.716332e-07	-1.148925e-09	-2.632629e+00	-8.021293e+01
1.770000e-06	-3.257555e-07	-1.123226e-09	-2.307634e+00	-7.867764e+01
1.780000e-06	-2.798246e-07	-1.095689e-09	-1.982262e+00	-7.709897e+01
1.790000e-06	-2.338625e-07	-1.071407e-09	-1.656669e+00	-7.547510e+01
1.800000e-06	-1.878653e-07	-1.048323e-09	-1.330827e+00	-7.380428e+01
1.810000e-06	-1.418576e-07	-1.024124e-09	-1.004912e+00	-7.208481e+01
1.820000e-06	-9.585615e-08	-9.975609e-10	-6.790397e-01	-7.031512e+01
1.830000e-06	-4.987459e-08	-9.717512e-10	-3.533089e-01	-6.849379e+01
1.840000e-06	-4.005624e-09	-9.450463e-10	-2.837562e-02	-6.661952e+01
1.850000e-06	4.180297e-08	-9.149630e-10	2.961299e-01	-6.469123e+01
1.860000e-06	8.765665e-08	-8.819424e-10	6.209549e-01	-6.270801e+01
1.870000e-06	1.335345e-07	-8.504227e-10	9.459510e-01	-6.066921e+01
1.880000e-06	1.794162e-07	-8.222578e-10	1.270975e+00	-5.857439e+01
1.890000e-06	2.253137e-07	-7.936820e-10	1.596110e+00	-5.642337e+01
1.900000e-06	2.711609e-07	-7.602742e-10	1.920889e+00	-5.421624e+01
1.910000e-06	3.169837e-07	-7.243364e-10	2.245495e+00	-5.195334e+01
1.920000e-06	3.628237e-07	-6.916533e-10	2.570223e+00	-4.963530e+01
1.930000e-06	4.086530e-07	-6.607283e-10	2.894875e+00	-4.726301e+01
1.940000e-06	4.545069e-07	-6.259919e-10	3.219702e+00	-4.483762e+01
1.950000e-06	5.003220e-07	-5.883878e-10	3.544254e+00	-4.236054e+01
1.960000e-06	5.460778e-07	-5.503905e-10	3.868385e+00	-3.983341e+01
1.970000e-06	5.917395e-07	-5.118296e-10	4.191850e+00	-3.725812e+01
1.980000e-06	6.373112e-07	-4.724599e-10	4.514678e+00	-3.463674e+01
1.990000e-06	6.829622e-07	-4.307933e-10	4.838067e+00	-3.197157e+01
2.000000e-06	7.286353e-07	-3.895782e-10	5.161613e+00	-2.926503e+01
2.010000e-06	7.742060e-07	-3.522787e-10	5.484433e+00	-2.651971e+01
2.020000e-06	8.198076e-07	-3.157228e-10	5.807472e+00	-2.373834e+01
2.030000e-06	8.653449e-07	-2.762831e-10	6.130056e+00	-2.092369e+01
2.040000e-06	9.106882e-07	-2.328754e-10	6.451265e+00	-1.807865e+01
2.050000e-06	9.559508e-07	-1.887074e-10	6.771903e+00	-1.520613e+01
2.060000e-06	1.001134e-06	-1.454923e-10	7.091980e+00	-1.230906e+01
2.070000e-06	1.046205e-06	-1.036573e-10	7.411261e+00	-9.390385e+00
2.080000e-06	1.091226e-06	-6.220386e-11	7.730183e+00	-6.453011e+00
2.090000e-06	1.136136e-06	-1.895755e-11	8.048322e+00	-3.499815e+00
2.100000e-06	1.180894e-06	2.516458e-11	8.365392e+00	-5.336147e-01
2.110000e-06	1.225510e-06	6.945238e-11	8.681444e+00	2.442838e+00
2.120000e-06	1.269968e-06	1.124410e-10	8.996381e+00	5.426872e+00
2.130000e-06	1.314388e-06	1.548922e-10	9.311052e+00	8.415900e+00
2.140000e-06	1.358835e-06	1.975668e-10	9.625914e+00	1.140743e+01
2.150000e-06	1.403200e-06	2.422704e-10	9.940191e+00	1.439905e+01
2.160000e-06	1.447408e-06	2.866666e-10	1.025336e+01	1.738847e+01
2.170000e-06	1.491551e-06	3.293868e-10	1.056607e+01	2.037345e+01
2.180000e-06	1.535662e-06	3.732261e-10	1.087855e+01	2.335186e+01
2.190000e-06	1.579739e-06	4.163302e-10	1.119079e+01	2.632165e+01
2.200000e-06	1.623750e-06	4.569398e-10	1.150256e+01	2.928082e+01
2.210000e-06	1.667638e-06	4.992964e-10	1.181345e+01	3.222744e+01
2.220000e-06	1.711484e-06	5.444433e-10	1.212406e+01	3.515963e+01
2.230000e-06	1.755353e-06	5.889195e-10	1.243482e+01	3.807556e+01
2.240000e-06	1.799215e-06	6.298176e-10	1.274554e+01	4.097341e+01
2.250000e-06	1.843000e-06	6.685275e-10	1.305571e+01	4.385138e+01
2.260000e-06	1.886709e-06	7.099786e-10	1.336534e+01	4.670769e+01
2.270000e-06	1.930345e-06	7.521150e-10	1.367446e+01	4.954058e+01
2.280000e-06	1.973797e-06	7.904849e-10	1.398227e+01	5.234825e+01
2.290000e-06	2.017044e-06	8.297391e-10	1.428863e+01	5.512892e+01
2.300000e-06	2.060108e-06	8.748419e-10	1.459369e+01	5.788080e+01
2.310000e-06	2.102908e-06	9.197883e-10	1.489688e+01	6.060208e+01
2.320000e-06	2.145447e-06	9.582518e-10	1.519823e+01	6.329096e+01
2.330000e-06	2.187800e-06	9.902334e-10	1.549826e+01	6.594564e+01
2.340000e-06	2.229882e-06	1.020202e-09	1.579636e+01	6.856431e+01
2.350000e-06	2.271616e-06	1.052661e-09	1.609200e+01	7.114519e+01
2.360000e-06	2.313030e-06	1.087543e-09	1.638538e+01	7.368652e+01
2.370000e-06	2.354135e-06	1.123344e-09	1.667656e+01	7.618657e+01
2.380000e-06	2.394991e-06	1.161506e-09	1.696599e+01	7.864369e+01
2.390000e-06	2.435594e-06	1.200699e-09	1.725362e+01	8.105626e+01
2.400000e-06	2.475996e-06	1.237349e-09	1.753982e+01	8.342277e+01
2.410000e-06	2.516271e-06	1.267180e-09	1.782513e+01	8.574179e+01
2.420000e-06	2.556414e-06	1.293810e-09	1.810950e+01	8.801201e+01
2.430000e-06	2.596420e-06	1.323342e-09	1.839290e+01	9.023224e+01
2.440000e-06	2.636296e-06	1.351723e-09	1.867538e+01	9.240144e+01
2.450000e-06	2.676110e-06	1.378849e-09	1.895742e+01	9.451870e+01
2.460000e-06	2.715821e-06	1.408708e-09	1.923873e+01	9.658329e+01
2.470000e-06	2.755422e-06	1.442358e-09	1.951926e+01	9.859466e+01
2.480000e-06	2.794879e-06	1.475152e-09	1.979877e+01	1.005524e+02
2.490000e-06	2.834159e-06	1.500649e-09	2.007703e+01	1.024563e+02
2.500000e-06	2.873206e-06	1.521934e-09	2.035363e+01	1.043064e+02
2.510000e-06	2.911933e-06	1.543695e-09	2.062798e+01	1.061029e+02
2.520000e-06	2.950457e-06	1.568973e-09	2.090088e+01	1.078459e+02
2.530000e-06	2.988830e-06	1.595301e-09	2.117271e+01	1.095361e+02
2.540000e-06	3.027039e-06	1.620559e-09	2.144338e+01	1.111742e+02
2.550000e-06	3.065057e-06	1.649392e-09	2.171270e+01	1.127609e+02
2.560000e-06	3.102848e-06	1.678381e-09	2.198040e+01	1.142973e+02
2.570000e-06	3.140497e-06	1.700205e-09	2.224711e+01	1.157843e+02
2.580000e-06	3.177962e-06	1.715898e-09	2.251251e+01	1.172232e+02
2.590000e-06	3.215123e-06	1.730356e-09	2.277575e+01	1.186152e+02
2.600000e-06	3.251926e-06	1.746734e-09	2.303647e+01	1.199618e+02
2.610000e-06	3.288464e-06	1.765500e-09	2.329530e+01	1.212643e+02
2.620000e-06	3.324821e-06	1.786599e-09	2.355285e+01	1.225241e+02
2.630000e-06	3.360988e-06	1.808788e-09	2.380906e+01	1.237428e+02
2.640000e-06	3.396976e-06	1.829309e-09	2.406399e+01	1.249217e+02
2.650000e-06	3.432855e-06	1.844902e-09	2.431816e+01	1.260622e+02
2.660000e-06	3.468748e-06	1.856321e-09	2.457242e+01	1.271659e+02
2.670000e-06	3.504574e-06	1.867788e-09	2.482621e+01	1.282340e+02
2.680000e-06	3.540087e-06	1.880722e-09	2.507778e+01	1.292678e+02
2.690000e-06	3.575326e-06	1.894271e-09	2.532742e+01	1.302686e+02
2.700000e-06	3.610226e-06	1.910369e-09	2.557465e+01	1.312375e+02
2.710000e-06	3.644620e-06	1.930138e-09	2.581829e+01	1.321757e+02
2.720000e-06	3.678602e-06	1.950161e-09	2.605902e+01	1.330841e+02
2.730000e-06	3.712105e-06	1.964730e-09	2.629635e+01	1.339637e+02
2.740000e-06	3.745057e-06	1.973273e-09	2.652978e+01	1.348153e+02
2.750000e-06	3.777593e-06	1.982783e-09	2.676027e+01	1.356397e+02
2.760000e-06	3.809878e-06	1.993885e-09	2.698897e+01	1.364377e+02
2.770000e-06	3.841956e-06	2.005108e-09	2.721620e+01	1.372098e+02
2.780000e-06	3.873918e-06	2.015261e-09	2.744263e+01	1.379568e+02
2.790000e-06	3.905796e-06	2.029330e-09	2.766845e+01	1.386791e+02
2.800000e-06	3.937528e-06	2.045501e-09	2.789323e+01	1.393773e+02
2.810000e-06	3.969035e-06	2.057252e-09	2.811643e+01	1.400520e+02
2.820000e-06	4.000275e-06	2.061054e-09	2.833773e+01	1.407037e+02
2.830000e-06	4.031175e-06	2.062654e-09	2.855662e+01	1.413327e+02
2.840000e-06	4.061706e-06	2.070167e-09	2.877290e+01	1.419398e+02
2.850000e-06	4.091957e-06	2.084055e-09	2.898720e+01	1.425253e+02
2.860000e-06	4.121934e-06	2.098024e-09	2.919956e+01	1.430898e+02
2.870000e-06	4.151666e-06	2.110083e-09	2.941018e+01	1.436339e+02
2.880000e-06	4.181193e-06	2.121319e-09	2.961935e+01	1.441581e+02
2.890000e-06	4.210414e-06	2.127404e-09	2.982635e+01	1.446632e+02
2.900000e-06	4.239278e-06	2.127479e-09	3.003081e+01	1.451496e+02
