# Temperatura_=_-1.7
# Concentracion g/m^3_=_4090.0
# C_Vs_to_Am_M_A/Vsm_=_65563218390.804596
# pendiente_HvsI_1/m_=_3716.3
# ordenada_HvsI_A/m_=_1297.0
# frecuencia_Hz_=_135067.77999530328

Tiempo_(s)	Campo_(V.s)	Magnetizacion_(V.s)	Campo_(kA/m)	Magnetizacion_(A/m)
0.000000e+00	-5.411375e-06	-2.380883e-09	-3.840195e+01	-1.552889e+02
1.000000e-08	-5.411537e-06	-2.382092e-09	-3.840310e+01	-1.552369e+02
2.000000e-08	-5.411491e-06	-2.381022e-09	-3.840278e+01	-1.551886e+02
3.000000e-08	-5.411127e-06	-2.380803e-09	-3.840019e+01	-1.551448e+02
4.000000e-08	-5.410317e-06	-2.383843e-09	-3.839444e+01	-1.551061e+02
5.000000e-08	-5.408800e-06	-2.388506e-09	-3.838368e+01	-1.550730e+02
6.000000e-08	-5.406565e-06	-2.399484e-09	-3.836782e+01	-1.550458e+02
7.000000e-08	-5.403735e-06	-2.399997e-09	-3.834774e+01	-1.550250e+02
8.000000e-08	-5.400363e-06	-2.364677e-09	-3.832381e+01	-1.550106e+02
9.000000e-08	-5.396536e-06	-2.362186e-09	-3.829665e+01	-1.550028e+02
1.000000e-07	-5.392385e-06	-2.432734e-09	-3.826719e+01	-1.550014e+02
1.100000e-07	-5.388059e-06	-2.394920e-09	-3.823649e+01	-1.550062e+02
1.200000e-07	-5.383564e-06	-2.325552e-09	-3.820459e+01	-1.550169e+02
1.300000e-07	-5.378679e-06	-2.353696e-09	-3.816993e+01	-1.550332e+02
1.400000e-07	-5.373301e-06	-2.465385e-09	-3.813176e+01	-1.550542e+02
1.500000e-07	-5.367566e-06	-2.431857e-09	-3.809106e+01	-1.550795e+02
1.600000e-07	-5.361658e-06	-2.284128e-09	-3.804914e+01	-1.551083e+02
1.700000e-07	-5.355363e-06	-2.351549e-09	-3.800446e+01	-1.551396e+02
1.800000e-07	-5.348537e-06	-2.478505e-09	-3.795602e+01	-1.551726e+02
1.900000e-07	-5.341375e-06	-2.427729e-09	-3.790519e+01	-1.552062e+02
2.000000e-07	-5.334014e-06	-2.299358e-09	-3.785296e+01	-1.552395e+02
2.100000e-07	-5.326411e-06	-2.407974e-09	-3.779901e+01	-1.552715e+02
2.200000e-07	-5.318464e-06	-2.507217e-09	-3.774261e+01	-1.553012e+02
2.300000e-07	-5.310150e-06	-2.432851e-09	-3.768361e+01	-1.553274e+02
2.400000e-07	-5.301352e-06	-2.376900e-09	-3.762117e+01	-1.553493e+02
2.500000e-07	-5.291847e-06	-2.490996e-09	-3.755372e+01	-1.553659e+02
2.600000e-07	-5.281685e-06	-2.497824e-09	-3.748160e+01	-1.553763e+02
2.700000e-07	-5.271108e-06	-2.374952e-09	-3.740654e+01	-1.553798e+02
2.800000e-07	-5.260107e-06	-2.385145e-09	-3.732848e+01	-1.553756e+02
2.900000e-07	-5.248640e-06	-2.482953e-09	-3.724710e+01	-1.553631e+02
3.000000e-07	-5.236776e-06	-2.409867e-09	-3.716291e+01	-1.553419e+02
3.100000e-07	-5.224617e-06	-2.325505e-09	-3.707662e+01	-1.553115e+02
3.200000e-07	-5.212094e-06	-2.428912e-09	-3.698775e+01	-1.552717e+02
3.300000e-07	-5.199088e-06	-2.452727e-09	-3.689545e+01	-1.552222e+02
3.400000e-07	-5.185660e-06	-2.337785e-09	-3.680016e+01	-1.551631e+02
3.500000e-07	-5.171852e-06	-2.352501e-09	-3.670217e+01	-1.550943e+02
3.600000e-07	-5.157594e-06	-2.448901e-09	-3.660099e+01	-1.550160e+02
3.700000e-07	-5.142811e-06	-2.381597e-09	-3.649608e+01	-1.549285e+02
3.800000e-07	-5.127485e-06	-2.329678e-09	-3.638732e+01	-1.548320e+02
3.900000e-07	-5.111540e-06	-2.395890e-09	-3.627417e+01	-1.547271e+02
4.000000e-07	-5.095060e-06	-2.389544e-09	-3.615722e+01	-1.546142e+02
4.100000e-07	-5.078340e-06	-2.317025e-09	-3.603856e+01	-1.544938e+02
4.200000e-07	-5.061402e-06	-2.367151e-09	-3.591836e+01	-1.543666e+02
4.300000e-07	-5.044077e-06	-2.390951e-09	-3.579541e+01	-1.542330e+02
4.400000e-07	-5.026430e-06	-2.340112e-09	-3.567018e+01	-1.540939e+02
4.500000e-07	-5.008565e-06	-2.349669e-09	-3.554340e+01	-1.539497e+02
4.600000e-07	-4.990296e-06	-2.399858e-09	-3.541376e+01	-1.538011e+02
4.700000e-07	-4.971558e-06	-2.347492e-09	-3.528078e+01	-1.536488e+02
4.800000e-07	-4.952481e-06	-2.320369e-09	-3.514540e+01	-1.534934e+02
4.900000e-07	-4.933087e-06	-2.346045e-09	-3.500777e+01	-1.533352e+02
5.000000e-07	-4.913456e-06	-2.343971e-09	-3.486846e+01	-1.531750e+02
5.100000e-07	-4.893630e-06	-2.323649e-09	-3.472776e+01	-1.530131e+02
5.200000e-07	-4.873553e-06	-2.341112e-09	-3.458529e+01	-1.528499e+02
5.300000e-07	-4.853247e-06	-2.335184e-09	-3.444119e+01	-1.526857e+02
5.400000e-07	-4.832625e-06	-2.334937e-09	-3.429484e+01	-1.525209e+02
5.500000e-07	-4.811556e-06	-2.347788e-09	-3.414533e+01	-1.523556e+02
5.600000e-07	-4.790098e-06	-2.327950e-09	-3.399304e+01	-1.521900e+02
5.700000e-07	-4.768348e-06	-2.300582e-09	-3.383870e+01	-1.520242e+02
5.800000e-07	-4.746336e-06	-2.319208e-09	-3.368249e+01	-1.518581e+02
5.900000e-07	-4.723972e-06	-2.327061e-09	-3.352378e+01	-1.516919e+02
6.000000e-07	-4.701190e-06	-2.314155e-09	-3.336211e+01	-1.515253e+02
6.100000e-07	-4.678024e-06	-2.318488e-09	-3.319771e+01	-1.513583e+02
6.200000e-07	-4.654631e-06	-2.321329e-09	-3.303170e+01	-1.511907e+02
6.300000e-07	-4.631073e-06	-2.317956e-09	-3.286452e+01	-1.510223e+02
6.400000e-07	-4.607319e-06	-2.314691e-09	-3.269595e+01	-1.508530e+02
6.500000e-07	-4.583287e-06	-2.297460e-09	-3.252540e+01	-1.506825e+02
6.600000e-07	-4.558910e-06	-2.277556e-09	-3.235242e+01	-1.505106e+02
6.700000e-07	-4.534218e-06	-2.291334e-09	-3.217719e+01	-1.503370e+02
6.800000e-07	-4.509041e-06	-2.298862e-09	-3.199852e+01	-1.501615e+02
6.900000e-07	-4.483316e-06	-2.291683e-09	-3.181596e+01	-1.499839e+02
7.000000e-07	-4.457071e-06	-2.289050e-09	-3.162971e+01	-1.498040e+02
7.100000e-07	-4.430349e-06	-2.296988e-09	-3.144008e+01	-1.496215e+02
7.200000e-07	-4.403256e-06	-2.289348e-09	-3.124781e+01	-1.494363e+02
7.300000e-07	-4.375808e-06	-2.279917e-09	-3.105303e+01	-1.492482e+02
7.400000e-07	-4.348103e-06	-2.266842e-09	-3.085642e+01	-1.490571e+02
7.500000e-07	-4.320246e-06	-2.266325e-09	-3.065873e+01	-1.488628e+02
7.600000e-07	-4.292165e-06	-2.267795e-09	-3.045946e+01	-1.486653e+02
7.700000e-07	-4.263871e-06	-2.264663e-09	-3.025866e+01	-1.484645e+02
7.800000e-07	-4.235342e-06	-2.253226e-09	-3.005620e+01	-1.482603e+02
7.900000e-07	-4.206495e-06	-2.256693e-09	-2.985149e+01	-1.480527e+02
8.000000e-07	-4.177340e-06	-2.260138e-09	-2.964460e+01	-1.478418e+02
8.100000e-07	-4.147864e-06	-2.256782e-09	-2.943542e+01	-1.476274e+02
8.200000e-07	-4.118091e-06	-2.248666e-09	-2.922413e+01	-1.474097e+02
8.300000e-07	-4.088078e-06	-2.245220e-09	-2.901114e+01	-1.471886e+02
8.400000e-07	-4.057685e-06	-2.240181e-09	-2.879546e+01	-1.469643e+02
8.500000e-07	-4.026996e-06	-2.234640e-09	-2.857767e+01	-1.467367e+02
8.600000e-07	-3.996154e-06	-2.223443e-09	-2.835880e+01	-1.465059e+02
8.700000e-07	-3.965027e-06	-2.215011e-09	-2.813791e+01	-1.462719e+02
8.800000e-07	-3.933638e-06	-2.212413e-09	-2.791516e+01	-1.460349e+02
8.900000e-07	-3.902069e-06	-2.213899e-09	-2.769113e+01	-1.457948e+02
9.000000e-07	-3.870345e-06	-2.211516e-09	-2.746599e+01	-1.455518e+02
9.100000e-07	-3.838474e-06	-2.205481e-09	-2.723983e+01	-1.453059e+02
9.200000e-07	-3.806343e-06	-2.200357e-09	-2.701180e+01	-1.450571e+02
9.300000e-07	-3.773923e-06	-2.193770e-09	-2.678174e+01	-1.448054e+02
9.400000e-07	-3.741224e-06	-2.185601e-09	-2.654969e+01	-1.445510e+02
9.500000e-07	-3.708155e-06	-2.175301e-09	-2.631501e+01	-1.442939e+02
9.600000e-07	-3.674625e-06	-2.172097e-09	-2.607707e+01	-1.440341e+02
9.700000e-07	-3.640601e-06	-2.171857e-09	-2.583561e+01	-1.437716e+02
9.800000e-07	-3.606172e-06	-2.170864e-09	-2.559129e+01	-1.435065e+02
9.900000e-07	-3.571382e-06	-2.163458e-09	-2.534440e+01	-1.432389e+02
1.000000e-06	-3.536293e-06	-2.158034e-09	-2.509539e+01	-1.429687e+02
1.010000e-06	-3.500915e-06	-2.150886e-09	-2.484433e+01	-1.426960e+02
1.020000e-06	-3.465319e-06	-2.141928e-09	-2.459172e+01	-1.424208e+02
1.030000e-06	-3.429606e-06	-2.129900e-09	-2.433829e+01	-1.421432e+02
1.040000e-06	-3.393793e-06	-2.126628e-09	-2.408413e+01	-1.418632e+02
1.050000e-06	-3.357784e-06	-2.125041e-09	-2.382859e+01	-1.415808e+02
1.060000e-06	-3.321484e-06	-2.122703e-09	-2.357099e+01	-1.412960e+02
1.070000e-06	-3.284967e-06	-2.116338e-09	-2.331185e+01	-1.410089e+02
1.080000e-06	-3.248297e-06	-2.109709e-09	-2.305161e+01	-1.407194e+02
1.090000e-06	-3.211435e-06	-2.102130e-09	-2.279003e+01	-1.404276e+02
1.100000e-06	-3.174275e-06	-2.097611e-09	-2.252632e+01	-1.401334e+02
1.110000e-06	-3.136828e-06	-2.090926e-09	-2.226057e+01	-1.398368e+02
1.120000e-06	-3.099170e-06	-2.085789e-09	-2.199333e+01	-1.395378e+02
1.130000e-06	-3.061384e-06	-2.079733e-09	-2.172519e+01	-1.392362e+02
1.140000e-06	-3.023455e-06	-2.074690e-09	-2.145602e+01	-1.389320e+02
1.150000e-06	-2.985341e-06	-2.067621e-09	-2.118554e+01	-1.386251e+02
1.160000e-06	-2.947004e-06	-2.061562e-09	-2.091349e+01	-1.383153e+02
1.170000e-06	-2.908368e-06	-2.056096e-09	-2.063931e+01	-1.380025e+02
1.180000e-06	-2.869540e-06	-2.048927e-09	-2.036376e+01	-1.376864e+02
1.190000e-06	-2.830570e-06	-2.042888e-09	-2.008721e+01	-1.373669e+02
1.200000e-06	-2.791402e-06	-2.036447e-09	-1.980925e+01	-1.370437e+02
1.210000e-06	-2.752034e-06	-2.030230e-09	-1.952987e+01	-1.367166e+02
1.220000e-06	-2.712488e-06	-2.024842e-09	-1.924924e+01	-1.363852e+02
1.230000e-06	-2.672800e-06	-2.021311e-09	-1.896759e+01	-1.360492e+02
1.240000e-06	-2.633021e-06	-2.017215e-09	-1.868529e+01	-1.357082e+02
1.250000e-06	-2.593117e-06	-2.014116e-09	-1.840212e+01	-1.353620e+02
1.260000e-06	-2.553058e-06	-2.006365e-09	-1.811783e+01	-1.350102e+02
1.270000e-06	-2.512891e-06	-1.997620e-09	-1.783279e+01	-1.346523e+02
1.280000e-06	-2.472586e-06	-1.992385e-09	-1.754676e+01	-1.342880e+02
1.290000e-06	-2.432145e-06	-1.990943e-09	-1.725978e+01	-1.339169e+02
1.300000e-06	-2.391524e-06	-1.983789e-09	-1.697151e+01	-1.335387e+02
1.310000e-06	-2.350649e-06	-1.972175e-09	-1.668143e+01	-1.331528e+02
1.320000e-06	-2.309654e-06	-1.962514e-09	-1.639052e+01	-1.327591e+02
1.330000e-06	-2.268318e-06	-1.958951e-09	-1.609718e+01	-1.323570e+02
1.340000e-06	-2.226528e-06	-1.955935e-09	-1.580061e+01	-1.319463e+02
1.350000e-06	-2.184508e-06	-1.949218e-09	-1.550241e+01	-1.315267e+02
1.360000e-06	-2.142223e-06	-1.940890e-09	-1.520233e+01	-1.310978e+02
1.370000e-06	-2.099619e-06	-1.936111e-09	-1.490000e+01	-1.306594e+02
1.380000e-06	-2.056725e-06	-1.929826e-09	-1.459560e+01	-1.302112e+02
1.390000e-06	-2.013656e-06	-1.920378e-09	-1.428996e+01	-1.297530e+02
1.400000e-06	-1.970522e-06	-1.909445e-09	-1.398385e+01	-1.292845e+02
1.410000e-06	-1.927306e-06	-1.902278e-09	-1.367717e+01	-1.288055e+02
1.420000e-06	-1.883956e-06	-1.896397e-09	-1.336954e+01	-1.283159e+02
1.430000e-06	-1.840442e-06	-1.886920e-09	-1.306074e+01	-1.278155e+02
1.440000e-06	-1.796794e-06	-1.874672e-09	-1.275099e+01	-1.273041e+02
1.450000e-06	-1.753076e-06	-1.866822e-09	-1.244075e+01	-1.267815e+02
1.460000e-06	-1.709271e-06	-1.861421e-09	-1.212988e+01	-1.262476e+02
1.470000e-06	-1.665419e-06	-1.851436e-09	-1.181869e+01	-1.257022e+02
1.480000e-06	-1.621492e-06	-1.839035e-09	-1.150696e+01	-1.251449e+02
1.490000e-06	-1.577502e-06	-1.830286e-09	-1.119478e+01	-1.245757e+02
1.500000e-06	-1.533431e-06	-1.824011e-09	-1.088203e+01	-1.239943e+02
1.510000e-06	-1.489314e-06	-1.814364e-09	-1.056895e+01	-1.234003e+02
1.520000e-06	-1.445212e-06	-1.801539e-09	-1.025598e+01	-1.227934e+02
1.530000e-06	-1.400939e-06	-1.792895e-09	-9.941798e+00	-1.221732e+02
1.540000e-06	-1.356499e-06	-1.788016e-09	-9.626431e+00	-1.215392e+02
1.550000e-06	-1.312034e-06	-1.778514e-09	-9.310878e+00	-1.208911e+02
1.560000e-06	-1.267540e-06	-1.765498e-09	-8.995129e+00	-1.202281e+02
1.570000e-06	-1.222999e-06	-1.755457e-09	-8.679044e+00	-1.195497e+02
1.580000e-06	-1.178351e-06	-1.748942e-09	-8.362197e+00	-1.188552e+02
1.590000e-06	-1.133465e-06	-1.738013e-09	-8.043661e+00	-1.181439e+02
1.600000e-06	-1.088360e-06	-1.721615e-09	-7.723574e+00	-1.174149e+02
1.610000e-06	-1.043218e-06	-1.703466e-09	-7.403220e+00	-1.166674e+02
1.620000e-06	-9.980929e-07	-1.690953e-09	-7.082991e+00	-1.159006e+02
1.630000e-06	-9.528491e-07	-1.679547e-09	-6.761917e+00	-1.151134e+02
1.640000e-06	-9.075244e-07	-1.664284e-09	-6.440269e+00	-1.143048e+02
1.650000e-06	-8.621516e-07	-1.650649e-09	-6.118280e+00	-1.134739e+02
1.660000e-06	-8.167400e-07	-1.644829e-09	-5.796015e+00	-1.126194e+02
1.670000e-06	-7.713279e-07	-1.637561e-09	-5.473747e+00	-1.117405e+02
1.680000e-06	-7.259517e-07	-1.620497e-09	-5.151734e+00	-1.108358e+02
1.690000e-06	-6.805456e-07	-1.598050e-09	-4.829508e+00	-1.099044e+02
1.700000e-06	-6.349517e-07	-1.579803e-09	-4.505950e+00	-1.089449e+02
1.710000e-06	-5.892257e-07	-1.564874e-09	-4.181455e+00	-1.079564e+02
1.720000e-06	-5.434692e-07	-1.547152e-09	-3.856743e+00	-1.069377e+02
1.730000e-06	-4.977090e-07	-1.527454e-09	-3.532004e+00	-1.058876e+02
1.740000e-06	-4.519213e-07	-1.514495e-09	-3.207071e+00	-1.048051e+02
1.750000e-06	-4.060412e-07	-1.507004e-09	-2.881481e+00	-1.036889e+02
1.760000e-06	-3.601485e-07	-1.495170e-09	-2.555803e+00	-1.025380e+02
1.770000e-06	-3.143320e-07	-1.473991e-09	-2.230664e+00	-1.013513e+02
1.780000e-06	-2.684694e-07	-1.450066e-09	-1.905200e+00	-1.001277e+02
1.790000e-06	-2.225225e-07	-1.430818e-09	-1.579136e+00	-9.886613e+01
1.800000e-06	-1.765950e-07	-1.410097e-09	-1.253211e+00	-9.756549e+01
1.810000e-06	-1.307015e-07	-1.386809e-09	-9.275260e-01	-9.622470e+01
1.820000e-06	-8.476913e-08	-1.366903e-09	-6.015662e-01	-9.484267e+01
1.830000e-06	-3.886092e-08	-1.351751e-09	-2.757775e-01	-9.341828e+01
1.840000e-06	6.972530e-09	-1.333026e-09	4.948072e-02	-9.195040e+01
1.850000e-06	5.274202e-08	-1.309467e-09	3.742850e-01	-9.043787e+01
1.860000e-06	9.855736e-08	-1.285436e-09	6.994147e-01	-8.887950e+01
1.870000e-06	1.444012e-07	-1.263548e-09	1.024747e+00	-8.727406e+01
1.880000e-06	1.902456e-07	-1.240888e-09	1.350082e+00	-8.562028e+01
1.890000e-06	2.361881e-07	-1.212601e-09	1.676114e+00	-8.391684e+01
1.900000e-06	2.820990e-07	-1.179571e-09	2.001922e+00	-8.216238e+01
1.910000e-06	3.279190e-07	-1.151104e-09	2.327085e+00	-8.035549e+01
1.920000e-06	3.736924e-07	-1.127194e-09	2.651917e+00	-7.849470e+01
1.930000e-06	4.194210e-07	-1.102548e-09	2.976432e+00	-7.657854e+01
1.940000e-06	4.651518e-07	-1.075468e-09	3.300961e+00	-7.460548e+01
1.950000e-06	5.108039e-07	-1.048093e-09	3.624932e+00	-7.257397e+01
1.960000e-06	5.563035e-07	-1.021218e-09	3.947821e+00	-7.048245e+01
1.970000e-06	6.017753e-07	-9.890759e-10	4.270513e+00	-6.832940e+01
1.980000e-06	6.473824e-07	-9.522869e-10	4.594165e+00	-6.611327e+01
1.990000e-06	6.930145e-07	-9.162268e-10	4.917994e+00	-6.383260e+01
2.000000e-06	7.385035e-07	-8.830979e-10	5.240808e+00	-6.148598e+01
2.010000e-06	7.838964e-07	-8.500207e-10	5.562940e+00	-5.907210e+01
2.020000e-06	8.292434e-07	-8.145872e-10	5.884746e+00	-5.658977e+01
2.030000e-06	8.746107e-07	-7.802835e-10	6.206696e+00	-5.403794e+01
2.040000e-06	9.199363e-07	-7.452625e-10	6.528350e+00	-5.141575e+01
2.050000e-06	9.651532e-07	-7.054673e-10	6.849233e+00	-4.872255e+01
2.060000e-06	1.010217e-06	-6.606716e-10	7.169028e+00	-4.595791e+01
2.070000e-06	1.055251e-06	-6.161326e-10	7.488617e+00	-4.312170e+01
2.080000e-06	1.100272e-06	-5.737268e-10	7.808110e+00	-4.021406e+01
2.090000e-06	1.145139e-06	-5.302338e-10	8.126508e+00	-3.723547e+01
2.100000e-06	1.189870e-06	-4.861515e-10	8.443941e+00	-3.418674e+01
2.110000e-06	1.234446e-06	-4.438864e-10	8.760278e+00	-3.106906e+01
2.120000e-06	1.278924e-06	-4.035696e-10	9.075918e+00	-2.788402e+01
2.130000e-06	1.323384e-06	-3.592214e-10	9.391429e+00	-2.463360e+01
2.140000e-06	1.367776e-06	-3.063583e-10	9.706455e+00	-2.132019e+01
2.150000e-06	1.412076e-06	-2.508636e-10	1.002083e+01	-1.794661e+01
2.160000e-06	1.456338e-06	-1.984983e-10	1.033494e+01	-1.451609e+01
2.170000e-06	1.500502e-06	-1.469177e-10	1.064835e+01	-1.103230e+01
2.180000e-06	1.544548e-06	-9.389580e-11	1.096093e+01	-7.499281e+00
2.190000e-06	1.588551e-06	-4.190496e-11	1.127319e+01	-3.921497e+00
2.200000e-06	1.632513e-06	6.511333e-12	1.158517e+01	-3.037688e-01
2.210000e-06	1.676414e-06	5.904546e-11	1.189671e+01	3.348732e+00
2.220000e-06	1.720264e-06	1.206995e-10	1.220790e+01	7.030517e+00
2.230000e-06	1.764021e-06	1.848589e-10	1.251842e+01	1.073582e+01
2.240000e-06	1.807708e-06	2.425348e-10	1.282845e+01	1.445862e+01
2.250000e-06	1.851320e-06	2.948485e-10	1.313794e+01	1.819272e+01
2.260000e-06	1.894822e-06	3.505984e-10	1.344665e+01	2.193175e+01
2.270000e-06	1.938216e-06	4.078844e-10	1.375459e+01	2.566924e+01
2.280000e-06	1.981419e-06	4.591188e-10	1.406119e+01	2.939868e+01
2.290000e-06	2.024401e-06	5.094506e-10	1.436621e+01	3.311354e+01
2.300000e-06	2.067138e-06	5.673481e-10	1.466949e+01	3.680735e+01
2.310000e-06	2.109663e-06	6.294287e-10	1.497127e+01	4.047374e+01
2.320000e-06	2.152065e-06	6.866586e-10	1.527218e+01	4.410651e+01
2.330000e-06	2.194190e-06	7.361866e-10	1.557112e+01	4.769966e+01
2.340000e-06	2.235939e-06	7.841507e-10	1.586739e+01	5.124741e+01
2.350000e-06	2.277396e-06	8.365668e-10	1.616160e+01	5.474433e+01
2.360000e-06	2.318575e-06	8.876451e-10	1.645382e+01	5.818527e+01
2.370000e-06	2.359518e-06	9.330358e-10	1.674437e+01	6.156550e+01
2.380000e-06	2.400167e-06	9.806555e-10	1.703284e+01	6.488066e+01
2.390000e-06	2.440603e-06	1.035243e-09	1.731980e+01	6.812682e+01
2.400000e-06	2.480936e-06	1.088133e-09	1.760602e+01	7.130052e+01
2.410000e-06	2.521089e-06	1.129931e-09	1.789097e+01	7.439873e+01
2.420000e-06	2.561087e-06	1.166148e-09	1.817482e+01	7.741893e+01
2.430000e-06	2.600973e-06	1.206717e-09	1.845786e+01	8.035903e+01
2.440000e-06	2.640756e-06	1.249951e-09	1.874019e+01	8.321745e+01
2.450000e-06	2.680415e-06	1.289413e-09	1.902163e+01	8.599303e+01
2.460000e-06	2.719932e-06	1.325660e-09	1.930206e+01	8.868510e+01
2.470000e-06	2.759318e-06	1.366189e-09	1.958157e+01	9.129339e+01
2.480000e-06	2.798584e-06	1.408818e-09	1.986022e+01	9.381804e+01
2.490000e-06	2.837654e-06	1.443453e-09	2.013748e+01	9.625958e+01
2.500000e-06	2.876470e-06	1.469515e-09	2.041294e+01	9.861886e+01
2.510000e-06	2.915017e-06	1.497107e-09	2.068649e+01	1.008971e+02
2.520000e-06	2.953441e-06	1.531178e-09	2.095917e+01	1.030957e+02
2.530000e-06	2.991764e-06	1.565121e-09	2.123113e+01	1.052164e+02
2.540000e-06	3.029802e-06	1.595404e-09	2.150107e+01	1.072611e+02
2.550000e-06	3.067670e-06	1.627806e-09	2.176979e+01	1.092319e+02
2.560000e-06	3.105429e-06	1.659937e-09	2.203775e+01	1.111309e+02
2.570000e-06	3.142956e-06	1.683617e-09	2.230406e+01	1.129605e+02
2.580000e-06	3.180183e-06	1.700582e-09	2.256824e+01	1.147229e+02
2.590000e-06	3.217140e-06	1.720101e-09	2.283051e+01	1.164206e+02
2.600000e-06	3.253821e-06	1.746112e-09	2.309082e+01	1.180560e+02
2.610000e-06	3.290230e-06	1.774834e-09	2.334919e+01	1.196312e+02
2.620000e-06	3.326481e-06	1.798245e-09	2.360645e+01	1.211488e+02
2.630000e-06	3.362616e-06	1.817579e-09	2.386288e+01	1.226107e+02
2.640000e-06	3.398597e-06	1.837317e-09	2.411822e+01	1.240192e+02
2.650000e-06	3.434436e-06	1.855386e-09	2.437256e+01	1.253763e+02
2.660000e-06	3.470126e-06	1.869267e-09	2.462583e+01	1.266838e+02
2.670000e-06	3.505579e-06	1.881923e-09	2.487743e+01	1.279436e+02
2.680000e-06	3.540766e-06	1.899469e-09	2.512713e+01	1.291573e+02
2.690000e-06	3.575634e-06	1.920396e-09	2.537457e+01	1.303265e+02
2.700000e-06	3.610184e-06	1.939815e-09	2.561976e+01	1.314526e+02
2.710000e-06	3.644422e-06	1.956514e-09	2.586273e+01	1.325369e+02
2.720000e-06	3.678281e-06	1.972772e-09	2.610301e+01	1.335806e+02
2.730000e-06	3.711656e-06	1.985033e-09	2.633985e+01	1.345851e+02
2.740000e-06	3.744516e-06	1.992674e-09	2.657305e+01	1.355512e+02
2.750000e-06	3.777025e-06	2.000779e-09	2.680375e+01	1.364801e+02
2.760000e-06	3.809303e-06	2.014151e-09	2.703281e+01	1.373727e+02
2.770000e-06	3.841366e-06	2.029875e-09	2.726035e+01	1.382300e+02
2.780000e-06	3.873241e-06	2.042790e-09	2.748655e+01	1.390528e+02
2.790000e-06	3.905016e-06	2.052094e-09	2.771204e+01	1.398421e+02
2.800000e-06	3.936633e-06	2.060642e-09	2.793641e+01	1.405988e+02
2.810000e-06	3.967936e-06	2.069225e-09	2.815856e+01	1.413237e+02
2.820000e-06	3.998970e-06	2.074612e-09	2.837879e+01	1.420179e+02
2.830000e-06	4.029751e-06	2.079637e-09	2.859722e+01	1.426823e+02
2.840000e-06	4.060187e-06	2.091882e-09	2.881322e+01	1.433179e+02
2.850000e-06	4.090378e-06	2.108722e-09	2.902747e+01	1.439256e+02
2.860000e-06	4.120361e-06	2.120502e-09	2.924024e+01	1.445064e+02
2.870000e-06	4.150083e-06	2.125667e-09	2.945117e+01	1.450616e+02
2.880000e-06	4.179543e-06	2.128964e-09	2.966022e+01	1.455920e+02
2.890000e-06	4.208680e-06	2.133477e-09	2.986700e+01	1.460988e+02
2.900000e-06	4.237458e-06	2.135478e-09	3.007123e+01	1.465831e+02
