# Temperatura_=_-1.0
# Concentracion g/m^3_=_4090.0
# C_Vs_to_Am_M_A/Vsm_=_65563218390.804596
# pendiente_HvsI_1/m_=_3716.3
# ordenada_HvsI_A/m_=_1297.0
# frecuencia_Hz_=_135063.00238652897

Tiempo_(s)	Campo_(V.s)	Magnetizacion_(V.s)	Campo_(kA/m)	Magnetizacion_(A/m)
0.000000e+00	-5.407005e-06	-2.616957e-09	-3.840740e+01	-1.706447e+02
1.000000e-08	-5.407091e-06	-2.619307e-09	-3.840802e+01	-1.705455e+02
2.000000e-08	-5.407012e-06	-2.621441e-09	-3.840745e+01	-1.704487e+02
3.000000e-08	-5.406719e-06	-2.618047e-09	-3.840537e+01	-1.703563e+02
4.000000e-08	-5.406033e-06	-2.610616e-09	-3.840050e+01	-1.702704e+02
5.000000e-08	-5.404790e-06	-2.605716e-09	-3.839167e+01	-1.701932e+02
6.000000e-08	-5.402861e-06	-2.603283e-09	-3.837797e+01	-1.701266e+02
7.000000e-08	-5.400303e-06	-2.594960e-09	-3.835980e+01	-1.700724e+02
8.000000e-08	-5.397205e-06	-2.569203e-09	-3.833779e+01	-1.700322e+02
9.000000e-08	-5.393468e-06	-2.600160e-09	-3.831125e+01	-1.700074e+02
1.000000e-07	-5.389287e-06	-2.713683e-09	-3.828155e+01	-1.699991e+02
1.100000e-07	-5.384915e-06	-2.717757e-09	-3.825049e+01	-1.700081e+02
1.200000e-07	-5.380401e-06	-2.540843e-09	-3.821843e+01	-1.700351e+02
1.300000e-07	-5.375716e-06	-2.531832e-09	-3.818515e+01	-1.700802e+02
1.400000e-07	-5.370563e-06	-2.674046e-09	-3.814854e+01	-1.701434e+02
1.500000e-07	-5.364898e-06	-2.713244e-09	-3.810831e+01	-1.702241e+02
1.600000e-07	-5.358941e-06	-2.478740e-09	-3.806600e+01	-1.703217e+02
1.700000e-07	-5.352677e-06	-2.470865e-09	-3.802150e+01	-1.704350e+02
1.800000e-07	-5.345892e-06	-2.722194e-09	-3.797330e+01	-1.705627e+02
1.900000e-07	-5.338625e-06	-2.775938e-09	-3.792168e+01	-1.707029e+02
2.000000e-07	-5.331122e-06	-2.582814e-09	-3.786839e+01	-1.708538e+02
2.100000e-07	-5.323558e-06	-2.556358e-09	-3.781465e+01	-1.710132e+02
2.200000e-07	-5.315826e-06	-2.725089e-09	-3.775974e+01	-1.711787e+02
2.300000e-07	-5.307783e-06	-2.677522e-09	-3.770261e+01	-1.713477e+02
2.400000e-07	-5.299371e-06	-2.571192e-09	-3.764285e+01	-1.715176e+02
2.500000e-07	-5.290451e-06	-2.652293e-09	-3.757949e+01	-1.716857e+02
2.600000e-07	-5.280808e-06	-2.773787e-09	-3.751099e+01	-1.718492e+02
2.700000e-07	-5.270326e-06	-2.660617e-09	-3.743654e+01	-1.720054e+02
2.800000e-07	-5.259279e-06	-2.630398e-09	-3.735807e+01	-1.721517e+02
2.900000e-07	-5.247783e-06	-2.746256e-09	-3.727641e+01	-1.722856e+02
3.000000e-07	-5.235946e-06	-2.722684e-09	-3.719233e+01	-1.724046e+02
3.100000e-07	-5.223795e-06	-2.557057e-09	-3.710601e+01	-1.725068e+02
3.200000e-07	-5.211269e-06	-2.642432e-09	-3.701704e+01	-1.725900e+02
3.300000e-07	-5.198383e-06	-2.768092e-09	-3.692550e+01	-1.726527e+02
3.400000e-07	-5.185148e-06	-2.675847e-09	-3.683149e+01	-1.726936e+02
3.500000e-07	-5.171489e-06	-2.585745e-09	-3.673447e+01	-1.727114e+02
3.600000e-07	-5.157409e-06	-2.695798e-09	-3.663446e+01	-1.727056e+02
3.700000e-07	-5.142985e-06	-2.701481e-09	-3.653200e+01	-1.726758e+02
3.800000e-07	-5.128097e-06	-2.613107e-09	-3.642625e+01	-1.726218e+02
3.900000e-07	-5.112581e-06	-2.627233e-09	-3.631603e+01	-1.725439e+02
4.000000e-07	-5.096440e-06	-2.661699e-09	-3.620138e+01	-1.724428e+02
4.100000e-07	-5.079912e-06	-2.608904e-09	-3.608398e+01	-1.723192e+02
4.200000e-07	-5.063021e-06	-2.632498e-09	-3.596399e+01	-1.721743e+02
4.300000e-07	-5.045786e-06	-2.685174e-09	-3.584157e+01	-1.720095e+02
4.400000e-07	-5.028353e-06	-2.620082e-09	-3.571773e+01	-1.718264e+02
4.500000e-07	-5.010686e-06	-2.589778e-09	-3.559224e+01	-1.716269e+02
4.600000e-07	-4.992684e-06	-2.651352e-09	-3.546437e+01	-1.714127e+02
4.700000e-07	-4.974292e-06	-2.651012e-09	-3.533373e+01	-1.711859e+02
4.800000e-07	-4.955429e-06	-2.579495e-09	-3.519974e+01	-1.709487e+02
4.900000e-07	-4.936043e-06	-2.592829e-09	-3.506204e+01	-1.707030e+02
5.000000e-07	-4.916303e-06	-2.620464e-09	-3.492181e+01	-1.704510e+02
5.100000e-07	-4.896424e-06	-2.620401e-09	-3.478061e+01	-1.701947e+02
5.200000e-07	-4.876410e-06	-2.603655e-09	-3.463845e+01	-1.699359e+02
5.300000e-07	-4.856167e-06	-2.596504e-09	-3.449466e+01	-1.696764e+02
5.400000e-07	-4.835615e-06	-2.586641e-09	-3.434867e+01	-1.694179e+02
5.500000e-07	-4.814700e-06	-2.613811e-09	-3.420010e+01	-1.691616e+02
5.600000e-07	-4.793409e-06	-2.598083e-09	-3.404887e+01	-1.689089e+02
5.700000e-07	-4.771778e-06	-2.560298e-09	-3.389522e+01	-1.686606e+02
5.800000e-07	-4.749833e-06	-2.554740e-09	-3.373934e+01	-1.684176e+02
5.900000e-07	-4.727608e-06	-2.581368e-09	-3.358146e+01	-1.681802e+02
6.000000e-07	-4.705121e-06	-2.572457e-09	-3.342174e+01	-1.679487e+02
6.100000e-07	-4.682252e-06	-2.561398e-09	-3.325929e+01	-1.677232e+02
6.200000e-07	-4.659000e-06	-2.549375e-09	-3.309412e+01	-1.675032e+02
6.300000e-07	-4.635502e-06	-2.555400e-09	-3.292721e+01	-1.672885e+02
6.400000e-07	-4.611770e-06	-2.566722e-09	-3.275864e+01	-1.670783e+02
6.500000e-07	-4.587813e-06	-2.556054e-09	-3.258847e+01	-1.668719e+02
6.600000e-07	-4.563631e-06	-2.521456e-09	-3.241670e+01	-1.666681e+02
6.700000e-07	-4.539158e-06	-2.526681e-09	-3.224286e+01	-1.664660e+02
6.800000e-07	-4.514321e-06	-2.548998e-09	-3.206643e+01	-1.662644e+02
6.900000e-07	-4.489027e-06	-2.541770e-09	-3.188676e+01	-1.660619e+02
7.000000e-07	-4.463243e-06	-2.522460e-09	-3.170361e+01	-1.658574e+02
7.100000e-07	-4.436880e-06	-2.523919e-09	-3.151635e+01	-1.656494e+02
7.200000e-07	-4.410020e-06	-2.534069e-09	-3.132555e+01	-1.654369e+02
7.300000e-07	-4.382789e-06	-2.531379e-09	-3.113213e+01	-1.652185e+02
7.400000e-07	-4.355170e-06	-2.516678e-09	-3.093594e+01	-1.649932e+02
7.500000e-07	-4.327304e-06	-2.504087e-09	-3.073800e+01	-1.647600e+02
7.600000e-07	-4.299284e-06	-2.514623e-09	-3.053897e+01	-1.645180e+02
7.700000e-07	-4.271131e-06	-2.515495e-09	-3.033899e+01	-1.642665e+02
7.800000e-07	-4.242779e-06	-2.496039e-09	-3.013759e+01	-1.640050e+02
7.900000e-07	-4.214118e-06	-2.476479e-09	-2.993401e+01	-1.637329e+02
8.000000e-07	-4.185125e-06	-2.483964e-09	-2.972806e+01	-1.634502e+02
8.100000e-07	-4.155782e-06	-2.490388e-09	-2.951963e+01	-1.631567e+02
8.200000e-07	-4.126133e-06	-2.488645e-09	-2.930903e+01	-1.628525e+02
8.300000e-07	-4.096241e-06	-2.476534e-09	-2.909670e+01	-1.625379e+02
8.400000e-07	-4.066102e-06	-2.474537e-09	-2.888261e+01	-1.622133e+02
8.500000e-07	-4.035651e-06	-2.471821e-09	-2.866631e+01	-1.618792e+02
8.600000e-07	-4.004886e-06	-2.460703e-09	-2.844778e+01	-1.615363e+02
8.700000e-07	-3.973818e-06	-2.434510e-09	-2.822710e+01	-1.611852e+02
8.800000e-07	-3.942565e-06	-2.422888e-09	-2.800509e+01	-1.608269e+02
8.900000e-07	-3.911181e-06	-2.428533e-09	-2.778217e+01	-1.604622e+02
9.000000e-07	-3.879562e-06	-2.439627e-09	-2.755757e+01	-1.600919e+02
9.100000e-07	-3.847713e-06	-2.431756e-09	-2.733134e+01	-1.597171e+02
9.200000e-07	-3.815698e-06	-2.420077e-09	-2.710392e+01	-1.593385e+02
9.300000e-07	-3.783480e-06	-2.412431e-09	-2.687507e+01	-1.589570e+02
9.400000e-07	-3.751007e-06	-2.405425e-09	-2.664441e+01	-1.585734e+02
9.500000e-07	-3.718224e-06	-2.386573e-09	-2.641154e+01	-1.581885e+02
9.600000e-07	-3.685045e-06	-2.370023e-09	-2.617586e+01	-1.578028e+02
9.700000e-07	-3.651502e-06	-2.368390e-09	-2.593760e+01	-1.574168e+02
9.800000e-07	-3.617542e-06	-2.375160e-09	-2.569637e+01	-1.570310e+02
9.900000e-07	-3.583021e-06	-2.370104e-09	-2.545116e+01	-1.566457e+02
1.000000e-06	-3.548056e-06	-2.354615e-09	-2.520279e+01	-1.562610e+02
1.010000e-06	-3.512874e-06	-2.342634e-09	-2.495289e+01	-1.558769e+02
1.020000e-06	-3.477448e-06	-2.334151e-09	-2.470124e+01	-1.554933e+02
1.030000e-06	-3.441782e-06	-2.322741e-09	-2.444790e+01	-1.551100e+02
1.040000e-06	-3.405963e-06	-2.311069e-09	-2.419347e+01	-1.547267e+02
1.050000e-06	-3.370018e-06	-2.309852e-09	-2.393814e+01	-1.543429e+02
1.060000e-06	-3.333933e-06	-2.312833e-09	-2.368182e+01	-1.539581e+02
1.070000e-06	-3.297716e-06	-2.310960e-09	-2.342456e+01	-1.535717e+02
1.080000e-06	-3.261354e-06	-2.295896e-09	-2.316627e+01	-1.531829e+02
1.090000e-06	-3.224690e-06	-2.279932e-09	-2.290584e+01	-1.527910e+02
1.100000e-06	-3.187753e-06	-2.269418e-09	-2.264347e+01	-1.523954e+02
1.110000e-06	-3.150589e-06	-2.264627e-09	-2.237948e+01	-1.519951e+02
1.120000e-06	-3.113136e-06	-2.255232e-09	-2.211344e+01	-1.515894e+02
1.130000e-06	-3.075508e-06	-2.249206e-09	-2.184616e+01	-1.511775e+02
1.140000e-06	-3.037654e-06	-2.247842e-09	-2.157727e+01	-1.507587e+02
1.150000e-06	-2.999575e-06	-2.246578e-09	-2.130678e+01	-1.503322e+02
1.160000e-06	-2.961353e-06	-2.235099e-09	-2.103528e+01	-1.498974e+02
1.170000e-06	-2.922869e-06	-2.220994e-09	-2.076192e+01	-1.494538e+02
1.180000e-06	-2.884188e-06	-2.208098e-09	-2.048716e+01	-1.490007e+02
1.190000e-06	-2.845350e-06	-2.202062e-09	-2.021129e+01	-1.485378e+02
1.200000e-06	-2.806246e-06	-2.194624e-09	-1.993352e+01	-1.480647e+02
1.210000e-06	-2.766901e-06	-2.185684e-09	-1.965404e+01	-1.475811e+02
1.220000e-06	-2.727424e-06	-2.181144e-09	-1.937362e+01	-1.470869e+02
1.230000e-06	-2.687804e-06	-2.182289e-09	-1.909219e+01	-1.465818e+02
1.240000e-06	-2.647987e-06	-2.174889e-09	-1.880936e+01	-1.460659e+02
1.250000e-06	-2.608051e-06	-2.160496e-09	-1.852569e+01	-1.455392e+02
1.260000e-06	-2.568022e-06	-2.145323e-09	-1.824135e+01	-1.450018e+02
1.270000e-06	-2.527898e-06	-2.133505e-09	-1.795634e+01	-1.444539e+02
1.280000e-06	-2.487654e-06	-2.126398e-09	-1.767047e+01	-1.438956e+02
1.290000e-06	-2.447301e-06	-2.120037e-09	-1.738383e+01	-1.433271e+02
1.300000e-06	-2.406836e-06	-2.114464e-09	-1.709640e+01	-1.427488e+02
1.310000e-06	-2.366225e-06	-2.110840e-09	-1.680793e+01	-1.421609e+02
1.320000e-06	-2.325305e-06	-2.106660e-09	-1.651726e+01	-1.415636e+02
1.330000e-06	-2.284074e-06	-2.096412e-09	-1.622439e+01	-1.409571e+02
1.340000e-06	-2.242669e-06	-2.082376e-09	-1.593028e+01	-1.403418e+02
1.350000e-06	-2.200993e-06	-2.067418e-09	-1.563424e+01	-1.397179e+02
1.360000e-06	-2.159013e-06	-2.052909e-09	-1.533605e+01	-1.390855e+02
1.370000e-06	-2.116673e-06	-2.038308e-09	-1.503530e+01	-1.384446e+02
1.380000e-06	-2.074088e-06	-2.027423e-09	-1.473281e+01	-1.377955e+02
1.390000e-06	-2.031316e-06	-2.019944e-09	-1.442898e+01	-1.371382e+02
1.400000e-06	-1.988295e-06	-2.014942e-09	-1.412339e+01	-1.364725e+02
1.410000e-06	-1.945150e-06	-2.006785e-09	-1.381692e+01	-1.357984e+02
1.420000e-06	-1.901900e-06	-1.995579e-09	-1.350970e+01	-1.351157e+02
1.430000e-06	-1.858503e-06	-1.983314e-09	-1.320144e+01	-1.344243e+02
1.440000e-06	-1.814932e-06	-1.970844e-09	-1.289195e+01	-1.337238e+02
1.450000e-06	-1.771198e-06	-1.955630e-09	-1.258129e+01	-1.330139e+02
1.460000e-06	-1.727347e-06	-1.941446e-09	-1.226981e+01	-1.322942e+02
1.470000e-06	-1.683434e-06	-1.929888e-09	-1.195788e+01	-1.315643e+02
1.480000e-06	-1.639471e-06	-1.921057e-09	-1.164560e+01	-1.308236e+02
1.490000e-06	-1.595453e-06	-1.910379e-09	-1.133293e+01	-1.300716e+02
1.500000e-06	-1.551375e-06	-1.898743e-09	-1.101983e+01	-1.293077e+02
1.510000e-06	-1.507193e-06	-1.886367e-09	-1.070600e+01	-1.285313e+02
1.520000e-06	-1.462950e-06	-1.872560e-09	-1.039172e+01	-1.277417e+02
1.530000e-06	-1.418637e-06	-1.858206e-09	-1.007696e+01	-1.269383e+02
1.540000e-06	-1.374243e-06	-1.845511e-09	-9.761615e+00	-1.261203e+02
1.550000e-06	-1.329796e-06	-1.833225e-09	-9.445897e+00	-1.252870e+02
1.560000e-06	-1.285281e-06	-1.820537e-09	-9.129692e+00	-1.244375e+02
1.570000e-06	-1.240675e-06	-1.809032e-09	-8.812846e+00	-1.235712e+02
1.580000e-06	-1.195972e-06	-1.798783e-09	-8.495308e+00	-1.226873e+02
1.590000e-06	-1.151184e-06	-1.788108e-09	-8.177171e+00	-1.217848e+02
1.600000e-06	-1.106271e-06	-1.774953e-09	-7.858139e+00	-1.208629e+02
1.610000e-06	-1.061211e-06	-1.758411e-09	-7.538065e+00	-1.199209e+02
1.620000e-06	-1.016073e-06	-1.741525e-09	-7.217437e+00	-1.189577e+02
1.630000e-06	-9.708972e-07	-1.723542e-09	-6.896543e+00	-1.179726e+02
1.640000e-06	-9.257212e-07	-1.703277e-09	-6.575645e+00	-1.169645e+02
1.650000e-06	-8.805016e-07	-1.684411e-09	-6.254439e+00	-1.159325e+02
1.660000e-06	-8.351042e-07	-1.670659e-09	-5.931969e+00	-1.148758e+02
1.670000e-06	-7.896192e-07	-1.662221e-09	-5.608877e+00	-1.137931e+02
1.680000e-06	-7.441949e-07	-1.649161e-09	-5.286216e+00	-1.126837e+02
1.690000e-06	-6.987597e-07	-1.627529e-09	-4.963478e+00	-1.115463e+02
1.700000e-06	-6.532486e-07	-1.603325e-09	-4.640200e+00	-1.103801e+02
1.710000e-06	-6.076594e-07	-1.581666e-09	-4.316368e+00	-1.091838e+02
1.720000e-06	-5.620416e-07	-1.560651e-09	-3.992332e+00	-1.079563e+02
1.730000e-06	-5.164025e-07	-1.538545e-09	-3.668145e+00	-1.066967e+02
1.740000e-06	-4.707202e-07	-1.519547e-09	-3.343651e+00	-1.054036e+02
1.750000e-06	-4.249724e-07	-1.507296e-09	-3.018693e+00	-1.040761e+02
1.760000e-06	-3.791529e-07	-1.494023e-09	-2.693225e+00	-1.027129e+02
1.770000e-06	-3.333496e-07	-1.471867e-09	-2.367871e+00	-1.013128e+02
1.780000e-06	-2.875901e-07	-1.442462e-09	-2.042829e+00	-9.987484e+01
1.790000e-06	-2.418037e-07	-1.415002e-09	-1.717597e+00	-9.839776e+01
1.800000e-06	-1.959354e-07	-1.392255e-09	-1.391782e+00	-9.688044e+01
1.810000e-06	-1.500423e-07	-1.369508e-09	-1.065791e+00	-9.532179e+01
1.820000e-06	-1.042224e-07	-1.344298e-09	-7.403199e-01	-9.372072e+01
1.830000e-06	-5.845978e-08	-1.321778e-09	-4.152555e-01	-9.207618e+01
1.840000e-06	-1.269474e-08	-1.302491e-09	-9.017414e-02	-9.038715e+01
1.850000e-06	3.314093e-08	-1.281095e-09	2.354089e-01	-8.865266e+01
1.860000e-06	7.902612e-08	-1.252733e-09	5.613437e-01	-8.687177e+01
1.870000e-06	1.248766e-07	-1.220685e-09	8.870323e-01	-8.504360e+01
1.880000e-06	1.706980e-07	-1.192605e-09	1.212513e+00	-8.316732e+01
1.890000e-06	2.165239e-07	-1.165963e-09	1.538027e+00	-8.124217e+01
1.900000e-06	2.623011e-07	-1.134749e-09	1.863195e+00	-7.926743e+01
1.910000e-06	3.080254e-07	-1.101598e-09	2.187987e+00	-7.724247e+01
1.920000e-06	3.537511e-07	-1.072976e-09	2.512789e+00	-7.516668e+01
1.930000e-06	3.994507e-07	-1.047697e-09	2.837406e+00	-7.303957e+01
1.940000e-06	4.451306e-07	-1.020136e-09	3.161882e+00	-7.086070e+01
1.950000e-06	4.907319e-07	-9.881545e-10	3.485800e+00	-6.862968e+01
1.960000e-06	5.362542e-07	-9.545096e-10	3.809157e+00	-6.634623e+01
1.970000e-06	5.818067e-07	-9.214151e-10	4.132729e+00	-6.401011e+01
1.980000e-06	6.273881e-07	-8.849370e-10	4.456506e+00	-6.162120e+01
1.990000e-06	6.729005e-07	-8.440280e-10	4.779792e+00	-5.917940e+01
2.000000e-06	7.183880e-07	-8.063587e-10	5.102902e+00	-5.668476e+01
2.010000e-06	7.638759e-07	-7.722802e-10	5.426015e+00	-5.413736e+01
2.020000e-06	8.092657e-07	-7.376411e-10	5.748431e+00	-5.153740e+01
2.030000e-06	8.545521e-07	-7.015044e-10	6.070113e+00	-4.888516e+01
2.040000e-06	8.997433e-07	-6.640255e-10	6.391118e+00	-4.618103e+01
2.050000e-06	9.449001e-07	-6.259615e-10	6.711878e+00	-4.342551e+01
2.060000e-06	9.900155e-07	-5.864970e-10	7.032345e+00	-4.061918e+01
2.070000e-06	1.034969e-06	-5.451103e-10	7.351664e+00	-3.776278e+01
2.080000e-06	1.079845e-06	-5.033522e-10	7.670431e+00	-3.485715e+01
2.090000e-06	1.124643e-06	-4.625618e-10	7.988637e+00	-3.190327e+01
2.100000e-06	1.169287e-06	-4.195736e-10	8.305761e+00	-2.890228e+01
2.110000e-06	1.213885e-06	-3.722835e-10	8.622547e+00	-2.585544e+01
2.120000e-06	1.258392e-06	-3.256322e-10	8.938694e+00	-2.276420e+01
2.130000e-06	1.302754e-06	-2.807850e-10	9.253807e+00	-1.963017e+01
2.140000e-06	1.347092e-06	-2.346371e-10	9.568758e+00	-1.645513e+01
2.150000e-06	1.391395e-06	-1.859012e-10	9.883450e+00	-1.324104e+01
2.160000e-06	1.435595e-06	-1.385884e-10	1.019742e+01	-9.990047e+00
2.170000e-06	1.479731e-06	-9.452781e-11	1.051093e+01	-6.704505e+00
2.180000e-06	1.523845e-06	-5.052638e-11	1.082428e+01	-3.386945e+00
2.190000e-06	1.567941e-06	-1.485571e-12	1.113751e+01	-4.009727e-02
2.200000e-06	1.611947e-06	5.309893e-11	1.145009e+01	3.333115e+00
2.210000e-06	1.655854e-06	1.106787e-10	1.176198e+01	6.729582e+00
2.220000e-06	1.699725e-06	1.677445e-10	1.207361e+01	1.014601e+01
2.230000e-06	1.743511e-06	2.200736e-10	1.238463e+01	1.357894e+01
2.240000e-06	1.787228e-06	2.662901e-10	1.269516e+01	1.702474e+01
2.250000e-06	1.830917e-06	3.090646e-10	1.300549e+01	2.047964e+01
2.260000e-06	1.874500e-06	3.540314e-10	1.331508e+01	2.393974e+01
2.270000e-06	1.917956e-06	4.036331e-10	1.362376e+01	2.740102e+01
2.280000e-06	1.961284e-06	4.588988e-10	1.393152e+01	3.085939e+01
2.290000e-06	2.004404e-06	5.179077e-10	1.423782e+01	3.431067e+01
2.300000e-06	2.047213e-06	5.772069e-10	1.454190e+01	3.775066e+01
2.310000e-06	2.089778e-06	6.323519e-10	1.484426e+01	4.117513e+01
2.320000e-06	2.132101e-06	6.796717e-10	1.514489e+01	4.457989e+01
2.330000e-06	2.174107e-06	7.234237e-10	1.544326e+01	4.796076e+01
2.340000e-06	2.215799e-06	7.670087e-10	1.573941e+01	5.131367e+01
2.350000e-06	2.257173e-06	8.116378e-10	1.603331e+01	5.463463e+01
2.360000e-06	2.298292e-06	8.613609e-10	1.632539e+01	5.791977e+01
2.370000e-06	2.339233e-06	9.141246e-10	1.661620e+01	6.116542e+01
2.380000e-06	2.379964e-06	9.668675e-10	1.690552e+01	6.436805e+01
2.390000e-06	2.420476e-06	1.015641e-09	1.719329e+01	6.752437e+01
2.400000e-06	2.460815e-06	1.059672e-09	1.747983e+01	7.063130e+01
2.410000e-06	2.500965e-06	1.101841e-09	1.776502e+01	7.368602e+01
2.420000e-06	2.540989e-06	1.142417e-09	1.804933e+01	7.668598e+01
2.430000e-06	2.580952e-06	1.181079e-09	1.833319e+01	7.962890e+01
2.440000e-06	2.620853e-06	1.220207e-09	1.861662e+01	8.251279e+01
2.450000e-06	2.660661e-06	1.261612e-09	1.889939e+01	8.533597e+01
2.460000e-06	2.700373e-06	1.303312e-09	1.918147e+01	8.809703e+01
2.470000e-06	2.739993e-06	1.344759e-09	1.946290e+01	9.079487e+01
2.480000e-06	2.779416e-06	1.385984e-09	1.974293e+01	9.342867e+01
2.490000e-06	2.818613e-06	1.424424e-09	2.002136e+01	9.599791e+01
2.500000e-06	2.857582e-06	1.458806e-09	2.029817e+01	9.850232e+01
2.510000e-06	2.896302e-06	1.491129e-09	2.057321e+01	1.009419e+02
2.520000e-06	2.934721e-06	1.523861e-09	2.084611e+01	1.033168e+02
2.530000e-06	2.972891e-06	1.556409e-09	2.111724e+01	1.056275e+02
2.540000e-06	3.010926e-06	1.587275e-09	2.138741e+01	1.078747e+02
2.550000e-06	3.048761e-06	1.618441e-09	2.165617e+01	1.100591e+02
2.560000e-06	3.086424e-06	1.650266e-09	2.192369e+01	1.121816e+02
2.570000e-06	3.123962e-06	1.679454e-09	2.219034e+01	1.142434e+02
2.580000e-06	3.161284e-06	1.705886e-09	2.245544e+01	1.162456e+02
2.590000e-06	3.198384e-06	1.732473e-09	2.271898e+01	1.181893e+02
2.600000e-06	3.235226e-06	1.760321e-09	2.298068e+01	1.200758e+02
2.610000e-06	3.271814e-06	1.787764e-09	2.324057e+01	1.219065e+02
2.620000e-06	3.308187e-06	1.811779e-09	2.349894e+01	1.236826e+02
2.630000e-06	3.344358e-06	1.833333e-09	2.375587e+01	1.254054e+02
2.640000e-06	3.380384e-06	1.855472e-09	2.401178e+01	1.270762e+02
2.650000e-06	3.416232e-06	1.876731e-09	2.426641e+01	1.286961e+02
2.660000e-06	3.451931e-06	1.895998e-09	2.451999e+01	1.302662e+02
2.670000e-06	3.487519e-06	1.916219e-09	2.477278e+01	1.317878e+02
2.680000e-06	3.522923e-06	1.939029e-09	2.502427e+01	1.332617e+02
2.690000e-06	3.558001e-06	1.961876e-09	2.527343e+01	1.346890e+02
2.700000e-06	3.592629e-06	1.981872e-09	2.551940e+01	1.360706e+02
2.710000e-06	3.626850e-06	2.000250e-09	2.576248e+01	1.374073e+02
2.720000e-06	3.660656e-06	2.018667e-09	2.600262e+01	1.386999e+02
2.730000e-06	3.693992e-06	2.035166e-09	2.623941e+01	1.399492e+02
2.740000e-06	3.727023e-06	2.048688e-09	2.647404e+01	1.411559e+02
2.750000e-06	3.759726e-06	2.062581e-09	2.670634e+01	1.423206e+02
2.760000e-06	3.792059e-06	2.079786e-09	2.693601e+01	1.434442e+02
2.770000e-06	3.824189e-06	2.097762e-09	2.716424e+01	1.445273e+02
2.780000e-06	3.856135e-06	2.112124e-09	2.739116e+01	1.455706e+02
2.790000e-06	3.887911e-06	2.124860e-09	2.761687e+01	1.465750e+02
2.800000e-06	3.919554e-06	2.140220e-09	2.784164e+01	1.475411e+02
2.810000e-06	3.950987e-06	2.156039e-09	2.806492e+01	1.484699e+02
2.820000e-06	3.982065e-06	2.166861e-09	2.828568e+01	1.493623e+02
2.830000e-06	4.012745e-06	2.174231e-09	2.850360e+01	1.502193e+02
2.840000e-06	4.043202e-06	2.184943e-09	2.871995e+01	1.510419e+02
2.850000e-06	4.073498e-06	2.201852e-09	2.893515e+01	1.518312e+02
2.860000e-06	4.103498e-06	2.217841e-09	2.914824e+01	1.525885e+02
2.870000e-06	4.133200e-06	2.228600e-09	2.935923e+01	1.533150e+02
2.880000e-06	4.162707e-06	2.238163e-09	2.956882e+01	1.540121e+02
2.890000e-06	4.191950e-06	2.249470e-09	2.977654e+01	1.546811e+02
2.900000e-06	4.220856e-06	2.259717e-09	2.998187e+01	1.553235e+02
