# Temperatura_=_10.4
# Concentracion g/m^3_=_4090.0
# C_Vs_to_Am_M_A/Vsm_=_65563218390.804596
# pendiente_HvsI_1/m_=_3716.3
# ordenada_HvsI_A/m_=_1297.0
# frecuencia_Hz_=_135069.62420518117

Tiempo_(s)	Campo_(V.s)	Magnetizacion_(V.s)	Campo_(kA/m)	Magnetizacion_(A/m)
0.000000e+00	-5.379232e-06	-2.432065e-09	-3.840431e+01	-1.583780e+02
1.000000e-08	-5.379263e-06	-2.433173e-09	-3.840453e+01	-1.582888e+02
2.000000e-08	-5.379037e-06	-2.434436e-09	-3.840292e+01	-1.582047e+02
3.000000e-08	-5.378548e-06	-2.432597e-09	-3.839943e+01	-1.581274e+02
4.000000e-08	-5.377680e-06	-2.428895e-09	-3.839323e+01	-1.580582e+02
5.000000e-08	-5.376383e-06	-2.425177e-09	-3.838397e+01	-1.579986e+02
6.000000e-08	-5.374526e-06	-2.415354e-09	-3.837071e+01	-1.579496e+02
7.000000e-08	-5.371944e-06	-2.393570e-09	-3.835228e+01	-1.579123e+02
8.000000e-08	-5.368715e-06	-2.408404e-09	-3.832923e+01	-1.578874e+02
9.000000e-08	-5.364965e-06	-2.471701e-09	-3.830246e+01	-1.578755e+02
1.000000e-07	-5.360765e-06	-2.484990e-09	-3.827247e+01	-1.578769e+02
1.100000e-07	-5.356425e-06	-2.410818e-09	-3.824148e+01	-1.578918e+02
1.200000e-07	-5.352110e-06	-2.403821e-09	-3.821068e+01	-1.579199e+02
1.300000e-07	-5.347395e-06	-2.432221e-09	-3.817702e+01	-1.579610e+02
1.400000e-07	-5.342096e-06	-2.477476e-09	-3.813919e+01	-1.580143e+02
1.500000e-07	-5.336441e-06	-2.371908e-09	-3.809881e+01	-1.580791e+02
1.600000e-07	-5.330587e-06	-2.374833e-09	-3.805702e+01	-1.581542e+02
1.700000e-07	-5.324246e-06	-2.438771e-09	-3.801174e+01	-1.582384e+02
1.800000e-07	-5.317434e-06	-2.501662e-09	-3.796311e+01	-1.583303e+02
1.900000e-07	-5.310387e-06	-2.454401e-09	-3.791280e+01	-1.584281e+02
2.000000e-07	-5.303060e-06	-2.446890e-09	-3.786049e+01	-1.585303e+02
2.100000e-07	-5.295323e-06	-2.488653e-09	-3.780525e+01	-1.586349e+02
2.200000e-07	-5.287274e-06	-2.476885e-09	-3.774779e+01	-1.587401e+02
2.300000e-07	-5.279114e-06	-2.470248e-09	-3.768954e+01	-1.588439e+02
2.400000e-07	-5.270693e-06	-2.495242e-09	-3.762941e+01	-1.589443e+02
2.500000e-07	-5.261566e-06	-2.540002e-09	-3.756425e+01	-1.590395e+02
2.600000e-07	-5.251741e-06	-2.499426e-09	-3.749410e+01	-1.591275e+02
2.700000e-07	-5.241422e-06	-2.518746e-09	-3.742044e+01	-1.592066e+02
2.800000e-07	-5.230562e-06	-2.523618e-09	-3.734290e+01	-1.592751e+02
2.900000e-07	-5.219274e-06	-2.499520e-09	-3.726231e+01	-1.593314e+02
3.000000e-07	-5.207565e-06	-2.442854e-09	-3.717872e+01	-1.593742e+02
3.100000e-07	-5.195411e-06	-2.495116e-09	-3.709195e+01	-1.594023e+02
3.200000e-07	-5.182855e-06	-2.511528e-09	-3.700230e+01	-1.594146e+02
3.300000e-07	-5.169970e-06	-2.496169e-09	-3.691031e+01	-1.594103e+02
3.400000e-07	-5.156666e-06	-2.464657e-09	-3.681533e+01	-1.593890e+02
3.500000e-07	-5.142994e-06	-2.496416e-09	-3.671772e+01	-1.593501e+02
3.600000e-07	-5.129056e-06	-2.469311e-09	-3.661822e+01	-1.592936e+02
3.700000e-07	-5.114776e-06	-2.461291e-09	-3.651626e+01	-1.592194e+02
3.800000e-07	-5.099842e-06	-2.446662e-09	-3.640965e+01	-1.591280e+02
3.900000e-07	-5.084201e-06	-2.454881e-09	-3.629798e+01	-1.590197e+02
4.000000e-07	-5.068135e-06	-2.448938e-09	-3.618328e+01	-1.588952e+02
4.100000e-07	-5.051661e-06	-2.479235e-09	-3.606566e+01	-1.587553e+02
4.200000e-07	-5.034765e-06	-2.470429e-09	-3.594503e+01	-1.586010e+02
4.300000e-07	-5.017547e-06	-2.445005e-09	-3.582211e+01	-1.584333e+02
4.400000e-07	-5.000101e-06	-2.443004e-09	-3.569756e+01	-1.582533e+02
4.500000e-07	-4.982424e-06	-2.448559e-09	-3.557136e+01	-1.580624e+02
4.600000e-07	-4.964381e-06	-2.431922e-09	-3.544254e+01	-1.578617e+02
4.700000e-07	-4.945907e-06	-2.422033e-09	-3.531065e+01	-1.576527e+02
4.800000e-07	-4.926969e-06	-2.440761e-09	-3.517544e+01	-1.574365e+02
4.900000e-07	-4.907578e-06	-2.439357e-09	-3.503700e+01	-1.572144e+02
5.000000e-07	-4.887909e-06	-2.442271e-09	-3.489657e+01	-1.569877e+02
5.100000e-07	-4.868070e-06	-2.429538e-09	-3.475494e+01	-1.567575e+02
5.200000e-07	-4.848020e-06	-2.420217e-09	-3.461180e+01	-1.565248e+02
5.300000e-07	-4.827748e-06	-2.406989e-09	-3.446706e+01	-1.562905e+02
5.400000e-07	-4.807245e-06	-2.418533e-09	-3.432069e+01	-1.560556e+02
5.500000e-07	-4.786439e-06	-2.398639e-09	-3.417215e+01	-1.558205e+02
5.600000e-07	-4.765274e-06	-2.396146e-09	-3.402104e+01	-1.555860e+02
5.700000e-07	-4.743732e-06	-2.399954e-09	-3.386724e+01	-1.553525e+02
5.800000e-07	-4.721835e-06	-2.409769e-09	-3.371091e+01	-1.551201e+02
5.900000e-07	-4.699651e-06	-2.386803e-09	-3.355253e+01	-1.548890e+02
6.000000e-07	-4.677117e-06	-2.378370e-09	-3.339165e+01	-1.546592e+02
6.100000e-07	-4.654184e-06	-2.361366e-09	-3.322793e+01	-1.544306e+02
6.200000e-07	-4.630933e-06	-2.363881e-09	-3.306193e+01	-1.542030e+02
6.300000e-07	-4.607355e-06	-2.363874e-09	-3.289360e+01	-1.539759e+02
6.400000e-07	-4.583549e-06	-2.371511e-09	-3.272364e+01	-1.537490e+02
6.500000e-07	-4.559598e-06	-2.365391e-09	-3.255264e+01	-1.535218e+02
6.600000e-07	-4.535419e-06	-2.372475e-09	-3.238002e+01	-1.532936e+02
6.700000e-07	-4.510928e-06	-2.364319e-09	-3.220517e+01	-1.530639e+02
6.800000e-07	-4.486007e-06	-2.349157e-09	-3.202725e+01	-1.528321e+02
6.900000e-07	-4.460660e-06	-2.328321e-09	-3.184629e+01	-1.525975e+02
7.000000e-07	-4.434946e-06	-2.323202e-09	-3.166271e+01	-1.523595e+02
7.100000e-07	-4.408771e-06	-2.324177e-09	-3.147583e+01	-1.521175e+02
7.200000e-07	-4.382087e-06	-2.329697e-09	-3.128533e+01	-1.518710e+02
7.300000e-07	-4.354975e-06	-2.330182e-09	-3.109177e+01	-1.516194e+02
7.400000e-07	-4.327483e-06	-2.331551e-09	-3.089549e+01	-1.513623e+02
7.500000e-07	-4.299713e-06	-2.335198e-09	-3.069723e+01	-1.510993e+02
7.600000e-07	-4.271776e-06	-2.326572e-09	-3.049778e+01	-1.508303e+02
7.700000e-07	-4.243641e-06	-2.308152e-09	-3.029691e+01	-1.505549e+02
7.800000e-07	-4.215303e-06	-2.290006e-09	-3.009460e+01	-1.502730e+02
7.900000e-07	-4.186691e-06	-2.283818e-09	-2.989032e+01	-1.499847e+02
8.000000e-07	-4.157783e-06	-2.280273e-09	-2.968394e+01	-1.496899e+02
8.100000e-07	-4.128561e-06	-2.284593e-09	-2.947531e+01	-1.493888e+02
8.200000e-07	-4.098992e-06	-2.284704e-09	-2.926421e+01	-1.490817e+02
8.300000e-07	-4.069158e-06	-2.290755e-09	-2.905121e+01	-1.487688e+02
8.400000e-07	-4.039127e-06	-2.289890e-09	-2.883681e+01	-1.484504e+02
8.500000e-07	-4.008868e-06	-2.287161e-09	-2.862078e+01	-1.481269e+02
8.600000e-07	-3.978364e-06	-2.267665e-09	-2.840300e+01	-1.477988e+02
8.700000e-07	-3.947550e-06	-2.255000e-09	-2.818301e+01	-1.474665e+02
8.800000e-07	-3.916417e-06	-2.243590e-09	-2.796074e+01	-1.471304e+02
8.900000e-07	-3.885109e-06	-2.244665e-09	-2.773722e+01	-1.467912e+02
9.000000e-07	-3.853579e-06	-2.242157e-09	-2.751212e+01	-1.464491e+02
9.100000e-07	-3.821788e-06	-2.243992e-09	-2.728515e+01	-1.461048e+02
9.200000e-07	-3.789807e-06	-2.240554e-09	-2.705683e+01	-1.457585e+02
9.300000e-07	-3.757627e-06	-2.238927e-09	-2.682708e+01	-1.454108e+02
9.400000e-07	-3.725252e-06	-2.229523e-09	-2.659595e+01	-1.450619e+02
9.500000e-07	-3.692614e-06	-2.221806e-09	-2.636293e+01	-1.447122e+02
9.600000e-07	-3.659608e-06	-2.213130e-09	-2.612729e+01	-1.443618e+02
9.700000e-07	-3.626246e-06	-2.210174e-09	-2.588910e+01	-1.440109e+02
9.800000e-07	-3.592466e-06	-2.200007e-09	-2.564793e+01	-1.436598e+02
9.900000e-07	-3.558336e-06	-2.186144e-09	-2.540427e+01	-1.433083e+02
1.000000e-06	-3.523890e-06	-2.174306e-09	-2.515834e+01	-1.429565e+02
1.010000e-06	-3.489014e-06	-2.169531e-09	-2.490935e+01	-1.426043e+02
1.020000e-06	-3.453704e-06	-2.164733e-09	-2.465726e+01	-1.422515e+02
1.030000e-06	-3.418113e-06	-2.159540e-09	-2.440316e+01	-1.418980e+02
1.040000e-06	-3.382357e-06	-2.159501e-09	-2.414789e+01	-1.415434e+02
1.050000e-06	-3.346429e-06	-2.160322e-09	-2.389138e+01	-1.411875e+02
1.060000e-06	-3.310369e-06	-2.154015e-09	-2.363394e+01	-1.408298e+02
1.070000e-06	-3.274166e-06	-2.136942e-09	-2.337547e+01	-1.404701e+02
1.080000e-06	-3.237763e-06	-2.120227e-09	-2.311558e+01	-1.401078e+02
1.090000e-06	-3.201154e-06	-2.108391e-09	-2.285422e+01	-1.397425e+02
1.100000e-06	-3.164258e-06	-2.105609e-09	-2.259080e+01	-1.393738e+02
1.110000e-06	-3.127115e-06	-2.101625e-09	-2.232562e+01	-1.390011e+02
1.120000e-06	-3.089810e-06	-2.099785e-09	-2.205929e+01	-1.386239e+02
1.130000e-06	-3.052306e-06	-2.098095e-09	-2.179154e+01	-1.382418e+02
1.140000e-06	-3.014619e-06	-2.098540e-09	-2.152247e+01	-1.378542e+02
1.150000e-06	-2.976741e-06	-2.086042e-09	-2.125205e+01	-1.374607e+02
1.160000e-06	-2.938636e-06	-2.066569e-09	-2.098000e+01	-1.370608e+02
1.170000e-06	-2.900296e-06	-2.048173e-09	-2.070627e+01	-1.366540e+02
1.180000e-06	-2.861769e-06	-2.040523e-09	-2.043122e+01	-1.362399e+02
1.190000e-06	-2.823116e-06	-2.033910e-09	-2.015526e+01	-1.358180e+02
1.200000e-06	-2.784192e-06	-2.028193e-09	-1.987737e+01	-1.353881e+02
1.210000e-06	-2.745080e-06	-2.023687e-09	-1.959813e+01	-1.349496e+02
1.220000e-06	-2.705871e-06	-2.023459e-09	-1.931821e+01	-1.345022e+02
1.230000e-06	-2.666479e-06	-2.017713e-09	-1.903697e+01	-1.340456e+02
1.240000e-06	-2.626913e-06	-2.007601e-09	-1.875449e+01	-1.335795e+02
1.250000e-06	-2.587123e-06	-1.993243e-09	-1.847042e+01	-1.331036e+02
1.260000e-06	-2.547162e-06	-1.981799e-09	-1.818513e+01	-1.326176e+02
1.270000e-06	-2.507163e-06	-1.971132e-09	-1.789956e+01	-1.321212e+02
1.280000e-06	-2.467132e-06	-1.960538e-09	-1.761376e+01	-1.316143e+02
1.290000e-06	-2.426939e-06	-1.951461e-09	-1.732681e+01	-1.310965e+02
1.300000e-06	-2.386595e-06	-1.944863e-09	-1.703878e+01	-1.305677e+02
1.310000e-06	-2.346152e-06	-1.938185e-09	-1.675004e+01	-1.300277e+02
1.320000e-06	-2.305437e-06	-1.928281e-09	-1.645936e+01	-1.294763e+02
1.330000e-06	-2.264506e-06	-1.917640e-09	-1.616714e+01	-1.289134e+02
1.340000e-06	-2.223537e-06	-1.908924e-09	-1.587465e+01	-1.283387e+02
1.350000e-06	-2.182335e-06	-1.900207e-09	-1.558049e+01	-1.277522e+02
1.360000e-06	-2.140795e-06	-1.888329e-09	-1.528392e+01	-1.271536e+02
1.370000e-06	-2.098963e-06	-1.875796e-09	-1.498527e+01	-1.265430e+02
1.380000e-06	-2.056914e-06	-1.864969e-09	-1.468506e+01	-1.259200e+02
1.390000e-06	-2.014550e-06	-1.857312e-09	-1.438261e+01	-1.252847e+02
1.400000e-06	-1.971782e-06	-1.847732e-09	-1.407727e+01	-1.246370e+02
1.410000e-06	-1.928760e-06	-1.838275e-09	-1.377013e+01	-1.239766e+02
1.420000e-06	-1.885573e-06	-1.828891e-09	-1.346180e+01	-1.233036e+02
1.430000e-06	-1.842236e-06	-1.818505e-09	-1.315240e+01	-1.226177e+02
1.440000e-06	-1.798773e-06	-1.802867e-09	-1.284210e+01	-1.219190e+02
1.450000e-06	-1.755223e-06	-1.786707e-09	-1.253118e+01	-1.212072e+02
1.460000e-06	-1.711583e-06	-1.771106e-09	-1.221962e+01	-1.204822e+02
1.470000e-06	-1.667838e-06	-1.758515e-09	-1.190731e+01	-1.197440e+02
1.480000e-06	-1.623967e-06	-1.746408e-09	-1.159409e+01	-1.189923e+02
1.490000e-06	-1.579974e-06	-1.738418e-09	-1.128002e+01	-1.182270e+02
1.500000e-06	-1.535911e-06	-1.733104e-09	-1.096543e+01	-1.174478e+02
1.510000e-06	-1.491832e-06	-1.724947e-09	-1.065073e+01	-1.166545e+02
1.520000e-06	-1.447740e-06	-1.710838e-09	-1.033595e+01	-1.158468e+02
1.530000e-06	-1.403595e-06	-1.694446e-09	-1.002078e+01	-1.150244e+02
1.540000e-06	-1.359376e-06	-1.675746e-09	-9.705081e+00	-1.141868e+02
1.550000e-06	-1.315089e-06	-1.656429e-09	-9.388905e+00	-1.133337e+02
1.560000e-06	-1.270749e-06	-1.641926e-09	-9.072345e+00	-1.124645e+02
1.570000e-06	-1.226371e-06	-1.633485e-09	-8.755516e+00	-1.115786e+02
1.580000e-06	-1.181993e-06	-1.627118e-09	-8.438680e+00	-1.106754e+02
1.590000e-06	-1.137490e-06	-1.619626e-09	-8.120962e+00	-1.097541e+02
1.600000e-06	-1.092786e-06	-1.607111e-09	-7.801801e+00	-1.088140e+02
1.610000e-06	-1.048029e-06	-1.588809e-09	-7.482261e+00	-1.078542e+02
1.620000e-06	-1.003262e-06	-1.567385e-09	-7.162653e+00	-1.068737e+02
1.630000e-06	-9.584228e-07	-1.546297e-09	-6.842532e+00	-1.058714e+02
1.640000e-06	-9.135300e-07	-1.528313e-09	-6.522026e+00	-1.048462e+02
1.650000e-06	-8.686126e-07	-1.516177e-09	-6.201344e+00	-1.037970e+02
1.660000e-06	-8.235305e-07	-1.507943e-09	-5.879486e+00	-1.027225e+02
1.670000e-06	-7.782830e-07	-1.497669e-09	-5.556448e+00	-1.016213e+02
1.680000e-06	-7.330289e-07	-1.481591e-09	-5.233363e+00	-1.004921e+02
1.690000e-06	-6.877819e-07	-1.458501e-09	-4.910328e+00	-9.933335e+01
1.700000e-06	-6.425196e-07	-1.432146e-09	-4.587183e+00	-9.814370e+01
1.710000e-06	-5.971918e-07	-1.405530e-09	-4.263571e+00	-9.692162e+01
1.720000e-06	-5.518313e-07	-1.383051e-09	-3.939726e+00	-9.566560e+01
1.730000e-06	-5.063948e-07	-1.363487e-09	-3.615338e+00	-9.437411e+01
1.740000e-06	-4.608145e-07	-1.346222e-09	-3.289924e+00	-9.304567e+01
1.750000e-06	-4.152559e-07	-1.332687e-09	-2.964664e+00	-9.167879e+01
1.760000e-06	-3.698028e-07	-1.320991e-09	-2.640158e+00	-9.027203e+01
1.770000e-06	-3.242754e-07	-1.301576e-09	-2.315121e+00	-8.882400e+01
1.780000e-06	-2.785776e-07	-1.271340e-09	-1.988867e+00	-8.733335e+01
1.790000e-06	-2.328276e-07	-1.236962e-09	-1.662242e+00	-8.579885e+01
1.800000e-06	-1.871332e-07	-1.206828e-09	-1.336013e+00	-8.421931e+01
1.810000e-06	-1.414876e-07	-1.181547e-09	-1.010132e+00	-8.259366e+01
1.820000e-06	-9.577096e-08	-1.159065e-09	-6.837440e-01	-8.092095e+01
1.830000e-06	-4.998778e-08	-1.138177e-09	-3.568811e-01	-7.920031e+01
1.840000e-06	-4.361960e-09	-1.117433e-09	-3.114163e-02	-7.743103e+01
1.850000e-06	4.118917e-08	-1.094218e-09	2.940646e-01	-7.561250e+01
1.860000e-06	8.681150e-08	-1.065776e-09	6.197792e-01	-7.374426e+01
1.870000e-06	1.323985e-07	-1.031226e-09	9.452415e-01	-7.182596e+01
1.880000e-06	1.779737e-07	-9.936783e-10	1.270620e+00	-6.985743e+01
1.890000e-06	2.235630e-07	-9.580359e-10	1.596098e+00	-6.783861e+01
1.900000e-06	2.691009e-07	-9.275153e-10	1.921210e+00	-6.576956e+01
1.910000e-06	3.146607e-07	-9.017271e-10	2.246478e+00	-6.365050e+01
1.920000e-06	3.602820e-07	-8.769316e-10	2.572186e+00	-6.148177e+01
1.930000e-06	4.058515e-07	-8.493575e-10	2.897523e+00	-5.926383e+01
1.940000e-06	4.513134e-07	-8.182996e-10	3.222092e+00	-5.699727e+01
1.950000e-06	4.966572e-07	-7.823539e-10	3.545818e+00	-5.468277e+01
1.960000e-06	5.419582e-07	-7.426416e-10	3.869239e+00	-5.232114e+01
1.970000e-06	5.873064e-07	-7.011278e-10	4.192996e+00	-4.991328e+01
1.980000e-06	6.325819e-07	-6.611458e-10	4.516235e+00	-4.746017e+01
1.990000e-06	6.777829e-07	-6.268519e-10	4.838941e+00	-4.496290e+01
2.000000e-06	7.229407e-07	-5.960496e-10	5.161339e+00	-4.242261e+01
2.010000e-06	7.680111e-07	-5.644205e-10	5.483113e+00	-3.984054e+01
2.020000e-06	8.130053e-07	-5.288238e-10	5.804344e+00	-3.721798e+01
2.030000e-06	8.579784e-07	-4.901121e-10	6.125423e+00	-3.455629e+01
2.040000e-06	9.030006e-07	-4.463901e-10	6.446853e+00	-3.185690e+01
2.050000e-06	9.479831e-07	-3.997183e-10	6.767999e+00	-2.912129e+01
2.060000e-06	9.928496e-07	-3.568280e-10	7.088318e+00	-2.635099e+01
2.070000e-06	1.037570e-06	-3.193137e-10	7.407595e+00	-2.354758e+01
2.080000e-06	1.082168e-06	-2.837127e-10	7.725992e+00	-2.071273e+01
2.090000e-06	1.126718e-06	-2.455984e-10	8.044052e+00	-1.784813e+01
2.100000e-06	1.171189e-06	-2.057602e-10	8.361550e+00	-1.495555e+01
2.110000e-06	1.215571e-06	-1.651387e-10	8.678410e+00	-1.203680e+01
2.120000e-06	1.259942e-06	-1.219100e-10	8.995189e+00	-9.093789e+00
2.130000e-06	1.304253e-06	-7.658187e-11	9.311541e+00	-6.128457e+00
2.140000e-06	1.348463e-06	-3.164475e-11	9.627172e+00	-3.142832e+00
2.150000e-06	1.392602e-06	1.207276e-11	9.942297e+00	-1.390120e-01
2.160000e-06	1.436699e-06	5.519022e-11	1.025712e+01	2.880831e+00
2.170000e-06	1.480783e-06	9.962442e-11	1.057185e+01	5.914447e+00
2.180000e-06	1.524855e-06	1.460281e-10	1.088650e+01	8.959509e+00
2.190000e-06	1.568862e-06	1.890013e-10	1.120068e+01	1.201361e+01
2.200000e-06	1.612789e-06	2.300751e-10	1.151429e+01	1.507427e+01
2.210000e-06	1.656644e-06	2.749176e-10	1.182739e+01	1.813892e+01
2.220000e-06	1.700424e-06	3.231913e-10	1.213995e+01	2.120494e+01
2.230000e-06	1.744115e-06	3.696488e-10	1.245188e+01	2.426963e+01
2.240000e-06	1.787648e-06	4.113477e-10	1.276267e+01	2.733024e+01
2.250000e-06	1.831025e-06	4.528229e-10	1.307236e+01	3.038396e+01
2.260000e-06	1.874267e-06	4.963643e-10	1.338108e+01	3.342794e+01
2.270000e-06	1.917316e-06	5.399839e-10	1.368842e+01	3.645930e+01
2.280000e-06	1.960135e-06	5.812903e-10	1.399412e+01	3.947516e+01
2.290000e-06	2.002693e-06	6.254878e-10	1.429796e+01	4.247260e+01
2.300000e-06	2.045019e-06	6.754084e-10	1.460014e+01	4.544876e+01
2.310000e-06	2.087240e-06	7.218836e-10	1.490157e+01	4.840075e+01
2.320000e-06	2.129209e-06	7.611265e-10	1.520121e+01	5.132578e+01
2.330000e-06	2.170729e-06	7.971647e-10	1.549763e+01	5.422109e+01
2.340000e-06	2.211873e-06	8.340276e-10	1.579137e+01	5.708400e+01
2.350000e-06	2.252767e-06	8.724086e-10	1.608333e+01	5.991193e+01
2.360000e-06	2.293575e-06	9.124831e-10	1.637467e+01	6.270240e+01
2.370000e-06	2.334255e-06	9.551208e-10	1.666510e+01	6.545307e+01
2.380000e-06	2.374734e-06	1.000735e-09	1.695410e+01	6.816172e+01
2.390000e-06	2.415015e-06	1.042740e-09	1.724168e+01	7.082632e+01
2.400000e-06	2.455134e-06	1.075711e-09	1.752810e+01	7.344496e+01
2.410000e-06	2.495196e-06	1.104071e-09	1.781412e+01	7.601592e+01
2.420000e-06	2.535193e-06	1.136537e-09	1.809967e+01	7.853769e+01
2.430000e-06	2.575088e-06	1.173927e-09	1.838450e+01	8.100890e+01
2.440000e-06	2.614883e-06	1.209946e-09	1.866861e+01	8.342840e+01
2.450000e-06	2.654526e-06	1.244195e-09	1.895163e+01	8.579524e+01
2.460000e-06	2.693955e-06	1.279909e-09	1.923313e+01	8.810863e+01
2.470000e-06	2.733178e-06	1.315121e-09	1.951316e+01	9.036801e+01
2.480000e-06	2.772218e-06	1.344760e-09	1.979188e+01	9.257298e+01
2.490000e-06	2.811086e-06	1.370097e-09	2.006938e+01	9.472331e+01
2.500000e-06	2.849797e-06	1.397852e-09	2.034575e+01	9.681897e+01
2.510000e-06	2.888289e-06	1.430250e-09	2.062055e+01	9.886006e+01
2.520000e-06	2.926513e-06	1.462327e-09	2.089345e+01	1.008468e+02
2.530000e-06	2.964577e-06	1.490959e-09	2.116520e+01	1.027797e+02
2.540000e-06	3.002475e-06	1.518304e-09	2.143577e+01	1.046592e+02
2.550000e-06	3.040150e-06	1.547585e-09	2.170475e+01	1.064858e+02
2.560000e-06	3.077670e-06	1.573514e-09	2.197261e+01	1.082605e+02
2.570000e-06	3.115031e-06	1.592782e-09	2.223935e+01	1.099838e+02
2.580000e-06	3.152092e-06	1.610836e-09	2.250394e+01	1.116567e+02
2.590000e-06	3.188841e-06	1.634250e-09	2.276630e+01	1.132801e+02
2.600000e-06	3.225320e-06	1.661394e-09	2.302675e+01	1.148550e+02
2.610000e-06	3.261583e-06	1.685499e-09	2.328564e+01	1.163822e+02
2.620000e-06	3.297733e-06	1.705723e-09	2.354373e+01	1.178628e+02
2.630000e-06	3.333775e-06	1.726097e-09	2.380105e+01	1.192978e+02
2.640000e-06	3.369698e-06	1.746362e-09	2.405751e+01	1.206882e+02
2.650000e-06	3.405498e-06	1.762323e-09	2.431310e+01	1.220349e+02
2.660000e-06	3.441140e-06	1.774482e-09	2.456756e+01	1.233390e+02
2.670000e-06	3.476607e-06	1.788731e-09	2.482077e+01	1.246013e+02
2.680000e-06	3.511780e-06	1.808589e-09	2.507189e+01	1.258228e+02
2.690000e-06	3.546491e-06	1.828477e-09	2.531970e+01	1.270044e+02
2.700000e-06	3.580750e-06	1.845881e-09	2.556429e+01	1.281471e+02
2.710000e-06	3.614614e-06	1.865190e-09	2.580606e+01	1.292517e+02
2.720000e-06	3.647972e-06	1.886709e-09	2.604421e+01	1.303190e+02
2.730000e-06	3.680880e-06	1.903973e-09	2.627916e+01	1.313500e+02
2.740000e-06	3.713514e-06	1.913514e-09	2.651214e+01	1.323454e+02
2.750000e-06	3.745899e-06	1.921152e-09	2.674335e+01	1.333063e+02
2.760000e-06	3.778120e-06	1.930745e-09	2.697339e+01	1.342333e+02
2.770000e-06	3.810201e-06	1.940285e-09	2.720242e+01	1.351274e+02
2.780000e-06	3.842100e-06	1.948116e-09	2.743016e+01	1.359895e+02
2.790000e-06	3.873779e-06	1.958156e-09	2.765633e+01	1.368204e+02
2.800000e-06	3.905251e-06	1.975848e-09	2.788102e+01	1.376211e+02
2.810000e-06	3.936444e-06	1.996875e-09	2.810372e+01	1.383925e+02
2.820000e-06	3.967247e-06	2.009790e-09	2.832363e+01	1.391356e+02
2.830000e-06	3.997782e-06	2.013990e-09	2.854163e+01	1.398514e+02
2.840000e-06	4.028126e-06	2.021319e-09	2.875827e+01	1.405408e+02
2.850000e-06	4.058200e-06	2.032256e-09	2.897298e+01	1.412049e+02
2.860000e-06	4.087975e-06	2.039956e-09	2.918556e+01	1.418447e+02
2.870000e-06	4.117466e-06	2.044176e-09	2.939610e+01	1.424613e+02
2.880000e-06	4.146718e-06	2.051213e-09	2.960494e+01	1.430556e+02
2.890000e-06	4.175710e-06	2.063764e-09	2.981193e+01	1.436288e+02
2.900000e-06	4.204386e-06	2.075559e-09	3.001665e+01	1.441818e+02
