# Temperatura_=_19.59
# Concentracion g/m^3_=_4090.0
# C_Vs_to_Am_M_A/Vsm_=_65563218390.804596
# pendiente_HvsI_1/m_=_3716.3
# ordenada_HvsI_A/m_=_1297.0
# frecuencia_Hz_=_135078.43331059263

Tiempo_(s)	Campo_(V.s)	Magnetizacion_(V.s)	Campo_(kA/m)	Magnetizacion_(A/m)
0.000000e+00	-5.403717e-06	-2.313989e-09	-3.838385e+01	-1.515167e+02
1.000000e-08	-5.403936e-06	-2.315408e-09	-3.838541e+01	-1.513629e+02
2.000000e-08	-5.403959e-06	-2.316609e-09	-3.838558e+01	-1.512114e+02
3.000000e-08	-5.403690e-06	-2.312591e-09	-3.838367e+01	-1.510646e+02
4.000000e-08	-5.403002e-06	-2.306670e-09	-3.837878e+01	-1.509249e+02
5.000000e-08	-5.401655e-06	-2.304543e-09	-3.836921e+01	-1.507946e+02
6.000000e-08	-5.399575e-06	-2.303114e-09	-3.835444e+01	-1.506760e+02
7.000000e-08	-5.396845e-06	-2.302352e-09	-3.833504e+01	-1.505710e+02
8.000000e-08	-5.393533e-06	-2.314771e-09	-3.831152e+01	-1.504816e+02
9.000000e-08	-5.389763e-06	-2.330855e-09	-3.828474e+01	-1.504093e+02
1.000000e-07	-5.385640e-06	-2.316614e-09	-3.825546e+01	-1.503555e+02
1.100000e-07	-5.381363e-06	-2.310690e-09	-3.822507e+01	-1.503212e+02
1.200000e-07	-5.376984e-06	-2.302523e-09	-3.819396e+01	-1.503072e+02
1.300000e-07	-5.372175e-06	-2.345734e-09	-3.815981e+01	-1.503138e+02
1.400000e-07	-5.366842e-06	-2.303596e-09	-3.812192e+01	-1.503409e+02
1.500000e-07	-5.361301e-06	-2.278499e-09	-3.808257e+01	-1.503883e+02
1.600000e-07	-5.355541e-06	-2.278048e-09	-3.804165e+01	-1.504551e+02
1.700000e-07	-5.349233e-06	-2.312539e-09	-3.799684e+01	-1.505404e+02
1.800000e-07	-5.342440e-06	-2.328074e-09	-3.794859e+01	-1.506425e+02
1.900000e-07	-5.335354e-06	-2.289550e-09	-3.789826e+01	-1.507598e+02
2.000000e-07	-5.328016e-06	-2.337756e-09	-3.784614e+01	-1.508902e+02
2.100000e-07	-5.320353e-06	-2.341777e-09	-3.779170e+01	-1.510315e+02
2.200000e-07	-5.312383e-06	-2.366022e-09	-3.773509e+01	-1.511810e+02
2.300000e-07	-5.304277e-06	-2.347266e-09	-3.767751e+01	-1.513360e+02
2.400000e-07	-5.295843e-06	-2.407824e-09	-3.761761e+01	-1.514938e+02
2.500000e-07	-5.286561e-06	-2.389975e-09	-3.755167e+01	-1.516514e+02
2.600000e-07	-5.276654e-06	-2.385032e-09	-3.748130e+01	-1.518059e+02
2.700000e-07	-5.266240e-06	-2.387018e-09	-3.740733e+01	-1.519544e+02
2.800000e-07	-5.255288e-06	-2.417382e-09	-3.732953e+01	-1.520939e+02
2.900000e-07	-5.243899e-06	-2.374405e-09	-3.724863e+01	-1.522219e+02
3.000000e-07	-5.232147e-06	-2.360829e-09	-3.716516e+01	-1.523356e+02
3.100000e-07	-5.219979e-06	-2.390192e-09	-3.707872e+01	-1.524329e+02
3.200000e-07	-5.207296e-06	-2.397699e-09	-3.698863e+01	-1.525116e+02
3.300000e-07	-5.194298e-06	-2.356271e-09	-3.689631e+01	-1.525698e+02
3.400000e-07	-5.181011e-06	-2.339159e-09	-3.680193e+01	-1.526062e+02
3.500000e-07	-5.167407e-06	-2.368904e-09	-3.670529e+01	-1.526194e+02
3.600000e-07	-5.153383e-06	-2.365058e-09	-3.660568e+01	-1.526088e+02
3.700000e-07	-5.138962e-06	-2.343222e-09	-3.650324e+01	-1.525739e+02
3.800000e-07	-5.123907e-06	-2.326193e-09	-3.639630e+01	-1.525145e+02
3.900000e-07	-5.108134e-06	-2.339143e-09	-3.628426e+01	-1.524309e+02
4.000000e-07	-5.092033e-06	-2.341206e-09	-3.616990e+01	-1.523236e+02
4.100000e-07	-5.075673e-06	-2.341922e-09	-3.605368e+01	-1.521937e+02
4.200000e-07	-5.058893e-06	-2.311740e-09	-3.593450e+01	-1.520421e+02
4.300000e-07	-5.041768e-06	-2.309455e-09	-3.581285e+01	-1.518705e+02
4.400000e-07	-5.024388e-06	-2.313690e-09	-3.568940e+01	-1.516804e+02
4.500000e-07	-5.006661e-06	-2.335859e-09	-3.556348e+01	-1.514737e+02
4.600000e-07	-4.988440e-06	-2.306083e-09	-3.543405e+01	-1.512524e+02
4.700000e-07	-4.969751e-06	-2.305621e-09	-3.530129e+01	-1.510186e+02
4.800000e-07	-4.950733e-06	-2.306309e-09	-3.516621e+01	-1.507745e+02
4.900000e-07	-4.931442e-06	-2.322456e-09	-3.502918e+01	-1.505222e+02
5.000000e-07	-4.911919e-06	-2.294634e-09	-3.489050e+01	-1.502638e+02
5.100000e-07	-4.892220e-06	-2.294713e-09	-3.475058e+01	-1.500014e+02
5.200000e-07	-4.872324e-06	-2.293144e-09	-3.460925e+01	-1.497370e+02
5.300000e-07	-4.852147e-06	-2.312920e-09	-3.446593e+01	-1.494723e+02
5.400000e-07	-4.831574e-06	-2.301725e-09	-3.431979e+01	-1.492089e+02
5.500000e-07	-4.810590e-06	-2.292640e-09	-3.417074e+01	-1.489483e+02
5.600000e-07	-4.789254e-06	-2.272625e-09	-3.401918e+01	-1.486916e+02
5.700000e-07	-4.767672e-06	-2.280244e-09	-3.386588e+01	-1.484397e+02
5.800000e-07	-4.745837e-06	-2.278177e-09	-3.371078e+01	-1.481933e+02
5.900000e-07	-4.723658e-06	-2.272982e-09	-3.355324e+01	-1.479528e+02
6.000000e-07	-4.700987e-06	-2.264310e-09	-3.339221e+01	-1.477184e+02
6.100000e-07	-4.677911e-06	-2.274308e-09	-3.322829e+01	-1.474899e+02
6.200000e-07	-4.654592e-06	-2.277236e-09	-3.306265e+01	-1.472671e+02
6.300000e-07	-4.631081e-06	-2.267833e-09	-3.289564e+01	-1.470493e+02
6.400000e-07	-4.607399e-06	-2.256725e-09	-3.272743e+01	-1.468359e+02
6.500000e-07	-4.583487e-06	-2.250471e-09	-3.255757e+01	-1.466259e+02
6.600000e-07	-4.559346e-06	-2.250842e-09	-3.238610e+01	-1.464183e+02
6.700000e-07	-4.534870e-06	-2.245026e-09	-3.221224e+01	-1.462118e+02
6.800000e-07	-4.509912e-06	-2.240813e-09	-3.203495e+01	-1.460053e+02
6.900000e-07	-4.484450e-06	-2.235264e-09	-3.185409e+01	-1.457975e+02
7.000000e-07	-4.458435e-06	-2.245314e-09	-3.166930e+01	-1.455870e+02
7.100000e-07	-4.431935e-06	-2.242818e-09	-3.148106e+01	-1.453725e+02
7.200000e-07	-4.404946e-06	-2.236664e-09	-3.128936e+01	-1.451530e+02
7.300000e-07	-4.377574e-06	-2.220718e-09	-3.109493e+01	-1.449272e+02
7.400000e-07	-4.350077e-06	-2.221980e-09	-3.089961e+01	-1.446940e+02
7.500000e-07	-4.322350e-06	-2.214460e-09	-3.070266e+01	-1.444527e+02
7.600000e-07	-4.294396e-06	-2.212608e-09	-3.050409e+01	-1.442023e+02
7.700000e-07	-4.266306e-06	-2.200473e-09	-3.030456e+01	-1.439425e+02
7.800000e-07	-4.237962e-06	-2.202663e-09	-3.010323e+01	-1.436727e+02
7.900000e-07	-4.209256e-06	-2.196191e-09	-2.989932e+01	-1.433926e+02
8.000000e-07	-4.180217e-06	-2.191820e-09	-2.969305e+01	-1.431023e+02
8.100000e-07	-4.150863e-06	-2.175634e-09	-2.948454e+01	-1.428019e+02
8.200000e-07	-4.121254e-06	-2.173585e-09	-2.927423e+01	-1.424915e+02
8.300000e-07	-4.091392e-06	-2.170147e-09	-2.906211e+01	-1.421718e+02
8.400000e-07	-4.061187e-06	-2.169768e-09	-2.884755e+01	-1.418431e+02
8.500000e-07	-4.030672e-06	-2.160491e-09	-2.863080e+01	-1.415063e+02
8.600000e-07	-3.999903e-06	-2.155141e-09	-2.841224e+01	-1.411620e+02
8.700000e-07	-3.968845e-06	-2.148104e-09	-2.819163e+01	-1.408111e+02
8.800000e-07	-3.937573e-06	-2.141876e-09	-2.796950e+01	-1.404546e+02
8.900000e-07	-3.906154e-06	-2.129189e-09	-2.774632e+01	-1.400934e+02
9.000000e-07	-3.874561e-06	-2.123249e-09	-2.752191e+01	-1.397283e+02
9.100000e-07	-3.842815e-06	-2.120601e-09	-2.729641e+01	-1.393602e+02
9.200000e-07	-3.810886e-06	-2.116803e-09	-2.706961e+01	-1.389901e+02
9.300000e-07	-3.778629e-06	-2.106457e-09	-2.684048e+01	-1.386186e+02
9.400000e-07	-3.746044e-06	-2.094522e-09	-2.660902e+01	-1.382465e+02
9.500000e-07	-3.713134e-06	-2.088568e-09	-2.637526e+01	-1.378743e+02
9.600000e-07	-3.679850e-06	-2.084484e-09	-2.613883e+01	-1.375025e+02
9.700000e-07	-3.646118e-06	-2.081318e-09	-2.589923e+01	-1.371314e+02
9.800000e-07	-3.611861e-06	-2.072251e-09	-2.565589e+01	-1.367611e+02
9.900000e-07	-3.577292e-06	-2.064481e-09	-2.541034e+01	-1.363918e+02
1.000000e-06	-3.542500e-06	-2.057319e-09	-2.516320e+01	-1.360233e+02
1.010000e-06	-3.507386e-06	-2.052925e-09	-2.491377e+01	-1.356554e+02
1.020000e-06	-3.471970e-06	-2.038437e-09	-2.466221e+01	-1.352878e+02
1.030000e-06	-3.436368e-06	-2.027985e-09	-2.440932e+01	-1.349199e+02
1.040000e-06	-3.400611e-06	-2.023024e-09	-2.415533e+01	-1.345513e+02
1.050000e-06	-3.364715e-06	-2.025061e-09	-2.390035e+01	-1.341812e+02
1.060000e-06	-3.328632e-06	-2.017172e-09	-2.364405e+01	-1.338089e+02
1.070000e-06	-3.292392e-06	-2.007999e-09	-2.338663e+01	-1.334337e+02
1.080000e-06	-3.255937e-06	-1.995405e-09	-2.312768e+01	-1.330547e+02
1.090000e-06	-3.219187e-06	-1.988108e-09	-2.286663e+01	-1.326712e+02
1.100000e-06	-3.182177e-06	-1.978747e-09	-2.260374e+01	-1.322822e+02
1.110000e-06	-3.144930e-06	-1.972533e-09	-2.233917e+01	-1.318871e+02
1.120000e-06	-3.107534e-06	-1.965641e-09	-2.207353e+01	-1.314850e+02
1.130000e-06	-3.069968e-06	-1.963562e-09	-2.180669e+01	-1.310752e+02
1.140000e-06	-3.032172e-06	-1.957837e-09	-2.153822e+01	-1.306573e+02
1.150000e-06	-2.994100e-06	-1.950158e-09	-2.126779e+01	-1.302305e+02
1.160000e-06	-2.955862e-06	-1.939406e-09	-2.099618e+01	-1.297945e+02
1.170000e-06	-2.917498e-06	-1.933012e-09	-2.072367e+01	-1.293489e+02
1.180000e-06	-2.878959e-06	-1.924760e-09	-2.044992e+01	-1.288934e+02
1.190000e-06	-2.840186e-06	-1.915647e-09	-2.017450e+01	-1.284279e+02
1.200000e-06	-2.801087e-06	-1.905332e-09	-1.989677e+01	-1.279523e+02
1.210000e-06	-2.761723e-06	-1.896888e-09	-1.961716e+01	-1.274666e+02
1.220000e-06	-2.722276e-06	-1.888661e-09	-1.933696e+01	-1.269710e+02
1.230000e-06	-2.682687e-06	-1.880342e-09	-1.905575e+01	-1.264656e+02
1.240000e-06	-2.642970e-06	-1.873277e-09	-1.877363e+01	-1.259506e+02
1.250000e-06	-2.603234e-06	-1.867596e-09	-1.849137e+01	-1.254263e+02
1.260000e-06	-2.563426e-06	-1.864240e-09	-1.820861e+01	-1.248930e+02
1.270000e-06	-2.523479e-06	-1.854213e-09	-1.792486e+01	-1.243510e+02
1.280000e-06	-2.483278e-06	-1.840739e-09	-1.763930e+01	-1.238006e+02
1.290000e-06	-2.442935e-06	-1.828393e-09	-1.735274e+01	-1.232421e+02
1.300000e-06	-2.402523e-06	-1.819069e-09	-1.706568e+01	-1.226757e+02
1.310000e-06	-2.361900e-06	-1.807139e-09	-1.677712e+01	-1.221018e+02
1.320000e-06	-2.321035e-06	-1.797076e-09	-1.648685e+01	-1.215204e+02
1.330000e-06	-2.279951e-06	-1.791156e-09	-1.619502e+01	-1.209315e+02
1.340000e-06	-2.238441e-06	-1.790770e-09	-1.590017e+01	-1.203353e+02
1.350000e-06	-2.196466e-06	-1.783706e-09	-1.560201e+01	-1.197316e+02
1.360000e-06	-2.154271e-06	-1.770837e-09	-1.530229e+01	-1.191203e+02
1.370000e-06	-2.111868e-06	-1.754857e-09	-1.500109e+01	-1.185011e+02
1.380000e-06	-2.069196e-06	-1.741123e-09	-1.469798e+01	-1.178737e+02
1.390000e-06	-2.026233e-06	-1.727037e-09	-1.439281e+01	-1.172375e+02
1.400000e-06	-1.983090e-06	-1.718164e-09	-1.408635e+01	-1.165922e+02
1.410000e-06	-1.939831e-06	-1.712304e-09	-1.377907e+01	-1.159370e+02
1.420000e-06	-1.896425e-06	-1.707309e-09	-1.347075e+01	-1.152714e+02
1.430000e-06	-1.852953e-06	-1.697334e-09	-1.316196e+01	-1.145945e+02
1.440000e-06	-1.809418e-06	-1.680819e-09	-1.285272e+01	-1.139056e+02
1.450000e-06	-1.765778e-06	-1.663151e-09	-1.254273e+01	-1.132039e+02
1.460000e-06	-1.722060e-06	-1.649792e-09	-1.223219e+01	-1.124886e+02
1.470000e-06	-1.678263e-06	-1.636417e-09	-1.192110e+01	-1.117586e+02
1.480000e-06	-1.634407e-06	-1.623293e-09	-1.160958e+01	-1.110133e+02
1.490000e-06	-1.590507e-06	-1.612417e-09	-1.129774e+01	-1.102517e+02
1.500000e-06	-1.546506e-06	-1.603004e-09	-1.098519e+01	-1.094729e+02
1.510000e-06	-1.502419e-06	-1.591368e-09	-1.067203e+01	-1.086762e+02
1.520000e-06	-1.458266e-06	-1.574953e-09	-1.035840e+01	-1.078607e+02
1.530000e-06	-1.414015e-06	-1.558522e-09	-1.004407e+01	-1.070256e+02
1.540000e-06	-1.369706e-06	-1.546439e-09	-9.729340e+00	-1.061703e+02
1.550000e-06	-1.325362e-06	-1.536451e-09	-9.414352e+00	-1.052939e+02
1.560000e-06	-1.280875e-06	-1.524602e-09	-9.098354e+00	-1.043958e+02
1.570000e-06	-1.236336e-06	-1.508933e-09	-8.781979e+00	-1.034754e+02
1.580000e-06	-1.191706e-06	-1.492266e-09	-8.464965e+00	-1.025320e+02
1.590000e-06	-1.146890e-06	-1.477642e-09	-8.146626e+00	-1.015650e+02
1.600000e-06	-1.102036e-06	-1.460869e-09	-7.828017e+00	-1.005738e+02
1.610000e-06	-1.057080e-06	-1.440438e-09	-7.508683e+00	-9.955788e+01
1.620000e-06	-1.012032e-06	-1.422286e-09	-7.188696e+00	-9.851651e+01
1.630000e-06	-9.669411e-07	-1.409131e-09	-6.868408e+00	-9.744908e+01
1.640000e-06	-9.217263e-07	-1.394243e-09	-6.547236e+00	-9.635492e+01
1.650000e-06	-8.764383e-07	-1.376132e-09	-6.225545e+00	-9.523330e+01
1.660000e-06	-8.310230e-07	-1.356175e-09	-5.902949e+00	-9.408347e+01
1.670000e-06	-7.855070e-07	-1.337383e-09	-5.579639e+00	-9.290458e+01
1.680000e-06	-7.400498e-07	-1.314901e-09	-5.256746e+00	-9.169574e+01
1.690000e-06	-6.945264e-07	-1.289169e-09	-4.933382e+00	-9.045598e+01
1.700000e-06	-6.489472e-07	-1.266381e-09	-4.609623e+00	-8.918424e+01
1.710000e-06	-6.033613e-07	-1.249401e-09	-4.285815e+00	-8.787940e+01
1.720000e-06	-5.577274e-07	-1.235648e-09	-3.961667e+00	-8.654026e+01
1.730000e-06	-5.120379e-07	-1.218480e-09	-3.637124e+00	-8.516555e+01
1.740000e-06	-4.662944e-07	-1.196724e-09	-3.312198e+00	-8.375394e+01
1.750000e-06	-4.205246e-07	-1.174988e-09	-2.987084e+00	-8.230404e+01
1.760000e-06	-3.747499e-07	-1.151346e-09	-2.661936e+00	-8.081442e+01
1.770000e-06	-3.289945e-07	-1.123052e-09	-2.336925e+00	-7.928362e+01
1.780000e-06	-2.832509e-07	-1.091365e-09	-2.011997e+00	-7.771018e+01
1.790000e-06	-2.375036e-07	-1.065627e-09	-1.687043e+00	-7.609263e+01
1.800000e-06	-1.916448e-07	-1.046180e-09	-1.361298e+00	-7.442954e+01
1.810000e-06	-1.456837e-07	-1.026593e-09	-1.034825e+00	-7.271953e+01
1.820000e-06	-9.981053e-08	-1.002264e-09	-7.089774e-01	-7.096128e+01
1.830000e-06	-5.398292e-08	-9.758216e-10	-3.834532e-01	-6.915356e+01
1.840000e-06	-8.070805e-09	-9.493872e-10	-5.732881e-02	-6.729526e+01
1.850000e-06	3.784061e-08	-9.199362e-10	2.687906e-01	-6.538541e+01
1.860000e-06	8.368205e-08	-8.866447e-10	5.944130e-01	-6.342318e+01
1.870000e-06	1.295033e-07	-8.548219e-10	9.198924e-01	-6.140793e+01
1.880000e-06	1.753327e-07	-8.270342e-10	1.245429e+00	-5.933918e+01
1.890000e-06	2.210791e-07	-7.977907e-10	1.570377e+00	-5.721669e+01
1.900000e-06	2.667628e-07	-7.627749e-10	1.894878e+00	-5.504041e+01
1.910000e-06	3.124991e-07	-7.257204e-10	2.219754e+00	-5.281053e+01
1.920000e-06	3.582603e-07	-6.913797e-10	2.544806e+00	-5.052746e+01
1.930000e-06	4.040741e-07	-6.597361e-10	2.870232e+00	-4.819186e+01
1.940000e-06	4.498536e-07	-6.284586e-10	3.195415e+00	-4.580461e+01
1.950000e-06	4.954907e-07	-5.940248e-10	3.519586e+00	-4.336682e+01
1.960000e-06	5.410848e-07	-5.583067e-10	3.843451e+00	-4.087985e+01
1.970000e-06	5.866502e-07	-5.220764e-10	4.167113e+00	-3.834524e+01
1.980000e-06	6.322538e-07	-4.838487e-10	4.491046e+00	-3.576477e+01
1.990000e-06	6.778553e-07	-4.424703e-10	4.814964e+00	-3.314038e+01
2.000000e-06	7.233229e-07	-4.015052e-10	5.137931e+00	-3.047421e+01
2.010000e-06	7.687270e-07	-3.651401e-10	5.460447e+00	-2.776854e+01
2.020000e-06	8.141118e-07	-3.312648e-10	5.782826e+00	-2.502579e+01
2.030000e-06	8.594557e-07	-2.951763e-10	6.104914e+00	-2.224851e+01
2.040000e-06	9.048043e-07	-2.558397e-10	6.427036e+00	-1.943932e+01
2.050000e-06	9.500887e-07	-2.132133e-10	6.748701e+00	-1.660093e+01
2.060000e-06	9.952238e-07	-1.684221e-10	7.069306e+00	-1.373612e+01
2.070000e-06	1.040225e-06	-1.226885e-10	7.388960e+00	-1.084768e+01
2.080000e-06	1.085084e-06	-7.891633e-11	7.707602e+00	-7.938421e+00
2.090000e-06	1.129819e-06	-3.575232e-11	8.025367e+00	-5.011166e+00
2.100000e-06	1.174489e-06	6.410893e-12	8.342669e+00	-2.068708e+00
2.110000e-06	1.219064e-06	4.576608e-11	8.659295e+00	8.861882e-01
2.120000e-06	1.263524e-06	8.320532e-11	8.975103e+00	3.850799e+00
2.130000e-06	1.307952e-06	1.226447e-10	9.290687e+00	6.822455e+00
2.140000e-06	1.352319e-06	1.681261e-10	9.605833e+00	9.798546e+00
2.150000e-06	1.396503e-06	2.177262e-10	9.919682e+00	1.277653e+01
2.160000e-06	1.440656e-06	2.652828e-10	1.023331e+01	1.575393e+01
2.170000e-06	1.484743e-06	3.096366e-10	1.054647e+01	1.872833e+01
2.180000e-06	1.528723e-06	3.539729e-10	1.085888e+01	2.169741e+01
2.190000e-06	1.572658e-06	3.956362e-10	1.117095e+01	2.465889e+01
2.200000e-06	1.616487e-06	4.322724e-10	1.148228e+01	2.761055e+01
2.210000e-06	1.660317e-06	4.692860e-10	1.179361e+01	3.055027e+01
2.220000e-06	1.704118e-06	5.123325e-10	1.210475e+01	3.347593e+01
2.230000e-06	1.747863e-06	5.604357e-10	1.241548e+01	3.638548e+01
2.240000e-06	1.791562e-06	6.090326e-10	1.272588e+01	3.927693e+01
2.250000e-06	1.835197e-06	6.528029e-10	1.303583e+01	4.214829e+01
2.260000e-06	1.878742e-06	6.928377e-10	1.334514e+01	4.499763e+01
2.270000e-06	1.922231e-06	7.322301e-10	1.365405e+01	4.782303e+01
2.280000e-06	1.965575e-06	7.702960e-10	1.396194e+01	5.062261e+01
2.290000e-06	2.008618e-06	8.070749e-10	1.426768e+01	5.339449e+01
2.300000e-06	2.051515e-06	8.448626e-10	1.457239e+01	5.613682e+01
2.310000e-06	2.094320e-06	8.844419e-10	1.487644e+01	5.884779e+01
2.320000e-06	2.136771e-06	9.263306e-10	1.517798e+01	6.152560e+01
2.330000e-06	2.178896e-06	9.670310e-10	1.547721e+01	6.416846e+01
2.340000e-06	2.220817e-06	1.002883e-09	1.577498e+01	6.677466e+01
2.350000e-06	2.262355e-06	1.035921e-09	1.607003e+01	6.934249e+01
2.360000e-06	2.303581e-06	1.070717e-09	1.636287e+01	7.187032e+01
2.370000e-06	2.344569e-06	1.105646e-09	1.665402e+01	7.435657e+01
2.380000e-06	2.385298e-06	1.139483e-09	1.694332e+01	7.679974e+01
2.390000e-06	2.425798e-06	1.173448e-09	1.723101e+01	7.919838e+01
2.400000e-06	2.466112e-06	1.207225e-09	1.751737e+01	8.155118e+01
2.410000e-06	2.506289e-06	1.239904e-09	1.780276e+01	8.385691e+01
2.420000e-06	2.546286e-06	1.270284e-09	1.808686e+01	8.611444e+01
2.430000e-06	2.586199e-06	1.300379e-09	1.837038e+01	8.832279e+01
2.440000e-06	2.626047e-06	1.330442e-09	1.865342e+01	9.048110e+01
2.450000e-06	2.665749e-06	1.360133e-09	1.893544e+01	9.258867e+01
2.460000e-06	2.705352e-06	1.389213e-09	1.921674e+01	9.464492e+01
2.470000e-06	2.744867e-06	1.416606e-09	1.949743e+01	9.664943e+01
2.480000e-06	2.784266e-06	1.443986e-09	1.977729e+01	9.860195e+01
2.490000e-06	2.823457e-06	1.470361e-09	2.005567e+01	1.005024e+02
2.500000e-06	2.862356e-06	1.495041e-09	2.033198e+01	1.023507e+02
2.510000e-06	2.901026e-06	1.520521e-09	2.060666e+01	1.041473e+02
2.520000e-06	2.939392e-06	1.546576e-09	2.087919e+01	1.058923e+02
2.530000e-06	2.977530e-06	1.571412e-09	2.115009e+01	1.075862e+02
2.540000e-06	3.015508e-06	1.594151e-09	2.141986e+01	1.092297e+02
2.550000e-06	3.053276e-06	1.617119e-09	2.168813e+01	1.108235e+02
2.560000e-06	3.090919e-06	1.640320e-09	2.195551e+01	1.123684e+02
2.570000e-06	3.128454e-06	1.662421e-09	2.222214e+01	1.138653e+02
2.580000e-06	3.165730e-06	1.682396e-09	2.248692e+01	1.153152e+02
2.590000e-06	3.202705e-06	1.698874e-09	2.274956e+01	1.167191e+02
2.600000e-06	3.239460e-06	1.715670e-09	2.301064e+01	1.180781e+02
2.610000e-06	3.275930e-06	1.734945e-09	2.326969e+01	1.193934e+02
2.620000e-06	3.312182e-06	1.753306e-09	2.352720e+01	1.206660e+02
2.630000e-06	3.348233e-06	1.769564e-09	2.378328e+01	1.218971e+02
2.640000e-06	3.384119e-06	1.785780e-09	2.403818e+01	1.230879e+02
2.650000e-06	3.419930e-06	1.802966e-09	2.429256e+01	1.242393e+02
2.660000e-06	3.455660e-06	1.818112e-09	2.454636e+01	1.253525e+02
2.670000e-06	3.491299e-06	1.831395e-09	2.479951e+01	1.264286e+02
2.680000e-06	3.526742e-06	1.846334e-09	2.505126e+01	1.274684e+02
2.690000e-06	3.561881e-06	1.861231e-09	2.530087e+01	1.284730e+02
2.700000e-06	3.596674e-06	1.874488e-09	2.554801e+01	1.294432e+02
2.710000e-06	3.631117e-06	1.887814e-09	2.579267e+01	1.303800e+02
2.720000e-06	3.665120e-06	1.902859e-09	2.603420e+01	1.312840e+02
2.730000e-06	3.698603e-06	1.919032e-09	2.627203e+01	1.321560e+02
2.740000e-06	3.731621e-06	1.933061e-09	2.650657e+01	1.329969e+02
2.750000e-06	3.764191e-06	1.943970e-09	2.673792e+01	1.338072e+02
2.760000e-06	3.796409e-06	1.954365e-09	2.696677e+01	1.345876e+02
2.770000e-06	3.828418e-06	1.964226e-09	2.719414e+01	1.353389e+02
2.780000e-06	3.860335e-06	1.973191e-09	2.742086e+01	1.360615e+02
2.790000e-06	3.892101e-06	1.982168e-09	2.764650e+01	1.367564e+02
2.800000e-06	3.923693e-06	1.992058e-09	2.787090e+01	1.374240e+02
2.810000e-06	3.955242e-06	2.003898e-09	2.809500e+01	1.380651e+02
2.820000e-06	3.986514e-06	2.014650e-09	2.831714e+01	1.386804e+02
2.830000e-06	4.017262e-06	2.023313e-09	2.853555e+01	1.392707e+02
2.840000e-06	4.047655e-06	2.029989e-09	2.875143e+01	1.398368e+02
2.850000e-06	4.077846e-06	2.037647e-09	2.896589e+01	1.403795e+02
2.860000e-06	4.107816e-06	2.048374e-09	2.917877e+01	1.408996e+02
2.870000e-06	4.137513e-06	2.055889e-09	2.938972e+01	1.413982e+02
2.880000e-06	4.166946e-06	2.059409e-09	2.959879e+01	1.418762e+02
2.890000e-06	4.196141e-06	2.065863e-09	2.980616e+01	1.423344e+02
2.900000e-06	4.224950e-06	2.074915e-09	3.001080e+01	1.427741e+02
