# Temperatura_=_-1.5
# Concentracion g/m^3_=_4090.0
# C_Vs_to_Am_M_A/Vsm_=_65563218390.804596
# pendiente_HvsI_1/m_=_3716.3
# ordenada_HvsI_A/m_=_1297.0
# frecuencia_Hz_=_135066.10923226434

Tiempo_(s)	Campo_(V.s)	Magnetizacion_(V.s)	Campo_(kA/m)	Magnetizacion_(A/m)
0.000000e+00	-5.430465e-06	-2.404081e-09	-3.840587e+01	-1.566176e+02
1.000000e-08	-5.430543e-06	-2.400918e-09	-3.840642e+01	-1.565073e+02
2.000000e-08	-5.430397e-06	-2.402404e-09	-3.840539e+01	-1.563976e+02
3.000000e-08	-5.429945e-06	-2.402483e-09	-3.840219e+01	-1.562905e+02
4.000000e-08	-5.429191e-06	-2.399890e-09	-3.839686e+01	-1.561879e+02
5.000000e-08	-5.428117e-06	-2.401180e-09	-3.838926e+01	-1.560916e+02
6.000000e-08	-5.426547e-06	-2.410458e-09	-3.837816e+01	-1.560033e+02
7.000000e-08	-5.424250e-06	-2.406030e-09	-3.836192e+01	-1.559246e+02
8.000000e-08	-5.421178e-06	-2.380742e-09	-3.834019e+01	-1.558569e+02
9.000000e-08	-5.417515e-06	-2.374013e-09	-3.831428e+01	-1.558015e+02
1.000000e-07	-5.413417e-06	-2.428728e-09	-3.828530e+01	-1.557594e+02
1.100000e-07	-5.409077e-06	-2.459968e-09	-3.825461e+01	-1.557312e+02
1.200000e-07	-5.404639e-06	-2.409482e-09	-3.822322e+01	-1.557176e+02
1.300000e-07	-5.399971e-06	-2.335262e-09	-3.819020e+01	-1.557188e+02
1.400000e-07	-5.394852e-06	-2.404401e-09	-3.815401e+01	-1.557347e+02
1.500000e-07	-5.389266e-06	-2.448704e-09	-3.811449e+01	-1.557649e+02
1.600000e-07	-5.383366e-06	-2.392321e-09	-3.807277e+01	-1.558090e+02
1.700000e-07	-5.377101e-06	-2.294343e-09	-3.802846e+01	-1.558659e+02
1.800000e-07	-5.370390e-06	-2.383173e-09	-3.798100e+01	-1.559345e+02
1.900000e-07	-5.363351e-06	-2.486284e-09	-3.793122e+01	-1.560135e+02
2.000000e-07	-5.356005e-06	-2.443108e-09	-3.787927e+01	-1.561014e+02
2.100000e-07	-5.348280e-06	-2.377650e-09	-3.782463e+01	-1.561963e+02
2.200000e-07	-5.340302e-06	-2.424230e-09	-3.776821e+01	-1.562963e+02
2.300000e-07	-5.332134e-06	-2.484755e-09	-3.771044e+01	-1.563995e+02
2.400000e-07	-5.323680e-06	-2.434974e-09	-3.765065e+01	-1.565036e+02
2.500000e-07	-5.314636e-06	-2.432417e-09	-3.758669e+01	-1.566067e+02
2.600000e-07	-5.304901e-06	-2.478996e-09	-3.751784e+01	-1.567065e+02
2.700000e-07	-5.294569e-06	-2.496346e-09	-3.744477e+01	-1.568009e+02
2.800000e-07	-5.283724e-06	-2.445654e-09	-3.736807e+01	-1.568880e+02
2.900000e-07	-5.272481e-06	-2.478110e-09	-3.728856e+01	-1.569658e+02
3.000000e-07	-5.260737e-06	-2.501325e-09	-3.720550e+01	-1.570325e+02
3.100000e-07	-5.248624e-06	-2.461782e-09	-3.711983e+01	-1.570866e+02
3.200000e-07	-5.236227e-06	-2.425795e-09	-3.703216e+01	-1.571266e+02
3.300000e-07	-5.223407e-06	-2.493376e-09	-3.694149e+01	-1.571514e+02
3.400000e-07	-5.210091e-06	-2.490508e-09	-3.684731e+01	-1.571601e+02
3.500000e-07	-5.196409e-06	-2.441542e-09	-3.675056e+01	-1.571520e+02
3.600000e-07	-5.182401e-06	-2.437166e-09	-3.665148e+01	-1.571267e+02
3.700000e-07	-5.168025e-06	-2.480898e-09	-3.654982e+01	-1.570840e+02
3.800000e-07	-5.153182e-06	-2.443522e-09	-3.644484e+01	-1.570241e+02
3.900000e-07	-5.137730e-06	-2.423320e-09	-3.633556e+01	-1.569472e+02
4.000000e-07	-5.121666e-06	-2.442053e-09	-3.622195e+01	-1.568540e+02
4.100000e-07	-5.105122e-06	-2.441526e-09	-3.610495e+01	-1.567454e+02
4.200000e-07	-5.088232e-06	-2.419407e-09	-3.598550e+01	-1.566223e+02
4.300000e-07	-5.071011e-06	-2.439259e-09	-3.586370e+01	-1.564858e+02
4.400000e-07	-5.053565e-06	-2.439017e-09	-3.574032e+01	-1.563374e+02
4.500000e-07	-5.035897e-06	-2.406874e-09	-3.561536e+01	-1.561785e+02
4.600000e-07	-5.017869e-06	-2.413783e-09	-3.548786e+01	-1.560106e+02
4.700000e-07	-4.999450e-06	-2.431595e-09	-3.535760e+01	-1.558353e+02
4.800000e-07	-4.980582e-06	-2.421127e-09	-3.522416e+01	-1.556542e+02
4.900000e-07	-4.961310e-06	-2.404565e-09	-3.508786e+01	-1.554689e+02
5.000000e-07	-4.941737e-06	-2.416569e-09	-3.494944e+01	-1.552809e+02
5.100000e-07	-4.921927e-06	-2.412138e-09	-3.480933e+01	-1.550916e+02
5.200000e-07	-4.901932e-06	-2.412127e-09	-3.466792e+01	-1.549024e+02
5.300000e-07	-4.881727e-06	-2.399984e-09	-3.452503e+01	-1.547146e+02
5.400000e-07	-4.861266e-06	-2.393939e-09	-3.438032e+01	-1.545292e+02
5.500000e-07	-4.840435e-06	-2.392959e-09	-3.423300e+01	-1.543471e+02
5.600000e-07	-4.819174e-06	-2.405748e-09	-3.408264e+01	-1.541692e+02
5.700000e-07	-4.797478e-06	-2.388612e-09	-3.392920e+01	-1.539958e+02
5.800000e-07	-4.775412e-06	-2.383496e-09	-3.377314e+01	-1.538274e+02
5.900000e-07	-4.753107e-06	-2.388606e-09	-3.361539e+01	-1.536641e+02
6.000000e-07	-4.730557e-06	-2.393709e-09	-3.345591e+01	-1.535060e+02
6.100000e-07	-4.707624e-06	-2.379860e-09	-3.329372e+01	-1.533527e+02
6.200000e-07	-4.684306e-06	-2.375988e-09	-3.312881e+01	-1.532040e+02
6.300000e-07	-4.660730e-06	-2.363914e-09	-3.296208e+01	-1.530594e+02
6.400000e-07	-4.636943e-06	-2.367027e-09	-3.279384e+01	-1.529180e+02
6.500000e-07	-4.612906e-06	-2.370380e-09	-3.262385e+01	-1.527793e+02
6.600000e-07	-4.588614e-06	-2.363279e-09	-3.245204e+01	-1.526422e+02
6.700000e-07	-4.564002e-06	-2.350954e-09	-3.227798e+01	-1.525059e+02
6.800000e-07	-4.539079e-06	-2.363705e-09	-3.210172e+01	-1.523693e+02
6.900000e-07	-4.513704e-06	-2.369646e-09	-3.192226e+01	-1.522314e+02
7.000000e-07	-4.487695e-06	-2.359012e-09	-3.173832e+01	-1.520913e+02
7.100000e-07	-4.461099e-06	-2.347912e-09	-3.155023e+01	-1.519479e+02
7.200000e-07	-4.434060e-06	-2.346919e-09	-3.135900e+01	-1.518002e+02
7.300000e-07	-4.406698e-06	-2.345186e-09	-3.116548e+01	-1.516475e+02
7.400000e-07	-4.379055e-06	-2.338878e-09	-3.096998e+01	-1.514888e+02
7.500000e-07	-4.351152e-06	-2.329987e-09	-3.077264e+01	-1.513235e+02
7.600000e-07	-4.323056e-06	-2.326685e-09	-3.057394e+01	-1.511509e+02
7.700000e-07	-4.294794e-06	-2.333770e-09	-3.037407e+01	-1.509707e+02
7.800000e-07	-4.266301e-06	-2.330496e-09	-3.017256e+01	-1.507825e+02
7.900000e-07	-4.237524e-06	-2.318762e-09	-2.996903e+01	-1.505860e+02
8.000000e-07	-4.208413e-06	-2.308915e-09	-2.976315e+01	-1.503812e+02
8.100000e-07	-4.178975e-06	-2.311292e-09	-2.955495e+01	-1.501681e+02
8.200000e-07	-4.149197e-06	-2.307829e-09	-2.934436e+01	-1.499469e+02
8.300000e-07	-4.119159e-06	-2.300500e-09	-2.913192e+01	-1.497179e+02
8.400000e-07	-4.088897e-06	-2.289088e-09	-2.891790e+01	-1.494814e+02
8.500000e-07	-4.058381e-06	-2.289207e-09	-2.870208e+01	-1.492380e+02
8.600000e-07	-4.027624e-06	-2.287522e-09	-2.848456e+01	-1.489881e+02
8.700000e-07	-3.996623e-06	-2.282225e-09	-2.826531e+01	-1.487324e+02
8.800000e-07	-3.965313e-06	-2.268581e-09	-2.804388e+01	-1.484716e+02
8.900000e-07	-3.933749e-06	-2.265792e-09	-2.782064e+01	-1.482064e+02
9.000000e-07	-3.902048e-06	-2.268007e-09	-2.759644e+01	-1.479374e+02
9.100000e-07	-3.870156e-06	-2.268084e-09	-2.737090e+01	-1.476654e+02
9.200000e-07	-3.838023e-06	-2.254773e-09	-2.714364e+01	-1.473910e+02
9.300000e-07	-3.805661e-06	-2.243098e-09	-2.691477e+01	-1.471148e+02
9.400000e-07	-3.773047e-06	-2.234096e-09	-2.668411e+01	-1.468376e+02
9.500000e-07	-3.740095e-06	-2.227812e-09	-2.645107e+01	-1.465598e+02
9.600000e-07	-3.706781e-06	-2.216749e-09	-2.621546e+01	-1.462818e+02
9.700000e-07	-3.673045e-06	-2.210088e-09	-2.597687e+01	-1.460041e+02
9.800000e-07	-3.638848e-06	-2.209741e-09	-2.573502e+01	-1.457270e+02
9.900000e-07	-3.604202e-06	-2.212438e-09	-2.548999e+01	-1.454507e+02
1.000000e-06	-3.569219e-06	-2.206654e-09	-2.524258e+01	-1.451753e+02
1.010000e-06	-3.533961e-06	-2.195825e-09	-2.499323e+01	-1.449009e+02
1.020000e-06	-3.498422e-06	-2.185208e-09	-2.474189e+01	-1.446274e+02
1.030000e-06	-3.462667e-06	-2.177239e-09	-2.448901e+01	-1.443547e+02
1.040000e-06	-3.426729e-06	-2.172178e-09	-2.423485e+01	-1.440825e+02
1.050000e-06	-3.390648e-06	-2.169566e-09	-2.397967e+01	-1.438107e+02
1.060000e-06	-3.354398e-06	-2.170007e-09	-2.372330e+01	-1.435389e+02
1.070000e-06	-3.318015e-06	-2.169137e-09	-2.346600e+01	-1.432666e+02
1.080000e-06	-3.281428e-06	-2.165419e-09	-2.320724e+01	-1.429935e+02
1.090000e-06	-3.244580e-06	-2.155727e-09	-2.294664e+01	-1.427190e+02
1.100000e-06	-3.207530e-06	-2.147119e-09	-2.268461e+01	-1.424428e+02
1.110000e-06	-3.170189e-06	-2.140497e-09	-2.242052e+01	-1.421642e+02
1.120000e-06	-3.132593e-06	-2.136040e-09	-2.215463e+01	-1.418828e+02
1.130000e-06	-3.094794e-06	-2.129921e-09	-2.188731e+01	-1.415980e+02
1.140000e-06	-3.056752e-06	-2.127252e-09	-2.161826e+01	-1.413094e+02
1.150000e-06	-3.018511e-06	-2.125498e-09	-2.134781e+01	-1.410164e+02
1.160000e-06	-2.980153e-06	-2.121784e-09	-2.107653e+01	-1.407187e+02
1.170000e-06	-2.941602e-06	-2.110754e-09	-2.080388e+01	-1.404158e+02
1.180000e-06	-2.902752e-06	-2.099807e-09	-2.052913e+01	-1.401073e+02
1.190000e-06	-2.863618e-06	-2.089283e-09	-2.025236e+01	-1.397929e+02
1.200000e-06	-2.824380e-06	-2.082303e-09	-1.997486e+01	-1.394722e+02
1.210000e-06	-2.784987e-06	-2.075564e-09	-1.969626e+01	-1.391450e+02
1.220000e-06	-2.745286e-06	-2.075497e-09	-1.941548e+01	-1.388111e+02
1.230000e-06	-2.705477e-06	-2.078409e-09	-1.913394e+01	-1.384701e+02
1.240000e-06	-2.665625e-06	-2.079657e-09	-1.885209e+01	-1.381220e+02
1.250000e-06	-2.625643e-06	-2.071819e-09	-1.856933e+01	-1.377665e+02
1.260000e-06	-2.585538e-06	-2.059164e-09	-1.828570e+01	-1.374036e+02
1.270000e-06	-2.545341e-06	-2.044152e-09	-1.800141e+01	-1.370331e+02
1.280000e-06	-2.505042e-06	-2.032108e-09	-1.771640e+01	-1.366549e+02
1.290000e-06	-2.464592e-06	-2.025178e-09	-1.743033e+01	-1.362690e+02
1.300000e-06	-2.423969e-06	-2.023820e-09	-1.714303e+01	-1.358752e+02
1.310000e-06	-2.383154e-06	-2.027218e-09	-1.685438e+01	-1.354735e+02
1.320000e-06	-2.342129e-06	-2.028680e-09	-1.656423e+01	-1.350637e+02
1.330000e-06	-2.300846e-06	-2.022573e-09	-1.627227e+01	-1.346458e+02
1.340000e-06	-2.259195e-06	-2.008473e-09	-1.597770e+01	-1.342196e+02
1.350000e-06	-2.217207e-06	-1.990211e-09	-1.568075e+01	-1.337849e+02
1.360000e-06	-2.174973e-06	-1.971233e-09	-1.538206e+01	-1.333416e+02
1.370000e-06	-2.132512e-06	-1.956679e-09	-1.508176e+01	-1.328896e+02
1.380000e-06	-2.089694e-06	-1.950233e-09	-1.477894e+01	-1.324286e+02
1.390000e-06	-2.046548e-06	-1.952829e-09	-1.447380e+01	-1.319583e+02
1.400000e-06	-2.003317e-06	-1.954951e-09	-1.416805e+01	-1.314786e+02
1.410000e-06	-1.959955e-06	-1.951959e-09	-1.386139e+01	-1.309891e+02
1.420000e-06	-1.916427e-06	-1.942389e-09	-1.355355e+01	-1.304896e+02
1.430000e-06	-1.872771e-06	-1.928467e-09	-1.324479e+01	-1.299796e+02
1.440000e-06	-1.828947e-06	-1.911374e-09	-1.293486e+01	-1.294590e+02
1.450000e-06	-1.785033e-06	-1.896458e-09	-1.262429e+01	-1.289272e+02
1.460000e-06	-1.741108e-06	-1.886678e-09	-1.231363e+01	-1.283840e+02
1.470000e-06	-1.697106e-06	-1.883895e-09	-1.200244e+01	-1.278288e+02
1.480000e-06	-1.652995e-06	-1.881780e-09	-1.169047e+01	-1.272614e+02
1.490000e-06	-1.608858e-06	-1.876765e-09	-1.137832e+01	-1.266813e+02
1.500000e-06	-1.564718e-06	-1.867358e-09	-1.106615e+01	-1.260879e+02
1.510000e-06	-1.520495e-06	-1.856046e-09	-1.075339e+01	-1.254810e+02
1.520000e-06	-1.476133e-06	-1.840332e-09	-1.043965e+01	-1.248599e+02
1.530000e-06	-1.431678e-06	-1.822609e-09	-1.012525e+01	-1.242243e+02
1.540000e-06	-1.387152e-06	-1.807782e-09	-9.810355e+00	-1.235736e+02
1.550000e-06	-1.342530e-06	-1.799498e-09	-9.494772e+00	-1.229074e+02
1.560000e-06	-1.297812e-06	-1.797621e-09	-9.178517e+00	-1.222250e+02
1.570000e-06	-1.253064e-06	-1.796083e-09	-8.862043e+00	-1.215259e+02
1.580000e-06	-1.208225e-06	-1.789134e-09	-8.544926e+00	-1.208097e+02
1.590000e-06	-1.163268e-06	-1.777479e-09	-8.226976e+00	-1.200757e+02
1.600000e-06	-1.118226e-06	-1.760806e-09	-7.908431e+00	-1.193232e+02
1.610000e-06	-1.073172e-06	-1.740469e-09	-7.589791e+00	-1.185518e+02
1.620000e-06	-1.028042e-06	-1.719285e-09	-7.270617e+00	-1.177607e+02
1.630000e-06	-9.827267e-07	-1.702034e-09	-6.950137e+00	-1.169492e+02
1.640000e-06	-9.372890e-07	-1.689727e-09	-6.628788e+00	-1.161167e+02
1.650000e-06	-8.918257e-07	-1.681732e-09	-6.307258e+00	-1.152623e+02
1.660000e-06	-8.463127e-07	-1.677454e-09	-5.985376e+00	-1.143854e+02
1.670000e-06	-8.007587e-07	-1.671649e-09	-5.663204e+00	-1.134851e+02
1.680000e-06	-7.552482e-07	-1.661049e-09	-5.341341e+00	-1.125605e+02
1.690000e-06	-7.096429e-07	-1.642331e-09	-5.018807e+00	-1.116109e+02
1.700000e-06	-6.639230e-07	-1.617630e-09	-4.695462e+00	-1.106352e+02
1.710000e-06	-6.181706e-07	-1.594346e-09	-4.371887e+00	-1.096326e+02
1.720000e-06	-5.723464e-07	-1.578338e-09	-4.047804e+00	-1.086021e+02
1.730000e-06	-5.265299e-07	-1.566923e-09	-3.723777e+00	-1.075427e+02
1.740000e-06	-4.807209e-07	-1.555366e-09	-3.399802e+00	-1.064532e+02
1.750000e-06	-4.347611e-07	-1.544529e-09	-3.074760e+00	-1.053328e+02
1.760000e-06	-3.887717e-07	-1.536647e-09	-2.749509e+00	-1.041801e+02
1.770000e-06	-3.428394e-07	-1.523599e-09	-2.424662e+00	-1.029943e+02
1.780000e-06	-2.968594e-07	-1.498454e-09	-2.099479e+00	-1.017739e+02
1.790000e-06	-2.508027e-07	-1.467071e-09	-1.773752e+00	-1.005180e+02
1.800000e-06	-2.047436e-07	-1.441398e-09	-1.448008e+00	-9.922518e+01
1.810000e-06	-1.586639e-07	-1.420900e-09	-1.122118e+00	-9.789431e+01
1.820000e-06	-1.125824e-07	-1.400607e-09	-7.962167e-01	-9.652411e+01
1.830000e-06	-6.654984e-08	-1.379855e-09	-4.706604e-01	-9.511327e+01
1.840000e-06	-2.051571e-08	-1.363737e-09	-1.450932e-01	-9.366048e+01
1.850000e-06	2.557737e-08	-1.350856e-09	1.808908e-01	-9.216441e+01
1.860000e-06	7.171354e-08	-1.332872e-09	5.071796e-01	-9.062371e+01
1.870000e-06	1.178292e-07	-1.302935e-09	8.333234e-01	-8.903698e+01
1.880000e-06	1.639181e-07	-1.267790e-09	1.159278e+00	-8.740284e+01
1.890000e-06	2.099955e-07	-1.236341e-09	1.485151e+00	-8.571986e+01
1.900000e-06	2.560272e-07	-1.208303e-09	1.810701e+00	-8.398662e+01
1.910000e-06	3.019864e-07	-1.179830e-09	2.135738e+00	-8.220167e+01
1.920000e-06	3.479165e-07	-1.155527e-09	2.460569e+00	-8.036357e+01
1.930000e-06	3.938449e-07	-1.139370e-09	2.785389e+00	-7.847088e+01
1.940000e-06	4.397780e-07	-1.123941e-09	3.110241e+00	-7.652214e+01
1.950000e-06	4.857017e-07	-1.097230e-09	3.435028e+00	-7.451594e+01
1.960000e-06	5.315877e-07	-1.058172e-09	3.759547e+00	-7.245088e+01
1.970000e-06	5.774360e-07	-1.016599e-09	4.083800e+00	-7.032559e+01
1.980000e-06	6.231988e-07	-9.787977e-10	4.407448e+00	-6.813876e+01
1.990000e-06	6.689263e-07	-9.442096e-10	4.730847e+00	-6.588914e+01
2.000000e-06	7.146317e-07	-9.111566e-10	5.054088e+00	-6.357556e+01
2.010000e-06	7.602544e-07	-8.816696e-10	5.376746e+00	-6.119695e+01
2.020000e-06	8.058399e-07	-8.537101e-10	5.699140e+00	-5.875235e+01
2.030000e-06	8.513316e-07	-8.224996e-10	6.020871e+00	-5.624095e+01
2.040000e-06	8.967666e-07	-7.846342e-10	6.342201e+00	-5.366209e+01
2.050000e-06	9.421425e-07	-7.420025e-10	6.663113e+00	-5.101528e+01
2.060000e-06	9.873794e-07	-6.975943e-10	6.983042e+00	-4.830027e+01
2.070000e-06	1.032545e-06	-6.543279e-10	7.302467e+00	-4.551699e+01
2.080000e-06	1.077650e-06	-6.128564e-10	7.621460e+00	-4.266565e+01
2.090000e-06	1.122632e-06	-5.714088e-10	7.939590e+00	-3.974672e+01
2.100000e-06	1.167515e-06	-5.300787e-10	8.257014e+00	-3.676096e+01
2.110000e-06	1.212346e-06	-4.909810e-10	8.574074e+00	-3.370945e+01
2.120000e-06	1.257016e-06	-4.508362e-10	8.889994e+00	-3.059358e+01
2.130000e-06	1.301564e-06	-4.081738e-10	9.205051e+00	-2.741509e+01
2.140000e-06	1.346151e-06	-3.604201e-10	9.520385e+00	-2.417608e+01
2.150000e-06	1.390707e-06	-3.075117e-10	9.835493e+00	-2.087900e+01
2.160000e-06	1.435118e-06	-2.537419e-10	1.014958e+01	-1.752669e+01
2.170000e-06	1.479452e-06	-2.016520e-10	1.046312e+01	-1.412232e+01
2.180000e-06	1.523703e-06	-1.507883e-10	1.077609e+01	-1.066948e+01
2.190000e-06	1.567871e-06	-1.006321e-10	1.108845e+01	-7.172058e+00
2.200000e-06	1.612010e-06	-5.058701e-11	1.140062e+01	-3.634338e+00
2.210000e-06	1.656042e-06	-1.093060e-12	1.171202e+01	-6.090881e-02
2.220000e-06	1.700002e-06	5.223078e-11	1.202292e+01	3.543325e+00
2.230000e-06	1.743939e-06	1.103550e-10	1.233366e+01	7.173176e+00
2.240000e-06	1.787851e-06	1.677418e-10	1.264421e+01	1.082320e+01
2.250000e-06	1.831708e-06	2.217935e-10	1.295438e+01	1.448775e+01
2.260000e-06	1.875470e-06	2.748613e-10	1.326388e+01	1.816097e+01
2.270000e-06	1.919107e-06	3.289935e-10	1.357250e+01	2.183688e+01
2.280000e-06	1.962632e-06	3.839870e-10	1.388032e+01	2.550941e+01
2.290000e-06	2.006056e-06	4.395200e-10	1.418743e+01	2.917242e+01
2.300000e-06	2.049276e-06	4.951278e-10	1.449309e+01	3.281978e+01
2.310000e-06	2.092241e-06	5.521796e-10	1.479695e+01	3.644540e+01
2.320000e-06	2.134944e-06	6.091829e-10	1.509896e+01	4.004328e+01
2.330000e-06	2.177397e-06	6.638351e-10	1.539920e+01	4.360757e+01
2.340000e-06	2.219589e-06	7.124989e-10	1.569759e+01	4.713260e+01
2.350000e-06	2.261489e-06	7.580670e-10	1.599393e+01	5.061295e+01
2.360000e-06	2.303120e-06	8.073789e-10	1.628835e+01	5.404346e+01
2.370000e-06	2.344393e-06	8.608521e-10	1.658025e+01	5.741929e+01
2.380000e-06	2.385293e-06	9.125230e-10	1.686950e+01	6.073596e+01
2.390000e-06	2.425970e-06	9.609360e-10	1.715718e+01	6.398936e+01
2.400000e-06	2.466501e-06	1.007486e-09	1.744383e+01	6.717580e+01
2.410000e-06	2.506911e-06	1.051550e-09	1.772962e+01	7.029202e+01
2.420000e-06	2.547188e-06	1.090903e-09	1.801447e+01	7.333520e+01
2.430000e-06	2.587363e-06	1.128438e-09	1.829860e+01	7.630297e+01
2.440000e-06	2.627439e-06	1.168314e-09	1.858203e+01	7.919345e+01
2.450000e-06	2.667381e-06	1.210797e-09	1.886452e+01	8.200517e+01
2.460000e-06	2.707289e-06	1.251164e-09	1.914676e+01	8.473715e+01
2.470000e-06	2.747038e-06	1.288418e-09	1.942787e+01	8.738882e+01
2.480000e-06	2.786503e-06	1.324947e-09	1.970698e+01	8.996005e+01
2.490000e-06	2.825803e-06	1.361169e-09	1.998492e+01	9.245107e+01
2.500000e-06	2.864958e-06	1.396096e-09	2.026184e+01	9.486253e+01
2.510000e-06	2.903865e-06	1.427937e-09	2.053700e+01	9.719536e+01
2.520000e-06	2.942464e-06	1.457784e-09	2.080998e+01	9.945082e+01
2.530000e-06	2.980900e-06	1.488965e-09	2.108181e+01	1.016304e+02
2.540000e-06	3.019157e-06	1.520820e-09	2.135238e+01	1.037359e+02
2.550000e-06	3.057229e-06	1.550025e-09	2.162163e+01	1.057693e+02
2.560000e-06	3.095175e-06	1.577623e-09	2.189000e+01	1.077325e+02
2.570000e-06	3.132866e-06	1.604995e-09	2.215656e+01	1.096277e+02
2.580000e-06	3.170318e-06	1.631922e-09	2.242143e+01	1.114573e+02
2.590000e-06	3.207609e-06	1.656569e-09	2.268517e+01	1.132235e+02
2.600000e-06	3.244679e-06	1.679286e-09	2.294734e+01	1.149286e+02
2.610000e-06	3.281441e-06	1.702826e-09	2.320733e+01	1.165747e+02
2.620000e-06	3.317894e-06	1.726963e-09	2.346514e+01	1.181641e+02
2.630000e-06	3.354138e-06	1.748088e-09	2.372146e+01	1.196989e+02
2.640000e-06	3.390306e-06	1.766014e-09	2.397725e+01	1.211810e+02
2.650000e-06	3.426413e-06	1.784001e-09	2.423261e+01	1.226123e+02
2.660000e-06	3.462387e-06	1.804675e-09	2.448704e+01	1.239946e+02
2.670000e-06	3.498192e-06	1.825926e-09	2.474026e+01	1.253294e+02
2.680000e-06	3.533748e-06	1.845928e-09	2.499172e+01	1.266183e+02
2.690000e-06	3.568996e-06	1.864371e-09	2.524101e+01	1.278625e+02
2.700000e-06	3.603965e-06	1.882664e-09	2.548832e+01	1.290632e+02
2.710000e-06	3.638543e-06	1.900693e-09	2.573286e+01	1.302215e+02
2.720000e-06	3.672555e-06	1.916814e-09	2.597341e+01	1.313384e+02
2.730000e-06	3.706049e-06	1.929738e-09	2.621029e+01	1.324148e+02
2.740000e-06	3.739220e-06	1.941476e-09	2.644488e+01	1.334514e+02
2.750000e-06	3.772029e-06	1.957696e-09	2.667692e+01	1.344491e+02
2.760000e-06	3.804567e-06	1.976510e-09	2.690703e+01	1.354084e+02
2.770000e-06	3.836916e-06	1.991147e-09	2.713581e+01	1.363303e+02
2.780000e-06	3.869040e-06	2.001760e-09	2.736301e+01	1.372152e+02
2.790000e-06	3.901021e-06	2.013167e-09	2.758918e+01	1.380639e+02
2.800000e-06	3.932821e-06	2.025554e-09	2.781408e+01	1.388773e+02
2.810000e-06	3.964379e-06	2.035045e-09	2.803727e+01	1.396560e+02
2.820000e-06	3.995670e-06	2.041962e-09	2.825857e+01	1.404010e+02
2.830000e-06	4.026702e-06	2.049846e-09	2.847804e+01	1.411132e+02
2.840000e-06	4.057404e-06	2.061989e-09	2.869517e+01	1.417937e+02
2.850000e-06	4.087784e-06	2.077376e-09	2.891002e+01	1.424434e+02
2.860000e-06	4.117955e-06	2.090425e-09	2.912341e+01	1.430636e+02
2.870000e-06	4.147868e-06	2.099242e-09	2.933496e+01	1.436556e+02
2.880000e-06	4.177436e-06	2.105416e-09	2.954408e+01	1.442206e+02
2.890000e-06	4.206676e-06	2.111021e-09	2.975087e+01	1.447601e+02
2.900000e-06	4.235589e-06	2.116426e-09	2.995535e+01	1.452755e+02
