# Temperatura_=_-2.4
# Concentracion g/m^3_=_4090.0
# C_Vs_to_Am_M_A/Vsm_=_65563218390.804596
# pendiente_HvsI_1/m_=_3716.3
# ordenada_HvsI_A/m_=_1297.0
# frecuencia_Hz_=_135071.81405812578

Tiempo_(s)	Campo_(V.s)	Magnetizacion_(V.s)	Campo_(kA/m)	Magnetizacion_(A/m)
0.000000e+00	-5.416490e-06	-2.334620e-09	-3.839955e+01	-1.515118e+02
1.000000e-08	-5.416509e-06	-2.336977e-09	-3.839968e+01	-1.514104e+02
2.000000e-08	-5.416315e-06	-2.338998e-09	-3.839831e+01	-1.513125e+02
3.000000e-08	-5.415751e-06	-2.337974e-09	-3.839431e+01	-1.512197e+02
4.000000e-08	-5.414784e-06	-2.338130e-09	-3.838746e+01	-1.511331e+02
5.000000e-08	-5.413329e-06	-2.342366e-09	-3.837714e+01	-1.510541e+02
6.000000e-08	-5.411227e-06	-2.352142e-09	-3.836223e+01	-1.509836e+02
7.000000e-08	-5.408503e-06	-2.336540e-09	-3.834292e+01	-1.509226e+02
8.000000e-08	-5.405164e-06	-2.279602e-09	-3.831925e+01	-1.508716e+02
9.000000e-08	-5.401311e-06	-2.298963e-09	-3.829194e+01	-1.508312e+02
1.000000e-07	-5.397127e-06	-2.436537e-09	-3.826228e+01	-1.508016e+02
1.100000e-07	-5.392705e-06	-2.410428e-09	-3.823093e+01	-1.507828e+02
1.200000e-07	-5.388091e-06	-2.247650e-09	-3.819821e+01	-1.507747e+02
1.300000e-07	-5.383200e-06	-2.252004e-09	-3.816354e+01	-1.507768e+02
1.400000e-07	-5.377861e-06	-2.438543e-09	-3.812569e+01	-1.507885e+02
1.500000e-07	-5.372170e-06	-2.453052e-09	-3.808535e+01	-1.508090e+02
1.600000e-07	-5.366179e-06	-2.206849e-09	-3.804287e+01	-1.508374e+02
1.700000e-07	-5.359777e-06	-2.227618e-09	-3.799749e+01	-1.508724e+02
1.800000e-07	-5.352869e-06	-2.452285e-09	-3.794851e+01	-1.509127e+02
1.900000e-07	-5.345569e-06	-2.458529e-09	-3.789676e+01	-1.509571e+02
2.000000e-07	-5.338003e-06	-2.252817e-09	-3.784313e+01	-1.510041e+02
2.100000e-07	-5.330190e-06	-2.293749e-09	-3.778773e+01	-1.510520e+02
2.200000e-07	-5.322170e-06	-2.444512e-09	-3.773088e+01	-1.510994e+02
2.300000e-07	-5.313939e-06	-2.366244e-09	-3.767253e+01	-1.511447e+02
2.400000e-07	-5.305250e-06	-2.249745e-09	-3.761093e+01	-1.511864e+02
2.500000e-07	-5.295866e-06	-2.365748e-09	-3.754440e+01	-1.512231e+02
2.600000e-07	-5.285814e-06	-2.442197e-09	-3.747314e+01	-1.512533e+02
2.700000e-07	-5.275147e-06	-2.303601e-09	-3.739751e+01	-1.512759e+02
2.800000e-07	-5.263991e-06	-2.302229e-09	-3.731843e+01	-1.512897e+02
2.900000e-07	-5.252391e-06	-2.434301e-09	-3.723619e+01	-1.512937e+02
3.000000e-07	-5.240343e-06	-2.360309e-09	-3.715078e+01	-1.512871e+02
3.100000e-07	-5.227956e-06	-2.211658e-09	-3.706296e+01	-1.512692e+02
3.200000e-07	-5.215326e-06	-2.328850e-09	-3.697342e+01	-1.512396e+02
3.300000e-07	-5.202376e-06	-2.414862e-09	-3.688162e+01	-1.511980e+02
3.400000e-07	-5.189067e-06	-2.296440e-09	-3.678726e+01	-1.511443e+02
3.500000e-07	-5.175347e-06	-2.270686e-09	-3.668999e+01	-1.510785e+02
3.600000e-07	-5.161144e-06	-2.384094e-09	-3.658930e+01	-1.510009e+02
3.700000e-07	-5.146389e-06	-2.335526e-09	-3.648470e+01	-1.509118e+02
3.800000e-07	-5.130989e-06	-2.269646e-09	-3.637552e+01	-1.508119e+02
3.900000e-07	-5.114980e-06	-2.325147e-09	-3.626203e+01	-1.507018e+02
4.000000e-07	-5.098448e-06	-2.321446e-09	-3.614483e+01	-1.505823e+02
4.100000e-07	-5.081631e-06	-2.246789e-09	-3.602561e+01	-1.504542e+02
4.200000e-07	-5.064574e-06	-2.310310e-09	-3.590468e+01	-1.503185e+02
4.300000e-07	-5.047187e-06	-2.352690e-09	-3.578142e+01	-1.501762e+02
4.400000e-07	-5.029516e-06	-2.274985e-09	-3.565614e+01	-1.500284e+02
4.500000e-07	-5.011568e-06	-2.262825e-09	-3.552890e+01	-1.498759e+02
4.600000e-07	-4.993307e-06	-2.329043e-09	-3.539945e+01	-1.497200e+02
4.700000e-07	-4.974702e-06	-2.303793e-09	-3.526754e+01	-1.495615e+02
4.800000e-07	-4.955669e-06	-2.259891e-09	-3.513262e+01	-1.494013e+02
4.900000e-07	-4.936244e-06	-2.276891e-09	-3.499490e+01	-1.492404e+02
5.000000e-07	-4.916545e-06	-2.286420e-09	-3.485525e+01	-1.490794e+02
5.100000e-07	-4.896595e-06	-2.285723e-09	-3.471381e+01	-1.489191e+02
5.200000e-07	-4.876424e-06	-2.288673e-09	-3.457082e+01	-1.487601e+02
5.300000e-07	-4.856012e-06	-2.261431e-09	-3.442611e+01	-1.486028e+02
5.400000e-07	-4.835245e-06	-2.250401e-09	-3.427888e+01	-1.484475e+02
5.500000e-07	-4.814016e-06	-2.282609e-09	-3.412839e+01	-1.482946e+02
5.600000e-07	-4.792449e-06	-2.271812e-09	-3.397549e+01	-1.481440e+02
5.700000e-07	-4.770648e-06	-2.238157e-09	-3.382093e+01	-1.479959e+02
5.800000e-07	-4.748577e-06	-2.244533e-09	-3.366446e+01	-1.478500e+02
5.900000e-07	-4.726214e-06	-2.263160e-09	-3.350592e+01	-1.477063e+02
6.000000e-07	-4.703504e-06	-2.254214e-09	-3.334492e+01	-1.475644e+02
6.100000e-07	-4.680375e-06	-2.240901e-09	-3.318095e+01	-1.474240e+02
6.200000e-07	-4.656849e-06	-2.220138e-09	-3.301417e+01	-1.472846e+02
6.300000e-07	-4.633081e-06	-2.223397e-09	-3.284566e+01	-1.471458e+02
6.400000e-07	-4.609132e-06	-2.245251e-09	-3.267588e+01	-1.470070e+02
6.500000e-07	-4.585042e-06	-2.236905e-09	-3.250510e+01	-1.468677e+02
6.600000e-07	-4.560722e-06	-2.203588e-09	-3.233268e+01	-1.467274e+02
6.700000e-07	-4.535985e-06	-2.213649e-09	-3.215732e+01	-1.465854e+02
6.800000e-07	-4.510707e-06	-2.233170e-09	-3.197811e+01	-1.464413e+02
6.900000e-07	-4.484992e-06	-2.223689e-09	-3.179581e+01	-1.462945e+02
7.000000e-07	-4.458847e-06	-2.200777e-09	-3.161045e+01	-1.461445e+02
7.100000e-07	-4.432094e-06	-2.198901e-09	-3.142079e+01	-1.459909e+02
7.200000e-07	-4.404931e-06	-2.210128e-09	-3.122822e+01	-1.458332e+02
7.300000e-07	-4.377473e-06	-2.218315e-09	-3.103356e+01	-1.456713e+02
7.400000e-07	-4.349741e-06	-2.203027e-09	-3.083696e+01	-1.455047e+02
7.500000e-07	-4.321828e-06	-2.191196e-09	-3.063907e+01	-1.453333e+02
7.600000e-07	-4.293744e-06	-2.200976e-09	-3.043998e+01	-1.451569e+02
7.700000e-07	-4.265482e-06	-2.205809e-09	-3.023961e+01	-1.449754e+02
7.800000e-07	-4.236892e-06	-2.187497e-09	-3.003693e+01	-1.447888e+02
7.900000e-07	-4.207984e-06	-2.173086e-09	-2.983200e+01	-1.445971e+02
8.000000e-07	-4.178811e-06	-2.177266e-09	-2.962517e+01	-1.444005e+02
8.100000e-07	-4.149385e-06	-2.185214e-09	-2.941656e+01	-1.441989e+02
8.200000e-07	-4.119689e-06	-2.182282e-09	-2.920604e+01	-1.439928e+02
8.300000e-07	-4.089604e-06	-2.170905e-09	-2.899275e+01	-1.437821e+02
8.400000e-07	-4.059252e-06	-2.169605e-09	-2.877758e+01	-1.435672e+02
8.500000e-07	-4.028674e-06	-2.176348e-09	-2.856080e+01	-1.433484e+02
8.600000e-07	-3.997760e-06	-2.169435e-09	-2.834164e+01	-1.431260e+02
8.700000e-07	-3.966604e-06	-2.149170e-09	-2.812076e+01	-1.429001e+02
8.800000e-07	-3.935250e-06	-2.140702e-09	-2.789847e+01	-1.426713e+02
8.900000e-07	-3.903642e-06	-2.149284e-09	-2.767439e+01	-1.424396e+02
9.000000e-07	-3.871814e-06	-2.155663e-09	-2.744876e+01	-1.422055e+02
9.100000e-07	-3.839832e-06	-2.144449e-09	-2.722202e+01	-1.419692e+02
9.200000e-07	-3.807670e-06	-2.135264e-09	-2.699401e+01	-1.417309e+02
9.300000e-07	-3.775276e-06	-2.134996e-09	-2.676436e+01	-1.414909e+02
9.400000e-07	-3.742596e-06	-2.134277e-09	-2.653268e+01	-1.412494e+02
9.500000e-07	-3.709577e-06	-2.120312e-09	-2.629859e+01	-1.410066e+02
9.600000e-07	-3.676148e-06	-2.108558e-09	-2.606160e+01	-1.407627e+02
9.700000e-07	-3.642115e-06	-2.111093e-09	-2.582033e+01	-1.405176e+02
9.800000e-07	-3.607675e-06	-2.117022e-09	-2.557617e+01	-1.402716e+02
9.900000e-07	-3.572940e-06	-2.108643e-09	-2.532993e+01	-1.400247e+02
1.000000e-06	-3.537832e-06	-2.099222e-09	-2.508103e+01	-1.397769e+02
1.010000e-06	-3.502485e-06	-2.094603e-09	-2.483044e+01	-1.395282e+02
1.020000e-06	-3.466877e-06	-2.089452e-09	-2.457800e+01	-1.392785e+02
1.030000e-06	-3.431051e-06	-2.077214e-09	-2.432402e+01	-1.390278e+02
1.040000e-06	-3.395101e-06	-2.068664e-09	-2.406915e+01	-1.387760e+02
1.050000e-06	-3.359010e-06	-2.066372e-09	-2.381329e+01	-1.385228e+02
1.060000e-06	-3.322801e-06	-2.067997e-09	-2.355659e+01	-1.382682e+02
1.070000e-06	-3.286344e-06	-2.063108e-09	-2.329814e+01	-1.380119e+02
1.080000e-06	-3.249619e-06	-2.051303e-09	-2.303778e+01	-1.377538e+02
1.090000e-06	-3.212666e-06	-2.042336e-09	-2.277580e+01	-1.374935e+02
1.100000e-06	-3.175420e-06	-2.040575e-09	-2.251175e+01	-1.372308e+02
1.110000e-06	-3.138010e-06	-2.037489e-09	-2.224654e+01	-1.369653e+02
1.120000e-06	-3.100479e-06	-2.029891e-09	-2.198047e+01	-1.366969e+02
1.130000e-06	-3.062747e-06	-2.023468e-09	-2.171298e+01	-1.364250e+02
1.140000e-06	-3.024788e-06	-2.022432e-09	-2.144387e+01	-1.361494e+02
1.150000e-06	-2.986604e-06	-2.018751e-09	-2.117316e+01	-1.358697e+02
1.160000e-06	-2.948214e-06	-2.009110e-09	-2.090101e+01	-1.355854e+02
1.170000e-06	-2.909634e-06	-2.000733e-09	-2.062750e+01	-1.352962e+02
1.180000e-06	-2.870781e-06	-1.995940e-09	-2.035205e+01	-1.350017e+02
1.190000e-06	-2.831708e-06	-1.993562e-09	-2.007505e+01	-1.347013e+02
1.200000e-06	-2.792488e-06	-1.985781e-09	-1.979701e+01	-1.343948e+02
1.210000e-06	-2.753071e-06	-1.977663e-09	-1.951756e+01	-1.340817e+02
1.220000e-06	-2.713579e-06	-1.973130e-09	-1.923759e+01	-1.337614e+02
1.230000e-06	-2.673978e-06	-1.970500e-09	-1.895684e+01	-1.334338e+02
1.240000e-06	-2.634163e-06	-1.962844e-09	-1.867458e+01	-1.330982e+02
1.250000e-06	-2.594236e-06	-1.955260e-09	-1.839152e+01	-1.327544e+02
1.260000e-06	-2.554186e-06	-1.948035e-09	-1.810759e+01	-1.324019e+02
1.270000e-06	-2.514045e-06	-1.941239e-09	-1.782301e+01	-1.320405e+02
1.280000e-06	-2.473830e-06	-1.934228e-09	-1.753792e+01	-1.316697e+02
1.290000e-06	-2.433538e-06	-1.928288e-09	-1.725228e+01	-1.312894e+02
1.300000e-06	-2.393101e-06	-1.920679e-09	-1.696560e+01	-1.308993e+02
1.310000e-06	-2.352399e-06	-1.913530e-09	-1.667705e+01	-1.304991e+02
1.320000e-06	-2.311427e-06	-1.906586e-09	-1.638658e+01	-1.300888e+02
1.330000e-06	-2.270135e-06	-1.899551e-09	-1.609385e+01	-1.296681e+02
1.340000e-06	-2.228460e-06	-1.893638e-09	-1.579840e+01	-1.292371e+02
1.350000e-06	-2.186485e-06	-1.887409e-09	-1.550082e+01	-1.287955e+02
1.360000e-06	-2.144187e-06	-1.879991e-09	-1.520095e+01	-1.283436e+02
1.370000e-06	-2.101615e-06	-1.872356e-09	-1.489914e+01	-1.278812e+02
1.380000e-06	-2.058925e-06	-1.864489e-09	-1.459650e+01	-1.274085e+02
1.390000e-06	-2.015994e-06	-1.857462e-09	-1.429214e+01	-1.269255e+02
1.400000e-06	-1.972805e-06	-1.850593e-09	-1.398596e+01	-1.264324e+02
1.410000e-06	-1.929472e-06	-1.844686e-09	-1.367876e+01	-1.259293e+02
1.420000e-06	-1.886018e-06	-1.838835e-09	-1.337069e+01	-1.254163e+02
1.430000e-06	-1.842413e-06	-1.830282e-09	-1.306156e+01	-1.248937e+02
1.440000e-06	-1.798694e-06	-1.818358e-09	-1.275162e+01	-1.243615e+02
1.450000e-06	-1.754940e-06	-1.809277e-09	-1.244143e+01	-1.238199e+02
1.460000e-06	-1.711067e-06	-1.804919e-09	-1.213040e+01	-1.232690e+02
1.470000e-06	-1.667109e-06	-1.800053e-09	-1.181876e+01	-1.227087e+02
1.480000e-06	-1.623129e-06	-1.793204e-09	-1.150698e+01	-1.221393e+02
1.490000e-06	-1.579044e-06	-1.784920e-09	-1.119444e+01	-1.215606e+02
1.500000e-06	-1.534896e-06	-1.776326e-09	-1.088146e+01	-1.209725e+02
1.510000e-06	-1.490711e-06	-1.767148e-09	-1.056821e+01	-1.203749e+02
1.520000e-06	-1.446416e-06	-1.753945e-09	-1.025419e+01	-1.197675e+02
1.530000e-06	-1.402033e-06	-1.740900e-09	-9.939545e+00	-1.191501e+02
1.540000e-06	-1.357581e-06	-1.731754e-09	-9.624406e+00	-1.185223e+02
1.550000e-06	-1.313027e-06	-1.724474e-09	-9.308546e+00	-1.178835e+02
1.560000e-06	-1.268419e-06	-1.718845e-09	-8.992303e+00	-1.172332e+02
1.570000e-06	-1.223705e-06	-1.710697e-09	-8.675311e+00	-1.165708e+02
1.580000e-06	-1.178909e-06	-1.703586e-09	-8.357734e+00	-1.158956e+02
1.590000e-06	-1.134114e-06	-1.696117e-09	-8.040166e+00	-1.152067e+02
1.600000e-06	-1.089164e-06	-1.685973e-09	-7.721498e+00	-1.145032e+02
1.610000e-06	-1.044018e-06	-1.668660e-09	-7.401442e+00	-1.137843e+02
1.620000e-06	-9.988188e-07	-1.651396e-09	-7.081005e+00	-1.130489e+02
1.630000e-06	-9.535837e-07	-1.637041e-09	-6.760316e+00	-1.122959e+02
1.640000e-06	-9.083049e-07	-1.625387e-09	-6.439317e+00	-1.115242e+02
1.650000e-06	-8.629299e-07	-1.615757e-09	-6.117637e+00	-1.107328e+02
1.660000e-06	-8.174958e-07	-1.608562e-09	-5.795537e+00	-1.099203e+02
1.670000e-06	-7.720780e-07	-1.601112e-09	-5.473553e+00	-1.090857e+02
1.680000e-06	-7.266076e-07	-1.589057e-09	-5.151196e+00	-1.082277e+02
1.690000e-06	-6.810747e-07	-1.570067e-09	-4.828396e+00	-1.073451e+02
1.700000e-06	-6.354959e-07	-1.547629e-09	-4.505271e+00	-1.064367e+02
1.710000e-06	-5.898336e-07	-1.528151e-09	-4.181554e+00	-1.055013e+02
1.720000e-06	-5.441521e-07	-1.513355e-09	-3.857700e+00	-1.045378e+02
1.730000e-06	-4.984394e-07	-1.500854e-09	-3.533626e+00	-1.035449e+02
1.740000e-06	-4.526841e-07	-1.489789e-09	-3.209249e+00	-1.025215e+02
1.750000e-06	-4.069156e-07	-1.482044e-09	-2.884779e+00	-1.014665e+02
1.760000e-06	-3.610977e-07	-1.473457e-09	-2.559958e+00	-1.003788e+02
1.770000e-06	-3.152427e-07	-1.456186e-09	-2.234875e+00	-9.925721e+01
1.780000e-06	-2.693488e-07	-1.430128e-09	-1.909516e+00	-9.810061e+01
1.790000e-06	-2.234432e-07	-1.404504e-09	-1.584073e+00	-9.690788e+01
1.800000e-06	-1.775352e-07	-1.382288e-09	-1.258615e+00	-9.567788e+01
1.810000e-06	-1.316029e-07	-1.363260e-09	-9.329827e-01	-9.440942e+01
1.820000e-06	-8.567106e-08	-1.344454e-09	-6.073546e-01	-9.310130e+01
1.830000e-06	-3.978188e-08	-1.326631e-09	-2.820288e-01	-9.175226e+01
1.840000e-06	6.085625e-09	-1.308553e-09	4.314330e-02	-9.036096e+01
1.850000e-06	5.199778e-08	-1.289874e-09	3.686319e-01	-8.892603e+01
1.860000e-06	9.793888e-08	-1.266018e-09	6.943258e-01	-8.744598e+01
1.870000e-06	1.439043e-07	-1.238164e-09	1.020192e+00	-8.591925e+01
1.880000e-06	1.898861e-07	-1.212703e-09	1.346174e+00	-8.434421e+01
1.890000e-06	2.357872e-07	-1.189450e-09	1.671585e+00	-8.271909e+01
1.900000e-06	2.815522e-07	-1.162149e-09	1.996030e+00	-8.104205e+01
1.910000e-06	3.273258e-07	-1.132768e-09	2.320536e+00	-7.931116e+01
1.920000e-06	3.731859e-07	-1.106635e-09	2.645656e+00	-7.752439e+01
1.930000e-06	4.190655e-07	-1.083229e-09	2.970914e+00	-7.567963e+01
1.940000e-06	4.649635e-07	-1.056429e-09	3.296302e+00	-7.377472e+01
1.950000e-06	5.107136e-07	-1.025901e-09	3.620642e+00	-7.180742e+01
1.960000e-06	5.563115e-07	-9.958759e-10	3.943903e+00	-6.977551e+01
1.970000e-06	6.019061e-07	-9.670057e-10	4.267140e+00	-6.767673e+01
1.980000e-06	6.474279e-07	-9.348164e-10	4.589862e+00	-6.550887e+01
1.990000e-06	6.928438e-07	-8.980547e-10	4.911832e+00	-6.326977e+01
2.000000e-06	7.382170e-07	-8.616532e-10	5.233500e+00	-6.095737e+01
2.010000e-06	7.835904e-07	-8.279716e-10	5.555169e+00	-5.856975e+01
2.020000e-06	8.289987e-07	-7.956134e-10	5.877085e+00	-5.610514e+01
2.030000e-06	8.743591e-07	-7.613282e-10	6.198662e+00	-5.356203e+01
2.040000e-06	9.195619e-07	-7.236820e-10	6.519123e+00	-5.093911e+01
2.050000e-06	9.646955e-07	-6.847976e-10	6.839092e+00	-4.823543e+01
2.060000e-06	1.009882e-06	-6.451478e-10	7.159437e+00	-4.545032e+01
2.070000e-06	1.054991e-06	-6.032684e-10	7.479232e+00	-4.258353e+01
2.080000e-06	1.099891e-06	-5.587783e-10	7.797547e+00	-3.963522e+01
2.090000e-06	1.144677e-06	-5.130678e-10	8.115050e+00	-3.660600e+01
2.100000e-06	1.189366e-06	-4.704197e-10	8.431864e+00	-3.349693e+01
2.110000e-06	1.233968e-06	-4.260940e-10	8.748068e+00	-3.030963e+01
2.120000e-06	1.278514e-06	-3.810182e-10	9.063873e+00	-2.704620e+01
2.130000e-06	1.322953e-06	-3.345318e-10	9.378917e+00	-2.370929e+01
2.140000e-06	1.367319e-06	-2.835470e-10	9.693439e+00	-2.030209e+01
2.150000e-06	1.411633e-06	-2.296057e-10	1.000760e+01	-1.682836e+01
2.160000e-06	1.455851e-06	-1.733500e-10	1.032108e+01	-1.329237e+01
2.170000e-06	1.500022e-06	-1.179518e-10	1.063422e+01	-9.698914e+00
2.180000e-06	1.544135e-06	-6.589019e-11	1.094696e+01	-6.053300e+00
2.190000e-06	1.588175e-06	-1.783587e-11	1.125917e+01	-2.361297e+00
2.200000e-06	1.632180e-06	3.089858e-11	1.157115e+01	1.370885e+00
2.210000e-06	1.676119e-06	8.394760e-11	1.188265e+01	5.136649e+00
2.220000e-06	1.719963e-06	1.405922e-10	1.219347e+01	8.929053e+00
2.230000e-06	1.763766e-06	2.023040e-10	1.250400e+01	1.274087e+01
2.240000e-06	1.807554e-06	2.650792e-10	1.281443e+01	1.656463e+01
2.250000e-06	1.851285e-06	3.250800e-10	1.312446e+01	2.039273e+01
2.260000e-06	1.894890e-06	3.814205e-10	1.343359e+01	2.421743e+01
2.270000e-06	1.938288e-06	4.359392e-10	1.374126e+01	2.803099e+01
2.280000e-06	1.981481e-06	4.904070e-10	1.404747e+01	3.182570e+01
2.290000e-06	2.024490e-06	5.454321e-10	1.435238e+01	3.559395e+01
2.300000e-06	2.067375e-06	6.016739e-10	1.465640e+01	3.932833e+01
2.310000e-06	2.110097e-06	6.590083e-10	1.495927e+01	4.302164e+01
2.320000e-06	2.152547e-06	7.175017e-10	1.526022e+01	4.666703e+01
2.330000e-06	2.194593e-06	7.722393e-10	1.555830e+01	5.025798e+01
2.340000e-06	2.236369e-06	8.203644e-10	1.585447e+01	5.378840e+01
2.350000e-06	2.277957e-06	8.665747e-10	1.614930e+01	5.725269e+01
2.360000e-06	2.319072e-06	9.173322e-10	1.644078e+01	6.064572e+01
2.370000e-06	2.359818e-06	9.700540e-10	1.672964e+01	6.396294e+01
2.380000e-06	2.400435e-06	1.020673e-09	1.701759e+01	6.720034e+01
2.390000e-06	2.440880e-06	1.065947e-09	1.730432e+01	7.035452e+01
2.400000e-06	2.481152e-06	1.108400e-09	1.758982e+01	7.342265e+01
2.410000e-06	2.521297e-06	1.149290e-09	1.787443e+01	7.640254e+01
2.420000e-06	2.561376e-06	1.186511e-09	1.815856e+01	7.929256e+01
2.430000e-06	2.601391e-06	1.222601e-09	1.844225e+01	8.209167e+01
2.440000e-06	2.641310e-06	1.258627e-09	1.872524e+01	8.479939e+01
2.450000e-06	2.681070e-06	1.297294e-09	1.900712e+01	8.741579e+01
2.460000e-06	2.720624e-06	1.338480e-09	1.928753e+01	8.994140e+01
2.470000e-06	2.760156e-06	1.376992e-09	1.956779e+01	9.237723e+01
2.480000e-06	2.799553e-06	1.410865e-09	1.984709e+01	9.472471e+01
2.490000e-06	2.838655e-06	1.441170e-09	2.012430e+01	9.698563e+01
2.500000e-06	2.877590e-06	1.471353e-09	2.040032e+01	9.916208e+01
2.510000e-06	2.916276e-06	1.502873e-09	2.067458e+01	1.012564e+02
2.520000e-06	2.954676e-06	1.533876e-09	2.094682e+01	1.032713e+02
2.530000e-06	2.992911e-06	1.562972e-09	2.121788e+01	1.052094e+02
2.540000e-06	3.031015e-06	1.591389e-09	2.148801e+01	1.070735e+02
2.550000e-06	3.068904e-06	1.622914e-09	2.175662e+01	1.088666e+02
2.560000e-06	3.106580e-06	1.651498e-09	2.202372e+01	1.105917e+02
2.570000e-06	3.144057e-06	1.673121e-09	2.228941e+01	1.122515e+02
2.580000e-06	3.181301e-06	1.694698e-09	2.255344e+01	1.138489e+02
2.590000e-06	3.218322e-06	1.716591e-09	2.281591e+01	1.153867e+02
2.600000e-06	3.255111e-06	1.738602e-09	2.307671e+01	1.168674e+02
2.610000e-06	3.291643e-06	1.760994e-09	2.333571e+01	1.182935e+02
2.620000e-06	3.327969e-06	1.781591e-09	2.359323e+01	1.196673e+02
2.630000e-06	3.364119e-06	1.802080e-09	2.384951e+01	1.209909e+02
2.640000e-06	3.400149e-06	1.821279e-09	2.410494e+01	1.222662e+02
2.650000e-06	3.436092e-06	1.835885e-09	2.435976e+01	1.234950e+02
2.660000e-06	3.471874e-06	1.847301e-09	2.461343e+01	1.246788e+02
2.670000e-06	3.507439e-06	1.860951e-09	2.486556e+01	1.258191e+02
2.680000e-06	3.542728e-06	1.876817e-09	2.511574e+01	1.269171e+02
2.690000e-06	3.577773e-06	1.891425e-09	2.536419e+01	1.279740e+02
2.700000e-06	3.612427e-06	1.905464e-09	2.560986e+01	1.289907e+02
2.710000e-06	3.646525e-06	1.921623e-09	2.585160e+01	1.299682e+02
2.720000e-06	3.680183e-06	1.937753e-09	2.609021e+01	1.309073e+02
2.730000e-06	3.713520e-06	1.949894e-09	2.632655e+01	1.318088e+02
2.740000e-06	3.746447e-06	1.959076e-09	2.655998e+01	1.326735e+02
2.750000e-06	3.779034e-06	1.969637e-09	2.679100e+01	1.335023e+02
2.760000e-06	3.811433e-06	1.981155e-09	2.702069e+01	1.342958e+02
2.770000e-06	3.843600e-06	1.990156e-09	2.724873e+01	1.350550e+02
2.780000e-06	3.875591e-06	1.997161e-09	2.747553e+01	1.357807e+02
2.790000e-06	3.907432e-06	2.004894e-09	2.770127e+01	1.364739e+02
2.800000e-06	3.939045e-06	2.015894e-09	2.792538e+01	1.371357e+02
2.810000e-06	3.970395e-06	2.027074e-09	2.814763e+01	1.377672e+02
2.820000e-06	4.001361e-06	2.033021e-09	2.836716e+01	1.383695e+02
2.830000e-06	4.032000e-06	2.037841e-09	2.858437e+01	1.389441e+02
2.840000e-06	4.062440e-06	2.047301e-09	2.880017e+01	1.394922e+02
2.850000e-06	4.092631e-06	2.058838e-09	2.901421e+01	1.400153e+02
2.860000e-06	4.122559e-06	2.066338e-09	2.922638e+01	1.405149e+02
2.870000e-06	4.152231e-06	2.070670e-09	2.943673e+01	1.409925e+02
2.880000e-06	4.181701e-06	2.075868e-09	2.964566e+01	1.414497e+02
2.890000e-06	4.210856e-06	2.081032e-09	2.985235e+01	1.418880e+02
2.900000e-06	4.239628e-06	2.084627e-09	3.005633e+01	1.423090e+02
