# Temperatura_=_15.56
# Concentracion g/m^3_=_4090.0
# C_Vs_to_Am_M_A/Vsm_=_65563218390.804596
# pendiente_HvsI_1/m_=_3716.3
# ordenada_HvsI_A/m_=_1297.0
# frecuencia_Hz_=_135079.64974054808

Tiempo_(s)	Campo_(V.s)	Magnetizacion_(V.s)	Campo_(kA/m)	Magnetizacion_(A/m)
0.000000e+00	-5.406289e-06	-2.312364e-09	-3.839278e+01	-1.554352e+02
1.000000e-08	-5.406425e-06	-2.310647e-09	-3.839374e+01	-1.553559e+02
2.000000e-08	-5.406304e-06	-2.307661e-09	-3.839288e+01	-1.552744e+02
3.000000e-08	-5.406021e-06	-2.305053e-09	-3.839087e+01	-1.551920e+02
4.000000e-08	-5.405437e-06	-2.305594e-09	-3.838673e+01	-1.551103e+02
5.000000e-08	-5.404457e-06	-2.306342e-09	-3.837977e+01	-1.550309e+02
6.000000e-08	-5.402926e-06	-2.301463e-09	-3.836889e+01	-1.549550e+02
7.000000e-08	-5.400666e-06	-2.286230e-09	-3.835284e+01	-1.548842e+02
8.000000e-08	-5.397733e-06	-2.267114e-09	-3.833201e+01	-1.548198e+02
9.000000e-08	-5.394231e-06	-2.279431e-09	-3.830715e+01	-1.547629e+02
1.000000e-07	-5.390261e-06	-2.374827e-09	-3.827895e+01	-1.547147e+02
1.100000e-07	-5.385902e-06	-2.424559e-09	-3.824800e+01	-1.546760e+02
1.200000e-07	-5.381369e-06	-2.278520e-09	-3.821581e+01	-1.546476e+02
1.300000e-07	-5.376782e-06	-2.205014e-09	-3.818323e+01	-1.546299e+02
1.400000e-07	-5.371916e-06	-2.327581e-09	-3.814867e+01	-1.546233e+02
1.500000e-07	-5.366616e-06	-2.415624e-09	-3.811104e+01	-1.546279e+02
1.600000e-07	-5.360919e-06	-2.250746e-09	-3.807058e+01	-1.546434e+02
1.700000e-07	-5.354870e-06	-2.113457e-09	-3.802762e+01	-1.546696e+02
1.800000e-07	-5.348379e-06	-2.356332e-09	-3.798153e+01	-1.547058e+02
1.900000e-07	-5.341388e-06	-2.489027e-09	-3.793188e+01	-1.547512e+02
2.000000e-07	-5.334040e-06	-2.358011e-09	-3.787969e+01	-1.548048e+02
2.100000e-07	-5.326571e-06	-2.236855e-09	-3.782666e+01	-1.548653e+02
2.200000e-07	-5.318912e-06	-2.407556e-09	-3.777227e+01	-1.549315e+02
2.300000e-07	-5.310876e-06	-2.435500e-09	-3.771520e+01	-1.550019e+02
2.400000e-07	-5.302602e-06	-2.311218e-09	-3.765644e+01	-1.550747e+02
2.500000e-07	-5.293997e-06	-2.339736e-09	-3.759533e+01	-1.551484e+02
2.600000e-07	-5.284715e-06	-2.488784e-09	-3.752942e+01	-1.552212e+02
2.700000e-07	-5.274623e-06	-2.438508e-09	-3.745775e+01	-1.552913e+02
2.800000e-07	-5.264004e-06	-2.351503e-09	-3.738234e+01	-1.553569e+02
2.900000e-07	-5.252969e-06	-2.457028e-09	-3.730397e+01	-1.554164e+02
3.000000e-07	-5.241435e-06	-2.496455e-09	-3.722207e+01	-1.554681e+02
3.100000e-07	-5.229458e-06	-2.353563e-09	-3.713701e+01	-1.555105e+02
3.200000e-07	-5.217085e-06	-2.339121e-09	-3.704914e+01	-1.555420e+02
3.300000e-07	-5.204355e-06	-2.516055e-09	-3.695874e+01	-1.555615e+02
3.400000e-07	-5.191301e-06	-2.470550e-09	-3.686604e+01	-1.555679e+02
3.500000e-07	-5.177889e-06	-2.338580e-09	-3.677079e+01	-1.555601e+02
3.600000e-07	-5.164028e-06	-2.384088e-09	-3.667236e+01	-1.555375e+02
3.700000e-07	-5.149761e-06	-2.477703e-09	-3.657104e+01	-1.554996e+02
3.800000e-07	-5.135114e-06	-2.386159e-09	-3.646702e+01	-1.554460e+02
3.900000e-07	-5.119986e-06	-2.367062e-09	-3.635959e+01	-1.553766e+02
4.000000e-07	-5.104042e-06	-2.419601e-09	-3.624637e+01	-1.552915e+02
4.100000e-07	-5.087534e-06	-2.404524e-09	-3.612914e+01	-1.551910e+02
4.200000e-07	-5.070862e-06	-2.372160e-09	-3.601074e+01	-1.550754e+02
4.300000e-07	-5.053818e-06	-2.433158e-09	-3.588970e+01	-1.549455e+02
4.400000e-07	-5.036463e-06	-2.390086e-09	-3.576645e+01	-1.548021e+02
4.500000e-07	-5.018921e-06	-2.333584e-09	-3.564188e+01	-1.546459e+02
4.600000e-07	-5.001084e-06	-2.383464e-09	-3.551521e+01	-1.544780e+02
4.700000e-07	-4.982888e-06	-2.436550e-09	-3.538599e+01	-1.542994e+02
4.800000e-07	-4.964232e-06	-2.366690e-09	-3.525351e+01	-1.541114e+02
4.900000e-07	-4.945118e-06	-2.355529e-09	-3.511777e+01	-1.539149e+02
5.000000e-07	-4.925647e-06	-2.398563e-09	-3.497949e+01	-1.537113e+02
5.100000e-07	-4.905901e-06	-2.402021e-09	-3.483926e+01	-1.535015e+02
5.200000e-07	-4.885971e-06	-2.366156e-09	-3.469774e+01	-1.532868e+02
5.300000e-07	-4.865873e-06	-2.354907e-09	-3.455501e+01	-1.530681e+02
5.400000e-07	-4.845563e-06	-2.349742e-09	-3.441078e+01	-1.528463e+02
5.500000e-07	-4.824904e-06	-2.371265e-09	-3.426407e+01	-1.526223e+02
5.600000e-07	-4.803780e-06	-2.382842e-09	-3.411405e+01	-1.523968e+02
5.700000e-07	-4.782276e-06	-2.351545e-09	-3.396134e+01	-1.521704e+02
5.800000e-07	-4.760467e-06	-2.337411e-09	-3.380647e+01	-1.519436e+02
5.900000e-07	-4.738407e-06	-2.360658e-09	-3.364981e+01	-1.517166e+02
6.000000e-07	-4.716026e-06	-2.359888e-09	-3.349087e+01	-1.514898e+02
6.100000e-07	-4.693386e-06	-2.326971e-09	-3.333009e+01	-1.512632e+02
6.200000e-07	-4.670472e-06	-2.314806e-09	-3.316737e+01	-1.510367e+02
6.300000e-07	-4.647058e-06	-2.317306e-09	-3.300109e+01	-1.508101e+02
6.400000e-07	-4.623337e-06	-2.337534e-09	-3.283264e+01	-1.505833e+02
6.500000e-07	-4.599479e-06	-2.334988e-09	-3.266321e+01	-1.503558e+02
6.600000e-07	-4.575421e-06	-2.311159e-09	-3.249236e+01	-1.501272e+02
6.700000e-07	-4.551214e-06	-2.297474e-09	-3.232046e+01	-1.498971e+02
6.800000e-07	-4.526709e-06	-2.321159e-09	-3.214643e+01	-1.496648e+02
6.900000e-07	-4.501624e-06	-2.313863e-09	-3.196830e+01	-1.494300e+02
7.000000e-07	-4.475870e-06	-2.293970e-09	-3.178540e+01	-1.491919e+02
7.100000e-07	-4.449529e-06	-2.284602e-09	-3.159834e+01	-1.489502e+02
7.200000e-07	-4.422746e-06	-2.298927e-09	-3.140814e+01	-1.487042e+02
7.300000e-07	-4.395613e-06	-2.295551e-09	-3.121546e+01	-1.484534e+02
7.400000e-07	-4.368174e-06	-2.284315e-09	-3.102060e+01	-1.481976e+02
7.500000e-07	-4.340466e-06	-2.264922e-09	-3.082383e+01	-1.479363e+02
7.600000e-07	-4.312594e-06	-2.270695e-09	-3.062589e+01	-1.476692e+02
7.700000e-07	-4.284569e-06	-2.275703e-09	-3.042688e+01	-1.473962e+02
7.800000e-07	-4.256279e-06	-2.267456e-09	-3.022598e+01	-1.471171e+02
7.900000e-07	-4.227737e-06	-2.248879e-09	-3.002329e+01	-1.468319e+02
8.000000e-07	-4.198923e-06	-2.251967e-09	-2.981866e+01	-1.465406e+02
8.100000e-07	-4.169770e-06	-2.256159e-09	-2.961163e+01	-1.462434e+02
8.200000e-07	-4.140269e-06	-2.251157e-09	-2.940213e+01	-1.459405e+02
8.300000e-07	-4.110464e-06	-2.239052e-09	-2.919047e+01	-1.456322e+02
8.400000e-07	-4.080466e-06	-2.233804e-09	-2.897744e+01	-1.453187e+02
8.500000e-07	-4.050211e-06	-2.235072e-09	-2.876258e+01	-1.450005e+02
8.600000e-07	-4.019620e-06	-2.233398e-09	-2.854534e+01	-1.446779e+02
8.700000e-07	-3.988843e-06	-2.219494e-09	-2.832678e+01	-1.443514e+02
8.800000e-07	-3.957788e-06	-2.206524e-09	-2.810624e+01	-1.440214e+02
8.900000e-07	-3.926291e-06	-2.205946e-09	-2.788256e+01	-1.436883e+02
9.000000e-07	-3.894568e-06	-2.208593e-09	-2.765729e+01	-1.433526e+02
9.100000e-07	-3.862714e-06	-2.202005e-09	-2.743107e+01	-1.430147e+02
9.200000e-07	-3.830756e-06	-2.186893e-09	-2.720412e+01	-1.426748e+02
9.300000e-07	-3.798616e-06	-2.181927e-09	-2.697588e+01	-1.423334e+02
9.400000e-07	-3.766191e-06	-2.177019e-09	-2.674561e+01	-1.419905e+02
9.500000e-07	-3.733508e-06	-2.170305e-09	-2.651352e+01	-1.416465e+02
9.600000e-07	-3.700549e-06	-2.157907e-09	-2.627945e+01	-1.413015e+02
9.700000e-07	-3.667104e-06	-2.155951e-09	-2.604195e+01	-1.409554e+02
9.800000e-07	-3.633135e-06	-2.156328e-09	-2.580072e+01	-1.406083e+02
9.900000e-07	-3.598799e-06	-2.153463e-09	-2.555688e+01	-1.402600e+02
1.000000e-06	-3.564067e-06	-2.139128e-09	-2.531023e+01	-1.399105e+02
1.010000e-06	-3.528931e-06	-2.129250e-09	-2.506071e+01	-1.395595e+02
1.020000e-06	-3.493444e-06	-2.121522e-09	-2.480870e+01	-1.392068e+02
1.030000e-06	-3.457715e-06	-2.114307e-09	-2.455497e+01	-1.388520e+02
1.040000e-06	-3.421858e-06	-2.100714e-09	-2.430034e+01	-1.384947e+02
1.050000e-06	-3.385912e-06	-2.097086e-09	-2.404506e+01	-1.381347e+02
1.060000e-06	-3.349850e-06	-2.095844e-09	-2.378897e+01	-1.377714e+02
1.070000e-06	-3.313702e-06	-2.095929e-09	-2.353226e+01	-1.374045e+02
1.080000e-06	-3.277366e-06	-2.087461e-09	-2.327422e+01	-1.370335e+02
1.090000e-06	-3.240751e-06	-2.078470e-09	-2.301420e+01	-1.366580e+02
1.100000e-06	-3.203871e-06	-2.069904e-09	-2.275230e+01	-1.362776e+02
1.110000e-06	-3.166673e-06	-2.065094e-09	-2.248813e+01	-1.358920e+02
1.120000e-06	-3.129250e-06	-2.054470e-09	-2.222238e+01	-1.355008e+02
1.130000e-06	-3.091711e-06	-2.040729e-09	-2.195579e+01	-1.351036e+02
1.140000e-06	-3.054001e-06	-2.030030e-09	-2.168800e+01	-1.347001e+02
1.150000e-06	-3.016099e-06	-2.025404e-09	-2.141884e+01	-1.342901e+02
1.160000e-06	-2.977899e-06	-2.019484e-09	-2.114756e+01	-1.338734e+02
1.170000e-06	-2.939438e-06	-2.011421e-09	-2.087442e+01	-1.334498e+02
1.180000e-06	-2.900787e-06	-2.005353e-09	-2.059995e+01	-1.330191e+02
1.190000e-06	-2.861953e-06	-1.998557e-09	-2.032417e+01	-1.325812e+02
1.200000e-06	-2.822948e-06	-1.989339e-09	-2.004717e+01	-1.321360e+02
1.210000e-06	-2.783761e-06	-1.975121e-09	-1.976889e+01	-1.316835e+02
1.220000e-06	-2.744357e-06	-1.963897e-09	-1.948906e+01	-1.312234e+02
1.230000e-06	-2.704729e-06	-1.955791e-09	-1.920764e+01	-1.307558e+02
1.240000e-06	-2.664977e-06	-1.950915e-09	-1.892534e+01	-1.302806e+02
1.250000e-06	-2.625133e-06	-1.944212e-09	-1.864239e+01	-1.297977e+02
1.260000e-06	-2.585168e-06	-1.939808e-09	-1.835857e+01	-1.293070e+02
1.270000e-06	-2.545102e-06	-1.931643e-09	-1.807405e+01	-1.288084e+02
1.280000e-06	-2.504951e-06	-1.921142e-09	-1.778891e+01	-1.283016e+02
1.290000e-06	-2.464715e-06	-1.908192e-09	-1.750318e+01	-1.277866e+02
1.300000e-06	-2.424376e-06	-1.896986e-09	-1.721672e+01	-1.272631e+02
1.310000e-06	-2.383837e-06	-1.883276e-09	-1.692882e+01	-1.267308e+02
1.320000e-06	-2.343084e-06	-1.873857e-09	-1.663942e+01	-1.261893e+02
1.330000e-06	-2.302162e-06	-1.865774e-09	-1.634881e+01	-1.256384e+02
1.340000e-06	-2.261037e-06	-1.860398e-09	-1.605676e+01	-1.250777e+02
1.350000e-06	-2.219637e-06	-1.852215e-09	-1.576276e+01	-1.245066e+02
1.360000e-06	-2.177928e-06	-1.843406e-09	-1.546656e+01	-1.239248e+02
1.370000e-06	-2.135855e-06	-1.833963e-09	-1.516778e+01	-1.233317e+02
1.380000e-06	-2.093329e-06	-1.823542e-09	-1.486578e+01	-1.227268e+02
1.390000e-06	-2.050498e-06	-1.807319e-09	-1.456162e+01	-1.221096e+02
1.400000e-06	-2.007475e-06	-1.790308e-09	-1.425609e+01	-1.214795e+02
1.410000e-06	-1.964224e-06	-1.778251e-09	-1.394894e+01	-1.208361e+02
1.420000e-06	-1.920737e-06	-1.770392e-09	-1.364012e+01	-1.201787e+02
1.430000e-06	-1.877190e-06	-1.760880e-09	-1.333087e+01	-1.195069e+02
1.440000e-06	-1.833712e-06	-1.749934e-09	-1.302211e+01	-1.188201e+02
1.450000e-06	-1.790147e-06	-1.739642e-09	-1.271273e+01	-1.181179e+02
1.460000e-06	-1.746479e-06	-1.732096e-09	-1.240262e+01	-1.173998e+02
1.470000e-06	-1.702671e-06	-1.722817e-09	-1.209152e+01	-1.166655e+02
1.480000e-06	-1.658690e-06	-1.705916e-09	-1.177919e+01	-1.159145e+02
1.490000e-06	-1.614652e-06	-1.687217e-09	-1.146645e+01	-1.151466e+02
1.500000e-06	-1.570627e-06	-1.672346e-09	-1.115381e+01	-1.143614e+02
1.510000e-06	-1.526540e-06	-1.661199e-09	-1.084073e+01	-1.135587e+02
1.520000e-06	-1.482352e-06	-1.647122e-09	-1.052693e+01	-1.127383e+02
1.530000e-06	-1.438142e-06	-1.633075e-09	-1.021297e+01	-1.118999e+02
1.540000e-06	-1.393937e-06	-1.624802e-09	-9.899049e+00	-1.110433e+02
1.550000e-06	-1.349660e-06	-1.617676e-09	-9.584616e+00	-1.101683e+02
1.560000e-06	-1.305239e-06	-1.601766e-09	-9.269157e+00	-1.092747e+02
1.570000e-06	-1.260685e-06	-1.583598e-09	-8.952756e+00	-1.083623e+02
1.580000e-06	-1.216059e-06	-1.565669e-09	-8.635843e+00	-1.074309e+02
1.590000e-06	-1.171346e-06	-1.551541e-09	-8.318317e+00	-1.064799e+02
1.600000e-06	-1.126479e-06	-1.536667e-09	-7.999694e+00	-1.055092e+02
1.610000e-06	-1.081543e-06	-1.519087e-09	-7.680584e+00	-1.045183e+02
1.620000e-06	-1.036579e-06	-1.502627e-09	-7.361265e+00	-1.035066e+02
1.630000e-06	-9.914898e-07	-1.491218e-09	-7.041067e+00	-1.024735e+02
1.640000e-06	-9.462966e-07	-1.477602e-09	-6.720128e+00	-1.014182e+02
1.650000e-06	-9.010368e-07	-1.457780e-09	-6.398715e+00	-1.003399e+02
1.660000e-06	-8.557055e-07	-1.438637e-09	-6.076795e+00	-9.923772e+01
1.670000e-06	-8.103066e-07	-1.426459e-09	-5.754394e+00	-9.811046e+01
1.680000e-06	-7.648369e-07	-1.413145e-09	-5.431491e+00	-9.695696e+01
1.690000e-06	-7.193009e-07	-1.391257e-09	-5.108117e+00	-9.577588e+01
1.700000e-06	-6.737540e-07	-1.365004e-09	-4.784666e+00	-9.456580e+01
1.710000e-06	-6.281738e-07	-1.342413e-09	-4.460978e+00	-9.332516e+01
1.720000e-06	-5.825023e-07	-1.324165e-09	-4.136642e+00	-9.205235e+01
1.730000e-06	-5.368587e-07	-1.305443e-09	-3.812503e+00	-9.074564e+01
1.740000e-06	-4.912093e-07	-1.285143e-09	-3.488324e+00	-8.940325e+01
1.750000e-06	-4.454742e-07	-1.270051e-09	-3.163536e+00	-8.802337e+01
1.760000e-06	-3.997171e-07	-1.257196e-09	-2.838592e+00	-8.660414e+01
1.770000e-06	-3.539490e-07	-1.238409e-09	-2.513569e+00	-8.514372e+01
1.780000e-06	-3.080814e-07	-1.209615e-09	-2.187841e+00	-8.364027e+01
1.790000e-06	-2.621099e-07	-1.178460e-09	-1.861374e+00	-8.209202e+01
1.800000e-06	-2.161873e-07	-1.151195e-09	-1.535255e+00	-8.049724e+01
1.810000e-06	-1.703576e-07	-1.126379e-09	-1.209795e+00	-7.885431e+01
1.820000e-06	-1.245704e-07	-1.102171e-09	-8.846369e-01	-7.716174e+01
1.830000e-06	-7.879847e-08	-1.078874e-09	-5.595875e-01	-7.541815e+01
1.840000e-06	-3.301665e-08	-1.058511e-09	-2.344678e-01	-7.362234e+01
1.850000e-06	1.279469e-08	-1.036886e-09	9.086153e-02	-7.177330e+01
1.860000e-06	5.856415e-08	-1.010366e-09	4.158935e-01	-6.987020e+01
1.870000e-06	1.043490e-07	-9.757847e-10	7.410348e-01	-6.791242e+01
1.880000e-06	1.501904e-07	-9.383911e-10	1.066578e+00	-6.589959e+01
1.890000e-06	1.960126e-07	-9.036076e-10	1.391984e+00	-6.383154e+01
1.900000e-06	2.418455e-07	-8.710391e-10	1.717467e+00	-6.170835e+01
1.910000e-06	2.876872e-07	-8.381022e-10	2.043011e+00	-5.953035e+01
1.920000e-06	3.335535e-07	-8.083516e-10	2.368731e+00	-5.729809e+01
1.930000e-06	3.793919e-07	-7.814447e-10	2.694253e+00	-5.501236e+01
1.940000e-06	4.251749e-07	-7.534204e-10	3.019381e+00	-5.267418e+01
1.950000e-06	4.708796e-07	-7.205791e-10	3.343953e+00	-5.028477e+01
1.960000e-06	5.164785e-07	-6.833828e-10	3.667773e+00	-4.784555e+01
1.970000e-06	5.620749e-07	-6.444221e-10	3.991577e+00	-4.535815e+01
1.980000e-06	6.077119e-07	-6.057260e-10	4.315667e+00	-4.282432e+01
1.990000e-06	6.533532e-07	-5.655209e-10	4.639789e+00	-4.024600e+01
2.000000e-06	6.989261e-07	-5.255906e-10	4.963426e+00	-3.762523e+01
2.010000e-06	7.443830e-07	-4.880638e-10	5.286238e+00	-3.496417e+01
2.020000e-06	7.897663e-07	-4.519022e-10	5.608527e+00	-3.226505e+01
2.030000e-06	8.350777e-07	-4.158187e-10	5.930306e+00	-2.953018e+01
2.040000e-06	8.803431e-07	-3.779395e-10	6.251759e+00	-2.676190e+01
2.050000e-06	9.255516e-07	-3.357909e-10	6.572807e+00	-2.396257e+01
2.060000e-06	9.706599e-07	-2.923682e-10	6.893144e+00	-2.113458e+01
2.070000e-06	1.015717e-06	-2.494239e-10	7.213114e+00	-1.828029e+01
2.080000e-06	1.060675e-06	-2.077206e-10	7.532388e+00	-1.540206e+01
2.090000e-06	1.105510e-06	-1.665963e-10	7.850779e+00	-1.250219e+01
2.100000e-06	1.150253e-06	-1.248096e-10	8.168525e+00	-9.582960e+00
2.110000e-06	1.194988e-06	-8.600504e-11	8.486213e+00	-6.646612e+00
2.120000e-06	1.239671e-06	-4.831002e-11	8.803528e+00	-3.695327e+00
2.130000e-06	1.284282e-06	-8.315500e-12	9.120335e+00	-7.312416e-01
2.140000e-06	1.328814e-06	3.546477e-11	9.436577e+00	2.243551e+00
2.150000e-06	1.373182e-06	8.235411e-11	9.751655e+00	5.226999e+00
2.160000e-06	1.417440e-06	1.291217e-10	1.006595e+01	8.217087e+00
2.170000e-06	1.461632e-06	1.730525e-10	1.037979e+01	1.121182e+01
2.180000e-06	1.505769e-06	2.148983e-10	1.069322e+01	1.420924e+01
2.190000e-06	1.549849e-06	2.553099e-10	1.100626e+01	1.720736e+01
2.200000e-06	1.593876e-06	2.951822e-10	1.131891e+01	2.020423e+01
2.210000e-06	1.637870e-06	3.364555e-10	1.163134e+01	2.319786e+01
2.220000e-06	1.681824e-06	3.794602e-10	1.194348e+01	2.618624e+01
2.230000e-06	1.725707e-06	4.226699e-10	1.225512e+01	2.916733e+01
2.240000e-06	1.769507e-06	4.644987e-10	1.256616e+01	3.213905e+01
2.250000e-06	1.813190e-06	5.056831e-10	1.287637e+01	3.509928e+01
2.260000e-06	1.856806e-06	5.459073e-10	1.318612e+01	3.804582e+01
2.270000e-06	1.900357e-06	5.861770e-10	1.349539e+01	4.097646e+01
2.280000e-06	1.943680e-06	6.298407e-10	1.380305e+01	4.388890e+01
2.290000e-06	1.986831e-06	6.741532e-10	1.410948e+01	4.678079e+01
2.300000e-06	2.029813e-06	7.167965e-10	1.441472e+01	4.964976e+01
2.310000e-06	2.072537e-06	7.558250e-10	1.471813e+01	5.249339e+01
2.320000e-06	2.115006e-06	7.937686e-10	1.501972e+01	5.530922e+01
2.330000e-06	2.157243e-06	8.304935e-10	1.531966e+01	5.809479e+01
2.340000e-06	2.199190e-06	8.666372e-10	1.561755e+01	6.084765e+01
2.350000e-06	2.240819e-06	9.033355e-10	1.591319e+01	6.356535e+01
2.360000e-06	2.282183e-06	9.409753e-10	1.620693e+01	6.624549e+01
2.370000e-06	2.323255e-06	9.804543e-10	1.649860e+01	6.888574e+01
2.380000e-06	2.364047e-06	1.020696e-09	1.678828e+01	7.148382e+01
2.390000e-06	2.404622e-06	1.059438e-09	1.707643e+01	7.403758e+01
2.400000e-06	2.445009e-06	1.094135e-09	1.736324e+01	7.654497e+01
2.410000e-06	2.485268e-06	1.125716e-09	1.764914e+01	7.900409e+01
2.420000e-06	2.525445e-06	1.155960e-09	1.793445e+01	8.141321e+01
2.430000e-06	2.565482e-06	1.186615e-09	1.821878e+01	8.377078e+01
2.440000e-06	2.605412e-06	1.218752e-09	1.850234e+01	8.607542e+01
2.450000e-06	2.645235e-06	1.251364e-09	1.878514e+01	8.832598e+01
2.460000e-06	2.684962e-06	1.286306e-09	1.906726e+01	9.052154e+01
2.470000e-06	2.724594e-06	1.321001e-09	1.934871e+01	9.266138e+01
2.480000e-06	2.764032e-06	1.350849e-09	1.962878e+01	9.474503e+01
2.490000e-06	2.803206e-06	1.377011e-09	1.990697e+01	9.677225e+01
2.500000e-06	2.842211e-06	1.403973e-09	2.018397e+01	9.874303e+01
2.510000e-06	2.881020e-06	1.432480e-09	2.045957e+01	1.006576e+02
2.520000e-06	2.919543e-06	1.459134e-09	2.073314e+01	1.025163e+02
2.530000e-06	2.957813e-06	1.485614e-09	2.100492e+01	1.043199e+02
2.540000e-06	2.995887e-06	1.512057e-09	2.127530e+01	1.060691e+02
2.550000e-06	3.033852e-06	1.537252e-09	2.154491e+01	1.077650e+02
2.560000e-06	3.071672e-06	1.560940e-09	2.181349e+01	1.094087e+02
2.570000e-06	3.109291e-06	1.582223e-09	2.208064e+01	1.110014e+02
2.580000e-06	3.146690e-06	1.602535e-09	2.234622e+01	1.125446e+02
2.590000e-06	3.183814e-06	1.623729e-09	2.260986e+01	1.140397e+02
2.600000e-06	3.220547e-06	1.642751e-09	2.287072e+01	1.154882e+02
2.610000e-06	3.257016e-06	1.661943e-09	2.312971e+01	1.168918e+02
2.620000e-06	3.293360e-06	1.684199e-09	2.338780e+01	1.182519e+02
2.630000e-06	3.329566e-06	1.708007e-09	2.364492e+01	1.195701e+02
2.640000e-06	3.365651e-06	1.727382e-09	2.390118e+01	1.208480e+02
2.650000e-06	3.401630e-06	1.742630e-09	2.415669e+01	1.220871e+02
2.660000e-06	3.437525e-06	1.758114e-09	2.441159e+01	1.232887e+02
2.670000e-06	3.473288e-06	1.776218e-09	2.466557e+01	1.244542e+02
2.680000e-06	3.508807e-06	1.795012e-09	2.491780e+01	1.255848e+02
2.690000e-06	3.544107e-06	1.809994e-09	2.516848e+01	1.266817e+02
2.700000e-06	3.579155e-06	1.823032e-09	2.541738e+01	1.277459e+02
2.710000e-06	3.613794e-06	1.839513e-09	2.566336e+01	1.287783e+02
2.720000e-06	3.647886e-06	1.857733e-09	2.590547e+01	1.297798e+02
2.730000e-06	3.681362e-06	1.873600e-09	2.614320e+01	1.307511e+02
2.740000e-06	3.714362e-06	1.886561e-09	2.637755e+01	1.316928e+02
2.750000e-06	3.747013e-06	1.898419e-09	2.660942e+01	1.326054e+02
2.760000e-06	3.779362e-06	1.911408e-09	2.683915e+01	1.334895e+02
2.770000e-06	3.811557e-06	1.923635e-09	2.706778e+01	1.343453e+02
2.780000e-06	3.843681e-06	1.935385e-09	2.729591e+01	1.351734e+02
2.790000e-06	3.875636e-06	1.947934e-09	2.752284e+01	1.359740e+02
2.800000e-06	3.907433e-06	1.960252e-09	2.774865e+01	1.367474e+02
2.810000e-06	3.939061e-06	1.970652e-09	2.797325e+01	1.374940e+02
2.820000e-06	3.970459e-06	1.977953e-09	2.819622e+01	1.382140e+02
2.830000e-06	4.001489e-06	1.983087e-09	2.841659e+01	1.389078e+02
2.840000e-06	4.032181e-06	1.990466e-09	2.863454e+01	1.395758e+02
2.850000e-06	4.062556e-06	2.002757e-09	2.885025e+01	1.402184e+02
2.860000e-06	4.092601e-06	2.017021e-09	2.906362e+01	1.408362e+02
2.870000e-06	4.122466e-06	2.030120e-09	2.927570e+01	1.414296e+02
2.880000e-06	4.152098e-06	2.040929e-09	2.948613e+01	1.419993e+02
2.890000e-06	4.181450e-06	2.047696e-09	2.969457e+01	1.425460e+02
2.900000e-06	4.210461e-06	2.050622e-09	2.990060e+01	1.430704e+02
