# Temperatura_=_-1.4
# Concentracion g/m^3_=_4090.0
# C_Vs_to_Am_M_A/Vsm_=_65563218390.804596
# pendiente_HvsI_1/m_=_3716.3
# ordenada_HvsI_A/m_=_1297.0
# frecuencia_Hz_=_135063.25010578646

Tiempo_(s)	Campo_(V.s)	Magnetizacion_(V.s)	Campo_(kA/m)	Magnetizacion_(A/m)
0.000000e+00	-5.419155e-06	-2.444217e-09	-3.839986e+01	-1.604637e+02
1.000000e-08	-5.419398e-06	-2.440656e-09	-3.840158e+01	-1.603597e+02
2.000000e-08	-5.419364e-06	-2.436440e-09	-3.840134e+01	-1.602587e+02
3.000000e-08	-5.419088e-06	-2.429681e-09	-3.839939e+01	-1.601623e+02
4.000000e-08	-5.418487e-06	-2.422831e-09	-3.839512e+01	-1.600724e+02
5.000000e-08	-5.417392e-06	-2.425982e-09	-3.838737e+01	-1.599907e+02
6.000000e-08	-5.415783e-06	-2.446780e-09	-3.837597e+01	-1.599187e+02
7.000000e-08	-5.413619e-06	-2.474274e-09	-3.836063e+01	-1.598579e+02
8.000000e-08	-5.410763e-06	-2.449109e-09	-3.834039e+01	-1.598096e+02
9.000000e-08	-5.407204e-06	-2.368018e-09	-3.831518e+01	-1.597749e+02
1.000000e-07	-5.403173e-06	-2.388107e-09	-3.828661e+01	-1.597547e+02
1.100000e-07	-5.398907e-06	-2.532799e-09	-3.825638e+01	-1.597496e+02
1.200000e-07	-5.394493e-06	-2.499114e-09	-3.822511e+01	-1.597600e+02
1.300000e-07	-5.389838e-06	-2.359490e-09	-3.819212e+01	-1.597861e+02
1.400000e-07	-5.384886e-06	-2.348622e-09	-3.815703e+01	-1.598277e+02
1.500000e-07	-5.379645e-06	-2.540694e-09	-3.811989e+01	-1.598843e+02
1.600000e-07	-5.373957e-06	-2.547538e-09	-3.807959e+01	-1.599553e+02
1.700000e-07	-5.367693e-06	-2.341932e-09	-3.803520e+01	-1.600397e+02
1.800000e-07	-5.360945e-06	-2.361451e-09	-3.798738e+01	-1.601363e+02
1.900000e-07	-5.353927e-06	-2.531098e-09	-3.793766e+01	-1.602436e+02
2.000000e-07	-5.346646e-06	-2.554326e-09	-3.788606e+01	-1.603600e+02
2.100000e-07	-5.339084e-06	-2.412941e-09	-3.783248e+01	-1.604838e+02
2.200000e-07	-5.331285e-06	-2.494288e-09	-3.777722e+01	-1.606129e+02
2.300000e-07	-5.323166e-06	-2.594807e-09	-3.771969e+01	-1.607452e+02
2.400000e-07	-5.314701e-06	-2.532293e-09	-3.765970e+01	-1.608787e+02
2.500000e-07	-5.305746e-06	-2.461527e-09	-3.759625e+01	-1.610111e+02
2.600000e-07	-5.296211e-06	-2.588539e-09	-3.752868e+01	-1.611403e+02
2.700000e-07	-5.286044e-06	-2.611875e-09	-3.745664e+01	-1.612640e+02
2.800000e-07	-5.275269e-06	-2.500151e-09	-3.738029e+01	-1.613803e+02
2.900000e-07	-5.263977e-06	-2.528658e-09	-3.730027e+01	-1.614871e+02
3.000000e-07	-5.252262e-06	-2.651682e-09	-3.721727e+01	-1.615827e+02
3.100000e-07	-5.240163e-06	-2.570648e-09	-3.713153e+01	-1.616654e+02
3.200000e-07	-5.227673e-06	-2.459272e-09	-3.704303e+01	-1.617337e+02
3.300000e-07	-5.214844e-06	-2.551769e-09	-3.695212e+01	-1.617865e+02
3.400000e-07	-5.201698e-06	-2.601035e-09	-3.685897e+01	-1.618226e+02
3.500000e-07	-5.188111e-06	-2.514539e-09	-3.676270e+01	-1.618414e+02
3.600000e-07	-5.174048e-06	-2.518574e-09	-3.666304e+01	-1.618424e+02
3.700000e-07	-5.159710e-06	-2.588481e-09	-3.656144e+01	-1.618252e+02
3.800000e-07	-5.145022e-06	-2.534719e-09	-3.645737e+01	-1.617900e+02
3.900000e-07	-5.129832e-06	-2.507966e-09	-3.634973e+01	-1.617370e+02
4.000000e-07	-5.114102e-06	-2.554821e-09	-3.623827e+01	-1.616666e+02
4.100000e-07	-5.097836e-06	-2.525062e-09	-3.612301e+01	-1.615795e+02
4.200000e-07	-5.081140e-06	-2.463973e-09	-3.600470e+01	-1.614766e+02
4.300000e-07	-5.064101e-06	-2.536889e-09	-3.588397e+01	-1.613590e+02
4.400000e-07	-5.046806e-06	-2.561087e-09	-3.576141e+01	-1.612279e+02
4.500000e-07	-5.029231e-06	-2.501560e-09	-3.563688e+01	-1.610845e+02
4.600000e-07	-5.011268e-06	-2.490866e-09	-3.550959e+01	-1.609303e+02
4.700000e-07	-4.992954e-06	-2.545232e-09	-3.537982e+01	-1.607667e+02
4.800000e-07	-4.974248e-06	-2.519292e-09	-3.524727e+01	-1.605951e+02
4.900000e-07	-4.955088e-06	-2.494543e-09	-3.511150e+01	-1.604171e+02
5.000000e-07	-4.935599e-06	-2.491830e-09	-3.497340e+01	-1.602339e+02
5.100000e-07	-4.915892e-06	-2.500323e-09	-3.483376e+01	-1.600470e+02
5.200000e-07	-4.895914e-06	-2.506749e-09	-3.469220e+01	-1.598576e+02
5.300000e-07	-4.875602e-06	-2.520069e-09	-3.454827e+01	-1.596669e+02
5.400000e-07	-4.854981e-06	-2.489835e-09	-3.440215e+01	-1.594759e+02
5.500000e-07	-4.834149e-06	-2.483901e-09	-3.425454e+01	-1.592854e+02
5.600000e-07	-4.813012e-06	-2.501808e-09	-3.410476e+01	-1.590962e+02
5.700000e-07	-4.791522e-06	-2.498311e-09	-3.395248e+01	-1.589088e+02
5.800000e-07	-4.769709e-06	-2.470859e-09	-3.379792e+01	-1.587237e+02
5.900000e-07	-4.747530e-06	-2.468182e-09	-3.364076e+01	-1.585411e+02
6.000000e-07	-4.725006e-06	-2.474181e-09	-3.348116e+01	-1.583611e+02
6.100000e-07	-4.702140e-06	-2.479056e-09	-3.331913e+01	-1.581835e+02
6.200000e-07	-4.678966e-06	-2.471562e-09	-3.315492e+01	-1.580083e+02
6.300000e-07	-4.655495e-06	-2.450584e-09	-3.298860e+01	-1.578350e+02
6.400000e-07	-4.631766e-06	-2.453753e-09	-3.282046e+01	-1.576634e+02
6.500000e-07	-4.607801e-06	-2.473426e-09	-3.265064e+01	-1.574927e+02
6.600000e-07	-4.583605e-06	-2.466601e-09	-3.247920e+01	-1.573226e+02
6.700000e-07	-4.559193e-06	-2.442195e-09	-3.230621e+01	-1.571523e+02
6.800000e-07	-4.534410e-06	-2.446482e-09	-3.213060e+01	-1.569812e+02
6.900000e-07	-4.509143e-06	-2.453730e-09	-3.195156e+01	-1.568087e+02
7.000000e-07	-4.483320e-06	-2.450472e-09	-3.176858e+01	-1.566341e+02
7.100000e-07	-4.456935e-06	-2.433973e-09	-3.158162e+01	-1.564567e+02
7.200000e-07	-4.430109e-06	-2.430557e-09	-3.139153e+01	-1.562761e+02
7.300000e-07	-4.402858e-06	-2.435605e-09	-3.119843e+01	-1.560916e+02
7.400000e-07	-4.375242e-06	-2.446528e-09	-3.100274e+01	-1.559029e+02
7.500000e-07	-4.347386e-06	-2.431158e-09	-3.080536e+01	-1.557096e+02
7.600000e-07	-4.319332e-06	-2.418279e-09	-3.060657e+01	-1.555114e+02
7.700000e-07	-4.291118e-06	-2.416045e-09	-3.040665e+01	-1.553082e+02
7.800000e-07	-4.262707e-06	-2.419658e-09	-3.020533e+01	-1.550997e+02
7.900000e-07	-4.234001e-06	-2.406133e-09	-3.000192e+01	-1.548861e+02
8.000000e-07	-4.205000e-06	-2.398346e-09	-2.979642e+01	-1.546674e+02
8.100000e-07	-4.175677e-06	-2.398197e-09	-2.958864e+01	-1.544436e+02
8.200000e-07	-4.145983e-06	-2.409076e-09	-2.937823e+01	-1.542151e+02
8.300000e-07	-4.115961e-06	-2.406639e-09	-2.916549e+01	-1.539821e+02
8.400000e-07	-4.085737e-06	-2.392764e-09	-2.895133e+01	-1.537448e+02
8.500000e-07	-4.055305e-06	-2.380547e-09	-2.873568e+01	-1.535036e+02
8.600000e-07	-4.024676e-06	-2.380648e-09	-2.851865e+01	-1.532589e+02
8.700000e-07	-3.993857e-06	-2.374354e-09	-2.830027e+01	-1.530109e+02
8.800000e-07	-3.962716e-06	-2.361645e-09	-2.807961e+01	-1.527601e+02
8.900000e-07	-3.931224e-06	-2.353188e-09	-2.785645e+01	-1.525067e+02
9.000000e-07	-3.899470e-06	-2.362093e-09	-2.763145e+01	-1.522509e+02
9.100000e-07	-3.867570e-06	-2.372296e-09	-2.740541e+01	-1.519930e+02
9.200000e-07	-3.835498e-06	-2.363958e-09	-2.717814e+01	-1.517332e+02
9.300000e-07	-3.803279e-06	-2.344971e-09	-2.694985e+01	-1.514716e+02
9.400000e-07	-3.770877e-06	-2.333121e-09	-2.672024e+01	-1.512081e+02
9.500000e-07	-3.738191e-06	-2.330942e-09	-2.648863e+01	-1.509429e+02
9.600000e-07	-3.705152e-06	-2.323994e-09	-2.625452e+01	-1.506756e+02
9.700000e-07	-3.671574e-06	-2.315278e-09	-2.601659e+01	-1.504063e+02
9.800000e-07	-3.637476e-06	-2.312592e-09	-2.577497e+01	-1.501346e+02
9.900000e-07	-3.603004e-06	-2.316901e-09	-2.553070e+01	-1.498604e+02
1.000000e-06	-3.568099e-06	-2.310315e-09	-2.528337e+01	-1.495831e+02
1.010000e-06	-3.532856e-06	-2.296790e-09	-2.503364e+01	-1.493025e+02
1.020000e-06	-3.497460e-06	-2.281101e-09	-2.478282e+01	-1.490182e+02
1.030000e-06	-3.461857e-06	-2.274154e-09	-2.453054e+01	-1.487297e+02
1.040000e-06	-3.426043e-06	-2.269227e-09	-2.427677e+01	-1.484366e+02
1.050000e-06	-3.390099e-06	-2.267738e-09	-2.402207e+01	-1.481386e+02
1.060000e-06	-3.354015e-06	-2.265454e-09	-2.376638e+01	-1.478351e+02
1.070000e-06	-3.317671e-06	-2.266399e-09	-2.350885e+01	-1.475258e+02
1.080000e-06	-3.281023e-06	-2.261022e-09	-2.324917e+01	-1.472104e+02
1.090000e-06	-3.244211e-06	-2.248666e-09	-2.298831e+01	-1.468885e+02
1.100000e-06	-3.207260e-06	-2.234577e-09	-2.272648e+01	-1.465600e+02
1.110000e-06	-3.170049e-06	-2.228967e-09	-2.246281e+01	-1.462246e+02
1.120000e-06	-3.132572e-06	-2.224154e-09	-2.219725e+01	-1.458822e+02
1.130000e-06	-3.094861e-06	-2.216906e-09	-2.193003e+01	-1.455328e+02
1.140000e-06	-3.056966e-06	-2.208322e-09	-2.166151e+01	-1.451764e+02
1.150000e-06	-3.018917e-06	-2.206484e-09	-2.139189e+01	-1.448130e+02
1.160000e-06	-2.980622e-06	-2.201559e-09	-2.112053e+01	-1.444428e+02
1.170000e-06	-2.942076e-06	-2.192255e-09	-2.084740e+01	-1.440659e+02
1.180000e-06	-2.903327e-06	-2.180009e-09	-2.057283e+01	-1.436826e+02
1.190000e-06	-2.864476e-06	-2.173000e-09	-2.029753e+01	-1.432930e+02
1.200000e-06	-2.825436e-06	-2.170452e-09	-2.002090e+01	-1.428976e+02
1.210000e-06	-2.786152e-06	-2.166085e-09	-1.974253e+01	-1.424965e+02
1.220000e-06	-2.746715e-06	-2.158873e-09	-1.946308e+01	-1.420901e+02
1.230000e-06	-2.707112e-06	-2.151531e-09	-1.918246e+01	-1.416786e+02
1.240000e-06	-2.667348e-06	-2.145646e-09	-1.890069e+01	-1.412623e+02
1.250000e-06	-2.627482e-06	-2.135884e-09	-1.861820e+01	-1.408414e+02
1.260000e-06	-2.587543e-06	-2.125313e-09	-1.833520e+01	-1.404160e+02
1.270000e-06	-2.547480e-06	-2.116055e-09	-1.805132e+01	-1.399863e+02
1.280000e-06	-2.507301e-06	-2.111171e-09	-1.776661e+01	-1.395524e+02
1.290000e-06	-2.466930e-06	-2.108216e-09	-1.748054e+01	-1.391141e+02
1.300000e-06	-2.426373e-06	-2.100891e-09	-1.719316e+01	-1.386715e+02
1.310000e-06	-2.385665e-06	-2.090015e-09	-1.690470e+01	-1.382243e+02
1.320000e-06	-2.344716e-06	-2.084227e-09	-1.661454e+01	-1.377724e+02
1.330000e-06	-2.303458e-06	-2.078832e-09	-1.632219e+01	-1.373153e+02
1.340000e-06	-2.261928e-06	-2.071430e-09	-1.602791e+01	-1.368527e+02
1.350000e-06	-2.220222e-06	-2.062156e-09	-1.573238e+01	-1.363841e+02
1.360000e-06	-2.178170e-06	-2.055139e-09	-1.543440e+01	-1.359090e+02
1.370000e-06	-2.135722e-06	-2.048167e-09	-1.513362e+01	-1.354268e+02
1.380000e-06	-2.093016e-06	-2.041265e-09	-1.483101e+01	-1.349368e+02
1.390000e-06	-2.050074e-06	-2.032624e-09	-1.452672e+01	-1.344385e+02
1.400000e-06	-2.007021e-06	-2.025986e-09	-1.422165e+01	-1.339311e+02
1.410000e-06	-1.963935e-06	-2.020510e-09	-1.391635e+01	-1.334138e+02
1.420000e-06	-1.920695e-06	-2.014100e-09	-1.360995e+01	-1.328861e+02
1.430000e-06	-1.877203e-06	-2.000925e-09	-1.330176e+01	-1.323471e+02
1.440000e-06	-1.833578e-06	-1.985424e-09	-1.299264e+01	-1.317963e+02
1.450000e-06	-1.789898e-06	-1.972968e-09	-1.268313e+01	-1.312329e+02
1.460000e-06	-1.746131e-06	-1.965623e-09	-1.237300e+01	-1.306564e+02
1.470000e-06	-1.702299e-06	-1.956750e-09	-1.206240e+01	-1.300662e+02
1.480000e-06	-1.658391e-06	-1.944316e-09	-1.175127e+01	-1.294617e+02
1.490000e-06	-1.614383e-06	-1.933327e-09	-1.143944e+01	-1.288425e+02
1.500000e-06	-1.570220e-06	-1.927186e-09	-1.112650e+01	-1.282081e+02
1.510000e-06	-1.525931e-06	-1.920456e-09	-1.081267e+01	-1.275582e+02
1.520000e-06	-1.481661e-06	-1.909724e-09	-1.049897e+01	-1.268925e+02
1.530000e-06	-1.437404e-06	-1.896275e-09	-1.018538e+01	-1.262106e+02
1.540000e-06	-1.392980e-06	-1.883137e-09	-9.870589e+00	-1.255123e+02
1.550000e-06	-1.348416e-06	-1.870244e-09	-9.554810e+00	-1.247974e+02
1.560000e-06	-1.303835e-06	-1.856013e-09	-9.238908e+00	-1.240656e+02
1.570000e-06	-1.259207e-06	-1.842216e-09	-8.922680e+00	-1.233167e+02
1.580000e-06	-1.214457e-06	-1.829726e-09	-8.605584e+00	-1.225506e+02
1.590000e-06	-1.169604e-06	-1.820589e-09	-8.287757e+00	-1.217670e+02
1.600000e-06	-1.124732e-06	-1.811401e-09	-7.969796e+00	-1.209656e+02
1.610000e-06	-1.079720e-06	-1.797033e-09	-7.650841e+00	-1.201460e+02
1.620000e-06	-1.034523e-06	-1.778273e-09	-7.330576e+00	-1.193080e+02
1.630000e-06	-9.892486e-07	-1.762096e-09	-7.009765e+00	-1.184510e+02
1.640000e-06	-9.439205e-07	-1.746188e-09	-6.688573e+00	-1.175745e+02
1.650000e-06	-8.984798e-07	-1.730269e-09	-6.366583e+00	-1.166779e+02
1.660000e-06	-8.529513e-07	-1.715822e-09	-6.043970e+00	-1.157604e+02
1.670000e-06	-8.073844e-07	-1.704600e-09	-5.721085e+00	-1.148213e+02
1.680000e-06	-7.617940e-07	-1.694372e-09	-5.398034e+00	-1.138596e+02
1.690000e-06	-7.162385e-07	-1.678961e-09	-5.075230e+00	-1.128743e+02
1.700000e-06	-6.706274e-07	-1.656948e-09	-4.752032e+00	-1.118642e+02
1.710000e-06	-6.249384e-07	-1.636697e-09	-4.428282e+00	-1.108280e+02
1.720000e-06	-5.792530e-07	-1.619408e-09	-4.104557e+00	-1.097646e+02
1.730000e-06	-5.335274e-07	-1.600799e-09	-3.780548e+00	-1.086723e+02
1.740000e-06	-4.877423e-07	-1.580350e-09	-3.456118e+00	-1.075497e+02
1.750000e-06	-4.418961e-07	-1.564936e-09	-3.131253e+00	-1.063953e+02
1.760000e-06	-3.960386e-07	-1.554646e-09	-2.806309e+00	-1.052074e+02
1.770000e-06	-3.501897e-07	-1.541867e-09	-2.481427e+00	-1.039843e+02
1.780000e-06	-3.043309e-07	-1.519128e-09	-2.156473e+00	-1.027244e+02
1.790000e-06	-2.584854e-07	-1.492240e-09	-1.831615e+00	-1.014259e+02
1.800000e-06	-2.125377e-07	-1.468752e-09	-1.506031e+00	-1.000871e+02
1.810000e-06	-1.665522e-07	-1.447106e-09	-1.180180e+00	-9.870643e+01
1.820000e-06	-1.205945e-07	-1.427548e-09	-8.545265e-01	-9.728216e+01
1.830000e-06	-7.461468e-08	-1.410219e-09	-5.287159e-01	-9.581270e+01
1.840000e-06	-2.865690e-08	-1.392654e-09	-2.030614e-01	-9.429651e+01
1.850000e-06	1.728156e-08	-1.370394e-09	1.224562e-01	-9.273213e+01
1.860000e-06	6.325500e-08	-1.343434e-09	4.482217e-01	-9.111815e+01
1.870000e-06	1.092556e-07	-1.314385e-09	7.741797e-01	-8.945327e+01
1.880000e-06	1.552353e-07	-1.285951e-09	1.099989e+00	-8.773628e+01
1.890000e-06	2.012155e-07	-1.259356e-09	1.425803e+00	-8.596605e+01
1.900000e-06	2.471705e-07	-1.233091e-09	1.751438e+00	-8.414156e+01
1.910000e-06	2.930727e-07	-1.206399e-09	2.076698e+00	-8.226188e+01
1.920000e-06	3.389348e-07	-1.181611e-09	2.401675e+00	-8.032620e+01
1.930000e-06	3.847984e-07	-1.156502e-09	2.726662e+00	-7.833377e+01
1.940000e-06	4.306164e-07	-1.128376e-09	3.051326e+00	-7.628396e+01
1.950000e-06	4.764054e-07	-1.096867e-09	3.375785e+00	-7.417621e+01
1.960000e-06	5.221497e-07	-1.063562e-09	3.699926e+00	-7.201004e+01
1.970000e-06	5.678321e-07	-1.029542e-09	4.023629e+00	-6.978508e+01
1.980000e-06	6.134963e-07	-9.943227e-10	4.347204e+00	-6.750099e+01
1.990000e-06	6.591084e-07	-9.575071e-10	4.670409e+00	-6.515754e+01
2.000000e-06	7.046684e-07	-9.217433e-10	4.993244e+00	-6.275454e+01
2.010000e-06	7.501974e-07	-8.882207e-10	5.315861e+00	-6.029188e+01
2.020000e-06	7.957427e-07	-8.548399e-10	5.638593e+00	-5.776952e+01
2.030000e-06	8.412337e-07	-8.181613e-10	5.960939e+00	-5.518748e+01
2.040000e-06	8.865959e-07	-7.788617e-10	6.282374e+00	-5.254587e+01
2.050000e-06	9.318582e-07	-7.382801e-10	6.603101e+00	-4.984486e+01
2.060000e-06	9.770057e-07	-6.970004e-10	6.923013e+00	-4.708474e+01
2.070000e-06	1.022167e-06	-6.554980e-10	7.243020e+00	-4.426586e+01
2.080000e-06	1.067357e-06	-6.116946e-10	7.563239e+00	-4.138872e+01
2.090000e-06	1.112392e-06	-5.677761e-10	7.882351e+00	-3.845393e+01
2.100000e-06	1.157245e-06	-5.242369e-10	8.200177e+00	-3.546224e+01
2.110000e-06	1.201952e-06	-4.822980e-10	8.516972e+00	-3.241456e+01
2.120000e-06	1.246577e-06	-4.412444e-10	8.833181e+00	-2.931198e+01
2.130000e-06	1.291119e-06	-3.982569e-10	9.148804e+00	-2.615581e+01
2.140000e-06	1.335548e-06	-3.554514e-10	9.463626e+00	-2.294754e+01
2.150000e-06	1.379914e-06	-3.094820e-10	9.778002e+00	-1.968892e+01
2.160000e-06	1.424243e-06	-2.574614e-10	1.009211e+01	-1.638194e+01
2.170000e-06	1.468457e-06	-2.011068e-10	1.040541e+01	-1.302884e+01
2.180000e-06	1.512626e-06	-1.436755e-10	1.071839e+01	-9.632179e+00
2.190000e-06	1.556819e-06	-9.014496e-11	1.103154e+01	-6.194766e+00
2.200000e-06	1.600945e-06	-4.361878e-11	1.134421e+01	-2.719723e+00
2.210000e-06	1.644967e-06	1.942962e-12	1.165615e+01	7.895316e-01
2.220000e-06	1.688901e-06	5.059929e-11	1.196746e+01	4.329282e+00
2.230000e-06	1.732793e-06	1.034156e-10	1.227849e+01	7.895520e+00
2.240000e-06	1.776621e-06	1.601558e-10	1.258905e+01	1.148395e+01
2.250000e-06	1.820327e-06	2.208948e-10	1.289874e+01	1.509003e+01
2.260000e-06	1.863951e-06	2.823355e-10	1.320786e+01	1.870893e+01
2.270000e-06	1.907516e-06	3.401658e-10	1.351656e+01	2.233563e+01
2.280000e-06	1.950986e-06	3.919390e-10	1.382459e+01	2.596490e+01
2.290000e-06	1.994287e-06	4.391254e-10	1.413142e+01	2.959135e+01
2.300000e-06	2.037410e-06	4.874819e-10	1.443698e+01	3.320947e+01
2.310000e-06	2.080391e-06	5.395852e-10	1.474155e+01	3.681366e+01
2.320000e-06	2.123133e-06	5.947660e-10	1.504442e+01	4.039826e+01
2.330000e-06	2.165499e-06	6.521186e-10	1.534462e+01	4.395766e+01
2.340000e-06	2.207493e-06	7.101135e-10	1.564219e+01	4.748625e+01
2.350000e-06	2.249217e-06	7.641949e-10	1.593784e+01	5.097855e+01
2.360000e-06	2.290720e-06	8.128252e-10	1.623193e+01	5.442922e+01
2.370000e-06	2.331945e-06	8.578477e-10	1.652405e+01	5.783312e+01
2.380000e-06	2.372886e-06	9.027502e-10	1.681415e+01	6.118534e+01
2.390000e-06	2.413652e-06	9.483751e-10	1.710302e+01	6.448125e+01
2.400000e-06	2.454266e-06	9.954468e-10	1.739080e+01	6.771656e+01
2.410000e-06	2.494693e-06	1.044032e-09	1.767727e+01	7.088733e+01
2.420000e-06	2.534937e-06	1.093068e-09	1.796244e+01	7.399001e+01
2.430000e-06	2.575026e-06	1.140100e-09	1.824650e+01	7.702147e+01
2.440000e-06	2.614990e-06	1.181946e-09	1.852969e+01	7.997903e+01
2.450000e-06	2.654885e-06	1.218009e-09	1.881238e+01	8.286044e+01
2.460000e-06	2.694678e-06	1.252237e-09	1.909435e+01	8.566394e+01
2.470000e-06	2.734316e-06	1.287747e-09	1.937523e+01	8.838823e+01
2.480000e-06	2.773810e-06	1.325144e-09	1.965507e+01	9.103245e+01
2.490000e-06	2.813115e-06	1.361405e-09	1.993359e+01	9.359622e+01
2.500000e-06	2.852166e-06	1.396857e-09	2.021031e+01	9.607958e+01
2.510000e-06	2.890951e-06	1.431972e-09	2.048513e+01	9.848299e+01
2.520000e-06	2.929515e-06	1.466880e-09	2.075839e+01	1.008073e+02
2.530000e-06	2.967904e-06	1.500036e-09	2.103042e+01	1.030537e+02
2.540000e-06	3.006136e-06	1.530778e-09	2.130132e+01	1.052237e+02
2.550000e-06	3.044229e-06	1.561739e-09	2.157125e+01	1.073192e+02
2.560000e-06	3.082147e-06	1.593842e-09	2.183994e+01	1.093421e+02
2.570000e-06	3.119836e-06	1.622471e-09	2.210700e+01	1.112947e+02
2.580000e-06	3.157294e-06	1.646528e-09	2.237242e+01	1.131794e+02
2.590000e-06	3.194463e-06	1.669832e-09	2.263581e+01	1.149986e+02
2.600000e-06	3.231394e-06	1.693674e-09	2.289750e+01	1.167550e+02
2.610000e-06	3.268126e-06	1.719324e-09	2.315777e+01	1.184511e+02
2.620000e-06	3.304619e-06	1.743859e-09	2.341636e+01	1.200895e+02
2.630000e-06	3.340892e-06	1.766217e-09	2.367339e+01	1.216726e+02
2.640000e-06	3.377037e-06	1.788980e-09	2.392951e+01	1.232029e+02
2.650000e-06	3.413094e-06	1.811173e-09	2.418501e+01	1.246826e+02
2.660000e-06	3.448955e-06	1.830114e-09	2.443912e+01	1.261140e+02
2.670000e-06	3.484672e-06	1.845818e-09	2.469221e+01	1.274991e+02
2.680000e-06	3.520335e-06	1.861535e-09	2.494492e+01	1.288396e+02
2.690000e-06	3.555731e-06	1.878317e-09	2.519573e+01	1.301371e+02
2.700000e-06	3.590692e-06	1.895204e-09	2.544346e+01	1.313932e+02
2.710000e-06	3.625226e-06	1.912396e-09	2.568817e+01	1.326092e+02
2.720000e-06	3.659359e-06	1.931590e-09	2.593003e+01	1.337860e+02
2.730000e-06	3.693079e-06	1.954433e-09	2.616897e+01	1.349247e+02
2.740000e-06	3.726302e-06	1.975664e-09	2.640439e+01	1.360260e+02
2.750000e-06	3.759111e-06	1.991340e-09	2.663687e+01	1.370905e+02
2.760000e-06	3.791617e-06	2.001610e-09	2.686720e+01	1.381188e+02
2.770000e-06	3.823890e-06	2.010784e-09	2.709589e+01	1.391113e+02
2.780000e-06	3.855996e-06	2.022266e-09	2.732339e+01	1.400683e+02
2.790000e-06	3.887938e-06	2.035082e-09	2.754973e+01	1.409902e+02
2.800000e-06	3.919680e-06	2.048035e-09	2.777465e+01	1.418772e+02
2.810000e-06	3.951219e-06	2.061723e-09	2.799814e+01	1.427298e+02
2.820000e-06	3.982546e-06	2.076803e-09	2.822012e+01	1.435481e+02
2.830000e-06	4.013562e-06	2.089483e-09	2.843990e+01	1.443326e+02
2.840000e-06	4.044267e-06	2.099893e-09	2.865747e+01	1.450838e+02
2.850000e-06	4.074684e-06	2.111824e-09	2.887300e+01	1.458022e+02
2.860000e-06	4.104860e-06	2.124603e-09	2.908683e+01	1.464883e+02
2.870000e-06	4.134804e-06	2.136352e-09	2.929901e+01	1.471430e+02
2.880000e-06	4.164395e-06	2.148126e-09	2.950869e+01	1.477671e+02
2.890000e-06	4.193666e-06	2.157485e-09	2.971611e+01	1.483616e+02
2.900000e-06	4.222688e-06	2.164852e-09	2.992175e+01	1.489275e+02
