# Temperatura_=_-1.6
# Concentracion g/m^3_=_4090.0
# C_Vs_to_Am_M_A/Vsm_=_65563218390.804596
# pendiente_HvsI_1/m_=_3716.3
# ordenada_HvsI_A/m_=_1297.0
# frecuencia_Hz_=_135070.68213670692

Tiempo_(s)	Campo_(V.s)	Magnetizacion_(V.s)	Campo_(kA/m)	Magnetizacion_(A/m)
0.000000e+00	-5.434168e-06	-2.374067e-09	-3.839446e+01	-1.557821e+02
1.000000e-08	-5.434165e-06	-2.379067e-09	-3.839444e+01	-1.556798e+02
2.000000e-08	-5.433919e-06	-2.381802e-09	-3.839269e+01	-1.555782e+02
3.000000e-08	-5.433292e-06	-2.380915e-09	-3.838827e+01	-1.554791e+02
4.000000e-08	-5.432181e-06	-2.379073e-09	-3.838041e+01	-1.553841e+02
5.000000e-08	-5.430644e-06	-2.385241e-09	-3.836956e+01	-1.552949e+02
6.000000e-08	-5.428526e-06	-2.406512e-09	-3.835459e+01	-1.552129e+02
7.000000e-08	-5.425690e-06	-2.383079e-09	-3.833455e+01	-1.551397e+02
8.000000e-08	-5.422345e-06	-2.280735e-09	-3.831092e+01	-1.550765e+02
9.000000e-08	-5.418618e-06	-2.287507e-09	-3.828459e+01	-1.550245e+02
1.000000e-07	-5.414502e-06	-2.475163e-09	-3.825551e+01	-1.549846e+02
1.100000e-07	-5.410099e-06	-2.497348e-09	-3.822440e+01	-1.549575e+02
1.200000e-07	-5.405478e-06	-2.306272e-09	-3.819175e+01	-1.549437e+02
1.300000e-07	-5.400577e-06	-2.252353e-09	-3.815712e+01	-1.549436e+02
1.400000e-07	-5.395340e-06	-2.483005e-09	-3.812012e+01	-1.549571e+02
1.500000e-07	-5.389732e-06	-2.523090e-09	-3.808050e+01	-1.549840e+02
1.600000e-07	-5.383774e-06	-2.237018e-09	-3.803840e+01	-1.550239e+02
1.700000e-07	-5.377419e-06	-2.186140e-09	-3.799350e+01	-1.550761e+02
1.800000e-07	-5.370556e-06	-2.441016e-09	-3.794501e+01	-1.551396e+02
1.900000e-07	-5.363236e-06	-2.499238e-09	-3.789330e+01	-1.552135e+02
2.000000e-07	-5.355690e-06	-2.298834e-09	-3.783998e+01	-1.552964e+02
2.100000e-07	-5.347947e-06	-2.343106e-09	-3.778527e+01	-1.553868e+02
2.200000e-07	-5.339926e-06	-2.523865e-09	-3.772860e+01	-1.554832e+02
2.300000e-07	-5.331592e-06	-2.456908e-09	-3.766972e+01	-1.555838e+02
2.400000e-07	-5.322782e-06	-2.326825e-09	-3.760747e+01	-1.556869e+02
2.500000e-07	-5.313293e-06	-2.462234e-09	-3.754043e+01	-1.557906e+02
2.600000e-07	-5.303214e-06	-2.549283e-09	-3.746922e+01	-1.558930e+02
2.700000e-07	-5.292600e-06	-2.400767e-09	-3.739422e+01	-1.559924e+02
2.800000e-07	-5.281425e-06	-2.393737e-09	-3.731527e+01	-1.560869e+02
2.900000e-07	-5.269787e-06	-2.579653e-09	-3.723304e+01	-1.561748e+02
3.000000e-07	-5.257763e-06	-2.523024e-09	-3.714809e+01	-1.562544e+02
3.100000e-07	-5.245411e-06	-2.341571e-09	-3.706082e+01	-1.563243e+02
3.200000e-07	-5.232711e-06	-2.433632e-09	-3.697108e+01	-1.563830e+02
3.300000e-07	-5.219665e-06	-2.554104e-09	-3.687891e+01	-1.564293e+02
3.400000e-07	-5.206173e-06	-2.439799e-09	-3.678359e+01	-1.564622e+02
3.500000e-07	-5.192247e-06	-2.391888e-09	-3.668519e+01	-1.564809e+02
3.600000e-07	-5.177960e-06	-2.493370e-09	-3.658425e+01	-1.564846e+02
3.700000e-07	-5.163228e-06	-2.464801e-09	-3.648016e+01	-1.564730e+02
3.800000e-07	-5.147860e-06	-2.396901e-09	-3.637158e+01	-1.564457e+02
3.900000e-07	-5.131897e-06	-2.451746e-09	-3.625880e+01	-1.564026e+02
4.000000e-07	-5.115520e-06	-2.446096e-09	-3.614309e+01	-1.563440e+02
4.100000e-07	-5.098782e-06	-2.370219e-09	-3.602482e+01	-1.562700e+02
4.200000e-07	-5.081716e-06	-2.432860e-09	-3.590425e+01	-1.561812e+02
4.300000e-07	-5.064364e-06	-2.487296e-09	-3.578165e+01	-1.560782e+02
4.400000e-07	-5.046713e-06	-2.402641e-09	-3.565694e+01	-1.559616e+02
4.500000e-07	-5.028779e-06	-2.371371e-09	-3.553023e+01	-1.558324e+02
4.600000e-07	-5.010498e-06	-2.440369e-09	-3.540107e+01	-1.556915e+02
4.700000e-07	-4.991743e-06	-2.426579e-09	-3.526855e+01	-1.555399e+02
4.800000e-07	-4.972541e-06	-2.378494e-09	-3.513289e+01	-1.553787e+02
4.900000e-07	-4.952981e-06	-2.383634e-09	-3.499468e+01	-1.552090e+02
5.000000e-07	-4.933178e-06	-2.402020e-09	-3.485477e+01	-1.550319e+02
5.100000e-07	-4.913217e-06	-2.412967e-09	-3.471374e+01	-1.548484e+02
5.200000e-07	-4.893091e-06	-2.424428e-09	-3.457154e+01	-1.546597e+02
5.300000e-07	-4.872661e-06	-2.388237e-09	-3.442719e+01	-1.544668e+02
5.400000e-07	-4.851837e-06	-2.367910e-09	-3.428007e+01	-1.542706e+02
5.500000e-07	-4.830712e-06	-2.396238e-09	-3.413081e+01	-1.540719e+02
5.600000e-07	-4.809307e-06	-2.390890e-09	-3.397958e+01	-1.538717e+02
5.700000e-07	-4.787550e-06	-2.349524e-09	-3.382585e+01	-1.536706e+02
5.800000e-07	-4.765451e-06	-2.352972e-09	-3.366972e+01	-1.534692e+02
5.900000e-07	-4.742975e-06	-2.376733e-09	-3.351091e+01	-1.532680e+02
6.000000e-07	-4.720137e-06	-2.383269e-09	-3.334956e+01	-1.530675e+02
6.100000e-07	-4.697001e-06	-2.376596e-09	-3.318609e+01	-1.528679e+02
6.200000e-07	-4.673573e-06	-2.355842e-09	-3.302057e+01	-1.526695e+02
6.300000e-07	-4.649898e-06	-2.351340e-09	-3.285329e+01	-1.524723e+02
6.400000e-07	-4.626019e-06	-2.376277e-09	-3.268458e+01	-1.522765e+02
6.500000e-07	-4.601907e-06	-2.369210e-09	-3.251422e+01	-1.520818e+02
6.600000e-07	-4.577544e-06	-2.328595e-09	-3.234209e+01	-1.518883e+02
6.700000e-07	-4.552862e-06	-2.327687e-09	-3.216770e+01	-1.516958e+02
6.800000e-07	-4.527703e-06	-2.353858e-09	-3.198994e+01	-1.515040e+02
6.900000e-07	-4.501976e-06	-2.356653e-09	-3.180817e+01	-1.513126e+02
7.000000e-07	-4.475610e-06	-2.340014e-09	-3.162188e+01	-1.511213e+02
7.100000e-07	-4.448720e-06	-2.336257e-09	-3.143189e+01	-1.509299e+02
7.200000e-07	-4.421454e-06	-2.346724e-09	-3.123925e+01	-1.507379e+02
7.300000e-07	-4.393822e-06	-2.353986e-09	-3.104402e+01	-1.505451e+02
7.400000e-07	-4.366001e-06	-2.332300e-09	-3.084745e+01	-1.503512e+02
7.500000e-07	-4.338067e-06	-2.308579e-09	-3.065009e+01	-1.501557e+02
7.600000e-07	-4.309904e-06	-2.311718e-09	-3.045110e+01	-1.499584e+02
7.700000e-07	-4.281486e-06	-2.324174e-09	-3.025032e+01	-1.497590e+02
7.800000e-07	-4.252797e-06	-2.313606e-09	-3.004762e+01	-1.495573e+02
7.900000e-07	-4.223773e-06	-2.300377e-09	-2.984256e+01	-1.493530e+02
8.000000e-07	-4.194425e-06	-2.303423e-09	-2.963520e+01	-1.491459e+02
8.100000e-07	-4.164755e-06	-2.315271e-09	-2.942557e+01	-1.489359e+02
8.200000e-07	-4.134811e-06	-2.312452e-09	-2.921401e+01	-1.487228e+02
8.300000e-07	-4.104667e-06	-2.294089e-09	-2.900103e+01	-1.485066e+02
8.400000e-07	-4.074328e-06	-2.278913e-09	-2.878667e+01	-1.482871e+02
8.500000e-07	-4.043720e-06	-2.280628e-09	-2.857041e+01	-1.480642e+02
8.600000e-07	-4.012776e-06	-2.279429e-09	-2.835178e+01	-1.478381e+02
8.700000e-07	-3.981547e-06	-2.267207e-09	-2.813114e+01	-1.476085e+02
8.800000e-07	-3.950080e-06	-2.258735e-09	-2.790881e+01	-1.473756e+02
8.900000e-07	-3.918406e-06	-2.270354e-09	-2.768502e+01	-1.471393e+02
9.000000e-07	-3.886589e-06	-2.281399e-09	-2.746023e+01	-1.468998e+02
9.100000e-07	-3.854654e-06	-2.269748e-09	-2.723459e+01	-1.466569e+02
9.200000e-07	-3.822564e-06	-2.246575e-09	-2.700787e+01	-1.464107e+02
9.300000e-07	-3.790228e-06	-2.233922e-09	-2.677940e+01	-1.461614e+02
9.400000e-07	-3.757492e-06	-2.233881e-09	-2.654810e+01	-1.459088e+02
9.500000e-07	-3.724318e-06	-2.231257e-09	-2.631372e+01	-1.456532e+02
9.600000e-07	-3.690731e-06	-2.225457e-09	-2.607641e+01	-1.453944e+02
9.700000e-07	-3.656774e-06	-2.227419e-09	-2.583649e+01	-1.451326e+02
9.800000e-07	-3.622386e-06	-2.233655e-09	-2.559353e+01	-1.448678e+02
9.900000e-07	-3.587529e-06	-2.225643e-09	-2.534725e+01	-1.446000e+02
1.000000e-06	-3.552253e-06	-2.206593e-09	-2.509802e+01	-1.443293e+02
1.010000e-06	-3.516699e-06	-2.189212e-09	-2.484681e+01	-1.440557e+02
1.020000e-06	-3.481024e-06	-2.183009e-09	-2.459475e+01	-1.437793e+02
1.030000e-06	-3.445221e-06	-2.181709e-09	-2.434179e+01	-1.434999e+02
1.040000e-06	-3.409337e-06	-2.182384e-09	-2.408826e+01	-1.432178e+02
1.050000e-06	-3.373291e-06	-2.182713e-09	-2.383358e+01	-1.429329e+02
1.060000e-06	-3.336962e-06	-2.183948e-09	-2.357690e+01	-1.426452e+02
1.070000e-06	-3.300395e-06	-2.178953e-09	-2.331854e+01	-1.423548e+02
1.080000e-06	-3.263667e-06	-2.163808e-09	-2.305905e+01	-1.420616e+02
1.090000e-06	-3.226744e-06	-2.143083e-09	-2.279817e+01	-1.417658e+02
1.100000e-06	-3.189547e-06	-2.132354e-09	-2.253536e+01	-1.414671e+02
1.110000e-06	-3.152040e-06	-2.128994e-09	-2.227036e+01	-1.411658e+02
1.120000e-06	-3.114259e-06	-2.124462e-09	-2.200342e+01	-1.408617e+02
1.130000e-06	-3.076278e-06	-2.118934e-09	-2.173507e+01	-1.405548e+02
1.140000e-06	-3.038093e-06	-2.119896e-09	-2.146528e+01	-1.402451e+02
1.150000e-06	-2.999762e-06	-2.122726e-09	-2.119445e+01	-1.399324e+02
1.160000e-06	-2.961230e-06	-2.118534e-09	-2.092221e+01	-1.396167e+02
1.170000e-06	-2.922501e-06	-2.106845e-09	-2.064858e+01	-1.392979e+02
1.180000e-06	-2.883556e-06	-2.094609e-09	-2.037341e+01	-1.389758e+02
1.190000e-06	-2.844348e-06	-2.084263e-09	-2.009640e+01	-1.386502e+02
1.200000e-06	-2.804975e-06	-2.072301e-09	-1.981821e+01	-1.383209e+02
1.210000e-06	-2.765451e-06	-2.060832e-09	-1.953896e+01	-1.379878e+02
1.220000e-06	-2.725727e-06	-2.058242e-09	-1.925829e+01	-1.376504e+02
1.230000e-06	-2.685850e-06	-2.065372e-09	-1.897655e+01	-1.373085e+02
1.240000e-06	-2.645914e-06	-2.070940e-09	-1.869438e+01	-1.369619e+02
1.250000e-06	-2.605912e-06	-2.068623e-09	-1.841175e+01	-1.366100e+02
1.260000e-06	-2.565839e-06	-2.058551e-09	-1.812863e+01	-1.362526e+02
1.270000e-06	-2.525639e-06	-2.047400e-09	-1.784460e+01	-1.358893e+02
1.280000e-06	-2.485247e-06	-2.036687e-09	-1.755921e+01	-1.355196e+02
1.290000e-06	-2.444667e-06	-2.025752e-09	-1.727250e+01	-1.351431e+02
1.300000e-06	-2.403964e-06	-2.014122e-09	-1.698492e+01	-1.347593e+02
1.310000e-06	-2.363089e-06	-2.009115e-09	-1.669612e+01	-1.343679e+02
1.320000e-06	-2.321964e-06	-2.010742e-09	-1.640555e+01	-1.339683e+02
1.330000e-06	-2.280454e-06	-2.011571e-09	-1.611227e+01	-1.335602e+02
1.340000e-06	-2.238485e-06	-2.007921e-09	-1.581574e+01	-1.331431e+02
1.350000e-06	-2.196213e-06	-1.999216e-09	-1.551708e+01	-1.327166e+02
1.360000e-06	-2.153702e-06	-1.987736e-09	-1.521672e+01	-1.322803e+02
1.370000e-06	-2.110928e-06	-1.974883e-09	-1.491451e+01	-1.318339e+02
1.380000e-06	-2.067903e-06	-1.961016e-09	-1.461052e+01	-1.313770e+02
1.390000e-06	-2.024702e-06	-1.951190e-09	-1.430529e+01	-1.309094e+02
1.400000e-06	-1.981370e-06	-1.947206e-09	-1.399913e+01	-1.304308e+02
1.410000e-06	-1.937897e-06	-1.947961e-09	-1.369198e+01	-1.299410e+02
1.420000e-06	-1.894278e-06	-1.947186e-09	-1.338379e+01	-1.294397e+02
1.430000e-06	-1.850524e-06	-1.939998e-09	-1.307465e+01	-1.289268e+02
1.440000e-06	-1.806647e-06	-1.924948e-09	-1.276464e+01	-1.284021e+02
1.450000e-06	-1.762692e-06	-1.909615e-09	-1.245409e+01	-1.278656e+02
1.460000e-06	-1.718736e-06	-1.898399e-09	-1.214352e+01	-1.273171e+02
1.470000e-06	-1.674737e-06	-1.888048e-09	-1.183265e+01	-1.267566e+02
1.480000e-06	-1.630668e-06	-1.877717e-09	-1.152129e+01	-1.261839e+02
1.490000e-06	-1.586569e-06	-1.870735e-09	-1.120971e+01	-1.255989e+02
1.500000e-06	-1.542368e-06	-1.866989e-09	-1.089742e+01	-1.250016e+02
1.510000e-06	-1.498102e-06	-1.860974e-09	-1.058466e+01	-1.243919e+02
1.520000e-06	-1.453848e-06	-1.850038e-09	-1.027199e+01	-1.237694e+02
1.530000e-06	-1.409473e-06	-1.837890e-09	-9.958461e+00	-1.231342e+02
1.540000e-06	-1.364891e-06	-1.824589e-09	-9.643475e+00	-1.224859e+02
1.550000e-06	-1.320132e-06	-1.810600e-09	-9.327232e+00	-1.218242e+02
1.560000e-06	-1.275282e-06	-1.797530e-09	-9.010348e+00	-1.211487e+02
1.570000e-06	-1.230375e-06	-1.785210e-09	-8.693068e+00	-1.204590e+02
1.580000e-06	-1.185361e-06	-1.776240e-09	-8.375026e+00	-1.197546e+02
1.590000e-06	-1.140360e-06	-1.766795e-09	-8.057074e+00	-1.190348e+02
1.600000e-06	-1.095307e-06	-1.753373e-09	-7.738759e+00	-1.182990e+02
1.610000e-06	-1.050040e-06	-1.736484e-09	-7.418927e+00	-1.175464e+02
1.620000e-06	-1.004646e-06	-1.722927e-09	-7.098206e+00	-1.167761e+02
1.630000e-06	-9.592155e-07	-1.712128e-09	-6.777221e+00	-1.159872e+02
1.640000e-06	-9.138121e-07	-1.697548e-09	-6.456429e+00	-1.151786e+02
1.650000e-06	-8.683020e-07	-1.680424e-09	-6.134883e+00	-1.143493e+02
1.660000e-06	-8.226208e-07	-1.667177e-09	-5.812127e+00	-1.134980e+02
1.670000e-06	-7.768624e-07	-1.656538e-09	-5.488827e+00	-1.126235e+02
1.680000e-06	-7.311685e-07	-1.641148e-09	-5.165983e+00	-1.117245e+02
1.690000e-06	-6.855173e-07	-1.620507e-09	-4.843440e+00	-1.107996e+02
1.700000e-06	-6.398032e-07	-1.601403e-09	-4.520452e+00	-1.098474e+02
1.710000e-06	-5.940498e-07	-1.587420e-09	-4.197187e+00	-1.088665e+02
1.720000e-06	-5.482460e-07	-1.573952e-09	-3.873566e+00	-1.078554e+02
1.730000e-06	-5.023855e-07	-1.554730e-09	-3.549544e+00	-1.068126e+02
1.740000e-06	-4.565032e-07	-1.535666e-09	-3.225368e+00	-1.057367e+02
1.750000e-06	-4.106172e-07	-1.522327e-09	-2.901166e+00	-1.046262e+02
1.760000e-06	-3.646766e-07	-1.510636e-09	-2.576579e+00	-1.034796e+02
1.770000e-06	-3.186559e-07	-1.492055e-09	-2.251424e+00	-1.022955e+02
1.780000e-06	-2.725655e-07	-1.468599e-09	-1.925778e+00	-1.010725e+02
1.790000e-06	-2.264695e-07	-1.446992e-09	-1.600093e+00	-9.980914e+01
1.800000e-06	-1.803543e-07	-1.427357e-09	-1.274271e+00	-9.850416e+01
1.810000e-06	-1.341896e-07	-1.408110e-09	-9.481001e-01	-9.715620e+01
1.820000e-06	-8.810244e-08	-1.386765e-09	-6.224772e-01	-9.576397e+01
1.830000e-06	-4.211447e-08	-1.365334e-09	-2.975547e-01	-9.432622e+01
1.840000e-06	3.849524e-09	-1.343930e-09	2.719835e-02	-9.284172e+01
1.850000e-06	4.989270e-08	-1.322189e-09	3.525108e-01	-9.130929e+01
1.860000e-06	9.601454e-08	-1.297322e-09	6.783791e-01	-8.972776e+01
1.870000e-06	1.421368e-07	-1.270291e-09	1.004250e+00	-8.809596e+01
1.880000e-06	1.882497e-07	-1.244569e-09	1.330055e+00	-8.641278e+01
1.890000e-06	2.342783e-07	-1.218970e-09	1.655265e+00	-8.467708e+01
1.900000e-06	2.802844e-07	-1.191220e-09	1.980316e+00	-8.288774e+01
1.910000e-06	3.263690e-07	-1.162551e-09	2.305921e+00	-8.104365e+01
1.920000e-06	3.724205e-07	-1.135305e-09	2.631292e+00	-7.914369e+01
1.930000e-06	4.184211e-07	-1.107855e-09	2.956304e+00	-7.718676e+01
1.940000e-06	4.644231e-07	-1.078447e-09	3.281325e+00	-7.517172e+01
1.950000e-06	5.103255e-07	-1.048333e-09	3.605643e+00	-7.309748e+01
1.960000e-06	5.561122e-07	-1.017712e-09	3.929143e+00	-7.096292e+01
1.970000e-06	6.019661e-07	-9.867020e-10	4.253118e+00	-6.876695e+01
1.980000e-06	6.478384e-07	-9.535874e-10	4.577224e+00	-6.650852e+01
1.990000e-06	6.935631e-07	-9.202545e-10	4.900286e+00	-6.418660e+01
2.000000e-06	7.392552e-07	-8.875075e-10	5.223118e+00	-6.180020e+01
2.010000e-06	7.848984e-07	-8.544351e-10	5.545604e+00	-5.934843e+01
2.020000e-06	8.304903e-07	-8.205401e-10	5.867729e+00	-5.683048e+01
2.030000e-06	8.760831e-07	-7.837414e-10	6.189859e+00	-5.424563e+01
2.040000e-06	9.216208e-07	-7.446438e-10	6.511600e+00	-5.159332e+01
2.050000e-06	9.670210e-07	-7.042111e-10	6.832370e+00	-4.887316e+01
2.060000e-06	1.012340e-06	-6.622146e-10	7.152565e+00	-4.608491e+01
2.070000e-06	1.057545e-06	-6.191034e-10	7.471953e+00	-4.322858e+01
2.080000e-06	1.102592e-06	-5.765435e-10	7.790227e+00	-4.030442e+01
2.090000e-06	1.147615e-06	-5.334142e-10	8.108337e+00	-3.731293e+01
2.100000e-06	1.192640e-06	-4.912576e-10	8.426454e+00	-3.425491e+01
2.110000e-06	1.237532e-06	-4.484637e-10	8.743633e+00	-3.113150e+01
2.120000e-06	1.282268e-06	-4.038288e-10	9.059713e+00	-2.794416e+01
2.130000e-06	1.326918e-06	-3.564655e-10	9.375175e+00	-2.469471e+01
2.140000e-06	1.371431e-06	-3.051619e-10	9.689683e+00	-2.138537e+01
2.150000e-06	1.415887e-06	-2.527157e-10	1.000378e+01	-1.801871e+01
2.160000e-06	1.460332e-06	-2.020672e-10	1.031780e+01	-1.459773e+01
2.170000e-06	1.504702e-06	-1.511618e-10	1.063129e+01	-1.112580e+01
2.180000e-06	1.548966e-06	-9.815697e-11	1.094403e+01	-7.606698e+00
2.190000e-06	1.593158e-06	-4.474799e-11	1.125627e+01	-4.044585e+00
2.200000e-06	1.637248e-06	9.299269e-12	1.156778e+01	-4.439948e-01
2.210000e-06	1.681248e-06	6.735537e-11	1.187865e+01	3.190189e+00
2.220000e-06	1.725197e-06	1.268063e-10	1.218917e+01	6.852751e+00
2.230000e-06	1.769056e-06	1.857953e-10	1.249905e+01	1.053818e+01
2.240000e-06	1.812860e-06	2.429390e-10	1.280855e+01	1.424071e+01
2.250000e-06	1.856608e-06	2.972708e-10	1.311764e+01	1.795432e+01
2.260000e-06	1.900246e-06	3.508869e-10	1.342596e+01	2.167286e+01
2.270000e-06	1.943721e-06	4.051596e-10	1.373313e+01	2.539000e+01
2.280000e-06	1.987040e-06	4.595558e-10	1.403919e+01	2.909937e+01
2.290000e-06	2.030303e-06	5.168823e-10	1.434486e+01	3.279453e+01
2.300000e-06	2.073493e-06	5.766854e-10	1.465001e+01	3.646909e+01
2.310000e-06	2.116371e-06	6.318768e-10	1.495296e+01	4.011673e+01
2.320000e-06	2.158968e-06	6.839498e-10	1.525393e+01	4.373128e+01
2.330000e-06	2.201379e-06	7.342058e-10	1.555358e+01	4.730674e+01
2.340000e-06	2.243462e-06	7.821371e-10	1.585091e+01	5.083735e+01
2.350000e-06	2.285205e-06	8.276991e-10	1.614584e+01	5.431763e+01
2.360000e-06	2.326616e-06	8.747664e-10	1.643843e+01	5.774246e+01
2.370000e-06	2.367780e-06	9.265592e-10	1.672926e+01	6.110704e+01
2.380000e-06	2.408683e-06	9.803497e-10	1.701826e+01	6.440703e+01
2.390000e-06	2.449402e-06	1.030579e-09	1.730595e+01	6.763850e+01
2.400000e-06	2.489988e-06	1.075770e-09	1.759271e+01	7.079798e+01
2.410000e-06	2.530422e-06	1.117055e-09	1.787839e+01	7.388247e+01
2.420000e-06	2.570692e-06	1.156358e-09	1.816291e+01	7.688949e+01
2.430000e-06	2.610763e-06	1.194084e-09	1.844603e+01	7.981703e+01
2.440000e-06	2.650747e-06	1.229894e-09	1.872853e+01	8.266356e+01
2.450000e-06	2.690615e-06	1.266965e-09	1.901022e+01	8.542806e+01
2.460000e-06	2.730361e-06	1.308361e-09	1.929103e+01	8.810996e+01
2.470000e-06	2.769936e-06	1.350557e-09	1.957065e+01	9.070913e+01
2.480000e-06	2.809303e-06	1.388379e-09	1.984879e+01	9.322589e+01
2.490000e-06	2.848548e-06	1.421423e-09	2.012607e+01	9.566091e+01
2.500000e-06	2.887652e-06	1.453220e-09	2.040235e+01	9.801523e+01
2.510000e-06	2.926538e-06	1.485035e-09	2.067710e+01	1.002902e+02
2.520000e-06	2.965166e-06	1.515852e-09	2.095002e+01	1.024875e+02
2.530000e-06	3.003543e-06	1.544575e-09	2.122117e+01	1.046089e+02
2.540000e-06	3.041706e-06	1.572552e-09	2.149081e+01	1.066565e+02
2.550000e-06	3.079751e-06	1.603819e-09	2.175961e+01	1.086324e+02
2.560000e-06	3.117612e-06	1.634490e-09	2.202711e+01	1.105390e+02
2.570000e-06	3.155204e-06	1.660296e-09	2.229271e+01	1.123786e+02
2.580000e-06	3.192499e-06	1.684165e-09	2.255622e+01	1.141535e+02
2.590000e-06	3.229559e-06	1.708746e-09	2.281806e+01	1.158661e+02
2.600000e-06	3.266471e-06	1.733002e-09	2.307886e+01	1.175186e+02
2.610000e-06	3.303172e-06	1.754059e-09	2.333816e+01	1.191133e+02
2.620000e-06	3.339621e-06	1.773008e-09	2.359569e+01	1.206521e+02
2.630000e-06	3.375895e-06	1.792142e-09	2.385198e+01	1.221372e+02
2.640000e-06	3.412066e-06	1.809827e-09	2.410754e+01	1.235703e+02
2.650000e-06	3.448072e-06	1.825672e-09	2.436194e+01	1.249531e+02
2.660000e-06	3.483916e-06	1.842240e-09	2.461519e+01	1.262871e+02
2.670000e-06	3.519611e-06	1.863262e-09	2.486738e+01	1.275736e+02
2.680000e-06	3.555085e-06	1.884693e-09	2.511802e+01	1.288140e+02
2.690000e-06	3.590236e-06	1.900753e-09	2.536638e+01	1.300093e+02
2.700000e-06	3.624948e-06	1.915000e-09	2.561163e+01	1.311604e+02
2.710000e-06	3.659256e-06	1.932241e-09	2.585403e+01	1.322682e+02
2.720000e-06	3.693169e-06	1.950569e-09	2.609364e+01	1.333335e+02
2.730000e-06	3.726612e-06	1.963262e-09	2.632992e+01	1.343569e+02
2.740000e-06	3.759716e-06	1.970438e-09	2.656382e+01	1.353392e+02
2.750000e-06	3.792465e-06	1.981748e-09	2.679520e+01	1.362809e+02
2.760000e-06	3.824873e-06	1.998526e-09	2.702418e+01	1.371827e+02
2.770000e-06	3.857094e-06	2.012985e-09	2.725183e+01	1.380452e+02
2.780000e-06	3.889136e-06	2.021850e-09	2.747822e+01	1.388691e+02
2.790000e-06	3.921032e-06	2.029966e-09	2.770358e+01	1.396552e+02
2.800000e-06	3.952748e-06	2.042658e-09	2.792766e+01	1.404043e+02
2.810000e-06	3.984216e-06	2.056262e-09	2.815000e+01	1.411173e+02
2.820000e-06	4.015429e-06	2.062407e-09	2.837053e+01	1.417954e+02
2.830000e-06	4.046377e-06	2.066272e-09	2.858919e+01	1.424395e+02
2.840000e-06	4.076994e-06	2.076752e-09	2.880551e+01	1.430510e+02
2.850000e-06	4.107309e-06	2.090805e-09	2.901969e+01	1.436312e+02
2.860000e-06	4.137347e-06	2.100454e-09	2.923192e+01	1.441817e+02
2.870000e-06	4.167084e-06	2.105262e-09	2.944203e+01	1.447038e+02
2.880000e-06	4.196560e-06	2.110411e-09	2.965028e+01	1.451993e+02
2.890000e-06	4.225758e-06	2.117357e-09	2.985658e+01	1.456699e+02
2.900000e-06	4.254656e-06	2.122065e-09	3.006076e+01	1.461173e+02
