# Temperatura_=_19.78
# Concentracion g/m^3_=_4090.0
# C_Vs_to_Am_M_A/Vsm_=_65563218390.804596
# pendiente_HvsI_1/m_=_3716.3
# ordenada_HvsI_A/m_=_1297.0
# frecuencia_Hz_=_135079.28242389797

Tiempo_(s)	Campo_(V.s)	Magnetizacion_(V.s)	Campo_(kA/m)	Magnetizacion_(A/m)
0.000000e+00	-5.410831e-06	-2.329916e-09	-3.839140e+01	-1.530122e+02
1.000000e-08	-5.410940e-06	-2.326322e-09	-3.839217e+01	-1.528721e+02
2.000000e-08	-5.410922e-06	-2.327074e-09	-3.839205e+01	-1.527319e+02
3.000000e-08	-5.410701e-06	-2.328674e-09	-3.839048e+01	-1.525932e+02
4.000000e-08	-5.410058e-06	-2.326874e-09	-3.838591e+01	-1.524575e+02
5.000000e-08	-5.408931e-06	-2.323979e-09	-3.837792e+01	-1.523263e+02
6.000000e-08	-5.407319e-06	-2.317975e-09	-3.836648e+01	-1.522011e+02
7.000000e-08	-5.405074e-06	-2.300015e-09	-3.835055e+01	-1.520831e+02
8.000000e-08	-5.402108e-06	-2.291471e-09	-3.832950e+01	-1.519735e+02
9.000000e-08	-5.398542e-06	-2.334161e-09	-3.830420e+01	-1.518736e+02
1.000000e-07	-5.394472e-06	-2.400027e-09	-3.827533e+01	-1.517842e+02
1.100000e-07	-5.390132e-06	-2.369085e-09	-3.824453e+01	-1.517059e+02
1.200000e-07	-5.385803e-06	-2.308575e-09	-3.821382e+01	-1.516394e+02
1.300000e-07	-5.381353e-06	-2.281410e-09	-3.818224e+01	-1.515849e+02
1.400000e-07	-5.376423e-06	-2.380135e-09	-3.814727e+01	-1.515424e+02
1.500000e-07	-5.370958e-06	-2.352739e-09	-3.810849e+01	-1.515119e+02
1.600000e-07	-5.365294e-06	-2.256591e-09	-3.806830e+01	-1.514929e+02
1.700000e-07	-5.359318e-06	-2.233601e-09	-3.802590e+01	-1.514848e+02
1.800000e-07	-5.352723e-06	-2.355495e-09	-3.797911e+01	-1.514867e+02
1.900000e-07	-5.345535e-06	-2.394276e-09	-3.792810e+01	-1.514975e+02
2.000000e-07	-5.338089e-06	-2.312608e-09	-3.787527e+01	-1.515162e+02
2.100000e-07	-5.330544e-06	-2.301299e-09	-3.782174e+01	-1.515411e+02
2.200000e-07	-5.322768e-06	-2.349532e-09	-3.776657e+01	-1.515708e+02
2.300000e-07	-5.314744e-06	-2.356381e-09	-3.770963e+01	-1.516037e+02
2.400000e-07	-5.306445e-06	-2.306220e-09	-3.765075e+01	-1.516379e+02
2.500000e-07	-5.297578e-06	-2.343270e-09	-3.758783e+01	-1.516716e+02
2.600000e-07	-5.287942e-06	-2.361159e-09	-3.751946e+01	-1.517031e+02
2.700000e-07	-5.277688e-06	-2.361746e-09	-3.744671e+01	-1.517304e+02
2.800000e-07	-5.266890e-06	-2.342350e-09	-3.737010e+01	-1.517519e+02
2.900000e-07	-5.255683e-06	-2.371302e-09	-3.729058e+01	-1.517657e+02
3.000000e-07	-5.244070e-06	-2.343230e-09	-3.720818e+01	-1.517704e+02
3.100000e-07	-5.232028e-06	-2.316739e-09	-3.712274e+01	-1.517643e+02
3.200000e-07	-5.219570e-06	-2.328264e-09	-3.703435e+01	-1.517462e+02
3.300000e-07	-5.206692e-06	-2.378435e-09	-3.694297e+01	-1.517149e+02
3.400000e-07	-5.193487e-06	-2.335175e-09	-3.684928e+01	-1.516696e+02
3.500000e-07	-5.179987e-06	-2.305838e-09	-3.675349e+01	-1.516093e+02
3.600000e-07	-5.166122e-06	-2.320984e-09	-3.665512e+01	-1.515336e+02
3.700000e-07	-5.151914e-06	-2.347988e-09	-3.655431e+01	-1.514422e+02
3.800000e-07	-5.137243e-06	-2.299592e-09	-3.645021e+01	-1.513349e+02
3.900000e-07	-5.121917e-06	-2.290010e-09	-3.634147e+01	-1.512119e+02
4.000000e-07	-5.105897e-06	-2.308708e-09	-3.622780e+01	-1.510735e+02
4.100000e-07	-5.089393e-06	-2.320556e-09	-3.611070e+01	-1.509202e+02
4.200000e-07	-5.072581e-06	-2.306863e-09	-3.599142e+01	-1.507528e+02
4.300000e-07	-5.055458e-06	-2.298530e-09	-3.586993e+01	-1.505720e+02
4.400000e-07	-5.038091e-06	-2.287750e-09	-3.574670e+01	-1.503790e+02
4.500000e-07	-5.020470e-06	-2.276101e-09	-3.562167e+01	-1.501747e+02
4.600000e-07	-5.002513e-06	-2.288284e-09	-3.549426e+01	-1.499604e+02
4.700000e-07	-4.984162e-06	-2.284382e-09	-3.536406e+01	-1.497374e+02
4.800000e-07	-4.965452e-06	-2.275257e-09	-3.523130e+01	-1.495069e+02
4.900000e-07	-4.946401e-06	-2.269263e-09	-3.509613e+01	-1.492703e+02
5.000000e-07	-4.927016e-06	-2.288674e-09	-3.495859e+01	-1.490287e+02
5.100000e-07	-4.907283e-06	-2.276438e-09	-3.481858e+01	-1.487835e+02
5.200000e-07	-4.887321e-06	-2.263476e-09	-3.467694e+01	-1.485358e+02
5.300000e-07	-4.867236e-06	-2.247254e-09	-3.453444e+01	-1.482867e+02
5.400000e-07	-4.846878e-06	-2.262338e-09	-3.438999e+01	-1.480370e+02
5.500000e-07	-4.826070e-06	-2.258419e-09	-3.424235e+01	-1.477876e+02
5.600000e-07	-4.804831e-06	-2.252838e-09	-3.409165e+01	-1.475392e+02
5.700000e-07	-4.783278e-06	-2.235078e-09	-3.393873e+01	-1.472923e+02
5.800000e-07	-4.761391e-06	-2.246978e-09	-3.378343e+01	-1.470473e+02
5.900000e-07	-4.739234e-06	-2.245810e-09	-3.362623e+01	-1.468044e+02
6.000000e-07	-4.716838e-06	-2.240496e-09	-3.346732e+01	-1.465637e+02
6.100000e-07	-4.694107e-06	-2.223204e-09	-3.330603e+01	-1.463250e+02
6.200000e-07	-4.671013e-06	-2.223388e-09	-3.314218e+01	-1.460882e+02
6.300000e-07	-4.647496e-06	-2.219448e-09	-3.297532e+01	-1.458528e+02
6.400000e-07	-4.623785e-06	-2.224830e-09	-3.280708e+01	-1.456185e+02
6.500000e-07	-4.599994e-06	-2.215772e-09	-3.263828e+01	-1.453847e+02
6.600000e-07	-4.575943e-06	-2.206365e-09	-3.246763e+01	-1.451507e+02
6.700000e-07	-4.551595e-06	-2.204962e-09	-3.229487e+01	-1.449159e+02
6.800000e-07	-4.526850e-06	-2.214310e-09	-3.211930e+01	-1.446794e+02
6.900000e-07	-4.501519e-06	-2.205147e-09	-3.193957e+01	-1.444407e+02
7.000000e-07	-4.475660e-06	-2.193637e-09	-3.175609e+01	-1.441989e+02
7.100000e-07	-4.449257e-06	-2.196137e-09	-3.156875e+01	-1.439533e+02
7.200000e-07	-4.422300e-06	-2.199878e-09	-3.137749e+01	-1.437032e+02
7.300000e-07	-4.395020e-06	-2.191007e-09	-3.118392e+01	-1.434481e+02
7.400000e-07	-4.367485e-06	-2.175645e-09	-3.098856e+01	-1.431874e+02
7.500000e-07	-4.339744e-06	-2.170613e-09	-3.079173e+01	-1.429206e+02
7.600000e-07	-4.311844e-06	-2.171665e-09	-3.059377e+01	-1.426474e+02
7.700000e-07	-4.283704e-06	-2.173818e-09	-3.039411e+01	-1.423675e+02
7.800000e-07	-4.255370e-06	-2.160879e-09	-3.019307e+01	-1.420807e+02
7.900000e-07	-4.226733e-06	-2.156557e-09	-2.998988e+01	-1.417871e+02
8.000000e-07	-4.197693e-06	-2.158270e-09	-2.978384e+01	-1.414866e+02
8.100000e-07	-4.168383e-06	-2.161416e-09	-2.957587e+01	-1.411795e+02
8.200000e-07	-4.138840e-06	-2.146850e-09	-2.936626e+01	-1.408660e+02
8.300000e-07	-4.109042e-06	-2.137396e-09	-2.915483e+01	-1.405464e+02
8.400000e-07	-4.078986e-06	-2.131428e-09	-2.894157e+01	-1.402211e+02
8.500000e-07	-4.048645e-06	-2.135370e-09	-2.872630e+01	-1.398906e+02
8.600000e-07	-4.017948e-06	-2.126488e-09	-2.850849e+01	-1.395555e+02
8.700000e-07	-3.987014e-06	-2.114889e-09	-2.828901e+01	-1.392162e+02
8.800000e-07	-3.955895e-06	-2.105372e-09	-2.806821e+01	-1.388733e+02
8.900000e-07	-3.924549e-06	-2.107898e-09	-2.784580e+01	-1.385274e+02
9.000000e-07	-3.893000e-06	-2.101635e-09	-2.762195e+01	-1.381790e+02
9.100000e-07	-3.861231e-06	-2.089721e-09	-2.739654e+01	-1.378286e+02
9.200000e-07	-3.829307e-06	-2.075035e-09	-2.717003e+01	-1.374767e+02
9.300000e-07	-3.797229e-06	-2.072666e-09	-2.694243e+01	-1.371237e+02
9.400000e-07	-3.764847e-06	-2.066279e-09	-2.671267e+01	-1.367699e+02
9.500000e-07	-3.732196e-06	-2.053711e-09	-2.648100e+01	-1.364156e+02
9.600000e-07	-3.699186e-06	-2.041785e-09	-2.624678e+01	-1.360609e+02
9.700000e-07	-3.665667e-06	-2.044956e-09	-2.600896e+01	-1.357059e+02
9.800000e-07	-3.631706e-06	-2.048501e-09	-2.576799e+01	-1.353506e+02
9.900000e-07	-3.597267e-06	-2.038828e-09	-2.552364e+01	-1.349949e+02
1.000000e-06	-3.562465e-06	-2.020384e-09	-2.527671e+01	-1.346387e+02
1.010000e-06	-3.527334e-06	-2.008876e-09	-2.502745e+01	-1.342816e+02
1.020000e-06	-3.491842e-06	-2.003389e-09	-2.477562e+01	-1.339233e+02
1.030000e-06	-3.456144e-06	-1.991025e-09	-2.452233e+01	-1.335634e+02
1.040000e-06	-3.420357e-06	-1.979834e-09	-2.426841e+01	-1.332013e+02
1.050000e-06	-3.384462e-06	-1.980189e-09	-2.401373e+01	-1.328367e+02
1.060000e-06	-3.348388e-06	-1.985908e-09	-2.375777e+01	-1.324689e+02
1.070000e-06	-3.312209e-06	-1.981224e-09	-2.350107e+01	-1.320973e+02
1.080000e-06	-3.275822e-06	-1.969582e-09	-2.324290e+01	-1.317214e+02
1.090000e-06	-3.239148e-06	-1.957750e-09	-2.298268e+01	-1.313405e+02
1.100000e-06	-3.202235e-06	-1.954505e-09	-2.272078e+01	-1.309541e+02
1.110000e-06	-3.165053e-06	-1.947498e-09	-2.245696e+01	-1.305615e+02
1.120000e-06	-3.127608e-06	-1.935897e-09	-2.219127e+01	-1.301623e+02
1.130000e-06	-3.089979e-06	-1.923353e-09	-2.192429e+01	-1.297559e+02
1.140000e-06	-3.052211e-06	-1.919378e-09	-2.165631e+01	-1.293418e+02
1.150000e-06	-3.014227e-06	-1.912044e-09	-2.138681e+01	-1.289198e+02
1.160000e-06	-2.976043e-06	-1.899051e-09	-2.111588e+01	-1.284894e+02
1.170000e-06	-2.937709e-06	-1.884804e-09	-2.084389e+01	-1.280504e+02
1.180000e-06	-2.899110e-06	-1.883435e-09	-2.057002e+01	-1.276025e+02
1.190000e-06	-2.860127e-06	-1.884031e-09	-2.029342e+01	-1.271455e+02
1.200000e-06	-2.821002e-06	-1.879184e-09	-2.001582e+01	-1.266794e+02
1.210000e-06	-2.781814e-06	-1.865657e-09	-1.973777e+01	-1.262040e+02
1.220000e-06	-2.742402e-06	-1.854993e-09	-1.945813e+01	-1.257193e+02
1.230000e-06	-2.702824e-06	-1.845324e-09	-1.917731e+01	-1.252254e+02
1.240000e-06	-2.663135e-06	-1.832946e-09	-1.889571e+01	-1.247222e+02
1.250000e-06	-2.623319e-06	-1.815911e-09	-1.861320e+01	-1.242097e+02
1.260000e-06	-2.583405e-06	-1.806233e-09	-1.833000e+01	-1.236881e+02
1.270000e-06	-2.543410e-06	-1.804820e-09	-1.804623e+01	-1.231575e+02
1.280000e-06	-2.503279e-06	-1.802183e-09	-1.776148e+01	-1.226177e+02
1.290000e-06	-2.462974e-06	-1.793560e-09	-1.747550e+01	-1.220690e+02
1.300000e-06	-2.422506e-06	-1.783405e-09	-1.718838e+01	-1.215112e+02
1.310000e-06	-2.381891e-06	-1.773288e-09	-1.690020e+01	-1.209445e+02
1.320000e-06	-2.341097e-06	-1.759615e-09	-1.661076e+01	-1.203686e+02
1.330000e-06	-2.300066e-06	-1.743654e-09	-1.631962e+01	-1.197836e+02
1.340000e-06	-2.258759e-06	-1.731625e-09	-1.602654e+01	-1.191893e+02
1.350000e-06	-2.217161e-06	-1.728616e-09	-1.573139e+01	-1.185855e+02
1.360000e-06	-2.175191e-06	-1.724977e-09	-1.543360e+01	-1.179719e+02
1.370000e-06	-2.132817e-06	-1.717103e-09	-1.513295e+01	-1.173484e+02
1.380000e-06	-2.090222e-06	-1.706395e-09	-1.483073e+01	-1.167147e+02
1.390000e-06	-2.047476e-06	-1.696692e-09	-1.452743e+01	-1.160703e+02
1.400000e-06	-2.004524e-06	-1.684895e-09	-1.422267e+01	-1.154149e+02
1.410000e-06	-1.961389e-06	-1.671606e-09	-1.391662e+01	-1.147481e+02
1.420000e-06	-1.918058e-06	-1.658250e-09	-1.360917e+01	-1.140694e+02
1.430000e-06	-1.874531e-06	-1.650670e-09	-1.330034e+01	-1.133785e+02
1.440000e-06	-1.830879e-06	-1.641332e-09	-1.299062e+01	-1.126748e+02
1.450000e-06	-1.787175e-06	-1.627664e-09	-1.268052e+01	-1.119578e+02
1.460000e-06	-1.743428e-06	-1.615079e-09	-1.237012e+01	-1.112271e+02
1.470000e-06	-1.699627e-06	-1.608138e-09	-1.205934e+01	-1.104823e+02
1.480000e-06	-1.655713e-06	-1.596955e-09	-1.174776e+01	-1.097228e+02
1.490000e-06	-1.611664e-06	-1.579671e-09	-1.143522e+01	-1.089482e+02
1.500000e-06	-1.567612e-06	-1.560777e-09	-1.112266e+01	-1.081580e+02
1.510000e-06	-1.523511e-06	-1.545666e-09	-1.080974e+01	-1.073517e+02
1.520000e-06	-1.479277e-06	-1.533503e-09	-1.049590e+01	-1.065290e+02
1.530000e-06	-1.434944e-06	-1.520893e-09	-1.018134e+01	-1.056894e+02
1.540000e-06	-1.390498e-06	-1.511645e-09	-9.865979e+00	-1.048324e+02
1.550000e-06	-1.345994e-06	-1.506797e-09	-9.550212e+00	-1.039576e+02
1.560000e-06	-1.301494e-06	-1.498731e-09	-9.234474e+00	-1.030644e+02
1.570000e-06	-1.256894e-06	-1.482251e-09	-8.918021e+00	-1.021525e+02
1.580000e-06	-1.212103e-06	-1.459073e-09	-8.600215e+00	-1.012213e+02
1.590000e-06	-1.167296e-06	-1.436898e-09	-8.282301e+00	-1.002702e+02
1.600000e-06	-1.122436e-06	-1.418525e-09	-7.964004e+00	-9.929861e+01
1.610000e-06	-1.077422e-06	-1.403036e-09	-7.644620e+00	-9.830583e+01
1.620000e-06	-1.032383e-06	-1.389282e-09	-7.325056e+00	-9.729115e+01
1.630000e-06	-9.871979e-07	-1.378232e-09	-7.004452e+00	-9.625374e+01
1.640000e-06	-9.418073e-07	-1.365988e-09	-6.682393e+00	-9.519270e+01
1.650000e-06	-8.963382e-07	-1.346934e-09	-6.359777e+00	-9.410704e+01
1.660000e-06	-8.509009e-07	-1.322274e-09	-6.037386e+00	-9.299569e+01
1.670000e-06	-8.055302e-07	-1.298204e-09	-5.715468e+00	-9.185746e+01
1.680000e-06	-7.600573e-07	-1.280953e-09	-5.392825e+00	-9.069108e+01
1.690000e-06	-7.145450e-07	-1.262760e-09	-5.069902e+00	-8.949519e+01
1.700000e-06	-6.689747e-07	-1.242138e-09	-4.746568e+00	-8.826834e+01
1.710000e-06	-6.232403e-07	-1.220902e-09	-4.422068e+00	-8.700898e+01
1.720000e-06	-5.774698e-07	-1.204244e-09	-4.097314e+00	-8.571551e+01
1.730000e-06	-5.316614e-07	-1.188896e-09	-3.772290e+00	-8.438625e+01
1.740000e-06	-4.858738e-07	-1.167156e-09	-3.447414e+00	-8.301948e+01
1.750000e-06	-4.400361e-07	-1.145300e-09	-3.122182e+00	-8.161345e+01
1.760000e-06	-3.941423e-07	-1.129373e-09	-2.796552e+00	-8.016637e+01
1.770000e-06	-3.482407e-07	-1.111048e-09	-2.470868e+00	-7.867650e+01
1.780000e-06	-3.023656e-07	-1.083630e-09	-2.145371e+00	-7.714207e+01
1.790000e-06	-2.565315e-07	-1.052104e-09	-1.820165e+00	-7.556140e+01
1.800000e-06	-2.106359e-07	-1.022901e-09	-1.494522e+00	-7.393286e+01
1.810000e-06	-1.647345e-07	-9.972391e-10	-1.168839e+00	-7.225490e+01
1.820000e-06	-1.188484e-07	-9.722801e-10	-8.432632e-01	-7.052610e+01
1.830000e-06	-7.293943e-08	-9.466432e-10	-5.175262e-01	-6.874517e+01
1.840000e-06	-2.703392e-08	-9.220662e-10	-1.918134e-01	-6.691095e+01
1.850000e-06	1.878024e-08	-8.975228e-10	1.332512e-01	-6.502250e+01
1.860000e-06	6.463947e-08	-8.688536e-10	4.586356e-01	-6.307902e+01
1.870000e-06	1.105939e-07	-8.351755e-10	7.846953e-01	-6.107995e+01
1.880000e-06	1.564843e-07	-8.004011e-10	1.110301e+00	-5.902494e+01
1.890000e-06	2.022962e-07	-7.668991e-10	1.435350e+00	-5.691386e+01
1.900000e-06	2.481127e-07	-7.339392e-10	1.760431e+00	-5.474683e+01
1.910000e-06	2.939988e-07	-7.012307e-10	2.086006e+00	-5.252419e+01
1.920000e-06	3.399027e-07	-6.712165e-10	2.411707e+00	-5.024654e+01
1.930000e-06	3.857184e-07	-6.440141e-10	2.736783e+00	-4.791470e+01
1.940000e-06	4.314650e-07	-6.148560e-10	3.061368e+00	-4.552975e+01
1.950000e-06	4.772273e-07	-5.799072e-10	3.386065e+00	-4.309297e+01
1.960000e-06	5.229784e-07	-5.405981e-10	3.710682e+00	-4.060589e+01
1.970000e-06	5.686555e-07	-5.014127e-10	4.034774e+00	-3.807021e+01
1.980000e-06	6.142919e-07	-4.620958e-10	4.358577e+00	-3.548783e+01
1.990000e-06	6.598629e-07	-4.223913e-10	4.681917e+00	-3.286083e+01
2.000000e-06	7.053637e-07	-3.843408e-10	5.004758e+00	-3.019145e+01
2.010000e-06	7.508988e-07	-3.491867e-10	5.327843e+00	-2.748205e+01
2.020000e-06	7.964513e-07	-3.148935e-10	5.651050e+00	-2.473511e+01
2.030000e-06	8.418688e-07	-2.781436e-10	5.973301e+00	-2.195320e+01
2.040000e-06	8.871672e-07	-2.355327e-10	6.294706e+00	-1.913899e+01
2.050000e-06	9.324394e-07	-1.892037e-10	6.615925e+00	-1.629517e+01
2.060000e-06	9.775698e-07	-1.452471e-10	6.936138e+00	-1.342449e+01
2.070000e-06	1.022549e-06	-1.041272e-10	7.255277e+00	-1.052971e+01
2.080000e-06	1.067512e-06	-6.392149e-11	7.574304e+00	-7.613595e+00
2.090000e-06	1.112443e-06	-2.422685e-11	7.893103e+00	-4.678901e+00
2.100000e-06	1.157233e-06	1.432443e-11	8.210901e+00	-1.728354e+00
2.110000e-06	1.201886e-06	5.272019e-11	8.527724e+00	1.235351e+00
2.120000e-06	1.246494e-06	9.526409e-11	8.844234e+00	4.209565e+00
2.130000e-06	1.291068e-06	1.409165e-10	9.160498e+00	7.191687e+00
2.140000e-06	1.335512e-06	1.870954e-10	9.475839e+00	1.017917e+01
2.150000e-06	1.379760e-06	2.339406e-10	9.789790e+00	1.316953e+01
2.160000e-06	1.423916e-06	2.798184e-10	1.010309e+01	1.616032e+01
2.170000e-06	1.468103e-06	3.222750e-10	1.041661e+01	1.914918e+01
2.180000e-06	1.512245e-06	3.613906e-10	1.072981e+01	2.213376e+01
2.190000e-06	1.556331e-06	4.002188e-10	1.104262e+01	2.511181e+01
2.200000e-06	1.600333e-06	4.418847e-10	1.135482e+01	2.808108e+01
2.210000e-06	1.644239e-06	4.874275e-10	1.166635e+01	3.103937e+01
2.220000e-06	1.688123e-06	5.345706e-10	1.197771e+01	3.398453e+01
2.230000e-06	1.731969e-06	5.811184e-10	1.228882e+01	3.691443e+01
2.240000e-06	1.775723e-06	6.256355e-10	1.259926e+01	3.982694e+01
2.250000e-06	1.819415e-06	6.687469e-10	1.290927e+01	4.271999e+01
2.260000e-06	1.863083e-06	7.076970e-10	1.321911e+01	4.559148e+01
2.270000e-06	1.906685e-06	7.427054e-10	1.352848e+01	4.843936e+01
2.280000e-06	1.950088e-06	7.790494e-10	1.383643e+01	5.126157e+01
2.290000e-06	1.993294e-06	8.190081e-10	1.414300e+01	5.405607e+01
2.300000e-06	2.036463e-06	8.624829e-10	1.444929e+01	5.682083e+01
2.310000e-06	2.079302e-06	9.072607e-10	1.475324e+01	5.955386e+01
2.320000e-06	2.121793e-06	9.502301e-10	1.505473e+01	6.225316e+01
2.330000e-06	2.164041e-06	9.904699e-10	1.535449e+01	6.491680e+01
2.340000e-06	2.205863e-06	1.026905e-09	1.565123e+01	6.754287e+01
2.350000e-06	2.247361e-06	1.059959e-09	1.594567e+01	7.012951e+01
2.360000e-06	2.288654e-06	1.092661e-09	1.623866e+01	7.267494e+01
2.370000e-06	2.329716e-06	1.130734e-09	1.653001e+01	7.517744e+01
2.380000e-06	2.370472e-06	1.169852e-09	1.681918e+01	7.763539e+01
2.390000e-06	2.411017e-06	1.204679e-09	1.710686e+01	8.004725e+01
2.400000e-06	2.451427e-06	1.235189e-09	1.739358e+01	8.241162e+01
2.410000e-06	2.491668e-06	1.264262e-09	1.767910e+01	8.472722e+01
2.420000e-06	2.531785e-06	1.293525e-09	1.796374e+01	8.699289e+01
2.430000e-06	2.571812e-06	1.323798e-09	1.824774e+01	8.920764e+01
2.440000e-06	2.611739e-06	1.355676e-09	1.853104e+01	9.137063e+01
2.450000e-06	2.651614e-06	1.389078e-09	1.881396e+01	9.348119e+01
2.460000e-06	2.691406e-06	1.423297e-09	1.909630e+01	9.553880e+01
2.470000e-06	2.731052e-06	1.453889e-09	1.937759e+01	9.754316e+01
2.480000e-06	2.770497e-06	1.480543e-09	1.965747e+01	9.949409e+01
2.490000e-06	2.809746e-06	1.502344e-09	1.993595e+01	1.013916e+02
2.500000e-06	2.848814e-06	1.521836e-09	2.021315e+01	1.032359e+02
2.510000e-06	2.887589e-06	1.539427e-09	2.048827e+01	1.050274e+02
2.520000e-06	2.926107e-06	1.559625e-09	2.076157e+01	1.067666e+02
2.530000e-06	2.964466e-06	1.585916e-09	2.103373e+01	1.084541e+02
2.540000e-06	3.002639e-06	1.618421e-09	2.130458e+01	1.100907e+02
2.550000e-06	3.040572e-06	1.654227e-09	2.157373e+01	1.116773e+02
2.560000e-06	3.078315e-06	1.686491e-09	2.184153e+01	1.132151e+02
2.570000e-06	3.115975e-06	1.707278e-09	2.210874e+01	1.147050e+02
2.580000e-06	3.153502e-06	1.716600e-09	2.237500e+01	1.161483e+02
2.590000e-06	3.190794e-06	1.722543e-09	2.263960e+01	1.175461e+02
2.600000e-06	3.227730e-06	1.731615e-09	2.290167e+01	1.188999e+02
2.610000e-06	3.264255e-06	1.747952e-09	2.316083e+01	1.202108e+02
2.620000e-06	3.300635e-06	1.772119e-09	2.341895e+01	1.214802e+02
2.630000e-06	3.336929e-06	1.799592e-09	2.367647e+01	1.227093e+02
2.640000e-06	3.373024e-06	1.825715e-09	2.393257e+01	1.238994e+02
2.650000e-06	3.408985e-06	1.843979e-09	2.418773e+01	1.250517e+02
2.660000e-06	3.444866e-06	1.851787e-09	2.444231e+01	1.261673e+02
2.670000e-06	3.480641e-06	1.854974e-09	2.469614e+01	1.272473e+02
2.680000e-06	3.516150e-06	1.860001e-09	2.494809e+01	1.282928e+02
2.690000e-06	3.551393e-06	1.870018e-09	2.519815e+01	1.293046e+02
2.700000e-06	3.586419e-06	1.885374e-09	2.544667e+01	1.302837e+02
2.710000e-06	3.621030e-06	1.905832e-09	2.569225e+01	1.312309e+02
2.720000e-06	3.655119e-06	1.928680e-09	2.593412e+01	1.321468e+02
2.730000e-06	3.688703e-06	1.946043e-09	2.617241e+01	1.330322e+02
2.740000e-06	3.721788e-06	1.953853e-09	2.640716e+01	1.338876e+02
2.750000e-06	3.754527e-06	1.958621e-09	2.663945e+01	1.347136e+02
2.760000e-06	3.786959e-06	1.966445e-09	2.686956e+01	1.355106e+02
2.770000e-06	3.819170e-06	1.976105e-09	2.709811e+01	1.362792e+02
2.780000e-06	3.851244e-06	1.984186e-09	2.732568e+01	1.370198e+02
2.790000e-06	3.883133e-06	1.994099e-09	2.755194e+01	1.377329e+02
2.800000e-06	3.914868e-06	2.007475e-09	2.777711e+01	1.384189e+02
2.810000e-06	3.946378e-06	2.020364e-09	2.800069e+01	1.390782e+02
2.820000e-06	3.977669e-06	2.027860e-09	2.822270e+01	1.397113e+02
2.830000e-06	4.008677e-06	2.033023e-09	2.844272e+01	1.403188e+02
2.840000e-06	4.039288e-06	2.041485e-09	2.865991e+01	1.409012e+02
2.850000e-06	4.069568e-06	2.053697e-09	2.887476e+01	1.414592e+02
2.860000e-06	4.099659e-06	2.064653e-09	2.908826e+01	1.419934e+02
2.870000e-06	4.129558e-06	2.073025e-09	2.930040e+01	1.425046e+02
2.880000e-06	4.159189e-06	2.080081e-09	2.951064e+01	1.429935e+02
2.890000e-06	4.188530e-06	2.084976e-09	2.971882e+01	1.434610e+02
2.900000e-06	4.217488e-06	2.085544e-09	2.992429e+01	1.439080e+02
