# Temperatura_=_-2.5
# Concentracion g/m^3_=_4090.0
# C_Vs_to_Am_M_A/Vsm_=_65563218390.804596
# pendiente_HvsI_1/m_=_3716.3
# ordenada_HvsI_A/m_=_1297.0
# frecuencia_Hz_=_135071.09882533693

Tiempo_(s)	Campo_(V.s)	Magnetizacion_(V.s)	Campo_(kA/m)	Magnetizacion_(A/m)
0.000000e+00	-5.415119e-06	-2.293804e-09	-3.839386e+01	-1.503738e+02
1.000000e-08	-5.415299e-06	-2.294260e-09	-3.839514e+01	-1.502796e+02
2.000000e-08	-5.415267e-06	-2.294306e-09	-3.839491e+01	-1.501912e+02
3.000000e-08	-5.414955e-06	-2.292813e-09	-3.839270e+01	-1.501100e+02
4.000000e-08	-5.414146e-06	-2.289217e-09	-3.838696e+01	-1.500373e+02
5.000000e-08	-5.412894e-06	-2.286169e-09	-3.837808e+01	-1.499742e+02
6.000000e-08	-5.411208e-06	-2.290426e-09	-3.836613e+01	-1.499216e+02
7.000000e-08	-5.408954e-06	-2.291034e-09	-3.835015e+01	-1.498805e+02
8.000000e-08	-5.406087e-06	-2.264665e-09	-3.832982e+01	-1.498515e+02
9.000000e-08	-5.402590e-06	-2.248655e-09	-3.830503e+01	-1.498350e+02
1.000000e-07	-5.398625e-06	-2.308416e-09	-3.827692e+01	-1.498311e+02
1.100000e-07	-5.394364e-06	-2.344986e-09	-3.824671e+01	-1.498400e+02
1.200000e-07	-5.389908e-06	-2.295421e-09	-3.821511e+01	-1.498615e+02
1.300000e-07	-5.385197e-06	-2.214456e-09	-3.818171e+01	-1.498951e+02
1.400000e-07	-5.380127e-06	-2.285365e-09	-3.814576e+01	-1.499403e+02
1.500000e-07	-5.374672e-06	-2.348237e-09	-3.810709e+01	-1.499962e+02
1.600000e-07	-5.368854e-06	-2.277080e-09	-3.806584e+01	-1.500619e+02
1.700000e-07	-5.362688e-06	-2.199852e-09	-3.802212e+01	-1.501362e+02
1.800000e-07	-5.356143e-06	-2.281091e-09	-3.797571e+01	-1.502179e+02
1.900000e-07	-5.349160e-06	-2.382436e-09	-3.792621e+01	-1.503054e+02
2.000000e-07	-5.341884e-06	-2.314853e-09	-3.787461e+01	-1.503975e+02
2.100000e-07	-5.334318e-06	-2.263315e-09	-3.782097e+01	-1.504924e+02
2.200000e-07	-5.326425e-06	-2.320768e-09	-3.776501e+01	-1.505885e+02
2.300000e-07	-5.318355e-06	-2.382952e-09	-3.770779e+01	-1.506841e+02
2.400000e-07	-5.309985e-06	-2.330674e-09	-3.764845e+01	-1.507777e+02
2.500000e-07	-5.301014e-06	-2.331341e-09	-3.758484e+01	-1.508677e+02
2.600000e-07	-5.291268e-06	-2.376968e-09	-3.751574e+01	-1.509523e+02
2.700000e-07	-5.281012e-06	-2.376806e-09	-3.744303e+01	-1.510303e+02
2.800000e-07	-5.270271e-06	-2.329219e-09	-3.736687e+01	-1.511002e+02
2.900000e-07	-5.259002e-06	-2.367428e-09	-3.728697e+01	-1.511607e+02
3.000000e-07	-5.247308e-06	-2.385260e-09	-3.720406e+01	-1.512108e+02
3.100000e-07	-5.235250e-06	-2.335793e-09	-3.711857e+01	-1.512495e+02
3.200000e-07	-5.222817e-06	-2.331999e-09	-3.703041e+01	-1.512759e+02
3.300000e-07	-5.209915e-06	-2.396105e-09	-3.693894e+01	-1.512896e+02
3.400000e-07	-5.196623e-06	-2.383727e-09	-3.684470e+01	-1.512899e+02
3.500000e-07	-5.183011e-06	-2.339236e-09	-3.674819e+01	-1.512766e+02
3.600000e-07	-5.169043e-06	-2.356574e-09	-3.664915e+01	-1.512497e+02
3.700000e-07	-5.154762e-06	-2.372648e-09	-3.654790e+01	-1.512091e+02
3.800000e-07	-5.139948e-06	-2.331524e-09	-3.644287e+01	-1.511552e+02
3.900000e-07	-5.124311e-06	-2.327748e-09	-3.633200e+01	-1.510882e+02
4.000000e-07	-5.108248e-06	-2.352507e-09	-3.621811e+01	-1.510088e+02
4.100000e-07	-5.091916e-06	-2.336404e-09	-3.610231e+01	-1.509175e+02
4.200000e-07	-5.075097e-06	-2.327103e-09	-3.598306e+01	-1.508150e+02
4.300000e-07	-5.057875e-06	-2.348550e-09	-3.586096e+01	-1.507023e+02
4.400000e-07	-5.040373e-06	-2.346531e-09	-3.573687e+01	-1.505802e+02
4.500000e-07	-5.022556e-06	-2.315658e-09	-3.561054e+01	-1.504496e+02
4.600000e-07	-5.004320e-06	-2.330103e-09	-3.548124e+01	-1.503116e+02
4.700000e-07	-4.985758e-06	-2.336704e-09	-3.534964e+01	-1.501670e+02
4.800000e-07	-4.966970e-06	-2.323413e-09	-3.521643e+01	-1.500168e+02
4.900000e-07	-4.947788e-06	-2.312990e-09	-3.508042e+01	-1.498621e+02
5.000000e-07	-4.928229e-06	-2.326139e-09	-3.494175e+01	-1.497036e+02
5.100000e-07	-4.908397e-06	-2.318626e-09	-3.480114e+01	-1.495422e+02
5.200000e-07	-4.888334e-06	-2.323784e-09	-3.465889e+01	-1.493787e+02
5.300000e-07	-4.868106e-06	-2.320618e-09	-3.451547e+01	-1.492137e+02
5.400000e-07	-4.847668e-06	-2.313827e-09	-3.437056e+01	-1.490478e+02
5.500000e-07	-4.826912e-06	-2.306626e-09	-3.422340e+01	-1.488815e+02
5.600000e-07	-4.805760e-06	-2.316793e-09	-3.407343e+01	-1.487152e+02
5.700000e-07	-4.784244e-06	-2.304344e-09	-3.392088e+01	-1.485492e+02
5.800000e-07	-4.762422e-06	-2.293982e-09	-3.376616e+01	-1.483837e+02
5.900000e-07	-4.740230e-06	-2.294659e-09	-3.360882e+01	-1.482187e+02
6.000000e-07	-4.717719e-06	-2.299587e-09	-3.344921e+01	-1.480542e+02
6.100000e-07	-4.694930e-06	-2.289214e-09	-3.328763e+01	-1.478901e+02
6.200000e-07	-4.671805e-06	-2.282909e-09	-3.312367e+01	-1.477262e+02
6.300000e-07	-4.648330e-06	-2.278729e-09	-3.295724e+01	-1.475624e+02
6.400000e-07	-4.624514e-06	-2.282074e-09	-3.278837e+01	-1.473982e+02
6.500000e-07	-4.600493e-06	-2.283070e-09	-3.261806e+01	-1.472334e+02
6.600000e-07	-4.576321e-06	-2.274350e-09	-3.244668e+01	-1.470676e+02
6.700000e-07	-4.551923e-06	-2.261063e-09	-3.227370e+01	-1.469003e+02
6.800000e-07	-4.527207e-06	-2.261534e-09	-3.209845e+01	-1.467312e+02
6.900000e-07	-4.501995e-06	-2.263927e-09	-3.191970e+01	-1.465599e+02
7.000000e-07	-4.476181e-06	-2.253684e-09	-3.173668e+01	-1.463858e+02
7.100000e-07	-4.449860e-06	-2.246314e-09	-3.155005e+01	-1.462088e+02
7.200000e-07	-4.423053e-06	-2.246924e-09	-3.135999e+01	-1.460284e+02
7.300000e-07	-4.395753e-06	-2.252003e-09	-3.116643e+01	-1.458444e+02
7.400000e-07	-4.368177e-06	-2.244214e-09	-3.097091e+01	-1.456564e+02
7.500000e-07	-4.340370e-06	-2.234548e-09	-3.077376e+01	-1.454644e+02
7.600000e-07	-4.312294e-06	-2.229358e-09	-3.057470e+01	-1.452682e+02
7.700000e-07	-4.284040e-06	-2.235039e-09	-3.037437e+01	-1.450677e+02
7.800000e-07	-4.255631e-06	-2.232562e-09	-3.017295e+01	-1.448629e+02
7.900000e-07	-4.227008e-06	-2.228760e-09	-2.997000e+01	-1.446539e+02
8.000000e-07	-4.197995e-06	-2.223782e-09	-2.976430e+01	-1.444407e+02
8.100000e-07	-4.168610e-06	-2.226318e-09	-2.955596e+01	-1.442236e+02
8.200000e-07	-4.139004e-06	-2.221869e-09	-2.934605e+01	-1.440026e+02
8.300000e-07	-4.109185e-06	-2.213183e-09	-2.913463e+01	-1.437782e+02
8.400000e-07	-4.079061e-06	-2.201699e-09	-2.892105e+01	-1.435505e+02
8.500000e-07	-4.048631e-06	-2.201627e-09	-2.870529e+01	-1.433199e+02
8.600000e-07	-4.017902e-06	-2.200464e-09	-2.848742e+01	-1.430867e+02
8.700000e-07	-3.986804e-06	-2.196263e-09	-2.826693e+01	-1.428513e+02
8.800000e-07	-3.955469e-06	-2.187033e-09	-2.804477e+01	-1.426139e+02
8.900000e-07	-3.923980e-06	-2.185894e-09	-2.782150e+01	-1.423750e+02
9.000000e-07	-3.892306e-06	-2.186602e-09	-2.759693e+01	-1.421349e+02
9.100000e-07	-3.860483e-06	-2.180139e-09	-2.737130e+01	-1.418939e+02
9.200000e-07	-3.828491e-06	-2.163069e-09	-2.714447e+01	-1.416522e+02
9.300000e-07	-3.796283e-06	-2.153452e-09	-2.691612e+01	-1.414102e+02
9.400000e-07	-3.763788e-06	-2.153990e-09	-2.668572e+01	-1.411680e+02
9.500000e-07	-3.730978e-06	-2.155991e-09	-2.645310e+01	-1.409258e+02
9.600000e-07	-3.697861e-06	-2.151217e-09	-2.621829e+01	-1.406836e+02
9.700000e-07	-3.664254e-06	-2.147056e-09	-2.598002e+01	-1.404417e+02
9.800000e-07	-3.630167e-06	-2.147287e-09	-2.573833e+01	-1.401999e+02
9.900000e-07	-3.595689e-06	-2.142088e-09	-2.549388e+01	-1.399583e+02
1.000000e-06	-3.560779e-06	-2.128788e-09	-2.524636e+01	-1.397168e+02
1.010000e-06	-3.525549e-06	-2.118280e-09	-2.499658e+01	-1.394752e+02
1.020000e-06	-3.490093e-06	-2.117334e-09	-2.474519e+01	-1.392334e+02
1.030000e-06	-3.454426e-06	-2.115773e-09	-2.449231e+01	-1.389911e+02
1.040000e-06	-3.418584e-06	-2.113124e-09	-2.423818e+01	-1.387480e+02
1.050000e-06	-3.382577e-06	-2.110827e-09	-2.398289e+01	-1.385040e+02
1.060000e-06	-3.346416e-06	-2.111743e-09	-2.372650e+01	-1.382586e+02
1.070000e-06	-3.310138e-06	-2.109657e-09	-2.346929e+01	-1.380114e+02
1.080000e-06	-3.273745e-06	-2.102251e-09	-2.321126e+01	-1.377622e+02
1.090000e-06	-3.237137e-06	-2.089646e-09	-2.295170e+01	-1.375105e+02
1.100000e-06	-3.200174e-06	-2.084598e-09	-2.268963e+01	-1.372559e+02
1.110000e-06	-3.162907e-06	-2.084540e-09	-2.242540e+01	-1.369980e+02
1.120000e-06	-3.125420e-06	-2.084387e-09	-2.215961e+01	-1.367365e+02
1.130000e-06	-3.087703e-06	-2.076527e-09	-2.189220e+01	-1.364710e+02
1.140000e-06	-3.049764e-06	-2.071672e-09	-2.162320e+01	-1.362010e+02
1.150000e-06	-3.011651e-06	-2.070202e-09	-2.135297e+01	-1.359263e+02
1.160000e-06	-2.973331e-06	-2.064677e-09	-2.108129e+01	-1.356464e+02
1.170000e-06	-2.934785e-06	-2.051504e-09	-2.080799e+01	-1.353612e+02
1.180000e-06	-2.896053e-06	-2.041855e-09	-2.053337e+01	-1.350702e+02
1.190000e-06	-2.857155e-06	-2.038184e-09	-2.025758e+01	-1.347732e+02
1.200000e-06	-2.818065e-06	-2.036122e-09	-1.998043e+01	-1.344700e+02
1.210000e-06	-2.778807e-06	-2.027264e-09	-1.970209e+01	-1.341603e+02
1.220000e-06	-2.739362e-06	-2.018568e-09	-1.942242e+01	-1.338440e+02
1.230000e-06	-2.699756e-06	-2.015203e-09	-1.914160e+01	-1.335210e+02
1.240000e-06	-2.659997e-06	-2.012311e-09	-1.885971e+01	-1.331910e+02
1.250000e-06	-2.620026e-06	-2.005230e-09	-1.857631e+01	-1.328540e+02
1.260000e-06	-2.579977e-06	-1.996910e-09	-1.829236e+01	-1.325099e+02
1.270000e-06	-2.539883e-06	-1.989791e-09	-1.800808e+01	-1.321585e+02
1.280000e-06	-2.499644e-06	-1.983440e-09	-1.772278e+01	-1.317999e+02
1.290000e-06	-2.459284e-06	-1.977071e-09	-1.743663e+01	-1.314339e+02
1.300000e-06	-2.418789e-06	-1.968963e-09	-1.714951e+01	-1.310604e+02
1.310000e-06	-2.378091e-06	-1.962930e-09	-1.686096e+01	-1.306795e+02
1.320000e-06	-2.337178e-06	-1.960071e-09	-1.657088e+01	-1.302911e+02
1.330000e-06	-2.296055e-06	-1.955066e-09	-1.627931e+01	-1.298950e+02
1.340000e-06	-2.254687e-06	-1.945455e-09	-1.598601e+01	-1.294912e+02
1.350000e-06	-2.212940e-06	-1.935305e-09	-1.569002e+01	-1.290796e+02
1.360000e-06	-2.170887e-06	-1.925432e-09	-1.539185e+01	-1.286601e+02
1.370000e-06	-2.128550e-06	-1.915182e-09	-1.509168e+01	-1.282325e+02
1.380000e-06	-2.085924e-06	-1.903832e-09	-1.478946e+01	-1.277967e+02
1.390000e-06	-2.043162e-06	-1.895802e-09	-1.448627e+01	-1.273523e+02
1.400000e-06	-2.000256e-06	-1.890500e-09	-1.418206e+01	-1.268993e+02
1.410000e-06	-1.957173e-06	-1.886584e-09	-1.387660e+01	-1.264374e+02
1.420000e-06	-1.913833e-06	-1.879358e-09	-1.356931e+01	-1.259661e+02
1.430000e-06	-1.870249e-06	-1.871290e-09	-1.326030e+01	-1.254852e+02
1.440000e-06	-1.826585e-06	-1.860911e-09	-1.295071e+01	-1.249944e+02
1.450000e-06	-1.782852e-06	-1.848513e-09	-1.264064e+01	-1.244932e+02
1.460000e-06	-1.738991e-06	-1.837870e-09	-1.232966e+01	-1.239811e+02
1.470000e-06	-1.695048e-06	-1.828603e-09	-1.201810e+01	-1.234576e+02
1.480000e-06	-1.651082e-06	-1.818150e-09	-1.170637e+01	-1.229224e+02
1.490000e-06	-1.607062e-06	-1.807910e-09	-1.139427e+01	-1.223747e+02
1.500000e-06	-1.562978e-06	-1.797964e-09	-1.108171e+01	-1.218141e+02
1.510000e-06	-1.518828e-06	-1.789670e-09	-1.076868e+01	-1.212400e+02
1.520000e-06	-1.474595e-06	-1.782333e-09	-1.045506e+01	-1.206516e+02
1.530000e-06	-1.430235e-06	-1.773105e-09	-1.014054e+01	-1.200485e+02
1.540000e-06	-1.385809e-06	-1.761522e-09	-9.825556e+00	-1.194300e+02
1.550000e-06	-1.341332e-06	-1.749949e-09	-9.510208e+00	-1.187953e+02
1.560000e-06	-1.296732e-06	-1.738767e-09	-9.193988e+00	-1.181439e+02
1.570000e-06	-1.252071e-06	-1.729553e-09	-8.877340e+00	-1.174751e+02
1.580000e-06	-1.207394e-06	-1.720068e-09	-8.560575e+00	-1.167883e+02
1.590000e-06	-1.162598e-06	-1.711057e-09	-8.242966e+00	-1.160827e+02
1.600000e-06	-1.117729e-06	-1.702817e-09	-7.924839e+00	-1.153578e+02
1.610000e-06	-1.072808e-06	-1.690630e-09	-7.606340e+00	-1.146130e+02
1.620000e-06	-1.027753e-06	-1.673805e-09	-7.286893e+00	-1.138476e+02
1.630000e-06	-9.825823e-07	-1.656047e-09	-6.966629e+00	-1.130609e+02
1.640000e-06	-9.372999e-07	-1.639556e-09	-6.645572e+00	-1.122526e+02
1.650000e-06	-8.919933e-07	-1.626359e-09	-6.324343e+00	-1.114219e+02
1.660000e-06	-8.466716e-07	-1.617231e-09	-6.003006e+00	-1.105684e+02
1.670000e-06	-8.012494e-07	-1.608919e-09	-5.680957e+00	-1.096914e+02
1.680000e-06	-7.557412e-07	-1.597906e-09	-5.358298e+00	-1.087906e+02
1.690000e-06	-7.101739e-07	-1.581875e-09	-5.035220e+00	-1.078652e+02
1.700000e-06	-6.645319e-07	-1.562510e-09	-4.711613e+00	-1.069149e+02
1.710000e-06	-6.188606e-07	-1.542651e-09	-4.387798e+00	-1.059390e+02
1.720000e-06	-5.731958e-07	-1.526679e-09	-4.064029e+00	-1.049370e+02
1.730000e-06	-5.275192e-07	-1.513364e-09	-3.740176e+00	-1.039083e+02
1.740000e-06	-4.818618e-07	-1.500055e-09	-3.416460e+00	-1.028524e+02
1.750000e-06	-4.361470e-07	-1.486516e-09	-3.092336e+00	-1.017684e+02
1.760000e-06	-3.902537e-07	-1.475145e-09	-2.766947e+00	-1.006558e+02
1.770000e-06	-3.443489e-07	-1.460968e-09	-2.441476e+00	-9.951365e+01
1.780000e-06	-2.985410e-07	-1.439753e-09	-2.116692e+00	-9.834118e+01
1.790000e-06	-2.526855e-07	-1.414756e-09	-1.791571e+00	-9.713742e+01
1.800000e-06	-2.067601e-07	-1.393188e-09	-1.465955e+00	-9.590131e+01
1.810000e-06	-1.608634e-07	-1.376889e-09	-1.140541e+00	-9.463169e+01
1.820000e-06	-1.149378e-07	-1.362043e-09	-8.149234e-01	-9.332731e+01
1.830000e-06	-6.894143e-08	-1.344452e-09	-4.888033e-01	-9.198676e+01
1.840000e-06	-2.297482e-08	-1.325910e-09	-1.628943e-01	-9.060853e+01
1.850000e-06	2.294377e-08	-1.306799e-09	1.626742e-01	-8.919097e+01
1.860000e-06	6.888519e-08	-1.283612e-09	4.884045e-01	-8.773231e+01
1.870000e-06	1.149370e-07	-1.255799e-09	8.149178e-01	-8.623065e+01
1.880000e-06	1.609868e-07	-1.229097e-09	1.141416e+00	-8.468394e+01
1.890000e-06	2.069376e-07	-1.205891e-09	1.467213e+00	-8.309006e+01
1.900000e-06	2.528501e-07	-1.183613e-09	1.792738e+00	-8.144673e+01
1.910000e-06	2.987303e-07	-1.159198e-09	2.118034e+00	-7.975162e+01
1.920000e-06	3.445760e-07	-1.133950e-09	2.443086e+00	-7.800229e+01
1.930000e-06	3.904137e-07	-1.111244e-09	2.768081e+00	-7.619626e+01
1.940000e-06	4.362629e-07	-1.086982e-09	3.093158e+00	-7.433100e+01
1.950000e-06	4.820213e-07	-1.057309e-09	3.417590e+00	-7.240397e+01
1.960000e-06	5.276694e-07	-1.023552e-09	3.741241e+00	-7.041265e+01
1.970000e-06	5.732865e-07	-9.902879e-10	4.064672e+00	-6.835456e+01
1.980000e-06	6.188873e-07	-9.592038e-10	4.387987e+00	-6.622730e+01
1.990000e-06	6.644676e-07	-9.267899e-10	4.711157e+00	-6.402859e+01
2.000000e-06	7.100188e-07	-8.915540e-10	5.034121e+00	-6.175627e+01
2.010000e-06	7.554180e-07	-8.583826e-10	5.356006e+00	-5.940841e+01
2.020000e-06	8.007454e-07	-8.286293e-10	5.677384e+00	-5.698326e+01
2.030000e-06	8.461351e-07	-7.958948e-10	5.999202e+00	-5.447934e+01
2.040000e-06	8.914279e-07	-7.566000e-10	6.320334e+00	-5.189547e+01
2.050000e-06	9.366776e-07	-7.151761e-10	6.641159e+00	-4.923080e+01
2.060000e-06	9.819092e-07	-6.738506e-10	6.961857e+00	-4.648483e+01
2.070000e-06	1.027024e-06	-6.314204e-10	7.281725e+00	-4.365747e+01
2.080000e-06	1.072006e-06	-5.854128e-10	7.600655e+00	-4.074904e+01
2.090000e-06	1.116863e-06	-5.389401e-10	7.918694e+00	-3.776032e+01
2.100000e-06	1.161654e-06	-4.964765e-10	8.236268e+00	-3.469252e+01
2.110000e-06	1.206416e-06	-4.562777e-10	8.553640e+00	-3.154738e+01
2.120000e-06	1.251133e-06	-4.123735e-10	8.870686e+00	-2.832710e+01
2.130000e-06	1.295722e-06	-3.640508e-10	9.186832e+00	-2.503439e+01
2.140000e-06	1.340232e-06	-3.154526e-10	9.502407e+00	-2.167247e+01
2.150000e-06	1.384738e-06	-2.657491e-10	9.817963e+00	-1.824502e+01
2.160000e-06	1.429171e-06	-2.103677e-10	1.013300e+01	-1.475625e+01
2.170000e-06	1.473481e-06	-1.527652e-10	1.044716e+01	-1.121079e+01
2.180000e-06	1.517642e-06	-9.884918e-11	1.076027e+01	-7.613741e+00
2.190000e-06	1.561751e-06	-4.854325e-11	1.107301e+01	-3.970616e+00
2.200000e-06	1.605816e-06	2.893319e-12	1.138544e+01	-2.873027e-01
2.210000e-06	1.649796e-06	5.934784e-11	1.169725e+01	3.429968e+00
2.220000e-06	1.693762e-06	1.184408e-10	1.200898e+01	7.174666e+00
2.230000e-06	1.737714e-06	1.757844e-10	1.232061e+01	1.094001e+01
2.240000e-06	1.781537e-06	2.328770e-10	1.263131e+01	1.471901e+01
2.250000e-06	1.825243e-06	2.911835e-10	1.294120e+01	1.850454e+01
2.260000e-06	1.868858e-06	3.482328e-10	1.325043e+01	2.228938e+01
2.270000e-06	1.912341e-06	4.033397e-10	1.355873e+01	2.606628e+01
2.280000e-06	1.955745e-06	4.588032e-10	1.386648e+01	2.982799e+01
2.290000e-06	1.998931e-06	5.152490e-10	1.417267e+01	3.356738e+01
2.300000e-06	2.041822e-06	5.721125e-10	1.447677e+01	3.727744e+01
2.310000e-06	2.084533e-06	6.277622e-10	1.477960e+01	4.095135e+01
2.320000e-06	2.127031e-06	6.801608e-10	1.508091e+01	4.458254e+01
2.330000e-06	2.169233e-06	7.319358e-10	1.538013e+01	4.816474e+01
2.340000e-06	2.211095e-06	7.811524e-10	1.567693e+01	5.169203e+01
2.350000e-06	2.252661e-06	8.266619e-10	1.597164e+01	5.515887e+01
2.360000e-06	2.293993e-06	8.717722e-10	1.626469e+01	5.856014e+01
2.370000e-06	2.335099e-06	9.203623e-10	1.655614e+01	6.189117e+01
2.380000e-06	2.375979e-06	9.710450e-10	1.684599e+01	6.514779e+01
2.390000e-06	2.416647e-06	1.018114e-09	1.713432e+01	6.832631e+01
2.400000e-06	2.457160e-06	1.060716e-09	1.742157e+01	7.142356e+01
2.410000e-06	2.497522e-06	1.101785e-09	1.770774e+01	7.443689e+01
2.420000e-06	2.537728e-06	1.141501e-09	1.799280e+01	7.736417e+01
2.430000e-06	2.577787e-06	1.178918e-09	1.827683e+01	8.020380e+01
2.440000e-06	2.617697e-06	1.214581e-09	1.855979e+01	8.295468e+01
2.450000e-06	2.657525e-06	1.250850e-09	1.884218e+01	8.561619e+01
2.460000e-06	2.697262e-06	1.289289e-09	1.912392e+01	8.818821e+01
2.470000e-06	2.736840e-06	1.328443e-09	1.940453e+01	9.067102e+01
2.480000e-06	2.776293e-06	1.364602e-09	1.968426e+01	9.306537e+01
2.490000e-06	2.815566e-06	1.396814e-09	1.996271e+01	9.537234e+01
2.500000e-06	2.854636e-06	1.427036e-09	2.023972e+01	9.759340e+01
2.510000e-06	2.893454e-06	1.455325e-09	2.051495e+01	9.973029e+01
2.520000e-06	2.932045e-06	1.482255e-09	2.078856e+01	1.017850e+02
2.530000e-06	2.970480e-06	1.509899e-09	2.106107e+01	1.037599e+02
2.540000e-06	3.008675e-06	1.539002e-09	2.133188e+01	1.056573e+02
2.550000e-06	3.046645e-06	1.569158e-09	2.160109e+01	1.074799e+02
2.560000e-06	3.084418e-06	1.596761e-09	2.186891e+01	1.092303e+02
2.570000e-06	3.122025e-06	1.620119e-09	2.213554e+01	1.109113e+02
2.580000e-06	3.159426e-06	1.641664e-09	2.240072e+01	1.125257e+02
2.590000e-06	3.196525e-06	1.663131e-09	2.266375e+01	1.140763e+02
2.600000e-06	3.233398e-06	1.683173e-09	2.292519e+01	1.155658e+02
2.610000e-06	3.270091e-06	1.702487e-09	2.318535e+01	1.169970e+02
2.620000e-06	3.306542e-06	1.723166e-09	2.344379e+01	1.183726e+02
2.630000e-06	3.342825e-06	1.743397e-09	2.370104e+01	1.196950e+02
2.640000e-06	3.378993e-06	1.762884e-09	2.395748e+01	1.209667e+02
2.650000e-06	3.415045e-06	1.778778e-09	2.421309e+01	1.221901e+02
2.660000e-06	3.450906e-06	1.792555e-09	2.446735e+01	1.233672e+02
2.670000e-06	3.486558e-06	1.807992e-09	2.472013e+01	1.245002e+02
2.680000e-06	3.522048e-06	1.824274e-09	2.497175e+01	1.255910e+02
2.690000e-06	3.557268e-06	1.837657e-09	2.522147e+01	1.266413e+02
2.700000e-06	3.592095e-06	1.848795e-09	2.546839e+01	1.276529e+02
2.710000e-06	3.626480e-06	1.863404e-09	2.571219e+01	1.286271e+02
2.720000e-06	3.660446e-06	1.880242e-09	2.595301e+01	1.295655e+02
2.730000e-06	3.694050e-06	1.895826e-09	2.619127e+01	1.304694e+02
2.740000e-06	3.727253e-06	1.909729e-09	2.642668e+01	1.313399e+02
2.750000e-06	3.760001e-06	1.923071e-09	2.665887e+01	1.321783e+02
2.760000e-06	3.792434e-06	1.934451e-09	2.688883e+01	1.329855e+02
2.770000e-06	3.824700e-06	1.942882e-09	2.711759e+01	1.337627e+02
2.780000e-06	3.856795e-06	1.950961e-09	2.734515e+01	1.345108e+02
2.790000e-06	3.888769e-06	1.962218e-09	2.757185e+01	1.352307e+02
2.800000e-06	3.920625e-06	1.975667e-09	2.779771e+01	1.359233e+02
2.810000e-06	3.952196e-06	1.989700e-09	2.802156e+01	1.365896e+02
2.820000e-06	3.983477e-06	2.001506e-09	2.824335e+01	1.372304e+02
2.830000e-06	4.014476e-06	2.009570e-09	2.846313e+01	1.378465e+02
2.840000e-06	4.045139e-06	2.014643e-09	2.868053e+01	1.384390e+02
2.850000e-06	4.075482e-06	2.020922e-09	2.889567e+01	1.390085e+02
2.860000e-06	4.105560e-06	2.031314e-09	2.910892e+01	1.395560e+02
2.870000e-06	4.135452e-06	2.044243e-09	2.932086e+01	1.400823e+02
2.880000e-06	4.165063e-06	2.056302e-09	2.953081e+01	1.405884e+02
2.890000e-06	4.194325e-06	2.066404e-09	2.973828e+01	1.410750e+02
2.900000e-06	4.223286e-06	2.075148e-09	2.994362e+01	1.415429e+02
