# Temperatura_=_-1.5
# Concentracion g/m^3_=_4090.0
# C_Vs_to_Am_M_A/Vsm_=_65563218390.804596
# pendiente_HvsI_1/m_=_3716.3
# ordenada_HvsI_A/m_=_1297.0
# frecuencia_Hz_=_135069.61507194015

Tiempo_(s)	Campo_(V.s)	Magnetizacion_(V.s)	Campo_(kA/m)	Magnetizacion_(A/m)
0.000000e+00	-5.384731e-06	-2.516342e-09	-3.840403e+01	-1.604670e+02
1.000000e-08	-5.384903e-06	-2.511618e-09	-3.840525e+01	-1.603768e+02
2.000000e-08	-5.384906e-06	-2.512064e-09	-3.840527e+01	-1.602924e+02
3.000000e-08	-5.384669e-06	-2.514458e-09	-3.840358e+01	-1.602154e+02
4.000000e-08	-5.384111e-06	-2.515499e-09	-3.839960e+01	-1.601474e+02
5.000000e-08	-5.383150e-06	-2.517127e-09	-3.839275e+01	-1.600898e+02
6.000000e-08	-5.381622e-06	-2.523803e-09	-3.838185e+01	-1.600437e+02
7.000000e-08	-5.379538e-06	-2.536398e-09	-3.836699e+01	-1.600101e+02
8.000000e-08	-5.376875e-06	-2.519860e-09	-3.834799e+01	-1.599897e+02
9.000000e-08	-5.373552e-06	-2.459954e-09	-3.832429e+01	-1.599830e+02
1.000000e-07	-5.369623e-06	-2.480106e-09	-3.829627e+01	-1.599900e+02
1.100000e-07	-5.365339e-06	-2.604924e-09	-3.826572e+01	-1.600108e+02
1.200000e-07	-5.360884e-06	-2.579833e-09	-3.823395e+01	-1.600448e+02
1.300000e-07	-5.356193e-06	-2.401156e-09	-3.820049e+01	-1.600915e+02
1.400000e-07	-5.351231e-06	-2.435981e-09	-3.816510e+01	-1.601500e+02
1.500000e-07	-5.345911e-06	-2.615968e-09	-3.812716e+01	-1.602191e+02
1.600000e-07	-5.340223e-06	-2.615073e-09	-3.808659e+01	-1.602973e+02
1.700000e-07	-5.334162e-06	-2.366011e-09	-3.804336e+01	-1.603833e+02
1.800000e-07	-5.327662e-06	-2.408940e-09	-3.799701e+01	-1.604751e+02
1.900000e-07	-5.320721e-06	-2.650926e-09	-3.794751e+01	-1.605711e+02
2.000000e-07	-5.313475e-06	-2.619558e-09	-3.789583e+01	-1.606692e+02
2.100000e-07	-5.306007e-06	-2.418838e-09	-3.784257e+01	-1.607674e+02
2.200000e-07	-5.298312e-06	-2.465758e-09	-3.778768e+01	-1.608637e+02
2.300000e-07	-5.290352e-06	-2.637041e-09	-3.773091e+01	-1.609560e+02
2.400000e-07	-5.282043e-06	-2.530023e-09	-3.767165e+01	-1.610425e+02
2.500000e-07	-5.273306e-06	-2.427658e-09	-3.760934e+01	-1.611212e+02
2.600000e-07	-5.263908e-06	-2.544225e-09	-3.754231e+01	-1.611903e+02
2.700000e-07	-5.253758e-06	-2.614120e-09	-3.746993e+01	-1.612484e+02
2.800000e-07	-5.243064e-06	-2.442935e-09	-3.739365e+01	-1.612939e+02
2.900000e-07	-5.232032e-06	-2.450207e-09	-3.731497e+01	-1.613256e+02
3.000000e-07	-5.220569e-06	-2.589931e-09	-3.723322e+01	-1.613425e+02
3.100000e-07	-5.208732e-06	-2.512980e-09	-3.714880e+01	-1.613438e+02
3.200000e-07	-5.196537e-06	-2.360248e-09	-3.706182e+01	-1.613290e+02
3.300000e-07	-5.183912e-06	-2.488037e-09	-3.697178e+01	-1.612978e+02
3.400000e-07	-5.170906e-06	-2.572174e-09	-3.687902e+01	-1.612502e+02
3.500000e-07	-5.157517e-06	-2.435352e-09	-3.678353e+01	-1.611862e+02
3.600000e-07	-5.143744e-06	-2.405514e-09	-3.668530e+01	-1.611063e+02
3.700000e-07	-5.129573e-06	-2.522997e-09	-3.658423e+01	-1.610111e+02
3.800000e-07	-5.114990e-06	-2.473278e-09	-3.648023e+01	-1.609013e+02
3.900000e-07	-5.099836e-06	-2.403560e-09	-3.637215e+01	-1.607780e+02
4.000000e-07	-5.084085e-06	-2.469035e-09	-3.625981e+01	-1.606423e+02
4.100000e-07	-5.067854e-06	-2.468401e-09	-3.614405e+01	-1.604953e+02
4.200000e-07	-5.051284e-06	-2.390836e-09	-3.602588e+01	-1.603383e+02
4.300000e-07	-5.034403e-06	-2.447747e-09	-3.590548e+01	-1.601728e+02
4.400000e-07	-5.017231e-06	-2.493138e-09	-3.578300e+01	-1.600000e+02
4.500000e-07	-4.999711e-06	-2.403617e-09	-3.565806e+01	-1.598214e+02
4.600000e-07	-4.981825e-06	-2.402416e-09	-3.553049e+01	-1.596382e+02
4.700000e-07	-4.963664e-06	-2.476830e-09	-3.540097e+01	-1.594519e+02
4.800000e-07	-4.945153e-06	-2.454527e-09	-3.526894e+01	-1.592636e+02
4.900000e-07	-4.926212e-06	-2.394351e-09	-3.513386e+01	-1.590744e+02
5.000000e-07	-4.906866e-06	-2.423129e-09	-3.499588e+01	-1.588853e+02
5.100000e-07	-4.887227e-06	-2.429672e-09	-3.485582e+01	-1.586971e+02
5.200000e-07	-4.867339e-06	-2.422247e-09	-3.471397e+01	-1.585106e+02
5.300000e-07	-4.847217e-06	-2.418154e-09	-3.457046e+01	-1.583263e+02
5.400000e-07	-4.826885e-06	-2.406917e-09	-3.442545e+01	-1.581446e+02
5.500000e-07	-4.806235e-06	-2.392034e-09	-3.427818e+01	-1.579658e+02
5.600000e-07	-4.785217e-06	-2.426909e-09	-3.412828e+01	-1.577899e+02
5.700000e-07	-4.763883e-06	-2.417058e-09	-3.397612e+01	-1.576168e+02
5.800000e-07	-4.742191e-06	-2.383786e-09	-3.382142e+01	-1.574465e+02
5.900000e-07	-4.720161e-06	-2.383429e-09	-3.366430e+01	-1.572786e+02
6.000000e-07	-4.697851e-06	-2.407227e-09	-3.350518e+01	-1.571125e+02
6.100000e-07	-4.675182e-06	-2.395268e-09	-3.334351e+01	-1.569480e+02
6.200000e-07	-4.652176e-06	-2.382496e-09	-3.317942e+01	-1.567842e+02
6.300000e-07	-4.628926e-06	-2.369864e-09	-3.301361e+01	-1.566207e+02
6.400000e-07	-4.605432e-06	-2.377852e-09	-3.284605e+01	-1.564567e+02
6.500000e-07	-4.581638e-06	-2.394010e-09	-3.267635e+01	-1.562916e+02
6.600000e-07	-4.557600e-06	-2.383695e-09	-3.250491e+01	-1.561245e+02
6.700000e-07	-4.533332e-06	-2.353132e-09	-3.233183e+01	-1.559550e+02
6.800000e-07	-4.508750e-06	-2.360254e-09	-3.215651e+01	-1.557823e+02
6.900000e-07	-4.483716e-06	-2.378554e-09	-3.197797e+01	-1.556058e+02
7.000000e-07	-4.458175e-06	-2.367521e-09	-3.179580e+01	-1.554251e+02
7.100000e-07	-4.432122e-06	-2.347526e-09	-3.161000e+01	-1.552397e+02
7.200000e-07	-4.405599e-06	-2.344028e-09	-3.142083e+01	-1.550492e+02
7.300000e-07	-4.378687e-06	-2.354375e-09	-3.122890e+01	-1.548534e+02
7.400000e-07	-4.351420e-06	-2.355413e-09	-3.103443e+01	-1.546520e+02
7.500000e-07	-4.323812e-06	-2.340760e-09	-3.083753e+01	-1.544449e+02
7.600000e-07	-4.295926e-06	-2.327153e-09	-3.063864e+01	-1.542321e+02
7.700000e-07	-4.267895e-06	-2.339614e-09	-3.043872e+01	-1.540137e+02
7.800000e-07	-4.239671e-06	-2.342418e-09	-3.023743e+01	-1.537898e+02
7.900000e-07	-4.211206e-06	-2.325478e-09	-3.003442e+01	-1.535606e+02
8.000000e-07	-4.182509e-06	-2.305611e-09	-2.982975e+01	-1.533264e+02
8.100000e-07	-4.153487e-06	-2.307568e-09	-2.962276e+01	-1.530873e+02
8.200000e-07	-4.124079e-06	-2.309375e-09	-2.941303e+01	-1.528439e+02
8.300000e-07	-4.094346e-06	-2.306374e-09	-2.920097e+01	-1.525963e+02
8.400000e-07	-4.064358e-06	-2.291933e-09	-2.898710e+01	-1.523451e+02
8.500000e-07	-4.034141e-06	-2.290468e-09	-2.877158e+01	-1.520904e+02
8.600000e-07	-4.003646e-06	-2.294802e-09	-2.855410e+01	-1.518328e+02
8.700000e-07	-3.972920e-06	-2.291119e-09	-2.833496e+01	-1.515725e+02
8.800000e-07	-3.942001e-06	-2.268642e-09	-2.811444e+01	-1.513099e+02
8.900000e-07	-3.910840e-06	-2.255854e-09	-2.789220e+01	-1.510452e+02
9.000000e-07	-3.879411e-06	-2.258793e-09	-2.766805e+01	-1.507786e+02
9.100000e-07	-3.847720e-06	-2.265431e-09	-2.744203e+01	-1.505103e+02
9.200000e-07	-3.815849e-06	-2.253965e-09	-2.721473e+01	-1.502404e+02
9.300000e-07	-3.783820e-06	-2.242439e-09	-2.698629e+01	-1.499691e+02
9.400000e-07	-3.751607e-06	-2.241171e-09	-2.675655e+01	-1.496964e+02
9.500000e-07	-3.719227e-06	-2.242992e-09	-2.652561e+01	-1.494222e+02
9.600000e-07	-3.686520e-06	-2.232718e-09	-2.629234e+01	-1.491465e+02
9.700000e-07	-3.653383e-06	-2.219959e-09	-2.605601e+01	-1.488692e+02
9.800000e-07	-3.619863e-06	-2.216960e-09	-2.581694e+01	-1.485902e+02
9.900000e-07	-3.585896e-06	-2.217898e-09	-2.557470e+01	-1.483094e+02
1.000000e-06	-3.551460e-06	-2.208055e-09	-2.532909e+01	-1.480264e+02
1.010000e-06	-3.516688e-06	-2.192336e-09	-2.508110e+01	-1.477413e+02
1.020000e-06	-3.481549e-06	-2.183759e-09	-2.483049e+01	-1.474537e+02
1.030000e-06	-3.446099e-06	-2.179737e-09	-2.457766e+01	-1.471635e+02
1.040000e-06	-3.410504e-06	-2.174331e-09	-2.432379e+01	-1.468704e+02
1.050000e-06	-3.374714e-06	-2.167063e-09	-2.406854e+01	-1.465744e+02
1.060000e-06	-3.338755e-06	-2.164285e-09	-2.381208e+01	-1.462751e+02
1.070000e-06	-3.302671e-06	-2.163032e-09	-2.355472e+01	-1.459726e+02
1.080000e-06	-3.266439e-06	-2.158373e-09	-2.329632e+01	-1.456665e+02
1.090000e-06	-3.230029e-06	-2.143920e-09	-2.303664e+01	-1.453568e+02
1.100000e-06	-3.193386e-06	-2.131269e-09	-2.277530e+01	-1.450435e+02
1.110000e-06	-3.156465e-06	-2.126324e-09	-2.251198e+01	-1.447263e+02
1.120000e-06	-3.119307e-06	-2.127180e-09	-2.224697e+01	-1.444053e+02
1.130000e-06	-3.081974e-06	-2.120570e-09	-2.198071e+01	-1.440803e+02
1.140000e-06	-3.044440e-06	-2.113038e-09	-2.171302e+01	-1.437513e+02
1.150000e-06	-3.006666e-06	-2.110442e-09	-2.144361e+01	-1.434182e+02
1.160000e-06	-2.968705e-06	-2.110453e-09	-2.117288e+01	-1.430810e+02
1.170000e-06	-2.930568e-06	-2.102362e-09	-2.090088e+01	-1.427396e+02
1.180000e-06	-2.892180e-06	-2.091824e-09	-2.062710e+01	-1.423939e+02
1.190000e-06	-2.853584e-06	-2.084053e-09	-2.035183e+01	-1.420437e+02
1.200000e-06	-2.814836e-06	-2.081851e-09	-2.007547e+01	-1.416889e+02
1.210000e-06	-2.775893e-06	-2.075267e-09	-1.979774e+01	-1.413294e+02
1.220000e-06	-2.736646e-06	-2.066451e-09	-1.951782e+01	-1.409649e+02
1.230000e-06	-2.697093e-06	-2.060205e-09	-1.923573e+01	-1.405952e+02
1.240000e-06	-2.657417e-06	-2.059818e-09	-1.895276e+01	-1.402200e+02
1.250000e-06	-2.617631e-06	-2.057267e-09	-1.866900e+01	-1.398389e+02
1.260000e-06	-2.577700e-06	-2.052058e-09	-1.838422e+01	-1.394517e+02
1.270000e-06	-2.537713e-06	-2.044224e-09	-1.809903e+01	-1.390578e+02
1.280000e-06	-2.497688e-06	-2.036212e-09	-1.781357e+01	-1.386570e+02
1.290000e-06	-2.457588e-06	-2.030258e-09	-1.752758e+01	-1.382487e+02
1.300000e-06	-2.417405e-06	-2.025315e-09	-1.724099e+01	-1.378324e+02
1.310000e-06	-2.377123e-06	-2.018984e-09	-1.695369e+01	-1.374077e+02
1.320000e-06	-2.336665e-06	-2.011827e-09	-1.666515e+01	-1.369742e+02
1.330000e-06	-2.296062e-06	-2.005712e-09	-1.637557e+01	-1.365313e+02
1.340000e-06	-2.255245e-06	-1.997733e-09	-1.608446e+01	-1.360786e+02
1.350000e-06	-2.214052e-06	-1.987036e-09	-1.579067e+01	-1.356156e+02
1.360000e-06	-2.172421e-06	-1.973895e-09	-1.549376e+01	-1.351420e+02
1.370000e-06	-2.130389e-06	-1.962873e-09	-1.519399e+01	-1.346573e+02
1.380000e-06	-2.088166e-06	-1.954445e-09	-1.489285e+01	-1.341612e+02
1.390000e-06	-2.045755e-06	-1.949590e-09	-1.459037e+01	-1.336535e+02
1.400000e-06	-2.003100e-06	-1.945726e-09	-1.428616e+01	-1.331338e+02
1.410000e-06	-1.960306e-06	-1.942453e-09	-1.398095e+01	-1.326021e+02
1.420000e-06	-1.917308e-06	-1.935968e-09	-1.367428e+01	-1.320582e+02
1.430000e-06	-1.874064e-06	-1.923639e-09	-1.336587e+01	-1.315020e+02
1.440000e-06	-1.830617e-06	-1.906518e-09	-1.305600e+01	-1.309336e+02
1.450000e-06	-1.787031e-06	-1.890316e-09	-1.274514e+01	-1.303529e+02
1.460000e-06	-1.743327e-06	-1.880731e-09	-1.243345e+01	-1.297599e+02
1.470000e-06	-1.699493e-06	-1.877882e-09	-1.212082e+01	-1.291549e+02
1.480000e-06	-1.655620e-06	-1.873084e-09	-1.180792e+01	-1.285380e+02
1.490000e-06	-1.611730e-06	-1.865979e-09	-1.149490e+01	-1.279092e+02
1.500000e-06	-1.567808e-06	-1.856528e-09	-1.118164e+01	-1.272686e+02
1.510000e-06	-1.523863e-06	-1.845894e-09	-1.086823e+01	-1.266165e+02
1.520000e-06	-1.479812e-06	-1.832209e-09	-1.055405e+01	-1.259528e+02
1.530000e-06	-1.435642e-06	-1.815576e-09	-1.023903e+01	-1.252777e+02
1.540000e-06	-1.391410e-06	-1.802390e-09	-9.923571e+00	-1.245911e+02
1.550000e-06	-1.347122e-06	-1.795978e-09	-9.607707e+00	-1.238929e+02
1.560000e-06	-1.302798e-06	-1.791443e-09	-9.291584e+00	-1.231829e+02
1.570000e-06	-1.258467e-06	-1.785618e-09	-8.975414e+00	-1.224609e+02
1.580000e-06	-1.214103e-06	-1.775469e-09	-8.659010e+00	-1.217265e+02
1.590000e-06	-1.169660e-06	-1.762397e-09	-8.342042e+00	-1.209793e+02
1.600000e-06	-1.125135e-06	-1.747190e-09	-8.024489e+00	-1.202187e+02
1.610000e-06	-1.080473e-06	-1.730726e-09	-7.705961e+00	-1.194438e+02
1.620000e-06	-1.035661e-06	-1.713366e-09	-7.386358e+00	-1.186540e+02
1.630000e-06	-9.907157e-07	-1.699735e-09	-7.065807e+00	-1.178483e+02
1.640000e-06	-9.456582e-07	-1.687916e-09	-6.744456e+00	-1.170254e+02
1.650000e-06	-9.006073e-07	-1.675895e-09	-6.423152e+00	-1.161844e+02
1.660000e-06	-8.555166e-07	-1.665083e-09	-6.101564e+00	-1.153238e+02
1.670000e-06	-8.103534e-07	-1.654069e-09	-5.779459e+00	-1.144424e+02
1.680000e-06	-7.652053e-07	-1.642482e-09	-5.457462e+00	-1.135385e+02
1.690000e-06	-7.199581e-07	-1.626906e-09	-5.134757e+00	-1.126106e+02
1.700000e-06	-6.746112e-07	-1.607829e-09	-4.811342e+00	-1.116572e+02
1.710000e-06	-6.291838e-07	-1.588017e-09	-4.487353e+00	-1.106765e+02
1.720000e-06	-5.837134e-07	-1.571851e-09	-4.163058e+00	-1.096670e+02
1.730000e-06	-5.383039e-07	-1.556802e-09	-3.839196e+00	-1.086268e+02
1.740000e-06	-4.928792e-07	-1.539360e-09	-3.515226e+00	-1.075543e+02
1.750000e-06	-4.473550e-07	-1.525439e-09	-3.190546e+00	-1.064479e+02
1.760000e-06	-4.017153e-07	-1.517447e-09	-2.865043e+00	-1.053058e+02
1.770000e-06	-3.560264e-07	-1.506081e-09	-2.539189e+00	-1.041265e+02
1.780000e-06	-3.103175e-07	-1.486335e-09	-2.213191e+00	-1.029085e+02
1.790000e-06	-2.646022e-07	-1.459656e-09	-1.887149e+00	-1.016502e+02
1.800000e-06	-2.188086e-07	-1.435713e-09	-1.560548e+00	-1.003503e+02
1.810000e-06	-1.730122e-07	-1.414292e-09	-1.233927e+00	-9.900742e+01
1.820000e-06	-1.273077e-07	-1.392098e-09	-9.079615e-01	-9.762032e+01
1.830000e-06	-8.158193e-08	-1.370087e-09	-5.818442e-01	-9.618782e+01
1.840000e-06	-3.583796e-08	-1.353496e-09	-2.555972e-01	-9.470884e+01
1.850000e-06	9.908300e-09	-1.339168e-09	7.066622e-02	-9.318235e+01
1.860000e-06	5.564819e-08	-1.319410e-09	3.968842e-01	-9.160742e+01
1.870000e-06	1.013266e-07	-1.292182e-09	7.226637e-01	-8.998313e+01
1.880000e-06	1.469857e-07	-1.264939e-09	1.048305e+00	-8.830866e+01
1.890000e-06	1.926905e-07	-1.240274e-09	1.374273e+00	-8.658321e+01
1.900000e-06	2.383621e-07	-1.212099e-09	1.700004e+00	-8.480601e+01
1.910000e-06	2.840211e-07	-1.178707e-09	2.025645e+00	-8.297633e+01
1.920000e-06	3.297256e-07	-1.147374e-09	2.351610e+00	-8.109342e+01
1.930000e-06	3.753604e-07	-1.125059e-09	2.677079e+00	-7.915657e+01
1.940000e-06	4.208903e-07	-1.105755e-09	3.001799e+00	-7.716505e+01
1.950000e-06	4.663000e-07	-1.081755e-09	3.325662e+00	-7.511812e+01
1.960000e-06	5.117083e-07	-1.051669e-09	3.649515e+00	-7.301503e+01
1.970000e-06	5.571820e-07	-1.020961e-09	3.973835e+00	-7.085502e+01
1.980000e-06	6.025545e-07	-9.872606e-10	4.297432e+00	-6.863732e+01
1.990000e-06	6.479083e-07	-9.475705e-10	4.620897e+00	-6.636115e+01
2.000000e-06	6.932637e-07	-9.067724e-10	4.944373e+00	-6.402573e+01
2.010000e-06	7.385240e-07	-8.718697e-10	5.267170e+00	-6.163030e+01
2.020000e-06	7.837495e-07	-8.423550e-10	5.589719e+00	-5.917414e+01
2.030000e-06	8.289653e-07	-8.144548e-10	5.912200e+00	-5.665654e+01
2.040000e-06	8.740923e-07	-7.829204e-10	6.234047e+00	-5.407690e+01
2.050000e-06	9.191557e-07	-7.466369e-10	6.555440e+00	-5.143467e+01
2.060000e-06	9.641448e-07	-7.056820e-10	6.876303e+00	-4.872946e+01
2.070000e-06	1.008935e-06	-6.609311e-10	7.195744e+00	-4.596098e+01
2.080000e-06	1.053594e-06	-6.130159e-10	7.514258e+00	-4.312914e+01
2.090000e-06	1.098226e-06	-5.652790e-10	7.832572e+00	-4.023404e+01
2.100000e-06	1.142775e-06	-5.212172e-10	8.150300e+00	-3.727599e+01
2.110000e-06	1.187201e-06	-4.821189e-10	8.467148e+00	-3.425560e+01
2.120000e-06	1.231506e-06	-4.444459e-10	8.783131e+00	-3.117372e+01
2.130000e-06	1.275734e-06	-4.058533e-10	9.098566e+00	-2.803153e+01
2.140000e-06	1.319907e-06	-3.630261e-10	9.413606e+00	-2.483055e+01
2.150000e-06	1.364007e-06	-3.120257e-10	9.728132e+00	-2.157263e+01
2.160000e-06	1.408091e-06	-2.546796e-10	1.004254e+01	-1.825999e+01
2.170000e-06	1.452183e-06	-1.957793e-10	1.035701e+01	-1.489524e+01
2.180000e-06	1.496203e-06	-1.412078e-10	1.067095e+01	-1.148134e+01
2.190000e-06	1.540156e-06	-9.157724e-11	1.098443e+01	-8.021672e+00
2.200000e-06	1.584079e-06	-4.486447e-11	1.129769e+01	-4.519960e+00
2.210000e-06	1.627946e-06	2.013602e-12	1.161055e+01	-9.803051e-01
2.220000e-06	1.671738e-06	5.132135e-11	1.192287e+01	2.592842e+00
2.230000e-06	1.715527e-06	1.059917e-10	1.223518e+01	6.194707e+00
2.240000e-06	1.759306e-06	1.641840e-10	1.254741e+01	9.820218e+00
2.250000e-06	1.802963e-06	2.219729e-10	1.285877e+01	1.346403e+01
2.260000e-06	1.846472e-06	2.773634e-10	1.316908e+01	1.712059e+01
2.270000e-06	1.889873e-06	3.322489e-10	1.347862e+01	2.078414e+01
2.280000e-06	1.933085e-06	3.857443e-10	1.378681e+01	2.444879e+01
2.290000e-06	1.976047e-06	4.385827e-10	1.409321e+01	2.810855e+01
2.300000e-06	2.018851e-06	4.936546e-10	1.439849e+01	3.175739e+01
2.310000e-06	2.061442e-06	5.512924e-10	1.470225e+01	3.538932e+01
2.320000e-06	2.103666e-06	6.065063e-10	1.500339e+01	3.899837e+01
2.330000e-06	2.145502e-06	6.588308e-10	1.530177e+01	4.257870e+01
2.340000e-06	2.186992e-06	7.095374e-10	1.559768e+01	4.612465e+01
2.350000e-06	2.228268e-06	7.595874e-10	1.589206e+01	4.963077e+01
2.360000e-06	2.269281e-06	8.090120e-10	1.618456e+01	5.309185e+01
2.370000e-06	2.309931e-06	8.580036e-10	1.647448e+01	5.650301e+01
2.380000e-06	2.350378e-06	9.065885e-10	1.676295e+01	5.985968e+01
2.390000e-06	2.390711e-06	9.563658e-10	1.705061e+01	6.315769e+01
2.400000e-06	2.430939e-06	1.006496e-09	1.733752e+01	6.639326e+01
2.410000e-06	2.471059e-06	1.053131e-09	1.762365e+01	6.956303e+01
2.420000e-06	2.511069e-06	1.095177e-09	1.790901e+01	7.266408e+01
2.430000e-06	2.550979e-06	1.135024e-09	1.819364e+01	7.569393e+01
2.440000e-06	2.590814e-06	1.175226e-09	1.847774e+01	7.865055e+01
2.450000e-06	2.630554e-06	1.214188e-09	1.876117e+01	8.153236e+01
2.460000e-06	2.670225e-06	1.254065e-09	1.904411e+01	8.433821e+01
2.470000e-06	2.709812e-06	1.295494e-09	1.932644e+01	8.706737e+01
2.480000e-06	2.749202e-06	1.337389e-09	1.960737e+01	8.971951e+01
2.490000e-06	2.788334e-06	1.377795e-09	1.988646e+01	9.229469e+01
2.500000e-06	2.827172e-06	1.412708e-09	2.016346e+01	9.479327e+01
2.510000e-06	2.865791e-06	1.442072e-09	2.043889e+01	9.721598e+01
2.520000e-06	2.904215e-06	1.471092e-09	2.071293e+01	9.956378e+01
2.530000e-06	2.942425e-06	1.502540e-09	2.098544e+01	1.018379e+02
2.540000e-06	2.980398e-06	1.534899e-09	2.125627e+01	1.040397e+02
2.550000e-06	3.018149e-06	1.568229e-09	2.152551e+01	1.061709e+02
2.560000e-06	3.055740e-06	1.604833e-09	2.179361e+01	1.082330e+02
2.570000e-06	3.093201e-06	1.639367e-09	2.206078e+01	1.102280e+02
2.580000e-06	3.130497e-06	1.666291e-09	2.232677e+01	1.121576e+02
2.590000e-06	3.167480e-06	1.686127e-09	2.259054e+01	1.140238e+02
2.600000e-06	3.204172e-06	1.705033e-09	2.285223e+01	1.158282e+02
2.610000e-06	3.240656e-06	1.727294e-09	2.311243e+01	1.175729e+02
2.620000e-06	3.276969e-06	1.751893e-09	2.337142e+01	1.192596e+02
2.630000e-06	3.313101e-06	1.778601e-09	2.362911e+01	1.208899e+02
2.640000e-06	3.349099e-06	1.805636e-09	2.388585e+01	1.224654e+02
2.650000e-06	3.385000e-06	1.831876e-09	2.414190e+01	1.239877e+02
2.660000e-06	3.420785e-06	1.854781e-09	2.439712e+01	1.254582e+02
2.670000e-06	3.456411e-06	1.870333e-09	2.465120e+01	1.268782e+02
2.680000e-06	3.491824e-06	1.883194e-09	2.490377e+01	1.282489e+02
2.690000e-06	3.526977e-06	1.899493e-09	2.515448e+01	1.295715e+02
2.700000e-06	3.561748e-06	1.918816e-09	2.540247e+01	1.308470e+02
2.710000e-06	3.596058e-06	1.939498e-09	2.564717e+01	1.320764e+02
2.720000e-06	3.629818e-06	1.961996e-09	2.588794e+01	1.332606e+02
2.730000e-06	3.663061e-06	1.984701e-09	2.612504e+01	1.344005e+02
2.740000e-06	3.695902e-06	2.002861e-09	2.635926e+01	1.354971e+02
2.750000e-06	3.728391e-06	2.015804e-09	2.659097e+01	1.365512e+02
2.760000e-06	3.760636e-06	2.027063e-09	2.682094e+01	1.375638e+02
2.770000e-06	3.792735e-06	2.038523e-09	2.704987e+01	1.385357e+02
2.780000e-06	3.824723e-06	2.052263e-09	2.727801e+01	1.394679e+02
2.790000e-06	3.856613e-06	2.068534e-09	2.750545e+01	1.403615e+02
2.800000e-06	3.888239e-06	2.083386e-09	2.773101e+01	1.412175e+02
2.810000e-06	3.919550e-06	2.097233e-09	2.795432e+01	1.420372e+02
2.820000e-06	3.950638e-06	2.110917e-09	2.817604e+01	1.428217e+02
2.830000e-06	3.981383e-06	2.119597e-09	2.839531e+01	1.435724e+02
2.840000e-06	4.011814e-06	2.125857e-09	2.861235e+01	1.442906e+02
2.850000e-06	4.042064e-06	2.136523e-09	2.882809e+01	1.449779e+02
2.860000e-06	4.072050e-06	2.151263e-09	2.904196e+01	1.456357e+02
2.870000e-06	4.101805e-06	2.165885e-09	2.925417e+01	1.462655e+02
2.880000e-06	4.131331e-06	2.175315e-09	2.946475e+01	1.468689e+02
2.890000e-06	4.160507e-06	2.179754e-09	2.967283e+01	1.474476e+02
2.900000e-06	4.189339e-06	2.183960e-09	2.987846e+01	1.480030e+02
