# Temperatura_=_19.8
# Concentracion g/m^3_=_4090.0
# C_Vs_to_Am_M_A/Vsm_=_65563218390.804596
# pendiente_HvsI_1/m_=_3716.3
# ordenada_HvsI_A/m_=_1297.0
# frecuencia_Hz_=_135080.60504655231

Tiempo_(s)	Campo_(V.s)	Magnetizacion_(V.s)	Campo_(kA/m)	Magnetizacion_(A/m)
0.000000e+00	-5.377751e-06	-2.343812e-09	-3.839377e+01	-1.525183e+02
1.000000e-08	-5.377911e-06	-2.340664e-09	-3.839491e+01	-1.523962e+02
2.000000e-08	-5.377761e-06	-2.333841e-09	-3.839384e+01	-1.522758e+02
3.000000e-08	-5.377344e-06	-2.328535e-09	-3.839086e+01	-1.521585e+02
4.000000e-08	-5.376533e-06	-2.328748e-09	-3.838507e+01	-1.520460e+02
5.000000e-08	-5.375106e-06	-2.336494e-09	-3.837489e+01	-1.519397e+02
6.000000e-08	-5.372972e-06	-2.359733e-09	-3.835965e+01	-1.518410e+02
7.000000e-08	-5.370199e-06	-2.352608e-09	-3.833985e+01	-1.517512e+02
8.000000e-08	-5.366944e-06	-2.256751e-09	-3.831661e+01	-1.516713e+02
9.000000e-08	-5.363254e-06	-2.257990e-09	-3.829027e+01	-1.516024e+02
1.000000e-07	-5.359168e-06	-2.443568e-09	-3.826110e+01	-1.515452e+02
1.100000e-07	-5.354895e-06	-2.414343e-09	-3.823058e+01	-1.515002e+02
1.200000e-07	-5.350492e-06	-2.175603e-09	-3.819915e+01	-1.514678e+02
1.300000e-07	-5.345765e-06	-2.184729e-09	-3.816541e+01	-1.514480e+02
1.400000e-07	-5.340568e-06	-2.471379e-09	-3.812830e+01	-1.514408e+02
1.500000e-07	-5.334861e-06	-2.524277e-09	-3.808756e+01	-1.514457e+02
1.600000e-07	-5.328738e-06	-2.146188e-09	-3.804385e+01	-1.514621e+02
1.700000e-07	-5.322448e-06	-2.168604e-09	-3.799894e+01	-1.514892e+02
1.800000e-07	-5.315810e-06	-2.475991e-09	-3.795155e+01	-1.515259e+02
1.900000e-07	-5.308640e-06	-2.501857e-09	-3.790035e+01	-1.515710e+02
2.000000e-07	-5.301214e-06	-2.198196e-09	-3.784734e+01	-1.516230e+02
2.100000e-07	-5.293638e-06	-2.268905e-09	-3.779325e+01	-1.516804e+02
2.200000e-07	-5.285778e-06	-2.512700e-09	-3.773713e+01	-1.517414e+02
2.300000e-07	-5.277599e-06	-2.416719e-09	-3.767874e+01	-1.518042e+02
2.400000e-07	-5.269108e-06	-2.262961e-09	-3.761812e+01	-1.518669e+02
2.500000e-07	-5.260047e-06	-2.412609e-09	-3.755343e+01	-1.519277e+02
2.600000e-07	-5.250159e-06	-2.501927e-09	-3.748284e+01	-1.519845e+02
2.700000e-07	-5.239631e-06	-2.270342e-09	-3.740768e+01	-1.520356e+02
2.800000e-07	-5.228673e-06	-2.278740e-09	-3.732944e+01	-1.520790e+02
2.900000e-07	-5.217327e-06	-2.493776e-09	-3.724844e+01	-1.521131e+02
3.000000e-07	-5.205588e-06	-2.413256e-09	-3.716463e+01	-1.521362e+02
3.100000e-07	-5.193376e-06	-2.183696e-09	-3.707744e+01	-1.521468e+02
3.200000e-07	-5.180766e-06	-2.357196e-09	-3.698742e+01	-1.521438e+02
3.300000e-07	-5.167839e-06	-2.475601e-09	-3.689513e+01	-1.521258e+02
3.400000e-07	-5.154550e-06	-2.299296e-09	-3.680025e+01	-1.520921e+02
3.500000e-07	-5.140842e-06	-2.230081e-09	-3.670239e+01	-1.520420e+02
3.600000e-07	-5.126684e-06	-2.409975e-09	-3.660130e+01	-1.519749e+02
3.700000e-07	-5.112052e-06	-2.368790e-09	-3.649684e+01	-1.518906e+02
3.800000e-07	-5.097088e-06	-2.291567e-09	-3.639001e+01	-1.517891e+02
3.900000e-07	-5.081687e-06	-2.360775e-09	-3.628006e+01	-1.516705e+02
4.000000e-07	-5.065542e-06	-2.364504e-09	-3.616479e+01	-1.515354e+02
4.100000e-07	-5.048986e-06	-2.257306e-09	-3.604659e+01	-1.513843e+02
4.200000e-07	-5.032269e-06	-2.332531e-09	-3.592724e+01	-1.512178e+02
4.300000e-07	-5.015215e-06	-2.374833e-09	-3.580549e+01	-1.510371e+02
4.400000e-07	-4.997840e-06	-2.262162e-09	-3.568144e+01	-1.508431e+02
4.500000e-07	-4.980122e-06	-2.256443e-09	-3.555494e+01	-1.506371e+02
4.600000e-07	-4.962045e-06	-2.374646e-09	-3.542588e+01	-1.504202e+02
4.700000e-07	-4.943646e-06	-2.347090e-09	-3.529453e+01	-1.501939e+02
4.800000e-07	-4.924906e-06	-2.271776e-09	-3.516074e+01	-1.499594e+02
4.900000e-07	-4.905784e-06	-2.297086e-09	-3.502422e+01	-1.497181e+02
5.000000e-07	-4.886297e-06	-2.316466e-09	-3.488509e+01	-1.494714e+02
5.100000e-07	-4.866580e-06	-2.306212e-09	-3.474433e+01	-1.492205e+02
5.200000e-07	-4.846620e-06	-2.300291e-09	-3.460183e+01	-1.489667e+02
5.300000e-07	-4.826362e-06	-2.277520e-09	-3.445720e+01	-1.487110e+02
5.400000e-07	-4.805811e-06	-2.273916e-09	-3.431048e+01	-1.484546e+02
5.500000e-07	-4.784918e-06	-2.327321e-09	-3.416131e+01	-1.481982e+02
5.600000e-07	-4.763709e-06	-2.311043e-09	-3.400989e+01	-1.479428e+02
5.700000e-07	-4.742166e-06	-2.261798e-09	-3.385609e+01	-1.476888e+02
5.800000e-07	-4.720332e-06	-2.265720e-09	-3.370020e+01	-1.474367e+02
5.900000e-07	-4.698202e-06	-2.297652e-09	-3.354221e+01	-1.471869e+02
6.000000e-07	-4.675689e-06	-2.280890e-09	-3.338149e+01	-1.469396e+02
6.100000e-07	-4.652844e-06	-2.262824e-09	-3.321838e+01	-1.466947e+02
6.200000e-07	-4.629652e-06	-2.241711e-09	-3.305281e+01	-1.464522e+02
6.300000e-07	-4.606148e-06	-2.255497e-09	-3.288500e+01	-1.462117e+02
6.400000e-07	-4.582434e-06	-2.272978e-09	-3.271570e+01	-1.459730e+02
6.500000e-07	-4.558512e-06	-2.255410e-09	-3.254491e+01	-1.457355e+02
6.600000e-07	-4.534321e-06	-2.211896e-09	-3.237220e+01	-1.454988e+02
6.700000e-07	-4.509758e-06	-2.230208e-09	-3.219684e+01	-1.452622e+02
6.800000e-07	-4.484784e-06	-2.250857e-09	-3.201854e+01	-1.450250e+02
6.900000e-07	-4.459384e-06	-2.238086e-09	-3.183720e+01	-1.447866e+02
7.000000e-07	-4.433578e-06	-2.210816e-09	-3.165296e+01	-1.445462e+02
7.100000e-07	-4.407279e-06	-2.212453e-09	-3.146520e+01	-1.443031e+02
7.200000e-07	-4.380506e-06	-2.217941e-09	-3.127406e+01	-1.440567e+02
7.300000e-07	-4.353319e-06	-2.215290e-09	-3.107997e+01	-1.438062e+02
7.400000e-07	-4.325772e-06	-2.188952e-09	-3.088330e+01	-1.435511e+02
7.500000e-07	-4.298064e-06	-2.177337e-09	-3.068548e+01	-1.432908e+02
7.600000e-07	-4.270200e-06	-2.192442e-09	-3.048655e+01	-1.430248e+02
7.700000e-07	-4.242153e-06	-2.197623e-09	-3.028631e+01	-1.427527e+02
7.800000e-07	-4.213850e-06	-2.174458e-09	-3.008425e+01	-1.424742e+02
7.900000e-07	-4.185215e-06	-2.157580e-09	-2.987981e+01	-1.421891e+02
8.000000e-07	-4.156254e-06	-2.160672e-09	-2.967305e+01	-1.418971e+02
8.100000e-07	-4.126953e-06	-2.160868e-09	-2.946385e+01	-1.415982e+02
8.200000e-07	-4.097358e-06	-2.151186e-09	-2.925256e+01	-1.412923e+02
8.300000e-07	-4.067538e-06	-2.134817e-09	-2.903967e+01	-1.409797e+02
8.400000e-07	-4.037549e-06	-2.130920e-09	-2.882557e+01	-1.406603e+02
8.500000e-07	-4.007333e-06	-2.133398e-09	-2.860984e+01	-1.403344e+02
8.600000e-07	-3.976818e-06	-2.125805e-09	-2.839198e+01	-1.400022e+02
8.700000e-07	-3.945994e-06	-2.104106e-09	-2.817192e+01	-1.396641e+02
8.800000e-07	-3.914748e-06	-2.094004e-09	-2.794884e+01	-1.393203e+02
8.900000e-07	-3.883277e-06	-2.095401e-09	-2.772416e+01	-1.389712e+02
9.000000e-07	-3.851710e-06	-2.100972e-09	-2.749879e+01	-1.386170e+02
9.100000e-07	-3.819948e-06	-2.089214e-09	-2.727203e+01	-1.382583e+02
9.200000e-07	-3.787995e-06	-2.079300e-09	-2.704391e+01	-1.378952e+02
9.300000e-07	-3.755820e-06	-2.071939e-09	-2.681420e+01	-1.375282e+02
9.400000e-07	-3.723399e-06	-2.069547e-09	-2.658273e+01	-1.371574e+02
9.500000e-07	-3.690736e-06	-2.055894e-09	-2.634954e+01	-1.367833e+02
9.600000e-07	-3.657777e-06	-2.045267e-09	-2.611423e+01	-1.364060e+02
9.700000e-07	-3.624388e-06	-2.040058e-09	-2.587585e+01	-1.360256e+02
9.800000e-07	-3.590488e-06	-2.042434e-09	-2.563383e+01	-1.356425e+02
9.900000e-07	-3.556145e-06	-2.035702e-09	-2.538864e+01	-1.352566e+02
1.000000e-06	-3.521417e-06	-2.027536e-09	-2.514071e+01	-1.348680e+02
1.010000e-06	-3.486333e-06	-2.018102e-09	-2.489023e+01	-1.344769e+02
1.020000e-06	-3.451013e-06	-2.009618e-09	-2.463807e+01	-1.340831e+02
1.030000e-06	-3.415553e-06	-1.996639e-09	-2.438490e+01	-1.336867e+02
1.040000e-06	-3.379894e-06	-1.989198e-09	-2.413032e+01	-1.332875e+02
1.050000e-06	-3.344011e-06	-1.985953e-09	-2.387414e+01	-1.328856e+02
1.060000e-06	-3.307999e-06	-1.985831e-09	-2.361703e+01	-1.324808e+02
1.070000e-06	-3.271843e-06	-1.983074e-09	-2.335891e+01	-1.320729e+02
1.080000e-06	-3.235509e-06	-1.974274e-09	-2.309950e+01	-1.316618e+02
1.090000e-06	-3.198860e-06	-1.962286e-09	-2.283785e+01	-1.312474e+02
1.100000e-06	-3.161941e-06	-1.952850e-09	-2.257428e+01	-1.308296e+02
1.110000e-06	-3.124877e-06	-1.944348e-09	-2.230966e+01	-1.304081e+02
1.120000e-06	-3.087550e-06	-1.933536e-09	-2.204317e+01	-1.299829e+02
1.130000e-06	-3.050003e-06	-1.926083e-09	-2.177510e+01	-1.295537e+02
1.140000e-06	-3.012252e-06	-1.922778e-09	-2.150559e+01	-1.291204e+02
1.150000e-06	-2.974290e-06	-1.919770e-09	-2.123456e+01	-1.286829e+02
1.160000e-06	-2.936175e-06	-1.909624e-09	-2.096245e+01	-1.282410e+02
1.170000e-06	-2.897867e-06	-1.899959e-09	-2.068895e+01	-1.277945e+02
1.180000e-06	-2.859329e-06	-1.890425e-09	-2.041382e+01	-1.273432e+02
1.190000e-06	-2.820672e-06	-1.883952e-09	-2.013783e+01	-1.268870e+02
1.200000e-06	-2.781801e-06	-1.874172e-09	-1.986031e+01	-1.264256e+02
1.210000e-06	-2.742553e-06	-1.864682e-09	-1.958010e+01	-1.259589e+02
1.220000e-06	-2.703162e-06	-1.856117e-09	-1.929888e+01	-1.254866e+02
1.230000e-06	-2.663701e-06	-1.850526e-09	-1.901715e+01	-1.250083e+02
1.240000e-06	-2.624111e-06	-1.841152e-09	-1.873451e+01	-1.245238e+02
1.250000e-06	-2.584426e-06	-1.835372e-09	-1.845118e+01	-1.240328e+02
1.260000e-06	-2.544632e-06	-1.827624e-09	-1.816707e+01	-1.235348e+02
1.270000e-06	-2.504694e-06	-1.819074e-09	-1.788194e+01	-1.230294e+02
1.280000e-06	-2.464636e-06	-1.810174e-09	-1.759595e+01	-1.225162e+02
1.290000e-06	-2.424496e-06	-1.803482e-09	-1.730938e+01	-1.219946e+02
1.300000e-06	-2.384208e-06	-1.791721e-09	-1.702175e+01	-1.214641e+02
1.310000e-06	-2.343783e-06	-1.777511e-09	-1.673314e+01	-1.209241e+02
1.320000e-06	-2.303149e-06	-1.763845e-09	-1.644304e+01	-1.203740e+02
1.330000e-06	-2.262315e-06	-1.753736e-09	-1.615151e+01	-1.198132e+02
1.340000e-06	-2.221221e-06	-1.746422e-09	-1.585813e+01	-1.192409e+02
1.350000e-06	-2.179751e-06	-1.738679e-09	-1.556205e+01	-1.186565e+02
1.360000e-06	-2.138086e-06	-1.729152e-09	-1.526459e+01	-1.180594e+02
1.370000e-06	-2.096135e-06	-1.719340e-09	-1.496509e+01	-1.174488e+02
1.380000e-06	-2.053908e-06	-1.709389e-09	-1.466361e+01	-1.168241e+02
1.390000e-06	-2.011531e-06	-1.695674e-09	-1.436107e+01	-1.161846e+02
1.400000e-06	-1.968896e-06	-1.680946e-09	-1.405668e+01	-1.155298e+02
1.410000e-06	-1.925954e-06	-1.668595e-09	-1.375010e+01	-1.148590e+02
1.420000e-06	-1.882740e-06	-1.660226e-09	-1.344158e+01	-1.141717e+02
1.430000e-06	-1.839365e-06	-1.650316e-09	-1.313191e+01	-1.134674e+02
1.440000e-06	-1.795910e-06	-1.634408e-09	-1.282167e+01	-1.127456e+02
1.450000e-06	-1.752369e-06	-1.618908e-09	-1.251081e+01	-1.120061e+02
1.460000e-06	-1.708718e-06	-1.609073e-09	-1.219918e+01	-1.112485e+02
1.470000e-06	-1.665015e-06	-1.595793e-09	-1.188716e+01	-1.104724e+02
1.480000e-06	-1.621241e-06	-1.578957e-09	-1.157465e+01	-1.096779e+02
1.490000e-06	-1.577411e-06	-1.565086e-09	-1.126173e+01	-1.088646e+02
1.500000e-06	-1.533533e-06	-1.555065e-09	-1.094846e+01	-1.080325e+02
1.510000e-06	-1.489550e-06	-1.541350e-09	-1.063445e+01	-1.071816e+02
1.520000e-06	-1.445476e-06	-1.523074e-09	-1.031979e+01	-1.063118e+02
1.530000e-06	-1.401370e-06	-1.504624e-09	-1.000491e+01	-1.054231e+02
1.540000e-06	-1.357222e-06	-1.490232e-09	-9.689716e+00	-1.045156e+02
1.550000e-06	-1.313008e-06	-1.474785e-09	-9.374050e+00	-1.035892e+02
1.560000e-06	-1.268771e-06	-1.459805e-09	-9.058226e+00	-1.026440e+02
1.570000e-06	-1.224441e-06	-1.448079e-09	-8.741740e+00	-1.016798e+02
1.580000e-06	-1.179983e-06	-1.439965e-09	-8.424339e+00	-1.006966e+02
1.590000e-06	-1.135460e-06	-1.428814e-09	-8.106473e+00	-9.969421e+01
1.600000e-06	-1.090826e-06	-1.411501e-09	-7.787810e+00	-9.867237e+01
1.610000e-06	-1.046112e-06	-1.390546e-09	-7.468586e+00	-9.763073e+01
1.620000e-06	-1.001320e-06	-1.373768e-09	-7.148799e+00	-9.656884e+01
1.630000e-06	-9.563924e-07	-1.357480e-09	-6.828041e+00	-9.548611e+01
1.640000e-06	-9.113712e-07	-1.335653e-09	-6.506618e+00	-9.438186e+01
1.650000e-06	-8.662722e-07	-1.315522e-09	-6.184640e+00	-9.325523e+01
1.660000e-06	-8.211893e-07	-1.305041e-09	-5.862776e+00	-9.210524e+01
1.670000e-06	-7.760589e-07	-1.298033e-09	-5.540573e+00	-9.093079e+01
1.680000e-06	-7.308127e-07	-1.281185e-09	-5.217544e+00	-8.973061e+01
1.690000e-06	-6.854913e-07	-1.255773e-09	-4.893978e+00	-8.850330e+01
1.700000e-06	-6.400920e-07	-1.232667e-09	-4.569855e+00	-8.724736e+01
1.710000e-06	-5.947303e-07	-1.216104e-09	-4.246001e+00	-8.596114e+01
1.720000e-06	-5.493641e-07	-1.197800e-09	-3.922115e+00	-8.464291e+01
1.730000e-06	-5.039315e-07	-1.173702e-09	-3.597755e+00	-8.329086e+01
1.740000e-06	-4.584534e-07	-1.152541e-09	-3.273070e+00	-8.190309e+01
1.750000e-06	-4.129075e-07	-1.140015e-09	-2.947900e+00	-8.047767e+01
1.760000e-06	-3.673444e-07	-1.127029e-09	-2.622608e+00	-7.901266e+01
1.770000e-06	-3.217765e-07	-1.102616e-09	-2.297282e+00	-7.750611e+01
1.780000e-06	-2.761555e-07	-1.071445e-09	-1.971577e+00	-7.595610e+01
1.790000e-06	-2.304747e-07	-1.046326e-09	-1.645444e+00	-7.436077e+01
1.800000e-06	-1.848386e-07	-1.024451e-09	-1.319632e+00	-7.271834e+01
1.810000e-06	-1.392851e-07	-9.993812e-10	-9.944084e-01	-7.102714e+01
1.820000e-06	-9.374775e-08	-9.717795e-10	-6.693001e-01	-6.928564e+01
1.830000e-06	-4.816386e-08	-9.488347e-10	-3.438597e-01	-6.749246e+01
1.840000e-06	-2.526123e-09	-9.276745e-10	-1.803493e-02	-6.564641e+01
1.850000e-06	4.308411e-08	-9.002912e-10	3.075935e-01	-6.374649e+01
1.860000e-06	8.861681e-08	-8.662637e-10	6.326684e-01	-6.179193e+01
1.870000e-06	1.341919e-07	-8.340096e-10	9.580459e-01	-5.978219e+01
1.880000e-06	1.798309e-07	-8.050266e-10	1.283880e+00	-5.771697e+01
1.890000e-06	2.255193e-07	-7.745786e-10	1.610066e+00	-5.559623e+01
1.900000e-06	2.711927e-07	-7.382621e-10	1.936146e+00	-5.342020e+01
1.910000e-06	3.168161e-07	-7.039164e-10	2.261868e+00	-5.118934e+01
1.920000e-06	3.624142e-07	-6.761061e-10	2.587410e+00	-4.890439e+01
1.930000e-06	4.079596e-07	-6.465332e-10	2.912575e+00	-4.656633e+01
1.940000e-06	4.534919e-07	-6.112771e-10	3.237647e+00	-4.417640e+01
1.950000e-06	4.989671e-07	-5.753555e-10	3.562312e+00	-4.173605e+01
1.960000e-06	5.443901e-07	-5.399513e-10	3.886603e+00	-3.924696e+01
1.970000e-06	5.897325e-07	-4.983586e-10	4.210320e+00	-3.671100e+01
1.980000e-06	6.349931e-07	-4.504509e-10	4.533452e+00	-3.413023e+01
1.990000e-06	6.802149e-07	-4.061480e-10	4.856307e+00	-3.150686e+01
2.000000e-06	7.254122e-07	-3.733627e-10	5.178987e+00	-2.884324e+01
2.010000e-06	7.705419e-07	-3.420167e-10	5.501185e+00	-2.614184e+01
2.020000e-06	8.155983e-07	-3.043350e-10	5.822860e+00	-2.340522e+01
2.030000e-06	8.606309e-07	-2.640706e-10	6.144364e+00	-2.063600e+01
2.040000e-06	9.055429e-07	-2.257394e-10	6.465008e+00	-1.783685e+01
2.050000e-06	9.504337e-07	-1.844954e-10	6.785500e+00	-1.501048e+01
2.060000e-06	9.953988e-07	-1.366915e-10	7.106522e+00	-1.215959e+01
2.070000e-06	1.040247e-06	-8.789758e-11	7.426713e+00	-9.286879e+00
2.080000e-06	1.084909e-06	-4.657140e-11	7.745568e+00	-6.395009e+00
2.090000e-06	1.129410e-06	-8.325307e-12	8.063279e+00	-3.486611e+00
2.100000e-06	1.173840e-06	3.252931e-11	8.380481e+00	-5.642620e-01
2.110000e-06	1.218219e-06	7.806495e-11	8.697321e+00	2.369521e+00
2.120000e-06	1.262564e-06	1.221774e-10	9.013918e+00	5.312285e+00
2.130000e-06	1.306770e-06	1.635757e-10	9.329515e+00	8.261647e+00
2.140000e-06	1.350811e-06	2.090728e-10	9.643940e+00	1.121529e+01
2.150000e-06	1.394871e-06	2.609813e-10	9.958504e+00	1.417098e+01
2.160000e-06	1.438907e-06	3.067381e-10	1.027289e+01	1.712652e+01
2.170000e-06	1.482933e-06	3.444583e-10	1.058721e+01	2.007981e+01
2.180000e-06	1.526947e-06	3.816560e-10	1.090144e+01	2.302876e+01
2.190000e-06	1.570911e-06	4.247020e-10	1.121532e+01	2.597136e+01
2.200000e-06	1.614847e-06	4.719090e-10	1.152900e+01	2.890563e+01
2.210000e-06	1.658719e-06	5.178240e-10	1.184221e+01	3.182961e+01
2.220000e-06	1.702499e-06	5.633703e-10	1.215477e+01	3.474137e+01
2.230000e-06	1.746175e-06	6.086446e-10	1.246659e+01	3.763897e+01
2.240000e-06	1.789694e-06	6.495969e-10	1.277729e+01	4.052051e+01
2.250000e-06	1.833051e-06	6.822326e-10	1.308683e+01	4.338405e+01
2.260000e-06	1.876322e-06	7.150644e-10	1.339576e+01	4.622766e+01
2.270000e-06	1.919467e-06	7.558190e-10	1.370379e+01	4.904941e+01
2.280000e-06	1.962399e-06	8.010159e-10	1.401030e+01	5.184733e+01
2.290000e-06	2.005137e-06	8.441067e-10	1.431542e+01	5.461947e+01
2.300000e-06	2.047600e-06	8.878335e-10	1.461858e+01	5.736382e+01
2.310000e-06	2.089795e-06	9.302264e-10	1.491982e+01	6.007842e+01
2.320000e-06	2.131780e-06	9.690729e-10	1.521957e+01	6.276127e+01
2.330000e-06	2.173493e-06	1.001495e-09	1.551737e+01	6.541040e+01
2.340000e-06	2.214978e-06	1.029679e-09	1.581355e+01	6.802384e+01
2.350000e-06	2.256091e-06	1.060282e-09	1.610707e+01	7.059966e+01
2.360000e-06	2.296879e-06	1.096851e-09	1.639827e+01	7.313597e+01
2.370000e-06	2.337498e-06	1.136314e-09	1.668827e+01	7.563094e+01
2.380000e-06	2.377867e-06	1.176676e-09	1.697648e+01	7.808281e+01
2.390000e-06	2.418040e-06	1.214247e-09	1.726328e+01	8.048990e+01
2.400000e-06	2.458132e-06	1.248079e-09	1.754952e+01	8.285065e+01
2.410000e-06	2.498143e-06	1.276848e-09	1.783517e+01	8.516359e+01
2.420000e-06	2.538064e-06	1.301521e-09	1.812018e+01	8.742740e+01
2.430000e-06	2.577949e-06	1.327328e-09	1.840494e+01	8.964089e+01
2.440000e-06	2.617754e-06	1.357190e-09	1.868912e+01	9.180305e+01
2.450000e-06	2.657357e-06	1.389730e-09	1.897186e+01	9.391299e+01
2.460000e-06	2.696749e-06	1.422480e-09	1.925310e+01	9.597004e+01
2.470000e-06	2.736045e-06	1.452217e-09	1.953365e+01	9.797368e+01
2.480000e-06	2.775207e-06	1.478552e-09	1.981324e+01	9.992358e+01
2.490000e-06	2.814092e-06	1.501358e-09	2.009085e+01	1.018196e+02
2.500000e-06	2.852662e-06	1.521903e-09	2.036622e+01	1.036618e+02
2.510000e-06	2.891037e-06	1.543197e-09	2.064019e+01	1.054503e+02
2.520000e-06	2.929292e-06	1.568179e-09	2.091331e+01	1.071855e+02
2.530000e-06	2.967385e-06	1.596463e-09	2.118526e+01	1.088681e+02
2.540000e-06	3.005254e-06	1.624693e-09	2.145563e+01	1.104986e+02
2.550000e-06	3.042928e-06	1.653980e-09	2.172459e+01	1.120780e+02
2.560000e-06	3.080406e-06	1.678861e-09	2.199216e+01	1.136071e+02
2.570000e-06	3.117642e-06	1.696536e-09	2.225801e+01	1.150870e+02
2.580000e-06	3.154701e-06	1.711253e-09	2.252258e+01	1.165190e+02
2.590000e-06	3.191521e-06	1.727704e-09	2.278545e+01	1.179042e+02
2.600000e-06	3.228075e-06	1.748719e-09	2.304643e+01	1.192439e+02
2.610000e-06	3.264401e-06	1.771540e-09	2.330577e+01	1.205395e+02
2.620000e-06	3.300545e-06	1.791820e-09	2.356382e+01	1.217923e+02
2.630000e-06	3.336579e-06	1.811368e-09	2.382108e+01	1.230037e+02
2.640000e-06	3.372493e-06	1.829705e-09	2.407748e+01	1.241750e+02
2.650000e-06	3.408277e-06	1.843676e-09	2.433296e+01	1.253075e+02
2.660000e-06	3.443929e-06	1.853159e-09	2.458749e+01	1.264026e+02
2.670000e-06	3.479329e-06	1.863046e-09	2.484022e+01	1.274615e+02
2.680000e-06	3.514353e-06	1.878545e-09	2.509028e+01	1.284855e+02
2.690000e-06	3.548964e-06	1.897022e-09	2.533737e+01	1.294755e+02
2.700000e-06	3.583201e-06	1.915007e-09	2.558181e+01	1.304328e+02
2.710000e-06	3.617020e-06	1.933493e-09	2.582325e+01	1.313584e+02
2.720000e-06	3.650399e-06	1.949272e-09	2.606155e+01	1.322531e+02
2.730000e-06	3.683403e-06	1.959493e-09	2.629719e+01	1.331179e+02
2.740000e-06	3.716090e-06	1.962112e-09	2.653055e+01	1.339535e+02
2.750000e-06	3.748533e-06	1.967849e-09	2.676217e+01	1.347608e+02
2.760000e-06	3.780716e-06	1.981778e-09	2.699194e+01	1.355405e+02
2.770000e-06	3.812684e-06	2.000582e-09	2.722017e+01	1.362932e+02
2.780000e-06	3.844476e-06	2.018892e-09	2.744714e+01	1.370196e+02
2.790000e-06	3.876117e-06	2.033018e-09	2.767304e+01	1.377203e+02
2.800000e-06	3.907569e-06	2.044426e-09	2.789759e+01	1.383958e+02
2.810000e-06	3.938688e-06	2.053250e-09	2.811976e+01	1.390468e+02
2.820000e-06	3.969506e-06	2.054998e-09	2.833978e+01	1.396739e+02
2.830000e-06	4.000048e-06	2.053255e-09	2.855783e+01	1.402776e+02
2.840000e-06	4.030285e-06	2.059735e-09	2.877371e+01	1.408586e+02
2.850000e-06	4.060296e-06	2.077461e-09	2.898796e+01	1.414174e+02
2.860000e-06	4.090072e-06	2.097419e-09	2.920054e+01	1.419548e+02
2.870000e-06	4.119597e-06	2.109782e-09	2.941134e+01	1.424713e+02
2.880000e-06	4.148842e-06	2.114007e-09	2.962013e+01	1.429677e+02
2.890000e-06	4.177763e-06	2.114911e-09	2.982660e+01	1.434446e+02
2.900000e-06	4.206365e-06	2.114059e-09	3.003081e+01	1.439029e+02
