# Temperatura_=_-0.87
# Concentracion g/m^3_=_4090.0
# C_Vs_to_Am_M_A/Vsm_=_65563218390.804596
# pendiente_HvsI_1/m_=_3716.3
# ordenada_HvsI_A/m_=_1297.0
# frecuencia_Hz_=_135064.86440393425

Tiempo_(s)	Campo_(V.s)	Magnetizacion_(V.s)	Campo_(kA/m)	Magnetizacion_(A/m)
0.000000e+00	-5.432187e-06	-2.525700e-09	-3.840767e+01	-1.648665e+02
1.000000e-08	-5.432285e-06	-2.528653e-09	-3.840836e+01	-1.648157e+02
2.000000e-08	-5.432268e-06	-2.534718e-09	-3.840824e+01	-1.647613e+02
3.000000e-08	-5.431987e-06	-2.536732e-09	-3.840625e+01	-1.647045e+02
4.000000e-08	-5.431306e-06	-2.532217e-09	-3.840144e+01	-1.646466e+02
5.000000e-08	-5.430190e-06	-2.526594e-09	-3.839355e+01	-1.645887e+02
6.000000e-08	-5.428508e-06	-2.523448e-09	-3.838165e+01	-1.645323e+02
7.000000e-08	-5.426068e-06	-2.520415e-09	-3.836440e+01	-1.644785e+02
8.000000e-08	-5.422964e-06	-2.517589e-09	-3.834245e+01	-1.644287e+02
9.000000e-08	-5.419295e-06	-2.538398e-09	-3.831652e+01	-1.643839e+02
1.000000e-07	-5.415153e-06	-2.580791e-09	-3.828723e+01	-1.643454e+02
1.100000e-07	-5.410864e-06	-2.575480e-09	-3.825691e+01	-1.643139e+02
1.200000e-07	-5.406481e-06	-2.519887e-09	-3.822592e+01	-1.642905e+02
1.300000e-07	-5.401787e-06	-2.510819e-09	-3.819272e+01	-1.642757e+02
1.400000e-07	-5.396613e-06	-2.547984e-09	-3.815614e+01	-1.642700e+02
1.500000e-07	-5.391087e-06	-2.556501e-09	-3.811707e+01	-1.642737e+02
1.600000e-07	-5.385267e-06	-2.493565e-09	-3.807592e+01	-1.642869e+02
1.700000e-07	-5.378975e-06	-2.504396e-09	-3.803144e+01	-1.643094e+02
1.800000e-07	-5.372236e-06	-2.573551e-09	-3.798379e+01	-1.643410e+02
1.900000e-07	-5.365193e-06	-2.596259e-09	-3.793399e+01	-1.643811e+02
2.000000e-07	-5.357848e-06	-2.550395e-09	-3.788206e+01	-1.644289e+02
2.100000e-07	-5.350181e-06	-2.547765e-09	-3.782785e+01	-1.644834e+02
2.200000e-07	-5.342245e-06	-2.589357e-09	-3.777174e+01	-1.645436e+02
2.300000e-07	-5.334070e-06	-2.595082e-09	-3.771394e+01	-1.646081e+02
2.400000e-07	-5.325619e-06	-2.589420e-09	-3.765419e+01	-1.646756e+02
2.500000e-07	-5.316591e-06	-2.615232e-09	-3.759035e+01	-1.647444e+02
2.600000e-07	-5.306833e-06	-2.643423e-09	-3.752136e+01	-1.648129e+02
2.700000e-07	-5.296540e-06	-2.633647e-09	-3.744859e+01	-1.648794e+02
2.800000e-07	-5.285727e-06	-2.640444e-09	-3.737214e+01	-1.649423e+02
2.900000e-07	-5.274404e-06	-2.648289e-09	-3.729208e+01	-1.649998e+02
3.000000e-07	-5.262689e-06	-2.626545e-09	-3.720925e+01	-1.650503e+02
3.100000e-07	-5.250618e-06	-2.598007e-09	-3.712391e+01	-1.650921e+02
3.200000e-07	-5.238116e-06	-2.627415e-09	-3.703551e+01	-1.651236e+02
3.300000e-07	-5.225161e-06	-2.643561e-09	-3.694391e+01	-1.651436e+02
3.400000e-07	-5.211868e-06	-2.614683e-09	-3.684992e+01	-1.651507e+02
3.500000e-07	-5.198201e-06	-2.598491e-09	-3.675329e+01	-1.651439e+02
3.600000e-07	-5.184125e-06	-2.624614e-09	-3.665377e+01	-1.651222e+02
3.700000e-07	-5.169658e-06	-2.614680e-09	-3.655149e+01	-1.650849e+02
3.800000e-07	-5.154622e-06	-2.585969e-09	-3.644517e+01	-1.650315e+02
3.900000e-07	-5.139022e-06	-2.582735e-09	-3.633487e+01	-1.649618e+02
4.000000e-07	-5.123007e-06	-2.597186e-09	-3.622164e+01	-1.648756e+02
4.100000e-07	-5.106515e-06	-2.589719e-09	-3.610504e+01	-1.647730e+02
4.200000e-07	-5.089579e-06	-2.589255e-09	-3.598529e+01	-1.646545e+02
4.300000e-07	-5.072380e-06	-2.587081e-09	-3.586369e+01	-1.645205e+02
4.400000e-07	-5.054978e-06	-2.577901e-09	-3.574065e+01	-1.643717e+02
4.500000e-07	-5.037264e-06	-2.576002e-09	-3.561541e+01	-1.642090e+02
4.600000e-07	-5.019157e-06	-2.580548e-09	-3.548738e+01	-1.640335e+02
4.700000e-07	-5.000661e-06	-2.568360e-09	-3.535661e+01	-1.638462e+02
4.800000e-07	-4.981794e-06	-2.562747e-09	-3.522321e+01	-1.636484e+02
4.900000e-07	-4.962563e-06	-2.576720e-09	-3.508724e+01	-1.634414e+02
5.000000e-07	-4.943013e-06	-2.576103e-09	-3.494901e+01	-1.632266e+02
5.100000e-07	-4.923182e-06	-2.563079e-09	-3.480880e+01	-1.630053e+02
5.200000e-07	-4.903120e-06	-2.557795e-09	-3.466696e+01	-1.627788e+02
5.300000e-07	-4.882846e-06	-2.555764e-09	-3.452361e+01	-1.625486e+02
5.400000e-07	-4.862284e-06	-2.545029e-09	-3.437823e+01	-1.623157e+02
5.500000e-07	-4.841283e-06	-2.544082e-09	-3.422974e+01	-1.620816e+02
5.600000e-07	-4.819862e-06	-2.541519e-09	-3.407829e+01	-1.618471e+02
5.700000e-07	-4.798216e-06	-2.537775e-09	-3.392525e+01	-1.616134e+02
5.800000e-07	-4.776330e-06	-2.540503e-09	-3.377050e+01	-1.613812e+02
5.900000e-07	-4.754079e-06	-2.545406e-09	-3.361318e+01	-1.611513e+02
6.000000e-07	-4.731531e-06	-2.532391e-09	-3.345375e+01	-1.609241e+02
6.100000e-07	-4.708676e-06	-2.522319e-09	-3.329216e+01	-1.607002e+02
6.200000e-07	-4.685451e-06	-2.517500e-09	-3.312795e+01	-1.604796e+02
6.300000e-07	-4.661931e-06	-2.511791e-09	-3.296165e+01	-1.602627e+02
6.400000e-07	-4.638138e-06	-2.504227e-09	-3.279343e+01	-1.600492e+02
6.500000e-07	-4.614101e-06	-2.505121e-09	-3.262348e+01	-1.598390e+02
6.600000e-07	-4.589901e-06	-2.501649e-09	-3.245238e+01	-1.596317e+02
6.700000e-07	-4.565438e-06	-2.500357e-09	-3.227942e+01	-1.594270e+02
6.800000e-07	-4.540543e-06	-2.502275e-09	-3.210339e+01	-1.592243e+02
6.900000e-07	-4.515152e-06	-2.500208e-09	-3.192387e+01	-1.590229e+02
7.000000e-07	-4.489225e-06	-2.489451e-09	-3.174056e+01	-1.588222e+02
7.100000e-07	-4.462716e-06	-2.483971e-09	-3.155313e+01	-1.586214e+02
7.200000e-07	-4.435688e-06	-2.478957e-09	-3.136203e+01	-1.584197e+02
7.300000e-07	-4.408269e-06	-2.473163e-09	-3.116817e+01	-1.582164e+02
7.400000e-07	-4.380576e-06	-2.469050e-09	-3.097237e+01	-1.580105e+02
7.500000e-07	-4.352717e-06	-2.467569e-09	-3.077540e+01	-1.578014e+02
7.600000e-07	-4.324719e-06	-2.465010e-09	-3.057744e+01	-1.575883e+02
7.700000e-07	-4.296522e-06	-2.461004e-09	-3.037808e+01	-1.573704e+02
7.800000e-07	-4.268065e-06	-2.453618e-09	-3.017687e+01	-1.571471e+02
7.900000e-07	-4.239277e-06	-2.443761e-09	-2.997333e+01	-1.569177e+02
8.000000e-07	-4.210175e-06	-2.437052e-09	-2.976757e+01	-1.566817e+02
8.100000e-07	-4.180819e-06	-2.433127e-09	-2.956001e+01	-1.564387e+02
8.200000e-07	-4.151178e-06	-2.431327e-09	-2.935043e+01	-1.561883e+02
8.300000e-07	-4.121245e-06	-2.427983e-09	-2.913880e+01	-1.559300e+02
8.400000e-07	-4.090981e-06	-2.422261e-09	-2.892482e+01	-1.556638e+02
8.500000e-07	-4.060499e-06	-2.414087e-09	-2.870930e+01	-1.553895e+02
8.600000e-07	-4.029787e-06	-2.404589e-09	-2.849215e+01	-1.551068e+02
8.700000e-07	-3.998752e-06	-2.392316e-09	-2.827272e+01	-1.548159e+02
8.800000e-07	-3.967425e-06	-2.384531e-09	-2.805123e+01	-1.545167e+02
8.900000e-07	-3.935838e-06	-2.380509e-09	-2.782790e+01	-1.542094e+02
9.000000e-07	-3.904071e-06	-2.381044e-09	-2.760330e+01	-1.538940e+02
9.100000e-07	-3.872177e-06	-2.377400e-09	-2.737779e+01	-1.535707e+02
9.200000e-07	-3.840173e-06	-2.371229e-09	-2.715151e+01	-1.532397e+02
9.300000e-07	-3.808015e-06	-2.360700e-09	-2.692414e+01	-1.529012e+02
9.400000e-07	-3.775608e-06	-2.349256e-09	-2.669501e+01	-1.525553e+02
9.500000e-07	-3.742804e-06	-2.338222e-09	-2.646307e+01	-1.522025e+02
9.600000e-07	-3.709463e-06	-2.331324e-09	-2.622734e+01	-1.518427e+02
9.700000e-07	-3.675627e-06	-2.327949e-09	-2.598810e+01	-1.514764e+02
9.800000e-07	-3.641370e-06	-2.324860e-09	-2.574590e+01	-1.511036e+02
9.900000e-07	-3.606797e-06	-2.315986e-09	-2.550145e+01	-1.507245e+02
1.000000e-06	-3.571855e-06	-2.304152e-09	-2.525440e+01	-1.503394e+02
1.010000e-06	-3.536471e-06	-2.294804e-09	-2.500422e+01	-1.499483e+02
1.020000e-06	-3.500788e-06	-2.285699e-09	-2.475192e+01	-1.495515e+02
1.030000e-06	-3.464968e-06	-2.273520e-09	-2.449867e+01	-1.491490e+02
1.040000e-06	-3.429068e-06	-2.264802e-09	-2.424484e+01	-1.487409e+02
1.050000e-06	-3.393020e-06	-2.261047e-09	-2.398996e+01	-1.483273e+02
1.060000e-06	-3.356841e-06	-2.256794e-09	-2.373416e+01	-1.479083e+02
1.070000e-06	-3.320585e-06	-2.247137e-09	-2.347782e+01	-1.474840e+02
1.080000e-06	-3.284141e-06	-2.234123e-09	-2.322015e+01	-1.470544e+02
1.090000e-06	-3.247320e-06	-2.223321e-09	-2.295981e+01	-1.466195e+02
1.100000e-06	-3.210126e-06	-2.217472e-09	-2.269684e+01	-1.461795e+02
1.110000e-06	-3.172725e-06	-2.210880e-09	-2.243240e+01	-1.457343e+02
1.120000e-06	-3.135161e-06	-2.199355e-09	-2.216680e+01	-1.452840e+02
1.130000e-06	-3.097408e-06	-2.189299e-09	-2.189987e+01	-1.448288e+02
1.140000e-06	-3.059448e-06	-2.182627e-09	-2.163148e+01	-1.443685e+02
1.150000e-06	-3.021248e-06	-2.175202e-09	-2.136139e+01	-1.439033e+02
1.160000e-06	-2.982900e-06	-2.161545e-09	-2.109026e+01	-1.434333e+02
1.170000e-06	-2.944392e-06	-2.149158e-09	-2.081799e+01	-1.429585e+02
1.180000e-06	-2.905675e-06	-2.142255e-09	-2.054424e+01	-1.424789e+02
1.190000e-06	-2.866738e-06	-2.137273e-09	-2.026895e+01	-1.419947e+02
1.200000e-06	-2.827415e-06	-2.128789e-09	-1.999092e+01	-1.415058e+02
1.210000e-06	-2.787810e-06	-2.117739e-09	-1.971089e+01	-1.410122e+02
1.220000e-06	-2.748140e-06	-2.109692e-09	-1.943042e+01	-1.405139e+02
1.230000e-06	-2.708385e-06	-2.105041e-09	-1.914933e+01	-1.400110e+02
1.240000e-06	-2.668531e-06	-2.097128e-09	-1.886755e+01	-1.395034e+02
1.250000e-06	-2.628576e-06	-2.086773e-09	-1.858505e+01	-1.389909e+02
1.260000e-06	-2.588526e-06	-2.078781e-09	-1.830188e+01	-1.384734e+02
1.270000e-06	-2.548398e-06	-2.073371e-09	-1.801816e+01	-1.379509e+02
1.280000e-06	-2.508148e-06	-2.065806e-09	-1.773358e+01	-1.374229e+02
1.290000e-06	-2.467742e-06	-2.056840e-09	-1.744789e+01	-1.368894e+02
1.300000e-06	-2.427246e-06	-2.048454e-09	-1.716157e+01	-1.363501e+02
1.310000e-06	-2.386512e-06	-2.040669e-09	-1.687356e+01	-1.358044e+02
1.320000e-06	-2.345319e-06	-2.030164e-09	-1.658232e+01	-1.352522e+02
1.330000e-06	-2.303760e-06	-2.017436e-09	-1.628847e+01	-1.346929e+02
1.340000e-06	-2.262005e-06	-2.007957e-09	-1.599325e+01	-1.341261e+02
1.350000e-06	-2.219957e-06	-2.001416e-09	-1.569596e+01	-1.335514e+02
1.360000e-06	-2.177543e-06	-1.991711e-09	-1.539607e+01	-1.329681e+02
1.370000e-06	-2.134858e-06	-1.979846e-09	-1.509427e+01	-1.323757e+02
1.380000e-06	-2.091978e-06	-1.969642e-09	-1.479109e+01	-1.317738e+02
1.390000e-06	-2.048976e-06	-1.961155e-09	-1.448705e+01	-1.311616e+02
1.400000e-06	-2.005816e-06	-1.950110e-09	-1.418189e+01	-1.305388e+02
1.410000e-06	-1.962459e-06	-1.936205e-09	-1.387535e+01	-1.299046e+02
1.420000e-06	-1.918917e-06	-1.923498e-09	-1.356748e+01	-1.292587e+02
1.430000e-06	-1.875206e-06	-1.913012e-09	-1.325844e+01	-1.286004e+02
1.440000e-06	-1.831427e-06	-1.902771e-09	-1.294890e+01	-1.279292e+02
1.450000e-06	-1.787599e-06	-1.889284e-09	-1.263902e+01	-1.272448e+02
1.460000e-06	-1.743665e-06	-1.876361e-09	-1.232839e+01	-1.265467e+02
1.470000e-06	-1.699674e-06	-1.866175e-09	-1.201735e+01	-1.258345e+02
1.480000e-06	-1.655667e-06	-1.855946e-09	-1.170621e+01	-1.251078e+02
1.490000e-06	-1.611634e-06	-1.842400e-09	-1.139487e+01	-1.243664e+02
1.500000e-06	-1.567496e-06	-1.825905e-09	-1.108280e+01	-1.236100e+02
1.510000e-06	-1.523290e-06	-1.810912e-09	-1.077025e+01	-1.228383e+02
1.520000e-06	-1.479049e-06	-1.797275e-09	-1.045745e+01	-1.220510e+02
1.530000e-06	-1.434721e-06	-1.782523e-09	-1.014403e+01	-1.212481e+02
1.540000e-06	-1.390259e-06	-1.768563e-09	-9.829666e+00	-1.204293e+02
1.550000e-06	-1.345653e-06	-1.757542e-09	-9.514286e+00	-1.195943e+02
1.560000e-06	-1.300972e-06	-1.750036e-09	-9.198377e+00	-1.187431e+02
1.570000e-06	-1.256229e-06	-1.740519e-09	-8.882024e+00	-1.178754e+02
1.580000e-06	-1.211391e-06	-1.725106e-09	-8.565007e+00	-1.169908e+02
1.590000e-06	-1.166404e-06	-1.707067e-09	-8.246928e+00	-1.160892e+02
1.600000e-06	-1.121312e-06	-1.689905e-09	-7.928109e+00	-1.151702e+02
1.610000e-06	-1.076174e-06	-1.671673e-09	-7.608965e+00	-1.142332e+02
1.620000e-06	-1.030928e-06	-1.652019e-09	-7.289062e+00	-1.132779e+02
1.630000e-06	-9.855422e-07	-1.636819e-09	-6.968165e+00	-1.123037e+02
1.640000e-06	-9.400697e-07	-1.626095e-09	-6.646657e+00	-1.113097e+02
1.650000e-06	-8.945334e-07	-1.613126e-09	-6.324697e+00	-1.102953e+02
1.660000e-06	-8.489329e-07	-1.597201e-09	-6.002285e+00	-1.092596e+02
1.670000e-06	-8.032175e-07	-1.580479e-09	-5.679059e+00	-1.082015e+02
1.680000e-06	-7.574625e-07	-1.562880e-09	-5.355553e+00	-1.071199e+02
1.690000e-06	-7.117502e-07	-1.541877e-09	-5.032349e+00	-1.060136e+02
1.700000e-06	-6.660118e-07	-1.518396e-09	-4.708961e+00	-1.048813e+02
1.710000e-06	-6.202406e-07	-1.497688e-09	-4.385341e+00	-1.037216e+02
1.720000e-06	-5.744376e-07	-1.482366e-09	-4.061496e+00	-1.025329e+02
1.730000e-06	-5.286036e-07	-1.469238e-09	-3.737432e+00	-1.013137e+02
1.740000e-06	-4.826931e-07	-1.451277e-09	-3.412827e+00	-1.000623e+02
1.750000e-06	-4.367377e-07	-1.431103e-09	-3.087905e+00	-9.877706e+01
1.760000e-06	-3.907921e-07	-1.413713e-09	-2.763052e+00	-9.745628e+01
1.770000e-06	-3.448044e-07	-1.395440e-09	-2.437901e+00	-9.609822e+01
1.780000e-06	-2.987185e-07	-1.370961e-09	-2.112055e+00	-9.470117e+01
1.790000e-06	-2.526670e-07	-1.344906e-09	-1.786453e+00	-9.326344e+01
1.800000e-06	-2.066747e-07	-1.323034e-09	-1.461270e+00	-9.178339e+01
1.810000e-06	-1.605863e-07	-1.305206e-09	-1.135408e+00	-9.025944e+01
1.820000e-06	-1.144836e-07	-1.285913e-09	-8.094434e-01	-8.869011e+01
1.830000e-06	-6.843332e-08	-1.262227e-09	-4.838500e-01	-8.707399e+01
1.840000e-06	-2.242797e-08	-1.237544e-09	-1.585744e-01	-8.540981e+01
1.850000e-06	2.360350e-08	-1.213485e-09	1.668859e-01	-8.369643e+01
1.860000e-06	6.970596e-08	-1.187795e-09	4.928481e-01	-8.193284e+01
1.870000e-06	1.157409e-07	-1.159348e-09	8.183331e-01	-8.011818e+01
1.880000e-06	1.617055e-07	-1.132688e-09	1.143320e+00	-7.825175e+01
1.890000e-06	2.076782e-07	-1.108183e-09	1.468366e+00	-7.633301e+01
1.900000e-06	2.536654e-07	-1.081658e-09	1.793513e+00	-7.436160e+01
1.910000e-06	2.996868e-07	-1.051406e-09	2.118902e+00	-7.233729e+01
1.920000e-06	3.456719e-07	-1.020462e-09	2.444034e+00	-7.026004e+01
1.930000e-06	3.915892e-07	-9.912669e-10	2.768687e+00	-6.812993e+01
1.940000e-06	4.375069e-07	-9.626250e-10	3.093343e+00	-6.594723e+01
1.950000e-06	4.833767e-07	-9.317757e-10	3.417661e+00	-6.371231e+01
1.960000e-06	5.292259e-07	-8.994742e-10	3.741832e+00	-6.142568e+01
1.970000e-06	5.750690e-07	-8.665656e-10	4.065961e+00	-5.908796e+01
1.980000e-06	6.208037e-07	-8.304170e-10	4.389323e+00	-5.669987e+01
1.990000e-06	6.664705e-07	-7.914780e-10	4.712205e+00	-5.426221e+01
2.000000e-06	7.121364e-07	-7.534437e-10	5.035080e+00	-5.177587e+01
2.010000e-06	7.577504e-07	-7.175086e-10	5.357589e+00	-4.924179e+01
2.020000e-06	8.033258e-07	-6.820492e-10	5.679825e+00	-4.666096e+01
2.030000e-06	8.488919e-07	-6.457085e-10	6.001994e+00	-4.403440e+01
2.040000e-06	8.944002e-07	-6.079645e-10	6.323755e+00	-4.136318e+01
2.050000e-06	9.398127e-07	-5.689821e-10	6.644839e+00	-3.864837e+01
2.060000e-06	9.851667e-07	-5.291130e-10	6.965510e+00	-3.589108e+01
2.070000e-06	1.030505e-06	-4.868506e-10	7.286072e+00	-3.309241e+01
2.080000e-06	1.075707e-06	-4.420500e-10	7.605664e+00	-3.025350e+01
2.090000e-06	1.120776e-06	-3.976688e-10	7.924323e+00	-2.737549e+01
2.100000e-06	1.165734e-06	-3.559716e-10	8.242188e+00	-2.445955e+01
2.110000e-06	1.210604e-06	-3.144387e-10	8.559437e+00	-2.150688e+01
2.120000e-06	1.255412e-06	-2.718100e-10	8.876251e+00	-1.851873e+01
2.130000e-06	1.300037e-06	-2.281763e-10	9.191764e+00	-1.549639e+01
2.140000e-06	1.344581e-06	-1.826514e-10	9.506707e+00	-1.244123e+01
2.150000e-06	1.389122e-06	-1.351182e-10	9.821627e+00	-9.354670e+00
2.160000e-06	1.433578e-06	-8.607635e-11	1.013595e+01	-6.238264e+00
2.170000e-06	1.477868e-06	-3.781263e-11	1.044910e+01	-3.093659e+00
2.180000e-06	1.522010e-06	9.126398e-12	1.076120e+01	7.736453e-02
2.190000e-06	1.566128e-06	5.582472e-11	1.107313e+01	3.272884e+00
2.200000e-06	1.610181e-06	1.021570e-10	1.138460e+01	6.490816e+00
2.210000e-06	1.654148e-06	1.494632e-10	1.169547e+01	9.728910e+00
2.220000e-06	1.698118e-06	1.992794e-10	1.200635e+01	1.298473e+01
2.230000e-06	1.742068e-06	2.505850e-10	1.231709e+01	1.625566e+01
2.240000e-06	1.785940e-06	3.018526e-10	1.262729e+01	1.953887e+01
2.250000e-06	1.829748e-06	3.510236e-10	1.293703e+01	2.283136e+01
2.260000e-06	1.873486e-06	3.975313e-10	1.324627e+01	2.612993e+01
2.270000e-06	1.917120e-06	4.447231e-10	1.355478e+01	2.943118e+01
2.280000e-06	1.960654e-06	4.943816e-10	1.386258e+01	3.273156e+01
2.290000e-06	2.004053e-06	5.433243e-10	1.416943e+01	3.602732e+01
2.300000e-06	2.047266e-06	5.919713e-10	1.447497e+01	3.931461e+01
2.310000e-06	2.090307e-06	6.415651e-10	1.477928e+01	4.258944e+01
2.320000e-06	2.133152e-06	6.917037e-10	1.508221e+01	4.584771e+01
2.330000e-06	2.175753e-06	7.407354e-10	1.538341e+01	4.908527e+01
2.340000e-06	2.217969e-06	7.845970e-10	1.568190e+01	5.229794e+01
2.350000e-06	2.259710e-06	8.272443e-10	1.597702e+01	5.548153e+01
2.360000e-06	2.301168e-06	8.732473e-10	1.627015e+01	5.863189e+01
2.370000e-06	2.342422e-06	9.190155e-10	1.656183e+01	6.174492e+01
2.380000e-06	2.383397e-06	9.625866e-10	1.685154e+01	6.481668e+01
2.390000e-06	2.424109e-06	1.007532e-09	1.713939e+01	6.784332e+01
2.400000e-06	2.464623e-06	1.055635e-09	1.742584e+01	7.082122e+01
2.410000e-06	2.505000e-06	1.102366e-09	1.771132e+01	7.374694e+01
2.420000e-06	2.545188e-06	1.143315e-09	1.799546e+01	7.661732e+01
2.430000e-06	2.585208e-06	1.179660e-09	1.827842e+01	7.942946e+01
2.440000e-06	2.625157e-06	1.215405e-09	1.856088e+01	8.218078e+01
2.450000e-06	2.665010e-06	1.250520e-09	1.884265e+01	8.486903e+01
2.460000e-06	2.704840e-06	1.282974e-09	1.912427e+01	8.749230e+01
2.470000e-06	2.744616e-06	1.317470e-09	1.940550e+01	9.004903e+01
2.480000e-06	2.784174e-06	1.356468e-09	1.968519e+01	9.253806e+01
2.490000e-06	2.823588e-06	1.396396e-09	1.996386e+01	9.495856e+01
2.500000e-06	2.862772e-06	1.433149e-09	2.024091e+01	9.731011e+01
2.510000e-06	2.901622e-06	1.465233e-09	2.051559e+01	9.959261e+01
2.520000e-06	2.940257e-06	1.494994e-09	2.078875e+01	1.018063e+02
2.530000e-06	2.978696e-06	1.523213e-09	2.106054e+01	1.039519e+02
2.540000e-06	3.016923e-06	1.549399e-09	2.133082e+01	1.060302e+02
2.550000e-06	3.054944e-06	1.575647e-09	2.159963e+01	1.080424e+02
2.560000e-06	3.092863e-06	1.605719e-09	2.186774e+01	1.099899e+02
2.570000e-06	3.130644e-06	1.636978e-09	2.213486e+01	1.118745e+02
2.580000e-06	3.168243e-06	1.664900e-09	2.240071e+01	1.136979e+02
2.590000e-06	3.205619e-06	1.688465e-09	2.266497e+01	1.154622e+02
2.600000e-06	3.242686e-06	1.710688e-09	2.292704e+01	1.171695e+02
2.610000e-06	3.279488e-06	1.734254e-09	2.318725e+01	1.188219e+02
2.620000e-06	3.316018e-06	1.756857e-09	2.344553e+01	1.204216e+02
2.630000e-06	3.352290e-06	1.777365e-09	2.370199e+01	1.219710e+02
2.640000e-06	3.388428e-06	1.799243e-09	2.395750e+01	1.234721e+02
2.650000e-06	3.424510e-06	1.823319e-09	2.421261e+01	1.249272e+02
2.660000e-06	3.460477e-06	1.845171e-09	2.446691e+01	1.263381e+02
2.670000e-06	3.496243e-06	1.863549e-09	2.471979e+01	1.277070e+02
2.680000e-06	3.531813e-06	1.881741e-09	2.497129e+01	1.290356e+02
2.690000e-06	3.567137e-06	1.900735e-09	2.522104e+01	1.303255e+02
2.700000e-06	3.602109e-06	1.918367e-09	2.546831e+01	1.315782e+02
2.710000e-06	3.636779e-06	1.935233e-09	2.571343e+01	1.327950e+02
2.720000e-06	3.671032e-06	1.954069e-09	2.595562e+01	1.339772e+02
2.730000e-06	3.704727e-06	1.973666e-09	2.619386e+01	1.351256e+02
2.740000e-06	3.737890e-06	1.990829e-09	2.642833e+01	1.362411e+02
2.750000e-06	3.770675e-06	2.005320e-09	2.666013e+01	1.373245e+02
2.760000e-06	3.803186e-06	2.019885e-09	2.689000e+01	1.383762e+02
2.770000e-06	3.835441e-06	2.035811e-09	2.711805e+01	1.393967e+02
2.780000e-06	3.867546e-06	2.052307e-09	2.734505e+01	1.403862e+02
2.790000e-06	3.899491e-06	2.067127e-09	2.757091e+01	1.413451e+02
2.800000e-06	3.931266e-06	2.080452e-09	2.779557e+01	1.422736e+02
2.810000e-06	3.962889e-06	2.095028e-09	2.801916e+01	1.431717e+02
2.820000e-06	3.994262e-06	2.108422e-09	2.824098e+01	1.440397e+02
2.830000e-06	4.025251e-06	2.119141e-09	2.846008e+01	1.448776e+02
2.840000e-06	4.055861e-06	2.130660e-09	2.867650e+01	1.456858e+02
2.850000e-06	4.086244e-06	2.146316e-09	2.889133e+01	1.464643e+02
2.860000e-06	4.116403e-06	2.163729e-09	2.910456e+01	1.472136e+02
2.870000e-06	4.146318e-06	2.177565e-09	2.931607e+01	1.479339e+02
2.880000e-06	4.175958e-06	2.185817e-09	2.952564e+01	1.486259e+02
2.890000e-06	4.205320e-06	2.190887e-09	2.973324e+01	1.492899e+02
2.900000e-06	4.234417e-06	2.196170e-09	2.993897e+01	1.499268e+02
