# Temperatura_=_-1.9
# Concentracion g/m^3_=_4090.0
# C_Vs_to_Am_M_A/Vsm_=_65563218390.804596
# pendiente_HvsI_1/m_=_3716.3
# ordenada_HvsI_A/m_=_1297.0
# frecuencia_Hz_=_135066.98571006797

Tiempo_(s)	Campo_(V.s)	Magnetizacion_(V.s)	Campo_(kA/m)	Magnetizacion_(A/m)
0.000000e+00	-5.432590e-06	-2.323705e-09	-3.840509e+01	-1.529904e+02
1.000000e-08	-5.432707e-06	-2.319763e-09	-3.840592e+01	-1.528784e+02
2.000000e-08	-5.432536e-06	-2.317893e-09	-3.840471e+01	-1.527713e+02
3.000000e-08	-5.432062e-06	-2.317142e-09	-3.840135e+01	-1.526708e+02
4.000000e-08	-5.431149e-06	-2.317817e-09	-3.839490e+01	-1.525786e+02
5.000000e-08	-5.429649e-06	-2.323031e-09	-3.838430e+01	-1.524959e+02
6.000000e-08	-5.427620e-06	-2.341021e-09	-3.836995e+01	-1.524241e+02
7.000000e-08	-5.425007e-06	-2.341348e-09	-3.835148e+01	-1.523643e+02
8.000000e-08	-5.421721e-06	-2.272659e-09	-3.832825e+01	-1.523173e+02
9.000000e-08	-5.417992e-06	-2.244748e-09	-3.830189e+01	-1.522839e+02
1.000000e-07	-5.413957e-06	-2.388001e-09	-3.827336e+01	-1.522644e+02
1.100000e-07	-5.409656e-06	-2.438594e-09	-3.824296e+01	-1.522590e+02
1.200000e-07	-5.405180e-06	-2.281465e-09	-3.821132e+01	-1.522678e+02
1.300000e-07	-5.400461e-06	-2.186730e-09	-3.817796e+01	-1.522905e+02
1.400000e-07	-5.395326e-06	-2.365418e-09	-3.814165e+01	-1.523264e+02
1.500000e-07	-5.389703e-06	-2.478165e-09	-3.810190e+01	-1.523749e+02
1.600000e-07	-5.383711e-06	-2.248789e-09	-3.805954e+01	-1.524350e+02
1.700000e-07	-5.377392e-06	-2.150634e-09	-3.801487e+01	-1.525056e+02
1.800000e-07	-5.370571e-06	-2.359839e-09	-3.796665e+01	-1.525851e+02
1.900000e-07	-5.363340e-06	-2.496203e-09	-3.791553e+01	-1.526723e+02
2.000000e-07	-5.355884e-06	-2.314972e-09	-3.786282e+01	-1.527654e+02
2.100000e-07	-5.348267e-06	-2.288814e-09	-3.780897e+01	-1.528627e+02
2.200000e-07	-5.340463e-06	-2.450475e-09	-3.775380e+01	-1.529624e+02
2.300000e-07	-5.332359e-06	-2.459708e-09	-3.769651e+01	-1.530627e+02
2.400000e-07	-5.323843e-06	-2.321872e-09	-3.763631e+01	-1.531617e+02
2.500000e-07	-5.314775e-06	-2.396888e-09	-3.757220e+01	-1.532578e+02
2.600000e-07	-5.304920e-06	-2.517796e-09	-3.750254e+01	-1.533490e+02
2.700000e-07	-5.294376e-06	-2.415649e-09	-3.742800e+01	-1.534338e+02
2.800000e-07	-5.283372e-06	-2.356104e-09	-3.735021e+01	-1.535106e+02
2.900000e-07	-5.271973e-06	-2.502919e-09	-3.726962e+01	-1.535781e+02
3.000000e-07	-5.260174e-06	-2.508233e-09	-3.718621e+01	-1.536349e+02
3.100000e-07	-5.247967e-06	-2.335012e-09	-3.709991e+01	-1.536801e+02
3.200000e-07	-5.235395e-06	-2.381460e-09	-3.701104e+01	-1.537127e+02
3.300000e-07	-5.222446e-06	-2.512730e-09	-3.691950e+01	-1.537321e+02
3.400000e-07	-5.209104e-06	-2.436442e-09	-3.682518e+01	-1.537379e+02
3.500000e-07	-5.195280e-06	-2.343752e-09	-3.672745e+01	-1.537298e+02
3.600000e-07	-5.181032e-06	-2.438644e-09	-3.662672e+01	-1.537077e+02
3.700000e-07	-5.166396e-06	-2.448171e-09	-3.652326e+01	-1.536718e+02
3.800000e-07	-5.151248e-06	-2.381126e-09	-3.641617e+01	-1.536225e+02
3.900000e-07	-5.135503e-06	-2.406445e-09	-3.630487e+01	-1.535602e+02
4.000000e-07	-5.119179e-06	-2.434693e-09	-3.618946e+01	-1.534856e+02
4.100000e-07	-5.102476e-06	-2.359550e-09	-3.607138e+01	-1.533995e+02
4.200000e-07	-5.085556e-06	-2.387550e-09	-3.595177e+01	-1.533029e+02
4.300000e-07	-5.068311e-06	-2.444112e-09	-3.582986e+01	-1.531967e+02
4.400000e-07	-5.050749e-06	-2.387957e-09	-3.570571e+01	-1.530820e+02
4.500000e-07	-5.032861e-06	-2.336269e-09	-3.557924e+01	-1.529599e+02
4.600000e-07	-5.014548e-06	-2.408736e-09	-3.544978e+01	-1.528316e+02
4.700000e-07	-4.995862e-06	-2.425191e-09	-3.531769e+01	-1.526981e+02
4.800000e-07	-4.976841e-06	-2.381187e-09	-3.518322e+01	-1.525606e+02
4.900000e-07	-4.957500e-06	-2.372694e-09	-3.504649e+01	-1.524200e+02
5.000000e-07	-4.937878e-06	-2.391883e-09	-3.490778e+01	-1.522774e+02
5.100000e-07	-4.917971e-06	-2.389013e-09	-3.476705e+01	-1.521335e+02
5.200000e-07	-4.897861e-06	-2.390835e-09	-3.462488e+01	-1.519891e+02
5.300000e-07	-4.877547e-06	-2.368668e-09	-3.448127e+01	-1.518450e+02
5.400000e-07	-4.856927e-06	-2.351940e-09	-3.433550e+01	-1.517014e+02
5.500000e-07	-4.835936e-06	-2.380173e-09	-3.418711e+01	-1.515589e+02
5.600000e-07	-4.814572e-06	-2.396285e-09	-3.403607e+01	-1.514177e+02
5.700000e-07	-4.792881e-06	-2.364026e-09	-3.388274e+01	-1.512779e+02
5.800000e-07	-4.770858e-06	-2.348458e-09	-3.372705e+01	-1.511394e+02
5.900000e-07	-4.748529e-06	-2.365078e-09	-3.356919e+01	-1.510021e+02
6.000000e-07	-4.725924e-06	-2.370787e-09	-3.340939e+01	-1.508658e+02
6.100000e-07	-4.703023e-06	-2.358428e-09	-3.324749e+01	-1.507300e+02
6.200000e-07	-4.679765e-06	-2.333446e-09	-3.308307e+01	-1.505944e+02
6.300000e-07	-4.656191e-06	-2.330337e-09	-3.291642e+01	-1.504584e+02
6.400000e-07	-4.632403e-06	-2.351398e-09	-3.274826e+01	-1.503215e+02
6.500000e-07	-4.608400e-06	-2.356320e-09	-3.257857e+01	-1.501831e+02
6.600000e-07	-4.584132e-06	-2.323391e-09	-3.240701e+01	-1.500426e+02
6.700000e-07	-4.559478e-06	-2.317723e-09	-3.223272e+01	-1.498993e+02
6.800000e-07	-4.534401e-06	-2.336139e-09	-3.205544e+01	-1.497526e+02
6.900000e-07	-4.508875e-06	-2.342372e-09	-3.187499e+01	-1.496021e+02
7.000000e-07	-4.482715e-06	-2.320773e-09	-3.169005e+01	-1.494472e+02
7.100000e-07	-4.456033e-06	-2.310419e-09	-3.150142e+01	-1.492874e+02
7.200000e-07	-4.428977e-06	-2.314857e-09	-3.131016e+01	-1.491223e+02
7.300000e-07	-4.401536e-06	-2.326450e-09	-3.111617e+01	-1.489518e+02
7.400000e-07	-4.373845e-06	-2.310541e-09	-3.092041e+01	-1.487755e+02
7.500000e-07	-4.345988e-06	-2.291066e-09	-3.072348e+01	-1.485933e+02
7.600000e-07	-4.317904e-06	-2.291980e-09	-3.052494e+01	-1.484053e+02
7.700000e-07	-4.289557e-06	-2.306051e-09	-3.032455e+01	-1.482116e+02
7.800000e-07	-4.261024e-06	-2.297844e-09	-3.012283e+01	-1.480121e+02
7.900000e-07	-4.232296e-06	-2.283503e-09	-2.991974e+01	-1.478073e+02
8.000000e-07	-4.203223e-06	-2.281176e-09	-2.971421e+01	-1.475975e+02
8.100000e-07	-4.173725e-06	-2.292790e-09	-2.950568e+01	-1.473829e+02
8.200000e-07	-4.143835e-06	-2.293368e-09	-2.929438e+01	-1.471642e+02
8.300000e-07	-4.113747e-06	-2.279129e-09	-2.908167e+01	-1.469416e+02
8.400000e-07	-4.083522e-06	-2.265170e-09	-2.886800e+01	-1.467159e+02
8.500000e-07	-4.052927e-06	-2.267121e-09	-2.865172e+01	-1.464875e+02
8.600000e-07	-4.021936e-06	-2.268303e-09	-2.843262e+01	-1.462569e+02
8.700000e-07	-3.990684e-06	-2.256449e-09	-2.821170e+01	-1.460246e+02
8.800000e-07	-3.959204e-06	-2.245706e-09	-2.798915e+01	-1.457913e+02
8.900000e-07	-3.927617e-06	-2.251982e-09	-2.776585e+01	-1.455572e+02
9.000000e-07	-3.895931e-06	-2.263715e-09	-2.754185e+01	-1.453229e+02
9.100000e-07	-3.864015e-06	-2.257485e-09	-2.731622e+01	-1.450887e+02
9.200000e-07	-3.831873e-06	-2.239291e-09	-2.708900e+01	-1.448550e+02
9.300000e-07	-3.799470e-06	-2.227882e-09	-2.685993e+01	-1.446218e+02
9.400000e-07	-3.766678e-06	-2.228192e-09	-2.662811e+01	-1.443894e+02
9.500000e-07	-3.733496e-06	-2.222061e-09	-2.639353e+01	-1.441579e+02
9.600000e-07	-3.699978e-06	-2.214484e-09	-2.615658e+01	-1.439272e+02
9.700000e-07	-3.666042e-06	-2.214389e-09	-2.591667e+01	-1.436972e+02
9.800000e-07	-3.631640e-06	-2.224334e-09	-2.567347e+01	-1.434677e+02
9.900000e-07	-3.596848e-06	-2.222851e-09	-2.542751e+01	-1.432386e+02
1.000000e-06	-3.561727e-06	-2.210958e-09	-2.517923e+01	-1.430094e+02
1.010000e-06	-3.526343e-06	-2.194668e-09	-2.492909e+01	-1.427799e+02
1.020000e-06	-3.490784e-06	-2.184910e-09	-2.467771e+01	-1.425495e+02
1.030000e-06	-3.455072e-06	-2.176171e-09	-2.442524e+01	-1.423179e+02
1.040000e-06	-3.419208e-06	-2.170740e-09	-2.417171e+01	-1.420844e+02
1.050000e-06	-3.383182e-06	-2.167656e-09	-2.391702e+01	-1.418487e+02
1.060000e-06	-3.346956e-06	-2.173408e-09	-2.366093e+01	-1.416102e+02
1.070000e-06	-3.310495e-06	-2.177451e-09	-2.340317e+01	-1.413682e+02
1.080000e-06	-3.273792e-06	-2.173021e-09	-2.314371e+01	-1.411224e+02
1.090000e-06	-3.236891e-06	-2.159715e-09	-2.288284e+01	-1.408722e+02
1.100000e-06	-3.199702e-06	-2.149115e-09	-2.261994e+01	-1.406171e+02
1.110000e-06	-3.162198e-06	-2.142227e-09	-2.235481e+01	-1.403567e+02
1.120000e-06	-3.124475e-06	-2.136972e-09	-2.208813e+01	-1.400906e+02
1.130000e-06	-3.086534e-06	-2.131594e-09	-2.181991e+01	-1.398184e+02
1.140000e-06	-3.048420e-06	-2.130939e-09	-2.155046e+01	-1.395398e+02
1.150000e-06	-3.010182e-06	-2.129997e-09	-2.128014e+01	-1.392546e+02
1.160000e-06	-2.971732e-06	-2.125996e-09	-2.100833e+01	-1.389625e+02
1.170000e-06	-2.933049e-06	-2.116171e-09	-2.073486e+01	-1.386634e+02
1.180000e-06	-2.894297e-06	-2.103534e-09	-2.046091e+01	-1.383571e+02
1.190000e-06	-2.855412e-06	-2.094968e-09	-2.018602e+01	-1.380437e+02
1.200000e-06	-2.816225e-06	-2.086596e-09	-1.990899e+01	-1.377231e+02
1.210000e-06	-2.776761e-06	-2.079567e-09	-1.963000e+01	-1.373952e+02
1.220000e-06	-2.737137e-06	-2.074558e-09	-1.934988e+01	-1.370602e+02
1.230000e-06	-2.697416e-06	-2.076360e-09	-1.906908e+01	-1.367182e+02
1.240000e-06	-2.657548e-06	-2.075949e-09	-1.878724e+01	-1.363691e+02
1.250000e-06	-2.617584e-06	-2.071434e-09	-1.850472e+01	-1.360131e+02
1.260000e-06	-2.577593e-06	-2.059686e-09	-1.822201e+01	-1.356503e+02
1.270000e-06	-2.537482e-06	-2.046323e-09	-1.793845e+01	-1.352807e+02
1.280000e-06	-2.497225e-06	-2.033723e-09	-1.765385e+01	-1.349045e+02
1.290000e-06	-2.456774e-06	-2.024726e-09	-1.736789e+01	-1.345216e+02
1.300000e-06	-2.416087e-06	-2.017435e-09	-1.708026e+01	-1.341321e+02
1.310000e-06	-2.375202e-06	-2.013292e-09	-1.679122e+01	-1.337361e+02
1.320000e-06	-2.334047e-06	-2.011934e-09	-1.650028e+01	-1.333333e+02
1.330000e-06	-2.292573e-06	-2.011976e-09	-1.620709e+01	-1.329239e+02
1.340000e-06	-2.250775e-06	-2.006391e-09	-1.591160e+01	-1.325076e+02
1.350000e-06	-2.208636e-06	-1.996440e-09	-1.561371e+01	-1.320842e+02
1.360000e-06	-2.166147e-06	-1.983339e-09	-1.531334e+01	-1.316536e+02
1.370000e-06	-2.123354e-06	-1.970337e-09	-1.501081e+01	-1.312156e+02
1.380000e-06	-2.080318e-06	-1.959251e-09	-1.470657e+01	-1.307698e+02
1.390000e-06	-2.037123e-06	-1.953198e-09	-1.440121e+01	-1.303159e+02
1.400000e-06	-1.993782e-06	-1.951139e-09	-1.409482e+01	-1.298535e+02
1.410000e-06	-1.950306e-06	-1.949472e-09	-1.378747e+01	-1.293823e+02
1.420000e-06	-1.906785e-06	-1.945527e-09	-1.347981e+01	-1.289018e+02
1.430000e-06	-1.863150e-06	-1.937301e-09	-1.317133e+01	-1.284115e+02
1.440000e-06	-1.819386e-06	-1.924459e-09	-1.286194e+01	-1.279111e+02
1.450000e-06	-1.775570e-06	-1.910365e-09	-1.255219e+01	-1.273999e+02
1.460000e-06	-1.731712e-06	-1.900203e-09	-1.224214e+01	-1.268775e+02
1.470000e-06	-1.687793e-06	-1.891987e-09	-1.193166e+01	-1.263435e+02
1.480000e-06	-1.643785e-06	-1.885159e-09	-1.162055e+01	-1.257972e+02
1.490000e-06	-1.599702e-06	-1.880118e-09	-1.130892e+01	-1.252381e+02
1.500000e-06	-1.555526e-06	-1.874500e-09	-1.099662e+01	-1.246659e+02
1.510000e-06	-1.511250e-06	-1.864608e-09	-1.068361e+01	-1.240798e+02
1.520000e-06	-1.466838e-06	-1.851250e-09	-1.036965e+01	-1.234795e+02
1.530000e-06	-1.422376e-06	-1.838862e-09	-1.005533e+01	-1.228644e+02
1.540000e-06	-1.377926e-06	-1.829521e-09	-9.741092e+00	-1.222341e+02
1.550000e-06	-1.333340e-06	-1.818149e-09	-9.425901e+00	-1.215881e+02
1.560000e-06	-1.288592e-06	-1.806343e-09	-9.109559e+00	-1.209258e+02
1.570000e-06	-1.243785e-06	-1.795257e-09	-8.792798e+00	-1.202468e+02
1.580000e-06	-1.198914e-06	-1.786371e-09	-8.475587e+00	-1.195506e+02
1.590000e-06	-1.153922e-06	-1.777129e-09	-8.157523e+00	-1.188368e+02
1.600000e-06	-1.108903e-06	-1.765089e-09	-7.839263e+00	-1.181048e+02
1.610000e-06	-1.063822e-06	-1.749818e-09	-7.520573e+00	-1.173541e+02
1.620000e-06	-1.018598e-06	-1.735749e-09	-7.200861e+00	-1.165843e+02
1.630000e-06	-9.732289e-07	-1.722459e-09	-6.880133e+00	-1.157948e+02
1.640000e-06	-9.277625e-07	-1.707320e-09	-6.558713e+00	-1.149850e+02
1.650000e-06	-8.822829e-07	-1.690715e-09	-6.237200e+00	-1.141544e+02
1.660000e-06	-8.367640e-07	-1.678618e-09	-5.915410e+00	-1.133024e+02
1.670000e-06	-7.911772e-07	-1.670727e-09	-5.593139e+00	-1.124283e+02
1.680000e-06	-7.455690e-07	-1.658773e-09	-5.270717e+00	-1.115315e+02
1.690000e-06	-6.999130e-07	-1.639847e-09	-4.947957e+00	-1.106111e+02
1.700000e-06	-6.541615e-07	-1.621353e-09	-4.624521e+00	-1.096665e+02
1.710000e-06	-6.083343e-07	-1.606839e-09	-4.300552e+00	-1.086968e+02
1.720000e-06	-5.624847e-07	-1.592432e-09	-3.976423e+00	-1.077011e+02
1.730000e-06	-5.166807e-07	-1.572521e-09	-3.652617e+00	-1.066784e+02
1.740000e-06	-4.708856e-07	-1.553211e-09	-3.328873e+00	-1.056278e+02
1.750000e-06	-4.250025e-07	-1.542370e-09	-3.004508e+00	-1.045482e+02
1.760000e-06	-3.790367e-07	-1.534412e-09	-2.679558e+00	-1.034384e+02
1.770000e-06	-3.330873e-07	-1.518569e-09	-2.354724e+00	-1.022973e+02
1.780000e-06	-2.871575e-07	-1.492550e-09	-2.030028e+00	-1.011235e+02
1.790000e-06	-2.412172e-07	-1.470174e-09	-1.705258e+00	-9.991574e+01
1.800000e-06	-1.952911e-07	-1.453855e-09	-1.380588e+00	-9.867255e+01
1.810000e-06	-1.493310e-07	-1.435382e-09	-1.055679e+00	-9.739244e+01
1.820000e-06	-1.033156e-07	-1.411084e-09	-7.303782e-01	-9.607386e+01
1.830000e-06	-5.727152e-08	-1.388820e-09	-4.048746e-01	-9.471517e+01
1.840000e-06	-1.123695e-08	-1.372699e-09	-7.943839e-02	-9.331465e+01
1.850000e-06	3.482105e-08	-1.356814e-09	2.461635e-01	-9.187056e+01
1.860000e-06	8.091077e-08	-1.333774e-09	5.719897e-01	-9.038105e+01
1.870000e-06	1.269881e-07	-1.308045e-09	8.977283e-01	-8.884426e+01
1.880000e-06	1.730351e-07	-1.285369e-09	1.223252e+00	-8.725823e+01
1.890000e-06	2.190335e-07	-1.262086e-09	1.548433e+00	-8.562101e+01
1.900000e-06	2.649729e-07	-1.230957e-09	1.873196e+00	-8.393059e+01
1.910000e-06	3.108860e-07	-1.197779e-09	2.197774e+00	-8.218493e+01
1.920000e-06	3.568313e-07	-1.171183e-09	2.522579e+00	-8.038201e+01
1.930000e-06	4.028502e-07	-1.149885e-09	2.847905e+00	-7.851979e+01
1.940000e-06	4.488173e-07	-1.127697e-09	3.172863e+00	-7.659624e+01
1.950000e-06	4.946252e-07	-1.101245e-09	3.496697e+00	-7.460940e+01
1.960000e-06	5.403912e-07	-1.071869e-09	3.820235e+00	-7.255732e+01
1.970000e-06	5.861145e-07	-1.039612e-09	4.143471e+00	-7.043816e+01
1.980000e-06	6.317641e-07	-1.001006e-09	4.466186e+00	-6.825015e+01
1.990000e-06	6.774164e-07	-9.591285e-10	4.788920e+00	-6.599164e+01
2.000000e-06	7.231102e-07	-9.231296e-10	5.111947e+00	-6.366112e+01
2.010000e-06	7.687298e-07	-8.922058e-10	5.434450e+00	-6.125725e+01
2.020000e-06	8.142702e-07	-8.600462e-10	5.756392e+00	-5.877887e+01
2.030000e-06	8.597958e-07	-8.250606e-10	6.078230e+00	-5.622504e+01
2.040000e-06	9.052541e-07	-7.906500e-10	6.399592e+00	-5.359504e+01
2.050000e-06	9.506278e-07	-7.547613e-10	6.720357e+00	-5.088844e+01
2.060000e-06	9.959173e-07	-7.135311e-10	7.040526e+00	-4.810508e+01
2.070000e-06	1.041188e-06	-6.662308e-10	7.360563e+00	-4.524513e+01
2.080000e-06	1.086409e-06	-6.180590e-10	7.680245e+00	-4.230907e+01
2.090000e-06	1.131436e-06	-5.742088e-10	7.998562e+00	-3.929774e+01
2.100000e-06	1.176285e-06	-5.334021e-10	8.315618e+00	-3.621237e+01
2.110000e-06	1.221033e-06	-4.904733e-10	8.631957e+00	-3.305455e+01
2.120000e-06	1.265690e-06	-4.451630e-10	8.947655e+00	-2.982629e+01
2.130000e-06	1.310371e-06	-3.987836e-10	9.263521e+00	-2.652998e+01
2.140000e-06	1.354985e-06	-3.498952e-10	9.578917e+00	-2.316845e+01
2.150000e-06	1.399348e-06	-2.945334e-10	9.892531e+00	-1.974493e+01
2.160000e-06	1.443662e-06	-2.355211e-10	1.020581e+01	-1.626305e+01
2.170000e-06	1.487972e-06	-1.786252e-10	1.051905e+01	-1.272685e+01
2.180000e-06	1.532181e-06	-1.267413e-10	1.083158e+01	-9.140751e+00
2.190000e-06	1.576377e-06	-7.601762e-11	1.114402e+01	-5.509550e+00
2.200000e-06	1.620498e-06	-2.331415e-11	1.145593e+01	-1.838387e+00
2.210000e-06	1.664519e-06	2.986664e-11	1.176713e+01	1.867273e+00
2.220000e-06	1.708480e-06	8.475714e-11	1.207791e+01	5.601677e+00
2.230000e-06	1.752414e-06	1.418565e-10	1.238850e+01	9.358814e+00
2.240000e-06	1.796308e-06	2.000865e-10	1.269880e+01	1.313246e+01
2.250000e-06	1.840060e-06	2.582136e-10	1.300810e+01	1.691620e+01
2.260000e-06	1.883705e-06	3.140693e-10	1.331664e+01	2.070352e+01
2.270000e-06	1.927293e-06	3.682116e-10	1.362478e+01	2.448778e+01
2.280000e-06	1.970765e-06	4.222320e-10	1.393210e+01	2.826234e+01
2.290000e-06	2.014128e-06	4.786005e-10	1.423866e+01	3.202056e+01
2.300000e-06	2.057381e-06	5.375631e-10	1.454442e+01	3.575586e+01
2.310000e-06	2.100390e-06	5.956482e-10	1.484847e+01	3.946178e+01
2.320000e-06	2.143155e-06	6.540733e-10	1.515080e+01	4.313203e+01
2.330000e-06	2.185677e-06	7.073060e-10	1.545140e+01	4.676053e+01
2.340000e-06	2.227897e-06	7.545454e-10	1.574987e+01	5.034144e+01
2.350000e-06	2.269857e-06	7.999647e-10	1.604650e+01	5.386925e+01
2.360000e-06	2.311502e-06	8.487180e-10	1.634090e+01	5.733877e+01
2.370000e-06	2.352775e-06	9.013744e-10	1.663268e+01	6.074519e+01
2.380000e-06	2.393749e-06	9.531887e-10	1.692234e+01	6.408409e+01
2.390000e-06	2.434413e-06	1.004228e-09	1.720981e+01	6.735150e+01
2.400000e-06	2.474858e-06	1.054206e-09	1.749573e+01	7.054389e+01
2.410000e-06	2.515199e-06	1.099028e-09	1.778092e+01	7.365821e+01
2.420000e-06	2.555358e-06	1.136603e-09	1.806481e+01	7.669186e+01
2.430000e-06	2.595316e-06	1.171114e-09	1.834730e+01	7.964275e+01
2.440000e-06	2.635177e-06	1.208171e-09	1.862909e+01	8.250925e+01
2.450000e-06	2.674972e-06	1.245434e-09	1.891042e+01	8.529019e+01
2.460000e-06	2.714691e-06	1.283050e-09	1.919121e+01	8.798487e+01
2.470000e-06	2.754279e-06	1.322610e-09	1.947107e+01	9.059304e+01
2.480000e-06	2.793708e-06	1.364564e-09	1.974980e+01	9.311485e+01
2.490000e-06	2.832999e-06	1.405119e-09	2.002757e+01	9.555085e+01
2.500000e-06	2.872134e-06	1.438536e-09	2.030423e+01	9.790194e+01
2.510000e-06	2.911097e-06	1.466240e-09	2.057968e+01	1.001694e+02
2.520000e-06	2.949732e-06	1.494608e-09	2.085280e+01	1.023546e+02
2.530000e-06	2.988092e-06	1.525608e-09	2.112398e+01	1.044595e+02
2.540000e-06	3.026296e-06	1.555568e-09	2.139406e+01	1.064861e+02
2.550000e-06	3.064332e-06	1.584909e-09	2.166295e+01	1.084365e+02
2.560000e-06	3.102182e-06	1.615896e-09	2.193053e+01	1.103130e+02
2.570000e-06	3.139787e-06	1.646803e-09	2.219637e+01	1.121180e+02
2.580000e-06	3.177171e-06	1.672023e-09	2.246066e+01	1.138541e+02
2.590000e-06	3.214327e-06	1.692333e-09	2.272332e+01	1.155238e+02
2.600000e-06	3.251288e-06	1.712289e-09	2.298462e+01	1.171295e+02
2.610000e-06	3.288039e-06	1.734511e-09	2.324442e+01	1.186739e+02
2.620000e-06	3.324523e-06	1.756716e-09	2.350234e+01	1.201592e+02
2.630000e-06	3.360799e-06	1.777880e-09	2.375879e+01	1.215879e+02
2.640000e-06	3.396889e-06	1.798598e-09	2.401393e+01	1.229623e+02
2.650000e-06	3.432843e-06	1.818422e-09	2.426810e+01	1.242844e+02
2.660000e-06	3.468732e-06	1.834413e-09	2.452181e+01	1.255564e+02
2.670000e-06	3.504466e-06	1.848008e-09	2.477443e+01	1.267803e+02
2.680000e-06	3.539988e-06	1.863030e-09	2.502555e+01	1.279576e+02
2.690000e-06	3.575327e-06	1.879579e-09	2.527538e+01	1.290903e+02
2.700000e-06	3.610395e-06	1.897344e-09	2.552328e+01	1.301797e+02
2.710000e-06	3.645062e-06	1.914660e-09	2.576836e+01	1.312274e+02
2.720000e-06	3.679313e-06	1.930756e-09	2.601049e+01	1.322346e+02
2.730000e-06	3.713071e-06	1.943049e-09	2.624914e+01	1.332026e+02
2.740000e-06	3.746267e-06	1.951060e-09	2.648382e+01	1.341326e+02
2.750000e-06	3.779012e-06	1.957801e-09	2.671530e+01	1.350255e+02
2.760000e-06	3.811458e-06	1.966604e-09	2.694467e+01	1.358825e+02
2.770000e-06	3.843712e-06	1.980033e-09	2.717269e+01	1.367045e+02
2.780000e-06	3.875835e-06	1.995944e-09	2.739978e+01	1.374924e+02
2.790000e-06	3.907792e-06	2.011539e-09	2.762570e+01	1.382473e+02
2.800000e-06	3.939540e-06	2.024312e-09	2.785014e+01	1.389699e+02
2.810000e-06	3.971089e-06	2.034615e-09	2.807317e+01	1.396613e+02
2.820000e-06	4.002481e-06	2.041135e-09	2.829509e+01	1.403223e+02
2.830000e-06	4.033691e-06	2.042615e-09	2.851573e+01	1.409540e+02
2.840000e-06	4.064499e-06	2.046576e-09	2.873352e+01	1.415574e+02
2.850000e-06	4.094861e-06	2.057996e-09	2.894816e+01	1.421334e+02
2.860000e-06	4.124853e-06	2.073090e-09	2.916019e+01	1.426832e+02
2.870000e-06	4.154526e-06	2.085866e-09	2.936996e+01	1.432077e+02
2.880000e-06	4.184024e-06	2.093681e-09	2.957849e+01	1.437082e+02
2.890000e-06	4.213362e-06	2.097669e-09	2.978589e+01	1.441856e+02
2.900000e-06	4.242414e-06	2.099345e-09	2.999127e+01	1.446412e+02
