# Temperatura_=_-4.94
# Concentracion g/m^3_=_4090.0
# C_Vs_to_Am_M_A/Vsm_=_65563218390.804596
# pendiente_HvsI_1/m_=_3716.3
# ordenada_HvsI_A/m_=_1297.0
# frecuencia_Hz_=_135073.61705979722

Tiempo_(s)	Campo_(V.s)	Magnetizacion_(V.s)	Campo_(kA/m)	Magnetizacion_(A/m)
0.000000e+00	-5.414780e-06	-1.858356e-09	-3.839336e+01	-1.211081e+02
1.000000e-08	-5.414914e-06	-1.860366e-09	-3.839431e+01	-1.210584e+02
2.000000e-08	-5.414910e-06	-1.865504e-09	-3.839428e+01	-1.210089e+02
3.000000e-08	-5.414690e-06	-1.870552e-09	-3.839272e+01	-1.209602e+02
4.000000e-08	-5.414156e-06	-1.871820e-09	-3.838894e+01	-1.209131e+02
5.000000e-08	-5.413206e-06	-1.870364e-09	-3.838220e+01	-1.208682e+02
6.000000e-08	-5.411708e-06	-1.864605e-09	-3.837158e+01	-1.208260e+02
7.000000e-08	-5.409524e-06	-1.853320e-09	-3.835609e+01	-1.207870e+02
8.000000e-08	-5.406676e-06	-1.845881e-09	-3.833590e+01	-1.207516e+02
9.000000e-08	-5.403304e-06	-1.843274e-09	-3.831199e+01	-1.207201e+02
1.000000e-07	-5.399402e-06	-1.870966e-09	-3.828432e+01	-1.206927e+02
1.100000e-07	-5.395155e-06	-1.918640e-09	-3.825421e+01	-1.206694e+02
1.200000e-07	-5.390828e-06	-1.909552e-09	-3.822353e+01	-1.206502e+02
1.300000e-07	-5.386285e-06	-1.825364e-09	-3.819131e+01	-1.206351e+02
1.400000e-07	-5.381277e-06	-1.849377e-09	-3.815580e+01	-1.206237e+02
1.500000e-07	-5.375848e-06	-1.895890e-09	-3.811731e+01	-1.206158e+02
1.600000e-07	-5.370130e-06	-1.879660e-09	-3.807677e+01	-1.206109e+02
1.700000e-07	-5.364100e-06	-1.768231e-09	-3.803402e+01	-1.206084e+02
1.800000e-07	-5.357661e-06	-1.815152e-09	-3.798836e+01	-1.206078e+02
1.900000e-07	-5.350736e-06	-1.954891e-09	-3.793925e+01	-1.206083e+02
2.000000e-07	-5.343451e-06	-1.940304e-09	-3.788760e+01	-1.206093e+02
2.100000e-07	-5.335931e-06	-1.850629e-09	-3.783428e+01	-1.206100e+02
2.200000e-07	-5.328121e-06	-1.860710e-09	-3.777890e+01	-1.206095e+02
2.300000e-07	-5.320094e-06	-1.954120e-09	-3.772199e+01	-1.206071e+02
2.400000e-07	-5.311873e-06	-1.898486e-09	-3.766370e+01	-1.206018e+02
2.500000e-07	-5.303233e-06	-1.857930e-09	-3.760244e+01	-1.205929e+02
2.600000e-07	-5.293936e-06	-1.901740e-09	-3.753651e+01	-1.205796e+02
2.700000e-07	-5.283907e-06	-1.958046e-09	-3.746541e+01	-1.205611e+02
2.800000e-07	-5.273147e-06	-1.888348e-09	-3.738911e+01	-1.205367e+02
2.900000e-07	-5.261877e-06	-1.879861e-09	-3.730920e+01	-1.205058e+02
3.000000e-07	-5.250265e-06	-1.929345e-09	-3.722687e+01	-1.204678e+02
3.100000e-07	-5.238323e-06	-1.911500e-09	-3.714220e+01	-1.204223e+02
3.200000e-07	-5.226049e-06	-1.838179e-09	-3.705516e+01	-1.203689e+02
3.300000e-07	-5.213372e-06	-1.893148e-09	-3.696528e+01	-1.203072e+02
3.400000e-07	-5.200238e-06	-1.942138e-09	-3.687216e+01	-1.202371e+02
3.500000e-07	-5.186708e-06	-1.886303e-09	-3.677622e+01	-1.201585e+02
3.600000e-07	-5.172769e-06	-1.859126e-09	-3.667739e+01	-1.200714e+02
3.700000e-07	-5.158543e-06	-1.913834e-09	-3.657652e+01	-1.199759e+02
3.800000e-07	-5.143932e-06	-1.892900e-09	-3.647292e+01	-1.198723e+02
3.900000e-07	-5.128658e-06	-1.843725e-09	-3.636462e+01	-1.197609e+02
4.000000e-07	-5.112698e-06	-1.871188e-09	-3.625146e+01	-1.196419e+02
4.100000e-07	-5.096284e-06	-1.883664e-09	-3.613507e+01	-1.195160e+02
4.200000e-07	-5.079613e-06	-1.850991e-09	-3.601687e+01	-1.193835e+02
4.300000e-07	-5.062573e-06	-1.864112e-09	-3.589604e+01	-1.192451e+02
4.400000e-07	-5.045265e-06	-1.889054e-09	-3.577332e+01	-1.191014e+02
4.500000e-07	-5.027682e-06	-1.843405e-09	-3.564865e+01	-1.189530e+02
4.600000e-07	-5.009753e-06	-1.840202e-09	-3.552153e+01	-1.188005e+02
4.700000e-07	-4.991511e-06	-1.869892e-09	-3.539218e+01	-1.186446e+02
4.800000e-07	-4.972935e-06	-1.865977e-09	-3.526047e+01	-1.184860e+02
4.900000e-07	-4.953917e-06	-1.837506e-09	-3.512562e+01	-1.183253e+02
5.000000e-07	-4.934430e-06	-1.859928e-09	-3.498745e+01	-1.181629e+02
5.100000e-07	-4.914646e-06	-1.855703e-09	-3.484717e+01	-1.179995e+02
5.200000e-07	-4.894654e-06	-1.847475e-09	-3.470542e+01	-1.178356e+02
5.300000e-07	-4.874459e-06	-1.840300e-09	-3.456223e+01	-1.176714e+02
5.400000e-07	-4.854036e-06	-1.836652e-09	-3.441741e+01	-1.175074e+02
5.500000e-07	-4.833267e-06	-1.825965e-09	-3.427015e+01	-1.173438e+02
5.600000e-07	-4.812118e-06	-1.848331e-09	-3.412020e+01	-1.171809e+02
5.700000e-07	-4.790657e-06	-1.839424e-09	-3.396803e+01	-1.170186e+02
5.800000e-07	-4.768950e-06	-1.824592e-09	-3.381412e+01	-1.168569e+02
5.900000e-07	-4.746912e-06	-1.830819e-09	-3.365786e+01	-1.166960e+02
6.000000e-07	-4.724463e-06	-1.841559e-09	-3.349868e+01	-1.165355e+02
6.100000e-07	-4.701656e-06	-1.818937e-09	-3.333697e+01	-1.163752e+02
6.200000e-07	-4.678536e-06	-1.811448e-09	-3.317304e+01	-1.162150e+02
6.300000e-07	-4.655070e-06	-1.811342e-09	-3.300665e+01	-1.160543e+02
6.400000e-07	-4.631307e-06	-1.811464e-09	-3.283816e+01	-1.158929e+02
6.500000e-07	-4.607395e-06	-1.817665e-09	-3.266862e+01	-1.157303e+02
6.600000e-07	-4.583331e-06	-1.819364e-09	-3.249799e+01	-1.155660e+02
6.700000e-07	-4.559019e-06	-1.806932e-09	-3.232561e+01	-1.153995e+02
6.800000e-07	-4.534294e-06	-1.809860e-09	-3.215029e+01	-1.152304e+02
6.900000e-07	-4.509121e-06	-1.817173e-09	-3.197180e+01	-1.150580e+02
7.000000e-07	-4.483476e-06	-1.802373e-09	-3.178997e+01	-1.148820e+02
7.100000e-07	-4.457325e-06	-1.788021e-09	-3.160455e+01	-1.147018e+02
7.200000e-07	-4.430664e-06	-1.786413e-09	-3.141551e+01	-1.145170e+02
7.300000e-07	-4.403535e-06	-1.789692e-09	-3.122315e+01	-1.143272e+02
7.400000e-07	-4.376060e-06	-1.784491e-09	-3.102834e+01	-1.141319e+02
7.500000e-07	-4.348361e-06	-1.781224e-09	-3.083194e+01	-1.139309e+02
7.600000e-07	-4.320472e-06	-1.775109e-09	-3.063420e+01	-1.137239e+02
7.700000e-07	-4.292364e-06	-1.779376e-09	-3.043489e+01	-1.135107e+02
7.800000e-07	-4.264085e-06	-1.772051e-09	-3.023439e+01	-1.132911e+02
7.900000e-07	-4.235558e-06	-1.759595e-09	-3.003212e+01	-1.130651e+02
8.000000e-07	-4.206655e-06	-1.747010e-09	-2.982718e+01	-1.128325e+02
8.100000e-07	-4.177391e-06	-1.750883e-09	-2.961969e+01	-1.125934e+02
8.200000e-07	-4.147801e-06	-1.750730e-09	-2.940987e+01	-1.123480e+02
8.300000e-07	-4.117888e-06	-1.750215e-09	-2.919778e+01	-1.120963e+02
8.400000e-07	-4.087839e-06	-1.741873e-09	-2.898472e+01	-1.118384e+02
8.500000e-07	-4.057610e-06	-1.738495e-09	-2.877038e+01	-1.115747e+02
8.600000e-07	-4.027068e-06	-1.733731e-09	-2.855382e+01	-1.113054e+02
8.700000e-07	-3.996263e-06	-1.726570e-09	-2.833540e+01	-1.110307e+02
8.800000e-07	-3.965122e-06	-1.710800e-09	-2.811460e+01	-1.107510e+02
8.900000e-07	-3.933682e-06	-1.701679e-09	-2.789167e+01	-1.104665e+02
9.000000e-07	-3.902022e-06	-1.701019e-09	-2.766718e+01	-1.101776e+02
9.100000e-07	-3.870206e-06	-1.702942e-09	-2.744159e+01	-1.098846e+02
9.200000e-07	-3.838227e-06	-1.694947e-09	-2.721485e+01	-1.095877e+02
9.300000e-07	-3.806060e-06	-1.685304e-09	-2.698677e+01	-1.092873e+02
9.400000e-07	-3.773639e-06	-1.677325e-09	-2.675689e+01	-1.089836e+02
9.500000e-07	-3.740849e-06	-1.671955e-09	-2.652439e+01	-1.086768e+02
9.600000e-07	-3.707629e-06	-1.663104e-09	-2.628885e+01	-1.083672e+02
9.700000e-07	-3.674069e-06	-1.654548e-09	-2.605089e+01	-1.080548e+02
9.800000e-07	-3.640138e-06	-1.652744e-09	-2.581030e+01	-1.077398e+02
9.900000e-07	-3.605823e-06	-1.650821e-09	-2.556700e+01	-1.074222e+02
1.000000e-06	-3.571087e-06	-1.642442e-09	-2.532070e+01	-1.071020e+02
1.010000e-06	-3.535923e-06	-1.631478e-09	-2.507137e+01	-1.067793e+02
1.020000e-06	-3.500511e-06	-1.624317e-09	-2.482028e+01	-1.064540e+02
1.030000e-06	-3.464916e-06	-1.616485e-09	-2.456790e+01	-1.061259e+02
1.040000e-06	-3.429142e-06	-1.611651e-09	-2.431424e+01	-1.057948e+02
1.050000e-06	-3.393185e-06	-1.609356e-09	-2.405929e+01	-1.054607e+02
1.060000e-06	-3.357094e-06	-1.608721e-09	-2.380339e+01	-1.051233e+02
1.070000e-06	-3.320797e-06	-1.602251e-09	-2.354602e+01	-1.047824e+02
1.080000e-06	-3.284325e-06	-1.593837e-09	-2.328742e+01	-1.044376e+02
1.090000e-06	-3.247682e-06	-1.582589e-09	-2.302761e+01	-1.040887e+02
1.100000e-06	-3.210775e-06	-1.574600e-09	-2.276592e+01	-1.037354e+02
1.110000e-06	-3.173587e-06	-1.567136e-09	-2.250224e+01	-1.033774e+02
1.120000e-06	-3.136167e-06	-1.561895e-09	-2.223691e+01	-1.030144e+02
1.130000e-06	-3.098532e-06	-1.555942e-09	-2.197006e+01	-1.026461e+02
1.140000e-06	-3.060650e-06	-1.551877e-09	-2.170146e+01	-1.022723e+02
1.150000e-06	-3.022506e-06	-1.546972e-09	-2.143100e+01	-1.018926e+02
1.160000e-06	-2.984213e-06	-1.540813e-09	-2.115949e+01	-1.015067e+02
1.170000e-06	-2.945732e-06	-1.530349e-09	-2.088664e+01	-1.011146e+02
1.180000e-06	-2.906954e-06	-1.523155e-09	-2.061168e+01	-1.007159e+02
1.190000e-06	-2.868010e-06	-1.513566e-09	-2.033555e+01	-1.003105e+02
1.200000e-06	-2.828874e-06	-1.503732e-09	-2.005806e+01	-9.989821e+01
1.210000e-06	-2.789450e-06	-1.492498e-09	-1.977852e+01	-9.947890e+01
1.220000e-06	-2.749902e-06	-1.484461e-09	-1.949811e+01	-9.905247e+01
1.230000e-06	-2.710287e-06	-1.481466e-09	-1.921722e+01	-9.861883e+01
1.240000e-06	-2.670525e-06	-1.481697e-09	-1.893529e+01	-9.817794e+01
1.250000e-06	-2.630660e-06	-1.481523e-09	-1.865263e+01	-9.772975e+01
1.260000e-06	-2.590706e-06	-1.477919e-09	-1.836933e+01	-9.727426e+01
1.270000e-06	-2.550624e-06	-1.469719e-09	-1.808514e+01	-9.681147e+01
1.280000e-06	-2.510428e-06	-1.454266e-09	-1.780012e+01	-9.634137e+01
1.290000e-06	-2.470141e-06	-1.435261e-09	-1.751447e+01	-9.586400e+01
1.300000e-06	-2.429705e-06	-1.418486e-09	-1.722776e+01	-9.537937e+01
1.310000e-06	-2.389027e-06	-1.406815e-09	-1.693934e+01	-9.488751e+01
1.320000e-06	-2.348103e-06	-1.401255e-09	-1.664916e+01	-9.438845e+01
1.330000e-06	-2.306971e-06	-1.403600e-09	-1.635752e+01	-9.388218e+01
1.340000e-06	-2.265644e-06	-1.405878e-09	-1.606449e+01	-9.336872e+01
1.350000e-06	-2.224028e-06	-1.402307e-09	-1.576941e+01	-9.284805e+01
1.360000e-06	-2.182065e-06	-1.388938e-09	-1.547188e+01	-9.232014e+01
1.370000e-06	-2.139929e-06	-1.369634e-09	-1.517311e+01	-9.178494e+01
1.380000e-06	-2.097590e-06	-1.348838e-09	-1.487291e+01	-9.124237e+01
1.390000e-06	-2.054805e-06	-1.333614e-09	-1.456955e+01	-9.069233e+01
1.400000e-06	-2.011734e-06	-1.325255e-09	-1.426415e+01	-9.013471e+01
1.410000e-06	-1.968600e-06	-1.324852e-09	-1.395831e+01	-8.956936e+01
1.420000e-06	-1.925373e-06	-1.327051e-09	-1.365181e+01	-8.899609e+01
1.430000e-06	-1.881992e-06	-1.323935e-09	-1.334422e+01	-8.841472e+01
1.440000e-06	-1.838451e-06	-1.312001e-09	-1.303549e+01	-8.782502e+01
1.450000e-06	-1.794762e-06	-1.294192e-09	-1.272571e+01	-8.722673e+01
1.460000e-06	-1.750963e-06	-1.277820e-09	-1.241516e+01	-8.661959e+01
1.470000e-06	-1.707121e-06	-1.265806e-09	-1.210430e+01	-8.600332e+01
1.480000e-06	-1.663178e-06	-1.254814e-09	-1.179272e+01	-8.537760e+01
1.490000e-06	-1.619161e-06	-1.246132e-09	-1.148062e+01	-8.474211e+01
1.500000e-06	-1.575101e-06	-1.240268e-09	-1.116822e+01	-8.409652e+01
1.510000e-06	-1.530888e-06	-1.234017e-09	-1.085473e+01	-8.344049e+01
1.520000e-06	-1.486512e-06	-1.222617e-09	-1.054008e+01	-8.277366e+01
1.530000e-06	-1.442128e-06	-1.208121e-09	-1.022537e+01	-8.209569e+01
1.540000e-06	-1.397754e-06	-1.195434e-09	-9.910742e+00	-8.140621e+01
1.550000e-06	-1.353248e-06	-1.183558e-09	-9.595173e+00	-8.070486e+01
1.560000e-06	-1.308655e-06	-1.170716e-09	-9.278986e+00	-7.999131e+01
1.570000e-06	-1.264057e-06	-1.159276e-09	-8.962762e+00	-7.926518e+01
1.580000e-06	-1.219395e-06	-1.148937e-09	-8.646088e+00	-7.852614e+01
1.590000e-06	-1.174598e-06	-1.139417e-09	-8.328460e+00	-7.777386e+01
1.600000e-06	-1.129730e-06	-1.127335e-09	-8.010319e+00	-7.700799e+01
1.610000e-06	-1.084810e-06	-1.112326e-09	-7.691816e+00	-7.622821e+01
1.620000e-06	-1.039762e-06	-1.097628e-09	-7.372405e+00	-7.543421e+01
1.630000e-06	-9.946009e-07	-1.085936e-09	-7.052192e+00	-7.462567e+01
1.640000e-06	-9.493097e-07	-1.074245e-09	-6.731056e+00	-7.380229e+01
1.650000e-06	-9.039523e-07	-1.059832e-09	-6.409451e+00	-7.296377e+01
1.660000e-06	-8.585658e-07	-1.048086e-09	-6.087639e+00	-7.210979e+01
1.670000e-06	-8.131145e-07	-1.040650e-09	-5.765367e+00	-7.124007e+01
1.680000e-06	-7.676819e-07	-1.030506e-09	-5.443229e+00	-7.035431e+01
1.690000e-06	-7.222210e-07	-1.012119e-09	-5.120890e+00	-6.945218e+01
1.700000e-06	-6.766793e-07	-9.905986e-10	-4.797977e+00	-6.853339e+01
1.710000e-06	-6.310679e-07	-9.723813e-10	-4.474571e+00	-6.759761e+01
1.720000e-06	-5.853725e-07	-9.579978e-10	-4.150569e+00	-6.664450e+01
1.730000e-06	-5.396075e-07	-9.451860e-10	-3.826073e+00	-6.567371e+01
1.740000e-06	-4.938963e-07	-9.330564e-10	-3.501959e+00	-6.468487e+01
1.750000e-06	-4.482494e-07	-9.210753e-10	-3.178301e+00	-6.367761e+01
1.760000e-06	-4.024847e-07	-9.099945e-10	-2.853808e+00	-6.265150e+01
1.770000e-06	-3.566727e-07	-8.947936e-10	-2.528979e+00	-6.160613e+01
1.780000e-06	-3.108230e-07	-8.734126e-10	-2.203882e+00	-6.054102e+01
1.790000e-06	-2.649020e-07	-8.519868e-10	-1.878281e+00	-5.945572e+01
1.800000e-06	-2.189728e-07	-8.354622e-10	-1.552621e+00	-5.834970e+01
1.810000e-06	-1.730062e-07	-8.191271e-10	-1.226696e+00	-5.722243e+01
1.820000e-06	-1.270219e-07	-8.021717e-10	-9.006458e-01	-5.607337e+01
1.830000e-06	-8.104664e-08	-7.852186e-10	-5.746591e-01	-5.490192e+01
1.840000e-06	-3.512080e-08	-7.689146e-10	-2.490231e-01	-5.370749e+01
1.850000e-06	1.077936e-08	-7.505647e-10	7.643080e-02	-5.248945e+01
1.860000e-06	5.669920e-08	-7.299409e-10	4.020242e-01	-5.124716e+01
1.870000e-06	1.025928e-07	-7.091227e-10	7.274314e-01	-4.997998e+01
1.880000e-06	1.484866e-07	-6.899789e-10	1.052840e+00	-4.868724e+01
1.890000e-06	1.943452e-07	-6.712063e-10	1.377999e+00	-4.736827e+01
1.900000e-06	2.401528e-07	-6.500986e-10	1.702797e+00	-4.602242e+01
1.910000e-06	2.859781e-07	-6.275544e-10	2.027720e+00	-4.464902e+01
1.920000e-06	3.318143e-07	-6.068018e-10	2.352720e+00	-4.324744e+01
1.930000e-06	3.776596e-07	-5.873757e-10	2.677786e+00	-4.181706e+01
1.940000e-06	4.235188e-07	-5.673864e-10	3.002949e+00	-4.035729e+01
1.950000e-06	4.692816e-07	-5.456855e-10	3.327429e+00	-3.886757e+01
1.960000e-06	5.149654e-07	-5.247441e-10	3.651349e+00	-3.734739e+01
1.970000e-06	5.607108e-07	-5.057618e-10	3.975705e+00	-3.579628e+01
1.980000e-06	6.064173e-07	-4.832489e-10	4.299786e+00	-3.421386e+01
1.990000e-06	6.519814e-07	-4.587417e-10	4.622857e+00	-3.259979e+01
2.000000e-06	6.974992e-07	-4.344219e-10	4.945600e+00	-3.095382e+01
2.010000e-06	7.430572e-07	-4.100508e-10	5.268628e+00	-2.927578e+01
2.020000e-06	7.886495e-07	-3.838240e-10	5.591899e+00	-2.756559e+01
2.030000e-06	8.342182e-07	-3.578021e-10	5.915003e+00	-2.582328e+01
2.040000e-06	8.795720e-07	-3.328466e-10	6.236583e+00	-2.404899e+01
2.050000e-06	9.247930e-07	-3.074119e-10	6.557221e+00	-2.224295e+01
2.060000e-06	9.700109e-07	-2.804885e-10	6.877837e+00	-2.040554e+01
2.070000e-06	1.015129e-06	-2.549055e-10	7.197743e+00	-1.853725e+01
2.080000e-06	1.060133e-06	-2.303578e-10	7.516849e+00	-1.663868e+01
2.090000e-06	1.105040e-06	-2.022059e-10	7.835258e+00	-1.471061e+01
2.100000e-06	1.149912e-06	-1.677536e-10	8.153422e+00	-1.275390e+01
2.110000e-06	1.194752e-06	-1.354486e-10	8.471358e+00	-1.076959e+01
2.120000e-06	1.239453e-06	-1.072878e-10	8.788309e+00	-8.758831e+00
2.130000e-06	1.283991e-06	-8.051725e-11	9.104107e+00	-6.722912e+00
2.140000e-06	1.328451e-06	-5.359984e-11	9.419346e+00	-4.663262e+00
2.150000e-06	1.372807e-06	-2.665139e-11	9.733855e+00	-2.581433e+00
2.160000e-06	1.417061e-06	2.185586e-12	1.004764e+01	-4.791044e-01
2.170000e-06	1.461296e-06	3.473032e-11	1.036128e+01	1.641927e+00
2.180000e-06	1.505493e-06	7.010612e-11	1.067466e+01	3.779751e+00
2.190000e-06	1.549605e-06	1.052933e-10	1.098743e+01	5.932357e+00
2.200000e-06	1.593636e-06	1.373862e-10	1.129963e+01	8.097638e+00
2.210000e-06	1.637607e-06	1.658486e-10	1.161141e+01	1.027340e+01
2.220000e-06	1.681504e-06	1.946083e-10	1.192266e+01	1.245739e+01
2.230000e-06	1.725365e-06	2.258226e-10	1.223366e+01	1.464728e+01
2.240000e-06	1.769229e-06	2.559477e-10	1.254468e+01	1.684070e+01
2.250000e-06	1.812971e-06	2.858067e-10	1.285482e+01	1.903524e+01
2.260000e-06	1.856536e-06	3.174341e-10	1.316372e+01	2.122849e+01
2.270000e-06	1.900077e-06	3.520572e-10	1.347245e+01	2.341800e+01
2.280000e-06	1.943550e-06	3.856232e-10	1.378069e+01	2.560135e+01
2.290000e-06	1.986770e-06	4.160848e-10	1.408714e+01	2.777615e+01
2.300000e-06	2.029781e-06	4.454911e-10	1.439211e+01	2.994003e+01
2.310000e-06	2.072598e-06	4.773783e-10	1.469570e+01	3.209068e+01
2.320000e-06	2.115123e-06	5.077632e-10	1.499723e+01	3.422584e+01
2.330000e-06	2.157352e-06	5.356334e-10	1.529665e+01	3.634335e+01
2.340000e-06	2.199307e-06	5.621041e-10	1.559413e+01	3.844111e+01
2.350000e-06	2.241042e-06	5.898692e-10	1.589005e+01	4.051714e+01
2.360000e-06	2.282534e-06	6.184625e-10	1.618425e+01	4.256956e+01
2.370000e-06	2.323679e-06	6.473428e-10	1.647598e+01	4.459660e+01
2.380000e-06	2.364449e-06	6.762943e-10	1.676506e+01	4.659665e+01
2.390000e-06	2.405000e-06	7.072706e-10	1.705259e+01	4.856819e+01
2.400000e-06	2.445436e-06	7.388011e-10	1.733930e+01	5.050985e+01
2.410000e-06	2.485712e-06	7.667767e-10	1.762488e+01	5.242040e+01
2.420000e-06	2.525911e-06	7.910468e-10	1.790991e+01	5.429877e+01
2.430000e-06	2.566075e-06	8.155353e-10	1.819469e+01	5.614400e+01
2.440000e-06	2.606089e-06	8.413764e-10	1.847841e+01	5.795529e+01
2.450000e-06	2.645967e-06	8.663904e-10	1.876116e+01	5.973199e+01
2.460000e-06	2.685731e-06	8.901452e-10	1.904311e+01	6.147355e+01
2.470000e-06	2.725330e-06	9.150465e-10	1.932388e+01	6.317960e+01
2.480000e-06	2.764787e-06	9.414635e-10	1.960365e+01	6.484984e+01
2.490000e-06	2.804034e-06	9.663281e-10	1.988193e+01	6.648414e+01
2.500000e-06	2.843036e-06	9.881899e-10	2.015848e+01	6.808245e+01
2.510000e-06	2.881874e-06	1.009480e-09	2.043386e+01	6.964484e+01
2.520000e-06	2.920564e-06	1.032768e-09	2.070818e+01	7.117146e+01
2.530000e-06	2.958965e-06	1.054658e-09	2.098047e+01	7.266255e+01
2.540000e-06	2.997050e-06	1.073823e-09	2.125050e+01	7.411844e+01
2.550000e-06	3.035036e-06	1.093301e-09	2.151985e+01	7.553950e+01
2.560000e-06	3.072941e-06	1.116062e-09	2.178861e+01	7.692618e+01
2.570000e-06	3.110606e-06	1.136892e-09	2.205567e+01	7.827898e+01
2.580000e-06	3.148026e-06	1.153763e-09	2.232100e+01	7.959842e+01
2.590000e-06	3.185264e-06	1.170736e-09	2.258503e+01	8.088506e+01
2.600000e-06	3.222275e-06	1.190818e-09	2.284746e+01	8.213949e+01
2.610000e-06	3.258972e-06	1.209625e-09	2.310766e+01	8.336231e+01
2.620000e-06	3.295410e-06	1.225070e-09	2.336602e+01	8.455413e+01
2.630000e-06	3.331674e-06	1.237714e-09	2.362315e+01	8.571556e+01
2.640000e-06	3.367817e-06	1.252191e-09	2.387942e+01	8.684721e+01
2.650000e-06	3.403844e-06	1.266099e-09	2.413487e+01	8.794970e+01
2.660000e-06	3.439739e-06	1.277881e-09	2.438938e+01	8.902362e+01
2.670000e-06	3.475498e-06	1.291834e-09	2.464293e+01	9.006956e+01
2.680000e-06	3.511066e-06	1.309970e-09	2.489512e+01	9.108809e+01
2.690000e-06	3.546424e-06	1.327634e-09	2.514583e+01	9.207978e+01
2.700000e-06	3.581436e-06	1.339122e-09	2.539408e+01	9.304518e+01
2.710000e-06	3.616041e-06	1.348710e-09	2.563944e+01	9.398482e+01
2.720000e-06	3.650144e-06	1.363755e-09	2.588125e+01	9.489922e+01
2.730000e-06	3.683791e-06	1.380549e-09	2.611982e+01	9.578890e+01
2.740000e-06	3.717085e-06	1.392946e-09	2.635590e+01	9.665435e+01
2.750000e-06	3.749815e-06	1.403738e-09	2.658797e+01	9.749606e+01
2.760000e-06	3.782175e-06	1.419538e-09	2.681741e+01	9.831452e+01
2.770000e-06	3.814415e-06	1.437804e-09	2.704601e+01	9.911020e+01
2.780000e-06	3.846517e-06	1.448523e-09	2.727363e+01	9.988358e+01
2.790000e-06	3.878480e-06	1.453757e-09	2.750026e+01	1.006351e+02
2.800000e-06	3.910274e-06	1.460514e-09	2.772569e+01	1.013653e+02
2.810000e-06	3.941868e-06	1.472416e-09	2.794971e+01	1.020746e+02
2.820000e-06	3.973255e-06	1.484223e-09	2.817227e+01	1.027635e+02
2.830000e-06	4.004409e-06	1.492765e-09	2.839316e+01	1.034324e+02
2.840000e-06	4.035215e-06	1.502965e-09	2.861159e+01	1.040819e+02
2.850000e-06	4.065649e-06	1.519220e-09	2.882738e+01	1.047123e+02
2.860000e-06	4.095732e-06	1.534782e-09	2.904069e+01	1.053242e+02
2.870000e-06	4.125557e-06	1.542366e-09	2.925216e+01	1.059180e+02
2.880000e-06	4.155239e-06	1.543576e-09	2.946262e+01	1.064941e+02
2.890000e-06	4.184697e-06	1.545728e-09	2.967149e+01	1.070531e+02
2.900000e-06	4.213852e-06	1.550085e-09	2.987821e+01	1.075954e+02
