# Temperatura_=_-1.4
# Concentracion g/m^3_=_4090.0
# C_Vs_to_Am_M_A/Vsm_=_65563218390.804596
# pendiente_HvsI_1/m_=_3716.3
# ordenada_HvsI_A/m_=_1297.0
# frecuencia_Hz_=_135061.4734579909

Tiempo_(s)	Campo_(V.s)	Magnetizacion_(V.s)	Campo_(kA/m)	Magnetizacion_(A/m)
0.000000e+00	-5.428721e-06	-2.526682e-09	-3.840495e+01	-1.650129e+02
1.000000e-08	-5.428876e-06	-2.524958e-09	-3.840605e+01	-1.649216e+02
2.000000e-08	-5.428883e-06	-2.520721e-09	-3.840610e+01	-1.648308e+02
3.000000e-08	-5.428695e-06	-2.513102e-09	-3.840476e+01	-1.647417e+02
4.000000e-08	-5.428164e-06	-2.506980e-09	-3.840101e+01	-1.646558e+02
5.000000e-08	-5.427102e-06	-2.508129e-09	-3.839350e+01	-1.645740e+02
6.000000e-08	-5.425489e-06	-2.512745e-09	-3.838208e+01	-1.644976e+02
7.000000e-08	-5.423367e-06	-2.506746e-09	-3.836707e+01	-1.644276e+02
8.000000e-08	-5.420650e-06	-2.483456e-09	-3.834785e+01	-1.643647e+02
9.000000e-08	-5.417304e-06	-2.502101e-09	-3.832418e+01	-1.643098e+02
1.000000e-07	-5.413380e-06	-2.611492e-09	-3.829642e+01	-1.642634e+02
1.100000e-07	-5.409011e-06	-2.640112e-09	-3.826551e+01	-1.642258e+02
1.200000e-07	-5.404527e-06	-2.469521e-09	-3.823379e+01	-1.641974e+02
1.300000e-07	-5.400075e-06	-2.400722e-09	-3.820229e+01	-1.641781e+02
1.400000e-07	-5.395258e-06	-2.553175e-09	-3.816822e+01	-1.641678e+02
1.500000e-07	-5.389810e-06	-2.634782e-09	-3.812967e+01	-1.641662e+02
1.600000e-07	-5.384013e-06	-2.436296e-09	-3.808867e+01	-1.641727e+02
1.700000e-07	-5.378024e-06	-2.334633e-09	-3.804630e+01	-1.641866e+02
1.800000e-07	-5.371565e-06	-2.572919e-09	-3.800060e+01	-1.642071e+02
1.900000e-07	-5.364466e-06	-2.689241e-09	-3.795038e+01	-1.642332e+02
2.000000e-07	-5.357048e-06	-2.512611e-09	-3.789791e+01	-1.642638e+02
2.100000e-07	-5.349565e-06	-2.425032e-09	-3.784496e+01	-1.642977e+02
2.200000e-07	-5.341823e-06	-2.587815e-09	-3.779020e+01	-1.643336e+02
2.300000e-07	-5.333771e-06	-2.596905e-09	-3.773323e+01	-1.643702e+02
2.400000e-07	-5.325521e-06	-2.467221e-09	-3.767487e+01	-1.644061e+02
2.500000e-07	-5.316857e-06	-2.515782e-09	-3.761358e+01	-1.644399e+02
2.600000e-07	-5.307363e-06	-2.659466e-09	-3.754641e+01	-1.644703e+02
2.700000e-07	-5.297021e-06	-2.595666e-09	-3.747325e+01	-1.644959e+02
2.800000e-07	-5.286188e-06	-2.523636e-09	-3.739662e+01	-1.645156e+02
2.900000e-07	-5.274992e-06	-2.631602e-09	-3.731740e+01	-1.645280e+02
3.000000e-07	-5.263379e-06	-2.635348e-09	-3.723525e+01	-1.645322e+02
3.100000e-07	-5.251416e-06	-2.470811e-09	-3.715062e+01	-1.645273e+02
3.200000e-07	-5.239067e-06	-2.490862e-09	-3.706326e+01	-1.645124e+02
3.300000e-07	-5.226217e-06	-2.649071e-09	-3.697236e+01	-1.644868e+02
3.400000e-07	-5.212971e-06	-2.583322e-09	-3.687864e+01	-1.644501e+02
3.500000e-07	-5.199391e-06	-2.463450e-09	-3.678258e+01	-1.644019e+02
3.600000e-07	-5.185462e-06	-2.540897e-09	-3.668404e+01	-1.643420e+02
3.700000e-07	-5.171251e-06	-2.600179e-09	-3.658350e+01	-1.642704e+02
3.800000e-07	-5.156709e-06	-2.511727e-09	-3.648062e+01	-1.641872e+02
3.900000e-07	-5.141427e-06	-2.505366e-09	-3.637252e+01	-1.640926e+02
4.000000e-07	-5.125368e-06	-2.552057e-09	-3.625891e+01	-1.639871e+02
4.100000e-07	-5.108922e-06	-2.522373e-09	-3.614257e+01	-1.638710e+02
4.200000e-07	-5.092119e-06	-2.521471e-09	-3.602369e+01	-1.637451e+02
4.300000e-07	-5.074943e-06	-2.575464e-09	-3.590218e+01	-1.636100e+02
4.400000e-07	-5.057527e-06	-2.521740e-09	-3.577898e+01	-1.634665e+02
4.500000e-07	-5.039909e-06	-2.470405e-09	-3.565434e+01	-1.633154e+02
4.600000e-07	-5.021965e-06	-2.530270e-09	-3.552740e+01	-1.631574e+02
4.700000e-07	-5.003527e-06	-2.555739e-09	-3.539696e+01	-1.629935e+02
4.800000e-07	-4.984694e-06	-2.486628e-09	-3.526373e+01	-1.628245e+02
4.900000e-07	-4.965550e-06	-2.480675e-09	-3.512829e+01	-1.626512e+02
5.000000e-07	-4.945999e-06	-2.523475e-09	-3.498998e+01	-1.624743e+02
5.100000e-07	-4.926200e-06	-2.525071e-09	-3.484991e+01	-1.622946e+02
5.200000e-07	-4.906246e-06	-2.502133e-09	-3.470875e+01	-1.621127e+02
5.300000e-07	-4.886103e-06	-2.486632e-09	-3.456625e+01	-1.619291e+02
5.400000e-07	-4.865740e-06	-2.477636e-09	-3.442220e+01	-1.617443e+02
5.500000e-07	-4.844958e-06	-2.498337e-09	-3.427518e+01	-1.615587e+02
5.600000e-07	-4.823667e-06	-2.501720e-09	-3.412455e+01	-1.613725e+02
5.700000e-07	-4.802033e-06	-2.464383e-09	-3.397150e+01	-1.611859e+02
5.800000e-07	-4.780152e-06	-2.456926e-09	-3.381671e+01	-1.609989e+02
5.900000e-07	-4.758079e-06	-2.489691e-09	-3.366055e+01	-1.608115e+02
6.000000e-07	-4.735694e-06	-2.492287e-09	-3.350220e+01	-1.606236e+02
6.100000e-07	-4.712845e-06	-2.465261e-09	-3.334056e+01	-1.604350e+02
6.200000e-07	-4.689625e-06	-2.449142e-09	-3.317629e+01	-1.602453e+02
6.300000e-07	-4.666087e-06	-2.449388e-09	-3.300977e+01	-1.600542e+02
6.400000e-07	-4.642269e-06	-2.460993e-09	-3.284127e+01	-1.598614e+02
6.500000e-07	-4.618277e-06	-2.452643e-09	-3.267154e+01	-1.596664e+02
6.600000e-07	-4.594159e-06	-2.423649e-09	-3.250092e+01	-1.594686e+02
6.700000e-07	-4.569801e-06	-2.418214e-09	-3.232860e+01	-1.592677e+02
6.800000e-07	-4.544964e-06	-2.443094e-09	-3.215290e+01	-1.590631e+02
6.900000e-07	-4.519588e-06	-2.442058e-09	-3.197338e+01	-1.588545e+02
7.000000e-07	-4.493724e-06	-2.420680e-09	-3.179040e+01	-1.586412e+02
7.100000e-07	-4.467381e-06	-2.414244e-09	-3.160404e+01	-1.584231e+02
7.200000e-07	-4.440510e-06	-2.424871e-09	-3.141394e+01	-1.581996e+02
7.300000e-07	-4.413152e-06	-2.421423e-09	-3.122040e+01	-1.579705e+02
7.400000e-07	-4.385549e-06	-2.402468e-09	-3.102513e+01	-1.577355e+02
7.500000e-07	-4.357808e-06	-2.384087e-09	-3.082888e+01	-1.574945e+02
7.600000e-07	-4.329889e-06	-2.391293e-09	-3.063137e+01	-1.572474e+02
7.700000e-07	-4.301730e-06	-2.402649e-09	-3.043216e+01	-1.569942e+02
7.800000e-07	-4.273348e-06	-2.393604e-09	-3.023137e+01	-1.567348e+02
7.900000e-07	-4.244699e-06	-2.375430e-09	-3.002870e+01	-1.564695e+02
8.000000e-07	-4.215675e-06	-2.374586e-09	-2.982338e+01	-1.561983e+02
8.100000e-07	-4.186197e-06	-2.379195e-09	-2.961483e+01	-1.559215e+02
8.200000e-07	-4.156393e-06	-2.374346e-09	-2.940399e+01	-1.556393e+02
8.300000e-07	-4.126452e-06	-2.360033e-09	-2.919217e+01	-1.553523e+02
8.400000e-07	-4.096296e-06	-2.351705e-09	-2.897884e+01	-1.550606e+02
8.500000e-07	-4.065882e-06	-2.354169e-09	-2.876368e+01	-1.547647e+02
8.600000e-07	-4.035212e-06	-2.353388e-09	-2.854671e+01	-1.544651e+02
8.700000e-07	-4.004281e-06	-2.338574e-09	-2.832789e+01	-1.541622e+02
8.800000e-07	-3.973063e-06	-2.324281e-09	-2.810704e+01	-1.538563e+02
8.900000e-07	-3.941589e-06	-2.324871e-09	-2.788438e+01	-1.535480e+02
9.000000e-07	-3.909921e-06	-2.331001e-09	-2.766035e+01	-1.532377e+02
9.100000e-07	-3.878042e-06	-2.325655e-09	-2.743482e+01	-1.529256e+02
9.200000e-07	-3.845981e-06	-2.312985e-09	-2.720801e+01	-1.526123e+02
9.300000e-07	-3.813793e-06	-2.307084e-09	-2.698030e+01	-1.522980e+02
9.400000e-07	-3.781347e-06	-2.304121e-09	-2.675076e+01	-1.519830e+02
9.500000e-07	-3.748385e-06	-2.294947e-09	-2.651758e+01	-1.516674e+02
9.600000e-07	-3.715079e-06	-2.281137e-09	-2.628196e+01	-1.513515e+02
9.700000e-07	-3.681513e-06	-2.276922e-09	-2.604450e+01	-1.510354e+02
9.800000e-07	-3.647483e-06	-2.279898e-09	-2.580376e+01	-1.507191e+02
9.900000e-07	-3.612916e-06	-2.278135e-09	-2.555922e+01	-1.504026e+02
1.000000e-06	-3.577897e-06	-2.265354e-09	-2.531147e+01	-1.500858e+02
1.010000e-06	-3.542640e-06	-2.255470e-09	-2.506206e+01	-1.497686e+02
1.020000e-06	-3.507189e-06	-2.249128e-09	-2.481126e+01	-1.494508e+02
1.030000e-06	-3.471546e-06	-2.239618e-09	-2.455911e+01	-1.491323e+02
1.040000e-06	-3.435740e-06	-2.228478e-09	-2.430580e+01	-1.488126e+02
1.050000e-06	-3.399778e-06	-2.226561e-09	-2.405139e+01	-1.484916e+02
1.060000e-06	-3.363673e-06	-2.229772e-09	-2.379597e+01	-1.481688e+02
1.070000e-06	-3.327370e-06	-2.230191e-09	-2.353915e+01	-1.478438e+02
1.080000e-06	-3.290855e-06	-2.222796e-09	-2.328083e+01	-1.475163e+02
1.090000e-06	-3.254127e-06	-2.213297e-09	-2.302100e+01	-1.471857e+02
1.100000e-06	-3.217182e-06	-2.205831e-09	-2.275963e+01	-1.468517e+02
1.110000e-06	-3.179946e-06	-2.200175e-09	-2.249621e+01	-1.465137e+02
1.120000e-06	-3.142444e-06	-2.191733e-09	-2.223091e+01	-1.461713e+02
1.130000e-06	-3.104773e-06	-2.184065e-09	-2.196441e+01	-1.458240e+02
1.140000e-06	-3.066853e-06	-2.179877e-09	-2.169615e+01	-1.454713e+02
1.150000e-06	-3.028675e-06	-2.177207e-09	-2.142606e+01	-1.451127e+02
1.160000e-06	-2.990402e-06	-2.169923e-09	-2.115530e+01	-1.447477e+02
1.170000e-06	-2.951959e-06	-2.160357e-09	-2.088334e+01	-1.443759e+02
1.180000e-06	-2.913280e-06	-2.152855e-09	-2.060971e+01	-1.439969e+02
1.190000e-06	-2.874463e-06	-2.147881e-09	-2.033510e+01	-1.436101e+02
1.200000e-06	-2.835401e-06	-2.141918e-09	-2.005877e+01	-1.432152e+02
1.210000e-06	-2.796076e-06	-2.130527e-09	-1.978056e+01	-1.428118e+02
1.220000e-06	-2.756579e-06	-2.119803e-09	-1.950114e+01	-1.423995e+02
1.230000e-06	-2.716947e-06	-2.112845e-09	-1.922077e+01	-1.419780e+02
1.240000e-06	-2.677165e-06	-2.106867e-09	-1.893934e+01	-1.415469e+02
1.250000e-06	-2.637322e-06	-2.099454e-09	-1.865747e+01	-1.411060e+02
1.260000e-06	-2.597462e-06	-2.093777e-09	-1.837548e+01	-1.406550e+02
1.270000e-06	-2.557476e-06	-2.087417e-09	-1.809261e+01	-1.401936e+02
1.280000e-06	-2.517320e-06	-2.078414e-09	-1.780853e+01	-1.397217e+02
1.290000e-06	-2.476882e-06	-2.066614e-09	-1.752246e+01	-1.392391e+02
1.300000e-06	-2.436217e-06	-2.054440e-09	-1.723478e+01	-1.387456e+02
1.310000e-06	-2.395512e-06	-2.042932e-09	-1.694681e+01	-1.382411e+02
1.320000e-06	-2.354591e-06	-2.033656e-09	-1.665732e+01	-1.377256e+02
1.330000e-06	-2.313249e-06	-2.024789e-09	-1.636485e+01	-1.371989e+02
1.340000e-06	-2.271597e-06	-2.016726e-09	-1.607019e+01	-1.366612e+02
1.350000e-06	-2.229667e-06	-2.009382e-09	-1.577356e+01	-1.361123e+02
1.360000e-06	-2.187401e-06	-2.000808e-09	-1.547455e+01	-1.355523e+02
1.370000e-06	-2.144884e-06	-1.987236e-09	-1.517377e+01	-1.349814e+02
1.380000e-06	-2.102173e-06	-1.972573e-09	-1.487162e+01	-1.343996e+02
1.390000e-06	-2.059289e-06	-1.961942e-09	-1.456824e+01	-1.338069e+02
1.400000e-06	-2.016144e-06	-1.956390e-09	-1.426301e+01	-1.332036e+02
1.410000e-06	-1.972820e-06	-1.950285e-09	-1.395652e+01	-1.325898e+02
1.420000e-06	-1.929469e-06	-1.940278e-09	-1.364984e+01	-1.319656e+02
1.430000e-06	-1.885966e-06	-1.929379e-09	-1.334208e+01	-1.313312e+02
1.440000e-06	-1.842253e-06	-1.918883e-09	-1.303283e+01	-1.306867e+02
1.450000e-06	-1.798509e-06	-1.906719e-09	-1.272337e+01	-1.300322e+02
1.460000e-06	-1.754773e-06	-1.894336e-09	-1.241397e+01	-1.293679e+02
1.470000e-06	-1.710913e-06	-1.885633e-09	-1.210368e+01	-1.286939e+02
1.480000e-06	-1.666938e-06	-1.879495e-09	-1.179258e+01	-1.280101e+02
1.490000e-06	-1.622866e-06	-1.872293e-09	-1.148080e+01	-1.273167e+02
1.500000e-06	-1.578730e-06	-1.862183e-09	-1.116857e+01	-1.266135e+02
1.510000e-06	-1.534521e-06	-1.850004e-09	-1.085581e+01	-1.259005e+02
1.520000e-06	-1.490159e-06	-1.835012e-09	-1.054198e+01	-1.251775e+02
1.530000e-06	-1.445689e-06	-1.818218e-09	-1.022738e+01	-1.244442e+02
1.540000e-06	-1.401198e-06	-1.803800e-09	-9.912633e+00	-1.237003e+02
1.550000e-06	-1.356653e-06	-1.791503e-09	-9.597505e+00	-1.229455e+02
1.560000e-06	-1.312035e-06	-1.781050e-09	-9.281862e+00	-1.221792e+02
1.570000e-06	-1.267335e-06	-1.774862e-09	-8.965633e+00	-1.214009e+02
1.580000e-06	-1.222569e-06	-1.769073e-09	-8.648945e+00	-1.206098e+02
1.590000e-06	-1.177680e-06	-1.759370e-09	-8.331382e+00	-1.198052e+02
1.600000e-06	-1.132680e-06	-1.744332e-09	-8.013035e+00	-1.189863e+02
1.610000e-06	-1.087642e-06	-1.726387e-09	-7.694414e+00	-1.181520e+02
1.620000e-06	-1.042452e-06	-1.709354e-09	-7.374723e+00	-1.173014e+02
1.630000e-06	-9.970660e-07	-1.696319e-09	-7.053644e+00	-1.164333e+02
1.640000e-06	-9.516060e-07	-1.683288e-09	-6.732042e+00	-1.155464e+02
1.650000e-06	-9.061657e-07	-1.670395e-09	-6.410580e+00	-1.146396e+02
1.660000e-06	-8.607036e-07	-1.661604e-09	-6.088962e+00	-1.137114e+02
1.670000e-06	-8.151478e-07	-1.655409e-09	-5.766682e+00	-1.127606e+02
1.680000e-06	-7.694898e-07	-1.645674e-09	-5.443679e+00	-1.117855e+02
1.690000e-06	-7.237843e-07	-1.626973e-09	-5.120340e+00	-1.107849e+02
1.700000e-06	-6.780335e-07	-1.602688e-09	-4.796681e+00	-1.097572e+02
1.710000e-06	-6.322497e-07	-1.582224e-09	-4.472788e+00	-1.087008e+02
1.720000e-06	-5.864828e-07	-1.566508e-09	-4.149014e+00	-1.076144e+02
1.730000e-06	-5.406613e-07	-1.552271e-09	-3.824854e+00	-1.064964e+02
1.740000e-06	-4.947727e-07	-1.537119e-09	-3.500220e+00	-1.053453e+02
1.750000e-06	-4.489188e-07	-1.524942e-09	-3.175832e+00	-1.041597e+02
1.760000e-06	-4.030163e-07	-1.516867e-09	-2.851099e+00	-1.029383e+02
1.770000e-06	-3.570521e-07	-1.504897e-09	-2.525929e+00	-1.016796e+02
1.780000e-06	-3.111303e-07	-1.481320e-09	-2.201060e+00	-1.003824e+02
1.790000e-06	-2.651917e-07	-1.449686e-09	-1.876072e+00	-9.904539e+01
1.800000e-06	-2.192038e-07	-1.421808e-09	-1.550735e+00	-9.766737e+01
1.810000e-06	-1.731893e-07	-1.399361e-09	-1.225211e+00	-9.624721e+01
1.820000e-06	-1.271744e-07	-1.379940e-09	-8.996825e-01	-9.478382e+01
1.830000e-06	-8.121616e-08	-1.361952e-09	-5.745557e-01	-9.327617e+01
1.840000e-06	-3.529382e-08	-1.345607e-09	-2.496826e-01	-9.172329e+01
1.850000e-06	1.069845e-08	-1.328918e-09	7.568514e-02	-9.012422e+01
1.860000e-06	5.675797e-08	-1.306669e-09	4.015286e-01	-8.847808e+01
1.870000e-06	1.027682e-07	-1.275045e-09	7.270231e-01	-8.678400e+01
1.880000e-06	1.487257e-07	-1.240844e-09	1.052145e+00	-8.504115e+01
1.890000e-06	1.946851e-07	-1.210487e-09	1.377280e+00	-8.324871e+01
1.900000e-06	2.406938e-07	-1.182814e-09	1.702765e+00	-8.140589e+01
1.910000e-06	2.867275e-07	-1.155448e-09	2.028425e+00	-7.951188e+01
1.920000e-06	3.327157e-07	-1.129494e-09	2.353764e+00	-7.756591e+01
1.930000e-06	3.786329e-07	-1.105700e-09	2.678601e+00	-7.556719e+01
1.940000e-06	4.244286e-07	-1.082070e-09	3.002578e+00	-7.351491e+01
1.950000e-06	4.701988e-07	-1.053129e-09	3.326375e+00	-7.140829e+01
1.960000e-06	5.160136e-07	-1.018047e-09	3.650487e+00	-6.924652e+01
1.970000e-06	5.618592e-07	-9.822972e-10	3.974817e+00	-6.702882e+01
1.980000e-06	6.076104e-07	-9.484386e-10	4.298479e+00	-6.475437e+01
1.990000e-06	6.532456e-07	-9.131023e-10	4.621321e+00	-6.242242e+01
2.000000e-06	6.988915e-07	-8.747570e-10	4.944238e+00	-6.003220e+01
2.010000e-06	7.444884e-07	-8.380563e-10	5.266810e+00	-5.758300e+01
2.020000e-06	7.900465e-07	-8.053785e-10	5.589105e+00	-5.507417e+01
2.030000e-06	8.355705e-07	-7.731129e-10	5.911160e+00	-5.250511e+01
2.040000e-06	8.810035e-07	-7.358781e-10	6.232572e+00	-4.987534e+01
2.050000e-06	9.263686e-07	-6.950319e-10	6.553502e+00	-4.718447e+01
2.060000e-06	9.716747e-07	-6.546281e-10	6.874016e+00	-4.443227e+01
2.070000e-06	1.016954e-06	-6.144082e-10	7.194341e+00	-4.161864e+01
2.080000e-06	1.062189e-06	-5.709399e-10	7.514348e+00	-3.874370e+01
2.090000e-06	1.107254e-06	-5.250183e-10	7.833159e+00	-3.580776e+01
2.100000e-06	1.152171e-06	-4.818319e-10	8.150921e+00	-3.281137e+01
2.110000e-06	1.196993e-06	-4.425084e-10	8.468010e+00	-2.975534e+01
2.120000e-06	1.241788e-06	-4.017639e-10	8.784902e+00	-2.664076e+01
2.130000e-06	1.286530e-06	-3.577577e-10	9.101429e+00	-2.346901e+01
2.140000e-06	1.331180e-06	-3.124233e-10	9.417304e+00	-2.024181e+01
2.150000e-06	1.375753e-06	-2.649267e-10	9.732628e+00	-1.696118e+01
2.160000e-06	1.420230e-06	-2.135206e-10	1.004727e+01	-1.362950e+01
2.170000e-06	1.464576e-06	-1.600308e-10	1.036100e+01	-1.024950e+01
2.180000e-06	1.508785e-06	-1.065820e-10	1.067375e+01	-6.824246e+00
2.190000e-06	1.552968e-06	-5.460786e-11	1.098632e+01	-3.357156e+00
2.200000e-06	1.597089e-06	-5.326040e-12	1.129845e+01	1.480113e-01
2.210000e-06	1.641117e-06	4.344556e-11	1.160992e+01	3.687172e+00
2.220000e-06	1.685102e-06	9.498443e-11	1.192109e+01	7.255932e+00
2.230000e-06	1.729003e-06	1.484797e-10	1.223166e+01	1.084961e+01
2.240000e-06	1.772793e-06	2.030693e-10	1.254145e+01	1.446326e+01
2.250000e-06	1.816525e-06	2.600266e-10	1.285083e+01	1.809172e+01
2.260000e-06	1.860228e-06	3.178789e-10	1.316000e+01	2.172961e+01
2.270000e-06	1.903831e-06	3.724611e-10	1.346846e+01	2.537141e+01
2.280000e-06	1.947376e-06	4.234582e-10	1.377652e+01	2.901149e+01
2.290000e-06	1.990870e-06	4.734943e-10	1.408421e+01	3.264414e+01
2.300000e-06	2.034182e-06	5.258240e-10	1.439062e+01	3.626363e+01
2.310000e-06	2.077274e-06	5.799527e-10	1.469547e+01	3.986424e+01
2.320000e-06	2.120195e-06	6.326731e-10	1.499911e+01	4.344034e+01
2.330000e-06	2.162829e-06	6.877476e-10	1.530072e+01	4.698641e+01
2.340000e-06	2.205103e-06	7.439779e-10	1.559979e+01	5.049711e+01
2.350000e-06	2.246986e-06	7.976775e-10	1.589608e+01	5.396727e+01
2.360000e-06	2.288509e-06	8.480401e-10	1.618983e+01	5.739201e+01
2.370000e-06	2.329822e-06	8.966759e-10	1.648209e+01	6.076672e+01
2.380000e-06	2.370930e-06	9.447022e-10	1.677291e+01	6.408712e+01
2.390000e-06	2.411822e-06	9.906396e-10	1.706220e+01	6.734929e+01
2.400000e-06	2.452448e-06	1.033709e-09	1.734960e+01	7.054968e+01
2.410000e-06	2.492823e-06	1.076257e-09	1.763523e+01	7.368515e+01
2.420000e-06	2.533021e-06	1.118481e-09	1.791961e+01	7.675297e+01
2.430000e-06	2.573109e-06	1.160023e-09	1.820321e+01	7.975085e+01
2.440000e-06	2.613117e-06	1.201791e-09	1.848624e+01	8.267692e+01
2.450000e-06	2.653007e-06	1.242789e-09	1.876843e+01	8.552972e+01
2.460000e-06	2.692804e-06	1.282668e-09	1.904998e+01	8.830825e+01
2.470000e-06	2.732536e-06	1.323107e-09	1.933105e+01	9.101188e+01
2.480000e-06	2.772137e-06	1.362833e-09	1.961121e+01	9.364039e+01
2.490000e-06	2.811569e-06	1.400633e-09	1.989017e+01	9.619391e+01
2.500000e-06	2.850779e-06	1.436573e-09	2.016755e+01	9.867294e+01
2.510000e-06	2.889655e-06	1.471471e-09	2.044258e+01	1.010782e+02
2.520000e-06	2.928246e-06	1.506064e-09	2.071558e+01	1.034109e+02
2.530000e-06	2.966680e-06	1.537195e-09	2.098748e+01	1.056722e+02
2.540000e-06	3.004956e-06	1.566572e-09	2.125826e+01	1.078637e+02
2.550000e-06	3.043012e-06	1.598361e-09	2.152748e+01	1.099870e+02
2.560000e-06	3.080883e-06	1.632769e-09	2.179540e+01	1.120439e+02
2.570000e-06	3.118626e-06	1.664488e-09	2.206241e+01	1.140363e+02
2.580000e-06	3.156198e-06	1.691725e-09	2.232821e+01	1.159662e+02
2.590000e-06	3.193521e-06	1.719683e-09	2.259225e+01	1.178356e+02
2.600000e-06	3.230576e-06	1.747662e-09	2.285439e+01	1.196463e+02
2.610000e-06	3.267372e-06	1.772487e-09	2.311470e+01	1.214003e+02
2.620000e-06	3.303872e-06	1.793580e-09	2.337292e+01	1.230995e+02
2.630000e-06	3.340112e-06	1.814303e-09	2.362929e+01	1.247456e+02
2.640000e-06	3.376216e-06	1.837273e-09	2.388471e+01	1.263403e+02
2.650000e-06	3.412236e-06	1.860475e-09	2.413952e+01	1.278851e+02
2.660000e-06	3.448160e-06	1.882020e-09	2.439366e+01	1.293815e+02
2.670000e-06	3.483959e-06	1.904269e-09	2.464692e+01	1.308307e+02
2.680000e-06	3.519550e-06	1.929284e-09	2.489871e+01	1.322340e+02
2.690000e-06	3.554949e-06	1.950102e-09	2.514913e+01	1.335924e+02
2.700000e-06	3.590151e-06	1.964416e-09	2.539817e+01	1.349068e+02
2.710000e-06	3.625006e-06	1.979289e-09	2.564475e+01	1.361780e+02
2.720000e-06	3.659377e-06	1.997972e-09	2.588790e+01	1.374067e+02
2.730000e-06	3.693226e-06	2.016764e-09	2.612736e+01	1.385937e+02
2.740000e-06	3.726573e-06	2.032864e-09	2.636327e+01	1.397395e+02
2.750000e-06	3.759446e-06	2.047119e-09	2.659583e+01	1.408447e+02
2.760000e-06	3.791963e-06	2.064842e-09	2.682587e+01	1.419097e+02
2.770000e-06	3.824276e-06	2.083811e-09	2.705446e+01	1.429351e+02
2.780000e-06	3.856386e-06	2.097545e-09	2.728162e+01	1.439214e+02
2.790000e-06	3.888324e-06	2.104829e-09	2.750756e+01	1.448693e+02
2.800000e-06	3.920103e-06	2.113673e-09	2.773238e+01	1.457792e+02
2.810000e-06	3.951730e-06	2.127435e-09	2.795612e+01	1.466518e+02
2.820000e-06	3.983204e-06	2.141645e-09	2.817878e+01	1.474879e+02
2.830000e-06	4.014394e-06	2.152992e-09	2.839943e+01	1.482883e+02
2.840000e-06	4.045143e-06	2.165255e-09	2.861696e+01	1.490539e+02
2.850000e-06	4.075565e-06	2.181671e-09	2.883218e+01	1.497857e+02
2.860000e-06	4.105766e-06	2.196470e-09	2.904583e+01	1.504847e+02
2.870000e-06	4.135663e-06	2.206329e-09	2.925734e+01	1.511520e+02
2.880000e-06	4.165324e-06	2.213751e-09	2.946717e+01	1.517891e+02
2.890000e-06	4.194745e-06	2.221487e-09	2.967531e+01	1.523970e+02
2.900000e-06	4.223809e-06	2.228958e-09	2.988092e+01	1.529773e+02
