# Temperatura_=_-1.2
# Concentracion g/m^3_=_4090.0
# C_Vs_to_Am_M_A/Vsm_=_65563218390.804596
# pendiente_HvsI_1/m_=_3716.3
# ordenada_HvsI_A/m_=_1297.0
# frecuencia_Hz_=_135064.7330744989

Tiempo_(s)	Campo_(V.s)	Magnetizacion_(V.s)	Campo_(kA/m)	Magnetizacion_(A/m)
0.000000e+00	-5.406372e-06	-2.576388e-09	-3.840184e+01	-1.679093e+02
1.000000e-08	-5.406395e-06	-2.576290e-09	-3.840200e+01	-1.678110e+02
2.000000e-08	-5.406215e-06	-2.579283e-09	-3.840072e+01	-1.677171e+02
3.000000e-08	-5.405678e-06	-2.582132e-09	-3.839690e+01	-1.676293e+02
4.000000e-08	-5.404729e-06	-2.582989e-09	-3.839016e+01	-1.675496e+02
5.000000e-08	-5.403228e-06	-2.581980e-09	-3.837950e+01	-1.674795e+02
6.000000e-08	-5.401015e-06	-2.577990e-09	-3.836378e+01	-1.674206e+02
7.000000e-08	-5.398243e-06	-2.565501e-09	-3.834409e+01	-1.673742e+02
8.000000e-08	-5.394921e-06	-2.562610e-09	-3.832050e+01	-1.673413e+02
9.000000e-08	-5.391064e-06	-2.603811e-09	-3.829310e+01	-1.673229e+02
1.000000e-07	-5.386847e-06	-2.635929e-09	-3.826315e+01	-1.673194e+02
1.100000e-07	-5.382510e-06	-2.572885e-09	-3.823234e+01	-1.673313e+02
1.200000e-07	-5.378100e-06	-2.528358e-09	-3.820102e+01	-1.673583e+02
1.300000e-07	-5.373255e-06	-2.586338e-09	-3.816661e+01	-1.674003e+02
1.400000e-07	-5.367867e-06	-2.630594e-09	-3.812833e+01	-1.674567e+02
1.500000e-07	-5.362168e-06	-2.557957e-09	-3.808785e+01	-1.675266e+02
1.600000e-07	-5.356248e-06	-2.485614e-09	-3.804580e+01	-1.676088e+02
1.700000e-07	-5.349924e-06	-2.594679e-09	-3.800088e+01	-1.677020e+02
1.800000e-07	-5.343060e-06	-2.671787e-09	-3.795213e+01	-1.678045e+02
1.900000e-07	-5.335807e-06	-2.599986e-09	-3.790061e+01	-1.679146e+02
2.000000e-07	-5.328318e-06	-2.542893e-09	-3.784741e+01	-1.680303e+02
2.100000e-07	-5.320650e-06	-2.623632e-09	-3.779294e+01	-1.681495e+02
2.200000e-07	-5.312719e-06	-2.656040e-09	-3.773661e+01	-1.682701e+02
2.300000e-07	-5.304426e-06	-2.592186e-09	-3.767771e+01	-1.683897e+02
2.400000e-07	-5.295702e-06	-2.601312e-09	-3.761574e+01	-1.685062e+02
2.500000e-07	-5.286322e-06	-2.673583e-09	-3.754911e+01	-1.686174e+02
2.600000e-07	-5.276273e-06	-2.659470e-09	-3.747773e+01	-1.687211e+02
2.700000e-07	-5.265757e-06	-2.608381e-09	-3.740304e+01	-1.688152e+02
2.800000e-07	-5.254723e-06	-2.651181e-09	-3.732466e+01	-1.688980e+02
2.900000e-07	-5.243153e-06	-2.669897e-09	-3.724248e+01	-1.689676e+02
3.000000e-07	-5.231190e-06	-2.602451e-09	-3.715750e+01	-1.690225e+02
3.100000e-07	-5.218861e-06	-2.595768e-09	-3.706993e+01	-1.690615e+02
3.200000e-07	-5.206183e-06	-2.675134e-09	-3.697988e+01	-1.690835e+02
3.300000e-07	-5.193156e-06	-2.645323e-09	-3.688734e+01	-1.690877e+02
3.400000e-07	-5.179735e-06	-2.572910e-09	-3.679202e+01	-1.690735e+02
3.500000e-07	-5.165997e-06	-2.606280e-09	-3.669444e+01	-1.690407e+02
3.600000e-07	-5.151915e-06	-2.651097e-09	-3.659441e+01	-1.689892e+02
3.700000e-07	-5.137331e-06	-2.596139e-09	-3.649082e+01	-1.689194e+02
3.800000e-07	-5.122076e-06	-2.579158e-09	-3.638246e+01	-1.688316e+02
3.900000e-07	-5.106172e-06	-2.614820e-09	-3.626950e+01	-1.687267e+02
4.000000e-07	-5.089776e-06	-2.605682e-09	-3.615303e+01	-1.686055e+02
4.100000e-07	-5.072972e-06	-2.577203e-09	-3.603367e+01	-1.684691e+02
4.200000e-07	-5.055872e-06	-2.597515e-09	-3.591221e+01	-1.683189e+02
4.300000e-07	-5.038567e-06	-2.586987e-09	-3.578929e+01	-1.681562e+02
4.400000e-07	-5.021103e-06	-2.561094e-09	-3.566524e+01	-1.679824e+02
4.500000e-07	-5.003301e-06	-2.581373e-09	-3.553879e+01	-1.677991e+02
4.600000e-07	-4.985038e-06	-2.595822e-09	-3.540907e+01	-1.676078e+02
4.700000e-07	-4.966486e-06	-2.566668e-09	-3.527729e+01	-1.674102e+02
4.800000e-07	-4.947545e-06	-2.562783e-09	-3.514276e+01	-1.672077e+02
4.900000e-07	-4.928173e-06	-2.581289e-09	-3.500515e+01	-1.670017e+02
5.000000e-07	-4.908528e-06	-2.570939e-09	-3.486562e+01	-1.667936e+02
5.100000e-07	-4.888670e-06	-2.554573e-09	-3.472456e+01	-1.665846e+02
5.200000e-07	-4.868653e-06	-2.549225e-09	-3.458238e+01	-1.663758e+02
5.300000e-07	-4.848419e-06	-2.547726e-09	-3.443865e+01	-1.661681e+02
5.400000e-07	-4.827879e-06	-2.550320e-09	-3.429276e+01	-1.659622e+02
5.500000e-07	-4.806903e-06	-2.549819e-09	-3.414376e+01	-1.657588e+02
5.600000e-07	-4.785493e-06	-2.532664e-09	-3.399169e+01	-1.655582e+02
5.700000e-07	-4.763760e-06	-2.532351e-09	-3.383732e+01	-1.653607e+02
5.800000e-07	-4.741748e-06	-2.538801e-09	-3.368096e+01	-1.651661e+02
5.900000e-07	-4.719508e-06	-2.530857e-09	-3.352299e+01	-1.649745e+02
6.000000e-07	-4.696935e-06	-2.516514e-09	-3.336266e+01	-1.647854e+02
6.100000e-07	-4.673925e-06	-2.512387e-09	-3.319921e+01	-1.645985e+02
6.200000e-07	-4.650552e-06	-2.506425e-09	-3.303320e+01	-1.644130e+02
6.300000e-07	-4.626939e-06	-2.510672e-09	-3.286547e+01	-1.642284e+02
6.400000e-07	-4.603123e-06	-2.512265e-09	-3.269630e+01	-1.640438e+02
6.500000e-07	-4.579088e-06	-2.502857e-09	-3.252558e+01	-1.638584e+02
6.600000e-07	-4.554817e-06	-2.498120e-09	-3.235318e+01	-1.636714e+02
6.700000e-07	-4.530230e-06	-2.506812e-09	-3.217853e+01	-1.634817e+02
6.800000e-07	-4.505187e-06	-2.500909e-09	-3.200066e+01	-1.632886e+02
6.900000e-07	-4.479576e-06	-2.487891e-09	-3.181874e+01	-1.630911e+02
7.000000e-07	-4.453408e-06	-2.482626e-09	-3.163287e+01	-1.628885e+02
7.100000e-07	-4.426702e-06	-2.479693e-09	-3.144317e+01	-1.626799e+02
7.200000e-07	-4.399597e-06	-2.470914e-09	-3.125064e+01	-1.624649e+02
7.300000e-07	-4.372273e-06	-2.463471e-09	-3.105656e+01	-1.622427e+02
7.400000e-07	-4.344675e-06	-2.456409e-09	-3.086052e+01	-1.620131e+02
7.500000e-07	-4.316809e-06	-2.456712e-09	-3.066260e+01	-1.617755e+02
7.600000e-07	-4.288748e-06	-2.460331e-09	-3.046327e+01	-1.615300e+02
7.700000e-07	-4.260500e-06	-2.454614e-09	-3.026262e+01	-1.612763e+02
7.800000e-07	-4.232013e-06	-2.445042e-09	-3.006028e+01	-1.610146e+02
7.900000e-07	-4.203212e-06	-2.440795e-09	-2.985570e+01	-1.607450e+02
8.000000e-07	-4.174082e-06	-2.437178e-09	-2.964879e+01	-1.604678e+02
8.100000e-07	-4.144642e-06	-2.429357e-09	-2.943968e+01	-1.601834e+02
8.200000e-07	-4.114913e-06	-2.422946e-09	-2.922851e+01	-1.598923e+02
8.300000e-07	-4.084938e-06	-2.419747e-09	-2.901560e+01	-1.595950e+02
8.400000e-07	-4.054746e-06	-2.420916e-09	-2.880114e+01	-1.592920e+02
8.500000e-07	-4.024251e-06	-2.418875e-09	-2.858453e+01	-1.589842e+02
8.600000e-07	-3.993461e-06	-2.409156e-09	-2.836583e+01	-1.586721e+02
8.700000e-07	-3.962384e-06	-2.397096e-09	-2.814509e+01	-1.583563e+02
8.800000e-07	-3.931039e-06	-2.388976e-09	-2.792244e+01	-1.580376e+02
8.900000e-07	-3.899482e-06	-2.385576e-09	-2.769829e+01	-1.577167e+02
9.000000e-07	-3.867752e-06	-2.385078e-09	-2.747291e+01	-1.573940e+02
9.100000e-07	-3.835875e-06	-2.381098e-09	-2.724649e+01	-1.570701e+02
9.200000e-07	-3.803848e-06	-2.379677e-09	-2.701899e+01	-1.567454e+02
9.300000e-07	-3.771602e-06	-2.375376e-09	-2.678995e+01	-1.564205e+02
9.400000e-07	-3.739088e-06	-2.367681e-09	-2.655900e+01	-1.560954e+02
9.500000e-07	-3.706229e-06	-2.356475e-09	-2.632560e+01	-1.557705e+02
9.600000e-07	-3.672938e-06	-2.349486e-09	-2.608914e+01	-1.554459e+02
9.700000e-07	-3.639166e-06	-2.346685e-09	-2.584925e+01	-1.551214e+02
9.800000e-07	-3.604933e-06	-2.343443e-09	-2.560609e+01	-1.547971e+02
9.900000e-07	-3.570283e-06	-2.335337e-09	-2.535996e+01	-1.544728e+02
1.000000e-06	-3.535213e-06	-2.329197e-09	-2.511086e+01	-1.541481e+02
1.010000e-06	-3.499892e-06	-2.323441e-09	-2.485998e+01	-1.538227e+02
1.020000e-06	-3.464411e-06	-2.313406e-09	-2.460795e+01	-1.534962e+02
1.030000e-06	-3.428724e-06	-2.301537e-09	-2.435447e+01	-1.531680e+02
1.040000e-06	-3.392839e-06	-2.297447e-09	-2.409957e+01	-1.528376e+02
1.050000e-06	-3.356826e-06	-2.298192e-09	-2.384376e+01	-1.525045e+02
1.060000e-06	-3.320699e-06	-2.297064e-09	-2.358715e+01	-1.521680e+02
1.070000e-06	-3.284417e-06	-2.289304e-09	-2.332944e+01	-1.518274e+02
1.080000e-06	-3.247909e-06	-2.277803e-09	-2.307012e+01	-1.514822e+02
1.090000e-06	-3.211068e-06	-2.268161e-09	-2.280844e+01	-1.511317e+02
1.100000e-06	-3.173898e-06	-2.259743e-09	-2.254442e+01	-1.507753e+02
1.110000e-06	-3.136508e-06	-2.249321e-09	-2.227883e+01	-1.504124e+02
1.120000e-06	-3.098984e-06	-2.240765e-09	-2.201230e+01	-1.500425e+02
1.130000e-06	-3.061306e-06	-2.238228e-09	-2.174467e+01	-1.496651e+02
1.140000e-06	-3.023378e-06	-2.237864e-09	-2.147526e+01	-1.492798e+02
1.150000e-06	-2.985198e-06	-2.233544e-09	-2.120407e+01	-1.488860e+02
1.160000e-06	-2.946887e-06	-2.224404e-09	-2.093194e+01	-1.484836e+02
1.170000e-06	-2.908360e-06	-2.217317e-09	-2.065828e+01	-1.480722e+02
1.180000e-06	-2.869511e-06	-2.210576e-09	-2.038234e+01	-1.476516e+02
1.190000e-06	-2.830470e-06	-2.200514e-09	-2.010502e+01	-1.472217e+02
1.200000e-06	-2.791240e-06	-2.185454e-09	-1.982637e+01	-1.467822e+02
1.210000e-06	-2.751773e-06	-2.174349e-09	-1.954603e+01	-1.463332e+02
1.220000e-06	-2.712159e-06	-2.167402e-09	-1.926466e+01	-1.458745e+02
1.230000e-06	-2.672487e-06	-2.161977e-09	-1.898286e+01	-1.454062e+02
1.240000e-06	-2.632744e-06	-2.153506e-09	-1.870056e+01	-1.449283e+02
1.250000e-06	-2.592908e-06	-2.146456e-09	-1.841761e+01	-1.444408e+02
1.260000e-06	-2.552963e-06	-2.141850e-09	-1.813387e+01	-1.439439e+02
1.270000e-06	-2.512900e-06	-2.134803e-09	-1.784930e+01	-1.434375e+02
1.280000e-06	-2.472692e-06	-2.123147e-09	-1.756371e+01	-1.429217e+02
1.290000e-06	-2.432324e-06	-2.111321e-09	-1.727697e+01	-1.423966e+02
1.300000e-06	-2.391779e-06	-2.101304e-09	-1.698897e+01	-1.418622e+02
1.310000e-06	-2.351047e-06	-2.091683e-09	-1.669965e+01	-1.413186e+02
1.320000e-06	-2.310066e-06	-2.081057e-09	-1.640856e+01	-1.407657e+02
1.330000e-06	-2.268805e-06	-2.069836e-09	-1.611548e+01	-1.402036e+02
1.340000e-06	-2.227241e-06	-2.062645e-09	-1.582025e+01	-1.396322e+02
1.350000e-06	-2.185241e-06	-2.056978e-09	-1.552192e+01	-1.390515e+02
1.360000e-06	-2.142991e-06	-2.049213e-09	-1.522181e+01	-1.384613e+02
1.370000e-06	-2.100611e-06	-2.037874e-09	-1.492079e+01	-1.378616e+02
1.380000e-06	-2.057945e-06	-2.025771e-09	-1.461772e+01	-1.372522e+02
1.390000e-06	-2.015044e-06	-2.013427e-09	-1.431300e+01	-1.366330e+02
1.400000e-06	-1.972021e-06	-1.999392e-09	-1.400740e+01	-1.360038e+02
1.410000e-06	-1.928849e-06	-1.984990e-09	-1.370075e+01	-1.353644e+02
1.420000e-06	-1.885505e-06	-1.972976e-09	-1.339288e+01	-1.347145e+02
1.430000e-06	-1.842009e-06	-1.966437e-09	-1.308392e+01	-1.340540e+02
1.440000e-06	-1.798383e-06	-1.961315e-09	-1.277404e+01	-1.333827e+02
1.450000e-06	-1.754640e-06	-1.956262e-09	-1.246333e+01	-1.327002e+02
1.460000e-06	-1.710782e-06	-1.949178e-09	-1.215181e+01	-1.320063e+02
1.470000e-06	-1.666877e-06	-1.937224e-09	-1.183994e+01	-1.313008e+02
1.480000e-06	-1.622930e-06	-1.919264e-09	-1.152778e+01	-1.305834e+02
1.490000e-06	-1.578945e-06	-1.899513e-09	-1.121535e+01	-1.298537e+02
1.500000e-06	-1.534918e-06	-1.882497e-09	-1.090263e+01	-1.291115e+02
1.510000e-06	-1.490808e-06	-1.870439e-09	-1.058931e+01	-1.283566e+02
1.520000e-06	-1.446619e-06	-1.861598e-09	-1.027543e+01	-1.275884e+02
1.530000e-06	-1.402317e-06	-1.854986e-09	-9.960756e+00	-1.268067e+02
1.540000e-06	-1.357913e-06	-1.849207e-09	-9.645348e+00	-1.260112e+02
1.550000e-06	-1.313420e-06	-1.841860e-09	-9.329312e+00	-1.252013e+02
1.560000e-06	-1.268816e-06	-1.829160e-09	-9.012485e+00	-1.243767e+02
1.570000e-06	-1.224124e-06	-1.811663e-09	-8.695039e+00	-1.235369e+02
1.580000e-06	-1.179390e-06	-1.794037e-09	-8.377288e+00	-1.226812e+02
1.590000e-06	-1.134580e-06	-1.778707e-09	-8.058997e+00	-1.218092e+02
1.600000e-06	-1.089658e-06	-1.765193e-09	-7.739919e+00	-1.209201e+02
1.610000e-06	-1.044635e-06	-1.752170e-09	-7.420116e+00	-1.200134e+02
1.620000e-06	-9.995509e-07	-1.740838e-09	-7.099879e+00	-1.190881e+02
1.630000e-06	-9.543625e-07	-1.729222e-09	-6.778903e+00	-1.181435e+02
1.640000e-06	-9.090461e-07	-1.714697e-09	-6.457018e+00	-1.171786e+02
1.650000e-06	-8.637111e-07	-1.697574e-09	-6.135000e+00	-1.161925e+02
1.660000e-06	-8.183368e-07	-1.681720e-09	-5.812703e+00	-1.151841e+02
1.670000e-06	-7.728976e-07	-1.668911e-09	-5.489945e+00	-1.141522e+02
1.680000e-06	-7.274193e-07	-1.654979e-09	-5.166910e+00	-1.130959e+02
1.690000e-06	-6.818245e-07	-1.636451e-09	-4.843047e+00	-1.120137e+02
1.700000e-06	-6.361946e-07	-1.615222e-09	-4.518935e+00	-1.109044e+02
1.710000e-06	-5.905622e-07	-1.595590e-09	-4.194804e+00	-1.097666e+02
1.720000e-06	-5.448925e-07	-1.579768e-09	-3.870409e+00	-1.085990e+02
1.730000e-06	-4.992275e-07	-1.561646e-09	-3.546047e+00	-1.074001e+02
1.740000e-06	-4.535622e-07	-1.545634e-09	-3.221683e+00	-1.061686e+02
1.750000e-06	-4.079128e-07	-1.534052e-09	-2.897433e+00	-1.049029e+02
1.760000e-06	-3.622766e-07	-1.521391e-09	-2.573276e+00	-1.036016e+02
1.770000e-06	-3.165577e-07	-1.499165e-09	-2.248531e+00	-1.022632e+02
1.780000e-06	-2.707677e-07	-1.471257e-09	-1.923282e+00	-1.008863e+02
1.790000e-06	-2.249631e-07	-1.446284e-09	-1.597929e+00	-9.946939e+01
1.800000e-06	-1.790908e-07	-1.423242e-09	-1.272094e+00	-9.801119e+01
1.810000e-06	-1.331732e-07	-1.399457e-09	-9.459384e-01	-9.651029e+01
1.820000e-06	-8.730612e-08	-1.374850e-09	-6.201414e-01	-9.496537e+01
1.830000e-06	-4.148482e-08	-1.354229e-09	-2.946696e-01	-9.337517e+01
1.840000e-06	4.350517e-09	-1.336419e-09	3.090202e-02	-9.173848e+01
1.850000e-06	5.015152e-08	-1.314373e-09	3.562298e-01	-9.005416e+01
1.860000e-06	9.594116e-08	-1.286273e-09	6.814767e-01	-8.832113e+01
1.870000e-06	1.417645e-07	-1.256766e-09	1.006963e+00	-8.653836e+01
1.880000e-06	1.876369e-07	-1.229193e-09	1.332798e+00	-8.470490e+01
1.890000e-06	2.334544e-07	-1.199295e-09	1.658243e+00	-8.281987e+01
1.900000e-06	2.792117e-07	-1.164487e-09	1.983260e+00	-8.088245e+01
1.910000e-06	3.249683e-07	-1.131548e-09	2.308272e+00	-7.889189e+01
1.920000e-06	3.706511e-07	-1.104627e-09	2.632760e+00	-7.684751e+01
1.930000e-06	4.163537e-07	-1.080035e-09	2.957389e+00	-7.474868e+01
1.940000e-06	4.621480e-07	-1.050400e-09	3.282669e+00	-7.259485e+01
1.950000e-06	5.078789e-07	-1.016631e-09	3.607499e+00	-7.038552e+01
1.960000e-06	5.534910e-07	-9.822871e-10	3.931485e+00	-6.812027e+01
1.970000e-06	5.991053e-07	-9.476466e-10	4.255487e+00	-6.579871e+01
1.980000e-06	6.446799e-07	-9.090747e-10	4.579206e+00	-6.342056e+01
1.990000e-06	6.901231e-07	-8.682886e-10	4.901992e+00	-6.098557e+01
2.000000e-06	7.354930e-07	-8.324715e-10	5.224258e+00	-5.849359e+01
2.010000e-06	7.807928e-07	-8.021282e-10	5.546025e+00	-5.594451e+01
2.020000e-06	8.260549e-07	-7.679673e-10	5.867525e+00	-5.333835e+01
2.030000e-06	8.713101e-07	-7.276770e-10	6.188976e+00	-5.067520e+01
2.040000e-06	9.165754e-07	-6.876793e-10	6.510499e+00	-4.795523e+01
2.050000e-06	9.618083e-07	-6.504091e-10	6.831791e+00	-4.517877e+01
2.060000e-06	1.006886e-06	-6.108881e-10	7.151982e+00	-4.234623e+01
2.070000e-06	1.051869e-06	-5.664017e-10	7.471500e+00	-3.945819e+01
2.080000e-06	1.096779e-06	-5.216830e-10	7.790499e+00	-3.651536e+01
2.090000e-06	1.141568e-06	-4.792969e-10	8.108634e+00	-3.351864e+01
2.100000e-06	1.186249e-06	-4.373663e-10	8.426005e+00	-3.046907e+01
2.110000e-06	1.230830e-06	-3.918637e-10	8.742670e+00	-2.736793e+01
2.120000e-06	1.275320e-06	-3.462360e-10	9.058687e+00	-2.421668e+01
2.130000e-06	1.319685e-06	-3.037666e-10	9.373816e+00	-2.101700e+01
2.140000e-06	1.363933e-06	-2.617084e-10	9.688109e+00	-1.777083e+01
2.150000e-06	1.408128e-06	-2.130029e-10	1.000203e+01	-1.448032e+01
2.160000e-06	1.452278e-06	-1.568187e-10	1.031563e+01	-1.114787e+01
2.170000e-06	1.496391e-06	-1.022598e-10	1.062897e+01	-7.776165e+00
2.180000e-06	1.540477e-06	-5.341088e-11	1.094211e+01	-4.368110e+00
2.190000e-06	1.584502e-06	-6.389112e-12	1.125483e+01	-9.268827e-01
2.200000e-06	1.628419e-06	4.247940e-11	1.156678e+01	2.544094e+00
2.210000e-06	1.672232e-06	9.295543e-11	1.187798e+01	6.041152e+00
2.220000e-06	1.716015e-06	1.435487e-10	1.218897e+01	9.560396e+00
2.230000e-06	1.759731e-06	1.961088e-10	1.249949e+01	1.309771e+01
2.240000e-06	1.803340e-06	2.532009e-10	1.280925e+01	1.664879e+01
2.250000e-06	1.846859e-06	3.115034e-10	1.311837e+01	2.020915e+01
2.260000e-06	1.890269e-06	3.645578e-10	1.342671e+01	2.377415e+01
2.270000e-06	1.933574e-06	4.120999e-10	1.373431e+01	2.733904e+01
2.280000e-06	1.976709e-06	4.609827e-10	1.404070e+01	3.089897e+01
2.290000e-06	2.019651e-06	5.150487e-10	1.434572e+01	3.444904e+01
2.300000e-06	2.062376e-06	5.701979e-10	1.464920e+01	3.798432e+01
2.310000e-06	2.104830e-06	6.229863e-10	1.495075e+01	4.149991e+01
2.320000e-06	2.147064e-06	6.746223e-10	1.525075e+01	4.499095e+01
2.330000e-06	2.189039e-06	7.258058e-10	1.554890e+01	4.845266e+01
2.340000e-06	2.230714e-06	7.718335e-10	1.584492e+01	5.188042e+01
2.350000e-06	2.272144e-06	8.135593e-10	1.613920e+01	5.526973e+01
2.360000e-06	2.313338e-06	8.576534e-10	1.643180e+01	5.861632e+01
2.370000e-06	2.354312e-06	9.058432e-10	1.672284e+01	6.191613e+01
2.380000e-06	2.395041e-06	9.560798e-10	1.701214e+01	6.516537e+01
2.390000e-06	2.435482e-06	1.006385e-09	1.729940e+01	6.836052e+01
2.400000e-06	2.475732e-06	1.055231e-09	1.758530e+01	7.149838e+01
2.410000e-06	2.515882e-06	1.099091e-09	1.787049e+01	7.457608e+01
2.420000e-06	2.555918e-06	1.139424e-09	1.815486e+01	7.759108e+01
2.430000e-06	2.595868e-06	1.177752e-09	1.843863e+01	8.054119e+01
2.440000e-06	2.635724e-06	1.213044e-09	1.872173e+01	8.342458e+01
2.450000e-06	2.675445e-06	1.249644e-09	1.900387e+01	8.623978e+01
2.460000e-06	2.715077e-06	1.290210e-09	1.928538e+01	8.898568e+01
2.470000e-06	2.754585e-06	1.332302e-09	1.956601e+01	9.166149e+01
2.480000e-06	2.793909e-06	1.372264e-09	1.984533e+01	9.426678e+01
2.490000e-06	2.832974e-06	1.410738e-09	2.012281e+01	9.680141e+01
2.500000e-06	2.871726e-06	1.447547e-09	2.039807e+01	9.926556e+01
2.510000e-06	2.910307e-06	1.480349e-09	2.067211e+01	1.016597e+02
2.520000e-06	2.948751e-06	1.508043e-09	2.094519e+01	1.039844e+02
2.530000e-06	2.986948e-06	1.536101e-09	2.121650e+01	1.062407e+02
2.540000e-06	3.024886e-06	1.570075e-09	2.148597e+01	1.084297e+02
2.550000e-06	3.062745e-06	1.608498e-09	2.175489e+01	1.105526e+02
2.560000e-06	3.100504e-06	1.644427e-09	2.202309e+01	1.126107e+02
2.570000e-06	3.137947e-06	1.673003e-09	2.228905e+01	1.146057e+02
2.580000e-06	3.175098e-06	1.698776e-09	2.255294e+01	1.165390e+02
2.590000e-06	3.212028e-06	1.720952e-09	2.281526e+01	1.184122e+02
2.600000e-06	3.248709e-06	1.741855e-09	2.307580e+01	1.202270e+02
2.610000e-06	3.285076e-06	1.763363e-09	2.333412e+01	1.219850e+02
2.620000e-06	3.321252e-06	1.790037e-09	2.359108e+01	1.236877e+02
2.630000e-06	3.357327e-06	1.821934e-09	2.384732e+01	1.253367e+02
2.640000e-06	3.393255e-06	1.852116e-09	2.410252e+01	1.269335e+02
2.650000e-06	3.429094e-06	1.876106e-09	2.435709e+01	1.284795e+02
2.660000e-06	3.464874e-06	1.894681e-09	2.461124e+01	1.299760e+02
2.670000e-06	3.500496e-06	1.911270e-09	2.486426e+01	1.314243e+02
2.680000e-06	3.535868e-06	1.925917e-09	2.511552e+01	1.328255e+02
2.690000e-06	3.570931e-06	1.940586e-09	2.536457e+01	1.341808e+02
2.700000e-06	3.605517e-06	1.960872e-09	2.561024e+01	1.354911e+02
2.710000e-06	3.639561e-06	1.987388e-09	2.585205e+01	1.367574e+02
2.720000e-06	3.673142e-06	2.014017e-09	2.609058e+01	1.379806e+02
2.730000e-06	3.706337e-06	2.034791e-09	2.632637e+01	1.391616e+02
2.740000e-06	3.739192e-06	2.049809e-09	2.655974e+01	1.403012e+02
2.750000e-06	3.771727e-06	2.060969e-09	2.679084e+01	1.414001e+02
2.760000e-06	3.803960e-06	2.068157e-09	2.701979e+01	1.424591e+02
2.770000e-06	3.835981e-06	2.075160e-09	2.724724e+01	1.434791e+02
2.780000e-06	3.867887e-06	2.087152e-09	2.747387e+01	1.444609e+02
2.790000e-06	3.899626e-06	2.105781e-09	2.769932e+01	1.454053e+02
2.800000e-06	3.931158e-06	2.126691e-09	2.792329e+01	1.463132e+02
2.810000e-06	3.962534e-06	2.145467e-09	2.814615e+01	1.471856e+02
2.820000e-06	3.993657e-06	2.158048e-09	2.836722e+01	1.480234e+02
2.830000e-06	4.024415e-06	2.166080e-09	2.858570e+01	1.488277e+02
2.840000e-06	4.054868e-06	2.174326e-09	2.880201e+01	1.495997e+02
2.850000e-06	4.085056e-06	2.182650e-09	2.901644e+01	1.503405e+02
2.860000e-06	4.114960e-06	2.189801e-09	2.922885e+01	1.510513e+02
2.870000e-06	4.144589e-06	2.199479e-09	2.943931e+01	1.517335e+02
2.880000e-06	4.173953e-06	2.210767e-09	2.964788e+01	1.523883e+02
2.890000e-06	4.202999e-06	2.220532e-09	2.985419e+01	1.530172e+02
2.900000e-06	4.231738e-06	2.227532e-09	3.005833e+01	1.536215e+02
