# Temperatura_=_-0.92
# Concentracion g/m^3_=_4090.0
# C_Vs_to_Am_M_A/Vsm_=_65563218390.804596
# pendiente_HvsI_1/m_=_3716.3
# ordenada_HvsI_A/m_=_1297.0
# frecuencia_Hz_=_135063.58902305545

Tiempo_(s)	Campo_(V.s)	Magnetizacion_(V.s)	Campo_(kA/m)	Magnetizacion_(A/m)
0.000000e+00	-5.417647e-06	-2.511052e-09	-3.839930e+01	-1.632299e+02
1.000000e-08	-5.417883e-06	-2.504903e-09	-3.840098e+01	-1.631093e+02
2.000000e-08	-5.417974e-06	-2.503900e-09	-3.840162e+01	-1.629912e+02
3.000000e-08	-5.417797e-06	-2.504577e-09	-3.840037e+01	-1.628779e+02
4.000000e-08	-5.417216e-06	-2.506749e-09	-3.839625e+01	-1.627720e+02
5.000000e-08	-5.416113e-06	-2.511295e-09	-3.838843e+01	-1.626758e+02
6.000000e-08	-5.414441e-06	-2.521358e-09	-3.837658e+01	-1.625916e+02
7.000000e-08	-5.412191e-06	-2.523309e-09	-3.836063e+01	-1.625214e+02
8.000000e-08	-5.409331e-06	-2.471550e-09	-3.834036e+01	-1.624673e+02
9.000000e-08	-5.405854e-06	-2.426179e-09	-3.831572e+01	-1.624308e+02
1.000000e-07	-5.401877e-06	-2.550861e-09	-3.828753e+01	-1.624131e+02
1.100000e-07	-5.397554e-06	-2.687648e-09	-3.825689e+01	-1.624155e+02
1.200000e-07	-5.393025e-06	-2.499603e-09	-3.822479e+01	-1.624386e+02
1.300000e-07	-5.388445e-06	-2.348008e-09	-3.819232e+01	-1.624826e+02
1.400000e-07	-5.383630e-06	-2.501319e-09	-3.815820e+01	-1.625475e+02
1.500000e-07	-5.378281e-06	-2.707919e-09	-3.812029e+01	-1.626331e+02
1.600000e-07	-5.372438e-06	-2.498168e-09	-3.807887e+01	-1.627383e+02
1.700000e-07	-5.366365e-06	-2.250546e-09	-3.803583e+01	-1.628622e+02
1.800000e-07	-5.359985e-06	-2.493617e-09	-3.799060e+01	-1.630032e+02
1.900000e-07	-5.353104e-06	-2.726399e-09	-3.794184e+01	-1.631596e+02
2.000000e-07	-5.345735e-06	-2.557213e-09	-3.788961e+01	-1.633291e+02
2.100000e-07	-5.338174e-06	-2.366691e-09	-3.783601e+01	-1.635096e+02
2.200000e-07	-5.330497e-06	-2.571385e-09	-3.778160e+01	-1.636983e+02
2.300000e-07	-5.322435e-06	-2.650090e-09	-3.772446e+01	-1.638927e+02
2.400000e-07	-5.314053e-06	-2.465612e-09	-3.766505e+01	-1.640898e+02
2.500000e-07	-5.305309e-06	-2.456459e-09	-3.760307e+01	-1.642867e+02
2.600000e-07	-5.295826e-06	-2.684691e-09	-3.753586e+01	-1.644805e+02
2.700000e-07	-5.285593e-06	-2.631554e-09	-3.746333e+01	-1.646682e+02
2.800000e-07	-5.274886e-06	-2.481334e-09	-3.738744e+01	-1.648471e+02
2.900000e-07	-5.263682e-06	-2.620159e-09	-3.730802e+01	-1.650143e+02
3.000000e-07	-5.252054e-06	-2.713739e-09	-3.722561e+01	-1.651674e+02
3.100000e-07	-5.240144e-06	-2.479134e-09	-3.714120e+01	-1.653040e+02
3.200000e-07	-5.227835e-06	-2.420534e-09	-3.705395e+01	-1.654220e+02
3.300000e-07	-5.214988e-06	-2.650738e-09	-3.696289e+01	-1.655197e+02
3.400000e-07	-5.201758e-06	-2.636107e-09	-3.686912e+01	-1.655955e+02
3.500000e-07	-5.188267e-06	-2.458930e-09	-3.677350e+01	-1.656482e+02
3.600000e-07	-5.174462e-06	-2.541432e-09	-3.667565e+01	-1.656770e+02
3.700000e-07	-5.160228e-06	-2.644931e-09	-3.657476e+01	-1.656814e+02
3.800000e-07	-5.145524e-06	-2.529435e-09	-3.647055e+01	-1.656612e+02
3.900000e-07	-5.130281e-06	-2.495896e-09	-3.636251e+01	-1.656166e+02
4.000000e-07	-5.114286e-06	-2.561166e-09	-3.624914e+01	-1.655481e+02
4.100000e-07	-5.097743e-06	-2.509429e-09	-3.613188e+01	-1.654565e+02
4.200000e-07	-5.080994e-06	-2.486235e-09	-3.601316e+01	-1.653429e+02
4.300000e-07	-5.063976e-06	-2.597062e-09	-3.589255e+01	-1.652085e+02
4.400000e-07	-5.046650e-06	-2.559823e-09	-3.576975e+01	-1.650549e+02
4.500000e-07	-5.029019e-06	-2.466649e-09	-3.564478e+01	-1.648838e+02
4.600000e-07	-5.011051e-06	-2.523240e-09	-3.551742e+01	-1.646970e+02
4.700000e-07	-4.992757e-06	-2.582506e-09	-3.538776e+01	-1.644965e+02
4.800000e-07	-4.974087e-06	-2.491708e-09	-3.525543e+01	-1.642842e+02
4.900000e-07	-4.954940e-06	-2.466790e-09	-3.511972e+01	-1.640621e+02
5.000000e-07	-4.935402e-06	-2.510480e-09	-3.498123e+01	-1.638321e+02
5.100000e-07	-4.915691e-06	-2.522865e-09	-3.484153e+01	-1.635963e+02
5.200000e-07	-4.895841e-06	-2.508069e-09	-3.470084e+01	-1.633563e+02
5.300000e-07	-4.875742e-06	-2.500341e-09	-3.455838e+01	-1.631138e+02
5.400000e-07	-4.855247e-06	-2.470047e-09	-3.441311e+01	-1.628703e+02
5.500000e-07	-4.834397e-06	-2.491674e-09	-3.426534e+01	-1.626272e+02
5.600000e-07	-4.813234e-06	-2.513624e-09	-3.411533e+01	-1.623855e+02
5.700000e-07	-4.791727e-06	-2.474645e-09	-3.396290e+01	-1.621461e+02
5.800000e-07	-4.769945e-06	-2.445404e-09	-3.380851e+01	-1.619098e+02
5.900000e-07	-4.747888e-06	-2.477687e-09	-3.365217e+01	-1.616769e+02
6.000000e-07	-4.725473e-06	-2.486374e-09	-3.349330e+01	-1.614476e+02
6.100000e-07	-4.702768e-06	-2.465069e-09	-3.333237e+01	-1.612221e+02
6.200000e-07	-4.679775e-06	-2.445467e-09	-3.316940e+01	-1.610001e+02
6.300000e-07	-4.656385e-06	-2.436854e-09	-3.300361e+01	-1.607812e+02
6.400000e-07	-4.632765e-06	-2.454790e-09	-3.283620e+01	-1.605648e+02
6.500000e-07	-4.608986e-06	-2.463742e-09	-3.266766e+01	-1.603504e+02
6.600000e-07	-4.584927e-06	-2.429729e-09	-3.249713e+01	-1.601371e+02
6.700000e-07	-4.560554e-06	-2.408980e-09	-3.232439e+01	-1.599241e+02
6.800000e-07	-4.535764e-06	-2.436693e-09	-3.214868e+01	-1.597103e+02
6.900000e-07	-4.510455e-06	-2.442609e-09	-3.196929e+01	-1.594949e+02
7.000000e-07	-4.484621e-06	-2.415799e-09	-3.178619e+01	-1.592768e+02
7.100000e-07	-4.458221e-06	-2.397237e-09	-3.159907e+01	-1.590552e+02
7.200000e-07	-4.431304e-06	-2.408488e-09	-3.140828e+01	-1.588290e+02
7.300000e-07	-4.404024e-06	-2.416119e-09	-3.121492e+01	-1.585976e+02
7.400000e-07	-4.376487e-06	-2.405082e-09	-3.101975e+01	-1.583601e+02
7.500000e-07	-4.348759e-06	-2.376695e-09	-3.082322e+01	-1.581159e+02
7.600000e-07	-4.320847e-06	-2.378995e-09	-3.062538e+01	-1.578645e+02
7.700000e-07	-4.292767e-06	-2.394626e-09	-3.042636e+01	-1.576057e+02
7.800000e-07	-4.264489e-06	-2.388771e-09	-3.022593e+01	-1.573390e+02
7.900000e-07	-4.235856e-06	-2.359912e-09	-3.002298e+01	-1.570645e+02
8.000000e-07	-4.206826e-06	-2.354180e-09	-2.981723e+01	-1.567822e+02
8.100000e-07	-4.177543e-06	-2.363579e-09	-2.960967e+01	-1.564922e+02
8.200000e-07	-4.148007e-06	-2.368373e-09	-2.940032e+01	-1.561949e+02
8.300000e-07	-4.118140e-06	-2.353245e-09	-2.918863e+01	-1.558906e+02
8.400000e-07	-4.087981e-06	-2.341653e-09	-2.897487e+01	-1.555800e+02
8.500000e-07	-4.057638e-06	-2.345220e-09	-2.875980e+01	-1.552634e+02
8.600000e-07	-4.027038e-06	-2.353046e-09	-2.854292e+01	-1.549417e+02
8.700000e-07	-3.996075e-06	-2.337456e-09	-2.832346e+01	-1.546154e+02
8.800000e-07	-3.964814e-06	-2.314169e-09	-2.810188e+01	-1.542852e+02
8.900000e-07	-3.933374e-06	-2.306978e-09	-2.787904e+01	-1.539519e+02
9.000000e-07	-3.901800e-06	-2.317107e-09	-2.765526e+01	-1.536161e+02
9.100000e-07	-3.869975e-06	-2.313223e-09	-2.742968e+01	-1.532784e+02
9.200000e-07	-3.837956e-06	-2.294450e-09	-2.720274e+01	-1.529394e+02
9.300000e-07	-3.805809e-06	-2.285490e-09	-2.697489e+01	-1.525997e+02
9.400000e-07	-3.773417e-06	-2.291112e-09	-2.674529e+01	-1.522595e+02
9.500000e-07	-3.740630e-06	-2.289953e-09	-2.651291e+01	-1.519193e+02
9.600000e-07	-3.707403e-06	-2.273806e-09	-2.627740e+01	-1.515792e+02
9.700000e-07	-3.673827e-06	-2.264450e-09	-2.603942e+01	-1.512394e+02
9.800000e-07	-3.639824e-06	-2.267759e-09	-2.579842e+01	-1.508998e+02
9.900000e-07	-3.605384e-06	-2.268738e-09	-2.555431e+01	-1.505603e+02
1.000000e-06	-3.570568e-06	-2.251612e-09	-2.530754e+01	-1.502207e+02
1.010000e-06	-3.535384e-06	-2.235412e-09	-2.505816e+01	-1.498807e+02
1.020000e-06	-3.499953e-06	-2.230028e-09	-2.480703e+01	-1.495398e+02
1.030000e-06	-3.464408e-06	-2.231034e-09	-2.455510e+01	-1.491977e+02
1.040000e-06	-3.428736e-06	-2.226068e-09	-2.430226e+01	-1.488536e+02
1.050000e-06	-3.392888e-06	-2.222310e-09	-2.404818e+01	-1.485071e+02
1.060000e-06	-3.356893e-06	-2.221649e-09	-2.379305e+01	-1.481574e+02
1.070000e-06	-3.320663e-06	-2.223048e-09	-2.353626e+01	-1.478040e+02
1.080000e-06	-3.284163e-06	-2.212615e-09	-2.327755e+01	-1.474462e+02
1.090000e-06	-3.247391e-06	-2.193542e-09	-2.301692e+01	-1.470832e+02
1.100000e-06	-3.210418e-06	-2.177590e-09	-2.275486e+01	-1.467146e+02
1.110000e-06	-3.173230e-06	-2.174026e-09	-2.249128e+01	-1.463396e+02
1.120000e-06	-3.135768e-06	-2.169339e-09	-2.222576e+01	-1.459579e+02
1.130000e-06	-3.098116e-06	-2.162741e-09	-2.195888e+01	-1.455688e+02
1.140000e-06	-3.060311e-06	-2.157931e-09	-2.169093e+01	-1.451719e+02
1.150000e-06	-3.022327e-06	-2.160410e-09	-2.142171e+01	-1.447671e+02
1.160000e-06	-2.984097e-06	-2.156278e-09	-2.115074e+01	-1.443539e+02
1.170000e-06	-2.945615e-06	-2.141125e-09	-2.087799e+01	-1.439322e+02
1.180000e-06	-2.906912e-06	-2.124640e-09	-2.060367e+01	-1.435019e+02
1.190000e-06	-2.868059e-06	-2.117221e-09	-2.032829e+01	-1.430629e+02
1.200000e-06	-2.828993e-06	-2.113007e-09	-2.005139e+01	-1.426154e+02
1.210000e-06	-2.789731e-06	-2.103598e-09	-1.977311e+01	-1.421592e+02
1.220000e-06	-2.750361e-06	-2.094680e-09	-1.949406e+01	-1.416947e+02
1.230000e-06	-2.710854e-06	-2.092332e-09	-1.921404e+01	-1.412220e+02
1.240000e-06	-2.671188e-06	-2.089897e-09	-1.893290e+01	-1.407412e+02
1.250000e-06	-2.631389e-06	-2.079282e-09	-1.865081e+01	-1.402526e+02
1.260000e-06	-2.591507e-06	-2.065434e-09	-1.836813e+01	-1.397565e+02
1.270000e-06	-2.551530e-06	-2.053740e-09	-1.808478e+01	-1.392529e+02
1.280000e-06	-2.511392e-06	-2.048168e-09	-1.780029e+01	-1.387421e+02
1.290000e-06	-2.471030e-06	-2.042454e-09	-1.751421e+01	-1.382243e+02
1.300000e-06	-2.430504e-06	-2.035407e-09	-1.722697e+01	-1.376995e+02
1.310000e-06	-2.389765e-06	-2.028384e-09	-1.693822e+01	-1.371678e+02
1.320000e-06	-2.348749e-06	-2.023982e-09	-1.664751e+01	-1.366293e+02
1.330000e-06	-2.307505e-06	-2.014658e-09	-1.635518e+01	-1.360837e+02
1.340000e-06	-2.265998e-06	-1.999426e-09	-1.606098e+01	-1.355311e+02
1.350000e-06	-2.224173e-06	-1.983444e-09	-1.576453e+01	-1.349712e+02
1.360000e-06	-2.182027e-06	-1.972417e-09	-1.546581e+01	-1.344037e+02
1.370000e-06	-2.139521e-06	-1.964509e-09	-1.516454e+01	-1.338283e+02
1.380000e-06	-2.096769e-06	-1.956087e-09	-1.486152e+01	-1.332447e+02
1.390000e-06	-2.053874e-06	-1.946105e-09	-1.455749e+01	-1.326523e+02
1.400000e-06	-2.010809e-06	-1.937604e-09	-1.425225e+01	-1.320507e+02
1.410000e-06	-1.967534e-06	-1.929010e-09	-1.394553e+01	-1.314393e+02
1.420000e-06	-1.924081e-06	-1.919215e-09	-1.363754e+01	-1.308175e+02
1.430000e-06	-1.880578e-06	-1.905864e-09	-1.332920e+01	-1.301849e+02
1.440000e-06	-1.836998e-06	-1.892079e-09	-1.302031e+01	-1.295407e+02
1.450000e-06	-1.793324e-06	-1.879325e-09	-1.271076e+01	-1.288843e+02
1.460000e-06	-1.749565e-06	-1.869334e-09	-1.240060e+01	-1.282153e+02
1.470000e-06	-1.705705e-06	-1.858867e-09	-1.208973e+01	-1.275329e+02
1.480000e-06	-1.661792e-06	-1.847963e-09	-1.177848e+01	-1.268366e+02
1.490000e-06	-1.617843e-06	-1.838543e-09	-1.146698e+01	-1.261259e+02
1.500000e-06	-1.573782e-06	-1.827945e-09	-1.115469e+01	-1.254002e+02
1.510000e-06	-1.529632e-06	-1.813331e-09	-1.084175e+01	-1.246592e+02
1.520000e-06	-1.485425e-06	-1.797269e-09	-1.052842e+01	-1.239023e+02
1.530000e-06	-1.441140e-06	-1.782540e-09	-1.021454e+01	-1.231292e+02
1.540000e-06	-1.396708e-06	-1.771939e-09	-9.899615e+00	-1.223395e+02
1.550000e-06	-1.352152e-06	-1.762485e-09	-9.583808e+00	-1.215328e+02
1.560000e-06	-1.307599e-06	-1.749697e-09	-9.268022e+00	-1.207089e+02
1.570000e-06	-1.263039e-06	-1.737359e-09	-8.952190e+00	-1.198674e+02
1.580000e-06	-1.218324e-06	-1.726477e-09	-8.635257e+00	-1.190079e+02
1.590000e-06	-1.173458e-06	-1.715195e-09	-8.317256e+00	-1.181303e+02
1.600000e-06	-1.128467e-06	-1.701825e-09	-7.998370e+00	-1.172342e+02
1.610000e-06	-1.083402e-06	-1.686749e-09	-7.678961e+00	-1.163192e+02
1.620000e-06	-1.038284e-06	-1.669600e-09	-7.359168e+00	-1.153848e+02
1.630000e-06	-9.931023e-07	-1.653101e-09	-7.038930e+00	-1.144308e+02
1.640000e-06	-9.478695e-07	-1.635216e-09	-6.718328e+00	-1.134564e+02
1.650000e-06	-9.025341e-07	-1.617247e-09	-6.396999e+00	-1.124613e+02
1.660000e-06	-8.570867e-07	-1.602109e-09	-6.074876e+00	-1.114446e+02
1.670000e-06	-8.115912e-07	-1.590896e-09	-5.752412e+00	-1.104056e+02
1.680000e-06	-7.661162e-07	-1.579873e-09	-5.430094e+00	-1.093436e+02
1.690000e-06	-7.205869e-07	-1.564051e-09	-5.107390e+00	-1.082575e+02
1.700000e-06	-6.750283e-07	-1.542633e-09	-4.784479e+00	-1.071463e+02
1.710000e-06	-6.294130e-07	-1.520826e-09	-4.461166e+00	-1.060088e+02
1.720000e-06	-5.837626e-07	-1.500743e-09	-4.137604e+00	-1.048439e+02
1.730000e-06	-5.381117e-07	-1.482941e-09	-3.814039e+00	-1.036502e+02
1.740000e-06	-4.923730e-07	-1.465156e-09	-3.489851e+00	-1.024263e+02
1.750000e-06	-4.465720e-07	-1.450129e-09	-3.165221e+00	-1.011708e+02
1.760000e-06	-4.007315e-07	-1.439146e-09	-2.840313e+00	-9.988203e+01
1.770000e-06	-3.548063e-07	-1.426198e-09	-2.514803e+00	-9.855851e+01
1.780000e-06	-3.089147e-07	-1.405027e-09	-2.189532e+00	-9.719859e+01
1.790000e-06	-2.630668e-07	-1.377549e-09	-1.864570e+00	-9.580066e+01
1.800000e-06	-2.171661e-07	-1.349398e-09	-1.539234e+00	-9.436308e+01
1.810000e-06	-1.712234e-07	-1.325681e-09	-1.213601e+00	-9.288423e+01
1.820000e-06	-1.252469e-07	-1.305752e-09	-8.877272e-01	-9.136255e+01
1.830000e-06	-7.931721e-08	-1.285077e-09	-5.621861e-01	-8.979650e+01
1.840000e-06	-3.344150e-08	-1.264270e-09	-2.370273e-01	-8.818461e+01
1.850000e-06	1.242221e-08	-1.243187e-09	8.804641e-02	-8.652552e+01
1.860000e-06	5.829973e-08	-1.220142e-09	4.132180e-01	-8.481793e+01
1.870000e-06	1.042160e-07	-1.191486e-09	7.386640e-01	-8.306067e+01
1.880000e-06	1.500908e-07	-1.159764e-09	1.063816e+00	-8.125267e+01
1.890000e-06	1.959206e-07	-1.128714e-09	1.388650e+00	-7.939302e+01
1.900000e-06	2.418265e-07	-1.099215e-09	1.714022e+00	-7.748091e+01
1.910000e-06	2.877814e-07	-1.070418e-09	2.039743e+00	-7.551570e+01
1.920000e-06	3.336736e-07	-1.042813e-09	2.365018e+00	-7.349686e+01
1.930000e-06	3.794833e-07	-1.016010e-09	2.689709e+00	-7.142405e+01
1.940000e-06	4.252525e-07	-9.888091e-10	3.014113e+00	-6.929703e+01
1.950000e-06	4.709801e-07	-9.588432e-10	3.338222e+00	-6.711573e+01
1.960000e-06	5.166742e-07	-9.248288e-10	3.662094e+00	-6.488021e+01
1.970000e-06	5.623683e-07	-8.874650e-10	3.985965e+00	-6.259066e+01
1.980000e-06	6.080152e-07	-8.499339e-10	4.309502e+00	-6.024741e+01
1.990000e-06	6.535496e-07	-8.138695e-10	4.632241e+00	-5.785089e+01
2.000000e-06	6.990712e-07	-7.805969e-10	4.954891e+00	-5.540166e+01
2.010000e-06	7.445987e-07	-7.472941e-10	5.277581e+00	-5.290038e+01
2.020000e-06	7.900897e-07	-7.117236e-10	5.600013e+00	-5.034783e+01
2.030000e-06	8.355394e-07	-6.748596e-10	5.922152e+00	-4.774486e+01
2.040000e-06	8.808880e-07	-6.358034e-10	6.243575e+00	-4.509241e+01
2.050000e-06	9.261761e-07	-5.955598e-10	6.564569e+00	-4.239151e+01
2.060000e-06	9.714126e-07	-5.548199e-10	6.885197e+00	-3.964329e+01
2.070000e-06	1.016538e-06	-5.139969e-10	7.205041e+00	-3.684893e+01
2.080000e-06	1.061564e-06	-4.726937e-10	7.524175e+00	-3.400970e+01
2.090000e-06	1.106561e-06	-4.285311e-10	7.843101e+00	-3.112696e+01
2.100000e-06	1.151456e-06	-3.849756e-10	8.161310e+00	-2.820214e+01
2.110000e-06	1.196159e-06	-3.443149e-10	8.478162e+00	-2.523676e+01
2.120000e-06	1.240801e-06	-3.044734e-10	8.794575e+00	-2.223243e+01
2.130000e-06	1.285394e-06	-2.642285e-10	9.110639e+00	-1.919087e+01
2.140000e-06	1.329843e-06	-2.232604e-10	9.425686e+00	-1.611388e+01
2.150000e-06	1.374208e-06	-1.798982e-10	9.740140e+00	-1.300339e+01
2.160000e-06	1.418556e-06	-1.305600e-10	1.005447e+01	-9.861458e+00
2.170000e-06	1.462780e-06	-7.667301e-11	1.036792e+01	-6.690247e+00
2.180000e-06	1.506858e-06	-2.200511e-11	1.068034e+01	-3.492068e+00
2.190000e-06	1.550860e-06	2.850510e-11	1.099222e+01	-2.693672e-01
2.200000e-06	1.594768e-06	7.296994e-11	1.130343e+01	2.975262e+00
2.210000e-06	1.638652e-06	1.164669e-10	1.161447e+01	6.239078e+00
2.220000e-06	1.682471e-06	1.627736e-10	1.192505e+01	9.519191e+00
2.230000e-06	1.726233e-06	2.093493e-10	1.223522e+01	1.281256e+01
2.240000e-06	1.769971e-06	2.591041e-10	1.254523e+01	1.611600e+01
2.250000e-06	1.813645e-06	3.149167e-10	1.285479e+01	1.942619e+01
2.260000e-06	1.857244e-06	3.728468e-10	1.316381e+01	2.273968e+01
2.270000e-06	1.900767e-06	4.257209e-10	1.347229e+01	2.605288e+01
2.280000e-06	1.944233e-06	4.714177e-10	1.378037e+01	2.936212e+01
2.290000e-06	1.987517e-06	5.143784e-10	1.408716e+01	3.266363e+01
2.300000e-06	2.030605e-06	5.596920e-10	1.439256e+01	3.595358e+01
2.310000e-06	2.073667e-06	6.068114e-10	1.469778e+01	3.922809e+01
2.320000e-06	2.116543e-06	6.521996e-10	1.500167e+01	4.248326e+01
2.330000e-06	2.159009e-06	6.978887e-10	1.530267e+01	4.571519e+01
2.340000e-06	2.201168e-06	7.458451e-10	1.560148e+01	4.892001e+01
2.350000e-06	2.243042e-06	7.944873e-10	1.589828e+01	5.209392e+01
2.360000e-06	2.284620e-06	8.416178e-10	1.619297e+01	5.523322e+01
2.370000e-06	2.325900e-06	8.861391e-10	1.648556e+01	5.833429e+01
2.380000e-06	2.366904e-06	9.283547e-10	1.677618e+01	6.139370e+01
2.390000e-06	2.407689e-06	9.707566e-10	1.706526e+01	6.440816e+01
2.400000e-06	2.448226e-06	1.013456e-09	1.735258e+01	6.737460e+01
2.410000e-06	2.488530e-06	1.055287e-09	1.763825e+01	7.029018e+01
2.420000e-06	2.528692e-06	1.095327e-09	1.792292e+01	7.315226e+01
2.430000e-06	2.568749e-06	1.134329e-09	1.820683e+01	7.595851e+01
2.440000e-06	2.608635e-06	1.172697e-09	1.848953e+01	7.870686e+01
2.450000e-06	2.648419e-06	1.210350e-09	1.877151e+01	8.139552e+01
2.460000e-06	2.688124e-06	1.248898e-09	1.905294e+01	8.402299e+01
2.470000e-06	2.727716e-06	1.288488e-09	1.933356e+01	8.658808e+01
2.480000e-06	2.767173e-06	1.327111e-09	1.961322e+01	8.908990e+01
2.490000e-06	2.806491e-06	1.363999e-09	1.989190e+01	9.152784e+01
2.500000e-06	2.845713e-06	1.398059e-09	2.016990e+01	9.390157e+01
2.510000e-06	2.884716e-06	1.428663e-09	2.044635e+01	9.621106e+01
2.520000e-06	2.923378e-06	1.456835e-09	2.072038e+01	9.845650e+01
2.530000e-06	2.961748e-06	1.484800e-09	2.099233e+01	1.006383e+02
2.540000e-06	3.000000e-06	1.514630e-09	2.126346e+01	1.027572e+02
2.550000e-06	3.038157e-06	1.546765e-09	2.153391e+01	1.048141e+02
2.560000e-06	3.076043e-06	1.580606e-09	2.180244e+01	1.068098e+02
2.570000e-06	3.113718e-06	1.610227e-09	2.206947e+01	1.087457e+02
2.580000e-06	3.151228e-06	1.634842e-09	2.233534e+01	1.106229e+02
2.590000e-06	3.188547e-06	1.657697e-09	2.259985e+01	1.124429e+02
2.600000e-06	3.225630e-06	1.680766e-09	2.286269e+01	1.142071e+02
2.610000e-06	3.262424e-06	1.704808e-09	2.312347e+01	1.159170e+02
2.620000e-06	3.298901e-06	1.730163e-09	2.338201e+01	1.175741e+02
2.630000e-06	3.335133e-06	1.756346e-09	2.363882e+01	1.191797e+02
2.640000e-06	3.371196e-06	1.782049e-09	2.389443e+01	1.207355e+02
2.650000e-06	3.407089e-06	1.804582e-09	2.414883e+01	1.222429e+02
2.660000e-06	3.442904e-06	1.825349e-09	2.440268e+01	1.237031e+02
2.670000e-06	3.478633e-06	1.845310e-09	2.465592e+01	1.251175e+02
2.680000e-06	3.514193e-06	1.865088e-09	2.490797e+01	1.264873e+02
2.690000e-06	3.549501e-06	1.884005e-09	2.515822e+01	1.278137e+02
2.700000e-06	3.584556e-06	1.901588e-09	2.540669e+01	1.290978e+02
2.710000e-06	3.619309e-06	1.919651e-09	2.565301e+01	1.303406e+02
2.720000e-06	3.653568e-06	1.937348e-09	2.589583e+01	1.315430e+02
2.730000e-06	3.687313e-06	1.955709e-09	2.613501e+01	1.327060e+02
2.740000e-06	3.720666e-06	1.971766e-09	2.637141e+01	1.338302e+02
2.750000e-06	3.753570e-06	1.986305e-09	2.660463e+01	1.349166e+02
2.760000e-06	3.786048e-06	2.001907e-09	2.683482e+01	1.359659e+02
2.770000e-06	3.818258e-06	2.019815e-09	2.706312e+01	1.369788e+02
2.780000e-06	3.850221e-06	2.037593e-09	2.728967e+01	1.379562e+02
2.790000e-06	3.882008e-06	2.051680e-09	2.751497e+01	1.388987e+02
2.800000e-06	3.913678e-06	2.062211e-09	2.773944e+01	1.398072e+02
2.810000e-06	3.945229e-06	2.071545e-09	2.796307e+01	1.406825e+02
2.820000e-06	3.976640e-06	2.081268e-09	2.818571e+01	1.415254e+02
2.830000e-06	4.007770e-06	2.091813e-09	2.840635e+01	1.423370e+02
2.840000e-06	4.038573e-06	2.104688e-09	2.862468e+01	1.431181e+02
2.850000e-06	4.069032e-06	2.121330e-09	2.884057e+01	1.438698e+02
2.860000e-06	4.099121e-06	2.138452e-09	2.905383e+01	1.445932e+02
2.870000e-06	4.128980e-06	2.152360e-09	2.926546e+01	1.452895e+02
2.880000e-06	4.158689e-06	2.161680e-09	2.947604e+01	1.459599e+02
2.890000e-06	4.188208e-06	2.167158e-09	2.968526e+01	1.466057e+02
2.900000e-06	4.217414e-06	2.169749e-09	2.989227e+01	1.472281e+02
