# Temperatura_=_-2.0
# Concentracion g/m^3_=_4090.0
# C_Vs_to_Am_M_A/Vsm_=_65563218390.804596
# pendiente_HvsI_1/m_=_3716.3
# ordenada_HvsI_A/m_=_1297.0
# frecuencia_Hz_=_135067.4321660235

Tiempo_(s)	Campo_(V.s)	Magnetizacion_(V.s)	Campo_(kA/m)	Magnetizacion_(A/m)
0.000000e+00	-5.413745e-06	-2.328419e-09	-3.839829e+01	-1.505960e+02
1.000000e-08	-5.413949e-06	-2.328640e-09	-3.839974e+01	-1.505005e+02
2.000000e-08	-5.414001e-06	-2.332261e-09	-3.840011e+01	-1.504115e+02
3.000000e-08	-5.413742e-06	-2.336086e-09	-3.839827e+01	-1.503308e+02
4.000000e-08	-5.413031e-06	-2.337241e-09	-3.839323e+01	-1.502601e+02
5.000000e-08	-5.411843e-06	-2.338819e-09	-3.838480e+01	-1.502010e+02
6.000000e-08	-5.410078e-06	-2.336111e-09	-3.837228e+01	-1.501548e+02
7.000000e-08	-5.407641e-06	-2.312977e-09	-3.835499e+01	-1.501228e+02
8.000000e-08	-5.404481e-06	-2.300813e-09	-3.833258e+01	-1.501058e+02
9.000000e-08	-5.400755e-06	-2.372536e-09	-3.830616e+01	-1.501045e+02
1.000000e-07	-5.396706e-06	-2.439709e-09	-3.827744e+01	-1.501193e+02
1.100000e-07	-5.392424e-06	-2.330014e-09	-3.824707e+01	-1.501502e+02
1.200000e-07	-5.388063e-06	-2.239127e-09	-3.821614e+01	-1.501972e+02
1.300000e-07	-5.383590e-06	-2.340282e-09	-3.818441e+01	-1.502597e+02
1.400000e-07	-5.378583e-06	-2.459618e-09	-3.814889e+01	-1.503369e+02
1.500000e-07	-5.373027e-06	-2.329018e-09	-3.810948e+01	-1.504278e+02
1.600000e-07	-5.367265e-06	-2.170795e-09	-3.806862e+01	-1.505312e+02
1.700000e-07	-5.361201e-06	-2.333214e-09	-3.802561e+01	-1.506454e+02
1.800000e-07	-5.354485e-06	-2.488155e-09	-3.797797e+01	-1.507689e+02
1.900000e-07	-5.347279e-06	-2.383716e-09	-3.792687e+01	-1.508998e+02
2.000000e-07	-5.340009e-06	-2.248621e-09	-3.787530e+01	-1.510360e+02
2.100000e-07	-5.332568e-06	-2.363767e-09	-3.782252e+01	-1.511755e+02
2.200000e-07	-5.324722e-06	-2.424167e-09	-3.776687e+01	-1.513162e+02
2.300000e-07	-5.316583e-06	-2.320177e-09	-3.770914e+01	-1.514559e+02
2.400000e-07	-5.308249e-06	-2.310299e-09	-3.765003e+01	-1.515924e+02
2.500000e-07	-5.299354e-06	-2.430890e-09	-3.758695e+01	-1.517238e+02
2.600000e-07	-5.289600e-06	-2.398215e-09	-3.751776e+01	-1.518480e+02
2.700000e-07	-5.279193e-06	-2.296171e-09	-3.744395e+01	-1.519631e+02
2.800000e-07	-5.268319e-06	-2.371557e-09	-3.736682e+01	-1.520676e+02
2.900000e-07	-5.256970e-06	-2.430865e-09	-3.728633e+01	-1.521598e+02
3.000000e-07	-5.245231e-06	-2.303411e-09	-3.720306e+01	-1.522386e+02
3.100000e-07	-5.233228e-06	-2.274727e-09	-3.711793e+01	-1.523028e+02
3.200000e-07	-5.220781e-06	-2.438241e-09	-3.702964e+01	-1.523516e+02
3.300000e-07	-5.207857e-06	-2.436356e-09	-3.693798e+01	-1.523844e+02
3.400000e-07	-5.194609e-06	-2.303389e-09	-3.684401e+01	-1.524009e+02
3.500000e-07	-5.180965e-06	-2.322582e-09	-3.674725e+01	-1.524010e+02
3.600000e-07	-5.166971e-06	-2.400774e-09	-3.664799e+01	-1.523848e+02
3.700000e-07	-5.152712e-06	-2.334188e-09	-3.654685e+01	-1.523527e+02
3.800000e-07	-5.137999e-06	-2.300710e-09	-3.644250e+01	-1.523051e+02
3.900000e-07	-5.122585e-06	-2.344833e-09	-3.633317e+01	-1.522430e+02
4.000000e-07	-5.106462e-06	-2.337135e-09	-3.621881e+01	-1.521671e+02
4.100000e-07	-5.089959e-06	-2.323218e-09	-3.610176e+01	-1.520786e+02
4.200000e-07	-5.073140e-06	-2.375439e-09	-3.598247e+01	-1.519786e+02
4.300000e-07	-5.055910e-06	-2.344892e-09	-3.586026e+01	-1.518682e+02
4.400000e-07	-5.038420e-06	-2.282108e-09	-3.573621e+01	-1.517489e+02
4.500000e-07	-5.020701e-06	-2.313779e-09	-3.561053e+01	-1.516219e+02
4.600000e-07	-5.002645e-06	-2.356121e-09	-3.548246e+01	-1.514885e+02
4.700000e-07	-4.984210e-06	-2.302376e-09	-3.535171e+01	-1.513499e+02
4.800000e-07	-4.965421e-06	-2.281285e-09	-3.521845e+01	-1.512074e+02
4.900000e-07	-4.946179e-06	-2.318212e-09	-3.508196e+01	-1.510621e+02
5.000000e-07	-4.926596e-06	-2.333371e-09	-3.494307e+01	-1.509150e+02
5.100000e-07	-4.906841e-06	-2.315084e-09	-3.480295e+01	-1.507670e+02
5.200000e-07	-4.886884e-06	-2.297830e-09	-3.466140e+01	-1.506189e+02
5.300000e-07	-4.866669e-06	-2.286230e-09	-3.451802e+01	-1.504714e+02
5.400000e-07	-4.846215e-06	-2.307429e-09	-3.437295e+01	-1.503248e+02
5.500000e-07	-4.825386e-06	-2.319357e-09	-3.422521e+01	-1.501796e+02
5.600000e-07	-4.804084e-06	-2.287725e-09	-3.407412e+01	-1.500360e+02
5.700000e-07	-4.782469e-06	-2.269800e-09	-3.392081e+01	-1.498940e+02
5.800000e-07	-4.760586e-06	-2.291934e-09	-3.376560e+01	-1.497536e+02
5.900000e-07	-4.738465e-06	-2.297829e-09	-3.360870e+01	-1.496146e+02
6.000000e-07	-4.715948e-06	-2.276188e-09	-3.344900e+01	-1.494767e+02
6.100000e-07	-4.692890e-06	-2.262394e-09	-3.328545e+01	-1.493396e+02
6.200000e-07	-4.669515e-06	-2.261779e-09	-3.311966e+01	-1.492028e+02
6.300000e-07	-4.645948e-06	-2.279719e-09	-3.295250e+01	-1.490657e+02
6.400000e-07	-4.622165e-06	-2.282875e-09	-3.278382e+01	-1.489280e+02
6.500000e-07	-4.598184e-06	-2.254589e-09	-3.261373e+01	-1.487891e+02
6.600000e-07	-4.573987e-06	-2.236967e-09	-3.244211e+01	-1.486483e+02
6.700000e-07	-4.549475e-06	-2.258420e-09	-3.226825e+01	-1.485053e+02
6.800000e-07	-4.524566e-06	-2.261783e-09	-3.209157e+01	-1.483594e+02
6.900000e-07	-4.499205e-06	-2.241498e-09	-3.191169e+01	-1.482104e+02
7.000000e-07	-4.473309e-06	-2.234482e-09	-3.172802e+01	-1.480577e+02
7.100000e-07	-4.446822e-06	-2.251443e-09	-3.154015e+01	-1.479011e+02
7.200000e-07	-4.419810e-06	-2.256521e-09	-3.134856e+01	-1.477404e+02
7.300000e-07	-4.392418e-06	-2.245326e-09	-3.115428e+01	-1.475754e+02
7.400000e-07	-4.364774e-06	-2.225385e-09	-3.095821e+01	-1.474059e+02
7.500000e-07	-4.336978e-06	-2.224754e-09	-3.076106e+01	-1.472321e+02
7.600000e-07	-4.309054e-06	-2.231887e-09	-3.056300e+01	-1.470539e+02
7.700000e-07	-4.280929e-06	-2.225658e-09	-3.036352e+01	-1.468715e+02
7.800000e-07	-4.252580e-06	-2.210292e-09	-3.016245e+01	-1.466852e+02
7.900000e-07	-4.223941e-06	-2.213111e-09	-2.995932e+01	-1.464951e+02
8.000000e-07	-4.194810e-06	-2.221687e-09	-2.975270e+01	-1.463015e+02
8.100000e-07	-4.165347e-06	-2.220543e-09	-2.954372e+01	-1.461048e+02
8.200000e-07	-4.135716e-06	-2.208188e-09	-2.933356e+01	-1.459054e+02
8.300000e-07	-4.105769e-06	-2.199974e-09	-2.912116e+01	-1.457035e+02
8.400000e-07	-4.075499e-06	-2.201809e-09	-2.890646e+01	-1.454995e+02
8.500000e-07	-4.044954e-06	-2.204430e-09	-2.868981e+01	-1.452937e+02
8.600000e-07	-4.014112e-06	-2.192826e-09	-2.847106e+01	-1.450864e+02
8.700000e-07	-3.983136e-06	-2.178261e-09	-2.825135e+01	-1.448779e+02
8.800000e-07	-3.952007e-06	-2.178439e-09	-2.803056e+01	-1.446684e+02
8.900000e-07	-3.920565e-06	-2.185140e-09	-2.780755e+01	-1.444581e+02
9.000000e-07	-3.888875e-06	-2.182863e-09	-2.758279e+01	-1.442470e+02
9.100000e-07	-3.857017e-06	-2.171449e-09	-2.735682e+01	-1.440352e+02
9.200000e-07	-3.825020e-06	-2.167487e-09	-2.712987e+01	-1.438227e+02
9.300000e-07	-3.792759e-06	-2.167263e-09	-2.690105e+01	-1.436094e+02
9.400000e-07	-3.760097e-06	-2.160150e-09	-2.666940e+01	-1.433952e+02
9.500000e-07	-3.727084e-06	-2.147441e-09	-2.643524e+01	-1.431799e+02
9.600000e-07	-3.693829e-06	-2.145405e-09	-2.619937e+01	-1.429634e+02
9.700000e-07	-3.660240e-06	-2.151334e-09	-2.596113e+01	-1.427453e+02
9.800000e-07	-3.626107e-06	-2.153403e-09	-2.571904e+01	-1.425253e+02
9.900000e-07	-3.591517e-06	-2.141689e-09	-2.547370e+01	-1.423033e+02
1.000000e-06	-3.556635e-06	-2.130877e-09	-2.522629e+01	-1.420788e+02
1.010000e-06	-3.521514e-06	-2.127292e-09	-2.497718e+01	-1.418516e+02
1.020000e-06	-3.486103e-06	-2.123816e-09	-2.472602e+01	-1.416213e+02
1.030000e-06	-3.450394e-06	-2.112883e-09	-2.447275e+01	-1.413876e+02
1.040000e-06	-3.414573e-06	-2.106631e-09	-2.421868e+01	-1.411504e+02
1.050000e-06	-3.378702e-06	-2.107604e-09	-2.396426e+01	-1.409093e+02
1.060000e-06	-3.342665e-06	-2.109070e-09	-2.370865e+01	-1.406642e+02
1.070000e-06	-3.306372e-06	-2.100824e-09	-2.345124e+01	-1.404149e+02
1.080000e-06	-3.269907e-06	-2.090570e-09	-2.319260e+01	-1.401613e+02
1.090000e-06	-3.233264e-06	-2.086364e-09	-2.293270e+01	-1.399033e+02
1.100000e-06	-3.196292e-06	-2.088011e-09	-2.267047e+01	-1.396410e+02
1.110000e-06	-3.158985e-06	-2.086250e-09	-2.240586e+01	-1.393742e+02
1.120000e-06	-3.121443e-06	-2.078805e-09	-2.213959e+01	-1.391031e+02
1.130000e-06	-3.083754e-06	-2.070283e-09	-2.187226e+01	-1.388278e+02
1.140000e-06	-3.045904e-06	-2.063226e-09	-2.160381e+01	-1.385483e+02
1.150000e-06	-3.007864e-06	-2.053755e-09	-2.133400e+01	-1.382648e+02
1.160000e-06	-2.969675e-06	-2.042072e-09	-2.106314e+01	-1.379773e+02
1.170000e-06	-2.931232e-06	-2.034652e-09	-2.079047e+01	-1.376861e+02
1.180000e-06	-2.892506e-06	-2.035237e-09	-2.051580e+01	-1.373913e+02
1.190000e-06	-2.853551e-06	-2.038013e-09	-2.023950e+01	-1.370928e+02
1.200000e-06	-2.814368e-06	-2.032994e-09	-1.996158e+01	-1.367909e+02
1.210000e-06	-2.775029e-06	-2.023575e-09	-1.968256e+01	-1.364856e+02
1.220000e-06	-2.735564e-06	-2.015703e-09	-1.940265e+01	-1.361768e+02
1.230000e-06	-2.695955e-06	-2.008384e-09	-1.912171e+01	-1.358644e+02
1.240000e-06	-2.656208e-06	-1.998226e-09	-1.883979e+01	-1.355485e+02
1.250000e-06	-2.616391e-06	-1.991188e-09	-1.855738e+01	-1.352287e+02
1.260000e-06	-2.576466e-06	-1.989361e-09	-1.827420e+01	-1.349050e+02
1.270000e-06	-2.536398e-06	-1.990545e-09	-1.799001e+01	-1.345770e+02
1.280000e-06	-2.496275e-06	-1.988519e-09	-1.770543e+01	-1.342443e+02
1.290000e-06	-2.456058e-06	-1.981905e-09	-1.742018e+01	-1.339067e+02
1.300000e-06	-2.415640e-06	-1.972440e-09	-1.713351e+01	-1.335635e+02
1.310000e-06	-2.374995e-06	-1.963917e-09	-1.684522e+01	-1.332145e+02
1.320000e-06	-2.334083e-06	-1.955526e-09	-1.655505e+01	-1.328590e+02
1.330000e-06	-2.292905e-06	-1.947293e-09	-1.626298e+01	-1.324965e+02
1.340000e-06	-2.251463e-06	-1.941973e-09	-1.596904e+01	-1.321264e+02
1.350000e-06	-2.209653e-06	-1.940391e-09	-1.567249e+01	-1.317482e+02
1.360000e-06	-2.167514e-06	-1.936394e-09	-1.537361e+01	-1.313613e+02
1.370000e-06	-2.125214e-06	-1.928992e-09	-1.507359e+01	-1.309652e+02
1.380000e-06	-2.082694e-06	-1.918718e-09	-1.477201e+01	-1.305593e+02
1.390000e-06	-2.039931e-06	-1.908651e-09	-1.446870e+01	-1.301430e+02
1.400000e-06	-1.996957e-06	-1.899256e-09	-1.416389e+01	-1.297160e+02
1.410000e-06	-1.953705e-06	-1.893424e-09	-1.385712e+01	-1.292778e+02
1.420000e-06	-1.910245e-06	-1.892441e-09	-1.354887e+01	-1.288280e+02
1.430000e-06	-1.866668e-06	-1.889589e-09	-1.323979e+01	-1.283662e+02
1.440000e-06	-1.823015e-06	-1.881672e-09	-1.293017e+01	-1.278922e+02
1.450000e-06	-1.779310e-06	-1.873269e-09	-1.262018e+01	-1.274057e+02
1.460000e-06	-1.735555e-06	-1.866775e-09	-1.230984e+01	-1.269066e+02
1.470000e-06	-1.691722e-06	-1.857044e-09	-1.199894e+01	-1.263946e+02
1.480000e-06	-1.647793e-06	-1.843949e-09	-1.168737e+01	-1.258697e+02
1.490000e-06	-1.603766e-06	-1.834540e-09	-1.137510e+01	-1.253317e+02
1.500000e-06	-1.559662e-06	-1.830130e-09	-1.106228e+01	-1.247807e+02
1.510000e-06	-1.515594e-06	-1.824727e-09	-1.074971e+01	-1.242165e+02
1.520000e-06	-1.471548e-06	-1.815193e-09	-1.043731e+01	-1.236391e+02
1.530000e-06	-1.427393e-06	-1.805085e-09	-1.012413e+01	-1.230484e+02
1.540000e-06	-1.383084e-06	-1.797676e-09	-9.809857e+00	-1.224443e+02
1.550000e-06	-1.338632e-06	-1.790082e-09	-9.494573e+00	-1.218268e+02
1.560000e-06	-1.294100e-06	-1.779411e-09	-9.178716e+00	-1.211956e+02
1.570000e-06	-1.249514e-06	-1.769492e-09	-8.862476e+00	-1.205504e+02
1.580000e-06	-1.204799e-06	-1.764019e-09	-8.545330e+00	-1.198911e+02
1.590000e-06	-1.159977e-06	-1.757006e-09	-8.227416e+00	-1.192172e+02
1.600000e-06	-1.115088e-06	-1.744738e-09	-7.909031e+00	-1.185282e+02
1.610000e-06	-1.070138e-06	-1.730055e-09	-7.590211e+00	-1.178237e+02
1.620000e-06	-1.025044e-06	-1.718457e-09	-7.270374e+00	-1.171029e+02
1.630000e-06	-9.798122e-07	-1.709396e-09	-6.949554e+00	-1.163651e+02
1.640000e-06	-9.345831e-07	-1.697545e-09	-6.628755e+00	-1.156095e+02
1.650000e-06	-8.893205e-07	-1.683388e-09	-6.307720e+00	-1.148352e+02
1.660000e-06	-8.439836e-07	-1.672259e-09	-5.986157e+00	-1.140411e+02
1.670000e-06	-7.985722e-07	-1.662268e-09	-5.664066e+00	-1.132262e+02
1.680000e-06	-7.530745e-07	-1.648146e-09	-5.341362e+00	-1.123893e+02
1.690000e-06	-7.075779e-07	-1.627588e-09	-5.018667e+00	-1.115291e+02
1.700000e-06	-6.620929e-07	-1.609007e-09	-4.696053e+00	-1.106443e+02
1.710000e-06	-6.165538e-07	-1.597204e-09	-4.373056e+00	-1.097336e+02
1.720000e-06	-5.709298e-07	-1.587707e-09	-4.049457e+00	-1.087955e+02
1.730000e-06	-5.252559e-07	-1.573243e-09	-3.725504e+00	-1.078287e+02
1.740000e-06	-4.795743e-07	-1.556270e-09	-3.401497e+00	-1.068317e+02
1.750000e-06	-4.338456e-07	-1.543984e-09	-3.077154e+00	-1.058031e+02
1.760000e-06	-3.881261e-07	-1.531732e-09	-2.752878e+00	-1.047413e+02
1.770000e-06	-3.424126e-07	-1.510984e-09	-2.428644e+00	-1.036450e+02
1.780000e-06	-2.965331e-07	-1.483897e-09	-2.103232e+00	-1.025127e+02
1.790000e-06	-2.505848e-07	-1.462475e-09	-1.777333e+00	-1.013430e+02
1.800000e-06	-2.046548e-07	-1.448198e-09	-1.451564e+00	-1.001345e+02
1.810000e-06	-1.587108e-07	-1.433849e-09	-1.125695e+00	-9.888580e+01
1.820000e-06	-1.128348e-07	-1.415883e-09	-8.003082e-01	-9.759556e+01
1.830000e-06	-6.697337e-08	-1.396737e-09	-4.750247e-01	-9.626245e+01
1.840000e-06	-2.106738e-08	-1.377229e-09	-1.494255e-01	-9.488515e+01
1.850000e-06	2.485886e-08	-1.354113e-09	1.763174e-01	-9.346234e+01
1.860000e-06	7.071410e-08	-1.326466e-09	5.015568e-01	-9.199271e+01
1.870000e-06	1.165976e-07	-1.300667e-09	8.269969e-01	-9.047495e+01
1.880000e-06	1.626130e-07	-1.281407e-09	1.153372e+00	-8.890773e+01
1.890000e-06	2.085658e-07	-1.264737e-09	1.479303e+00	-8.728971e+01
1.900000e-06	2.544384e-07	-1.241200e-09	1.804666e+00	-8.561953e+01
1.910000e-06	3.003403e-07	-1.211263e-09	2.130236e+00	-8.389577e+01
1.920000e-06	3.462500e-07	-1.181109e-09	2.455862e+00	-8.211700e+01
1.930000e-06	3.921216e-07	-1.151695e-09	2.781217e+00	-8.028175e+01
1.940000e-06	4.378858e-07	-1.119652e-09	3.105811e+00	-7.838849e+01
1.950000e-06	4.835832e-07	-1.086612e-09	3.429930e+00	-7.643566e+01
1.960000e-06	5.292048e-07	-1.058399e-09	3.753512e+00	-7.442168e+01
1.970000e-06	5.747790e-07	-1.032907e-09	4.076758e+00	-7.234492e+01
1.980000e-06	6.204109e-07	-1.002690e-09	4.400414e+00	-7.020377e+01
1.990000e-06	6.660106e-07	-9.674086e-10	4.723840e+00	-6.799658e+01
2.000000e-06	7.115132e-07	-9.330553e-10	5.046579e+00	-6.572176e+01
2.010000e-06	7.569846e-07	-9.018431e-10	5.369096e+00	-6.337774e+01
2.020000e-06	8.024231e-07	-8.689859e-10	5.691379e+00	-6.096302e+01
2.030000e-06	8.477665e-07	-8.312310e-10	6.012988e+00	-5.847622e+01
2.040000e-06	8.930710e-07	-7.929890e-10	6.334321e+00	-5.591607e+01
2.050000e-06	9.382845e-07	-7.561856e-10	6.655009e+00	-5.328147e+01
2.060000e-06	9.833375e-07	-7.184331e-10	6.974558e+00	-5.057152e+01
2.070000e-06	1.028449e-06	-6.777668e-10	7.294519e+00	-4.778558e+01
2.080000e-06	1.073597e-06	-6.369429e-10	7.614748e+00	-4.492326e+01
2.090000e-06	1.118593e-06	-5.981768e-10	7.933893e+00	-4.198450e+01
2.100000e-06	1.163459e-06	-5.573658e-10	8.252116e+00	-3.896958e+01
2.110000e-06	1.208194e-06	-5.119371e-10	8.569410e+00	-3.587918e+01
2.120000e-06	1.252762e-06	-4.642228e-10	8.885513e+00	-3.271438e+01
2.130000e-06	1.297181e-06	-4.171857e-10	9.200565e+00	-2.947673e+01
2.140000e-06	1.341523e-06	-3.683362e-10	9.515072e+00	-2.616822e+01
2.150000e-06	1.385842e-06	-3.153025e-10	9.829418e+00	-2.279135e+01
2.160000e-06	1.430135e-06	-2.603955e-10	1.014358e+01	-1.934912e+01
2.170000e-06	1.474332e-06	-2.063570e-10	1.045706e+01	-1.584502e+01
2.180000e-06	1.518450e-06	-1.555793e-10	1.076997e+01	-1.228307e+01
2.190000e-06	1.562539e-06	-1.064780e-10	1.108269e+01	-8.667783e+00
2.200000e-06	1.606570e-06	-5.546897e-11	1.139498e+01	-5.004154e+00
2.210000e-06	1.650537e-06	-1.169789e-12	1.170683e+01	-1.297650e+00
2.220000e-06	1.694408e-06	5.621507e-11	1.201800e+01	2.445828e+00
2.230000e-06	1.738217e-06	1.161220e-10	1.232872e+01	6.219979e+00
2.240000e-06	1.782004e-06	1.764932e-10	1.263930e+01	1.001815e+01
2.250000e-06	1.825693e-06	2.356933e-10	1.294917e+01	1.383336e+01
2.260000e-06	1.869245e-06	2.926728e-10	1.325807e+01	1.765841e+01
2.270000e-06	1.912733e-06	3.483720e-10	1.356652e+01	2.148588e+01
2.280000e-06	1.956148e-06	4.036668e-10	1.387445e+01	2.530823e+01
2.290000e-06	1.999366e-06	4.591788e-10	1.418099e+01	2.911786e+01
2.300000e-06	2.042376e-06	5.152098e-10	1.448604e+01	3.290718e+01
2.310000e-06	2.085200e-06	5.719743e-10	1.478978e+01	3.666866e+01
2.320000e-06	2.127717e-06	6.300422e-10	1.509134e+01	4.039494e+01
2.330000e-06	2.169902e-06	6.871269e-10	1.539055e+01	4.407887e+01
2.340000e-06	2.211825e-06	7.398555e-10	1.568790e+01	4.771358e+01
2.350000e-06	2.253408e-06	7.906173e-10	1.598284e+01	5.129253e+01
2.360000e-06	2.294635e-06	8.435412e-10	1.627525e+01	5.480962e+01
2.370000e-06	2.335631e-06	8.956878e-10	1.656603e+01	5.825918e+01
2.380000e-06	2.376405e-06	9.444121e-10	1.685522e+01	6.163605e+01
2.390000e-06	2.416899e-06	9.916349e-10	1.714244e+01	6.493560e+01
2.400000e-06	2.457214e-06	1.040056e-09	1.742838e+01	6.815380e+01
2.410000e-06	2.497391e-06	1.088635e-09	1.771335e+01	7.128720e+01
2.420000e-06	2.537456e-06	1.132664e-09	1.799752e+01	7.433295e+01
2.430000e-06	2.577465e-06	1.172910e-09	1.828129e+01	7.728886e+01
2.440000e-06	2.617383e-06	1.213805e-09	1.856442e+01	8.015331e+01
2.450000e-06	2.657212e-06	1.255526e-09	1.884691e+01	8.292532e+01
2.460000e-06	2.696954e-06	1.293493e-09	1.912879e+01	8.560447e+01
2.470000e-06	2.736556e-06	1.327263e-09	1.940968e+01	8.819091e+01
2.480000e-06	2.776013e-06	1.361307e-09	1.968954e+01	9.068533e+01
2.490000e-06	2.815278e-06	1.397538e-09	1.996804e+01	9.308887e+01
2.500000e-06	2.854246e-06	1.432012e-09	2.024443e+01	9.540315e+01
2.510000e-06	2.892917e-06	1.463061e-09	2.051871e+01	9.763015e+01
2.520000e-06	2.931449e-06	1.494561e-09	2.079201e+01	9.977219e+01
2.530000e-06	2.969815e-06	1.527373e-09	2.106413e+01	1.018319e+02
2.540000e-06	3.007963e-06	1.557395e-09	2.133470e+01	1.038121e+02
2.550000e-06	3.045974e-06	1.583395e-09	2.160431e+01	1.057158e+02
2.560000e-06	3.083794e-06	1.609221e-09	2.187255e+01	1.075460e+02
2.570000e-06	3.121400e-06	1.635189e-09	2.213928e+01	1.093060e+02
2.580000e-06	3.158800e-06	1.659732e-09	2.240455e+01	1.109989e+02
2.590000e-06	3.195975e-06	1.681870e-09	2.266822e+01	1.126279e+02
2.600000e-06	3.232927e-06	1.702713e-09	2.293031e+01	1.141959e+02
2.610000e-06	3.269601e-06	1.725910e-09	2.319044e+01	1.157059e+02
2.620000e-06	3.306030e-06	1.751143e-09	2.344881e+01	1.171607e+02
2.630000e-06	3.342308e-06	1.773315e-09	2.370612e+01	1.185627e+02
2.640000e-06	3.378402e-06	1.790886e-09	2.396213e+01	1.199145e+02
2.650000e-06	3.414341e-06	1.805878e-09	2.421703e+01	1.212181e+02
2.660000e-06	3.450170e-06	1.820028e-09	2.447116e+01	1.224755e+02
2.670000e-06	3.485868e-06	1.834681e-09	2.472436e+01	1.236884e+02
2.680000e-06	3.521432e-06	1.850556e-09	2.497661e+01	1.248583e+02
2.690000e-06	3.556756e-06	1.867589e-09	2.522715e+01	1.259866e+02
2.700000e-06	3.591690e-06	1.884482e-09	2.547492e+01	1.270743e+02
2.710000e-06	3.626103e-06	1.900327e-09	2.571901e+01	1.281225e+02
2.720000e-06	3.659955e-06	1.914919e-09	2.595911e+01	1.291319e+02
2.730000e-06	3.693442e-06	1.927382e-09	2.619662e+01	1.301032e+02
2.740000e-06	3.726647e-06	1.937336e-09	2.643214e+01	1.310370e+02
2.750000e-06	3.759451e-06	1.946114e-09	2.666481e+01	1.319340e+02
2.760000e-06	3.791850e-06	1.956893e-09	2.689461e+01	1.327945e+02
2.770000e-06	3.824018e-06	1.969292e-09	2.712277e+01	1.336192e+02
2.780000e-06	3.856043e-06	1.980409e-09	2.734992e+01	1.344086e+02
2.790000e-06	3.887923e-06	1.990814e-09	2.757603e+01	1.351632e+02
2.800000e-06	3.919627e-06	2.001588e-09	2.780090e+01	1.358837e+02
2.810000e-06	3.951116e-06	2.012225e-09	2.802424e+01	1.365710e+02
2.820000e-06	3.982379e-06	2.021731e-09	2.824598e+01	1.372257e+02
2.830000e-06	4.013302e-06	2.028956e-09	2.846531e+01	1.378489e+02
2.840000e-06	4.043885e-06	2.036519e-09	2.868223e+01	1.384417e+02
2.850000e-06	4.074182e-06	2.045975e-09	2.889712e+01	1.390051e+02
2.860000e-06	4.104191e-06	2.054992e-09	2.910996e+01	1.395406e+02
2.870000e-06	4.133989e-06	2.062644e-09	2.932131e+01	1.400495e+02
2.880000e-06	4.163550e-06	2.069156e-09	2.953098e+01	1.405332e+02
2.890000e-06	4.192893e-06	2.075622e-09	2.973911e+01	1.409934e+02
2.900000e-06	4.221973e-06	2.081804e-09	2.994536e+01	1.414316e+02
