# Temperatura_=_6.27
# Concentracion g/m^3_=_4090.0
# C_Vs_to_Am_M_A/Vsm_=_65563218390.804596
# pendiente_HvsI_1/m_=_3716.3
# ordenada_HvsI_A/m_=_1297.0
# frecuencia_Hz_=_135068.77419245543

Tiempo_(s)	Campo_(V.s)	Magnetizacion_(V.s)	Campo_(kA/m)	Magnetizacion_(A/m)
0.000000e+00	-5.391272e-06	-2.514683e-09	-3.839819e+01	-1.634626e+02
1.000000e-08	-5.391453e-06	-2.512994e-09	-3.839948e+01	-1.633789e+02
2.000000e-08	-5.391460e-06	-2.514138e-09	-3.839953e+01	-1.632978e+02
3.000000e-08	-5.391244e-06	-2.513303e-09	-3.839799e+01	-1.632218e+02
4.000000e-08	-5.390680e-06	-2.508927e-09	-3.839397e+01	-1.631527e+02
5.000000e-08	-5.389643e-06	-2.507028e-09	-3.838659e+01	-1.630927e+02
6.000000e-08	-5.388088e-06	-2.509287e-09	-3.837551e+01	-1.630438e+02
7.000000e-08	-5.386048e-06	-2.515803e-09	-3.836098e+01	-1.630077e+02
8.000000e-08	-5.383377e-06	-2.522984e-09	-3.834196e+01	-1.629861e+02
9.000000e-08	-5.379977e-06	-2.495715e-09	-3.831774e+01	-1.629804e+02
1.000000e-07	-5.376049e-06	-2.476688e-09	-3.828976e+01	-1.629917e+02
1.100000e-07	-5.371845e-06	-2.532701e-09	-3.825982e+01	-1.630209e+02
1.200000e-07	-5.367521e-06	-2.555095e-09	-3.822902e+01	-1.630686e+02
1.300000e-07	-5.362993e-06	-2.467803e-09	-3.819678e+01	-1.631349e+02
1.400000e-07	-5.357968e-06	-2.462714e-09	-3.816099e+01	-1.632198e+02
1.500000e-07	-5.352446e-06	-2.515675e-09	-3.812166e+01	-1.633229e+02
1.600000e-07	-5.346669e-06	-2.568590e-09	-3.808051e+01	-1.634433e+02
1.700000e-07	-5.340603e-06	-2.448883e-09	-3.803730e+01	-1.635799e+02
1.800000e-07	-5.334036e-06	-2.457676e-09	-3.799053e+01	-1.637314e+02
1.900000e-07	-5.326957e-06	-2.563719e-09	-3.794011e+01	-1.638960e+02
2.000000e-07	-5.319783e-06	-2.565099e-09	-3.788902e+01	-1.640717e+02
2.100000e-07	-5.312481e-06	-2.473395e-09	-3.783701e+01	-1.642562e+02
2.200000e-07	-5.304786e-06	-2.496055e-09	-3.778220e+01	-1.644471e+02
2.300000e-07	-5.296839e-06	-2.622626e-09	-3.772561e+01	-1.646419e+02
2.400000e-07	-5.288626e-06	-2.579826e-09	-3.766711e+01	-1.648377e+02
2.500000e-07	-5.279869e-06	-2.526115e-09	-3.760474e+01	-1.650318e+02
2.600000e-07	-5.270449e-06	-2.577284e-09	-3.753765e+01	-1.652214e+02
2.700000e-07	-5.260475e-06	-2.653828e-09	-3.746661e+01	-1.654036e+02
2.800000e-07	-5.249987e-06	-2.562371e-09	-3.739191e+01	-1.655757e+02
2.900000e-07	-5.239008e-06	-2.543764e-09	-3.731372e+01	-1.657351e+02
3.000000e-07	-5.227550e-06	-2.617432e-09	-3.723211e+01	-1.658792e+02
3.100000e-07	-5.215690e-06	-2.621281e-09	-3.714764e+01	-1.660059e+02
3.200000e-07	-5.203400e-06	-2.527791e-09	-3.706010e+01	-1.661130e+02
3.300000e-07	-5.190686e-06	-2.574110e-09	-3.696956e+01	-1.661988e+02
3.400000e-07	-5.177651e-06	-2.607296e-09	-3.687671e+01	-1.662618e+02
3.500000e-07	-5.164270e-06	-2.547971e-09	-3.678141e+01	-1.663007e+02
3.600000e-07	-5.150483e-06	-2.530136e-09	-3.668322e+01	-1.663148e+02
3.700000e-07	-5.136368e-06	-2.603457e-09	-3.658268e+01	-1.663035e+02
3.800000e-07	-5.121800e-06	-2.565869e-09	-3.647893e+01	-1.662666e+02
3.900000e-07	-5.106565e-06	-2.522452e-09	-3.637042e+01	-1.662041e+02
4.000000e-07	-5.090789e-06	-2.568580e-09	-3.625806e+01	-1.661167e+02
4.100000e-07	-5.074557e-06	-2.574788e-09	-3.614245e+01	-1.660050e+02
4.200000e-07	-5.057929e-06	-2.501575e-09	-3.602402e+01	-1.658700e+02
4.300000e-07	-5.040948e-06	-2.516302e-09	-3.590308e+01	-1.657131e+02
4.400000e-07	-5.023562e-06	-2.563340e-09	-3.577925e+01	-1.655357e+02
4.500000e-07	-5.005973e-06	-2.528960e-09	-3.565397e+01	-1.653396e+02
4.600000e-07	-4.988160e-06	-2.517412e-09	-3.552711e+01	-1.651266e+02
4.700000e-07	-4.969985e-06	-2.544682e-09	-3.539766e+01	-1.648986e+02
4.800000e-07	-4.951396e-06	-2.542024e-09	-3.526527e+01	-1.646578e+02
4.900000e-07	-4.932310e-06	-2.515825e-09	-3.512933e+01	-1.644060e+02
5.000000e-07	-4.912844e-06	-2.525147e-09	-3.499068e+01	-1.641456e+02
5.100000e-07	-4.893114e-06	-2.505720e-09	-3.485017e+01	-1.638783e+02
5.200000e-07	-4.873211e-06	-2.505260e-09	-3.470841e+01	-1.636062e+02
5.300000e-07	-4.853107e-06	-2.515884e-09	-3.456522e+01	-1.633312e+02
5.400000e-07	-4.832728e-06	-2.513693e-09	-3.442008e+01	-1.630548e+02
5.500000e-07	-4.812040e-06	-2.492328e-09	-3.427273e+01	-1.627786e+02
5.600000e-07	-4.790998e-06	-2.512906e-09	-3.412286e+01	-1.625040e+02
5.700000e-07	-4.769622e-06	-2.502809e-09	-3.397062e+01	-1.622320e+02
5.800000e-07	-4.747929e-06	-2.485135e-09	-3.381611e+01	-1.619635e+02
5.900000e-07	-4.725884e-06	-2.478640e-09	-3.365910e+01	-1.616993e+02
6.000000e-07	-4.703552e-06	-2.482005e-09	-3.350005e+01	-1.614398e+02
6.100000e-07	-4.680925e-06	-2.470596e-09	-3.333889e+01	-1.611852e+02
6.200000e-07	-4.657892e-06	-2.480883e-09	-3.317484e+01	-1.609355e+02
6.300000e-07	-4.634466e-06	-2.468646e-09	-3.300800e+01	-1.606907e+02
6.400000e-07	-4.610821e-06	-2.456193e-09	-3.283959e+01	-1.604502e+02
6.500000e-07	-4.586999e-06	-2.461941e-09	-3.266993e+01	-1.602137e+02
6.600000e-07	-4.562951e-06	-2.462983e-09	-3.249865e+01	-1.599805e+02
6.700000e-07	-4.538710e-06	-2.438645e-09	-3.232599e+01	-1.597497e+02
6.800000e-07	-4.514202e-06	-2.438035e-09	-3.215145e+01	-1.595205e+02
6.900000e-07	-4.489260e-06	-2.445134e-09	-3.197380e+01	-1.592920e+02
7.000000e-07	-4.463839e-06	-2.438276e-09	-3.179274e+01	-1.590631e+02
7.100000e-07	-4.437897e-06	-2.428458e-09	-3.160797e+01	-1.588330e+02
7.200000e-07	-4.411428e-06	-2.422648e-09	-3.141946e+01	-1.586005e+02
7.300000e-07	-4.384548e-06	-2.415613e-09	-3.122801e+01	-1.583648e+02
7.400000e-07	-4.357287e-06	-2.410822e-09	-3.103385e+01	-1.581249e+02
7.500000e-07	-4.329641e-06	-2.405998e-09	-3.083694e+01	-1.578801e+02
7.600000e-07	-4.301751e-06	-2.396445e-09	-3.063830e+01	-1.576296e+02
7.700000e-07	-4.273785e-06	-2.398984e-09	-3.043912e+01	-1.573727e+02
7.800000e-07	-4.245641e-06	-2.395395e-09	-3.023868e+01	-1.571089e+02
7.900000e-07	-4.217125e-06	-2.384800e-09	-3.003558e+01	-1.568379e+02
8.000000e-07	-4.188292e-06	-2.371131e-09	-2.983021e+01	-1.565593e+02
8.100000e-07	-4.159182e-06	-2.368521e-09	-2.962289e+01	-1.562730e+02
8.200000e-07	-4.129726e-06	-2.361150e-09	-2.941310e+01	-1.559789e+02
8.300000e-07	-4.100012e-06	-2.360052e-09	-2.920147e+01	-1.556770e+02
8.400000e-07	-4.070097e-06	-2.353652e-09	-2.898840e+01	-1.553676e+02
8.500000e-07	-4.039944e-06	-2.352828e-09	-2.877364e+01	-1.550507e+02
8.600000e-07	-4.009456e-06	-2.347788e-09	-2.855650e+01	-1.547267e+02
8.700000e-07	-3.978644e-06	-2.340330e-09	-2.833705e+01	-1.543961e+02
8.800000e-07	-3.947580e-06	-2.324301e-09	-2.811580e+01	-1.540591e+02
8.900000e-07	-3.916263e-06	-2.316503e-09	-2.789275e+01	-1.537162e+02
9.000000e-07	-3.884731e-06	-2.313256e-09	-2.766817e+01	-1.533679e+02
9.100000e-07	-3.853057e-06	-2.313835e-09	-2.744258e+01	-1.530145e+02
9.200000e-07	-3.821173e-06	-2.306272e-09	-2.721549e+01	-1.526566e+02
9.300000e-07	-3.789060e-06	-2.299780e-09	-2.698678e+01	-1.522944e+02
9.400000e-07	-3.756774e-06	-2.291698e-09	-2.675682e+01	-1.519284e+02
9.500000e-07	-3.724268e-06	-2.286172e-09	-2.652530e+01	-1.515588e+02
9.600000e-07	-3.691475e-06	-2.277247e-09	-2.629174e+01	-1.511859e+02
9.700000e-07	-3.658291e-06	-2.271657e-09	-2.605540e+01	-1.508099e+02
9.800000e-07	-3.624753e-06	-2.267788e-09	-2.581653e+01	-1.504308e+02
9.900000e-07	-3.590865e-06	-2.263424e-09	-2.557517e+01	-1.500487e+02
1.000000e-06	-3.556540e-06	-2.253224e-09	-2.533070e+01	-1.496637e+02
1.010000e-06	-3.521761e-06	-2.242882e-09	-2.508299e+01	-1.492755e+02
1.020000e-06	-3.486560e-06	-2.234119e-09	-2.483228e+01	-1.488841e+02
1.030000e-06	-3.451045e-06	-2.223932e-09	-2.457934e+01	-1.484893e+02
1.040000e-06	-3.415291e-06	-2.216989e-09	-2.432468e+01	-1.480908e+02
1.050000e-06	-3.379333e-06	-2.214728e-09	-2.406858e+01	-1.476884e+02
1.060000e-06	-3.343203e-06	-2.214372e-09	-2.381125e+01	-1.472819e+02
1.070000e-06	-3.306941e-06	-2.209033e-09	-2.355298e+01	-1.468708e+02
1.080000e-06	-3.270560e-06	-2.200537e-09	-2.329387e+01	-1.464549e+02
1.090000e-06	-3.234004e-06	-2.188375e-09	-2.303350e+01	-1.460340e+02
1.100000e-06	-3.197217e-06	-2.179617e-09	-2.277150e+01	-1.456076e+02
1.110000e-06	-3.160169e-06	-2.171406e-09	-2.250763e+01	-1.451757e+02
1.120000e-06	-3.122890e-06	-2.165031e-09	-2.224212e+01	-1.447378e+02
1.130000e-06	-3.085439e-06	-2.156305e-09	-2.197538e+01	-1.442939e+02
1.140000e-06	-3.047839e-06	-2.152288e-09	-2.170758e+01	-1.438438e+02
1.150000e-06	-3.010034e-06	-2.147194e-09	-2.143832e+01	-1.433872e+02
1.160000e-06	-2.971947e-06	-2.138581e-09	-2.116706e+01	-1.429242e+02
1.170000e-06	-2.933608e-06	-2.125060e-09	-2.089400e+01	-1.424547e+02
1.180000e-06	-2.895063e-06	-2.118141e-09	-2.061947e+01	-1.419786e+02
1.190000e-06	-2.856370e-06	-2.111672e-09	-2.034389e+01	-1.414960e+02
1.200000e-06	-2.817522e-06	-2.104983e-09	-2.006720e+01	-1.410068e+02
1.210000e-06	-2.778373e-06	-2.094795e-09	-1.978837e+01	-1.405111e+02
1.220000e-06	-2.738967e-06	-2.087251e-09	-1.950771e+01	-1.400089e+02
1.230000e-06	-2.699411e-06	-2.081211e-09	-1.922598e+01	-1.395002e+02
1.240000e-06	-2.659685e-06	-2.074151e-09	-1.894304e+01	-1.389850e+02
1.250000e-06	-2.619875e-06	-2.062702e-09	-1.865950e+01	-1.384634e+02
1.260000e-06	-2.579988e-06	-2.056293e-09	-1.837541e+01	-1.379351e+02
1.270000e-06	-2.539984e-06	-2.051048e-09	-1.809050e+01	-1.374003e+02
1.280000e-06	-2.499880e-06	-2.040984e-09	-1.780486e+01	-1.368586e+02
1.290000e-06	-2.459673e-06	-2.028124e-09	-1.751850e+01	-1.363100e+02
1.300000e-06	-2.419381e-06	-2.017253e-09	-1.723152e+01	-1.357541e+02
1.310000e-06	-2.378956e-06	-2.006144e-09	-1.694361e+01	-1.351906e+02
1.320000e-06	-2.338348e-06	-1.992612e-09	-1.665438e+01	-1.346191e+02
1.330000e-06	-2.297578e-06	-1.980855e-09	-1.636401e+01	-1.340392e+02
1.340000e-06	-2.256641e-06	-1.974519e-09	-1.607244e+01	-1.334504e+02
1.350000e-06	-2.215415e-06	-1.973241e-09	-1.577882e+01	-1.328521e+02
1.360000e-06	-2.173797e-06	-1.965087e-09	-1.548241e+01	-1.322437e+02
1.370000e-06	-2.131890e-06	-1.950893e-09	-1.518393e+01	-1.316246e+02
1.380000e-06	-2.089869e-06	-1.934773e-09	-1.488465e+01	-1.309939e+02
1.390000e-06	-2.047748e-06	-1.921916e-09	-1.458465e+01	-1.303512e+02
1.400000e-06	-2.005296e-06	-1.909834e-09	-1.428229e+01	-1.296955e+02
1.410000e-06	-1.962426e-06	-1.898927e-09	-1.397696e+01	-1.290263e+02
1.420000e-06	-1.919265e-06	-1.888452e-09	-1.366955e+01	-1.283427e+02
1.430000e-06	-1.875927e-06	-1.880847e-09	-1.336089e+01	-1.276442e+02
1.440000e-06	-1.832527e-06	-1.871627e-09	-1.305178e+01	-1.269301e+02
1.450000e-06	-1.789046e-06	-1.856729e-09	-1.274210e+01	-1.261997e+02
1.460000e-06	-1.745393e-06	-1.839872e-09	-1.243119e+01	-1.254525e+02
1.470000e-06	-1.701546e-06	-1.826792e-09	-1.211890e+01	-1.246880e+02
1.480000e-06	-1.657574e-06	-1.812650e-09	-1.180572e+01	-1.239059e+02
1.490000e-06	-1.613574e-06	-1.798028e-09	-1.149234e+01	-1.231057e+02
1.500000e-06	-1.569530e-06	-1.780816e-09	-1.117864e+01	-1.222872e+02
1.510000e-06	-1.525421e-06	-1.765876e-09	-1.086448e+01	-1.214501e+02
1.520000e-06	-1.481292e-06	-1.754694e-09	-1.055019e+01	-1.205942e+02
1.530000e-06	-1.437112e-06	-1.743901e-09	-1.023552e+01	-1.197196e+02
1.540000e-06	-1.392838e-06	-1.730972e-09	-9.920193e+00	-1.188262e+02
1.550000e-06	-1.348514e-06	-1.718618e-09	-9.604505e+00	-1.179139e+02
1.560000e-06	-1.304143e-06	-1.705791e-09	-9.288483e+00	-1.169828e+02
1.570000e-06	-1.259664e-06	-1.690864e-09	-8.971687e+00	-1.160330e+02
1.580000e-06	-1.215110e-06	-1.672500e-09	-8.654361e+00	-1.150644e+02
1.590000e-06	-1.170559e-06	-1.656080e-09	-8.337056e+00	-1.140771e+02
1.600000e-06	-1.125925e-06	-1.644637e-09	-8.019163e+00	-1.130712e+02
1.610000e-06	-1.081202e-06	-1.633458e-09	-7.700634e+00	-1.120464e+02
1.620000e-06	-1.036406e-06	-1.616688e-09	-7.381584e+00	-1.110029e+02
1.630000e-06	-9.915151e-07	-1.597212e-09	-7.061855e+00	-1.099402e+02
1.640000e-06	-9.465158e-07	-1.579709e-09	-6.741357e+00	-1.088582e+02
1.650000e-06	-9.013631e-07	-1.563115e-09	-6.419767e+00	-1.077564e+02
1.660000e-06	-8.561010e-07	-1.546947e-09	-6.097397e+00	-1.066344e+02
1.670000e-06	-8.108132e-07	-1.530062e-09	-5.774844e+00	-1.054914e+02
1.680000e-06	-7.655820e-07	-1.515594e-09	-5.452694e+00	-1.043266e+02
1.690000e-06	-7.203546e-07	-1.498423e-09	-5.130572e+00	-1.031393e+02
1.700000e-06	-6.750102e-07	-1.476450e-09	-4.807616e+00	-1.019282e+02
1.710000e-06	-6.295834e-07	-1.451854e-09	-4.484074e+00	-1.006921e+02
1.720000e-06	-5.841072e-07	-1.431041e-09	-4.160179e+00	-9.942987e+01
1.730000e-06	-5.385958e-07	-1.414499e-09	-3.836034e+00	-9.813992e+01
1.740000e-06	-4.930929e-07	-1.397871e-09	-3.511949e+00	-9.682071e+01
1.750000e-06	-4.475250e-07	-1.379715e-09	-3.187402e+00	-9.547060e+01
1.760000e-06	-4.018717e-07	-1.365932e-09	-2.862245e+00	-9.408786e+01
1.770000e-06	-3.562004e-07	-1.351914e-09	-2.536962e+00	-9.267069e+01
1.780000e-06	-3.105655e-07	-1.329020e-09	-2.211937e+00	-9.121728e+01
1.790000e-06	-2.649264e-07	-1.298260e-09	-1.886882e+00	-8.972577e+01
1.800000e-06	-2.192524e-07	-1.270124e-09	-1.561578e+00	-8.819435e+01
1.810000e-06	-1.735543e-07	-1.245592e-09	-1.236104e+00	-8.662120e+01
1.820000e-06	-1.278284e-07	-1.222412e-09	-9.104308e-01	-8.500458e+01
1.830000e-06	-8.203417e-08	-1.199910e-09	-5.842709e-01	-8.334282e+01
1.840000e-06	-3.620573e-08	-1.180291e-09	-2.578676e-01	-8.163437e+01
1.850000e-06	9.530738e-09	-1.159821e-09	6.788065e-02	-7.987777e+01
1.860000e-06	5.512573e-08	-1.134506e-09	3.926213e-01	-7.807172e+01
1.870000e-06	1.007493e-07	-1.104176e-09	7.175655e-01	-7.621508e+01
1.880000e-06	1.465067e-07	-1.071661e-09	1.043463e+00	-7.430687e+01
1.890000e-06	1.922745e-07	-1.039453e-09	1.369434e+00	-7.234632e+01
1.900000e-06	2.379749e-07	-1.006994e-09	1.694925e+00	-7.033283e+01
1.910000e-06	2.836468e-07	-9.743303e-10	2.020214e+00	-6.826599e+01
1.920000e-06	3.293301e-07	-9.442017e-10	2.345583e+00	-6.614564e+01
1.930000e-06	3.749919e-07	-9.183557e-10	2.670800e+00	-6.397176e+01
1.940000e-06	4.206424e-07	-8.915134e-10	2.995936e+00	-6.174458e+01
1.950000e-06	4.662261e-07	-8.595480e-10	3.320596e+00	-5.946450e+01
1.960000e-06	5.117541e-07	-8.241019e-10	3.644860e+00	-5.713211e+01
1.970000e-06	5.572511e-07	-7.891582e-10	3.968903e+00	-5.474816e+01
1.980000e-06	6.026249e-07	-7.524497e-10	4.292067e+00	-5.231360e+01
1.990000e-06	6.479476e-07	-7.131845e-10	4.614869e+00	-4.982950e+01
2.000000e-06	6.932880e-07	-6.729915e-10	4.937796e+00	-4.729707e+01
2.010000e-06	7.385824e-07	-6.350559e-10	5.260396e+00	-4.471765e+01
2.020000e-06	7.838264e-07	-5.982002e-10	5.582637e+00	-4.209266e+01
2.030000e-06	8.290531e-07	-5.607685e-10	5.904754e+00	-3.942365e+01
2.040000e-06	8.741537e-07	-5.232389e-10	6.225974e+00	-3.671221e+01
2.050000e-06	9.191462e-07	-4.873358e-10	6.546423e+00	-3.396000e+01
2.060000e-06	9.640811e-07	-4.499892e-10	6.866462e+00	-3.116874e+01
2.070000e-06	1.008900e-06	-4.074541e-10	7.185675e+00	-2.834019e+01
2.080000e-06	1.053674e-06	-3.619612e-10	7.504566e+00	-2.547612e+01
2.090000e-06	1.098423e-06	-3.173277e-10	7.823283e+00	-2.257836e+01
2.100000e-06	1.143078e-06	-2.734704e-10	8.141330e+00	-1.964872e+01
2.110000e-06	1.187636e-06	-2.301536e-10	8.458687e+00	-1.668907e+01
2.120000e-06	1.232157e-06	-1.865781e-10	8.775773e+00	-1.370126e+01
2.130000e-06	1.276624e-06	-1.465652e-10	9.092482e+00	-1.068719e+01
2.140000e-06	1.320999e-06	-1.067029e-10	9.408537e+00	-7.648784e+00
2.150000e-06	1.365306e-06	-6.171437e-11	9.724102e+00	-4.587977e+00
2.160000e-06	1.409572e-06	-1.000843e-11	1.003938e+01	-1.506759e+00
2.170000e-06	1.453818e-06	4.146823e-11	1.035451e+01	1.592837e+00
2.180000e-06	1.498020e-06	8.766691e-11	1.066933e+01	4.708724e+00
2.190000e-06	1.542142e-06	1.316858e-10	1.098358e+01	7.838751e+00
2.200000e-06	1.586146e-06	1.747188e-10	1.129699e+01	1.098069e+01
2.210000e-06	1.630078e-06	2.188701e-10	1.160988e+01	1.413225e+01
2.220000e-06	1.673930e-06	2.644509e-10	1.192221e+01	1.729102e+01
2.230000e-06	1.717722e-06	3.107068e-10	1.223411e+01	2.045452e+01
2.240000e-06	1.761468e-06	3.591243e-10	1.254568e+01	2.362018e+01
2.250000e-06	1.805056e-06	4.073193e-10	1.285613e+01	2.678531e+01
2.260000e-06	1.848471e-06	4.523999e-10	1.316534e+01	2.994714e+01
2.270000e-06	1.891765e-06	4.965531e-10	1.347369e+01	3.310278e+01
2.280000e-06	1.934992e-06	5.432116e-10	1.378157e+01	3.624930e+01
2.290000e-06	1.978039e-06	5.910187e-10	1.408816e+01	3.938364e+01
2.300000e-06	2.020796e-06	6.367186e-10	1.439269e+01	4.250271e+01
2.310000e-06	2.063267e-06	6.837759e-10	1.469518e+01	4.560335e+01
2.320000e-06	2.105476e-06	7.308663e-10	1.499581e+01	4.868237e+01
2.330000e-06	2.147427e-06	7.764686e-10	1.529459e+01	5.173657e+01
2.340000e-06	2.189062e-06	8.161139e-10	1.559112e+01	5.476275e+01
2.350000e-06	2.230438e-06	8.522472e-10	1.588582e+01	5.775774e+01
2.360000e-06	2.271609e-06	8.896619e-10	1.617905e+01	6.071842e+01
2.370000e-06	2.312452e-06	9.309124e-10	1.646994e+01	6.364175e+01
2.380000e-06	2.353057e-06	9.747532e-10	1.675915e+01	6.652481e+01
2.390000e-06	2.393536e-06	1.018202e-09	1.704745e+01	6.936480e+01
2.400000e-06	2.433881e-06	1.061852e-09	1.733480e+01	7.215906e+01
2.410000e-06	2.474157e-06	1.102482e-09	1.762166e+01	7.490512e+01
2.420000e-06	2.514306e-06	1.138718e-09	1.790761e+01	7.760071e+01
2.430000e-06	2.554348e-06	1.170191e-09	1.819280e+01	8.024377e+01
2.440000e-06	2.594318e-06	1.203669e-09	1.847748e+01	8.283249e+01
2.450000e-06	2.634159e-06	1.239052e-09	1.876124e+01	8.536528e+01
2.460000e-06	2.673856e-06	1.273511e-09	1.904397e+01	8.784083e+01
2.470000e-06	2.713360e-06	1.308825e-09	1.932533e+01	9.025809e+01
2.480000e-06	2.752669e-06	1.345072e-09	1.960530e+01	9.261627e+01
2.490000e-06	2.791816e-06	1.381974e-09	1.988411e+01	9.491485e+01
2.500000e-06	2.830762e-06	1.416084e-09	2.016150e+01	9.715356e+01
2.510000e-06	2.869442e-06	1.445930e-09	2.043699e+01	9.933241e+01
2.520000e-06	2.907943e-06	1.474074e-09	2.071120e+01	1.014516e+02
2.530000e-06	2.946266e-06	1.502685e-09	2.098415e+01	1.035116e+02
2.540000e-06	2.984376e-06	1.528853e-09	2.125559e+01	1.055132e+02
2.550000e-06	3.022356e-06	1.553963e-09	2.152608e+01	1.074570e+02
2.560000e-06	3.060147e-06	1.582774e-09	2.179525e+01	1.093442e+02
2.570000e-06	3.097668e-06	1.614631e-09	2.206248e+01	1.111759e+02
2.580000e-06	3.134905e-06	1.644119e-09	2.232769e+01	1.129534e+02
2.590000e-06	3.171912e-06	1.668368e-09	2.259127e+01	1.146781e+02
2.600000e-06	3.208735e-06	1.689924e-09	2.285353e+01	1.163513e+02
2.610000e-06	3.245291e-06	1.714379e-09	2.311389e+01	1.179744e+02
2.620000e-06	3.281634e-06	1.738368e-09	2.337274e+01	1.195491e+02
2.630000e-06	3.317838e-06	1.757752e-09	2.363060e+01	1.210768e+02
2.640000e-06	3.353903e-06	1.775116e-09	2.388746e+01	1.225588e+02
2.650000e-06	3.389874e-06	1.795227e-09	2.414366e+01	1.239965e+02
2.660000e-06	3.425728e-06	1.816758e-09	2.439902e+01	1.253914e+02
2.670000e-06	3.461394e-06	1.836773e-09	2.465304e+01	1.267446e+02
2.680000e-06	3.496785e-06	1.855867e-09	2.490511e+01	1.280573e+02
2.690000e-06	3.531826e-06	1.876322e-09	2.515468e+01	1.293306e+02
2.700000e-06	3.566426e-06	1.895883e-09	2.540111e+01	1.305655e+02
2.710000e-06	3.600524e-06	1.912437e-09	2.564396e+01	1.317628e+02
2.720000e-06	3.634249e-06	1.928499e-09	2.588417e+01	1.329235e+02
2.730000e-06	3.667677e-06	1.945061e-09	2.612225e+01	1.340481e+02
2.740000e-06	3.700754e-06	1.960296e-09	2.635783e+01	1.351374e+02
2.750000e-06	3.733471e-06	1.974698e-09	2.659085e+01	1.361919e+02
2.760000e-06	3.765900e-06	1.990717e-09	2.682182e+01	1.372123e+02
2.770000e-06	3.798189e-06	2.007617e-09	2.705179e+01	1.381989e+02
2.780000e-06	3.830284e-06	2.021495e-09	2.728038e+01	1.391524e+02
2.790000e-06	3.862185e-06	2.033021e-09	2.750759e+01	1.400733e+02
2.800000e-06	3.893904e-06	2.047322e-09	2.773350e+01	1.409620e+02
2.810000e-06	3.925359e-06	2.062858e-09	2.795753e+01	1.418190e+02
2.820000e-06	3.956579e-06	2.076393e-09	2.817989e+01	1.426450e+02
2.830000e-06	3.987519e-06	2.082724e-09	2.840025e+01	1.434405e+02
2.840000e-06	4.018164e-06	2.088398e-09	2.861852e+01	1.442064e+02
2.850000e-06	4.048505e-06	2.100161e-09	2.883462e+01	1.449432e+02
2.860000e-06	4.078482e-06	2.117836e-09	2.904812e+01	1.456519e+02
2.870000e-06	4.108203e-06	2.134270e-09	2.925980e+01	1.463333e+02
2.880000e-06	4.137682e-06	2.146416e-09	2.946976e+01	1.469884e+02
2.890000e-06	4.166908e-06	2.157583e-09	2.967791e+01	1.476182e+02
2.900000e-06	4.195867e-06	2.166432e-09	2.988417e+01	1.482239e+02
