# Temperatura_=_-3.0
# Concentracion g/m^3_=_4090.0
# C_Vs_to_Am_M_A/Vsm_=_65563218390.804596
# pendiente_HvsI_1/m_=_3716.3
# ordenada_HvsI_A/m_=_1297.0
# frecuencia_Hz_=_135071.74263989244

Tiempo_(s)	Campo_(V.s)	Magnetizacion_(V.s)	Campo_(kA/m)	Magnetizacion_(A/m)
0.000000e+00	-5.443704e-06	-2.145517e-09	-3.839189e+01	-1.385700e+02
1.000000e-08	-5.443866e-06	-2.148286e-09	-3.839304e+01	-1.384574e+02
2.000000e-08	-5.443803e-06	-2.148516e-09	-3.839259e+01	-1.383501e+02
3.000000e-08	-5.443314e-06	-2.145928e-09	-3.838915e+01	-1.382497e+02
4.000000e-08	-5.442377e-06	-2.143066e-09	-3.838253e+01	-1.381578e+02
5.000000e-08	-5.440962e-06	-2.142207e-09	-3.837255e+01	-1.380759e+02
6.000000e-08	-5.438916e-06	-2.143726e-09	-3.835813e+01	-1.380052e+02
7.000000e-08	-5.436199e-06	-2.158041e-09	-3.833896e+01	-1.379467e+02
8.000000e-08	-5.432841e-06	-2.165792e-09	-3.831528e+01	-1.379014e+02
9.000000e-08	-5.428920e-06	-2.131002e-09	-3.828763e+01	-1.378699e+02
1.000000e-07	-5.424653e-06	-2.099507e-09	-3.825753e+01	-1.378527e+02
1.100000e-07	-5.420320e-06	-2.179404e-09	-3.822698e+01	-1.378500e+02
1.200000e-07	-5.415821e-06	-2.219738e-09	-3.819525e+01	-1.378617e+02
1.300000e-07	-5.410865e-06	-2.136024e-09	-3.816029e+01	-1.378876e+02
1.400000e-07	-5.405471e-06	-2.069372e-09	-3.812225e+01	-1.379271e+02
1.500000e-07	-5.399902e-06	-2.152646e-09	-3.808298e+01	-1.379796e+02
1.600000e-07	-5.394012e-06	-2.230009e-09	-3.804144e+01	-1.380442e+02
1.700000e-07	-5.387530e-06	-2.121279e-09	-3.799573e+01	-1.381196e+02
1.800000e-07	-5.380653e-06	-2.050276e-09	-3.794722e+01	-1.382047e+02
1.900000e-07	-5.373580e-06	-2.160693e-09	-3.789734e+01	-1.382979e+02
2.000000e-07	-5.366233e-06	-2.222342e-09	-3.784553e+01	-1.383978e+02
2.100000e-07	-5.358503e-06	-2.130771e-09	-3.779101e+01	-1.385026e+02
2.200000e-07	-5.350559e-06	-2.108594e-09	-3.773498e+01	-1.386107e+02
2.300000e-07	-5.342482e-06	-2.219818e-09	-3.767803e+01	-1.387202e+02
2.400000e-07	-5.333917e-06	-2.215341e-09	-3.761762e+01	-1.388294e+02
2.500000e-07	-5.324589e-06	-2.118136e-09	-3.755183e+01	-1.389365e+02
2.600000e-07	-5.314687e-06	-2.162291e-09	-3.748200e+01	-1.390399e+02
2.700000e-07	-5.304244e-06	-2.245812e-09	-3.740835e+01	-1.391377e+02
2.800000e-07	-5.293180e-06	-2.164479e-09	-3.733032e+01	-1.392286e+02
2.900000e-07	-5.281725e-06	-2.103651e-09	-3.724953e+01	-1.393111e+02
3.000000e-07	-5.269900e-06	-2.206576e-09	-3.716614e+01	-1.393838e+02
3.100000e-07	-5.257535e-06	-2.223604e-09	-3.707893e+01	-1.394456e+02
3.200000e-07	-5.244755e-06	-2.107199e-09	-3.698880e+01	-1.394955e+02
3.300000e-07	-5.231763e-06	-2.107361e-09	-3.689718e+01	-1.395328e+02
3.400000e-07	-5.218407e-06	-2.193098e-09	-3.680298e+01	-1.395567e+02
3.500000e-07	-5.204523e-06	-2.153557e-09	-3.670506e+01	-1.395668e+02
3.600000e-07	-5.190272e-06	-2.112178e-09	-3.660456e+01	-1.395629e+02
3.700000e-07	-5.175513e-06	-2.151931e-09	-3.650047e+01	-1.395449e+02
3.800000e-07	-5.160069e-06	-2.145503e-09	-3.639155e+01	-1.395129e+02
3.900000e-07	-5.144221e-06	-2.104514e-09	-3.627978e+01	-1.394670e+02
4.000000e-07	-5.128019e-06	-2.138781e-09	-3.616551e+01	-1.394078e+02
4.100000e-07	-5.111316e-06	-2.133016e-09	-3.604772e+01	-1.393357e+02
4.200000e-07	-5.094256e-06	-2.071008e-09	-3.592741e+01	-1.392515e+02
4.300000e-07	-5.077004e-06	-2.099306e-09	-3.580573e+01	-1.391558e+02
4.400000e-07	-5.059458e-06	-2.157878e-09	-3.568199e+01	-1.390496e+02
4.500000e-07	-5.041531e-06	-2.117468e-09	-3.555555e+01	-1.389338e+02
4.600000e-07	-5.023219e-06	-2.086747e-09	-3.542641e+01	-1.388093e+02
4.700000e-07	-5.004473e-06	-2.121749e-09	-3.529420e+01	-1.386770e+02
4.800000e-07	-4.985303e-06	-2.126290e-09	-3.515900e+01	-1.385381e+02
4.900000e-07	-4.965835e-06	-2.098350e-09	-3.502171e+01	-1.383935e+02
5.000000e-07	-4.946176e-06	-2.091895e-09	-3.488306e+01	-1.382442e+02
5.100000e-07	-4.926303e-06	-2.085799e-09	-3.474291e+01	-1.380910e+02
5.200000e-07	-4.906154e-06	-2.099556e-09	-3.460081e+01	-1.379348e+02
5.300000e-07	-4.885736e-06	-2.123974e-09	-3.445681e+01	-1.377764e+02
5.400000e-07	-4.865013e-06	-2.100600e-09	-3.431066e+01	-1.376165e+02
5.500000e-07	-4.843869e-06	-2.070186e-09	-3.416154e+01	-1.374557e+02
5.600000e-07	-4.822351e-06	-2.092140e-09	-3.400978e+01	-1.372945e+02
5.700000e-07	-4.800605e-06	-2.101147e-09	-3.385642e+01	-1.371334e+02
5.800000e-07	-4.778551e-06	-2.072269e-09	-3.370088e+01	-1.369727e+02
5.900000e-07	-4.756125e-06	-2.065113e-09	-3.354272e+01	-1.368125e+02
6.000000e-07	-4.733377e-06	-2.075550e-09	-3.338229e+01	-1.366530e+02
6.100000e-07	-4.710327e-06	-2.078443e-09	-3.321973e+01	-1.364943e+02
6.200000e-07	-4.686969e-06	-2.078748e-09	-3.305499e+01	-1.363363e+02
6.300000e-07	-4.663327e-06	-2.067002e-09	-3.288826e+01	-1.361789e+02
6.400000e-07	-4.639464e-06	-2.051207e-09	-3.271996e+01	-1.360218e+02
6.500000e-07	-4.615387e-06	-2.062622e-09	-3.255016e+01	-1.358648e+02
6.600000e-07	-4.591027e-06	-2.068192e-09	-3.237836e+01	-1.357077e+02
6.700000e-07	-4.566249e-06	-2.050202e-09	-3.220362e+01	-1.355500e+02
6.800000e-07	-4.540980e-06	-2.042650e-09	-3.202541e+01	-1.353914e+02
6.900000e-07	-4.515171e-06	-2.055026e-09	-3.184339e+01	-1.352315e+02
7.000000e-07	-4.488748e-06	-2.054820e-09	-3.165704e+01	-1.350700e+02
7.100000e-07	-4.461825e-06	-2.040983e-09	-3.146716e+01	-1.349065e+02
7.200000e-07	-4.434542e-06	-2.027953e-09	-3.127475e+01	-1.347406e+02
7.300000e-07	-4.406987e-06	-2.027798e-09	-3.108041e+01	-1.345720e+02
7.400000e-07	-4.379242e-06	-2.032683e-09	-3.088474e+01	-1.344003e+02
7.500000e-07	-4.351361e-06	-2.028705e-09	-3.068811e+01	-1.342254e+02
7.600000e-07	-4.323307e-06	-2.015330e-09	-3.049026e+01	-1.340470e+02
7.700000e-07	-4.295011e-06	-2.015454e-09	-3.029070e+01	-1.338650e+02
7.800000e-07	-4.266451e-06	-2.021895e-09	-3.008928e+01	-1.336792e+02
7.900000e-07	-4.237525e-06	-2.014287e-09	-2.988528e+01	-1.334896e+02
8.000000e-07	-4.208205e-06	-2.000507e-09	-2.967850e+01	-1.332961e+02
8.100000e-07	-4.178546e-06	-1.997673e-09	-2.946933e+01	-1.330989e+02
8.200000e-07	-4.148651e-06	-2.004953e-09	-2.925849e+01	-1.328981e+02
8.300000e-07	-4.118512e-06	-2.008275e-09	-2.904593e+01	-1.326937e+02
8.400000e-07	-4.088143e-06	-2.000572e-09	-2.883176e+01	-1.324859e+02
8.500000e-07	-4.057474e-06	-1.991836e-09	-2.861546e+01	-1.322751e+02
8.600000e-07	-4.026421e-06	-1.989489e-09	-2.839646e+01	-1.320614e+02
8.700000e-07	-3.995080e-06	-1.986708e-09	-2.817543e+01	-1.318452e+02
8.800000e-07	-3.963527e-06	-1.973191e-09	-2.795290e+01	-1.316266e+02
8.900000e-07	-3.931878e-06	-1.961107e-09	-2.772970e+01	-1.314061e+02
9.000000e-07	-3.900095e-06	-1.963065e-09	-2.750555e+01	-1.311840e+02
9.100000e-07	-3.868096e-06	-1.970836e-09	-2.727987e+01	-1.309605e+02
9.200000e-07	-3.835922e-06	-1.969000e-09	-2.705296e+01	-1.307359e+02
9.300000e-07	-3.803487e-06	-1.956440e-09	-2.682422e+01	-1.305106e+02
9.400000e-07	-3.770743e-06	-1.949347e-09	-2.659329e+01	-1.302848e+02
9.500000e-07	-3.737629e-06	-1.948698e-09	-2.635975e+01	-1.300587e+02
9.600000e-07	-3.704000e-06	-1.944268e-09	-2.612258e+01	-1.298325e+02
9.700000e-07	-3.669822e-06	-1.934338e-09	-2.588154e+01	-1.296063e+02
9.800000e-07	-3.635135e-06	-1.928552e-09	-2.563690e+01	-1.293803e+02
9.900000e-07	-3.600112e-06	-1.929721e-09	-2.538991e+01	-1.291545e+02
1.000000e-06	-3.564884e-06	-1.929051e-09	-2.514146e+01	-1.289289e+02
1.010000e-06	-3.529448e-06	-1.919815e-09	-2.489154e+01	-1.287034e+02
1.020000e-06	-3.493842e-06	-1.906919e-09	-2.464043e+01	-1.284781e+02
1.030000e-06	-3.458064e-06	-1.898690e-09	-2.438811e+01	-1.282528e+02
1.040000e-06	-3.422174e-06	-1.898168e-09	-2.413499e+01	-1.280272e+02
1.050000e-06	-3.386172e-06	-1.895424e-09	-2.388109e+01	-1.278011e+02
1.060000e-06	-3.349939e-06	-1.890247e-09	-2.362555e+01	-1.275743e+02
1.070000e-06	-3.313459e-06	-1.887458e-09	-2.336828e+01	-1.273465e+02
1.080000e-06	-3.276680e-06	-1.887194e-09	-2.310889e+01	-1.271173e+02
1.090000e-06	-3.239543e-06	-1.883360e-09	-2.284698e+01	-1.268863e+02
1.100000e-06	-3.202157e-06	-1.875942e-09	-2.258332e+01	-1.266531e+02
1.110000e-06	-3.164625e-06	-1.868979e-09	-2.231862e+01	-1.264174e+02
1.120000e-06	-3.126924e-06	-1.864990e-09	-2.205273e+01	-1.261786e+02
1.130000e-06	-3.089049e-06	-1.861093e-09	-2.178562e+01	-1.259363e+02
1.140000e-06	-3.051003e-06	-1.856695e-09	-2.151729e+01	-1.256901e+02
1.150000e-06	-3.012802e-06	-1.851773e-09	-2.124788e+01	-1.254396e+02
1.160000e-06	-2.974378e-06	-1.849053e-09	-2.097689e+01	-1.251843e+02
1.170000e-06	-2.935639e-06	-1.845102e-09	-2.070369e+01	-1.249237e+02
1.180000e-06	-2.896624e-06	-1.836494e-09	-2.042853e+01	-1.246575e+02
1.190000e-06	-2.857421e-06	-1.826974e-09	-2.015205e+01	-1.243853e+02
1.200000e-06	-2.818061e-06	-1.819928e-09	-1.987446e+01	-1.241068e+02
1.210000e-06	-2.778520e-06	-1.817494e-09	-1.959560e+01	-1.238216e+02
1.220000e-06	-2.738811e-06	-1.815575e-09	-1.931555e+01	-1.235294e+02
1.230000e-06	-2.699038e-06	-1.812235e-09	-1.903505e+01	-1.232300e+02
1.240000e-06	-2.659209e-06	-1.809633e-09	-1.875416e+01	-1.229231e+02
1.250000e-06	-2.619277e-06	-1.806282e-09	-1.847253e+01	-1.226087e+02
1.260000e-06	-2.579191e-06	-1.800591e-09	-1.818983e+01	-1.222865e+02
1.270000e-06	-2.538928e-06	-1.794059e-09	-1.790587e+01	-1.219564e+02
1.280000e-06	-2.498502e-06	-1.787965e-09	-1.762076e+01	-1.216184e+02
1.290000e-06	-2.457900e-06	-1.784663e-09	-1.733442e+01	-1.212725e+02
1.300000e-06	-2.417011e-06	-1.780199e-09	-1.704605e+01	-1.209185e+02
1.310000e-06	-2.375750e-06	-1.773125e-09	-1.675505e+01	-1.205566e+02
1.320000e-06	-2.334286e-06	-1.765547e-09	-1.646263e+01	-1.201868e+02
1.330000e-06	-2.292486e-06	-1.759357e-09	-1.616783e+01	-1.198090e+02
1.340000e-06	-2.250362e-06	-1.754141e-09	-1.587075e+01	-1.194234e+02
1.350000e-06	-2.208110e-06	-1.747257e-09	-1.557277e+01	-1.190300e+02
1.360000e-06	-2.165551e-06	-1.739572e-09	-1.527262e+01	-1.186289e+02
1.370000e-06	-2.122647e-06	-1.732384e-09	-1.497004e+01	-1.182200e+02
1.380000e-06	-2.079480e-06	-1.726195e-09	-1.466560e+01	-1.178035e+02
1.390000e-06	-2.036193e-06	-1.720664e-09	-1.436031e+01	-1.173792e+02
1.400000e-06	-1.992814e-06	-1.715145e-09	-1.405439e+01	-1.169471e+02
1.410000e-06	-1.949294e-06	-1.711364e-09	-1.374746e+01	-1.165073e+02
1.420000e-06	-1.905703e-06	-1.707614e-09	-1.344003e+01	-1.160595e+02
1.430000e-06	-1.862003e-06	-1.700801e-09	-1.313184e+01	-1.156035e+02
1.440000e-06	-1.818193e-06	-1.687365e-09	-1.282287e+01	-1.151393e+02
1.450000e-06	-1.774355e-06	-1.672775e-09	-1.251369e+01	-1.146664e+02
1.460000e-06	-1.730509e-06	-1.662672e-09	-1.220447e+01	-1.141845e+02
1.470000e-06	-1.686604e-06	-1.656910e-09	-1.189483e+01	-1.136933e+02
1.480000e-06	-1.642606e-06	-1.653812e-09	-1.158453e+01	-1.131923e+02
1.490000e-06	-1.598465e-06	-1.651931e-09	-1.127322e+01	-1.126809e+02
1.500000e-06	-1.554223e-06	-1.647647e-09	-1.096120e+01	-1.121587e+02
1.510000e-06	-1.509869e-06	-1.636651e-09	-1.064840e+01	-1.116249e+02
1.520000e-06	-1.465416e-06	-1.620247e-09	-1.033490e+01	-1.110789e+02
1.530000e-06	-1.420911e-06	-1.604387e-09	-1.002102e+01	-1.105200e+02
1.540000e-06	-1.376297e-06	-1.591352e-09	-9.706380e+00	-1.099475e+02
1.550000e-06	-1.331579e-06	-1.581369e-09	-9.391003e+00	-1.093604e+02
1.560000e-06	-1.286714e-06	-1.574483e-09	-9.074592e+00	-1.087581e+02
1.570000e-06	-1.241817e-06	-1.571324e-09	-8.757956e+00	-1.081395e+02
1.580000e-06	-1.196868e-06	-1.567645e-09	-8.440948e+00	-1.075040e+02
1.590000e-06	-1.151680e-06	-1.558019e-09	-8.122260e+00	-1.068506e+02
1.600000e-06	-1.106366e-06	-1.542900e-09	-7.802679e+00	-1.061785e+02
1.610000e-06	-1.061017e-06	-1.524269e-09	-7.482853e+00	-1.054868e+02
1.620000e-06	-1.015606e-06	-1.507004e-09	-7.162593e+00	-1.047747e+02
1.630000e-06	-9.700899e-07	-1.493388e-09	-6.841590e+00	-1.040413e+02
1.640000e-06	-9.244787e-07	-1.482999e-09	-6.519915e+00	-1.032859e+02
1.650000e-06	-8.789049e-07	-1.474722e-09	-6.198505e+00	-1.025078e+02
1.660000e-06	-8.332175e-07	-1.467582e-09	-5.876293e+00	-1.017061e+02
1.670000e-06	-7.874065e-07	-1.459095e-09	-5.553210e+00	-1.008803e+02
1.680000e-06	-7.416150e-07	-1.445228e-09	-5.230263e+00	-1.000297e+02
1.690000e-06	-6.957955e-07	-1.425628e-09	-4.907120e+00	-9.915353e+01
1.700000e-06	-6.499408e-07	-1.404166e-09	-4.583728e+00	-9.825136e+01
1.710000e-06	-6.040579e-07	-1.384551e-09	-4.260137e+00	-9.732254e+01
1.720000e-06	-5.581152e-07	-1.369535e-09	-3.936125e+00	-9.636653e+01
1.730000e-06	-5.121662e-07	-1.355137e-09	-3.612068e+00	-9.538278e+01
1.740000e-06	-4.661479e-07	-1.341252e-09	-3.287523e+00	-9.437072e+01
1.750000e-06	-4.200193e-07	-1.330097e-09	-2.962199e+00	-9.332978e+01
1.760000e-06	-3.739097e-07	-1.318928e-09	-2.637010e+00	-9.225936e+01
1.770000e-06	-3.277756e-07	-1.301404e-09	-2.311648e+00	-9.115884e+01
1.780000e-06	-2.815952e-07	-1.277493e-09	-1.985959e+00	-9.002751e+01
1.790000e-06	-2.355315e-07	-1.254081e-09	-1.661093e+00	-8.886463e+01
1.800000e-06	-1.895424e-07	-1.235222e-09	-1.336754e+00	-8.766938e+01
1.810000e-06	-1.434827e-07	-1.219253e-09	-1.011916e+00	-8.644082e+01
1.820000e-06	-9.741958e-08	-1.202662e-09	-6.870546e-01	-8.517794e+01
1.830000e-06	-5.134781e-08	-1.184535e-09	-3.621321e-01	-8.387961e+01
1.840000e-06	-5.205954e-09	-1.165713e-09	-3.671516e-02	-8.254459e+01
1.850000e-06	4.093675e-08	-1.145218e-09	2.887077e-01	-8.117151e+01
1.860000e-06	8.706184e-08	-1.120995e-09	6.140064e-01	-7.975887e+01
1.870000e-06	1.332184e-07	-1.093938e-09	9.395272e-01	-7.830506e+01
1.880000e-06	1.793833e-07	-1.069336e-09	1.265106e+00	-7.680833e+01
1.890000e-06	2.254814e-07	-1.047797e-09	1.590215e+00	-7.526682e+01
1.900000e-06	2.715262e-07	-1.024351e-09	1.914947e+00	-7.367857e+01
1.910000e-06	3.175430e-07	-9.998123e-10	2.239482e+00	-7.204150e+01
1.920000e-06	3.635665e-07	-9.757676e-10	2.564065e+00	-7.035348e+01
1.930000e-06	4.096029e-07	-9.536380e-10	2.888737e+00	-6.861232e+01
1.940000e-06	4.555741e-07	-9.307539e-10	3.212950e+00	-6.681576e+01
1.950000e-06	5.014743e-07	-9.053094e-10	3.536663e+00	-6.496158e+01
1.960000e-06	5.473378e-07	-8.783963e-10	3.860117e+00	-6.304754e+01
1.970000e-06	5.931515e-07	-8.490577e-10	4.183219e+00	-6.107148e+01
1.980000e-06	6.389506e-07	-8.170983e-10	4.506219e+00	-5.903131e+01
1.990000e-06	6.847483e-07	-7.838997e-10	4.829209e+00	-5.692508e+01
2.000000e-06	7.304760e-07	-7.508658e-10	5.151705e+00	-5.475098e+01
2.010000e-06	7.761454e-07	-7.192359e-10	5.473790e+00	-5.250740e+01
2.020000e-06	8.217220e-07	-6.887761e-10	5.795220e+00	-5.019299e+01
2.030000e-06	8.672561e-07	-6.585663e-10	6.116351e+00	-4.780663e+01
2.040000e-06	9.127780e-07	-6.258436e-10	6.437396e+00	-4.534754e+01
2.050000e-06	9.582493e-07	-5.902951e-10	6.758083e+00	-4.281527e+01
2.060000e-06	1.003664e-06	-5.535557e-10	7.078370e+00	-4.020974e+01
2.070000e-06	1.049018e-06	-5.150229e-10	7.398236e+00	-3.753127e+01
2.080000e-06	1.094274e-06	-4.737506e-10	7.717404e+00	-3.478062e+01
2.090000e-06	1.139366e-06	-4.301339e-10	8.035417e+00	-3.195897e+01
2.100000e-06	1.184358e-06	-3.887325e-10	8.352722e+00	-2.906798e+01
2.110000e-06	1.229279e-06	-3.493814e-10	8.669526e+00	-2.610976e+01
2.120000e-06	1.274108e-06	-3.086061e-10	8.985688e+00	-2.308692e+01
2.130000e-06	1.318878e-06	-2.635651e-10	9.301428e+00	-2.000251e+01
2.140000e-06	1.363566e-06	-2.169825e-10	9.616591e+00	-1.686006e+01
2.150000e-06	1.408178e-06	-1.697505e-10	9.931220e+00	-1.366357e+01
2.160000e-06	1.452657e-06	-1.198832e-10	1.024491e+01	-1.041744e+01
2.170000e-06	1.496970e-06	-6.965300e-11	1.055743e+01	-7.126497e+00
2.180000e-06	1.541199e-06	-2.219360e-11	1.086935e+01	-3.795932e+00
2.190000e-06	1.585367e-06	2.268700e-11	1.118085e+01	-4.312804e-01
2.200000e-06	1.629455e-06	6.759986e-11	1.149178e+01	2.961623e+00
2.210000e-06	1.673427e-06	1.182204e-10	1.180190e+01	6.376694e+00
2.220000e-06	1.717306e-06	1.729393e-10	1.211136e+01	9.807640e+00
2.230000e-06	1.761122e-06	2.266391e-10	1.242037e+01	1.324802e+01
2.240000e-06	1.804902e-06	2.814163e-10	1.272913e+01	1.669129e+01
2.250000e-06	1.848635e-06	3.362587e-10	1.303756e+01	2.013087e+01
2.260000e-06	1.892288e-06	3.876719e-10	1.334542e+01	2.356019e+01
2.270000e-06	1.935870e-06	4.355384e-10	1.365278e+01	2.697276e+01
2.280000e-06	1.979399e-06	4.816331e-10	1.395977e+01	3.036218e+01
2.290000e-06	2.022758e-06	5.304473e-10	1.426557e+01	3.372228e+01
2.300000e-06	2.065946e-06	5.843517e-10	1.457015e+01	3.704709e+01
2.310000e-06	2.109067e-06	6.364916e-10	1.487426e+01	4.033091e+01
2.320000e-06	2.151945e-06	6.830153e-10	1.517666e+01	4.356838e+01
2.330000e-06	2.194479e-06	7.271511e-10	1.547664e+01	4.675450e+01
2.340000e-06	2.236794e-06	7.722777e-10	1.577506e+01	4.988463e+01
2.350000e-06	2.278936e-06	8.158611e-10	1.607227e+01	5.295461e+01
2.360000e-06	2.320850e-06	8.566478e-10	1.636787e+01	5.596066e+01
2.370000e-06	2.362494e-06	8.978957e-10	1.666156e+01	5.889952e+01
2.380000e-06	2.403779e-06	9.430253e-10	1.695273e+01	6.176836e+01
2.390000e-06	2.444718e-06	9.872013e-10	1.724145e+01	6.456484e+01
2.400000e-06	2.485383e-06	1.025753e-09	1.752824e+01	6.728710e+01
2.410000e-06	2.525782e-06	1.059624e-09	1.781316e+01	6.993374e+01
2.420000e-06	2.566022e-06	1.093202e-09	1.809695e+01	7.250380e+01
2.430000e-06	2.606192e-06	1.127960e-09	1.838025e+01	7.499677e+01
2.440000e-06	2.646265e-06	1.161187e-09	1.866287e+01	7.741254e+01
2.450000e-06	2.686185e-06	1.193164e-09	1.894441e+01	7.975138e+01
2.460000e-06	2.725892e-06	1.226566e-09	1.922444e+01	8.201392e+01
2.470000e-06	2.765437e-06	1.261897e-09	1.950334e+01	8.420110e+01
2.480000e-06	2.804883e-06	1.296749e-09	1.978153e+01	8.631414e+01
2.490000e-06	2.844160e-06	1.326402e-09	2.005853e+01	8.835449e+01
2.500000e-06	2.883275e-06	1.351580e-09	2.033439e+01	9.032383e+01
2.510000e-06	2.922232e-06	1.375884e-09	2.060913e+01	9.222397e+01
2.520000e-06	2.960980e-06	1.400500e-09	2.088240e+01	9.405689e+01
2.530000e-06	2.999499e-06	1.426182e-09	2.115406e+01	9.582461e+01
2.540000e-06	3.037782e-06	1.452329e-09	2.142405e+01	9.752926e+01
2.550000e-06	3.075889e-06	1.481057e-09	2.169281e+01	9.917294e+01
2.560000e-06	3.113779e-06	1.508094e-09	2.196003e+01	1.007578e+02
2.570000e-06	3.151501e-06	1.530057e-09	2.222606e+01	1.022859e+02
2.580000e-06	3.189101e-06	1.548552e-09	2.249123e+01	1.037593e+02
2.590000e-06	3.226474e-06	1.564722e-09	2.275481e+01	1.051799e+02
2.600000e-06	3.263574e-06	1.579671e-09	2.301646e+01	1.065497e+02
2.610000e-06	3.300396e-06	1.596324e-09	2.327615e+01	1.078704e+02
2.620000e-06	3.336971e-06	1.614331e-09	2.353410e+01	1.091437e+02
2.630000e-06	3.373316e-06	1.634617e-09	2.379042e+01	1.103712e+02
2.640000e-06	3.409460e-06	1.654879e-09	2.404533e+01	1.115543e+02
2.650000e-06	3.445485e-06	1.671399e-09	2.429939e+01	1.126944e+02
2.660000e-06	3.481379e-06	1.683506e-09	2.455254e+01	1.137928e+02
2.670000e-06	3.517099e-06	1.694595e-09	2.480445e+01	1.148508e+02
2.680000e-06	3.552660e-06	1.704980e-09	2.505525e+01	1.158693e+02
2.690000e-06	3.588012e-06	1.715805e-09	2.530457e+01	1.168495e+02
2.700000e-06	3.623079e-06	1.728748e-09	2.555188e+01	1.177925e+02
2.710000e-06	3.657756e-06	1.743908e-09	2.579644e+01	1.186991e+02
2.720000e-06	3.692035e-06	1.759584e-09	2.603819e+01	1.195704e+02
2.730000e-06	3.725826e-06	1.772511e-09	2.627651e+01	1.204073e+02
2.740000e-06	3.759107e-06	1.782669e-09	2.651122e+01	1.212108e+02
2.750000e-06	3.791998e-06	1.791023e-09	2.674319e+01	1.219818e+02
2.760000e-06	3.824566e-06	1.798372e-09	2.697287e+01	1.227215e+02
2.770000e-06	3.856891e-06	1.805453e-09	2.720085e+01	1.234308e+02
2.780000e-06	3.888999e-06	1.815320e-09	2.742729e+01	1.241109e+02
2.790000e-06	3.920962e-06	1.827727e-09	2.765271e+01	1.247629e+02
2.800000e-06	3.952741e-06	1.839679e-09	2.787683e+01	1.253879e+02
2.810000e-06	3.984296e-06	1.849936e-09	2.809937e+01	1.259872e+02
2.820000e-06	4.015565e-06	1.856043e-09	2.831990e+01	1.265620e+02
2.830000e-06	4.046488e-06	1.859184e-09	2.853798e+01	1.271137e+02
2.840000e-06	4.077161e-06	1.865401e-09	2.875431e+01	1.276433e+02
2.850000e-06	4.107592e-06	1.874493e-09	2.896892e+01	1.281524e+02
2.860000e-06	4.137742e-06	1.884268e-09	2.918156e+01	1.286421e+02
2.870000e-06	4.167592e-06	1.892016e-09	2.939208e+01	1.291137e+02
2.880000e-06	4.197109e-06	1.898441e-09	2.960024e+01	1.295684e+02
2.890000e-06	4.226413e-06	1.906298e-09	2.980691e+01	1.300074e+02
2.900000e-06	4.255480e-06	1.913236e-09	3.001191e+01	1.304319e+02
