# Temperatura_=_-1.4
# Concentracion g/m^3_=_4090.0
# C_Vs_to_Am_M_A/Vsm_=_65563218390.804596
# pendiente_HvsI_1/m_=_3716.3
# ordenada_HvsI_A/m_=_1297.0
# frecuencia_Hz_=_135066.23262629003

Tiempo_(s)	Campo_(V.s)	Magnetizacion_(V.s)	Campo_(kA/m)	Magnetizacion_(A/m)
0.000000e+00	-5.415761e-06	-2.524625e-09	-3.840550e+01	-1.638182e+02
1.000000e-08	-5.415878e-06	-2.526650e-09	-3.840632e+01	-1.637683e+02
2.000000e-08	-5.415733e-06	-2.525441e-09	-3.840530e+01	-1.637228e+02
3.000000e-08	-5.415329e-06	-2.522214e-09	-3.840243e+01	-1.636826e+02
4.000000e-08	-5.414491e-06	-2.523048e-09	-3.839649e+01	-1.636488e+02
5.000000e-08	-5.413044e-06	-2.528259e-09	-3.838623e+01	-1.636223e+02
6.000000e-08	-5.410996e-06	-2.536345e-09	-3.837171e+01	-1.636038e+02
7.000000e-08	-5.408492e-06	-2.535699e-09	-3.835394e+01	-1.635940e+02
8.000000e-08	-5.405436e-06	-2.500721e-09	-3.833228e+01	-1.635933e+02
9.000000e-08	-5.401700e-06	-2.484030e-09	-3.830579e+01	-1.636021e+02
1.000000e-07	-5.397570e-06	-2.576162e-09	-3.827650e+01	-1.636205e+02
1.100000e-07	-5.393298e-06	-2.609636e-09	-3.824620e+01	-1.636484e+02
1.200000e-07	-5.388783e-06	-2.509595e-09	-3.821418e+01	-1.636857e+02
1.300000e-07	-5.383922e-06	-2.437543e-09	-3.817971e+01	-1.637320e+02
1.400000e-07	-5.378693e-06	-2.545413e-09	-3.814263e+01	-1.637867e+02
1.500000e-07	-5.373031e-06	-2.624708e-09	-3.810248e+01	-1.638492e+02
1.600000e-07	-5.366994e-06	-2.479943e-09	-3.805967e+01	-1.639186e+02
1.700000e-07	-5.360606e-06	-2.403143e-09	-3.801437e+01	-1.639939e+02
1.800000e-07	-5.353837e-06	-2.547585e-09	-3.796636e+01	-1.640741e+02
1.900000e-07	-5.346739e-06	-2.640318e-09	-3.791603e+01	-1.641578e+02
2.000000e-07	-5.339367e-06	-2.514644e-09	-3.786375e+01	-1.642439e+02
2.100000e-07	-5.331685e-06	-2.468951e-09	-3.780927e+01	-1.643310e+02
2.200000e-07	-5.323781e-06	-2.580049e-09	-3.775322e+01	-1.644176e+02
2.300000e-07	-5.315647e-06	-2.589083e-09	-3.769554e+01	-1.645025e+02
2.400000e-07	-5.307055e-06	-2.485863e-09	-3.763461e+01	-1.645842e+02
2.500000e-07	-5.297850e-06	-2.524717e-09	-3.756934e+01	-1.646612e+02
2.600000e-07	-5.287945e-06	-2.618901e-09	-3.749910e+01	-1.647324e+02
2.700000e-07	-5.277350e-06	-2.560633e-09	-3.742396e+01	-1.647964e+02
2.800000e-07	-5.266291e-06	-2.496490e-09	-3.734554e+01	-1.648519e+02
2.900000e-07	-5.254908e-06	-2.580767e-09	-3.726481e+01	-1.648980e+02
3.000000e-07	-5.243099e-06	-2.590504e-09	-3.718107e+01	-1.649337e+02
3.100000e-07	-5.230863e-06	-2.467028e-09	-3.709430e+01	-1.649580e+02
3.200000e-07	-5.218277e-06	-2.477155e-09	-3.700505e+01	-1.649703e+02
3.300000e-07	-5.205405e-06	-2.584984e-09	-3.691377e+01	-1.649699e+02
3.400000e-07	-5.192152e-06	-2.547019e-09	-3.681979e+01	-1.649565e+02
3.500000e-07	-5.178503e-06	-2.483146e-09	-3.672300e+01	-1.649296e+02
3.600000e-07	-5.164488e-06	-2.540969e-09	-3.662361e+01	-1.648892e+02
3.700000e-07	-5.150045e-06	-2.561597e-09	-3.652119e+01	-1.648351e+02
3.800000e-07	-5.135157e-06	-2.499555e-09	-3.641561e+01	-1.647676e+02
3.900000e-07	-5.119650e-06	-2.510527e-09	-3.630564e+01	-1.646868e+02
4.000000e-07	-5.103543e-06	-2.534146e-09	-3.619142e+01	-1.645930e+02
4.100000e-07	-5.087058e-06	-2.485334e-09	-3.607452e+01	-1.644868e+02
4.200000e-07	-5.070264e-06	-2.491706e-09	-3.595543e+01	-1.643686e+02
4.300000e-07	-5.053175e-06	-2.541656e-09	-3.583425e+01	-1.642391e+02
4.400000e-07	-5.035745e-06	-2.513289e-09	-3.571064e+01	-1.640989e+02
4.500000e-07	-5.017955e-06	-2.473149e-09	-3.558448e+01	-1.639489e+02
4.600000e-07	-4.999846e-06	-2.514237e-09	-3.545606e+01	-1.637897e+02
4.700000e-07	-4.981386e-06	-2.529313e-09	-3.532516e+01	-1.636222e+02
4.800000e-07	-4.962482e-06	-2.495585e-09	-3.519110e+01	-1.634471e+02
4.900000e-07	-4.943165e-06	-2.483430e-09	-3.505411e+01	-1.632652e+02
5.000000e-07	-4.923520e-06	-2.496498e-09	-3.491480e+01	-1.630774e+02
5.100000e-07	-4.903658e-06	-2.497700e-09	-3.477395e+01	-1.628844e+02
5.200000e-07	-4.883660e-06	-2.499100e-09	-3.463214e+01	-1.626869e+02
5.300000e-07	-4.863395e-06	-2.481403e-09	-3.448843e+01	-1.624855e+02
5.400000e-07	-4.842765e-06	-2.467325e-09	-3.434214e+01	-1.622810e+02
5.500000e-07	-4.821775e-06	-2.481377e-09	-3.419328e+01	-1.620738e+02
5.600000e-07	-4.800446e-06	-2.488741e-09	-3.404203e+01	-1.618644e+02
5.700000e-07	-4.778762e-06	-2.463812e-09	-3.388826e+01	-1.616534e+02
5.800000e-07	-4.756775e-06	-2.456790e-09	-3.373234e+01	-1.614409e+02
5.900000e-07	-4.734527e-06	-2.465381e-09	-3.357457e+01	-1.612275e+02
6.000000e-07	-4.711904e-06	-2.467039e-09	-3.341414e+01	-1.610132e+02
6.100000e-07	-4.688864e-06	-2.457895e-09	-3.325075e+01	-1.607984e+02
6.200000e-07	-4.665529e-06	-2.440887e-09	-3.308527e+01	-1.605830e+02
6.300000e-07	-4.641943e-06	-2.428880e-09	-3.291802e+01	-1.603672e+02
6.400000e-07	-4.618129e-06	-2.439508e-09	-3.274914e+01	-1.601510e+02
6.500000e-07	-4.594136e-06	-2.441785e-09	-3.257900e+01	-1.599343e+02
6.600000e-07	-4.569855e-06	-2.419238e-09	-3.240681e+01	-1.597172e+02
6.700000e-07	-4.545193e-06	-2.416786e-09	-3.223193e+01	-1.594994e+02
6.800000e-07	-4.520163e-06	-2.434582e-09	-3.205442e+01	-1.592808e+02
6.900000e-07	-4.494658e-06	-2.434930e-09	-3.187355e+01	-1.590614e+02
7.000000e-07	-4.468591e-06	-2.415858e-09	-3.168870e+01	-1.588409e+02
7.100000e-07	-4.441988e-06	-2.401131e-09	-3.150005e+01	-1.586191e+02
7.200000e-07	-4.414902e-06	-2.396281e-09	-3.130797e+01	-1.583958e+02
7.300000e-07	-4.387539e-06	-2.399617e-09	-3.111393e+01	-1.581708e+02
7.400000e-07	-4.359931e-06	-2.393670e-09	-3.091815e+01	-1.579439e+02
7.500000e-07	-4.332119e-06	-2.384215e-09	-3.072092e+01	-1.577149e+02
7.600000e-07	-4.304206e-06	-2.385100e-09	-3.052298e+01	-1.574836e+02
7.700000e-07	-4.276079e-06	-2.390536e-09	-3.032352e+01	-1.572497e+02
7.800000e-07	-4.247653e-06	-2.379381e-09	-3.012193e+01	-1.570130e+02
7.900000e-07	-4.218929e-06	-2.361995e-09	-2.991824e+01	-1.567734e+02
8.000000e-07	-4.189834e-06	-2.351980e-09	-2.971192e+01	-1.565306e+02
8.100000e-07	-4.160369e-06	-2.352076e-09	-2.950297e+01	-1.562844e+02
8.200000e-07	-4.130690e-06	-2.351968e-09	-2.929250e+01	-1.560348e+02
8.300000e-07	-4.100770e-06	-2.348863e-09	-2.908033e+01	-1.557814e+02
8.400000e-07	-4.070531e-06	-2.344427e-09	-2.886589e+01	-1.555242e+02
8.500000e-07	-4.040100e-06	-2.346036e-09	-2.865009e+01	-1.552631e+02
8.600000e-07	-4.009472e-06	-2.343040e-09	-2.843290e+01	-1.549978e+02
8.700000e-07	-3.978510e-06	-2.330903e-09	-2.821333e+01	-1.547283e+02
8.800000e-07	-3.947246e-06	-2.315685e-09	-2.799162e+01	-1.544544e+02
8.900000e-07	-3.915698e-06	-2.312353e-09	-2.776790e+01	-1.541761e+02
9.000000e-07	-3.883946e-06	-2.316289e-09	-2.754274e+01	-1.538933e+02
9.100000e-07	-3.852096e-06	-2.313038e-09	-2.731688e+01	-1.536060e+02
9.200000e-07	-3.820044e-06	-2.303272e-09	-2.708958e+01	-1.533141e+02
9.300000e-07	-3.787718e-06	-2.298057e-09	-2.686034e+01	-1.530176e+02
9.400000e-07	-3.755128e-06	-2.296376e-09	-2.662923e+01	-1.527166e+02
9.500000e-07	-3.722202e-06	-2.289859e-09	-2.639574e+01	-1.524110e+02
9.600000e-07	-3.688858e-06	-2.279731e-09	-2.615928e+01	-1.521010e+02
9.700000e-07	-3.655004e-06	-2.274790e-09	-2.591921e+01	-1.517866e+02
9.800000e-07	-3.620738e-06	-2.275938e-09	-2.567621e+01	-1.514680e+02
9.900000e-07	-3.586141e-06	-2.271868e-09	-2.543087e+01	-1.511453e+02
1.000000e-06	-3.551198e-06	-2.261354e-09	-2.518307e+01	-1.508186e+02
1.010000e-06	-3.515934e-06	-2.250526e-09	-2.493301e+01	-1.504882e+02
1.020000e-06	-3.480409e-06	-2.243714e-09	-2.468108e+01	-1.501542e+02
1.030000e-06	-3.444737e-06	-2.236532e-09	-2.442811e+01	-1.498169e+02
1.040000e-06	-3.408939e-06	-2.230713e-09	-2.417425e+01	-1.494765e+02
1.050000e-06	-3.373008e-06	-2.226458e-09	-2.391945e+01	-1.491332e+02
1.060000e-06	-3.336899e-06	-2.225637e-09	-2.366339e+01	-1.487873e+02
1.070000e-06	-3.300589e-06	-2.223445e-09	-2.340590e+01	-1.484390e+02
1.080000e-06	-3.263971e-06	-2.215075e-09	-2.314623e+01	-1.480886e+02
1.090000e-06	-3.227088e-06	-2.202533e-09	-2.288467e+01	-1.477363e+02
1.100000e-06	-3.190050e-06	-2.195520e-09	-2.262202e+01	-1.473822e+02
1.110000e-06	-3.152827e-06	-2.191711e-09	-2.235805e+01	-1.470265e+02
1.120000e-06	-3.115360e-06	-2.186542e-09	-2.209236e+01	-1.466694e+02
1.130000e-06	-3.077671e-06	-2.179283e-09	-2.182509e+01	-1.463109e+02
1.140000e-06	-3.039795e-06	-2.174643e-09	-2.155650e+01	-1.459511e+02
1.150000e-06	-3.001708e-06	-2.171194e-09	-2.128640e+01	-1.455900e+02
1.160000e-06	-2.963440e-06	-2.165394e-09	-2.101503e+01	-1.452275e+02
1.170000e-06	-2.924970e-06	-2.154868e-09	-2.074222e+01	-1.448634e+02
1.180000e-06	-2.886215e-06	-2.144019e-09	-2.046740e+01	-1.444976e+02
1.190000e-06	-2.847183e-06	-2.137900e-09	-2.019060e+01	-1.441299e+02
1.200000e-06	-2.807897e-06	-2.132807e-09	-1.991200e+01	-1.437598e+02
1.210000e-06	-2.768414e-06	-2.124314e-09	-1.963201e+01	-1.433871e+02
1.220000e-06	-2.728862e-06	-2.114951e-09	-1.935154e+01	-1.430112e+02
1.230000e-06	-2.689216e-06	-2.110247e-09	-1.907039e+01	-1.426317e+02
1.240000e-06	-2.649404e-06	-2.109744e-09	-1.878806e+01	-1.422480e+02
1.250000e-06	-2.609489e-06	-2.107927e-09	-1.850501e+01	-1.418595e+02
1.260000e-06	-2.569534e-06	-2.100857e-09	-1.822168e+01	-1.414654e+02
1.270000e-06	-2.529502e-06	-2.091085e-09	-1.793779e+01	-1.410652e+02
1.280000e-06	-2.489350e-06	-2.082285e-09	-1.765305e+01	-1.406581e+02
1.290000e-06	-2.449028e-06	-2.075394e-09	-1.736711e+01	-1.402434e+02
1.300000e-06	-2.408487e-06	-2.066308e-09	-1.707962e+01	-1.398203e+02
1.310000e-06	-2.367719e-06	-2.055737e-09	-1.679052e+01	-1.393881e+02
1.320000e-06	-2.326699e-06	-2.048690e-09	-1.649963e+01	-1.389460e+02
1.330000e-06	-2.285302e-06	-2.044972e-09	-1.620606e+01	-1.384934e+02
1.340000e-06	-2.243456e-06	-2.039031e-09	-1.590931e+01	-1.380296e+02
1.350000e-06	-2.201392e-06	-2.028068e-09	-1.561102e+01	-1.375539e+02
1.360000e-06	-2.159222e-06	-2.015638e-09	-1.531197e+01	-1.370657e+02
1.370000e-06	-2.116771e-06	-2.006563e-09	-1.501093e+01	-1.365645e+02
1.380000e-06	-2.074010e-06	-1.997968e-09	-1.470770e+01	-1.360499e+02
1.390000e-06	-2.031010e-06	-1.987119e-09	-1.440277e+01	-1.355213e+02
1.400000e-06	-1.987798e-06	-1.976764e-09	-1.409633e+01	-1.349785e+02
1.410000e-06	-1.944447e-06	-1.970454e-09	-1.378891e+01	-1.344212e+02
1.420000e-06	-1.900972e-06	-1.964589e-09	-1.348061e+01	-1.338491e+02
1.430000e-06	-1.857450e-06	-1.953462e-09	-1.317198e+01	-1.332621e+02
1.440000e-06	-1.813864e-06	-1.938595e-09	-1.286289e+01	-1.326600e+02
1.450000e-06	-1.770099e-06	-1.927966e-09	-1.255254e+01	-1.320429e+02
1.460000e-06	-1.726256e-06	-1.921047e-09	-1.224163e+01	-1.314106e+02
1.470000e-06	-1.682367e-06	-1.910652e-09	-1.193039e+01	-1.307633e+02
1.480000e-06	-1.638430e-06	-1.895159e-09	-1.161881e+01	-1.301010e+02
1.490000e-06	-1.594365e-06	-1.883215e-09	-1.130633e+01	-1.294236e+02
1.500000e-06	-1.550161e-06	-1.877821e-09	-1.099286e+01	-1.287314e+02
1.510000e-06	-1.505902e-06	-1.872837e-09	-1.067900e+01	-1.280243e+02
1.520000e-06	-1.461572e-06	-1.863042e-09	-1.036464e+01	-1.273024e+02
1.530000e-06	-1.417213e-06	-1.851648e-09	-1.005007e+01	-1.265657e+02
1.540000e-06	-1.372851e-06	-1.841808e-09	-9.735475e+00	-1.258141e+02
1.550000e-06	-1.328363e-06	-1.827882e-09	-9.419991e+00	-1.250475e+02
1.560000e-06	-1.283734e-06	-1.807756e-09	-9.103510e+00	-1.242657e+02
1.570000e-06	-1.239060e-06	-1.788218e-09	-8.786710e+00	-1.234686e+02
1.580000e-06	-1.194337e-06	-1.777028e-09	-8.469558e+00	-1.226557e+02
1.590000e-06	-1.149493e-06	-1.771478e-09	-8.151548e+00	-1.218266e+02
1.600000e-06	-1.104524e-06	-1.765059e-09	-7.832658e+00	-1.209809e+02
1.610000e-06	-1.059515e-06	-1.754024e-09	-7.513476e+00	-1.201178e+02
1.620000e-06	-1.014365e-06	-1.740798e-09	-7.193299e+00	-1.192368e+02
1.630000e-06	-9.690547e-07	-1.725478e-09	-6.871984e+00	-1.183368e+02
1.640000e-06	-9.237167e-07	-1.704796e-09	-6.550473e+00	-1.174172e+02
1.650000e-06	-8.783778e-07	-1.683528e-09	-6.228955e+00	-1.164768e+02
1.660000e-06	-8.329764e-07	-1.669990e-09	-5.906995e+00	-1.155145e+02
1.670000e-06	-7.874495e-07	-1.663231e-09	-5.584144e+00	-1.145293e+02
1.680000e-06	-7.419146e-07	-1.654720e-09	-5.261236e+00	-1.135198e+02
1.690000e-06	-6.963448e-07	-1.638709e-09	-4.938081e+00	-1.124847e+02
1.700000e-06	-6.506853e-07	-1.619419e-09	-4.614290e+00	-1.114228e+02
1.710000e-06	-6.049714e-07	-1.600985e-09	-4.290113e+00	-1.103326e+02
1.720000e-06	-5.592633e-07	-1.580738e-09	-3.965977e+00	-1.092128e+02
1.730000e-06	-5.135716e-07	-1.556898e-09	-3.641958e+00	-1.080618e+02
1.740000e-06	-4.677998e-07	-1.536623e-09	-3.317370e+00	-1.068783e+02
1.750000e-06	-4.219451e-07	-1.525452e-09	-2.992195e+00	-1.056608e+02
1.760000e-06	-3.760373e-07	-1.517802e-09	-2.666643e+00	-1.044080e+02
1.770000e-06	-3.301196e-07	-1.503697e-09	-2.341021e+00	-1.031184e+02
1.780000e-06	-2.841831e-07	-1.482144e-09	-2.015265e+00	-1.017908e+02
1.790000e-06	-2.382054e-07	-1.460458e-09	-1.689217e+00	-1.004237e+02
1.800000e-06	-1.922125e-07	-1.438757e-09	-1.363062e+00	-9.901593e+01
1.810000e-06	-1.463103e-07	-1.413505e-09	-1.037549e+00	-9.756629e+01
1.820000e-06	-1.004175e-07	-1.386699e-09	-7.121036e-01	-9.607359e+01
1.830000e-06	-5.443896e-08	-1.363165e-09	-3.860501e-01	-9.453672e+01
1.840000e-06	-8.518856e-09	-1.344193e-09	-6.041088e-02	-9.295459e+01
1.850000e-06	3.729176e-08	-1.325086e-09	2.644519e-01	-9.132620e+01
1.860000e-06	8.308922e-08	-1.301786e-09	5.892214e-01	-8.965056e+01
1.870000e-06	1.288994e-07	-1.274644e-09	9.140809e-01	-8.792673e+01
1.880000e-06	1.747557e-07	-1.246655e-09	1.239268e+00	-8.615381e+01
1.890000e-06	2.206728e-07	-1.217799e-09	1.564886e+00	-8.433094e+01
1.900000e-06	2.666118e-07	-1.186373e-09	1.890659e+00	-8.245725e+01
1.910000e-06	3.124948e-07	-1.155502e-09	2.216035e+00	-8.053194e+01
1.920000e-06	3.583280e-07	-1.127985e-09	2.541058e+00	-7.855419e+01
1.930000e-06	4.041693e-07	-1.102746e-09	2.866139e+00	-7.652321e+01
1.940000e-06	4.499221e-07	-1.074026e-09	3.190591e+00	-7.443821e+01
1.950000e-06	4.956166e-07	-1.040421e-09	3.514631e+00	-7.229844e+01
1.960000e-06	5.413187e-07	-1.004767e-09	3.838724e+00	-7.010312e+01
1.970000e-06	5.869954e-07	-9.685927e-10	4.162637e+00	-6.785153e+01
1.980000e-06	6.325793e-07	-9.330222e-10	4.485893e+00	-6.554294e+01
1.990000e-06	6.780786e-07	-8.988745e-10	4.808547e+00	-6.317667e+01
2.000000e-06	7.235203e-07	-8.648020e-10	5.130794e+00	-6.075207e+01
2.010000e-06	7.689323e-07	-8.301915e-10	5.452830e+00	-5.826853e+01
2.020000e-06	8.143640e-07	-7.952002e-10	5.775006e+00	-5.572555e+01
2.030000e-06	8.597226e-07	-7.590205e-10	6.096664e+00	-5.312265e+01
2.040000e-06	9.049645e-07	-7.201206e-10	6.417493e+00	-5.045949e+01
2.050000e-06	9.501160e-07	-6.764665e-10	6.737682e+00	-4.773585e+01
2.060000e-06	9.952395e-07	-6.310915e-10	7.057673e+00	-4.495164e+01
2.070000e-06	1.040334e-06	-5.912863e-10	7.377457e+00	-4.210693e+01
2.080000e-06	1.085334e-06	-5.546303e-10	7.696574e+00	-3.920198e+01
2.090000e-06	1.130269e-06	-5.149080e-10	8.015226e+00	-3.623725e+01
2.100000e-06	1.175090e-06	-4.718235e-10	8.333070e+00	-3.321345e+01
2.110000e-06	1.219769e-06	-4.285080e-10	8.649905e+00	-3.013151e+01
2.120000e-06	1.264395e-06	-3.845674e-10	8.966371e+00	-2.699265e+01
2.130000e-06	1.308893e-06	-3.365664e-10	9.281925e+00	-2.379837e+01
2.140000e-06	1.353304e-06	-2.812936e-10	9.596864e+00	-2.055046e+01
2.150000e-06	1.397705e-06	-2.249616e-10	9.911726e+00	-1.725104e+01
2.160000e-06	1.441947e-06	-1.758674e-10	1.022547e+01	-1.390253e+01
2.170000e-06	1.486041e-06	-1.314194e-10	1.053816e+01	-1.050771e+01
2.180000e-06	1.530044e-06	-8.468603e-11	1.085020e+01	-7.069655e+00
2.190000e-06	1.573993e-06	-3.686943e-11	1.116187e+01	-3.591776e+00
2.200000e-06	1.617917e-06	8.190555e-12	1.147335e+01	-7.780192e-02
2.210000e-06	1.661827e-06	5.884409e-11	1.178473e+01	3.468235e+00
2.220000e-06	1.705678e-06	1.205709e-10	1.209570e+01	7.042013e+00
2.230000e-06	1.749452e-06	1.865084e-10	1.240612e+01	1.063895e+01
2.240000e-06	1.793189e-06	2.464060e-10	1.271628e+01	1.425420e+01
2.250000e-06	1.836818e-06	2.979252e-10	1.302567e+01	1.788274e+01
2.260000e-06	1.880340e-06	3.455353e-10	1.333430e+01	2.151933e+01
2.270000e-06	1.923801e-06	3.945348e-10	1.364251e+01	2.515860e+01
2.280000e-06	1.967168e-06	4.436157e-10	1.395004e+01	2.879508e+01
2.290000e-06	2.010306e-06	4.952811e-10	1.425594e+01	3.242322e+01
2.300000e-06	2.053201e-06	5.544907e-10	1.456013e+01	3.603746e+01
2.310000e-06	2.095943e-06	6.194036e-10	1.486323e+01	3.963224e+01
2.320000e-06	2.138380e-06	6.788485e-10	1.516418e+01	4.320208e+01
2.330000e-06	2.180483e-06	7.266374e-10	1.546274e+01	4.674159e+01
2.340000e-06	2.222393e-06	7.670487e-10	1.575995e+01	5.024556e+01
2.350000e-06	2.264095e-06	8.079873e-10	1.605567e+01	5.370894e+01
2.360000e-06	2.305524e-06	8.539038e-10	1.634946e+01	5.712690e+01
2.370000e-06	2.346693e-06	9.036082e-10	1.664141e+01	6.049491e+01
2.380000e-06	2.387540e-06	9.568688e-10	1.693107e+01	6.380872e+01
2.390000e-06	2.428174e-06	1.013373e-09	1.721923e+01	6.706438e+01
2.400000e-06	2.468677e-06	1.067361e-09	1.750645e+01	7.025833e+01
2.410000e-06	2.508940e-06	1.111447e-09	1.779197e+01	7.338735e+01
2.420000e-06	2.549011e-06	1.145273e-09	1.807613e+01	7.644863e+01
2.430000e-06	2.588938e-06	1.177718e-09	1.835927e+01	7.943972e+01
2.440000e-06	2.628750e-06	1.213818e-09	1.864160e+01	8.235861e+01
2.450000e-06	2.668505e-06	1.252396e-09	1.892352e+01	8.520367e+01
2.460000e-06	2.708256e-06	1.294563e-09	1.920541e+01	8.797366e+01
2.470000e-06	2.747896e-06	1.339925e-09	1.948651e+01	9.066774e+01
2.480000e-06	2.787317e-06	1.384894e-09	1.976607e+01	9.328544e+01
2.490000e-06	2.826542e-06	1.423888e-09	2.004423e+01	9.582664e+01
2.500000e-06	2.865511e-06	1.455285e-09	2.032057e+01	9.829156e+01
2.510000e-06	2.904200e-06	1.483406e-09	2.059494e+01	1.006807e+02
2.520000e-06	2.942699e-06	1.514863e-09	2.086794e+01	1.029950e+02
2.530000e-06	2.981048e-06	1.547627e-09	2.113989e+01	1.052354e+02
2.540000e-06	3.019141e-06	1.579494e-09	2.141003e+01	1.074032e+02
2.550000e-06	3.056943e-06	1.614463e-09	2.167810e+01	1.094999e+02
2.560000e-06	3.094592e-06	1.650281e-09	2.194508e+01	1.115272e+02
2.570000e-06	3.132153e-06	1.678309e-09	2.221145e+01	1.134867e+02
2.580000e-06	3.169563e-06	1.698287e-09	2.247674e+01	1.153805e+02
2.590000e-06	3.206736e-06	1.717282e-09	2.274035e+01	1.172104e+02
2.600000e-06	3.243627e-06	1.741303e-09	2.300196e+01	1.189785e+02
2.610000e-06	3.280184e-06	1.769805e-09	2.326120e+01	1.206866e+02
2.620000e-06	3.316433e-06	1.796492e-09	2.351826e+01	1.223368e+02
2.630000e-06	3.352555e-06	1.820167e-09	2.377441e+01	1.239310e+02
2.640000e-06	3.388596e-06	1.844240e-09	2.403000e+01	1.254712e+02
2.650000e-06	3.424523e-06	1.864904e-09	2.428477e+01	1.269591e+02
2.660000e-06	3.460350e-06	1.879485e-09	2.453884e+01	1.283966e+02
2.670000e-06	3.495976e-06	1.892809e-09	2.479147e+01	1.297854e+02
2.680000e-06	3.531382e-06	1.910061e-09	2.504255e+01	1.311270e+02
2.690000e-06	3.566679e-06	1.930184e-09	2.529286e+01	1.324229e+02
2.700000e-06	3.601731e-06	1.949234e-09	2.554143e+01	1.336746e+02
2.710000e-06	3.636379e-06	1.968664e-09	2.578713e+01	1.348835e+02
2.720000e-06	3.670526e-06	1.990964e-09	2.602928e+01	1.360507e+02
2.730000e-06	3.704046e-06	2.011208e-09	2.626699e+01	1.371775e+02
2.740000e-06	3.737081e-06	2.024659e-09	2.650125e+01	1.382649e+02
2.750000e-06	3.769751e-06	2.034806e-09	2.673293e+01	1.393140e+02
2.760000e-06	3.802072e-06	2.047138e-09	2.696213e+01	1.403259e+02
2.770000e-06	3.834191e-06	2.062760e-09	2.718990e+01	1.413015e+02
2.780000e-06	3.866186e-06	2.078715e-09	2.741679e+01	1.422417e+02
2.790000e-06	3.898014e-06	2.092856e-09	2.764250e+01	1.431475e+02
2.800000e-06	3.929633e-06	2.107478e-09	2.786672e+01	1.440198e+02
2.810000e-06	3.961023e-06	2.123082e-09	2.808932e+01	1.448594e+02
2.820000e-06	3.992220e-06	2.134173e-09	2.831055e+01	1.456674e+02
2.830000e-06	4.023146e-06	2.140369e-09	2.852986e+01	1.464446e+02
2.840000e-06	4.053705e-06	2.149103e-09	2.874657e+01	1.471919e+02
2.850000e-06	4.084006e-06	2.164820e-09	2.896145e+01	1.479103e+02
2.860000e-06	4.114130e-06	2.180763e-09	2.917507e+01	1.486008e+02
2.870000e-06	4.143945e-06	2.191538e-09	2.938650e+01	1.492643e+02
2.880000e-06	4.173484e-06	2.199408e-09	2.959597e+01	1.499019e+02
2.890000e-06	4.202768e-06	2.207502e-09	2.980364e+01	1.505145e+02
2.900000e-06	4.231647e-06	2.213201e-09	3.000843e+01	1.511031e+02
