# Temperatura_=_0.78
# Concentracion g/m^3_=_4090.0
# C_Vs_to_Am_M_A/Vsm_=_65563218390.804596
# pendiente_HvsI_1/m_=_3716.3
# ordenada_HvsI_A/m_=_1297.0
# frecuencia_Hz_=_135065.4449569381

Tiempo_(s)	Campo_(V.s)	Magnetizacion_(V.s)	Campo_(kA/m)	Magnetizacion_(A/m)
0.000000e+00	-5.407365e-06	-2.513207e-09	-3.841011e+01	-1.651504e+02
1.000000e-08	-5.407479e-06	-2.511900e-09	-3.841092e+01	-1.650657e+02
2.000000e-08	-5.407368e-06	-2.514376e-09	-3.841013e+01	-1.649849e+02
3.000000e-08	-5.406879e-06	-2.514643e-09	-3.840666e+01	-1.649098e+02
4.000000e-08	-5.406037e-06	-2.510918e-09	-3.840068e+01	-1.648423e+02
5.000000e-08	-5.404765e-06	-2.507318e-09	-3.839165e+01	-1.647840e+02
6.000000e-08	-5.402971e-06	-2.502259e-09	-3.837890e+01	-1.647365e+02
7.000000e-08	-5.400582e-06	-2.488037e-09	-3.836193e+01	-1.647012e+02
8.000000e-08	-5.397519e-06	-2.481715e-09	-3.834018e+01	-1.646790e+02
9.000000e-08	-5.393880e-06	-2.524450e-09	-3.831433e+01	-1.646708e+02
1.000000e-07	-5.389820e-06	-2.587628e-09	-3.828548e+01	-1.646773e+02
1.100000e-07	-5.385503e-06	-2.553336e-09	-3.825482e+01	-1.646987e+02
1.200000e-07	-5.381080e-06	-2.481672e-09	-3.822340e+01	-1.647349e+02
1.300000e-07	-5.376409e-06	-2.479566e-09	-3.819023e+01	-1.647858e+02
1.400000e-07	-5.371300e-06	-2.557209e-09	-3.815393e+01	-1.648507e+02
1.500000e-07	-5.365785e-06	-2.529295e-09	-3.811476e+01	-1.649288e+02
1.600000e-07	-5.359958e-06	-2.440908e-09	-3.807337e+01	-1.650188e+02
1.700000e-07	-5.353667e-06	-2.476046e-09	-3.802868e+01	-1.651193e+02
1.800000e-07	-5.346802e-06	-2.603099e-09	-3.797992e+01	-1.652287e+02
1.900000e-07	-5.339562e-06	-2.625274e-09	-3.792849e+01	-1.653452e+02
2.000000e-07	-5.332184e-06	-2.546461e-09	-3.787608e+01	-1.654667e+02
2.100000e-07	-5.324685e-06	-2.551943e-09	-3.782281e+01	-1.655910e+02
2.200000e-07	-5.316908e-06	-2.605009e-09	-3.776757e+01	-1.657158e+02
2.300000e-07	-5.308835e-06	-2.602019e-09	-3.771023e+01	-1.658388e+02
2.400000e-07	-5.300387e-06	-2.578032e-09	-3.765022e+01	-1.659576e+02
2.500000e-07	-5.291293e-06	-2.623627e-09	-3.758562e+01	-1.660700e+02
2.600000e-07	-5.281396e-06	-2.640574e-09	-3.751532e+01	-1.661735e+02
2.700000e-07	-5.270889e-06	-2.619973e-09	-3.744069e+01	-1.662659e+02
2.800000e-07	-5.259913e-06	-2.617362e-09	-3.736272e+01	-1.663453e+02
2.900000e-07	-5.248570e-06	-2.636121e-09	-3.728214e+01	-1.664097e+02
3.000000e-07	-5.236942e-06	-2.589558e-09	-3.719955e+01	-1.664574e+02
3.100000e-07	-5.224898e-06	-2.556685e-09	-3.711400e+01	-1.664870e+02
3.200000e-07	-5.212355e-06	-2.600555e-09	-3.702490e+01	-1.664971e+02
3.300000e-07	-5.199392e-06	-2.630961e-09	-3.693282e+01	-1.664869e+02
3.400000e-07	-5.186138e-06	-2.580171e-09	-3.683868e+01	-1.664556e+02
3.500000e-07	-5.172582e-06	-2.566536e-09	-3.674238e+01	-1.664028e+02
3.600000e-07	-5.158605e-06	-2.600679e-09	-3.664310e+01	-1.663284e+02
3.700000e-07	-5.144189e-06	-2.598949e-09	-3.654070e+01	-1.662325e+02
3.800000e-07	-5.129202e-06	-2.558787e-09	-3.643424e+01	-1.661155e+02
3.900000e-07	-5.113481e-06	-2.560596e-09	-3.632257e+01	-1.659782e+02
4.000000e-07	-5.097311e-06	-2.573057e-09	-3.620771e+01	-1.658213e+02
4.100000e-07	-5.080941e-06	-2.567263e-09	-3.609143e+01	-1.656461e+02
4.200000e-07	-5.064208e-06	-2.568503e-09	-3.597257e+01	-1.654538e+02
4.300000e-07	-5.047014e-06	-2.565313e-09	-3.585043e+01	-1.652460e+02
4.400000e-07	-5.029522e-06	-2.547379e-09	-3.572618e+01	-1.650240e+02
4.500000e-07	-5.011806e-06	-2.540787e-09	-3.560034e+01	-1.647898e+02
4.600000e-07	-4.993693e-06	-2.555763e-09	-3.547168e+01	-1.645449e+02
4.700000e-07	-4.975229e-06	-2.544169e-09	-3.534053e+01	-1.642912e+02
4.800000e-07	-4.956398e-06	-2.532706e-09	-3.520676e+01	-1.640304e+02
4.900000e-07	-4.937153e-06	-2.538523e-09	-3.507006e+01	-1.637643e+02
5.000000e-07	-4.917643e-06	-2.548750e-09	-3.493147e+01	-1.634944e+02
5.100000e-07	-4.897915e-06	-2.534425e-09	-3.479134e+01	-1.632223e+02
5.200000e-07	-4.877984e-06	-2.523264e-09	-3.464977e+01	-1.629495e+02
5.300000e-07	-4.857773e-06	-2.513305e-09	-3.450620e+01	-1.626772e+02
5.400000e-07	-4.837202e-06	-2.516540e-09	-3.436008e+01	-1.624065e+02
5.500000e-07	-4.816197e-06	-2.517138e-09	-3.421088e+01	-1.621384e+02
5.600000e-07	-4.794896e-06	-2.511289e-09	-3.405956e+01	-1.618736e+02
5.700000e-07	-4.773336e-06	-2.496944e-09	-3.390642e+01	-1.616125e+02
5.800000e-07	-4.751483e-06	-2.501645e-09	-3.375119e+01	-1.613557e+02
5.900000e-07	-4.729365e-06	-2.506203e-09	-3.359408e+01	-1.611032e+02
6.000000e-07	-4.706848e-06	-2.499788e-09	-3.343413e+01	-1.608550e+02
6.100000e-07	-4.684003e-06	-2.483956e-09	-3.327186e+01	-1.606108e+02
6.200000e-07	-4.660854e-06	-2.478496e-09	-3.310742e+01	-1.603704e+02
6.300000e-07	-4.637392e-06	-2.478488e-09	-3.294077e+01	-1.601331e+02
6.400000e-07	-4.613680e-06	-2.479305e-09	-3.277233e+01	-1.598984e+02
6.500000e-07	-4.589788e-06	-2.468209e-09	-3.260263e+01	-1.596654e+02
6.600000e-07	-4.565657e-06	-2.456093e-09	-3.243121e+01	-1.594334e+02
6.700000e-07	-4.541151e-06	-2.459072e-09	-3.225714e+01	-1.592013e+02
6.800000e-07	-4.516187e-06	-2.469421e-09	-3.207981e+01	-1.589683e+02
6.900000e-07	-4.490726e-06	-2.466035e-09	-3.189896e+01	-1.587333e+02
7.000000e-07	-4.464817e-06	-2.453531e-09	-3.171492e+01	-1.584955e+02
7.100000e-07	-4.438452e-06	-2.447911e-09	-3.152764e+01	-1.582539e+02
7.200000e-07	-4.411593e-06	-2.444888e-09	-3.133685e+01	-1.580077e+02
7.300000e-07	-4.384292e-06	-2.437756e-09	-3.114292e+01	-1.577559e+02
7.400000e-07	-4.356704e-06	-2.424878e-09	-3.094696e+01	-1.574979e+02
7.500000e-07	-4.328892e-06	-2.418679e-09	-3.074940e+01	-1.572331e+02
7.600000e-07	-4.300904e-06	-2.418651e-09	-3.055059e+01	-1.569608e+02
7.700000e-07	-4.272752e-06	-2.421253e-09	-3.035062e+01	-1.566808e+02
7.800000e-07	-4.244360e-06	-2.412929e-09	-3.014894e+01	-1.563927e+02
7.900000e-07	-4.215687e-06	-2.404247e-09	-2.994527e+01	-1.560963e+02
8.000000e-07	-4.186659e-06	-2.401505e-09	-2.973907e+01	-1.557916e+02
8.100000e-07	-4.157322e-06	-2.402041e-09	-2.953069e+01	-1.554786e+02
8.200000e-07	-4.127779e-06	-2.393036e-09	-2.932084e+01	-1.551575e+02
8.300000e-07	-4.097976e-06	-2.382390e-09	-2.910913e+01	-1.548286e+02
8.400000e-07	-4.067853e-06	-2.374019e-09	-2.889516e+01	-1.544921e+02
8.500000e-07	-4.037380e-06	-2.371212e-09	-2.867870e+01	-1.541485e+02
8.600000e-07	-4.006524e-06	-2.360162e-09	-2.845952e+01	-1.537984e+02
8.700000e-07	-3.975396e-06	-2.346726e-09	-2.823841e+01	-1.534422e+02
8.800000e-07	-3.944146e-06	-2.337999e-09	-2.801644e+01	-1.530804e+02
8.900000e-07	-3.912768e-06	-2.339441e-09	-2.779355e+01	-1.527138e+02
9.000000e-07	-3.881229e-06	-2.337716e-09	-2.756952e+01	-1.523428e+02
9.100000e-07	-3.849454e-06	-2.328061e-09	-2.734381e+01	-1.519681e+02
9.200000e-07	-3.817411e-06	-2.316691e-09	-2.711620e+01	-1.515902e+02
9.300000e-07	-3.785242e-06	-2.310436e-09	-2.688769e+01	-1.512096e+02
9.400000e-07	-3.752874e-06	-2.301241e-09	-2.665778e+01	-1.508267e+02
9.500000e-07	-3.720162e-06	-2.286961e-09	-2.642541e+01	-1.504420e+02
9.600000e-07	-3.687102e-06	-2.276354e-09	-2.619058e+01	-1.500558e+02
9.700000e-07	-3.653482e-06	-2.276324e-09	-2.595176e+01	-1.496684e+02
9.800000e-07	-3.619342e-06	-2.277856e-09	-2.570926e+01	-1.492800e+02
9.900000e-07	-3.584884e-06	-2.269087e-09	-2.546449e+01	-1.488907e+02
1.000000e-06	-3.550104e-06	-2.255994e-09	-2.521744e+01	-1.485005e+02
1.010000e-06	-3.514999e-06	-2.247520e-09	-2.496808e+01	-1.481094e+02
1.020000e-06	-3.479573e-06	-2.238850e-09	-2.471644e+01	-1.477173e+02
1.030000e-06	-3.443911e-06	-2.223868e-09	-2.446312e+01	-1.473240e+02
1.040000e-06	-3.408048e-06	-2.212871e-09	-2.420837e+01	-1.469293e+02
1.050000e-06	-3.372050e-06	-2.211077e-09	-2.395267e+01	-1.465330e+02
1.060000e-06	-3.335990e-06	-2.212800e-09	-2.369652e+01	-1.461345e+02
1.070000e-06	-3.299740e-06	-2.207761e-09	-2.343903e+01	-1.457337e+02
1.080000e-06	-3.263219e-06	-2.197172e-09	-2.317961e+01	-1.453301e+02
1.090000e-06	-3.226456e-06	-2.186306e-09	-2.291847e+01	-1.449232e+02
1.100000e-06	-3.189487e-06	-2.180010e-09	-2.265587e+01	-1.445126e+02
1.110000e-06	-3.152281e-06	-2.171262e-09	-2.239159e+01	-1.440979e+02
1.120000e-06	-3.114843e-06	-2.161240e-09	-2.212565e+01	-1.436786e+02
1.130000e-06	-3.077203e-06	-2.152824e-09	-2.185828e+01	-1.432544e+02
1.140000e-06	-3.039311e-06	-2.149159e-09	-2.158913e+01	-1.428247e+02
1.150000e-06	-3.001252e-06	-2.143838e-09	-2.131878e+01	-1.423891e+02
1.160000e-06	-2.963058e-06	-2.134830e-09	-2.104748e+01	-1.419474e+02
1.170000e-06	-2.924590e-06	-2.124034e-09	-2.077423e+01	-1.414991e+02
1.180000e-06	-2.885861e-06	-2.116769e-09	-2.049912e+01	-1.410439e+02
1.190000e-06	-2.847022e-06	-2.110665e-09	-2.022324e+01	-1.405816e+02
1.200000e-06	-2.807986e-06	-2.102571e-09	-1.994596e+01	-1.401118e+02
1.210000e-06	-2.768659e-06	-2.092918e-09	-1.966660e+01	-1.396343e+02
1.220000e-06	-2.729086e-06	-2.086995e-09	-1.938551e+01	-1.391489e+02
1.230000e-06	-2.689333e-06	-2.082130e-09	-1.910313e+01	-1.386554e+02
1.240000e-06	-2.649521e-06	-2.074026e-09	-1.882033e+01	-1.381537e+02
1.250000e-06	-2.609686e-06	-2.063791e-09	-1.853737e+01	-1.376436e+02
1.260000e-06	-2.569757e-06	-2.055441e-09	-1.825374e+01	-1.371250e+02
1.270000e-06	-2.529661e-06	-2.048919e-09	-1.796893e+01	-1.365977e+02
1.280000e-06	-2.489401e-06	-2.039377e-09	-1.768295e+01	-1.360615e+02
1.290000e-06	-2.449015e-06	-2.027885e-09	-1.739608e+01	-1.355165e+02
1.300000e-06	-2.408440e-06	-2.019174e-09	-1.710786e+01	-1.349624e+02
1.310000e-06	-2.367690e-06	-2.011778e-09	-1.681841e+01	-1.343992e+02
1.320000e-06	-2.326825e-06	-2.001330e-09	-1.652813e+01	-1.338266e+02
1.330000e-06	-2.285712e-06	-1.989627e-09	-1.623609e+01	-1.332446e+02
1.340000e-06	-2.244330e-06	-1.980255e-09	-1.594214e+01	-1.326530e+02
1.350000e-06	-2.202709e-06	-1.971990e-09	-1.564650e+01	-1.320517e+02
1.360000e-06	-2.160720e-06	-1.960856e-09	-1.534824e+01	-1.314403e+02
1.370000e-06	-2.118470e-06	-1.951069e-09	-1.504812e+01	-1.308188e+02
1.380000e-06	-2.076125e-06	-1.943991e-09	-1.474733e+01	-1.301869e+02
1.390000e-06	-2.033560e-06	-1.936886e-09	-1.444498e+01	-1.295445e+02
1.400000e-06	-1.990726e-06	-1.925989e-09	-1.414072e+01	-1.288912e+02
1.410000e-06	-1.947632e-06	-1.911976e-09	-1.383461e+01	-1.282268e+02
1.420000e-06	-1.904288e-06	-1.898487e-09	-1.352672e+01	-1.275511e+02
1.430000e-06	-1.860809e-06	-1.886197e-09	-1.321787e+01	-1.268638e+02
1.440000e-06	-1.817213e-06	-1.869108e-09	-1.290820e+01	-1.261646e+02
1.450000e-06	-1.773583e-06	-1.853770e-09	-1.259829e+01	-1.254533e+02
1.460000e-06	-1.729942e-06	-1.847474e-09	-1.228829e+01	-1.247295e+02
1.470000e-06	-1.686119e-06	-1.843564e-09	-1.197700e+01	-1.239929e+02
1.480000e-06	-1.642141e-06	-1.833051e-09	-1.166461e+01	-1.232432e+02
1.490000e-06	-1.598164e-06	-1.817060e-09	-1.135223e+01	-1.224800e+02
1.500000e-06	-1.554137e-06	-1.800496e-09	-1.103950e+01	-1.217032e+02
1.510000e-06	-1.510001e-06	-1.784110e-09	-1.072599e+01	-1.209122e+02
1.520000e-06	-1.465779e-06	-1.764563e-09	-1.041186e+01	-1.201066e+02
1.530000e-06	-1.421419e-06	-1.745847e-09	-1.009676e+01	-1.192862e+02
1.540000e-06	-1.377010e-06	-1.733651e-09	-9.781313e+00	-1.184505e+02
1.550000e-06	-1.332657e-06	-1.726693e-09	-9.466256e+00	-1.175990e+02
1.560000e-06	-1.288290e-06	-1.718496e-09	-9.151103e+00	-1.167313e+02
1.570000e-06	-1.243810e-06	-1.703888e-09	-8.835148e+00	-1.158468e+02
1.580000e-06	-1.199213e-06	-1.687477e-09	-8.518365e+00	-1.149450e+02
1.590000e-06	-1.154554e-06	-1.674363e-09	-8.201142e+00	-1.140252e+02
1.600000e-06	-1.109811e-06	-1.657620e-09	-7.883315e+00	-1.130869e+02
1.610000e-06	-1.064891e-06	-1.633843e-09	-7.564239e+00	-1.121293e+02
1.620000e-06	-1.019786e-06	-1.611846e-09	-7.243840e+00	-1.111517e+02
1.630000e-06	-9.745765e-07	-1.598401e-09	-6.922705e+00	-1.101532e+02
1.640000e-06	-9.293314e-07	-1.587878e-09	-6.601316e+00	-1.091331e+02
1.650000e-06	-8.840212e-07	-1.574260e-09	-6.279464e+00	-1.080905e+02
1.660000e-06	-8.386611e-07	-1.560071e-09	-5.957258e+00	-1.070243e+02
1.670000e-06	-7.933132e-07	-1.547948e-09	-5.635138e+00	-1.059335e+02
1.680000e-06	-7.479102e-07	-1.533299e-09	-5.312627e+00	-1.048171e+02
1.690000e-06	-7.024600e-07	-1.509862e-09	-4.989781e+00	-1.036740e+02
1.700000e-06	-6.569798e-07	-1.483899e-09	-4.666722e+00	-1.025031e+02
1.710000e-06	-6.114364e-07	-1.464485e-09	-4.343214e+00	-1.013031e+02
1.720000e-06	-5.658219e-07	-1.451989e-09	-4.019201e+00	-1.000729e+02
1.730000e-06	-5.201053e-07	-1.436501e-09	-3.694462e+00	-9.881122e+01
1.740000e-06	-4.743618e-07	-1.415175e-09	-3.369532e+00	-9.751682e+01
1.750000e-06	-4.286317e-07	-1.395183e-09	-3.044698e+00	-9.618846e+01
1.760000e-06	-3.828292e-07	-1.379617e-09	-2.719349e+00	-9.482489e+01
1.770000e-06	-3.369350e-07	-1.358704e-09	-2.393349e+00	-9.342488e+01
1.780000e-06	-2.910618e-07	-1.328768e-09	-2.067498e+00	-9.198720e+01
1.790000e-06	-2.452248e-07	-1.300549e-09	-1.741904e+00	-9.051067e+01
1.800000e-06	-1.993615e-07	-1.280449e-09	-1.416124e+00	-8.899412e+01
1.810000e-06	-1.534672e-07	-1.260250e-09	-1.090123e+00	-8.743644e+01
1.820000e-06	-1.076046e-07	-1.233642e-09	-7.643475e-01	-8.583657e+01
1.830000e-06	-6.178220e-08	-1.206551e-09	-4.388572e-01	-8.419348e+01
1.840000e-06	-1.592677e-08	-1.185155e-09	-1.131326e-01	-8.250622e+01
1.850000e-06	2.996398e-08	-1.165135e-09	2.128430e-01	-8.077391e+01
1.860000e-06	7.581245e-08	-1.138829e-09	5.385182e-01	-7.899572e+01
1.870000e-06	1.216182e-07	-1.107439e-09	8.638898e-01	-7.717090e+01
1.880000e-06	1.674271e-07	-1.078093e-09	1.189284e+00	-7.529878e+01
1.890000e-06	2.132791e-07	-1.051759e-09	1.514985e+00	-7.337876e+01
1.900000e-06	2.591742e-07	-1.021227e-09	1.840991e+00	-7.141032e+01
1.910000e-06	3.050186e-07	-9.869608e-10	2.166637e+00	-6.939301e+01
1.920000e-06	3.508012e-07	-9.580982e-10	2.491845e+00	-6.732647e+01
1.930000e-06	3.965680e-07	-9.349314e-10	2.816940e+00	-6.521041e+01
1.940000e-06	4.423520e-07	-9.080762e-10	3.142157e+00	-6.304464e+01
1.950000e-06	4.880961e-07	-8.746046e-10	3.467091e+00	-6.082901e+01
1.960000e-06	5.336933e-07	-8.390234e-10	3.790982e+00	-5.856348e+01
1.970000e-06	5.792210e-07	-8.040378e-10	4.114378e+00	-5.624808e+01
1.980000e-06	6.247961e-07	-7.672144e-10	4.438111e+00	-5.388293e+01
1.990000e-06	6.703381e-07	-7.279544e-10	4.761610e+00	-5.146821e+01
2.000000e-06	7.157536e-07	-6.914441e-10	5.084209e+00	-4.900420e+01
2.010000e-06	7.610527e-07	-6.607673e-10	5.405982e+00	-4.649127e+01
2.020000e-06	8.063368e-07	-6.311943e-10	5.727649e+00	-4.392987e+01
2.030000e-06	8.515977e-07	-5.964754e-10	6.049151e+00	-4.132056e+01
2.040000e-06	8.967553e-07	-5.553592e-10	6.369918e+00	-3.866397e+01
2.050000e-06	9.418575e-07	-5.118394e-10	6.690292e+00	-3.596086e+01
2.060000e-06	9.869021e-07	-4.672899e-10	7.010258e+00	-3.321211e+01
2.070000e-06	1.031841e-06	-4.200851e-10	7.329472e+00	-3.041870e+01
2.080000e-06	1.076740e-06	-3.744466e-10	7.648405e+00	-2.758174e+01
2.090000e-06	1.121555e-06	-3.353239e-10	7.966739e+00	-2.470248e+01
2.100000e-06	1.166233e-06	-3.004824e-10	8.284096e+00	-2.178229e+01
2.110000e-06	1.210899e-06	-2.631673e-10	8.601376e+00	-1.882273e+01
2.120000e-06	1.255435e-06	-2.208956e-10	8.917726e+00	-1.582546e+01
2.130000e-06	1.299776e-06	-1.756826e-10	9.232693e+00	-1.279234e+01
2.140000e-06	1.344112e-06	-1.270935e-10	9.547623e+00	-9.725383e+00
2.150000e-06	1.388395e-06	-7.249515e-11	9.862183e+00	-6.626756e+00
2.160000e-06	1.432548e-06	-1.683233e-11	1.017581e+01	-3.498810e+00
2.170000e-06	1.476694e-06	3.095380e-11	1.048939e+01	-3.440570e-01
2.180000e-06	1.520812e-06	7.101773e-11	1.080278e+01	2.834820e+00
2.190000e-06	1.564836e-06	1.100297e-10	1.111549e+01	6.034978e+00
2.200000e-06	1.608821e-06	1.534910e-10	1.142793e+01	9.253415e+00
2.210000e-06	1.652804e-06	2.009731e-10	1.174035e+01	1.248698e+01
2.220000e-06	1.696750e-06	2.504564e-10	1.205251e+01	1.573239e+01
2.230000e-06	1.740612e-06	3.019145e-10	1.236408e+01	1.898623e+01
2.240000e-06	1.784371e-06	3.546035e-10	1.267492e+01	2.224498e+01
2.250000e-06	1.828040e-06	4.047104e-10	1.298511e+01	2.550503e+01
2.260000e-06	1.871624e-06	4.504622e-10	1.329470e+01	2.876269e+01
2.270000e-06	1.915070e-06	4.941278e-10	1.360331e+01	3.201423e+01
2.280000e-06	1.958361e-06	5.393328e-10	1.391082e+01	3.525588e+01
2.290000e-06	2.001484e-06	5.875843e-10	1.421714e+01	3.848386e+01
2.300000e-06	2.044458e-06	6.368905e-10	1.452239e+01	4.169444e+01
2.310000e-06	2.087168e-06	6.857166e-10	1.482577e+01	4.488389e+01
2.320000e-06	2.129591e-06	7.329421e-10	1.512712e+01	4.804860e+01
2.330000e-06	2.171781e-06	7.787234e-10	1.542680e+01	5.118501e+01
2.340000e-06	2.213699e-06	8.215941e-10	1.572456e+01	5.428970e+01
2.350000e-06	2.255180e-06	8.625632e-10	1.601921e+01	5.735940e+01
2.360000e-06	2.296248e-06	9.040157e-10	1.631093e+01	6.039100e+01
2.370000e-06	2.337145e-06	9.463370e-10	1.660144e+01	6.338155e+01
2.380000e-06	2.377817e-06	9.896699e-10	1.689034e+01	6.632834e+01
2.390000e-06	2.418280e-06	1.032833e-09	1.717776e+01	6.922886e+01
2.400000e-06	2.458598e-06	1.074326e-09	1.746415e+01	7.208082e+01
2.410000e-06	2.498710e-06	1.113589e-09	1.774908e+01	7.488219e+01
2.420000e-06	2.538713e-06	1.149149e-09	1.803323e+01	7.763118e+01
2.430000e-06	2.578676e-06	1.183300e-09	1.831710e+01	8.032623e+01
2.440000e-06	2.618550e-06	1.220099e-09	1.860034e+01	8.296606e+01
2.450000e-06	2.658314e-06	1.257952e-09	1.888279e+01	8.554963e+01
2.460000e-06	2.697947e-06	1.294327e-09	1.916432e+01	8.807612e+01
2.470000e-06	2.737478e-06	1.329150e-09	1.944512e+01	9.054499e+01
2.480000e-06	2.776843e-06	1.364723e-09	1.972474e+01	9.295586e+01
2.490000e-06	2.816058e-06	1.400428e-09	2.000329e+01	9.530862e+01
2.500000e-06	2.855063e-06	1.432380e-09	2.028036e+01	9.760331e+01
2.510000e-06	2.893711e-06	1.460692e-09	2.055488e+01	9.984016e+01
2.520000e-06	2.932165e-06	1.490816e-09	2.082804e+01	1.020196e+02
2.530000e-06	2.970455e-06	1.524343e-09	2.110002e+01	1.041420e+02
2.540000e-06	3.008500e-06	1.556058e-09	2.137026e+01	1.062082e+02
2.550000e-06	3.046360e-06	1.584546e-09	2.163919e+01	1.082189e+02
2.560000e-06	3.084098e-06	1.612638e-09	2.190726e+01	1.101748e+02
2.570000e-06	3.121629e-06	1.639270e-09	2.217385e+01	1.120768e+02
2.580000e-06	3.158948e-06	1.662944e-09	2.243894e+01	1.139259e+02
2.590000e-06	3.196090e-06	1.685970e-09	2.270278e+01	1.157229e+02
2.600000e-06	3.232918e-06	1.711569e-09	2.296438e+01	1.174690e+02
2.610000e-06	3.269418e-06	1.738940e-09	2.322364e+01	1.191648e+02
2.620000e-06	3.305702e-06	1.764488e-09	2.348138e+01	1.208115e+02
2.630000e-06	3.341815e-06	1.786645e-09	2.373790e+01	1.224099e+02
2.640000e-06	3.377784e-06	1.808069e-09	2.399340e+01	1.239608e+02
2.650000e-06	3.413683e-06	1.828659e-09	2.424840e+01	1.254652e+02
2.660000e-06	3.449509e-06	1.846980e-09	2.450288e+01	1.269238e+02
2.670000e-06	3.485165e-06	1.865286e-09	2.475616e+01	1.283374e+02
2.680000e-06	3.520641e-06	1.886444e-09	2.500815e+01	1.297068e+02
2.690000e-06	3.555847e-06	1.910625e-09	2.525824e+01	1.310327e+02
2.700000e-06	3.590646e-06	1.932082e-09	2.550542e+01	1.323158e+02
2.710000e-06	3.625083e-06	1.950676e-09	2.575003e+01	1.335569e+02
2.720000e-06	3.659006e-06	1.966760e-09	2.599101e+01	1.347565e+02
2.730000e-06	3.692389e-06	1.981890e-09	2.622813e+01	1.359155e+02
2.740000e-06	3.725411e-06	1.995395e-09	2.646270e+01	1.370346e+02
2.750000e-06	3.758090e-06	2.009905e-09	2.669482e+01	1.381144e+02
2.760000e-06	3.790467e-06	2.029190e-09	2.692481e+01	1.391559e+02
2.770000e-06	3.822602e-06	2.049494e-09	2.715307e+01	1.401599e+02
2.780000e-06	3.854574e-06	2.067405e-09	2.738018e+01	1.411273e+02
2.790000e-06	3.886429e-06	2.080566e-09	2.760646e+01	1.420589e+02
2.800000e-06	3.918156e-06	2.090748e-09	2.783182e+01	1.429559e+02
2.810000e-06	3.949691e-06	2.100878e-09	2.805583e+01	1.438192e+02
2.820000e-06	3.980972e-06	2.110512e-09	2.827802e+01	1.446500e+02
2.830000e-06	4.011927e-06	2.119815e-09	2.849790e+01	1.454496e+02
2.840000e-06	4.042482e-06	2.131639e-09	2.871495e+01	1.462190e+02
2.850000e-06	4.072706e-06	2.147638e-09	2.892964e+01	1.469597e+02
2.860000e-06	4.102687e-06	2.164776e-09	2.914260e+01	1.476728e+02
2.870000e-06	4.132406e-06	2.177655e-09	2.935370e+01	1.483598e+02
2.880000e-06	4.161873e-06	2.184725e-09	2.956302e+01	1.490220e+02
2.890000e-06	4.191052e-06	2.189600e-09	2.977029e+01	1.496608e+02
2.900000e-06	4.219895e-06	2.195592e-09	2.997517e+01	1.502774e+02
