# Temperatura_=_-1.1
# Concentracion g/m^3_=_4090.0
# C_Vs_to_Am_M_A/Vsm_=_65563218390.804596
# pendiente_HvsI_1/m_=_3716.3
# ordenada_HvsI_A/m_=_1297.0
# frecuencia_Hz_=_135066.24638395454

Tiempo_(s)	Campo_(V.s)	Magnetizacion_(V.s)	Campo_(kA/m)	Magnetizacion_(A/m)
0.000000e+00	-5.407709e-06	-2.598955e-09	-3.839406e+01	-1.699300e+02
1.000000e-08	-5.407815e-06	-2.596972e-09	-3.839481e+01	-1.698495e+02
2.000000e-08	-5.407735e-06	-2.594194e-09	-3.839424e+01	-1.697689e+02
3.000000e-08	-5.407393e-06	-2.590545e-09	-3.839182e+01	-1.696898e+02
4.000000e-08	-5.406753e-06	-2.588401e-09	-3.838727e+01	-1.696138e+02
5.000000e-08	-5.405742e-06	-2.589598e-09	-3.838009e+01	-1.695424e+02
6.000000e-08	-5.404259e-06	-2.587700e-09	-3.836956e+01	-1.694768e+02
7.000000e-08	-5.402115e-06	-2.572495e-09	-3.835434e+01	-1.694184e+02
8.000000e-08	-5.399193e-06	-2.577420e-09	-3.833360e+01	-1.693682e+02
9.000000e-08	-5.395643e-06	-2.624123e-09	-3.830839e+01	-1.693272e+02
1.000000e-07	-5.391618e-06	-2.666780e-09	-3.827981e+01	-1.692961e+02
1.100000e-07	-5.387316e-06	-2.631076e-09	-3.824927e+01	-1.692754e+02
1.200000e-07	-5.382894e-06	-2.555831e-09	-3.821788e+01	-1.692655e+02
1.300000e-07	-5.378241e-06	-2.542189e-09	-3.818484e+01	-1.692664e+02
1.400000e-07	-5.373195e-06	-2.631750e-09	-3.814902e+01	-1.692780e+02
1.500000e-07	-5.367677e-06	-2.599051e-09	-3.810984e+01	-1.693000e+02
1.600000e-07	-5.361901e-06	-2.532699e-09	-3.806883e+01	-1.693317e+02
1.700000e-07	-5.355839e-06	-2.510343e-09	-3.802579e+01	-1.693724e+02
1.800000e-07	-5.349221e-06	-2.652432e-09	-3.797880e+01	-1.694211e+02
1.900000e-07	-5.342072e-06	-2.671812e-09	-3.792804e+01	-1.694765e+02
2.000000e-07	-5.334704e-06	-2.597995e-09	-3.787574e+01	-1.695375e+02
2.100000e-07	-5.327177e-06	-2.554505e-09	-3.782229e+01	-1.696024e+02
2.200000e-07	-5.319365e-06	-2.618075e-09	-3.776683e+01	-1.696697e+02
2.300000e-07	-5.311307e-06	-2.636158e-09	-3.770962e+01	-1.697377e+02
2.400000e-07	-5.302973e-06	-2.601029e-09	-3.765044e+01	-1.698047e+02
2.500000e-07	-5.294062e-06	-2.631364e-09	-3.758718e+01	-1.698690e+02
2.600000e-07	-5.284524e-06	-2.659509e-09	-3.751946e+01	-1.699289e+02
2.700000e-07	-5.274407e-06	-2.654368e-09	-3.744763e+01	-1.699825e+02
2.800000e-07	-5.263692e-06	-2.626058e-09	-3.737156e+01	-1.700284e+02
2.900000e-07	-5.252555e-06	-2.656523e-09	-3.729249e+01	-1.700649e+02
3.000000e-07	-5.240923e-06	-2.627691e-09	-3.720990e+01	-1.700906e+02
3.100000e-07	-5.228807e-06	-2.596681e-09	-3.712387e+01	-1.701042e+02
3.200000e-07	-5.216308e-06	-2.603184e-09	-3.703514e+01	-1.701047e+02
3.300000e-07	-5.203516e-06	-2.677149e-09	-3.694431e+01	-1.700910e+02
3.400000e-07	-5.190377e-06	-2.632743e-09	-3.685103e+01	-1.700624e+02
3.500000e-07	-5.176788e-06	-2.592559e-09	-3.675455e+01	-1.700184e+02
3.600000e-07	-5.162787e-06	-2.596452e-09	-3.665514e+01	-1.699585e+02
3.700000e-07	-5.148384e-06	-2.638611e-09	-3.655288e+01	-1.698826e+02
3.800000e-07	-5.133477e-06	-2.583755e-09	-3.644705e+01	-1.697908e+02
3.900000e-07	-5.117968e-06	-2.571071e-09	-3.633694e+01	-1.696832e+02
4.000000e-07	-5.101856e-06	-2.587068e-09	-3.622254e+01	-1.695604e+02
4.100000e-07	-5.085342e-06	-2.609114e-09	-3.610529e+01	-1.694228e+02
4.200000e-07	-5.068563e-06	-2.592034e-09	-3.598617e+01	-1.692713e+02
4.300000e-07	-5.051558e-06	-2.600513e-09	-3.586543e+01	-1.691066e+02
4.400000e-07	-5.034213e-06	-2.580884e-09	-3.574229e+01	-1.689298e+02
4.500000e-07	-5.016510e-06	-2.567287e-09	-3.561660e+01	-1.687420e+02
4.600000e-07	-4.998496e-06	-2.581317e-09	-3.548870e+01	-1.685442e+02
4.700000e-07	-4.980148e-06	-2.589204e-09	-3.535843e+01	-1.683378e+02
4.800000e-07	-4.961446e-06	-2.560948e-09	-3.522565e+01	-1.681239e+02
4.900000e-07	-4.942215e-06	-2.560434e-09	-3.508911e+01	-1.679038e+02
5.000000e-07	-4.922555e-06	-2.591992e-09	-3.494952e+01	-1.676786e+02
5.100000e-07	-4.902675e-06	-2.583610e-09	-3.480838e+01	-1.674495e+02
5.200000e-07	-4.882622e-06	-2.559119e-09	-3.466601e+01	-1.672175e+02
5.300000e-07	-4.862393e-06	-2.549810e-09	-3.452238e+01	-1.669839e+02
5.400000e-07	-4.841886e-06	-2.559885e-09	-3.437679e+01	-1.667493e+02
5.500000e-07	-4.821023e-06	-2.551939e-09	-3.422866e+01	-1.665147e+02
5.600000e-07	-4.799884e-06	-2.546886e-09	-3.407858e+01	-1.662807e+02
5.700000e-07	-4.778390e-06	-2.528652e-09	-3.392597e+01	-1.660480e+02
5.800000e-07	-4.756499e-06	-2.535803e-09	-3.377055e+01	-1.658170e+02
5.900000e-07	-4.734404e-06	-2.542753e-09	-3.361368e+01	-1.655879e+02
6.000000e-07	-4.712059e-06	-2.541104e-09	-3.345503e+01	-1.653610e+02
6.100000e-07	-4.689266e-06	-2.511888e-09	-3.329320e+01	-1.651364e+02
6.200000e-07	-4.666076e-06	-2.511023e-09	-3.312856e+01	-1.649141e+02
6.300000e-07	-4.642588e-06	-2.511387e-09	-3.296180e+01	-1.646938e+02
6.400000e-07	-4.618850e-06	-2.510715e-09	-3.279326e+01	-1.644753e+02
6.500000e-07	-4.594911e-06	-2.493676e-09	-3.262329e+01	-1.642582e+02
6.600000e-07	-4.570720e-06	-2.491139e-09	-3.245154e+01	-1.640423e+02
6.700000e-07	-4.546227e-06	-2.491411e-09	-3.227765e+01	-1.638269e+02
6.800000e-07	-4.521401e-06	-2.503209e-09	-3.210138e+01	-1.636116e+02
6.900000e-07	-4.496091e-06	-2.493403e-09	-3.192168e+01	-1.633958e+02
7.000000e-07	-4.470300e-06	-2.485386e-09	-3.173857e+01	-1.631789e+02
7.100000e-07	-4.444054e-06	-2.481633e-09	-3.155223e+01	-1.629604e+02
7.200000e-07	-4.417330e-06	-2.486701e-09	-3.136249e+01	-1.627396e+02
7.300000e-07	-4.390116e-06	-2.473098e-09	-3.116927e+01	-1.625161e+02
7.400000e-07	-4.362492e-06	-2.460840e-09	-3.097315e+01	-1.622892e+02
7.500000e-07	-4.334628e-06	-2.457794e-09	-3.077532e+01	-1.620586e+02
7.600000e-07	-4.306586e-06	-2.462973e-09	-3.057622e+01	-1.618237e+02
7.700000e-07	-4.278415e-06	-2.460986e-09	-3.037621e+01	-1.615842e+02
7.800000e-07	-4.250038e-06	-2.453317e-09	-3.017474e+01	-1.613398e+02
7.900000e-07	-4.221392e-06	-2.449732e-09	-2.997135e+01	-1.610901e+02
8.000000e-07	-4.192391e-06	-2.452636e-09	-2.976545e+01	-1.608349e+02
8.100000e-07	-4.163046e-06	-2.453495e-09	-2.955711e+01	-1.605741e+02
8.200000e-07	-4.133436e-06	-2.443633e-09	-2.934688e+01	-1.603077e+02
8.300000e-07	-4.103589e-06	-2.438412e-09	-2.913497e+01	-1.600354e+02
8.400000e-07	-4.073459e-06	-2.434721e-09	-2.892105e+01	-1.597575e+02
8.500000e-07	-4.043058e-06	-2.432175e-09	-2.870521e+01	-1.594738e+02
8.600000e-07	-4.012430e-06	-2.419707e-09	-2.848775e+01	-1.591846e+02
8.700000e-07	-3.981513e-06	-2.411288e-09	-2.826825e+01	-1.588900e+02
8.800000e-07	-3.950274e-06	-2.406306e-09	-2.804645e+01	-1.585901e+02
8.900000e-07	-3.918758e-06	-2.410202e-09	-2.782269e+01	-1.582850e+02
9.000000e-07	-3.887091e-06	-2.408120e-09	-2.759786e+01	-1.579752e+02
9.100000e-07	-3.855209e-06	-2.404859e-09	-2.737150e+01	-1.576606e+02
9.200000e-07	-3.823120e-06	-2.393214e-09	-2.714368e+01	-1.573416e+02
9.300000e-07	-3.790886e-06	-2.386293e-09	-2.691482e+01	-1.570183e+02
9.400000e-07	-3.758379e-06	-2.374228e-09	-2.668403e+01	-1.566910e+02
9.500000e-07	-3.725560e-06	-2.366972e-09	-2.645101e+01	-1.563599e+02
9.600000e-07	-3.692428e-06	-2.362153e-09	-2.621578e+01	-1.560251e+02
9.700000e-07	-3.659003e-06	-2.364013e-09	-2.597847e+01	-1.556868e+02
9.800000e-07	-3.625173e-06	-2.359787e-09	-2.573828e+01	-1.553451e+02
9.900000e-07	-3.590899e-06	-2.352210e-09	-2.549494e+01	-1.550002e+02
1.000000e-06	-3.556230e-06	-2.339205e-09	-2.524879e+01	-1.546521e+02
1.010000e-06	-3.521153e-06	-2.331048e-09	-2.499974e+01	-1.543010e+02
1.020000e-06	-3.485697e-06	-2.320596e-09	-2.474802e+01	-1.539467e+02
1.030000e-06	-3.449939e-06	-2.312360e-09	-2.449414e+01	-1.535895e+02
1.040000e-06	-3.414010e-06	-2.309072e-09	-2.423904e+01	-1.532292e+02
1.050000e-06	-3.377994e-06	-2.312033e-09	-2.398334e+01	-1.528659e+02
1.060000e-06	-3.341836e-06	-2.310574e-09	-2.372662e+01	-1.524994e+02
1.070000e-06	-3.305529e-06	-2.302993e-09	-2.346885e+01	-1.521298e+02
1.080000e-06	-3.269091e-06	-2.292349e-09	-2.321014e+01	-1.517568e+02
1.090000e-06	-3.232455e-06	-2.282978e-09	-2.295003e+01	-1.513805e+02
1.100000e-06	-3.195619e-06	-2.274998e-09	-2.268850e+01	-1.510007e+02
1.110000e-06	-3.158470e-06	-2.266344e-09	-2.242475e+01	-1.506172e+02
1.120000e-06	-3.120965e-06	-2.261179e-09	-2.215846e+01	-1.502300e+02
1.130000e-06	-3.083228e-06	-2.258674e-09	-2.189053e+01	-1.498387e+02
1.140000e-06	-3.045349e-06	-2.257206e-09	-2.162160e+01	-1.494433e+02
1.150000e-06	-3.007305e-06	-2.248746e-09	-2.135149e+01	-1.490435e+02
1.160000e-06	-2.968994e-06	-2.237654e-09	-2.107949e+01	-1.486391e+02
1.170000e-06	-2.930495e-06	-2.226062e-09	-2.080615e+01	-1.482299e+02
1.180000e-06	-2.891873e-06	-2.218567e-09	-2.053193e+01	-1.478156e+02
1.190000e-06	-2.853007e-06	-2.210020e-09	-2.025599e+01	-1.473960e+02
1.200000e-06	-2.813916e-06	-2.203610e-09	-1.997845e+01	-1.469707e+02
1.210000e-06	-2.774665e-06	-2.195928e-09	-1.969977e+01	-1.465395e+02
1.220000e-06	-2.735251e-06	-2.191648e-09	-1.941994e+01	-1.461021e+02
1.230000e-06	-2.695698e-06	-2.183118e-09	-1.913912e+01	-1.456582e+02
1.240000e-06	-2.655974e-06	-2.173110e-09	-1.885708e+01	-1.452073e+02
1.250000e-06	-2.616088e-06	-2.163612e-09	-1.857390e+01	-1.447491e+02
1.260000e-06	-2.576103e-06	-2.159869e-09	-1.829001e+01	-1.442833e+02
1.270000e-06	-2.536033e-06	-2.154700e-09	-1.800552e+01	-1.438094e+02
1.280000e-06	-2.495904e-06	-2.148633e-09	-1.772061e+01	-1.433272e+02
1.290000e-06	-2.455625e-06	-2.140461e-09	-1.743463e+01	-1.428360e+02
1.300000e-06	-2.415158e-06	-2.130779e-09	-1.714732e+01	-1.423357e+02
1.310000e-06	-2.374550e-06	-2.114947e-09	-1.685901e+01	-1.418257e+02
1.320000e-06	-2.333721e-06	-2.098389e-09	-1.656913e+01	-1.413058e+02
1.330000e-06	-2.292573e-06	-2.086448e-09	-1.627699e+01	-1.407753e+02
1.340000e-06	-2.251158e-06	-2.081858e-09	-1.598294e+01	-1.402341e+02
1.350000e-06	-2.209600e-06	-2.080643e-09	-1.568789e+01	-1.396818e+02
1.360000e-06	-2.167811e-06	-2.077393e-09	-1.539119e+01	-1.391179e+02
1.370000e-06	-2.125717e-06	-2.070077e-09	-1.509232e+01	-1.385423e+02
1.380000e-06	-2.083357e-06	-2.059305e-09	-1.479158e+01	-1.379545e+02
1.390000e-06	-2.040766e-06	-2.041983e-09	-1.448918e+01	-1.373543e+02
1.400000e-06	-1.997993e-06	-2.020538e-09	-1.418550e+01	-1.367414e+02
1.410000e-06	-1.954955e-06	-2.004241e-09	-1.387994e+01	-1.361157e+02
1.420000e-06	-1.911611e-06	-1.996481e-09	-1.357220e+01	-1.354769e+02
1.430000e-06	-1.868061e-06	-1.994728e-09	-1.326300e+01	-1.348248e+02
1.440000e-06	-1.824391e-06	-1.989222e-09	-1.295295e+01	-1.341594e+02
1.450000e-06	-1.780632e-06	-1.982434e-09	-1.264227e+01	-1.334804e+02
1.460000e-06	-1.736826e-06	-1.973485e-09	-1.233125e+01	-1.327878e+02
1.470000e-06	-1.693019e-06	-1.961464e-09	-1.202023e+01	-1.320815e+02
1.480000e-06	-1.649135e-06	-1.942024e-09	-1.170865e+01	-1.313613e+02
1.490000e-06	-1.605102e-06	-1.921384e-09	-1.139602e+01	-1.306272e+02
1.500000e-06	-1.560951e-06	-1.905787e-09	-1.108256e+01	-1.298790e+02
1.510000e-06	-1.516714e-06	-1.896048e-09	-1.076848e+01	-1.291166e+02
1.520000e-06	-1.472387e-06	-1.886176e-09	-1.045376e+01	-1.283399e+02
1.530000e-06	-1.428042e-06	-1.877516e-09	-1.013892e+01	-1.275487e+02
1.540000e-06	-1.383720e-06	-1.871375e-09	-9.824236e+00	-1.267427e+02
1.550000e-06	-1.339312e-06	-1.863746e-09	-9.508945e+00	-1.259216e+02
1.560000e-06	-1.294816e-06	-1.847852e-09	-9.193031e+00	-1.250852e+02
1.570000e-06	-1.250290e-06	-1.827086e-09	-8.876904e+00	-1.242330e+02
1.580000e-06	-1.205617e-06	-1.807856e-09	-8.559730e+00	-1.233645e+02
1.590000e-06	-1.160842e-06	-1.795866e-09	-8.241831e+00	-1.224793e+02
1.600000e-06	-1.115998e-06	-1.785196e-09	-7.923445e+00	-1.215766e+02
1.610000e-06	-1.071035e-06	-1.772615e-09	-7.604218e+00	-1.206558e+02
1.620000e-06	-1.026027e-06	-1.759570e-09	-7.284665e+00	-1.197160e+02
1.630000e-06	-9.809495e-07	-1.747928e-09	-6.964619e+00	-1.187565e+02
1.640000e-06	-9.357486e-07	-1.731629e-09	-6.643698e+00	-1.177763e+02
1.650000e-06	-8.904852e-07	-1.711703e-09	-6.322334e+00	-1.167742e+02
1.660000e-06	-8.451729e-07	-1.695715e-09	-6.000622e+00	-1.157493e+02
1.670000e-06	-7.998043e-07	-1.681655e-09	-5.678511e+00	-1.147003e+02
1.680000e-06	-7.543842e-07	-1.664381e-09	-5.356034e+00	-1.136260e+02
1.690000e-06	-7.088486e-07	-1.640970e-09	-5.032737e+00	-1.125251e+02
1.700000e-06	-6.632276e-07	-1.618638e-09	-4.708833e+00	-1.113962e+02
1.710000e-06	-6.175667e-07	-1.601003e-09	-4.384647e+00	-1.102380e+02
1.720000e-06	-5.718913e-07	-1.586357e-09	-4.060357e+00	-1.090491e+02
1.730000e-06	-5.261539e-07	-1.571283e-09	-3.735627e+00	-1.078281e+02
1.740000e-06	-4.803743e-07	-1.554599e-09	-3.410598e+00	-1.065735e+02
1.750000e-06	-4.346297e-07	-1.537618e-09	-3.085817e+00	-1.052840e+02
1.760000e-06	-3.888802e-07	-1.520700e-09	-2.761001e+00	-1.039580e+02
1.770000e-06	-3.431119e-07	-1.498052e-09	-2.436052e+00	-1.025944e+02
1.780000e-06	-2.973327e-07	-1.469962e-09	-2.111025e+00	-1.011916e+02
1.790000e-06	-2.515131e-07	-1.442775e-09	-1.785712e+00	-9.974852e+01
1.800000e-06	-2.056247e-07	-1.422607e-09	-1.459909e+00	-9.826381e+01
1.810000e-06	-1.596847e-07	-1.404243e-09	-1.133741e+00	-9.673630e+01
1.820000e-06	-1.137964e-07	-1.382970e-09	-8.079403e-01	-9.516488e+01
1.830000e-06	-6.790493e-08	-1.358103e-09	-4.821165e-01	-9.354849e+01
1.840000e-06	-2.197747e-08	-1.333650e-09	-1.560373e-01	-9.188615e+01
1.850000e-06	2.390850e-08	-1.309984e-09	1.697473e-01	-9.017694e+01
1.860000e-06	6.974602e-08	-1.284299e-09	4.951880e-01	-8.842000e+01
1.870000e-06	1.155779e-07	-1.253982e-09	8.205886e-01	-8.661455e+01
1.880000e-06	1.614344e-07	-1.223730e-09	1.146164e+00	-8.475988e+01
1.890000e-06	2.072803e-07	-1.196856e-09	1.471665e+00	-8.285532e+01
1.900000e-06	2.531309e-07	-1.170355e-09	1.797198e+00	-8.090027e+01
1.910000e-06	2.990156e-07	-1.141696e-09	2.122973e+00	-7.889420e+01
1.920000e-06	3.448980e-07	-1.112866e-09	2.448732e+00	-7.683659e+01
1.930000e-06	3.906887e-07	-1.083597e-09	2.773841e+00	-7.472701e+01
1.940000e-06	4.364136e-07	-1.051443e-09	3.098482e+00	-7.256505e+01
1.950000e-06	4.821361e-07	-1.016430e-09	3.423106e+00	-7.035034e+01
1.960000e-06	5.278103e-07	-9.789491e-10	3.747387e+00	-6.808255e+01
1.970000e-06	5.734038e-07	-9.406174e-10	4.071095e+00	-6.576141e+01
1.980000e-06	6.189927e-07	-9.050579e-10	4.394771e+00	-6.338665e+01
1.990000e-06	6.645897e-07	-8.717000e-10	4.718504e+00	-6.095807e+01
2.000000e-06	7.100796e-07	-8.376529e-10	5.041477e+00	-5.847553e+01
2.010000e-06	7.555261e-07	-8.010510e-10	5.364141e+00	-5.593890e+01
2.020000e-06	8.009578e-07	-7.625229e-10	5.686700e+00	-5.334814e+01
2.030000e-06	8.463680e-07	-7.243458e-10	6.009107e+00	-5.070328e+01
2.040000e-06	8.917676e-07	-6.843568e-10	6.331439e+00	-4.800442e+01
2.050000e-06	9.370430e-07	-6.420022e-10	6.652889e+00	-4.525176e+01
2.060000e-06	9.821720e-07	-5.986755e-10	6.973299e+00	-4.244560e+01
2.070000e-06	1.027155e-06	-5.563988e-10	7.292671e+00	-3.958637e+01
2.080000e-06	1.072045e-06	-5.148572e-10	7.611388e+00	-3.667462e+01
2.090000e-06	1.116897e-06	-4.728570e-10	7.929827e+00	-3.371109e+01
2.100000e-06	1.161635e-06	-4.281815e-10	8.247466e+00	-3.069665e+01
2.110000e-06	1.206276e-06	-3.829252e-10	8.564412e+00	-2.763238e+01
2.120000e-06	1.250865e-06	-3.370920e-10	8.880987e+00	-2.451956e+01
2.130000e-06	1.295392e-06	-2.908600e-10	9.197119e+00	-2.135966e+01
2.140000e-06	1.339854e-06	-2.420368e-10	9.512799e+00	-1.815442e+01
2.150000e-06	1.384259e-06	-1.921788e-10	9.828063e+00	-1.490578e+01
2.160000e-06	1.428552e-06	-1.446306e-10	1.014254e+01	-1.161594e+01
2.170000e-06	1.472730e-06	-9.733785e-11	1.045620e+01	-8.287368e+00
2.180000e-06	1.516868e-06	-4.722367e-11	1.076958e+01	-4.922762e+00
2.190000e-06	1.560977e-06	3.927028e-12	1.108274e+01	-1.525087e+00
2.200000e-06	1.605011e-06	5.219159e-11	1.139538e+01	1.902444e+00
2.210000e-06	1.648984e-06	9.877938e-11	1.170758e+01	5.356377e+00
2.220000e-06	1.692902e-06	1.485025e-10	1.201939e+01	8.833025e+00
2.230000e-06	1.736784e-06	2.011549e-10	1.233095e+01	1.232849e+01
2.240000e-06	1.780636e-06	2.530501e-10	1.264230e+01	1.583866e+01
2.250000e-06	1.824374e-06	3.043394e-10	1.295283e+01	1.935927e+01
2.260000e-06	1.867986e-06	3.586470e-10	1.326247e+01	2.288588e+01
2.270000e-06	1.911497e-06	4.171370e-10	1.357139e+01	2.641396e+01
2.280000e-06	1.954795e-06	4.734661e-10	1.387880e+01	2.993885e+01
2.290000e-06	1.997859e-06	5.247248e-10	1.418455e+01	3.345586e+01
2.300000e-06	2.040760e-06	5.753647e-10	1.448914e+01	3.696026e+01
2.310000e-06	2.083334e-06	6.285973e-10	1.479141e+01	4.044733e+01
2.320000e-06	2.125704e-06	6.810463e-10	1.509223e+01	4.391240e+01
2.330000e-06	2.167926e-06	7.296923e-10	1.539200e+01	4.735089e+01
2.340000e-06	2.209707e-06	7.764405e-10	1.568864e+01	5.075832e+01
2.350000e-06	2.251172e-06	8.263960e-10	1.598304e+01	5.413037e+01
2.360000e-06	2.292428e-06	8.793899e-10	1.627596e+01	5.746292e+01
2.370000e-06	2.333370e-06	9.293150e-10	1.656663e+01	6.075204e+01
2.380000e-06	2.374014e-06	9.737479e-10	1.685520e+01	6.399406e+01
2.390000e-06	2.414496e-06	1.016882e-09	1.714262e+01	6.718558e+01
2.400000e-06	2.454902e-06	1.061052e-09	1.742950e+01	7.032348e+01
2.410000e-06	2.495125e-06	1.103651e-09	1.771508e+01	7.340494e+01
2.420000e-06	2.535230e-06	1.143676e-09	1.799982e+01	7.642748e+01
2.430000e-06	2.575278e-06	1.184523e-09	1.828415e+01	7.938893e+01
2.440000e-06	2.615228e-06	1.228439e-09	1.856779e+01	8.228746e+01
2.450000e-06	2.655041e-06	1.272014e-09	1.885046e+01	8.512157e+01
2.460000e-06	2.694713e-06	1.310878e-09	1.913212e+01	8.789010e+01
2.470000e-06	2.734279e-06	1.348328e-09	1.941304e+01	9.059219e+01
2.480000e-06	2.773667e-06	1.387253e-09	1.969269e+01	9.322729e+01
2.490000e-06	2.812855e-06	1.424232e-09	1.997092e+01	9.579517e+01
2.500000e-06	2.851832e-06	1.456563e-09	2.024765e+01	9.829583e+01
2.510000e-06	2.890532e-06	1.488566e-09	2.052242e+01	1.007296e+02
2.520000e-06	2.928930e-06	1.524576e-09	2.079504e+01	1.030968e+02
2.530000e-06	2.967098e-06	1.562710e-09	2.106603e+01	1.053984e+02
2.540000e-06	3.005198e-06	1.597538e-09	2.133653e+01	1.076351e+02
2.550000e-06	3.043222e-06	1.629386e-09	2.160650e+01	1.098079e+02
2.560000e-06	3.081053e-06	1.661708e-09	2.187509e+01	1.119180e+02
2.570000e-06	3.118662e-06	1.692545e-09	2.214211e+01	1.139667e+02
2.580000e-06	3.156006e-06	1.717700e-09	2.240725e+01	1.159552e+02
2.590000e-06	3.193018e-06	1.739918e-09	2.267003e+01	1.178848e+02
2.600000e-06	3.229761e-06	1.765032e-09	2.293090e+01	1.197569e+02
2.610000e-06	3.266300e-06	1.793892e-09	2.319032e+01	1.215729e+02
2.620000e-06	3.302606e-06	1.821377e-09	2.344809e+01	1.233341e+02
2.630000e-06	3.338758e-06	1.844843e-09	2.370476e+01	1.250417e+02
2.640000e-06	3.374818e-06	1.868238e-09	2.396079e+01	1.266971e+02
2.650000e-06	3.410746e-06	1.891705e-09	2.421587e+01	1.283014e+02
2.660000e-06	3.446614e-06	1.912888e-09	2.447053e+01	1.298558e+02
2.670000e-06	3.482420e-06	1.931976e-09	2.472474e+01	1.313613e+02
2.680000e-06	3.518020e-06	1.951552e-09	2.497751e+01	1.328189e+02
2.690000e-06	3.553283e-06	1.970926e-09	2.522787e+01	1.342296e+02
2.700000e-06	3.588174e-06	1.989717e-09	2.547558e+01	1.355943e+02
2.710000e-06	3.622527e-06	2.009519e-09	2.571949e+01	1.369138e+02
2.720000e-06	3.656274e-06	2.031556e-09	2.595909e+01	1.381889e+02
2.730000e-06	3.689640e-06	2.052457e-09	2.619598e+01	1.394204e+02
2.740000e-06	3.722579e-06	2.068207e-09	2.642985e+01	1.406091e+02
2.750000e-06	3.755127e-06	2.079922e-09	2.666093e+01	1.417557e+02
2.760000e-06	3.787458e-06	2.092819e-09	2.689048e+01	1.428611e+02
2.770000e-06	3.819607e-06	2.107519e-09	2.711873e+01	1.439260e+02
2.780000e-06	3.851637e-06	2.122331e-09	2.734615e+01	1.449513e+02
2.790000e-06	3.883571e-06	2.136248e-09	2.757287e+01	1.459379e+02
2.800000e-06	3.915321e-06	2.151128e-09	2.779829e+01	1.468867e+02
2.810000e-06	3.946777e-06	2.167823e-09	2.802162e+01	1.477986e+02
2.820000e-06	3.977921e-06	2.182720e-09	2.824274e+01	1.486749e+02
2.830000e-06	4.008769e-06	2.191343e-09	2.846176e+01	1.495166e+02
2.840000e-06	4.039313e-06	2.197148e-09	2.867862e+01	1.503248e+02
2.850000e-06	4.069572e-06	2.207341e-09	2.889346e+01	1.511010e+02
2.860000e-06	4.099595e-06	2.221342e-09	2.910661e+01	1.518463e+02
2.870000e-06	4.129408e-06	2.234970e-09	2.931828e+01	1.525621e+02
2.880000e-06	4.158955e-06	2.246302e-09	2.952806e+01	1.532499e+02
2.890000e-06	4.188243e-06	2.255386e-09	2.973600e+01	1.539110e+02
2.900000e-06	4.217300e-06	2.263289e-09	2.994231e+01	1.545470e+02
