# Temperatura_=_-1.3
# Concentracion g/m^3_=_4090.0
# C_Vs_to_Am_M_A/Vsm_=_65563218390.804596
# pendiente_HvsI_1/m_=_3716.3
# ordenada_HvsI_A/m_=_1297.0
# frecuencia_Hz_=_135060.72882993304

Tiempo_(s)	Campo_(V.s)	Magnetizacion_(V.s)	Campo_(kA/m)	Magnetizacion_(A/m)
0.000000e+00	-5.400677e-06	-2.549212e-09	-3.840146e+01	-1.660191e+02
1.000000e-08	-5.400934e-06	-2.546098e-09	-3.840329e+01	-1.659373e+02
2.000000e-08	-5.401020e-06	-2.537863e-09	-3.840390e+01	-1.658592e+02
3.000000e-08	-5.400877e-06	-2.528698e-09	-3.840288e+01	-1.657867e+02
4.000000e-08	-5.400325e-06	-2.524439e-09	-3.839896e+01	-1.657220e+02
5.000000e-08	-5.399248e-06	-2.527320e-09	-3.839130e+01	-1.656666e+02
6.000000e-08	-5.397581e-06	-2.535377e-09	-3.837945e+01	-1.656223e+02
7.000000e-08	-5.395319e-06	-2.541334e-09	-3.836337e+01	-1.655907e+02
8.000000e-08	-5.392490e-06	-2.522563e-09	-3.834325e+01	-1.655729e+02
9.000000e-08	-5.389083e-06	-2.502704e-09	-3.831902e+01	-1.655700e+02
1.000000e-07	-5.385171e-06	-2.560533e-09	-3.829121e+01	-1.655828e+02
1.100000e-07	-5.380891e-06	-2.627277e-09	-3.826077e+01	-1.656117e+02
1.200000e-07	-5.376391e-06	-2.550123e-09	-3.822878e+01	-1.656570e+02
1.300000e-07	-5.371820e-06	-2.450307e-09	-3.819628e+01	-1.657186e+02
1.400000e-07	-5.366985e-06	-2.510418e-09	-3.816189e+01	-1.657960e+02
1.500000e-07	-5.361658e-06	-2.633180e-09	-3.812402e+01	-1.658885e+02
1.600000e-07	-5.356037e-06	-2.554511e-09	-3.808405e+01	-1.659951e+02
1.700000e-07	-5.350080e-06	-2.420039e-09	-3.804169e+01	-1.661146e+02
1.800000e-07	-5.343586e-06	-2.513293e-09	-3.799552e+01	-1.662453e+02
1.900000e-07	-5.336644e-06	-2.672379e-09	-3.794616e+01	-1.663856e+02
2.000000e-07	-5.329431e-06	-2.607081e-09	-3.789487e+01	-1.665335e+02
2.100000e-07	-5.322066e-06	-2.504386e-09	-3.784250e+01	-1.666869e+02
2.200000e-07	-5.314460e-06	-2.593365e-09	-3.778842e+01	-1.668434e+02
2.300000e-07	-5.306601e-06	-2.679815e-09	-3.773253e+01	-1.670007e+02
2.400000e-07	-5.298459e-06	-2.600673e-09	-3.767465e+01	-1.671564e+02
2.500000e-07	-5.289829e-06	-2.573560e-09	-3.761328e+01	-1.673082e+02
2.600000e-07	-5.280462e-06	-2.677234e-09	-3.754667e+01	-1.674536e+02
2.700000e-07	-5.270318e-06	-2.679927e-09	-3.747455e+01	-1.675903e+02
2.800000e-07	-5.259612e-06	-2.594317e-09	-3.739842e+01	-1.677161e+02
2.900000e-07	-5.248481e-06	-2.633564e-09	-3.731927e+01	-1.678289e+02
3.000000e-07	-5.236995e-06	-2.692920e-09	-3.723761e+01	-1.679269e+02
3.100000e-07	-5.225153e-06	-2.595469e-09	-3.715340e+01	-1.680083e+02
3.200000e-07	-5.212902e-06	-2.552602e-09	-3.706629e+01	-1.680718e+02
3.300000e-07	-5.200180e-06	-2.659130e-09	-3.697583e+01	-1.681161e+02
3.400000e-07	-5.187050e-06	-2.672698e-09	-3.688247e+01	-1.681403e+02
3.500000e-07	-5.173569e-06	-2.568679e-09	-3.678662e+01	-1.681438e+02
3.600000e-07	-5.159731e-06	-2.589433e-09	-3.668822e+01	-1.681260e+02
3.700000e-07	-5.145583e-06	-2.646445e-09	-3.658762e+01	-1.680870e+02
3.800000e-07	-5.130946e-06	-2.596646e-09	-3.648354e+01	-1.680270e+02
3.900000e-07	-5.115552e-06	-2.563176e-09	-3.637408e+01	-1.679462e+02
4.000000e-07	-5.099630e-06	-2.607860e-09	-3.626087e+01	-1.678455e+02
4.100000e-07	-5.083424e-06	-2.587563e-09	-3.614564e+01	-1.677257e+02
4.200000e-07	-5.066870e-06	-2.560957e-09	-3.602793e+01	-1.675878e+02
4.300000e-07	-5.050005e-06	-2.601945e-09	-3.590801e+01	-1.674333e+02
4.400000e-07	-5.032831e-06	-2.598302e-09	-3.578590e+01	-1.672634e+02
4.500000e-07	-5.015277e-06	-2.541539e-09	-3.566108e+01	-1.670797e+02
4.600000e-07	-4.997403e-06	-2.563518e-09	-3.553399e+01	-1.668839e+02
4.700000e-07	-4.979278e-06	-2.600398e-09	-3.540511e+01	-1.666776e+02
4.800000e-07	-4.960757e-06	-2.566635e-09	-3.527342e+01	-1.664624e+02
4.900000e-07	-4.941718e-06	-2.545434e-09	-3.513804e+01	-1.662400e+02
5.000000e-07	-4.922294e-06	-2.566974e-09	-3.499992e+01	-1.660120e+02
5.100000e-07	-4.902609e-06	-2.567034e-09	-3.485996e+01	-1.657801e+02
5.200000e-07	-4.882686e-06	-2.554416e-09	-3.471830e+01	-1.655455e+02
5.300000e-07	-4.862582e-06	-2.547624e-09	-3.457534e+01	-1.653096e+02
5.400000e-07	-4.842302e-06	-2.533979e-09	-3.443114e+01	-1.650736e+02
5.500000e-07	-4.821700e-06	-2.539149e-09	-3.428465e+01	-1.648385e+02
5.600000e-07	-4.800665e-06	-2.553746e-09	-3.413508e+01	-1.646052e+02
5.700000e-07	-4.779240e-06	-2.537988e-09	-3.398274e+01	-1.643743e+02
5.800000e-07	-4.757514e-06	-2.517552e-09	-3.382826e+01	-1.641463e+02
5.900000e-07	-4.735566e-06	-2.528206e-09	-3.367220e+01	-1.639215e+02
6.000000e-07	-4.713304e-06	-2.535465e-09	-3.351391e+01	-1.637001e+02
6.100000e-07	-4.690704e-06	-2.524173e-09	-3.335320e+01	-1.634821e+02
6.200000e-07	-4.667737e-06	-2.509038e-09	-3.318990e+01	-1.632673e+02
6.300000e-07	-4.644413e-06	-2.504855e-09	-3.302405e+01	-1.630553e+02
6.400000e-07	-4.620824e-06	-2.513029e-09	-3.285633e+01	-1.628458e+02
6.500000e-07	-4.596960e-06	-2.519259e-09	-3.268664e+01	-1.626381e+02
6.600000e-07	-4.572894e-06	-2.502371e-09	-3.251552e+01	-1.624318e+02
6.700000e-07	-4.548609e-06	-2.490290e-09	-3.234284e+01	-1.622259e+02
6.800000e-07	-4.523957e-06	-2.497776e-09	-3.216755e+01	-1.620199e+02
6.900000e-07	-4.498861e-06	-2.501848e-09	-3.198911e+01	-1.618129e+02
7.000000e-07	-4.473263e-06	-2.487536e-09	-3.180710e+01	-1.616043e+02
7.100000e-07	-4.447096e-06	-2.477119e-09	-3.162103e+01	-1.613931e+02
7.200000e-07	-4.420415e-06	-2.478029e-09	-3.143132e+01	-1.611788e+02
7.300000e-07	-4.393378e-06	-2.482249e-09	-3.123907e+01	-1.609606e+02
7.400000e-07	-4.366057e-06	-2.474281e-09	-3.104481e+01	-1.607380e+02
7.500000e-07	-4.338463e-06	-2.459067e-09	-3.084860e+01	-1.605103e+02
7.600000e-07	-4.310612e-06	-2.454609e-09	-3.065056e+01	-1.602772e+02
7.700000e-07	-4.282560e-06	-2.462464e-09	-3.045110e+01	-1.600383e+02
7.800000e-07	-4.254323e-06	-2.458936e-09	-3.025032e+01	-1.597933e+02
7.900000e-07	-4.225826e-06	-2.444379e-09	-3.004770e+01	-1.595421e+02
8.000000e-07	-4.197035e-06	-2.436524e-09	-2.984298e+01	-1.592845e+02
8.100000e-07	-4.167915e-06	-2.438114e-09	-2.963592e+01	-1.590206e+02
8.200000e-07	-4.138435e-06	-2.436781e-09	-2.942631e+01	-1.587504e+02
8.300000e-07	-4.108665e-06	-2.427203e-09	-2.921462e+01	-1.584741e+02
8.400000e-07	-4.078713e-06	-2.416982e-09	-2.900165e+01	-1.581919e+02
8.500000e-07	-4.048567e-06	-2.415528e-09	-2.878729e+01	-1.579040e+02
8.600000e-07	-4.018090e-06	-2.416495e-09	-2.857059e+01	-1.576109e+02
8.700000e-07	-3.987194e-06	-2.404470e-09	-2.835090e+01	-1.573127e+02
8.800000e-07	-3.956045e-06	-2.388769e-09	-2.812942e+01	-1.570100e+02
8.900000e-07	-3.924732e-06	-2.382413e-09	-2.790677e+01	-1.567029e+02
9.000000e-07	-3.893223e-06	-2.386333e-09	-2.768272e+01	-1.563919e+02
9.100000e-07	-3.861569e-06	-2.383295e-09	-2.745765e+01	-1.560773e+02
9.200000e-07	-3.829789e-06	-2.370391e-09	-2.723168e+01	-1.557594e+02
9.300000e-07	-3.797809e-06	-2.358615e-09	-2.700429e+01	-1.554385e+02
9.400000e-07	-3.765496e-06	-2.352971e-09	-2.677452e+01	-1.551146e+02
9.500000e-07	-3.732870e-06	-2.344389e-09	-2.654254e+01	-1.547881e+02
9.600000e-07	-3.699897e-06	-2.332243e-09	-2.630808e+01	-1.544590e+02
9.700000e-07	-3.666498e-06	-2.325755e-09	-2.607060e+01	-1.541273e+02
9.800000e-07	-3.632718e-06	-2.330037e-09	-2.583041e+01	-1.537930e+02
9.900000e-07	-3.598456e-06	-2.330796e-09	-2.558679e+01	-1.534561e+02
1.000000e-06	-3.563823e-06	-2.320495e-09	-2.534053e+01	-1.531164e+02
1.010000e-06	-3.529001e-06	-2.308494e-09	-2.509293e+01	-1.527738e+02
1.020000e-06	-3.493830e-06	-2.298430e-09	-2.484285e+01	-1.524280e+02
1.030000e-06	-3.458296e-06	-2.286682e-09	-2.459018e+01	-1.520788e+02
1.040000e-06	-3.422601e-06	-2.275537e-09	-2.433637e+01	-1.517259e+02
1.050000e-06	-3.386773e-06	-2.270883e-09	-2.408162e+01	-1.513690e+02
1.060000e-06	-3.350741e-06	-2.273350e-09	-2.382541e+01	-1.510078e+02
1.070000e-06	-3.314582e-06	-2.277141e-09	-2.356830e+01	-1.506419e+02
1.080000e-06	-3.278293e-06	-2.276318e-09	-2.331027e+01	-1.502711e+02
1.090000e-06	-3.241754e-06	-2.267184e-09	-2.305046e+01	-1.498950e+02
1.100000e-06	-3.204950e-06	-2.255771e-09	-2.278877e+01	-1.495134e+02
1.110000e-06	-3.167916e-06	-2.244434e-09	-2.252544e+01	-1.491260e+02
1.120000e-06	-3.130616e-06	-2.230289e-09	-2.226022e+01	-1.487326e+02
1.130000e-06	-3.093091e-06	-2.216370e-09	-2.199339e+01	-1.483330e+02
1.140000e-06	-3.055331e-06	-2.210305e-09	-2.172490e+01	-1.479271e+02
1.150000e-06	-3.017312e-06	-2.214840e-09	-2.145457e+01	-1.475147e+02
1.160000e-06	-2.979153e-06	-2.218681e-09	-2.118324e+01	-1.470958e+02
1.170000e-06	-2.940833e-06	-2.216098e-09	-2.091077e+01	-1.466704e+02
1.180000e-06	-2.902300e-06	-2.207595e-09	-2.063678e+01	-1.462384e+02
1.190000e-06	-2.863598e-06	-2.195902e-09	-2.036158e+01	-1.458000e+02
1.200000e-06	-2.824653e-06	-2.182258e-09	-2.008467e+01	-1.453552e+02
1.210000e-06	-2.785431e-06	-2.165624e-09	-1.980578e+01	-1.449040e+02
1.220000e-06	-2.746011e-06	-2.153075e-09	-1.952548e+01	-1.444467e+02
1.230000e-06	-2.706460e-06	-2.151024e-09	-1.924426e+01	-1.439834e+02
1.240000e-06	-2.666815e-06	-2.153757e-09	-1.896236e+01	-1.435142e+02
1.250000e-06	-2.627068e-06	-2.152757e-09	-1.867974e+01	-1.430392e+02
1.260000e-06	-2.587241e-06	-2.144943e-09	-1.839656e+01	-1.425586e+02
1.270000e-06	-2.547277e-06	-2.132317e-09	-1.811239e+01	-1.420724e+02
1.280000e-06	-2.507175e-06	-2.118727e-09	-1.782725e+01	-1.415808e+02
1.290000e-06	-2.467020e-06	-2.106195e-09	-1.754172e+01	-1.410839e+02
1.300000e-06	-2.426720e-06	-2.095420e-09	-1.725517e+01	-1.405816e+02
1.310000e-06	-2.386237e-06	-2.088002e-09	-1.696731e+01	-1.400739e+02
1.320000e-06	-2.345549e-06	-2.085134e-09	-1.667801e+01	-1.395608e+02
1.330000e-06	-2.304522e-06	-2.082714e-09	-1.638628e+01	-1.390421e+02
1.340000e-06	-2.263170e-06	-2.074597e-09	-1.609225e+01	-1.385178e+02
1.350000e-06	-2.221538e-06	-2.063793e-09	-1.579622e+01	-1.379876e+02
1.360000e-06	-2.179682e-06	-2.053328e-09	-1.549861e+01	-1.374512e+02
1.370000e-06	-2.137642e-06	-2.043894e-09	-1.519968e+01	-1.369084e+02
1.380000e-06	-2.095276e-06	-2.032792e-09	-1.489844e+01	-1.363588e+02
1.390000e-06	-2.052617e-06	-2.020713e-09	-1.459512e+01	-1.358021e+02
1.400000e-06	-2.009718e-06	-2.011329e-09	-1.429008e+01	-1.352378e+02
1.410000e-06	-1.966591e-06	-2.004450e-09	-1.398343e+01	-1.346654e+02
1.420000e-06	-1.923326e-06	-1.997760e-09	-1.367579e+01	-1.340845e+02
1.430000e-06	-1.879946e-06	-1.988439e-09	-1.336734e+01	-1.334945e+02
1.440000e-06	-1.836462e-06	-1.975208e-09	-1.305814e+01	-1.328950e+02
1.450000e-06	-1.792882e-06	-1.959392e-09	-1.274827e+01	-1.322852e+02
1.460000e-06	-1.749249e-06	-1.946485e-09	-1.243802e+01	-1.316647e+02
1.470000e-06	-1.705557e-06	-1.936770e-09	-1.212735e+01	-1.310328e+02
1.480000e-06	-1.661803e-06	-1.925694e-09	-1.181623e+01	-1.303889e+02
1.490000e-06	-1.617957e-06	-1.915578e-09	-1.150447e+01	-1.297325e+02
1.500000e-06	-1.573989e-06	-1.908923e-09	-1.119183e+01	-1.290628e+02
1.510000e-06	-1.529886e-06	-1.900422e-09	-1.087824e+01	-1.283794e+02
1.520000e-06	-1.485678e-06	-1.885198e-09	-1.056390e+01	-1.276814e+02
1.530000e-06	-1.441428e-06	-1.866872e-09	-1.024926e+01	-1.269683e+02
1.540000e-06	-1.397151e-06	-1.852850e-09	-9.934426e+00	-1.262395e+02
1.550000e-06	-1.352807e-06	-1.843207e-09	-9.619123e+00	-1.254943e+02
1.560000e-06	-1.308416e-06	-1.834480e-09	-9.303477e+00	-1.247319e+02
1.570000e-06	-1.264000e-06	-1.824758e-09	-8.987660e+00	-1.239519e+02
1.580000e-06	-1.219490e-06	-1.815639e-09	-8.671172e+00	-1.231534e+02
1.590000e-06	-1.174895e-06	-1.806146e-09	-8.354078e+00	-1.223359e+02
1.600000e-06	-1.130183e-06	-1.792996e-09	-8.036153e+00	-1.214984e+02
1.610000e-06	-1.085326e-06	-1.774212e-09	-7.717201e+00	-1.206404e+02
1.620000e-06	-1.040331e-06	-1.753381e-09	-7.397266e+00	-1.197611e+02
1.630000e-06	-9.952370e-07	-1.737271e-09	-7.076623e+00	-1.188597e+02
1.640000e-06	-9.501078e-07	-1.723496e-09	-6.755732e+00	-1.179353e+02
1.650000e-06	-9.049259e-07	-1.709346e-09	-6.434467e+00	-1.169872e+02
1.660000e-06	-8.597214e-07	-1.696532e-09	-6.113041e+00	-1.160145e+02
1.670000e-06	-8.144481e-07	-1.686844e-09	-5.791126e+00	-1.150162e+02
1.680000e-06	-7.690533e-07	-1.675191e-09	-5.468347e+00	-1.139916e+02
1.690000e-06	-7.236294e-07	-1.654047e-09	-5.145360e+00	-1.129396e+02
1.700000e-06	-6.782368e-07	-1.627727e-09	-4.822597e+00	-1.118592e+02
1.710000e-06	-6.328258e-07	-1.606824e-09	-4.499702e+00	-1.107496e+02
1.720000e-06	-5.873519e-07	-1.592934e-09	-4.176360e+00	-1.096096e+02
1.730000e-06	-5.417501e-07	-1.579181e-09	-3.852109e+00	-1.084383e+02
1.740000e-06	-4.960329e-07	-1.562009e-09	-3.527037e+00	-1.072346e+02
1.750000e-06	-4.502305e-07	-1.546534e-09	-3.201360e+00	-1.059975e+02
1.760000e-06	-4.044297e-07	-1.534927e-09	-2.875694e+00	-1.047260e+02
1.770000e-06	-3.586821e-07	-1.518628e-09	-2.550406e+00	-1.034190e+02
1.780000e-06	-3.129227e-07	-1.492995e-09	-2.225034e+00	-1.020754e+02
1.790000e-06	-2.671746e-07	-1.465615e-09	-1.899743e+00	-1.006943e+02
1.800000e-06	-2.214153e-07	-1.443363e-09	-1.574371e+00	-9.927450e+01
1.810000e-06	-1.756184e-07	-1.422197e-09	-1.248733e+00	-9.781511e+01
1.820000e-06	-1.298178e-07	-1.399303e-09	-9.230685e-01	-9.631508e+01
1.830000e-06	-8.406510e-08	-1.377302e-09	-5.977441e-01	-9.477341e+01
1.840000e-06	-3.835046e-08	-1.357297e-09	-2.726906e-01	-9.318914e+01
1.850000e-06	7.365141e-09	-1.336179e-09	5.236976e-02	-9.156129e+01
1.860000e-06	5.312586e-08	-1.311721e-09	3.777509e-01	-8.988892e+01
1.870000e-06	9.890459e-08	-1.282769e-09	7.032602e-01	-8.817111e+01
1.880000e-06	1.446468e-07	-1.251692e-09	1.028510e+00	-8.640693e+01
1.890000e-06	1.904257e-07	-1.224142e-09	1.354020e+00	-8.459549e+01
1.900000e-06	2.362830e-07	-1.198895e-09	1.680088e+00	-8.273591e+01
1.910000e-06	2.821191e-07	-1.171208e-09	2.006005e+00	-8.082732e+01
1.920000e-06	3.279193e-07	-1.142601e-09	2.331667e+00	-7.886886e+01
1.930000e-06	3.737124e-07	-1.116060e-09	2.657279e+00	-7.685971e+01
1.940000e-06	4.193658e-07	-1.090136e-09	2.981896e+00	-7.479904e+01
1.950000e-06	4.648728e-07	-1.060616e-09	3.305474e+00	-7.268605e+01
1.960000e-06	5.103573e-07	-1.028417e-09	3.628891e+00	-7.051997e+01
1.970000e-06	5.558147e-07	-9.957473e-10	3.952115e+00	-6.830005e+01
1.980000e-06	6.012637e-07	-9.602026e-10	4.275280e+00	-6.602558e+01
1.990000e-06	6.467304e-07	-9.233903e-10	4.598570e+00	-6.369589e+01
2.000000e-06	6.921278e-07	-8.872823e-10	4.921368e+00	-6.131035e+01
2.010000e-06	7.374273e-07	-8.547400e-10	5.243470e+00	-5.886841e+01
2.020000e-06	7.826892e-07	-8.231527e-10	5.565304e+00	-5.636957e+01
2.030000e-06	8.279385e-07	-7.885820e-10	5.887049e+00	-5.381345e+01
2.040000e-06	8.731354e-07	-7.494834e-10	6.208421e+00	-5.119974e+01
2.050000e-06	9.182522e-07	-7.100407e-10	6.529223e+00	-4.852826e+01
2.060000e-06	9.633428e-07	-6.706477e-10	6.849840e+00	-4.579896e+01
2.070000e-06	1.008378e-06	-6.274569e-10	7.170066e+00	-4.301194e+01
2.080000e-06	1.053334e-06	-5.835687e-10	7.489723e+00	-4.016747e+01
2.090000e-06	1.098187e-06	-5.419840e-10	7.808651e+00	-3.726602e+01
2.100000e-06	1.142910e-06	-5.023480e-10	8.126652e+00	-3.430824e+01
2.110000e-06	1.187483e-06	-4.619832e-10	8.443590e+00	-3.129502e+01
2.120000e-06	1.231940e-06	-4.177340e-10	8.759699e+00	-2.822748e+01
2.130000e-06	1.276310e-06	-3.717707e-10	9.075193e+00	-2.510700e+01
2.140000e-06	1.320607e-06	-3.254634e-10	9.390165e+00	-2.193521e+01
2.150000e-06	1.364869e-06	-2.753030e-10	9.704885e+00	-1.871403e+01
2.160000e-06	1.409070e-06	-2.225687e-10	1.001918e+01	-1.544565e+01
2.170000e-06	1.453209e-06	-1.713702e-10	1.033303e+01	-1.213257e+01
2.180000e-06	1.497228e-06	-1.247822e-10	1.064603e+01	-8.777556e+00
2.190000e-06	1.541140e-06	-7.903747e-11	1.095826e+01	-5.383672e+00
2.200000e-06	1.585036e-06	-3.020989e-11	1.127038e+01	-1.954265e+00
2.210000e-06	1.628931e-06	2.200463e-11	1.158250e+01	1.507044e+00
2.220000e-06	1.672814e-06	7.712161e-11	1.189453e+01	4.996371e+00
2.230000e-06	1.716633e-06	1.355257e-10	1.220610e+01	8.509591e+00
2.240000e-06	1.760327e-06	1.950346e-10	1.251679e+01	1.204235e+01
2.250000e-06	1.803938e-06	2.503788e-10	1.282689e+01	1.559010e+01
2.260000e-06	1.847480e-06	3.001433e-10	1.313649e+01	1.914812e+01
2.270000e-06	1.890936e-06	3.498952e-10	1.344548e+01	2.271154e+01
2.280000e-06	1.934259e-06	4.039165e-10	1.375353e+01	2.627538e+01
2.290000e-06	1.977402e-06	4.587518e-10	1.406030e+01	2.983458e+01
2.300000e-06	2.020380e-06	5.116901e-10	1.436589e+01	3.338407e+01
2.310000e-06	2.063165e-06	5.649367e-10	1.467011e+01	3.691874e+01
2.320000e-06	2.105672e-06	6.169002e-10	1.497236e+01	4.043355e+01
2.330000e-06	2.147853e-06	6.674859e-10	1.527229e+01	4.392352e+01
2.340000e-06	2.189850e-06	7.161737e-10	1.557091e+01	4.738378e+01
2.350000e-06	2.231601e-06	7.647910e-10	1.586778e+01	5.080965e+01
2.360000e-06	2.272964e-06	8.162834e-10	1.616189e+01	5.419659e+01
2.370000e-06	2.313966e-06	8.694318e-10	1.645343e+01	5.754030e+01
2.380000e-06	2.354708e-06	9.194876e-10	1.674313e+01	6.083674e+01
2.390000e-06	2.395286e-06	9.649554e-10	1.703166e+01	6.408214e+01
2.400000e-06	2.435629e-06	1.008008e-09	1.731852e+01	6.727304e+01
2.410000e-06	2.475803e-06	1.049622e-09	1.760417e+01	7.040627e+01
2.420000e-06	2.515869e-06	1.087965e-09	1.788907e+01	7.347905e+01
2.430000e-06	2.555853e-06	1.126224e-09	1.817337e+01	7.648889e+01
2.440000e-06	2.595798e-06	1.169810e-09	1.845740e+01	7.943370e+01
2.450000e-06	2.635633e-06	1.215781e-09	1.874064e+01	8.231170e+01
2.460000e-06	2.675374e-06	1.259720e-09	1.902322e+01	8.512151e+01
2.470000e-06	2.714965e-06	1.299768e-09	1.930473e+01	8.786205e+01
2.480000e-06	2.754393e-06	1.336086e-09	1.958508e+01	9.053259e+01
2.490000e-06	2.793627e-06	1.369694e-09	1.986406e+01	9.313273e+01
2.500000e-06	2.832589e-06	1.402135e-09	2.014110e+01	9.566234e+01
2.510000e-06	2.871319e-06	1.433888e-09	2.041648e+01	9.812160e+01
2.520000e-06	2.909919e-06	1.467428e-09	2.069095e+01	1.005109e+02
2.530000e-06	2.948369e-06	1.504719e-09	2.096435e+01	1.028309e+02
2.540000e-06	2.986529e-06	1.541086e-09	2.123568e+01	1.050824e+02
2.550000e-06	3.024458e-06	1.573750e-09	2.150538e+01	1.072665e+02
2.560000e-06	3.062264e-06	1.606679e-09	2.177420e+01	1.093842e+02
2.570000e-06	3.099934e-06	1.636889e-09	2.204205e+01	1.114369e+02
2.580000e-06	3.137365e-06	1.662338e-09	2.230820e+01	1.134259e+02
2.590000e-06	3.174468e-06	1.684994e-09	2.257202e+01	1.153526e+02
2.600000e-06	3.211297e-06	1.707383e-09	2.283390e+01	1.172184e+02
2.610000e-06	3.247885e-06	1.731921e-09	2.309406e+01	1.190248e+02
2.620000e-06	3.284227e-06	1.758271e-09	2.335246e+01	1.207733e+02
2.630000e-06	3.320368e-06	1.783502e-09	2.360945e+01	1.224652e+02
2.640000e-06	3.356370e-06	1.808283e-09	2.386544e+01	1.241020e+02
2.650000e-06	3.392305e-06	1.832240e-09	2.412095e+01	1.256850e+02
2.660000e-06	3.428133e-06	1.853158e-09	2.437571e+01	1.272155e+02
2.670000e-06	3.463832e-06	1.870926e-09	2.462955e+01	1.286947e+02
2.680000e-06	3.499406e-06	1.889814e-09	2.488249e+01	1.301240e+02
2.690000e-06	3.534743e-06	1.910641e-09	2.513376e+01	1.315042e+02
2.700000e-06	3.569747e-06	1.930637e-09	2.538265e+01	1.328366e+02
2.710000e-06	3.604347e-06	1.949746e-09	2.562867e+01	1.341222e+02
2.720000e-06	3.638422e-06	1.969299e-09	2.587096e+01	1.353621e+02
2.730000e-06	3.672030e-06	1.989227e-09	2.610994e+01	1.365571e+02
2.740000e-06	3.705171e-06	2.006320e-09	2.634558e+01	1.377082e+02
2.750000e-06	3.737915e-06	2.020482e-09	2.657841e+01	1.388165e+02
2.760000e-06	3.770340e-06	2.035994e-09	2.680897e+01	1.398829e+02
2.770000e-06	3.802510e-06	2.053142e-09	2.703771e+01	1.409084e+02
2.780000e-06	3.834553e-06	2.067392e-09	2.726556e+01	1.418941e+02
2.790000e-06	3.866444e-06	2.079162e-09	2.749231e+01	1.428410e+02
2.800000e-06	3.898208e-06	2.090998e-09	2.771817e+01	1.437503e+02
2.810000e-06	3.929806e-06	2.104555e-09	2.794285e+01	1.446232e+02
2.820000e-06	3.961133e-06	2.118250e-09	2.816560e+01	1.454609e+02
2.830000e-06	3.992209e-06	2.128845e-09	2.838656e+01	1.462647e+02
2.840000e-06	4.022951e-06	2.139718e-09	2.860515e+01	1.470360e+02
2.850000e-06	4.053311e-06	2.154361e-09	2.882103e+01	1.477761e+02
2.860000e-06	4.083385e-06	2.170504e-09	2.903487e+01	1.484866e+02
2.870000e-06	4.113218e-06	2.183728e-09	2.924700e+01	1.491690e+02
2.880000e-06	4.142802e-06	2.192117e-09	2.945735e+01	1.498248e+02
2.890000e-06	4.172109e-06	2.198617e-09	2.966574e+01	1.504554e+02
2.900000e-06	4.201214e-06	2.203888e-09	2.987269e+01	1.510625e+02
