# Temperatura_=_-1.12
# Concentracion g/m^3_=_4090.0
# C_Vs_to_Am_M_A/Vsm_=_65563218390.804596
# pendiente_HvsI_1/m_=_3716.3
# ordenada_HvsI_A/m_=_1297.0
# frecuencia_Hz_=_135060.56096752564

Tiempo_(s)	Campo_(V.s)	Magnetizacion_(V.s)	Campo_(kA/m)	Magnetizacion_(A/m)
0.000000e+00	-5.411160e-06	-2.588306e-09	-3.840243e+01	-1.674181e+02
1.000000e-08	-5.411304e-06	-2.587012e-09	-3.840345e+01	-1.673140e+02
2.000000e-08	-5.411237e-06	-2.585929e-09	-3.840297e+01	-1.672102e+02
3.000000e-08	-5.410865e-06	-2.582391e-09	-3.840034e+01	-1.671088e+02
4.000000e-08	-5.410073e-06	-2.579356e-09	-3.839472e+01	-1.670118e+02
5.000000e-08	-5.408837e-06	-2.581895e-09	-3.838594e+01	-1.669212e+02
6.000000e-08	-5.407077e-06	-2.590976e-09	-3.837345e+01	-1.668390e+02
7.000000e-08	-5.404625e-06	-2.581865e-09	-3.835605e+01	-1.667670e+02
8.000000e-08	-5.401485e-06	-2.543019e-09	-3.833376e+01	-1.667067e+02
9.000000e-08	-5.397839e-06	-2.561595e-09	-3.830789e+01	-1.666597e+02
1.000000e-07	-5.393807e-06	-2.670357e-09	-3.827927e+01	-1.666271e+02
1.100000e-07	-5.389465e-06	-2.675438e-09	-3.824846e+01	-1.666098e+02
1.200000e-07	-5.385011e-06	-2.523087e-09	-3.821685e+01	-1.666085e+02
1.300000e-07	-5.380421e-06	-2.484842e-09	-3.818428e+01	-1.666235e+02
1.400000e-07	-5.375393e-06	-2.638522e-09	-3.814860e+01	-1.666549e+02
1.500000e-07	-5.369863e-06	-2.683391e-09	-3.810935e+01	-1.667025e+02
1.600000e-07	-5.363980e-06	-2.497039e-09	-3.806760e+01	-1.667657e+02
1.700000e-07	-5.357675e-06	-2.457690e-09	-3.802285e+01	-1.668436e+02
1.800000e-07	-5.350867e-06	-2.662324e-09	-3.797454e+01	-1.669350e+02
1.900000e-07	-5.343696e-06	-2.732994e-09	-3.792365e+01	-1.670385e+02
2.000000e-07	-5.336269e-06	-2.575880e-09	-3.787094e+01	-1.671525e+02
2.100000e-07	-5.328635e-06	-2.548335e-09	-3.781676e+01	-1.672751e+02
2.200000e-07	-5.320770e-06	-2.676500e-09	-3.776094e+01	-1.674042e+02
2.300000e-07	-5.312601e-06	-2.663016e-09	-3.770297e+01	-1.675376e+02
2.400000e-07	-5.304130e-06	-2.568744e-09	-3.764285e+01	-1.676730e+02
2.500000e-07	-5.295235e-06	-2.636961e-09	-3.757972e+01	-1.678080e+02
2.600000e-07	-5.285596e-06	-2.728524e-09	-3.751132e+01	-1.679402e+02
2.700000e-07	-5.275208e-06	-2.652021e-09	-3.743759e+01	-1.680673e+02
2.800000e-07	-5.264288e-06	-2.620792e-09	-3.736010e+01	-1.681868e+02
2.900000e-07	-5.253014e-06	-2.721150e-09	-3.728009e+01	-1.682967e+02
3.000000e-07	-5.241361e-06	-2.697944e-09	-3.719738e+01	-1.683947e+02
3.100000e-07	-5.229277e-06	-2.572989e-09	-3.711162e+01	-1.684791e+02
3.200000e-07	-5.216891e-06	-2.629448e-09	-3.702372e+01	-1.685481e+02
3.300000e-07	-5.204143e-06	-2.738850e-09	-3.693326e+01	-1.686003e+02
3.400000e-07	-5.190978e-06	-2.671285e-09	-3.683982e+01	-1.686344e+02
3.500000e-07	-5.177433e-06	-2.607347e-09	-3.674369e+01	-1.686494e+02
3.600000e-07	-5.163467e-06	-2.684748e-09	-3.664458e+01	-1.686448e+02
3.700000e-07	-5.149105e-06	-2.689920e-09	-3.654265e+01	-1.686202e+02
3.800000e-07	-5.134267e-06	-2.619416e-09	-3.643735e+01	-1.685754e+02
3.900000e-07	-5.118799e-06	-2.630516e-09	-3.632758e+01	-1.685105e+02
4.000000e-07	-5.102779e-06	-2.653692e-09	-3.621388e+01	-1.684261e+02
4.100000e-07	-5.086379e-06	-2.610817e-09	-3.609749e+01	-1.683228e+02
4.200000e-07	-5.069628e-06	-2.628519e-09	-3.597861e+01	-1.682015e+02
4.300000e-07	-5.052584e-06	-2.668566e-09	-3.585765e+01	-1.680634e+02
4.400000e-07	-5.035350e-06	-2.623131e-09	-3.573535e+01	-1.679095e+02
4.500000e-07	-5.017714e-06	-2.596650e-09	-3.561019e+01	-1.677415e+02
4.600000e-07	-4.999587e-06	-2.647349e-09	-3.548154e+01	-1.675607e+02
4.700000e-07	-4.981036e-06	-2.645059e-09	-3.534988e+01	-1.673688e+02
4.800000e-07	-4.962145e-06	-2.592182e-09	-3.521581e+01	-1.671673e+02
4.900000e-07	-4.942933e-06	-2.591155e-09	-3.507947e+01	-1.669579e+02
5.000000e-07	-4.923375e-06	-2.609614e-09	-3.494067e+01	-1.667421e+02
5.100000e-07	-4.903550e-06	-2.603372e-09	-3.479997e+01	-1.665215e+02
5.200000e-07	-4.883492e-06	-2.597816e-09	-3.465763e+01	-1.662975e+02
5.300000e-07	-4.863201e-06	-2.589544e-09	-3.451362e+01	-1.660713e+02
5.400000e-07	-4.842662e-06	-2.580626e-09	-3.436786e+01	-1.658442e+02
5.500000e-07	-4.821846e-06	-2.596881e-09	-3.422013e+01	-1.656171e+02
5.600000e-07	-4.800700e-06	-2.595389e-09	-3.407006e+01	-1.653908e+02
5.700000e-07	-4.779202e-06	-2.562077e-09	-3.391749e+01	-1.651659e+02
5.800000e-07	-4.757380e-06	-2.550128e-09	-3.376262e+01	-1.649430e+02
5.900000e-07	-4.735202e-06	-2.566885e-09	-3.360523e+01	-1.647222e+02
6.000000e-07	-4.712704e-06	-2.564681e-09	-3.344556e+01	-1.645037e+02
6.100000e-07	-4.689853e-06	-2.548054e-09	-3.328339e+01	-1.642873e+02
6.200000e-07	-4.666618e-06	-2.534094e-09	-3.311850e+01	-1.640727e+02
6.300000e-07	-4.643103e-06	-2.535917e-09	-3.295161e+01	-1.638596e+02
6.400000e-07	-4.619344e-06	-2.546935e-09	-3.278300e+01	-1.636473e+02
6.500000e-07	-4.595398e-06	-2.540084e-09	-3.261305e+01	-1.634353e+02
6.600000e-07	-4.571239e-06	-2.513409e-09	-3.244160e+01	-1.632227e+02
6.700000e-07	-4.546771e-06	-2.509220e-09	-3.226795e+01	-1.630089e+02
6.800000e-07	-4.521975e-06	-2.523663e-09	-3.209198e+01	-1.627928e+02
6.900000e-07	-4.496718e-06	-2.521569e-09	-3.191273e+01	-1.625737e+02
7.000000e-07	-4.470825e-06	-2.503612e-09	-3.172897e+01	-1.623508e+02
7.100000e-07	-4.444325e-06	-2.498798e-09	-3.154090e+01	-1.621232e+02
7.200000e-07	-4.417436e-06	-2.507963e-09	-3.135008e+01	-1.618902e+02
7.300000e-07	-4.390232e-06	-2.510848e-09	-3.115701e+01	-1.616511e+02
7.400000e-07	-4.362683e-06	-2.495658e-09	-3.096150e+01	-1.614054e+02
7.500000e-07	-4.334897e-06	-2.479528e-09	-3.076431e+01	-1.611526e+02
7.600000e-07	-4.306925e-06	-2.481464e-09	-3.056579e+01	-1.608923e+02
7.700000e-07	-4.278766e-06	-2.485043e-09	-3.036595e+01	-1.606244e+02
7.800000e-07	-4.250412e-06	-2.471693e-09	-3.016472e+01	-1.603487e+02
7.900000e-07	-4.221730e-06	-2.457528e-09	-2.996117e+01	-1.600654e+02
8.000000e-07	-4.192701e-06	-2.460843e-09	-2.975516e+01	-1.597745e+02
8.100000e-07	-4.163342e-06	-2.468333e-09	-2.954680e+01	-1.594764e+02
8.200000e-07	-4.133666e-06	-2.463059e-09	-2.933619e+01	-1.591714e+02
8.300000e-07	-4.103717e-06	-2.448207e-09	-2.912364e+01	-1.588601e+02
8.400000e-07	-4.073514e-06	-2.441597e-09	-2.890930e+01	-1.585431e+02
8.500000e-07	-4.043109e-06	-2.445813e-09	-2.869352e+01	-1.582209e+02
8.600000e-07	-4.012491e-06	-2.442215e-09	-2.847623e+01	-1.578944e+02
8.700000e-07	-3.981584e-06	-2.425029e-09	-2.825688e+01	-1.575642e+02
8.800000e-07	-3.950299e-06	-2.412695e-09	-2.803485e+01	-1.572311e+02
8.900000e-07	-3.918749e-06	-2.414089e-09	-2.781094e+01	-1.568959e+02
9.000000e-07	-3.887042e-06	-2.417607e-09	-2.758593e+01	-1.565592e+02
9.100000e-07	-3.855159e-06	-2.408822e-09	-2.735965e+01	-1.562216e+02
9.200000e-07	-3.823104e-06	-2.398061e-09	-2.713216e+01	-1.558839e+02
9.300000e-07	-3.790831e-06	-2.394840e-09	-2.690313e+01	-1.555466e+02
9.400000e-07	-3.758319e-06	-2.392841e-09	-2.667239e+01	-1.552100e+02
9.500000e-07	-3.725502e-06	-2.382240e-09	-2.643949e+01	-1.548747e+02
9.600000e-07	-3.692299e-06	-2.369759e-09	-2.620386e+01	-1.545407e+02
9.700000e-07	-3.658562e-06	-2.365792e-09	-2.596442e+01	-1.542082e+02
9.800000e-07	-3.624331e-06	-2.366884e-09	-2.572149e+01	-1.538773e+02
9.900000e-07	-3.589754e-06	-2.357852e-09	-2.547611e+01	-1.535479e+02
1.000000e-06	-3.554828e-06	-2.341048e-09	-2.522824e+01	-1.532198e+02
1.010000e-06	-3.519617e-06	-2.330697e-09	-2.497835e+01	-1.528927e+02
1.020000e-06	-3.484123e-06	-2.327926e-09	-2.472645e+01	-1.525663e+02
1.030000e-06	-3.448463e-06	-2.322759e-09	-2.447338e+01	-1.522399e+02
1.040000e-06	-3.412714e-06	-2.317191e-09	-2.421967e+01	-1.519132e+02
1.050000e-06	-3.376820e-06	-2.317615e-09	-2.396493e+01	-1.515855e+02
1.060000e-06	-3.340762e-06	-2.320185e-09	-2.370903e+01	-1.512561e+02
1.070000e-06	-3.304516e-06	-2.315014e-09	-2.345180e+01	-1.509243e+02
1.080000e-06	-3.268048e-06	-2.299730e-09	-2.319299e+01	-1.505896e+02
1.090000e-06	-3.231342e-06	-2.283619e-09	-2.293249e+01	-1.502510e+02
1.100000e-06	-3.194359e-06	-2.276258e-09	-2.267003e+01	-1.499080e+02
1.110000e-06	-3.157166e-06	-2.273046e-09	-2.240607e+01	-1.495599e+02
1.120000e-06	-3.119733e-06	-2.266413e-09	-2.214042e+01	-1.492060e+02
1.130000e-06	-3.082084e-06	-2.260541e-09	-2.187323e+01	-1.488456e+02
1.140000e-06	-3.044233e-06	-2.259064e-09	-2.160460e+01	-1.484784e+02
1.150000e-06	-3.006095e-06	-2.255070e-09	-2.133394e+01	-1.481037e+02
1.160000e-06	-2.967784e-06	-2.238953e-09	-2.106205e+01	-1.477211e+02
1.170000e-06	-2.929299e-06	-2.221240e-09	-2.078893e+01	-1.473303e+02
1.180000e-06	-2.890553e-06	-2.211862e-09	-2.051395e+01	-1.469309e+02
1.190000e-06	-2.851576e-06	-2.206714e-09	-2.023733e+01	-1.465228e+02
1.200000e-06	-2.812429e-06	-2.197038e-09	-1.995951e+01	-1.461056e+02
1.210000e-06	-2.773125e-06	-2.185046e-09	-1.968058e+01	-1.456794e+02
1.220000e-06	-2.733670e-06	-2.179577e-09	-1.940057e+01	-1.452441e+02
1.230000e-06	-2.694034e-06	-2.177926e-09	-1.911927e+01	-1.447995e+02
1.240000e-06	-2.654226e-06	-2.169587e-09	-1.883676e+01	-1.443458e+02
1.250000e-06	-2.614330e-06	-2.157191e-09	-1.855362e+01	-1.438830e+02
1.260000e-06	-2.574377e-06	-2.148007e-09	-1.827008e+01	-1.434110e+02
1.270000e-06	-2.534323e-06	-2.141619e-09	-1.798582e+01	-1.429301e+02
1.280000e-06	-2.494141e-06	-2.131453e-09	-1.770066e+01	-1.424402e+02
1.290000e-06	-2.453878e-06	-2.118758e-09	-1.741491e+01	-1.419414e+02
1.300000e-06	-2.413488e-06	-2.110534e-09	-1.712827e+01	-1.414338e+02
1.310000e-06	-2.372854e-06	-2.106081e-09	-1.683989e+01	-1.409173e+02
1.320000e-06	-2.331895e-06	-2.099110e-09	-1.654921e+01	-1.403919e+02
1.330000e-06	-2.290666e-06	-2.086961e-09	-1.625661e+01	-1.398577e+02
1.340000e-06	-2.249250e-06	-2.076219e-09	-1.596269e+01	-1.393145e+02
1.350000e-06	-2.207546e-06	-2.067874e-09	-1.566672e+01	-1.387621e+02
1.360000e-06	-2.165500e-06	-2.057097e-09	-1.536832e+01	-1.382005e+02
1.370000e-06	-2.123180e-06	-2.044706e-09	-1.506798e+01	-1.376294e+02
1.380000e-06	-2.080546e-06	-2.034213e-09	-1.476541e+01	-1.370486e+02
1.390000e-06	-2.037638e-06	-2.026232e-09	-1.446090e+01	-1.364577e+02
1.400000e-06	-1.994592e-06	-2.017850e-09	-1.415541e+01	-1.358566e+02
1.410000e-06	-1.951375e-06	-2.007744e-09	-1.384871e+01	-1.352447e+02
1.420000e-06	-1.907969e-06	-1.997019e-09	-1.354065e+01	-1.346219e+02
1.430000e-06	-1.864432e-06	-1.985926e-09	-1.323168e+01	-1.339877e+02
1.440000e-06	-1.820785e-06	-1.972822e-09	-1.292192e+01	-1.333417e+02
1.450000e-06	-1.777042e-06	-1.956946e-09	-1.261148e+01	-1.326836e+02
1.460000e-06	-1.733236e-06	-1.944179e-09	-1.230059e+01	-1.320128e+02
1.470000e-06	-1.689350e-06	-1.937095e-09	-1.198914e+01	-1.313291e+02
1.480000e-06	-1.645397e-06	-1.930123e-09	-1.167721e+01	-1.306321e+02
1.490000e-06	-1.601447e-06	-1.918677e-09	-1.136530e+01	-1.299214e+02
1.500000e-06	-1.557481e-06	-1.906122e-09	-1.105328e+01	-1.291966e+02
1.510000e-06	-1.513357e-06	-1.895636e-09	-1.074013e+01	-1.284573e+02
1.520000e-06	-1.469075e-06	-1.883990e-09	-1.042587e+01	-1.277033e+02
1.530000e-06	-1.424737e-06	-1.869836e-09	-1.011121e+01	-1.269342e+02
1.540000e-06	-1.380337e-06	-1.855146e-09	-9.796108e+00	-1.261497e+02
1.550000e-06	-1.335882e-06	-1.843337e-09	-9.480612e+00	-1.253494e+02
1.560000e-06	-1.291391e-06	-1.833373e-09	-9.164868e+00	-1.245331e+02
1.570000e-06	-1.246834e-06	-1.820167e-09	-8.848647e+00	-1.237003e+02
1.580000e-06	-1.202165e-06	-1.806772e-09	-8.531640e+00	-1.228508e+02
1.590000e-06	-1.157391e-06	-1.798245e-09	-8.213880e+00	-1.219841e+02
1.600000e-06	-1.112520e-06	-1.791795e-09	-7.895439e+00	-1.210998e+02
1.610000e-06	-1.067522e-06	-1.778389e-09	-7.576088e+00	-1.201976e+02
1.620000e-06	-1.022416e-06	-1.758900e-09	-7.255978e+00	-1.192768e+02
1.630000e-06	-9.772156e-07	-1.740545e-09	-6.935196e+00	-1.183369e+02
1.640000e-06	-9.319634e-07	-1.722952e-09	-6.614045e+00	-1.173773e+02
1.650000e-06	-8.866794e-07	-1.703714e-09	-6.292670e+00	-1.163973e+02
1.660000e-06	-8.413718e-07	-1.686202e-09	-5.971127e+00	-1.153962e+02
1.670000e-06	-7.960567e-07	-1.675587e-09	-5.649530e+00	-1.143730e+02
1.680000e-06	-7.506713e-07	-1.667342e-09	-5.327435e+00	-1.133269e+02
1.690000e-06	-7.051241e-07	-1.651236e-09	-5.004191e+00	-1.122569e+02
1.700000e-06	-6.593938e-07	-1.626992e-09	-4.679648e+00	-1.111619e+02
1.710000e-06	-6.136779e-07	-1.602959e-09	-4.355207e+00	-1.100406e+02
1.720000e-06	-5.679922e-07	-1.585402e-09	-4.030981e+00	-1.088920e+02
1.730000e-06	-5.222867e-07	-1.570423e-09	-3.706613e+00	-1.077146e+02
1.740000e-06	-4.765166e-07	-1.551982e-09	-3.381788e+00	-1.065071e+02
1.750000e-06	-4.306936e-07	-1.534503e-09	-3.056587e+00	-1.052681e+02
1.760000e-06	-3.848762e-07	-1.521893e-09	-2.731425e+00	-1.039961e+02
1.770000e-06	-3.389695e-07	-1.506158e-09	-2.405631e+00	-1.026897e+02
1.780000e-06	-2.929834e-07	-1.480220e-09	-2.079272e+00	-1.013472e+02
1.790000e-06	-2.470107e-07	-1.450062e-09	-1.753009e+00	-9.996714e+01
1.800000e-06	-2.011030e-07	-1.423989e-09	-1.427207e+00	-9.854800e+01
1.810000e-06	-1.552510e-07	-1.403817e-09	-1.101800e+00	-9.708824e+01
1.820000e-06	-1.093354e-07	-1.383067e-09	-7.759418e-01	-9.558636e+01
1.830000e-06	-6.338778e-08	-1.360864e-09	-4.498563e-01	-9.404087e+01
1.840000e-06	-1.749574e-08	-1.340899e-09	-1.241654e-01	-9.245036e+01
1.850000e-06	2.838445e-08	-1.321049e-09	2.014415e-01	-9.081345e+01
1.860000e-06	7.420068e-08	-1.293886e-09	5.265944e-01	-8.912883e+01
1.870000e-06	1.199402e-07	-1.258619e-09	8.512033e-01	-8.739526e+01
1.880000e-06	1.657011e-07	-1.226046e-09	1.175963e+00	-8.561156e+01
1.890000e-06	2.115564e-07	-1.200048e-09	1.501393e+00	-8.377667e+01
1.900000e-06	2.574208e-07	-1.172213e-09	1.826888e+00	-8.188957e+01
1.910000e-06	3.031894e-07	-1.140957e-09	2.151703e+00	-7.994937e+01
1.920000e-06	3.489273e-07	-1.113207e-09	2.476300e+00	-7.795524e+01
1.930000e-06	3.947036e-07	-1.088907e-09	2.801169e+00	-7.590647e+01
1.940000e-06	4.404856e-07	-1.061752e-09	3.126080e+00	-7.380241e+01
1.950000e-06	4.862557e-07	-1.027148e-09	3.450905e+00	-7.164254e+01
1.960000e-06	5.319935e-07	-9.907901e-10	3.775502e+00	-6.942639e+01
1.970000e-06	5.776855e-07	-9.579293e-10	4.099773e+00	-6.715362e+01
1.980000e-06	6.232946e-07	-9.246565e-10	4.423456e+00	-6.482395e+01
1.990000e-06	6.687791e-07	-8.853315e-10	4.746254e+00	-6.243721e+01
2.000000e-06	7.141600e-07	-8.451001e-10	5.068318e+00	-5.999332e+01
2.010000e-06	7.595103e-07	-8.108948e-10	5.390164e+00	-5.749227e+01
2.020000e-06	8.048427e-07	-7.801284e-10	5.711884e+00	-5.493417e+01
2.030000e-06	8.502183e-07	-7.456157e-10	6.033909e+00	-5.231921e+01
2.040000e-06	8.955711e-07	-7.070432e-10	6.355773e+00	-4.964768e+01
2.050000e-06	9.407300e-07	-6.692055e-10	6.676261e+00	-4.691999e+01
2.060000e-06	9.858109e-07	-6.306433e-10	6.996195e+00	-4.413666e+01
2.070000e-06	1.030853e-06	-5.868589e-10	7.315856e+00	-4.129831e+01
2.080000e-06	1.075769e-06	-5.399659e-10	7.634617e+00	-3.840572e+01
2.090000e-06	1.120552e-06	-4.953941e-10	7.952438e+00	-3.545978e+01
2.100000e-06	1.165266e-06	-4.542572e-10	8.269767e+00	-3.246157e+01
2.110000e-06	1.209909e-06	-4.126232e-10	8.586596e+00	-2.941230e+01
2.120000e-06	1.254487e-06	-3.677469e-10	8.902965e+00	-2.631336e+01
2.130000e-06	1.299018e-06	-3.242906e-10	9.218993e+00	-2.316634e+01
2.140000e-06	1.343435e-06	-2.809347e-10	9.534214e+00	-1.997301e+01
2.150000e-06	1.387724e-06	-2.315959e-10	9.848527e+00	-1.673537e+01
2.160000e-06	1.431939e-06	-1.773856e-10	1.016232e+01	-1.345562e+01
2.170000e-06	1.476089e-06	-1.251860e-10	1.047565e+01	-1.013620e+01
2.180000e-06	1.520227e-06	-7.821292e-11	1.078889e+01	-6.779766e+00
2.190000e-06	1.564316e-06	-3.407727e-11	1.110179e+01	-3.389224e+00
2.200000e-06	1.608283e-06	1.237563e-11	1.141381e+01	3.229131e-02
2.210000e-06	1.652201e-06	6.145928e-11	1.172550e+01	3.481406e+00
2.220000e-06	1.696103e-06	1.100774e-10	1.203706e+01	6.954519e+00
2.230000e-06	1.739997e-06	1.598630e-10	1.234857e+01	1.044781e+01
2.240000e-06	1.783787e-06	2.144792e-10	1.265935e+01	1.395723e+01
2.250000e-06	1.827442e-06	2.700686e-10	1.296916e+01	1.747858e+01
2.260000e-06	1.871036e-06	3.207195e-10	1.327854e+01	2.100743e+01
2.270000e-06	1.914497e-06	3.700652e-10	1.358698e+01	2.453925e+01
2.280000e-06	1.957820e-06	4.220106e-10	1.389444e+01	2.806934e+01
2.290000e-06	2.001032e-06	4.754659e-10	1.420111e+01	3.159293e+01
2.300000e-06	2.043961e-06	5.277511e-10	1.450577e+01	3.510518e+01
2.310000e-06	2.086630e-06	5.793889e-10	1.480859e+01	3.860120e+01
2.320000e-06	2.129122e-06	6.314926e-10	1.511015e+01	4.207612e+01
2.330000e-06	2.171327e-06	6.841209e-10	1.540968e+01	4.552512e+01
2.340000e-06	2.213143e-06	7.351777e-10	1.570644e+01	4.894343e+01
2.350000e-06	2.254716e-06	7.825126e-10	1.600148e+01	5.232641e+01
2.360000e-06	2.296089e-06	8.293111e-10	1.629510e+01	5.566958e+01
2.370000e-06	2.337005e-06	8.782926e-10	1.658548e+01	5.896863e+01
2.380000e-06	2.377625e-06	9.260030e-10	1.687375e+01	6.221950e+01
2.390000e-06	2.418195e-06	9.716508e-10	1.716167e+01	6.541836e+01
2.400000e-06	2.458645e-06	1.017888e-09	1.744874e+01	6.856168e+01
2.410000e-06	2.498909e-06	1.064342e-09	1.773449e+01	7.164625e+01
2.420000e-06	2.539054e-06	1.107176e-09	1.801940e+01	7.466916e+01
2.430000e-06	2.579068e-06	1.145585e-09	1.830337e+01	7.762790e+01
2.440000e-06	2.618980e-06	1.184473e-09	1.858662e+01	8.052028e+01
2.450000e-06	2.658853e-06	1.225051e-09	1.886960e+01	8.334452e+01
2.460000e-06	2.698601e-06	1.265183e-09	1.915169e+01	8.609918e+01
2.470000e-06	2.738166e-06	1.304015e-09	1.943248e+01	8.878324e+01
2.480000e-06	2.777543e-06	1.343362e-09	1.971193e+01	9.139600e+01
2.490000e-06	2.816725e-06	1.383353e-09	1.999000e+01	9.393717e+01
2.500000e-06	2.855676e-06	1.420463e-09	2.026643e+01	9.640675e+01
2.510000e-06	2.894336e-06	1.452771e-09	2.054080e+01	9.880511e+01
2.520000e-06	2.932771e-06	1.481832e-09	2.081357e+01	1.011329e+02
2.530000e-06	2.971100e-06	1.513102e-09	2.108558e+01	1.033910e+02
2.540000e-06	3.009262e-06	1.546439e-09	2.135641e+01	1.055806e+02
2.550000e-06	3.047165e-06	1.581409e-09	2.162541e+01	1.077031e+02
2.560000e-06	3.084811e-06	1.616411e-09	2.189258e+01	1.097600e+02
2.570000e-06	3.122315e-06	1.647134e-09	2.215874e+01	1.117530e+02
2.580000e-06	3.159716e-06	1.674399e-09	2.242417e+01	1.136839e+02
2.590000e-06	3.196881e-06	1.697448e-09	2.268793e+01	1.155546e+02
2.600000e-06	3.233644e-06	1.716606e-09	2.294883e+01	1.173670e+02
2.610000e-06	3.270079e-06	1.737336e-09	2.320740e+01	1.191230e+02
2.620000e-06	3.306395e-06	1.762550e-09	2.346514e+01	1.208246e+02
2.630000e-06	3.342596e-06	1.791835e-09	2.372205e+01	1.224735e+02
2.640000e-06	3.378639e-06	1.821055e-09	2.397784e+01	1.240716e+02
2.650000e-06	3.414546e-06	1.846883e-09	2.423267e+01	1.256206e+02
2.660000e-06	3.450329e-06	1.867848e-09	2.448662e+01	1.271222e+02
2.670000e-06	3.485970e-06	1.884600e-09	2.473956e+01	1.285777e+02
2.680000e-06	3.521414e-06	1.898840e-09	2.499110e+01	1.299886e+02
2.690000e-06	3.556582e-06	1.912848e-09	2.524069e+01	1.313562e+02
2.700000e-06	3.591381e-06	1.930922e-09	2.548765e+01	1.326815e+02
2.710000e-06	3.625696e-06	1.954059e-09	2.573118e+01	1.339657e+02
2.720000e-06	3.659509e-06	1.981002e-09	2.597115e+01	1.352095e+02
2.730000e-06	3.692849e-06	2.006574e-09	2.620776e+01	1.364139e+02
2.740000e-06	3.725848e-06	2.026231e-09	2.644195e+01	1.375795e+02
2.750000e-06	3.758578e-06	2.038979e-09	2.667423e+01	1.387070e+02
2.760000e-06	3.790986e-06	2.048351e-09	2.690423e+01	1.397970e+02
2.770000e-06	3.823167e-06	2.056730e-09	2.713261e+01	1.408501e+02
2.780000e-06	3.855192e-06	2.067716e-09	2.735989e+01	1.418668e+02
2.790000e-06	3.887077e-06	2.082044e-09	2.758618e+01	1.428478e+02
2.800000e-06	3.918765e-06	2.099211e-09	2.781106e+01	1.437935e+02
2.810000e-06	3.950189e-06	2.118843e-09	2.803407e+01	1.447046e+02
2.820000e-06	3.981380e-06	2.136724e-09	2.825543e+01	1.455817e+02
2.830000e-06	4.012332e-06	2.147274e-09	2.847509e+01	1.464257e+02
2.840000e-06	4.042951e-06	2.152851e-09	2.869239e+01	1.472372e+02
2.850000e-06	4.073257e-06	2.159244e-09	2.890747e+01	1.480171e+02
2.860000e-06	4.103342e-06	2.169388e-09	2.912098e+01	1.487665e+02
2.870000e-06	4.133221e-06	2.182370e-09	2.933303e+01	1.494863e+02
2.880000e-06	4.162829e-06	2.193621e-09	2.954315e+01	1.501777e+02
2.890000e-06	4.192116e-06	2.201890e-09	2.975100e+01	1.508419e+02
2.900000e-06	4.221058e-06	2.211409e-09	2.995640e+01	1.514801e+02
