# Temperatura_=_19.4
# Concentracion g/m^3_=_4090.0
# C_Vs_to_Am_M_A/Vsm_=_65563218390.804596
# pendiente_HvsI_1/m_=_3716.3
# ordenada_HvsI_A/m_=_1297.0
# frecuencia_Hz_=_135079.5605846498

Tiempo_(s)	Campo_(V.s)	Magnetizacion_(V.s)	Campo_(kA/m)	Magnetizacion_(A/m)
0.000000e+00	-5.385478e-06	-2.309198e-09	-3.839501e+01	-1.524928e+02
1.000000e-08	-5.385614e-06	-2.305981e-09	-3.839597e+01	-1.523637e+02
2.000000e-08	-5.385521e-06	-2.304362e-09	-3.839532e+01	-1.522393e+02
3.000000e-08	-5.385128e-06	-2.303888e-09	-3.839251e+01	-1.521211e+02
4.000000e-08	-5.384289e-06	-2.304134e-09	-3.838653e+01	-1.520111e+02
5.000000e-08	-5.382887e-06	-2.311463e-09	-3.837654e+01	-1.519107e+02
6.000000e-08	-5.380910e-06	-2.335345e-09	-3.836244e+01	-1.518216e+02
7.000000e-08	-5.378306e-06	-2.338008e-09	-3.834388e+01	-1.517451e+02
8.000000e-08	-5.375191e-06	-2.272190e-09	-3.832167e+01	-1.516824e+02
9.000000e-08	-5.371602e-06	-2.216953e-09	-3.829608e+01	-1.516346e+02
1.000000e-07	-5.367584e-06	-2.306449e-09	-3.826744e+01	-1.516025e+02
1.100000e-07	-5.363344e-06	-2.424767e-09	-3.823721e+01	-1.515865e+02
1.200000e-07	-5.358838e-06	-2.352748e-09	-3.820508e+01	-1.515871e+02
1.300000e-07	-5.353947e-06	-2.209087e-09	-3.817021e+01	-1.516042e+02
1.400000e-07	-5.348753e-06	-2.287909e-09	-3.813318e+01	-1.516377e+02
1.500000e-07	-5.343311e-06	-2.453754e-09	-3.809438e+01	-1.516869e+02
1.600000e-07	-5.337505e-06	-2.392157e-09	-3.805299e+01	-1.517512e+02
1.700000e-07	-5.331155e-06	-2.199291e-09	-3.800772e+01	-1.518294e+02
1.800000e-07	-5.324388e-06	-2.269159e-09	-3.795947e+01	-1.519204e+02
1.900000e-07	-5.317386e-06	-2.449224e-09	-3.790956e+01	-1.520224e+02
2.000000e-07	-5.310115e-06	-2.442154e-09	-3.785771e+01	-1.521339e+02
2.100000e-07	-5.302478e-06	-2.345105e-09	-3.780327e+01	-1.522529e+02
2.200000e-07	-5.294623e-06	-2.420200e-09	-3.774727e+01	-1.523773e+02
2.300000e-07	-5.286548e-06	-2.490530e-09	-3.768970e+01	-1.525050e+02
2.400000e-07	-5.278069e-06	-2.410893e-09	-3.762925e+01	-1.526336e+02
2.500000e-07	-5.268992e-06	-2.380244e-09	-3.756454e+01	-1.527609e+02
2.600000e-07	-5.259323e-06	-2.473797e-09	-3.749560e+01	-1.528844e+02
2.700000e-07	-5.249220e-06	-2.473152e-09	-3.742357e+01	-1.530019e+02
2.800000e-07	-5.238596e-06	-2.392364e-09	-3.734783e+01	-1.531112e+02
2.900000e-07	-5.227416e-06	-2.457167e-09	-3.726813e+01	-1.532101e+02
3.000000e-07	-5.215764e-06	-2.534487e-09	-3.718505e+01	-1.532965e+02
3.100000e-07	-5.203715e-06	-2.445431e-09	-3.709915e+01	-1.533686e+02
3.200000e-07	-5.191332e-06	-2.350744e-09	-3.701087e+01	-1.534249e+02
3.300000e-07	-5.178588e-06	-2.429667e-09	-3.692002e+01	-1.534637e+02
3.400000e-07	-5.165362e-06	-2.469119e-09	-3.682572e+01	-1.534840e+02
3.500000e-07	-5.151684e-06	-2.420609e-09	-3.672821e+01	-1.534847e+02
3.600000e-07	-5.137654e-06	-2.415035e-09	-3.662818e+01	-1.534651e+02
3.700000e-07	-5.123212e-06	-2.457059e-09	-3.652522e+01	-1.534249e+02
3.800000e-07	-5.108201e-06	-2.426849e-09	-3.641820e+01	-1.533638e+02
3.900000e-07	-5.092742e-06	-2.407774e-09	-3.630799e+01	-1.532820e+02
4.000000e-07	-5.076901e-06	-2.404855e-09	-3.619505e+01	-1.531797e+02
4.100000e-07	-5.060537e-06	-2.366131e-09	-3.607839e+01	-1.530577e+02
4.200000e-07	-5.043816e-06	-2.350250e-09	-3.595918e+01	-1.529166e+02
4.300000e-07	-5.026805e-06	-2.418272e-09	-3.583790e+01	-1.527575e+02
4.400000e-07	-5.009483e-06	-2.431498e-09	-3.571440e+01	-1.525816e+02
4.500000e-07	-4.991847e-06	-2.375170e-09	-3.558867e+01	-1.523903e+02
4.600000e-07	-4.973824e-06	-2.366846e-09	-3.546018e+01	-1.521848e+02
4.700000e-07	-4.955482e-06	-2.404308e-09	-3.532941e+01	-1.519669e+02
4.800000e-07	-4.936743e-06	-2.385000e-09	-3.519581e+01	-1.517381e+02
4.900000e-07	-4.917541e-06	-2.343264e-09	-3.505892e+01	-1.514999e+02
5.000000e-07	-4.898047e-06	-2.339523e-09	-3.491994e+01	-1.512540e+02
5.100000e-07	-4.878354e-06	-2.366995e-09	-3.477954e+01	-1.510020e+02
5.200000e-07	-4.858382e-06	-2.387302e-09	-3.463715e+01	-1.507454e+02
5.300000e-07	-4.838147e-06	-2.372525e-09	-3.449289e+01	-1.504854e+02
5.400000e-07	-4.817652e-06	-2.337445e-09	-3.434677e+01	-1.502235e+02
5.500000e-07	-4.796864e-06	-2.334426e-09	-3.419856e+01	-1.499608e+02
5.600000e-07	-4.775806e-06	-2.354934e-09	-3.404844e+01	-1.496983e+02
5.700000e-07	-4.754386e-06	-2.341235e-09	-3.389572e+01	-1.494368e+02
5.800000e-07	-4.732518e-06	-2.312018e-09	-3.373982e+01	-1.491770e+02
5.900000e-07	-4.710341e-06	-2.316305e-09	-3.358171e+01	-1.489194e+02
6.000000e-07	-4.687926e-06	-2.342569e-09	-3.342191e+01	-1.486642e+02
6.100000e-07	-4.665257e-06	-2.342719e-09	-3.326029e+01	-1.484116e+02
6.200000e-07	-4.642297e-06	-2.318932e-09	-3.309660e+01	-1.481617e+02
6.300000e-07	-4.619018e-06	-2.295331e-09	-3.293064e+01	-1.479142e+02
6.400000e-07	-4.595419e-06	-2.303526e-09	-3.276239e+01	-1.476687e+02
6.500000e-07	-4.571542e-06	-2.312147e-09	-3.259216e+01	-1.474249e+02
6.600000e-07	-4.547424e-06	-2.293622e-09	-3.242022e+01	-1.471822e+02
6.700000e-07	-4.523032e-06	-2.269095e-09	-3.224632e+01	-1.469399e+02
6.800000e-07	-4.498309e-06	-2.285741e-09	-3.207006e+01	-1.466973e+02
6.900000e-07	-4.472988e-06	-2.307158e-09	-3.188954e+01	-1.464538e+02
7.000000e-07	-4.447040e-06	-2.299891e-09	-3.170455e+01	-1.462085e+02
7.100000e-07	-4.420698e-06	-2.272824e-09	-3.151675e+01	-1.459606e+02
7.200000e-07	-4.394034e-06	-2.265121e-09	-3.132665e+01	-1.457095e+02
7.300000e-07	-4.366904e-06	-2.270392e-09	-3.113323e+01	-1.454543e+02
7.400000e-07	-4.339369e-06	-2.267003e-09	-3.093692e+01	-1.451946e+02
7.500000e-07	-4.311668e-06	-2.248447e-09	-3.073943e+01	-1.449296e+02
7.600000e-07	-4.283810e-06	-2.241878e-09	-3.054082e+01	-1.446589e+02
7.700000e-07	-4.255742e-06	-2.252571e-09	-3.034071e+01	-1.443822e+02
7.800000e-07	-4.227431e-06	-2.258225e-09	-3.013888e+01	-1.440991e+02
7.900000e-07	-4.198797e-06	-2.242547e-09	-2.993473e+01	-1.438094e+02
8.000000e-07	-4.169799e-06	-2.228353e-09	-2.972800e+01	-1.435130e+02
8.100000e-07	-4.140637e-06	-2.229095e-09	-2.952009e+01	-1.432101e+02
8.200000e-07	-4.111258e-06	-2.231930e-09	-2.931063e+01	-1.429006e+02
8.300000e-07	-4.081482e-06	-2.222510e-09	-2.909835e+01	-1.425849e+02
8.400000e-07	-4.051414e-06	-2.208170e-09	-2.888398e+01	-1.422633e+02
8.500000e-07	-4.021043e-06	-2.204671e-09	-2.866746e+01	-1.419360e+02
8.600000e-07	-3.990377e-06	-2.205566e-09	-2.844883e+01	-1.416036e+02
8.700000e-07	-3.959433e-06	-2.197254e-09	-2.822822e+01	-1.412666e+02
8.800000e-07	-3.928256e-06	-2.180432e-09	-2.800595e+01	-1.409254e+02
8.900000e-07	-3.896932e-06	-2.177144e-09	-2.778263e+01	-1.405807e+02
9.000000e-07	-3.865437e-06	-2.186722e-09	-2.755809e+01	-1.402328e+02
9.100000e-07	-3.833734e-06	-2.187008e-09	-2.733207e+01	-1.398824e+02
9.200000e-07	-3.801773e-06	-2.167883e-09	-2.710421e+01	-1.395299e+02
9.300000e-07	-3.769668e-06	-2.150262e-09	-2.687532e+01	-1.391758e+02
9.400000e-07	-3.737359e-06	-2.141246e-09	-2.664498e+01	-1.388204e+02
9.500000e-07	-3.704729e-06	-2.137409e-09	-2.641234e+01	-1.384641e+02
9.600000e-07	-3.671750e-06	-2.128917e-09	-2.617722e+01	-1.381071e+02
9.700000e-07	-3.638354e-06	-2.125824e-09	-2.593913e+01	-1.377496e+02
9.800000e-07	-3.604503e-06	-2.131014e-09	-2.569780e+01	-1.373917e+02
9.900000e-07	-3.570197e-06	-2.133678e-09	-2.545322e+01	-1.370333e+02
1.000000e-06	-3.535533e-06	-2.121764e-09	-2.520609e+01	-1.366744e+02
1.010000e-06	-3.500575e-06	-2.103949e-09	-2.495686e+01	-1.363149e+02
1.020000e-06	-3.465313e-06	-2.085342e-09	-2.470546e+01	-1.359544e+02
1.030000e-06	-3.429813e-06	-2.068574e-09	-2.445237e+01	-1.355926e+02
1.040000e-06	-3.394115e-06	-2.056880e-09	-2.419787e+01	-1.352292e+02
1.050000e-06	-3.358242e-06	-2.054455e-09	-2.394211e+01	-1.348637e+02
1.060000e-06	-3.322241e-06	-2.058550e-09	-2.368545e+01	-1.344956e+02
1.070000e-06	-3.286129e-06	-2.062186e-09	-2.342799e+01	-1.341243e+02
1.080000e-06	-3.249931e-06	-2.055478e-09	-2.316993e+01	-1.337495e+02
1.090000e-06	-3.213491e-06	-2.039841e-09	-2.291013e+01	-1.333703e+02
1.100000e-06	-3.176667e-06	-2.024363e-09	-2.264760e+01	-1.329863e+02
1.110000e-06	-3.139617e-06	-2.012571e-09	-2.238346e+01	-1.325970e+02
1.120000e-06	-3.102370e-06	-2.000404e-09	-2.211791e+01	-1.322017e+02
1.130000e-06	-3.064876e-06	-1.988368e-09	-2.185061e+01	-1.318000e+02
1.140000e-06	-3.027192e-06	-1.983430e-09	-2.158194e+01	-1.313913e+02
1.150000e-06	-2.989279e-06	-1.983006e-09	-2.131164e+01	-1.309752e+02
1.160000e-06	-2.951215e-06	-1.978659e-09	-2.104027e+01	-1.305513e+02
1.170000e-06	-2.913054e-06	-1.966872e-09	-2.076821e+01	-1.301192e+02
1.180000e-06	-2.874649e-06	-1.954086e-09	-2.049440e+01	-1.296786e+02
1.190000e-06	-2.835873e-06	-1.944482e-09	-2.021796e+01	-1.292293e+02
1.200000e-06	-2.796798e-06	-1.936147e-09	-1.993938e+01	-1.287710e+02
1.210000e-06	-2.757593e-06	-1.925587e-09	-1.965987e+01	-1.283036e+02
1.220000e-06	-2.718261e-06	-1.917019e-09	-1.937946e+01	-1.278269e+02
1.230000e-06	-2.678754e-06	-1.909998e-09	-1.909780e+01	-1.273409e+02
1.240000e-06	-2.639131e-06	-1.903389e-09	-1.881531e+01	-1.268454e+02
1.250000e-06	-2.599443e-06	-1.892559e-09	-1.853236e+01	-1.263404e+02
1.260000e-06	-2.559631e-06	-1.880811e-09	-1.824853e+01	-1.258260e+02
1.270000e-06	-2.519693e-06	-1.870341e-09	-1.796379e+01	-1.253019e+02
1.280000e-06	-2.479673e-06	-1.863366e-09	-1.767848e+01	-1.247684e+02
1.290000e-06	-2.439561e-06	-1.858308e-09	-1.739251e+01	-1.242253e+02
1.300000e-06	-2.399226e-06	-1.850647e-09	-1.710494e+01	-1.236725e+02
1.310000e-06	-2.358696e-06	-1.840254e-09	-1.681599e+01	-1.231101e+02
1.320000e-06	-2.317994e-06	-1.828785e-09	-1.652581e+01	-1.225379e+02
1.330000e-06	-2.277019e-06	-1.816821e-09	-1.623369e+01	-1.219558e+02
1.340000e-06	-2.235862e-06	-1.807397e-09	-1.594026e+01	-1.213637e+02
1.350000e-06	-2.194432e-06	-1.798222e-09	-1.564489e+01	-1.207615e+02
1.360000e-06	-2.152653e-06	-1.788231e-09	-1.534704e+01	-1.201488e+02
1.370000e-06	-2.110630e-06	-1.778119e-09	-1.504744e+01	-1.195254e+02
1.380000e-06	-2.068459e-06	-1.768677e-09	-1.474679e+01	-1.188911e+02
1.390000e-06	-2.026035e-06	-1.758984e-09	-1.444433e+01	-1.182456e+02
1.400000e-06	-1.983222e-06	-1.748701e-09	-1.413910e+01	-1.175885e+02
1.410000e-06	-1.940127e-06	-1.739957e-09	-1.383186e+01	-1.169194e+02
1.420000e-06	-1.896864e-06	-1.731379e-09	-1.352342e+01	-1.162380e+02
1.430000e-06	-1.853476e-06	-1.721212e-09	-1.321409e+01	-1.155438e+02
1.440000e-06	-1.809964e-06	-1.705076e-09	-1.290389e+01	-1.148364e+02
1.450000e-06	-1.766346e-06	-1.686741e-09	-1.259291e+01	-1.141154e+02
1.460000e-06	-1.722652e-06	-1.674779e-09	-1.228141e+01	-1.133803e+02
1.470000e-06	-1.678887e-06	-1.667795e-09	-1.196939e+01	-1.126307e+02
1.480000e-06	-1.635050e-06	-1.658324e-09	-1.165686e+01	-1.118662e+02
1.490000e-06	-1.591179e-06	-1.647237e-09	-1.134408e+01	-1.110862e+02
1.500000e-06	-1.547259e-06	-1.638980e-09	-1.103096e+01	-1.102904e+02
1.510000e-06	-1.503213e-06	-1.629931e-09	-1.071695e+01	-1.094782e+02
1.520000e-06	-1.459115e-06	-1.614670e-09	-1.040256e+01	-1.086493e+02
1.530000e-06	-1.415064e-06	-1.591141e-09	-1.008850e+01	-1.078032e+02
1.540000e-06	-1.370931e-06	-1.567556e-09	-9.773862e+00	-1.069393e+02
1.550000e-06	-1.326666e-06	-1.551649e-09	-9.458275e+00	-1.060572e+02
1.560000e-06	-1.282384e-06	-1.539629e-09	-9.142575e+00	-1.051564e+02
1.570000e-06	-1.238012e-06	-1.527644e-09	-8.826229e+00	-1.042363e+02
1.580000e-06	-1.193468e-06	-1.518995e-09	-8.508661e+00	-1.032964e+02
1.590000e-06	-1.148893e-06	-1.514592e-09	-8.190871e+00	-1.023361e+02
1.600000e-06	-1.104309e-06	-1.505344e-09	-7.873016e+00	-1.013546e+02
1.610000e-06	-1.059600e-06	-1.483669e-09	-7.554266e+00	-1.003512e+02
1.620000e-06	-1.014724e-06	-1.454575e-09	-7.234330e+00	-9.932524e+01
1.630000e-06	-9.697282e-07	-1.428238e-09	-6.913541e+00	-9.827570e+01
1.640000e-06	-9.246517e-07	-1.406526e-09	-6.592174e+00	-9.720169e+01
1.650000e-06	-8.795358e-07	-1.388535e-09	-6.270527e+00	-9.610217e+01
1.660000e-06	-8.344218e-07	-1.375294e-09	-5.948893e+00	-9.497602e+01
1.670000e-06	-7.892153e-07	-1.366995e-09	-5.626599e+00	-9.382205e+01
1.680000e-06	-7.438726e-07	-1.357671e-09	-5.303335e+00	-9.263896e+01
1.690000e-06	-6.985230e-07	-1.338880e-09	-4.980021e+00	-9.142539e+01
1.700000e-06	-6.531575e-07	-1.309574e-09	-4.656595e+00	-9.017990e+01
1.710000e-06	-6.077935e-07	-1.280509e-09	-4.333178e+00	-8.890096e+01
1.720000e-06	-5.624105e-07	-1.256487e-09	-4.009627e+00	-8.758701e+01
1.730000e-06	-5.169173e-07	-1.233811e-09	-3.685289e+00	-8.623641e+01
1.740000e-06	-4.713047e-07	-1.210384e-09	-3.360100e+00	-8.484751e+01
1.750000e-06	-4.256536e-07	-1.192030e-09	-3.034638e+00	-8.341864e+01
1.760000e-06	-3.799847e-07	-1.178603e-09	-2.709047e+00	-8.194810e+01
1.770000e-06	-3.343170e-07	-1.161986e-09	-2.383466e+00	-8.043424e+01
1.780000e-06	-2.886764e-07	-1.136113e-09	-2.058078e+00	-7.887543e+01
1.790000e-06	-2.430174e-07	-1.104634e-09	-1.732558e+00	-7.727009e+01
1.800000e-06	-1.974132e-07	-1.073954e-09	-1.407430e+00	-7.561673e+01
1.810000e-06	-1.517539e-07	-1.046631e-09	-1.081908e+00	-7.391396e+01
1.820000e-06	-1.060821e-07	-1.020063e-09	-7.562977e-01	-7.216048e+01
1.830000e-06	-6.039341e-08	-9.919428e-10	-4.305663e-01	-7.035518e+01
1.840000e-06	-1.463743e-08	-9.631672e-10	-1.043555e-01	-6.849705e+01
1.850000e-06	3.104216e-08	-9.350981e-10	2.213107e-01	-6.658531e+01
1.860000e-06	7.668689e-08	-9.059306e-10	5.467284e-01	-6.461932e+01
1.870000e-06	1.223417e-07	-8.746195e-10	8.722177e-01	-6.259868e+01
1.880000e-06	1.679929e-07	-8.453782e-10	1.197682e+00	-6.052319e+01
1.890000e-06	2.136490e-07	-8.159760e-10	1.523180e+00	-5.839288e+01
1.900000e-06	2.593002e-07	-7.820005e-10	1.848645e+00	-5.620800e+01
1.910000e-06	3.049510e-07	-7.442713e-10	2.174105e+00	-5.396903e+01
1.920000e-06	3.505548e-07	-7.095241e-10	2.499231e+00	-5.167671e+01
1.930000e-06	3.960829e-07	-6.788920e-10	2.823817e+00	-4.933198e+01
1.940000e-06	4.415946e-07	-6.471974e-10	3.148286e+00	-4.693602e+01
1.950000e-06	4.871474e-07	-6.131958e-10	3.473048e+00	-4.449020e+01
1.960000e-06	5.326630e-07	-5.796313e-10	3.797546e+00	-4.199614e+01
1.970000e-06	5.780215e-07	-5.469312e-10	4.120923e+00	-3.945560e+01
1.980000e-06	6.233197e-07	-5.115692e-10	4.443870e+00	-3.687055e+01
1.990000e-06	6.686006e-07	-4.714528e-10	4.766694e+00	-3.424312e+01
2.000000e-06	7.138439e-07	-4.311787e-10	5.089250e+00	-3.157555e+01
2.010000e-06	7.590140e-07	-3.926733e-10	5.411283e+00	-2.887023e+01
2.020000e-06	8.040964e-07	-3.533534e-10	5.732692e+00	-2.612964e+01
2.030000e-06	8.492113e-07	-3.123256e-10	6.054332e+00	-2.335634e+01
2.040000e-06	8.943367e-07	-2.723721e-10	6.376048e+00	-2.055295e+01
2.050000e-06	9.393826e-07	-2.327419e-10	6.697196e+00	-1.772214e+01
2.060000e-06	9.842568e-07	-1.931607e-10	7.017120e+00	-1.486658e+01
2.070000e-06	1.028990e-06	-1.508296e-10	7.336036e+00	-1.198898e+01
2.080000e-06	1.073693e-06	-1.064242e-10	7.654741e+00	-9.092016e+00
2.090000e-06	1.118386e-06	-6.403075e-11	7.973375e+00	-6.178334e+00
2.100000e-06	1.162948e-06	-2.447892e-11	8.291072e+00	-3.250555e+00
2.110000e-06	1.207413e-06	1.229607e-11	8.608082e+00	-3.112502e-01
2.120000e-06	1.251891e-06	5.002153e-11	8.925182e+00	2.637067e+00
2.130000e-06	1.296243e-06	9.051538e-11	9.241384e+00	5.591943e+00
2.140000e-06	1.340415e-06	1.350751e-10	9.556301e+00	8.550991e+00
2.150000e-06	1.384553e-06	1.853287e-10	9.870975e+00	1.151189e+01
2.160000e-06	1.428728e-06	2.380428e-10	1.018591e+01	1.447238e+01
2.170000e-06	1.472812e-06	2.845087e-10	1.050020e+01	1.743028e+01
2.180000e-06	1.516798e-06	3.241105e-10	1.081380e+01	2.038346e+01
2.190000e-06	1.560723e-06	3.591696e-10	1.112695e+01	2.332984e+01
2.200000e-06	1.604578e-06	3.921374e-10	1.143961e+01	2.626740e+01
2.210000e-06	1.648387e-06	4.286458e-10	1.175194e+01	2.919417e+01
2.220000e-06	1.692132e-06	4.738177e-10	1.206382e+01	3.210820e+01
2.230000e-06	1.735862e-06	5.265219e-10	1.237558e+01	3.500758e+01
2.240000e-06	1.779507e-06	5.790279e-10	1.268674e+01	3.789044e+01
2.250000e-06	1.823015e-06	6.242687e-10	1.299693e+01	4.075490e+01
2.260000e-06	1.866443e-06	6.631498e-10	1.330654e+01	4.359910e+01
2.270000e-06	1.909847e-06	6.968965e-10	1.361598e+01	4.642122e+01
2.280000e-06	1.953036e-06	7.295431e-10	1.392390e+01	4.921939e+01
2.290000e-06	1.995907e-06	7.645998e-10	1.422954e+01	5.199181e+01
2.300000e-06	2.038641e-06	8.041622e-10	1.453420e+01	5.473664e+01
2.310000e-06	2.081145e-06	8.498842e-10	1.483723e+01	5.745206e+01
2.320000e-06	2.123378e-06	8.987214e-10	1.513832e+01	6.013627e+01
2.330000e-06	2.165396e-06	9.442916e-10	1.543789e+01	6.278748e+01
2.340000e-06	2.207080e-06	9.805250e-10	1.573507e+01	6.540394e+01
2.350000e-06	2.248406e-06	1.010165e-09	1.602970e+01	6.798390e+01
2.360000e-06	2.289434e-06	1.041824e-09	1.632220e+01	7.052569e+01
2.370000e-06	2.330287e-06	1.075689e-09	1.661345e+01	7.302768e+01
2.380000e-06	2.370943e-06	1.110042e-09	1.690330e+01	7.548829e+01
2.390000e-06	2.411290e-06	1.146838e-09	1.719095e+01	7.790604e+01
2.400000e-06	2.451426e-06	1.187217e-09	1.747709e+01	8.027951e+01
2.410000e-06	2.491525e-06	1.227668e-09	1.776298e+01	8.260742e+01
2.420000e-06	2.531550e-06	1.259755e-09	1.804833e+01	8.488856e+01
2.430000e-06	2.571406e-06	1.286799e-09	1.833248e+01	8.712188e+01
2.440000e-06	2.611143e-06	1.312298e-09	1.861577e+01	8.930645e+01
2.450000e-06	2.650739e-06	1.340295e-09	1.889807e+01	9.144146e+01
2.460000e-06	2.690236e-06	1.369551e-09	1.917966e+01	9.352627e+01
2.470000e-06	2.729638e-06	1.400400e-09	1.946057e+01	9.556040e+01
2.480000e-06	2.768877e-06	1.435849e-09	1.974032e+01	9.754351e+01
2.490000e-06	2.807907e-06	1.472402e-09	2.001858e+01	9.947541e+01
2.500000e-06	2.846725e-06	1.502049e-09	2.029532e+01	1.013561e+02
2.510000e-06	2.885353e-06	1.522859e-09	2.057072e+01	1.031857e+02
2.520000e-06	2.923765e-06	1.540421e-09	2.084457e+01	1.049645e+02
2.530000e-06	2.961956e-06	1.562002e-09	2.111685e+01	1.066929e+02
2.540000e-06	2.999920e-06	1.586106e-09	2.138750e+01	1.083715e+02
2.550000e-06	3.037704e-06	1.612368e-09	2.165688e+01	1.100009e+02
2.560000e-06	3.075254e-06	1.641301e-09	2.192459e+01	1.115819e+02
2.570000e-06	3.112565e-06	1.670382e-09	2.219059e+01	1.131155e+02
2.580000e-06	3.149718e-06	1.696258e-09	2.245547e+01	1.146025e+02
2.590000e-06	3.186614e-06	1.714954e-09	2.271851e+01	1.160440e+02
2.600000e-06	3.223174e-06	1.727595e-09	2.297916e+01	1.174411e+02
2.610000e-06	3.259543e-06	1.739519e-09	2.323845e+01	1.187948e+02
2.620000e-06	3.295782e-06	1.754450e-09	2.349681e+01	1.201064e+02
2.630000e-06	3.331850e-06	1.770826e-09	2.375395e+01	1.213769e+02
2.640000e-06	3.367773e-06	1.788789e-09	2.401006e+01	1.226075e+02
2.650000e-06	3.403528e-06	1.808820e-09	2.426497e+01	1.237993e+02
2.660000e-06	3.439139e-06	1.829983e-09	2.451886e+01	1.249534e+02
2.670000e-06	3.474590e-06	1.848909e-09	2.477160e+01	1.260709e+02
2.680000e-06	3.509854e-06	1.862021e-09	2.502301e+01	1.271527e+02
2.690000e-06	3.544866e-06	1.868575e-09	2.527263e+01	1.281998e+02
2.700000e-06	3.579501e-06	1.875953e-09	2.551955e+01	1.292131e+02
2.710000e-06	3.613682e-06	1.886635e-09	2.576324e+01	1.301935e+02
2.720000e-06	3.647369e-06	1.901104e-09	2.600341e+01	1.311417e+02
2.730000e-06	3.680572e-06	1.918734e-09	2.624012e+01	1.320585e+02
2.740000e-06	3.713428e-06	1.936050e-09	2.647436e+01	1.329446e+02
2.750000e-06	3.746015e-06	1.951235e-09	2.670669e+01	1.338006e+02
2.760000e-06	3.778339e-06	1.963598e-09	2.693713e+01	1.346272e+02
2.770000e-06	3.810456e-06	1.971186e-09	2.716611e+01	1.354249e+02
2.780000e-06	3.842373e-06	1.977280e-09	2.739366e+01	1.361942e+02
2.790000e-06	3.874114e-06	1.984352e-09	2.761995e+01	1.369358e+02
2.800000e-06	3.905636e-06	1.993493e-09	2.784468e+01	1.376502e+02
2.810000e-06	3.936898e-06	2.004471e-09	2.806756e+01	1.383379e+02
2.820000e-06	3.967911e-06	2.014991e-09	2.828866e+01	1.389996e+02
2.830000e-06	3.998611e-06	2.025636e-09	2.850753e+01	1.396357e+02
2.840000e-06	4.029014e-06	2.037705e-09	2.872429e+01	1.402469e+02
2.850000e-06	4.059175e-06	2.049254e-09	2.893931e+01	1.408339e+02
2.860000e-06	4.089093e-06	2.059526e-09	2.915261e+01	1.413973e+02
2.870000e-06	4.118702e-06	2.068590e-09	2.936371e+01	1.419378e+02
2.880000e-06	4.148033e-06	2.075062e-09	2.957282e+01	1.424562e+02
2.890000e-06	4.177118e-06	2.078113e-09	2.978017e+01	1.429534e+02
2.900000e-06	4.205910e-06	2.079518e-09	2.998544e+01	1.434300e+02
