# Temperatura_=_14.59
# Concentracion g/m^3_=_4090.0
# C_Vs_to_Am_M_A/Vsm_=_65563218390.804596
# pendiente_HvsI_1/m_=_3716.3
# ordenada_HvsI_A/m_=_1297.0
# frecuencia_Hz_=_135080.46384206042

Tiempo_(s)	Campo_(V.s)	Magnetizacion_(V.s)	Campo_(kA/m)	Magnetizacion_(A/m)
0.000000e+00	-5.410358e-06	-2.351105e-09	-3.839111e+01	-1.530844e+02
1.000000e-08	-5.410546e-06	-2.350232e-09	-3.839245e+01	-1.530015e+02
2.000000e-08	-5.410479e-06	-2.353266e-09	-3.839197e+01	-1.529198e+02
3.000000e-08	-5.410201e-06	-2.355617e-09	-3.839000e+01	-1.528413e+02
4.000000e-08	-5.409635e-06	-2.355257e-09	-3.838599e+01	-1.527678e+02
5.000000e-08	-5.408659e-06	-2.353717e-09	-3.837906e+01	-1.527009e+02
6.000000e-08	-5.407169e-06	-2.355399e-09	-3.836849e+01	-1.526423e+02
7.000000e-08	-5.404949e-06	-2.358452e-09	-3.835273e+01	-1.525936e+02
8.000000e-08	-5.402081e-06	-2.337419e-09	-3.833238e+01	-1.525561e+02
9.000000e-08	-5.398657e-06	-2.302377e-09	-3.830808e+01	-1.525311e+02
1.000000e-07	-5.394721e-06	-2.362911e-09	-3.828016e+01	-1.525195e+02
1.100000e-07	-5.390452e-06	-2.473996e-09	-3.824986e+01	-1.525221e+02
1.200000e-07	-5.385963e-06	-2.411734e-09	-3.821801e+01	-1.525394e+02
1.300000e-07	-5.381381e-06	-2.237664e-09	-3.818550e+01	-1.525717e+02
1.400000e-07	-5.376576e-06	-2.307559e-09	-3.815140e+01	-1.526190e+02
1.500000e-07	-5.371298e-06	-2.467583e-09	-3.811395e+01	-1.526809e+02
1.600000e-07	-5.365546e-06	-2.411744e-09	-3.807314e+01	-1.527569e+02
1.700000e-07	-5.359440e-06	-2.170813e-09	-3.802981e+01	-1.528461e+02
1.800000e-07	-5.353052e-06	-2.272394e-09	-3.798448e+01	-1.529475e+02
1.900000e-07	-5.346216e-06	-2.502938e-09	-3.793597e+01	-1.530596e+02
2.000000e-07	-5.339008e-06	-2.439441e-09	-3.788482e+01	-1.531810e+02
2.100000e-07	-5.331540e-06	-2.257018e-09	-3.783183e+01	-1.533098e+02
2.200000e-07	-5.323834e-06	-2.335537e-09	-3.777715e+01	-1.534442e+02
2.300000e-07	-5.315862e-06	-2.475721e-09	-3.772059e+01	-1.535820e+02
2.400000e-07	-5.307564e-06	-2.351448e-09	-3.766171e+01	-1.537211e+02
2.500000e-07	-5.298934e-06	-2.291657e-09	-3.760046e+01	-1.538592e+02
2.600000e-07	-5.289572e-06	-2.419291e-09	-3.753403e+01	-1.539942e+02
2.700000e-07	-5.279358e-06	-2.464952e-09	-3.746156e+01	-1.541238e+02
2.800000e-07	-5.268694e-06	-2.321040e-09	-3.738589e+01	-1.542459e+02
2.900000e-07	-5.257710e-06	-2.375377e-09	-3.730794e+01	-1.543583e+02
3.000000e-07	-5.246253e-06	-2.497258e-09	-3.722665e+01	-1.544591e+02
3.100000e-07	-5.234383e-06	-2.401636e-09	-3.714242e+01	-1.545466e+02
3.200000e-07	-5.222140e-06	-2.283365e-09	-3.705555e+01	-1.546190e+02
3.300000e-07	-5.209511e-06	-2.432077e-09	-3.696593e+01	-1.546751e+02
3.400000e-07	-5.196482e-06	-2.481737e-09	-3.687348e+01	-1.547137e+02
3.500000e-07	-5.183058e-06	-2.341626e-09	-3.677822e+01	-1.547338e+02
3.600000e-07	-5.169264e-06	-2.328852e-09	-3.668035e+01	-1.547348e+02
3.700000e-07	-5.155065e-06	-2.450669e-09	-3.657959e+01	-1.547164e+02
3.800000e-07	-5.140470e-06	-2.395614e-09	-3.647603e+01	-1.546784e+02
3.900000e-07	-5.125368e-06	-2.341078e-09	-3.636887e+01	-1.546210e+02
4.000000e-07	-5.109536e-06	-2.398694e-09	-3.625652e+01	-1.545446e+02
4.100000e-07	-5.093184e-06	-2.394560e-09	-3.614049e+01	-1.544497e+02
4.200000e-07	-5.076539e-06	-2.330266e-09	-3.602238e+01	-1.543374e+02
4.300000e-07	-5.059604e-06	-2.381497e-09	-3.590221e+01	-1.542085e+02
4.400000e-07	-5.042328e-06	-2.399560e-09	-3.577963e+01	-1.540644e+02
4.500000e-07	-5.024767e-06	-2.320218e-09	-3.565501e+01	-1.539063e+02
4.600000e-07	-5.006979e-06	-2.337415e-09	-3.552880e+01	-1.537357e+02
4.700000e-07	-4.988748e-06	-2.399655e-09	-3.539943e+01	-1.535543e+02
4.800000e-07	-4.970053e-06	-2.365849e-09	-3.526678e+01	-1.533634e+02
4.900000e-07	-4.950976e-06	-2.320943e-09	-3.513141e+01	-1.531647e+02
5.000000e-07	-4.931509e-06	-2.355151e-09	-3.499327e+01	-1.529598e+02
5.100000e-07	-4.911761e-06	-2.356067e-09	-3.485314e+01	-1.527502e+02
5.200000e-07	-4.891845e-06	-2.344059e-09	-3.471182e+01	-1.525372e+02
5.300000e-07	-4.871739e-06	-2.334842e-09	-3.456915e+01	-1.523221e+02
5.400000e-07	-4.851383e-06	-2.325806e-09	-3.442471e+01	-1.521062e+02
5.500000e-07	-4.830709e-06	-2.322851e-09	-3.427801e+01	-1.518904e+02
5.600000e-07	-4.809643e-06	-2.354877e-09	-3.412853e+01	-1.516755e+02
5.700000e-07	-4.788161e-06	-2.331061e-09	-3.397610e+01	-1.514622e+02
5.800000e-07	-4.766342e-06	-2.307641e-09	-3.382127e+01	-1.512509e+02
5.900000e-07	-4.744193e-06	-2.321396e-09	-3.366411e+01	-1.510420e+02
6.000000e-07	-4.721729e-06	-2.337924e-09	-3.350470e+01	-1.508355e+02
6.100000e-07	-4.699022e-06	-2.311864e-09	-3.334358e+01	-1.506314e+02
6.200000e-07	-4.676023e-06	-2.298215e-09	-3.318038e+01	-1.504292e+02
6.300000e-07	-4.652632e-06	-2.287326e-09	-3.301440e+01	-1.502287e+02
6.400000e-07	-4.629005e-06	-2.298183e-09	-3.284675e+01	-1.500293e+02
6.500000e-07	-4.605177e-06	-2.308346e-09	-3.267767e+01	-1.498303e+02
6.600000e-07	-4.581118e-06	-2.293003e-09	-3.250695e+01	-1.496308e+02
6.700000e-07	-4.556843e-06	-2.267591e-09	-3.233470e+01	-1.494301e+02
6.800000e-07	-4.532281e-06	-2.284531e-09	-3.216041e+01	-1.492273e+02
6.900000e-07	-4.507357e-06	-2.296950e-09	-3.198355e+01	-1.490214e+02
7.000000e-07	-4.481781e-06	-2.278544e-09	-3.180207e+01	-1.488114e+02
7.100000e-07	-4.455537e-06	-2.260823e-09	-3.161584e+01	-1.485966e+02
7.200000e-07	-4.428831e-06	-2.264665e-09	-3.142634e+01	-1.483760e+02
7.300000e-07	-4.401734e-06	-2.271613e-09	-3.123407e+01	-1.481488e+02
7.400000e-07	-4.374296e-06	-2.263954e-09	-3.103937e+01	-1.479145e+02
7.500000e-07	-4.346598e-06	-2.243707e-09	-3.084283e+01	-1.476723e+02
7.600000e-07	-4.318706e-06	-2.234338e-09	-3.064491e+01	-1.474219e+02
7.700000e-07	-4.290615e-06	-2.247735e-09	-3.044558e+01	-1.471629e+02
7.800000e-07	-4.262281e-06	-2.244833e-09	-3.024453e+01	-1.468951e+02
7.900000e-07	-4.233647e-06	-2.226343e-09	-3.004135e+01	-1.466183e+02
8.000000e-07	-4.204788e-06	-2.215535e-09	-2.983657e+01	-1.463328e+02
8.100000e-07	-4.175626e-06	-2.223644e-09	-2.962964e+01	-1.460387e+02
8.200000e-07	-4.146060e-06	-2.220064e-09	-2.941984e+01	-1.457363e+02
8.300000e-07	-4.116192e-06	-2.208262e-09	-2.920790e+01	-1.454260e+02
8.400000e-07	-4.086086e-06	-2.190822e-09	-2.899427e+01	-1.451084e+02
8.500000e-07	-4.055699e-06	-2.190916e-09	-2.877865e+01	-1.447841e+02
8.600000e-07	-4.025061e-06	-2.194790e-09	-2.856125e+01	-1.444538e+02
8.700000e-07	-3.994186e-06	-2.188747e-09	-2.834216e+01	-1.441182e+02
8.800000e-07	-3.963078e-06	-2.167966e-09	-2.812143e+01	-1.437781e+02
8.900000e-07	-3.931740e-06	-2.160351e-09	-2.789906e+01	-1.434343e+02
9.000000e-07	-3.900144e-06	-2.162504e-09	-2.767485e+01	-1.430876e+02
9.100000e-07	-3.868353e-06	-2.163041e-09	-2.744927e+01	-1.427385e+02
9.200000e-07	-3.836454e-06	-2.147532e-09	-2.722292e+01	-1.423880e+02
9.300000e-07	-3.804423e-06	-2.135596e-09	-2.699563e+01	-1.420365e+02
9.400000e-07	-3.772129e-06	-2.129741e-09	-2.676648e+01	-1.416847e+02
9.500000e-07	-3.739471e-06	-2.126037e-09	-2.653474e+01	-1.413329e+02
9.600000e-07	-3.706487e-06	-2.113317e-09	-2.630069e+01	-1.409815e+02
9.700000e-07	-3.673164e-06	-2.107102e-09	-2.606424e+01	-1.406309e+02
9.800000e-07	-3.639413e-06	-2.110827e-09	-2.582475e+01	-1.402810e+02
9.900000e-07	-3.605098e-06	-2.117669e-09	-2.558125e+01	-1.399319e+02
1.000000e-06	-3.570305e-06	-2.109914e-09	-2.533437e+01	-1.395835e+02
1.010000e-06	-3.535213e-06	-2.093639e-09	-2.508536e+01	-1.392357e+02
1.020000e-06	-3.499840e-06	-2.079542e-09	-2.483436e+01	-1.388880e+02
1.030000e-06	-3.464240e-06	-2.068304e-09	-2.458174e+01	-1.385400e+02
1.040000e-06	-3.428465e-06	-2.058216e-09	-2.432789e+01	-1.381913e+02
1.050000e-06	-3.392606e-06	-2.051697e-09	-2.407344e+01	-1.378413e+02
1.060000e-06	-3.356611e-06	-2.055839e-09	-2.381802e+01	-1.374893e+02
1.070000e-06	-3.320449e-06	-2.065857e-09	-2.356142e+01	-1.371347e+02
1.080000e-06	-3.284099e-06	-2.068823e-09	-2.330349e+01	-1.367766e+02
1.090000e-06	-3.247524e-06	-2.054313e-09	-2.304396e+01	-1.364145e+02
1.100000e-06	-3.210654e-06	-2.035181e-09	-2.278234e+01	-1.360476e+02
1.110000e-06	-3.173464e-06	-2.022695e-09	-2.251844e+01	-1.356750e+02
1.120000e-06	-3.136042e-06	-2.015715e-09	-2.225290e+01	-1.352963e+02
1.130000e-06	-3.098384e-06	-2.004317e-09	-2.198568e+01	-1.349106e+02
1.140000e-06	-3.060567e-06	-1.999278e-09	-2.171734e+01	-1.345174e+02
1.150000e-06	-3.022626e-06	-2.002435e-09	-2.144811e+01	-1.341161e+02
1.160000e-06	-2.984517e-06	-2.009058e-09	-2.117770e+01	-1.337064e+02
1.170000e-06	-2.946179e-06	-2.002378e-09	-2.090566e+01	-1.332877e+02
1.180000e-06	-2.907621e-06	-1.989019e-09	-2.063206e+01	-1.328597e+02
1.190000e-06	-2.868870e-06	-1.975572e-09	-2.035708e+01	-1.324222e+02
1.200000e-06	-2.829877e-06	-1.967508e-09	-2.008039e+01	-1.319750e+02
1.210000e-06	-2.790657e-06	-1.954712e-09	-1.980210e+01	-1.315180e+02
1.220000e-06	-2.751296e-06	-1.941552e-09	-1.952279e+01	-1.310512e+02
1.230000e-06	-2.711754e-06	-1.934485e-09	-1.924222e+01	-1.305746e+02
1.240000e-06	-2.671987e-06	-1.936419e-09	-1.896003e+01	-1.300882e+02
1.250000e-06	-2.632123e-06	-1.934071e-09	-1.867716e+01	-1.295922e+02
1.260000e-06	-2.592185e-06	-1.928007e-09	-1.839377e+01	-1.290867e+02
1.270000e-06	-2.552172e-06	-1.916391e-09	-1.810984e+01	-1.285719e+02
1.280000e-06	-2.512053e-06	-1.903730e-09	-1.782517e+01	-1.280480e+02
1.290000e-06	-2.471777e-06	-1.891927e-09	-1.753937e+01	-1.275152e+02
1.300000e-06	-2.431326e-06	-1.877416e-09	-1.725234e+01	-1.269735e+02
1.310000e-06	-2.390718e-06	-1.862675e-09	-1.696419e+01	-1.264233e+02
1.320000e-06	-2.349972e-06	-1.854244e-09	-1.667506e+01	-1.258646e+02
1.330000e-06	-2.309019e-06	-1.852126e-09	-1.638446e+01	-1.252974e+02
1.340000e-06	-2.267728e-06	-1.846648e-09	-1.609147e+01	-1.247220e+02
1.350000e-06	-2.226134e-06	-1.837172e-09	-1.579632e+01	-1.241381e+02
1.360000e-06	-2.184283e-06	-1.825685e-09	-1.549936e+01	-1.235458e+02
1.370000e-06	-2.142135e-06	-1.814383e-09	-1.520028e+01	-1.229450e+02
1.380000e-06	-2.099719e-06	-1.799781e-09	-1.489930e+01	-1.223355e+02
1.390000e-06	-2.056973e-06	-1.783569e-09	-1.459598e+01	-1.217170e+02
1.400000e-06	-2.013931e-06	-1.771750e-09	-1.429056e+01	-1.210894e+02
1.410000e-06	-1.970721e-06	-1.768353e-09	-1.398395e+01	-1.204521e+02
1.420000e-06	-1.927369e-06	-1.765892e-09	-1.367633e+01	-1.198050e+02
1.430000e-06	-1.883932e-06	-1.758364e-09	-1.336811e+01	-1.191474e+02
1.440000e-06	-1.840413e-06	-1.744421e-09	-1.305930e+01	-1.184791e+02
1.450000e-06	-1.796772e-06	-1.730782e-09	-1.274963e+01	-1.177993e+02
1.460000e-06	-1.753033e-06	-1.719192e-09	-1.243926e+01	-1.171078e+02
1.470000e-06	-1.709129e-06	-1.706582e-09	-1.212773e+01	-1.164038e+02
1.480000e-06	-1.665117e-06	-1.689338e-09	-1.181543e+01	-1.156868e+02
1.490000e-06	-1.621122e-06	-1.677506e-09	-1.150325e+01	-1.149563e+02
1.500000e-06	-1.577071e-06	-1.671450e-09	-1.119067e+01	-1.142116e+02
1.510000e-06	-1.532913e-06	-1.663079e-09	-1.087733e+01	-1.134522e+02
1.520000e-06	-1.488689e-06	-1.647312e-09	-1.056352e+01	-1.126775e+02
1.530000e-06	-1.444480e-06	-1.628774e-09	-1.024982e+01	-1.118868e+02
1.540000e-06	-1.400189e-06	-1.614614e-09	-9.935539e+00	-1.110796e+02
1.550000e-06	-1.355767e-06	-1.602891e-09	-9.620329e+00	-1.102552e+02
1.560000e-06	-1.311277e-06	-1.588515e-09	-9.304632e+00	-1.094130e+02
1.570000e-06	-1.266725e-06	-1.575270e-09	-8.988494e+00	-1.085524e+02
1.580000e-06	-1.222126e-06	-1.564865e-09	-8.672030e+00	-1.076727e+02
1.590000e-06	-1.177408e-06	-1.555230e-09	-8.354720e+00	-1.067733e+02
1.600000e-06	-1.132575e-06	-1.541428e-09	-8.036585e+00	-1.058535e+02
1.610000e-06	-1.087623e-06	-1.523943e-09	-7.717613e+00	-1.049125e+02
1.620000e-06	-1.042542e-06	-1.505895e-09	-7.397730e+00	-1.039496e+02
1.630000e-06	-9.973770e-07	-1.489005e-09	-7.077242e+00	-1.029638e+02
1.640000e-06	-9.521082e-07	-1.471026e-09	-6.756021e+00	-1.019544e+02
1.650000e-06	-9.068453e-07	-1.453344e-09	-6.434843e+00	-1.009205e+02
1.660000e-06	-8.615284e-07	-1.439911e-09	-6.113280e+00	-9.986085e+01
1.670000e-06	-8.161374e-07	-1.428493e-09	-5.791192e+00	-9.877458e+01
1.680000e-06	-7.707045e-07	-1.415438e-09	-5.468807e+00	-9.766048e+01
1.690000e-06	-7.252127e-07	-1.395346e-09	-5.146004e+00	-9.651736e+01
1.700000e-06	-6.796537e-07	-1.368959e-09	-4.822724e+00	-9.534394e+01
1.710000e-06	-6.340264e-07	-1.345508e-09	-4.498959e+00	-9.413888e+01
1.720000e-06	-5.883662e-07	-1.328315e-09	-4.174961e+00	-9.290077e+01
1.730000e-06	-5.426147e-07	-1.312005e-09	-3.850315e+00	-9.162818e+01
1.740000e-06	-4.968078e-07	-1.295881e-09	-3.525276e+00	-9.031960e+01
1.750000e-06	-4.509666e-07	-1.279858e-09	-3.199993e+00	-8.897352e+01
1.760000e-06	-4.051612e-07	-1.263749e-09	-2.874965e+00	-8.758839e+01
1.770000e-06	-3.593874e-07	-1.242796e-09	-2.550161e+00	-8.616268e+01
1.780000e-06	-3.135138e-07	-1.213569e-09	-2.224648e+00	-8.469485e+01
1.790000e-06	-2.675719e-07	-1.177674e-09	-1.898651e+00	-8.318339e+01
1.800000e-06	-2.216382e-07	-1.147750e-09	-1.572712e+00	-8.162685e+01
1.810000e-06	-1.757171e-07	-1.124619e-09	-1.246863e+00	-8.002384e+01
1.820000e-06	-1.298606e-07	-1.106132e-09	-9.214721e-01	-7.837303e+01
1.830000e-06	-8.399172e-08	-1.087032e-09	-5.959930e-01	-7.667322e+01
1.840000e-06	-3.808157e-08	-1.067455e-09	-2.702213e-01	-7.492330e+01
1.850000e-06	7.759653e-09	-1.047355e-09	5.506137e-02	-7.312230e+01
1.860000e-06	5.353353e-08	-1.021292e-09	3.798661e-01	-7.126942e+01
1.870000e-06	9.936284e-08	-9.865646e-10	7.050643e-01	-6.936397e+01
1.880000e-06	1.452012e-07	-9.461503e-10	1.030327e+00	-6.740549e+01
1.890000e-06	1.910423e-07	-9.083804e-10	1.355609e+00	-6.539364e+01
1.900000e-06	2.369464e-07	-8.764700e-10	1.681337e+00	-6.332833e+01
1.910000e-06	2.828933e-07	-8.463876e-10	2.007370e+00	-6.120962e+01
1.920000e-06	3.288141e-07	-8.170626e-10	2.333217e+00	-5.903778e+01
1.930000e-06	3.746078e-07	-7.927855e-10	2.658163e+00	-5.681329e+01
1.940000e-06	4.203522e-07	-7.702429e-10	2.982758e+00	-5.453680e+01
1.950000e-06	4.661417e-07	-7.410822e-10	3.307674e+00	-5.220917e+01
1.960000e-06	5.119115e-07	-7.007068e-10	3.632450e+00	-4.983143e+01
1.970000e-06	5.576389e-07	-6.542988e-10	3.956925e+00	-4.740481e+01
1.980000e-06	6.032769e-07	-6.088125e-10	4.280765e+00	-4.493068e+01
1.990000e-06	6.487663e-07	-5.690128e-10	4.603551e+00	-4.241058e+01
2.000000e-06	6.942189e-07	-5.323969e-10	4.926077e+00	-3.984617e+01
2.010000e-06	7.396556e-07	-4.994527e-10	5.248489e+00	-3.723925e+01
2.020000e-06	7.850336e-07	-4.682160e-10	5.570485e+00	-3.459175e+01
2.030000e-06	8.303887e-07	-4.362713e-10	5.892318e+00	-3.190567e+01
2.040000e-06	8.757575e-07	-4.005514e-10	6.214248e+00	-2.918310e+01
2.050000e-06	9.210724e-07	-3.586824e-10	6.535796e+00	-2.642619e+01
2.060000e-06	9.662986e-07	-3.110564e-10	6.856714e+00	-2.363718e+01
2.070000e-06	1.011453e-06	-2.642436e-10	7.177124e+00	-2.081830e+01
2.080000e-06	1.056531e-06	-2.209442e-10	7.496994e+00	-1.797184e+01
2.090000e-06	1.101485e-06	-1.806288e-10	7.815978e+00	-1.510011e+01
2.100000e-06	1.146309e-06	-1.414575e-10	8.134043e+00	-1.220542e+01
2.110000e-06	1.191072e-06	-1.050655e-10	8.451674e+00	-9.290082e+00
2.120000e-06	1.235742e-06	-6.886772e-11	8.768644e+00	-6.356410e+00
2.130000e-06	1.280275e-06	-2.713997e-11	9.084647e+00	-3.406708e+00
2.140000e-06	1.324752e-06	2.132026e-11	9.400246e+00	-4.432735e-01
2.150000e-06	1.369160e-06	7.322111e-11	9.715362e+00	2.531610e+00
2.160000e-06	1.413484e-06	1.232401e-10	1.002988e+01	5.515668e+00
2.170000e-06	1.457774e-06	1.692300e-10	1.034415e+01	8.506633e+00
2.180000e-06	1.501986e-06	2.110603e-10	1.065787e+01	1.150224e+01
2.190000e-06	1.546125e-06	2.504796e-10	1.097108e+01	1.450024e+01
2.200000e-06	1.590174e-06	2.872037e-10	1.128365e+01	1.749837e+01
2.210000e-06	1.634146e-06	3.258609e-10	1.159566e+01	2.049436e+01
2.220000e-06	1.678100e-06	3.723409e-10	1.190755e+01	2.348594e+01
2.230000e-06	1.721963e-06	4.229284e-10	1.221880e+01	2.647082e+01
2.240000e-06	1.765768e-06	4.710170e-10	1.252964e+01	2.944669e+01
2.250000e-06	1.809531e-06	5.160469e-10	1.284017e+01	3.241124e+01
2.260000e-06	1.853158e-06	5.589655e-10	1.314974e+01	3.536212e+01
2.270000e-06	1.896684e-06	5.999292e-10	1.345859e+01	3.829698e+01
2.280000e-06	1.940130e-06	6.387680e-10	1.376688e+01	4.121344e+01
2.290000e-06	1.983532e-06	6.766034e-10	1.407486e+01	4.410911e+01
2.300000e-06	2.026785e-06	7.160058e-10	1.438177e+01	4.698159e+01
2.310000e-06	2.069650e-06	7.606011e-10	1.468594e+01	4.982850e+01
2.320000e-06	2.112160e-06	8.052381e-10	1.498758e+01	5.264743e+01
2.330000e-06	2.154439e-06	8.473030e-10	1.528759e+01	5.543604e+01
2.340000e-06	2.196420e-06	8.877898e-10	1.558548e+01	5.819196e+01
2.350000e-06	2.238137e-06	9.264723e-10	1.588149e+01	6.091291e+01
2.360000e-06	2.279641e-06	9.638185e-10	1.617600e+01	6.359663e+01
2.370000e-06	2.320869e-06	1.002151e-09	1.646855e+01	6.624097e+01
2.380000e-06	2.361695e-06	1.041264e-09	1.675824e+01	6.884383e+01
2.390000e-06	2.402188e-06	1.081191e-09	1.704558e+01	7.140323e+01
2.400000e-06	2.442539e-06	1.116905e-09	1.733191e+01	7.391730e+01
2.410000e-06	2.482764e-06	1.149167e-09	1.761733e+01	7.638429e+01
2.420000e-06	2.522912e-06	1.181169e-09	1.790222e+01	7.880262e+01
2.430000e-06	2.562974e-06	1.215249e-09	1.818649e+01	8.117083e+01
2.440000e-06	2.602946e-06	1.251363e-09	1.847013e+01	8.348766e+01
2.450000e-06	2.642837e-06	1.285027e-09	1.875318e+01	8.575200e+01
2.460000e-06	2.682578e-06	1.315511e-09	1.903518e+01	8.796294e+01
2.470000e-06	2.722223e-06	1.346700e-09	1.931650e+01	9.011976e+01
2.480000e-06	2.761759e-06	1.377628e-09	1.959704e+01	9.222191e+01
2.490000e-06	2.800989e-06	1.404651e-09	1.987541e+01	9.426907e+01
2.500000e-06	2.839901e-06	1.427376e-09	2.015152e+01	9.626106e+01
2.510000e-06	2.878648e-06	1.453026e-09	2.042647e+01	9.819793e+01
2.520000e-06	2.917211e-06	1.484257e-09	2.070010e+01	1.000799e+02
2.530000e-06	2.955501e-06	1.514405e-09	2.097181e+01	1.019073e+02
2.540000e-06	2.993618e-06	1.541695e-09	2.124228e+01	1.036807e+02
2.550000e-06	3.031642e-06	1.568477e-09	2.151209e+01	1.054009e+02
2.560000e-06	3.069558e-06	1.597277e-09	2.178114e+01	1.070685e+02
2.570000e-06	3.107249e-06	1.620808e-09	2.204859e+01	1.086846e+02
2.580000e-06	3.144656e-06	1.637183e-09	2.231402e+01	1.102503e+02
2.590000e-06	3.181797e-06	1.653380e-09	2.257757e+01	1.117665e+02
2.600000e-06	3.218703e-06	1.674882e-09	2.283945e+01	1.132345e+02
2.610000e-06	3.255413e-06	1.698896e-09	2.309994e+01	1.146557e+02
2.620000e-06	3.291877e-06	1.721520e-09	2.335868e+01	1.160311e+02
2.630000e-06	3.328143e-06	1.742871e-09	2.361602e+01	1.173621e+02
2.640000e-06	3.364289e-06	1.763693e-09	2.387251e+01	1.186501e+02
2.650000e-06	3.400345e-06	1.781886e-09	2.412835e+01	1.198962e+02
2.660000e-06	3.436301e-06	1.793382e-09	2.438349e+01	1.211018e+02
2.670000e-06	3.472116e-06	1.801534e-09	2.463763e+01	1.222681e+02
2.680000e-06	3.507687e-06	1.814591e-09	2.489004e+01	1.233963e+02
2.690000e-06	3.542946e-06	1.833330e-09	2.514023e+01	1.244874e+02
2.700000e-06	3.577934e-06	1.852936e-09	2.538850e+01	1.255427e+02
2.710000e-06	3.612548e-06	1.870547e-09	2.563412e+01	1.265630e+02
2.720000e-06	3.646579e-06	1.889337e-09	2.587559e+01	1.275495e+02
2.730000e-06	3.680130e-06	1.906324e-09	2.611366e+01	1.285030e+02
2.740000e-06	3.713284e-06	1.917198e-09	2.634892e+01	1.294244e+02
2.750000e-06	3.746041e-06	1.924674e-09	2.658136e+01	1.303146e+02
2.760000e-06	3.778532e-06	1.934297e-09	2.681191e+01	1.311744e+02
2.770000e-06	3.810772e-06	1.948784e-09	2.704068e+01	1.320045e+02
2.780000e-06	3.842853e-06	1.965723e-09	2.726833e+01	1.328056e+02
2.790000e-06	3.874811e-06	1.981152e-09	2.749509e+01	1.335786e+02
2.800000e-06	3.906612e-06	1.996011e-09	2.772075e+01	1.343241e+02
2.810000e-06	3.938196e-06	2.009724e-09	2.794487e+01	1.350429e+02
2.820000e-06	3.969490e-06	2.019996e-09	2.816693e+01	1.357358e+02
2.830000e-06	4.000518e-06	2.023829e-09	2.838709e+01	1.364033e+02
2.840000e-06	4.031218e-06	2.025893e-09	2.860494e+01	1.370465e+02
2.850000e-06	4.061609e-06	2.035518e-09	2.882058e+01	1.376659e+02
2.860000e-06	4.091722e-06	2.051174e-09	2.903426e+01	1.382625e+02
2.870000e-06	4.121601e-06	2.064169e-09	2.924628e+01	1.388371e+02
2.880000e-06	4.151247e-06	2.070617e-09	2.945664e+01	1.393905e+02
2.890000e-06	4.180673e-06	2.074251e-09	2.966545e+01	1.399237e+02
2.900000e-06	4.209830e-06	2.078171e-09	2.987234e+01	1.404376e+02
