# Temperatura_=_16.61
# Concentracion g/m^3_=_4090.0
# C_Vs_to_Am_M_A/Vsm_=_65563218390.804596
# pendiente_HvsI_1/m_=_3716.3
# ordenada_HvsI_A/m_=_1297.0
# frecuencia_Hz_=_135080.11875587382

Tiempo_(s)	Campo_(V.s)	Magnetizacion_(V.s)	Campo_(kA/m)	Magnetizacion_(A/m)
0.000000e+00	-5.366146e-06	-2.390222e-09	-3.838874e+01	-1.545462e+02
1.000000e-08	-5.366345e-06	-2.397055e-09	-3.839017e+01	-1.544551e+02
2.000000e-08	-5.366255e-06	-2.400830e-09	-3.838952e+01	-1.543629e+02
3.000000e-08	-5.365791e-06	-2.397214e-09	-3.838620e+01	-1.542708e+02
4.000000e-08	-5.364941e-06	-2.392493e-09	-3.838012e+01	-1.541801e+02
5.000000e-08	-5.363670e-06	-2.396455e-09	-3.837102e+01	-1.540922e+02
6.000000e-08	-5.361817e-06	-2.414851e-09	-3.835777e+01	-1.540083e+02
7.000000e-08	-5.359278e-06	-2.428047e-09	-3.833961e+01	-1.539295e+02
8.000000e-08	-5.356172e-06	-2.380951e-09	-3.831739e+01	-1.538569e+02
9.000000e-08	-5.352586e-06	-2.303867e-09	-3.829174e+01	-1.537915e+02
1.000000e-07	-5.348620e-06	-2.336378e-09	-3.826336e+01	-1.537340e+02
1.100000e-07	-5.344481e-06	-2.453386e-09	-3.823375e+01	-1.536851e+02
1.200000e-07	-5.340110e-06	-2.419177e-09	-3.820248e+01	-1.536452e+02
1.300000e-07	-5.335293e-06	-2.318622e-09	-3.816802e+01	-1.536146e+02
1.400000e-07	-5.330036e-06	-2.347273e-09	-3.813041e+01	-1.535935e+02
1.500000e-07	-5.324519e-06	-2.478748e-09	-3.809095e+01	-1.535818e+02
1.600000e-07	-5.318704e-06	-2.449630e-09	-3.804934e+01	-1.535790e+02
1.700000e-07	-5.312390e-06	-2.302094e-09	-3.800418e+01	-1.535849e+02
1.800000e-07	-5.305631e-06	-2.322793e-09	-3.795582e+01	-1.535987e+02
1.900000e-07	-5.298581e-06	-2.404459e-09	-3.790539e+01	-1.536195e+02
2.000000e-07	-5.291271e-06	-2.408100e-09	-3.785310e+01	-1.536465e+02
2.100000e-07	-5.283652e-06	-2.343293e-09	-3.779859e+01	-1.536785e+02
2.200000e-07	-5.275883e-06	-2.425818e-09	-3.774301e+01	-1.537141e+02
2.300000e-07	-5.267908e-06	-2.453835e-09	-3.768596e+01	-1.537522e+02
2.400000e-07	-5.259412e-06	-2.393091e-09	-3.762518e+01	-1.537912e+02
2.500000e-07	-5.250215e-06	-2.357548e-09	-3.755938e+01	-1.538297e+02
2.600000e-07	-5.240434e-06	-2.440096e-09	-3.748942e+01	-1.538662e+02
2.700000e-07	-5.230149e-06	-2.419863e-09	-3.741583e+01	-1.538991e+02
2.800000e-07	-5.219318e-06	-2.336435e-09	-3.733835e+01	-1.539270e+02
2.900000e-07	-5.208037e-06	-2.393390e-09	-3.725765e+01	-1.539485e+02
3.000000e-07	-5.196367e-06	-2.469745e-09	-3.717416e+01	-1.539621e+02
3.100000e-07	-5.184283e-06	-2.396322e-09	-3.708771e+01	-1.539667e+02
3.200000e-07	-5.171755e-06	-2.338460e-09	-3.699809e+01	-1.539611e+02
3.300000e-07	-5.158944e-06	-2.402217e-09	-3.690644e+01	-1.539442e+02
3.400000e-07	-5.145853e-06	-2.405550e-09	-3.681279e+01	-1.539153e+02
3.500000e-07	-5.132376e-06	-2.375544e-09	-3.671638e+01	-1.538735e+02
3.600000e-07	-5.118536e-06	-2.402850e-09	-3.661737e+01	-1.538184e+02
3.700000e-07	-5.104288e-06	-2.421779e-09	-3.651544e+01	-1.537495e+02
3.800000e-07	-5.089545e-06	-2.369411e-09	-3.640997e+01	-1.536668e+02
3.900000e-07	-5.074162e-06	-2.394301e-09	-3.629992e+01	-1.535701e+02
4.000000e-07	-5.058322e-06	-2.404903e-09	-3.618661e+01	-1.534595e+02
4.100000e-07	-5.042156e-06	-2.348803e-09	-3.607096e+01	-1.533355e+02
4.200000e-07	-5.025587e-06	-2.321108e-09	-3.595242e+01	-1.531984e+02
4.300000e-07	-5.008623e-06	-2.396272e-09	-3.583107e+01	-1.530488e+02
4.400000e-07	-4.991241e-06	-2.393651e-09	-3.570672e+01	-1.528875e+02
4.500000e-07	-4.973585e-06	-2.355548e-09	-3.558041e+01	-1.527152e+02
4.600000e-07	-4.955728e-06	-2.357530e-09	-3.545266e+01	-1.525328e+02
4.700000e-07	-4.937562e-06	-2.377736e-09	-3.532270e+01	-1.523413e+02
4.800000e-07	-4.918897e-06	-2.350342e-09	-3.518918e+01	-1.521416e+02
4.900000e-07	-4.899749e-06	-2.346763e-09	-3.505220e+01	-1.519349e+02
5.000000e-07	-4.880307e-06	-2.334507e-09	-3.491311e+01	-1.517220e+02
5.100000e-07	-4.860656e-06	-2.325692e-09	-3.477253e+01	-1.515040e+02
5.200000e-07	-4.840828e-06	-2.344245e-09	-3.463068e+01	-1.512819e+02
5.300000e-07	-4.820758e-06	-2.356600e-09	-3.448710e+01	-1.510565e+02
5.400000e-07	-4.800322e-06	-2.319474e-09	-3.434091e+01	-1.508287e+02
5.500000e-07	-4.779557e-06	-2.310555e-09	-3.419236e+01	-1.505993e+02
5.600000e-07	-4.758494e-06	-2.332182e-09	-3.404167e+01	-1.503687e+02
5.700000e-07	-4.737121e-06	-2.325715e-09	-3.388877e+01	-1.501378e+02
5.800000e-07	-4.715428e-06	-2.303109e-09	-3.373358e+01	-1.499067e+02
5.900000e-07	-4.693422e-06	-2.299810e-09	-3.357616e+01	-1.496759e+02
6.000000e-07	-4.671024e-06	-2.304380e-09	-3.341592e+01	-1.494456e+02
6.100000e-07	-4.648202e-06	-2.300766e-09	-3.325266e+01	-1.492159e+02
6.200000e-07	-4.625054e-06	-2.286050e-09	-3.308706e+01	-1.489868e+02
6.300000e-07	-4.601701e-06	-2.265501e-09	-3.292000e+01	-1.487580e+02
6.400000e-07	-4.578210e-06	-2.271578e-09	-3.275194e+01	-1.485295e+02
6.500000e-07	-4.554493e-06	-2.286652e-09	-3.258227e+01	-1.483010e+02
6.600000e-07	-4.530514e-06	-2.286157e-09	-3.241074e+01	-1.480720e+02
6.700000e-07	-4.506259e-06	-2.269377e-09	-3.223722e+01	-1.478422e+02
6.800000e-07	-4.481584e-06	-2.272467e-09	-3.206070e+01	-1.476111e+02
6.900000e-07	-4.456439e-06	-2.272113e-09	-3.188081e+01	-1.473781e+02
7.000000e-07	-4.430818e-06	-2.262504e-09	-3.169752e+01	-1.471429e+02
7.100000e-07	-4.404666e-06	-2.238514e-09	-3.151043e+01	-1.469048e+02
7.200000e-07	-4.378004e-06	-2.233242e-09	-3.131970e+01	-1.466634e+02
7.300000e-07	-4.350999e-06	-2.240386e-09	-3.112650e+01	-1.464182e+02
7.400000e-07	-4.323715e-06	-2.252536e-09	-3.093132e+01	-1.461687e+02
7.500000e-07	-4.296126e-06	-2.244000e-09	-3.073395e+01	-1.459147e+02
7.600000e-07	-4.268318e-06	-2.237786e-09	-3.053501e+01	-1.456556e+02
7.700000e-07	-4.240335e-06	-2.234292e-09	-3.033483e+01	-1.453914e+02
7.800000e-07	-4.212134e-06	-2.232565e-09	-3.013309e+01	-1.451217e+02
7.900000e-07	-4.183610e-06	-2.216863e-09	-2.992903e+01	-1.448464e+02
8.000000e-07	-4.154711e-06	-2.204277e-09	-2.972229e+01	-1.445656e+02
8.100000e-07	-4.125480e-06	-2.199109e-09	-2.951317e+01	-1.442791e+02
8.200000e-07	-4.095967e-06	-2.206202e-09	-2.930204e+01	-1.439871e+02
8.300000e-07	-4.066236e-06	-2.206300e-09	-2.908935e+01	-1.436898e+02
8.400000e-07	-4.036329e-06	-2.199687e-09	-2.887540e+01	-1.433873e+02
8.500000e-07	-4.006086e-06	-2.193951e-09	-2.865904e+01	-1.430800e+02
8.600000e-07	-3.975530e-06	-2.191960e-09	-2.844045e+01	-1.427681e+02
8.700000e-07	-3.944794e-06	-2.183476e-09	-2.822057e+01	-1.424519e+02
8.800000e-07	-3.913812e-06	-2.166615e-09	-2.799893e+01	-1.421320e+02
8.900000e-07	-3.882493e-06	-2.156306e-09	-2.777487e+01	-1.418085e+02
9.000000e-07	-3.850891e-06	-2.159038e-09	-2.754880e+01	-1.414820e+02
9.100000e-07	-3.819111e-06	-2.162954e-09	-2.732145e+01	-1.411528e+02
9.200000e-07	-3.787158e-06	-2.156674e-09	-2.709286e+01	-1.408213e+02
9.300000e-07	-3.754928e-06	-2.147229e-09	-2.686229e+01	-1.404878e+02
9.400000e-07	-3.722563e-06	-2.138841e-09	-2.663075e+01	-1.401526e+02
9.500000e-07	-3.690076e-06	-2.135616e-09	-2.639835e+01	-1.398160e+02
9.600000e-07	-3.657278e-06	-2.127509e-09	-2.616371e+01	-1.394782e+02
9.700000e-07	-3.624070e-06	-2.119392e-09	-2.592615e+01	-1.391393e+02
9.800000e-07	-3.590398e-06	-2.112046e-09	-2.568526e+01	-1.387995e+02
9.900000e-07	-3.556333e-06	-2.106221e-09	-2.544157e+01	-1.384587e+02
1.000000e-06	-3.521866e-06	-2.094650e-09	-2.519499e+01	-1.381170e+02
1.010000e-06	-3.486986e-06	-2.084295e-09	-2.494546e+01	-1.377742e+02
1.020000e-06	-3.451815e-06	-2.072737e-09	-2.469385e+01	-1.374301e+02
1.030000e-06	-3.416407e-06	-2.068282e-09	-2.444055e+01	-1.370846e+02
1.040000e-06	-3.380744e-06	-2.065816e-09	-2.418542e+01	-1.367373e+02
1.050000e-06	-3.344920e-06	-2.064278e-09	-2.392914e+01	-1.363878e+02
1.060000e-06	-3.308950e-06	-2.057769e-09	-2.367181e+01	-1.360359e+02
1.070000e-06	-3.272866e-06	-2.052381e-09	-2.341368e+01	-1.356810e+02
1.080000e-06	-3.236669e-06	-2.042753e-09	-2.315473e+01	-1.353227e+02
1.090000e-06	-3.200276e-06	-2.030303e-09	-2.289438e+01	-1.349605e+02
1.100000e-06	-3.163570e-06	-2.017295e-09	-2.263179e+01	-1.345939e+02
1.110000e-06	-3.126557e-06	-2.010517e-09	-2.236700e+01	-1.342223e+02
1.120000e-06	-3.089448e-06	-2.007862e-09	-2.210153e+01	-1.338452e+02
1.130000e-06	-3.052235e-06	-2.004919e-09	-2.183531e+01	-1.334622e+02
1.140000e-06	-3.014715e-06	-1.998503e-09	-2.156690e+01	-1.330725e+02
1.150000e-06	-2.976936e-06	-1.991375e-09	-2.129663e+01	-1.326759e+02
1.160000e-06	-2.938984e-06	-1.983040e-09	-2.102513e+01	-1.322718e+02
1.170000e-06	-2.900881e-06	-1.973130e-09	-2.075254e+01	-1.318596e+02
1.180000e-06	-2.862585e-06	-1.960687e-09	-2.047858e+01	-1.314391e+02
1.190000e-06	-2.823986e-06	-1.950485e-09	-2.020244e+01	-1.310099e+02
1.200000e-06	-2.785000e-06	-1.943523e-09	-1.992355e+01	-1.305715e+02
1.210000e-06	-2.745813e-06	-1.936786e-09	-1.964320e+01	-1.301236e+02
1.220000e-06	-2.706525e-06	-1.931017e-09	-1.936214e+01	-1.296661e+02
1.230000e-06	-2.667025e-06	-1.924172e-09	-1.907956e+01	-1.291985e+02
1.240000e-06	-2.627436e-06	-1.915929e-09	-1.879635e+01	-1.287209e+02
1.250000e-06	-2.587770e-06	-1.907336e-09	-1.851259e+01	-1.282329e+02
1.260000e-06	-2.547949e-06	-1.899305e-09	-1.822771e+01	-1.277345e+02
1.270000e-06	-2.508038e-06	-1.887135e-09	-1.794219e+01	-1.272255e+02
1.280000e-06	-2.468063e-06	-1.878117e-09	-1.765622e+01	-1.267060e+02
1.290000e-06	-2.427937e-06	-1.870676e-09	-1.736916e+01	-1.261757e+02
1.300000e-06	-2.387673e-06	-1.863079e-09	-1.708111e+01	-1.256348e+02
1.310000e-06	-2.347352e-06	-1.851960e-09	-1.679266e+01	-1.250831e+02
1.320000e-06	-2.306887e-06	-1.840706e-09	-1.650318e+01	-1.245207e+02
1.330000e-06	-2.266166e-06	-1.830571e-09	-1.621187e+01	-1.239475e+02
1.340000e-06	-2.225183e-06	-1.825236e-09	-1.591868e+01	-1.233637e+02
1.350000e-06	-2.184017e-06	-1.817674e-09	-1.562419e+01	-1.227690e+02
1.360000e-06	-2.142693e-06	-1.805918e-09	-1.532856e+01	-1.221636e+02
1.370000e-06	-2.101055e-06	-1.794330e-09	-1.503069e+01	-1.215475e+02
1.380000e-06	-2.059061e-06	-1.785872e-09	-1.473027e+01	-1.209205e+02
1.390000e-06	-2.016818e-06	-1.776502e-09	-1.442806e+01	-1.202827e+02
1.400000e-06	-1.974319e-06	-1.765413e-09	-1.412403e+01	-1.196339e+02
1.410000e-06	-1.931590e-06	-1.752580e-09	-1.381835e+01	-1.189740e+02
1.420000e-06	-1.888774e-06	-1.742242e-09	-1.351205e+01	-1.183030e+02
1.430000e-06	-1.845720e-06	-1.732891e-09	-1.320405e+01	-1.176207e+02
1.440000e-06	-1.802379e-06	-1.720379e-09	-1.289400e+01	-1.169269e+02
1.450000e-06	-1.758857e-06	-1.707131e-09	-1.258265e+01	-1.162213e+02
1.460000e-06	-1.715235e-06	-1.696392e-09	-1.227058e+01	-1.155037e+02
1.470000e-06	-1.671537e-06	-1.687776e-09	-1.195797e+01	-1.147739e+02
1.480000e-06	-1.627765e-06	-1.678068e-09	-1.164483e+01	-1.140315e+02
1.490000e-06	-1.583946e-06	-1.665850e-09	-1.133135e+01	-1.132760e+02
1.500000e-06	-1.540064e-06	-1.651100e-09	-1.101743e+01	-1.125071e+02
1.510000e-06	-1.496156e-06	-1.636672e-09	-1.070332e+01	-1.117244e+02
1.520000e-06	-1.452212e-06	-1.621333e-09	-1.038894e+01	-1.109272e+02
1.530000e-06	-1.408272e-06	-1.606371e-09	-1.007460e+01	-1.101150e+02
1.540000e-06	-1.364268e-06	-1.594030e-09	-9.759803e+00	-1.092872e+02
1.550000e-06	-1.320163e-06	-1.585134e-09	-9.444284e+00	-1.084431e+02
1.560000e-06	-1.276032e-06	-1.576759e-09	-9.128574e+00	-1.075819e+02
1.570000e-06	-1.231799e-06	-1.564514e-09	-8.812134e+00	-1.067029e+02
1.580000e-06	-1.187416e-06	-1.549382e-09	-8.494625e+00	-1.058052e+02
1.590000e-06	-1.142900e-06	-1.535221e-09	-8.176166e+00	-1.048878e+02
1.600000e-06	-1.098329e-06	-1.522862e-09	-7.857306e+00	-1.039499e+02
1.610000e-06	-1.053750e-06	-1.507652e-09	-7.538394e+00	-1.029902e+02
1.620000e-06	-1.009083e-06	-1.487450e-09	-7.218855e+00	-1.020078e+02
1.630000e-06	-9.643733e-07	-1.468108e-09	-6.899007e+00	-1.010015e+02
1.640000e-06	-9.195847e-07	-1.450314e-09	-6.578594e+00	-9.997002e+01
1.650000e-06	-8.746167e-07	-1.435249e-09	-6.256899e+00	-9.891214e+01
1.660000e-06	-8.295900e-07	-1.421472e-09	-5.934784e+00	-9.782655e+01
1.670000e-06	-7.845387e-07	-1.408246e-09	-5.612492e+00	-9.671188e+01
1.680000e-06	-7.393696e-07	-1.393280e-09	-5.289358e+00	-9.556674e+01
1.690000e-06	-6.942746e-07	-1.373606e-09	-4.966754e+00	-9.438972e+01
1.700000e-06	-6.492084e-07	-1.348390e-09	-4.644356e+00	-9.317938e+01
1.710000e-06	-6.039671e-07	-1.322740e-09	-4.320705e+00	-9.193425e+01
1.720000e-06	-5.587073e-07	-1.299830e-09	-3.996922e+00	-9.065289e+01
1.730000e-06	-5.133876e-07	-1.278693e-09	-3.672711e+00	-8.933384e+01
1.740000e-06	-4.679434e-07	-1.258174e-09	-3.347609e+00	-8.797568e+01
1.750000e-06	-4.224755e-07	-1.240826e-09	-3.022337e+00	-8.657700e+01
1.760000e-06	-3.769972e-07	-1.225838e-09	-2.696991e+00	-8.513643e+01
1.770000e-06	-3.315032e-07	-1.206416e-09	-2.371533e+00	-8.365267e+01
1.780000e-06	-2.859310e-07	-1.179403e-09	-2.045515e+00	-8.212445e+01
1.790000e-06	-2.402966e-07	-1.149473e-09	-1.719052e+00	-8.055062e+01
1.800000e-06	-1.947221e-07	-1.121355e-09	-1.393017e+00	-7.893006e+01
1.810000e-06	-1.491571e-07	-1.095855e-09	-1.067051e+00	-7.726179e+01
1.820000e-06	-1.035343e-07	-1.071404e-09	-7.406714e-01	-7.554490e+01
1.830000e-06	-5.790219e-08	-1.046961e-09	-4.142251e-01	-7.377862e+01
1.840000e-06	-1.231244e-08	-1.022866e-09	-8.808165e-02	-7.196229e+01
1.850000e-06	3.316839e-08	-9.973275e-10	2.372825e-01	-7.009536e+01
1.860000e-06	7.865437e-08	-9.683713e-10	5.626836e-01	-6.817745e+01
1.870000e-06	1.241029e-07	-9.365568e-10	8.878169e-01	-6.620830e+01
1.880000e-06	1.695408e-07	-9.054409e-10	1.212874e+00	-6.418778e+01
1.890000e-06	2.150886e-07	-8.740770e-10	1.538717e+00	-6.211593e+01
1.900000e-06	2.606370e-07	-8.398580e-10	1.864564e+00	-5.999292e+01
1.910000e-06	3.062048e-07	-8.037637e-10	2.190551e+00	-5.781908e+01
1.920000e-06	3.516964e-07	-7.690534e-10	2.515992e+00	-5.559487e+01
1.930000e-06	3.970875e-07	-7.373527e-10	2.840714e+00	-5.332090e+01
1.940000e-06	4.425602e-07	-7.056238e-10	3.166021e+00	-5.099793e+01
1.950000e-06	4.880356e-07	-6.693602e-10	3.491346e+00	-4.862685e+01
1.960000e-06	5.333358e-07	-6.332215e-10	3.815418e+00	-4.620868e+01
1.970000e-06	5.784708e-07	-5.987614e-10	4.138308e+00	-4.374455e+01
1.980000e-06	6.236285e-07	-5.631164e-10	4.461361e+00	-4.123576e+01
1.990000e-06	6.687728e-07	-5.240906e-10	4.784318e+00	-3.868367e+01
2.000000e-06	7.138386e-07	-4.838579e-10	5.106712e+00	-3.608977e+01
2.010000e-06	7.589437e-07	-4.452247e-10	5.429389e+00	-3.345567e+01
2.020000e-06	8.040163e-07	-4.080449e-10	5.751833e+00	-3.078304e+01
2.030000e-06	8.489548e-07	-3.710085e-10	6.073317e+00	-2.807367e+01
2.040000e-06	8.938000e-07	-3.329323e-10	6.394134e+00	-2.532942e+01
2.050000e-06	9.385868e-07	-2.935344e-10	6.714533e+00	-2.255222e+01
2.060000e-06	9.832770e-07	-2.518871e-10	7.034241e+00	-1.974408e+01
2.070000e-06	1.027889e-06	-2.088044e-10	7.353390e+00	-1.690707e+01
2.080000e-06	1.072419e-06	-1.655213e-10	7.671951e+00	-1.404334e+01
2.090000e-06	1.116799e-06	-1.205643e-10	7.989440e+00	-1.115508e+01
2.100000e-06	1.161153e-06	-7.709313e-11	8.306745e+00	-8.244534e+00
2.110000e-06	1.205472e-06	-3.485662e-11	8.623796e+00	-5.314006e+00
2.120000e-06	1.249686e-06	5.964158e-12	8.940097e+00	-2.365844e+00
2.130000e-06	1.293818e-06	4.627903e-11	9.255811e+00	5.975604e-01
2.140000e-06	1.337844e-06	9.030094e-11	9.570770e+00	3.573771e+00
2.150000e-06	1.381864e-06	1.360964e-10	9.885681e+00	6.560314e+00
2.160000e-06	1.425879e-06	1.805899e-10	1.020056e+01	9.554677e+00
2.170000e-06	1.469854e-06	2.235196e-10	1.051515e+01	1.255431e+01
2.180000e-06	1.513760e-06	2.678286e-10	1.082925e+01	1.555665e+01
2.190000e-06	1.557608e-06	3.111649e-10	1.114294e+01	1.855909e+01
2.200000e-06	1.601455e-06	3.508846e-10	1.145661e+01	2.155899e+01
2.210000e-06	1.645268e-06	3.915337e-10	1.177004e+01	2.455373e+01
2.220000e-06	1.689027e-06	4.376961e-10	1.208309e+01	2.754064e+01
2.230000e-06	1.732662e-06	4.849671e-10	1.239525e+01	3.051706e+01
2.240000e-06	1.776158e-06	5.293974e-10	1.270642e+01	3.348035e+01
2.250000e-06	1.819552e-06	5.713344e-10	1.301685e+01	3.642785e+01
2.260000e-06	1.862736e-06	6.142251e-10	1.332578e+01	3.935694e+01
2.270000e-06	1.905763e-06	6.567300e-10	1.363359e+01	4.226501e+01
2.280000e-06	1.948666e-06	6.951705e-10	1.394052e+01	4.514950e+01
2.290000e-06	1.991330e-06	7.314560e-10	1.424573e+01	4.800791e+01
2.300000e-06	2.033668e-06	7.727550e-10	1.454860e+01	5.083779e+01
2.310000e-06	2.075784e-06	8.188037e-10	1.484990e+01	5.363675e+01
2.320000e-06	2.117555e-06	8.628367e-10	1.514872e+01	5.640252e+01
2.330000e-06	2.158924e-06	9.031574e-10	1.544467e+01	5.913288e+01
2.340000e-06	2.200068e-06	9.419444e-10	1.573901e+01	6.182575e+01
2.350000e-06	2.240997e-06	9.792624e-10	1.603181e+01	6.447917e+01
2.360000e-06	2.281751e-06	1.014593e-09	1.632336e+01	6.709129e+01
2.370000e-06	2.322342e-06	1.050712e-09	1.661374e+01	6.966041e+01
2.380000e-06	2.362710e-06	1.087481e-09	1.690254e+01	7.218498e+01
2.390000e-06	2.402885e-06	1.124201e-09	1.718994e+01	7.466359e+01
2.400000e-06	2.442952e-06	1.159238e-09	1.747658e+01	7.709501e+01
2.410000e-06	2.482926e-06	1.190605e-09	1.776254e+01	7.947816e+01
2.420000e-06	2.522794e-06	1.222834e-09	1.804776e+01	8.181213e+01
2.430000e-06	2.562546e-06	1.258621e-09	1.833214e+01	8.409619e+01
2.440000e-06	2.602255e-06	1.293639e-09	1.861621e+01	8.632976e+01
2.450000e-06	2.641863e-06	1.325171e-09	1.889956e+01	8.851243e+01
2.460000e-06	2.681275e-06	1.354508e-09	1.918151e+01	9.064397e+01
2.470000e-06	2.720539e-06	1.386016e-09	1.946240e+01	9.272428e+01
2.480000e-06	2.759616e-06	1.415942e-09	1.974195e+01	9.475341e+01
2.490000e-06	2.798495e-06	1.441419e-09	2.002008e+01	9.673156e+01
2.500000e-06	2.837150e-06	1.464305e-09	2.029662e+01	9.865904e+01
2.510000e-06	2.875600e-06	1.489232e-09	2.057169e+01	1.005363e+02
2.520000e-06	2.913876e-06	1.519084e-09	2.084550e+01	1.023639e+02
2.530000e-06	2.951913e-06	1.549663e-09	2.111762e+01	1.041424e+02
2.540000e-06	2.989754e-06	1.577360e-09	2.138833e+01	1.058725e+02
2.550000e-06	3.027371e-06	1.605176e-09	2.165744e+01	1.075551e+02
2.560000e-06	3.064731e-06	1.630646e-09	2.192471e+01	1.091908e+02
2.570000e-06	3.101957e-06	1.650111e-09	2.219101e+01	1.107807e+02
2.580000e-06	3.138973e-06	1.665788e-09	2.245582e+01	1.123254e+02
2.590000e-06	3.175781e-06	1.681202e-09	2.271914e+01	1.138259e+02
2.600000e-06	3.212380e-06	1.699221e-09	2.298097e+01	1.152831e+02
2.610000e-06	3.248688e-06	1.722368e-09	2.324071e+01	1.166979e+02
2.620000e-06	3.284774e-06	1.748023e-09	2.349887e+01	1.180710e+02
2.630000e-06	3.320756e-06	1.773022e-09	2.375627e+01	1.194033e+02
2.640000e-06	3.356663e-06	1.793788e-09	2.401315e+01	1.206955e+02
2.650000e-06	3.392373e-06	1.808311e-09	2.426861e+01	1.219485e+02
2.660000e-06	3.427948e-06	1.818418e-09	2.452311e+01	1.231629e+02
2.670000e-06	3.463343e-06	1.828356e-09	2.477633e+01	1.243393e+02
2.680000e-06	3.498408e-06	1.842672e-09	2.502718e+01	1.254785e+02
2.690000e-06	3.533168e-06	1.858035e-09	2.527584e+01	1.265811e+02
2.700000e-06	3.567545e-06	1.873876e-09	2.552177e+01	1.276475e+02
2.710000e-06	3.601502e-06	1.892168e-09	2.576470e+01	1.286784e+02
2.720000e-06	3.634967e-06	1.913457e-09	2.600410e+01	1.296743e+02
2.730000e-06	3.667924e-06	1.930266e-09	2.623987e+01	1.306358e+02
2.740000e-06	3.700526e-06	1.937867e-09	2.647310e+01	1.315634e+02
2.750000e-06	3.732851e-06	1.943825e-09	2.670435e+01	1.324576e+02
2.760000e-06	3.764995e-06	1.954641e-09	2.693431e+01	1.333191e+02
2.770000e-06	3.796978e-06	1.967626e-09	2.716311e+01	1.341484e+02
2.780000e-06	3.828805e-06	1.979857e-09	2.739080e+01	1.349462e+02
2.790000e-06	3.860486e-06	1.989940e-09	2.761743e+01	1.357131e+02
2.800000e-06	3.891963e-06	2.001174e-09	2.784262e+01	1.364499e+02
2.810000e-06	3.923166e-06	2.012391e-09	2.806584e+01	1.371573e+02
2.820000e-06	3.954043e-06	2.017585e-09	2.828673e+01	1.378362e+02
2.830000e-06	3.984611e-06	2.020108e-09	2.850541e+01	1.384875e+02
2.840000e-06	4.014837e-06	2.027185e-09	2.872164e+01	1.391120e+02
2.850000e-06	4.044782e-06	2.041293e-09	2.893587e+01	1.397109e+02
2.860000e-06	4.074545e-06	2.056972e-09	2.914878e+01	1.402851e+02
2.870000e-06	4.104060e-06	2.067470e-09	2.935994e+01	1.408358e+02
2.880000e-06	4.133284e-06	2.073039e-09	2.956900e+01	1.413640e+02
2.890000e-06	4.162161e-06	2.076133e-09	2.977558e+01	1.418710e+02
2.900000e-06	4.190815e-06	2.077741e-09	2.998057e+01	1.423579e+02
