# Temperatura_=_-1.8
# Concentracion g/m^3_=_4090.0
# C_Vs_to_Am_M_A/Vsm_=_65563218390.804596
# pendiente_HvsI_1/m_=_3716.3
# ordenada_HvsI_A/m_=_1297.0
# frecuencia_Hz_=_135065.6086853449

Tiempo_(s)	Campo_(V.s)	Magnetizacion_(V.s)	Campo_(kA/m)	Magnetizacion_(A/m)
0.000000e+00	-5.454778e-06	-2.311584e-09	-3.840221e+01	-1.513115e+02
1.000000e-08	-5.455021e-06	-2.308435e-09	-3.840392e+01	-1.512129e+02
2.000000e-08	-5.455049e-06	-2.305479e-09	-3.840411e+01	-1.511127e+02
3.000000e-08	-5.454819e-06	-2.303662e-09	-3.840250e+01	-1.510123e+02
4.000000e-08	-5.454220e-06	-2.301533e-09	-3.839828e+01	-1.509130e+02
5.000000e-08	-5.453100e-06	-2.298025e-09	-3.839039e+01	-1.508160e+02
6.000000e-08	-5.451377e-06	-2.295226e-09	-3.837826e+01	-1.507225e+02
7.000000e-08	-5.449064e-06	-2.294652e-09	-3.836198e+01	-1.506339e+02
8.000000e-08	-5.446201e-06	-2.299617e-09	-3.834183e+01	-1.505511e+02
9.000000e-08	-5.442779e-06	-2.317635e-09	-3.831773e+01	-1.504753e+02
1.000000e-07	-5.438842e-06	-2.341562e-09	-3.829001e+01	-1.504073e+02
1.100000e-07	-5.434612e-06	-2.329076e-09	-3.826023e+01	-1.503481e+02
1.200000e-07	-5.430318e-06	-2.263028e-09	-3.823001e+01	-1.502983e+02
1.300000e-07	-5.425824e-06	-2.264257e-09	-3.819836e+01	-1.502585e+02
1.400000e-07	-5.420805e-06	-2.347430e-09	-3.816303e+01	-1.502291e+02
1.500000e-07	-5.415290e-06	-2.347137e-09	-3.812421e+01	-1.502104e+02
1.600000e-07	-5.409432e-06	-2.250516e-09	-3.808297e+01	-1.502023e+02
1.700000e-07	-5.403225e-06	-2.231559e-09	-3.803927e+01	-1.502049e+02
1.800000e-07	-5.396522e-06	-2.356041e-09	-3.799208e+01	-1.502180e+02
1.900000e-07	-5.389346e-06	-2.378932e-09	-3.794156e+01	-1.502410e+02
2.000000e-07	-5.381977e-06	-2.267495e-09	-3.788968e+01	-1.502734e+02
2.100000e-07	-5.374471e-06	-2.246735e-09	-3.783684e+01	-1.503146e+02
2.200000e-07	-5.366648e-06	-2.350245e-09	-3.778176e+01	-1.503637e+02
2.300000e-07	-5.358506e-06	-2.373282e-09	-3.772444e+01	-1.504197e+02
2.400000e-07	-5.350086e-06	-2.318501e-09	-3.766516e+01	-1.504815e+02
2.500000e-07	-5.341104e-06	-2.356147e-09	-3.760193e+01	-1.505481e+02
2.600000e-07	-5.331301e-06	-2.420874e-09	-3.753292e+01	-1.506181e+02
2.700000e-07	-5.320856e-06	-2.388233e-09	-3.745938e+01	-1.506903e+02
2.800000e-07	-5.309952e-06	-2.350612e-09	-3.738262e+01	-1.507634e+02
2.900000e-07	-5.298657e-06	-2.397193e-09	-3.730310e+01	-1.508361e+02
3.000000e-07	-5.287014e-06	-2.399172e-09	-3.722113e+01	-1.509070e+02
3.100000e-07	-5.274936e-06	-2.340835e-09	-3.713610e+01	-1.509748e+02
3.200000e-07	-5.262490e-06	-2.367444e-09	-3.704848e+01	-1.510384e+02
3.300000e-07	-5.249711e-06	-2.440491e-09	-3.695851e+01	-1.510964e+02
3.400000e-07	-5.236518e-06	-2.394687e-09	-3.686564e+01	-1.511478e+02
3.500000e-07	-5.222904e-06	-2.331941e-09	-3.676979e+01	-1.511915e+02
3.600000e-07	-5.208940e-06	-2.383124e-09	-3.667148e+01	-1.512267e+02
3.700000e-07	-5.194636e-06	-2.422049e-09	-3.657078e+01	-1.512525e+02
3.800000e-07	-5.179834e-06	-2.362923e-09	-3.646657e+01	-1.512682e+02
3.900000e-07	-5.164397e-06	-2.343263e-09	-3.635790e+01	-1.512733e+02
4.000000e-07	-5.148355e-06	-2.381230e-09	-3.624496e+01	-1.512673e+02
4.100000e-07	-5.131915e-06	-2.377207e-09	-3.612922e+01	-1.512500e+02
4.200000e-07	-5.115125e-06	-2.356882e-09	-3.601102e+01	-1.512210e+02
4.300000e-07	-5.098010e-06	-2.367800e-09	-3.589053e+01	-1.511805e+02
4.400000e-07	-5.080601e-06	-2.357037e-09	-3.576796e+01	-1.511284e+02
4.500000e-07	-5.062857e-06	-2.346629e-09	-3.564304e+01	-1.510649e+02
4.600000e-07	-5.044847e-06	-2.378446e-09	-3.551625e+01	-1.509904e+02
4.700000e-07	-5.026447e-06	-2.382340e-09	-3.538671e+01	-1.509051e+02
4.800000e-07	-5.007506e-06	-2.341943e-09	-3.525336e+01	-1.508096e+02
4.900000e-07	-4.988135e-06	-2.341805e-09	-3.511699e+01	-1.507044e+02
5.000000e-07	-4.968526e-06	-2.368698e-09	-3.497894e+01	-1.505901e+02
5.100000e-07	-4.948707e-06	-2.355721e-09	-3.483941e+01	-1.504672e+02
5.200000e-07	-4.928651e-06	-2.332503e-09	-3.469822e+01	-1.503366e+02
5.300000e-07	-4.908348e-06	-2.336478e-09	-3.455528e+01	-1.501988e+02
5.400000e-07	-4.887712e-06	-2.348668e-09	-3.441000e+01	-1.500545e+02
5.500000e-07	-4.866716e-06	-2.353286e-09	-3.426219e+01	-1.499044e+02
5.600000e-07	-4.845376e-06	-2.343999e-09	-3.411195e+01	-1.497493e+02
5.700000e-07	-4.823727e-06	-2.323543e-09	-3.395954e+01	-1.495896e+02
5.800000e-07	-4.801796e-06	-2.323941e-09	-3.380514e+01	-1.494261e+02
5.900000e-07	-4.779523e-06	-2.337950e-09	-3.364834e+01	-1.492593e+02
6.000000e-07	-4.756887e-06	-2.327737e-09	-3.348898e+01	-1.490896e+02
6.100000e-07	-4.733923e-06	-2.306567e-09	-3.332731e+01	-1.489176e+02
6.200000e-07	-4.710663e-06	-2.307881e-09	-3.316356e+01	-1.487437e+02
6.300000e-07	-4.687099e-06	-2.315729e-09	-3.299766e+01	-1.485681e+02
6.400000e-07	-4.663314e-06	-2.313843e-09	-3.283022e+01	-1.483912e+02
6.500000e-07	-4.639377e-06	-2.302939e-09	-3.266170e+01	-1.482132e+02
6.600000e-07	-4.615221e-06	-2.291405e-09	-3.249164e+01	-1.480342e+02
6.700000e-07	-4.590689e-06	-2.290360e-09	-3.231893e+01	-1.478544e+02
6.800000e-07	-4.565668e-06	-2.296042e-09	-3.214278e+01	-1.476737e+02
6.900000e-07	-4.540178e-06	-2.284870e-09	-3.196333e+01	-1.474923e+02
7.000000e-07	-4.514068e-06	-2.268671e-09	-3.177951e+01	-1.473102e+02
7.100000e-07	-4.487311e-06	-2.270298e-09	-3.159114e+01	-1.471272e+02
7.200000e-07	-4.460183e-06	-2.276861e-09	-3.140015e+01	-1.469432e+02
7.300000e-07	-4.432764e-06	-2.268907e-09	-3.120712e+01	-1.467583e+02
7.400000e-07	-4.405040e-06	-2.257538e-09	-3.101194e+01	-1.465722e+02
7.500000e-07	-4.377126e-06	-2.255836e-09	-3.081543e+01	-1.463849e+02
7.600000e-07	-4.349112e-06	-2.261091e-09	-3.061820e+01	-1.461963e+02
7.700000e-07	-4.320933e-06	-2.260661e-09	-3.041982e+01	-1.460062e+02
7.800000e-07	-4.292447e-06	-2.249563e-09	-3.021927e+01	-1.458145e+02
7.900000e-07	-4.263619e-06	-2.238847e-09	-3.001633e+01	-1.456212e+02
8.000000e-07	-4.234387e-06	-2.238327e-09	-2.981052e+01	-1.454261e+02
8.100000e-07	-4.204838e-06	-2.237917e-09	-2.960250e+01	-1.452292e+02
8.200000e-07	-4.175142e-06	-2.231361e-09	-2.939343e+01	-1.450305e+02
8.300000e-07	-4.145260e-06	-2.227289e-09	-2.918307e+01	-1.448300e+02
8.400000e-07	-4.115001e-06	-2.228651e-09	-2.897004e+01	-1.446276e+02
8.500000e-07	-4.084264e-06	-2.232149e-09	-2.875364e+01	-1.444234e+02
8.600000e-07	-4.053279e-06	-2.228092e-09	-2.853550e+01	-1.442174e+02
8.700000e-07	-4.022158e-06	-2.216191e-09	-2.831641e+01	-1.440098e+02
8.800000e-07	-3.990815e-06	-2.206225e-09	-2.809575e+01	-1.438005e+02
8.900000e-07	-3.959248e-06	-2.203454e-09	-2.787352e+01	-1.435896e+02
9.000000e-07	-3.927534e-06	-2.204730e-09	-2.765025e+01	-1.433773e+02
9.100000e-07	-3.895679e-06	-2.203538e-09	-2.742599e+01	-1.431636e+02
9.200000e-07	-3.863586e-06	-2.200214e-09	-2.720005e+01	-1.429487e+02
9.300000e-07	-3.831158e-06	-2.199147e-09	-2.697175e+01	-1.427325e+02
9.400000e-07	-3.798364e-06	-2.198116e-09	-2.674088e+01	-1.425153e+02
9.500000e-07	-3.765209e-06	-2.192607e-09	-2.650746e+01	-1.422970e+02
9.600000e-07	-3.731720e-06	-2.182730e-09	-2.627170e+01	-1.420777e+02
9.700000e-07	-3.697790e-06	-2.177139e-09	-2.603283e+01	-1.418575e+02
9.800000e-07	-3.663333e-06	-2.176861e-09	-2.579025e+01	-1.416363e+02
9.900000e-07	-3.628480e-06	-2.173825e-09	-2.554488e+01	-1.414142e+02
1.000000e-06	-3.593304e-06	-2.164360e-09	-2.529723e+01	-1.411911e+02
1.010000e-06	-3.557891e-06	-2.157029e-09	-2.504792e+01	-1.409669e+02
1.020000e-06	-3.522273e-06	-2.151940e-09	-2.479717e+01	-1.407416e+02
1.030000e-06	-3.486476e-06	-2.146009e-09	-2.454516e+01	-1.405151e+02
1.040000e-06	-3.450560e-06	-2.140756e-09	-2.429230e+01	-1.402872e+02
1.050000e-06	-3.414485e-06	-2.140061e-09	-2.403833e+01	-1.400578e+02
1.060000e-06	-3.378233e-06	-2.142018e-09	-2.378311e+01	-1.398267e+02
1.070000e-06	-3.341824e-06	-2.141877e-09	-2.352679e+01	-1.395936e+02
1.080000e-06	-3.305238e-06	-2.134545e-09	-2.326922e+01	-1.393584e+02
1.090000e-06	-3.268316e-06	-2.120877e-09	-2.300929e+01	-1.391208e+02
1.100000e-06	-3.231076e-06	-2.110367e-09	-2.274711e+01	-1.388806e+02
1.110000e-06	-3.193598e-06	-2.108685e-09	-2.248326e+01	-1.386376e+02
1.120000e-06	-3.155875e-06	-2.107986e-09	-2.221769e+01	-1.383914e+02
1.130000e-06	-3.117975e-06	-2.102913e-09	-2.195087e+01	-1.381417e+02
1.140000e-06	-3.079939e-06	-2.097178e-09	-2.168309e+01	-1.378884e+02
1.150000e-06	-3.041683e-06	-2.094867e-09	-2.141376e+01	-1.376311e+02
1.160000e-06	-3.003163e-06	-2.091539e-09	-2.114258e+01	-1.373696e+02
1.170000e-06	-2.964469e-06	-2.082521e-09	-2.087017e+01	-1.371037e+02
1.180000e-06	-2.925540e-06	-2.071437e-09	-2.059611e+01	-1.368330e+02
1.190000e-06	-2.886358e-06	-2.064660e-09	-2.032026e+01	-1.365573e+02
1.200000e-06	-2.846969e-06	-2.060666e-09	-2.004296e+01	-1.362765e+02
1.210000e-06	-2.807433e-06	-2.051422e-09	-1.976462e+01	-1.359902e+02
1.220000e-06	-2.767741e-06	-2.042025e-09	-1.948519e+01	-1.356983e+02
1.230000e-06	-2.727896e-06	-2.038033e-09	-1.920467e+01	-1.354006e+02
1.240000e-06	-2.687995e-06	-2.037128e-09	-1.892377e+01	-1.350969e+02
1.250000e-06	-2.647978e-06	-2.031369e-09	-1.864204e+01	-1.347870e+02
1.260000e-06	-2.607894e-06	-2.021560e-09	-1.835985e+01	-1.344708e+02
1.270000e-06	-2.567769e-06	-2.010756e-09	-1.807736e+01	-1.341481e+02
1.280000e-06	-2.527383e-06	-2.003569e-09	-1.779304e+01	-1.338187e+02
1.290000e-06	-2.486667e-06	-1.998008e-09	-1.750639e+01	-1.334827e+02
1.300000e-06	-2.445674e-06	-1.990173e-09	-1.721780e+01	-1.331397e+02
1.310000e-06	-2.404461e-06	-1.982268e-09	-1.692765e+01	-1.327896e+02
1.320000e-06	-2.363061e-06	-1.977753e-09	-1.663619e+01	-1.324324e+02
1.330000e-06	-2.321437e-06	-1.972779e-09	-1.634316e+01	-1.320678e+02
1.340000e-06	-2.279436e-06	-1.964458e-09	-1.604747e+01	-1.316958e+02
1.350000e-06	-2.237052e-06	-1.954835e-09	-1.574908e+01	-1.313162e+02
1.360000e-06	-2.194459e-06	-1.946238e-09	-1.544922e+01	-1.309287e+02
1.370000e-06	-2.151622e-06	-1.939747e-09	-1.514764e+01	-1.305333e+02
1.380000e-06	-2.108553e-06	-1.932343e-09	-1.484443e+01	-1.301296e+02
1.390000e-06	-2.065270e-06	-1.923216e-09	-1.453972e+01	-1.297176e+02
1.400000e-06	-2.021787e-06	-1.915209e-09	-1.423359e+01	-1.292970e+02
1.410000e-06	-1.978175e-06	-1.911013e-09	-1.392656e+01	-1.288675e+02
1.420000e-06	-1.934465e-06	-1.906968e-09	-1.361884e+01	-1.284288e+02
1.430000e-06	-1.890714e-06	-1.898576e-09	-1.331082e+01	-1.279808e+02
1.440000e-06	-1.846931e-06	-1.887242e-09	-1.300259e+01	-1.275229e+02
1.450000e-06	-1.803059e-06	-1.878705e-09	-1.269372e+01	-1.270549e+02
1.460000e-06	-1.759054e-06	-1.874763e-09	-1.238392e+01	-1.265765e+02
1.470000e-06	-1.714961e-06	-1.869027e-09	-1.207350e+01	-1.260872e+02
1.480000e-06	-1.670827e-06	-1.858182e-09	-1.176279e+01	-1.255867e+02
1.490000e-06	-1.626665e-06	-1.848257e-09	-1.145189e+01	-1.250744e+02
1.500000e-06	-1.582429e-06	-1.841518e-09	-1.114047e+01	-1.245500e+02
1.510000e-06	-1.538040e-06	-1.833345e-09	-1.082796e+01	-1.240129e+02
1.520000e-06	-1.493523e-06	-1.820496e-09	-1.051456e+01	-1.234626e+02
1.530000e-06	-1.448990e-06	-1.807746e-09	-1.020104e+01	-1.228987e+02
1.540000e-06	-1.404290e-06	-1.801603e-09	-9.886350e+00	-1.223206e+02
1.550000e-06	-1.359360e-06	-1.797158e-09	-9.570033e+00	-1.217276e+02
1.560000e-06	-1.314461e-06	-1.788703e-09	-9.253944e+00	-1.211193e+02
1.570000e-06	-1.269557e-06	-1.779851e-09	-8.937817e+00	-1.204950e+02
1.580000e-06	-1.224502e-06	-1.772159e-09	-8.620623e+00	-1.198541e+02
1.590000e-06	-1.179302e-06	-1.763118e-09	-8.302408e+00	-1.191960e+02
1.600000e-06	-1.133980e-06	-1.750203e-09	-7.983337e+00	-1.185200e+02
1.610000e-06	-1.088535e-06	-1.733952e-09	-7.663401e+00	-1.178255e+02
1.620000e-06	-1.043008e-06	-1.717887e-09	-7.342885e+00	-1.171117e+02
1.630000e-06	-9.974243e-07	-1.705552e-09	-7.021971e+00	-1.163780e+02
1.640000e-06	-9.517474e-07	-1.692463e-09	-6.700401e+00	-1.156237e+02
1.650000e-06	-9.059950e-07	-1.679117e-09	-6.378300e+00	-1.148480e+02
1.660000e-06	-8.602157e-07	-1.670505e-09	-6.056009e+00	-1.140501e+02
1.670000e-06	-8.144201e-07	-1.665865e-09	-5.733603e+00	-1.132294e+02
1.680000e-06	-7.685841e-07	-1.658549e-09	-5.410913e+00	-1.123850e+02
1.690000e-06	-7.227194e-07	-1.642472e-09	-5.088020e+00	-1.115161e+02
1.700000e-06	-6.768585e-07	-1.622262e-09	-4.765154e+00	-1.106218e+02
1.710000e-06	-6.308917e-07	-1.603535e-09	-4.441543e+00	-1.097014e+02
1.720000e-06	-5.848418e-07	-1.587555e-09	-4.117347e+00	-1.087538e+02
1.730000e-06	-5.387803e-07	-1.574847e-09	-3.793070e+00	-1.077782e+02
1.740000e-06	-4.926732e-07	-1.562727e-09	-3.468471e+00	-1.067735e+02
1.750000e-06	-4.465732e-07	-1.552272e-09	-3.143922e+00	-1.057388e+02
1.760000e-06	-4.004453e-07	-1.544617e-09	-2.819177e+00	-1.046729e+02
1.770000e-06	-3.542956e-07	-1.533352e-09	-2.494278e+00	-1.035748e+02
1.780000e-06	-3.081897e-07	-1.512693e-09	-2.169688e+00	-1.024432e+02
1.790000e-06	-2.619915e-07	-1.486606e-09	-1.844447e+00	-1.012770e+02
1.800000e-06	-2.157239e-07	-1.461878e-09	-1.518719e+00	-1.000748e+02
1.810000e-06	-1.694865e-07	-1.441272e-09	-1.193203e+00	-9.883520e+01
1.820000e-06	-1.233135e-07	-1.423825e-09	-8.681397e-01	-9.755687e+01
1.830000e-06	-7.721645e-08	-1.407225e-09	-5.436119e-01	-9.623825e+01
1.840000e-06	-3.104045e-08	-1.391213e-09	-2.185280e-01	-9.487778e+01
1.850000e-06	1.522616e-08	-1.373157e-09	1.071938e-01	-9.347380e+01
1.860000e-06	6.145223e-08	-1.350934e-09	4.326301e-01	-9.202461e+01
1.870000e-06	1.076352e-07	-1.322826e-09	7.577628e-01	-9.052843e+01
1.880000e-06	1.537921e-07	-1.292985e-09	1.082713e+00	-8.898342e+01
1.890000e-06	1.998894e-07	-1.266446e-09	1.407242e+00	-8.738768e+01
1.900000e-06	2.460463e-07	-1.242776e-09	1.732192e+00	-8.573928e+01
1.910000e-06	2.922765e-07	-1.219159e-09	2.057657e+00	-8.403623e+01
1.920000e-06	3.384263e-07	-1.194541e-09	2.382556e+00	-8.227653e+01
1.930000e-06	3.845532e-07	-1.169468e-09	2.707294e+00	-8.045815e+01
1.940000e-06	4.306754e-07	-1.143961e-09	3.032000e+00	-7.857908e+01
1.950000e-06	4.767158e-07	-1.115610e-09	3.356129e+00	-7.663732e+01
1.960000e-06	5.227241e-07	-1.082149e-09	3.680032e+00	-7.463089e+01
1.970000e-06	5.686514e-07	-1.046418e-09	4.003365e+00	-7.255788e+01
1.980000e-06	6.145276e-07	-1.013701e-09	4.326338e+00	-7.041647e+01
1.990000e-06	6.603885e-07	-9.828072e-10	4.649204e+00	-6.820493e+01
2.000000e-06	7.062570e-07	-9.495859e-10	4.972123e+00	-6.592164e+01
2.010000e-06	7.521549e-07	-9.135459e-10	5.295249e+00	-6.356515e+01
2.020000e-06	7.979840e-07	-8.782564e-10	5.617891e+00	-6.113420e+01
2.030000e-06	8.437470e-07	-8.461014e-10	5.940067e+00	-5.862770e+01
2.040000e-06	8.894206e-07	-8.129850e-10	6.261614e+00	-5.604481e+01
2.050000e-06	9.349936e-07	-7.754985e-10	6.582452e+00	-5.338495e+01
2.060000e-06	9.805648e-07	-7.362028e-10	6.903278e+00	-5.064782e+01
2.070000e-06	1.026090e-06	-6.968673e-10	7.223779e+00	-4.783341e+01
2.080000e-06	1.071508e-06	-6.558812e-10	7.543525e+00	-4.494206e+01
2.090000e-06	1.116814e-06	-6.105491e-10	7.862485e+00	-4.197446e+01
2.100000e-06	1.161958e-06	-5.615361e-10	8.180304e+00	-3.893165e+01
2.110000e-06	1.206971e-06	-5.169322e-10	8.497200e+00	-3.581507e+01
2.120000e-06	1.251915e-06	-4.770361e-10	8.813615e+00	-3.262657e+01
2.130000e-06	1.296808e-06	-4.373297e-10	9.129667e+00	-2.936839e+01
2.140000e-06	1.341629e-06	-3.924688e-10	9.445210e+00	-2.604318e+01
2.150000e-06	1.386279e-06	-3.419500e-10	9.759549e+00	-2.265404e+01
2.160000e-06	1.430786e-06	-2.887912e-10	1.007288e+01	-1.920445e+01
2.170000e-06	1.475283e-06	-2.336721e-10	1.038615e+01	-1.569831e+01
2.180000e-06	1.519745e-06	-1.781937e-10	1.069916e+01	-1.213992e+01
2.190000e-06	1.564093e-06	-1.255530e-10	1.101138e+01	-8.533971e+00
2.200000e-06	1.608279e-06	-7.798220e-11	1.132245e+01	-4.885499e+00
2.210000e-06	1.652337e-06	-3.066629e-11	1.163262e+01	-1.199888e+00
2.220000e-06	1.696387e-06	2.292673e-11	1.194274e+01	2.517169e+00
2.230000e-06	1.740416e-06	8.180371e-11	1.225271e+01	6.259704e+00
2.240000e-06	1.784349e-06	1.423713e-10	1.256201e+01	1.002150e+01
2.250000e-06	1.828198e-06	2.032190e-10	1.287071e+01	1.379616e+01
2.260000e-06	1.871982e-06	2.634151e-10	1.317895e+01	1.757710e+01
2.270000e-06	1.915716e-06	3.201681e-10	1.348684e+01	2.135765e+01
2.280000e-06	1.959416e-06	3.732032e-10	1.379449e+01	2.513104e+01
2.290000e-06	2.002980e-06	4.261240e-10	1.410119e+01	2.889053e+01
2.300000e-06	2.046379e-06	4.806602e-10	1.440672e+01	3.262937e+01
2.310000e-06	2.089642e-06	5.368472e-10	1.471130e+01	3.634092e+01
2.320000e-06	2.132762e-06	5.919055e-10	1.501487e+01	4.001866e+01
2.330000e-06	2.175678e-06	6.467197e-10	1.531700e+01	4.365625e+01
2.340000e-06	2.218321e-06	7.004158e-10	1.561721e+01	4.724758e+01
2.350000e-06	2.260742e-06	7.510631e-10	1.591586e+01	5.078682e+01
2.360000e-06	2.302883e-06	7.982843e-10	1.621254e+01	5.426845e+01
2.370000e-06	2.344620e-06	8.446615e-10	1.650637e+01	5.768731e+01
2.380000e-06	2.385983e-06	8.929766e-10	1.679757e+01	6.103861e+01
2.390000e-06	2.427072e-06	9.431291e-10	1.708684e+01	6.431800e+01
2.400000e-06	2.467990e-06	9.900202e-10	1.737491e+01	6.752156e+01
2.410000e-06	2.508649e-06	1.032123e-09	1.766115e+01	7.064586e+01
2.420000e-06	2.549018e-06	1.072456e-09	1.794535e+01	7.368793e+01
2.430000e-06	2.589216e-06	1.112923e-09	1.822835e+01	7.664529e+01
2.440000e-06	2.629291e-06	1.153992e-09	1.851048e+01	7.951597e+01
2.450000e-06	2.669225e-06	1.191739e-09	1.879162e+01	8.229851e+01
2.460000e-06	2.709026e-06	1.227980e-09	1.907183e+01	8.499189e+01
2.470000e-06	2.748845e-06	1.265541e-09	1.935216e+01	8.759564e+01
2.480000e-06	2.788597e-06	1.302657e-09	1.963201e+01	9.010968e+01
2.490000e-06	2.828145e-06	1.338058e-09	1.991044e+01	9.253443e+01
2.500000e-06	2.867495e-06	1.372271e-09	2.018747e+01	9.487070e+01
2.510000e-06	2.906668e-06	1.406328e-09	2.046325e+01	9.711968e+01
2.520000e-06	2.945696e-06	1.438558e-09	2.073801e+01	9.928293e+01
2.530000e-06	2.984435e-06	1.467861e-09	2.101074e+01	1.013623e+02
2.540000e-06	3.022841e-06	1.496539e-09	2.128112e+01	1.033600e+02
2.550000e-06	3.061102e-06	1.526120e-09	2.155048e+01	1.052785e+02
2.560000e-06	3.099241e-06	1.557817e-09	2.181898e+01	1.071202e+02
2.570000e-06	3.137140e-06	1.586012e-09	2.208579e+01	1.088880e+02
2.580000e-06	3.174842e-06	1.608716e-09	2.235122e+01	1.105847e+02
2.590000e-06	3.212427e-06	1.630591e-09	2.261582e+01	1.122134e+02
2.600000e-06	3.249789e-06	1.653041e-09	2.287885e+01	1.137770e+02
2.610000e-06	3.286863e-06	1.674739e-09	2.313986e+01	1.152786e+02
2.620000e-06	3.323639e-06	1.696524e-09	2.339877e+01	1.167211e+02
2.630000e-06	3.360109e-06	1.719948e-09	2.365552e+01	1.181075e+02
2.640000e-06	3.396363e-06	1.743264e-09	2.391075e+01	1.194407e+02
2.650000e-06	3.432481e-06	1.763024e-09	2.416502e+01	1.207234e+02
2.660000e-06	3.468486e-06	1.779001e-09	2.441850e+01	1.219582e+02
2.670000e-06	3.504388e-06	1.793618e-09	2.467126e+01	1.231475e+02
2.680000e-06	3.540151e-06	1.810096e-09	2.492303e+01	1.242938e+02
2.690000e-06	3.575683e-06	1.825659e-09	2.517318e+01	1.253991e+02
2.700000e-06	3.610929e-06	1.838172e-09	2.542132e+01	1.264653e+02
2.710000e-06	3.645923e-06	1.853181e-09	2.566768e+01	1.274943e+02
2.720000e-06	3.680550e-06	1.872127e-09	2.591146e+01	1.284878e+02
2.730000e-06	3.714685e-06	1.889589e-09	2.615177e+01	1.294470e+02
2.740000e-06	3.748384e-06	1.902263e-09	2.638901e+01	1.303734e+02
2.750000e-06	3.781634e-06	1.913150e-09	2.662310e+01	1.312679e+02
2.760000e-06	3.814413e-06	1.926009e-09	2.685387e+01	1.321317e+02
2.770000e-06	3.846840e-06	1.938693e-09	2.708215e+01	1.329656e+02
2.780000e-06	3.879076e-06	1.947960e-09	2.730910e+01	1.337703e+02
2.790000e-06	3.911159e-06	1.957575e-09	2.753497e+01	1.345464e+02
2.800000e-06	3.943089e-06	1.970452e-09	2.775976e+01	1.352947e+02
2.810000e-06	3.974807e-06	1.984039e-09	2.798305e+01	1.360154e+02
2.820000e-06	4.006325e-06	1.993784e-09	2.820495e+01	1.367093e+02
2.830000e-06	4.037739e-06	1.998896e-09	2.842610e+01	1.373766e+02
2.840000e-06	4.068905e-06	2.005127e-09	2.864551e+01	1.380178e+02
2.850000e-06	4.099603e-06	2.015865e-09	2.886163e+01	1.386334e+02
2.860000e-06	4.129939e-06	2.027033e-09	2.907520e+01	1.392238e+02
2.870000e-06	4.160088e-06	2.036149e-09	2.928746e+01	1.397894e+02
2.880000e-06	4.189937e-06	2.044501e-09	2.949760e+01	1.403308e+02
2.890000e-06	4.219434e-06	2.052060e-09	2.970525e+01	1.408484e+02
2.900000e-06	4.248649e-06	2.056020e-09	2.991093e+01	1.413429e+02
