# Temperatura_=_-0.34
# Concentracion g/m^3_=_4090.0
# C_Vs_to_Am_M_A/Vsm_=_65563218390.804596
# pendiente_HvsI_1/m_=_3716.3
# ordenada_HvsI_A/m_=_1297.0
# frecuencia_Hz_=_135066.32372876993

Tiempo_(s)	Campo_(V.s)	Magnetizacion_(V.s)	Campo_(kA/m)	Magnetizacion_(A/m)
0.000000e+00	-5.421094e-06	-2.486451e-09	-3.841080e+01	-1.631487e+02
1.000000e-08	-5.421313e-06	-2.487759e-09	-3.841235e+01	-1.630476e+02
2.000000e-08	-5.421257e-06	-2.493099e-09	-3.841195e+01	-1.629499e+02
3.000000e-08	-5.420975e-06	-2.492862e-09	-3.840996e+01	-1.628574e+02
4.000000e-08	-5.420312e-06	-2.488530e-09	-3.840526e+01	-1.627719e+02
5.000000e-08	-5.419179e-06	-2.486102e-09	-3.839723e+01	-1.626952e+02
6.000000e-08	-5.417533e-06	-2.489813e-09	-3.838557e+01	-1.626289e+02
7.000000e-08	-5.415342e-06	-2.506026e-09	-3.837005e+01	-1.625744e+02
8.000000e-08	-5.412534e-06	-2.490523e-09	-3.835015e+01	-1.625331e+02
9.000000e-08	-5.409099e-06	-2.425153e-09	-3.832581e+01	-1.625062e+02
1.000000e-07	-5.405209e-06	-2.445931e-09	-3.829825e+01	-1.624945e+02
1.100000e-07	-5.400994e-06	-2.595590e-09	-3.826838e+01	-1.624987e+02
1.200000e-07	-5.396566e-06	-2.549479e-09	-3.823701e+01	-1.625192e+02
1.300000e-07	-5.391879e-06	-2.411905e-09	-3.820380e+01	-1.625563e+02
1.400000e-07	-5.386829e-06	-2.398655e-09	-3.816802e+01	-1.626097e+02
1.500000e-07	-5.381456e-06	-2.597695e-09	-3.812995e+01	-1.626790e+02
1.600000e-07	-5.375720e-06	-2.582792e-09	-3.808930e+01	-1.627637e+02
1.700000e-07	-5.369576e-06	-2.362600e-09	-3.804577e+01	-1.628627e+02
1.800000e-07	-5.363009e-06	-2.410198e-09	-3.799924e+01	-1.629749e+02
1.900000e-07	-5.356054e-06	-2.605926e-09	-3.794997e+01	-1.630988e+02
2.000000e-07	-5.348782e-06	-2.623568e-09	-3.789844e+01	-1.632328e+02
2.100000e-07	-5.341227e-06	-2.446611e-09	-3.784491e+01	-1.633750e+02
2.200000e-07	-5.333415e-06	-2.537678e-09	-3.778955e+01	-1.635235e+02
2.300000e-07	-5.325355e-06	-2.643442e-09	-3.773245e+01	-1.636762e+02
2.400000e-07	-5.316998e-06	-2.579559e-09	-3.767323e+01	-1.638307e+02
2.500000e-07	-5.308139e-06	-2.497988e-09	-3.761046e+01	-1.639849e+02
2.600000e-07	-5.298718e-06	-2.646475e-09	-3.754371e+01	-1.641365e+02
2.700000e-07	-5.288703e-06	-2.678480e-09	-3.747276e+01	-1.642832e+02
2.800000e-07	-5.278081e-06	-2.561630e-09	-3.739749e+01	-1.644227e+02
2.900000e-07	-5.266884e-06	-2.589342e-09	-3.731816e+01	-1.645530e+02
3.000000e-07	-5.255279e-06	-2.727387e-09	-3.723593e+01	-1.646721e+02
3.100000e-07	-5.243268e-06	-2.638223e-09	-3.715082e+01	-1.647781e+02
3.200000e-07	-5.230835e-06	-2.531278e-09	-3.706274e+01	-1.648694e+02
3.300000e-07	-5.218043e-06	-2.646101e-09	-3.697209e+01	-1.649444e+02
3.400000e-07	-5.204895e-06	-2.693825e-09	-3.687894e+01	-1.650020e+02
3.500000e-07	-5.191359e-06	-2.580109e-09	-3.678303e+01	-1.650412e+02
3.600000e-07	-5.177386e-06	-2.588542e-09	-3.668403e+01	-1.650612e+02
3.700000e-07	-5.162992e-06	-2.674529e-09	-3.658203e+01	-1.650616e+02
3.800000e-07	-5.148244e-06	-2.608869e-09	-3.647754e+01	-1.650420e+02
3.900000e-07	-5.132999e-06	-2.580118e-09	-3.636952e+01	-1.650026e+02
4.000000e-07	-5.117119e-06	-2.640819e-09	-3.625701e+01	-1.649435e+02
4.100000e-07	-5.100775e-06	-2.611332e-09	-3.614120e+01	-1.648653e+02
4.200000e-07	-5.084070e-06	-2.542000e-09	-3.602284e+01	-1.647687e+02
4.300000e-07	-5.067077e-06	-2.619607e-09	-3.590243e+01	-1.646545e+02
4.400000e-07	-5.049792e-06	-2.631519e-09	-3.577996e+01	-1.645238e+02
4.500000e-07	-5.032165e-06	-2.562496e-09	-3.565507e+01	-1.643777e+02
4.600000e-07	-5.014169e-06	-2.561505e-09	-3.552756e+01	-1.642177e+02
4.700000e-07	-4.995744e-06	-2.623510e-09	-3.539701e+01	-1.640450e+02
4.800000e-07	-4.976868e-06	-2.580022e-09	-3.526327e+01	-1.638610e+02
4.900000e-07	-4.957632e-06	-2.562174e-09	-3.512697e+01	-1.636673e+02
5.000000e-07	-4.938078e-06	-2.571353e-09	-3.498842e+01	-1.634653e+02
5.100000e-07	-4.918300e-06	-2.575018e-09	-3.484829e+01	-1.632563e+02
5.200000e-07	-4.898367e-06	-2.569490e-09	-3.470705e+01	-1.630416e+02
5.300000e-07	-4.878210e-06	-2.586274e-09	-3.456423e+01	-1.628226e+02
5.400000e-07	-4.857686e-06	-2.547439e-09	-3.441881e+01	-1.626003e+02
5.500000e-07	-4.836778e-06	-2.537840e-09	-3.427067e+01	-1.623758e+02
5.600000e-07	-4.815531e-06	-2.558810e-09	-3.412012e+01	-1.621499e+02
5.700000e-07	-4.794012e-06	-2.550488e-09	-3.396765e+01	-1.619233e+02
5.800000e-07	-4.772288e-06	-2.514572e-09	-3.381373e+01	-1.616965e+02
5.900000e-07	-4.750192e-06	-2.527643e-09	-3.365717e+01	-1.614700e+02
6.000000e-07	-4.727745e-06	-2.543387e-09	-3.349812e+01	-1.612440e+02
6.100000e-07	-4.705064e-06	-2.540246e-09	-3.333742e+01	-1.610185e+02
6.200000e-07	-4.682012e-06	-2.526633e-09	-3.317409e+01	-1.607934e+02
6.300000e-07	-4.658545e-06	-2.508210e-09	-3.300781e+01	-1.605686e+02
6.400000e-07	-4.634737e-06	-2.506321e-09	-3.283912e+01	-1.603436e+02
6.500000e-07	-4.610693e-06	-2.517249e-09	-3.266876e+01	-1.601181e+02
6.600000e-07	-4.586507e-06	-2.504754e-09	-3.249739e+01	-1.598915e+02
6.700000e-07	-4.562132e-06	-2.478708e-09	-3.232468e+01	-1.596632e+02
6.800000e-07	-4.537421e-06	-2.489527e-09	-3.214960e+01	-1.594326e+02
6.900000e-07	-4.512202e-06	-2.502201e-09	-3.197090e+01	-1.591989e+02
7.000000e-07	-4.486366e-06	-2.495555e-09	-3.178785e+01	-1.589615e+02
7.100000e-07	-4.459992e-06	-2.473291e-09	-3.160097e+01	-1.587197e+02
7.200000e-07	-4.433076e-06	-2.468815e-09	-3.141026e+01	-1.584729e+02
7.300000e-07	-4.405733e-06	-2.466506e-09	-3.121653e+01	-1.582206e+02
7.400000e-07	-4.378168e-06	-2.468042e-09	-3.102121e+01	-1.579620e+02
7.500000e-07	-4.350432e-06	-2.447160e-09	-3.082470e+01	-1.576969e+02
7.600000e-07	-4.322542e-06	-2.442660e-09	-3.062708e+01	-1.574249e+02
7.700000e-07	-4.294429e-06	-2.449576e-09	-3.042789e+01	-1.571456e+02
7.800000e-07	-4.266070e-06	-2.456554e-09	-3.022696e+01	-1.568590e+02
7.900000e-07	-4.237450e-06	-2.439381e-09	-3.002417e+01	-1.565650e+02
8.000000e-07	-4.208495e-06	-2.429752e-09	-2.981901e+01	-1.562636e+02
8.100000e-07	-4.179147e-06	-2.423795e-09	-2.961107e+01	-1.559549e+02
8.200000e-07	-4.149478e-06	-2.424910e-09	-2.940085e+01	-1.556393e+02
8.300000e-07	-4.119522e-06	-2.414761e-09	-2.918860e+01	-1.553170e+02
8.400000e-07	-4.089341e-06	-2.405309e-09	-2.897475e+01	-1.549884e+02
8.500000e-07	-4.058907e-06	-2.398552e-09	-2.875912e+01	-1.546539e+02
8.600000e-07	-4.028159e-06	-2.403333e-09	-2.854125e+01	-1.543141e+02
8.700000e-07	-3.997179e-06	-2.396228e-09	-2.832174e+01	-1.539695e+02
8.800000e-07	-3.965981e-06	-2.381062e-09	-2.810069e+01	-1.536207e+02
8.900000e-07	-3.934561e-06	-2.368040e-09	-2.787807e+01	-1.532682e+02
9.000000e-07	-3.902927e-06	-2.369163e-09	-2.765393e+01	-1.529126e+02
9.100000e-07	-3.871034e-06	-2.369264e-09	-2.742796e+01	-1.525543e+02
9.200000e-07	-3.838932e-06	-2.360559e-09	-2.720050e+01	-1.521940e+02
9.300000e-07	-3.806696e-06	-2.349916e-09	-2.697209e+01	-1.518319e+02
9.400000e-07	-3.774218e-06	-2.342418e-09	-2.674197e+01	-1.514686e+02
9.500000e-07	-3.741426e-06	-2.336815e-09	-2.650962e+01	-1.511043e+02
9.600000e-07	-3.708236e-06	-2.326828e-09	-2.627446e+01	-1.507392e+02
9.700000e-07	-3.674595e-06	-2.316448e-09	-2.603610e+01	-1.503735e+02
9.800000e-07	-3.640523e-06	-2.309222e-09	-2.579468e+01	-1.500073e+02
9.900000e-07	-3.606055e-06	-2.307056e-09	-2.555046e+01	-1.496406e+02
1.000000e-06	-3.571227e-06	-2.298195e-09	-2.530369e+01	-1.492733e+02
1.010000e-06	-3.536058e-06	-2.292048e-09	-2.505450e+01	-1.489052e+02
1.020000e-06	-3.500600e-06	-2.284509e-09	-2.480326e+01	-1.485360e+02
1.030000e-06	-3.464947e-06	-2.279519e-09	-2.455065e+01	-1.481656e+02
1.040000e-06	-3.429178e-06	-2.270944e-09	-2.429721e+01	-1.477935e+02
1.050000e-06	-3.393293e-06	-2.266229e-09	-2.404295e+01	-1.474193e+02
1.060000e-06	-3.357271e-06	-2.255665e-09	-2.378772e+01	-1.470425e+02
1.070000e-06	-3.321078e-06	-2.246962e-09	-2.353128e+01	-1.466628e+02
1.080000e-06	-3.284644e-06	-2.238577e-09	-2.327313e+01	-1.462797e+02
1.090000e-06	-3.247930e-06	-2.233484e-09	-2.301299e+01	-1.458925e+02
1.100000e-06	-3.210973e-06	-2.224857e-09	-2.275113e+01	-1.455009e+02
1.110000e-06	-3.173762e-06	-2.220112e-09	-2.248748e+01	-1.451044e+02
1.120000e-06	-3.136281e-06	-2.211958e-09	-2.222191e+01	-1.447025e+02
1.130000e-06	-3.098539e-06	-2.202316e-09	-2.195449e+01	-1.442948e+02
1.140000e-06	-3.060597e-06	-2.187831e-09	-2.168565e+01	-1.438809e+02
1.150000e-06	-3.022464e-06	-2.177207e-09	-2.141546e+01	-1.434605e+02
1.160000e-06	-2.984149e-06	-2.166497e-09	-2.114399e+01	-1.430333e+02
1.170000e-06	-2.945657e-06	-2.159222e-09	-2.087125e+01	-1.425989e+02
1.180000e-06	-2.907012e-06	-2.152959e-09	-2.059744e+01	-1.421572e+02
1.190000e-06	-2.868209e-06	-2.147241e-09	-2.032251e+01	-1.417081e+02
1.200000e-06	-2.829207e-06	-2.140637e-09	-2.004616e+01	-1.412513e+02
1.210000e-06	-2.789934e-06	-2.130586e-09	-1.976789e+01	-1.407867e+02
1.220000e-06	-2.750314e-06	-2.117830e-09	-1.948717e+01	-1.403144e+02
1.230000e-06	-2.710509e-06	-2.105441e-09	-1.920513e+01	-1.398341e+02
1.240000e-06	-2.670647e-06	-2.095222e-09	-1.892269e+01	-1.393460e+02
1.250000e-06	-2.630741e-06	-2.086730e-09	-1.863994e+01	-1.388498e+02
1.260000e-06	-2.590764e-06	-2.081603e-09	-1.835668e+01	-1.383458e+02
1.270000e-06	-2.550674e-06	-2.073142e-09	-1.807263e+01	-1.378337e+02
1.280000e-06	-2.510454e-06	-2.064573e-09	-1.778766e+01	-1.373135e+02
1.290000e-06	-2.470121e-06	-2.057753e-09	-1.750188e+01	-1.367852e+02
1.300000e-06	-2.429631e-06	-2.051430e-09	-1.721499e+01	-1.362487e+02
1.310000e-06	-2.388961e-06	-2.038921e-09	-1.692683e+01	-1.357038e+02
1.320000e-06	-2.348090e-06	-2.024867e-09	-1.663723e+01	-1.351504e+02
1.330000e-06	-2.306947e-06	-2.013612e-09	-1.634572e+01	-1.345884e+02
1.340000e-06	-2.265464e-06	-2.008689e-09	-1.605180e+01	-1.340173e+02
1.350000e-06	-2.223606e-06	-2.001323e-09	-1.575521e+01	-1.334371e+02
1.360000e-06	-2.181499e-06	-1.990960e-09	-1.545686e+01	-1.328474e+02
1.370000e-06	-2.139167e-06	-1.979002e-09	-1.515693e+01	-1.322479e+02
1.380000e-06	-2.096490e-06	-1.970049e-09	-1.485454e+01	-1.316381e+02
1.390000e-06	-2.053564e-06	-1.959116e-09	-1.455039e+01	-1.310177e+02
1.400000e-06	-2.010518e-06	-1.947324e-09	-1.424539e+01	-1.303863e+02
1.410000e-06	-1.967294e-06	-1.936643e-09	-1.393913e+01	-1.297434e+02
1.420000e-06	-1.923845e-06	-1.932091e-09	-1.363127e+01	-1.290886e+02
1.430000e-06	-1.880305e-06	-1.925637e-09	-1.332278e+01	-1.284215e+02
1.440000e-06	-1.836722e-06	-1.911456e-09	-1.301397e+01	-1.277415e+02
1.450000e-06	-1.793023e-06	-1.889199e-09	-1.270435e+01	-1.270483e+02
1.460000e-06	-1.749251e-06	-1.871752e-09	-1.239420e+01	-1.263414e+02
1.470000e-06	-1.705415e-06	-1.860868e-09	-1.208361e+01	-1.256203e+02
1.480000e-06	-1.661461e-06	-1.849255e-09	-1.177217e+01	-1.248848e+02
1.490000e-06	-1.617359e-06	-1.838863e-09	-1.145969e+01	-1.241344e+02
1.500000e-06	-1.573161e-06	-1.835902e-09	-1.114653e+01	-1.233687e+02
1.510000e-06	-1.528955e-06	-1.837219e-09	-1.083331e+01	-1.225875e+02
1.520000e-06	-1.484734e-06	-1.829381e-09	-1.051998e+01	-1.217904e+02
1.530000e-06	-1.440396e-06	-1.807824e-09	-1.020583e+01	-1.209770e+02
1.540000e-06	-1.395946e-06	-1.782639e-09	-9.890881e+00	-1.201473e+02
1.550000e-06	-1.351406e-06	-1.761744e-09	-9.575298e+00	-1.193007e+02
1.560000e-06	-1.306782e-06	-1.744051e-09	-9.259114e+00	-1.184372e+02
1.570000e-06	-1.262127e-06	-1.730048e-09	-8.942719e+00	-1.175563e+02
1.580000e-06	-1.217376e-06	-1.721515e-09	-8.625634e+00	-1.166578e+02
1.590000e-06	-1.172488e-06	-1.720954e-09	-8.307586e+00	-1.157414e+02
1.600000e-06	-1.127495e-06	-1.718334e-09	-7.988790e+00	-1.148066e+02
1.610000e-06	-1.082384e-06	-1.703261e-09	-7.669160e+00	-1.138531e+02
1.620000e-06	-1.037208e-06	-1.676792e-09	-7.349071e+00	-1.128804e+02
1.630000e-06	-9.920222e-07	-1.651825e-09	-7.028907e+00	-1.118879e+02
1.640000e-06	-9.467181e-07	-1.629682e-09	-6.707908e+00	-1.108752e+02
1.650000e-06	-9.013077e-07	-1.609477e-09	-6.386156e+00	-1.098414e+02
1.660000e-06	-8.559091e-07	-1.593769e-09	-6.064486e+00	-1.087859e+02
1.670000e-06	-8.105602e-07	-1.589170e-09	-5.743170e+00	-1.077078e+02
1.680000e-06	-7.651155e-07	-1.589237e-09	-5.421175e+00	-1.066062e+02
1.690000e-06	-7.195060e-07	-1.579529e-09	-5.098012e+00	-1.054800e+02
1.700000e-06	-6.738493e-07	-1.556204e-09	-4.774515e+00	-1.043281e+02
1.710000e-06	-6.281707e-07	-1.528789e-09	-4.450862e+00	-1.031494e+02
1.720000e-06	-5.824510e-07	-1.503319e-09	-4.126918e+00	-1.019425e+02
1.730000e-06	-5.366761e-07	-1.478820e-09	-3.802583e+00	-1.007062e+02
1.740000e-06	-4.908367e-07	-1.452754e-09	-3.477790e+00	-9.943889e+01
1.750000e-06	-4.449734e-07	-1.434133e-09	-3.152830e+00	-9.813926e+01
1.760000e-06	-3.990789e-07	-1.425869e-09	-2.827647e+00	-9.680575e+01
1.770000e-06	-3.531718e-07	-1.417418e-09	-2.502375e+00	-9.543682e+01
1.780000e-06	-3.072881e-07	-1.396611e-09	-2.177269e+00	-9.403093e+01
1.790000e-06	-2.613612e-07	-1.368135e-09	-1.851857e+00	-9.258652e+01
1.800000e-06	-2.153611e-07	-1.340680e-09	-1.525926e+00	-9.110206e+01
1.810000e-06	-1.693257e-07	-1.314389e-09	-1.199746e+00	-8.957607e+01
1.820000e-06	-1.233930e-07	-1.288466e-09	-8.742927e-01	-8.800708e+01
1.830000e-06	-7.755447e-08	-1.261782e-09	-5.495070e-01	-8.639372e+01
1.840000e-06	-3.170870e-08	-1.239460e-09	-2.246699e-01	-8.473468e+01
1.850000e-06	1.422787e-08	-1.220284e-09	1.008106e-01	-8.302874e+01
1.860000e-06	6.022769e-08	-1.197980e-09	4.267393e-01	-8.127481e+01
1.870000e-06	1.061696e-07	-1.169023e-09	7.522576e-01	-7.947188e+01
1.880000e-06	1.520846e-07	-1.137637e-09	1.077585e+00	-7.761908e+01
1.890000e-06	1.980541e-07	-1.107411e-09	1.403299e+00	-7.571569e+01
1.900000e-06	2.440280e-07	-1.075637e-09	1.729044e+00	-7.376109e+01
1.910000e-06	2.898934e-07	-1.040351e-09	2.054020e+00	-7.175484e+01
1.920000e-06	3.357251e-07	-1.006340e-09	2.378758e+00	-6.969660e+01
1.930000e-06	3.815891e-07	-9.764101e-10	2.703724e+00	-6.758621e+01
1.940000e-06	4.274297e-07	-9.489486e-10	3.028525e+00	-6.542362e+01
1.950000e-06	4.732695e-07	-9.181692e-10	3.353320e+00	-6.320893e+01
1.960000e-06	5.190480e-07	-8.851444e-10	3.677680e+00	-6.094239e+01
1.970000e-06	5.647067e-07	-8.525045e-10	4.001192e+00	-5.862433e+01
1.980000e-06	6.103587e-07	-8.175953e-10	4.324656e+00	-5.625524e+01
1.990000e-06	6.559959e-07	-7.781739e-10	4.648015e+00	-5.383570e+01
2.000000e-06	7.015098e-07	-7.384843e-10	4.970501e+00	-5.136639e+01
2.010000e-06	7.470043e-07	-7.015837e-10	5.292849e+00	-4.884811e+01
2.020000e-06	7.925240e-07	-6.650918e-10	5.615376e+00	-4.628170e+01
2.030000e-06	8.379642e-07	-6.259938e-10	5.937340e+00	-4.366814e+01
2.040000e-06	8.833051e-07	-5.869944e-10	6.258600e+00	-4.100843e+01
2.050000e-06	9.286158e-07	-5.489456e-10	6.579645e+00	-3.830367e+01
2.060000e-06	9.738970e-07	-5.093395e-10	6.900482e+00	-3.555502e+01
2.070000e-06	1.019118e-06	-4.667677e-10	7.220894e+00	-3.276369e+01
2.080000e-06	1.064280e-06	-4.231204e-10	7.540882e+00	-2.993095e+01
2.090000e-06	1.109268e-06	-3.817586e-10	7.859647e+00	-2.705815e+01
2.100000e-06	1.154135e-06	-3.405838e-10	8.177543e+00	-2.414668e+01
2.110000e-06	1.198936e-06	-2.991780e-10	8.494983e+00	-2.119801e+01
2.120000e-06	1.243673e-06	-2.586393e-10	8.811961e+00	-1.821368e+01
2.130000e-06	1.288391e-06	-2.193141e-10	9.128809e+00	-1.519529e+01
2.140000e-06	1.332968e-06	-1.747465e-10	9.444656e+00	-1.214453e+01
2.150000e-06	1.377340e-06	-1.219012e-10	9.759053e+00	-9.063197e+00
2.160000e-06	1.421699e-06	-6.724976e-11	1.007335e+01	-5.953160e+00
2.170000e-06	1.466062e-06	-1.905795e-11	1.038768e+01	-2.816410e+00
2.180000e-06	1.510322e-06	2.287079e-11	1.070129e+01	3.449547e-01
2.190000e-06	1.554465e-06	6.479870e-11	1.101406e+01	3.528712e+00
2.200000e-06	1.598528e-06	1.085638e-10	1.132626e+01	6.732514e+00
2.210000e-06	1.642562e-06	1.539712e-10	1.163826e+01	9.953879e+00
2.220000e-06	1.686492e-06	2.032679e-10	1.194953e+01	1.319019e+01
2.230000e-06	1.730367e-06	2.575681e-10	1.226040e+01	1.643868e+01
2.240000e-06	1.774250e-06	3.131117e-10	1.257133e+01	1.969647e+01
2.250000e-06	1.818027e-06	3.627503e-10	1.288151e+01	2.296052e+01
2.260000e-06	1.861669e-06	4.060627e-10	1.319073e+01	2.622767e+01
2.270000e-06	1.905246e-06	4.506680e-10	1.349950e+01	2.949464e+01
2.280000e-06	1.948644e-06	4.980454e-10	1.380698e+01	3.275803e+01
2.290000e-06	1.991890e-06	5.448214e-10	1.411341e+01	3.601435e+01
2.300000e-06	2.035017e-06	5.902825e-10	1.441898e+01	3.926002e+01
2.310000e-06	2.077874e-06	6.389711e-10	1.472264e+01	4.249139e+01
2.320000e-06	2.120476e-06	6.905771e-10	1.502449e+01	4.570478e+01
2.330000e-06	2.162846e-06	7.398514e-10	1.532470e+01	4.889648e+01
2.340000e-06	2.204937e-06	7.816023e-10	1.562293e+01	5.206279e+01
2.350000e-06	2.246722e-06	8.212060e-10	1.591900e+01	5.520003e+01
2.360000e-06	2.288179e-06	8.662643e-10	1.621274e+01	5.830457e+01
2.370000e-06	2.329362e-06	9.141145e-10	1.650454e+01	6.137288e+01
2.380000e-06	2.370333e-06	9.606353e-10	1.679483e+01	6.440152e+01
2.390000e-06	2.410994e-06	1.005569e-09	1.708294e+01	6.738721e+01
2.400000e-06	2.451392e-06	1.049807e-09	1.736917e+01	7.032682e+01
2.410000e-06	2.491675e-06	1.091593e-09	1.765460e+01	7.321740e+01
2.420000e-06	2.531816e-06	1.127292e-09	1.793901e+01	7.605621e+01
2.430000e-06	2.571805e-06	1.161095e-09	1.822235e+01	7.884077e+01
2.440000e-06	2.611705e-06	1.201163e-09	1.850506e+01	8.156881e+01
2.450000e-06	2.651541e-06	1.246080e-09	1.878732e+01	8.423836e+01
2.460000e-06	2.691306e-06	1.289084e-09	1.906907e+01	8.684769e+01
2.470000e-06	2.731001e-06	1.328056e-09	1.935032e+01	8.939538e+01
2.480000e-06	2.770532e-06	1.363650e-09	1.963042e+01	9.188029e+01
2.490000e-06	2.809778e-06	1.397260e-09	1.990849e+01	9.430157e+01
2.500000e-06	2.848815e-06	1.428448e-09	2.018509e+01	9.665867e+01
2.510000e-06	2.887645e-06	1.457080e-09	2.046022e+01	9.895130e+01
2.520000e-06	2.926228e-06	1.488057e-09	2.073359e+01	1.011795e+02
2.530000e-06	2.964627e-06	1.523429e-09	2.100567e+01	1.033434e+02
2.540000e-06	3.002849e-06	1.560672e-09	2.127648e+01	1.054436e+02
2.550000e-06	3.040892e-06	1.596322e-09	2.154604e+01	1.074808e+02
2.560000e-06	3.078756e-06	1.630439e-09	2.181432e+01	1.094559e+02
2.570000e-06	3.116421e-06	1.659047e-09	2.208119e+01	1.113701e+02
2.580000e-06	3.153893e-06	1.681367e-09	2.234670e+01	1.132245e+02
2.590000e-06	3.191146e-06	1.700391e-09	2.261065e+01	1.150206e+02
2.600000e-06	3.228139e-06	1.719023e-09	2.287276e+01	1.167599e+02
2.610000e-06	3.264918e-06	1.741625e-09	2.313336e+01	1.184440e+02
2.620000e-06	3.301504e-06	1.769437e-09	2.339259e+01	1.200744e+02
2.630000e-06	3.337881e-06	1.798771e-09	2.365033e+01	1.216530e+02
2.640000e-06	3.374029e-06	1.826927e-09	2.390646e+01	1.231813e+02
2.650000e-06	3.409999e-06	1.851676e-09	2.416132e+01	1.246610e+02
2.660000e-06	3.445830e-06	1.869808e-09	2.441520e+01	1.260938e+02
2.670000e-06	3.481512e-06	1.882613e-09	2.466802e+01	1.274813e+02
2.680000e-06	3.516988e-06	1.895476e-09	2.491938e+01	1.288250e+02
2.690000e-06	3.552216e-06	1.912084e-09	2.516899e+01	1.301264e+02
2.700000e-06	3.587187e-06	1.930638e-09	2.541677e+01	1.313869e+02
2.710000e-06	3.621729e-06	1.949338e-09	2.566152e+01	1.326077e+02
2.720000e-06	3.655913e-06	1.970448e-09	2.590373e+01	1.337901e+02
2.730000e-06	3.689764e-06	1.992947e-09	2.614358e+01	1.349353e+02
2.740000e-06	3.723126e-06	2.010478e-09	2.637996e+01	1.360443e+02
2.750000e-06	3.756081e-06	2.021958e-09	2.661346e+01	1.371180e+02
2.760000e-06	3.788646e-06	2.034753e-09	2.684420e+01	1.381574e+02
2.770000e-06	3.820911e-06	2.051044e-09	2.707281e+01	1.391632e+02
2.780000e-06	3.853048e-06	2.064634e-09	2.730052e+01	1.401363e+02
2.790000e-06	3.885038e-06	2.074132e-09	2.752718e+01	1.410774e+02
2.800000e-06	3.916791e-06	2.082314e-09	2.775216e+01	1.419872e+02
2.810000e-06	3.948334e-06	2.094465e-09	2.797566e+01	1.428663e+02
2.820000e-06	3.979675e-06	2.111102e-09	2.819772e+01	1.437154e+02
2.830000e-06	4.010751e-06	2.125401e-09	2.841791e+01	1.445352e+02
2.840000e-06	4.041487e-06	2.137249e-09	2.863568e+01	1.453263e+02
2.850000e-06	4.071832e-06	2.151413e-09	2.885069e+01	1.460894e+02
2.860000e-06	4.101884e-06	2.166724e-09	2.906363e+01	1.468252e+02
2.870000e-06	4.131724e-06	2.177204e-09	2.927505e+01	1.475343e+02
2.880000e-06	4.161340e-06	2.180064e-09	2.948490e+01	1.482176e+02
2.890000e-06	4.190743e-06	2.181523e-09	2.969323e+01	1.488758e+02
2.900000e-06	4.219907e-06	2.187457e-09	2.989987e+01	1.495096e+02
