# Temperatura_=_20.1
# Concentracion g/m^3_=_4090.0
# C_Vs_to_Am_M_A/Vsm_=_65563218390.804596
# pendiente_HvsI_1/m_=_3716.3
# ordenada_HvsI_A/m_=_1297.0
# frecuencia_Hz_=_135080.98000640035

Tiempo_(s)	Campo_(V.s)	Magnetizacion_(V.s)	Campo_(kA/m)	Magnetizacion_(A/m)
0.000000e+00	-5.397096e-06	-2.315305e-09	-3.838873e+01	-1.519646e+02
1.000000e-08	-5.397146e-06	-2.315197e-09	-3.838909e+01	-1.518220e+02
2.000000e-08	-5.396885e-06	-2.313760e-09	-3.838723e+01	-1.516812e+02
3.000000e-08	-5.396233e-06	-2.310474e-09	-3.838259e+01	-1.515444e+02
4.000000e-08	-5.395178e-06	-2.305775e-09	-3.837508e+01	-1.514138e+02
5.000000e-08	-5.393630e-06	-2.304779e-09	-3.836407e+01	-1.512913e+02
6.000000e-08	-5.391522e-06	-2.314888e-09	-3.834908e+01	-1.511790e+02
7.000000e-08	-5.388844e-06	-2.329192e-09	-3.833004e+01	-1.510786e+02
8.000000e-08	-5.385623e-06	-2.298022e-09	-3.830712e+01	-1.509919e+02
9.000000e-08	-5.381812e-06	-2.253511e-09	-3.828001e+01	-1.509202e+02
1.000000e-07	-5.377626e-06	-2.307345e-09	-3.825024e+01	-1.508648e+02
1.100000e-07	-5.373335e-06	-2.384410e-09	-3.821972e+01	-1.508265e+02
1.200000e-07	-5.368805e-06	-2.323596e-09	-3.818750e+01	-1.508059e+02
1.300000e-07	-5.363878e-06	-2.244471e-09	-3.815246e+01	-1.508034e+02
1.400000e-07	-5.358585e-06	-2.270089e-09	-3.811481e+01	-1.508190e+02
1.500000e-07	-5.352987e-06	-2.385042e-09	-3.807499e+01	-1.508524e+02
1.600000e-07	-5.346960e-06	-2.309693e-09	-3.803212e+01	-1.509028e+02
1.700000e-07	-5.340439e-06	-2.224194e-09	-3.798574e+01	-1.509693e+02
1.800000e-07	-5.333563e-06	-2.267998e-09	-3.793682e+01	-1.510507e+02
1.900000e-07	-5.326527e-06	-2.380205e-09	-3.788678e+01	-1.511454e+02
2.000000e-07	-5.319267e-06	-2.351827e-09	-3.783515e+01	-1.512516e+02
2.100000e-07	-5.311608e-06	-2.308319e-09	-3.778067e+01	-1.513672e+02
2.200000e-07	-5.303613e-06	-2.375431e-09	-3.772380e+01	-1.514902e+02
2.300000e-07	-5.295432e-06	-2.409396e-09	-3.766561e+01	-1.516179e+02
2.400000e-07	-5.286779e-06	-2.357250e-09	-3.760406e+01	-1.517481e+02
2.500000e-07	-5.277263e-06	-2.340549e-09	-3.753637e+01	-1.518782e+02
2.600000e-07	-5.267107e-06	-2.423944e-09	-3.746414e+01	-1.520054e+02
2.700000e-07	-5.256602e-06	-2.400158e-09	-3.738942e+01	-1.521274e+02
2.800000e-07	-5.245636e-06	-2.351356e-09	-3.731142e+01	-1.522416e+02
2.900000e-07	-5.234218e-06	-2.394705e-09	-3.723020e+01	-1.523457e+02
3.000000e-07	-5.222427e-06	-2.458995e-09	-3.714634e+01	-1.524373e+02
3.100000e-07	-5.210188e-06	-2.382558e-09	-3.705928e+01	-1.525145e+02
3.200000e-07	-5.197504e-06	-2.356369e-09	-3.696906e+01	-1.525753e+02
3.300000e-07	-5.184517e-06	-2.392517e-09	-3.687669e+01	-1.526183e+02
3.400000e-07	-5.171242e-06	-2.406925e-09	-3.678227e+01	-1.526420e+02
3.500000e-07	-5.157524e-06	-2.369242e-09	-3.668469e+01	-1.526455e+02
3.600000e-07	-5.143412e-06	-2.394833e-09	-3.658431e+01	-1.526279e+02
3.700000e-07	-5.128884e-06	-2.381250e-09	-3.648098e+01	-1.525889e+02
3.800000e-07	-5.113826e-06	-2.360469e-09	-3.637387e+01	-1.525284e+02
3.900000e-07	-5.098213e-06	-2.373192e-09	-3.626282e+01	-1.524464e+02
4.000000e-07	-5.082236e-06	-2.388221e-09	-3.614918e+01	-1.523435e+02
4.100000e-07	-5.065800e-06	-2.330413e-09	-3.603227e+01	-1.522204e+02
4.200000e-07	-5.048922e-06	-2.324594e-09	-3.591222e+01	-1.520779e+02
4.300000e-07	-5.031755e-06	-2.371346e-09	-3.579012e+01	-1.519174e+02
4.400000e-07	-5.014244e-06	-2.366658e-09	-3.566556e+01	-1.517402e+02
4.500000e-07	-4.996452e-06	-2.326351e-09	-3.553901e+01	-1.515477e+02
4.600000e-07	-4.978304e-06	-2.328712e-09	-3.540992e+01	-1.513418e+02
4.700000e-07	-4.959720e-06	-2.350544e-09	-3.527774e+01	-1.511240e+02
4.800000e-07	-4.940696e-06	-2.345784e-09	-3.514242e+01	-1.508961e+02
4.900000e-07	-4.921338e-06	-2.333676e-09	-3.500474e+01	-1.506600e+02
5.000000e-07	-4.901720e-06	-2.312127e-09	-3.486519e+01	-1.504173e+02
5.100000e-07	-4.881875e-06	-2.318750e-09	-3.472404e+01	-1.501698e+02
5.200000e-07	-4.861808e-06	-2.337688e-09	-3.458131e+01	-1.499190e+02
5.300000e-07	-4.841483e-06	-2.332207e-09	-3.443674e+01	-1.496664e+02
5.400000e-07	-4.820853e-06	-2.293863e-09	-3.429000e+01	-1.494132e+02
5.500000e-07	-4.799880e-06	-2.300970e-09	-3.414082e+01	-1.491607e+02
5.600000e-07	-4.778542e-06	-2.314074e-09	-3.398905e+01	-1.489097e+02
5.700000e-07	-4.756854e-06	-2.309339e-09	-3.383479e+01	-1.486610e+02
5.800000e-07	-4.734852e-06	-2.286772e-09	-3.367828e+01	-1.484151e+02
5.900000e-07	-4.712570e-06	-2.288308e-09	-3.351980e+01	-1.481723e+02
6.000000e-07	-4.689900e-06	-2.290105e-09	-3.335855e+01	-1.479327e+02
6.100000e-07	-4.666831e-06	-2.297270e-09	-3.319446e+01	-1.476962e+02
6.200000e-07	-4.643522e-06	-2.276594e-09	-3.302867e+01	-1.474626e+02
6.300000e-07	-4.619994e-06	-2.256832e-09	-3.286132e+01	-1.472314e+02
6.400000e-07	-4.596236e-06	-2.259735e-09	-3.269233e+01	-1.470020e+02
6.500000e-07	-4.572282e-06	-2.278917e-09	-3.252195e+01	-1.467737e+02
6.600000e-07	-4.548017e-06	-2.263152e-09	-3.234936e+01	-1.465456e+02
6.700000e-07	-4.523385e-06	-2.246599e-09	-3.217416e+01	-1.463168e+02
6.800000e-07	-4.498361e-06	-2.249035e-09	-3.199616e+01	-1.460865e+02
6.900000e-07	-4.472819e-06	-2.262846e-09	-3.181448e+01	-1.458536e+02
7.000000e-07	-4.446696e-06	-2.255076e-09	-3.162868e+01	-1.456171e+02
7.100000e-07	-4.420117e-06	-2.234759e-09	-3.143962e+01	-1.453762e+02
7.200000e-07	-4.393133e-06	-2.223405e-09	-3.124769e+01	-1.451299e+02
7.300000e-07	-4.365770e-06	-2.231777e-09	-3.105306e+01	-1.448774e+02
7.400000e-07	-4.338160e-06	-2.236526e-09	-3.085668e+01	-1.446182e+02
7.500000e-07	-4.310348e-06	-2.225046e-09	-3.065885e+01	-1.443515e+02
7.600000e-07	-4.282315e-06	-2.216596e-09	-3.045946e+01	-1.440769e+02
7.700000e-07	-4.254029e-06	-2.217955e-09	-3.025827e+01	-1.437941e+02
7.800000e-07	-4.225503e-06	-2.217744e-09	-3.005537e+01	-1.435030e+02
7.900000e-07	-4.196760e-06	-2.202995e-09	-2.985092e+01	-1.432035e+02
8.000000e-07	-4.167737e-06	-2.193035e-09	-2.964448e+01	-1.428956e+02
8.100000e-07	-4.138329e-06	-2.193997e-09	-2.943531e+01	-1.425797e+02
8.200000e-07	-4.108651e-06	-2.204762e-09	-2.922422e+01	-1.422560e+02
8.300000e-07	-4.078759e-06	-2.199960e-09	-2.901160e+01	-1.419251e+02
8.400000e-07	-4.048590e-06	-2.185667e-09	-2.879701e+01	-1.415874e+02
8.500000e-07	-4.018099e-06	-2.173779e-09	-2.858013e+01	-1.412436e+02
8.600000e-07	-3.987332e-06	-2.172572e-09	-2.836129e+01	-1.408944e+02
8.700000e-07	-3.956266e-06	-2.164590e-09	-2.814032e+01	-1.405405e+02
8.800000e-07	-3.924895e-06	-2.152997e-09	-2.791718e+01	-1.401826e+02
8.900000e-07	-3.893409e-06	-2.147454e-09	-2.769323e+01	-1.398213e+02
9.000000e-07	-3.861810e-06	-2.156958e-09	-2.746847e+01	-1.394575e+02
9.100000e-07	-3.829993e-06	-2.155095e-09	-2.724216e+01	-1.390917e+02
9.200000e-07	-3.797928e-06	-2.140878e-09	-2.701409e+01	-1.387244e+02
9.300000e-07	-3.765664e-06	-2.120547e-09	-2.678460e+01	-1.383561e+02
9.400000e-07	-3.733187e-06	-2.114857e-09	-2.655359e+01	-1.379873e+02
9.500000e-07	-3.700325e-06	-2.113964e-09	-2.631985e+01	-1.376182e+02
9.600000e-07	-3.667005e-06	-2.112348e-09	-2.608285e+01	-1.372489e+02
9.700000e-07	-3.633237e-06	-2.104999e-09	-2.584266e+01	-1.368795e+02
9.800000e-07	-3.599055e-06	-2.098764e-09	-2.559953e+01	-1.365099e+02
9.900000e-07	-3.564483e-06	-2.091841e-09	-2.535363e+01	-1.361399e+02
1.000000e-06	-3.529576e-06	-2.081949e-09	-2.510534e+01	-1.357692e+02
1.010000e-06	-3.494413e-06	-2.068731e-09	-2.485523e+01	-1.353974e+02
1.020000e-06	-3.458930e-06	-2.056049e-09	-2.460285e+01	-1.350240e+02
1.030000e-06	-3.423202e-06	-2.048880e-09	-2.434872e+01	-1.346484e+02
1.040000e-06	-3.387319e-06	-2.052281e-09	-2.409349e+01	-1.342700e+02
1.050000e-06	-3.351309e-06	-2.052780e-09	-2.383735e+01	-1.338880e+02
1.060000e-06	-3.315215e-06	-2.048202e-09	-2.358062e+01	-1.335018e+02
1.070000e-06	-3.278966e-06	-2.039489e-09	-2.332279e+01	-1.331106e+02
1.080000e-06	-3.242556e-06	-2.025943e-09	-2.306381e+01	-1.327138e+02
1.090000e-06	-3.205895e-06	-2.010937e-09	-2.280305e+01	-1.323105e+02
1.100000e-06	-3.168917e-06	-1.997545e-09	-2.254003e+01	-1.319002e+02
1.110000e-06	-3.131665e-06	-1.991376e-09	-2.227506e+01	-1.314822e+02
1.120000e-06	-3.094123e-06	-1.989922e-09	-2.200803e+01	-1.310560e+02
1.130000e-06	-3.056377e-06	-1.990432e-09	-2.173955e+01	-1.306213e+02
1.140000e-06	-3.018465e-06	-1.987319e-09	-2.146989e+01	-1.301775e+02
1.150000e-06	-2.980399e-06	-1.980069e-09	-2.119913e+01	-1.297244e+02
1.160000e-06	-2.942158e-06	-1.965658e-09	-2.092713e+01	-1.292619e+02
1.170000e-06	-2.903646e-06	-1.950997e-09	-2.065320e+01	-1.287898e+02
1.180000e-06	-2.864966e-06	-1.936308e-09	-2.037807e+01	-1.283083e+02
1.190000e-06	-2.826136e-06	-1.927240e-09	-2.010188e+01	-1.278174e+02
1.200000e-06	-2.787016e-06	-1.919897e-09	-1.982362e+01	-1.273172e+02
1.210000e-06	-2.747656e-06	-1.916261e-09	-1.954366e+01	-1.268081e+02
1.220000e-06	-2.708103e-06	-1.910836e-09	-1.926233e+01	-1.262904e+02
1.230000e-06	-2.668435e-06	-1.904413e-09	-1.898017e+01	-1.257645e+02
1.240000e-06	-2.628694e-06	-1.892260e-09	-1.869750e+01	-1.252306e+02
1.250000e-06	-2.588799e-06	-1.878137e-09	-1.841374e+01	-1.246893e+02
1.260000e-06	-2.548859e-06	-1.862841e-09	-1.812965e+01	-1.241409e+02
1.270000e-06	-2.508895e-06	-1.850577e-09	-1.784539e+01	-1.235857e+02
1.280000e-06	-2.468729e-06	-1.840971e-09	-1.755970e+01	-1.230243e+02
1.290000e-06	-2.428454e-06	-1.836414e-09	-1.727322e+01	-1.224567e+02
1.300000e-06	-2.388085e-06	-1.830643e-09	-1.698609e+01	-1.218832e+02
1.310000e-06	-2.347484e-06	-1.822399e-09	-1.669730e+01	-1.213040e+02
1.320000e-06	-2.306617e-06	-1.813111e-09	-1.640662e+01	-1.207191e+02
1.330000e-06	-2.265448e-06	-1.801559e-09	-1.611379e+01	-1.201285e+02
1.340000e-06	-2.224017e-06	-1.788744e-09	-1.581910e+01	-1.195320e+02
1.350000e-06	-2.182267e-06	-1.773320e-09	-1.552214e+01	-1.189293e+02
1.360000e-06	-2.140276e-06	-1.761149e-09	-1.522346e+01	-1.183200e+02
1.370000e-06	-2.098029e-06	-1.753451e-09	-1.492297e+01	-1.177037e+02
1.380000e-06	-2.055420e-06	-1.747909e-09	-1.461990e+01	-1.170798e+02
1.390000e-06	-2.012641e-06	-1.742389e-09	-1.431561e+01	-1.164476e+02
1.400000e-06	-1.969803e-06	-1.734711e-09	-1.401091e+01	-1.158064e+02
1.410000e-06	-1.926736e-06	-1.723735e-09	-1.370458e+01	-1.151553e+02
1.420000e-06	-1.883368e-06	-1.709345e-09	-1.339611e+01	-1.144934e+02
1.430000e-06	-1.839838e-06	-1.692412e-09	-1.308649e+01	-1.138197e+02
1.440000e-06	-1.796220e-06	-1.675333e-09	-1.277624e+01	-1.131333e+02
1.450000e-06	-1.752565e-06	-1.664701e-09	-1.246573e+01	-1.124333e+02
1.460000e-06	-1.708824e-06	-1.662555e-09	-1.215460e+01	-1.117184e+02
1.470000e-06	-1.664960e-06	-1.658113e-09	-1.184261e+01	-1.109879e+02
1.480000e-06	-1.621032e-06	-1.646500e-09	-1.153015e+01	-1.102406e+02
1.490000e-06	-1.577049e-06	-1.629019e-09	-1.121731e+01	-1.094756e+02
1.500000e-06	-1.533005e-06	-1.612614e-09	-1.090403e+01	-1.086921e+02
1.510000e-06	-1.488955e-06	-1.596616e-09	-1.059071e+01	-1.078891e+02
1.520000e-06	-1.444806e-06	-1.578472e-09	-1.027669e+01	-1.070658e+02
1.530000e-06	-1.400521e-06	-1.562649e-09	-9.961692e+00	-1.062216e+02
1.540000e-06	-1.356203e-06	-1.553217e-09	-9.646468e+00	-1.053556e+02
1.550000e-06	-1.311854e-06	-1.546322e-09	-9.331019e+00	-1.044674e+02
1.560000e-06	-1.267443e-06	-1.536727e-09	-9.015129e+00	-1.035562e+02
1.570000e-06	-1.222964e-06	-1.520588e-09	-8.698761e+00	-1.026216e+02
1.580000e-06	-1.178370e-06	-1.502954e-09	-8.381570e+00	-1.016631e+02
1.590000e-06	-1.133594e-06	-1.486719e-09	-8.063083e+00	-1.006802e+02
1.600000e-06	-1.088744e-06	-1.469496e-09	-7.744075e+00	-9.967249e+01
1.610000e-06	-1.043890e-06	-1.449035e-09	-7.425031e+00	-9.863952e+01
1.620000e-06	-9.990106e-07	-1.431598e-09	-7.105812e+00	-9.758085e+01
1.630000e-06	-9.540059e-07	-1.418922e-09	-6.785700e+00	-9.649601e+01
1.640000e-06	-9.088079e-07	-1.405197e-09	-6.464213e+00	-9.538448e+01
1.650000e-06	-8.635337e-07	-1.387111e-09	-6.142185e+00	-9.424571e+01
1.660000e-06	-8.181950e-07	-1.368437e-09	-5.819697e+00	-9.307909e+01
1.670000e-06	-7.727981e-07	-1.351194e-09	-5.496796e+00	-9.188390e+01
1.680000e-06	-7.273886e-07	-1.330503e-09	-5.173805e+00	-9.065938e+01
1.690000e-06	-6.819241e-07	-1.305365e-09	-4.850423e+00	-8.940466e+01
1.700000e-06	-6.363719e-07	-1.281424e-09	-4.526417e+00	-8.811876e+01
1.710000e-06	-5.907861e-07	-1.265630e-09	-4.202172e+00	-8.680063e+01
1.720000e-06	-5.451778e-07	-1.251680e-09	-3.877768e+00	-8.544910e+01
1.730000e-06	-4.995830e-07	-1.229840e-09	-3.553458e+00	-8.406292e+01
1.740000e-06	-4.539676e-07	-1.203690e-09	-3.229003e+00	-8.264075e+01
1.750000e-06	-4.082537e-07	-1.181036e-09	-2.903847e+00	-8.118118e+01
1.760000e-06	-3.625188e-07	-1.161617e-09	-2.578541e+00	-7.968272e+01
1.770000e-06	-3.167477e-07	-1.138207e-09	-2.252979e+00	-7.814386e+01
1.780000e-06	-2.709587e-07	-1.107875e-09	-1.927289e+00	-7.656304e+01
1.790000e-06	-2.251703e-07	-1.079761e-09	-1.601602e+00	-7.493870e+01
1.800000e-06	-1.793854e-07	-1.057832e-09	-1.275941e+00	-7.326928e+01
1.810000e-06	-1.335727e-07	-1.035309e-09	-9.500823e-01	-7.155329e+01
1.820000e-06	-8.778980e-08	-1.006811e-09	-6.244356e-01	-6.978927e+01
1.830000e-06	-4.200522e-08	-9.781960e-10	-2.987768e-01	-6.797586e+01
1.840000e-06	3.846111e-09	-9.517204e-10	2.735681e-02	-6.611182e+01
1.850000e-06	4.968926e-08	-9.246996e-10	3.534322e-01	-6.419601e+01
1.860000e-06	9.551231e-08	-8.933863e-10	6.793646e-01	-6.222750e+01
1.870000e-06	1.412779e-07	-8.589781e-10	1.004888e+00	-6.020551e+01
1.880000e-06	1.870296e-07	-8.268971e-10	1.330313e+00	-5.812945e+01
1.890000e-06	2.327824e-07	-7.951463e-10	1.655746e+00	-5.599898e+01
1.900000e-06	2.785116e-07	-7.601449e-10	1.981011e+00	-5.381396e+01
1.910000e-06	3.242331e-07	-7.256033e-10	2.306221e+00	-5.157452e+01
1.920000e-06	3.699482e-07	-6.944284e-10	2.631386e+00	-4.928102e+01
1.930000e-06	4.156120e-07	-6.647754e-10	2.956185e+00	-4.693408e+01
1.940000e-06	4.612551e-07	-6.313836e-10	3.280838e+00	-4.453457e+01
1.950000e-06	5.068939e-07	-5.944175e-10	3.605459e+00	-4.208364e+01
1.960000e-06	5.524977e-07	-5.581185e-10	3.929833e+00	-3.958267e+01
1.970000e-06	5.979928e-07	-5.213126e-10	4.253432e+00	-3.703326e+01
1.980000e-06	6.434615e-07	-4.800289e-10	4.576844e+00	-3.443726e+01
1.990000e-06	6.889202e-07	-4.361695e-10	4.900185e+00	-3.179673e+01
2.000000e-06	7.342942e-07	-3.959175e-10	5.222924e+00	-2.911392e+01
2.010000e-06	7.796400e-07	-3.598731e-10	5.545461e+00	-2.639125e+01
2.020000e-06	8.249981e-07	-3.250250e-10	5.868087e+00	-2.363129e+01
2.030000e-06	8.703459e-07	-2.883197e-10	6.190639e+00	-2.083674e+01
2.040000e-06	9.155073e-07	-2.494589e-10	6.511865e+00	-1.801043e+01
2.050000e-06	9.604854e-07	-2.097704e-10	6.831788e+00	-1.515525e+01
2.060000e-06	1.005407e-06	-1.672217e-10	7.151311e+00	-1.227414e+01
2.070000e-06	1.050228e-06	-1.217515e-10	7.470115e+00	-9.370104e+00
2.080000e-06	1.095008e-06	-7.871542e-11	7.788627e+00	-6.446151e+00
2.090000e-06	1.139808e-06	-3.508600e-11	8.107281e+00	-3.505283e+00
2.100000e-06	1.184449e-06	8.131764e-12	8.424810e+00	-5.504815e-01
2.110000e-06	1.228971e-06	5.026568e-11	8.741484e+00	2.415311e+00
2.120000e-06	1.273434e-06	8.972710e-11	9.057746e+00	5.389206e+00
2.130000e-06	1.317738e-06	1.270695e-10	9.372872e+00	8.368380e+00
2.140000e-06	1.361982e-06	1.693718e-10	9.687574e+00	1.135008e+01
2.150000e-06	1.406209e-06	2.192040e-10	1.000215e+01	1.433165e+01
2.160000e-06	1.450354e-06	2.711604e-10	1.031615e+01	1.731050e+01
2.170000e-06	1.494443e-06	3.201032e-10	1.062975e+01	2.028414e+01
2.180000e-06	1.538506e-06	3.640431e-10	1.094316e+01	2.325016e+01
2.190000e-06	1.582508e-06	4.028675e-10	1.125614e+01	2.620625e+01
2.200000e-06	1.626430e-06	4.378919e-10	1.156855e+01	2.915017e+01
2.210000e-06	1.670285e-06	4.735775e-10	1.188048e+01	3.207977e+01
2.220000e-06	1.714073e-06	5.139900e-10	1.219194e+01	3.499296e+01
2.230000e-06	1.757787e-06	5.600660e-10	1.250287e+01	3.788772e+01
2.240000e-06	1.801390e-06	6.092236e-10	1.281301e+01	4.076211e+01
2.250000e-06	1.844878e-06	6.569930e-10	1.312234e+01	4.361420e+01
2.260000e-06	1.888297e-06	7.017476e-10	1.343117e+01	4.644215e+01
2.270000e-06	1.931563e-06	7.408908e-10	1.373892e+01	4.924413e+01
2.280000e-06	1.974680e-06	7.736620e-10	1.404560e+01	5.201836e+01
2.290000e-06	2.017710e-06	8.041312e-10	1.435166e+01	5.476309e+01
2.300000e-06	2.060524e-06	8.401511e-10	1.465620e+01	5.747661e+01
2.310000e-06	2.103096e-06	8.810738e-10	1.495900e+01	6.015721e+01
2.320000e-06	2.145358e-06	9.235859e-10	1.525961e+01	6.280324e+01
2.330000e-06	2.187223e-06	9.660735e-10	1.555739e+01	6.541307e+01
2.340000e-06	2.228822e-06	1.006217e-09	1.585328e+01	6.798511e+01
2.350000e-06	2.270172e-06	1.042950e-09	1.614739e+01	7.051781e+01
2.360000e-06	2.311219e-06	1.076593e-09	1.643935e+01	7.300968e+01
2.370000e-06	2.352065e-06	1.106038e-09	1.672988e+01	7.545928e+01
2.380000e-06	2.392703e-06	1.135542e-09	1.701894e+01	7.786523e+01
2.390000e-06	2.433069e-06	1.168727e-09	1.730605e+01	8.022624e+01
2.400000e-06	2.473258e-06	1.204144e-09	1.759191e+01	8.254111e+01
2.410000e-06	2.513331e-06	1.239106e-09	1.787694e+01	8.480873e+01
2.420000e-06	2.553288e-06	1.273109e-09	1.816115e+01	8.702810e+01
2.430000e-06	2.593206e-06	1.306560e-09	1.844509e+01	8.919834e+01
2.440000e-06	2.633062e-06	1.336604e-09	1.872857e+01	9.131872e+01
2.450000e-06	2.672701e-06	1.362537e-09	1.901052e+01	9.338860e+01
2.460000e-06	2.712138e-06	1.388792e-09	1.929103e+01	9.540752e+01
2.470000e-06	2.751424e-06	1.418788e-09	1.957046e+01	9.737515e+01
2.480000e-06	2.790544e-06	1.450097e-09	1.984872e+01	9.929132e+01
2.490000e-06	2.829432e-06	1.478579e-09	2.012532e+01	1.011560e+02
2.500000e-06	2.868147e-06	1.504347e-09	2.040070e+01	1.029693e+02
2.510000e-06	2.906725e-06	1.530457e-09	2.067510e+01	1.047316e+02
2.520000e-06	2.945120e-06	1.558039e-09	2.094819e+01	1.064432e+02
2.530000e-06	2.983346e-06	1.583181e-09	2.122009e+01	1.081046e+02
2.540000e-06	3.021307e-06	1.605095e-09	2.149010e+01	1.097166e+02
2.550000e-06	3.059018e-06	1.628855e-09	2.175834e+01	1.112799e+02
2.560000e-06	3.096533e-06	1.653182e-09	2.202518e+01	1.127955e+02
2.570000e-06	3.133880e-06	1.673708e-09	2.229082e+01	1.142642e+02
2.580000e-06	3.170932e-06	1.690355e-09	2.255436e+01	1.156872e+02
2.590000e-06	3.207773e-06	1.707304e-09	2.281640e+01	1.170655e+02
2.600000e-06	3.244504e-06	1.727380e-09	2.307766e+01	1.184003e+02
2.610000e-06	3.280985e-06	1.748597e-09	2.333715e+01	1.196928e+02
2.620000e-06	3.317215e-06	1.767153e-09	2.359485e+01	1.209441e+02
2.630000e-06	3.353269e-06	1.783793e-09	2.385129e+01	1.221554e+02
2.640000e-06	3.389252e-06	1.801928e-09	2.410724e+01	1.233279e+02
2.650000e-06	3.425129e-06	1.820379e-09	2.436243e+01	1.244628e+02
2.660000e-06	3.460818e-06	1.834133e-09	2.461628e+01	1.255610e+02
2.670000e-06	3.496319e-06	1.845347e-09	2.486879e+01	1.266237e+02
2.680000e-06	3.531577e-06	1.858243e-09	2.511957e+01	1.276519e+02
2.690000e-06	3.566455e-06	1.871306e-09	2.536765e+01	1.286464e+02
2.700000e-06	3.600906e-06	1.884203e-09	2.561270e+01	1.296082e+02
2.710000e-06	3.634848e-06	1.897484e-09	2.585412e+01	1.305381e+02
2.720000e-06	3.668358e-06	1.915086e-09	2.609248e+01	1.314368e+02
2.730000e-06	3.701547e-06	1.933743e-09	2.632855e+01	1.323051e+02
2.740000e-06	3.734319e-06	1.945962e-09	2.656164e+01	1.331435e+02
2.750000e-06	3.766783e-06	1.952496e-09	2.679256e+01	1.339527e+02
2.760000e-06	3.799053e-06	1.957849e-09	2.702209e+01	1.347332e+02
2.770000e-06	3.831134e-06	1.965192e-09	2.725028e+01	1.354856e+02
2.780000e-06	3.863058e-06	1.975048e-09	2.747735e+01	1.362104e+02
2.790000e-06	3.894840e-06	1.985872e-09	2.770341e+01	1.369081e+02
2.800000e-06	3.926375e-06	1.997094e-09	2.792772e+01	1.375793e+02
2.810000e-06	3.957644e-06	2.009344e-09	2.815012e+01	1.382244e+02
2.820000e-06	3.988658e-06	2.019877e-09	2.837072e+01	1.388441e+02
2.830000e-06	4.019299e-06	2.027366e-09	2.858867e+01	1.394389e+02
2.840000e-06	4.049593e-06	2.034226e-09	2.880415e+01	1.400094e+02
2.850000e-06	4.079710e-06	2.043697e-09	2.901836e+01	1.405564e+02
2.860000e-06	4.109594e-06	2.053429e-09	2.923092e+01	1.410804e+02
2.870000e-06	4.139203e-06	2.060756e-09	2.944153e+01	1.415823e+02
2.880000e-06	4.168564e-06	2.066515e-09	2.965037e+01	1.420628e+02
2.890000e-06	4.197599e-06	2.073074e-09	2.985689e+01	1.425228e+02
2.900000e-06	4.226316e-06	2.080169e-09	3.006115e+01	1.429633e+02
