# Temperatura_=_-2.5
# Concentracion g/m^3_=_4090.0
# C_Vs_to_Am_M_A/Vsm_=_65563218390.804596
# pendiente_HvsI_1/m_=_3716.3
# ordenada_HvsI_A/m_=_1297.0
# frecuencia_Hz_=_135073.4304792392

Tiempo_(s)	Campo_(V.s)	Magnetizacion_(V.s)	Campo_(kA/m)	Magnetizacion_(A/m)
0.000000e+00	-5.440854e-06	-2.226018e-09	-3.840423e+01	-1.478058e+02
1.000000e-08	-5.440975e-06	-2.230565e-09	-3.840508e+01	-1.476991e+02
2.000000e-08	-5.440889e-06	-2.238589e-09	-3.840448e+01	-1.475941e+02
3.000000e-08	-5.440604e-06	-2.242040e-09	-3.840247e+01	-1.474926e+02
4.000000e-08	-5.440029e-06	-2.237391e-09	-3.839841e+01	-1.473961e+02
5.000000e-08	-5.438988e-06	-2.230990e-09	-3.839106e+01	-1.473065e+02
6.000000e-08	-5.437338e-06	-2.226989e-09	-3.837941e+01	-1.472251e+02
7.000000e-08	-5.435049e-06	-2.226174e-09	-3.836326e+01	-1.471535e+02
8.000000e-08	-5.432138e-06	-2.219750e-09	-3.834271e+01	-1.470929e+02
9.000000e-08	-5.428655e-06	-2.215377e-09	-3.831813e+01	-1.470443e+02
1.000000e-07	-5.424677e-06	-2.246406e-09	-3.829005e+01	-1.470086e+02
1.100000e-07	-5.420316e-06	-2.287289e-09	-3.825927e+01	-1.469865e+02
1.200000e-07	-5.415864e-06	-2.265373e-09	-3.822784e+01	-1.469784e+02
1.300000e-07	-5.411247e-06	-2.210755e-09	-3.819525e+01	-1.469845e+02
1.400000e-07	-5.406220e-06	-2.225300e-09	-3.815977e+01	-1.470048e+02
1.500000e-07	-5.400763e-06	-2.269091e-09	-3.812125e+01	-1.470389e+02
1.600000e-07	-5.394962e-06	-2.230435e-09	-3.808030e+01	-1.470863e+02
1.700000e-07	-5.388707e-06	-2.170817e-09	-3.803615e+01	-1.471463e+02
1.800000e-07	-5.381906e-06	-2.216882e-09	-3.798815e+01	-1.472178e+02
1.900000e-07	-5.374753e-06	-2.314402e-09	-3.793766e+01	-1.472999e+02
2.000000e-07	-5.367385e-06	-2.299710e-09	-3.788565e+01	-1.473910e+02
2.100000e-07	-5.359828e-06	-2.259302e-09	-3.783231e+01	-1.474897e+02
2.200000e-07	-5.351963e-06	-2.292436e-09	-3.777680e+01	-1.475945e+02
2.300000e-07	-5.343834e-06	-2.341141e-09	-3.771942e+01	-1.477036e+02
2.400000e-07	-5.335452e-06	-2.320059e-09	-3.766025e+01	-1.478152e+02
2.500000e-07	-5.326583e-06	-2.314750e-09	-3.759765e+01	-1.479276e+02
2.600000e-07	-5.317101e-06	-2.358180e-09	-3.753072e+01	-1.480389e+02
2.700000e-07	-5.307020e-06	-2.376249e-09	-3.745957e+01	-1.481474e+02
2.800000e-07	-5.296322e-06	-2.344912e-09	-3.738405e+01	-1.482512e+02
2.900000e-07	-5.285021e-06	-2.358019e-09	-3.730429e+01	-1.483488e+02
3.000000e-07	-5.273288e-06	-2.396978e-09	-3.722147e+01	-1.484386e+02
3.100000e-07	-5.261201e-06	-2.368488e-09	-3.713615e+01	-1.485192e+02
3.200000e-07	-5.248758e-06	-2.339891e-09	-3.704832e+01	-1.485893e+02
3.300000e-07	-5.235916e-06	-2.373971e-09	-3.695768e+01	-1.486477e+02
3.400000e-07	-5.222679e-06	-2.383710e-09	-3.686424e+01	-1.486936e+02
3.500000e-07	-5.209059e-06	-2.335361e-09	-3.676811e+01	-1.487263e+02
3.600000e-07	-5.195157e-06	-2.337510e-09	-3.666998e+01	-1.487450e+02
3.700000e-07	-5.180898e-06	-2.362104e-09	-3.656933e+01	-1.487496e+02
3.800000e-07	-5.166039e-06	-2.336917e-09	-3.646445e+01	-1.487397e+02
3.900000e-07	-5.150563e-06	-2.312276e-09	-3.635521e+01	-1.487155e+02
4.000000e-07	-5.134513e-06	-2.339724e-09	-3.624192e+01	-1.486771e+02
4.100000e-07	-5.117979e-06	-2.337416e-09	-3.612522e+01	-1.486250e+02
4.200000e-07	-5.101046e-06	-2.316501e-09	-3.600570e+01	-1.485595e+02
4.300000e-07	-5.083705e-06	-2.327200e-09	-3.588330e+01	-1.484814e+02
4.400000e-07	-5.066182e-06	-2.334386e-09	-3.575961e+01	-1.483915e+02
4.500000e-07	-5.048499e-06	-2.304155e-09	-3.563479e+01	-1.482906e+02
4.600000e-07	-5.030384e-06	-2.305844e-09	-3.550693e+01	-1.481798e+02
4.700000e-07	-5.011883e-06	-2.320378e-09	-3.537634e+01	-1.480599e+02
4.800000e-07	-4.992996e-06	-2.310950e-09	-3.524303e+01	-1.479320e+02
4.900000e-07	-4.973616e-06	-2.303364e-09	-3.510624e+01	-1.477973e+02
5.000000e-07	-4.953935e-06	-2.317833e-09	-3.496732e+01	-1.476568e+02
5.100000e-07	-4.934100e-06	-2.311140e-09	-3.482731e+01	-1.475114e+02
5.200000e-07	-4.914070e-06	-2.304204e-09	-3.468593e+01	-1.473621e+02
5.300000e-07	-4.893812e-06	-2.304530e-09	-3.454294e+01	-1.472100e+02
5.400000e-07	-4.873231e-06	-2.293673e-09	-3.439767e+01	-1.470557e+02
5.500000e-07	-4.852251e-06	-2.281539e-09	-3.424958e+01	-1.469001e+02
5.600000e-07	-4.830894e-06	-2.287129e-09	-3.409884e+01	-1.467438e+02
5.700000e-07	-4.809224e-06	-2.281569e-09	-3.394588e+01	-1.465873e+02
5.800000e-07	-4.787231e-06	-2.271277e-09	-3.379064e+01	-1.464311e+02
5.900000e-07	-4.764984e-06	-2.280041e-09	-3.363361e+01	-1.462754e+02
6.000000e-07	-4.742542e-06	-2.286358e-09	-3.347520e+01	-1.461204e+02
6.100000e-07	-4.719706e-06	-2.274898e-09	-3.331402e+01	-1.459663e+02
6.200000e-07	-4.696385e-06	-2.265558e-09	-3.314940e+01	-1.458130e+02
6.300000e-07	-4.672787e-06	-2.262829e-09	-3.298284e+01	-1.456604e+02
6.400000e-07	-4.648967e-06	-2.258302e-09	-3.281470e+01	-1.455082e+02
6.500000e-07	-4.624885e-06	-2.258614e-09	-3.264472e+01	-1.453562e+02
6.600000e-07	-4.600645e-06	-2.255268e-09	-3.247362e+01	-1.452040e+02
6.700000e-07	-4.576205e-06	-2.251060e-09	-3.230111e+01	-1.450512e+02
6.800000e-07	-4.551359e-06	-2.253930e-09	-3.212573e+01	-1.448973e+02
6.900000e-07	-4.525933e-06	-2.259044e-09	-3.194627e+01	-1.447418e+02
7.000000e-07	-4.499928e-06	-2.251341e-09	-3.176271e+01	-1.445843e+02
7.100000e-07	-4.473481e-06	-2.244443e-09	-3.157604e+01	-1.444241e+02
7.200000e-07	-4.446581e-06	-2.240849e-09	-3.138616e+01	-1.442609e+02
7.300000e-07	-4.419197e-06	-2.238062e-09	-3.119287e+01	-1.440941e+02
7.400000e-07	-4.391481e-06	-2.228916e-09	-3.099724e+01	-1.439233e+02
7.500000e-07	-4.363505e-06	-2.222579e-09	-3.079977e+01	-1.437481e+02
7.600000e-07	-4.335361e-06	-2.219695e-09	-3.060112e+01	-1.435682e+02
7.700000e-07	-4.307106e-06	-2.221983e-09	-3.040168e+01	-1.433833e+02
7.800000e-07	-4.278658e-06	-2.217772e-09	-3.020088e+01	-1.431931e+02
7.900000e-07	-4.249901e-06	-2.209316e-09	-2.999790e+01	-1.429977e+02
8.000000e-07	-4.220784e-06	-2.204190e-09	-2.979237e+01	-1.427969e+02
8.100000e-07	-4.191326e-06	-2.206836e-09	-2.958445e+01	-1.425906e+02
8.200000e-07	-4.161565e-06	-2.207072e-09	-2.937438e+01	-1.423791e+02
8.300000e-07	-4.131566e-06	-2.203343e-09	-2.916263e+01	-1.421625e+02
8.400000e-07	-4.101317e-06	-2.197965e-09	-2.894912e+01	-1.419410e+02
8.500000e-07	-4.070761e-06	-2.196782e-09	-2.873344e+01	-1.417149e+02
8.600000e-07	-4.039884e-06	-2.193629e-09	-2.851550e+01	-1.414845e+02
8.700000e-07	-4.008701e-06	-2.183776e-09	-2.829539e+01	-1.412503e+02
8.800000e-07	-3.977298e-06	-2.174220e-09	-2.807373e+01	-1.410127e+02
8.900000e-07	-3.945734e-06	-2.173358e-09	-2.785094e+01	-1.407721e+02
9.000000e-07	-3.913975e-06	-2.178743e-09	-2.762677e+01	-1.405291e+02
9.100000e-07	-3.882031e-06	-2.179418e-09	-2.740129e+01	-1.402841e+02
9.200000e-07	-3.849917e-06	-2.172535e-09	-2.717462e+01	-1.400376e+02
9.300000e-07	-3.817589e-06	-2.164218e-09	-2.694643e+01	-1.397902e+02
9.400000e-07	-3.785005e-06	-2.159627e-09	-2.671643e+01	-1.395422e+02
9.500000e-07	-3.752070e-06	-2.155542e-09	-2.648396e+01	-1.392942e+02
9.600000e-07	-3.718720e-06	-2.149073e-09	-2.624856e+01	-1.390464e+02
9.700000e-07	-3.685005e-06	-2.142730e-09	-2.601058e+01	-1.387994e+02
9.800000e-07	-3.650850e-06	-2.144588e-09	-2.576950e+01	-1.385533e+02
9.900000e-07	-3.616225e-06	-2.145983e-09	-2.552510e+01	-1.383084e+02
1.000000e-06	-3.581268e-06	-2.139326e-09	-2.527836e+01	-1.380648e+02
1.010000e-06	-3.545977e-06	-2.127699e-09	-2.502926e+01	-1.378227e+02
1.020000e-06	-3.510376e-06	-2.118422e-09	-2.477796e+01	-1.375821e+02
1.030000e-06	-3.474634e-06	-2.109893e-09	-2.452568e+01	-1.373429e+02
1.040000e-06	-3.438713e-06	-2.105021e-09	-2.427213e+01	-1.371049e+02
1.050000e-06	-3.402610e-06	-2.103778e-09	-2.401730e+01	-1.368681e+02
1.060000e-06	-3.366377e-06	-2.103433e-09	-2.376155e+01	-1.366320e+02
1.070000e-06	-3.329917e-06	-2.101403e-09	-2.350420e+01	-1.363963e+02
1.080000e-06	-3.293177e-06	-2.097290e-09	-2.324487e+01	-1.361607e+02
1.090000e-06	-3.256178e-06	-2.089044e-09	-2.298371e+01	-1.359245e+02
1.100000e-06	-3.219048e-06	-2.080937e-09	-2.272163e+01	-1.356873e+02
1.110000e-06	-3.181694e-06	-2.074185e-09	-2.245796e+01	-1.354484e+02
1.120000e-06	-3.144037e-06	-2.067585e-09	-2.219217e+01	-1.352073e+02
1.130000e-06	-3.106154e-06	-2.060964e-09	-2.192476e+01	-1.349631e+02
1.140000e-06	-3.068027e-06	-2.058207e-09	-2.165564e+01	-1.347154e+02
1.150000e-06	-3.029715e-06	-2.056087e-09	-2.138523e+01	-1.344632e+02
1.160000e-06	-2.991301e-06	-2.049662e-09	-2.111408e+01	-1.342059e+02
1.170000e-06	-2.952648e-06	-2.042261e-09	-2.084125e+01	-1.339427e+02
1.180000e-06	-2.913715e-06	-2.036877e-09	-2.056644e+01	-1.336730e+02
1.190000e-06	-2.874569e-06	-2.032575e-09	-2.029012e+01	-1.333961e+02
1.200000e-06	-2.835209e-06	-2.027512e-09	-2.001231e+01	-1.331113e+02
1.210000e-06	-2.795689e-06	-2.020962e-09	-1.973335e+01	-1.328180e+02
1.220000e-06	-2.755957e-06	-2.017326e-09	-1.945291e+01	-1.325156e+02
1.230000e-06	-2.716124e-06	-2.015163e-09	-1.917175e+01	-1.322036e+02
1.240000e-06	-2.676218e-06	-2.010218e-09	-1.889006e+01	-1.318816e+02
1.250000e-06	-2.636192e-06	-2.002798e-09	-1.860755e+01	-1.315492e+02
1.260000e-06	-2.596122e-06	-1.996775e-09	-1.832471e+01	-1.312061e+02
1.270000e-06	-2.555945e-06	-1.993627e-09	-1.804112e+01	-1.308521e+02
1.280000e-06	-2.515608e-06	-1.987911e-09	-1.775640e+01	-1.304869e+02
1.290000e-06	-2.475108e-06	-1.980403e-09	-1.747053e+01	-1.301106e+02
1.300000e-06	-2.434341e-06	-1.974923e-09	-1.718278e+01	-1.297231e+02
1.310000e-06	-2.393337e-06	-1.969460e-09	-1.689335e+01	-1.293245e+02
1.320000e-06	-2.352300e-06	-1.959302e-09	-1.660369e+01	-1.289149e+02
1.330000e-06	-2.311096e-06	-1.946351e-09	-1.631286e+01	-1.284947e+02
1.340000e-06	-2.269527e-06	-1.936517e-09	-1.601944e+01	-1.280640e+02
1.350000e-06	-2.227571e-06	-1.933813e-09	-1.572330e+01	-1.276231e+02
1.360000e-06	-2.185267e-06	-1.931392e-09	-1.542470e+01	-1.271725e+02
1.370000e-06	-2.142588e-06	-1.923902e-09	-1.512344e+01	-1.267126e+02
1.380000e-06	-2.099586e-06	-1.913346e-09	-1.481991e+01	-1.262437e+02
1.390000e-06	-2.056505e-06	-1.903532e-09	-1.451583e+01	-1.257663e+02
1.400000e-06	-2.013247e-06	-1.893605e-09	-1.421049e+01	-1.252808e+02
1.410000e-06	-1.969710e-06	-1.883327e-09	-1.390319e+01	-1.247877e+02
1.420000e-06	-1.926073e-06	-1.874111e-09	-1.359517e+01	-1.242874e+02
1.430000e-06	-1.882369e-06	-1.868396e-09	-1.328669e+01	-1.237801e+02
1.440000e-06	-1.838547e-06	-1.863257e-09	-1.297737e+01	-1.232663e+02
1.450000e-06	-1.794625e-06	-1.854813e-09	-1.266735e+01	-1.227461e+02
1.460000e-06	-1.750639e-06	-1.845373e-09	-1.235687e+01	-1.222197e+02
1.470000e-06	-1.706583e-06	-1.837128e-09	-1.204591e+01	-1.216871e+02
1.480000e-06	-1.662444e-06	-1.827030e-09	-1.173435e+01	-1.211485e+02
1.490000e-06	-1.618284e-06	-1.815182e-09	-1.142264e+01	-1.206036e+02
1.500000e-06	-1.574086e-06	-1.804092e-09	-1.111067e+01	-1.200523e+02
1.510000e-06	-1.529759e-06	-1.796189e-09	-1.079779e+01	-1.194942e+02
1.520000e-06	-1.485270e-06	-1.788739e-09	-1.048377e+01	-1.189289e+02
1.530000e-06	-1.440714e-06	-1.778955e-09	-1.016927e+01	-1.183558e+02
1.540000e-06	-1.396133e-06	-1.769367e-09	-9.854593e+00	-1.177743e+02
1.550000e-06	-1.351490e-06	-1.761136e-09	-9.539484e+00	-1.171835e+02
1.560000e-06	-1.306781e-06	-1.753992e-09	-9.223906e+00	-1.165827e+02
1.570000e-06	-1.261990e-06	-1.745096e-09	-8.907745e+00	-1.159709e+02
1.580000e-06	-1.217150e-06	-1.736106e-09	-8.591243e+00	-1.153469e+02
1.590000e-06	-1.172174e-06	-1.728293e-09	-8.273785e+00	-1.147097e+02
1.600000e-06	-1.127070e-06	-1.722197e-09	-7.955418e+00	-1.140581e+02
1.610000e-06	-1.081881e-06	-1.711926e-09	-7.636447e+00	-1.133907e+02
1.620000e-06	-1.036595e-06	-1.696050e-09	-7.316796e+00	-1.127064e+02
1.630000e-06	-9.912314e-07	-1.681341e-09	-6.996600e+00	-1.120036e+02
1.640000e-06	-9.457426e-07	-1.669494e-09	-6.675518e+00	-1.112812e+02
1.650000e-06	-9.001295e-07	-1.657175e-09	-6.353558e+00	-1.105376e+02
1.660000e-06	-8.544858e-07	-1.644377e-09	-6.031382e+00	-1.097716e+02
1.670000e-06	-8.087799e-07	-1.632776e-09	-5.708768e+00	-1.089818e+02
1.680000e-06	-7.630065e-07	-1.620677e-09	-5.385676e+00	-1.081669e+02
1.690000e-06	-7.172404e-07	-1.604937e-09	-5.062637e+00	-1.073256e+02
1.700000e-06	-6.714608e-07	-1.584782e-09	-4.739502e+00	-1.064567e+02
1.710000e-06	-6.256277e-07	-1.565472e-09	-4.415989e+00	-1.055589e+02
1.720000e-06	-5.797091e-07	-1.552013e-09	-4.091873e+00	-1.046311e+02
1.730000e-06	-5.337903e-07	-1.541366e-09	-3.767755e+00	-1.036723e+02
1.740000e-06	-4.878568e-07	-1.526860e-09	-3.443534e+00	-1.026813e+02
1.750000e-06	-4.418646e-07	-1.510420e-09	-3.118898e+00	-1.016571e+02
1.760000e-06	-3.958431e-07	-1.496023e-09	-2.794056e+00	-1.005989e+02
1.770000e-06	-3.498049e-07	-1.480376e-09	-2.469095e+00	-9.950553e+01
1.780000e-06	-3.037452e-07	-1.457839e-09	-2.143984e+00	-9.837622e+01
1.790000e-06	-2.576539e-07	-1.433250e-09	-1.818648e+00	-9.721001e+01
1.800000e-06	-2.115577e-07	-1.413791e-09	-1.493279e+00	-9.600599e+01
1.810000e-06	-1.654977e-07	-1.398336e-09	-1.168165e+00	-9.476321e+01
1.820000e-06	-1.194246e-07	-1.380364e-09	-8.429578e-01	-9.348071e+01
1.830000e-06	-7.334171e-08	-1.357346e-09	-5.176820e-01	-9.215747e+01
1.840000e-06	-2.730598e-08	-1.333114e-09	-1.927391e-01	-9.079242e+01
1.850000e-06	1.869480e-08	-1.311270e-09	1.319572e-01	-8.938438e+01
1.860000e-06	6.470992e-08	-1.289553e-09	4.567546e-01	-8.793213e+01
1.870000e-06	1.108231e-07	-1.262694e-09	7.822443e-01	-8.643431e+01
1.880000e-06	1.569090e-07	-1.234856e-09	1.107541e+00	-8.488949e+01
1.890000e-06	2.029991e-07	-1.212635e-09	1.432868e+00	-8.329610e+01
1.900000e-06	2.491766e-07	-1.191373e-09	1.758812e+00	-8.165248e+01
1.910000e-06	2.953460e-07	-1.165369e-09	2.084698e+00	-7.995682e+01
1.920000e-06	3.414787e-07	-1.136226e-09	2.410325e+00	-7.820723e+01
1.930000e-06	3.875548e-07	-1.108617e-09	2.735553e+00	-7.640172e+01
1.940000e-06	4.335859e-07	-1.083870e-09	3.060463e+00	-7.453820e+01
1.950000e-06	4.795663e-07	-1.057423e-09	3.385016e+00	-7.261452e+01
1.960000e-06	5.254982e-07	-1.028013e-09	3.709226e+00	-7.062847e+01
1.970000e-06	5.713214e-07	-9.980611e-10	4.032668e+00	-6.857782e+01
1.980000e-06	6.171285e-07	-9.690142e-10	4.355997e+00	-6.646035e+01
1.990000e-06	6.629890e-07	-9.388035e-10	4.679704e+00	-6.427387e+01
2.000000e-06	7.088039e-07	-9.057226e-10	5.003088e+00	-6.201628e+01
2.010000e-06	7.545238e-07	-8.711807e-10	5.325802e+00	-5.968556e+01
2.020000e-06	8.001397e-07	-8.364555e-10	5.647781e+00	-5.727987e+01
2.030000e-06	8.457154e-07	-8.022009e-10	5.969476e+00	-5.479757e+01
2.040000e-06	8.912835e-07	-7.682665e-10	6.291119e+00	-5.223723e+01
2.050000e-06	9.368020e-07	-7.315489e-10	6.612411e+00	-4.959773e+01
2.060000e-06	9.822367e-07	-6.909654e-10	6.933112e+00	-4.687825e+01
2.070000e-06	1.027634e-06	-6.487474e-10	7.253551e+00	-4.407835e+01
2.080000e-06	1.072905e-06	-6.064667e-10	7.573095e+00	-4.119798e+01
2.090000e-06	1.118046e-06	-5.626485e-10	7.891720e+00	-3.823754e+01
2.100000e-06	1.163106e-06	-5.183368e-10	8.209774e+00	-3.519789e+01
2.110000e-06	1.207983e-06	-4.752095e-10	8.526537e+00	-3.208039e+01
2.120000e-06	1.252767e-06	-4.311377e-10	8.842647e+00	-2.888691e+01
2.130000e-06	1.297554e-06	-3.860420e-10	9.158774e+00	-2.561986e+01
2.140000e-06	1.342301e-06	-3.383071e-10	9.474625e+00	-2.228219e+01
2.150000e-06	1.386989e-06	-2.864385e-10	9.790051e+00	-1.887739e+01
2.160000e-06	1.431520e-06	-2.324586e-10	1.010438e+01	-1.540949e+01
2.170000e-06	1.475913e-06	-1.787130e-10	1.041772e+01	-1.188303e+01
2.180000e-06	1.520232e-06	-1.240498e-10	1.073055e+01	-8.303089e+00
2.190000e-06	1.564475e-06	-6.933244e-11	1.104284e+01	-4.675195e+00
2.200000e-06	1.608675e-06	-1.684857e-11	1.135482e+01	-1.005336e+00
2.210000e-06	1.652794e-06	3.616235e-11	1.166624e+01	2.700103e+00
2.220000e-06	1.696828e-06	9.132860e-11	1.197705e+01	6.434377e+00
2.230000e-06	1.740826e-06	1.485207e-10	1.228761e+01	1.019043e+01
2.240000e-06	1.784785e-06	2.079970e-10	1.259789e+01	1.396098e+01
2.250000e-06	1.828641e-06	2.657364e-10	1.290745e+01	1.773854e+01
2.260000e-06	1.872447e-06	3.200000e-10	1.321665e+01	2.151550e+01
2.270000e-06	1.916195e-06	3.760855e-10	1.352545e+01	2.528422e+01
2.280000e-06	1.959756e-06	4.354610e-10	1.383292e+01	2.903706e+01
2.290000e-06	2.003131e-06	4.928689e-10	1.413908e+01	3.276647e+01
2.300000e-06	2.046392e-06	5.467182e-10	1.444444e+01	3.646504e+01
2.310000e-06	2.089450e-06	6.005819e-10	1.474837e+01	4.012560e+01
2.320000e-06	2.132246e-06	6.552938e-10	1.505044e+01	4.374126e+01
2.330000e-06	2.174774e-06	7.081566e-10	1.535063e+01	4.730546e+01
2.340000e-06	2.216996e-06	7.576691e-10	1.564865e+01	5.081204e+01
2.350000e-06	2.258942e-06	8.058382e-10	1.594472e+01	5.425531e+01
2.360000e-06	2.300663e-06	8.552246e-10	1.623922e+01	5.763004e+01
2.370000e-06	2.342172e-06	9.065702e-10	1.653221e+01	6.093154e+01
2.380000e-06	2.383409e-06	9.572047e-10	1.682328e+01	6.415568e+01
2.390000e-06	2.424347e-06	1.006156e-09	1.711224e+01	6.729890e+01
2.400000e-06	2.465034e-06	1.051627e-09	1.739942e+01	7.035823e+01
2.410000e-06	2.505471e-06	1.092777e-09	1.768485e+01	7.333131e+01
2.420000e-06	2.545705e-06	1.129166e-09	1.796884e+01	7.621634e+01
2.430000e-06	2.585892e-06	1.162897e-09	1.825250e+01	7.901212e+01
2.440000e-06	2.626004e-06	1.199649e-09	1.853563e+01	8.171802e+01
2.450000e-06	2.666011e-06	1.239132e-09	1.881802e+01	8.433393e+01
2.460000e-06	2.705957e-06	1.278222e-09	1.909998e+01	8.686025e+01
2.470000e-06	2.745779e-06	1.315221e-09	1.938107e+01	8.929786e+01
2.480000e-06	2.785482e-06	1.350650e-09	1.966130e+01	9.164805e+01
2.490000e-06	2.824998e-06	1.385662e-09	1.994023e+01	9.391248e+01
2.500000e-06	2.864248e-06	1.416832e-09	2.021727e+01	9.609318e+01
2.510000e-06	2.903276e-06	1.442954e-09	2.049276e+01	9.819241e+01
2.520000e-06	2.942089e-06	1.469015e-09	2.076671e+01	1.002127e+02
2.530000e-06	2.980646e-06	1.499993e-09	2.103887e+01	1.021567e+02
2.540000e-06	3.018954e-06	1.532972e-09	2.130927e+01	1.040272e+02
2.550000e-06	3.057092e-06	1.560940e-09	2.157846e+01	1.058271e+02
2.560000e-06	3.095076e-06	1.585186e-09	2.184657e+01	1.075593e+02
2.570000e-06	3.132916e-06	1.609037e-09	2.211366e+01	1.092267e+02
2.580000e-06	3.170562e-06	1.631913e-09	2.237939e+01	1.108320e+02
2.590000e-06	3.207933e-06	1.651728e-09	2.264318e+01	1.123781e+02
2.600000e-06	3.245056e-06	1.670301e-09	2.290521e+01	1.138673e+02
2.610000e-06	3.281900e-06	1.692404e-09	2.316527e+01	1.153023e+02
2.620000e-06	3.318481e-06	1.717338e-09	2.342347e+01	1.166853e+02
2.630000e-06	3.354871e-06	1.738868e-09	2.368034e+01	1.180182e+02
2.640000e-06	3.391096e-06	1.754255e-09	2.393603e+01	1.193031e+02
2.650000e-06	3.427199e-06	1.766244e-09	2.419086e+01	1.205416e+02
2.660000e-06	3.463198e-06	1.778167e-09	2.444496e+01	1.217352e+02
2.670000e-06	3.499063e-06	1.792096e-09	2.469811e+01	1.228852e+02
2.680000e-06	3.534729e-06	1.808667e-09	2.494986e+01	1.239928e+02
2.690000e-06	3.570164e-06	1.828396e-09	2.519998e+01	1.250590e+02
2.700000e-06	3.605266e-06	1.847745e-09	2.544774e+01	1.260846e+02
2.710000e-06	3.639999e-06	1.864240e-09	2.569291e+01	1.270705e+02
2.720000e-06	3.674303e-06	1.874473e-09	2.593504e+01	1.280171e+02
2.730000e-06	3.708069e-06	1.879743e-09	2.617338e+01	1.289253e+02
2.740000e-06	3.741369e-06	1.886076e-09	2.640843e+01	1.297956e+02
2.750000e-06	3.774228e-06	1.893515e-09	2.664036e+01	1.306285e+02
2.760000e-06	3.806739e-06	1.904669e-09	2.686984e+01	1.314246e+02
2.770000e-06	3.839030e-06	1.920301e-09	2.709777e+01	1.321846e+02
2.780000e-06	3.871128e-06	1.938818e-09	2.732433e+01	1.329092e+02
2.790000e-06	3.903123e-06	1.954688e-09	2.755017e+01	1.335991e+02
2.800000e-06	3.935010e-06	1.962027e-09	2.777524e+01	1.342553e+02
2.810000e-06	3.966690e-06	1.962263e-09	2.799886e+01	1.348786e+02
2.820000e-06	3.998143e-06	1.960800e-09	2.822086e+01	1.354702e+02
2.830000e-06	4.029258e-06	1.960532e-09	2.844049e+01	1.360312e+02
2.840000e-06	4.060011e-06	1.965117e-09	2.865756e+01	1.365630e+02
2.850000e-06	4.090480e-06	1.975949e-09	2.887262e+01	1.370669e+02
2.860000e-06	4.120698e-06	1.993401e-09	2.908592e+01	1.375444e+02
2.870000e-06	4.150691e-06	2.011761e-09	2.929762e+01	1.379971e+02
2.880000e-06	4.180435e-06	2.020921e-09	2.950758e+01	1.384267e+02
2.890000e-06	4.209910e-06	2.018571e-09	2.971562e+01	1.388348e+02
2.900000e-06	4.239155e-06	2.012124e-09	2.992205e+01	1.392231e+02
