# Temperatura_=_11.51
# Concentracion g/m^3_=_4090.0
# C_Vs_to_Am_M_A/Vsm_=_65563218390.804596
# pendiente_HvsI_1/m_=_3716.3
# ordenada_HvsI_A/m_=_1297.0
# frecuencia_Hz_=_135068.9052174058

Tiempo_(s)	Campo_(V.s)	Magnetizacion_(V.s)	Campo_(kA/m)	Magnetizacion_(A/m)
0.000000e+00	-5.400656e-06	-2.459578e-09	-3.839998e+01	-1.596192e+02
1.000000e-08	-5.400745e-06	-2.456972e-09	-3.840062e+01	-1.595357e+02
2.000000e-08	-5.400640e-06	-2.455432e-09	-3.839987e+01	-1.594523e+02
3.000000e-08	-5.400288e-06	-2.455340e-09	-3.839737e+01	-1.593705e+02
4.000000e-08	-5.399582e-06	-2.453750e-09	-3.839234e+01	-1.592914e+02
5.000000e-08	-5.398295e-06	-2.450296e-09	-3.838319e+01	-1.592162e+02
6.000000e-08	-5.396443e-06	-2.451463e-09	-3.837003e+01	-1.591462e+02
7.000000e-08	-5.394111e-06	-2.460140e-09	-3.835344e+01	-1.590822e+02
8.000000e-08	-5.391152e-06	-2.439179e-09	-3.833240e+01	-1.590252e+02
9.000000e-08	-5.387566e-06	-2.394724e-09	-3.830691e+01	-1.589759e+02
1.000000e-07	-5.383568e-06	-2.441497e-09	-3.827848e+01	-1.589349e+02
1.100000e-07	-5.379304e-06	-2.553030e-09	-3.824816e+01	-1.589026e+02
1.200000e-07	-5.374819e-06	-2.519383e-09	-3.821627e+01	-1.588792e+02
1.300000e-07	-5.370052e-06	-2.365688e-09	-3.818238e+01	-1.588648e+02
1.400000e-07	-5.364913e-06	-2.391501e-09	-3.814584e+01	-1.588591e+02
1.500000e-07	-5.359446e-06	-2.539147e-09	-3.810696e+01	-1.588619e+02
1.600000e-07	-5.353666e-06	-2.503355e-09	-3.806587e+01	-1.588726e+02
1.700000e-07	-5.347457e-06	-2.312615e-09	-3.802172e+01	-1.588905e+02
1.800000e-07	-5.340827e-06	-2.369320e-09	-3.797458e+01	-1.589147e+02
1.900000e-07	-5.333926e-06	-2.578167e-09	-3.792551e+01	-1.589442e+02
2.000000e-07	-5.326806e-06	-2.549248e-09	-3.787489e+01	-1.589778e+02
2.100000e-07	-5.319368e-06	-2.411390e-09	-3.782201e+01	-1.590142e+02
2.200000e-07	-5.311618e-06	-2.462890e-09	-3.776690e+01	-1.590521e+02
2.300000e-07	-5.303623e-06	-2.581323e-09	-3.771005e+01	-1.590901e+02
2.400000e-07	-5.295187e-06	-2.485360e-09	-3.765007e+01	-1.591267e+02
2.500000e-07	-5.286189e-06	-2.415176e-09	-3.758609e+01	-1.591604e+02
2.600000e-07	-5.276686e-06	-2.514096e-09	-3.751853e+01	-1.591898e+02
2.700000e-07	-5.266666e-06	-2.555164e-09	-3.744728e+01	-1.592135e+02
2.800000e-07	-5.255956e-06	-2.434681e-09	-3.737113e+01	-1.592300e+02
2.900000e-07	-5.244681e-06	-2.458179e-09	-3.729096e+01	-1.592383e+02
3.000000e-07	-5.233142e-06	-2.563462e-09	-3.720891e+01	-1.592370e+02
3.100000e-07	-5.221224e-06	-2.479723e-09	-3.712418e+01	-1.592251e+02
3.200000e-07	-5.208815e-06	-2.375104e-09	-3.703594e+01	-1.592018e+02
3.300000e-07	-5.196025e-06	-2.484498e-09	-3.694500e+01	-1.591663e+02
3.400000e-07	-5.182862e-06	-2.546006e-09	-3.685141e+01	-1.591181e+02
3.500000e-07	-5.169284e-06	-2.437610e-09	-3.675487e+01	-1.590567e+02
3.600000e-07	-5.155417e-06	-2.425990e-09	-3.665627e+01	-1.589819e+02
3.700000e-07	-5.141165e-06	-2.502830e-09	-3.655494e+01	-1.588936e+02
3.800000e-07	-5.126365e-06	-2.458237e-09	-3.644970e+01	-1.587921e+02
3.900000e-07	-5.111005e-06	-2.410995e-09	-3.634049e+01	-1.586774e+02
4.000000e-07	-5.095182e-06	-2.456565e-09	-3.622799e+01	-1.585501e+02
4.100000e-07	-5.078857e-06	-2.440055e-09	-3.611191e+01	-1.584107e+02
4.200000e-07	-5.061979e-06	-2.397949e-09	-3.599191e+01	-1.582599e+02
4.300000e-07	-5.044894e-06	-2.453304e-09	-3.587043e+01	-1.580984e+02
4.400000e-07	-5.027573e-06	-2.476544e-09	-3.574727e+01	-1.579271e+02
4.500000e-07	-5.009865e-06	-2.399901e-09	-3.562136e+01	-1.577469e+02
4.600000e-07	-4.991900e-06	-2.400288e-09	-3.549362e+01	-1.575587e+02
4.700000e-07	-4.973602e-06	-2.447302e-09	-3.536352e+01	-1.573636e+02
4.800000e-07	-4.954875e-06	-2.427659e-09	-3.523037e+01	-1.571624e+02
4.900000e-07	-4.935763e-06	-2.387470e-09	-3.509448e+01	-1.569562e+02
5.000000e-07	-4.916333e-06	-2.405272e-09	-3.495632e+01	-1.567459e+02
5.100000e-07	-4.896590e-06	-2.412378e-09	-3.481595e+01	-1.565322e+02
5.200000e-07	-4.876585e-06	-2.416932e-09	-3.467370e+01	-1.563159e+02
5.300000e-07	-4.856364e-06	-2.408651e-09	-3.452993e+01	-1.560978e+02
5.400000e-07	-4.835849e-06	-2.383355e-09	-3.438407e+01	-1.558784e+02
5.500000e-07	-4.814960e-06	-2.373622e-09	-3.423554e+01	-1.556581e+02
5.600000e-07	-4.793727e-06	-2.401063e-09	-3.408456e+01	-1.554374e+02
5.700000e-07	-4.772248e-06	-2.388972e-09	-3.393185e+01	-1.552164e+02
5.800000e-07	-4.750460e-06	-2.364937e-09	-3.377692e+01	-1.549952e+02
5.900000e-07	-4.728291e-06	-2.369345e-09	-3.361930e+01	-1.547739e+02
6.000000e-07	-4.705869e-06	-2.382302e-09	-3.345988e+01	-1.545523e+02
6.100000e-07	-4.683090e-06	-2.373071e-09	-3.329791e+01	-1.543303e+02
6.200000e-07	-4.659941e-06	-2.359698e-09	-3.313332e+01	-1.541075e+02
6.300000e-07	-4.636520e-06	-2.342561e-09	-3.296679e+01	-1.538835e+02
6.400000e-07	-4.612762e-06	-2.344827e-09	-3.279786e+01	-1.536579e+02
6.500000e-07	-4.588756e-06	-2.360938e-09	-3.262717e+01	-1.534301e+02
6.600000e-07	-4.564572e-06	-2.349533e-09	-3.245522e+01	-1.531997e+02
6.700000e-07	-4.540142e-06	-2.325461e-09	-3.228151e+01	-1.529659e+02
6.800000e-07	-4.515274e-06	-2.333997e-09	-3.210470e+01	-1.527284e+02
6.900000e-07	-4.489955e-06	-2.348740e-09	-3.192468e+01	-1.524864e+02
7.000000e-07	-4.464273e-06	-2.333542e-09	-3.174207e+01	-1.522394e+02
7.100000e-07	-4.438029e-06	-2.315032e-09	-3.155547e+01	-1.519869e+02
7.200000e-07	-4.411250e-06	-2.310445e-09	-3.136506e+01	-1.517285e+02
7.300000e-07	-4.384127e-06	-2.319838e-09	-3.117221e+01	-1.514637e+02
7.400000e-07	-4.356663e-06	-2.319782e-09	-3.097694e+01	-1.511921e+02
7.500000e-07	-4.328931e-06	-2.305546e-09	-3.077975e+01	-1.509136e+02
7.600000e-07	-4.301007e-06	-2.291355e-09	-3.058121e+01	-1.506280e+02
7.700000e-07	-4.272934e-06	-2.298481e-09	-3.038160e+01	-1.503350e+02
7.800000e-07	-4.244583e-06	-2.300270e-09	-3.018002e+01	-1.500347e+02
7.900000e-07	-4.215861e-06	-2.290666e-09	-2.997580e+01	-1.497272e+02
8.000000e-07	-4.186867e-06	-2.280608e-09	-2.976964e+01	-1.494127e+02
8.100000e-07	-4.157546e-06	-2.285688e-09	-2.956116e+01	-1.490912e+02
8.200000e-07	-4.127897e-06	-2.289350e-09	-2.935035e+01	-1.487632e+02
8.300000e-07	-4.098027e-06	-2.283836e-09	-2.913797e+01	-1.484289e+02
8.400000e-07	-4.067914e-06	-2.264921e-09	-2.892386e+01	-1.480887e+02
8.500000e-07	-4.037520e-06	-2.254810e-09	-2.870775e+01	-1.477432e+02
8.600000e-07	-4.006843e-06	-2.253662e-09	-2.848963e+01	-1.473928e+02
8.700000e-07	-3.975872e-06	-2.248986e-09	-2.826942e+01	-1.470379e+02
8.800000e-07	-3.944727e-06	-2.234226e-09	-2.804797e+01	-1.466790e+02
8.900000e-07	-3.913404e-06	-2.230202e-09	-2.782526e+01	-1.463167e+02
9.000000e-07	-3.881741e-06	-2.237956e-09	-2.760012e+01	-1.459515e+02
9.100000e-07	-3.849808e-06	-2.240660e-09	-2.737307e+01	-1.455838e+02
9.200000e-07	-3.817733e-06	-2.225471e-09	-2.714501e+01	-1.452140e+02
9.300000e-07	-3.785528e-06	-2.208052e-09	-2.691603e+01	-1.448426e+02
9.400000e-07	-3.753131e-06	-2.203632e-09	-2.668567e+01	-1.444698e+02
9.500000e-07	-3.720475e-06	-2.204216e-09	-2.645348e+01	-1.440959e+02
9.600000e-07	-3.687500e-06	-2.196936e-09	-2.621903e+01	-1.437213e+02
9.700000e-07	-3.654080e-06	-2.187583e-09	-2.598140e+01	-1.433460e+02
9.800000e-07	-3.620167e-06	-2.187514e-09	-2.574027e+01	-1.429703e+02
9.900000e-07	-3.585802e-06	-2.188460e-09	-2.549593e+01	-1.425940e+02
1.000000e-06	-3.551144e-06	-2.178463e-09	-2.524950e+01	-1.422172e+02
1.010000e-06	-3.516165e-06	-2.160987e-09	-2.500079e+01	-1.418399e+02
1.020000e-06	-3.480788e-06	-2.149695e-09	-2.474925e+01	-1.414620e+02
1.030000e-06	-3.445166e-06	-2.144780e-09	-2.449597e+01	-1.410831e+02
1.040000e-06	-3.409362e-06	-2.141973e-09	-2.424139e+01	-1.407032e+02
1.050000e-06	-3.373391e-06	-2.135004e-09	-2.398563e+01	-1.403219e+02
1.060000e-06	-3.337303e-06	-2.128547e-09	-2.372904e+01	-1.399389e+02
1.070000e-06	-3.301072e-06	-2.123956e-09	-2.347143e+01	-1.395540e+02
1.080000e-06	-3.264597e-06	-2.119345e-09	-2.321208e+01	-1.391667e+02
1.090000e-06	-3.227903e-06	-2.105235e-09	-2.295118e+01	-1.387766e+02
1.100000e-06	-3.190957e-06	-2.092249e-09	-2.268848e+01	-1.383834e+02
1.110000e-06	-3.153732e-06	-2.087372e-09	-2.242380e+01	-1.379866e+02
1.120000e-06	-3.116311e-06	-2.086858e-09	-2.215773e+01	-1.375859e+02
1.130000e-06	-3.078650e-06	-2.079134e-09	-2.188995e+01	-1.371808e+02
1.140000e-06	-3.040809e-06	-2.067904e-09	-2.162090e+01	-1.367709e+02
1.150000e-06	-3.002846e-06	-2.060142e-09	-2.135097e+01	-1.363557e+02
1.160000e-06	-2.964692e-06	-2.056472e-09	-2.107969e+01	-1.359350e+02
1.170000e-06	-2.926377e-06	-2.046399e-09	-2.080725e+01	-1.355082e+02
1.180000e-06	-2.887857e-06	-2.031208e-09	-2.053336e+01	-1.350750e+02
1.190000e-06	-2.849079e-06	-2.019750e-09	-2.025764e+01	-1.346350e+02
1.200000e-06	-2.810079e-06	-2.015281e-09	-1.998035e+01	-1.341877e+02
1.210000e-06	-2.770894e-06	-2.009968e-09	-1.970173e+01	-1.337329e+02
1.220000e-06	-2.731547e-06	-2.001861e-09	-1.942197e+01	-1.332702e+02
1.230000e-06	-2.692012e-06	-1.993566e-09	-1.914086e+01	-1.327991e+02
1.240000e-06	-2.652274e-06	-1.986532e-09	-1.885832e+01	-1.323194e+02
1.250000e-06	-2.612391e-06	-1.977074e-09	-1.857474e+01	-1.318306e+02
1.260000e-06	-2.572441e-06	-1.963813e-09	-1.829069e+01	-1.313324e+02
1.270000e-06	-2.532397e-06	-1.950804e-09	-1.800596e+01	-1.308244e+02
1.280000e-06	-2.492194e-06	-1.943795e-09	-1.772011e+01	-1.303063e+02
1.290000e-06	-2.451835e-06	-1.940876e-09	-1.743314e+01	-1.297777e+02
1.300000e-06	-2.411279e-06	-1.932956e-09	-1.714478e+01	-1.292383e+02
1.310000e-06	-2.370589e-06	-1.921454e-09	-1.685546e+01	-1.286877e+02
1.320000e-06	-2.329804e-06	-1.912040e-09	-1.656547e+01	-1.281256e+02
1.330000e-06	-2.288776e-06	-1.905515e-09	-1.627375e+01	-1.275516e+02
1.340000e-06	-2.247488e-06	-1.893359e-09	-1.598019e+01	-1.269655e+02
1.350000e-06	-2.206032e-06	-1.878328e-09	-1.568542e+01	-1.263669e+02
1.360000e-06	-2.164305e-06	-1.865282e-09	-1.538874e+01	-1.257556e+02
1.370000e-06	-2.122232e-06	-1.856428e-09	-1.508959e+01	-1.251312e+02
1.380000e-06	-2.079885e-06	-1.845876e-09	-1.478849e+01	-1.244937e+02
1.390000e-06	-2.037343e-06	-1.833013e-09	-1.448600e+01	-1.238428e+02
1.400000e-06	-1.994585e-06	-1.823325e-09	-1.418199e+01	-1.231782e+02
1.410000e-06	-1.951547e-06	-1.818850e-09	-1.387598e+01	-1.224999e+02
1.420000e-06	-1.908262e-06	-1.810697e-09	-1.356821e+01	-1.218078e+02
1.430000e-06	-1.864874e-06	-1.796569e-09	-1.325971e+01	-1.211017e+02
1.440000e-06	-1.821432e-06	-1.781082e-09	-1.295083e+01	-1.203817e+02
1.450000e-06	-1.777849e-06	-1.768373e-09	-1.264094e+01	-1.196477e+02
1.460000e-06	-1.734129e-06	-1.756645e-09	-1.233008e+01	-1.188997e+02
1.470000e-06	-1.690316e-06	-1.742965e-09	-1.201856e+01	-1.181377e+02
1.480000e-06	-1.646404e-06	-1.728873e-09	-1.170633e+01	-1.173619e+02
1.490000e-06	-1.602357e-06	-1.718933e-09	-1.139315e+01	-1.165721e+02
1.500000e-06	-1.558199e-06	-1.710961e-09	-1.107917e+01	-1.157685e+02
1.510000e-06	-1.513973e-06	-1.700405e-09	-1.076471e+01	-1.149511e+02
1.520000e-06	-1.469702e-06	-1.686833e-09	-1.044994e+01	-1.141198e+02
1.530000e-06	-1.425380e-06	-1.672371e-09	-1.013480e+01	-1.132748e+02
1.540000e-06	-1.380999e-06	-1.660644e-09	-9.819237e+00	-1.124158e+02
1.550000e-06	-1.336577e-06	-1.647187e-09	-9.503389e+00	-1.115428e+02
1.560000e-06	-1.292151e-06	-1.629176e-09	-9.187507e+00	-1.106555e+02
1.570000e-06	-1.247597e-06	-1.612653e-09	-8.870719e+00	-1.097538e+02
1.580000e-06	-1.202896e-06	-1.600855e-09	-8.552886e+00	-1.088371e+02
1.590000e-06	-1.158192e-06	-1.590470e-09	-8.235029e+00	-1.079051e+02
1.600000e-06	-1.113355e-06	-1.576729e-09	-7.916228e+00	-1.069571e+02
1.610000e-06	-1.068457e-06	-1.559275e-09	-7.596993e+00	-1.059926e+02
1.620000e-06	-1.023535e-06	-1.542240e-09	-7.277582e+00	-1.050105e+02
1.630000e-06	-9.784556e-07	-1.527603e-09	-6.957058e+00	-1.040101e+02
1.640000e-06	-9.333124e-07	-1.510607e-09	-6.636079e+00	-1.029902e+02
1.650000e-06	-8.881064e-07	-1.490628e-09	-6.314653e+00	-1.019496e+02
1.660000e-06	-8.428687e-07	-1.475557e-09	-5.993002e+00	-1.008870e+02
1.670000e-06	-7.975667e-07	-1.464643e-09	-5.670893e+00	-9.980097e+01
1.680000e-06	-7.521762e-07	-1.451074e-09	-5.348156e+00	-9.868986e+01
1.690000e-06	-7.067485e-07	-1.430933e-09	-5.025154e+00	-9.755204e+01
1.700000e-06	-6.612381e-07	-1.407964e-09	-4.701564e+00	-9.638574e+01
1.710000e-06	-6.156929e-07	-1.386485e-09	-4.377726e+00	-9.518909e+01
1.720000e-06	-5.701472e-07	-1.367047e-09	-4.053886e+00	-9.396018e+01
1.730000e-06	-5.245789e-07	-1.347125e-09	-3.729884e+00	-9.269704e+01
1.740000e-06	-4.789426e-07	-1.327286e-09	-3.405399e+00	-9.139769e+01
1.750000e-06	-4.332955e-07	-1.310712e-09	-3.080837e+00	-9.006012e+01
1.760000e-06	-3.876424e-07	-1.295082e-09	-2.756232e+00	-8.868234e+01
1.770000e-06	-3.418917e-07	-1.275066e-09	-2.430934e+00	-8.726240e+01
1.780000e-06	-2.960785e-07	-1.248777e-09	-2.105190e+00	-8.579839e+01
1.790000e-06	-2.503005e-07	-1.218207e-09	-1.779697e+00	-8.428850e+01
1.800000e-06	-2.045513e-07	-1.189042e-09	-1.454409e+00	-8.273100e+01
1.810000e-06	-1.587999e-07	-1.162890e-09	-1.129106e+00	-8.112429e+01
1.820000e-06	-1.130327e-07	-1.138827e-09	-8.036897e-01	-7.946689e+01
1.830000e-06	-6.722382e-08	-1.115167e-09	-4.779778e-01	-7.775749e+01
1.840000e-06	-2.138209e-08	-1.091842e-09	-1.520319e-01	-7.599495e+01
1.850000e-06	2.445867e-08	-1.066918e-09	1.739071e-01	-7.417831e+01
1.860000e-06	7.026446e-08	-1.038054e-09	4.995975e-01	-7.230678e+01
1.870000e-06	1.160991e-07	-1.006526e-09	8.254928e-01	-7.037981e+01
1.880000e-06	1.619776e-07	-9.731346e-10	1.151700e+00	-6.839702e+01
1.890000e-06	2.078494e-07	-9.395361e-10	1.477860e+00	-6.635828e+01
1.900000e-06	2.536115e-07	-9.063214e-10	1.803239e+00	-6.426363e+01
1.910000e-06	2.993230e-07	-8.741859e-10	2.128260e+00	-6.211335e+01
1.920000e-06	3.450503e-07	-8.438831e-10	2.453392e+00	-5.990791e+01
1.930000e-06	3.907598e-07	-8.134962e-10	2.778397e+00	-5.764798e+01
1.940000e-06	4.364806e-07	-7.798491e-10	3.103484e+00	-5.533442e+01
1.950000e-06	4.821296e-07	-7.437239e-10	3.428059e+00	-5.296827e+01
1.960000e-06	5.277250e-07	-7.076940e-10	3.752253e+00	-5.055073e+01
1.970000e-06	5.733181e-07	-6.696960e-10	4.076431e+00	-4.808316e+01
1.980000e-06	6.188121e-07	-6.298353e-10	4.399905e+00	-4.556707e+01
1.990000e-06	6.642038e-07	-5.900638e-10	4.722651e+00	-4.300406e+01
2.000000e-06	7.095621e-07	-5.514672e-10	5.045159e+00	-4.039588e+01
2.010000e-06	7.549114e-07	-5.145887e-10	5.367604e+00	-3.774436e+01
2.020000e-06	8.001676e-07	-4.770692e-10	5.689387e+00	-3.505139e+01
2.030000e-06	8.452620e-07	-4.389016e-10	6.010019e+00	-3.231896e+01
2.040000e-06	8.903510e-07	-4.005549e-10	6.330613e+00	-2.954909e+01
2.050000e-06	9.354848e-07	-3.616566e-10	6.651525e+00	-2.674385e+01
2.060000e-06	9.805847e-07	-3.220213e-10	6.972196e+00	-2.390534e+01
2.070000e-06	1.025565e-06	-2.812069e-10	7.292015e+00	-2.103570e+01
2.080000e-06	1.070401e-06	-2.378387e-10	7.610815e+00	-1.813707e+01
2.090000e-06	1.115177e-06	-1.925501e-10	7.929183e+00	-1.521160e+01
2.100000e-06	1.159863e-06	-1.478506e-10	8.246906e+00	-1.226146e+01
2.110000e-06	1.204415e-06	-1.071219e-10	8.563681e+00	-9.288818e+00
2.120000e-06	1.248956e-06	-6.909237e-11	8.880381e+00	-6.295854e+00
2.130000e-06	1.293459e-06	-2.782737e-11	9.196806e+00	-3.284752e+00
2.140000e-06	1.337877e-06	1.733705e-11	9.512632e+00	-2.577039e-01
2.150000e-06	1.382278e-06	6.251015e-11	9.828332e+00	2.783083e+00
2.160000e-06	1.426564e-06	1.088776e-10	1.014322e+01	5.835387e+00
2.170000e-06	1.470708e-06	1.578226e-10	1.045709e+01	8.896965e+00
2.180000e-06	1.514841e-06	2.049709e-10	1.077089e+01	1.196555e+01
2.190000e-06	1.558970e-06	2.460980e-10	1.108465e+01	1.503885e+01
2.200000e-06	1.603044e-06	2.840522e-10	1.139803e+01	1.811453e+01
2.210000e-06	1.647082e-06	3.251833e-10	1.171116e+01	2.119022e+01
2.220000e-06	1.691063e-06	3.719495e-10	1.202387e+01	2.426353e+01
2.230000e-06	1.734974e-06	4.205546e-10	1.233609e+01	2.733201e+01
2.240000e-06	1.778776e-06	4.668166e-10	1.264753e+01	3.039319e+01
2.250000e-06	1.822389e-06	5.112084e-10	1.295763e+01	3.344453e+01
2.260000e-06	1.865773e-06	5.558108e-10	1.326610e+01	3.648350e+01
2.270000e-06	1.909063e-06	6.000950e-10	1.357390e+01	3.950752e+01
2.280000e-06	1.952258e-06	6.421159e-10	1.388103e+01	4.251398e+01
2.290000e-06	1.995219e-06	6.836319e-10	1.418649e+01	4.550029e+01
2.300000e-06	2.037925e-06	7.274282e-10	1.449014e+01	4.846382e+01
2.310000e-06	2.080403e-06	7.731370e-10	1.479218e+01	5.140198e+01
2.320000e-06	2.122644e-06	8.170410e-10	1.509252e+01	5.431220e+01
2.330000e-06	2.164561e-06	8.583550e-10	1.539056e+01	5.719193e+01
2.340000e-06	2.206212e-06	8.979836e-10	1.568670e+01	6.003871e+01
2.350000e-06	2.247574e-06	9.372720e-10	1.598080e+01	6.285010e+01
2.360000e-06	2.288612e-06	9.762778e-10	1.627259e+01	6.562380e+01
2.370000e-06	2.329447e-06	1.015259e-09	1.656293e+01	6.835758e+01
2.380000e-06	2.370122e-06	1.056141e-09	1.685215e+01	7.104933e+01
2.390000e-06	2.410642e-06	1.098076e-09	1.714025e+01	7.369707e+01
2.400000e-06	2.451016e-06	1.137384e-09	1.742732e+01	7.629899e+01
2.410000e-06	2.491215e-06	1.171625e-09	1.771315e+01	7.885342e+01
2.420000e-06	2.531314e-06	1.204183e-09	1.799826e+01	8.135885e+01
2.430000e-06	2.571404e-06	1.238544e-09	1.828331e+01	8.381398e+01
2.440000e-06	2.611357e-06	1.272489e-09	1.856739e+01	8.621766e+01
2.450000e-06	2.651214e-06	1.305240e-09	1.885078e+01	8.856896e+01
2.460000e-06	2.690973e-06	1.338812e-09	1.913347e+01	9.086713e+01
2.470000e-06	2.730541e-06	1.374655e-09	1.941481e+01	9.311161e+01
2.480000e-06	2.769947e-06	1.410513e-09	1.969500e+01	9.530202e+01
2.490000e-06	2.809116e-06	1.442416e-09	1.997350e+01	9.743819e+01
2.500000e-06	2.847979e-06	1.470668e-09	2.024983e+01	9.952012e+01
2.510000e-06	2.886577e-06	1.497029e-09	2.052426e+01	1.015480e+02
2.520000e-06	2.925010e-06	1.522388e-09	2.079753e+01	1.035220e+02
2.530000e-06	2.963253e-06	1.548798e-09	2.106945e+01	1.054428e+02
2.540000e-06	3.001334e-06	1.577176e-09	2.134022e+01	1.073108e+02
2.550000e-06	3.039289e-06	1.607990e-09	2.161008e+01	1.091268e+02
2.560000e-06	3.077050e-06	1.640001e-09	2.187857e+01	1.108916e+02
2.570000e-06	3.114567e-06	1.667553e-09	2.214533e+01	1.126061e+02
2.580000e-06	3.151851e-06	1.691109e-09	2.241043e+01	1.142711e+02
2.590000e-06	3.188847e-06	1.713570e-09	2.267348e+01	1.158878e+02
2.600000e-06	3.225520e-06	1.734820e-09	2.293423e+01	1.174570e+02
2.610000e-06	3.261928e-06	1.754773e-09	2.319310e+01	1.189798e+02
2.620000e-06	3.298188e-06	1.774221e-09	2.345092e+01	1.204573e+02
2.630000e-06	3.334391e-06	1.795557e-09	2.370833e+01	1.218905e+02
2.640000e-06	3.370494e-06	1.817164e-09	2.396503e+01	1.232804e+02
2.650000e-06	3.406495e-06	1.835828e-09	2.422101e+01	1.246279e+02
2.660000e-06	3.442375e-06	1.850914e-09	2.447613e+01	1.259339e+02
2.670000e-06	3.478075e-06	1.865816e-09	2.472996e+01	1.271994e+02
2.680000e-06	3.513514e-06	1.883603e-09	2.498194e+01	1.284252e+02
2.690000e-06	3.548556e-06	1.900480e-09	2.523110e+01	1.296120e+02
2.700000e-06	3.583233e-06	1.915524e-09	2.547766e+01	1.307607e+02
2.710000e-06	3.617534e-06	1.931324e-09	2.572155e+01	1.318719e+02
2.720000e-06	3.651264e-06	1.949959e-09	2.596138e+01	1.329462e+02
2.730000e-06	3.684492e-06	1.967395e-09	2.619763e+01	1.339844e+02
2.740000e-06	3.717450e-06	1.977327e-09	2.643198e+01	1.349871e+02
2.750000e-06	3.750108e-06	1.984825e-09	2.666418e+01	1.359547e+02
2.760000e-06	3.782461e-06	1.997180e-09	2.689422e+01	1.368880e+02
2.770000e-06	3.814649e-06	2.010903e-09	2.712308e+01	1.377875e+02
2.780000e-06	3.846663e-06	2.021355e-09	2.735071e+01	1.386539e+02
2.790000e-06	3.878553e-06	2.032729e-09	2.757746e+01	1.394877e+02
2.800000e-06	3.910248e-06	2.047297e-09	2.780282e+01	1.402897e+02
2.810000e-06	3.941644e-06	2.061092e-09	2.802605e+01	1.410604e+02
2.820000e-06	3.972749e-06	2.069662e-09	2.824721e+01	1.418008e+02
2.830000e-06	4.003533e-06	2.073132e-09	2.846609e+01	1.425114e+02
2.840000e-06	4.033986e-06	2.079871e-09	2.868263e+01	1.431933e+02
2.850000e-06	4.064148e-06	2.090793e-09	2.889708e+01	1.438472e+02
2.860000e-06	4.094123e-06	2.102121e-09	2.911022e+01	1.444742e+02
2.870000e-06	4.123912e-06	2.111641e-09	2.932202e+01	1.450752e+02
2.880000e-06	4.153509e-06	2.119416e-09	2.953246e+01	1.456512e+02
2.890000e-06	4.182778e-06	2.126303e-09	2.974057e+01	1.462034e+02
2.900000e-06	4.211654e-06	2.130881e-09	2.994588e+01	1.467328e+02
