# Temperatura_=_17.69
# Concentracion g/m^3_=_4090.0
# C_Vs_to_Am_M_A/Vsm_=_65563218390.804596
# pendiente_HvsI_1/m_=_3716.3
# ordenada_HvsI_A/m_=_1297.0
# frecuencia_Hz_=_135083.86676477297

Tiempo_(s)	Campo_(V.s)	Magnetizacion_(V.s)	Campo_(kA/m)	Magnetizacion_(A/m)
0.000000e+00	-5.417362e-06	-2.268398e-09	-3.838844e+01	-1.505945e+02
1.000000e-08	-5.417586e-06	-2.265526e-09	-3.839003e+01	-1.504251e+02
2.000000e-08	-5.417585e-06	-2.261959e-09	-3.839002e+01	-1.502550e+02
3.000000e-08	-5.417292e-06	-2.260099e-09	-3.838794e+01	-1.500863e+02
4.000000e-08	-5.416506e-06	-2.258965e-09	-3.838237e+01	-1.499216e+02
5.000000e-08	-5.415292e-06	-2.258050e-09	-3.837377e+01	-1.497631e+02
6.000000e-08	-5.413611e-06	-2.255070e-09	-3.836186e+01	-1.496132e+02
7.000000e-08	-5.411212e-06	-2.242104e-09	-3.834486e+01	-1.494741e+02
8.000000e-08	-5.408138e-06	-2.231643e-09	-3.832308e+01	-1.493481e+02
9.000000e-08	-5.404541e-06	-2.267613e-09	-3.829759e+01	-1.492370e+02
1.000000e-07	-5.400491e-06	-2.325767e-09	-3.826889e+01	-1.491428e+02
1.100000e-07	-5.396196e-06	-2.310932e-09	-3.823845e+01	-1.490670e+02
1.200000e-07	-5.391855e-06	-2.258512e-09	-3.820769e+01	-1.490108e+02
1.300000e-07	-5.387274e-06	-2.210571e-09	-3.817523e+01	-1.489754e+02
1.400000e-07	-5.382228e-06	-2.289580e-09	-3.813947e+01	-1.489612e+02
1.500000e-07	-5.376694e-06	-2.278322e-09	-3.810026e+01	-1.489685e+02
1.600000e-07	-5.370816e-06	-2.192390e-09	-3.805860e+01	-1.489974e+02
1.700000e-07	-5.364573e-06	-2.181641e-09	-3.801436e+01	-1.490473e+02
1.800000e-07	-5.357829e-06	-2.274284e-09	-3.796658e+01	-1.491175e+02
1.900000e-07	-5.350756e-06	-2.352805e-09	-3.791646e+01	-1.492066e+02
2.000000e-07	-5.343452e-06	-2.273020e-09	-3.786470e+01	-1.493133e+02
2.100000e-07	-5.335903e-06	-2.264601e-09	-3.781121e+01	-1.494355e+02
2.200000e-07	-5.328161e-06	-2.283181e-09	-3.775634e+01	-1.495711e+02
2.300000e-07	-5.320191e-06	-2.324353e-09	-3.769987e+01	-1.497178e+02
2.400000e-07	-5.311924e-06	-2.286112e-09	-3.764129e+01	-1.498727e+02
2.500000e-07	-5.303120e-06	-2.313264e-09	-3.757890e+01	-1.500332e+02
2.600000e-07	-5.293498e-06	-2.330895e-09	-3.751071e+01	-1.501960e+02
2.700000e-07	-5.283191e-06	-2.353570e-09	-3.743768e+01	-1.503583e+02
2.800000e-07	-5.272295e-06	-2.341782e-09	-3.736047e+01	-1.505170e+02
2.900000e-07	-5.260977e-06	-2.364204e-09	-3.728027e+01	-1.506688e+02
3.000000e-07	-5.249356e-06	-2.358543e-09	-3.719792e+01	-1.508109e+02
3.100000e-07	-5.237400e-06	-2.338790e-09	-3.711320e+01	-1.509403e+02
3.200000e-07	-5.225089e-06	-2.355558e-09	-3.702596e+01	-1.510543e+02
3.300000e-07	-5.212373e-06	-2.388857e-09	-3.693585e+01	-1.511505e+02
3.400000e-07	-5.199223e-06	-2.376979e-09	-3.684266e+01	-1.512266e+02
3.500000e-07	-5.185729e-06	-2.334266e-09	-3.674704e+01	-1.512807e+02
3.600000e-07	-5.171919e-06	-2.347275e-09	-3.664919e+01	-1.513111e+02
3.700000e-07	-5.157677e-06	-2.360173e-09	-3.654826e+01	-1.513166e+02
3.800000e-07	-5.142777e-06	-2.337184e-09	-3.644268e+01	-1.512963e+02
3.900000e-07	-5.127223e-06	-2.309034e-09	-3.633246e+01	-1.512497e+02
4.000000e-07	-5.111245e-06	-2.328781e-09	-3.621924e+01	-1.511766e+02
4.100000e-07	-5.094830e-06	-2.332528e-09	-3.610292e+01	-1.510771e+02
4.200000e-07	-5.078016e-06	-2.333150e-09	-3.598377e+01	-1.509519e+02
4.300000e-07	-5.060961e-06	-2.323904e-09	-3.586291e+01	-1.508019e+02
4.400000e-07	-5.043684e-06	-2.327396e-09	-3.574049e+01	-1.506282e+02
4.500000e-07	-5.026097e-06	-2.298995e-09	-3.561587e+01	-1.504323e+02
4.600000e-07	-5.008216e-06	-2.310610e-09	-3.548915e+01	-1.502161e+02
4.700000e-07	-4.989902e-06	-2.311983e-09	-3.535938e+01	-1.499813e+02
4.800000e-07	-4.971087e-06	-2.307505e-09	-3.522605e+01	-1.497301e+02
4.900000e-07	-4.951865e-06	-2.284832e-09	-3.508984e+01	-1.494648e+02
5.000000e-07	-4.932401e-06	-2.308017e-09	-3.495192e+01	-1.491876e+02
5.100000e-07	-4.912765e-06	-2.301278e-09	-3.481277e+01	-1.489007e+02
5.200000e-07	-4.892913e-06	-2.291180e-09	-3.467210e+01	-1.486066e+02
5.300000e-07	-4.872831e-06	-2.282416e-09	-3.452979e+01	-1.483073e+02
5.400000e-07	-4.852400e-06	-2.297939e-09	-3.438502e+01	-1.480051e+02
5.500000e-07	-4.831473e-06	-2.285059e-09	-3.423672e+01	-1.477017e+02
5.600000e-07	-4.810170e-06	-2.280411e-09	-3.408576e+01	-1.473992e+02
5.700000e-07	-4.788687e-06	-2.270919e-09	-3.393353e+01	-1.470989e+02
5.800000e-07	-4.766913e-06	-2.263422e-09	-3.377924e+01	-1.468023e+02
5.900000e-07	-4.744774e-06	-2.254338e-09	-3.362235e+01	-1.465104e+02
6.000000e-07	-4.722207e-06	-2.260412e-09	-3.346244e+01	-1.462240e+02
6.100000e-07	-4.699222e-06	-2.254811e-09	-3.329957e+01	-1.459437e+02
6.200000e-07	-4.675960e-06	-2.251368e-09	-3.313473e+01	-1.456698e+02
6.300000e-07	-4.652381e-06	-2.256577e-09	-3.296764e+01	-1.454024e+02
6.400000e-07	-4.628571e-06	-2.255672e-09	-3.279892e+01	-1.451411e+02
6.500000e-07	-4.604665e-06	-2.240678e-09	-3.262952e+01	-1.448856e+02
6.600000e-07	-4.580563e-06	-2.221675e-09	-3.245873e+01	-1.446352e+02
6.700000e-07	-4.556134e-06	-2.217072e-09	-3.228561e+01	-1.443890e+02
6.800000e-07	-4.531343e-06	-2.217076e-09	-3.210994e+01	-1.441461e+02
6.900000e-07	-4.505961e-06	-2.225362e-09	-3.193008e+01	-1.439052e+02
7.000000e-07	-4.480017e-06	-2.223011e-09	-3.174624e+01	-1.436653e+02
7.100000e-07	-4.453546e-06	-2.224596e-09	-3.155866e+01	-1.434251e+02
7.200000e-07	-4.426513e-06	-2.219394e-09	-3.136710e+01	-1.431833e+02
7.300000e-07	-4.399194e-06	-2.216597e-09	-3.117351e+01	-1.429385e+02
7.400000e-07	-4.371650e-06	-2.196853e-09	-3.097833e+01	-1.426897e+02
7.500000e-07	-4.343882e-06	-2.188657e-09	-3.078156e+01	-1.424356e+02
7.600000e-07	-4.315961e-06	-2.181378e-09	-3.058371e+01	-1.421753e+02
7.700000e-07	-4.287838e-06	-2.186089e-09	-3.038442e+01	-1.419078e+02
7.800000e-07	-4.259397e-06	-2.180900e-09	-3.018288e+01	-1.416323e+02
7.900000e-07	-4.230671e-06	-2.180317e-09	-2.997932e+01	-1.413483e+02
8.000000e-07	-4.201694e-06	-2.171976e-09	-2.977399e+01	-1.410554e+02
8.100000e-07	-4.172444e-06	-2.171284e-09	-2.956672e+01	-1.407533e+02
8.200000e-07	-4.142846e-06	-2.162182e-09	-2.935698e+01	-1.404419e+02
8.300000e-07	-4.112900e-06	-2.157776e-09	-2.914478e+01	-1.401214e+02
8.400000e-07	-4.082718e-06	-2.150438e-09	-2.893090e+01	-1.397920e+02
8.500000e-07	-4.052279e-06	-2.149502e-09	-2.871521e+01	-1.394542e+02
8.600000e-07	-4.021521e-06	-2.142748e-09	-2.849725e+01	-1.391086e+02
8.700000e-07	-3.990596e-06	-2.137350e-09	-2.827811e+01	-1.387559e+02
8.800000e-07	-3.959544e-06	-2.126987e-09	-2.805807e+01	-1.383968e+02
8.900000e-07	-3.928161e-06	-2.120995e-09	-2.783568e+01	-1.380323e+02
9.000000e-07	-3.896470e-06	-2.117461e-09	-2.761112e+01	-1.376633e+02
9.100000e-07	-3.864700e-06	-2.114843e-09	-2.738599e+01	-1.372907e+02
9.200000e-07	-3.832820e-06	-2.108416e-09	-2.716008e+01	-1.369155e+02
9.300000e-07	-3.800662e-06	-2.099708e-09	-2.693220e+01	-1.365385e+02
9.400000e-07	-3.768248e-06	-2.089363e-09	-2.670251e+01	-1.361607e+02
9.500000e-07	-3.735471e-06	-2.076636e-09	-2.647024e+01	-1.357829e+02
9.600000e-07	-3.702243e-06	-2.066595e-09	-2.623478e+01	-1.354056e+02
9.700000e-07	-3.668683e-06	-2.058485e-09	-2.599697e+01	-1.350296e+02
9.800000e-07	-3.634693e-06	-2.055837e-09	-2.575611e+01	-1.346552e+02
9.900000e-07	-3.600084e-06	-2.050091e-09	-2.551087e+01	-1.342827e+02
1.000000e-06	-3.565101e-06	-2.046140e-09	-2.526297e+01	-1.339124e+02
1.010000e-06	-3.529868e-06	-2.041221e-09	-2.501331e+01	-1.335442e+02
1.020000e-06	-3.494417e-06	-2.036419e-09	-2.476209e+01	-1.331779e+02
1.030000e-06	-3.458796e-06	-2.022278e-09	-2.450968e+01	-1.328133e+02
1.040000e-06	-3.422992e-06	-2.013038e-09	-2.425596e+01	-1.324501e+02
1.050000e-06	-3.387071e-06	-2.006494e-09	-2.400142e+01	-1.320875e+02
1.060000e-06	-3.351008e-06	-2.004213e-09	-2.374587e+01	-1.317250e+02
1.070000e-06	-3.314829e-06	-1.996354e-09	-2.348950e+01	-1.313617e+02
1.080000e-06	-3.278364e-06	-1.992005e-09	-2.323110e+01	-1.309969e+02
1.090000e-06	-3.241545e-06	-1.985683e-09	-2.297019e+01	-1.306297e+02
1.100000e-06	-3.204503e-06	-1.980990e-09	-2.270771e+01	-1.302591e+02
1.110000e-06	-3.167296e-06	-1.971310e-09	-2.244405e+01	-1.298841e+02
1.120000e-06	-3.129901e-06	-1.962834e-09	-2.217906e+01	-1.295039e+02
1.130000e-06	-3.092235e-06	-1.952663e-09	-2.191215e+01	-1.291174e+02
1.140000e-06	-3.054323e-06	-1.946370e-09	-2.164350e+01	-1.287238e+02
1.150000e-06	-3.016186e-06	-1.939589e-09	-2.137326e+01	-1.283223e+02
1.160000e-06	-2.977868e-06	-1.931653e-09	-2.110173e+01	-1.279121e+02
1.170000e-06	-2.939365e-06	-1.922641e-09	-2.082889e+01	-1.274925e+02
1.180000e-06	-2.900640e-06	-1.916352e-09	-2.055448e+01	-1.270629e+02
1.190000e-06	-2.861619e-06	-1.909748e-09	-2.027797e+01	-1.266230e+02
1.200000e-06	-2.822389e-06	-1.902187e-09	-1.999998e+01	-1.261722e+02
1.210000e-06	-2.782980e-06	-1.891271e-09	-1.972072e+01	-1.257104e+02
1.220000e-06	-2.743356e-06	-1.882783e-09	-1.943993e+01	-1.252375e+02
1.230000e-06	-2.703667e-06	-1.876975e-09	-1.915869e+01	-1.247533e+02
1.240000e-06	-2.663877e-06	-1.869796e-09	-1.887673e+01	-1.242579e+02
1.250000e-06	-2.623972e-06	-1.861245e-09	-1.859396e+01	-1.237515e+02
1.260000e-06	-2.583996e-06	-1.851279e-09	-1.831068e+01	-1.232341e+02
1.270000e-06	-2.543956e-06	-1.842923e-09	-1.802695e+01	-1.227062e+02
1.280000e-06	-2.503849e-06	-1.834057e-09	-1.774274e+01	-1.221680e+02
1.290000e-06	-2.463562e-06	-1.824690e-09	-1.745726e+01	-1.216197e+02
1.300000e-06	-2.423046e-06	-1.815214e-09	-1.717016e+01	-1.210619e+02
1.310000e-06	-2.382341e-06	-1.808344e-09	-1.688171e+01	-1.204947e+02
1.320000e-06	-2.341433e-06	-1.798713e-09	-1.659183e+01	-1.199184e+02
1.330000e-06	-2.300193e-06	-1.789747e-09	-1.629960e+01	-1.193335e+02
1.340000e-06	-2.258662e-06	-1.778164e-09	-1.600530e+01	-1.187400e+02
1.350000e-06	-2.216789e-06	-1.767089e-09	-1.570858e+01	-1.181381e+02
1.360000e-06	-2.174666e-06	-1.755264e-09	-1.541009e+01	-1.175279e+02
1.370000e-06	-2.132377e-06	-1.745393e-09	-1.511042e+01	-1.169095e+02
1.380000e-06	-2.089707e-06	-1.734509e-09	-1.480805e+01	-1.162826e+02
1.390000e-06	-2.046801e-06	-1.725651e-09	-1.450402e+01	-1.156473e+02
1.400000e-06	-2.003774e-06	-1.716575e-09	-1.419912e+01	-1.150031e+02
1.410000e-06	-1.960621e-06	-1.709331e-09	-1.389333e+01	-1.143497e+02
1.420000e-06	-1.917326e-06	-1.700521e-09	-1.358653e+01	-1.136868e+02
1.430000e-06	-1.873792e-06	-1.689021e-09	-1.327804e+01	-1.130137e+02
1.440000e-06	-1.830130e-06	-1.673541e-09	-1.296864e+01	-1.123298e+02
1.450000e-06	-1.786438e-06	-1.659320e-09	-1.265903e+01	-1.116346e+02
1.460000e-06	-1.742639e-06	-1.648768e-09	-1.234867e+01	-1.109272e+02
1.470000e-06	-1.698816e-06	-1.639329e-09	-1.203813e+01	-1.102069e+02
1.480000e-06	-1.654963e-06	-1.627397e-09	-1.172738e+01	-1.094730e+02
1.490000e-06	-1.611005e-06	-1.614759e-09	-1.141588e+01	-1.087244e+02
1.500000e-06	-1.566945e-06	-1.601899e-09	-1.110367e+01	-1.079605e+02
1.510000e-06	-1.522768e-06	-1.588194e-09	-1.079062e+01	-1.071804e+02
1.520000e-06	-1.478560e-06	-1.573241e-09	-1.047735e+01	-1.063832e+02
1.530000e-06	-1.434306e-06	-1.557578e-09	-1.016376e+01	-1.055681e+02
1.540000e-06	-1.389970e-06	-1.544579e-09	-9.849590e+00	-1.047343e+02
1.550000e-06	-1.345534e-06	-1.533066e-09	-9.534706e+00	-1.038810e+02
1.560000e-06	-1.300932e-06	-1.519568e-09	-9.218648e+00	-1.030073e+02
1.570000e-06	-1.256281e-06	-1.503726e-09	-8.902243e+00	-1.021127e+02
1.580000e-06	-1.211586e-06	-1.490075e-09	-8.585528e+00	-1.011964e+02
1.590000e-06	-1.166746e-06	-1.476906e-09	-8.267779e+00	-1.002576e+02
1.600000e-06	-1.121856e-06	-1.460272e-09	-7.949683e+00	-9.929574e+01
1.610000e-06	-1.076848e-06	-1.441359e-09	-7.630743e+00	-9.831013e+01
1.620000e-06	-1.031682e-06	-1.423503e-09	-7.310690e+00	-9.730011e+01
1.630000e-06	-9.864244e-07	-1.408034e-09	-6.989988e+00	-9.626501e+01
1.640000e-06	-9.410852e-07	-1.390227e-09	-6.668706e+00	-9.520416e+01
1.650000e-06	-8.958088e-07	-1.369679e-09	-6.347868e+00	-9.411685e+01
1.660000e-06	-8.504930e-07	-1.354171e-09	-6.026752e+00	-9.300235e+01
1.670000e-06	-8.050191e-07	-1.340800e-09	-5.704516e+00	-9.185986e+01
1.680000e-06	-7.594111e-07	-1.325539e-09	-5.381329e+00	-9.068855e+01
1.690000e-06	-7.137705e-07	-1.304638e-09	-5.057911e+00	-8.948754e+01
1.700000e-06	-6.681451e-07	-1.281621e-09	-4.734601e+00	-8.825584e+01
1.710000e-06	-6.224701e-07	-1.260387e-09	-4.410940e+00	-8.699244e+01
1.720000e-06	-5.767796e-07	-1.241956e-09	-4.087168e+00	-8.569621e+01
1.730000e-06	-5.309710e-07	-1.221528e-09	-3.762560e+00	-8.436599e+01
1.740000e-06	-4.850957e-07	-1.200350e-09	-3.437479e+00	-8.300051e+01
1.750000e-06	-4.392699e-07	-1.180147e-09	-3.112749e+00	-8.159846e+01
1.760000e-06	-3.934352e-07	-1.162898e-09	-2.787955e+00	-8.015846e+01
1.770000e-06	-3.476419e-07	-1.140828e-09	-2.463455e+00	-7.867910e+01
1.780000e-06	-3.018139e-07	-1.112704e-09	-2.138710e+00	-7.715891e+01
1.790000e-06	-2.559219e-07	-1.083653e-09	-1.813510e+00	-7.559641e+01
1.800000e-06	-2.100199e-07	-1.056506e-09	-1.488240e+00	-7.399012e+01
1.810000e-06	-1.640443e-07	-1.031084e-09	-1.162448e+00	-7.233858e+01
1.820000e-06	-1.180069e-07	-1.005690e-09	-8.362192e-01	-7.064037e+01
1.830000e-06	-7.198418e-08	-9.816754e-10	-5.100934e-01	-6.889410e+01
1.840000e-06	-2.602413e-08	-9.592789e-10	-1.844118e-01	-6.709851e+01
1.850000e-06	1.990458e-08	-9.357758e-10	1.410476e-01	-6.525239e+01
1.860000e-06	6.586877e-08	-9.073917e-10	4.667584e-01	-6.335469e+01
1.870000e-06	1.118620e-07	-8.750670e-10	7.926747e-01	-6.140450e+01
1.880000e-06	1.578844e-07	-8.430671e-10	1.118799e+00	-5.940106e+01
1.890000e-06	2.039010e-07	-8.117054e-10	1.444881e+00	-5.734383e+01
1.900000e-06	2.498883e-07	-7.784755e-10	1.770755e+00	-5.523243e+01
1.910000e-06	2.958458e-07	-7.459224e-10	2.096419e+00	-5.306672e+01
1.920000e-06	3.417396e-07	-7.143210e-10	2.421631e+00	-5.084680e+01
1.930000e-06	3.876783e-07	-6.823981e-10	2.747161e+00	-4.857297e+01
1.940000e-06	4.335935e-07	-6.509133e-10	3.072525e+00	-4.624580e+01
1.950000e-06	4.793736e-07	-6.191199e-10	3.396931e+00	-4.386609e+01
1.960000e-06	5.251321e-07	-5.842018e-10	3.721184e+00	-4.143489e+01
1.970000e-06	5.708989e-07	-5.470949e-10	4.045496e+00	-3.895349e+01
1.980000e-06	6.166142e-07	-5.099043e-10	4.369443e+00	-3.642340e+01
1.990000e-06	6.622756e-07	-4.739555e-10	4.693008e+00	-3.384635e+01
2.000000e-06	7.078765e-07	-4.358645e-10	5.016145e+00	-3.122430e+01
2.010000e-06	7.533755e-07	-3.966236e-10	5.338559e+00	-2.855936e+01
2.020000e-06	7.988028e-07	-3.562480e-10	5.660466e+00	-2.585384e+01
2.030000e-06	8.441807e-07	-3.156494e-10	5.982022e+00	-2.311021e+01
2.040000e-06	8.895252e-07	-2.735020e-10	6.303342e+00	-2.033104e+01
2.050000e-06	9.348268e-07	-2.298188e-10	6.624358e+00	-1.751905e+01
2.060000e-06	9.800519e-07	-1.890218e-10	6.944831e+00	-1.467701e+01
2.070000e-06	1.025239e-06	-1.499404e-10	7.265034e+00	-1.180778e+01
2.080000e-06	1.070432e-06	-1.093204e-10	7.585280e+00	-8.914243e+00
2.090000e-06	1.115470e-06	-6.674559e-11	7.904429e+00	-5.999324e+00
2.100000e-06	1.160316e-06	-2.231563e-11	8.222215e+00	-3.065937e+00
2.110000e-06	1.205082e-06	2.048623e-11	8.539434e+00	-1.169831e-01
2.120000e-06	1.249771e-06	6.199265e-11	8.856108e+00	2.844671e+00
2.130000e-06	1.294332e-06	1.039714e-10	9.171879e+00	5.816203e+00
2.140000e-06	1.338765e-06	1.466325e-10	9.486738e+00	8.794851e+00
2.150000e-06	1.383159e-06	1.902916e-10	9.801326e+00	1.177792e+01
2.160000e-06	1.427469e-06	2.350220e-10	1.011531e+01	1.476280e+01
2.170000e-06	1.471700e-06	2.801439e-10	1.042874e+01	1.774694e+01
2.180000e-06	1.515848e-06	3.250408e-10	1.074158e+01	2.072790e+01
2.190000e-06	1.559897e-06	3.693733e-10	1.105372e+01	2.370329e+01
2.200000e-06	1.603936e-06	4.112293e-10	1.136579e+01	2.667082e+01
2.210000e-06	1.647962e-06	4.526078e-10	1.167777e+01	2.962828e+01
2.220000e-06	1.691880e-06	4.959748e-10	1.198897e+01	3.257353e+01
2.230000e-06	1.735718e-06	5.415262e-10	1.229962e+01	3.550448e+01
2.240000e-06	1.779520e-06	5.866244e-10	1.261001e+01	3.841911e+01
2.250000e-06	1.823257e-06	6.293424e-10	1.291994e+01	4.131544e+01
2.260000e-06	1.866943e-06	6.702847e-10	1.322951e+01	4.419156e+01
2.270000e-06	1.910493e-06	7.111945e-10	1.353811e+01	4.704557e+01
2.280000e-06	1.953957e-06	7.509215e-10	1.384611e+01	4.987560e+01
2.290000e-06	1.997216e-06	7.890209e-10	1.415264e+01	5.267981e+01
2.300000e-06	2.040190e-06	8.288841e-10	1.445717e+01	5.545639e+01
2.310000e-06	2.083030e-06	8.718627e-10	1.476074e+01	5.820353e+01
2.320000e-06	2.125693e-06	9.126305e-10	1.506305e+01	6.091944e+01
2.330000e-06	2.168090e-06	9.492101e-10	1.536349e+01	6.360235e+01
2.340000e-06	2.210221e-06	9.841636e-10	1.566204e+01	6.625049e+01
2.350000e-06	2.252039e-06	1.019475e-09	1.595837e+01	6.886215e+01
2.360000e-06	2.293552e-06	1.055587e-09	1.625254e+01	7.143560e+01
2.370000e-06	2.334795e-06	1.091589e-09	1.654480e+01	7.396919e+01
2.380000e-06	2.375783e-06	1.128507e-09	1.683524e+01	7.646128e+01
2.390000e-06	2.416569e-06	1.167175e-09	1.712426e+01	7.891030e+01
2.400000e-06	2.457107e-06	1.203021e-09	1.741152e+01	8.131476e+01
2.410000e-06	2.497469e-06	1.233989e-09	1.769753e+01	8.367323e+01
2.420000e-06	2.537634e-06	1.262516e-09	1.798215e+01	8.598437e+01
2.430000e-06	2.577657e-06	1.292635e-09	1.826576e+01	8.824695e+01
2.440000e-06	2.617608e-06	1.323421e-09	1.854886e+01	9.045987e+01
2.450000e-06	2.657427e-06	1.352269e-09	1.883102e+01	9.262213e+01
2.460000e-06	2.697159e-06	1.380393e-09	1.911257e+01	9.473289e+01
2.470000e-06	2.736791e-06	1.409663e-09	1.939341e+01	9.679143e+01
2.480000e-06	2.776260e-06	1.440742e-09	1.967309e+01	9.879723e+01
2.490000e-06	2.815566e-06	1.470872e-09	1.995163e+01	1.007499e+02
2.500000e-06	2.854665e-06	1.498304e-09	2.022869e+01	1.026492e+02
2.510000e-06	2.893488e-06	1.526103e-09	2.050380e+01	1.044950e+02
2.520000e-06	2.932036e-06	1.553215e-09	2.077695e+01	1.062876e+02
2.530000e-06	2.970425e-06	1.576041e-09	2.104899e+01	1.080271e+02
2.540000e-06	3.008655e-06	1.594841e-09	2.131989e+01	1.097139e+02
2.550000e-06	3.046601e-06	1.613663e-09	2.158879e+01	1.113487e+02
2.560000e-06	3.084359e-06	1.636110e-09	2.185634e+01	1.129322e+02
2.570000e-06	3.121964e-06	1.659343e-09	2.212282e+01	1.144650e+02
2.580000e-06	3.159372e-06	1.683643e-09	2.238790e+01	1.159483e+02
2.590000e-06	3.196543e-06	1.708653e-09	2.265130e+01	1.173831e+02
2.600000e-06	3.233469e-06	1.732271e-09	2.291296e+01	1.187703e+02
2.610000e-06	3.270169e-06	1.752458e-09	2.317303e+01	1.201114e+02
2.620000e-06	3.306608e-06	1.767997e-09	2.343124e+01	1.214073e+02
2.630000e-06	3.342816e-06	1.780225e-09	2.368782e+01	1.226595e+02
2.640000e-06	3.378832e-06	1.793142e-09	2.394304e+01	1.238692e+02
2.650000e-06	3.414763e-06	1.808788e-09	2.419765e+01	1.250376e+02
2.660000e-06	3.450630e-06	1.825265e-09	2.445181e+01	1.261660e+02
2.670000e-06	3.486353e-06	1.842426e-09	2.470495e+01	1.272556e+02
2.680000e-06	3.521943e-06	1.860505e-09	2.495714e+01	1.283076e+02
2.690000e-06	3.557362e-06	1.876748e-09	2.520813e+01	1.293232e+02
2.700000e-06	3.592434e-06	1.889733e-09	2.545666e+01	1.303034e+02
2.710000e-06	3.627096e-06	1.901311e-09	2.570228e+01	1.312492e+02
2.720000e-06	3.661285e-06	1.912880e-09	2.594455e+01	1.321616e+02
2.730000e-06	3.694910e-06	1.923703e-09	2.618282e+01	1.330415e+02
2.740000e-06	3.728144e-06	1.935221e-09	2.641832e+01	1.338897e+02
2.750000e-06	3.760994e-06	1.943718e-09	2.665111e+01	1.347070e+02
2.760000e-06	3.793452e-06	1.953718e-09	2.688111e+01	1.354941e+02
2.770000e-06	3.825646e-06	1.968823e-09	2.710924e+01	1.362517e+02
2.780000e-06	3.857641e-06	1.984621e-09	2.733596e+01	1.369805e+02
2.790000e-06	3.889515e-06	1.998031e-09	2.756183e+01	1.376810e+02
2.800000e-06	3.921250e-06	2.008293e-09	2.778671e+01	1.383540e+02
2.810000e-06	3.952839e-06	2.018988e-09	2.801055e+01	1.389999e+02
2.820000e-06	3.984236e-06	2.026891e-09	2.823304e+01	1.396194e+02
2.830000e-06	4.015263e-06	2.029091e-09	2.845290e+01	1.402132e+02
2.840000e-06	4.045923e-06	2.030403e-09	2.867017e+01	1.407818e+02
2.850000e-06	4.076331e-06	2.038724e-09	2.888565e+01	1.413260e+02
2.860000e-06	4.106490e-06	2.053625e-09	2.909936e+01	1.418465e+02
2.870000e-06	4.136413e-06	2.067991e-09	2.931140e+01	1.423441e+02
2.880000e-06	4.166078e-06	2.077379e-09	2.952161e+01	1.428195e+02
2.890000e-06	4.195502e-06	2.082960e-09	2.973011e+01	1.432737e+02
2.900000e-06	4.224590e-06	2.087314e-09	2.993623e+01	1.437075e+02
