# Temperatura_=_-2.29
# Concentracion g/m^3_=_4090.0
# C_Vs_to_Am_M_A/Vsm_=_65563218390.804596
# pendiente_HvsI_1/m_=_3716.3
# ordenada_HvsI_A/m_=_1297.0
# frecuencia_Hz_=_135067.41937277536

Tiempo_(s)	Campo_(V.s)	Magnetizacion_(V.s)	Campo_(kA/m)	Magnetizacion_(A/m)
0.000000e+00	-5.405812e-06	-2.240675e-09	-3.840171e+01	-1.463157e+02
1.000000e-08	-5.405992e-06	-2.237694e-09	-3.840298e+01	-1.462234e+02
2.000000e-08	-5.405973e-06	-2.239178e-09	-3.840285e+01	-1.461347e+02
3.000000e-08	-5.405722e-06	-2.238528e-09	-3.840107e+01	-1.460509e+02
4.000000e-08	-5.405099e-06	-2.234933e-09	-3.839664e+01	-1.459732e+02
5.000000e-08	-5.404009e-06	-2.235233e-09	-3.838890e+01	-1.459029e+02
6.000000e-08	-5.402393e-06	-2.242173e-09	-3.837742e+01	-1.458407e+02
7.000000e-08	-5.400110e-06	-2.237043e-09	-3.836120e+01	-1.457877e+02
8.000000e-08	-5.397152e-06	-2.207055e-09	-3.834019e+01	-1.457444e+02
9.000000e-08	-5.393653e-06	-2.190607e-09	-3.831533e+01	-1.457112e+02
1.000000e-07	-5.389679e-06	-2.274746e-09	-3.828710e+01	-1.456885e+02
1.100000e-07	-5.385396e-06	-2.345275e-09	-3.825668e+01	-1.456763e+02
1.200000e-07	-5.381004e-06	-2.258746e-09	-3.822547e+01	-1.456744e+02
1.300000e-07	-5.376403e-06	-2.125409e-09	-3.819279e+01	-1.456824e+02
1.400000e-07	-5.371416e-06	-2.238402e-09	-3.815737e+01	-1.456999e+02
1.500000e-07	-5.365995e-06	-2.338958e-09	-3.811885e+01	-1.457259e+02
1.600000e-07	-5.360177e-06	-2.245207e-09	-3.807753e+01	-1.457595e+02
1.700000e-07	-5.354008e-06	-2.068421e-09	-3.803370e+01	-1.457997e+02
1.800000e-07	-5.347492e-06	-2.228148e-09	-3.798742e+01	-1.458451e+02
1.900000e-07	-5.340478e-06	-2.393486e-09	-3.793759e+01	-1.458945e+02
2.000000e-07	-5.333060e-06	-2.312220e-09	-3.788489e+01	-1.459464e+02
2.100000e-07	-5.325482e-06	-2.194033e-09	-3.783106e+01	-1.459992e+02
2.200000e-07	-5.317780e-06	-2.301101e-09	-3.777635e+01	-1.460514e+02
2.300000e-07	-5.309829e-06	-2.378053e-09	-3.771986e+01	-1.461015e+02
2.400000e-07	-5.301497e-06	-2.261154e-09	-3.766068e+01	-1.461479e+02
2.500000e-07	-5.292688e-06	-2.255408e-09	-3.759810e+01	-1.461892e+02
2.600000e-07	-5.283303e-06	-2.360129e-09	-3.753143e+01	-1.462239e+02
2.700000e-07	-5.273286e-06	-2.362695e-09	-3.746027e+01	-1.462508e+02
2.800000e-07	-5.262610e-06	-2.247326e-09	-3.738443e+01	-1.462687e+02
2.900000e-07	-5.251420e-06	-2.320008e-09	-3.730494e+01	-1.462766e+02
3.000000e-07	-5.239781e-06	-2.370048e-09	-3.722226e+01	-1.462737e+02
3.100000e-07	-5.227718e-06	-2.268186e-09	-3.713657e+01	-1.462592e+02
3.200000e-07	-5.215272e-06	-2.198844e-09	-3.704815e+01	-1.462327e+02
3.300000e-07	-5.202489e-06	-2.344300e-09	-3.695734e+01	-1.461940e+02
3.400000e-07	-5.189327e-06	-2.338546e-09	-3.686384e+01	-1.461428e+02
3.500000e-07	-5.175715e-06	-2.241157e-09	-3.676715e+01	-1.460793e+02
3.600000e-07	-5.161701e-06	-2.252182e-09	-3.666760e+01	-1.460037e+02
3.700000e-07	-5.147411e-06	-2.343443e-09	-3.656608e+01	-1.459165e+02
3.800000e-07	-5.132737e-06	-2.270272e-09	-3.646184e+01	-1.458183e+02
3.900000e-07	-5.117392e-06	-2.248019e-09	-3.635283e+01	-1.457097e+02
4.000000e-07	-5.101432e-06	-2.284678e-09	-3.623946e+01	-1.455918e+02
4.100000e-07	-5.085049e-06	-2.270500e-09	-3.612308e+01	-1.454655e+02
4.200000e-07	-5.068250e-06	-2.234583e-09	-3.600374e+01	-1.453317e+02
4.300000e-07	-5.051110e-06	-2.296625e-09	-3.588198e+01	-1.451918e+02
4.400000e-07	-5.033751e-06	-2.291652e-09	-3.575867e+01	-1.450467e+02
4.500000e-07	-5.016147e-06	-2.224149e-09	-3.563361e+01	-1.448976e+02
4.600000e-07	-4.998222e-06	-2.249651e-09	-3.550628e+01	-1.447458e+02
4.700000e-07	-4.979983e-06	-2.297836e-09	-3.537671e+01	-1.445923e+02
4.800000e-07	-4.961283e-06	-2.259034e-09	-3.524387e+01	-1.444383e+02
4.900000e-07	-4.942080e-06	-2.225624e-09	-3.510746e+01	-1.442846e+02
5.000000e-07	-4.922557e-06	-2.264559e-09	-3.496877e+01	-1.441323e+02
5.100000e-07	-4.902805e-06	-2.269949e-09	-3.482845e+01	-1.439820e+02
5.200000e-07	-4.882875e-06	-2.260664e-09	-3.468688e+01	-1.438346e+02
5.300000e-07	-4.862730e-06	-2.244150e-09	-3.454377e+01	-1.436905e+02
5.400000e-07	-4.842326e-06	-2.233569e-09	-3.439883e+01	-1.435502e+02
5.500000e-07	-4.821580e-06	-2.228942e-09	-3.425145e+01	-1.434140e+02
5.600000e-07	-4.800429e-06	-2.256642e-09	-3.410120e+01	-1.432820e+02
5.700000e-07	-4.778886e-06	-2.235556e-09	-3.394816e+01	-1.431542e+02
5.800000e-07	-4.757024e-06	-2.221094e-09	-3.379286e+01	-1.430307e+02
5.900000e-07	-4.734856e-06	-2.234542e-09	-3.363538e+01	-1.429110e+02
6.000000e-07	-4.712373e-06	-2.257436e-09	-3.347567e+01	-1.427950e+02
6.100000e-07	-4.689579e-06	-2.229478e-09	-3.331374e+01	-1.426822e+02
6.200000e-07	-4.666463e-06	-2.208961e-09	-3.314953e+01	-1.425721e+02
6.300000e-07	-4.642974e-06	-2.198940e-09	-3.298267e+01	-1.424640e+02
6.400000e-07	-4.619218e-06	-2.221192e-09	-3.281392e+01	-1.423574e+02
6.500000e-07	-4.595340e-06	-2.230813e-09	-3.264429e+01	-1.422517e+02
6.600000e-07	-4.571271e-06	-2.222359e-09	-3.247331e+01	-1.421460e+02
6.700000e-07	-4.546878e-06	-2.206609e-09	-3.230003e+01	-1.420397e+02
6.800000e-07	-4.522054e-06	-2.225656e-09	-3.212369e+01	-1.419321e+02
6.900000e-07	-4.496785e-06	-2.226479e-09	-3.194418e+01	-1.418225e+02
7.000000e-07	-4.471148e-06	-2.201898e-09	-3.176206e+01	-1.417104e+02
7.100000e-07	-4.445040e-06	-2.180011e-09	-3.157659e+01	-1.415950e+02
7.200000e-07	-4.418388e-06	-2.190800e-09	-3.138726e+01	-1.414760e+02
7.300000e-07	-4.391229e-06	-2.206712e-09	-3.119433e+01	-1.413527e+02
7.400000e-07	-4.363641e-06	-2.207561e-09	-3.099835e+01	-1.412248e+02
7.500000e-07	-4.335807e-06	-2.195501e-09	-3.080063e+01	-1.410921e+02
7.600000e-07	-4.307841e-06	-2.193185e-09	-3.060196e+01	-1.409541e+02
7.700000e-07	-4.279724e-06	-2.203423e-09	-3.040222e+01	-1.408109e+02
7.800000e-07	-4.251370e-06	-2.196612e-09	-3.020080e+01	-1.406622e+02
7.900000e-07	-4.222775e-06	-2.176736e-09	-2.999767e+01	-1.405081e+02
8.000000e-07	-4.193868e-06	-2.166160e-09	-2.979232e+01	-1.403487e+02
8.100000e-07	-4.164588e-06	-2.176324e-09	-2.958433e+01	-1.401840e+02
8.200000e-07	-4.134977e-06	-2.179576e-09	-2.937397e+01	-1.400143e+02
8.300000e-07	-4.105090e-06	-2.174144e-09	-2.916166e+01	-1.398398e+02
8.400000e-07	-4.074922e-06	-2.162843e-09	-2.894736e+01	-1.396607e+02
8.500000e-07	-4.044513e-06	-2.168940e-09	-2.873133e+01	-1.394775e+02
8.600000e-07	-4.013895e-06	-2.169623e-09	-2.851383e+01	-1.392904e+02
8.700000e-07	-3.982976e-06	-2.159053e-09	-2.829419e+01	-1.390999e+02
8.800000e-07	-3.951770e-06	-2.138017e-09	-2.807251e+01	-1.389062e+02
8.900000e-07	-3.920313e-06	-2.136560e-09	-2.784904e+01	-1.387098e+02
9.000000e-07	-3.888650e-06	-2.141657e-09	-2.762412e+01	-1.385112e+02
9.100000e-07	-3.856865e-06	-2.142302e-09	-2.739833e+01	-1.383105e+02
9.200000e-07	-3.824921e-06	-2.125830e-09	-2.717140e+01	-1.381083e+02
9.300000e-07	-3.792781e-06	-2.121044e-09	-2.694309e+01	-1.379047e+02
9.400000e-07	-3.760394e-06	-2.122234e-09	-2.671302e+01	-1.377002e+02
9.500000e-07	-3.727767e-06	-2.120324e-09	-2.648124e+01	-1.374949e+02
9.600000e-07	-3.694859e-06	-2.106015e-09	-2.624747e+01	-1.372892e+02
9.700000e-07	-3.661503e-06	-2.101165e-09	-2.601052e+01	-1.370831e+02
9.800000e-07	-3.627662e-06	-2.104436e-09	-2.577012e+01	-1.368769e+02
9.900000e-07	-3.593369e-06	-2.105688e-09	-2.552651e+01	-1.366706e+02
1.000000e-06	-3.558643e-06	-2.092885e-09	-2.527982e+01	-1.364643e+02
1.010000e-06	-3.523574e-06	-2.083078e-09	-2.503070e+01	-1.362580e+02
1.020000e-06	-3.488275e-06	-2.082110e-09	-2.477994e+01	-1.360518e+02
1.030000e-06	-3.452698e-06	-2.081015e-09	-2.452721e+01	-1.358455e+02
1.040000e-06	-3.416863e-06	-2.074346e-09	-2.427265e+01	-1.356390e+02
1.050000e-06	-3.380866e-06	-2.070246e-09	-2.401693e+01	-1.354323e+02
1.060000e-06	-3.344779e-06	-2.072328e-09	-2.376058e+01	-1.352250e+02
1.070000e-06	-3.308541e-06	-2.074474e-09	-2.350316e+01	-1.350171e+02
1.080000e-06	-3.272064e-06	-2.068735e-09	-2.324403e+01	-1.348083e+02
1.090000e-06	-3.235339e-06	-2.054644e-09	-2.298314e+01	-1.345983e+02
1.100000e-06	-3.198416e-06	-2.046979e-09	-2.272085e+01	-1.343867e+02
1.110000e-06	-3.161325e-06	-2.045835e-09	-2.245736e+01	-1.341734e+02
1.120000e-06	-3.123952e-06	-2.043662e-09	-2.219187e+01	-1.339578e+02
1.130000e-06	-3.086384e-06	-2.033512e-09	-2.192499e+01	-1.337397e+02
1.140000e-06	-3.048653e-06	-2.029325e-09	-2.165697e+01	-1.335185e+02
1.150000e-06	-3.010649e-06	-2.029535e-09	-2.138699e+01	-1.332940e+02
1.160000e-06	-2.972422e-06	-2.028301e-09	-2.111543e+01	-1.330656e+02
1.170000e-06	-2.934028e-06	-2.017798e-09	-2.084270e+01	-1.328329e+02
1.180000e-06	-2.895449e-06	-2.008222e-09	-2.056864e+01	-1.325954e+02
1.190000e-06	-2.856561e-06	-2.001007e-09	-2.029238e+01	-1.323526e+02
1.200000e-06	-2.817446e-06	-1.997231e-09	-2.001452e+01	-1.321041e+02
1.210000e-06	-2.778238e-06	-1.988035e-09	-1.973599e+01	-1.318494e+02
1.220000e-06	-2.738788e-06	-1.983075e-09	-1.945575e+01	-1.315880e+02
1.230000e-06	-2.699165e-06	-1.983173e-09	-1.917428e+01	-1.313194e+02
1.240000e-06	-2.659500e-06	-1.984053e-09	-1.889251e+01	-1.310432e+02
1.250000e-06	-2.619726e-06	-1.976251e-09	-1.860996e+01	-1.307589e+02
1.260000e-06	-2.579791e-06	-1.967640e-09	-1.832627e+01	-1.304660e+02
1.270000e-06	-2.539709e-06	-1.958263e-09	-1.804154e+01	-1.301643e+02
1.280000e-06	-2.499468e-06	-1.950131e-09	-1.775567e+01	-1.298532e+02
1.290000e-06	-2.459123e-06	-1.942547e-09	-1.746907e+01	-1.295326e+02
1.300000e-06	-2.418670e-06	-1.938117e-09	-1.718171e+01	-1.292020e+02
1.310000e-06	-2.378082e-06	-1.936504e-09	-1.689337e+01	-1.288612e+02
1.320000e-06	-2.337326e-06	-1.933789e-09	-1.660385e+01	-1.285101e+02
1.330000e-06	-2.296380e-06	-1.928042e-09	-1.631298e+01	-1.281485e+02
1.340000e-06	-2.255200e-06	-1.920914e-09	-1.602044e+01	-1.277762e+02
1.350000e-06	-2.213761e-06	-1.914330e-09	-1.572608e+01	-1.273933e+02
1.360000e-06	-2.172014e-06	-1.906640e-09	-1.542951e+01	-1.269996e+02
1.370000e-06	-2.129878e-06	-1.897161e-09	-1.513019e+01	-1.265954e+02
1.380000e-06	-2.087533e-06	-1.886703e-09	-1.482938e+01	-1.261805e+02
1.390000e-06	-2.044931e-06	-1.879970e-09	-1.452674e+01	-1.257553e+02
1.400000e-06	-2.001985e-06	-1.875820e-09	-1.422166e+01	-1.253199e+02
1.410000e-06	-1.958843e-06	-1.871690e-09	-1.391520e+01	-1.248744e+02
1.420000e-06	-1.915571e-06	-1.866138e-09	-1.360780e+01	-1.244190e+02
1.430000e-06	-1.872168e-06	-1.860755e-09	-1.329947e+01	-1.239542e+02
1.440000e-06	-1.828678e-06	-1.851050e-09	-1.299053e+01	-1.234800e+02
1.450000e-06	-1.785114e-06	-1.837246e-09	-1.268106e+01	-1.229967e+02
1.460000e-06	-1.741370e-06	-1.823612e-09	-1.237031e+01	-1.225046e+02
1.470000e-06	-1.697517e-06	-1.814855e-09	-1.205879e+01	-1.220039e+02
1.480000e-06	-1.653617e-06	-1.806638e-09	-1.174693e+01	-1.214946e+02
1.490000e-06	-1.609617e-06	-1.798555e-09	-1.143437e+01	-1.209771e+02
1.500000e-06	-1.565504e-06	-1.790025e-09	-1.112100e+01	-1.204512e+02
1.510000e-06	-1.521291e-06	-1.784182e-09	-1.080692e+01	-1.199169e+02
1.520000e-06	-1.477065e-06	-1.776733e-09	-1.049275e+01	-1.193743e+02
1.530000e-06	-1.432780e-06	-1.764440e-09	-1.017816e+01	-1.188230e+02
1.540000e-06	-1.388465e-06	-1.750028e-09	-9.863352e+00	-1.182629e+02
1.550000e-06	-1.344162e-06	-1.738563e-09	-9.548630e+00	-1.176935e+02
1.560000e-06	-1.299730e-06	-1.728948e-09	-9.233001e+00	-1.171144e+02
1.570000e-06	-1.255203e-06	-1.721115e-09	-8.916691e+00	-1.165249e+02
1.580000e-06	-1.210632e-06	-1.713445e-09	-8.600065e+00	-1.159245e+02
1.590000e-06	-1.165967e-06	-1.706157e-09	-8.282775e+00	-1.153122e+02
1.600000e-06	-1.121195e-06	-1.697409e-09	-7.964722e+00	-1.146872e+02
1.610000e-06	-1.076353e-06	-1.686088e-09	-7.646175e+00	-1.140485e+02
1.620000e-06	-1.031398e-06	-1.670883e-09	-7.326827e+00	-1.133951e+02
1.630000e-06	-9.862972e-07	-1.656806e-09	-7.006439e+00	-1.127256e+02
1.640000e-06	-9.411829e-07	-1.643532e-09	-6.685957e+00	-1.120389e+02
1.650000e-06	-8.960412e-07	-1.631620e-09	-6.365281e+00	-1.113337e+02
1.660000e-06	-8.507652e-07	-1.622925e-09	-6.043650e+00	-1.106087e+02
1.670000e-06	-8.054133e-07	-1.615837e-09	-5.721480e+00	-1.098623e+02
1.680000e-06	-7.599876e-07	-1.608570e-09	-5.398786e+00	-1.090933e+02
1.690000e-06	-7.144599e-07	-1.596566e-09	-5.075367e+00	-1.083001e+02
1.700000e-06	-6.688645e-07	-1.580108e-09	-4.751467e+00	-1.074813e+02
1.710000e-06	-6.232390e-07	-1.561737e-09	-4.427353e+00	-1.066356e+02
1.720000e-06	-5.776258e-07	-1.545756e-09	-4.103328e+00	-1.057613e+02
1.730000e-06	-5.319657e-07	-1.533100e-09	-3.778968e+00	-1.048573e+02
1.740000e-06	-4.862820e-07	-1.520547e-09	-3.454441e+00	-1.039220e+02
1.750000e-06	-4.405878e-07	-1.508159e-09	-3.129840e+00	-1.029542e+02
1.760000e-06	-3.948738e-07	-1.498843e-09	-2.805098e+00	-1.019525e+02
1.770000e-06	-3.491418e-07	-1.485753e-09	-2.480227e+00	-1.009157e+02
1.780000e-06	-3.033133e-07	-1.466311e-09	-2.154671e+00	-9.984265e+01
1.790000e-06	-2.574546e-07	-1.443166e-09	-1.828901e+00	-9.873204e+01
1.800000e-06	-2.116243e-07	-1.423308e-09	-1.503333e+00	-9.758274e+01
1.810000e-06	-1.657794e-07	-1.406404e-09	-1.177661e+00	-9.639362e+01
1.820000e-06	-1.199172e-07	-1.390337e-09	-8.518658e-01	-9.516354e+01
1.830000e-06	-7.401871e-08	-1.371826e-09	-5.258127e-01	-9.389135e+01
1.840000e-06	-2.814354e-08	-1.353112e-09	-1.999256e-01	-9.257591e+01
1.850000e-06	1.766112e-08	-1.334728e-09	1.254607e-01	-9.121605e+01
1.860000e-06	6.346206e-08	-1.313680e-09	4.508206e-01	-8.981056e+01
1.870000e-06	1.092560e-07	-1.287275e-09	7.761304e-01	-8.835818e+01
1.880000e-06	1.550218e-07	-1.260296e-09	1.101241e+00	-8.685759e+01
1.890000e-06	2.007481e-07	-1.236778e-09	1.426071e+00	-8.530741e+01
1.900000e-06	2.464918e-07	-1.212979e-09	1.751024e+00	-8.370616e+01
1.910000e-06	2.922841e-07	-1.185771e-09	2.076322e+00	-8.205232e+01
1.920000e-06	3.380823e-07	-1.159907e-09	2.401663e+00	-8.034424e+01
1.930000e-06	3.838756e-07	-1.138540e-09	2.726968e+00	-7.858022e+01
1.940000e-06	4.296639e-07	-1.117640e-09	3.052239e+00	-7.675844e+01
1.950000e-06	4.753928e-07	-1.091405e-09	3.377087e+00	-7.487705e+01
1.960000e-06	5.210271e-07	-1.059594e-09	3.701263e+00	-7.293412e+01
1.970000e-06	5.665997e-07	-1.028882e-09	4.025000e+00	-7.092765e+01
1.980000e-06	6.122402e-07	-9.996767e-10	4.349220e+00	-6.885566e+01
1.990000e-06	6.579256e-07	-9.678449e-10	4.673760e+00	-6.671613e+01
2.000000e-06	7.034686e-07	-9.345423e-10	4.997287e+00	-6.450709e+01
2.010000e-06	7.488414e-07	-9.027687e-10	5.319606e+00	-6.222662e+01
2.020000e-06	7.941318e-07	-8.722173e-10	5.641339e+00	-5.987288e+01
2.030000e-06	8.394164e-07	-8.400815e-10	5.963030e+00	-5.744419e+01
2.040000e-06	8.846746e-07	-8.025149e-10	6.284535e+00	-5.493901e+01
2.050000e-06	9.299159e-07	-7.618328e-10	6.605919e+00	-5.235604e+01
2.060000e-06	9.750762e-07	-7.226556e-10	6.926728e+00	-4.969420e+01
2.070000e-06	1.020126e-06	-6.843542e-10	7.246751e+00	-4.695274e+01
2.080000e-06	1.065074e-06	-6.418593e-10	7.566050e+00	-4.413123e+01
2.090000e-06	1.109896e-06	-5.969943e-10	7.884460e+00	-4.122962e+01
2.100000e-06	1.154626e-06	-5.552008e-10	8.202211e+00	-3.824827e+01
2.110000e-06	1.199276e-06	-5.167277e-10	8.519394e+00	-3.518800e+01
2.120000e-06	1.243827e-06	-4.728014e-10	8.835876e+00	-3.205011e+01
2.130000e-06	1.288287e-06	-4.231535e-10	9.151707e+00	-2.883640e+01
2.140000e-06	1.332643e-06	-3.730099e-10	9.466806e+00	-2.554918e+01
2.150000e-06	1.376880e-06	-3.241509e-10	9.781057e+00	-2.219133e+01
2.160000e-06	1.421101e-06	-2.730722e-10	1.009519e+01	-1.876625e+01
2.170000e-06	1.465327e-06	-2.181826e-10	1.040936e+01	-1.527788e+01
2.180000e-06	1.509515e-06	-1.646492e-10	1.072326e+01	-1.173071e+01
2.190000e-06	1.553679e-06	-1.167388e-10	1.103700e+01	-8.129750e+00
2.200000e-06	1.597763e-06	-6.798640e-11	1.135016e+01	-4.480497e+00
2.210000e-06	1.641778e-06	-1.286230e-11	1.166283e+01	-7.889182e-01
2.220000e-06	1.685763e-06	4.665838e-11	1.197529e+01	2.938591e+00
2.230000e-06	1.729680e-06	1.050364e-10	1.228727e+01	6.695254e+00
2.240000e-06	1.773482e-06	1.625304e-10	1.259843e+01	1.047396e+01
2.250000e-06	1.817176e-06	2.222487e-10	1.290882e+01	1.426733e+01
2.260000e-06	1.860826e-06	2.800054e-10	1.321890e+01	1.806777e+01
2.270000e-06	1.904335e-06	3.334522e-10	1.352798e+01	2.186753e+01
2.280000e-06	1.947545e-06	3.823622e-10	1.383493e+01	2.565881e+01
2.290000e-06	1.990520e-06	4.341697e-10	1.414022e+01	2.943377e+01
2.300000e-06	2.033341e-06	4.933126e-10	1.444441e+01	3.318465e+01
2.310000e-06	2.075868e-06	5.550006e-10	1.474651e+01	3.690384e+01
2.320000e-06	2.118125e-06	6.128930e-10	1.504670e+01	4.058392e+01
2.330000e-06	2.160227e-06	6.679952e-10	1.534578e+01	4.421775e+01
2.340000e-06	2.202121e-06	7.204600e-10	1.564338e+01	4.779855e+01
2.350000e-06	2.243679e-06	7.681344e-10	1.593860e+01	5.131990e+01
2.360000e-06	2.284880e-06	8.108681e-10	1.623129e+01	5.477588e+01
2.370000e-06	2.325871e-06	8.558535e-10	1.652248e+01	5.816104e+01
2.380000e-06	2.366650e-06	9.039608e-10	1.681216e+01	6.147048e+01
2.390000e-06	2.407196e-06	9.525081e-10	1.710019e+01	6.469989e+01
2.400000e-06	2.447569e-06	9.986722e-10	1.738700e+01	6.784555e+01
2.410000e-06	2.487819e-06	1.041783e-09	1.767292e+01	7.090437e+01
2.420000e-06	2.527992e-06	1.084112e-09	1.795830e+01	7.387386e+01
2.430000e-06	2.568060e-06	1.124280e-09	1.824293e+01	7.675219e+01
2.440000e-06	2.608009e-06	1.160500e-09	1.852673e+01	7.953812e+01
2.450000e-06	2.647825e-06	1.196527e-09	1.880957e+01	8.223103e+01
2.460000e-06	2.687542e-06	1.235804e-09	1.909171e+01	8.483087e+01
2.470000e-06	2.727205e-06	1.273929e-09	1.937347e+01	8.733811e+01
2.480000e-06	2.766706e-06	1.306551e-09	1.965407e+01	8.975376e+01
2.490000e-06	2.805938e-06	1.336133e-09	1.993277e+01	9.207927e+01
2.500000e-06	2.844858e-06	1.366930e-09	2.020925e+01	9.431650e+01
2.510000e-06	2.883545e-06	1.398965e-09	2.048408e+01	9.646767e+01
2.520000e-06	2.922067e-06	1.428053e-09	2.075773e+01	9.853531e+01
2.530000e-06	2.960389e-06	1.455853e-09	2.102996e+01	1.005222e+02
2.540000e-06	2.998507e-06	1.487637e-09	2.130074e+01	1.024313e+02
2.550000e-06	3.036413e-06	1.518268e-09	2.157001e+01	1.042657e+02
2.560000e-06	3.074179e-06	1.545012e-09	2.183830e+01	1.060286e+02
2.570000e-06	3.111771e-06	1.564898e-09	2.210534e+01	1.077233e+02
2.580000e-06	3.149122e-06	1.584956e-09	2.237068e+01	1.093528e+02
2.590000e-06	3.186199e-06	1.608252e-09	2.263406e+01	1.109203e+02
2.600000e-06	3.222962e-06	1.629097e-09	2.289522e+01	1.124288e+02
2.610000e-06	3.259496e-06	1.646567e-09	2.315475e+01	1.138812e+02
2.620000e-06	3.295842e-06	1.666499e-09	2.341294e+01	1.152802e+02
2.630000e-06	3.332064e-06	1.689872e-09	2.367026e+01	1.166283e+02
2.640000e-06	3.368198e-06	1.710840e-09	2.392694e+01	1.179278e+02
2.650000e-06	3.404185e-06	1.725838e-09	2.418259e+01	1.191808e+02
2.660000e-06	3.440040e-06	1.739076e-09	2.443729e+01	1.203892e+02
2.670000e-06	3.475784e-06	1.755920e-09	2.469121e+01	1.215545e+02
2.680000e-06	3.511343e-06	1.774250e-09	2.494382e+01	1.226783e+02
2.690000e-06	3.546596e-06	1.788307e-09	2.519424e+01	1.237618e+02
2.700000e-06	3.581439e-06	1.799003e-09	2.544176e+01	1.248059e+02
2.710000e-06	3.615827e-06	1.814218e-09	2.568604e+01	1.258117e+02
2.720000e-06	3.649656e-06	1.833416e-09	2.592636e+01	1.267799e+02
2.730000e-06	3.682989e-06	1.849286e-09	2.616315e+01	1.277110e+02
2.740000e-06	3.715931e-06	1.859384e-09	2.639716e+01	1.286057e+02
2.750000e-06	3.748484e-06	1.870281e-09	2.662841e+01	1.294645e+02
2.760000e-06	3.780828e-06	1.885027e-09	2.685817e+01	1.302879e+02
2.770000e-06	3.813045e-06	1.897665e-09	2.708704e+01	1.310763e+02
2.780000e-06	3.845131e-06	1.904024e-09	2.731497e+01	1.318302e+02
2.790000e-06	3.877107e-06	1.911424e-09	2.754212e+01	1.325502e+02
2.800000e-06	3.908923e-06	1.924073e-09	2.776814e+01	1.332369e+02
2.810000e-06	3.940504e-06	1.937566e-09	2.799248e+01	1.338910e+02
2.820000e-06	3.971767e-06	1.946298e-09	2.821457e+01	1.345133e+02
2.830000e-06	4.002657e-06	1.951659e-09	2.843400e+01	1.351046e+02
2.840000e-06	4.033235e-06	1.961517e-09	2.865122e+01	1.356661e+02
2.850000e-06	4.063532e-06	1.974838e-09	2.886644e+01	1.361988e+02
2.860000e-06	4.093587e-06	1.984338e-09	2.907995e+01	1.367040e+02
2.870000e-06	4.123442e-06	1.989484e-09	2.929203e+01	1.371829e+02
2.880000e-06	4.153067e-06	1.996349e-09	2.950248e+01	1.376370e+02
2.890000e-06	4.182455e-06	2.003377e-09	2.971125e+01	1.380678e+02
2.900000e-06	4.211511e-06	2.003551e-09	2.991766e+01	1.384767e+02
