# Temperatura_=_19.24
# Concentracion g/m^3_=_4090.0
# C_Vs_to_Am_M_A/Vsm_=_65563218390.804596
# pendiente_HvsI_1/m_=_3716.3
# ordenada_HvsI_A/m_=_1297.0
# frecuencia_Hz_=_135077.2336067312

Tiempo_(s)	Campo_(V.s)	Magnetizacion_(V.s)	Campo_(kA/m)	Magnetizacion_(A/m)
0.000000e+00	-5.428029e-06	-2.348953e-09	-3.839508e+01	-1.519693e+02
1.000000e-08	-5.428058e-06	-2.348395e-09	-3.839528e+01	-1.517971e+02
2.000000e-08	-5.427807e-06	-2.348495e-09	-3.839351e+01	-1.516218e+02
3.000000e-08	-5.427221e-06	-2.345978e-09	-3.838936e+01	-1.514453e+02
4.000000e-08	-5.426154e-06	-2.341744e-09	-3.838182e+01	-1.512695e+02
5.000000e-08	-5.424458e-06	-2.340327e-09	-3.836982e+01	-1.510964e+02
6.000000e-08	-5.422162e-06	-2.340054e-09	-3.835358e+01	-1.509280e+02
7.000000e-08	-5.419352e-06	-2.327181e-09	-3.833370e+01	-1.507662e+02
8.000000e-08	-5.415984e-06	-2.312964e-09	-3.830988e+01	-1.506128e+02
9.000000e-08	-5.412018e-06	-2.360614e-09	-3.828183e+01	-1.504696e+02
1.000000e-07	-5.407670e-06	-2.424987e-09	-3.825107e+01	-1.503381e+02
1.100000e-07	-5.403223e-06	-2.358680e-09	-3.821961e+01	-1.502198e+02
1.200000e-07	-5.398665e-06	-2.259330e-09	-3.818737e+01	-1.501157e+02
1.300000e-07	-5.393748e-06	-2.303063e-09	-3.815259e+01	-1.500269e+02
1.400000e-07	-5.388382e-06	-2.415148e-09	-3.811463e+01	-1.499539e+02
1.500000e-07	-5.382670e-06	-2.341898e-09	-3.807423e+01	-1.498973e+02
1.600000e-07	-5.376628e-06	-2.176625e-09	-3.803150e+01	-1.498571e+02
1.700000e-07	-5.370120e-06	-2.255519e-09	-3.798546e+01	-1.498331e+02
1.800000e-07	-5.363155e-06	-2.396593e-09	-3.793619e+01	-1.498248e+02
1.900000e-07	-5.355861e-06	-2.359796e-09	-3.788460e+01	-1.498316e+02
2.000000e-07	-5.348414e-06	-2.227621e-09	-3.783193e+01	-1.498523e+02
2.100000e-07	-5.340753e-06	-2.288063e-09	-3.777774e+01	-1.498857e+02
2.200000e-07	-5.332755e-06	-2.362096e-09	-3.772116e+01	-1.499303e+02
2.300000e-07	-5.324417e-06	-2.304740e-09	-3.766218e+01	-1.499842e+02
2.400000e-07	-5.315557e-06	-2.263409e-09	-3.759951e+01	-1.500457e+02
2.500000e-07	-5.305983e-06	-2.340889e-09	-3.753179e+01	-1.501126e+02
2.600000e-07	-5.295709e-06	-2.361068e-09	-3.745912e+01	-1.501828e+02
2.700000e-07	-5.285004e-06	-2.298508e-09	-3.738339e+01	-1.502539e+02
2.800000e-07	-5.273932e-06	-2.324439e-09	-3.730508e+01	-1.503237e+02
2.900000e-07	-5.262417e-06	-2.379086e-09	-3.722363e+01	-1.503899e+02
3.000000e-07	-5.250505e-06	-2.310248e-09	-3.713937e+01	-1.504502e+02
3.100000e-07	-5.238193e-06	-2.258757e-09	-3.705228e+01	-1.505024e+02
3.200000e-07	-5.225482e-06	-2.360704e-09	-3.696237e+01	-1.505446e+02
3.300000e-07	-5.212444e-06	-2.378902e-09	-3.687014e+01	-1.505747e+02
3.400000e-07	-5.199013e-06	-2.288835e-09	-3.677514e+01	-1.505911e+02
3.500000e-07	-5.185183e-06	-2.291874e-09	-3.667731e+01	-1.505923e+02
3.600000e-07	-5.171028e-06	-2.364597e-09	-3.657719e+01	-1.505768e+02
3.700000e-07	-5.156472e-06	-2.312920e-09	-3.647423e+01	-1.505438e+02
3.800000e-07	-5.141237e-06	-2.269097e-09	-3.636646e+01	-1.504923e+02
3.900000e-07	-5.125328e-06	-2.307439e-09	-3.625393e+01	-1.504219e+02
4.000000e-07	-5.108986e-06	-2.314367e-09	-3.613834e+01	-1.503324e+02
4.100000e-07	-5.092317e-06	-2.276791e-09	-3.602043e+01	-1.502236e+02
4.200000e-07	-5.075317e-06	-2.306386e-09	-3.590018e+01	-1.500960e+02
4.300000e-07	-5.057958e-06	-2.306958e-09	-3.577739e+01	-1.499500e+02
4.400000e-07	-5.040307e-06	-2.263447e-09	-3.565253e+01	-1.497864e+02
4.500000e-07	-5.022430e-06	-2.268153e-09	-3.552608e+01	-1.496061e+02
4.600000e-07	-5.004199e-06	-2.306728e-09	-3.539713e+01	-1.494103e+02
4.700000e-07	-4.985495e-06	-2.274946e-09	-3.526482e+01	-1.492002e+02
4.800000e-07	-4.966352e-06	-2.257057e-09	-3.512942e+01	-1.489774e+02
4.900000e-07	-4.946905e-06	-2.281684e-09	-3.499185e+01	-1.487433e+02
5.000000e-07	-4.927240e-06	-2.285265e-09	-3.485276e+01	-1.484994e+02
5.100000e-07	-4.907297e-06	-2.261655e-09	-3.471169e+01	-1.482475e+02
5.200000e-07	-4.887113e-06	-2.263207e-09	-3.456892e+01	-1.479891e+02
5.300000e-07	-4.866737e-06	-2.259710e-09	-3.442479e+01	-1.477258e+02
5.400000e-07	-4.846109e-06	-2.255315e-09	-3.427888e+01	-1.474591e+02
5.500000e-07	-4.825009e-06	-2.260064e-09	-3.412963e+01	-1.471903e+02
5.600000e-07	-4.803475e-06	-2.250980e-09	-3.397731e+01	-1.469209e+02
5.700000e-07	-4.781663e-06	-2.231738e-09	-3.382302e+01	-1.466520e+02
5.800000e-07	-4.759572e-06	-2.232343e-09	-3.366676e+01	-1.463846e+02
5.900000e-07	-4.737180e-06	-2.238273e-09	-3.350837e+01	-1.461194e+02
6.000000e-07	-4.714386e-06	-2.224153e-09	-3.334713e+01	-1.458573e+02
6.100000e-07	-4.691252e-06	-2.210396e-09	-3.318350e+01	-1.455987e+02
6.200000e-07	-4.667838e-06	-2.205396e-09	-3.301788e+01	-1.453438e+02
6.300000e-07	-4.644155e-06	-2.209364e-09	-3.285036e+01	-1.450928e+02
6.400000e-07	-4.620289e-06	-2.208891e-09	-3.268154e+01	-1.448456e+02
6.500000e-07	-4.596206e-06	-2.202973e-09	-3.251119e+01	-1.446020e+02
6.600000e-07	-4.571844e-06	-2.198160e-09	-3.233887e+01	-1.443616e+02
6.700000e-07	-4.547089e-06	-2.208420e-09	-3.216376e+01	-1.441239e+02
6.800000e-07	-4.521907e-06	-2.207797e-09	-3.198564e+01	-1.438882e+02
6.900000e-07	-4.496221e-06	-2.195454e-09	-3.180395e+01	-1.436538e+02
7.000000e-07	-4.469907e-06	-2.176920e-09	-3.161782e+01	-1.434199e+02
7.100000e-07	-4.443049e-06	-2.171878e-09	-3.142784e+01	-1.431857e+02
7.200000e-07	-4.415913e-06	-2.170920e-09	-3.123589e+01	-1.429501e+02
7.300000e-07	-4.388523e-06	-2.174749e-09	-3.104215e+01	-1.427124e+02
7.400000e-07	-4.360826e-06	-2.172664e-09	-3.084623e+01	-1.424717e+02
7.500000e-07	-4.332936e-06	-2.177194e-09	-3.064896e+01	-1.422270e+02
7.600000e-07	-4.304911e-06	-2.177389e-09	-3.045072e+01	-1.419775e+02
7.700000e-07	-4.276682e-06	-2.168109e-09	-3.025105e+01	-1.417227e+02
7.800000e-07	-4.248144e-06	-2.148658e-09	-3.004918e+01	-1.414617e+02
7.900000e-07	-4.219207e-06	-2.138265e-09	-2.984450e+01	-1.411940e+02
8.000000e-07	-4.189854e-06	-2.137067e-09	-2.963687e+01	-1.409192e+02
8.100000e-07	-4.160185e-06	-2.140229e-09	-2.942700e+01	-1.406370e+02
8.200000e-07	-4.130282e-06	-2.141017e-09	-2.921548e+01	-1.403471e+02
8.300000e-07	-4.100207e-06	-2.141801e-09	-2.900275e+01	-1.400494e+02
8.400000e-07	-4.069898e-06	-2.139962e-09	-2.878836e+01	-1.397440e+02
8.500000e-07	-4.039089e-06	-2.133311e-09	-2.857043e+01	-1.394308e+02
8.600000e-07	-4.007985e-06	-2.115708e-09	-2.835042e+01	-1.391102e+02
8.700000e-07	-3.976718e-06	-2.098455e-09	-2.812925e+01	-1.387824e+02
8.800000e-07	-3.945149e-06	-2.092463e-09	-2.790595e+01	-1.384478e+02
8.900000e-07	-3.913453e-06	-2.097129e-09	-2.768175e+01	-1.381069e+02
9.000000e-07	-3.881709e-06	-2.100964e-09	-2.745721e+01	-1.377601e+02
9.100000e-07	-3.849778e-06	-2.095082e-09	-2.723134e+01	-1.374079e+02
9.200000e-07	-3.817569e-06	-2.086333e-09	-2.700352e+01	-1.370508e+02
9.300000e-07	-3.785070e-06	-2.076980e-09	-2.677363e+01	-1.366895e+02
9.400000e-07	-3.752211e-06	-2.066841e-09	-2.654121e+01	-1.363245e+02
9.500000e-07	-3.719044e-06	-2.053227e-09	-2.630660e+01	-1.359562e+02
9.600000e-07	-3.685513e-06	-2.045687e-09	-2.606942e+01	-1.355851e+02
9.700000e-07	-3.651472e-06	-2.044449e-09	-2.582863e+01	-1.352117e+02
9.800000e-07	-3.616900e-06	-2.045137e-09	-2.558408e+01	-1.348363e+02
9.900000e-07	-3.582028e-06	-2.035943e-09	-2.533742e+01	-1.344591e+02
1.000000e-06	-3.546965e-06	-2.024161e-09	-2.508940e+01	-1.340805e+02
1.010000e-06	-3.511561e-06	-2.014242e-09	-2.483897e+01	-1.337004e+02
1.020000e-06	-3.475898e-06	-2.005794e-09	-2.458671e+01	-1.333191e+02
1.030000e-06	-3.440081e-06	-1.993365e-09	-2.433336e+01	-1.329365e+02
1.040000e-06	-3.404157e-06	-1.988801e-09	-2.407925e+01	-1.325524e+02
1.050000e-06	-3.368121e-06	-1.988570e-09	-2.382435e+01	-1.321667e+02
1.060000e-06	-3.331900e-06	-1.988018e-09	-2.356814e+01	-1.317791e+02
1.070000e-06	-3.295448e-06	-1.979381e-09	-2.331030e+01	-1.313893e+02
1.080000e-06	-3.258708e-06	-1.966302e-09	-2.305042e+01	-1.309970e+02
1.090000e-06	-3.221644e-06	-1.952274e-09	-2.278825e+01	-1.306016e+02
1.100000e-06	-3.184315e-06	-1.945391e-09	-2.252420e+01	-1.302028e+02
1.110000e-06	-3.146821e-06	-1.938063e-09	-2.225899e+01	-1.298001e+02
1.120000e-06	-3.109159e-06	-1.931597e-09	-2.199259e+01	-1.293928e+02
1.130000e-06	-3.071294e-06	-1.927176e-09	-2.172475e+01	-1.289806e+02
1.140000e-06	-3.033193e-06	-1.926188e-09	-2.145524e+01	-1.285628e+02
1.150000e-06	-2.994922e-06	-1.917911e-09	-2.118454e+01	-1.281390e+02
1.160000e-06	-2.956469e-06	-1.898666e-09	-2.091254e+01	-1.277085e+02
1.170000e-06	-2.917772e-06	-1.880493e-09	-2.063882e+01	-1.272710e+02
1.180000e-06	-2.878839e-06	-1.869880e-09	-2.036343e+01	-1.268260e+02
1.190000e-06	-2.839673e-06	-1.865091e-09	-2.008638e+01	-1.263729e+02
1.200000e-06	-2.800340e-06	-1.861239e-09	-1.980816e+01	-1.259115e+02
1.210000e-06	-2.760848e-06	-1.859056e-09	-1.952881e+01	-1.254413e+02
1.220000e-06	-2.721233e-06	-1.858342e-09	-1.924860e+01	-1.249619e+02
1.230000e-06	-2.681500e-06	-1.853289e-09	-1.896755e+01	-1.244732e+02
1.240000e-06	-2.641594e-06	-1.837607e-09	-1.868528e+01	-1.239748e+02
1.250000e-06	-2.601532e-06	-1.820647e-09	-1.840190e+01	-1.234666e+02
1.260000e-06	-2.561401e-06	-1.805077e-09	-1.811803e+01	-1.229482e+02
1.270000e-06	-2.521225e-06	-1.793894e-09	-1.783384e+01	-1.224195e+02
1.280000e-06	-2.480883e-06	-1.784504e-09	-1.754848e+01	-1.218804e+02
1.290000e-06	-2.440273e-06	-1.780280e-09	-1.726123e+01	-1.213307e+02
1.300000e-06	-2.399502e-06	-1.773701e-09	-1.697284e+01	-1.207704e+02
1.310000e-06	-2.358574e-06	-1.764597e-09	-1.668334e+01	-1.201991e+02
1.320000e-06	-2.317399e-06	-1.754561e-09	-1.639209e+01	-1.196170e+02
1.330000e-06	-2.275922e-06	-1.744906e-09	-1.609870e+01	-1.190237e+02
1.340000e-06	-2.234112e-06	-1.733918e-09	-1.580296e+01	-1.184193e+02
1.350000e-06	-2.191931e-06	-1.721555e-09	-1.550459e+01	-1.178036e+02
1.360000e-06	-2.149426e-06	-1.707343e-09	-1.520393e+01	-1.171763e+02
1.370000e-06	-2.106657e-06	-1.695231e-09	-1.490141e+01	-1.165374e+02
1.380000e-06	-2.063659e-06	-1.684805e-09	-1.459726e+01	-1.158867e+02
1.390000e-06	-2.020452e-06	-1.676969e-09	-1.429164e+01	-1.152239e+02
1.400000e-06	-1.977108e-06	-1.668973e-09	-1.398504e+01	-1.145489e+02
1.410000e-06	-1.933722e-06	-1.661016e-09	-1.367815e+01	-1.138614e+02
1.420000e-06	-1.890198e-06	-1.648428e-09	-1.337029e+01	-1.131611e+02
1.430000e-06	-1.846501e-06	-1.630623e-09	-1.306120e+01	-1.124478e+02
1.440000e-06	-1.802706e-06	-1.611145e-09	-1.275141e+01	-1.117212e+02
1.450000e-06	-1.758859e-06	-1.596067e-09	-1.244126e+01	-1.109810e+02
1.460000e-06	-1.714961e-06	-1.586144e-09	-1.213075e+01	-1.102268e+02
1.470000e-06	-1.670998e-06	-1.576557e-09	-1.181978e+01	-1.094583e+02
1.480000e-06	-1.626905e-06	-1.567970e-09	-1.150789e+01	-1.086751e+02
1.490000e-06	-1.582717e-06	-1.561081e-09	-1.119533e+01	-1.078769e+02
1.500000e-06	-1.538483e-06	-1.553024e-09	-1.088244e+01	-1.070633e+02
1.510000e-06	-1.494165e-06	-1.538132e-09	-1.056896e+01	-1.062338e+02
1.520000e-06	-1.449722e-06	-1.517040e-09	-1.025459e+01	-1.053880e+02
1.530000e-06	-1.405258e-06	-1.496203e-09	-9.940069e+00	-1.045255e+02
1.540000e-06	-1.360807e-06	-1.482006e-09	-9.625646e+00	-1.036457e+02
1.550000e-06	-1.316181e-06	-1.471812e-09	-9.309985e+00	-1.027482e+02
1.560000e-06	-1.271384e-06	-1.462207e-09	-8.993116e+00	-1.018324e+02
1.570000e-06	-1.226457e-06	-1.451362e-09	-8.675323e+00	-1.008976e+02
1.580000e-06	-1.181401e-06	-1.441403e-09	-8.356621e+00	-9.994322e+01
1.590000e-06	-1.136311e-06	-1.427329e-09	-8.037678e+00	-9.896859e+01
1.600000e-06	-1.091171e-06	-1.407185e-09	-7.718380e+00	-9.797294e+01
1.610000e-06	-1.046006e-06	-1.382670e-09	-7.398906e+00	-9.695544e+01
1.620000e-06	-1.000799e-06	-1.363540e-09	-7.079135e+00	-9.591521e+01
1.630000e-06	-9.554825e-07	-1.349142e-09	-6.758590e+00	-9.485129e+01
1.640000e-06	-9.100441e-07	-1.334968e-09	-6.437183e+00	-9.376265e+01
1.650000e-06	-8.645143e-07	-1.321462e-09	-6.115128e+00	-9.264818e+01
1.660000e-06	-8.190219e-07	-1.310176e-09	-5.793339e+00	-9.150671e+01
1.670000e-06	-7.735385e-07	-1.295339e-09	-5.471613e+00	-9.033698e+01
1.680000e-06	-7.278939e-07	-1.272089e-09	-5.148746e+00	-8.913766e+01
1.690000e-06	-6.821202e-07	-1.242183e-09	-4.824967e+00	-8.790736e+01
1.700000e-06	-6.363189e-07	-1.213743e-09	-4.500992e+00	-8.664460e+01
1.710000e-06	-5.905223e-07	-1.192411e-09	-4.177051e+00	-8.534787e+01
1.720000e-06	-5.447461e-07	-1.176677e-09	-3.853253e+00	-8.401562e+01
1.730000e-06	-4.989325e-07	-1.159356e-09	-3.529191e+00	-8.264624e+01
1.740000e-06	-4.530862e-07	-1.141127e-09	-3.204898e+00	-8.123812e+01
1.750000e-06	-4.072453e-07	-1.124032e-09	-2.880643e+00	-7.978962e+01
1.760000e-06	-3.613715e-07	-1.104299e-09	-2.556155e+00	-7.829914e+01
1.770000e-06	-3.154306e-07	-1.076394e-09	-2.231193e+00	-7.676506e+01
1.780000e-06	-2.694217e-07	-1.043579e-09	-1.905750e+00	-7.518584e+01
1.790000e-06	-2.233343e-07	-1.014735e-09	-1.579752e+00	-7.355999e+01
1.800000e-06	-1.772202e-07	-9.898272e-10	-1.253565e+00	-7.188610e+01
1.810000e-06	-1.311949e-07	-9.668121e-10	-9.280054e-01	-7.016284e+01
1.820000e-06	-8.520317e-08	-9.437567e-10	-6.026833e-01	-6.838901e+01
1.830000e-06	-3.923143e-08	-9.202507e-10	-2.775029e-01	-6.656356e+01
1.840000e-06	6.658591e-09	-8.932595e-10	4.709944e-02	-6.468557e+01
1.850000e-06	5.259972e-08	-8.632039e-10	3.720633e-01	-6.275427e+01
1.860000e-06	9.864660e-08	-8.306214e-10	6.977752e-01	-6.076912e+01
1.870000e-06	1.446928e-07	-7.967797e-10	1.023482e+00	-5.872971e+01
1.880000e-06	1.907249e-07	-7.637828e-10	1.349089e+00	-5.663589e+01
1.890000e-06	2.367162e-07	-7.314618e-10	1.674408e+00	-5.448768e+01
1.900000e-06	2.826586e-07	-6.975451e-10	1.999382e+00	-5.228532e+01
1.910000e-06	3.286373e-07	-6.636353e-10	2.324611e+00	-5.002929e+01
1.920000e-06	3.745944e-07	-6.315038e-10	2.649688e+00	-4.772027e+01
1.930000e-06	4.204444e-07	-6.004711e-10	2.974007e+00	-4.535916e+01
1.940000e-06	4.662702e-07	-5.675320e-10	3.298155e+00	-4.294707e+01
1.950000e-06	5.120749e-07	-5.320002e-10	3.622154e+00	-4.048532e+01
1.960000e-06	5.578759e-07	-4.944072e-10	3.946127e+00	-3.797542e+01
1.970000e-06	6.036287e-07	-4.535431e-10	4.269758e+00	-3.541906e+01
1.980000e-06	6.492989e-07	-4.089739e-10	4.592805e+00	-3.281812e+01
1.990000e-06	6.950090e-07	-3.669420e-10	4.916135e+00	-3.017462e+01
2.000000e-06	7.407094e-07	-3.298377e-10	5.239397e+00	-2.749073e+01
2.010000e-06	7.863587e-07	-2.950126e-10	5.562296e+00	-2.476873e+01
2.020000e-06	8.319368e-07	-2.604637e-10	5.884692e+00	-2.201102e+01
2.030000e-06	8.773967e-07	-2.243182e-10	6.206252e+00	-1.922009e+01
2.040000e-06	9.227937e-07	-1.840392e-10	6.527367e+00	-1.639850e+01
2.050000e-06	9.681521e-07	-1.397970e-10	6.848209e+00	-1.354886e+01
2.060000e-06	1.013410e-06	-9.235095e-11	7.168341e+00	-1.067382e+01
2.070000e-06	1.058619e-06	-4.444405e-11	7.488127e+00	-7.776056e+00
2.080000e-06	1.103784e-06	-4.648611e-13	7.807601e+00	-4.858251e+00
2.090000e-06	1.148816e-06	3.762927e-11	8.126130e+00	-1.923086e+00
2.100000e-06	1.193709e-06	7.088833e-11	8.443680e+00	1.026776e+00
2.110000e-06	1.238435e-06	1.061079e-10	8.760054e+00	3.988694e+00
2.120000e-06	1.283035e-06	1.446861e-10	9.075529e+00	6.960061e+00
2.130000e-06	1.327642e-06	1.869851e-10	9.391054e+00	9.938307e+00
2.140000e-06	1.372204e-06	2.339100e-10	9.706264e+00	1.292091e+01
2.150000e-06	1.416642e-06	2.832189e-10	1.002060e+01	1.590538e+01
2.160000e-06	1.460980e-06	3.305038e-10	1.033422e+01	1.888928e+01
2.170000e-06	1.505243e-06	3.727388e-10	1.064731e+01	2.187024e+01
2.180000e-06	1.549406e-06	4.105514e-10	1.095970e+01	2.484590e+01
2.190000e-06	1.593434e-06	4.468626e-10	1.127113e+01	2.781395e+01
2.200000e-06	1.637380e-06	4.837932e-10	1.158198e+01	3.077215e+01
2.210000e-06	1.681288e-06	5.252219e-10	1.189257e+01	3.371825e+01
2.220000e-06	1.725160e-06	5.702445e-10	1.220289e+01	3.665007e+01
2.230000e-06	1.768947e-06	6.157378e-10	1.251262e+01	3.956543e+01
2.240000e-06	1.812685e-06	6.596311e-10	1.282200e+01	4.246219e+01
2.250000e-06	1.856385e-06	7.007347e-10	1.313111e+01	4.533823e+01
2.260000e-06	1.900027e-06	7.401102e-10	1.343981e+01	4.819145e+01
2.270000e-06	1.943557e-06	7.790586e-10	1.374772e+01	5.101977e+01
2.280000e-06	1.986953e-06	8.180405e-10	1.405468e+01	5.382112e+01
2.290000e-06	2.030243e-06	8.590036e-10	1.436089e+01	5.659347e+01
2.300000e-06	2.073346e-06	9.037623e-10	1.466578e+01	5.933482e+01
2.310000e-06	2.116267e-06	9.470701e-10	1.496938e+01	6.204317e+01
2.320000e-06	2.158927e-06	9.866306e-10	1.527114e+01	6.471658e+01
2.330000e-06	2.201207e-06	1.022722e-09	1.557020e+01	6.735314e+01
2.340000e-06	2.243146e-06	1.055523e-09	1.586686e+01	6.995102e+01
2.350000e-06	2.284750e-06	1.087567e-09	1.616114e+01	7.250841e+01
2.360000e-06	2.326139e-06	1.123625e-09	1.645391e+01	7.502361e+01
2.370000e-06	2.367342e-06	1.163249e-09	1.674536e+01	7.749498e+01
2.380000e-06	2.408203e-06	1.202706e-09	1.703439e+01	7.992099e+01
2.390000e-06	2.448805e-06	1.238438e-09	1.732159e+01	8.230019e+01
2.400000e-06	2.489168e-06	1.271134e-09	1.760709e+01	8.463129e+01
2.410000e-06	2.529321e-06	1.300921e-09	1.789111e+01	8.691309e+01
2.420000e-06	2.569386e-06	1.327771e-09	1.817451e+01	8.914455e+01
2.430000e-06	2.609385e-06	1.355132e-09	1.845744e+01	9.132476e+01
2.440000e-06	2.649316e-06	1.383860e-09	1.873990e+01	9.345299e+01
2.450000e-06	2.689139e-06	1.414431e-09	1.902158e+01	9.552865e+01
2.460000e-06	2.728829e-06	1.447087e-09	1.930233e+01	9.755131e+01
2.470000e-06	2.768360e-06	1.479180e-09	1.958195e+01	9.952074e+01
2.480000e-06	2.807763e-06	1.508800e-09	1.986067e+01	1.014368e+02
2.490000e-06	2.847041e-06	1.535984e-09	2.013850e+01	1.032997e+02
2.500000e-06	2.886023e-06	1.561123e-09	2.041424e+01	1.051095e+02
2.510000e-06	2.924762e-06	1.586726e-09	2.068826e+01	1.068668e+02
2.520000e-06	2.963340e-06	1.612961e-09	2.096114e+01	1.085720e+02
2.530000e-06	3.001662e-06	1.637162e-09	2.123221e+01	1.102257e+02
2.540000e-06	3.039772e-06	1.660174e-09	2.150178e+01	1.118289e+02
2.550000e-06	3.077716e-06	1.685909e-09	2.177018e+01	1.133824e+02
2.560000e-06	3.115522e-06	1.709503e-09	2.203760e+01	1.148872e+02
2.570000e-06	3.153183e-06	1.727117e-09	2.230399e+01	1.163444e+02
2.580000e-06	3.190589e-06	1.744128e-09	2.256858e+01	1.177552e+02
2.590000e-06	3.227715e-06	1.763881e-09	2.283119e+01	1.191207e+02
2.600000e-06	3.264562e-06	1.787395e-09	2.309183e+01	1.204422e+02
2.610000e-06	3.301179e-06	1.811398e-09	2.335084e+01	1.217208e+02
2.620000e-06	3.337625e-06	1.831798e-09	2.360864e+01	1.229579e+02
2.630000e-06	3.373850e-06	1.850150e-09	2.386488e+01	1.241546e+02
2.640000e-06	3.409906e-06	1.865147e-09	2.411992e+01	1.253121e+02
2.650000e-06	3.445812e-06	1.876711e-09	2.437390e+01	1.264316e+02
2.660000e-06	3.481587e-06	1.887505e-09	2.462695e+01	1.275142e+02
2.670000e-06	3.517242e-06	1.900549e-09	2.487915e+01	1.285609e+02
2.680000e-06	3.552718e-06	1.916403e-09	2.513009e+01	1.295726e+02
2.690000e-06	3.587896e-06	1.932744e-09	2.537892e+01	1.305503e+02
2.700000e-06	3.622675e-06	1.948907e-09	2.562494e+01	1.314949e+02
2.710000e-06	3.657013e-06	1.965383e-09	2.586782e+01	1.324070e+02
2.720000e-06	3.690927e-06	1.979762e-09	2.610772e+01	1.332875e+02
2.730000e-06	3.724348e-06	1.989354e-09	2.634412e+01	1.341370e+02
2.740000e-06	3.757344e-06	1.996514e-09	2.657752e+01	1.349560e+02
2.750000e-06	3.789968e-06	2.005201e-09	2.680828e+01	1.357453e+02
2.760000e-06	3.822265e-06	2.015178e-09	2.703673e+01	1.365052e+02
2.770000e-06	3.854421e-06	2.025490e-09	2.726418e+01	1.372364e+02
2.780000e-06	3.886386e-06	2.037145e-09	2.749029e+01	1.379394e+02
2.790000e-06	3.918151e-06	2.047939e-09	2.771498e+01	1.386146e+02
2.800000e-06	3.949776e-06	2.059006e-09	2.793868e+01	1.392626e+02
2.810000e-06	3.981235e-06	2.070463e-09	2.816120e+01	1.398840e+02
2.820000e-06	4.012497e-06	2.077351e-09	2.838234e+01	1.404793e+02
2.830000e-06	4.043448e-06	2.083625e-09	2.860127e+01	1.410491e+02
2.840000e-06	4.073984e-06	2.090089e-09	2.881727e+01	1.415943e+02
2.850000e-06	4.104174e-06	2.096836e-09	2.903081e+01	1.421154e+02
2.860000e-06	4.134098e-06	2.101842e-09	2.924248e+01	1.426132e+02
2.870000e-06	4.163813e-06	2.105298e-09	2.945267e+01	1.430887e+02
2.880000e-06	4.193314e-06	2.108668e-09	2.966134e+01	1.435427e+02
2.890000e-06	4.222549e-06	2.114462e-09	2.986813e+01	1.439762e+02
2.900000e-06	4.251413e-06	2.124917e-09	3.007231e+01	1.443901e+02
