# Temperatura_=_-3.2
# Concentracion g/m^3_=_4090.0
# C_Vs_to_Am_M_A/Vsm_=_65563218390.804596
# pendiente_HvsI_1/m_=_3716.3
# ordenada_HvsI_A/m_=_1297.0
# frecuencia_Hz_=_135070.4794973468

Tiempo_(s)	Campo_(V.s)	Magnetizacion_(V.s)	Campo_(kA/m)	Magnetizacion_(A/m)
0.000000e+00	-5.416470e-06	-2.104411e-09	-3.839974e+01	-1.388309e+02
1.000000e-08	-5.416495e-06	-2.102300e-09	-3.839992e+01	-1.387513e+02
2.000000e-08	-5.416341e-06	-2.099944e-09	-3.839883e+01	-1.386757e+02
3.000000e-08	-5.415891e-06	-2.096020e-09	-3.839564e+01	-1.386055e+02
4.000000e-08	-5.414983e-06	-2.091488e-09	-3.838920e+01	-1.385420e+02
5.000000e-08	-5.413484e-06	-2.089684e-09	-3.837858e+01	-1.384865e+02
6.000000e-08	-5.411333e-06	-2.093682e-09	-3.836333e+01	-1.384401e+02
7.000000e-08	-5.408576e-06	-2.088326e-09	-3.834378e+01	-1.384038e+02
8.000000e-08	-5.405278e-06	-2.050425e-09	-3.832040e+01	-1.383785e+02
9.000000e-08	-5.401534e-06	-2.079728e-09	-3.829386e+01	-1.383649e+02
1.000000e-07	-5.397423e-06	-2.207987e-09	-3.826471e+01	-1.383633e+02
1.100000e-07	-5.393073e-06	-2.189997e-09	-3.823388e+01	-1.383742e+02
1.200000e-07	-5.388596e-06	-1.998252e-09	-3.820214e+01	-1.383976e+02
1.300000e-07	-5.383885e-06	-2.007685e-09	-3.816873e+01	-1.384332e+02
1.400000e-07	-5.378757e-06	-2.173796e-09	-3.813238e+01	-1.384809e+02
1.500000e-07	-5.373190e-06	-2.206175e-09	-3.809291e+01	-1.385398e+02
1.600000e-07	-5.367203e-06	-1.953089e-09	-3.805047e+01	-1.386094e+02
1.700000e-07	-5.360861e-06	-1.999796e-09	-3.800551e+01	-1.386886e+02
1.800000e-07	-5.354049e-06	-2.253766e-09	-3.795721e+01	-1.387762e+02
1.900000e-07	-5.346835e-06	-2.272902e-09	-3.790607e+01	-1.388710e+02
2.000000e-07	-5.339411e-06	-2.057887e-09	-3.785344e+01	-1.389715e+02
2.100000e-07	-5.331854e-06	-2.094703e-09	-3.779987e+01	-1.390762e+02
2.200000e-07	-5.324034e-06	-2.282149e-09	-3.774443e+01	-1.391834e+02
2.300000e-07	-5.315792e-06	-2.206432e-09	-3.768600e+01	-1.392913e+02
2.400000e-07	-5.307121e-06	-2.105770e-09	-3.762452e+01	-1.393984e+02
2.500000e-07	-5.297905e-06	-2.228028e-09	-3.755919e+01	-1.395029e+02
2.600000e-07	-5.287962e-06	-2.344144e-09	-3.748870e+01	-1.396030e+02
2.700000e-07	-5.277334e-06	-2.197954e-09	-3.741335e+01	-1.396972e+02
2.800000e-07	-5.266247e-06	-2.195874e-09	-3.733475e+01	-1.397839e+02
2.900000e-07	-5.254707e-06	-2.340428e-09	-3.725294e+01	-1.398616e+02
3.000000e-07	-5.242731e-06	-2.293859e-09	-3.716803e+01	-1.399291e+02
3.100000e-07	-5.230379e-06	-2.117166e-09	-3.708046e+01	-1.399852e+02
3.200000e-07	-5.217644e-06	-2.236291e-09	-3.699018e+01	-1.400289e+02
3.300000e-07	-5.204493e-06	-2.334976e-09	-3.689695e+01	-1.400593e+02
3.400000e-07	-5.190966e-06	-2.212426e-09	-3.680105e+01	-1.400760e+02
3.500000e-07	-5.177066e-06	-2.145962e-09	-3.670251e+01	-1.400784e+02
3.600000e-07	-5.162878e-06	-2.281871e-09	-3.660192e+01	-1.400664e+02
3.700000e-07	-5.148347e-06	-2.248114e-09	-3.649891e+01	-1.400398e+02
3.800000e-07	-5.133247e-06	-2.170629e-09	-3.639185e+01	-1.399989e+02
3.900000e-07	-5.117487e-06	-2.220833e-09	-3.628012e+01	-1.399440e+02
4.000000e-07	-5.101131e-06	-2.248501e-09	-3.616417e+01	-1.398756e+02
4.100000e-07	-5.084375e-06	-2.167962e-09	-3.604538e+01	-1.397943e+02
4.200000e-07	-5.067405e-06	-2.212309e-09	-3.592507e+01	-1.397010e+02
4.300000e-07	-5.050171e-06	-2.257620e-09	-3.580289e+01	-1.395964e+02
4.400000e-07	-5.032584e-06	-2.176929e-09	-3.567821e+01	-1.394817e+02
4.500000e-07	-5.014633e-06	-2.164612e-09	-3.555094e+01	-1.393579e+02
4.600000e-07	-4.996354e-06	-2.244641e-09	-3.542136e+01	-1.392261e+02
4.700000e-07	-4.977743e-06	-2.228029e-09	-3.528942e+01	-1.390874e+02
4.800000e-07	-4.958811e-06	-2.168065e-09	-3.515520e+01	-1.389429e+02
4.900000e-07	-4.939549e-06	-2.198906e-09	-3.501864e+01	-1.387938e+02
5.000000e-07	-4.919888e-06	-2.211964e-09	-3.487926e+01	-1.386412e+02
5.100000e-07	-4.899973e-06	-2.199312e-09	-3.473807e+01	-1.384859e+02
5.200000e-07	-4.879873e-06	-2.191624e-09	-3.459557e+01	-1.383289e+02
5.300000e-07	-4.859453e-06	-2.181535e-09	-3.445081e+01	-1.381711e+02
5.400000e-07	-4.838668e-06	-2.166648e-09	-3.430345e+01	-1.380132e+02
5.500000e-07	-4.817588e-06	-2.202989e-09	-3.415400e+01	-1.378557e+02
5.600000e-07	-4.796117e-06	-2.190938e-09	-3.400179e+01	-1.376992e+02
5.700000e-07	-4.774356e-06	-2.159278e-09	-3.384751e+01	-1.375440e+02
5.800000e-07	-4.752431e-06	-2.164390e-09	-3.369208e+01	-1.373902e+02
5.900000e-07	-4.730203e-06	-2.192332e-09	-3.353450e+01	-1.372381e+02
6.000000e-07	-4.707545e-06	-2.172583e-09	-3.337386e+01	-1.370876e+02
6.100000e-07	-4.684470e-06	-2.159693e-09	-3.321027e+01	-1.369385e+02
6.200000e-07	-4.661134e-06	-2.141041e-09	-3.304483e+01	-1.367906e+02
6.300000e-07	-4.637543e-06	-2.144151e-09	-3.287759e+01	-1.366435e+02
6.400000e-07	-4.613735e-06	-2.156444e-09	-3.270880e+01	-1.364970e+02
6.500000e-07	-4.589739e-06	-2.152535e-09	-3.253869e+01	-1.363504e+02
6.600000e-07	-4.565499e-06	-2.121526e-09	-3.236684e+01	-1.362032e+02
6.700000e-07	-4.540951e-06	-2.133349e-09	-3.219281e+01	-1.360550e+02
6.800000e-07	-4.515859e-06	-2.150792e-09	-3.201492e+01	-1.359051e+02
6.900000e-07	-4.490164e-06	-2.138567e-09	-3.183275e+01	-1.357529e+02
7.000000e-07	-4.463966e-06	-2.115242e-09	-3.164702e+01	-1.355979e+02
7.100000e-07	-4.437203e-06	-2.114399e-09	-3.145729e+01	-1.354396e+02
7.200000e-07	-4.409987e-06	-2.121068e-09	-3.126434e+01	-1.352773e+02
7.300000e-07	-4.382504e-06	-2.121557e-09	-3.106951e+01	-1.351108e+02
7.400000e-07	-4.354793e-06	-2.105993e-09	-3.087305e+01	-1.349396e+02
7.500000e-07	-4.326917e-06	-2.092080e-09	-3.067542e+01	-1.347633e+02
7.600000e-07	-4.298905e-06	-2.100240e-09	-3.047684e+01	-1.345817e+02
7.700000e-07	-4.270689e-06	-2.105296e-09	-3.027680e+01	-1.343947e+02
7.800000e-07	-4.242179e-06	-2.092232e-09	-3.007468e+01	-1.342022e+02
7.900000e-07	-4.213320e-06	-2.078791e-09	-2.987008e+01	-1.340041e+02
8.000000e-07	-4.184163e-06	-2.084925e-09	-2.966338e+01	-1.338005e+02
8.100000e-07	-4.154729e-06	-2.088654e-09	-2.945471e+01	-1.335915e+02
8.200000e-07	-4.125001e-06	-2.086280e-09	-2.924395e+01	-1.333773e+02
8.300000e-07	-4.095007e-06	-2.071468e-09	-2.903131e+01	-1.331582e+02
8.400000e-07	-4.064754e-06	-2.067454e-09	-2.881684e+01	-1.329345e+02
8.500000e-07	-4.034219e-06	-2.068408e-09	-2.860036e+01	-1.327065e+02
8.600000e-07	-4.003365e-06	-2.066978e-09	-2.838162e+01	-1.324745e+02
8.700000e-07	-3.972261e-06	-2.050406e-09	-2.816111e+01	-1.322391e+02
8.800000e-07	-3.940876e-06	-2.045749e-09	-2.793861e+01	-1.320005e+02
8.900000e-07	-3.909261e-06	-2.052506e-09	-2.771448e+01	-1.317592e+02
9.000000e-07	-3.877504e-06	-2.059157e-09	-2.748934e+01	-1.315155e+02
9.100000e-07	-3.845606e-06	-2.044315e-09	-2.726320e+01	-1.312699e+02
9.200000e-07	-3.813558e-06	-2.030334e-09	-2.703600e+01	-1.310227e+02
9.300000e-07	-3.781269e-06	-2.023372e-09	-2.680708e+01	-1.307741e+02
9.400000e-07	-3.748646e-06	-2.023935e-09	-2.657581e+01	-1.305245e+02
9.500000e-07	-3.715727e-06	-2.014496e-09	-2.634242e+01	-1.302740e+02
9.600000e-07	-3.682462e-06	-2.007412e-09	-2.610660e+01	-1.300228e+02
9.700000e-07	-3.648680e-06	-2.009186e-09	-2.586710e+01	-1.297710e+02
9.800000e-07	-3.614392e-06	-2.015727e-09	-2.562402e+01	-1.295186e+02
9.900000e-07	-3.579685e-06	-2.009033e-09	-2.537796e+01	-1.292656e+02
1.000000e-06	-3.544653e-06	-1.996771e-09	-2.512961e+01	-1.290120e+02
1.010000e-06	-3.509368e-06	-1.988080e-09	-2.487946e+01	-1.287577e+02
1.020000e-06	-3.473810e-06	-1.984462e-09	-2.462737e+01	-1.285023e+02
1.030000e-06	-3.438073e-06	-1.978141e-09	-2.437401e+01	-1.282458e+02
1.040000e-06	-3.402254e-06	-1.970790e-09	-2.412008e+01	-1.279879e+02
1.050000e-06	-3.366296e-06	-1.968097e-09	-2.386515e+01	-1.277282e+02
1.060000e-06	-3.330146e-06	-1.970354e-09	-2.360888e+01	-1.274665e+02
1.070000e-06	-3.293789e-06	-1.969752e-09	-2.335113e+01	-1.272024e+02
1.080000e-06	-3.257172e-06	-1.958386e-09	-2.309153e+01	-1.269356e+02
1.090000e-06	-3.220279e-06	-1.947222e-09	-2.282998e+01	-1.266657e+02
1.100000e-06	-3.183164e-06	-1.944394e-09	-2.256685e+01	-1.263922e+02
1.110000e-06	-3.145819e-06	-1.945691e-09	-2.230210e+01	-1.261149e+02
1.120000e-06	-3.108247e-06	-1.937913e-09	-2.203574e+01	-1.258334e+02
1.130000e-06	-3.070514e-06	-1.928161e-09	-2.176823e+01	-1.255474e+02
1.140000e-06	-3.032572e-06	-1.921676e-09	-2.149924e+01	-1.252565e+02
1.150000e-06	-2.994334e-06	-1.918067e-09	-2.122815e+01	-1.249603e+02
1.160000e-06	-2.955855e-06	-1.906152e-09	-2.095536e+01	-1.246588e+02
1.170000e-06	-2.917281e-06	-1.893508e-09	-2.068189e+01	-1.243514e+02
1.180000e-06	-2.878592e-06	-1.887045e-09	-2.040761e+01	-1.240381e+02
1.190000e-06	-2.839627e-06	-1.891629e-09	-2.013137e+01	-1.237187e+02
1.200000e-06	-2.800395e-06	-1.890178e-09	-1.985323e+01	-1.233928e+02
1.210000e-06	-2.760975e-06	-1.880385e-09	-1.957377e+01	-1.230605e+02
1.220000e-06	-2.721413e-06	-1.868471e-09	-1.929330e+01	-1.227214e+02
1.230000e-06	-2.681742e-06	-1.863654e-09	-1.901205e+01	-1.223755e+02
1.240000e-06	-2.641931e-06	-1.854725e-09	-1.872981e+01	-1.220228e+02
1.250000e-06	-2.602022e-06	-1.844807e-09	-1.844688e+01	-1.216630e+02
1.260000e-06	-2.562046e-06	-1.837006e-09	-1.816347e+01	-1.212961e+02
1.270000e-06	-2.521995e-06	-1.835011e-09	-1.787954e+01	-1.209220e+02
1.280000e-06	-2.481842e-06	-1.832472e-09	-1.759487e+01	-1.205407e+02
1.290000e-06	-2.441450e-06	-1.824145e-09	-1.730852e+01	-1.201520e+02
1.300000e-06	-2.400782e-06	-1.812050e-09	-1.702020e+01	-1.197558e+02
1.310000e-06	-2.359850e-06	-1.803123e-09	-1.673002e+01	-1.193521e+02
1.320000e-06	-2.318674e-06	-1.796508e-09	-1.643810e+01	-1.189408e+02
1.330000e-06	-2.277234e-06	-1.787881e-09	-1.614432e+01	-1.185218e+02
1.340000e-06	-2.235443e-06	-1.780252e-09	-1.584804e+01	-1.180948e+02
1.350000e-06	-2.193335e-06	-1.774881e-09	-1.554952e+01	-1.176599e+02
1.360000e-06	-2.151012e-06	-1.769513e-09	-1.524947e+01	-1.172167e+02
1.370000e-06	-2.108440e-06	-1.761067e-09	-1.494766e+01	-1.167653e+02
1.380000e-06	-2.065589e-06	-1.750763e-09	-1.464387e+01	-1.163053e+02
1.390000e-06	-2.022549e-06	-1.742798e-09	-1.433874e+01	-1.158367e+02
1.400000e-06	-1.979360e-06	-1.738845e-09	-1.403256e+01	-1.153591e+02
1.410000e-06	-1.936019e-06	-1.733172e-09	-1.372529e+01	-1.148723e+02
1.420000e-06	-1.892575e-06	-1.724958e-09	-1.341730e+01	-1.143762e+02
1.430000e-06	-1.849067e-06	-1.715164e-09	-1.310885e+01	-1.138705e+02
1.440000e-06	-1.805483e-06	-1.706491e-09	-1.279987e+01	-1.133549e+02
1.450000e-06	-1.761790e-06	-1.697263e-09	-1.249011e+01	-1.128291e+02
1.460000e-06	-1.717975e-06	-1.688332e-09	-1.217948e+01	-1.122929e+02
1.470000e-06	-1.674076e-06	-1.676505e-09	-1.186826e+01	-1.117460e+02
1.480000e-06	-1.630127e-06	-1.668112e-09	-1.155669e+01	-1.111881e+02
1.490000e-06	-1.586115e-06	-1.663386e-09	-1.124467e+01	-1.106188e+02
1.500000e-06	-1.541980e-06	-1.658455e-09	-1.093178e+01	-1.100379e+02
1.510000e-06	-1.497738e-06	-1.650673e-09	-1.061813e+01	-1.094451e+02
1.520000e-06	-1.453493e-06	-1.640880e-09	-1.030445e+01	-1.088400e+02
1.530000e-06	-1.409240e-06	-1.633073e-09	-9.990721e+00	-1.082223e+02
1.540000e-06	-1.364938e-06	-1.624200e-09	-9.676645e+00	-1.075915e+02
1.550000e-06	-1.320533e-06	-1.608033e-09	-9.361838e+00	-1.069474e+02
1.560000e-06	-1.275991e-06	-1.592561e-09	-9.046064e+00	-1.062896e+02
1.570000e-06	-1.231383e-06	-1.583950e-09	-8.729821e+00	-1.056175e+02
1.580000e-06	-1.186644e-06	-1.581657e-09	-8.412645e+00	-1.049309e+02
1.590000e-06	-1.141778e-06	-1.577844e-09	-8.094565e+00	-1.042292e+02
1.600000e-06	-1.096896e-06	-1.566940e-09	-7.776380e+00	-1.035120e+02
1.610000e-06	-1.051962e-06	-1.551229e-09	-7.457821e+00	-1.027788e+02
1.620000e-06	-1.006866e-06	-1.537407e-09	-7.138119e+00	-1.020290e+02
1.630000e-06	-9.616304e-07	-1.523375e-09	-6.817423e+00	-1.012621e+02
1.640000e-06	-9.163451e-07	-1.506899e-09	-6.496375e+00	-1.004775e+02
1.650000e-06	-8.710186e-07	-1.492949e-09	-6.175035e+00	-9.967458e+01
1.660000e-06	-8.255642e-07	-1.485173e-09	-5.852789e+00	-9.885261e+01
1.670000e-06	-7.800212e-07	-1.480022e-09	-5.529915e+00	-9.801094e+01
1.680000e-06	-7.344811e-07	-1.467530e-09	-5.207061e+00	-9.714880e+01
1.690000e-06	-6.889120e-07	-1.445894e-09	-4.884001e+00	-9.626543e+01
1.700000e-06	-6.433047e-07	-1.424335e-09	-4.560671e+00	-9.535999e+01
1.710000e-06	-5.976242e-07	-1.409486e-09	-4.236822e+00	-9.443163e+01
1.720000e-06	-5.518372e-07	-1.398654e-09	-3.912217e+00	-9.347942e+01
1.730000e-06	-5.060491e-07	-1.385650e-09	-3.587606e+00	-9.250240e+01
1.740000e-06	-4.602919e-07	-1.370092e-09	-3.263213e+00	-9.149958e+01
1.750000e-06	-4.144809e-07	-1.357130e-09	-2.938438e+00	-9.046991e+01
1.760000e-06	-3.686507e-07	-1.343526e-09	-2.613527e+00	-8.941228e+01
1.770000e-06	-3.228437e-07	-1.324846e-09	-2.288781e+00	-8.832555e+01
1.780000e-06	-2.769848e-07	-1.302314e-09	-1.963668e+00	-8.720852e+01
1.790000e-06	-2.311048e-07	-1.281794e-09	-1.638404e+00	-8.605994e+01
1.800000e-06	-1.852079e-07	-1.264186e-09	-1.313021e+00	-8.487852e+01
1.810000e-06	-1.392946e-07	-1.247644e-09	-9.875209e-01	-8.366292e+01
1.820000e-06	-9.341166e-08	-1.227539e-09	-6.622364e-01	-8.241172e+01
1.830000e-06	-4.757560e-08	-1.205962e-09	-3.372844e-01	-8.112350e+01
1.840000e-06	-1.711924e-09	-1.186358e-09	-1.213659e-02	-7.979675e+01
1.850000e-06	4.419555e-08	-1.168070e-09	3.133218e-01	-7.842993e+01
1.860000e-06	9.006785e-08	-1.147215e-09	6.385308e-01	-7.702146e+01
1.870000e-06	1.359514e-07	-1.123726e-09	9.638192e-01	-7.556972e+01
1.880000e-06	1.818459e-07	-1.100549e-09	1.289186e+00	-7.407305e+01
1.890000e-06	2.277618e-07	-1.079038e-09	1.614704e+00	-7.252976e+01
1.900000e-06	2.736391e-07	-1.055184e-09	1.939949e+00	-7.093814e+01
1.910000e-06	3.194714e-07	-1.027250e-09	2.264873e+00	-6.929647e+01
1.920000e-06	3.653806e-07	-1.000101e-09	2.590344e+00	-6.760302e+01
1.930000e-06	4.112109e-07	-9.749648e-10	2.915255e+00	-6.585609e+01
1.940000e-06	4.569627e-07	-9.491072e-10	3.239610e+00	-6.405396e+01
1.950000e-06	5.027960e-07	-9.195977e-10	3.564543e+00	-6.219500e+01
1.960000e-06	5.485886e-07	-8.891306e-10	3.889187e+00	-6.027758e+01
1.970000e-06	5.942156e-07	-8.611091e-10	4.212657e+00	-5.830019e+01
1.980000e-06	6.397358e-07	-8.338035e-10	4.535369e+00	-5.626138e+01
1.990000e-06	6.853220e-07	-8.054565e-10	4.858550e+00	-5.415983e+01
2.000000e-06	7.308780e-07	-7.746613e-10	5.181517e+00	-5.199434e+01
2.010000e-06	7.763092e-07	-7.430506e-10	5.503599e+00	-4.976389e+01
2.020000e-06	8.217294e-07	-7.112688e-10	5.825602e+00	-4.746762e+01
2.030000e-06	8.671247e-07	-6.765149e-10	6.147430e+00	-4.510488e+01
2.040000e-06	9.124554e-07	-6.366980e-10	6.468799e+00	-4.267527e+01
2.050000e-06	9.577191e-07	-5.948071e-10	6.789693e+00	-4.017862e+01
2.060000e-06	1.002878e-06	-5.570843e-10	7.109846e+00	-3.761505e+01
2.070000e-06	1.047838e-06	-5.232052e-10	7.428585e+00	-3.498498e+01
2.080000e-06	1.092647e-06	-4.883441e-10	7.746257e+00	-3.228915e+01
2.090000e-06	1.137435e-06	-4.478511e-10	8.063782e+00	-2.952865e+01
2.100000e-06	1.182200e-06	-4.044211e-10	8.381139e+00	-2.670489e+01
2.110000e-06	1.226946e-06	-3.609835e-10	8.698359e+00	-2.381968e+01
2.120000e-06	1.271680e-06	-3.173867e-10	9.015501e+00	-2.087520e+01
2.130000e-06	1.316308e-06	-2.715037e-10	9.331886e+00	-1.787400e+01
2.140000e-06	1.360724e-06	-2.240575e-10	9.646775e+00	-1.481905e+01
2.150000e-06	1.405067e-06	-1.795656e-10	9.961142e+00	-1.171365e+01
2.160000e-06	1.449331e-06	-1.373056e-10	1.027495e+01	-8.561538e+00
2.170000e-06	1.493421e-06	-9.156370e-11	1.058752e+01	-5.366769e+00
2.180000e-06	1.537457e-06	-4.308033e-11	1.089971e+01	-2.133774e+00
2.190000e-06	1.581479e-06	5.374095e-12	1.121180e+01	1.132693e+00
2.200000e-06	1.625450e-06	5.457951e-11	1.152353e+01	4.427574e+00
2.210000e-06	1.669370e-06	1.078473e-10	1.183490e+01	7.745534e+00
2.220000e-06	1.713229e-06	1.607716e-10	1.214584e+01	1.108100e+01
2.230000e-06	1.757041e-06	2.088111e-10	1.245644e+01	1.442819e+01
2.240000e-06	1.800813e-06	2.532339e-10	1.276676e+01	1.778116e+01
2.250000e-06	1.844515e-06	2.980426e-10	1.307658e+01	2.113386e+01
2.260000e-06	1.888167e-06	3.465660e-10	1.338605e+01	2.448016e+01
2.270000e-06	1.931721e-06	3.957079e-10	1.369482e+01	2.781390e+01
2.280000e-06	1.975100e-06	4.439832e-10	1.400236e+01	3.112896e+01
2.290000e-06	2.018283e-06	4.944455e-10	1.430850e+01	3.441930e+01
2.300000e-06	2.061212e-06	5.489233e-10	1.461284e+01	3.767899e+01
2.310000e-06	2.103875e-06	5.999343e-10	1.491530e+01	4.090231e+01
2.320000e-06	2.146335e-06	6.427330e-10	1.521631e+01	4.408373e+01
2.330000e-06	2.188636e-06	6.812208e-10	1.551621e+01	4.721802e+01
2.340000e-06	2.230624e-06	7.216398e-10	1.581388e+01	5.030026e+01
2.350000e-06	2.272103e-06	7.659697e-10	1.610794e+01	5.332587e+01
2.360000e-06	2.313279e-06	8.108829e-10	1.639986e+01	5.629067e+01
2.370000e-06	2.354267e-06	8.549527e-10	1.669044e+01	5.919091e+01
2.380000e-06	2.394990e-06	8.999788e-10	1.697914e+01	6.202326e+01
2.390000e-06	2.435523e-06	9.419722e-10	1.726649e+01	6.478487e+01
2.400000e-06	2.475858e-06	9.797937e-10	1.755245e+01	6.747336e+01
2.410000e-06	2.515992e-06	1.013230e-09	1.783698e+01	7.008684e+01
2.420000e-06	2.555996e-06	1.045867e-09	1.812058e+01	7.262391e+01
2.430000e-06	2.595924e-06	1.080555e-09	1.840365e+01	7.508362e+01
2.440000e-06	2.635765e-06	1.114885e-09	1.868610e+01	7.746553e+01
2.450000e-06	2.675514e-06	1.149330e-09	1.896790e+01	7.976963e+01
2.460000e-06	2.715143e-06	1.183515e-09	1.924885e+01	8.199634e+01
2.470000e-06	2.754660e-06	1.215289e-09	1.952900e+01	8.414649e+01
2.480000e-06	2.793983e-06	1.244410e-09	1.980778e+01	8.622128e+01
2.490000e-06	2.833131e-06	1.272401e-09	2.008532e+01	8.822223e+01
2.500000e-06	2.872108e-06	1.300930e-09	2.036164e+01	9.015117e+01
2.510000e-06	2.910823e-06	1.328567e-09	2.063611e+01	9.201020e+01
2.520000e-06	2.949310e-06	1.353776e-09	2.090896e+01	9.380160e+01
2.530000e-06	2.987587e-06	1.378471e-09	2.118032e+01	9.552784e+01
2.540000e-06	3.025706e-06	1.402451e-09	2.145056e+01	9.719151e+01
2.550000e-06	3.063614e-06	1.427523e-09	2.171931e+01	9.879525e+01
2.560000e-06	3.101323e-06	1.452138e-09	2.198665e+01	1.003418e+02
2.570000e-06	3.138816e-06	1.474447e-09	2.225245e+01	1.018338e+02
2.580000e-06	3.176072e-06	1.497970e-09	2.251658e+01	1.032739e+02
2.590000e-06	3.213131e-06	1.519639e-09	2.277930e+01	1.046647e+02
2.600000e-06	3.249933e-06	1.536966e-09	2.304021e+01	1.060087e+02
2.610000e-06	3.286463e-06	1.551164e-09	2.329919e+01	1.073082e+02
2.620000e-06	3.322744e-06	1.565295e-09	2.355640e+01	1.085653e+02
2.630000e-06	3.358835e-06	1.582824e-09	2.381227e+01	1.097821e+02
2.640000e-06	3.394768e-06	1.602965e-09	2.406701e+01	1.109603e+02
2.650000e-06	3.430627e-06	1.624255e-09	2.432123e+01	1.121015e+02
2.660000e-06	3.466430e-06	1.643849e-09	2.457505e+01	1.132072e+02
2.670000e-06	3.502054e-06	1.662947e-09	2.482760e+01	1.142785e+02
2.680000e-06	3.537473e-06	1.678827e-09	2.507871e+01	1.153164e+02
2.690000e-06	3.572640e-06	1.686315e-09	2.532802e+01	1.163219e+02
2.700000e-06	3.607486e-06	1.690973e-09	2.557506e+01	1.172955e+02
2.710000e-06	3.641871e-06	1.702361e-09	2.581883e+01	1.182378e+02
2.720000e-06	3.675688e-06	1.720659e-09	2.605858e+01	1.191491e+02
2.730000e-06	3.709017e-06	1.738093e-09	2.629486e+01	1.200298e+02
2.740000e-06	3.741857e-06	1.750670e-09	2.652767e+01	1.208800e+02
2.750000e-06	3.774377e-06	1.763220e-09	2.675822e+01	1.216999e+02
2.760000e-06	3.806658e-06	1.777312e-09	2.698708e+01	1.224896e+02
2.770000e-06	3.838696e-06	1.786769e-09	2.721421e+01	1.232491e+02
2.780000e-06	3.870603e-06	1.789816e-09	2.744042e+01	1.239787e+02
2.790000e-06	3.902367e-06	1.794593e-09	2.766560e+01	1.246785e+02
2.800000e-06	3.933958e-06	1.804506e-09	2.788956e+01	1.253486e+02
2.810000e-06	3.965333e-06	1.815547e-09	2.811199e+01	1.259894e+02
2.820000e-06	3.996335e-06	1.823670e-09	2.833178e+01	1.266013e+02
2.830000e-06	4.027066e-06	1.833742e-09	2.854965e+01	1.271847e+02
2.840000e-06	4.057731e-06	1.848512e-09	2.876705e+01	1.277402e+02
2.850000e-06	4.088061e-06	1.860262e-09	2.898207e+01	1.282685e+02
2.860000e-06	4.117951e-06	1.865846e-09	2.919397e+01	1.287704e+02
2.870000e-06	4.147605e-06	1.870287e-09	2.940420e+01	1.292468e+02
2.880000e-06	4.177038e-06	1.876380e-09	2.961286e+01	1.296989e+02
2.890000e-06	4.206282e-06	1.882451e-09	2.982019e+01	1.301275e+02
2.900000e-06	4.235257e-06	1.885650e-09	3.002561e+01	1.305341e+02
