# Temperatura_=_-1.2
# Concentracion g/m^3_=_4090.0
# C_Vs_to_Am_M_A/Vsm_=_65563218390.804596
# pendiente_HvsI_1/m_=_3716.3
# ordenada_HvsI_A/m_=_1297.0
# frecuencia_Hz_=_135062.08286401813

Tiempo_(s)	Campo_(V.s)	Magnetizacion_(V.s)	Campo_(kA/m)	Magnetizacion_(A/m)
0.000000e+00	-5.382678e-06	-2.551963e-09	-3.840594e+01	-1.659724e+02
1.000000e-08	-5.382902e-06	-2.552977e-09	-3.840754e+01	-1.658844e+02
2.000000e-08	-5.382905e-06	-2.555763e-09	-3.840756e+01	-1.658025e+02
3.000000e-08	-5.382696e-06	-2.556444e-09	-3.840607e+01	-1.657285e+02
4.000000e-08	-5.382096e-06	-2.553676e-09	-3.840179e+01	-1.656639e+02
5.000000e-08	-5.380979e-06	-2.551715e-09	-3.839382e+01	-1.656102e+02
6.000000e-08	-5.379357e-06	-2.554114e-09	-3.838225e+01	-1.655687e+02
7.000000e-08	-5.377129e-06	-2.558567e-09	-3.836635e+01	-1.655405e+02
8.000000e-08	-5.374248e-06	-2.549020e-09	-3.834579e+01	-1.655266e+02
9.000000e-08	-5.370872e-06	-2.535949e-09	-3.832170e+01	-1.655274e+02
1.000000e-07	-5.367056e-06	-2.550348e-09	-3.829447e+01	-1.655435e+02
1.100000e-07	-5.362845e-06	-2.571532e-09	-3.826443e+01	-1.655750e+02
1.200000e-07	-5.358475e-06	-2.581374e-09	-3.823325e+01	-1.656218e+02
1.300000e-07	-5.353857e-06	-2.549185e-09	-3.820030e+01	-1.656833e+02
1.400000e-07	-5.348734e-06	-2.551884e-09	-3.816375e+01	-1.657591e+02
1.500000e-07	-5.343212e-06	-2.574653e-09	-3.812434e+01	-1.658481e+02
1.600000e-07	-5.337498e-06	-2.571550e-09	-3.808358e+01	-1.659492e+02
1.700000e-07	-5.331490e-06	-2.559588e-09	-3.804071e+01	-1.660610e+02
1.800000e-07	-5.324957e-06	-2.551816e-09	-3.799410e+01	-1.661820e+02
1.900000e-07	-5.317963e-06	-2.603128e-09	-3.794420e+01	-1.663103e+02
2.000000e-07	-5.310738e-06	-2.597481e-09	-3.789264e+01	-1.664442e+02
2.100000e-07	-5.303372e-06	-2.608517e-09	-3.784008e+01	-1.665816e+02
2.200000e-07	-5.295674e-06	-2.607417e-09	-3.778516e+01	-1.667205e+02
2.300000e-07	-5.287713e-06	-2.645487e-09	-3.772835e+01	-1.668587e+02
2.400000e-07	-5.279425e-06	-2.635905e-09	-3.766922e+01	-1.669941e+02
2.500000e-07	-5.270584e-06	-2.642241e-09	-3.760614e+01	-1.671247e+02
2.600000e-07	-5.261071e-06	-2.649053e-09	-3.753827e+01	-1.672485e+02
2.700000e-07	-5.250995e-06	-2.659017e-09	-3.746637e+01	-1.673635e+02
2.800000e-07	-5.240405e-06	-2.642254e-09	-3.739081e+01	-1.674680e+02
2.900000e-07	-5.229271e-06	-2.635378e-09	-3.731137e+01	-1.675603e+02
3.000000e-07	-5.217755e-06	-2.639578e-09	-3.722920e+01	-1.676390e+02
3.100000e-07	-5.205911e-06	-2.631619e-09	-3.714469e+01	-1.677028e+02
3.200000e-07	-5.193657e-06	-2.628824e-09	-3.705726e+01	-1.677507e+02
3.300000e-07	-5.180975e-06	-2.620340e-09	-3.696677e+01	-1.677818e+02
3.400000e-07	-5.168000e-06	-2.618968e-09	-3.687419e+01	-1.677956e+02
3.500000e-07	-5.154608e-06	-2.607584e-09	-3.677864e+01	-1.677918e+02
3.600000e-07	-5.140697e-06	-2.626841e-09	-3.667938e+01	-1.677702e+02
3.700000e-07	-5.126470e-06	-2.619141e-09	-3.657787e+01	-1.677308e+02
3.800000e-07	-5.111873e-06	-2.606840e-09	-3.647372e+01	-1.676741e+02
3.900000e-07	-5.096614e-06	-2.594343e-09	-3.636484e+01	-1.676005e+02
4.000000e-07	-5.080713e-06	-2.610055e-09	-3.625139e+01	-1.675107e+02
4.100000e-07	-5.064332e-06	-2.593756e-09	-3.613451e+01	-1.674055e+02
4.200000e-07	-5.047608e-06	-2.580584e-09	-3.601519e+01	-1.672860e+02
4.300000e-07	-5.030552e-06	-2.569320e-09	-3.589349e+01	-1.671531e+02
4.400000e-07	-5.013260e-06	-2.584575e-09	-3.577011e+01	-1.670082e+02
4.500000e-07	-4.995750e-06	-2.580121e-09	-3.564517e+01	-1.668523e+02
4.600000e-07	-4.977891e-06	-2.581787e-09	-3.551775e+01	-1.666867e+02
4.700000e-07	-4.959577e-06	-2.567894e-09	-3.538708e+01	-1.665128e+02
4.800000e-07	-4.940828e-06	-2.574901e-09	-3.525330e+01	-1.663316e+02
4.900000e-07	-4.921700e-06	-2.570837e-09	-3.511682e+01	-1.661444e+02
5.000000e-07	-4.902223e-06	-2.567994e-09	-3.497785e+01	-1.659523e+02
5.100000e-07	-4.882487e-06	-2.554326e-09	-3.483703e+01	-1.657562e+02
5.200000e-07	-4.862592e-06	-2.559724e-09	-3.469508e+01	-1.655572e+02
5.300000e-07	-4.842521e-06	-2.557655e-09	-3.455186e+01	-1.653560e+02
5.400000e-07	-4.822163e-06	-2.556518e-09	-3.440661e+01	-1.651533e+02
5.500000e-07	-4.801467e-06	-2.544007e-09	-3.425894e+01	-1.649496e+02
5.600000e-07	-4.780468e-06	-2.537212e-09	-3.410911e+01	-1.647454e+02
5.700000e-07	-4.759160e-06	-2.536778e-09	-3.395708e+01	-1.645410e+02
5.800000e-07	-4.737515e-06	-2.541657e-09	-3.380264e+01	-1.643364e+02
5.900000e-07	-4.715557e-06	-2.536118e-09	-3.364596e+01	-1.641318e+02
6.000000e-07	-4.693241e-06	-2.529727e-09	-3.348674e+01	-1.639270e+02
6.100000e-07	-4.670543e-06	-2.532947e-09	-3.332479e+01	-1.637220e+02
6.200000e-07	-4.647462e-06	-2.530249e-09	-3.316010e+01	-1.635164e+02
6.300000e-07	-4.624069e-06	-2.519004e-09	-3.299319e+01	-1.633100e+02
6.400000e-07	-4.600461e-06	-2.505891e-09	-3.282474e+01	-1.631023e+02
6.500000e-07	-4.576694e-06	-2.504640e-09	-3.265517e+01	-1.628929e+02
6.600000e-07	-4.552764e-06	-2.502996e-09	-3.248442e+01	-1.626815e+02
6.700000e-07	-4.528546e-06	-2.506175e-09	-3.231163e+01	-1.624675e+02
6.800000e-07	-4.504004e-06	-2.499869e-09	-3.213651e+01	-1.622507e+02
6.900000e-07	-4.479018e-06	-2.500083e-09	-3.195824e+01	-1.620304e+02
7.000000e-07	-4.453516e-06	-2.498237e-09	-3.177628e+01	-1.618065e+02
7.100000e-07	-4.427550e-06	-2.497106e-09	-3.159101e+01	-1.615786e+02
7.200000e-07	-4.401030e-06	-2.480673e-09	-3.140179e+01	-1.613464e+02
7.300000e-07	-4.374048e-06	-2.473482e-09	-3.120926e+01	-1.611098e+02
7.400000e-07	-4.346733e-06	-2.468548e-09	-3.101437e+01	-1.608686e+02
7.500000e-07	-4.319101e-06	-2.471312e-09	-3.081721e+01	-1.606228e+02
7.600000e-07	-4.291224e-06	-2.467118e-09	-3.061831e+01	-1.603723e+02
7.700000e-07	-4.263222e-06	-2.467813e-09	-3.041851e+01	-1.601174e+02
7.800000e-07	-4.235088e-06	-2.461711e-09	-3.021777e+01	-1.598580e+02
7.900000e-07	-4.206625e-06	-2.458433e-09	-3.001468e+01	-1.595943e+02
8.000000e-07	-4.177788e-06	-2.446845e-09	-2.980893e+01	-1.593267e+02
8.100000e-07	-4.148623e-06	-2.439232e-09	-2.960084e+01	-1.590554e+02
8.200000e-07	-4.119175e-06	-2.436176e-09	-2.939072e+01	-1.587806e+02
8.300000e-07	-4.089506e-06	-2.439833e-09	-2.917903e+01	-1.585027e+02
8.400000e-07	-4.059591e-06	-2.435429e-09	-2.896558e+01	-1.582219e+02
8.500000e-07	-4.029346e-06	-2.428767e-09	-2.874978e+01	-1.579386e+02
8.600000e-07	-3.998852e-06	-2.419411e-09	-2.853220e+01	-1.576529e+02
8.700000e-07	-3.968209e-06	-2.411234e-09	-2.831356e+01	-1.573652e+02
8.800000e-07	-3.937267e-06	-2.402112e-09	-2.809279e+01	-1.570755e+02
8.900000e-07	-3.905981e-06	-2.392962e-09	-2.786956e+01	-1.567842e+02
9.000000e-07	-3.874436e-06	-2.390849e-09	-2.764449e+01	-1.564911e+02
9.100000e-07	-3.842736e-06	-2.393578e-09	-2.741830e+01	-1.561965e+02
9.200000e-07	-3.810918e-06	-2.393763e-09	-2.719128e+01	-1.559001e+02
9.300000e-07	-3.778949e-06	-2.383325e-09	-2.696318e+01	-1.556019e+02
9.400000e-07	-3.746773e-06	-2.370715e-09	-2.673360e+01	-1.553019e+02
9.500000e-07	-3.714304e-06	-2.360411e-09	-2.650192e+01	-1.549996e+02
9.600000e-07	-3.681497e-06	-2.356282e-09	-2.626785e+01	-1.546949e+02
9.700000e-07	-3.648283e-06	-2.351103e-09	-2.603086e+01	-1.543875e+02
9.800000e-07	-3.614606e-06	-2.348182e-09	-2.579057e+01	-1.540770e+02
9.900000e-07	-3.580506e-06	-2.345070e-09	-2.554727e+01	-1.537630e+02
1.000000e-06	-3.545962e-06	-2.344064e-09	-2.530079e+01	-1.534451e+02
1.010000e-06	-3.511020e-06	-2.336149e-09	-2.505147e+01	-1.531228e+02
1.020000e-06	-3.475849e-06	-2.322679e-09	-2.480053e+01	-1.527959e+02
1.030000e-06	-3.440422e-06	-2.302788e-09	-2.454775e+01	-1.524639e+02
1.040000e-06	-3.404781e-06	-2.294547e-09	-2.429345e+01	-1.521263e+02
1.050000e-06	-3.369022e-06	-2.292636e-09	-2.403831e+01	-1.517829e+02
1.060000e-06	-3.333084e-06	-2.295890e-09	-2.378188e+01	-1.514334e+02
1.070000e-06	-3.296982e-06	-2.294710e-09	-2.352429e+01	-1.510774e+02
1.080000e-06	-3.260770e-06	-2.291532e-09	-2.326592e+01	-1.507148e+02
1.090000e-06	-3.224268e-06	-2.281056e-09	-2.300547e+01	-1.503453e+02
1.100000e-06	-3.187488e-06	-2.263967e-09	-2.274304e+01	-1.499690e+02
1.110000e-06	-3.150511e-06	-2.245248e-09	-2.247921e+01	-1.495856e+02
1.120000e-06	-3.113272e-06	-2.232655e-09	-2.221350e+01	-1.491953e+02
1.130000e-06	-3.075798e-06	-2.225345e-09	-2.194613e+01	-1.487981e+02
1.140000e-06	-3.038128e-06	-2.224243e-09	-2.167735e+01	-1.483940e+02
1.150000e-06	-3.000278e-06	-2.224731e-09	-2.140728e+01	-1.479832e+02
1.160000e-06	-2.962235e-06	-2.220551e-09	-2.113584e+01	-1.475658e+02
1.170000e-06	-2.924031e-06	-2.211078e-09	-2.086325e+01	-1.471421e+02
1.180000e-06	-2.885669e-06	-2.199168e-09	-2.058953e+01	-1.467122e+02
1.190000e-06	-2.847070e-06	-2.184924e-09	-2.031413e+01	-1.462763e+02
1.200000e-06	-2.808196e-06	-2.171073e-09	-2.003675e+01	-1.458345e+02
1.210000e-06	-2.769118e-06	-2.161425e-09	-1.975793e+01	-1.453871e+02
1.220000e-06	-2.729786e-06	-2.157729e-09	-1.947730e+01	-1.449341e+02
1.230000e-06	-2.690226e-06	-2.159118e-09	-1.919503e+01	-1.444757e+02
1.240000e-06	-2.650586e-06	-2.157885e-09	-1.891220e+01	-1.440118e+02
1.250000e-06	-2.610886e-06	-2.153110e-09	-1.862893e+01	-1.435425e+02
1.260000e-06	-2.571125e-06	-2.143933e-09	-1.834523e+01	-1.430676e+02
1.270000e-06	-2.531280e-06	-2.132672e-09	-1.806093e+01	-1.425869e+02
1.280000e-06	-2.491281e-06	-2.116416e-09	-1.777553e+01	-1.421004e+02
1.290000e-06	-2.451138e-06	-2.102754e-09	-1.748911e+01	-1.416076e+02
1.300000e-06	-2.410884e-06	-2.094568e-09	-1.720190e+01	-1.411082e+02
1.310000e-06	-2.370507e-06	-2.090751e-09	-1.691380e+01	-1.406018e+02
1.320000e-06	-2.329953e-06	-2.087458e-09	-1.662445e+01	-1.400878e+02
1.330000e-06	-2.289127e-06	-2.084109e-09	-1.633315e+01	-1.395658e+02
1.340000e-06	-2.248123e-06	-2.077151e-09	-1.604058e+01	-1.390352e+02
1.350000e-06	-2.206931e-06	-2.066324e-09	-1.574667e+01	-1.384954e+02
1.360000e-06	-2.165397e-06	-2.049990e-09	-1.545032e+01	-1.379456e+02
1.370000e-06	-2.123492e-06	-2.034986e-09	-1.515133e+01	-1.373854e+02
1.380000e-06	-2.081265e-06	-2.022105e-09	-1.485003e+01	-1.368140e+02
1.390000e-06	-2.038883e-06	-2.013128e-09	-1.454763e+01	-1.362307e+02
1.400000e-06	-1.996265e-06	-2.009498e-09	-1.424355e+01	-1.356351e+02
1.410000e-06	-1.953408e-06	-2.008063e-09	-1.393776e+01	-1.350265e+02
1.420000e-06	-1.910419e-06	-2.005379e-09	-1.363103e+01	-1.344045e+02
1.430000e-06	-1.867168e-06	-1.997962e-09	-1.332243e+01	-1.337684e+02
1.440000e-06	-1.823690e-06	-1.983454e-09	-1.301221e+01	-1.331180e+02
1.450000e-06	-1.780146e-06	-1.965213e-09	-1.270152e+01	-1.324529e+02
1.460000e-06	-1.736522e-06	-1.948805e-09	-1.239026e+01	-1.317727e+02
1.470000e-06	-1.692774e-06	-1.936285e-09	-1.207811e+01	-1.310774e+02
1.480000e-06	-1.648961e-06	-1.926139e-09	-1.176550e+01	-1.303668e+02
1.490000e-06	-1.605133e-06	-1.917888e-09	-1.145279e+01	-1.296408e+02
1.500000e-06	-1.561252e-06	-1.911350e-09	-1.113969e+01	-1.288994e+02
1.510000e-06	-1.517292e-06	-1.903541e-09	-1.082603e+01	-1.281426e+02
1.520000e-06	-1.473280e-06	-1.890291e-09	-1.051200e+01	-1.273706e+02
1.530000e-06	-1.429190e-06	-1.871155e-09	-1.019741e+01	-1.265834e+02
1.540000e-06	-1.385026e-06	-1.852927e-09	-9.882298e+00	-1.257811e+02
1.550000e-06	-1.340777e-06	-1.839739e-09	-9.566579e+00	-1.249640e+02
1.560000e-06	-1.296489e-06	-1.829676e-09	-9.250574e+00	-1.241321e+02
1.570000e-06	-1.252199e-06	-1.819596e-09	-8.934562e+00	-1.232855e+02
1.580000e-06	-1.207758e-06	-1.809066e-09	-8.617473e+00	-1.224243e+02
1.590000e-06	-1.163203e-06	-1.796681e-09	-8.299571e+00	-1.215484e+02
1.600000e-06	-1.118620e-06	-1.783281e-09	-7.981465e+00	-1.206576e+02
1.610000e-06	-1.073913e-06	-1.767479e-09	-7.662478e+00	-1.197520e+02
1.620000e-06	-1.029088e-06	-1.751350e-09	-7.342644e+00	-1.188310e+02
1.630000e-06	-9.841229e-07	-1.736087e-09	-7.021814e+00	-1.178944e+02
1.640000e-06	-9.391667e-07	-1.720282e-09	-6.701047e+00	-1.169416e+02
1.650000e-06	-8.942788e-07	-1.704163e-09	-6.380768e+00	-1.159719e+02
1.660000e-06	-8.492513e-07	-1.690301e-09	-6.059492e+00	-1.149844e+02
1.670000e-06	-8.041183e-07	-1.677577e-09	-5.737463e+00	-1.139784e+02
1.680000e-06	-7.589346e-07	-1.662447e-09	-5.415073e+00	-1.129526e+02
1.690000e-06	-7.136577e-07	-1.642012e-09	-5.092018e+00	-1.119059e+02
1.700000e-06	-6.683320e-07	-1.619907e-09	-4.768615e+00	-1.108369e+02
1.710000e-06	-6.229579e-07	-1.599981e-09	-4.444866e+00	-1.097441e+02
1.720000e-06	-5.775520e-07	-1.581786e-09	-4.120891e+00	-1.086261e+02
1.730000e-06	-5.321136e-07	-1.563667e-09	-3.796683e+00	-1.074810e+02
1.740000e-06	-4.865871e-07	-1.546814e-09	-3.471847e+00	-1.063073e+02
1.750000e-06	-4.411006e-07	-1.531008e-09	-3.147297e+00	-1.051030e+02
1.760000e-06	-3.956650e-07	-1.514551e-09	-2.823109e+00	-1.038663e+02
1.770000e-06	-3.501513e-07	-1.493761e-09	-2.498364e+00	-1.025953e+02
1.780000e-06	-3.045938e-07	-1.468919e-09	-2.173307e+00	-1.012882e+02
1.790000e-06	-2.589933e-07	-1.444579e-09	-1.847943e+00	-9.994313e+01
1.800000e-06	-2.133732e-07	-1.422903e-09	-1.522439e+00	-9.855814e+01
1.810000e-06	-1.677888e-07	-1.402255e-09	-1.197189e+00	-9.713147e+01
1.820000e-06	-1.222202e-07	-1.383025e-09	-8.720533e-01	-9.566140e+01
1.830000e-06	-7.658691e-08	-1.364693e-09	-5.464552e-01	-9.414624e+01
1.840000e-06	-3.090243e-08	-1.343438e-09	-2.204919e-01	-9.258445e+01
1.850000e-06	1.477979e-08	-1.317372e-09	1.054552e-01	-9.097456e+01
1.860000e-06	6.042105e-08	-1.287196e-09	4.311102e-01	-8.931520e+01
1.870000e-06	1.060246e-07	-1.258636e-09	7.564961e-01	-8.760516e+01
1.880000e-06	1.516660e-07	-1.233106e-09	1.082152e+00	-8.584332e+01
1.890000e-06	1.972959e-07	-1.208766e-09	1.407726e+00	-8.402870e+01
1.900000e-06	2.428675e-07	-1.183024e-09	1.732883e+00	-8.216046e+01
1.910000e-06	2.884336e-07	-1.156901e-09	2.058002e+00	-8.023786e+01
1.920000e-06	3.340300e-07	-1.130951e-09	2.383337e+00	-7.826032e+01
1.930000e-06	3.796110e-07	-1.103092e-09	2.708562e+00	-7.622734e+01
1.940000e-06	4.251499e-07	-1.071812e-09	3.033487e+00	-7.413858e+01
1.950000e-06	4.706806e-07	-1.038798e-09	3.358353e+00	-7.199377e+01
1.960000e-06	5.162250e-07	-1.005365e-09	3.683316e+00	-6.979275e+01
1.970000e-06	5.617457e-07	-9.715819e-10	4.008111e+00	-6.753546e+01
1.980000e-06	6.071201e-07	-9.364923e-10	4.331862e+00	-6.522193e+01
1.990000e-06	6.523422e-07	-9.008792e-10	4.654526e+00	-6.285227e+01
2.000000e-06	6.975819e-07	-8.668038e-10	4.977316e+00	-6.042665e+01
2.010000e-06	7.428487e-07	-8.338888e-10	5.300299e+00	-5.794532e+01
2.020000e-06	7.880561e-07	-7.988727e-10	5.622858e+00	-5.540860e+01
2.030000e-06	8.331778e-07	-7.618211e-10	5.944806e+00	-5.281688e+01
2.040000e-06	8.782804e-07	-7.248890e-10	6.266618e+00	-5.017060e+01
2.050000e-06	9.232965e-07	-6.884850e-10	6.587812e+00	-4.747028e+01
2.060000e-06	9.681086e-07	-6.496371e-10	6.907550e+00	-4.471652e+01
2.070000e-06	1.012862e-06	-6.079172e-10	7.226873e+00	-4.190999e+01
2.080000e-06	1.057534e-06	-5.660462e-10	7.545610e+00	-3.905144e+01
2.090000e-06	1.102043e-06	-5.241022e-10	7.863184e+00	-3.614174e+01
2.100000e-06	1.146472e-06	-4.793781e-10	8.180190e+00	-3.318185e+01
2.110000e-06	1.190884e-06	-4.338120e-10	8.497079e+00	-3.017288e+01
2.120000e-06	1.235290e-06	-3.911209e-10	8.813918e+00	-2.711603e+01
2.130000e-06	1.279608e-06	-3.516861e-10	9.130127e+00	-2.401271e+01
2.140000e-06	1.323840e-06	-3.107927e-10	9.445727e+00	-2.086443e+01
2.150000e-06	1.368053e-06	-2.630804e-10	9.761191e+00	-1.767294e+01
2.160000e-06	1.412181e-06	-2.107984e-10	1.007605e+01	-1.444013e+01
2.170000e-06	1.456234e-06	-1.601679e-10	1.039037e+01	-1.116814e+01
2.180000e-06	1.500247e-06	-1.104486e-10	1.070441e+01	-7.859269e+00
2.190000e-06	1.544211e-06	-6.064112e-11	1.101810e+01	-4.516085e+00
2.200000e-06	1.588146e-06	-1.374768e-11	1.133158e+01	-1.141356e+00
2.210000e-06	1.632046e-06	3.281742e-11	1.164481e+01	2.261914e+00
2.220000e-06	1.675904e-06	8.309081e-11	1.195774e+01	5.690496e+00
2.230000e-06	1.719696e-06	1.387586e-10	1.227020e+01	9.140938e+00
2.240000e-06	1.763414e-06	1.959500e-10	1.258213e+01	1.260957e+01
2.250000e-06	1.806983e-06	2.503115e-10	1.289300e+01	1.609253e+01
2.260000e-06	1.850469e-06	3.013346e-10	1.320328e+01	1.958576e+01
2.270000e-06	1.893902e-06	3.516117e-10	1.351318e+01	2.308503e+01
2.280000e-06	1.936988e-06	4.013347e-10	1.382060e+01	2.658597e+01
2.290000e-06	1.979728e-06	4.481155e-10	1.412555e+01	3.008409e+01
2.300000e-06	2.022246e-06	4.977416e-10	1.442893e+01	3.357481e+01
2.310000e-06	2.064513e-06	5.543639e-10	1.473050e+01	3.705347e+01
2.320000e-06	2.106525e-06	6.106248e-10	1.503027e+01	4.051543e+01
2.330000e-06	2.148384e-06	6.626711e-10	1.532893e+01	4.395600e+01
2.340000e-06	2.189980e-06	7.087424e-10	1.562572e+01	4.737057e+01
2.350000e-06	2.231238e-06	7.544286e-10	1.592010e+01	5.075461e+01
2.360000e-06	2.272321e-06	8.035827e-10	1.621323e+01	5.410368e+01
2.370000e-06	2.313166e-06	8.525852e-10	1.650467e+01	5.741352e+01
2.380000e-06	2.353757e-06	9.002962e-10	1.679429e+01	6.068003e+01
2.390000e-06	2.394120e-06	9.508205e-10	1.708229e+01	6.389934e+01
2.400000e-06	2.434327e-06	1.002006e-09	1.736916e+01	6.706783e+01
2.410000e-06	2.474496e-06	1.047338e-09	1.765577e+01	7.018213e+01
2.420000e-06	2.514601e-06	1.085889e-09	1.794192e+01	7.323920e+01
2.430000e-06	2.554600e-06	1.124180e-09	1.822733e+01	7.623627e+01
2.440000e-06	2.594523e-06	1.166399e-09	1.851218e+01	7.917094e+01
2.450000e-06	2.634314e-06	1.208046e-09	1.879609e+01	8.204111e+01
2.460000e-06	2.673922e-06	1.247291e-09	1.907870e+01	8.484505e+01
2.470000e-06	2.713394e-06	1.288666e-09	1.936033e+01	8.758138e+01
2.480000e-06	2.752704e-06	1.333250e-09	1.964082e+01	9.024903e+01
2.490000e-06	2.791722e-06	1.374854e-09	1.991921e+01	9.284730e+01
2.500000e-06	2.830411e-06	1.408995e-09	2.019526e+01	9.537578e+01
2.510000e-06	2.868907e-06	1.438771e-09	2.046994e+01	9.783441e+01
2.520000e-06	2.907287e-06	1.469297e-09	2.074378e+01	1.002234e+02
2.530000e-06	2.945477e-06	1.501671e-09	2.101627e+01	1.025431e+02
2.540000e-06	2.983491e-06	1.532858e-09	2.128750e+01	1.047944e+02
2.550000e-06	3.021356e-06	1.565288e-09	2.155768e+01	1.069782e+02
2.560000e-06	3.059047e-06	1.603186e-09	2.182660e+01	1.090955e+02
2.570000e-06	3.096470e-06	1.638595e-09	2.209362e+01	1.111476e+02
2.580000e-06	3.133515e-06	1.665789e-09	2.235794e+01	1.131360e+02
2.590000e-06	3.170353e-06	1.687577e-09	2.262079e+01	1.150620e+02
2.600000e-06	3.207032e-06	1.708946e-09	2.288249e+01	1.169274e+02
2.610000e-06	3.243431e-06	1.732544e-09	2.314220e+01	1.187338e+02
2.620000e-06	3.279636e-06	1.756936e-09	2.340052e+01	1.204827e+02
2.630000e-06	3.315753e-06	1.782177e-09	2.365822e+01	1.221758e+02
2.640000e-06	3.351753e-06	1.809883e-09	2.391509e+01	1.238147e+02
2.650000e-06	3.387587e-06	1.836394e-09	2.417077e+01	1.254010e+02
2.660000e-06	3.423325e-06	1.857823e-09	2.442576e+01	1.269363e+02
2.670000e-06	3.458907e-06	1.874222e-09	2.467965e+01	1.284220e+02
2.680000e-06	3.494241e-06	1.889419e-09	2.493176e+01	1.298595e+02
2.690000e-06	3.529324e-06	1.905286e-09	2.518207e+01	1.312501e+02
2.700000e-06	3.564024e-06	1.921541e-09	2.542967e+01	1.325951e+02
2.710000e-06	3.598300e-06	1.941019e-09	2.567423e+01	1.338956e+02
2.720000e-06	3.632092e-06	1.964268e-09	2.591533e+01	1.351528e+02
2.730000e-06	3.665426e-06	1.986438e-09	2.615318e+01	1.363677e+02
2.740000e-06	3.698384e-06	2.004040e-09	2.638833e+01	1.375412e+02
2.750000e-06	3.730967e-06	2.018219e-09	2.662082e+01	1.386744e+02
2.760000e-06	3.763320e-06	2.033044e-09	2.685166e+01	1.397681e+02
2.770000e-06	3.795508e-06	2.047242e-09	2.708133e+01	1.408231e+02
2.780000e-06	3.827534e-06	2.058685e-09	2.730984e+01	1.418404e+02
2.790000e-06	3.859407e-06	2.069388e-09	2.753725e+01	1.428208e+02
2.800000e-06	3.891165e-06	2.084038e-09	2.776385e+01	1.437652e+02
2.810000e-06	3.922696e-06	2.101692e-09	2.798882e+01	1.446744e+02
2.820000e-06	3.953836e-06	2.115775e-09	2.821101e+01	1.455493e+02
2.830000e-06	3.984568e-06	2.124294e-09	2.843029e+01	1.463910e+02
2.840000e-06	4.015037e-06	2.134375e-09	2.864768e+01	1.472004e+02
2.850000e-06	4.045285e-06	2.150214e-09	2.886351e+01	1.479784e+02
2.860000e-06	4.075236e-06	2.166602e-09	2.907722e+01	1.487262e+02
2.870000e-06	4.104901e-06	2.177744e-09	2.928888e+01	1.494449e+02
2.880000e-06	4.134303e-06	2.184152e-09	2.949867e+01	1.501356e+02
2.890000e-06	4.163406e-06	2.191013e-09	2.970631e+01	1.507994e+02
2.900000e-06	4.192182e-06	2.198169e-09	2.991163e+01	1.514376e+02
