# Temperatura_=_16.21
# Concentracion g/m^3_=_4090.0
# C_Vs_to_Am_M_A/Vsm_=_65563218390.804596
# pendiente_HvsI_1/m_=_3716.3
# ordenada_HvsI_A/m_=_1297.0
# frecuencia_Hz_=_135076.15912153633

Tiempo_(s)	Campo_(V.s)	Magnetizacion_(V.s)	Campo_(kA/m)	Magnetizacion_(A/m)
0.000000e+00	-5.399750e-06	-2.338753e-09	-3.838911e+01	-1.533257e+02
1.000000e-08	-5.399919e-06	-2.335172e-09	-3.839031e+01	-1.532300e+02
2.000000e-08	-5.399826e-06	-2.334464e-09	-3.838965e+01	-1.531352e+02
3.000000e-08	-5.399449e-06	-2.332148e-09	-3.838696e+01	-1.530428e+02
4.000000e-08	-5.398720e-06	-2.330183e-09	-3.838178e+01	-1.529542e+02
5.000000e-08	-5.397496e-06	-2.332820e-09	-3.837308e+01	-1.528705e+02
6.000000e-08	-5.395735e-06	-2.338522e-09	-3.836056e+01	-1.527931e+02
7.000000e-08	-5.393416e-06	-2.337887e-09	-3.834408e+01	-1.527231e+02
8.000000e-08	-5.390457e-06	-2.311542e-09	-3.832304e+01	-1.526614e+02
9.000000e-08	-5.386766e-06	-2.290001e-09	-3.829679e+01	-1.526089e+02
1.000000e-07	-5.382658e-06	-2.351466e-09	-3.826759e+01	-1.525664e+02
1.100000e-07	-5.378426e-06	-2.428859e-09	-3.823751e+01	-1.525342e+02
1.200000e-07	-5.373977e-06	-2.332914e-09	-3.820588e+01	-1.525127e+02
1.300000e-07	-5.369211e-06	-2.266255e-09	-3.817199e+01	-1.525021e+02
1.400000e-07	-5.364100e-06	-2.315449e-09	-3.813566e+01	-1.525022e+02
1.500000e-07	-5.358603e-06	-2.434531e-09	-3.809657e+01	-1.525128e+02
1.600000e-07	-5.352677e-06	-2.335301e-09	-3.805444e+01	-1.525333e+02
1.700000e-07	-5.346419e-06	-2.210068e-09	-3.800996e+01	-1.525631e+02
1.800000e-07	-5.339760e-06	-2.322548e-09	-3.796261e+01	-1.526013e+02
1.900000e-07	-5.332725e-06	-2.461092e-09	-3.791260e+01	-1.526468e+02
2.000000e-07	-5.325412e-06	-2.389849e-09	-3.786061e+01	-1.526985e+02
2.100000e-07	-5.317789e-06	-2.286161e-09	-3.780641e+01	-1.527549e+02
2.200000e-07	-5.309872e-06	-2.394790e-09	-3.775012e+01	-1.528146e+02
2.300000e-07	-5.301711e-06	-2.440186e-09	-3.769210e+01	-1.528761e+02
2.400000e-07	-5.293248e-06	-2.344629e-09	-3.763194e+01	-1.529377e+02
2.500000e-07	-5.284299e-06	-2.318005e-09	-3.756832e+01	-1.529978e+02
2.600000e-07	-5.274814e-06	-2.441402e-09	-3.750088e+01	-1.530548e+02
2.700000e-07	-5.264685e-06	-2.408455e-09	-3.742888e+01	-1.531071e+02
2.800000e-07	-5.253969e-06	-2.329858e-09	-3.735269e+01	-1.531530e+02
2.900000e-07	-5.242766e-06	-2.387480e-09	-3.727304e+01	-1.531911e+02
3.000000e-07	-5.231103e-06	-2.456035e-09	-3.719012e+01	-1.532200e+02
3.100000e-07	-5.219074e-06	-2.346817e-09	-3.710461e+01	-1.532384e+02
3.200000e-07	-5.206677e-06	-2.312967e-09	-3.701647e+01	-1.532452e+02
3.300000e-07	-5.193918e-06	-2.414357e-09	-3.692576e+01	-1.532395e+02
3.400000e-07	-5.180755e-06	-2.424115e-09	-3.683218e+01	-1.532204e+02
3.500000e-07	-5.167178e-06	-2.330856e-09	-3.673565e+01	-1.531874e+02
3.600000e-07	-5.153271e-06	-2.363793e-09	-3.663678e+01	-1.531401e+02
3.700000e-07	-5.138986e-06	-2.399643e-09	-3.653523e+01	-1.530782e+02
3.800000e-07	-5.124069e-06	-2.347925e-09	-3.642917e+01	-1.530018e+02
3.900000e-07	-5.108507e-06	-2.326809e-09	-3.631854e+01	-1.529109e+02
4.000000e-07	-5.092574e-06	-2.374397e-09	-3.620526e+01	-1.528060e+02
4.100000e-07	-5.076281e-06	-2.342473e-09	-3.608943e+01	-1.526876e+02
4.200000e-07	-5.059574e-06	-2.319924e-09	-3.597065e+01	-1.525563e+02
4.300000e-07	-5.042503e-06	-2.373594e-09	-3.584928e+01	-1.524130e+02
4.400000e-07	-5.025083e-06	-2.360332e-09	-3.572544e+01	-1.522584e+02
4.500000e-07	-5.007365e-06	-2.304782e-09	-3.559948e+01	-1.520937e+02
4.600000e-07	-4.989344e-06	-2.323505e-09	-3.547136e+01	-1.519199e+02
4.700000e-07	-4.970912e-06	-2.363625e-09	-3.534032e+01	-1.517381e+02
4.800000e-07	-4.952092e-06	-2.322908e-09	-3.520651e+01	-1.515493e+02
4.900000e-07	-4.932923e-06	-2.311036e-09	-3.507023e+01	-1.513548e+02
5.000000e-07	-4.913406e-06	-2.324357e-09	-3.493148e+01	-1.511556e+02
5.100000e-07	-4.893610e-06	-2.328939e-09	-3.479074e+01	-1.509527e+02
5.200000e-07	-4.873539e-06	-2.314088e-09	-3.464805e+01	-1.507470e+02
5.300000e-07	-4.853211e-06	-2.316101e-09	-3.450353e+01	-1.505396e+02
5.400000e-07	-4.832669e-06	-2.290730e-09	-3.435749e+01	-1.503310e+02
5.500000e-07	-4.811874e-06	-2.300609e-09	-3.420965e+01	-1.501219e+02
5.600000e-07	-4.790710e-06	-2.312374e-09	-3.405918e+01	-1.499130e+02
5.700000e-07	-4.769205e-06	-2.299491e-09	-3.390630e+01	-1.497045e+02
5.800000e-07	-4.747433e-06	-2.273035e-09	-3.375151e+01	-1.494966e+02
5.900000e-07	-4.725403e-06	-2.287316e-09	-3.359489e+01	-1.492896e+02
6.000000e-07	-4.702989e-06	-2.288513e-09	-3.343554e+01	-1.490834e+02
6.100000e-07	-4.680150e-06	-2.279960e-09	-3.327317e+01	-1.488778e+02
6.200000e-07	-4.656957e-06	-2.266362e-09	-3.310828e+01	-1.486726e+02
6.300000e-07	-4.633516e-06	-2.266102e-09	-3.294162e+01	-1.484674e+02
6.400000e-07	-4.609901e-06	-2.270858e-09	-3.277374e+01	-1.482618e+02
6.500000e-07	-4.586023e-06	-2.275489e-09	-3.260397e+01	-1.480552e+02
6.600000e-07	-4.561858e-06	-2.253886e-09	-3.243218e+01	-1.478471e+02
6.700000e-07	-4.537421e-06	-2.240605e-09	-3.225845e+01	-1.476368e+02
6.800000e-07	-4.512612e-06	-2.251220e-09	-3.208207e+01	-1.474237e+02
6.900000e-07	-4.487363e-06	-2.256132e-09	-3.190256e+01	-1.472071e+02
7.000000e-07	-4.461671e-06	-2.242303e-09	-3.171990e+01	-1.469865e+02
7.100000e-07	-4.435494e-06	-2.230995e-09	-3.153380e+01	-1.467611e+02
7.200000e-07	-4.408741e-06	-2.234021e-09	-3.134360e+01	-1.465305e+02
7.300000e-07	-4.381495e-06	-2.237165e-09	-3.114990e+01	-1.462942e+02
7.400000e-07	-4.353938e-06	-2.232830e-09	-3.095399e+01	-1.460517e+02
7.500000e-07	-4.326167e-06	-2.216560e-09	-3.075655e+01	-1.458027e+02
7.600000e-07	-4.298185e-06	-2.214541e-09	-3.055762e+01	-1.455469e+02
7.700000e-07	-4.269992e-06	-2.218467e-09	-3.035718e+01	-1.452842e+02
7.800000e-07	-4.241621e-06	-2.215397e-09	-3.015548e+01	-1.450144e+02
7.900000e-07	-4.212971e-06	-2.198543e-09	-2.995179e+01	-1.447378e+02
8.000000e-07	-4.184054e-06	-2.196005e-09	-2.974621e+01	-1.444542e+02
8.100000e-07	-4.154856e-06	-2.198275e-09	-2.953863e+01	-1.441641e+02
8.200000e-07	-4.125340e-06	-2.201875e-09	-2.932878e+01	-1.438675e+02
8.300000e-07	-4.095480e-06	-2.190245e-09	-2.911650e+01	-1.435650e+02
8.400000e-07	-4.065247e-06	-2.182578e-09	-2.890156e+01	-1.432569e+02
8.500000e-07	-4.034752e-06	-2.179875e-09	-2.868476e+01	-1.429437e+02
8.600000e-07	-4.004103e-06	-2.182446e-09	-2.846686e+01	-1.426258e+02
8.700000e-07	-3.973231e-06	-2.169688e-09	-2.824738e+01	-1.423039e+02
8.800000e-07	-3.942083e-06	-2.156551e-09	-2.802594e+01	-1.419783e+02
8.900000e-07	-3.910662e-06	-2.151782e-09	-2.780255e+01	-1.416496e+02
9.000000e-07	-3.879018e-06	-2.159344e-09	-2.757758e+01	-1.413183e+02
9.100000e-07	-3.847229e-06	-2.155979e-09	-2.735158e+01	-1.409849e+02
9.200000e-07	-3.815212e-06	-2.145775e-09	-2.712396e+01	-1.406497e+02
9.300000e-07	-3.782973e-06	-2.135356e-09	-2.689476e+01	-1.403131e+02
9.400000e-07	-3.750550e-06	-2.132953e-09	-2.666425e+01	-1.399754e+02
9.500000e-07	-3.717892e-06	-2.126748e-09	-2.643206e+01	-1.396368e+02
9.600000e-07	-3.684873e-06	-2.116295e-09	-2.619732e+01	-1.392974e+02
9.700000e-07	-3.651414e-06	-2.110458e-09	-2.595945e+01	-1.389574e+02
9.800000e-07	-3.617511e-06	-2.111045e-09	-2.571842e+01	-1.386166e+02
9.900000e-07	-3.583129e-06	-2.107304e-09	-2.547398e+01	-1.382751e+02
1.000000e-06	-3.548363e-06	-2.096074e-09	-2.522681e+01	-1.379326e+02
1.010000e-06	-3.513403e-06	-2.083525e-09	-2.497827e+01	-1.375889e+02
1.020000e-06	-3.478227e-06	-2.074431e-09	-2.472819e+01	-1.372437e+02
1.030000e-06	-3.442692e-06	-2.068528e-09	-2.447555e+01	-1.368967e+02
1.040000e-06	-3.406930e-06	-2.062397e-09	-2.422130e+01	-1.365474e+02
1.050000e-06	-3.371045e-06	-2.059784e-09	-2.396618e+01	-1.361955e+02
1.060000e-06	-3.334959e-06	-2.057762e-09	-2.370963e+01	-1.358404e+02
1.070000e-06	-3.298673e-06	-2.056883e-09	-2.345166e+01	-1.354818e+02
1.080000e-06	-3.262232e-06	-2.049944e-09	-2.319259e+01	-1.351191e+02
1.090000e-06	-3.225619e-06	-2.039419e-09	-2.293229e+01	-1.347519e+02
1.100000e-06	-3.188769e-06	-2.027509e-09	-2.267031e+01	-1.343797e+02
1.110000e-06	-3.151703e-06	-2.021335e-09	-2.240679e+01	-1.340021e+02
1.120000e-06	-3.114384e-06	-2.014044e-09	-2.214147e+01	-1.336187e+02
1.130000e-06	-3.076803e-06	-2.005752e-09	-2.187429e+01	-1.332291e+02
1.140000e-06	-3.039010e-06	-1.995992e-09	-2.160561e+01	-1.328330e+02
1.150000e-06	-3.001027e-06	-1.994515e-09	-2.133557e+01	-1.324300e+02
1.160000e-06	-2.962869e-06	-1.989448e-09	-2.106429e+01	-1.320200e+02
1.170000e-06	-2.924433e-06	-1.984781e-09	-2.079103e+01	-1.316028e+02
1.180000e-06	-2.885752e-06	-1.976710e-09	-2.051603e+01	-1.311781e+02
1.190000e-06	-2.846875e-06	-1.969042e-09	-2.023964e+01	-1.307459e+02
1.200000e-06	-2.807768e-06	-1.954998e-09	-1.996161e+01	-1.303061e+02
1.210000e-06	-2.768446e-06	-1.935937e-09	-1.968205e+01	-1.298585e+02
1.220000e-06	-2.728915e-06	-1.923513e-09	-1.940101e+01	-1.294032e+02
1.230000e-06	-2.689193e-06	-1.920252e-09	-1.911861e+01	-1.289400e+02
1.240000e-06	-2.649366e-06	-1.918369e-09	-1.883546e+01	-1.284690e+02
1.250000e-06	-2.609433e-06	-1.916065e-09	-1.855156e+01	-1.279901e+02
1.260000e-06	-2.569419e-06	-1.911696e-09	-1.826709e+01	-1.275033e+02
1.270000e-06	-2.529370e-06	-1.904838e-09	-1.798236e+01	-1.270083e+02
1.280000e-06	-2.489222e-06	-1.889517e-09	-1.769693e+01	-1.265053e+02
1.290000e-06	-2.448966e-06	-1.870229e-09	-1.741074e+01	-1.259939e+02
1.300000e-06	-2.408616e-06	-1.855724e-09	-1.712387e+01	-1.254741e+02
1.310000e-06	-2.368016e-06	-1.847083e-09	-1.683523e+01	-1.249455e+02
1.320000e-06	-2.327195e-06	-1.842700e-09	-1.654501e+01	-1.244080e+02
1.330000e-06	-2.286263e-06	-1.838785e-09	-1.625401e+01	-1.238611e+02
1.340000e-06	-2.245137e-06	-1.835210e-09	-1.596163e+01	-1.233046e+02
1.350000e-06	-2.203643e-06	-1.826419e-09	-1.566663e+01	-1.227379e+02
1.360000e-06	-2.161761e-06	-1.813371e-09	-1.536888e+01	-1.221608e+02
1.370000e-06	-2.119678e-06	-1.798714e-09	-1.506969e+01	-1.215725e+02
1.380000e-06	-2.077424e-06	-1.786387e-09	-1.476929e+01	-1.209727e+02
1.390000e-06	-2.034960e-06	-1.774341e-09	-1.446739e+01	-1.203608e+02
1.400000e-06	-1.992225e-06	-1.765398e-09	-1.416357e+01	-1.197361e+02
1.410000e-06	-1.949185e-06	-1.757394e-09	-1.385758e+01	-1.190982e+02
1.420000e-06	-1.905922e-06	-1.752024e-09	-1.355000e+01	-1.184464e+02
1.430000e-06	-1.862571e-06	-1.742834e-09	-1.324180e+01	-1.177801e+02
1.440000e-06	-1.819154e-06	-1.727372e-09	-1.293313e+01	-1.170988e+02
1.450000e-06	-1.775590e-06	-1.709898e-09	-1.262342e+01	-1.164020e+02
1.460000e-06	-1.731901e-06	-1.700198e-09	-1.231281e+01	-1.156890e+02
1.470000e-06	-1.688105e-06	-1.692709e-09	-1.200146e+01	-1.149595e+02
1.480000e-06	-1.644225e-06	-1.683092e-09	-1.168949e+01	-1.142130e+02
1.490000e-06	-1.600246e-06	-1.672230e-09	-1.137683e+01	-1.134491e+02
1.500000e-06	-1.556137e-06	-1.663568e-09	-1.106324e+01	-1.126674e+02
1.510000e-06	-1.511994e-06	-1.652527e-09	-1.074940e+01	-1.118675e+02
1.520000e-06	-1.467829e-06	-1.635349e-09	-1.043541e+01	-1.110492e+02
1.530000e-06	-1.423582e-06	-1.615572e-09	-1.012084e+01	-1.102123e+02
1.540000e-06	-1.379256e-06	-1.600628e-09	-9.805713e+00	-1.093564e+02
1.550000e-06	-1.334842e-06	-1.590530e-09	-9.489956e+00	-1.084814e+02
1.560000e-06	-1.290402e-06	-1.581304e-09	-9.174010e+00	-1.075870e+02
1.570000e-06	-1.245887e-06	-1.569076e-09	-8.857539e+00	-1.066731e+02
1.580000e-06	-1.201124e-06	-1.553257e-09	-8.539302e+00	-1.057394e+02
1.590000e-06	-1.156242e-06	-1.538484e-09	-8.220215e+00	-1.047857e+02
1.600000e-06	-1.111403e-06	-1.523859e-09	-7.901433e+00	-1.038117e+02
1.610000e-06	-1.066509e-06	-1.504545e-09	-7.582266e+00	-1.028169e+02
1.620000e-06	-1.021506e-06	-1.484579e-09	-7.262321e+00	-1.018011e+02
1.630000e-06	-9.764295e-07	-1.469238e-09	-6.941851e+00	-1.007637e+02
1.640000e-06	-9.312730e-07	-1.456472e-09	-6.620814e+00	-9.970420e+01
1.650000e-06	-8.860596e-07	-1.443392e-09	-6.299372e+00	-9.862184e+01
1.660000e-06	-8.407898e-07	-1.428677e-09	-5.977530e+00	-9.751587e+01
1.670000e-06	-7.954183e-07	-1.414028e-09	-5.654965e+00	-9.638539e+01
1.680000e-06	-7.499490e-07	-1.395635e-09	-5.331705e+00	-9.522940e+01
1.690000e-06	-7.045014e-07	-1.371021e-09	-5.008599e+00	-9.404676e+01
1.700000e-06	-6.591288e-07	-1.343547e-09	-4.686026e+00	-9.283622e+01
1.710000e-06	-6.137066e-07	-1.322142e-09	-4.363099e+00	-9.159644e+01
1.720000e-06	-5.681403e-07	-1.306714e-09	-4.039150e+00	-9.032593e+01
1.730000e-06	-5.225463e-07	-1.292466e-09	-3.715003e+00	-8.902314e+01
1.740000e-06	-4.769499e-07	-1.275667e-09	-3.390839e+00	-8.768643e+01
1.750000e-06	-4.313076e-07	-1.260246e-09	-3.066348e+00	-8.631407e+01
1.760000e-06	-3.856336e-07	-1.244012e-09	-2.741632e+00	-8.490429e+01
1.770000e-06	-3.399607e-07	-1.221288e-09	-2.416924e+00	-8.345530e+01
1.780000e-06	-2.942810e-07	-1.188808e-09	-2.092168e+00	-8.196528e+01
1.790000e-06	-2.485493e-07	-1.156055e-09	-1.767042e+00	-8.043244e+01
1.800000e-06	-2.028174e-07	-1.130609e-09	-1.441915e+00	-7.885498e+01
1.810000e-06	-1.570680e-07	-1.110445e-09	-1.116663e+00	-7.723122e+01
1.820000e-06	-1.113173e-07	-1.089128e-09	-7.914019e-01	-7.555952e+01
1.830000e-06	-6.553397e-08	-1.064174e-09	-4.659087e-01	-7.383835e+01
1.840000e-06	-1.971227e-08	-1.037890e-09	-1.401429e-01	-7.206633e+01
1.850000e-06	2.609312e-08	-1.012118e-09	1.855070e-01	-7.024221e+01
1.860000e-06	7.191760e-08	-9.823766e-10	5.112926e-01	-6.836493e+01
1.870000e-06	1.177702e-07	-9.460802e-10	8.372785e-01	-6.643361e+01
1.880000e-06	1.635587e-07	-9.119815e-10	1.162808e+00	-6.444758e+01
1.890000e-06	2.093015e-07	-8.838919e-10	1.488013e+00	-6.240639e+01
1.900000e-06	2.551170e-07	-8.555090e-10	1.813734e+00	-6.030982e+01
1.910000e-06	3.009442e-07	-8.227206e-10	2.139540e+00	-5.815791e+01
1.920000e-06	3.467421e-07	-7.893648e-10	2.465136e+00	-5.595092e+01
1.930000e-06	3.924727e-07	-7.593559e-10	2.790254e+00	-5.368935e+01
1.940000e-06	4.381858e-07	-7.292367e-10	3.115248e+00	-5.137397e+01
1.950000e-06	4.838713e-07	-6.948488e-10	3.440046e+00	-4.900578e+01
1.960000e-06	5.294528e-07	-6.581587e-10	3.764104e+00	-4.658599e+01
1.970000e-06	5.749941e-07	-6.212726e-10	4.087876e+00	-4.411606e+01
1.980000e-06	6.204636e-07	-5.838003e-10	4.411138e+00	-4.159764e+01
1.990000e-06	6.658363e-07	-5.436676e-10	4.733712e+00	-3.903257e+01
2.000000e-06	7.111493e-07	-5.023292e-10	5.055861e+00	-3.642286e+01
2.010000e-06	7.564850e-07	-4.624685e-10	5.378172e+00	-3.377070e+01
2.020000e-06	8.018696e-07	-4.249189e-10	5.700830e+00	-3.107838e+01
2.030000e-06	8.471597e-07	-3.875488e-10	6.022817e+00	-2.834833e+01
2.040000e-06	8.923023e-07	-3.496189e-10	6.343755e+00	-2.558305e+01
2.050000e-06	9.373592e-07	-3.105187e-10	6.664083e+00	-2.278514e+01
2.060000e-06	9.823877e-07	-2.703253e-10	6.984210e+00	-1.995723e+01
2.070000e-06	1.027403e-06	-2.294658e-10	7.304244e+00	-1.710198e+01
2.080000e-06	1.072370e-06	-1.867092e-10	7.623930e+00	-1.422208e+01
2.090000e-06	1.117235e-06	-1.394562e-10	7.942899e+00	-1.132021e+01
2.100000e-06	1.161930e-06	-9.333425e-11	8.260652e+00	-8.399033e+00
2.110000e-06	1.206547e-06	-5.210267e-11	8.577850e+00	-5.461189e+00
2.120000e-06	1.251146e-06	-1.440647e-11	8.894923e+00	-2.509272e+00
2.130000e-06	1.295657e-06	2.287565e-11	9.211373e+00	4.541706e-01
2.140000e-06	1.340065e-06	6.259620e-11	9.527087e+00	3.426642e+00
2.150000e-06	1.384353e-06	1.056783e-10	9.841953e+00	6.405704e+00
2.160000e-06	1.428572e-06	1.505116e-10	1.015632e+01	9.388975e+00
2.170000e-06	1.472713e-06	1.958413e-10	1.047014e+01	1.237413e+01
2.180000e-06	1.516796e-06	2.407945e-10	1.078354e+01	1.535891e+01
2.190000e-06	1.560888e-06	2.838395e-10	1.109701e+01	1.834110e+01
2.200000e-06	1.604901e-06	3.255213e-10	1.140992e+01	2.131852e+01
2.210000e-06	1.648792e-06	3.662019e-10	1.172196e+01	2.428905e+01
2.220000e-06	1.692616e-06	4.077688e-10	1.203353e+01	2.725060e+01
2.230000e-06	1.736409e-06	4.511681e-10	1.234487e+01	3.020109e+01
2.240000e-06	1.780172e-06	4.956347e-10	1.265599e+01	3.313849e+01
2.250000e-06	1.823853e-06	5.386311e-10	1.296654e+01	3.606076e+01
2.260000e-06	1.867379e-06	5.792360e-10	1.327599e+01	3.896588e+01
2.270000e-06	1.910689e-06	6.198583e-10	1.358390e+01	4.185182e+01
2.280000e-06	1.953970e-06	6.619951e-10	1.389160e+01	4.471658e+01
2.290000e-06	1.997245e-06	7.034738e-10	1.419926e+01	4.755814e+01
2.300000e-06	2.040193e-06	7.435372e-10	1.450459e+01	5.037447e+01
2.310000e-06	2.082772e-06	7.841451e-10	1.480730e+01	5.316356e+01
2.320000e-06	2.125061e-06	8.257802e-10	1.510796e+01	5.592338e+01
2.330000e-06	2.166948e-06	8.653424e-10	1.540575e+01	5.865194e+01
2.340000e-06	2.208518e-06	9.001460e-10	1.570129e+01	6.134725e+01
2.350000e-06	2.249950e-06	9.335083e-10	1.599584e+01	6.400734e+01
2.360000e-06	2.291085e-06	9.712934e-10	1.628829e+01	6.663028e+01
2.370000e-06	2.332000e-06	1.012105e-09	1.657917e+01	6.921419e+01
2.380000e-06	2.372810e-06	1.051414e-09	1.686931e+01	7.175724e+01
2.390000e-06	2.413396e-06	1.088619e-09	1.715785e+01	7.425768e+01
2.400000e-06	2.453778e-06	1.126129e-09	1.744494e+01	7.671385e+01
2.410000e-06	2.493991e-06	1.163190e-09	1.773083e+01	7.912419e+01
2.420000e-06	2.534087e-06	1.193446e-09	1.801590e+01	8.148724e+01
2.430000e-06	2.574070e-06	1.216869e-09	1.830016e+01	8.380167e+01
2.440000e-06	2.613937e-06	1.242184e-09	1.858358e+01	8.606630e+01
2.450000e-06	2.653725e-06	1.274714e-09	1.886645e+01	8.828011e+01
2.460000e-06	2.693358e-06	1.310660e-09	1.914822e+01	9.044221e+01
2.470000e-06	2.732848e-06	1.345699e-09	1.942897e+01	9.255189e+01
2.480000e-06	2.772211e-06	1.379468e-09	1.970882e+01	9.460863e+01
2.490000e-06	2.811321e-06	1.412940e-09	1.998687e+01	9.661207e+01
2.500000e-06	2.850177e-06	1.443925e-09	2.026311e+01	9.856204e+01
2.510000e-06	2.888796e-06	1.467477e-09	2.053767e+01	1.004585e+02
2.520000e-06	2.927190e-06	1.486448e-09	2.081063e+01	1.023017e+02
2.530000e-06	2.965409e-06	1.508532e-09	2.108234e+01	1.040920e+02
2.540000e-06	3.003439e-06	1.536033e-09	2.135272e+01	1.058298e+02
2.550000e-06	3.041275e-06	1.565269e-09	2.162171e+01	1.075158e+02
2.560000e-06	3.078981e-06	1.592048e-09	2.188978e+01	1.091508e+02
2.570000e-06	3.116568e-06	1.617098e-09	2.215700e+01	1.107358e+02
2.580000e-06	3.153946e-06	1.643499e-09	2.242273e+01	1.122718e+02
2.590000e-06	3.191000e-06	1.665809e-09	2.268617e+01	1.137598e+02
2.600000e-06	3.227743e-06	1.680061e-09	2.294739e+01	1.152012e+02
2.610000e-06	3.264246e-06	1.694282e-09	2.320691e+01	1.165971e+02
2.620000e-06	3.300592e-06	1.713593e-09	2.346531e+01	1.179489e+02
2.630000e-06	3.336820e-06	1.734679e-09	2.372286e+01	1.192579e+02
2.640000e-06	3.372862e-06	1.753958e-09	2.397911e+01	1.205254e+02
2.650000e-06	3.408736e-06	1.772621e-09	2.423414e+01	1.217528e+02
2.660000e-06	3.444512e-06	1.791923e-09	2.448849e+01	1.229414e+02
2.670000e-06	3.480201e-06	1.810953e-09	2.474222e+01	1.240925e+02
2.680000e-06	3.515700e-06	1.825398e-09	2.499460e+01	1.252073e+02
2.690000e-06	3.550890e-06	1.835078e-09	2.524478e+01	1.262869e+02
2.700000e-06	3.585756e-06	1.845172e-09	2.549266e+01	1.273325e+02
2.710000e-06	3.620245e-06	1.859780e-09	2.573785e+01	1.283450e+02
2.720000e-06	3.654169e-06	1.877633e-09	2.597903e+01	1.293256e+02
2.730000e-06	3.687571e-06	1.894697e-09	2.621650e+01	1.302750e+02
2.740000e-06	3.720609e-06	1.910907e-09	2.645138e+01	1.311941e+02
2.750000e-06	3.753335e-06	1.927478e-09	2.668404e+01	1.320836e+02
2.760000e-06	3.785756e-06	1.941403e-09	2.691454e+01	1.329442e+02
2.770000e-06	3.817937e-06	1.948640e-09	2.714333e+01	1.337766e+02
2.780000e-06	3.849961e-06	1.953404e-09	2.737100e+01	1.345813e+02
2.790000e-06	3.881828e-06	1.960600e-09	2.759755e+01	1.353587e+02
2.800000e-06	3.913505e-06	1.970541e-09	2.782277e+01	1.361095e+02
2.810000e-06	3.944901e-06	1.982098e-09	2.804597e+01	1.368341e+02
2.820000e-06	3.975975e-06	1.993153e-09	2.826689e+01	1.375330e+02
2.830000e-06	4.006718e-06	2.004891e-09	2.848545e+01	1.382065e+02
2.840000e-06	4.037154e-06	2.018206e-09	2.870184e+01	1.388551e+02
2.850000e-06	4.067410e-06	2.029657e-09	2.891693e+01	1.394794e+02
2.860000e-06	4.097446e-06	2.038797e-09	2.913047e+01	1.400797e+02
2.870000e-06	4.127203e-06	2.045605e-09	2.934203e+01	1.406566e+02
2.880000e-06	4.156698e-06	2.050675e-09	2.955173e+01	1.412106e+02
2.890000e-06	4.185945e-06	2.054152e-09	2.975966e+01	1.417423e+02
2.900000e-06	4.214847e-06	2.057950e-09	2.996513e+01	1.422522e+02
