# Temperatura_=_11.4
# Concentracion g/m^3_=_4090.0
# C_Vs_to_Am_M_A/Vsm_=_65563218390.804596
# pendiente_HvsI_1/m_=_3716.3
# ordenada_HvsI_A/m_=_1297.0
# frecuencia_Hz_=_135072.16790694807

Tiempo_(s)	Campo_(V.s)	Magnetizacion_(V.s)	Campo_(kA/m)	Magnetizacion_(A/m)
0.000000e+00	-5.377551e-06	-2.445178e-09	-3.840237e+01	-1.598524e+02
1.000000e-08	-5.377533e-06	-2.445954e-09	-3.840224e+01	-1.597805e+02
2.000000e-08	-5.377317e-06	-2.449647e-09	-3.840069e+01	-1.597111e+02
3.000000e-08	-5.376857e-06	-2.452994e-09	-3.839741e+01	-1.596454e+02
4.000000e-08	-5.376048e-06	-2.454164e-09	-3.839163e+01	-1.595846e+02
5.000000e-08	-5.374724e-06	-2.454476e-09	-3.838218e+01	-1.595301e+02
6.000000e-08	-5.372761e-06	-2.457941e-09	-3.836816e+01	-1.594830e+02
7.000000e-08	-5.370215e-06	-2.444495e-09	-3.834998e+01	-1.594442e+02
8.000000e-08	-5.366968e-06	-2.389365e-09	-3.832679e+01	-1.594146e+02
9.000000e-08	-5.363041e-06	-2.397826e-09	-3.829875e+01	-1.593950e+02
1.000000e-07	-5.358762e-06	-2.540990e-09	-3.826819e+01	-1.593858e+02
1.100000e-07	-5.354363e-06	-2.541444e-09	-3.823677e+01	-1.593875e+02
1.200000e-07	-5.349811e-06	-2.387286e-09	-3.820427e+01	-1.594001e+02
1.300000e-07	-5.344849e-06	-2.354883e-09	-3.816883e+01	-1.594235e+02
1.400000e-07	-5.339424e-06	-2.536159e-09	-3.813009e+01	-1.594576e+02
1.500000e-07	-5.333714e-06	-2.572191e-09	-3.808932e+01	-1.595017e+02
1.600000e-07	-5.327758e-06	-2.333702e-09	-3.804678e+01	-1.595551e+02
1.700000e-07	-5.321389e-06	-2.326761e-09	-3.800130e+01	-1.596170e+02
1.800000e-07	-5.314622e-06	-2.562704e-09	-3.795297e+01	-1.596862e+02
1.900000e-07	-5.307467e-06	-2.605893e-09	-3.790188e+01	-1.597616e+02
2.000000e-07	-5.299963e-06	-2.414884e-09	-3.784829e+01	-1.598416e+02
2.100000e-07	-5.292228e-06	-2.434033e-09	-3.779306e+01	-1.599248e+02
2.200000e-07	-5.284259e-06	-2.595634e-09	-3.773615e+01	-1.600095e+02
2.300000e-07	-5.276028e-06	-2.534096e-09	-3.767736e+01	-1.600941e+02
2.400000e-07	-5.267410e-06	-2.411331e-09	-3.761582e+01	-1.601767e+02
2.500000e-07	-5.258278e-06	-2.518558e-09	-3.755061e+01	-1.602557e+02
2.600000e-07	-5.248514e-06	-2.606735e-09	-3.748088e+01	-1.603294e+02
2.700000e-07	-5.238034e-06	-2.481240e-09	-3.740604e+01	-1.603959e+02
2.800000e-07	-5.227063e-06	-2.459697e-09	-3.732770e+01	-1.604537e+02
2.900000e-07	-5.215752e-06	-2.610398e-09	-3.724692e+01	-1.605013e+02
3.000000e-07	-5.204067e-06	-2.569426e-09	-3.716347e+01	-1.605373e+02
3.100000e-07	-5.191973e-06	-2.411044e-09	-3.707711e+01	-1.605603e+02
3.200000e-07	-5.179459e-06	-2.497779e-09	-3.698774e+01	-1.605695e+02
3.300000e-07	-5.166534e-06	-2.611635e-09	-3.689545e+01	-1.605637e+02
3.400000e-07	-5.153177e-06	-2.503413e-09	-3.680006e+01	-1.605423e+02
3.500000e-07	-5.139410e-06	-2.449857e-09	-3.670175e+01	-1.605049e+02
3.600000e-07	-5.125373e-06	-2.550479e-09	-3.660150e+01	-1.604509e+02
3.700000e-07	-5.111023e-06	-2.532260e-09	-3.649903e+01	-1.603804e+02
3.800000e-07	-5.096144e-06	-2.451819e-09	-3.639277e+01	-1.602934e+02
3.900000e-07	-5.080414e-06	-2.500621e-09	-3.628044e+01	-1.601901e+02
4.000000e-07	-5.064129e-06	-2.516786e-09	-3.616414e+01	-1.600711e+02
4.100000e-07	-5.047722e-06	-2.447439e-09	-3.604698e+01	-1.599369e+02
4.200000e-07	-5.030881e-06	-2.489726e-09	-3.592671e+01	-1.597882e+02
4.300000e-07	-5.013693e-06	-2.544670e-09	-3.580397e+01	-1.596261e+02
4.400000e-07	-4.996277e-06	-2.473045e-09	-3.567959e+01	-1.594514e+02
4.500000e-07	-4.978529e-06	-2.437431e-09	-3.555285e+01	-1.592653e+02
4.600000e-07	-4.960454e-06	-2.502309e-09	-3.542378e+01	-1.590688e+02
4.700000e-07	-4.941954e-06	-2.492693e-09	-3.529166e+01	-1.588633e+02
4.800000e-07	-4.922952e-06	-2.440329e-09	-3.515596e+01	-1.586498e+02
4.900000e-07	-4.903596e-06	-2.449873e-09	-3.501774e+01	-1.584297e+02
5.000000e-07	-4.883936e-06	-2.471264e-09	-3.487735e+01	-1.582040e+02
5.100000e-07	-4.863973e-06	-2.465872e-09	-3.473478e+01	-1.579739e+02
5.200000e-07	-4.843873e-06	-2.465245e-09	-3.459124e+01	-1.577404e+02
5.300000e-07	-4.823601e-06	-2.445004e-09	-3.444647e+01	-1.575045e+02
5.400000e-07	-4.803011e-06	-2.430206e-09	-3.429944e+01	-1.572671e+02
5.500000e-07	-4.782076e-06	-2.448906e-09	-3.414994e+01	-1.570289e+02
5.600000e-07	-4.760841e-06	-2.446468e-09	-3.399830e+01	-1.567906e+02
5.700000e-07	-4.739236e-06	-2.411929e-09	-3.384401e+01	-1.565527e+02
5.800000e-07	-4.717265e-06	-2.407492e-09	-3.368710e+01	-1.563155e+02
5.900000e-07	-4.695058e-06	-2.421984e-09	-3.352852e+01	-1.560795e+02
6.000000e-07	-4.672543e-06	-2.419555e-09	-3.336774e+01	-1.558446e+02
6.100000e-07	-4.649685e-06	-2.406610e-09	-3.320450e+01	-1.556110e+02
6.200000e-07	-4.626478e-06	-2.388173e-09	-3.303878e+01	-1.553786e+02
6.300000e-07	-4.602947e-06	-2.388196e-09	-3.287073e+01	-1.551471e+02
6.400000e-07	-4.579154e-06	-2.407918e-09	-3.270082e+01	-1.549163e+02
6.500000e-07	-4.555127e-06	-2.399370e-09	-3.252924e+01	-1.546860e+02
6.600000e-07	-4.530893e-06	-2.367021e-09	-3.235618e+01	-1.544555e+02
6.700000e-07	-4.506431e-06	-2.368902e-09	-3.218149e+01	-1.542246e+02
6.800000e-07	-4.481593e-06	-2.386452e-09	-3.200411e+01	-1.539926e+02
6.900000e-07	-4.456249e-06	-2.380495e-09	-3.182313e+01	-1.537591e+02
7.000000e-07	-4.430512e-06	-2.361083e-09	-3.163934e+01	-1.535236e+02
7.100000e-07	-4.404336e-06	-2.354850e-09	-3.145240e+01	-1.532855e+02
7.200000e-07	-4.377607e-06	-2.360455e-09	-3.126153e+01	-1.530443e+02
7.300000e-07	-4.350390e-06	-2.365757e-09	-3.106716e+01	-1.527995e+02
7.400000e-07	-4.322824e-06	-2.354070e-09	-3.087031e+01	-1.525507e+02
7.500000e-07	-4.295016e-06	-2.342495e-09	-3.067173e+01	-1.522975e+02
7.600000e-07	-4.266996e-06	-2.345838e-09	-3.047163e+01	-1.520395e+02
7.700000e-07	-4.238822e-06	-2.347911e-09	-3.027043e+01	-1.517763e+02
7.800000e-07	-4.210379e-06	-2.331145e-09	-3.006731e+01	-1.515079e+02
7.900000e-07	-4.181600e-06	-2.314965e-09	-2.986180e+01	-1.512338e+02
8.000000e-07	-4.152567e-06	-2.312440e-09	-2.965447e+01	-1.509541e+02
8.100000e-07	-4.123272e-06	-2.318133e-09	-2.944526e+01	-1.506685e+02
8.200000e-07	-4.093649e-06	-2.319200e-09	-2.923372e+01	-1.503771e+02
8.300000e-07	-4.063711e-06	-2.312020e-09	-2.901992e+01	-1.500798e+02
8.400000e-07	-4.033505e-06	-2.304789e-09	-2.880421e+01	-1.497767e+02
8.500000e-07	-4.003093e-06	-2.305251e-09	-2.858703e+01	-1.494677e+02
8.600000e-07	-3.972462e-06	-2.298346e-09	-2.836829e+01	-1.491531e+02
8.700000e-07	-3.941576e-06	-2.280012e-09	-2.814773e+01	-1.488329e+02
8.800000e-07	-3.910425e-06	-2.263729e-09	-2.792527e+01	-1.485073e+02
8.900000e-07	-3.878924e-06	-2.265064e-09	-2.770032e+01	-1.481762e+02
9.000000e-07	-3.847206e-06	-2.271996e-09	-2.747381e+01	-1.478400e+02
9.100000e-07	-3.815403e-06	-2.267851e-09	-2.724670e+01	-1.474986e+02
9.200000e-07	-3.783447e-06	-2.258837e-09	-2.701849e+01	-1.471523e+02
9.300000e-07	-3.751290e-06	-2.254310e-09	-2.678885e+01	-1.468011e+02
9.400000e-07	-3.718935e-06	-2.250471e-09	-2.655780e+01	-1.464451e+02
9.500000e-07	-3.686295e-06	-2.238745e-09	-2.632471e+01	-1.460843e+02
9.600000e-07	-3.653292e-06	-2.227094e-09	-2.608902e+01	-1.457190e+02
9.700000e-07	-3.619956e-06	-2.224486e-09	-2.585097e+01	-1.453490e+02
9.800000e-07	-3.586271e-06	-2.225077e-09	-2.561041e+01	-1.449745e+02
9.900000e-07	-3.552107e-06	-2.215139e-09	-2.536644e+01	-1.445955e+02
1.000000e-06	-3.517410e-06	-2.200641e-09	-2.511866e+01	-1.442119e+02
1.010000e-06	-3.482328e-06	-2.188607e-09	-2.486813e+01	-1.438238e+02
1.020000e-06	-3.446956e-06	-2.179164e-09	-2.461553e+01	-1.434313e+02
1.030000e-06	-3.411301e-06	-2.168402e-09	-2.436091e+01	-1.430343e+02
1.040000e-06	-3.375516e-06	-2.162265e-09	-2.410536e+01	-1.426327e+02
1.050000e-06	-3.339618e-06	-2.161045e-09	-2.384900e+01	-1.422268e+02
1.060000e-06	-3.303530e-06	-2.161768e-09	-2.359129e+01	-1.418164e+02
1.070000e-06	-3.267296e-06	-2.156442e-09	-2.333253e+01	-1.414015e+02
1.080000e-06	-3.230926e-06	-2.140940e-09	-2.307281e+01	-1.409823e+02
1.090000e-06	-3.194320e-06	-2.121807e-09	-2.281140e+01	-1.405587e+02
1.100000e-06	-3.157463e-06	-2.110186e-09	-2.254819e+01	-1.401309e+02
1.110000e-06	-3.120461e-06	-2.104341e-09	-2.228395e+01	-1.396988e+02
1.120000e-06	-3.083158e-06	-2.099189e-09	-2.201756e+01	-1.392624e+02
1.130000e-06	-3.045509e-06	-2.093955e-09	-2.174870e+01	-1.388219e+02
1.140000e-06	-3.007697e-06	-2.093181e-09	-2.147868e+01	-1.383773e+02
1.150000e-06	-2.969803e-06	-2.088509e-09	-2.120806e+01	-1.379286e+02
1.160000e-06	-2.931714e-06	-2.075793e-09	-2.093607e+01	-1.374757e+02
1.170000e-06	-2.893354e-06	-2.056727e-09	-2.066213e+01	-1.370188e+02
1.180000e-06	-2.854779e-06	-2.039774e-09	-2.038665e+01	-1.365576e+02
1.190000e-06	-2.816066e-06	-2.030832e-09	-2.011019e+01	-1.360922e+02
1.200000e-06	-2.777130e-06	-2.026170e-09	-1.983214e+01	-1.356224e+02
1.210000e-06	-2.737953e-06	-2.023994e-09	-1.955237e+01	-1.351479e+02
1.220000e-06	-2.698623e-06	-2.023756e-09	-1.927150e+01	-1.346687e+02
1.230000e-06	-2.659064e-06	-2.022921e-09	-1.898900e+01	-1.341844e+02
1.240000e-06	-2.619324e-06	-2.013624e-09	-1.870521e+01	-1.336946e+02
1.250000e-06	-2.579477e-06	-1.997580e-09	-1.842066e+01	-1.331990e+02
1.260000e-06	-2.539470e-06	-1.977577e-09	-1.813495e+01	-1.326972e+02
1.270000e-06	-2.499268e-06	-1.959663e-09	-1.784786e+01	-1.321885e+02
1.280000e-06	-2.458987e-06	-1.951912e-09	-1.756021e+01	-1.316725e+02
1.290000e-06	-2.418714e-06	-1.951129e-09	-1.727261e+01	-1.311486e+02
1.300000e-06	-2.378350e-06	-1.950799e-09	-1.698436e+01	-1.306161e+02
1.310000e-06	-2.337843e-06	-1.947392e-09	-1.669509e+01	-1.300743e+02
1.320000e-06	-2.297226e-06	-1.939842e-09	-1.640504e+01	-1.295226e+02
1.330000e-06	-2.256508e-06	-1.925690e-09	-1.611426e+01	-1.289603e+02
1.340000e-06	-2.215535e-06	-1.904326e-09	-1.582166e+01	-1.283866e+02
1.350000e-06	-2.174122e-06	-1.883112e-09	-1.552592e+01	-1.278008e+02
1.360000e-06	-2.132401e-06	-1.868817e-09	-1.522798e+01	-1.272024e+02
1.370000e-06	-2.090364e-06	-1.863169e-09	-1.492778e+01	-1.265905e+02
1.380000e-06	-2.048156e-06	-1.860670e-09	-1.462637e+01	-1.259646e+02
1.390000e-06	-2.005856e-06	-1.858184e-09	-1.432429e+01	-1.253242e+02
1.400000e-06	-1.963210e-06	-1.855922e-09	-1.401974e+01	-1.246687e+02
1.410000e-06	-1.920202e-06	-1.849304e-09	-1.371262e+01	-1.239978e+02
1.420000e-06	-1.877004e-06	-1.831825e-09	-1.340413e+01	-1.233109e+02
1.430000e-06	-1.833712e-06	-1.806992e-09	-1.309497e+01	-1.226080e+02
1.440000e-06	-1.790257e-06	-1.785113e-09	-1.278465e+01	-1.218887e+02
1.450000e-06	-1.746658e-06	-1.774565e-09	-1.247330e+01	-1.211530e+02
1.460000e-06	-1.702907e-06	-1.771362e-09	-1.216086e+01	-1.204007e+02
1.470000e-06	-1.659067e-06	-1.766005e-09	-1.184779e+01	-1.196319e+02
1.480000e-06	-1.615195e-06	-1.758268e-09	-1.153449e+01	-1.188467e+02
1.490000e-06	-1.571259e-06	-1.748986e-09	-1.122073e+01	-1.180452e+02
1.500000e-06	-1.527249e-06	-1.732793e-09	-1.090644e+01	-1.172275e+02
1.510000e-06	-1.483146e-06	-1.710628e-09	-1.059150e+01	-1.163939e+02
1.520000e-06	-1.438967e-06	-1.687244e-09	-1.027600e+01	-1.155446e+02
1.530000e-06	-1.394729e-06	-1.675641e-09	-9.960089e+00	-1.146798e+02
1.540000e-06	-1.350483e-06	-1.672154e-09	-9.644122e+00	-1.137997e+02
1.550000e-06	-1.306237e-06	-1.665908e-09	-9.328147e+00	-1.129044e+02
1.560000e-06	-1.261925e-06	-1.655599e-09	-9.011703e+00	-1.119940e+02
1.570000e-06	-1.217557e-06	-1.644386e-09	-8.694861e+00	-1.110684e+02
1.580000e-06	-1.173144e-06	-1.631833e-09	-8.377697e+00	-1.101277e+02
1.590000e-06	-1.128613e-06	-1.612776e-09	-8.059693e+00	-1.091717e+02
1.600000e-06	-1.083982e-06	-1.588379e-09	-7.740972e+00	-1.081999e+02
1.610000e-06	-1.039299e-06	-1.565307e-09	-7.421881e+00	-1.072119e+02
1.620000e-06	-9.945167e-07	-1.552725e-09	-7.102080e+00	-1.062070e+02
1.630000e-06	-9.496066e-07	-1.545562e-09	-6.781366e+00	-1.051846e+02
1.640000e-06	-9.046335e-07	-1.533261e-09	-6.460202e+00	-1.041436e+02
1.650000e-06	-8.596570e-07	-1.519286e-09	-6.139014e+00	-1.030830e+02
1.660000e-06	-8.146224e-07	-1.507444e-09	-5.817412e+00	-1.020013e+02
1.670000e-06	-7.694920e-07	-1.493446e-09	-5.495125e+00	-1.008973e+02
1.680000e-06	-7.242642e-07	-1.471116e-09	-5.172142e+00	-9.976922e+01
1.690000e-06	-6.789305e-07	-1.443198e-09	-4.848404e+00	-9.861539e+01
1.700000e-06	-6.335916e-07	-1.420886e-09	-4.524628e+00	-9.743390e+01
1.710000e-06	-5.882421e-07	-1.406733e-09	-4.200776e+00	-9.622278e+01
1.720000e-06	-5.428078e-07	-1.392741e-09	-3.876319e+00	-9.497994e+01
1.730000e-06	-4.973572e-07	-1.372627e-09	-3.551745e+00	-9.370324e+01
1.740000e-06	-4.518286e-07	-1.353933e-09	-3.226615e+00	-9.239050e+01
1.750000e-06	-4.062298e-07	-1.339812e-09	-2.900983e+00	-9.103950e+01
1.760000e-06	-3.606200e-07	-1.321535e-09	-2.575273e+00	-8.964805e+01
1.770000e-06	-3.149001e-07	-1.292631e-09	-2.248776e+00	-8.821400e+01
1.780000e-06	-2.691359e-07	-1.261730e-09	-1.921963e+00	-8.673526e+01
1.790000e-06	-2.234315e-07	-1.236935e-09	-1.595577e+00	-8.520986e+01
1.800000e-06	-1.778067e-07	-1.214152e-09	-1.269760e+00	-8.363591e+01
1.810000e-06	-1.322257e-07	-1.188628e-09	-9.442548e-01	-8.201171e+01
1.820000e-06	-8.669038e-08	-1.162930e-09	-6.190766e-01	-8.033570e+01
1.830000e-06	-4.121389e-08	-1.142152e-09	-2.943181e-01	-7.860653e+01
1.840000e-06	4.387187e-09	-1.121657e-09	3.132994e-02	-7.682307e+01
1.850000e-06	5.005282e-08	-1.094908e-09	3.574391e-01	-7.498437e+01
1.860000e-06	9.567661e-08	-1.062064e-09	6.832493e-01	-7.308978e+01
1.870000e-06	1.413006e-07	-1.028651e-09	1.009061e+00	-7.113883e+01
1.880000e-06	1.869271e-07	-9.975544e-10	1.334891e+00	-6.913135e+01
1.890000e-06	2.325648e-07	-9.636867e-10	1.660801e+00	-6.706738e+01
1.900000e-06	2.782097e-07	-9.275774e-10	1.986761e+00	-6.494723e+01
1.910000e-06	3.238559e-07	-8.952741e-10	2.312732e+00	-6.277144e+01
1.920000e-06	3.694145e-07	-8.676749e-10	2.638076e+00	-6.054077e+01
1.930000e-06	4.149349e-07	-8.403342e-10	2.963148e+00	-5.825621e+01
1.940000e-06	4.604338e-07	-8.076794e-10	3.288067e+00	-5.591894e+01
1.950000e-06	5.058565e-07	-7.697221e-10	3.612441e+00	-5.353031e+01
1.960000e-06	5.512654e-07	-7.302026e-10	3.936717e+00	-5.109186e+01
1.970000e-06	5.965698e-07	-6.890900e-10	4.260246e+00	-4.860524e+01
1.980000e-06	6.417771e-07	-6.460345e-10	4.583082e+00	-4.607225e+01
1.990000e-06	6.869905e-07	-6.069344e-10	4.905962e+00	-4.349475e+01
2.000000e-06	7.322424e-07	-5.737124e-10	5.229116e+00	-4.087469e+01
2.010000e-06	7.774418e-07	-5.409292e-10	5.551896e+00	-3.821410e+01
2.020000e-06	8.225267e-07	-5.056303e-10	5.873858e+00	-3.551501e+01
2.030000e-06	8.675112e-07	-4.693514e-10	6.195103e+00	-3.277947e+01
2.040000e-06	9.123716e-07	-4.320396e-10	6.515462e+00	-3.000954e+01
2.050000e-06	9.572073e-07	-3.910989e-10	6.835644e+00	-2.720728e+01
2.060000e-06	1.002002e-06	-3.449981e-10	7.155535e+00	-2.437469e+01
2.070000e-06	1.046760e-06	-2.982069e-10	7.475160e+00	-2.151377e+01
2.080000e-06	1.091456e-06	-2.550420e-10	7.794349e+00	-1.862646e+01
2.090000e-06	1.136046e-06	-2.134759e-10	8.112776e+00	-1.571468e+01
2.100000e-06	1.180536e-06	-1.730219e-10	8.430486e+00	-1.278029e+01
2.110000e-06	1.224960e-06	-1.323535e-10	8.747733e+00	-9.825138e+00
2.120000e-06	1.269330e-06	-9.203674e-11	9.064588e+00	-6.851024e+00
2.130000e-06	1.313609e-06	-5.029619e-11	9.380794e+00	-3.859733e+00
2.140000e-06	1.357823e-06	-2.879786e-12	9.696533e+00	-8.530395e-01
2.150000e-06	1.401965e-06	4.793169e-11	1.001176e+01	2.167281e+00
2.160000e-06	1.446097e-06	9.628434e-11	1.032692e+01	5.199441e+00
2.170000e-06	1.490216e-06	1.412627e-10	1.064199e+01	8.241624e+00
2.180000e-06	1.534256e-06	1.842308e-10	1.095649e+01	1.129197e+01
2.190000e-06	1.578272e-06	2.237411e-10	1.127081e+01	1.434858e+01
2.200000e-06	1.622269e-06	2.626250e-10	1.158501e+01	1.740947e+01
2.210000e-06	1.666131e-06	3.060975e-10	1.189824e+01	2.047258e+01
2.220000e-06	1.709893e-06	3.542188e-10	1.221075e+01	2.353578e+01
2.230000e-06	1.753580e-06	4.034423e-10	1.252273e+01	2.659683e+01
2.240000e-06	1.797096e-06	4.499048e-10	1.283349e+01	2.965340e+01
2.250000e-06	1.840388e-06	4.932316e-10	1.314265e+01	3.270306e+01
2.260000e-06	1.883454e-06	5.362955e-10	1.345019e+01	3.574328e+01
2.270000e-06	1.926325e-06	5.809969e-10	1.375635e+01	3.877142e+01
2.280000e-06	1.969064e-06	6.232169e-10	1.406155e+01	4.178479e+01
2.290000e-06	2.011615e-06	6.630232e-10	1.436542e+01	4.478059e+01
2.300000e-06	2.053878e-06	7.070966e-10	1.466723e+01	4.775597e+01
2.310000e-06	2.095879e-06	7.542459e-10	1.496717e+01	5.070803e+01
2.320000e-06	2.137516e-06	7.991021e-10	1.526451e+01	5.363386e+01
2.330000e-06	2.178846e-06	8.381966e-10	1.555965e+01	5.653051e+01
2.340000e-06	2.219957e-06	8.753118e-10	1.585324e+01	5.939508e+01
2.350000e-06	2.260893e-06	9.152580e-10	1.614557e+01	6.222470e+01
2.360000e-06	2.301637e-06	9.578530e-10	1.643653e+01	6.501657e+01
2.370000e-06	2.342146e-06	9.986310e-10	1.672582e+01	6.776797e+01
2.380000e-06	2.382544e-06	1.039451e-09	1.701431e+01	7.047632e+01
2.390000e-06	2.422808e-06	1.081935e-09	1.730185e+01	7.313918e+01
2.400000e-06	2.462988e-06	1.121695e-09	1.758878e+01	7.575425e+01
2.410000e-06	2.503089e-06	1.154753e-09	1.787515e+01	7.831946e+01
2.420000e-06	2.543070e-06	1.186281e-09	1.816067e+01	8.083293e+01
2.430000e-06	2.582954e-06	1.222180e-09	1.844549e+01	8.329299e+01
2.440000e-06	2.622754e-06	1.259055e-09	1.872971e+01	8.569825e+01
2.450000e-06	2.662417e-06	1.293333e-09	1.901295e+01	8.804752e+01
2.460000e-06	2.701844e-06	1.326460e-09	1.929451e+01	9.033992e+01
2.470000e-06	2.741048e-06	1.360467e-09	1.957447e+01	9.257478e+01
2.480000e-06	2.780053e-06	1.393016e-09	1.985302e+01	9.475174e+01
2.490000e-06	2.818857e-06	1.421194e-09	2.013013e+01	9.687065e+01
2.500000e-06	2.857461e-06	1.445907e-09	2.040581e+01	9.893165e+01
2.510000e-06	2.895883e-06	1.473812e-09	2.068018e+01	1.009351e+02
2.520000e-06	2.934118e-06	1.506946e-09	2.095323e+01	1.028815e+02
2.530000e-06	2.972157e-06	1.540855e-09	2.122488e+01	1.047717e+02
2.540000e-06	3.010019e-06	1.572135e-09	2.149526e+01	1.066067e+02
2.550000e-06	3.047641e-06	1.602910e-09	2.176392e+01	1.083876e+02
2.560000e-06	3.085067e-06	1.629670e-09	2.203120e+01	1.101156e+02
2.570000e-06	3.122267e-06	1.647448e-09	2.229685e+01	1.117920e+02
2.580000e-06	3.159152e-06	1.662599e-09	2.256025e+01	1.134185e+02
2.590000e-06	3.195805e-06	1.683496e-09	2.282200e+01	1.149964e+02
2.600000e-06	3.232223e-06	1.710386e-09	2.308207e+01	1.165273e+02
2.610000e-06	3.268466e-06	1.738326e-09	2.334089e+01	1.180128e+02
2.620000e-06	3.304611e-06	1.763856e-09	2.359901e+01	1.194544e+02
2.630000e-06	3.340659e-06	1.786616e-09	2.385644e+01	1.208536e+02
2.640000e-06	3.376592e-06	1.805436e-09	2.411304e+01	1.222119e+02
2.650000e-06	3.412395e-06	1.817170e-09	2.436872e+01	1.235307e+02
2.660000e-06	3.448008e-06	1.823843e-09	2.462304e+01	1.248112e+02
2.670000e-06	3.483284e-06	1.834507e-09	2.487496e+01	1.260547e+02
2.680000e-06	3.518232e-06	1.853863e-09	2.512453e+01	1.272622e+02
2.690000e-06	3.552849e-06	1.877724e-09	2.537174e+01	1.284348e+02
2.700000e-06	3.587095e-06	1.901183e-09	2.561630e+01	1.295734e+02
2.710000e-06	3.620841e-06	1.924815e-09	2.585728e+01	1.306788e+02
2.720000e-06	3.654033e-06	1.946748e-09	2.609431e+01	1.317517e+02
2.730000e-06	3.686882e-06	1.959870e-09	2.632890e+01	1.327927e+02
2.740000e-06	3.719495e-06	1.962779e-09	2.656179e+01	1.338024e+02
2.750000e-06	3.751828e-06	1.966546e-09	2.679270e+01	1.347812e+02
2.760000e-06	3.783955e-06	1.978175e-09	2.702212e+01	1.357296e+02
2.770000e-06	3.815994e-06	1.994442e-09	2.725092e+01	1.366480e+02
2.780000e-06	3.847908e-06	2.012426e-09	2.747882e+01	1.375367e+02
2.790000e-06	3.879668e-06	2.031935e-09	2.770563e+01	1.383961e+02
2.800000e-06	3.911174e-06	2.052371e-09	2.793062e+01	1.392266e+02
2.810000e-06	3.942346e-06	2.068418e-09	2.815323e+01	1.400286e+02
2.820000e-06	3.973163e-06	2.073617e-09	2.837330e+01	1.408026e+02
2.830000e-06	4.003640e-06	2.072296e-09	2.859094e+01	1.415489e+02
2.840000e-06	4.033847e-06	2.075961e-09	2.880666e+01	1.422682e+02
2.850000e-06	4.063778e-06	2.087223e-09	2.902040e+01	1.429610e+02
2.860000e-06	4.093534e-06	2.099551e-09	2.923290e+01	1.436281e+02
2.870000e-06	4.123115e-06	2.109852e-09	2.944414e+01	1.442701e+02
2.880000e-06	4.152277e-06	2.120895e-09	2.965239e+01	1.448879e+02
2.890000e-06	4.181069e-06	2.132585e-09	2.985801e+01	1.454823e+02
2.900000e-06	4.209710e-06	2.139408e-09	3.006254e+01	1.460544e+02
