# Temperatura_=_16.16
# Concentracion g/m^3_=_4090.0
# C_Vs_to_Am_M_A/Vsm_=_65563218390.804596
# pendiente_HvsI_1/m_=_3716.3
# ordenada_HvsI_A/m_=_1297.0
# frecuencia_Hz_=_135080.51837395979

Tiempo_(s)	Campo_(V.s)	Magnetizacion_(V.s)	Campo_(kA/m)	Magnetizacion_(A/m)
0.000000e+00	-5.369257e-06	-2.372632e-09	-3.838284e+01	-1.536689e+02
1.000000e-08	-5.369263e-06	-2.369195e-09	-3.838288e+01	-1.535674e+02
2.000000e-08	-5.369010e-06	-2.364010e-09	-3.838107e+01	-1.534729e+02
3.000000e-08	-5.368501e-06	-2.358546e-09	-3.837744e+01	-1.533866e+02
4.000000e-08	-5.367625e-06	-2.356488e-09	-3.837117e+01	-1.533097e+02
5.000000e-08	-5.366246e-06	-2.371905e-09	-3.836132e+01	-1.532431e+02
6.000000e-08	-5.364332e-06	-2.397040e-09	-3.834763e+01	-1.531878e+02
7.000000e-08	-5.361709e-06	-2.367376e-09	-3.832888e+01	-1.531442e+02
8.000000e-08	-5.358328e-06	-2.263188e-09	-3.830471e+01	-1.531127e+02
9.000000e-08	-5.354455e-06	-2.289669e-09	-3.827702e+01	-1.530936e+02
1.000000e-07	-5.350234e-06	-2.463892e-09	-3.824685e+01	-1.530866e+02
1.100000e-07	-5.345812e-06	-2.488877e-09	-3.821524e+01	-1.530916e+02
1.200000e-07	-5.341175e-06	-2.260804e-09	-3.818209e+01	-1.531079e+02
1.300000e-07	-5.336233e-06	-2.236300e-09	-3.814676e+01	-1.531348e+02
1.400000e-07	-5.330959e-06	-2.482489e-09	-3.810906e+01	-1.531714e+02
1.500000e-07	-5.325357e-06	-2.533704e-09	-3.806902e+01	-1.532164e+02
1.600000e-07	-5.319424e-06	-2.227958e-09	-3.802660e+01	-1.532686e+02
1.700000e-07	-5.313141e-06	-2.169741e-09	-3.798169e+01	-1.533265e+02
1.800000e-07	-5.306460e-06	-2.473488e-09	-3.793392e+01	-1.533885e+02
1.900000e-07	-5.299318e-06	-2.530553e-09	-3.788287e+01	-1.534529e+02
2.000000e-07	-5.291856e-06	-2.319708e-09	-3.782953e+01	-1.535180e+02
2.100000e-07	-5.284130e-06	-2.317843e-09	-3.777430e+01	-1.535820e+02
2.200000e-07	-5.276118e-06	-2.519239e-09	-3.771703e+01	-1.536430e+02
2.300000e-07	-5.267761e-06	-2.430070e-09	-3.765728e+01	-1.536995e+02
2.400000e-07	-5.259015e-06	-2.283621e-09	-3.759476e+01	-1.537495e+02
2.500000e-07	-5.249790e-06	-2.381594e-09	-3.752881e+01	-1.537917e+02
2.600000e-07	-5.239877e-06	-2.487061e-09	-3.745795e+01	-1.538243e+02
2.700000e-07	-5.229340e-06	-2.342924e-09	-3.738262e+01	-1.538462e+02
2.800000e-07	-5.218396e-06	-2.340000e-09	-3.730439e+01	-1.538561e+02
2.900000e-07	-5.206995e-06	-2.510122e-09	-3.722288e+01	-1.538529e+02
3.000000e-07	-5.195160e-06	-2.456301e-09	-3.713828e+01	-1.538360e+02
3.100000e-07	-5.182972e-06	-2.255233e-09	-3.705115e+01	-1.538045e+02
3.200000e-07	-5.170466e-06	-2.335796e-09	-3.696176e+01	-1.537583e+02
3.300000e-07	-5.157627e-06	-2.463673e-09	-3.686997e+01	-1.536970e+02
3.400000e-07	-5.144305e-06	-2.360391e-09	-3.677474e+01	-1.536207e+02
3.500000e-07	-5.130597e-06	-2.304245e-09	-3.667674e+01	-1.535295e+02
3.600000e-07	-5.116616e-06	-2.418563e-09	-3.657680e+01	-1.534240e+02
3.700000e-07	-5.102203e-06	-2.414404e-09	-3.647377e+01	-1.533047e+02
3.800000e-07	-5.087243e-06	-2.338243e-09	-3.636683e+01	-1.531723e+02
3.900000e-07	-5.071843e-06	-2.376623e-09	-3.625674e+01	-1.530277e+02
4.000000e-07	-5.055806e-06	-2.363262e-09	-3.614209e+01	-1.528720e+02
4.100000e-07	-5.039103e-06	-2.286334e-09	-3.602269e+01	-1.527062e+02
4.200000e-07	-5.022152e-06	-2.335473e-09	-3.590151e+01	-1.525315e+02
4.300000e-07	-5.005067e-06	-2.407829e-09	-3.577938e+01	-1.523492e+02
4.400000e-07	-4.987641e-06	-2.324839e-09	-3.565481e+01	-1.521604e+02
4.500000e-07	-4.969842e-06	-2.295777e-09	-3.552757e+01	-1.519662e+02
4.600000e-07	-4.951721e-06	-2.365720e-09	-3.539803e+01	-1.517680e+02
4.700000e-07	-4.933238e-06	-2.370233e-09	-3.526590e+01	-1.515668e+02
4.800000e-07	-4.914358e-06	-2.300002e-09	-3.513094e+01	-1.513635e+02
4.900000e-07	-4.895079e-06	-2.301606e-09	-3.499312e+01	-1.511591e+02
5.000000e-07	-4.875501e-06	-2.319441e-09	-3.485316e+01	-1.509543e+02
5.100000e-07	-4.855669e-06	-2.334747e-09	-3.471139e+01	-1.507498e+02
5.200000e-07	-4.835619e-06	-2.330385e-09	-3.456806e+01	-1.505460e+02
5.300000e-07	-4.815388e-06	-2.301885e-09	-3.442343e+01	-1.503433e+02
5.400000e-07	-4.794864e-06	-2.279311e-09	-3.427672e+01	-1.501419e+02
5.500000e-07	-4.774004e-06	-2.317368e-09	-3.412759e+01	-1.499416e+02
5.600000e-07	-4.752817e-06	-2.318940e-09	-3.397614e+01	-1.497425e+02
5.700000e-07	-4.731206e-06	-2.280241e-09	-3.382165e+01	-1.495442e+02
5.800000e-07	-4.709208e-06	-2.270469e-09	-3.366439e+01	-1.493463e+02
5.900000e-07	-4.687045e-06	-2.297535e-09	-3.350596e+01	-1.491483e+02
6.000000e-07	-4.664610e-06	-2.299176e-09	-3.334557e+01	-1.489495e+02
6.100000e-07	-4.641750e-06	-2.280294e-09	-3.318216e+01	-1.487492e+02
6.200000e-07	-4.618567e-06	-2.251243e-09	-3.301643e+01	-1.485466e+02
6.300000e-07	-4.595078e-06	-2.249975e-09	-3.284852e+01	-1.483409e+02
6.400000e-07	-4.571348e-06	-2.277886e-09	-3.267888e+01	-1.481313e+02
6.500000e-07	-4.547448e-06	-2.276582e-09	-3.250803e+01	-1.479170e+02
6.600000e-07	-4.523343e-06	-2.243342e-09	-3.233571e+01	-1.476971e+02
6.700000e-07	-4.498923e-06	-2.244113e-09	-3.216114e+01	-1.474709e+02
6.800000e-07	-4.474145e-06	-2.271002e-09	-3.198401e+01	-1.472377e+02
6.900000e-07	-4.448926e-06	-2.262084e-09	-3.180373e+01	-1.469970e+02
7.000000e-07	-4.423224e-06	-2.230454e-09	-3.162000e+01	-1.467482e+02
7.100000e-07	-4.396997e-06	-2.215013e-09	-3.143251e+01	-1.464910e+02
7.200000e-07	-4.370259e-06	-2.228442e-09	-3.124137e+01	-1.462251e+02
7.300000e-07	-4.343006e-06	-2.237147e-09	-3.104655e+01	-1.459505e+02
7.400000e-07	-4.315367e-06	-2.227009e-09	-3.084897e+01	-1.456670e+02
7.500000e-07	-4.287522e-06	-2.209303e-09	-3.064991e+01	-1.453750e+02
7.600000e-07	-4.259487e-06	-2.219300e-09	-3.044950e+01	-1.450746e+02
7.700000e-07	-4.231285e-06	-2.225297e-09	-3.024790e+01	-1.447663e+02
7.800000e-07	-4.202926e-06	-2.208913e-09	-3.004517e+01	-1.444506e+02
7.900000e-07	-4.174343e-06	-2.183960e-09	-2.984084e+01	-1.441281e+02
8.000000e-07	-4.145476e-06	-2.185740e-09	-2.963448e+01	-1.437995e+02
8.100000e-07	-4.116285e-06	-2.195753e-09	-2.942580e+01	-1.434656e+02
8.200000e-07	-4.086719e-06	-2.198324e-09	-2.921445e+01	-1.431273e+02
8.300000e-07	-4.056830e-06	-2.181443e-09	-2.900078e+01	-1.427853e+02
8.400000e-07	-4.026720e-06	-2.171976e-09	-2.878554e+01	-1.424406e+02
8.500000e-07	-3.996448e-06	-2.175425e-09	-2.856914e+01	-1.420940e+02
8.600000e-07	-3.965901e-06	-2.172458e-09	-2.835077e+01	-1.417463e+02
8.700000e-07	-3.935031e-06	-2.149109e-09	-2.813009e+01	-1.413984e+02
8.800000e-07	-3.903883e-06	-2.132321e-09	-2.790742e+01	-1.410509e+02
8.900000e-07	-3.872454e-06	-2.137440e-09	-2.768274e+01	-1.407045e+02
9.000000e-07	-3.840839e-06	-2.148651e-09	-2.745674e+01	-1.403597e+02
9.100000e-07	-3.809064e-06	-2.139753e-09	-2.722960e+01	-1.400169e+02
9.200000e-07	-3.777072e-06	-2.122188e-09	-2.700090e+01	-1.396765e+02
9.300000e-07	-3.744877e-06	-2.114523e-09	-2.677075e+01	-1.393385e+02
9.400000e-07	-3.712492e-06	-2.115549e-09	-2.653924e+01	-1.390031e+02
9.500000e-07	-3.679834e-06	-2.109365e-09	-2.630577e+01	-1.386701e+02
9.600000e-07	-3.646836e-06	-2.097060e-09	-2.606988e+01	-1.383393e+02
9.700000e-07	-3.613567e-06	-2.094557e-09	-2.583206e+01	-1.380104e+02
9.800000e-07	-3.579923e-06	-2.097469e-09	-2.559155e+01	-1.376829e+02
9.900000e-07	-3.545755e-06	-2.092033e-09	-2.534730e+01	-1.373562e+02
1.000000e-06	-3.511218e-06	-2.077944e-09	-2.510040e+01	-1.370297e+02
1.010000e-06	-3.476320e-06	-2.068317e-09	-2.485093e+01	-1.367026e+02
1.020000e-06	-3.441007e-06	-2.063113e-09	-2.459849e+01	-1.363741e+02
1.030000e-06	-3.405475e-06	-2.058693e-09	-2.434449e+01	-1.360433e+02
1.040000e-06	-3.369706e-06	-2.051625e-09	-2.408879e+01	-1.357094e+02
1.050000e-06	-3.333722e-06	-2.047139e-09	-2.383155e+01	-1.353714e+02
1.060000e-06	-3.297643e-06	-2.044622e-09	-2.357363e+01	-1.350284e+02
1.070000e-06	-3.261469e-06	-2.041143e-09	-2.331504e+01	-1.346797e+02
1.080000e-06	-3.225073e-06	-2.027002e-09	-2.305486e+01	-1.343242e+02
1.090000e-06	-3.188478e-06	-2.011031e-09	-2.279325e+01	-1.339614e+02
1.100000e-06	-3.151722e-06	-2.003246e-09	-2.253050e+01	-1.335904e+02
1.110000e-06	-3.114722e-06	-2.002885e-09	-2.226600e+01	-1.332107e+02
1.120000e-06	-3.077475e-06	-1.995549e-09	-2.199974e+01	-1.328216e+02
1.130000e-06	-3.039946e-06	-1.985279e-09	-2.173145e+01	-1.324229e+02
1.140000e-06	-3.002212e-06	-1.979323e-09	-2.146171e+01	-1.320140e+02
1.150000e-06	-2.964344e-06	-1.975037e-09	-2.119100e+01	-1.315949e+02
1.160000e-06	-2.926320e-06	-1.963043e-09	-2.091919e+01	-1.311654e+02
1.170000e-06	-2.888111e-06	-1.947044e-09	-2.064604e+01	-1.307253e+02
1.180000e-06	-2.849705e-06	-1.933489e-09	-2.037149e+01	-1.302749e+02
1.190000e-06	-2.811056e-06	-1.929731e-09	-2.009520e+01	-1.298142e+02
1.200000e-06	-2.772084e-06	-1.925379e-09	-1.981661e+01	-1.293434e+02
1.210000e-06	-2.732954e-06	-1.917249e-09	-1.953688e+01	-1.288629e+02
1.220000e-06	-2.693680e-06	-1.911236e-09	-1.925612e+01	-1.283729e+02
1.230000e-06	-2.654159e-06	-1.910023e-09	-1.897360e+01	-1.278738e+02
1.240000e-06	-2.614464e-06	-1.905824e-09	-1.868984e+01	-1.273659e+02
1.250000e-06	-2.574639e-06	-1.893469e-09	-1.840514e+01	-1.268498e+02
1.260000e-06	-2.534724e-06	-1.875924e-09	-1.811981e+01	-1.263257e+02
1.270000e-06	-2.494749e-06	-1.860680e-09	-1.783404e+01	-1.257939e+02
1.280000e-06	-2.454676e-06	-1.853521e-09	-1.754757e+01	-1.252549e+02
1.290000e-06	-2.414482e-06	-1.847316e-09	-1.726024e+01	-1.247088e+02
1.300000e-06	-2.374148e-06	-1.836394e-09	-1.697191e+01	-1.241559e+02
1.310000e-06	-2.333624e-06	-1.826891e-09	-1.668222e+01	-1.235963e+02
1.320000e-06	-2.293042e-06	-1.824282e-09	-1.639211e+01	-1.230299e+02
1.330000e-06	-2.252335e-06	-1.821075e-09	-1.610111e+01	-1.224568e+02
1.340000e-06	-2.211367e-06	-1.811762e-09	-1.580825e+01	-1.218769e+02
1.350000e-06	-2.170177e-06	-1.796539e-09	-1.551380e+01	-1.212899e+02
1.360000e-06	-2.128680e-06	-1.784316e-09	-1.521715e+01	-1.206955e+02
1.370000e-06	-2.086852e-06	-1.775227e-09	-1.491813e+01	-1.200933e+02
1.380000e-06	-2.044735e-06	-1.765144e-09	-1.461706e+01	-1.194828e+02
1.390000e-06	-2.002379e-06	-1.753715e-09	-1.431427e+01	-1.188635e+02
1.400000e-06	-1.959857e-06	-1.746453e-09	-1.401029e+01	-1.182347e+02
1.410000e-06	-1.917087e-06	-1.742467e-09	-1.370455e+01	-1.175958e+02
1.420000e-06	-1.874092e-06	-1.737053e-09	-1.339719e+01	-1.169461e+02
1.430000e-06	-1.830872e-06	-1.725766e-09	-1.308823e+01	-1.162847e+02
1.440000e-06	-1.787438e-06	-1.711498e-09	-1.277774e+01	-1.156108e+02
1.450000e-06	-1.743875e-06	-1.697246e-09	-1.246632e+01	-1.149237e+02
1.460000e-06	-1.700152e-06	-1.684767e-09	-1.215376e+01	-1.142226e+02
1.470000e-06	-1.656313e-06	-1.671076e-09	-1.184037e+01	-1.135065e+02
1.480000e-06	-1.612378e-06	-1.658854e-09	-1.152630e+01	-1.127749e+02
1.490000e-06	-1.568426e-06	-1.650704e-09	-1.121210e+01	-1.120268e+02
1.500000e-06	-1.524478e-06	-1.642668e-09	-1.089793e+01	-1.112615e+02
1.510000e-06	-1.480464e-06	-1.631778e-09	-1.058329e+01	-1.104783e+02
1.520000e-06	-1.436382e-06	-1.617100e-09	-1.026816e+01	-1.096766e+02
1.530000e-06	-1.392246e-06	-1.604210e-09	-9.952656e+00	-1.088556e+02
1.540000e-06	-1.348012e-06	-1.593214e-09	-9.636440e+00	-1.080149e+02
1.550000e-06	-1.303731e-06	-1.579146e-09	-9.319889e+00	-1.071539e+02
1.560000e-06	-1.259451e-06	-1.564458e-09	-9.003350e+00	-1.062719e+02
1.570000e-06	-1.215091e-06	-1.550790e-09	-8.686236e+00	-1.053686e+02
1.580000e-06	-1.170585e-06	-1.538365e-09	-8.368084e+00	-1.044434e+02
1.590000e-06	-1.126004e-06	-1.526268e-09	-8.049389e+00	-1.034959e+02
1.600000e-06	-1.081480e-06	-1.511418e-09	-7.731102e+00	-1.025255e+02
1.610000e-06	-1.036901e-06	-1.492969e-09	-7.412420e+00	-1.015317e+02
1.620000e-06	-9.921804e-07	-1.476741e-09	-7.092732e+00	-1.005142e+02
1.630000e-06	-9.473933e-07	-1.461531e-09	-6.772565e+00	-9.947220e+01
1.640000e-06	-9.024575e-07	-1.443386e-09	-6.451336e+00	-9.840522e+01
1.650000e-06	-8.574567e-07	-1.424877e-09	-6.129642e+00	-9.731258e+01
1.660000e-06	-8.124838e-07	-1.410758e-09	-5.808147e+00	-9.619356e+01
1.670000e-06	-7.674860e-07	-1.398473e-09	-5.486475e+00	-9.504737e+01
1.680000e-06	-7.224639e-07	-1.379317e-09	-5.164628e+00	-9.387312e+01
1.690000e-06	-6.773583e-07	-1.354734e-09	-4.842185e+00	-9.266987e+01
1.700000e-06	-6.321812e-07	-1.329926e-09	-4.519230e+00	-9.143656e+01
1.710000e-06	-5.868970e-07	-1.309983e-09	-4.195511e+00	-9.017207e+01
1.720000e-06	-5.415865e-07	-1.292083e-09	-3.871602e+00	-8.887516e+01
1.730000e-06	-4.962620e-07	-1.270169e-09	-3.547594e+00	-8.754454e+01
1.740000e-06	-4.508362e-07	-1.248098e-09	-3.222862e+00	-8.617884e+01
1.750000e-06	-4.053707e-07	-1.232493e-09	-2.897845e+00	-8.477660e+01
1.760000e-06	-3.598389e-07	-1.217182e-09	-2.572356e+00	-8.333634e+01
1.770000e-06	-3.141745e-07	-1.192644e-09	-2.245917e+00	-8.185652e+01
1.780000e-06	-2.685163e-07	-1.161267e-09	-1.919524e+00	-8.033557e+01
1.790000e-06	-2.229841e-07	-1.133829e-09	-1.594031e+00	-7.877193e+01
1.800000e-06	-1.774369e-07	-1.108946e-09	-1.268431e+00	-7.716404e+01
1.810000e-06	-1.318760e-07	-1.085148e-09	-9.427332e-01	-7.551038e+01
1.820000e-06	-8.635620e-08	-1.059656e-09	-6.173286e-01	-7.380948e+01
1.830000e-06	-4.073610e-08	-1.034365e-09	-2.912073e-01	-7.205994e+01
1.840000e-06	4.947330e-09	-1.010996e-09	3.536663e-02	-7.026046e+01
1.850000e-06	5.057381e-08	-9.860091e-10	3.615335e-01	-6.840986e+01
1.860000e-06	9.614925e-08	-9.551964e-10	6.873355e-01	-6.650710e+01
1.870000e-06	1.417911e-07	-9.217711e-10	1.013613e+00	-6.455128e+01
1.880000e-06	1.874330e-07	-8.905027e-10	1.339890e+00	-6.254169e+01
1.890000e-06	2.329636e-07	-8.583928e-10	1.665371e+00	-6.047782e+01
1.900000e-06	2.784488e-07	-8.226920e-10	1.990528e+00	-5.835935e+01
1.910000e-06	3.239998e-07	-7.878199e-10	2.316155e+00	-5.618617e+01
1.920000e-06	3.695902e-07	-7.585874e-10	2.642064e+00	-5.395841e+01
1.930000e-06	4.150611e-07	-7.323318e-10	2.967119e+00	-5.167643e+01
1.940000e-06	4.604984e-07	-7.045229e-10	3.291933e+00	-4.934084e+01
1.950000e-06	5.059331e-07	-6.710252e-10	3.616729e+00	-4.695246e+01
1.960000e-06	5.512947e-07	-6.345557e-10	3.941002e+00	-4.451236e+01
1.970000e-06	5.965894e-07	-5.958396e-10	4.264797e+00	-4.202184e+01
1.980000e-06	6.418382e-07	-5.547417e-10	4.588264e+00	-3.948244e+01
1.990000e-06	6.869962e-07	-5.146091e-10	4.911083e+00	-3.689588e+01
2.000000e-06	7.320607e-07	-4.791888e-10	5.233232e+00	-3.426410e+01
2.010000e-06	7.771106e-07	-4.464929e-10	5.555277e+00	-3.158925e+01
2.020000e-06	8.221154e-07	-4.128113e-10	5.877000e+00	-2.887361e+01
2.030000e-06	8.670368e-07	-3.756427e-10	6.198127e+00	-2.611964e+01
2.040000e-06	9.119039e-07	-3.340476e-10	6.518865e+00	-2.332993e+01
2.050000e-06	9.567492e-07	-2.886869e-10	6.839447e+00	-2.050718e+01
2.060000e-06	1.001498e-06	-2.440796e-10	7.159342e+00	-1.765419e+01
2.070000e-06	1.046129e-06	-1.995251e-10	7.478390e+00	-1.477383e+01
2.080000e-06	1.090658e-06	-1.568138e-10	7.796710e+00	-1.186904e+01
2.090000e-06	1.135101e-06	-1.160229e-10	8.114417e+00	-8.942772e+00
2.100000e-06	1.179478e-06	-7.757748e-11	8.431656e+00	-5.998005e+00
2.110000e-06	1.223805e-06	-3.916679e-11	8.748534e+00	-3.037714e+00
2.120000e-06	1.268123e-06	1.427348e-12	9.065345e+00	-6.485288e-02
2.130000e-06	1.312365e-06	4.500165e-11	9.381611e+00	2.917660e+00
2.140000e-06	1.356524e-06	9.276387e-11	9.697293e+00	5.906955e+00
2.150000e-06	1.400630e-06	1.411113e-10	1.001259e+01	8.900226e+00
2.160000e-06	1.444684e-06	1.861906e-10	1.032751e+01	1.189474e+01
2.170000e-06	1.488722e-06	2.284355e-10	1.064233e+01	1.488784e+01
2.180000e-06	1.532744e-06	2.701944e-10	1.095702e+01	1.787696e+01
2.190000e-06	1.576678e-06	3.125138e-10	1.127109e+01	2.085962e+01
2.200000e-06	1.620515e-06	3.565070e-10	1.158446e+01	2.383345e+01
2.210000e-06	1.664255e-06	4.009418e-10	1.189715e+01	2.679617e+01
2.220000e-06	1.707922e-06	4.443926e-10	1.220930e+01	2.974560e+01
2.230000e-06	1.751551e-06	4.866481e-10	1.252119e+01	3.267964e+01
2.240000e-06	1.795078e-06	5.279524e-10	1.283235e+01	3.559630e+01
2.250000e-06	1.838438e-06	5.664810e-10	1.314231e+01	3.849367e+01
2.260000e-06	1.881664e-06	6.060723e-10	1.345132e+01	4.136995e+01
2.270000e-06	1.924678e-06	6.483123e-10	1.375882e+01	4.422338e+01
2.280000e-06	1.967436e-06	6.905061e-10	1.406447e+01	4.705231e+01
2.290000e-06	2.009873e-06	7.326061e-10	1.436784e+01	4.985514e+01
2.300000e-06	2.052001e-06	7.754949e-10	1.466900e+01	5.263035e+01
2.310000e-06	2.093870e-06	8.167287e-10	1.496831e+01	5.537647e+01
2.320000e-06	2.135427e-06	8.541697e-10	1.526538e+01	5.809208e+01
2.330000e-06	2.176774e-06	8.896921e-10	1.556095e+01	6.077583e+01
2.340000e-06	2.217872e-06	9.271920e-10	1.585475e+01	6.342639e+01
2.350000e-06	2.258680e-06	9.660395e-10	1.614647e+01	6.604249e+01
2.360000e-06	2.299361e-06	1.005139e-09	1.643728e+01	6.862290e+01
2.370000e-06	2.339882e-06	1.043804e-09	1.672695e+01	7.116642e+01
2.380000e-06	2.380189e-06	1.082804e-09	1.701510e+01	7.367191e+01
2.390000e-06	2.420406e-06	1.120226e-09	1.730259e+01	7.613824e+01
2.400000e-06	2.460539e-06	1.154105e-09	1.758948e+01	7.856434e+01
2.410000e-06	2.500582e-06	1.184111e-09	1.787574e+01	8.094918e+01
2.420000e-06	2.540568e-06	1.213484e-09	1.816159e+01	8.329177e+01
2.430000e-06	2.580465e-06	1.246526e-09	1.844680e+01	8.559117e+01
2.440000e-06	2.620215e-06	1.279617e-09	1.873095e+01	8.784647e+01
2.450000e-06	2.659807e-06	1.313239e-09	1.901398e+01	9.005685e+01
2.460000e-06	2.699190e-06	1.348121e-09	1.929551e+01	9.222152e+01
2.470000e-06	2.738404e-06	1.381553e-09	1.957584e+01	9.433977e+01
2.480000e-06	2.777423e-06	1.412784e-09	1.985477e+01	9.641094e+01
2.490000e-06	2.816150e-06	1.441104e-09	2.013162e+01	9.843445e+01
2.500000e-06	2.854655e-06	1.467788e-09	2.040688e+01	1.004098e+02
2.510000e-06	2.892926e-06	1.493053e-09	2.068046e+01	1.023366e+02
2.520000e-06	2.931074e-06	1.520426e-09	2.095317e+01	1.042144e+02
2.530000e-06	2.969124e-06	1.546984e-09	2.122517e+01	1.060430e+02
2.540000e-06	3.006897e-06	1.573219e-09	2.149520e+01	1.078223e+02
2.550000e-06	3.044431e-06	1.602136e-09	2.176351e+01	1.095522e+02
2.560000e-06	3.081784e-06	1.630485e-09	2.203054e+01	1.112326e+02
2.570000e-06	3.118939e-06	1.654167e-09	2.229615e+01	1.128637e+02
2.580000e-06	3.155930e-06	1.673399e-09	2.256058e+01	1.144458e+02
2.590000e-06	3.192680e-06	1.689948e-09	2.282329e+01	1.159790e+02
2.600000e-06	3.229141e-06	1.709224e-09	2.308394e+01	1.174638e+02
2.610000e-06	3.265447e-06	1.730431e-09	2.334348e+01	1.189006e+02
2.620000e-06	3.301643e-06	1.748457e-09	2.360223e+01	1.202901e+02
2.630000e-06	3.337695e-06	1.766345e-09	2.385995e+01	1.216329e+02
2.640000e-06	3.373585e-06	1.787020e-09	2.411652e+01	1.229297e+02
2.650000e-06	3.409310e-06	1.808191e-09	2.437190e+01	1.241813e+02
2.660000e-06	3.444841e-06	1.824081e-09	2.462590e+01	1.253886e+02
2.670000e-06	3.480072e-06	1.836361e-09	2.487775e+01	1.265526e+02
2.680000e-06	3.514978e-06	1.848436e-09	2.512728e+01	1.276743e+02
2.690000e-06	3.549510e-06	1.862856e-09	2.537414e+01	1.287548e+02
2.700000e-06	3.583665e-06	1.877789e-09	2.561830e+01	1.297952e+02
2.710000e-06	3.617369e-06	1.892343e-09	2.585924e+01	1.307967e+02
2.720000e-06	3.650679e-06	1.906548e-09	2.609736e+01	1.317605e+02
2.730000e-06	3.683603e-06	1.922450e-09	2.633272e+01	1.326878e+02
2.740000e-06	3.716154e-06	1.937303e-09	2.656542e+01	1.335799e+02
2.750000e-06	3.748497e-06	1.949470e-09	2.679662e+01	1.344382e+02
2.760000e-06	3.780638e-06	1.958283e-09	2.702639e+01	1.352638e+02
2.770000e-06	3.812615e-06	1.967223e-09	2.725498e+01	1.360581e+02
2.780000e-06	3.844387e-06	1.976590e-09	2.748210e+01	1.368225e+02
2.790000e-06	3.875970e-06	1.984902e-09	2.770788e+01	1.375581e+02
2.800000e-06	3.907300e-06	1.993072e-09	2.793184e+01	1.382663e+02
2.810000e-06	3.938344e-06	2.003490e-09	2.815377e+01	1.389483e+02
2.820000e-06	3.969167e-06	2.014220e-09	2.837411e+01	1.396052e+02
2.830000e-06	3.999680e-06	2.023641e-09	2.859224e+01	1.402384e+02
2.840000e-06	4.029848e-06	2.033482e-09	2.880790e+01	1.408488e+02
2.850000e-06	4.059821e-06	2.045714e-09	2.902216e+01	1.414376e+02
2.860000e-06	4.089607e-06	2.057818e-09	2.923510e+01	1.420058e+02
2.870000e-06	4.119078e-06	2.066007e-09	2.944577e+01	1.425544e+02
2.880000e-06	4.148235e-06	2.069876e-09	2.965421e+01	1.430841e+02
2.890000e-06	4.177145e-06	2.073932e-09	2.986087e+01	1.435960e+02
2.900000e-06	4.205716e-06	2.080195e-09	3.006511e+01	1.440906e+02
