# Temperatura_=_-2.11
# Concentracion g/m^3_=_4090.0
# C_Vs_to_Am_M_A/Vsm_=_65563218390.804596
# pendiente_HvsI_1/m_=_3716.3
# ordenada_HvsI_A/m_=_1297.0
# frecuencia_Hz_=_135070.02846612612

Tiempo_(s)	Campo_(V.s)	Magnetizacion_(V.s)	Campo_(kA/m)	Magnetizacion_(A/m)
0.000000e+00	-5.438073e-06	-2.239090e-09	-3.840847e+01	-1.452781e+02
1.000000e-08	-5.438315e-06	-2.239826e-09	-3.841018e+01	-1.451713e+02
2.000000e-08	-5.438406e-06	-2.237834e-09	-3.841083e+01	-1.450635e+02
3.000000e-08	-5.438195e-06	-2.234568e-09	-3.840933e+01	-1.449568e+02
4.000000e-08	-5.437507e-06	-2.231128e-09	-3.840448e+01	-1.448533e+02
5.000000e-08	-5.436297e-06	-2.229522e-09	-3.839593e+01	-1.447550e+02
6.000000e-08	-5.434528e-06	-2.229067e-09	-3.838343e+01	-1.446639e+02
7.000000e-08	-5.432283e-06	-2.237834e-09	-3.836758e+01	-1.445819e+02
8.000000e-08	-5.429521e-06	-2.248493e-09	-3.834807e+01	-1.445108e+02
9.000000e-08	-5.426077e-06	-2.211180e-09	-3.832375e+01	-1.444522e+02
1.000000e-07	-5.422101e-06	-2.180959e-09	-3.829566e+01	-1.444075e+02
1.100000e-07	-5.417838e-06	-2.256952e-09	-3.826555e+01	-1.443778e+02
1.200000e-07	-5.413417e-06	-2.292398e-09	-3.823433e+01	-1.443640e+02
1.300000e-07	-5.408715e-06	-2.201135e-09	-3.820112e+01	-1.443667e+02
1.400000e-07	-5.403643e-06	-2.143971e-09	-3.816529e+01	-1.443863e+02
1.500000e-07	-5.398274e-06	-2.228106e-09	-3.812737e+01	-1.444229e+02
1.600000e-07	-5.392587e-06	-2.309414e-09	-3.808721e+01	-1.444761e+02
1.700000e-07	-5.386450e-06	-2.166877e-09	-3.804386e+01	-1.445454e+02
1.800000e-07	-5.379821e-06	-2.121570e-09	-3.799704e+01	-1.446299e+02
1.900000e-07	-5.372857e-06	-2.225302e-09	-3.794786e+01	-1.447286e+02
2.000000e-07	-5.365657e-06	-2.302862e-09	-3.789701e+01	-1.448400e+02
2.100000e-07	-5.358169e-06	-2.188770e-09	-3.784412e+01	-1.449626e+02
2.200000e-07	-5.350438e-06	-2.183160e-09	-3.778952e+01	-1.450946e+02
2.300000e-07	-5.342461e-06	-2.283768e-09	-3.773318e+01	-1.452340e+02
2.400000e-07	-5.334223e-06	-2.283285e-09	-3.767499e+01	-1.453788e+02
2.500000e-07	-5.325445e-06	-2.207163e-09	-3.761300e+01	-1.455267e+02
2.600000e-07	-5.315909e-06	-2.259478e-09	-3.754564e+01	-1.456756e+02
2.700000e-07	-5.305645e-06	-2.347321e-09	-3.747315e+01	-1.458231e+02
2.800000e-07	-5.294760e-06	-2.270796e-09	-3.739627e+01	-1.459672e+02
2.900000e-07	-5.283525e-06	-2.229554e-09	-3.731691e+01	-1.461055e+02
3.000000e-07	-5.271964e-06	-2.319625e-09	-3.723526e+01	-1.462362e+02
3.100000e-07	-5.259963e-06	-2.337650e-09	-3.715050e+01	-1.463573e+02
3.200000e-07	-5.247513e-06	-2.216563e-09	-3.706257e+01	-1.464669e+02
3.300000e-07	-5.234643e-06	-2.249167e-09	-3.697167e+01	-1.465637e+02
3.400000e-07	-5.221390e-06	-2.320602e-09	-3.687806e+01	-1.466462e+02
3.500000e-07	-5.207781e-06	-2.276036e-09	-3.678195e+01	-1.467133e+02
3.600000e-07	-5.193833e-06	-2.224916e-09	-3.668343e+01	-1.467643e+02
3.700000e-07	-5.179577e-06	-2.303199e-09	-3.658275e+01	-1.467984e+02
3.800000e-07	-5.164855e-06	-2.283471e-09	-3.647876e+01	-1.468154e+02
3.900000e-07	-5.149390e-06	-2.238047e-09	-3.636954e+01	-1.468151e+02
4.000000e-07	-5.133333e-06	-2.272048e-09	-3.625613e+01	-1.467978e+02
4.100000e-07	-5.116953e-06	-2.290445e-09	-3.614043e+01	-1.467639e+02
4.200000e-07	-5.100143e-06	-2.213044e-09	-3.602171e+01	-1.467140e+02
4.300000e-07	-5.083001e-06	-2.240459e-09	-3.590064e+01	-1.466489e+02
4.400000e-07	-5.065616e-06	-2.291894e-09	-3.577785e+01	-1.465697e+02
4.500000e-07	-5.047833e-06	-2.252877e-09	-3.565225e+01	-1.464775e+02
4.600000e-07	-5.029704e-06	-2.220896e-09	-3.552421e+01	-1.463737e+02
4.700000e-07	-5.011344e-06	-2.274611e-09	-3.539453e+01	-1.462596e+02
4.800000e-07	-4.992625e-06	-2.269479e-09	-3.526232e+01	-1.461368e+02
4.900000e-07	-4.973456e-06	-2.231647e-09	-3.512694e+01	-1.460066e+02
5.000000e-07	-4.953965e-06	-2.235452e-09	-3.498927e+01	-1.458707e+02
5.100000e-07	-4.934279e-06	-2.239515e-09	-3.485023e+01	-1.457305e+02
5.200000e-07	-4.914332e-06	-2.232624e-09	-3.470935e+01	-1.455875e+02
5.300000e-07	-4.894105e-06	-2.251595e-09	-3.456649e+01	-1.454429e+02
5.400000e-07	-4.873554e-06	-2.248435e-09	-3.442134e+01	-1.452980e+02
5.500000e-07	-4.852661e-06	-2.220941e-09	-3.427378e+01	-1.451539e+02
5.600000e-07	-4.831474e-06	-2.236603e-09	-3.412413e+01	-1.450117e+02
5.700000e-07	-4.809946e-06	-2.247394e-09	-3.397208e+01	-1.448721e+02
5.800000e-07	-4.788078e-06	-2.225510e-09	-3.381763e+01	-1.447357e+02
5.900000e-07	-4.765915e-06	-2.214603e-09	-3.366109e+01	-1.446031e+02
6.000000e-07	-4.743401e-06	-2.230433e-09	-3.350208e+01	-1.444745e+02
6.100000e-07	-4.720467e-06	-2.226811e-09	-3.334010e+01	-1.443501e+02
6.200000e-07	-4.697298e-06	-2.221810e-09	-3.317646e+01	-1.442299e+02
6.300000e-07	-4.673895e-06	-2.205720e-09	-3.301117e+01	-1.441136e+02
6.400000e-07	-4.650216e-06	-2.200526e-09	-3.284393e+01	-1.440008e+02
6.500000e-07	-4.626362e-06	-2.205442e-09	-3.267545e+01	-1.438912e+02
6.600000e-07	-4.602263e-06	-2.212341e-09	-3.250524e+01	-1.437841e+02
6.700000e-07	-4.577827e-06	-2.195686e-09	-3.233265e+01	-1.436788e+02
6.800000e-07	-4.552982e-06	-2.199232e-09	-3.215717e+01	-1.435745e+02
6.900000e-07	-4.527746e-06	-2.207821e-09	-3.197893e+01	-1.434703e+02
7.000000e-07	-4.501954e-06	-2.210995e-09	-3.179677e+01	-1.433655e+02
7.100000e-07	-4.475386e-06	-2.196607e-09	-3.160912e+01	-1.432592e+02
7.200000e-07	-4.448291e-06	-2.188678e-09	-3.141776e+01	-1.431503e+02
7.300000e-07	-4.420923e-06	-2.183542e-09	-3.122446e+01	-1.430382e+02
7.400000e-07	-4.393387e-06	-2.190502e-09	-3.102997e+01	-1.429219e+02
7.500000e-07	-4.365714e-06	-2.186594e-09	-3.083452e+01	-1.428007e+02
7.600000e-07	-4.337799e-06	-2.180971e-09	-3.063737e+01	-1.426739e+02
7.700000e-07	-4.309627e-06	-2.181956e-09	-3.043839e+01	-1.425410e+02
7.800000e-07	-4.281218e-06	-2.186773e-09	-3.023774e+01	-1.424014e+02
7.900000e-07	-4.252526e-06	-2.177023e-09	-3.003509e+01	-1.422548e+02
8.000000e-07	-4.223470e-06	-2.164079e-09	-2.982987e+01	-1.421009e+02
8.100000e-07	-4.194102e-06	-2.157952e-09	-2.962245e+01	-1.419396e+02
8.200000e-07	-4.164491e-06	-2.160234e-09	-2.941331e+01	-1.417707e+02
8.300000e-07	-4.134618e-06	-2.162019e-09	-2.920232e+01	-1.415944e+02
8.400000e-07	-4.104477e-06	-2.155211e-09	-2.898944e+01	-1.414108e+02
8.500000e-07	-4.074009e-06	-2.149867e-09	-2.877425e+01	-1.412203e+02
8.600000e-07	-4.043160e-06	-2.149328e-09	-2.855636e+01	-1.410231e+02
8.700000e-07	-4.012015e-06	-2.146287e-09	-2.833639e+01	-1.408198e+02
8.800000e-07	-3.980704e-06	-2.132390e-09	-2.811524e+01	-1.406108e+02
8.900000e-07	-3.949288e-06	-2.122256e-09	-2.789336e+01	-1.403968e+02
9.000000e-07	-3.917737e-06	-2.122834e-09	-2.767051e+01	-1.401784e+02
9.100000e-07	-3.885970e-06	-2.131450e-09	-2.744615e+01	-1.399561e+02
9.200000e-07	-3.853982e-06	-2.128915e-09	-2.722022e+01	-1.397307e+02
9.300000e-07	-3.821681e-06	-2.122202e-09	-2.699208e+01	-1.395029e+02
9.400000e-07	-3.788976e-06	-2.116671e-09	-2.676109e+01	-1.392731e+02
9.500000e-07	-3.755877e-06	-2.118300e-09	-2.652732e+01	-1.390422e+02
9.600000e-07	-3.722415e-06	-2.113030e-09	-2.629098e+01	-1.388107e+02
9.700000e-07	-3.688635e-06	-2.104366e-09	-2.605239e+01	-1.385790e+02
9.800000e-07	-3.654454e-06	-2.095559e-09	-2.581098e+01	-1.383477e+02
9.900000e-07	-3.619838e-06	-2.095841e-09	-2.556649e+01	-1.381172e+02
1.000000e-06	-3.584792e-06	-2.091974e-09	-2.531896e+01	-1.378877e+02
1.010000e-06	-3.549503e-06	-2.088380e-09	-2.506972e+01	-1.376596e+02
1.020000e-06	-3.514083e-06	-2.081672e-09	-2.481956e+01	-1.374329e+02
1.030000e-06	-3.478437e-06	-2.078346e-09	-2.456779e+01	-1.372079e+02
1.040000e-06	-3.442645e-06	-2.077504e-09	-2.431500e+01	-1.369844e+02
1.050000e-06	-3.406741e-06	-2.079692e-09	-2.406141e+01	-1.367624e+02
1.060000e-06	-3.370633e-06	-2.074844e-09	-2.380638e+01	-1.365417e+02
1.070000e-06	-3.334288e-06	-2.067904e-09	-2.354969e+01	-1.363221e+02
1.080000e-06	-3.297735e-06	-2.060807e-09	-2.329151e+01	-1.361033e+02
1.090000e-06	-3.260926e-06	-2.054137e-09	-2.303154e+01	-1.358849e+02
1.100000e-06	-3.223842e-06	-2.046332e-09	-2.276962e+01	-1.356664e+02
1.110000e-06	-3.186500e-06	-2.043451e-09	-2.250587e+01	-1.354474e+02
1.120000e-06	-3.148914e-06	-2.045230e-09	-2.224041e+01	-1.352273e+02
1.130000e-06	-3.111151e-06	-2.045701e-09	-2.197369e+01	-1.350057e+02
1.140000e-06	-3.073234e-06	-2.042692e-09	-2.170589e+01	-1.347818e+02
1.150000e-06	-3.035171e-06	-2.036982e-09	-2.143706e+01	-1.345552e+02
1.160000e-06	-2.996867e-06	-2.028846e-09	-2.116652e+01	-1.343253e+02
1.170000e-06	-2.958252e-06	-2.020589e-09	-2.089378e+01	-1.340914e+02
1.180000e-06	-2.919373e-06	-2.015619e-09	-2.061919e+01	-1.338530e+02
1.190000e-06	-2.880322e-06	-2.010827e-09	-2.034337e+01	-1.336096e+02
1.200000e-06	-2.841044e-06	-2.007250e-09	-2.006596e+01	-1.333605e+02
1.210000e-06	-2.801531e-06	-2.002170e-09	-1.978688e+01	-1.331054e+02
1.220000e-06	-2.761906e-06	-1.998672e-09	-1.950702e+01	-1.328437e+02
1.230000e-06	-2.722223e-06	-1.994220e-09	-1.922674e+01	-1.325750e+02
1.240000e-06	-2.682447e-06	-1.990863e-09	-1.894581e+01	-1.322989e+02
1.250000e-06	-2.642522e-06	-1.984490e-09	-1.866382e+01	-1.320152e+02
1.260000e-06	-2.602511e-06	-1.980544e-09	-1.838123e+01	-1.317236e+02
1.270000e-06	-2.562312e-06	-1.974182e-09	-1.809731e+01	-1.314238e+02
1.280000e-06	-2.521962e-06	-1.966951e-09	-1.781232e+01	-1.311156e+02
1.290000e-06	-2.481606e-06	-1.960279e-09	-1.752729e+01	-1.307990e+02
1.300000e-06	-2.441053e-06	-1.956633e-09	-1.724087e+01	-1.304738e+02
1.310000e-06	-2.400206e-06	-1.950270e-09	-1.695238e+01	-1.301400e+02
1.320000e-06	-2.359012e-06	-1.942768e-09	-1.666142e+01	-1.297976e+02
1.330000e-06	-2.317495e-06	-1.934238e-09	-1.636819e+01	-1.294467e+02
1.340000e-06	-2.275691e-06	-1.928972e-09	-1.607294e+01	-1.290873e+02
1.350000e-06	-2.233572e-06	-1.922392e-09	-1.577546e+01	-1.287195e+02
1.360000e-06	-2.191235e-06	-1.912709e-09	-1.547643e+01	-1.283433e+02
1.370000e-06	-2.148616e-06	-1.903455e-09	-1.517542e+01	-1.279590e+02
1.380000e-06	-2.105670e-06	-1.896517e-09	-1.487210e+01	-1.275667e+02
1.390000e-06	-2.062577e-06	-1.892768e-09	-1.456774e+01	-1.271664e+02
1.400000e-06	-2.019306e-06	-1.889886e-09	-1.426212e+01	-1.267582e+02
1.410000e-06	-1.975795e-06	-1.884392e-09	-1.395481e+01	-1.263423e+02
1.420000e-06	-1.932214e-06	-1.875555e-09	-1.364700e+01	-1.259187e+02
1.430000e-06	-1.888607e-06	-1.865423e-09	-1.333901e+01	-1.254875e+02
1.440000e-06	-1.844958e-06	-1.853781e-09	-1.303072e+01	-1.250485e+02
1.450000e-06	-1.801179e-06	-1.840474e-09	-1.272152e+01	-1.246018e+02
1.460000e-06	-1.757294e-06	-1.829857e-09	-1.241156e+01	-1.241472e+02
1.470000e-06	-1.713380e-06	-1.825603e-09	-1.210140e+01	-1.236846e+02
1.480000e-06	-1.669402e-06	-1.823430e-09	-1.179079e+01	-1.232137e+02
1.490000e-06	-1.625371e-06	-1.819593e-09	-1.147981e+01	-1.227343e+02
1.500000e-06	-1.581260e-06	-1.811409e-09	-1.116825e+01	-1.222459e+02
1.510000e-06	-1.537021e-06	-1.801482e-09	-1.085580e+01	-1.217480e+02
1.520000e-06	-1.492655e-06	-1.789038e-09	-1.054245e+01	-1.212403e+02
1.530000e-06	-1.448123e-06	-1.774926e-09	-1.022792e+01	-1.207221e+02
1.540000e-06	-1.403577e-06	-1.764379e-09	-9.913302e+00	-1.201926e+02
1.550000e-06	-1.359007e-06	-1.761091e-09	-9.598508e+00	-1.196513e+02
1.560000e-06	-1.314251e-06	-1.759935e-09	-9.282402e+00	-1.190972e+02
1.570000e-06	-1.269421e-06	-1.757144e-09	-8.965774e+00	-1.185296e+02
1.580000e-06	-1.224472e-06	-1.748235e-09	-8.648301e+00	-1.179475e+02
1.590000e-06	-1.179370e-06	-1.736206e-09	-8.329754e+00	-1.173498e+02
1.600000e-06	-1.134160e-06	-1.723602e-09	-8.010439e+00	-1.167357e+02
1.610000e-06	-1.088904e-06	-1.711269e-09	-7.690798e+00	-1.161041e+02
1.620000e-06	-1.043575e-06	-1.695114e-09	-7.370650e+00	-1.154537e+02
1.630000e-06	-9.981543e-07	-1.681179e-09	-7.049847e+00	-1.147836e+02
1.640000e-06	-9.526872e-07	-1.672799e-09	-6.728718e+00	-1.140927e+02
1.650000e-06	-9.071918e-07	-1.666534e-09	-6.407389e+00	-1.133797e+02
1.660000e-06	-8.616768e-07	-1.658254e-09	-6.085922e+00	-1.126435e+02
1.670000e-06	-8.160831e-07	-1.647957e-09	-5.763899e+00	-1.118831e+02
1.680000e-06	-7.704252e-07	-1.637476e-09	-5.441423e+00	-1.110972e+02
1.690000e-06	-7.247209e-07	-1.624364e-09	-5.118619e+00	-1.102849e+02
1.700000e-06	-6.789879e-07	-1.606980e-09	-4.795612e+00	-1.094450e+02
1.710000e-06	-6.331854e-07	-1.588442e-09	-4.472114e+00	-1.085766e+02
1.720000e-06	-5.873363e-07	-1.573911e-09	-4.148287e+00	-1.076785e+02
1.730000e-06	-5.414378e-07	-1.562435e-09	-3.824112e+00	-1.067498e+02
1.740000e-06	-4.954970e-07	-1.549668e-09	-3.499637e+00	-1.057896e+02
1.750000e-06	-4.495546e-07	-1.535875e-09	-3.175151e+00	-1.047969e+02
1.760000e-06	-4.036319e-07	-1.526530e-09	-2.850804e+00	-1.037707e+02
1.770000e-06	-3.577546e-07	-1.517286e-09	-2.526779e+00	-1.027103e+02
1.780000e-06	-3.119034e-07	-1.500420e-09	-2.202937e+00	-1.016146e+02
1.790000e-06	-2.660093e-07	-1.476605e-09	-1.878792e+00	-1.004829e+02
1.800000e-06	-2.199701e-07	-1.454485e-09	-1.553623e+00	-9.931407e+01
1.810000e-06	-1.738748e-07	-1.435612e-09	-1.228057e+00	-9.810727e+01
1.820000e-06	-1.277811e-07	-1.417348e-09	-9.025031e-01	-9.686151e+01
1.830000e-06	-8.162824e-08	-1.396654e-09	-5.765307e-01	-9.557573e+01
1.840000e-06	-3.555378e-08	-1.375802e-09	-2.511122e-01	-9.424885e+01
1.850000e-06	1.046041e-08	-1.358248e-09	7.388068e-02	-9.287967e+01
1.860000e-06	5.657037e-08	-1.343231e-09	3.995499e-01	-9.146696e+01
1.870000e-06	1.026803e-07	-1.323941e-09	7.252187e-01	-9.000933e+01
1.880000e-06	1.487106e-07	-1.302114e-09	1.050326e+00	-8.850534e+01
1.890000e-06	1.946737e-07	-1.279328e-09	1.374957e+00	-8.695342e+01
1.900000e-06	2.406605e-07	-1.252706e-09	1.699757e+00	-8.535188e+01
1.910000e-06	2.866981e-07	-1.219511e-09	2.024915e+00	-8.369892e+01
1.920000e-06	3.326960e-07	-1.184369e-09	2.349792e+00	-8.199264e+01
1.930000e-06	3.786241e-07	-1.154192e-09	2.674177e+00	-8.023103e+01
1.940000e-06	4.245101e-07	-1.130575e-09	2.998265e+00	-7.841197e+01
1.950000e-06	4.703861e-07	-1.109186e-09	3.322281e+00	-7.653327e+01
1.960000e-06	5.162490e-07	-1.086669e-09	3.646206e+00	-7.459269e+01
1.970000e-06	5.620808e-07	-1.061524e-09	3.969911e+00	-7.258793e+01
1.980000e-06	6.078808e-07	-1.030433e-09	4.293390e+00	-7.051668e+01
1.990000e-06	6.536170e-07	-9.915752e-10	4.616420e+00	-6.837663e+01
2.000000e-06	6.993092e-07	-9.500689e-10	4.939139e+00	-6.616553e+01
2.010000e-06	7.449998e-07	-9.131581e-10	5.261846e+00	-6.388120e+01
2.020000e-06	7.906218e-07	-8.803440e-10	5.584069e+00	-6.152160e+01
2.030000e-06	8.361971e-07	-8.492226e-10	5.905962e+00	-5.908482e+01
2.040000e-06	8.817715e-07	-8.186635e-10	6.227848e+00	-5.656917e+01
2.050000e-06	9.272883e-07	-7.859056e-10	6.549328e+00	-5.397319e+01
2.060000e-06	9.728097e-07	-7.490741e-10	6.870840e+00	-5.129574e+01
2.070000e-06	1.018333e-06	-7.073632e-10	7.192370e+00	-4.853597e+01
2.080000e-06	1.063683e-06	-6.605217e-10	7.512668e+00	-4.569343e+01
2.090000e-06	1.108877e-06	-6.122377e-10	7.831865e+00	-4.276808e+01
2.100000e-06	1.154014e-06	-5.639728e-10	8.150666e+00	-3.976031e+01
2.110000e-06	1.199034e-06	-5.196733e-10	8.468635e+00	-3.667101e+01
2.120000e-06	1.243947e-06	-4.770507e-10	8.785853e+00	-3.350158e+01
2.130000e-06	1.288781e-06	-4.336149e-10	9.102510e+00	-3.025395e+01
2.140000e-06	1.333524e-06	-3.888724e-10	9.418524e+00	-2.693058e+01
2.150000e-06	1.378213e-06	-3.414636e-10	9.734159e+00	-2.353452e+01
2.160000e-06	1.422729e-06	-2.876703e-10	1.004857e+01	-2.006936e+01
2.170000e-06	1.467052e-06	-2.303497e-10	1.036161e+01	-1.653929e+01
2.180000e-06	1.511246e-06	-1.743290e-10	1.067375e+01	-1.294900e+01
2.190000e-06	1.555289e-06	-1.209752e-10	1.098482e+01	-9.303763e+00
2.200000e-06	1.599273e-06	-7.004450e-11	1.129548e+01	-5.609319e+00
2.210000e-06	1.643254e-06	-1.911301e-11	1.160611e+01	-1.871906e+00
2.220000e-06	1.687195e-06	3.622140e-11	1.191646e+01	1.901815e+00
2.230000e-06	1.731086e-06	9.607774e-11	1.222646e+01	5.704791e+00
2.240000e-06	1.774883e-06	1.580187e-10	1.253579e+01	9.529642e+00
2.250000e-06	1.818611e-06	2.211520e-10	1.284463e+01	1.336871e+01
2.260000e-06	1.862371e-06	2.831775e-10	1.315371e+01	1.721414e+01
2.270000e-06	1.906095e-06	3.432277e-10	1.346252e+01	2.105792e+01
2.280000e-06	1.949626e-06	3.981405e-10	1.376998e+01	2.489197e+01
2.290000e-06	1.992976e-06	4.495296e-10	1.407615e+01	2.870823e+01
2.300000e-06	2.036236e-06	5.022925e-10	1.438169e+01	3.249871e+01
2.310000e-06	2.079483e-06	5.568069e-10	1.468714e+01	3.625555e+01
2.320000e-06	2.122589e-06	6.111795e-10	1.499159e+01	3.997115e+01
2.330000e-06	2.165382e-06	6.659811e-10	1.529384e+01	4.363817e+01
2.340000e-06	2.207874e-06	7.203743e-10	1.559395e+01	4.724965e+01
2.350000e-06	2.249940e-06	7.736438e-10	1.589106e+01	5.079905e+01
2.360000e-06	2.291626e-06	8.241281e-10	1.618548e+01	5.428029e+01
2.370000e-06	2.333120e-06	8.729539e-10	1.647856e+01	5.768783e+01
2.380000e-06	2.374390e-06	9.198328e-10	1.677003e+01	6.101671e+01
2.390000e-06	2.415336e-06	9.642862e-10	1.705924e+01	6.426255e+01
2.400000e-06	2.455977e-06	1.007203e-09	1.734628e+01	6.742162e+01
2.410000e-06	2.496432e-06	1.049454e-09	1.763201e+01	7.049082e+01
2.420000e-06	2.536776e-06	1.091757e-09	1.791695e+01	7.346772e+01
2.430000e-06	2.576925e-06	1.133440e-09	1.820052e+01	7.635054e+01
2.440000e-06	2.616892e-06	1.174383e-09	1.848280e+01	7.913816e+01
2.450000e-06	2.656806e-06	1.212263e-09	1.876471e+01	8.183006e+01
2.460000e-06	2.696638e-06	1.247136e-09	1.904604e+01	8.442636e+01
2.470000e-06	2.736384e-06	1.278470e-09	1.932676e+01	8.692772e+01
2.480000e-06	2.776081e-06	1.309118e-09	1.960713e+01	8.933534e+01
2.490000e-06	2.815659e-06	1.340485e-09	1.988667e+01	9.165091e+01
2.500000e-06	2.854989e-06	1.371426e-09	2.016445e+01	9.387654e+01
2.510000e-06	2.893968e-06	1.403260e-09	2.043975e+01	9.601472e+01
2.520000e-06	2.932616e-06	1.436272e-09	2.071272e+01	9.806826e+01
2.530000e-06	2.971049e-06	1.468614e-09	2.098417e+01	1.000402e+02
2.540000e-06	3.009312e-06	1.497604e-09	2.125442e+01	1.019339e+02
2.550000e-06	3.047381e-06	1.522986e-09	2.152329e+01	1.037526e+02
2.560000e-06	3.085299e-06	1.547870e-09	2.179110e+01	1.054999e+02
2.570000e-06	3.123130e-06	1.570263e-09	2.205830e+01	1.071793e+02
2.580000e-06	3.160782e-06	1.590437e-09	2.232423e+01	1.087941e+02
2.590000e-06	3.198160e-06	1.613623e-09	2.258823e+01	1.103478e+02
2.600000e-06	3.235320e-06	1.638464e-09	2.285068e+01	1.118436e+02
2.610000e-06	3.272236e-06	1.663282e-09	2.311142e+01	1.132846e+02
2.620000e-06	3.308819e-06	1.686323e-09	2.336980e+01	1.146736e+02
2.630000e-06	3.345137e-06	1.706464e-09	2.362631e+01	1.160133e+02
2.640000e-06	3.381335e-06	1.725345e-09	2.388197e+01	1.173061e+02
2.650000e-06	3.417366e-06	1.741396e-09	2.413645e+01	1.185541e+02
2.660000e-06	3.453230e-06	1.753860e-09	2.438976e+01	1.197592e+02
2.670000e-06	3.488979e-06	1.768030e-09	2.464225e+01	1.209230e+02
2.680000e-06	3.524600e-06	1.787967e-09	2.489383e+01	1.220468e+02
2.690000e-06	3.560025e-06	1.809515e-09	2.514404e+01	1.231319e+02
2.700000e-06	3.595174e-06	1.825367e-09	2.539229e+01	1.241790e+02
2.710000e-06	3.629949e-06	1.837558e-09	2.563790e+01	1.251890e+02
2.720000e-06	3.664327e-06	1.851732e-09	2.588071e+01	1.261623e+02
2.730000e-06	3.698335e-06	1.867314e-09	2.612091e+01	1.270994e+02
2.740000e-06	3.731827e-06	1.877878e-09	2.635745e+01	1.280006e+02
2.750000e-06	3.764855e-06	1.884558e-09	2.659073e+01	1.288660e+02
2.760000e-06	3.797520e-06	1.896476e-09	2.682144e+01	1.296960e+02
2.770000e-06	3.829864e-06	1.913377e-09	2.704988e+01	1.304907e+02
2.780000e-06	3.861992e-06	1.927197e-09	2.727680e+01	1.312502e+02
2.790000e-06	3.893976e-06	1.936728e-09	2.750269e+01	1.319750e+02
2.800000e-06	3.925820e-06	1.945430e-09	2.772760e+01	1.326652e+02
2.810000e-06	3.957505e-06	1.955491e-09	2.795139e+01	1.333215e+02
2.820000e-06	3.988966e-06	1.964269e-09	2.817359e+01	1.339444e+02
2.830000e-06	4.020111e-06	1.968019e-09	2.839357e+01	1.345346e+02
2.840000e-06	4.050944e-06	1.972705e-09	2.861134e+01	1.350929e+02
2.850000e-06	4.081472e-06	1.984389e-09	2.882695e+01	1.356205e+02
2.860000e-06	4.111698e-06	1.997458e-09	2.904044e+01	1.361184e+02
2.870000e-06	4.141688e-06	2.004953e-09	2.925225e+01	1.365880e+02
2.880000e-06	4.171479e-06	2.009313e-09	2.946266e+01	1.370307e+02
2.890000e-06	4.201049e-06	2.014356e-09	2.967151e+01	1.374481e+02
2.900000e-06	4.230323e-06	2.017199e-09	2.987828e+01	1.378417e+02
