# Temperatura_=_-1.0
# Concentracion g/m^3_=_4090.0
# C_Vs_to_Am_M_A/Vsm_=_65563218390.804596
# pendiente_HvsI_1/m_=_3716.3
# ordenada_HvsI_A/m_=_1297.0
# frecuencia_Hz_=_135064.7965135164

Tiempo_(s)	Campo_(V.s)	Magnetizacion_(V.s)	Campo_(kA/m)	Magnetizacion_(A/m)
0.000000e+00	-5.396227e-06	-2.558631e-09	-3.839423e+01	-1.675913e+02
1.000000e-08	-5.396330e-06	-2.561872e-09	-3.839496e+01	-1.674928e+02
2.000000e-08	-5.396193e-06	-2.564496e-09	-3.839399e+01	-1.673967e+02
3.000000e-08	-5.395771e-06	-2.562704e-09	-3.839098e+01	-1.673050e+02
4.000000e-08	-5.395015e-06	-2.557539e-09	-3.838560e+01	-1.672195e+02
5.000000e-08	-5.393693e-06	-2.552929e-09	-3.837620e+01	-1.671420e+02
6.000000e-08	-5.391766e-06	-2.544253e-09	-3.836249e+01	-1.670743e+02
7.000000e-08	-5.389218e-06	-2.522735e-09	-3.834435e+01	-1.670178e+02
8.000000e-08	-5.385967e-06	-2.531357e-09	-3.832122e+01	-1.669739e+02
9.000000e-08	-5.382115e-06	-2.618146e-09	-3.829382e+01	-1.669438e+02
1.000000e-07	-5.377874e-06	-2.666769e-09	-3.826365e+01	-1.669282e+02
1.100000e-07	-5.373479e-06	-2.561184e-09	-3.823237e+01	-1.669280e+02
1.200000e-07	-5.369082e-06	-2.473276e-09	-3.820109e+01	-1.669434e+02
1.300000e-07	-5.364440e-06	-2.553029e-09	-3.816806e+01	-1.669746e+02
1.400000e-07	-5.359225e-06	-2.644180e-09	-3.813095e+01	-1.670212e+02
1.500000e-07	-5.353503e-06	-2.530117e-09	-3.809024e+01	-1.670829e+02
1.600000e-07	-5.347579e-06	-2.425077e-09	-3.804809e+01	-1.671589e+02
1.700000e-07	-5.341406e-06	-2.554965e-09	-3.800418e+01	-1.672481e+02
1.800000e-07	-5.334662e-06	-2.696873e-09	-3.795619e+01	-1.673492e+02
1.900000e-07	-5.327486e-06	-2.614108e-09	-3.790513e+01	-1.674607e+02
2.000000e-07	-5.320163e-06	-2.515255e-09	-3.785303e+01	-1.675809e+02
2.100000e-07	-5.312565e-06	-2.595798e-09	-3.779897e+01	-1.677078e+02
2.200000e-07	-5.304592e-06	-2.646555e-09	-3.774224e+01	-1.678394e+02
2.300000e-07	-5.296415e-06	-2.580484e-09	-3.768406e+01	-1.679735e+02
2.400000e-07	-5.288015e-06	-2.589590e-09	-3.762430e+01	-1.681078e+02
2.500000e-07	-5.278998e-06	-2.684287e-09	-3.756014e+01	-1.682402e+02
2.600000e-07	-5.269251e-06	-2.663861e-09	-3.749079e+01	-1.683682e+02
2.700000e-07	-5.258893e-06	-2.610916e-09	-3.741709e+01	-1.684897e+02
2.800000e-07	-5.248016e-06	-2.669679e-09	-3.733970e+01	-1.686024e+02
2.900000e-07	-5.236732e-06	-2.695022e-09	-3.725942e+01	-1.687044e+02
3.000000e-07	-5.225008e-06	-2.590577e-09	-3.717600e+01	-1.687937e+02
3.100000e-07	-5.212853e-06	-2.585692e-09	-3.708951e+01	-1.688685e+02
3.200000e-07	-5.200275e-06	-2.705639e-09	-3.700003e+01	-1.689274e+02
3.300000e-07	-5.187396e-06	-2.699190e-09	-3.690839e+01	-1.689690e+02
3.400000e-07	-5.174221e-06	-2.596513e-09	-3.681465e+01	-1.689922e+02
3.500000e-07	-5.160644e-06	-2.614565e-09	-3.671805e+01	-1.689962e+02
3.600000e-07	-5.146673e-06	-2.666399e-09	-3.661864e+01	-1.689803e+02
3.700000e-07	-5.132362e-06	-2.627309e-09	-3.651682e+01	-1.689444e+02
3.800000e-07	-5.117549e-06	-2.598631e-09	-3.641143e+01	-1.688883e+02
3.900000e-07	-5.102032e-06	-2.623853e-09	-3.630103e+01	-1.688122e+02
4.000000e-07	-5.085831e-06	-2.618342e-09	-3.618576e+01	-1.687165e+02
4.100000e-07	-5.069317e-06	-2.620115e-09	-3.606825e+01	-1.686019e+02
4.200000e-07	-5.052475e-06	-2.643031e-09	-3.594842e+01	-1.684692e+02
4.300000e-07	-5.035185e-06	-2.605124e-09	-3.582540e+01	-1.683196e+02
4.400000e-07	-5.017693e-06	-2.560022e-09	-3.570095e+01	-1.681541e+02
4.500000e-07	-4.999927e-06	-2.596192e-09	-3.557454e+01	-1.679741e+02
4.600000e-07	-4.981768e-06	-2.622853e-09	-3.544534e+01	-1.677810e+02
4.700000e-07	-4.963329e-06	-2.583229e-09	-3.531415e+01	-1.675763e+02
4.800000e-07	-4.944542e-06	-2.578107e-09	-3.518048e+01	-1.673616e+02
4.900000e-07	-4.925257e-06	-2.611900e-09	-3.504326e+01	-1.671385e+02
5.000000e-07	-4.905656e-06	-2.614150e-09	-3.490381e+01	-1.669083e+02
5.100000e-07	-4.885849e-06	-2.590019e-09	-3.476288e+01	-1.666727e+02
5.200000e-07	-4.865832e-06	-2.567527e-09	-3.462046e+01	-1.664330e+02
5.300000e-07	-4.845648e-06	-2.550717e-09	-3.447685e+01	-1.661905e+02
5.400000e-07	-4.825192e-06	-2.566165e-09	-3.433130e+01	-1.659465e+02
5.500000e-07	-4.804322e-06	-2.580174e-09	-3.418281e+01	-1.657021e+02
5.600000e-07	-4.783075e-06	-2.559153e-09	-3.403164e+01	-1.654581e+02
5.700000e-07	-4.761541e-06	-2.549105e-09	-3.387843e+01	-1.652155e+02
5.800000e-07	-4.739738e-06	-2.575016e-09	-3.372330e+01	-1.649747e+02
5.900000e-07	-4.717599e-06	-2.574612e-09	-3.356578e+01	-1.647363e+02
6.000000e-07	-4.695093e-06	-2.541805e-09	-3.340565e+01	-1.645005e+02
6.100000e-07	-4.672230e-06	-2.519371e-09	-3.324298e+01	-1.642676e+02
6.200000e-07	-4.648978e-06	-2.519129e-09	-3.307754e+01	-1.640375e+02
6.300000e-07	-4.625327e-06	-2.526351e-09	-3.290926e+01	-1.638101e+02
6.400000e-07	-4.601476e-06	-2.529915e-09	-3.273956e+01	-1.635850e+02
6.500000e-07	-4.577524e-06	-2.518782e-09	-3.256914e+01	-1.633620e+02
6.600000e-07	-4.553374e-06	-2.515168e-09	-3.239732e+01	-1.631406e+02
6.700000e-07	-4.528994e-06	-2.529037e-09	-3.222385e+01	-1.629201e+02
6.800000e-07	-4.504248e-06	-2.528840e-09	-3.204778e+01	-1.627000e+02
6.900000e-07	-4.479000e-06	-2.504008e-09	-3.186814e+01	-1.624796e+02
7.000000e-07	-4.453233e-06	-2.489341e-09	-3.168481e+01	-1.622582e+02
7.100000e-07	-4.426904e-06	-2.495296e-09	-3.149748e+01	-1.620352e+02
7.200000e-07	-4.400000e-06	-2.497894e-09	-3.130606e+01	-1.618098e+02
7.300000e-07	-4.372613e-06	-2.485916e-09	-3.111120e+01	-1.615813e+02
7.400000e-07	-4.344942e-06	-2.473896e-09	-3.091432e+01	-1.613491e+02
7.500000e-07	-4.317167e-06	-2.477713e-09	-3.071670e+01	-1.611127e+02
7.600000e-07	-4.289255e-06	-2.485218e-09	-3.051811e+01	-1.608715e+02
7.700000e-07	-4.261123e-06	-2.476246e-09	-3.031795e+01	-1.606251e+02
7.800000e-07	-4.232755e-06	-2.458130e-09	-3.011611e+01	-1.603730e+02
7.900000e-07	-4.204172e-06	-2.454341e-09	-2.991274e+01	-1.601151e+02
8.000000e-07	-4.175222e-06	-2.458056e-09	-2.970676e+01	-1.598509e+02
8.100000e-07	-4.145831e-06	-2.451953e-09	-2.949764e+01	-1.595805e+02
8.200000e-07	-4.116169e-06	-2.437237e-09	-2.928660e+01	-1.593036e+02
8.300000e-07	-4.086277e-06	-2.430160e-09	-2.907392e+01	-1.590204e+02
8.400000e-07	-4.056128e-06	-2.432586e-09	-2.885941e+01	-1.587308e+02
8.500000e-07	-4.025694e-06	-2.433077e-09	-2.864287e+01	-1.584350e+02
8.600000e-07	-3.994980e-06	-2.420825e-09	-2.842434e+01	-1.581331e+02
8.700000e-07	-3.964004e-06	-2.408115e-09	-2.820394e+01	-1.578253e+02
8.800000e-07	-3.932754e-06	-2.403850e-09	-2.798160e+01	-1.575119e+02
8.900000e-07	-3.901175e-06	-2.404561e-09	-2.775691e+01	-1.571930e+02
9.000000e-07	-3.869406e-06	-2.397881e-09	-2.753087e+01	-1.568691e+02
9.100000e-07	-3.837559e-06	-2.385724e-09	-2.730428e+01	-1.565402e+02
9.200000e-07	-3.805582e-06	-2.377450e-09	-2.707677e+01	-1.562068e+02
9.300000e-07	-3.773422e-06	-2.373394e-09	-2.684794e+01	-1.558690e+02
9.400000e-07	-3.741007e-06	-2.363919e-09	-2.661731e+01	-1.555272e+02
9.500000e-07	-3.708288e-06	-2.351115e-09	-2.638452e+01	-1.551814e+02
9.600000e-07	-3.675221e-06	-2.344933e-09	-2.614924e+01	-1.548318e+02
9.700000e-07	-3.641777e-06	-2.346626e-09	-2.591129e+01	-1.544787e+02
9.800000e-07	-3.607864e-06	-2.345709e-09	-2.567000e+01	-1.541220e+02
9.900000e-07	-3.573482e-06	-2.334629e-09	-2.542537e+01	-1.537620e+02
1.000000e-06	-3.538657e-06	-2.322231e-09	-2.517759e+01	-1.533985e+02
1.010000e-06	-3.503436e-06	-2.316042e-09	-2.492699e+01	-1.530317e+02
1.020000e-06	-3.467945e-06	-2.309569e-09	-2.467448e+01	-1.526614e+02
1.030000e-06	-3.432243e-06	-2.298377e-09	-2.442046e+01	-1.522876e+02
1.040000e-06	-3.396441e-06	-2.289813e-09	-2.416572e+01	-1.519101e+02
1.050000e-06	-3.360540e-06	-2.288110e-09	-2.391029e+01	-1.515289e+02
1.060000e-06	-3.324482e-06	-2.287918e-09	-2.365373e+01	-1.511439e+02
1.070000e-06	-3.288256e-06	-2.282354e-09	-2.339599e+01	-1.507547e+02
1.080000e-06	-3.251818e-06	-2.272856e-09	-2.313673e+01	-1.503613e+02
1.090000e-06	-3.215190e-06	-2.263987e-09	-2.287612e+01	-1.499635e+02
1.100000e-06	-3.178360e-06	-2.257682e-09	-2.261407e+01	-1.495610e+02
1.110000e-06	-3.141218e-06	-2.247714e-09	-2.234980e+01	-1.491537e+02
1.120000e-06	-3.103776e-06	-2.234955e-09	-2.208340e+01	-1.487414e+02
1.130000e-06	-3.066117e-06	-2.225837e-09	-2.181547e+01	-1.483238e+02
1.140000e-06	-3.028219e-06	-2.221917e-09	-2.154582e+01	-1.479007e+02
1.150000e-06	-2.990143e-06	-2.215571e-09	-2.127490e+01	-1.474720e+02
1.160000e-06	-2.951977e-06	-2.207348e-09	-2.100335e+01	-1.470375e+02
1.170000e-06	-2.913629e-06	-2.202321e-09	-2.073051e+01	-1.465970e+02
1.180000e-06	-2.875012e-06	-2.199248e-09	-2.045575e+01	-1.461502e+02
1.190000e-06	-2.836188e-06	-2.191696e-09	-2.017952e+01	-1.456970e+02
1.200000e-06	-2.797131e-06	-2.177763e-09	-1.990163e+01	-1.452373e+02
1.210000e-06	-2.757841e-06	-2.163897e-09	-1.962207e+01	-1.447708e+02
1.220000e-06	-2.718370e-06	-2.156292e-09	-1.934124e+01	-1.442973e+02
1.230000e-06	-2.678713e-06	-2.151279e-09	-1.905908e+01	-1.438166e+02
1.240000e-06	-2.638906e-06	-2.143681e-09	-1.877585e+01	-1.433286e+02
1.250000e-06	-2.599001e-06	-2.135602e-09	-1.849193e+01	-1.428329e+02
1.260000e-06	-2.559049e-06	-2.130202e-09	-1.820767e+01	-1.423295e+02
1.270000e-06	-2.519024e-06	-2.124507e-09	-1.792289e+01	-1.418180e+02
1.280000e-06	-2.478875e-06	-2.114474e-09	-1.763723e+01	-1.412982e+02
1.290000e-06	-2.438623e-06	-2.102409e-09	-1.735083e+01	-1.407698e+02
1.300000e-06	-2.398196e-06	-2.092093e-09	-1.706320e+01	-1.402326e+02
1.310000e-06	-2.357511e-06	-2.083364e-09	-1.677372e+01	-1.396863e+02
1.320000e-06	-2.316685e-06	-2.072959e-09	-1.648325e+01	-1.391306e+02
1.330000e-06	-2.275713e-06	-2.062299e-09	-1.619173e+01	-1.385652e+02
1.340000e-06	-2.234475e-06	-2.054871e-09	-1.589832e+01	-1.379898e+02
1.350000e-06	-2.192898e-06	-2.047587e-09	-1.560250e+01	-1.374041e+02
1.360000e-06	-2.151073e-06	-2.037060e-09	-1.530491e+01	-1.368078e+02
1.370000e-06	-2.109057e-06	-2.024169e-09	-1.500597e+01	-1.362007e+02
1.380000e-06	-2.066760e-06	-2.011869e-09	-1.470503e+01	-1.355824e+02
1.390000e-06	-2.024224e-06	-2.002003e-09	-1.440238e+01	-1.349527e+02
1.400000e-06	-1.981453e-06	-1.991461e-09	-1.409806e+01	-1.343113e+02
1.410000e-06	-1.938508e-06	-1.980110e-09	-1.379251e+01	-1.336581e+02
1.420000e-06	-1.895350e-06	-1.967899e-09	-1.348544e+01	-1.329926e+02
1.430000e-06	-1.851874e-06	-1.954552e-09	-1.317611e+01	-1.323148e+02
1.440000e-06	-1.808221e-06	-1.939959e-09	-1.286551e+01	-1.316245e+02
1.450000e-06	-1.764499e-06	-1.926501e-09	-1.255443e+01	-1.309215e+02
1.460000e-06	-1.720704e-06	-1.917029e-09	-1.224283e+01	-1.302056e+02
1.470000e-06	-1.676825e-06	-1.908078e-09	-1.193063e+01	-1.294766e+02
1.480000e-06	-1.632855e-06	-1.895900e-09	-1.161779e+01	-1.287345e+02
1.490000e-06	-1.588811e-06	-1.883096e-09	-1.130441e+01	-1.279790e+02
1.500000e-06	-1.544718e-06	-1.871178e-09	-1.099069e+01	-1.272100e+02
1.510000e-06	-1.500523e-06	-1.859365e-09	-1.067624e+01	-1.264273e+02
1.520000e-06	-1.456249e-06	-1.844831e-09	-1.036123e+01	-1.256307e+02
1.530000e-06	-1.411982e-06	-1.828655e-09	-1.004627e+01	-1.248201e+02
1.540000e-06	-1.367698e-06	-1.815692e-09	-9.731192e+00	-1.239951e+02
1.550000e-06	-1.323369e-06	-1.802581e-09	-9.415786e+00	-1.231555e+02
1.560000e-06	-1.278939e-06	-1.787994e-09	-9.099669e+00	-1.223009e+02
1.570000e-06	-1.234462e-06	-1.773895e-09	-8.783215e+00	-1.214309e+02
1.580000e-06	-1.189941e-06	-1.761934e-09	-8.466446e+00	-1.205451e+02
1.590000e-06	-1.145306e-06	-1.752191e-09	-8.148870e+00	-1.196428e+02
1.600000e-06	-1.100617e-06	-1.738462e-09	-7.830905e+00	-1.187235e+02
1.610000e-06	-1.055802e-06	-1.720775e-09	-7.512043e+00	-1.177864e+02
1.620000e-06	-1.010879e-06	-1.704096e-09	-7.192417e+00	-1.168308e+02
1.630000e-06	-9.659545e-07	-1.688666e-09	-6.872779e+00	-1.158558e+02
1.640000e-06	-9.209431e-07	-1.671206e-09	-6.552522e+00	-1.148604e+02
1.650000e-06	-8.757753e-07	-1.652496e-09	-6.231153e+00	-1.138436e+02
1.660000e-06	-8.305283e-07	-1.637289e-09	-5.909220e+00	-1.128043e+02
1.670000e-06	-7.852225e-07	-1.626643e-09	-5.586868e+00	-1.117413e+02
1.680000e-06	-7.397944e-07	-1.612269e-09	-5.263647e+00	-1.106533e+02
1.690000e-06	-6.943407e-07	-1.590993e-09	-4.940243e+00	-1.095390e+02
1.700000e-06	-6.489133e-07	-1.569563e-09	-4.617027e+00	-1.083969e+02
1.710000e-06	-6.034250e-07	-1.551874e-09	-4.293377e+00	-1.072258e+02
1.720000e-06	-5.578737e-07	-1.533793e-09	-3.969279e+00	-1.060241e+02
1.730000e-06	-5.122630e-07	-1.512781e-09	-3.644758e+00	-1.047904e+02
1.740000e-06	-4.665854e-07	-1.492096e-09	-3.319761e+00	-1.035231e+02
1.750000e-06	-4.208908e-07	-1.477105e-09	-2.994644e+00	-1.022209e+02
1.760000e-06	-3.751688e-07	-1.465959e-09	-2.669331e+00	-1.008823e+02
1.770000e-06	-3.294254e-07	-1.448440e-09	-2.343866e+00	-9.950584e+01
1.780000e-06	-2.836651e-07	-1.421222e-09	-2.018281e+00	-9.809018e+01
1.790000e-06	-2.378913e-07	-1.394116e-09	-1.692600e+00	-9.663398e+01
1.800000e-06	-1.921209e-07	-1.371653e-09	-1.366943e+00	-9.513599e+01
1.810000e-06	-1.463010e-07	-1.347865e-09	-1.040933e+00	-9.359504e+01
1.820000e-06	-1.004340e-07	-1.322103e-09	-7.145893e-01	-9.201000e+01
1.830000e-06	-5.460642e-08	-1.298461e-09	-3.885254e-01	-9.037985e+01
1.840000e-06	-8.826949e-09	-1.279153e-09	-6.280386e-02	-8.870367e+01
1.850000e-06	3.695803e-08	-1.258843e-09	2.629569e-01	-8.698059e+01
1.860000e-06	8.274055e-08	-1.232712e-09	5.887001e-01	-8.520988e+01
1.870000e-06	1.285224e-07	-1.203568e-09	9.144384e-01	-8.339086e+01
1.880000e-06	1.743109e-07	-1.175341e-09	1.240224e+00	-8.152295e+01
1.890000e-06	2.201130e-07	-1.146364e-09	1.566107e+00	-7.960567e+01
1.900000e-06	2.659143e-07	-1.113654e-09	1.891984e+00	-7.763860e+01
1.910000e-06	3.117309e-07	-1.080394e-09	2.217969e+00	-7.562139e+01
1.920000e-06	3.574824e-07	-1.051345e-09	2.543492e+00	-7.355378e+01
1.930000e-06	4.031830e-07	-1.023449e-09	2.868652e+00	-7.143555e+01
1.940000e-06	4.489635e-07	-9.936684e-10	3.194381e+00	-6.926655e+01
1.950000e-06	4.946351e-07	-9.614933e-10	3.519335e+00	-6.704667e+01
1.960000e-06	5.401292e-07	-9.288363e-10	3.843027e+00	-6.477584e+01
1.970000e-06	5.855938e-07	-8.955783e-10	4.166508e+00	-6.245403e+01
1.980000e-06	6.310920e-07	-8.597223e-10	4.490227e+00	-6.008126e+01
1.990000e-06	6.765283e-07	-8.228073e-10	4.813508e+00	-5.765756e+01
2.000000e-06	7.218202e-07	-7.869030e-10	5.135760e+00	-5.518301e+01
2.010000e-06	7.670766e-07	-7.516325e-10	5.457760e+00	-5.265771e+01
2.020000e-06	8.123653e-07	-7.159008e-10	5.779989e+00	-5.008182e+01
2.030000e-06	8.576318e-07	-6.780270e-10	6.102061e+00	-4.745551e+01
2.040000e-06	9.028441e-07	-6.392151e-10	6.423747e+00	-4.477903e+01
2.050000e-06	9.480199e-07	-6.001744e-10	6.745174e+00	-4.205268e+01
2.060000e-06	9.930126e-07	-5.588168e-10	7.065297e+00	-3.927682e+01
2.070000e-06	1.037802e-06	-5.163710e-10	7.383975e+00	-3.645192e+01
2.080000e-06	1.082508e-06	-4.757302e-10	7.702059e+00	-3.357852e+01
2.090000e-06	1.127223e-06	-4.360730e-10	8.020206e+00	-3.065730e+01
2.100000e-06	1.171886e-06	-3.940441e-10	8.337982e+00	-2.768906e+01
2.110000e-06	1.216415e-06	-3.486696e-10	8.654805e+00	-2.467473e+01
2.120000e-06	1.260856e-06	-3.036290e-10	8.971009e+00	-2.161545e+01
2.130000e-06	1.305231e-06	-2.598816e-10	9.286737e+00	-1.851250e+01
2.140000e-06	1.349529e-06	-2.132238e-10	9.601919e+00	-1.536737e+01
2.150000e-06	1.393714e-06	-1.627520e-10	9.916296e+00	-1.218177e+01
2.160000e-06	1.437848e-06	-1.130497e-10	1.023031e+01	-8.957632e+00
2.170000e-06	1.481986e-06	-6.665123e-11	1.054435e+01	-5.697116e+00
2.180000e-06	1.526081e-06	-1.908833e-11	1.085809e+01	-2.402628e+00
2.190000e-06	1.570125e-06	3.040768e-11	1.117146e+01	9.231772e-01
2.200000e-06	1.614150e-06	8.037414e-11	1.148470e+01	4.277399e+00
2.210000e-06	1.658126e-06	1.304421e-10	1.179759e+01	7.656890e+00
2.220000e-06	1.702030e-06	1.821395e-10	1.210997e+01	1.105826e+01
2.230000e-06	1.745832e-06	2.360123e-10	1.242162e+01	1.447789e+01
2.240000e-06	1.789522e-06	2.892494e-10	1.273247e+01	1.791195e+01
2.250000e-06	1.833073e-06	3.385407e-10	1.304234e+01	2.135640e+01
2.260000e-06	1.876524e-06	3.855970e-10	1.335150e+01	2.480703e+01
2.270000e-06	1.919775e-06	4.353422e-10	1.365922e+01	2.825948e+01
2.280000e-06	1.962786e-06	4.877306e-10	1.396525e+01	3.170925e+01
2.290000e-06	2.005684e-06	5.381719e-10	1.427047e+01	3.515177e+01
2.300000e-06	2.048438e-06	5.872954e-10	1.457467e+01	3.858239e+01
2.310000e-06	2.090901e-06	6.371661e-10	1.487679e+01	4.199645e+01
2.320000e-06	2.132972e-06	6.877145e-10	1.517612e+01	4.538929e+01
2.330000e-06	2.174658e-06	7.380249e-10	1.547272e+01	4.875631e+01
2.340000e-06	2.216120e-06	7.862888e-10	1.576773e+01	5.209300e+01
2.350000e-06	2.257442e-06	8.335609e-10	1.606173e+01	5.539497e+01
2.360000e-06	2.298459e-06	8.819884e-10	1.635357e+01	5.865798e+01
2.370000e-06	2.339133e-06	9.301082e-10	1.664296e+01	6.187802e+01
2.380000e-06	2.379616e-06	9.756600e-10	1.693100e+01	6.505128e+01
2.390000e-06	2.420018e-06	1.019840e-09	1.721846e+01	6.817422e+01
2.400000e-06	2.460278e-06	1.062298e-09	1.750491e+01	7.124358e+01
2.410000e-06	2.500428e-06	1.103665e-09	1.779058e+01	7.425642e+01
2.420000e-06	2.540508e-06	1.143342e-09	1.807575e+01	7.721012e+01
2.430000e-06	2.580491e-06	1.183100e-09	1.836023e+01	8.010240e+01
2.440000e-06	2.620388e-06	1.223612e-09	1.864410e+01	8.293132e+01
2.450000e-06	2.660187e-06	1.263512e-09	1.892726e+01	8.569530e+01
2.460000e-06	2.699860e-06	1.300903e-09	1.920954e+01	8.839313e+01
2.470000e-06	2.739341e-06	1.337453e-09	1.949045e+01	9.102392e+01
2.480000e-06	2.778525e-06	1.373970e-09	1.976924e+01	9.358714e+01
2.490000e-06	2.817406e-06	1.409834e-09	2.004588e+01	9.608257e+01
2.500000e-06	2.856074e-06	1.444363e-09	2.032100e+01	9.851030e+01
2.510000e-06	2.894616e-06	1.479018e-09	2.059523e+01	1.008707e+02
2.520000e-06	2.932953e-06	1.513821e-09	2.086800e+01	1.031644e+02
2.530000e-06	2.971090e-06	1.544945e-09	2.113934e+01	1.053923e+02
2.540000e-06	3.009105e-06	1.573639e-09	2.140982e+01	1.075555e+02
2.550000e-06	3.046999e-06	1.602891e-09	2.167944e+01	1.096552e+02
2.560000e-06	3.084729e-06	1.632572e-09	2.194789e+01	1.116927e+02
2.570000e-06	3.122224e-06	1.659787e-09	2.221466e+01	1.136696e+02
2.580000e-06	3.159412e-06	1.685223e-09	2.247926e+01	1.155875e+02
2.590000e-06	3.196326e-06	1.712138e-09	2.274190e+01	1.174479e+02
2.600000e-06	3.233029e-06	1.741052e-09	2.300304e+01	1.192526e+02
2.610000e-06	3.269499e-06	1.769091e-09	2.326253e+01	1.210031e+02
2.620000e-06	3.305793e-06	1.793000e-09	2.352076e+01	1.227011e+02
2.630000e-06	3.341935e-06	1.814316e-09	2.377791e+01	1.243480e+02
2.640000e-06	3.377983e-06	1.836978e-09	2.403440e+01	1.259455e+02
2.650000e-06	3.413930e-06	1.859022e-09	2.429016e+01	1.274950e+02
2.660000e-06	3.449728e-06	1.879027e-09	2.454486e+01	1.289976e+02
2.670000e-06	3.485311e-06	1.899308e-09	2.479803e+01	1.304548e+02
2.680000e-06	3.520622e-06	1.920227e-09	2.504927e+01	1.318675e+02
2.690000e-06	3.555604e-06	1.939355e-09	2.529817e+01	1.332369e+02
2.700000e-06	3.590135e-06	1.956446e-09	2.554386e+01	1.345638e+02
2.710000e-06	3.624193e-06	1.974170e-09	2.578618e+01	1.358492e+02
2.720000e-06	3.657832e-06	1.994079e-09	2.602552e+01	1.370937e+02
2.730000e-06	3.691068e-06	2.013681e-09	2.626200e+01	1.382981e+02
2.740000e-06	3.723940e-06	2.031477e-09	2.649588e+01	1.394631e+02
2.750000e-06	3.756477e-06	2.048674e-09	2.672739e+01	1.405892e+02
2.760000e-06	3.788747e-06	2.065073e-09	2.695699e+01	1.416770e+02
2.770000e-06	3.820869e-06	2.079247e-09	2.718553e+01	1.427272e+02
2.780000e-06	3.852875e-06	2.093520e-09	2.741325e+01	1.437402e+02
2.790000e-06	3.884752e-06	2.108192e-09	2.764006e+01	1.447168e+02
2.800000e-06	3.916462e-06	2.122063e-09	2.786568e+01	1.456575e+02
2.810000e-06	3.947922e-06	2.136262e-09	2.808952e+01	1.465631e+02
2.820000e-06	3.978968e-06	2.149629e-09	2.831041e+01	1.474344e+02
2.830000e-06	4.009714e-06	2.161538e-09	2.852917e+01	1.482720e+02
2.840000e-06	4.040202e-06	2.173030e-09	2.874609e+01	1.490770e+02
2.850000e-06	4.070350e-06	2.184469e-09	2.896060e+01	1.498502e+02
2.860000e-06	4.100277e-06	2.196287e-09	2.917353e+01	1.505927e+02
2.870000e-06	4.129997e-06	2.210426e-09	2.938498e+01	1.513056e+02
2.880000e-06	4.159455e-06	2.223199e-09	2.959458e+01	1.519900e+02
2.890000e-06	4.188562e-06	2.229771e-09	2.980167e+01	1.526472e+02
2.900000e-06	4.217274e-06	2.232254e-09	3.000596e+01	1.532783e+02
