# Temperatura_=_15.5
# Concentracion g/m^3_=_4090.0
# C_Vs_to_Am_M_A/Vsm_=_65563218390.804596
# pendiente_HvsI_1/m_=_3716.3
# ordenada_HvsI_A/m_=_1297.0
# frecuencia_Hz_=_135079.2141353681

Tiempo_(s)	Campo_(V.s)	Magnetizacion_(V.s)	Campo_(kA/m)	Magnetizacion_(A/m)
0.000000e+00	-5.383767e-06	-2.415774e-09	-3.839639e+01	-1.555653e+02
1.000000e-08	-5.383783e-06	-2.412730e-09	-3.839650e+01	-1.554810e+02
2.000000e-08	-5.383581e-06	-2.413585e-09	-3.839506e+01	-1.553966e+02
3.000000e-08	-5.383098e-06	-2.414600e-09	-3.839161e+01	-1.553132e+02
4.000000e-08	-5.382262e-06	-2.413473e-09	-3.838565e+01	-1.552317e+02
5.000000e-08	-5.380875e-06	-2.410377e-09	-3.837576e+01	-1.551531e+02
6.000000e-08	-5.378775e-06	-2.403271e-09	-3.836079e+01	-1.550783e+02
7.000000e-08	-5.375978e-06	-2.391655e-09	-3.834084e+01	-1.550080e+02
8.000000e-08	-5.372578e-06	-2.386895e-09	-3.831659e+01	-1.549430e+02
9.000000e-08	-5.368682e-06	-2.441851e-09	-3.828880e+01	-1.548838e+02
1.000000e-07	-5.364450e-06	-2.500552e-09	-3.825862e+01	-1.548308e+02
1.100000e-07	-5.360148e-06	-2.436422e-09	-3.822794e+01	-1.547845e+02
1.200000e-07	-5.355748e-06	-2.319293e-09	-3.819656e+01	-1.547449e+02
1.300000e-07	-5.350965e-06	-2.382824e-09	-3.816245e+01	-1.547121e+02
1.400000e-07	-5.345643e-06	-2.477348e-09	-3.812449e+01	-1.546859e+02
1.500000e-07	-5.339985e-06	-2.415670e-09	-3.808414e+01	-1.546661e+02
1.600000e-07	-5.334063e-06	-2.254724e-09	-3.804190e+01	-1.546521e+02
1.700000e-07	-5.327692e-06	-2.356721e-09	-3.799646e+01	-1.546435e+02
1.800000e-07	-5.320804e-06	-2.516750e-09	-3.794734e+01	-1.546395e+02
1.900000e-07	-5.313544e-06	-2.450517e-09	-3.789556e+01	-1.546392e+02
2.000000e-07	-5.306059e-06	-2.311622e-09	-3.784218e+01	-1.546417e+02
2.100000e-07	-5.298369e-06	-2.361153e-09	-3.778734e+01	-1.546459e+02
2.200000e-07	-5.290500e-06	-2.439326e-09	-3.773122e+01	-1.546508e+02
2.300000e-07	-5.282358e-06	-2.344268e-09	-3.767315e+01	-1.546551e+02
2.400000e-07	-5.273812e-06	-2.317861e-09	-3.761220e+01	-1.546576e+02
2.500000e-07	-5.264596e-06	-2.409632e-09	-3.754647e+01	-1.546571e+02
2.600000e-07	-5.254573e-06	-2.431647e-09	-3.747499e+01	-1.546523e+02
2.700000e-07	-5.244020e-06	-2.329459e-09	-3.739973e+01	-1.546421e+02
2.800000e-07	-5.233005e-06	-2.362594e-09	-3.732117e+01	-1.546254e+02
2.900000e-07	-5.221511e-06	-2.421190e-09	-3.723920e+01	-1.546009e+02
3.000000e-07	-5.209682e-06	-2.343943e-09	-3.715483e+01	-1.545679e+02
3.100000e-07	-5.197458e-06	-2.273732e-09	-3.706765e+01	-1.545252e+02
3.200000e-07	-5.184859e-06	-2.400517e-09	-3.697780e+01	-1.544723e+02
3.300000e-07	-5.171943e-06	-2.431399e-09	-3.688569e+01	-1.544084e+02
3.400000e-07	-5.158690e-06	-2.329445e-09	-3.679116e+01	-1.543330e+02
3.500000e-07	-5.145020e-06	-2.324030e-09	-3.669367e+01	-1.542457e+02
3.600000e-07	-5.130982e-06	-2.412321e-09	-3.659356e+01	-1.541464e+02
3.700000e-07	-5.116533e-06	-2.358341e-09	-3.649050e+01	-1.540350e+02
3.800000e-07	-5.101569e-06	-2.304538e-09	-3.638379e+01	-1.539116e+02
3.900000e-07	-5.085845e-06	-2.346626e-09	-3.627164e+01	-1.537762e+02
4.000000e-07	-5.069426e-06	-2.352720e-09	-3.615455e+01	-1.536295e+02
4.100000e-07	-5.052714e-06	-2.315941e-09	-3.603535e+01	-1.534717e+02
4.200000e-07	-5.035853e-06	-2.352536e-09	-3.591511e+01	-1.533035e+02
4.300000e-07	-5.018735e-06	-2.360426e-09	-3.579302e+01	-1.531255e+02
4.400000e-07	-5.001289e-06	-2.300452e-09	-3.566860e+01	-1.529386e+02
4.500000e-07	-4.983584e-06	-2.315851e-09	-3.554233e+01	-1.527435e+02
4.600000e-07	-4.965492e-06	-2.357085e-09	-3.541330e+01	-1.525412e+02
4.700000e-07	-4.946996e-06	-2.321000e-09	-3.528138e+01	-1.523325e+02
4.800000e-07	-4.928089e-06	-2.289022e-09	-3.514654e+01	-1.521184e+02
4.900000e-07	-4.908762e-06	-2.324521e-09	-3.500871e+01	-1.518997e+02
5.000000e-07	-4.889071e-06	-2.322062e-09	-3.486828e+01	-1.516773e+02
5.100000e-07	-4.869137e-06	-2.302652e-09	-3.472611e+01	-1.514522e+02
5.200000e-07	-4.849048e-06	-2.300544e-09	-3.458284e+01	-1.512250e+02
5.300000e-07	-4.828748e-06	-2.304154e-09	-3.443806e+01	-1.509965e+02
5.400000e-07	-4.808163e-06	-2.303850e-09	-3.429125e+01	-1.507673e+02
5.500000e-07	-4.787178e-06	-2.325775e-09	-3.414159e+01	-1.505379e+02
5.600000e-07	-4.765803e-06	-2.306636e-09	-3.398914e+01	-1.503089e+02
5.700000e-07	-4.744184e-06	-2.281279e-09	-3.383496e+01	-1.500805e+02
5.800000e-07	-4.722264e-06	-2.286206e-09	-3.367862e+01	-1.498530e+02
5.900000e-07	-4.699971e-06	-2.295559e-09	-3.351964e+01	-1.496265e+02
6.000000e-07	-4.677402e-06	-2.273299e-09	-3.335867e+01	-1.494011e+02
6.100000e-07	-4.654499e-06	-2.268769e-09	-3.319533e+01	-1.491766e+02
6.200000e-07	-4.631159e-06	-2.270744e-09	-3.302888e+01	-1.489530e+02
6.300000e-07	-4.607475e-06	-2.279019e-09	-3.285996e+01	-1.487301e+02
6.400000e-07	-4.583562e-06	-2.281091e-09	-3.268942e+01	-1.485073e+02
6.500000e-07	-4.559506e-06	-2.266601e-09	-3.251786e+01	-1.482845e+02
6.600000e-07	-4.535310e-06	-2.244246e-09	-3.234529e+01	-1.480612e+02
6.700000e-07	-4.510794e-06	-2.251350e-09	-3.217044e+01	-1.478369e+02
6.800000e-07	-4.485846e-06	-2.256640e-09	-3.199252e+01	-1.476111e+02
6.900000e-07	-4.460449e-06	-2.243051e-09	-3.181140e+01	-1.473833e+02
7.000000e-07	-4.434543e-06	-2.234212e-09	-3.162663e+01	-1.471531e+02
7.100000e-07	-4.408085e-06	-2.240513e-09	-3.143794e+01	-1.469198e+02
7.200000e-07	-4.381088e-06	-2.242132e-09	-3.124540e+01	-1.466831e+02
7.300000e-07	-4.353715e-06	-2.233291e-09	-3.105018e+01	-1.464424e+02
7.400000e-07	-4.326102e-06	-2.220145e-09	-3.085325e+01	-1.461975e+02
7.500000e-07	-4.298291e-06	-2.213552e-09	-3.065490e+01	-1.459480e+02
7.600000e-07	-4.270319e-06	-2.219226e-09	-3.045541e+01	-1.456935e+02
7.700000e-07	-4.242211e-06	-2.214694e-09	-3.025494e+01	-1.454338e+02
7.800000e-07	-4.213877e-06	-2.201417e-09	-3.005287e+01	-1.451688e+02
7.900000e-07	-4.185203e-06	-2.193498e-09	-2.984837e+01	-1.448984e+02
8.000000e-07	-4.156142e-06	-2.197627e-09	-2.964111e+01	-1.446225e+02
8.100000e-07	-4.126730e-06	-2.194483e-09	-2.943135e+01	-1.443412e+02
8.200000e-07	-4.097064e-06	-2.188761e-09	-2.921978e+01	-1.440546e+02
8.300000e-07	-4.067169e-06	-2.179497e-09	-2.900657e+01	-1.437627e+02
8.400000e-07	-4.037004e-06	-2.177847e-09	-2.879143e+01	-1.434657e+02
8.500000e-07	-4.006540e-06	-2.176002e-09	-2.857416e+01	-1.431640e+02
8.600000e-07	-3.975690e-06	-2.166928e-09	-2.835415e+01	-1.428576e+02
8.700000e-07	-3.944572e-06	-2.149520e-09	-2.813222e+01	-1.425470e+02
8.800000e-07	-3.913329e-06	-2.143686e-09	-2.790940e+01	-1.422323e+02
8.900000e-07	-3.881916e-06	-2.149440e-09	-2.768536e+01	-1.419139e+02
9.000000e-07	-3.850296e-06	-2.152808e-09	-2.745985e+01	-1.415921e+02
9.100000e-07	-3.818377e-06	-2.139733e-09	-2.723221e+01	-1.412671e+02
9.200000e-07	-3.786281e-06	-2.128836e-09	-2.700330e+01	-1.409391e+02
9.300000e-07	-3.754095e-06	-2.122350e-09	-2.677376e+01	-1.406085e+02
9.400000e-07	-3.721755e-06	-2.118800e-09	-2.654312e+01	-1.402754e+02
9.500000e-07	-3.689105e-06	-2.107549e-09	-2.631026e+01	-1.399399e+02
9.600000e-07	-3.655962e-06	-2.100808e-09	-2.607389e+01	-1.396022e+02
9.700000e-07	-3.622435e-06	-2.100992e-09	-2.583478e+01	-1.392623e+02
9.800000e-07	-3.588514e-06	-2.100008e-09	-2.559285e+01	-1.389202e+02
9.900000e-07	-3.554064e-06	-2.088675e-09	-2.534716e+01	-1.385759e+02
1.000000e-06	-3.519226e-06	-2.075550e-09	-2.509870e+01	-1.382293e+02
1.010000e-06	-3.484136e-06	-2.069044e-09	-2.484845e+01	-1.378802e+02
1.020000e-06	-3.448697e-06	-2.062972e-09	-2.459570e+01	-1.375286e+02
1.030000e-06	-3.412995e-06	-2.053869e-09	-2.434107e+01	-1.371741e+02
1.040000e-06	-3.377138e-06	-2.047820e-09	-2.408535e+01	-1.368165e+02
1.050000e-06	-3.341163e-06	-2.046415e-09	-2.382878e+01	-1.364555e+02
1.060000e-06	-3.305096e-06	-2.046329e-09	-2.357156e+01	-1.360908e+02
1.070000e-06	-3.268855e-06	-2.040588e-09	-2.331309e+01	-1.357220e+02
1.080000e-06	-3.232459e-06	-2.026345e-09	-2.305351e+01	-1.353488e+02
1.090000e-06	-3.195900e-06	-2.014515e-09	-2.279278e+01	-1.349708e+02
1.100000e-06	-3.159066e-06	-2.008808e-09	-2.253008e+01	-1.345876e+02
1.110000e-06	-3.121949e-06	-2.005035e-09	-2.226537e+01	-1.341988e+02
1.120000e-06	-3.084517e-06	-1.996117e-09	-2.199841e+01	-1.338041e+02
1.130000e-06	-3.046819e-06	-1.989905e-09	-2.172955e+01	-1.334030e+02
1.140000e-06	-3.009018e-06	-1.988525e-09	-2.145996e+01	-1.329953e+02
1.150000e-06	-2.971093e-06	-1.984389e-09	-2.118948e+01	-1.325805e+02
1.160000e-06	-2.932961e-06	-1.969157e-09	-2.091753e+01	-1.321584e+02
1.170000e-06	-2.894581e-06	-1.955520e-09	-2.064381e+01	-1.317286e+02
1.180000e-06	-2.855967e-06	-1.946844e-09	-2.036842e+01	-1.312908e+02
1.190000e-06	-2.817119e-06	-1.943623e-09	-2.009136e+01	-1.308447e+02
1.200000e-06	-2.777980e-06	-1.935439e-09	-1.981223e+01	-1.303901e+02
1.210000e-06	-2.738660e-06	-1.925452e-09	-1.953180e+01	-1.299268e+02
1.220000e-06	-2.699208e-06	-1.919079e-09	-1.925043e+01	-1.294545e+02
1.230000e-06	-2.659564e-06	-1.916811e-09	-1.896769e+01	-1.289729e+02
1.240000e-06	-2.619754e-06	-1.907667e-09	-1.868378e+01	-1.284820e+02
1.250000e-06	-2.579857e-06	-1.895896e-09	-1.839924e+01	-1.279815e+02
1.260000e-06	-2.539880e-06	-1.886911e-09	-1.811412e+01	-1.274713e+02
1.270000e-06	-2.499826e-06	-1.880730e-09	-1.782846e+01	-1.269511e+02
1.280000e-06	-2.459665e-06	-1.872578e-09	-1.754204e+01	-1.264208e+02
1.290000e-06	-2.419382e-06	-1.861652e-09	-1.725475e+01	-1.258802e+02
1.300000e-06	-2.379054e-06	-1.851645e-09	-1.696713e+01	-1.253292e+02
1.310000e-06	-2.338569e-06	-1.844532e-09	-1.667840e+01	-1.247675e+02
1.320000e-06	-2.297851e-06	-1.836697e-09	-1.638800e+01	-1.241951e+02
1.330000e-06	-2.256886e-06	-1.824620e-09	-1.609584e+01	-1.236117e+02
1.340000e-06	-2.215662e-06	-1.814189e-09	-1.580184e+01	-1.230172e+02
1.350000e-06	-2.174151e-06	-1.806026e-09	-1.550578e+01	-1.224113e+02
1.360000e-06	-2.132356e-06	-1.796974e-09	-1.520771e+01	-1.217940e+02
1.370000e-06	-2.090356e-06	-1.784252e-09	-1.490817e+01	-1.211650e+02
1.380000e-06	-2.048150e-06	-1.770744e-09	-1.460716e+01	-1.205241e+02
1.390000e-06	-2.005661e-06	-1.760976e-09	-1.430414e+01	-1.198711e+02
1.400000e-06	-1.962891e-06	-1.753639e-09	-1.399910e+01	-1.192059e+02
1.410000e-06	-1.919857e-06	-1.741859e-09	-1.369219e+01	-1.185283e+02
1.420000e-06	-1.876595e-06	-1.727189e-09	-1.338365e+01	-1.178380e+02
1.430000e-06	-1.833163e-06	-1.711732e-09	-1.307390e+01	-1.171349e+02
1.440000e-06	-1.789562e-06	-1.697910e-09	-1.276294e+01	-1.164188e+02
1.450000e-06	-1.745919e-06	-1.687343e-09	-1.245169e+01	-1.156895e+02
1.460000e-06	-1.702172e-06	-1.678554e-09	-1.213969e+01	-1.149468e+02
1.470000e-06	-1.658276e-06	-1.668019e-09	-1.182662e+01	-1.141905e+02
1.480000e-06	-1.614381e-06	-1.658151e-09	-1.151357e+01	-1.134203e+02
1.490000e-06	-1.570450e-06	-1.647665e-09	-1.120026e+01	-1.126361e+02
1.500000e-06	-1.526420e-06	-1.631140e-09	-1.088625e+01	-1.118375e+02
1.510000e-06	-1.482351e-06	-1.609785e-09	-1.057195e+01	-1.110244e+02
1.520000e-06	-1.438264e-06	-1.590438e-09	-1.025753e+01	-1.101963e+02
1.530000e-06	-1.394087e-06	-1.577083e-09	-9.942461e+00	-1.093530e+02
1.540000e-06	-1.349818e-06	-1.568259e-09	-9.626739e+00	-1.084941e+02
1.550000e-06	-1.305477e-06	-1.557770e-09	-9.310504e+00	-1.076192e+02
1.560000e-06	-1.261095e-06	-1.547213e-09	-8.993981e+00	-1.067276e+02
1.570000e-06	-1.216698e-06	-1.536112e-09	-8.677342e+00	-1.058190e+02
1.580000e-06	-1.172214e-06	-1.521549e-09	-8.360091e+00	-1.048927e+02
1.590000e-06	-1.127669e-06	-1.503190e-09	-8.042403e+00	-1.039480e+02
1.600000e-06	-1.082987e-06	-1.483553e-09	-7.723738e+00	-1.029841e+02
1.610000e-06	-1.038212e-06	-1.462063e-09	-7.404407e+00	-1.020001e+02
1.620000e-06	-9.933779e-07	-1.442052e-09	-7.084653e+00	-1.009952e+02
1.630000e-06	-9.484854e-07	-1.424805e-09	-6.764485e+00	-9.996827e+01
1.640000e-06	-9.035133e-07	-1.409723e-09	-6.443749e+00	-9.891819e+01
1.650000e-06	-8.583660e-07	-1.398247e-09	-6.121765e+00	-9.784375e+01
1.660000e-06	-8.132338e-07	-1.388183e-09	-5.799887e+00	-9.674367e+01
1.670000e-06	-7.681533e-07	-1.375693e-09	-5.478378e+00	-9.561655e+01
1.680000e-06	-7.229581e-07	-1.354915e-09	-5.156051e+00	-9.446095e+01
1.690000e-06	-6.776084e-07	-1.326495e-09	-4.832623e+00	-9.327533e+01
1.700000e-06	-6.322151e-07	-1.298495e-09	-4.508883e+00	-9.205811e+01
1.710000e-06	-5.867765e-07	-1.274952e-09	-4.184820e+00	-9.080765e+01
1.720000e-06	-5.412882e-07	-1.254671e-09	-3.860403e+00	-8.952229e+01
1.730000e-06	-4.958072e-07	-1.236681e-09	-3.536038e+00	-8.820033e+01
1.740000e-06	-4.502885e-07	-1.221470e-09	-3.211404e+00	-8.684008e+01
1.750000e-06	-4.047093e-07	-1.209567e-09	-2.886339e+00	-8.543983e+01
1.760000e-06	-3.590817e-07	-1.194245e-09	-2.560928e+00	-8.399794e+01
1.770000e-06	-3.133941e-07	-1.169338e-09	-2.235090e+00	-8.251276e+01
1.780000e-06	-2.676802e-07	-1.137922e-09	-1.909064e+00	-8.098274e+01
1.790000e-06	-2.219837e-07	-1.107211e-09	-1.583161e+00	-7.940640e+01
1.800000e-06	-1.763057e-07	-1.078339e-09	-1.257391e+00	-7.778234e+01
1.810000e-06	-1.306101e-07	-1.052005e-09	-9.314954e-01	-7.610929e+01
1.820000e-06	-8.490287e-08	-1.026831e-09	-6.055171e-01	-7.438610e+01
1.830000e-06	-3.917352e-08	-1.003578e-09	-2.793809e-01	-7.261176e+01
1.840000e-06	6.615821e-09	-9.810028e-10	4.718325e-02	-7.078541e+01
1.850000e-06	5.237618e-08	-9.580773e-10	3.735407e-01	-6.890637e+01
1.860000e-06	9.804805e-08	-9.307440e-10	6.992670e-01	-6.697413e+01
1.870000e-06	1.437220e-07	-8.986280e-10	1.025008e+00	-6.498836e+01
1.880000e-06	1.894003e-07	-8.650573e-10	1.350780e+00	-6.294893e+01
1.890000e-06	2.349850e-07	-8.312877e-10	1.675885e+00	-6.085590e+01
1.900000e-06	2.805879e-07	-7.952833e-10	2.001120e+00	-5.870952e+01
1.910000e-06	3.263173e-07	-7.581275e-10	2.327256e+00	-5.651025e+01
1.920000e-06	3.720164e-07	-7.253487e-10	2.653177e+00	-5.425871e+01
1.930000e-06	4.176426e-07	-6.976719e-10	2.978577e+00	-5.195575e+01
1.940000e-06	4.632344e-07	-6.701300e-10	3.303733e+00	-4.960236e+01
1.950000e-06	5.087686e-07	-6.382009e-10	3.628477e+00	-4.719973e+01
1.960000e-06	5.542118e-07	-6.034189e-10	3.952572e+00	-4.474920e+01
1.970000e-06	5.995803e-07	-5.663246e-10	4.276135e+00	-4.225226e+01
1.980000e-06	6.449198e-07	-5.253255e-10	4.599491e+00	-3.971053e+01
1.990000e-06	6.902669e-07	-4.809492e-10	4.922902e+00	-3.712577e+01
2.000000e-06	7.355851e-07	-4.382708e-10	5.246106e+00	-3.449985e+01
2.010000e-06	7.807870e-07	-4.010103e-10	5.568480e+00	-3.183471e+01
2.020000e-06	8.259476e-07	-3.678045e-10	5.890560e+00	-2.913240e+01
2.030000e-06	8.710994e-07	-3.351743e-10	6.212577e+00	-2.639503e+01
2.040000e-06	9.161684e-07	-2.999250e-10	6.534004e+00	-2.362477e+01
2.050000e-06	9.611461e-07	-2.625439e-10	6.854780e+00	-2.082381e+01
2.060000e-06	1.006002e-06	-2.228614e-10	7.174685e+00	-1.799441e+01
2.070000e-06	1.050743e-06	-1.760277e-10	7.493771e+00	-1.513880e+01
2.080000e-06	1.095441e-06	-1.244349e-10	7.812555e+00	-1.225928e+01
2.090000e-06	1.140034e-06	-7.485122e-11	8.130584e+00	-9.358101e+00
2.100000e-06	1.184572e-06	-3.511231e-11	8.448223e+00	-6.437546e+00
2.110000e-06	1.229084e-06	3.880285e-13	8.765680e+00	-3.499878e+00
2.120000e-06	1.273541e-06	3.791047e-11	9.082745e+00	-5.473512e-01
2.130000e-06	1.317875e-06	7.792561e-11	9.398926e+00	2.417793e+00
2.140000e-06	1.362053e-06	1.200028e-10	9.713997e+00	5.393325e+00
2.150000e-06	1.406211e-06	1.656175e-10	1.002893e+01	8.377029e+00
2.160000e-06	1.450360e-06	2.159424e-10	1.034379e+01	1.136670e+01
2.170000e-06	1.494425e-06	2.664560e-10	1.065806e+01	1.436014e+01
2.180000e-06	1.538427e-06	3.105262e-10	1.097188e+01	1.735516e+01
2.190000e-06	1.582396e-06	3.472580e-10	1.128546e+01	2.034958e+01
2.200000e-06	1.626363e-06	3.844304e-10	1.159903e+01	2.334121e+01
2.210000e-06	1.670264e-06	4.266656e-10	1.191212e+01	2.632785e+01
2.220000e-06	1.714037e-06	4.718265e-10	1.222431e+01	2.930731e+01
2.230000e-06	1.757766e-06	5.168051e-10	1.253617e+01	3.227740e+01
2.240000e-06	1.801418e-06	5.620213e-10	1.284750e+01	3.523588e+01
2.250000e-06	1.844950e-06	6.075817e-10	1.315796e+01	3.818055e+01
2.260000e-06	1.888366e-06	6.486123e-10	1.346760e+01	4.110916e+01
2.270000e-06	1.931604e-06	6.844528e-10	1.377597e+01	4.401947e+01
2.280000e-06	1.974553e-06	7.204100e-10	1.408228e+01	4.690923e+01
2.290000e-06	2.017183e-06	7.602930e-10	1.438631e+01	4.977620e+01
2.300000e-06	2.059524e-06	8.042267e-10	1.468828e+01	5.261814e+01
2.310000e-06	2.101604e-06	8.455429e-10	1.498839e+01	5.543280e+01
2.320000e-06	2.143493e-06	8.843905e-10	1.528714e+01	5.821799e+01
2.330000e-06	2.185044e-06	9.237504e-10	1.558347e+01	6.097152e+01
2.340000e-06	2.226279e-06	9.617106e-10	1.587755e+01	6.369125e+01
2.350000e-06	2.267359e-06	9.955201e-10	1.617053e+01	6.637509e+01
2.360000e-06	2.308194e-06	1.029009e-09	1.646177e+01	6.902103e+01
2.370000e-06	2.348750e-06	1.067023e-09	1.675101e+01	7.162710e+01
2.380000e-06	2.389072e-06	1.108226e-09	1.703857e+01	7.419145e+01
2.390000e-06	2.429302e-06	1.147773e-09	1.732549e+01	7.671233e+01
2.400000e-06	2.469419e-06	1.184469e-09	1.761160e+01	7.918808e+01
2.410000e-06	2.509400e-06	1.217341e-09	1.789675e+01	8.161718e+01
2.420000e-06	2.549346e-06	1.247179e-09	1.818163e+01	8.399825e+01
2.430000e-06	2.589233e-06	1.277043e-09	1.846610e+01	8.633004e+01
2.440000e-06	2.628984e-06	1.305683e-09	1.874960e+01	8.861147e+01
2.450000e-06	2.668605e-06	1.335114e-09	1.903217e+01	9.084161e+01
2.460000e-06	2.708124e-06	1.364883e-09	1.931402e+01	9.301968e+01
2.470000e-06	2.747537e-06	1.396360e-09	1.959511e+01	9.514509e+01
2.480000e-06	2.786752e-06	1.429550e-09	1.987478e+01	9.721742e+01
2.490000e-06	2.825601e-06	1.461189e-09	2.015185e+01	9.923640e+01
2.500000e-06	2.864181e-06	1.490584e-09	2.042700e+01	1.012019e+02
2.510000e-06	2.902658e-06	1.518064e-09	2.070141e+01	1.031141e+02
2.520000e-06	2.940991e-06	1.544520e-09	2.097480e+01	1.049731e+02
2.530000e-06	2.979081e-06	1.569269e-09	2.124645e+01	1.067793e+02
2.540000e-06	3.016954e-06	1.592424e-09	2.151656e+01	1.085333e+02
2.550000e-06	3.054679e-06	1.616799e-09	2.178561e+01	1.102356e+02
2.560000e-06	3.092228e-06	1.641259e-09	2.205340e+01	1.118870e+02
2.570000e-06	3.129534e-06	1.664606e-09	2.231947e+01	1.134884e+02
2.580000e-06	3.166517e-06	1.687595e-09	2.258323e+01	1.150407e+02
2.590000e-06	3.203185e-06	1.708347e-09	2.284474e+01	1.165450e+02
2.600000e-06	3.239704e-06	1.728889e-09	2.310518e+01	1.180023e+02
2.610000e-06	3.276024e-06	1.751446e-09	2.336421e+01	1.194137e+02
2.620000e-06	3.312148e-06	1.771399e-09	2.362184e+01	1.207804e+02
2.630000e-06	3.348188e-06	1.784925e-09	2.387888e+01	1.221037e+02
2.640000e-06	3.384124e-06	1.796525e-09	2.413517e+01	1.233846e+02
2.650000e-06	3.419969e-06	1.811148e-09	2.439081e+01	1.246244e+02
2.660000e-06	3.455638e-06	1.828039e-09	2.464520e+01	1.258243e+02
2.670000e-06	3.491034e-06	1.845115e-09	2.489764e+01	1.269854e+02
2.680000e-06	3.526047e-06	1.862176e-09	2.514735e+01	1.281087e+02
2.690000e-06	3.560675e-06	1.878694e-09	2.539431e+01	1.291955e+02
2.700000e-06	3.595007e-06	1.896295e-09	2.563917e+01	1.302468e+02
2.710000e-06	3.628819e-06	1.913170e-09	2.588030e+01	1.312635e+02
2.720000e-06	3.662062e-06	1.927490e-09	2.611739e+01	1.322467e+02
2.730000e-06	3.694920e-06	1.939241e-09	2.635173e+01	1.331972e+02
2.740000e-06	3.727460e-06	1.951508e-09	2.658380e+01	1.341159e+02
2.750000e-06	3.759794e-06	1.966306e-09	2.681440e+01	1.350037e+02
2.760000e-06	3.791956e-06	1.981323e-09	2.704378e+01	1.358613e+02
2.770000e-06	3.824034e-06	1.993573e-09	2.727256e+01	1.366895e+02
2.780000e-06	3.855950e-06	2.005040e-09	2.750017e+01	1.374891e+02
2.790000e-06	3.887609e-06	2.018132e-09	2.772596e+01	1.382607e+02
2.800000e-06	3.919092e-06	2.030508e-09	2.795050e+01	1.390050e+02
2.810000e-06	3.950267e-06	2.040166e-09	2.817284e+01	1.397228e+02
2.820000e-06	3.981030e-06	2.046572e-09	2.839223e+01	1.404146e+02
2.830000e-06	4.011481e-06	2.054071e-09	2.860941e+01	1.410813e+02
2.840000e-06	4.041734e-06	2.065187e-09	2.882517e+01	1.417233e+02
2.850000e-06	4.071823e-06	2.077421e-09	2.903975e+01	1.423415e+02
2.860000e-06	4.101621e-06	2.088150e-09	2.925227e+01	1.429364e+02
2.870000e-06	4.131132e-06	2.098058e-09	2.946274e+01	1.435088e+02
2.880000e-06	4.160427e-06	2.105811e-09	2.967167e+01	1.440594e+02
2.890000e-06	4.189372e-06	2.109981e-09	2.987810e+01	1.445889e+02
2.900000e-06	4.217974e-06	2.111859e-09	3.008209e+01	1.450980e+02
