# Temperatura_=_-7.09
# Concentracion g/m^3_=_4090.0
# C_Vs_to_Am_M_A/Vsm_=_65563218390.804596
# pendiente_HvsI_1/m_=_3716.3
# ordenada_HvsI_A/m_=_1297.0
# frecuencia_Hz_=_135073.69196642857

Tiempo_(s)	Campo_(V.s)	Magnetizacion_(V.s)	Campo_(kA/m)	Magnetizacion_(A/m)
0.000000e+00	-5.400304e-06	-1.748749e-09	-3.839000e+01	-1.156555e+02
1.000000e-08	-5.400509e-06	-1.751035e-09	-3.839146e+01	-1.155976e+02
2.000000e-08	-5.400435e-06	-1.754768e-09	-3.839093e+01	-1.155386e+02
3.000000e-08	-5.400042e-06	-1.752492e-09	-3.838813e+01	-1.154800e+02
4.000000e-08	-5.399189e-06	-1.744938e-09	-3.838207e+01	-1.154234e+02
5.000000e-08	-5.397758e-06	-1.741567e-09	-3.837190e+01	-1.153703e+02
6.000000e-08	-5.395746e-06	-1.742859e-09	-3.835759e+01	-1.153223e+02
7.000000e-08	-5.393142e-06	-1.741652e-09	-3.833908e+01	-1.152807e+02
8.000000e-08	-5.389946e-06	-1.727207e-09	-3.831636e+01	-1.152468e+02
9.000000e-08	-5.386284e-06	-1.745212e-09	-3.829033e+01	-1.152218e+02
1.000000e-07	-5.382264e-06	-1.806683e-09	-3.826175e+01	-1.152066e+02
1.100000e-07	-5.378043e-06	-1.824926e-09	-3.823175e+01	-1.152021e+02
1.200000e-07	-5.373655e-06	-1.742144e-09	-3.820055e+01	-1.152087e+02
1.300000e-07	-5.368954e-06	-1.692328e-09	-3.816713e+01	-1.152269e+02
1.400000e-07	-5.363818e-06	-1.772944e-09	-3.813062e+01	-1.152567e+02
1.500000e-07	-5.358321e-06	-1.804334e-09	-3.809155e+01	-1.152980e+02
1.600000e-07	-5.352529e-06	-1.704214e-09	-3.805037e+01	-1.153503e+02
1.700000e-07	-5.346283e-06	-1.683027e-09	-3.800597e+01	-1.154130e+02
1.800000e-07	-5.339472e-06	-1.802167e-09	-3.795755e+01	-1.154852e+02
1.900000e-07	-5.332326e-06	-1.879020e-09	-3.790675e+01	-1.155659e+02
2.000000e-07	-5.325004e-06	-1.784546e-09	-3.785470e+01	-1.156536e+02
2.100000e-07	-5.317404e-06	-1.766520e-09	-3.780068e+01	-1.157470e+02
2.200000e-07	-5.309593e-06	-1.845818e-09	-3.774514e+01	-1.158443e+02
2.300000e-07	-5.301629e-06	-1.871535e-09	-3.768853e+01	-1.159437e+02
2.400000e-07	-5.293225e-06	-1.800684e-09	-3.762879e+01	-1.160434e+02
2.500000e-07	-5.284089e-06	-1.818901e-09	-3.756384e+01	-1.161415e+02
2.600000e-07	-5.274350e-06	-1.888109e-09	-3.749461e+01	-1.162359e+02
2.700000e-07	-5.264070e-06	-1.875349e-09	-3.742153e+01	-1.163246e+02
2.800000e-07	-5.253167e-06	-1.832738e-09	-3.734402e+01	-1.164058e+02
2.900000e-07	-5.241825e-06	-1.881479e-09	-3.726340e+01	-1.164775e+02
3.000000e-07	-5.230096e-06	-1.897912e-09	-3.718001e+01	-1.165381e+02
3.100000e-07	-5.217972e-06	-1.819840e-09	-3.709382e+01	-1.165858e+02
3.200000e-07	-5.205492e-06	-1.832350e-09	-3.700511e+01	-1.166193e+02
3.300000e-07	-5.192613e-06	-1.893215e-09	-3.691355e+01	-1.166372e+02
3.400000e-07	-5.179315e-06	-1.862803e-09	-3.681902e+01	-1.166385e+02
3.500000e-07	-5.165708e-06	-1.795791e-09	-3.672228e+01	-1.166223e+02
3.600000e-07	-5.151866e-06	-1.848808e-09	-3.662388e+01	-1.165881e+02
3.700000e-07	-5.137667e-06	-1.866786e-09	-3.652295e+01	-1.165354e+02
3.800000e-07	-5.122738e-06	-1.821946e-09	-3.641682e+01	-1.164641e+02
3.900000e-07	-5.107045e-06	-1.820267e-09	-3.630526e+01	-1.163744e+02
4.000000e-07	-5.090863e-06	-1.853123e-09	-3.619022e+01	-1.162667e+02
4.100000e-07	-5.074277e-06	-1.822245e-09	-3.607231e+01	-1.161413e+02
4.200000e-07	-5.057495e-06	-1.814886e-09	-3.595302e+01	-1.159993e+02
4.300000e-07	-5.040450e-06	-1.839308e-09	-3.583184e+01	-1.158414e+02
4.400000e-07	-5.023065e-06	-1.821725e-09	-3.570826e+01	-1.156688e+02
4.500000e-07	-5.005355e-06	-1.785696e-09	-3.558236e+01	-1.154828e+02
4.600000e-07	-4.987291e-06	-1.817589e-09	-3.545395e+01	-1.152848e+02
4.700000e-07	-4.968853e-06	-1.828132e-09	-3.532287e+01	-1.150761e+02
4.800000e-07	-4.949975e-06	-1.803717e-09	-3.518867e+01	-1.148583e+02
4.900000e-07	-4.930774e-06	-1.799729e-09	-3.505217e+01	-1.146329e+02
5.000000e-07	-4.911335e-06	-1.819784e-09	-3.491399e+01	-1.144014e+02
5.100000e-07	-4.891570e-06	-1.808710e-09	-3.477348e+01	-1.141653e+02
5.200000e-07	-4.871598e-06	-1.798129e-09	-3.463150e+01	-1.139259e+02
5.300000e-07	-4.851463e-06	-1.789343e-09	-3.448836e+01	-1.136845e+02
5.400000e-07	-4.831016e-06	-1.780615e-09	-3.434301e+01	-1.134423e+02
5.500000e-07	-4.810129e-06	-1.781323e-09	-3.419453e+01	-1.132004e+02
5.600000e-07	-4.788803e-06	-1.786896e-09	-3.404292e+01	-1.129597e+02
5.700000e-07	-4.767120e-06	-1.775652e-09	-3.388878e+01	-1.127208e+02
5.800000e-07	-4.745216e-06	-1.770084e-09	-3.373307e+01	-1.124844e+02
5.900000e-07	-4.723121e-06	-1.776443e-09	-3.357600e+01	-1.122508e+02
6.000000e-07	-4.700638e-06	-1.772101e-09	-3.341617e+01	-1.120203e+02
6.100000e-07	-4.677751e-06	-1.758295e-09	-3.325347e+01	-1.117928e+02
6.200000e-07	-4.654610e-06	-1.745076e-09	-3.308896e+01	-1.115683e+02
6.300000e-07	-4.631228e-06	-1.743080e-09	-3.292274e+01	-1.113464e+02
6.400000e-07	-4.607575e-06	-1.748503e-09	-3.275460e+01	-1.111266e+02
6.500000e-07	-4.583726e-06	-1.750525e-09	-3.258506e+01	-1.109086e+02
6.600000e-07	-4.559641e-06	-1.736126e-09	-3.241384e+01	-1.106914e+02
6.700000e-07	-4.535168e-06	-1.733709e-09	-3.223987e+01	-1.104745e+02
6.800000e-07	-4.510191e-06	-1.738275e-09	-3.206231e+01	-1.102570e+02
6.900000e-07	-4.484741e-06	-1.735929e-09	-3.188139e+01	-1.100379e+02
7.000000e-07	-4.458814e-06	-1.720371e-09	-3.169708e+01	-1.098165e+02
7.100000e-07	-4.432379e-06	-1.712661e-09	-3.150915e+01	-1.095918e+02
7.200000e-07	-4.405401e-06	-1.709323e-09	-3.131738e+01	-1.093629e+02
7.300000e-07	-4.378005e-06	-1.711594e-09	-3.112262e+01	-1.091291e+02
7.400000e-07	-4.350377e-06	-1.702694e-09	-3.092621e+01	-1.088894e+02
7.500000e-07	-4.322599e-06	-1.695666e-09	-3.072875e+01	-1.086434e+02
7.600000e-07	-4.294707e-06	-1.693416e-09	-3.053046e+01	-1.083902e+02
7.700000e-07	-4.266592e-06	-1.696378e-09	-3.033060e+01	-1.081295e+02
7.800000e-07	-4.238209e-06	-1.686786e-09	-3.012883e+01	-1.078608e+02
7.900000e-07	-4.209468e-06	-1.675600e-09	-2.992451e+01	-1.075839e+02
8.000000e-07	-4.180458e-06	-1.669860e-09	-2.971828e+01	-1.072986e+02
8.100000e-07	-4.151205e-06	-1.672806e-09	-2.951033e+01	-1.070048e+02
8.200000e-07	-4.121592e-06	-1.671156e-09	-2.929981e+01	-1.067027e+02
8.300000e-07	-4.091694e-06	-1.663120e-09	-2.908727e+01	-1.063923e+02
8.400000e-07	-4.061491e-06	-1.654426e-09	-2.887257e+01	-1.060741e+02
8.500000e-07	-4.030927e-06	-1.652501e-09	-2.865529e+01	-1.057482e+02
8.600000e-07	-4.000105e-06	-1.644658e-09	-2.843618e+01	-1.054153e+02
8.700000e-07	-3.969084e-06	-1.631455e-09	-2.821566e+01	-1.050758e+02
8.800000e-07	-3.937846e-06	-1.623783e-09	-2.799359e+01	-1.047302e+02
8.900000e-07	-3.906396e-06	-1.625712e-09	-2.777001e+01	-1.043793e+02
9.000000e-07	-3.874738e-06	-1.628427e-09	-2.754497e+01	-1.040234e+02
9.100000e-07	-3.842937e-06	-1.620126e-09	-2.731889e+01	-1.036634e+02
9.200000e-07	-3.810994e-06	-1.607415e-09	-2.709182e+01	-1.032997e+02
9.300000e-07	-3.778839e-06	-1.597187e-09	-2.686323e+01	-1.029330e+02
9.400000e-07	-3.746415e-06	-1.590623e-09	-2.663273e+01	-1.025637e+02
9.500000e-07	-3.713665e-06	-1.578811e-09	-2.639992e+01	-1.021924e+02
9.600000e-07	-3.680528e-06	-1.568728e-09	-2.616435e+01	-1.018194e+02
9.700000e-07	-3.646998e-06	-1.565811e-09	-2.592599e+01	-1.014451e+02
9.800000e-07	-3.612990e-06	-1.567701e-09	-2.568423e+01	-1.010697e+02
9.900000e-07	-3.578603e-06	-1.559104e-09	-2.543978e+01	-1.006934e+02
1.000000e-06	-3.543895e-06	-1.546489e-09	-2.519305e+01	-1.003163e+02
1.010000e-06	-3.508768e-06	-1.536786e-09	-2.494333e+01	-9.993835e+01
1.020000e-06	-3.473367e-06	-1.530238e-09	-2.469167e+01	-9.955945e+01
1.030000e-06	-3.437777e-06	-1.517820e-09	-2.443867e+01	-9.917944e+01
1.040000e-06	-3.402008e-06	-1.506892e-09	-2.418439e+01	-9.879806e+01
1.050000e-06	-3.366096e-06	-1.501281e-09	-2.392910e+01	-9.841499e+01
1.060000e-06	-3.329997e-06	-1.503234e-09	-2.367248e+01	-9.802983e+01
1.070000e-06	-3.293639e-06	-1.500110e-09	-2.341401e+01	-9.764215e+01
1.080000e-06	-3.257084e-06	-1.490574e-09	-2.315415e+01	-9.725147e+01
1.090000e-06	-3.220325e-06	-1.480304e-09	-2.289283e+01	-9.685726e+01
1.100000e-06	-3.183341e-06	-1.477518e-09	-2.262992e+01	-9.645899e+01
1.110000e-06	-3.146207e-06	-1.473282e-09	-2.236594e+01	-9.605612e+01
1.120000e-06	-3.108816e-06	-1.461258e-09	-2.210013e+01	-9.564808e+01
1.130000e-06	-3.071141e-06	-1.447700e-09	-2.183230e+01	-9.523436e+01
1.140000e-06	-3.033317e-06	-1.441342e-09	-2.156342e+01	-9.481442e+01
1.150000e-06	-2.995309e-06	-1.436076e-09	-2.129323e+01	-9.438778e+01
1.160000e-06	-2.957175e-06	-1.424120e-09	-2.102214e+01	-9.395397e+01
1.170000e-06	-2.918987e-06	-1.410244e-09	-2.075067e+01	-9.351257e+01
1.180000e-06	-2.880533e-06	-1.403835e-09	-2.047730e+01	-9.306322e+01
1.190000e-06	-2.841742e-06	-1.404126e-09	-2.020154e+01	-9.260558e+01
1.200000e-06	-2.802728e-06	-1.398188e-09	-1.992420e+01	-9.213939e+01
1.210000e-06	-2.763546e-06	-1.384855e-09	-1.964566e+01	-9.166440e+01
1.220000e-06	-2.724160e-06	-1.373271e-09	-1.936567e+01	-9.118044e+01
1.230000e-06	-2.684538e-06	-1.367692e-09	-1.908400e+01	-9.068738e+01
1.240000e-06	-2.644818e-06	-1.360366e-09	-1.880163e+01	-9.018513e+01
1.250000e-06	-2.604967e-06	-1.348826e-09	-1.851834e+01	-8.967364e+01
1.260000e-06	-2.564976e-06	-1.338272e-09	-1.823405e+01	-8.915290e+01
1.270000e-06	-2.524956e-06	-1.333070e-09	-1.794956e+01	-8.862293e+01
1.280000e-06	-2.484806e-06	-1.327881e-09	-1.766413e+01	-8.808377e+01
1.290000e-06	-2.444447e-06	-1.319877e-09	-1.737723e+01	-8.753549e+01
1.300000e-06	-2.403934e-06	-1.308925e-09	-1.708923e+01	-8.697814e+01
1.310000e-06	-2.363246e-06	-1.298965e-09	-1.679998e+01	-8.641183e+01
1.320000e-06	-2.322368e-06	-1.288322e-09	-1.650938e+01	-8.583664e+01
1.330000e-06	-2.281324e-06	-1.276550e-09	-1.621761e+01	-8.525264e+01
1.340000e-06	-2.240013e-06	-1.265340e-09	-1.592393e+01	-8.465993e+01
1.350000e-06	-2.198361e-06	-1.259229e-09	-1.562784e+01	-8.405856e+01
1.360000e-06	-2.156432e-06	-1.253515e-09	-1.532977e+01	-8.344860e+01
1.370000e-06	-2.114239e-06	-1.246606e-09	-1.502983e+01	-8.283008e+01
1.380000e-06	-2.071787e-06	-1.238315e-09	-1.472804e+01	-8.220304e+01
1.390000e-06	-2.029220e-06	-1.229644e-09	-1.442544e+01	-8.156748e+01
1.400000e-06	-1.986449e-06	-1.220381e-09	-1.412139e+01	-8.092341e+01
1.410000e-06	-1.943338e-06	-1.209803e-09	-1.381491e+01	-8.027079e+01
1.420000e-06	-1.900019e-06	-1.196291e-09	-1.350697e+01	-7.960961e+01
1.430000e-06	-1.856555e-06	-1.182677e-09	-1.319799e+01	-7.893980e+01
1.440000e-06	-1.812930e-06	-1.170814e-09	-1.288786e+01	-7.826133e+01
1.450000e-06	-1.769187e-06	-1.160046e-09	-1.257690e+01	-7.757412e+01
1.460000e-06	-1.725403e-06	-1.150212e-09	-1.226565e+01	-7.687810e+01
1.470000e-06	-1.681590e-06	-1.141035e-09	-1.195419e+01	-7.617321e+01
1.480000e-06	-1.637718e-06	-1.129809e-09	-1.164231e+01	-7.545937e+01
1.490000e-06	-1.593779e-06	-1.118406e-09	-1.132995e+01	-7.473650e+01
1.500000e-06	-1.549778e-06	-1.108621e-09	-1.101715e+01	-7.400454e+01
1.510000e-06	-1.505695e-06	-1.099497e-09	-1.070377e+01	-7.326341e+01
1.520000e-06	-1.461534e-06	-1.089087e-09	-1.038984e+01	-7.251305e+01
1.530000e-06	-1.417268e-06	-1.074616e-09	-1.007516e+01	-7.175339e+01
1.540000e-06	-1.372908e-06	-1.055851e-09	-9.759806e+00	-7.098436e+01
1.550000e-06	-1.328518e-06	-1.034909e-09	-9.444247e+00	-7.020591e+01
1.560000e-06	-1.283993e-06	-1.018498e-09	-9.127727e+00	-6.941797e+01
1.570000e-06	-1.239327e-06	-1.008380e-09	-8.810197e+00	-6.862046e+01
1.580000e-06	-1.194615e-06	-1.002202e-09	-8.492351e+00	-6.781331e+01
1.590000e-06	-1.149878e-06	-9.966445e-10	-8.174323e+00	-6.699644e+01
1.600000e-06	-1.105046e-06	-9.897323e-10	-7.855616e+00	-6.616973e+01
1.610000e-06	-1.060069e-06	-9.765964e-10	-7.535882e+00	-6.533308e+01
1.620000e-06	-1.014974e-06	-9.581511e-10	-7.215307e+00	-6.448635e+01
1.630000e-06	-9.698109e-07	-9.354597e-10	-6.894248e+00	-6.362937e+01
1.640000e-06	-9.246177e-07	-9.131287e-10	-6.572976e+00	-6.276196e+01
1.650000e-06	-8.794071e-07	-8.983781e-10	-6.251580e+00	-6.188392e+01
1.660000e-06	-8.341738e-07	-8.924645e-10	-5.930024e+00	-6.099499e+01
1.670000e-06	-7.888632e-07	-8.908497e-10	-5.607917e+00	-6.009492e+01
1.680000e-06	-7.434203e-07	-8.859810e-10	-5.284870e+00	-5.918339e+01
1.690000e-06	-6.979184e-07	-8.713621e-10	-4.961403e+00	-5.826008e+01
1.700000e-06	-6.524777e-07	-8.498885e-10	-4.638372e+00	-5.732463e+01
1.710000e-06	-6.070065e-07	-8.270878e-10	-4.315123e+00	-5.637666e+01
1.720000e-06	-5.614607e-07	-8.070759e-10	-3.991345e+00	-5.541577e+01
1.730000e-06	-5.158274e-07	-7.890082e-10	-3.666944e+00	-5.444154e+01
1.740000e-06	-4.701612e-07	-7.728227e-10	-3.342309e+00	-5.345352e+01
1.750000e-06	-4.245090e-07	-7.638056e-10	-3.017774e+00	-5.245129e+01
1.760000e-06	-3.787729e-07	-7.597174e-10	-2.692643e+00	-5.143438e+01
1.770000e-06	-3.329796e-07	-7.502807e-10	-2.367105e+00	-5.040237e+01
1.780000e-06	-2.871327e-07	-7.311102e-10	-2.041186e+00	-4.935483e+01
1.790000e-06	-2.412796e-07	-7.070060e-10	-1.715222e+00	-4.829134e+01
1.800000e-06	-1.954855e-07	-6.842290e-10	-1.389679e+00	-4.721151e+01
1.810000e-06	-1.496769e-07	-6.633109e-10	-1.064032e+00	-4.611499e+01
1.820000e-06	-1.038695e-07	-6.436284e-10	-7.383937e-01	-4.500146e+01
1.830000e-06	-5.809986e-08	-6.265154e-10	-4.130237e-01	-4.387063e+01
1.840000e-06	-1.233258e-08	-6.122832e-10	-8.767059e-02	-4.272228e+01
1.850000e-06	3.349740e-08	-5.988279e-10	2.381283e-01	-4.155621e+01
1.860000e-06	7.935981e-08	-5.828039e-10	5.641576e-01	-4.037228e+01
1.870000e-06	1.251898e-07	-5.630190e-10	8.899564e-01	-3.917043e+01
1.880000e-06	1.709796e-07	-5.403648e-10	1.215470e+00	-3.795061e+01
1.890000e-06	2.167248e-07	-5.179611e-10	1.540666e+00	-3.671285e+01
1.900000e-06	2.625099e-07	-4.955923e-10	1.866146e+00	-3.545723e+01
1.910000e-06	3.083433e-07	-4.753462e-10	2.191969e+00	-3.418387e+01
1.920000e-06	3.541632e-07	-4.591298e-10	2.517696e+00	-3.289294e+01
1.930000e-06	3.999820e-07	-4.452555e-10	2.843415e+00	-3.158464e+01
1.940000e-06	4.457327e-07	-4.291035e-10	3.168650e+00	-3.025923e+01
1.950000e-06	4.914253e-07	-4.091756e-10	3.493473e+00	-2.891696e+01
1.960000e-06	5.370801e-07	-3.892648e-10	3.818026e+00	-2.755814e+01
1.970000e-06	5.826167e-07	-3.703696e-10	4.141739e+00	-2.618307e+01
1.980000e-06	6.280881e-07	-3.494099e-10	4.464989e+00	-2.479207e+01
1.990000e-06	6.735377e-07	-3.259991e-10	4.788084e+00	-2.338547e+01
2.000000e-06	7.189614e-07	-3.039244e-10	5.110995e+00	-2.196358e+01
2.010000e-06	7.643617e-07	-2.842575e-10	5.433739e+00	-2.052671e+01
2.020000e-06	8.097067e-07	-2.633444e-10	5.756090e+00	-1.907516e+01
2.030000e-06	8.550088e-07	-2.398309e-10	6.078137e+00	-1.760923e+01
2.040000e-06	9.002341e-07	-2.167272e-10	6.399637e+00	-1.612916e+01
2.050000e-06	9.453225e-07	-1.976656e-10	6.720164e+00	-1.463521e+01
2.060000e-06	9.902986e-07	-1.801378e-10	7.039893e+00	-1.312761e+01
2.070000e-06	1.035193e-06	-1.599256e-10	7.359041e+00	-1.160656e+01
2.080000e-06	1.079999e-06	-1.381470e-10	7.677560e+00	-1.007226e+01
2.090000e-06	1.124722e-06	-1.148733e-10	7.995490e+00	-8.524899e+00
2.100000e-06	1.169382e-06	-9.123096e-11	8.312974e+00	-6.964650e+00
2.110000e-06	1.214050e-06	-6.733043e-11	8.630510e+00	-5.391698e+00
2.120000e-06	1.258630e-06	-4.272412e-11	8.947424e+00	-3.806235e+00
2.130000e-06	1.303055e-06	-1.888519e-11	9.263233e+00	-2.208471e+00
2.140000e-06	1.347362e-06	3.059696e-12	9.578208e+00	-5.986432e-01
2.150000e-06	1.391512e-06	2.397576e-11	9.892061e+00	1.022976e+00
2.160000e-06	1.435676e-06	4.577103e-11	1.020602e+01	2.656067e+00
2.170000e-06	1.479806e-06	6.963730e-11	1.051973e+01	4.300255e+00
2.180000e-06	1.523832e-06	9.537744e-11	1.083271e+01	5.955101e+00
2.190000e-06	1.567826e-06	1.215551e-10	1.114545e+01	7.620094e+00
2.200000e-06	1.611746e-06	1.471703e-10	1.145767e+01	9.294643e+00
2.210000e-06	1.655621e-06	1.731875e-10	1.176958e+01	1.097807e+01
2.220000e-06	1.699477e-06	1.998477e-10	1.208134e+01	1.266961e+01
2.230000e-06	1.743267e-06	2.238143e-10	1.239264e+01	1.436840e+01
2.240000e-06	1.786959e-06	2.445070e-10	1.270324e+01	1.607349e+01
2.250000e-06	1.830559e-06	2.641266e-10	1.301318e+01	1.778383e+01
2.260000e-06	1.874118e-06	2.865843e-10	1.332284e+01	1.949828e+01
2.270000e-06	1.917532e-06	3.143523e-10	1.363146e+01	2.121560e+01
2.280000e-06	1.960767e-06	3.427951e-10	1.393882e+01	2.293450e+01
2.290000e-06	2.003828e-06	3.687426e-10	1.424493e+01	2.465360e+01
2.300000e-06	2.046586e-06	3.950138e-10	1.454889e+01	2.637145e+01
2.310000e-06	2.089099e-06	4.226748e-10	1.485111e+01	2.808658e+01
2.320000e-06	2.131404e-06	4.464314e-10	1.515185e+01	2.979744e+01
2.330000e-06	2.173451e-06	4.644931e-10	1.545075e+01	3.150251e+01
2.340000e-06	2.215242e-06	4.817819e-10	1.574784e+01	3.320022e+01
2.350000e-06	2.256727e-06	5.043411e-10	1.604275e+01	3.488903e+01
2.360000e-06	2.297849e-06	5.326159e-10	1.633508e+01	3.656744e+01
2.370000e-06	2.338752e-06	5.622807e-10	1.662586e+01	3.823395e+01
2.380000e-06	2.379499e-06	5.911063e-10	1.691552e+01	3.988716e+01
2.390000e-06	2.419980e-06	6.169560e-10	1.720329e+01	4.152572e+01
2.400000e-06	2.460202e-06	6.398309e-10	1.748923e+01	4.314836e+01
2.410000e-06	2.500288e-06	6.584057e-10	1.777419e+01	4.475393e+01
2.420000e-06	2.540284e-06	6.734785e-10	1.805852e+01	4.634137e+01
2.430000e-06	2.580193e-06	6.912681e-10	1.834223e+01	4.790974e+01
2.440000e-06	2.620027e-06	7.147882e-10	1.862540e+01	4.945823e+01
2.450000e-06	2.659754e-06	7.404725e-10	1.890781e+01	5.098614e+01
2.460000e-06	2.699356e-06	7.651293e-10	1.918934e+01	5.249292e+01
2.470000e-06	2.738871e-06	7.882926e-10	1.947024e+01	5.397813e+01
2.480000e-06	2.778256e-06	8.102305e-10	1.975023e+01	5.544146e+01
2.490000e-06	2.817355e-06	8.323535e-10	2.002818e+01	5.688272e+01
2.500000e-06	2.856200e-06	8.525266e-10	2.030432e+01	5.830182e+01
2.510000e-06	2.894914e-06	8.716011e-10	2.057953e+01	5.969880e+01
2.520000e-06	2.933405e-06	8.910720e-10	2.085316e+01	6.107376e+01
2.530000e-06	2.971567e-06	9.111359e-10	2.112445e+01	6.242689e+01
2.540000e-06	3.009522e-06	9.310291e-10	2.139426e+01	6.375842e+01
2.550000e-06	3.047358e-06	9.507285e-10	2.166323e+01	6.506867e+01
2.560000e-06	3.085038e-06	9.719563e-10	2.193110e+01	6.635796e+01
2.570000e-06	3.122549e-06	9.933946e-10	2.219776e+01	6.762663e+01
2.580000e-06	3.159830e-06	1.013027e-09	2.246278e+01	6.887502e+01
2.590000e-06	3.196787e-06	1.030082e-09	2.272551e+01	7.010347e+01
2.600000e-06	3.233463e-06	1.045849e-09	2.298623e+01	7.131227e+01
2.610000e-06	3.269928e-06	1.061333e-09	2.324545e+01	7.250170e+01
2.620000e-06	3.306211e-06	1.076529e-09	2.350339e+01	7.367196e+01
2.630000e-06	3.342350e-06	1.092233e-09	2.376029e+01	7.482321e+01
2.640000e-06	3.378306e-06	1.108174e-09	2.401590e+01	7.595555e+01
2.650000e-06	3.414114e-06	1.123592e-09	2.427045e+01	7.706898e+01
2.660000e-06	3.449828e-06	1.139134e-09	2.452434e+01	7.816347e+01
2.670000e-06	3.485429e-06	1.154281e-09	2.477742e+01	7.923890e+01
2.680000e-06	3.520830e-06	1.167989e-09	2.502908e+01	8.029509e+01
2.690000e-06	3.555893e-06	1.179992e-09	2.527834e+01	8.133178e+01
2.700000e-06	3.590621e-06	1.193203e-09	2.552522e+01	8.234869e+01
2.710000e-06	3.625094e-06	1.208177e-09	2.577028e+01	8.334547e+01
2.720000e-06	3.659146e-06	1.224274e-09	2.601235e+01	8.432175e+01
2.730000e-06	3.692613e-06	1.239496e-09	2.625026e+01	8.527714e+01
2.740000e-06	3.725545e-06	1.253378e-09	2.648438e+01	8.621125e+01
2.750000e-06	3.758081e-06	1.266398e-09	2.671567e+01	8.712370e+01
2.760000e-06	3.790367e-06	1.279101e-09	2.694518e+01	8.801411e+01
2.770000e-06	3.822479e-06	1.289909e-09	2.717346e+01	8.888218e+01
2.780000e-06	3.854410e-06	1.299492e-09	2.740046e+01	8.972764e+01
2.790000e-06	3.886181e-06	1.310617e-09	2.762631e+01	9.055029e+01
2.800000e-06	3.917784e-06	1.322847e-09	2.785098e+01	9.135000e+01
2.810000e-06	3.949161e-06	1.334827e-09	2.807403e+01	9.212676e+01
2.820000e-06	3.980279e-06	1.343324e-09	2.829524e+01	9.288064e+01
2.830000e-06	4.011043e-06	1.349335e-09	2.851393e+01	9.361179e+01
2.840000e-06	4.041476e-06	1.357908e-09	2.873028e+01	9.432052e+01
2.850000e-06	4.071626e-06	1.371021e-09	2.894461e+01	9.500721e+01
2.860000e-06	4.101576e-06	1.384345e-09	2.915753e+01	9.567236e+01
2.870000e-06	4.131324e-06	1.393814e-09	2.936900e+01	9.631658e+01
2.880000e-06	4.160845e-06	1.401171e-09	2.957886e+01	9.694058e+01
2.890000e-06	4.190103e-06	1.408532e-09	2.978685e+01	9.754515e+01
2.900000e-06	4.218977e-06	1.413232e-09	2.999211e+01	9.813115e+01
