# Temperatura_=_-2.14
# Concentracion g/m^3_=_4090.0
# C_Vs_to_Am_M_A/Vsm_=_65563218390.804596
# pendiente_HvsI_1/m_=_3716.3
# ordenada_HvsI_A/m_=_1297.0
# frecuencia_Hz_=_135068.52524157462

Tiempo_(s)	Campo_(V.s)	Magnetizacion_(V.s)	Campo_(kA/m)	Magnetizacion_(A/m)
0.000000e+00	-5.409586e-06	-2.287855e-09	-3.839745e+01	-1.487549e+02
1.000000e-08	-5.409888e-06	-2.288396e-09	-3.839960e+01	-1.486513e+02
2.000000e-08	-5.409962e-06	-2.288835e-09	-3.840012e+01	-1.485476e+02
3.000000e-08	-5.409680e-06	-2.287400e-09	-3.839812e+01	-1.484458e+02
4.000000e-08	-5.409001e-06	-2.283958e-09	-3.839330e+01	-1.483478e+02
5.000000e-08	-5.407881e-06	-2.282577e-09	-3.838535e+01	-1.482556e+02
6.000000e-08	-5.406250e-06	-2.286819e-09	-3.837377e+01	-1.481712e+02
7.000000e-08	-5.404032e-06	-2.297524e-09	-3.835803e+01	-1.480961e+02
8.000000e-08	-5.401163e-06	-2.290831e-09	-3.833766e+01	-1.480323e+02
9.000000e-08	-5.397710e-06	-2.255507e-09	-3.831316e+01	-1.479811e+02
1.000000e-07	-5.393787e-06	-2.271272e-09	-3.828531e+01	-1.479438e+02
1.100000e-07	-5.389537e-06	-2.355251e-09	-3.825514e+01	-1.479216e+02
1.200000e-07	-5.385141e-06	-2.332169e-09	-3.822394e+01	-1.479152e+02
1.300000e-07	-5.380585e-06	-2.233057e-09	-3.819160e+01	-1.479253e+02
1.400000e-07	-5.375601e-06	-2.224486e-09	-3.815623e+01	-1.479521e+02
1.500000e-07	-5.370192e-06	-2.352752e-09	-3.811783e+01	-1.479956e+02
1.600000e-07	-5.364461e-06	-2.349780e-09	-3.807715e+01	-1.480555e+02
1.700000e-07	-5.358387e-06	-2.206047e-09	-3.803404e+01	-1.481313e+02
1.800000e-07	-5.351871e-06	-2.219522e-09	-3.798779e+01	-1.482222e+02
1.900000e-07	-5.344906e-06	-2.358756e-09	-3.793835e+01	-1.483270e+02
2.000000e-07	-5.337644e-06	-2.366819e-09	-3.788680e+01	-1.484443e+02
2.100000e-07	-5.330141e-06	-2.253560e-09	-3.783355e+01	-1.485726e+02
2.200000e-07	-5.322422e-06	-2.292769e-09	-3.777876e+01	-1.487100e+02
2.300000e-07	-5.314482e-06	-2.382505e-09	-3.772240e+01	-1.488547e+02
2.400000e-07	-5.306254e-06	-2.344210e-09	-3.766400e+01	-1.490045e+02
2.500000e-07	-5.297401e-06	-2.285011e-09	-3.760116e+01	-1.491572e+02
2.600000e-07	-5.287753e-06	-2.364610e-09	-3.753268e+01	-1.493107e+02
2.700000e-07	-5.277577e-06	-2.403924e-09	-3.746045e+01	-1.494625e+02
2.800000e-07	-5.267019e-06	-2.327164e-09	-3.738550e+01	-1.496104e+02
2.900000e-07	-5.255911e-06	-2.319463e-09	-3.730666e+01	-1.497523e+02
3.000000e-07	-5.244340e-06	-2.406988e-09	-3.722453e+01	-1.498859e+02
3.100000e-07	-5.232425e-06	-2.365668e-09	-3.713996e+01	-1.500092e+02
3.200000e-07	-5.220036e-06	-2.284514e-09	-3.705202e+01	-1.501205e+02
3.300000e-07	-5.207242e-06	-2.349527e-09	-3.696120e+01	-1.502179e+02
3.400000e-07	-5.194149e-06	-2.405492e-09	-3.686827e+01	-1.503000e+02
3.500000e-07	-5.180697e-06	-2.336584e-09	-3.677279e+01	-1.503656e+02
3.600000e-07	-5.166835e-06	-2.323615e-09	-3.667439e+01	-1.504135e+02
3.700000e-07	-5.152432e-06	-2.380652e-09	-3.657216e+01	-1.504432e+02
3.800000e-07	-5.137511e-06	-2.352565e-09	-3.646625e+01	-1.504539e+02
3.900000e-07	-5.122183e-06	-2.309768e-09	-3.635746e+01	-1.504455e+02
4.000000e-07	-5.106304e-06	-2.345069e-09	-3.624474e+01	-1.504180e+02
4.100000e-07	-5.089850e-06	-2.339022e-09	-3.612796e+01	-1.503717e+02
4.200000e-07	-5.072958e-06	-2.297432e-09	-3.600805e+01	-1.503070e+02
4.300000e-07	-5.055855e-06	-2.335563e-09	-3.588665e+01	-1.502246e+02
4.400000e-07	-5.038593e-06	-2.361574e-09	-3.576413e+01	-1.501255e+02
4.500000e-07	-5.020939e-06	-2.312918e-09	-3.563882e+01	-1.500108e+02
4.600000e-07	-5.002880e-06	-2.299297e-09	-3.551064e+01	-1.498818e+02
4.700000e-07	-4.984557e-06	-2.339059e-09	-3.538058e+01	-1.497397e+02
4.800000e-07	-4.965903e-06	-2.321718e-09	-3.524817e+01	-1.495862e+02
4.900000e-07	-4.946814e-06	-2.293276e-09	-3.511268e+01	-1.494228e+02
5.000000e-07	-4.927386e-06	-2.298693e-09	-3.497477e+01	-1.492510e+02
5.100000e-07	-4.907699e-06	-2.308119e-09	-3.483504e+01	-1.490725e+02
5.200000e-07	-4.887795e-06	-2.302735e-09	-3.469376e+01	-1.488890e+02
5.300000e-07	-4.867744e-06	-2.303942e-09	-3.455143e+01	-1.487018e+02
5.400000e-07	-4.847412e-06	-2.285634e-09	-3.440712e+01	-1.485125e+02
5.500000e-07	-4.826685e-06	-2.279587e-09	-3.426000e+01	-1.483225e+02
5.600000e-07	-4.805579e-06	-2.293728e-09	-3.411019e+01	-1.481331e+02
5.700000e-07	-4.784125e-06	-2.295274e-09	-3.395791e+01	-1.479453e+02
5.800000e-07	-4.762398e-06	-2.274176e-09	-3.380368e+01	-1.477602e+02
5.900000e-07	-4.740433e-06	-2.276133e-09	-3.364777e+01	-1.475786e+02
6.000000e-07	-4.718103e-06	-2.283048e-09	-3.348928e+01	-1.474011e+02
6.100000e-07	-4.695203e-06	-2.279361e-09	-3.332673e+01	-1.472283e+02
6.200000e-07	-4.671960e-06	-2.264611e-09	-3.316175e+01	-1.470603e+02
6.300000e-07	-4.648574e-06	-2.251570e-09	-3.299576e+01	-1.468975e+02
6.400000e-07	-4.624910e-06	-2.256327e-09	-3.282779e+01	-1.467397e+02
6.500000e-07	-4.601018e-06	-2.273204e-09	-3.265820e+01	-1.465868e+02
6.600000e-07	-4.576951e-06	-2.267098e-09	-3.248738e+01	-1.464385e+02
6.700000e-07	-4.552583e-06	-2.248615e-09	-3.231441e+01	-1.462944e+02
6.800000e-07	-4.527800e-06	-2.251339e-09	-3.213850e+01	-1.461539e+02
6.900000e-07	-4.502535e-06	-2.259553e-09	-3.195917e+01	-1.460163e+02
7.000000e-07	-4.476661e-06	-2.251947e-09	-3.177551e+01	-1.458810e+02
7.100000e-07	-4.450229e-06	-2.238787e-09	-3.158790e+01	-1.457471e+02
7.200000e-07	-4.423345e-06	-2.236725e-09	-3.139707e+01	-1.456139e+02
7.300000e-07	-4.396093e-06	-2.244462e-09	-3.120364e+01	-1.454805e+02
7.400000e-07	-4.368559e-06	-2.252366e-09	-3.100820e+01	-1.453462e+02
7.500000e-07	-4.340834e-06	-2.243358e-09	-3.081141e+01	-1.452100e+02
7.600000e-07	-4.313011e-06	-2.233944e-09	-3.061392e+01	-1.450713e+02
7.700000e-07	-4.285044e-06	-2.235972e-09	-3.041541e+01	-1.449293e+02
7.800000e-07	-4.256778e-06	-2.238200e-09	-3.021477e+01	-1.447834e+02
7.900000e-07	-4.228132e-06	-2.226187e-09	-3.001145e+01	-1.446329e+02
8.000000e-07	-4.199104e-06	-2.217952e-09	-2.980541e+01	-1.444775e+02
8.100000e-07	-4.169760e-06	-2.217648e-09	-2.959712e+01	-1.443167e+02
8.200000e-07	-4.140172e-06	-2.224442e-09	-2.938710e+01	-1.441502e+02
8.300000e-07	-4.110407e-06	-2.224058e-09	-2.917583e+01	-1.439778e+02
8.400000e-07	-4.080409e-06	-2.216909e-09	-2.896290e+01	-1.437994e+02
8.500000e-07	-4.050007e-06	-2.209621e-09	-2.874711e+01	-1.436150e+02
8.600000e-07	-4.019258e-06	-2.209929e-09	-2.852885e+01	-1.434248e+02
8.700000e-07	-3.988183e-06	-2.204619e-09	-2.830828e+01	-1.432288e+02
8.800000e-07	-3.956956e-06	-2.193836e-09	-2.808662e+01	-1.430275e+02
8.900000e-07	-3.925671e-06	-2.183511e-09	-2.786456e+01	-1.428210e+02
9.000000e-07	-3.894187e-06	-2.185536e-09	-2.764109e+01	-1.426099e+02
9.100000e-07	-3.862494e-06	-2.189427e-09	-2.741613e+01	-1.423945e+02
9.200000e-07	-3.830596e-06	-2.185167e-09	-2.718972e+01	-1.421754e+02
9.300000e-07	-3.798536e-06	-2.174632e-09	-2.696215e+01	-1.419531e+02
9.400000e-07	-3.766209e-06	-2.168984e-09	-2.673270e+01	-1.417280e+02
9.500000e-07	-3.733515e-06	-2.167534e-09	-2.650063e+01	-1.415008e+02
9.600000e-07	-3.700522e-06	-2.163684e-09	-2.626645e+01	-1.412719e+02
9.700000e-07	-3.667082e-06	-2.156376e-09	-2.602909e+01	-1.410418e+02
9.800000e-07	-3.633158e-06	-2.151790e-09	-2.578830e+01	-1.408111e+02
9.900000e-07	-3.598860e-06	-2.149703e-09	-2.554485e+01	-1.405800e+02
1.000000e-06	-3.564089e-06	-2.141652e-09	-2.529804e+01	-1.403490e+02
1.010000e-06	-3.528927e-06	-2.130643e-09	-2.504846e+01	-1.401185e+02
1.020000e-06	-3.493624e-06	-2.119913e-09	-2.479788e+01	-1.398885e+02
1.030000e-06	-3.458102e-06	-2.112442e-09	-2.454574e+01	-1.396593e+02
1.040000e-06	-3.422366e-06	-2.109117e-09	-2.429209e+01	-1.394310e+02
1.050000e-06	-3.386558e-06	-2.110382e-09	-2.403792e+01	-1.392035e+02
1.060000e-06	-3.350593e-06	-2.109295e-09	-2.378264e+01	-1.389768e+02
1.070000e-06	-3.314405e-06	-2.106422e-09	-2.352578e+01	-1.387508e+02
1.080000e-06	-3.277975e-06	-2.099567e-09	-2.326720e+01	-1.385253e+02
1.090000e-06	-3.241353e-06	-2.089734e-09	-2.300725e+01	-1.382998e+02
1.100000e-06	-3.204482e-06	-2.077482e-09	-2.274554e+01	-1.380742e+02
1.110000e-06	-3.167319e-06	-2.070751e-09	-2.248175e+01	-1.378479e+02
1.120000e-06	-3.130002e-06	-2.068107e-09	-2.221688e+01	-1.376204e+02
1.130000e-06	-3.092502e-06	-2.068013e-09	-2.195070e+01	-1.373913e+02
1.140000e-06	-3.054753e-06	-2.066378e-09	-2.168276e+01	-1.371599e+02
1.150000e-06	-3.016836e-06	-2.065486e-09	-2.141362e+01	-1.369256e+02
1.160000e-06	-2.978725e-06	-2.060128e-09	-2.114311e+01	-1.366879e+02
1.170000e-06	-2.940391e-06	-2.050817e-09	-2.087101e+01	-1.364460e+02
1.180000e-06	-2.901822e-06	-2.039503e-09	-2.059724e+01	-1.361993e+02
1.190000e-06	-2.862946e-06	-2.031593e-09	-2.032130e+01	-1.359471e+02
1.200000e-06	-2.823870e-06	-2.029208e-09	-2.004394e+01	-1.356888e+02
1.210000e-06	-2.784676e-06	-2.027547e-09	-1.976574e+01	-1.354238e+02
1.220000e-06	-2.745268e-06	-2.023300e-09	-1.948602e+01	-1.351514e+02
1.230000e-06	-2.705642e-06	-2.020295e-09	-1.920475e+01	-1.348711e+02
1.240000e-06	-2.665910e-06	-2.018728e-09	-1.892273e+01	-1.345824e+02
1.250000e-06	-2.626113e-06	-2.015311e-09	-1.864025e+01	-1.342847e+02
1.260000e-06	-2.586233e-06	-2.007272e-09	-1.835718e+01	-1.339777e+02
1.270000e-06	-2.546248e-06	-1.996031e-09	-1.807337e+01	-1.336609e+02
1.280000e-06	-2.506159e-06	-1.988489e-09	-1.778882e+01	-1.333340e+02
1.290000e-06	-2.465925e-06	-1.985480e-09	-1.750323e+01	-1.329968e+02
1.300000e-06	-2.425489e-06	-1.982973e-09	-1.721621e+01	-1.326490e+02
1.310000e-06	-2.384920e-06	-1.975654e-09	-1.692826e+01	-1.322905e+02
1.320000e-06	-2.344179e-06	-1.967327e-09	-1.663907e+01	-1.319213e+02
1.330000e-06	-2.303161e-06	-1.961179e-09	-1.634793e+01	-1.315412e+02
1.340000e-06	-2.261883e-06	-1.956004e-09	-1.605494e+01	-1.311503e+02
1.350000e-06	-2.220243e-06	-1.947512e-09	-1.575937e+01	-1.307486e+02
1.360000e-06	-2.178248e-06	-1.936801e-09	-1.546129e+01	-1.303364e+02
1.370000e-06	-2.135919e-06	-1.928671e-09	-1.516084e+01	-1.299136e+02
1.380000e-06	-2.093314e-06	-1.925033e-09	-1.485843e+01	-1.294806e+02
1.390000e-06	-2.050575e-06	-1.919977e-09	-1.455506e+01	-1.290374e+02
1.400000e-06	-2.007636e-06	-1.912403e-09	-1.425028e+01	-1.285844e+02
1.410000e-06	-1.964513e-06	-1.905156e-09	-1.394419e+01	-1.281217e+02
1.420000e-06	-1.921249e-06	-1.899697e-09	-1.363710e+01	-1.276495e+02
1.430000e-06	-1.877810e-06	-1.891749e-09	-1.332877e+01	-1.271681e+02
1.440000e-06	-1.834253e-06	-1.879120e-09	-1.301960e+01	-1.266777e+02
1.450000e-06	-1.790645e-06	-1.863770e-09	-1.271006e+01	-1.261784e+02
1.460000e-06	-1.746923e-06	-1.855854e-09	-1.239972e+01	-1.256703e+02
1.470000e-06	-1.703107e-06	-1.852498e-09	-1.208872e+01	-1.251535e+02
1.480000e-06	-1.659222e-06	-1.844795e-09	-1.177722e+01	-1.246281e+02
1.490000e-06	-1.615192e-06	-1.833355e-09	-1.146469e+01	-1.240939e+02
1.500000e-06	-1.571123e-06	-1.824430e-09	-1.115189e+01	-1.235509e+02
1.510000e-06	-1.527057e-06	-1.817399e-09	-1.083911e+01	-1.229989e+02
1.520000e-06	-1.482843e-06	-1.805931e-09	-1.052528e+01	-1.224376e+02
1.530000e-06	-1.438523e-06	-1.790592e-09	-1.021069e+01	-1.218667e+02
1.540000e-06	-1.394175e-06	-1.780158e-09	-9.895907e+00	-1.212857e+02
1.550000e-06	-1.349757e-06	-1.773777e-09	-9.580626e+00	-1.206942e+02
1.560000e-06	-1.305296e-06	-1.764832e-09	-9.265039e+00	-1.200914e+02
1.570000e-06	-1.260739e-06	-1.754120e-09	-8.948776e+00	-1.194769e+02
1.580000e-06	-1.216120e-06	-1.744293e-09	-8.632064e+00	-1.188496e+02
1.590000e-06	-1.171421e-06	-1.736648e-09	-8.314794e+00	-1.182089e+02
1.600000e-06	-1.126578e-06	-1.726295e-09	-7.996497e+00	-1.175538e+02
1.610000e-06	-1.081621e-06	-1.712894e-09	-7.677388e+00	-1.168832e+02
1.620000e-06	-1.036535e-06	-1.699992e-09	-7.357365e+00	-1.161962e+02
1.630000e-06	-9.914364e-07	-1.690893e-09	-7.037254e+00	-1.154916e+02
1.640000e-06	-9.462584e-07	-1.681116e-09	-6.716579e+00	-1.147683e+02
1.650000e-06	-9.010434e-07	-1.667830e-09	-6.395641e+00	-1.140251e+02
1.660000e-06	-8.558352e-07	-1.654778e-09	-6.074751e+00	-1.132606e+02
1.670000e-06	-8.104316e-07	-1.646241e-09	-5.752475e+00	-1.124738e+02
1.680000e-06	-7.649130e-07	-1.638420e-09	-5.429382e+00	-1.116633e+02
1.690000e-06	-7.193798e-07	-1.623379e-09	-5.106186e+00	-1.108278e+02
1.700000e-06	-6.738321e-07	-1.601428e-09	-4.782886e+00	-1.099661e+02
1.710000e-06	-6.282836e-07	-1.582070e-09	-4.459581e+00	-1.090768e+02
1.720000e-06	-5.826593e-07	-1.569110e-09	-4.135738e+00	-1.081588e+02
1.730000e-06	-5.369796e-07	-1.557701e-09	-3.811502e+00	-1.072108e+02
1.740000e-06	-4.913200e-07	-1.541963e-09	-3.487408e+00	-1.062315e+02
1.750000e-06	-4.456382e-07	-1.527170e-09	-3.163158e+00	-1.052198e+02
1.760000e-06	-3.999247e-07	-1.517436e-09	-2.838681e+00	-1.041745e+02
1.770000e-06	-3.541818e-07	-1.504291e-09	-2.513996e+00	-1.030943e+02
1.780000e-06	-3.083731e-07	-1.481797e-09	-2.188844e+00	-1.019781e+02
1.790000e-06	-2.625017e-07	-1.456198e-09	-1.863247e+00	-1.008248e+02
1.800000e-06	-2.165944e-07	-1.435915e-09	-1.537395e+00	-9.963314e+01
1.810000e-06	-1.706889e-07	-1.418723e-09	-1.211557e+00	-9.840208e+01
1.820000e-06	-1.248022e-07	-1.399247e-09	-8.858509e-01	-9.713042e+01
1.830000e-06	-7.897880e-08	-1.377590e-09	-5.605946e-01	-9.581697e+01
1.840000e-06	-3.319042e-08	-1.358219e-09	-2.355869e-01	-9.446053e+01
1.850000e-06	1.263258e-08	-1.342593e-09	8.966651e-02	-9.305985e+01
1.860000e-06	5.845473e-08	-1.326107e-09	4.149140e-01	-9.161365e+01
1.870000e-06	1.042498e-07	-1.303563e-09	7.399692e-01	-9.012060e+01
1.880000e-06	1.500460e-07	-1.281124e-09	1.065032e+00	-8.857930e+01
1.890000e-06	1.958502e-07	-1.259582e-09	1.390152e+00	-8.698830e+01
1.900000e-06	2.416251e-07	-1.231748e-09	1.715064e+00	-8.534608e+01
1.910000e-06	2.874139e-07	-1.196143e-09	2.040075e+00	-8.365104e+01
1.920000e-06	3.332251e-07	-1.161688e-09	2.365245e+00	-8.190155e+01
1.930000e-06	3.789747e-07	-1.135513e-09	2.689977e+00	-8.009588e+01
1.940000e-06	4.247304e-07	-1.115163e-09	3.014753e+00	-7.823227e+01
1.950000e-06	4.704712e-07	-1.095402e-09	3.339423e+00	-7.630888e+01
1.960000e-06	5.161629e-07	-1.074743e-09	3.663745e+00	-7.432388e+01
1.970000e-06	5.617582e-07	-1.051700e-09	3.987381e+00	-7.227540e+01
1.980000e-06	6.073134e-07	-1.020886e-09	4.310734e+00	-7.016155e+01
1.990000e-06	6.529461e-07	-9.806901e-10	4.634637e+00	-6.798050e+01
2.000000e-06	6.985314e-07	-9.376823e-10	4.958203e+00	-6.573044e+01
2.010000e-06	7.440835e-07	-8.981777e-10	5.281534e+00	-6.340966e+01
2.020000e-06	7.896194e-07	-8.653449e-10	5.604749e+00	-6.101653e+01
2.030000e-06	8.350266e-07	-8.377333e-10	5.927051e+00	-5.854959e+01
2.040000e-06	8.802606e-07	-8.103170e-10	6.248124e+00	-5.600751e+01
2.050000e-06	9.253830e-07	-7.782225e-10	6.568404e+00	-5.338921e+01
2.060000e-06	9.705022e-07	-7.375050e-10	6.888663e+00	-5.069383e+01
2.070000e-06	1.015619e-06	-6.914752e-10	7.208900e+00	-4.792080e+01
2.080000e-06	1.060660e-06	-6.438398e-10	7.528607e+00	-4.506984e+01
2.090000e-06	1.105614e-06	-5.971889e-10	7.847689e+00	-4.214106e+01
2.100000e-06	1.150443e-06	-5.543373e-10	8.165886e+00	-3.913492e+01
2.110000e-06	1.195114e-06	-5.154229e-10	8.482967e+00	-3.605228e+01
2.120000e-06	1.239664e-06	-4.755810e-10	8.799181e+00	-3.289446e+01
2.130000e-06	1.284204e-06	-4.326546e-10	9.115327e+00	-2.966323e+01
2.140000e-06	1.328694e-06	-3.833346e-10	9.431119e+00	-2.636081e+01
2.150000e-06	1.373013e-06	-3.272836e-10	9.745702e+00	-2.298992e+01
2.160000e-06	1.417249e-06	-2.697849e-10	1.005969e+01	-1.955378e+01
2.170000e-06	1.461428e-06	-2.155042e-10	1.037327e+01	-1.605608e+01
2.180000e-06	1.505524e-06	-1.640150e-10	1.068627e+01	-1.250103e+01
2.190000e-06	1.549550e-06	-1.134565e-10	1.099877e+01	-8.893261e+00
2.200000e-06	1.593531e-06	-6.499254e-11	1.131094e+01	-5.237908e+00
2.210000e-06	1.637467e-06	-1.576825e-11	1.162281e+01	-1.540511e+00
2.220000e-06	1.681348e-06	4.137996e-11	1.193427e+01	2.192982e+00
2.230000e-06	1.725174e-06	1.073202e-10	1.224535e+01	5.956265e+00
2.240000e-06	1.768877e-06	1.723458e-10	1.255556e+01	9.742710e+00
2.250000e-06	1.812466e-06	2.294190e-10	1.286495e+01	1.354542e+01
2.260000e-06	1.856017e-06	2.832379e-10	1.317408e+01	1.735727e+01
2.270000e-06	1.899536e-06	3.375346e-10	1.348298e+01	2.117099e+01
2.280000e-06	1.942913e-06	3.908454e-10	1.379087e+01	2.497918e+01
2.290000e-06	1.986006e-06	4.421002e-10	1.409674e+01	2.877443e+01
2.300000e-06	2.028889e-06	4.972225e-10	1.440113e+01	3.254932e+01
2.310000e-06	2.071693e-06	5.613248e-10	1.470496e+01	3.629654e+01
2.320000e-06	2.114270e-06	6.242159e-10	1.500717e+01	4.000890e+01
2.330000e-06	2.156546e-06	6.785828e-10	1.530725e+01	4.367946e+01
2.340000e-06	2.198546e-06	7.280316e-10	1.560536e+01	4.730150e+01
2.350000e-06	2.240218e-06	7.790116e-10	1.590116e+01	5.086867e+01
2.360000e-06	2.281628e-06	8.309369e-10	1.619508e+01	5.437497e+01
2.370000e-06	2.322727e-06	8.801254e-10	1.648680e+01	5.781485e+01
2.380000e-06	2.363538e-06	9.282059e-10	1.677649e+01	6.118319e+01
2.390000e-06	2.404159e-06	9.791142e-10	1.706481e+01	6.447541e+01
2.400000e-06	2.444576e-06	1.028820e-09	1.735169e+01	6.768746e+01
2.410000e-06	2.484818e-06	1.073581e-09	1.763733e+01	7.081581e+01
2.420000e-06	2.524913e-06	1.113914e-09	1.792193e+01	7.385755e+01
2.430000e-06	2.564941e-06	1.153367e-09	1.820605e+01	7.681030e+01
2.440000e-06	2.604864e-06	1.195344e-09	1.848943e+01	7.967230e+01
2.450000e-06	2.644674e-06	1.236762e-09	1.877200e+01	8.244232e+01
2.460000e-06	2.684415e-06	1.275534e-09	1.905408e+01	8.511972e+01
2.470000e-06	2.724043e-06	1.311623e-09	1.933537e+01	8.770437e+01
2.480000e-06	2.763475e-06	1.345914e-09	1.961525e+01	9.019666e+01
2.490000e-06	2.802710e-06	1.376903e-09	1.989374e+01	9.259746e+01
2.500000e-06	2.841760e-06	1.404719e-09	2.017092e+01	9.490806e+01
2.510000e-06	2.880504e-06	1.435601e-09	2.044593e+01	9.713014e+01
2.520000e-06	2.918997e-06	1.471152e-09	2.071915e+01	9.926575e+01
2.530000e-06	2.957317e-06	1.509410e-09	2.099115e+01	1.013172e+02
2.540000e-06	2.995506e-06	1.544860e-09	2.126222e+01	1.032871e+02
2.550000e-06	3.033537e-06	1.574905e-09	2.153216e+01	1.051783e+02
2.560000e-06	3.071323e-06	1.601073e-09	2.180037e+01	1.069936e+02
2.570000e-06	3.108912e-06	1.619207e-09	2.206718e+01	1.087362e+02
2.580000e-06	3.146359e-06	1.631575e-09	2.233298e+01	1.104090e+02
2.590000e-06	3.183506e-06	1.644923e-09	2.259665e+01	1.120152e+02
2.600000e-06	3.220412e-06	1.666925e-09	2.285861e+01	1.135579e+02
2.610000e-06	3.257232e-06	1.700505e-09	2.311996e+01	1.150400e+02
2.620000e-06	3.293745e-06	1.734753e-09	2.337913e+01	1.164645e+02
2.630000e-06	3.329931e-06	1.760999e-09	2.363598e+01	1.178340e+02
2.640000e-06	3.365909e-06	1.780559e-09	2.389135e+01	1.191512e+02
2.650000e-06	3.401728e-06	1.794350e-09	2.414559e+01	1.204185e+02
2.660000e-06	3.437481e-06	1.801298e-09	2.439937e+01	1.216382e+02
2.670000e-06	3.473152e-06	1.805031e-09	2.465257e+01	1.228123e+02
2.680000e-06	3.508682e-06	1.815943e-09	2.490476e+01	1.239426e+02
2.690000e-06	3.544054e-06	1.836719e-09	2.515584e+01	1.250309e+02
2.700000e-06	3.579178e-06	1.860916e-09	2.540515e+01	1.260785e+02
2.710000e-06	3.613886e-06	1.882815e-09	2.565150e+01	1.270870e+02
2.720000e-06	3.648105e-06	1.900557e-09	2.589439e+01	1.280573e+02
2.730000e-06	3.681857e-06	1.913758e-09	2.613397e+01	1.289906e+02
2.740000e-06	3.715144e-06	1.920171e-09	2.637024e+01	1.298878e+02
2.750000e-06	3.747933e-06	1.921670e-09	2.660297e+01	1.307497e+02
2.760000e-06	3.780373e-06	1.927659e-09	2.683323e+01	1.315770e+02
2.770000e-06	3.812580e-06	1.941691e-09	2.706184e+01	1.323705e+02
2.780000e-06	3.844573e-06	1.957643e-09	2.728893e+01	1.331309e+02
2.790000e-06	3.876433e-06	1.971128e-09	2.751507e+01	1.338589e+02
2.800000e-06	3.908167e-06	1.984167e-09	2.774032e+01	1.345551e+02
2.810000e-06	3.939711e-06	1.997962e-09	2.796422e+01	1.352203e+02
2.820000e-06	3.971024e-06	2.008074e-09	2.818648e+01	1.358553e+02
2.830000e-06	4.002037e-06	2.011293e-09	2.840662e+01	1.364609e+02
2.840000e-06	4.032718e-06	2.013611e-09	2.862439e+01	1.370382e+02
2.850000e-06	4.063093e-06	2.022209e-09	2.883999e+01	1.375880e+02
2.860000e-06	4.093156e-06	2.033812e-09	2.905338e+01	1.381115e+02
2.870000e-06	4.123020e-06	2.042319e-09	2.926535e+01	1.386098e+02
2.880000e-06	4.152624e-06	2.046694e-09	2.947548e+01	1.390842e+02
2.890000e-06	4.181895e-06	2.049634e-09	2.968325e+01	1.395359e+02
2.900000e-06	4.210927e-06	2.054826e-09	2.988932e+01	1.399662e+02
