# Temperatura_=_17.2
# Concentracion g/m^3_=_4090.0
# C_Vs_to_Am_M_A/Vsm_=_65563218390.804596
# pendiente_HvsI_1/m_=_3716.3
# ordenada_HvsI_A/m_=_1297.0
# frecuencia_Hz_=_135082.3528204234

Tiempo_(s)	Campo_(V.s)	Magnetizacion_(V.s)	Campo_(kA/m)	Magnetizacion_(A/m)
0.000000e+00	-5.400741e-06	-2.315406e-09	-3.839622e+01	-1.514880e+02
1.000000e-08	-5.400861e-06	-2.316685e-09	-3.839707e+01	-1.513785e+02
2.000000e-08	-5.400874e-06	-2.316562e-09	-3.839716e+01	-1.512684e+02
3.000000e-08	-5.400559e-06	-2.317285e-09	-3.839492e+01	-1.511593e+02
4.000000e-08	-5.399793e-06	-2.316038e-09	-3.838947e+01	-1.510526e+02
5.000000e-08	-5.398553e-06	-2.310887e-09	-3.838066e+01	-1.509500e+02
6.000000e-08	-5.396750e-06	-2.311200e-09	-3.836784e+01	-1.508529e+02
7.000000e-08	-5.394373e-06	-2.297898e-09	-3.835094e+01	-1.507627e+02
8.000000e-08	-5.391413e-06	-2.245332e-09	-3.832990e+01	-1.506805e+02
9.000000e-08	-5.387855e-06	-2.241548e-09	-3.830461e+01	-1.506077e+02
1.000000e-07	-5.383812e-06	-2.402487e-09	-3.827586e+01	-1.505451e+02
1.100000e-07	-5.379456e-06	-2.460474e-09	-3.824489e+01	-1.504935e+02
1.200000e-07	-5.375008e-06	-2.275237e-09	-3.821327e+01	-1.504535e+02
1.300000e-07	-5.370407e-06	-2.142356e-09	-3.818056e+01	-1.504254e+02
1.400000e-07	-5.365367e-06	-2.344108e-09	-3.814473e+01	-1.504093e+02
1.500000e-07	-5.359850e-06	-2.461505e-09	-3.810551e+01	-1.504053e+02
1.600000e-07	-5.353913e-06	-2.227378e-09	-3.806330e+01	-1.504129e+02
1.700000e-07	-5.347728e-06	-2.081218e-09	-3.801932e+01	-1.504317e+02
1.800000e-07	-5.341126e-06	-2.358780e-09	-3.797239e+01	-1.504607e+02
1.900000e-07	-5.334001e-06	-2.505251e-09	-3.792174e+01	-1.504991e+02
2.000000e-07	-5.326602e-06	-2.306261e-09	-3.786913e+01	-1.505457e+02
2.100000e-07	-5.318994e-06	-2.210171e-09	-3.781504e+01	-1.505992e+02
2.200000e-07	-5.311239e-06	-2.386602e-09	-3.775991e+01	-1.506579e+02
2.300000e-07	-5.303168e-06	-2.387346e-09	-3.770253e+01	-1.507204e+02
2.400000e-07	-5.294699e-06	-2.222727e-09	-3.764232e+01	-1.507849e+02
2.500000e-07	-5.285840e-06	-2.295781e-09	-3.757933e+01	-1.508495e+02
2.600000e-07	-5.276261e-06	-2.443378e-09	-3.751123e+01	-1.509126e+02
2.700000e-07	-5.265955e-06	-2.357951e-09	-3.743796e+01	-1.509721e+02
2.800000e-07	-5.255158e-06	-2.266421e-09	-3.736121e+01	-1.510264e+02
2.900000e-07	-5.243974e-06	-2.432184e-09	-3.728170e+01	-1.510737e+02
3.000000e-07	-5.232352e-06	-2.449127e-09	-3.719907e+01	-1.511124e+02
3.100000e-07	-5.220333e-06	-2.249401e-09	-3.711362e+01	-1.511408e+02
3.200000e-07	-5.207906e-06	-2.262176e-09	-3.702527e+01	-1.511577e+02
3.300000e-07	-5.195076e-06	-2.474250e-09	-3.693405e+01	-1.511617e+02
3.400000e-07	-5.181831e-06	-2.397402e-09	-3.683989e+01	-1.511518e+02
3.500000e-07	-5.168211e-06	-2.266964e-09	-3.674306e+01	-1.511273e+02
3.600000e-07	-5.154187e-06	-2.343114e-09	-3.664336e+01	-1.510873e+02
3.700000e-07	-5.139785e-06	-2.409996e-09	-3.654097e+01	-1.510316e+02
3.800000e-07	-5.125054e-06	-2.291446e-09	-3.643624e+01	-1.509599e+02
3.900000e-07	-5.109680e-06	-2.298629e-09	-3.632694e+01	-1.508723e+02
4.000000e-07	-5.093758e-06	-2.343126e-09	-3.621374e+01	-1.507690e+02
4.100000e-07	-5.077409e-06	-2.299906e-09	-3.609751e+01	-1.506504e+02
4.200000e-07	-5.060681e-06	-2.308636e-09	-3.597858e+01	-1.505172e+02
4.300000e-07	-5.043673e-06	-2.389955e-09	-3.585767e+01	-1.503702e+02
4.400000e-07	-5.026286e-06	-2.325352e-09	-3.573405e+01	-1.502104e+02
4.500000e-07	-5.008632e-06	-2.251586e-09	-3.560854e+01	-1.500388e+02
4.600000e-07	-4.990696e-06	-2.322029e-09	-3.548103e+01	-1.498567e+02
4.700000e-07	-4.972354e-06	-2.351855e-09	-3.535063e+01	-1.496654e+02
4.800000e-07	-4.953570e-06	-2.276025e-09	-3.521708e+01	-1.494662e+02
4.900000e-07	-4.934395e-06	-2.266280e-09	-3.508076e+01	-1.492605e+02
5.000000e-07	-4.914898e-06	-2.321862e-09	-3.494215e+01	-1.490497e+02
5.100000e-07	-4.895150e-06	-2.320247e-09	-3.480175e+01	-1.488349e+02
5.200000e-07	-4.875186e-06	-2.300671e-09	-3.465982e+01	-1.486177e+02
5.300000e-07	-4.854965e-06	-2.276715e-09	-3.451606e+01	-1.483990e+02
5.400000e-07	-4.834476e-06	-2.264761e-09	-3.437040e+01	-1.481801e+02
5.500000e-07	-4.813661e-06	-2.280151e-09	-3.422241e+01	-1.479619e+02
5.600000e-07	-4.792477e-06	-2.295588e-09	-3.407181e+01	-1.477451e+02
5.700000e-07	-4.770954e-06	-2.253036e-09	-3.391879e+01	-1.475306e+02
5.800000e-07	-4.749156e-06	-2.244895e-09	-3.376381e+01	-1.473187e+02
5.900000e-07	-4.727017e-06	-2.273454e-09	-3.360642e+01	-1.471099e+02
6.000000e-07	-4.704521e-06	-2.282567e-09	-3.344648e+01	-1.469043e+02
6.100000e-07	-4.681714e-06	-2.248783e-09	-3.328434e+01	-1.467020e+02
6.200000e-07	-4.658566e-06	-2.230061e-09	-3.311977e+01	-1.465027e+02
6.300000e-07	-4.635181e-06	-2.230974e-09	-3.295352e+01	-1.463063e+02
6.400000e-07	-4.611569e-06	-2.255038e-09	-3.278565e+01	-1.461122e+02
6.500000e-07	-4.587700e-06	-2.247178e-09	-3.261595e+01	-1.459200e+02
6.600000e-07	-4.563593e-06	-2.216859e-09	-3.244457e+01	-1.457289e+02
6.700000e-07	-4.539195e-06	-2.208427e-09	-3.227111e+01	-1.455382e+02
6.800000e-07	-4.514437e-06	-2.237815e-09	-3.209510e+01	-1.453471e+02
6.900000e-07	-4.489126e-06	-2.235649e-09	-3.191515e+01	-1.451547e+02
7.000000e-07	-4.463215e-06	-2.210429e-09	-3.173094e+01	-1.449602e+02
7.100000e-07	-4.436844e-06	-2.199539e-09	-3.154345e+01	-1.447626e+02
7.200000e-07	-4.410081e-06	-2.215011e-09	-3.135318e+01	-1.445612e+02
7.300000e-07	-4.382903e-06	-2.219433e-09	-3.115996e+01	-1.443550e+02
7.400000e-07	-4.355357e-06	-2.197856e-09	-3.096413e+01	-1.441434e+02
7.500000e-07	-4.327614e-06	-2.172797e-09	-3.076689e+01	-1.439256e+02
7.600000e-07	-4.299683e-06	-2.177437e-09	-3.056832e+01	-1.437011e+02
7.700000e-07	-4.271490e-06	-2.193481e-09	-3.036788e+01	-1.434693e+02
7.800000e-07	-4.243167e-06	-2.186139e-09	-3.016652e+01	-1.432299e+02
7.900000e-07	-4.214606e-06	-2.170476e-09	-2.996347e+01	-1.429827e+02
8.000000e-07	-4.185669e-06	-2.170905e-09	-2.975774e+01	-1.427276e+02
8.100000e-07	-4.156456e-06	-2.179452e-09	-2.955005e+01	-1.424644e+02
8.200000e-07	-4.126960e-06	-2.170274e-09	-2.934036e+01	-1.421934e+02
8.300000e-07	-4.097148e-06	-2.151815e-09	-2.912840e+01	-1.419147e+02
8.400000e-07	-4.067039e-06	-2.139375e-09	-2.891435e+01	-1.416288e+02
8.500000e-07	-4.036621e-06	-2.150436e-09	-2.869810e+01	-1.413360e+02
8.600000e-07	-4.005935e-06	-2.156189e-09	-2.847994e+01	-1.410369e+02
8.700000e-07	-3.975057e-06	-2.145047e-09	-2.826041e+01	-1.407321e+02
8.800000e-07	-3.943920e-06	-2.126671e-09	-2.803904e+01	-1.404222e+02
8.900000e-07	-3.912444e-06	-2.128177e-09	-2.781527e+01	-1.401079e+02
9.000000e-07	-3.880774e-06	-2.131622e-09	-2.759011e+01	-1.397900e+02
9.100000e-07	-3.849002e-06	-2.122696e-09	-2.736423e+01	-1.394690e+02
9.200000e-07	-3.817060e-06	-2.102511e-09	-2.713714e+01	-1.391458e+02
9.300000e-07	-3.784947e-06	-2.100420e-09	-2.690884e+01	-1.388210e+02
9.400000e-07	-3.752596e-06	-2.106738e-09	-2.667884e+01	-1.384951e+02
9.500000e-07	-3.719898e-06	-2.106000e-09	-2.644638e+01	-1.381688e+02
9.600000e-07	-3.686739e-06	-2.090778e-09	-2.621063e+01	-1.378426e+02
9.700000e-07	-3.653174e-06	-2.085464e-09	-2.597201e+01	-1.375167e+02
9.800000e-07	-3.619193e-06	-2.088624e-09	-2.573042e+01	-1.371916e+02
9.900000e-07	-3.584769e-06	-2.084215e-09	-2.548568e+01	-1.368674e+02
1.000000e-06	-3.550019e-06	-2.065617e-09	-2.523863e+01	-1.365441e+02
1.010000e-06	-3.514954e-06	-2.051827e-09	-2.498934e+01	-1.362219e+02
1.020000e-06	-3.479631e-06	-2.049184e-09	-2.473821e+01	-1.359004e+02
1.030000e-06	-3.444054e-06	-2.048605e-09	-2.448528e+01	-1.355795e+02
1.040000e-06	-3.408264e-06	-2.041285e-09	-2.423083e+01	-1.352589e+02
1.050000e-06	-3.372401e-06	-2.032879e-09	-2.397586e+01	-1.349382e+02
1.060000e-06	-3.336426e-06	-2.031157e-09	-2.372010e+01	-1.346167e+02
1.070000e-06	-3.300237e-06	-2.029987e-09	-2.346282e+01	-1.342939e+02
1.080000e-06	-3.263814e-06	-2.020124e-09	-2.320387e+01	-1.339692e+02
1.090000e-06	-3.227169e-06	-2.003775e-09	-2.294335e+01	-1.336419e+02
1.100000e-06	-3.190275e-06	-1.994304e-09	-2.268105e+01	-1.333111e+02
1.110000e-06	-3.153182e-06	-1.995653e-09	-2.241734e+01	-1.329762e+02
1.120000e-06	-3.115882e-06	-1.995485e-09	-2.215216e+01	-1.326363e+02
1.130000e-06	-3.078411e-06	-1.987053e-09	-2.188576e+01	-1.322907e+02
1.140000e-06	-3.040683e-06	-1.983002e-09	-2.161754e+01	-1.319386e+02
1.150000e-06	-3.002644e-06	-1.980841e-09	-2.134710e+01	-1.315792e+02
1.160000e-06	-2.964488e-06	-1.971695e-09	-2.107584e+01	-1.312119e+02
1.170000e-06	-2.926244e-06	-1.951801e-09	-2.080394e+01	-1.308360e+02
1.180000e-06	-2.887808e-06	-1.934251e-09	-2.053068e+01	-1.304509e+02
1.190000e-06	-2.849046e-06	-1.925763e-09	-2.025511e+01	-1.300560e+02
1.200000e-06	-2.809983e-06	-1.927450e-09	-1.997739e+01	-1.296508e+02
1.210000e-06	-2.770716e-06	-1.924121e-09	-1.969822e+01	-1.292350e+02
1.220000e-06	-2.731306e-06	-1.920262e-09	-1.941804e+01	-1.288081e+02
1.230000e-06	-2.691733e-06	-1.915228e-09	-1.913670e+01	-1.283699e+02
1.240000e-06	-2.651974e-06	-1.909044e-09	-1.885404e+01	-1.279202e+02
1.250000e-06	-2.612171e-06	-1.895213e-09	-1.857106e+01	-1.274588e+02
1.260000e-06	-2.572286e-06	-1.879611e-09	-1.828750e+01	-1.269855e+02
1.270000e-06	-2.532301e-06	-1.869336e-09	-1.800323e+01	-1.265005e+02
1.280000e-06	-2.492231e-06	-1.866695e-09	-1.771835e+01	-1.260035e+02
1.290000e-06	-2.451891e-06	-1.864730e-09	-1.743156e+01	-1.254947e+02
1.300000e-06	-2.411416e-06	-1.857952e-09	-1.714380e+01	-1.249741e+02
1.310000e-06	-2.370845e-06	-1.847319e-09	-1.685537e+01	-1.244418e+02
1.320000e-06	-2.330035e-06	-1.836531e-09	-1.656523e+01	-1.238979e+02
1.330000e-06	-2.288936e-06	-1.823549e-09	-1.627305e+01	-1.233424e+02
1.340000e-06	-2.247500e-06	-1.810057e-09	-1.597846e+01	-1.227755e+02
1.350000e-06	-2.205875e-06	-1.801630e-09	-1.568253e+01	-1.221972e+02
1.360000e-06	-2.164010e-06	-1.796346e-09	-1.538489e+01	-1.216076e+02
1.370000e-06	-2.121778e-06	-1.790769e-09	-1.508464e+01	-1.210067e+02
1.380000e-06	-2.079282e-06	-1.782337e-09	-1.478252e+01	-1.203945e+02
1.390000e-06	-2.036519e-06	-1.771242e-09	-1.447850e+01	-1.197710e+02
1.400000e-06	-1.993534e-06	-1.757384e-09	-1.417290e+01	-1.191360e+02
1.410000e-06	-1.950426e-06	-1.744180e-09	-1.386643e+01	-1.184896e+02
1.420000e-06	-1.907186e-06	-1.729422e-09	-1.355901e+01	-1.178315e+02
1.430000e-06	-1.863820e-06	-1.714537e-09	-1.325071e+01	-1.171615e+02
1.440000e-06	-1.820346e-06	-1.699741e-09	-1.294163e+01	-1.164795e+02
1.450000e-06	-1.776747e-06	-1.690813e-09	-1.263167e+01	-1.157850e+02
1.460000e-06	-1.733052e-06	-1.687905e-09	-1.232102e+01	-1.150779e+02
1.470000e-06	-1.689300e-06	-1.681257e-09	-1.200997e+01	-1.143576e+02
1.480000e-06	-1.645500e-06	-1.666486e-09	-1.169858e+01	-1.136239e+02
1.490000e-06	-1.601632e-06	-1.649347e-09	-1.138670e+01	-1.128762e+02
1.500000e-06	-1.557634e-06	-1.633851e-09	-1.107389e+01	-1.121141e+02
1.510000e-06	-1.513502e-06	-1.621761e-09	-1.076014e+01	-1.113371e+02
1.520000e-06	-1.469293e-06	-1.611187e-09	-1.044584e+01	-1.105446e+02
1.530000e-06	-1.425036e-06	-1.600353e-09	-1.013120e+01	-1.097361e+02
1.540000e-06	-1.380733e-06	-1.590168e-09	-9.816234e+00	-1.089109e+02
1.550000e-06	-1.336322e-06	-1.581894e-09	-9.500494e+00	-1.080683e+02
1.560000e-06	-1.291804e-06	-1.570296e-09	-9.183994e+00	-1.072077e+02
1.570000e-06	-1.247303e-06	-1.551156e-09	-8.867619e+00	-1.063285e+02
1.580000e-06	-1.202705e-06	-1.532271e-09	-8.550554e+00	-1.054297e+02
1.590000e-06	-1.157928e-06	-1.520734e-09	-8.232211e+00	-1.045107e+02
1.600000e-06	-1.113047e-06	-1.510320e-09	-7.913138e+00	-1.035707e+02
1.610000e-06	-1.068093e-06	-1.497202e-09	-7.593539e+00	-1.026086e+02
1.620000e-06	-1.023059e-06	-1.483188e-09	-7.273372e+00	-1.016238e+02
1.630000e-06	-9.779297e-07	-1.471781e-09	-6.952527e+00	-1.006152e+02
1.640000e-06	-9.327266e-07	-1.455162e-09	-6.631159e+00	-9.958174e+01
1.650000e-06	-8.874963e-07	-1.430837e-09	-6.309597e+00	-9.852250e+01
1.660000e-06	-8.422000e-07	-1.407717e-09	-5.987566e+00	-9.743635e+01
1.670000e-06	-7.968239e-07	-1.391565e-09	-5.664968e+00	-9.632215e+01
1.680000e-06	-7.514378e-07	-1.377939e-09	-5.342298e+00	-9.517873e+01
1.690000e-06	-7.059968e-07	-1.362027e-09	-5.019238e+00	-9.400486e+01
1.700000e-06	-6.604768e-07	-1.341353e-09	-4.695617e+00	-9.279928e+01
1.710000e-06	-6.149131e-07	-1.319960e-09	-4.371685e+00	-9.156067e+01
1.720000e-06	-5.693663e-07	-1.299296e-09	-4.047873e+00	-9.028771e+01
1.730000e-06	-5.237834e-07	-1.275996e-09	-3.723804e+00	-8.897902e+01
1.740000e-06	-4.781051e-07	-1.251939e-09	-3.399057e+00	-8.763322e+01
1.750000e-06	-4.324243e-07	-1.231070e-09	-3.074293e+00	-8.624893e+01
1.760000e-06	-3.867394e-07	-1.215564e-09	-2.749498e+00	-8.482474e+01
1.770000e-06	-3.410447e-07	-1.197990e-09	-2.424635e+00	-8.335928e+01
1.780000e-06	-2.953001e-07	-1.174974e-09	-2.099417e+00	-8.185118e+01
1.790000e-06	-2.494495e-07	-1.148462e-09	-1.773445e+00	-8.029913e+01
1.800000e-06	-2.035822e-07	-1.121497e-09	-1.447355e+00	-7.870184e+01
1.810000e-06	-1.577831e-07	-1.092711e-09	-1.121749e+00	-7.705811e+01
1.820000e-06	-1.119957e-07	-1.062413e-09	-7.962260e-01	-7.536680e+01
1.830000e-06	-6.615485e-08	-1.033708e-09	-4.703236e-01	-7.362686e+01
1.840000e-06	-2.027657e-08	-1.009854e-09	-1.441549e-01	-7.183736e+01
1.850000e-06	2.557637e-08	-9.884730e-10	1.818336e-01	-6.999747e+01
1.860000e-06	7.140849e-08	-9.643722e-10	5.076740e-01	-6.810649e+01
1.870000e-06	1.172617e-07	-9.338448e-10	8.336648e-01	-6.616388e+01
1.880000e-06	1.630430e-07	-9.018006e-10	1.159144e+00	-6.416923e+01
1.890000e-06	2.087723e-07	-8.684815e-10	1.484253e+00	-6.212230e+01
1.900000e-06	2.545102e-07	-8.310868e-10	1.809424e+00	-6.002303e+01
1.910000e-06	3.002675e-07	-7.935730e-10	2.134732e+00	-5.787151e+01
1.920000e-06	3.460166e-07	-7.622693e-10	2.459982e+00	-5.566803e+01
1.930000e-06	3.916898e-07	-7.355421e-10	2.784693e+00	-5.341304e+01
1.940000e-06	4.373399e-07	-7.082253e-10	3.109239e+00	-5.110721e+01
1.950000e-06	4.830113e-07	-6.756023e-10	3.433938e+00	-4.875135e+01
1.960000e-06	5.286734e-07	-6.397993e-10	3.758569e+00	-4.634647e+01
1.970000e-06	5.741510e-07	-6.028911e-10	4.081889e+00	-4.389375e+01
1.980000e-06	6.195555e-07	-5.627507e-10	4.404689e+00	-4.139453e+01
1.990000e-06	6.650176e-07	-5.190945e-10	4.727899e+00	-3.885034e+01
2.000000e-06	7.103847e-07	-4.773844e-10	5.050434e+00	-3.626281e+01
2.010000e-06	7.557270e-07	-4.423941e-10	5.372792e+00	-3.363376e+01
2.020000e-06	8.010101e-07	-4.106388e-10	5.694729e+00	-3.096512e+01
2.030000e-06	8.462044e-07	-3.761309e-10	6.016035e+00	-2.825894e+01
2.040000e-06	8.913515e-07	-3.366481e-10	6.337006e+00	-2.551737e+01
2.050000e-06	9.364659e-07	-2.956251e-10	6.657743e+00	-2.274266e+01
2.060000e-06	9.815574e-07	-2.528460e-10	6.978318e+00	-1.993715e+01
2.070000e-06	1.026583e-06	-2.074040e-10	7.298425e+00	-1.710324e+01
2.080000e-06	1.071488e-06	-1.616835e-10	7.617675e+00	-1.424338e+01
2.090000e-06	1.116225e-06	-1.199565e-10	7.935733e+00	-1.136009e+01
2.100000e-06	1.160931e-06	-8.203331e-11	8.253564e+00	-8.455890e+00
2.110000e-06	1.205647e-06	-4.370563e-11	8.571472e+00	-5.533356e+00
2.120000e-06	1.250189e-06	-2.402998e-12	8.888139e+00	-2.595063e+00
2.130000e-06	1.294577e-06	3.845604e-11	9.203712e+00	3.564048e-01
2.140000e-06	1.338925e-06	8.043331e-11	9.519000e+00	3.318463e+00
2.150000e-06	1.383213e-06	1.253673e-10	9.833864e+00	6.288534e+00
2.160000e-06	1.427401e-06	1.726838e-10	1.014801e+01	9.264052e+00
2.170000e-06	1.471496e-06	2.196151e-10	1.046151e+01	1.224247e+01
2.180000e-06	1.515559e-06	2.629298e-10	1.077477e+01	1.522126e+01
2.190000e-06	1.559576e-06	3.037620e-10	1.108770e+01	1.819791e+01
2.200000e-06	1.603519e-06	3.437626e-10	1.140011e+01	2.116995e+01
2.210000e-06	1.647415e-06	3.836111e-10	1.171219e+01	2.413493e+01
2.220000e-06	1.691271e-06	4.251154e-10	1.202398e+01	2.709041e+01
2.230000e-06	1.735088e-06	4.695502e-10	1.233549e+01	3.003401e+01
2.240000e-06	1.778845e-06	5.163737e-10	1.264658e+01	3.296337e+01
2.250000e-06	1.822522e-06	5.616049e-10	1.295711e+01	3.587614e+01
2.260000e-06	1.866076e-06	6.038077e-10	1.326674e+01	3.877003e+01
2.270000e-06	1.909450e-06	6.434400e-10	1.357511e+01	4.164279e+01
2.280000e-06	1.952711e-06	6.824168e-10	1.388267e+01	4.449218e+01
2.290000e-06	1.995830e-06	7.241215e-10	1.418923e+01	4.731602e+01
2.300000e-06	2.038775e-06	7.676916e-10	1.449454e+01	5.011217e+01
2.310000e-06	2.081448e-06	8.100597e-10	1.479792e+01	5.287854e+01
2.320000e-06	2.123739e-06	8.495532e-10	1.509859e+01	5.561310e+01
2.330000e-06	2.165795e-06	8.866933e-10	1.539758e+01	5.831385e+01
2.340000e-06	2.207601e-06	9.210015e-10	1.569479e+01	6.097889e+01
2.350000e-06	2.249196e-06	9.522851e-10	1.599051e+01	6.360638e+01
2.360000e-06	2.290513e-06	9.852852e-10	1.628425e+01	6.619454e+01
2.370000e-06	2.331370e-06	1.023806e-09	1.657472e+01	6.874171e+01
2.380000e-06	2.371940e-06	1.065272e-09	1.686315e+01	7.124630e+01
2.390000e-06	2.412450e-06	1.104404e-09	1.715115e+01	7.370683e+01
2.400000e-06	2.452939e-06	1.138615e-09	1.743901e+01	7.612193e+01
2.410000e-06	2.493232e-06	1.170114e-09	1.772547e+01	7.849034e+01
2.420000e-06	2.533279e-06	1.200476e-09	1.801018e+01	8.081092e+01
2.430000e-06	2.573186e-06	1.229544e-09	1.829390e+01	8.308268e+01
2.440000e-06	2.612976e-06	1.257906e-09	1.857678e+01	8.530475e+01
2.450000e-06	2.652637e-06	1.287550e-09	1.885875e+01	8.747638e+01
2.460000e-06	2.692182e-06	1.320450e-09	1.913989e+01	8.959700e+01
2.470000e-06	2.731554e-06	1.355218e-09	1.941980e+01	9.166616e+01
2.480000e-06	2.770773e-06	1.386206e-09	1.969863e+01	9.368356e+01
2.490000e-06	2.809928e-06	1.414253e-09	1.997700e+01	9.564903e+01
2.500000e-06	2.848855e-06	1.442278e-09	2.025375e+01	9.756255e+01
2.510000e-06	2.887561e-06	1.468491e-09	2.052893e+01	9.942425e+01
2.520000e-06	2.925969e-06	1.492876e-09	2.080198e+01	1.012344e+02
2.530000e-06	2.964095e-06	1.519326e-09	2.107304e+01	1.029933e+02
2.540000e-06	3.002193e-06	1.547415e-09	2.134390e+01	1.047015e+02
2.550000e-06	3.040119e-06	1.573541e-09	2.161353e+01	1.063596e+02
2.560000e-06	3.077813e-06	1.596469e-09	2.188151e+01	1.079682e+02
2.570000e-06	3.115327e-06	1.616864e-09	2.214821e+01	1.095283e+02
2.580000e-06	3.152652e-06	1.636780e-09	2.241357e+01	1.110406e+02
2.590000e-06	3.189686e-06	1.655953e-09	2.267687e+01	1.125060e+02
2.600000e-06	3.226439e-06	1.673118e-09	2.293816e+01	1.139256e+02
2.610000e-06	3.263006e-06	1.691538e-09	2.319813e+01	1.153003e+02
2.620000e-06	3.299321e-06	1.714267e-09	2.345631e+01	1.166313e+02
2.630000e-06	3.335440e-06	1.736620e-09	2.371309e+01	1.179195e+02
2.640000e-06	3.371453e-06	1.753551e-09	2.396913e+01	1.191662e+02
2.650000e-06	3.407334e-06	1.766430e-09	2.422422e+01	1.203723e+02
2.660000e-06	3.443064e-06	1.779732e-09	2.447824e+01	1.215390e+02
2.670000e-06	3.478668e-06	1.795695e-09	2.473136e+01	1.226673e+02
2.680000e-06	3.514063e-06	1.812174e-09	2.498300e+01	1.237583e+02
2.690000e-06	3.549104e-06	1.827280e-09	2.523212e+01	1.248129e+02
2.700000e-06	3.583737e-06	1.843307e-09	2.547835e+01	1.258323e+02
2.710000e-06	3.618064e-06	1.862035e-09	2.572239e+01	1.268172e+02
2.720000e-06	3.652061e-06	1.878745e-09	2.596409e+01	1.277687e+02
2.730000e-06	3.685495e-06	1.890710e-09	2.620179e+01	1.286877e+02
2.740000e-06	3.718455e-06	1.898877e-09	2.643611e+01	1.295750e+02
2.750000e-06	3.751107e-06	1.908302e-09	2.666825e+01	1.304314e+02
2.760000e-06	3.783438e-06	1.920281e-09	2.689810e+01	1.312578e+02
2.770000e-06	3.815516e-06	1.928251e-09	2.712617e+01	1.320550e+02
2.780000e-06	3.847425e-06	1.936230e-09	2.735302e+01	1.328236e+02
2.790000e-06	3.879234e-06	1.949821e-09	2.757916e+01	1.335646e+02
2.800000e-06	3.910941e-06	1.965248e-09	2.780458e+01	1.342786e+02
2.810000e-06	3.942420e-06	1.977178e-09	2.802838e+01	1.349665e+02
2.820000e-06	3.973691e-06	1.983313e-09	2.825070e+01	1.356288e+02
2.830000e-06	4.004627e-06	1.987614e-09	2.847064e+01	1.362665e+02
2.840000e-06	4.035161e-06	1.994139e-09	2.868771e+01	1.368802e+02
2.850000e-06	4.065398e-06	1.999806e-09	2.890268e+01	1.374708e+02
2.860000e-06	4.095322e-06	2.004385e-09	2.911542e+01	1.380390e+02
2.870000e-06	4.125030e-06	2.012638e-09	2.932663e+01	1.385857e+02
2.880000e-06	4.154469e-06	2.024100e-09	2.953593e+01	1.391116e+02
2.890000e-06	4.183637e-06	2.032028e-09	2.974329e+01	1.396175e+02
2.900000e-06	4.212584e-06	2.036081e-09	2.994909e+01	1.401044e+02
