# Temperatura_=_19.6
# Concentracion g/m^3_=_4090.0
# C_Vs_to_Am_M_A/Vsm_=_65563218390.804596
# pendiente_HvsI_1/m_=_3716.3
# ordenada_HvsI_A/m_=_1297.0
# frecuencia_Hz_=_135077.96203125187

Tiempo_(s)	Campo_(V.s)	Magnetizacion_(V.s)	Campo_(kA/m)	Magnetizacion_(A/m)
0.000000e+00	-5.376798e-06	-2.255407e-09	-3.839259e+01	-1.506564e+02
1.000000e-08	-5.376973e-06	-2.253267e-09	-3.839384e+01	-1.505327e+02
2.000000e-08	-5.376922e-06	-2.253506e-09	-3.839347e+01	-1.504110e+02
3.000000e-08	-5.376493e-06	-2.251055e-09	-3.839041e+01	-1.502932e+02
4.000000e-08	-5.375553e-06	-2.246378e-09	-3.838370e+01	-1.501813e+02
5.000000e-08	-5.374063e-06	-2.244580e-09	-3.837306e+01	-1.500772e+02
6.000000e-08	-5.371950e-06	-2.239260e-09	-3.835797e+01	-1.499826e+02
7.000000e-08	-5.369177e-06	-2.216203e-09	-3.833817e+01	-1.498993e+02
8.000000e-08	-5.365896e-06	-2.213088e-09	-3.831474e+01	-1.498286e+02
9.000000e-08	-5.362136e-06	-2.299993e-09	-3.828789e+01	-1.497720e+02
1.000000e-07	-5.357925e-06	-2.377498e-09	-3.825783e+01	-1.497304e+02
1.100000e-07	-5.353564e-06	-2.270241e-09	-3.822669e+01	-1.497047e+02
1.200000e-07	-5.349150e-06	-2.168908e-09	-3.819517e+01	-1.496954e+02
1.300000e-07	-5.344456e-06	-2.243130e-09	-3.816165e+01	-1.497027e+02
1.400000e-07	-5.339228e-06	-2.366709e-09	-3.812432e+01	-1.497267e+02
1.500000e-07	-5.333565e-06	-2.243492e-09	-3.808389e+01	-1.497669e+02
1.600000e-07	-5.327739e-06	-2.100251e-09	-3.804229e+01	-1.498228e+02
1.700000e-07	-5.321519e-06	-2.258519e-09	-3.799787e+01	-1.498934e+02
1.800000e-07	-5.314762e-06	-2.443622e-09	-3.794963e+01	-1.499774e+02
1.900000e-07	-5.307618e-06	-2.352392e-09	-3.789861e+01	-1.500734e+02
2.000000e-07	-5.300224e-06	-2.231734e-09	-3.784582e+01	-1.501796e+02
2.100000e-07	-5.292544e-06	-2.349361e-09	-3.779098e+01	-1.502943e+02
2.200000e-07	-5.284620e-06	-2.426059e-09	-3.773440e+01	-1.504151e+02
2.300000e-07	-5.276518e-06	-2.325621e-09	-3.767655e+01	-1.505399e+02
2.400000e-07	-5.268123e-06	-2.318596e-09	-3.761661e+01	-1.506664e+02
2.500000e-07	-5.259027e-06	-2.457553e-09	-3.755165e+01	-1.507921e+02
2.600000e-07	-5.249013e-06	-2.449361e-09	-3.748015e+01	-1.509145e+02
2.700000e-07	-5.238398e-06	-2.366483e-09	-3.740435e+01	-1.510313e+02
2.800000e-07	-5.227374e-06	-2.424130e-09	-3.732564e+01	-1.511401e+02
2.900000e-07	-5.216032e-06	-2.479636e-09	-3.724465e+01	-1.512386e+02
3.000000e-07	-5.204309e-06	-2.357507e-09	-3.716094e+01	-1.513247e+02
3.100000e-07	-5.192178e-06	-2.322202e-09	-3.707432e+01	-1.513964e+02
3.200000e-07	-5.179700e-06	-2.451311e-09	-3.698522e+01	-1.514519e+02
3.300000e-07	-5.166849e-06	-2.453565e-09	-3.689346e+01	-1.514898e+02
3.400000e-07	-5.153562e-06	-2.323765e-09	-3.679859e+01	-1.515087e+02
3.500000e-07	-5.139789e-06	-2.350787e-09	-3.670025e+01	-1.515075e+02
3.600000e-07	-5.125654e-06	-2.428035e-09	-3.659931e+01	-1.514857e+02
3.700000e-07	-5.111201e-06	-2.374462e-09	-3.649611e+01	-1.514426e+02
3.800000e-07	-5.096140e-06	-2.324376e-09	-3.638857e+01	-1.513782e+02
3.900000e-07	-5.080421e-06	-2.372193e-09	-3.627633e+01	-1.512924e+02
4.000000e-07	-5.064151e-06	-2.367330e-09	-3.616016e+01	-1.511857e+02
4.100000e-07	-5.047564e-06	-2.341096e-09	-3.604172e+01	-1.510587e+02
4.200000e-07	-5.030721e-06	-2.370895e-09	-3.592145e+01	-1.509123e+02
4.300000e-07	-5.013575e-06	-2.356608e-09	-3.579902e+01	-1.507475e+02
4.400000e-07	-4.996190e-06	-2.307823e-09	-3.567489e+01	-1.505655e+02
4.500000e-07	-4.978489e-06	-2.336541e-09	-3.554849e+01	-1.503678e+02
4.600000e-07	-4.960442e-06	-2.374986e-09	-3.541963e+01	-1.501559e+02
4.700000e-07	-4.942066e-06	-2.331146e-09	-3.528842e+01	-1.499314e+02
4.800000e-07	-4.923263e-06	-2.310516e-09	-3.515416e+01	-1.496960e+02
4.900000e-07	-4.904051e-06	-2.339585e-09	-3.501697e+01	-1.494514e+02
5.000000e-07	-4.884555e-06	-2.345211e-09	-3.487777e+01	-1.491992e+02
5.100000e-07	-4.864863e-06	-2.317401e-09	-3.473716e+01	-1.489412e+02
5.200000e-07	-4.844986e-06	-2.305227e-09	-3.459523e+01	-1.486788e+02
5.300000e-07	-4.824837e-06	-2.303006e-09	-3.445136e+01	-1.484135e+02
5.400000e-07	-4.804389e-06	-2.318836e-09	-3.430535e+01	-1.481468e+02
5.500000e-07	-4.783512e-06	-2.321503e-09	-3.415628e+01	-1.478797e+02
5.600000e-07	-4.762224e-06	-2.300003e-09	-3.400427e+01	-1.476134e+02
5.700000e-07	-4.740645e-06	-2.286854e-09	-3.385019e+01	-1.473487e+02
5.800000e-07	-4.718831e-06	-2.303859e-09	-3.369443e+01	-1.470862e+02
5.900000e-07	-4.696742e-06	-2.297597e-09	-3.353671e+01	-1.468266e+02
6.000000e-07	-4.674265e-06	-2.277597e-09	-3.337621e+01	-1.465701e+02
6.100000e-07	-4.651398e-06	-2.266030e-09	-3.321293e+01	-1.463168e+02
6.200000e-07	-4.628258e-06	-2.265912e-09	-3.304770e+01	-1.460668e+02
6.300000e-07	-4.604857e-06	-2.271244e-09	-3.288061e+01	-1.458198e+02
6.400000e-07	-4.581213e-06	-2.273214e-09	-3.271178e+01	-1.455755e+02
6.500000e-07	-4.557356e-06	-2.251705e-09	-3.254143e+01	-1.453335e+02
6.600000e-07	-4.533242e-06	-2.239736e-09	-3.236925e+01	-1.450931e+02
6.700000e-07	-4.508789e-06	-2.252135e-09	-3.219464e+01	-1.448538e+02
6.800000e-07	-4.483835e-06	-2.252276e-09	-3.201646e+01	-1.446147e+02
6.900000e-07	-4.458303e-06	-2.234180e-09	-3.183415e+01	-1.443752e+02
7.000000e-07	-4.432297e-06	-2.229164e-09	-3.164845e+01	-1.441344e+02
7.100000e-07	-4.405878e-06	-2.236867e-09	-3.145982e+01	-1.438916e+02
7.200000e-07	-4.378941e-06	-2.236119e-09	-3.126747e+01	-1.436459e+02
7.300000e-07	-4.351647e-06	-2.223006e-09	-3.107258e+01	-1.433967e+02
7.400000e-07	-4.324170e-06	-2.207372e-09	-3.087638e+01	-1.431432e+02
7.500000e-07	-4.296498e-06	-2.208548e-09	-3.067879e+01	-1.428849e+02
7.600000e-07	-4.268659e-06	-2.217468e-09	-3.048001e+01	-1.426212e+02
7.700000e-07	-4.240618e-06	-2.212623e-09	-3.027979e+01	-1.423517e+02
7.800000e-07	-4.212281e-06	-2.198864e-09	-3.007745e+01	-1.420760e+02
7.900000e-07	-4.183574e-06	-2.199929e-09	-2.987247e+01	-1.417940e+02
8.000000e-07	-4.154561e-06	-2.203471e-09	-2.966530e+01	-1.415054e+02
8.100000e-07	-4.125270e-06	-2.195850e-09	-2.945616e+01	-1.412102e+02
8.200000e-07	-4.095732e-06	-2.180990e-09	-2.924524e+01	-1.409084e+02
8.300000e-07	-4.065986e-06	-2.175446e-09	-2.903284e+01	-1.406003e+02
8.400000e-07	-4.035959e-06	-2.178249e-09	-2.881844e+01	-1.402860e+02
8.500000e-07	-4.005661e-06	-2.182225e-09	-2.860209e+01	-1.399658e+02
8.600000e-07	-3.975106e-06	-2.171077e-09	-2.838392e+01	-1.396399e+02
8.700000e-07	-3.944271e-06	-2.160343e-09	-2.816375e+01	-1.393089e+02
8.800000e-07	-3.913155e-06	-2.155340e-09	-2.794157e+01	-1.389731e+02
8.900000e-07	-3.881769e-06	-2.156263e-09	-2.771745e+01	-1.386328e+02
9.000000e-07	-3.850247e-06	-2.151280e-09	-2.749237e+01	-1.382885e+02
9.100000e-07	-3.818627e-06	-2.142786e-09	-2.726660e+01	-1.379407e+02
9.200000e-07	-3.786798e-06	-2.139198e-09	-2.703932e+01	-1.375896e+02
9.300000e-07	-3.754672e-06	-2.139523e-09	-2.680993e+01	-1.372356e+02
9.400000e-07	-3.722261e-06	-2.131931e-09	-2.657850e+01	-1.368790e+02
9.500000e-07	-3.689570e-06	-2.117505e-09	-2.634508e+01	-1.365200e+02
9.600000e-07	-3.656546e-06	-2.107931e-09	-2.610927e+01	-1.361588e+02
9.700000e-07	-3.623140e-06	-2.108721e-09	-2.587073e+01	-1.357955e+02
9.800000e-07	-3.589243e-06	-2.106708e-09	-2.562870e+01	-1.354302e+02
9.900000e-07	-3.555014e-06	-2.093876e-09	-2.538429e+01	-1.350628e+02
1.000000e-06	-3.520366e-06	-2.081401e-09	-2.513688e+01	-1.346933e+02
1.010000e-06	-3.485268e-06	-2.075461e-09	-2.488627e+01	-1.343216e+02
1.020000e-06	-3.449952e-06	-2.067674e-09	-2.463410e+01	-1.339474e+02
1.030000e-06	-3.414439e-06	-2.053500e-09	-2.438052e+01	-1.335705e+02
1.040000e-06	-3.378770e-06	-2.046814e-09	-2.412583e+01	-1.331906e+02
1.050000e-06	-3.342963e-06	-2.046676e-09	-2.387016e+01	-1.328075e+02
1.060000e-06	-3.307051e-06	-2.045693e-09	-2.361373e+01	-1.324208e+02
1.070000e-06	-3.270911e-06	-2.036520e-09	-2.335568e+01	-1.320301e+02
1.080000e-06	-3.234515e-06	-2.024457e-09	-2.309579e+01	-1.316351e+02
1.090000e-06	-3.197875e-06	-2.012850e-09	-2.283417e+01	-1.312354e+02
1.100000e-06	-3.160935e-06	-2.004127e-09	-2.257040e+01	-1.308306e+02
1.110000e-06	-3.123822e-06	-1.992982e-09	-2.230540e+01	-1.304205e+02
1.120000e-06	-3.086515e-06	-1.980925e-09	-2.203901e+01	-1.300047e+02
1.130000e-06	-3.048927e-06	-1.970844e-09	-2.177062e+01	-1.295828e+02
1.140000e-06	-3.011160e-06	-1.967632e-09	-2.150094e+01	-1.291547e+02
1.150000e-06	-2.973325e-06	-1.962729e-09	-2.123079e+01	-1.287201e+02
1.160000e-06	-2.935337e-06	-1.953436e-09	-2.095954e+01	-1.282788e+02
1.170000e-06	-2.897070e-06	-1.945320e-09	-2.068629e+01	-1.278306e+02
1.180000e-06	-2.858524e-06	-1.940547e-09	-2.041106e+01	-1.273752e+02
1.190000e-06	-2.819803e-06	-1.931590e-09	-2.013457e+01	-1.269127e+02
1.200000e-06	-2.780870e-06	-1.915824e-09	-1.985658e+01	-1.264428e+02
1.210000e-06	-2.741666e-06	-1.902528e-09	-1.957664e+01	-1.259654e+02
1.220000e-06	-2.702390e-06	-1.898601e-09	-1.929620e+01	-1.254804e+02
1.230000e-06	-2.662987e-06	-1.895932e-09	-1.901484e+01	-1.249877e+02
1.240000e-06	-2.623402e-06	-1.887625e-09	-1.873219e+01	-1.244871e+02
1.250000e-06	-2.583724e-06	-1.878521e-09	-1.844887e+01	-1.239786e+02
1.260000e-06	-2.543926e-06	-1.871230e-09	-1.816469e+01	-1.234620e+02
1.270000e-06	-2.503996e-06	-1.862868e-09	-1.787958e+01	-1.229370e+02
1.280000e-06	-2.463979e-06	-1.850065e-09	-1.759384e+01	-1.224036e+02
1.290000e-06	-2.423899e-06	-1.835492e-09	-1.730765e+01	-1.218613e+02
1.300000e-06	-2.383670e-06	-1.823696e-09	-1.702040e+01	-1.213101e+02
1.310000e-06	-2.343224e-06	-1.819088e-09	-1.673160e+01	-1.207494e+02
1.320000e-06	-2.302563e-06	-1.813217e-09	-1.644126e+01	-1.201791e+02
1.330000e-06	-2.261644e-06	-1.802881e-09	-1.614908e+01	-1.195987e+02
1.340000e-06	-2.220352e-06	-1.792560e-09	-1.585425e+01	-1.190079e+02
1.350000e-06	-2.178718e-06	-1.784099e-09	-1.555696e+01	-1.184061e+02
1.360000e-06	-2.136837e-06	-1.771253e-09	-1.525791e+01	-1.177929e+02
1.370000e-06	-2.094685e-06	-1.754670e-09	-1.495693e+01	-1.171680e+02
1.380000e-06	-2.052247e-06	-1.741211e-09	-1.465390e+01	-1.165307e+02
1.390000e-06	-2.009653e-06	-1.735080e-09	-1.434976e+01	-1.158806e+02
1.400000e-06	-1.966867e-06	-1.730187e-09	-1.404425e+01	-1.152173e+02
1.410000e-06	-1.923848e-06	-1.722972e-09	-1.373708e+01	-1.145403e+02
1.420000e-06	-1.880665e-06	-1.713756e-09	-1.342874e+01	-1.138492e+02
1.430000e-06	-1.837320e-06	-1.701501e-09	-1.311923e+01	-1.131435e+02
1.440000e-06	-1.793869e-06	-1.684400e-09	-1.280897e+01	-1.124229e+02
1.450000e-06	-1.750368e-06	-1.667497e-09	-1.249836e+01	-1.116871e+02
1.460000e-06	-1.706792e-06	-1.653371e-09	-1.218721e+01	-1.109357e+02
1.470000e-06	-1.663129e-06	-1.640783e-09	-1.187544e+01	-1.101684e+02
1.480000e-06	-1.619425e-06	-1.629877e-09	-1.156337e+01	-1.093852e+02
1.490000e-06	-1.575648e-06	-1.619709e-09	-1.125079e+01	-1.085856e+02
1.500000e-06	-1.531789e-06	-1.608628e-09	-1.093761e+01	-1.077697e+02
1.510000e-06	-1.487853e-06	-1.596316e-09	-1.062389e+01	-1.069373e+02
1.520000e-06	-1.443793e-06	-1.581913e-09	-1.030928e+01	-1.060881e+02
1.530000e-06	-1.399690e-06	-1.565356e-09	-9.994369e+00	-1.052223e+02
1.540000e-06	-1.355522e-06	-1.547822e-09	-9.678997e+00	-1.043395e+02
1.550000e-06	-1.311288e-06	-1.531635e-09	-9.363144e+00	-1.034398e+02
1.560000e-06	-1.267033e-06	-1.520753e-09	-9.047149e+00	-1.025228e+02
1.570000e-06	-1.222753e-06	-1.509681e-09	-8.730969e+00	-1.015885e+02
1.580000e-06	-1.178355e-06	-1.498370e-09	-8.413950e+00	-1.006364e+02
1.590000e-06	-1.133814e-06	-1.485717e-09	-8.095904e+00	-9.966642e+01
1.600000e-06	-1.089219e-06	-1.469307e-09	-7.777477e+00	-9.867796e+01
1.610000e-06	-1.044556e-06	-1.449537e-09	-7.458570e+00	-9.767053e+01
1.620000e-06	-9.998137e-07	-1.430442e-09	-7.139088e+00	-9.664347e+01
1.630000e-06	-9.549993e-07	-1.413336e-09	-6.819095e+00	-9.559603e+01
1.640000e-06	-9.100819e-07	-1.397817e-09	-6.498366e+00	-9.452730e+01
1.650000e-06	-8.650198e-07	-1.384288e-09	-6.176603e+00	-9.343626e+01
1.660000e-06	-8.198689e-07	-1.372613e-09	-5.854207e+00	-9.232172e+01
1.670000e-06	-7.746417e-07	-1.359335e-09	-5.531266e+00	-9.118238e+01
1.680000e-06	-7.294361e-07	-1.338799e-09	-5.208479e+00	-9.001680e+01
1.690000e-06	-6.842002e-07	-1.312050e-09	-4.885476e+00	-8.882339e+01
1.700000e-06	-6.388735e-07	-1.285783e-09	-4.561824e+00	-8.760047e+01
1.710000e-06	-5.935226e-07	-1.262747e-09	-4.238000e+00	-8.634623e+01
1.720000e-06	-5.481231e-07	-1.243076e-09	-3.913828e+00	-8.505878e+01
1.730000e-06	-5.026411e-07	-1.224142e-09	-3.589068e+00	-8.373614e+01
1.740000e-06	-4.571248e-07	-1.205191e-09	-3.264063e+00	-8.237631e+01
1.750000e-06	-4.116677e-07	-1.188645e-09	-2.939480e+00	-8.097722e+01
1.760000e-06	-3.662330e-07	-1.169961e-09	-2.615057e+00	-7.953682e+01
1.770000e-06	-3.207217e-07	-1.142335e-09	-2.290087e+00	-7.805307e+01
1.780000e-06	-2.751299e-07	-1.108418e-09	-1.964543e+00	-7.652400e+01
1.790000e-06	-2.294838e-07	-1.077920e-09	-1.638610e+00	-7.494768e+01
1.800000e-06	-1.838134e-07	-1.054764e-09	-1.312505e+00	-7.332232e+01
1.810000e-06	-1.381521e-07	-1.035259e-09	-9.864642e-01	-7.164624e+01
1.820000e-06	-9.250092e-08	-1.011771e-09	-6.604953e-01	-6.991792e+01
1.830000e-06	-4.686234e-08	-9.871454e-10	-3.346167e-01	-6.813603e+01
1.840000e-06	-1.187962e-09	-9.637610e-10	-8.482543e-03	-6.629943e+01
1.850000e-06	4.446510e-08	-9.375605e-10	3.174994e-01	-6.440721e+01
1.860000e-06	9.005187e-08	-9.049043e-10	6.430081e-01	-6.245870e+01
1.870000e-06	1.356797e-07	-8.689431e-10	9.688098e-01	-6.045348e+01
1.880000e-06	1.812876e-07	-8.376751e-10	1.294470e+00	-5.839140e+01
1.890000e-06	2.268097e-07	-8.090291e-10	1.619516e+00	-5.627258e+01
1.900000e-06	2.723105e-07	-7.742553e-10	1.944411e+00	-5.409741e+01
1.910000e-06	3.179099e-07	-7.367300e-10	2.270010e+00	-5.186654e+01
1.920000e-06	3.635618e-07	-7.035139e-10	2.595983e+00	-4.958089e+01
1.930000e-06	4.091449e-07	-6.744440e-10	2.921466e+00	-4.724166e+01
1.940000e-06	4.546841e-07	-6.441754e-10	3.246635e+00	-4.485026e+01
1.950000e-06	5.001224e-07	-6.090545e-10	3.571083e+00	-4.240835e+01
1.960000e-06	5.454617e-07	-5.709558e-10	3.894825e+00	-3.991781e+01
1.970000e-06	5.908245e-07	-5.323787e-10	4.218734e+00	-3.738068e+01
1.980000e-06	6.360796e-07	-4.910145e-10	4.541874e+00	-3.479921e+01
1.990000e-06	6.811938e-07	-4.484640e-10	4.864009e+00	-3.217575e+01
2.000000e-06	7.263317e-07	-4.096580e-10	5.186312e+00	-2.951282e+01
2.010000e-06	7.714398e-07	-3.748598e-10	5.508403e+00	-2.681298e+01
2.020000e-06	8.164814e-07	-3.404185e-10	5.830019e+00	-2.407892e+01
2.030000e-06	8.614836e-07	-3.032151e-10	6.151353e+00	-2.131333e+01
2.040000e-06	9.064488e-07	-2.653840e-10	6.472424e+00	-1.851894e+01
2.050000e-06	9.512814e-07	-2.244854e-10	6.792547e+00	-1.569849e+01
2.060000e-06	9.960667e-07	-1.816929e-10	7.112333e+00	-1.285468e+01
2.070000e-06	1.040839e-06	-1.377777e-10	7.432028e+00	-9.990205e+00
2.080000e-06	1.085502e-06	-9.424756e-11	7.750940e+00	-7.107681e+00
2.090000e-06	1.130065e-06	-5.428823e-11	8.069137e+00	-4.209679e+00
2.100000e-06	1.174477e-06	-1.723562e-11	8.386255e+00	-1.298692e+00
2.110000e-06	1.218800e-06	1.977755e-11	8.702746e+00	1.622861e+00
2.120000e-06	1.263053e-06	5.839547e-11	9.018727e+00	4.552642e+00
2.130000e-06	1.307206e-06	9.914863e-11	9.334000e+00	7.488393e+00
2.140000e-06	1.351303e-06	1.434791e-10	9.648872e+00	1.042794e+01
2.150000e-06	1.395350e-06	1.920634e-10	9.963384e+00	1.336916e+01
2.160000e-06	1.439335e-06	2.420432e-10	1.027745e+01	1.631003e+01
2.170000e-06	1.483250e-06	2.860441e-10	1.059102e+01	1.924857e+01
2.180000e-06	1.527125e-06	3.238166e-10	1.090431e+01	2.218282e+01
2.190000e-06	1.570975e-06	3.593728e-10	1.121742e+01	2.511090e+01
2.200000e-06	1.614765e-06	3.965569e-10	1.153010e+01	2.803093e+01
2.210000e-06	1.658468e-06	4.382185e-10	1.184215e+01	3.094105e+01
2.220000e-06	1.702134e-06	4.846068e-10	1.215395e+01	3.383939e+01
2.230000e-06	1.745778e-06	5.326626e-10	1.246559e+01	3.672409e+01
2.240000e-06	1.789278e-06	5.785692e-10	1.277620e+01	3.959326e+01
2.250000e-06	1.832610e-06	6.195350e-10	1.308561e+01	4.244499e+01
2.260000e-06	1.875841e-06	6.569274e-10	1.339429e+01	4.527733e+01
2.270000e-06	1.919066e-06	6.928561e-10	1.370294e+01	4.808830e+01
2.280000e-06	1.962191e-06	7.292581e-10	1.401087e+01	5.087590e+01
2.290000e-06	2.005032e-06	7.681799e-10	1.431677e+01	5.363809e+01
2.300000e-06	2.047643e-06	8.107864e-10	1.462103e+01	5.637278e+01
2.310000e-06	2.090125e-06	8.531782e-10	1.492437e+01	5.907788e+01
2.320000e-06	2.132386e-06	8.936396e-10	1.522613e+01	6.175129e+01
2.330000e-06	2.174209e-06	9.313175e-10	1.552476e+01	6.439088e+01
2.340000e-06	2.215652e-06	9.646863e-10	1.582068e+01	6.699458e+01
2.350000e-06	2.256772e-06	9.983181e-10	1.611429e+01	6.956030e+01
2.360000e-06	2.297709e-06	1.035968e-09	1.640660e+01	7.208602e+01
2.370000e-06	2.338376e-06	1.074706e-09	1.669698e+01	7.456979e+01
2.380000e-06	2.378652e-06	1.111312e-09	1.698457e+01	7.700971e+01
2.390000e-06	2.418758e-06	1.146146e-09	1.727094e+01	7.940402e+01
2.400000e-06	2.458810e-06	1.178179e-09	1.755694e+01	8.175104e+01
2.410000e-06	2.498784e-06	1.208670e-09	1.784236e+01	8.404926e+01
2.420000e-06	2.538633e-06	1.236951e-09	1.812691e+01	8.629730e+01
2.430000e-06	2.578418e-06	1.266130e-09	1.841098e+01	8.849395e+01
2.440000e-06	2.618082e-06	1.298615e-09	1.869420e+01	9.063820e+01
2.450000e-06	2.657563e-06	1.332405e-09	1.897611e+01	9.272920e+01
2.460000e-06	2.696946e-06	1.364404e-09	1.925732e+01	9.476633e+01
2.470000e-06	2.736314e-06	1.394441e-09	1.953843e+01	9.674915e+01
2.480000e-06	2.775455e-06	1.423602e-09	1.981791e+01	9.867744e+01
2.490000e-06	2.814298e-06	1.451143e-09	2.009527e+01	1.005512e+02
2.500000e-06	2.852900e-06	1.475233e-09	2.037090e+01	1.023705e+02
2.510000e-06	2.891245e-06	1.495638e-09	2.064470e+01	1.041359e+02
2.520000e-06	2.929363e-06	1.516797e-09	2.091688e+01	1.058478e+02
2.530000e-06	2.967296e-06	1.543806e-09	2.118773e+01	1.075071e+02
2.540000e-06	3.005140e-06	1.572890e-09	2.145796e+01	1.091145e+02
2.550000e-06	3.042815e-06	1.598653e-09	2.172697e+01	1.106711e+02
2.560000e-06	3.080256e-06	1.619262e-09	2.199432e+01	1.121780e+02
2.570000e-06	3.117527e-06	1.636742e-09	2.226044e+01	1.136366e+02
2.580000e-06	3.154544e-06	1.655041e-09	2.252476e+01	1.150480e+02
2.590000e-06	3.191215e-06	1.668698e-09	2.278661e+01	1.164138e+02
2.600000e-06	3.227656e-06	1.680104e-09	2.304682e+01	1.177352e+02
2.610000e-06	3.263917e-06	1.697623e-09	2.330573e+01	1.190138e+02
2.620000e-06	3.299939e-06	1.722816e-09	2.356294e+01	1.202509e+02
2.630000e-06	3.335772e-06	1.747536e-09	2.381881e+01	1.214479e+02
2.640000e-06	3.371532e-06	1.764655e-09	2.407415e+01	1.226063e+02
2.650000e-06	3.407229e-06	1.776278e-09	2.432904e+01	1.237273e+02
2.660000e-06	3.442793e-06	1.785692e-09	2.458298e+01	1.248122e+02
2.670000e-06	3.478186e-06	1.795614e-09	2.483570e+01	1.258621e+02
2.680000e-06	3.513342e-06	1.807908e-09	2.508673e+01	1.268781e+02
2.690000e-06	3.548176e-06	1.821121e-09	2.533546e+01	1.278613e+02
2.700000e-06	3.582634e-06	1.838066e-09	2.558151e+01	1.288124e+02
2.710000e-06	3.616701e-06	1.857781e-09	2.582476e+01	1.297324e+02
2.720000e-06	3.650245e-06	1.875069e-09	2.606428e+01	1.306220e+02
2.730000e-06	3.683269e-06	1.887447e-09	2.630008e+01	1.314819e+02
2.740000e-06	3.715965e-06	1.894698e-09	2.653355e+01	1.323126e+02
2.750000e-06	3.748350e-06	1.903054e-09	2.676479e+01	1.331148e+02
2.760000e-06	3.780445e-06	1.913115e-09	2.699396e+01	1.338888e+02
2.770000e-06	3.812377e-06	1.921961e-09	2.722197e+01	1.346353e+02
2.780000e-06	3.844140e-06	1.929052e-09	2.744877e+01	1.353547e+02
2.790000e-06	3.875685e-06	1.938493e-09	2.767401e+01	1.360473e+02
2.800000e-06	3.907073e-06	1.948678e-09	2.789813e+01	1.367137e+02
2.810000e-06	3.938271e-06	1.957749e-09	2.812090e+01	1.373543e+02
2.820000e-06	3.969277e-06	1.965522e-09	2.834230e+01	1.379697e+02
2.830000e-06	3.999890e-06	1.973513e-09	2.856089e+01	1.385603e+02
2.840000e-06	4.030033e-06	1.984432e-09	2.877612e+01	1.391269e+02
2.850000e-06	4.059933e-06	1.995688e-09	2.898962e+01	1.396700e+02
2.860000e-06	4.089627e-06	2.003563e-09	2.920165e+01	1.401903e+02
2.870000e-06	4.119120e-06	2.009901e-09	2.941224e+01	1.406886e+02
2.880000e-06	4.148414e-06	2.014873e-09	2.962141e+01	1.411658e+02
2.890000e-06	4.177451e-06	2.019705e-09	2.982875e+01	1.416227e+02
2.900000e-06	4.206092e-06	2.024109e-09	3.003326e+01	1.420603e+02
