# Temperatura_=_-1.0
# Concentracion g/m^3_=_4090.0
# C_Vs_to_Am_M_A/Vsm_=_65563218390.804596
# pendiente_HvsI_1/m_=_3716.3
# ordenada_HvsI_A/m_=_1297.0
# frecuencia_Hz_=_135061.16464618413

Tiempo_(s)	Campo_(V.s)	Magnetizacion_(V.s)	Campo_(kA/m)	Magnetizacion_(A/m)
0.000000e+00	-5.411693e-06	-2.585687e-09	-3.839491e+01	-1.676210e+02
1.000000e-08	-5.411780e-06	-2.586116e-09	-3.839553e+01	-1.675028e+02
2.000000e-08	-5.411653e-06	-2.589502e-09	-3.839463e+01	-1.673898e+02
3.000000e-08	-5.411299e-06	-2.589752e-09	-3.839212e+01	-1.672844e+02
4.000000e-08	-5.410660e-06	-2.586331e-09	-3.838759e+01	-1.671888e+02
5.000000e-08	-5.409554e-06	-2.584100e-09	-3.837974e+01	-1.671051e+02
6.000000e-08	-5.407944e-06	-2.587009e-09	-3.836832e+01	-1.670355e+02
7.000000e-08	-5.405852e-06	-2.591318e-09	-3.835347e+01	-1.669818e+02
8.000000e-08	-5.403079e-06	-2.562628e-09	-3.833380e+01	-1.669456e+02
9.000000e-08	-5.399634e-06	-2.515940e-09	-3.830936e+01	-1.669282e+02
1.000000e-07	-5.395693e-06	-2.575202e-09	-3.828140e+01	-1.669308e+02
1.100000e-07	-5.391462e-06	-2.701966e-09	-3.825138e+01	-1.669541e+02
1.200000e-07	-5.387091e-06	-2.622470e-09	-3.822037e+01	-1.669985e+02
1.300000e-07	-5.382450e-06	-2.494640e-09	-3.818744e+01	-1.670641e+02
1.400000e-07	-5.377449e-06	-2.531868e-09	-3.815196e+01	-1.671505e+02
1.500000e-07	-5.372092e-06	-2.693459e-09	-3.811396e+01	-1.672572e+02
1.600000e-07	-5.366380e-06	-2.611940e-09	-3.807343e+01	-1.673831e+02
1.700000e-07	-5.360234e-06	-2.419052e-09	-3.802983e+01	-1.675268e+02
1.800000e-07	-5.353661e-06	-2.513339e-09	-3.798319e+01	-1.676867e+02
1.900000e-07	-5.346728e-06	-2.698568e-09	-3.793401e+01	-1.678608e+02
2.000000e-07	-5.339422e-06	-2.652176e-09	-3.788217e+01	-1.680469e+02
2.100000e-07	-5.331751e-06	-2.507051e-09	-3.782774e+01	-1.682424e+02
2.200000e-07	-5.323866e-06	-2.609659e-09	-3.777180e+01	-1.684448e+02
2.300000e-07	-5.315773e-06	-2.695852e-09	-3.771439e+01	-1.686512e+02
2.400000e-07	-5.307380e-06	-2.601165e-09	-3.765483e+01	-1.688587e+02
2.500000e-07	-5.298467e-06	-2.549044e-09	-3.759160e+01	-1.690643e+02
2.600000e-07	-5.288884e-06	-2.692290e-09	-3.752361e+01	-1.692652e+02
2.700000e-07	-5.278774e-06	-2.703243e-09	-3.745188e+01	-1.694583e+02
2.800000e-07	-5.268058e-06	-2.601739e-09	-3.737586e+01	-1.696409e+02
2.900000e-07	-5.256824e-06	-2.651127e-09	-3.729615e+01	-1.698103e+02
3.000000e-07	-5.245186e-06	-2.749803e-09	-3.721358e+01	-1.699641e+02
3.100000e-07	-5.233097e-06	-2.638482e-09	-3.712781e+01	-1.700999e+02
3.200000e-07	-5.220649e-06	-2.563806e-09	-3.703949e+01	-1.702157e+02
3.300000e-07	-5.207855e-06	-2.688035e-09	-3.694872e+01	-1.703099e+02
3.400000e-07	-5.194698e-06	-2.715813e-09	-3.685538e+01	-1.703810e+02
3.500000e-07	-5.181136e-06	-2.601976e-09	-3.675916e+01	-1.704280e+02
3.600000e-07	-5.167152e-06	-2.624235e-09	-3.665995e+01	-1.704500e+02
3.700000e-07	-5.152805e-06	-2.693611e-09	-3.655815e+01	-1.704468e+02
3.800000e-07	-5.138103e-06	-2.629425e-09	-3.645385e+01	-1.704182e+02
3.900000e-07	-5.122743e-06	-2.594054e-09	-3.634487e+01	-1.703645e+02
4.000000e-07	-5.106671e-06	-2.644668e-09	-3.623084e+01	-1.702863e+02
4.100000e-07	-5.090120e-06	-2.613923e-09	-3.611342e+01	-1.701845e+02
4.200000e-07	-5.073222e-06	-2.574849e-09	-3.599353e+01	-1.700602e+02
4.300000e-07	-5.056116e-06	-2.643606e-09	-3.587217e+01	-1.699148e+02
4.400000e-07	-5.038788e-06	-2.639831e-09	-3.574922e+01	-1.697499e+02
4.500000e-07	-5.021137e-06	-2.567722e-09	-3.562399e+01	-1.695673e+02
4.600000e-07	-5.003084e-06	-2.583180e-09	-3.549591e+01	-1.693688e+02
4.700000e-07	-4.984729e-06	-2.633668e-09	-3.536569e+01	-1.691564e+02
4.800000e-07	-4.966094e-06	-2.588633e-09	-3.523347e+01	-1.689322e+02
4.900000e-07	-4.947093e-06	-2.569016e-09	-3.509867e+01	-1.686980e+02
5.000000e-07	-4.927711e-06	-2.587383e-09	-3.496116e+01	-1.684560e+02
5.100000e-07	-4.907994e-06	-2.592130e-09	-3.482127e+01	-1.682081e+02
5.200000e-07	-4.888046e-06	-2.587904e-09	-3.467974e+01	-1.679560e+02
5.300000e-07	-4.867815e-06	-2.597404e-09	-3.453621e+01	-1.677014e+02
5.400000e-07	-4.847282e-06	-2.570925e-09	-3.439053e+01	-1.674459e+02
5.500000e-07	-4.826478e-06	-2.572983e-09	-3.424293e+01	-1.671907e+02
5.600000e-07	-4.805353e-06	-2.593823e-09	-3.409305e+01	-1.669370e+02
5.700000e-07	-4.783824e-06	-2.575037e-09	-3.394030e+01	-1.666856e+02
5.800000e-07	-4.761946e-06	-2.536237e-09	-3.378509e+01	-1.664374e+02
5.900000e-07	-4.739813e-06	-2.545592e-09	-3.362806e+01	-1.661926e+02
6.000000e-07	-4.717335e-06	-2.556425e-09	-3.346858e+01	-1.659517e+02
6.100000e-07	-4.694536e-06	-2.552212e-09	-3.330683e+01	-1.657145e+02
6.200000e-07	-4.671430e-06	-2.545913e-09	-3.314289e+01	-1.654810e+02
6.300000e-07	-4.648014e-06	-2.541992e-09	-3.297676e+01	-1.652507e+02
6.400000e-07	-4.624347e-06	-2.545146e-09	-3.280885e+01	-1.650233e+02
6.500000e-07	-4.600415e-06	-2.551919e-09	-3.263905e+01	-1.647979e+02
6.600000e-07	-4.576271e-06	-2.529071e-09	-3.246776e+01	-1.645740e+02
6.700000e-07	-4.551845e-06	-2.500972e-09	-3.229446e+01	-1.643505e+02
6.800000e-07	-4.527018e-06	-2.510431e-09	-3.211832e+01	-1.641267e+02
6.900000e-07	-4.501821e-06	-2.528297e-09	-3.193955e+01	-1.639016e+02
7.000000e-07	-4.476205e-06	-2.526488e-09	-3.175781e+01	-1.636742e+02
7.100000e-07	-4.450067e-06	-2.516701e-09	-3.157236e+01	-1.634436e+02
7.200000e-07	-4.423371e-06	-2.518855e-09	-3.138297e+01	-1.632090e+02
7.300000e-07	-4.396168e-06	-2.521167e-09	-3.118996e+01	-1.629696e+02
7.400000e-07	-4.368614e-06	-2.515171e-09	-3.099448e+01	-1.627247e+02
7.500000e-07	-4.340844e-06	-2.490739e-09	-3.079745e+01	-1.624736e+02
7.600000e-07	-4.312872e-06	-2.478687e-09	-3.059899e+01	-1.622159e+02
7.700000e-07	-4.284723e-06	-2.484081e-09	-3.039929e+01	-1.619511e+02
7.800000e-07	-4.256333e-06	-2.491037e-09	-3.019786e+01	-1.616792e+02
7.900000e-07	-4.227628e-06	-2.478824e-09	-2.999421e+01	-1.614000e+02
8.000000e-07	-4.198610e-06	-2.469865e-09	-2.978833e+01	-1.611134e+02
8.100000e-07	-4.169313e-06	-2.467719e-09	-2.958047e+01	-1.608198e+02
8.200000e-07	-4.139786e-06	-2.469408e-09	-2.937098e+01	-1.605192e+02
8.300000e-07	-4.110003e-06	-2.457212e-09	-2.915968e+01	-1.602121e+02
8.400000e-07	-4.079970e-06	-2.441036e-09	-2.894660e+01	-1.598989e+02
8.500000e-07	-4.049678e-06	-2.431510e-09	-2.873168e+01	-1.595802e+02
8.600000e-07	-4.019046e-06	-2.434415e-09	-2.851435e+01	-1.592564e+02
8.700000e-07	-3.988049e-06	-2.429150e-09	-2.829444e+01	-1.589283e+02
8.800000e-07	-3.956798e-06	-2.416593e-09	-2.807272e+01	-1.585964e+02
8.900000e-07	-3.925344e-06	-2.408333e-09	-2.784956e+01	-1.582612e+02
9.000000e-07	-3.893663e-06	-2.413532e-09	-2.762479e+01	-1.579234e+02
9.100000e-07	-3.861809e-06	-2.413895e-09	-2.739879e+01	-1.575835e+02
9.200000e-07	-3.829778e-06	-2.402347e-09	-2.717153e+01	-1.572419e+02
9.300000e-07	-3.797584e-06	-2.385800e-09	-2.694313e+01	-1.568991e+02
9.400000e-07	-3.765158e-06	-2.377967e-09	-2.671307e+01	-1.565553e+02
9.500000e-07	-3.732396e-06	-2.374123e-09	-2.648063e+01	-1.562107e+02
9.600000e-07	-3.699305e-06	-2.364970e-09	-2.624586e+01	-1.558655e+02
9.700000e-07	-3.665868e-06	-2.354262e-09	-2.600862e+01	-1.555196e+02
9.800000e-07	-3.632036e-06	-2.348815e-09	-2.576859e+01	-1.551729e+02
9.900000e-07	-3.597747e-06	-2.347899e-09	-2.552532e+01	-1.548253e+02
1.000000e-06	-3.563056e-06	-2.341081e-09	-2.527919e+01	-1.544763e+02
1.010000e-06	-3.528003e-06	-2.329054e-09	-2.503050e+01	-1.541256e+02
1.020000e-06	-3.492619e-06	-2.315520e-09	-2.477946e+01	-1.537728e+02
1.030000e-06	-3.457014e-06	-2.305336e-09	-2.452684e+01	-1.534173e+02
1.040000e-06	-3.421215e-06	-2.296668e-09	-2.427286e+01	-1.530585e+02
1.050000e-06	-3.385243e-06	-2.290872e-09	-2.401764e+01	-1.526957e+02
1.060000e-06	-3.349179e-06	-2.284814e-09	-2.376178e+01	-1.523284e+02
1.070000e-06	-3.312997e-06	-2.282558e-09	-2.350507e+01	-1.519558e+02
1.080000e-06	-3.276578e-06	-2.276989e-09	-2.324669e+01	-1.515773e+02
1.090000e-06	-3.239918e-06	-2.267135e-09	-2.298659e+01	-1.511923e+02
1.100000e-06	-3.203048e-06	-2.254229e-09	-2.272501e+01	-1.508001e+02
1.110000e-06	-3.165908e-06	-2.247458e-09	-2.246151e+01	-1.504004e+02
1.120000e-06	-3.128486e-06	-2.240583e-09	-2.219600e+01	-1.499926e+02
1.130000e-06	-3.090792e-06	-2.231182e-09	-2.192857e+01	-1.495763e+02
1.140000e-06	-3.052876e-06	-2.221881e-09	-2.165956e+01	-1.491512e+02
1.150000e-06	-3.014823e-06	-2.220293e-09	-2.138959e+01	-1.487171e+02
1.160000e-06	-2.976632e-06	-2.216574e-09	-2.111863e+01	-1.482738e+02
1.170000e-06	-2.938278e-06	-2.207200e-09	-2.084652e+01	-1.478213e+02
1.180000e-06	-2.899717e-06	-2.194256e-09	-2.057293e+01	-1.473596e+02
1.190000e-06	-2.860930e-06	-2.184782e-09	-2.029774e+01	-1.468888e+02
1.200000e-06	-2.821822e-06	-2.176410e-09	-2.002028e+01	-1.464091e+02
1.210000e-06	-2.782449e-06	-2.163838e-09	-1.974094e+01	-1.459207e+02
1.220000e-06	-2.742906e-06	-2.151910e-09	-1.946039e+01	-1.454239e+02
1.230000e-06	-2.703176e-06	-2.147225e-09	-1.917851e+01	-1.449191e+02
1.240000e-06	-2.663336e-06	-2.145119e-09	-1.889586e+01	-1.444065e+02
1.250000e-06	-2.623421e-06	-2.140116e-09	-1.861266e+01	-1.438865e+02
1.260000e-06	-2.583403e-06	-2.131427e-09	-1.832875e+01	-1.433595e+02
1.270000e-06	-2.543298e-06	-2.120315e-09	-1.804421e+01	-1.428258e+02
1.280000e-06	-2.503073e-06	-2.109031e-09	-1.775882e+01	-1.422856e+02
1.290000e-06	-2.462737e-06	-2.097634e-09	-1.747264e+01	-1.417393e+02
1.300000e-06	-2.422320e-06	-2.087246e-09	-1.718589e+01	-1.411870e+02
1.310000e-06	-2.381719e-06	-2.079149e-09	-1.689783e+01	-1.406289e+02
1.320000e-06	-2.340909e-06	-2.074770e-09	-1.660830e+01	-1.400649e+02
1.330000e-06	-2.299827e-06	-2.070096e-09	-1.631683e+01	-1.394951e+02
1.340000e-06	-2.258456e-06	-2.063793e-09	-1.602331e+01	-1.389194e+02
1.350000e-06	-2.216805e-06	-2.053817e-09	-1.572780e+01	-1.383375e+02
1.360000e-06	-2.174802e-06	-2.041954e-09	-1.542980e+01	-1.377492e+02
1.370000e-06	-2.132547e-06	-2.029982e-09	-1.513001e+01	-1.371540e+02
1.380000e-06	-2.090099e-06	-2.018579e-09	-1.482885e+01	-1.365516e+02
1.390000e-06	-2.047444e-06	-2.007560e-09	-1.452622e+01	-1.359415e+02
1.400000e-06	-2.004647e-06	-2.000994e-09	-1.422259e+01	-1.353229e+02
1.410000e-06	-1.961629e-06	-1.995916e-09	-1.391738e+01	-1.346954e+02
1.420000e-06	-1.918280e-06	-1.988997e-09	-1.360982e+01	-1.340582e+02
1.430000e-06	-1.874781e-06	-1.976338e-09	-1.330121e+01	-1.334106e+02
1.440000e-06	-1.831214e-06	-1.960084e-09	-1.299211e+01	-1.327518e+02
1.450000e-06	-1.787571e-06	-1.944082e-09	-1.268247e+01	-1.320812e+02
1.460000e-06	-1.743824e-06	-1.933524e-09	-1.237209e+01	-1.313980e+02
1.470000e-06	-1.699895e-06	-1.924639e-09	-1.206043e+01	-1.307014e+02
1.480000e-06	-1.655828e-06	-1.912165e-09	-1.174778e+01	-1.299907e+02
1.490000e-06	-1.611723e-06	-1.898031e-09	-1.143487e+01	-1.292652e+02
1.500000e-06	-1.567666e-06	-1.885320e-09	-1.112229e+01	-1.285243e+02
1.510000e-06	-1.523548e-06	-1.872282e-09	-1.080928e+01	-1.277675e+02
1.520000e-06	-1.479308e-06	-1.857540e-09	-1.049540e+01	-1.269940e+02
1.530000e-06	-1.434997e-06	-1.842481e-09	-1.018103e+01	-1.262034e+02
1.540000e-06	-1.390629e-06	-1.832224e-09	-9.866245e+00	-1.253953e+02
1.550000e-06	-1.346215e-06	-1.821541e-09	-9.551135e+00	-1.245691e+02
1.560000e-06	-1.301734e-06	-1.808341e-09	-9.235551e+00	-1.237245e+02
1.570000e-06	-1.257214e-06	-1.795128e-09	-8.919692e+00	-1.228612e+02
1.580000e-06	-1.212553e-06	-1.782272e-09	-8.602826e+00	-1.219788e+02
1.590000e-06	-1.167674e-06	-1.770038e-09	-8.284424e+00	-1.210769e+02
1.600000e-06	-1.122670e-06	-1.756390e-09	-7.965130e+00	-1.201552e+02
1.610000e-06	-1.077596e-06	-1.740596e-09	-7.645334e+00	-1.192134e+02
1.620000e-06	-1.032483e-06	-1.721046e-09	-7.325268e+00	-1.182512e+02
1.630000e-06	-9.873391e-07	-1.702397e-09	-7.004980e+00	-1.172681e+02
1.640000e-06	-9.421613e-07	-1.684162e-09	-6.684453e+00	-1.162637e+02
1.650000e-06	-8.969406e-07	-1.665350e-09	-6.363621e+00	-1.152375e+02
1.660000e-06	-8.516087e-07	-1.650169e-09	-6.041999e+00	-1.141890e+02
1.670000e-06	-8.061588e-07	-1.638478e-09	-5.719541e+00	-1.131175e+02
1.680000e-06	-7.607200e-07	-1.624189e-09	-5.397161e+00	-1.120224e+02
1.690000e-06	-7.152576e-07	-1.604309e-09	-5.074615e+00	-1.109027e+02
1.700000e-06	-6.697515e-07	-1.581109e-09	-4.751758e+00	-1.097578e+02
1.710000e-06	-6.242259e-07	-1.560688e-09	-4.428762e+00	-1.085865e+02
1.720000e-06	-5.785748e-07	-1.540162e-09	-4.104876e+00	-1.073878e+02
1.730000e-06	-5.327975e-07	-1.519426e-09	-3.780095e+00	-1.061605e+02
1.740000e-06	-4.870257e-07	-1.496957e-09	-3.455353e+00	-1.049034e+02
1.750000e-06	-4.412783e-07	-1.476968e-09	-3.130784e+00	-1.036151e+02
1.760000e-06	-3.955182e-07	-1.461825e-09	-2.806125e+00	-1.022943e+02
1.770000e-06	-3.496731e-07	-1.446543e-09	-2.480863e+00	-1.009396e+02
1.780000e-06	-3.037370e-07	-1.427354e-09	-2.154955e+00	-9.954928e+01
1.790000e-06	-2.577831e-07	-1.406085e-09	-1.828921e+00	-9.812197e+01
1.800000e-06	-2.118286e-07	-1.383057e-09	-1.502883e+00	-9.665608e+01
1.810000e-06	-1.659128e-07	-1.356123e-09	-1.177119e+00	-9.515003e+01
1.820000e-06	-1.200449e-07	-1.327969e-09	-8.516955e-01	-9.360229e+01
1.830000e-06	-7.417228e-08	-1.301413e-09	-5.262380e-01	-9.201133e+01
1.840000e-06	-2.828792e-08	-1.278926e-09	-2.006973e-01	-9.037567e+01
1.850000e-06	1.759124e-08	-1.258520e-09	1.248064e-01	-8.869388e+01
1.860000e-06	6.345724e-08	-1.238658e-09	4.502169e-01	-8.696461e+01
1.870000e-06	1.093399e-07	-1.217529e-09	7.757453e-01	-8.518657e+01
1.880000e-06	1.552723e-07	-1.191700e-09	1.101627e+00	-8.335860e+01
1.890000e-06	2.012140e-07	-1.159871e-09	1.427575e+00	-8.147961e+01
1.900000e-06	2.471527e-07	-1.124144e-09	1.753501e+00	-7.954864e+01
1.910000e-06	2.930852e-07	-1.089472e-09	2.079383e+00	-7.756485e+01
1.920000e-06	3.390204e-07	-1.058146e-09	2.405284e+00	-7.552750e+01
1.930000e-06	3.849596e-07	-1.029546e-09	2.731214e+00	-7.343600e+01
1.940000e-06	4.308310e-07	-1.005211e-09	3.056663e+00	-7.128989e+01
1.950000e-06	4.766051e-07	-9.814543e-10	3.381421e+00	-6.908883e+01
1.960000e-06	5.223149e-07	-9.537660e-10	3.705723e+00	-6.683260e+01
1.970000e-06	5.680322e-07	-9.191893e-10	4.030079e+00	-6.452111e+01
1.980000e-06	6.137146e-07	-8.801712e-10	4.354186e+00	-6.215440e+01
1.990000e-06	6.592699e-07	-8.405366e-10	4.677393e+00	-5.973263e+01
2.000000e-06	7.048143e-07	-8.013323e-10	5.000521e+00	-5.725605e+01
2.010000e-06	7.503580e-07	-7.622738e-10	5.323645e+00	-5.472505e+01
2.020000e-06	7.957762e-07	-7.259591e-10	5.645878e+00	-5.214012e+01
2.030000e-06	8.410907e-07	-6.944694e-10	5.967376e+00	-4.950183e+01
2.040000e-06	8.863365e-07	-6.639723e-10	6.288386e+00	-4.681087e+01
2.050000e-06	9.315289e-07	-6.263398e-10	6.609018e+00	-4.406803e+01
2.060000e-06	9.767251e-07	-5.825285e-10	6.929676e+00	-4.127420e+01
2.070000e-06	1.021835e-06	-5.375624e-10	7.249725e+00	-3.843034e+01
2.080000e-06	1.066870e-06	-4.937389e-10	7.569236e+00	-3.553754e+01
2.090000e-06	1.111804e-06	-4.489630e-10	7.888035e+00	-3.259698e+01
2.100000e-06	1.156536e-06	-4.026798e-10	8.205401e+00	-2.960995e+01
2.110000e-06	1.201143e-06	-3.600103e-10	8.521880e+00	-2.657783e+01
2.120000e-06	1.245683e-06	-3.206149e-10	8.837883e+00	-2.350214e+01
2.130000e-06	1.290156e-06	-2.776878e-10	9.153410e+00	-2.038452e+01
2.140000e-06	1.334547e-06	-2.282669e-10	9.468352e+00	-1.722674e+01
2.150000e-06	1.378859e-06	-1.787064e-10	9.782735e+00	-1.403071e+01
2.160000e-06	1.423158e-06	-1.308297e-10	1.009703e+01	-1.079847e+01
2.170000e-06	1.467453e-06	-8.149319e-11	1.041129e+01	-7.532230e+00
2.180000e-06	1.511681e-06	-3.009519e-11	1.072509e+01	-4.234364e+00
2.190000e-06	1.555858e-06	2.105666e-11	1.103851e+01	-9.074032e-01
2.200000e-06	1.599963e-06	6.825623e-11	1.135143e+01	2.445949e+00
2.210000e-06	1.644002e-06	1.143259e-10	1.166387e+01	5.822817e+00
2.220000e-06	1.687984e-06	1.662957e-10	1.197592e+01	9.220151e+00
2.230000e-06	1.731852e-06	2.212307e-10	1.228715e+01	1.263473e+01
2.240000e-06	1.775651e-06	2.738917e-10	1.259790e+01	1.606317e+01
2.250000e-06	1.819476e-06	3.223274e-10	1.290883e+01	1.950192e+01
2.260000e-06	1.863230e-06	3.708797e-10	1.321926e+01	2.294730e+01
2.270000e-06	1.906718e-06	4.245442e-10	1.352780e+01	2.639546e+01
2.280000e-06	1.949879e-06	4.785225e-10	1.383401e+01	2.984247e+01
2.290000e-06	1.992858e-06	5.283881e-10	1.413894e+01	3.328426e+01
2.300000e-06	2.035767e-06	5.787729e-10	1.444337e+01	3.671672e+01
2.310000e-06	2.078431e-06	6.318703e-10	1.474607e+01	4.013565e+01
2.320000e-06	2.120792e-06	6.839145e-10	1.504661e+01	4.353684e+01
2.330000e-06	2.162900e-06	7.320662e-10	1.534536e+01	4.691608e+01
2.340000e-06	2.204675e-06	7.768997e-10	1.564175e+01	5.026917e+01
2.350000e-06	2.246154e-06	8.221507e-10	1.593603e+01	5.359200e+01
2.360000e-06	2.287426e-06	8.698407e-10	1.622885e+01	5.688051e+01
2.370000e-06	2.328443e-06	9.196744e-10	1.651985e+01	6.013080e+01
2.380000e-06	2.369271e-06	9.711456e-10	1.680952e+01	6.333908e+01
2.390000e-06	2.409922e-06	1.023431e-09	1.709793e+01	6.650178e+01
2.400000e-06	2.450332e-06	1.071848e-09	1.738463e+01	6.961549e+01
2.410000e-06	2.490568e-06	1.113949e-09	1.767010e+01	7.267708e+01
2.420000e-06	2.530702e-06	1.151231e-09	1.795485e+01	7.568364e+01
2.430000e-06	2.570753e-06	1.186692e-09	1.823900e+01	7.863255e+01
2.440000e-06	2.610736e-06	1.222650e-09	1.852267e+01	8.152146e+01
2.450000e-06	2.650676e-06	1.260262e-09	1.880604e+01	8.434835e+01
2.460000e-06	2.690503e-06	1.300285e-09	1.908860e+01	8.711149e+01
2.470000e-06	2.730167e-06	1.342424e-09	1.937001e+01	8.980947e+01
2.480000e-06	2.769618e-06	1.385064e-09	1.964990e+01	9.244121e+01
2.490000e-06	2.808856e-06	1.425900e-09	1.992829e+01	9.500591e+01
2.500000e-06	2.847857e-06	1.462694e-09	2.020499e+01	9.750311e+01
2.510000e-06	2.886581e-06	1.497396e-09	2.047974e+01	9.993262e+01
2.520000e-06	2.925145e-06	1.531370e-09	2.075334e+01	1.022945e+02
2.530000e-06	2.963528e-06	1.561199e-09	2.102566e+01	1.045892e+02
2.540000e-06	3.001716e-06	1.588000e-09	2.129660e+01	1.068172e+02
2.550000e-06	3.039794e-06	1.616900e-09	2.156675e+01	1.089794e+02
2.560000e-06	3.077706e-06	1.649713e-09	2.183573e+01	1.110767e+02
2.570000e-06	3.115374e-06	1.680929e-09	2.210297e+01	1.131102e+02
2.580000e-06	3.152802e-06	1.709375e-09	2.236852e+01	1.150814e+02
2.590000e-06	3.189963e-06	1.737351e-09	2.263217e+01	1.169915e+02
2.600000e-06	3.226863e-06	1.765295e-09	2.289397e+01	1.188421e+02
2.610000e-06	3.263527e-06	1.790589e-09	2.315409e+01	1.206347e+02
2.620000e-06	3.299980e-06	1.811209e-09	2.341272e+01	1.223708e+02
2.630000e-06	3.336293e-06	1.831259e-09	2.367036e+01	1.240519e+02
2.640000e-06	3.372476e-06	1.854555e-09	2.392706e+01	1.256797e+02
2.650000e-06	3.408479e-06	1.878893e-09	2.418250e+01	1.272556e+02
2.660000e-06	3.444337e-06	1.900217e-09	2.443690e+01	1.287812e+02
2.670000e-06	3.480072e-06	1.919697e-09	2.469044e+01	1.302577e+02
2.680000e-06	3.515655e-06	1.940929e-09	2.494289e+01	1.316865e+02
2.690000e-06	3.550933e-06	1.961272e-09	2.519319e+01	1.330689e+02
2.700000e-06	3.585737e-06	1.977852e-09	2.544011e+01	1.344061e+02
2.710000e-06	3.620021e-06	1.993262e-09	2.568335e+01	1.356990e+02
2.720000e-06	3.653873e-06	2.011364e-09	2.592352e+01	1.369489e+02
2.730000e-06	3.687410e-06	2.032828e-09	2.616146e+01	1.381565e+02
2.740000e-06	3.720493e-06	2.052981e-09	2.639618e+01	1.393228e+02
2.750000e-06	3.753179e-06	2.069743e-09	2.662808e+01	1.404487e+02
2.760000e-06	3.785667e-06	2.084362e-09	2.685858e+01	1.415350e+02
2.770000e-06	3.817949e-06	2.097069e-09	2.708761e+01	1.425824e+02
2.780000e-06	3.850035e-06	2.108869e-09	2.731526e+01	1.435917e+02
2.790000e-06	3.881974e-06	2.119885e-09	2.754186e+01	1.445637e+02
2.800000e-06	3.913776e-06	2.131886e-09	2.776748e+01	1.454992e+02
2.810000e-06	3.945358e-06	2.146256e-09	2.799155e+01	1.463991e+02
2.820000e-06	3.976660e-06	2.163233e-09	2.821363e+01	1.472641e+02
2.830000e-06	4.007582e-06	2.178624e-09	2.843302e+01	1.480952e+02
2.840000e-06	4.038206e-06	2.187906e-09	2.865029e+01	1.488934e+02
2.850000e-06	4.068656e-06	2.197978e-09	2.886633e+01	1.496596e+02
2.860000e-06	4.098827e-06	2.208826e-09	2.908038e+01	1.503951e+02
2.870000e-06	4.128699e-06	2.220060e-09	2.929232e+01	1.511009e+02
2.880000e-06	4.158326e-06	2.231258e-09	2.950252e+01	1.517782e+02
2.890000e-06	4.187678e-06	2.242113e-09	2.971076e+01	1.524283e+02
2.900000e-06	4.216693e-06	2.251650e-09	2.991663e+01	1.530526e+02
