# Temperatura_=_4.38
# Concentracion g/m^3_=_4090.0
# C_Vs_to_Am_M_A/Vsm_=_65563218390.804596
# pendiente_HvsI_1/m_=_3716.3
# ordenada_HvsI_A/m_=_1297.0
# frecuencia_Hz_=_135065.9539844791

Tiempo_(s)	Campo_(V.s)	Magnetizacion_(V.s)	Campo_(kA/m)	Magnetizacion_(A/m)
0.000000e+00	-5.375161e-06	-2.481531e-09	-3.839420e+01	-1.594655e+02
1.000000e-08	-5.375352e-06	-2.480239e-09	-3.839557e+01	-1.593787e+02
2.000000e-08	-5.375374e-06	-2.478459e-09	-3.839572e+01	-1.592980e+02
3.000000e-08	-5.375178e-06	-2.475071e-09	-3.839432e+01	-1.592251e+02
4.000000e-08	-5.374594e-06	-2.472319e-09	-3.839015e+01	-1.591616e+02
5.000000e-08	-5.373518e-06	-2.473397e-09	-3.838247e+01	-1.591090e+02
6.000000e-08	-5.371881e-06	-2.480289e-09	-3.837077e+01	-1.590685e+02
7.000000e-08	-5.369672e-06	-2.497059e-09	-3.835499e+01	-1.590413e+02
8.000000e-08	-5.366908e-06	-2.489444e-09	-3.833525e+01	-1.590284e+02
9.000000e-08	-5.363502e-06	-2.432611e-09	-3.831092e+01	-1.590302e+02
1.000000e-07	-5.359627e-06	-2.435377e-09	-3.828324e+01	-1.590473e+02
1.100000e-07	-5.355462e-06	-2.539567e-09	-3.825349e+01	-1.590798e+02
1.200000e-07	-5.351127e-06	-2.514061e-09	-3.822253e+01	-1.591274e+02
1.300000e-07	-5.346616e-06	-2.416509e-09	-3.819031e+01	-1.591898e+02
1.400000e-07	-5.341677e-06	-2.417908e-09	-3.815503e+01	-1.592663e+02
1.500000e-07	-5.336330e-06	-2.547306e-09	-3.811684e+01	-1.593560e+02
1.600000e-07	-5.330729e-06	-2.549709e-09	-3.807683e+01	-1.594576e+02
1.700000e-07	-5.324744e-06	-2.391177e-09	-3.803408e+01	-1.595696e+02
1.800000e-07	-5.318315e-06	-2.431379e-09	-3.798815e+01	-1.596906e+02
1.900000e-07	-5.311484e-06	-2.549071e-09	-3.793936e+01	-1.598188e+02
2.000000e-07	-5.304334e-06	-2.537880e-09	-3.788829e+01	-1.599521e+02
2.100000e-07	-5.297027e-06	-2.429046e-09	-3.783610e+01	-1.600886e+02
2.200000e-07	-5.289443e-06	-2.509611e-09	-3.778192e+01	-1.602261e+02
2.300000e-07	-5.281491e-06	-2.585978e-09	-3.772512e+01	-1.603626e+02
2.400000e-07	-5.273291e-06	-2.514907e-09	-3.766655e+01	-1.604958e+02
2.500000e-07	-5.264725e-06	-2.463387e-09	-3.760536e+01	-1.606238e+02
2.600000e-07	-5.255502e-06	-2.562806e-09	-3.753949e+01	-1.607445e+02
2.700000e-07	-5.245520e-06	-2.573282e-09	-3.746819e+01	-1.608559e+02
2.800000e-07	-5.235017e-06	-2.467599e-09	-3.739316e+01	-1.609564e+02
2.900000e-07	-5.224058e-06	-2.495193e-09	-3.731489e+01	-1.610442e+02
3.000000e-07	-5.212659e-06	-2.582225e-09	-3.723346e+01	-1.611181e+02
3.100000e-07	-5.200910e-06	-2.505678e-09	-3.714955e+01	-1.611767e+02
3.200000e-07	-5.188787e-06	-2.420245e-09	-3.706295e+01	-1.612192e+02
3.300000e-07	-5.176245e-06	-2.507727e-09	-3.697337e+01	-1.612447e+02
3.400000e-07	-5.163201e-06	-2.519995e-09	-3.688019e+01	-1.612527e+02
3.500000e-07	-5.149747e-06	-2.435592e-09	-3.678409e+01	-1.612431e+02
3.600000e-07	-5.135965e-06	-2.460408e-09	-3.668565e+01	-1.612156e+02
3.700000e-07	-5.121819e-06	-2.533629e-09	-3.658460e+01	-1.611706e+02
3.800000e-07	-5.107341e-06	-2.471408e-09	-3.648119e+01	-1.611085e+02
3.900000e-07	-5.092324e-06	-2.451945e-09	-3.637392e+01	-1.610297e+02
4.000000e-07	-5.076638e-06	-2.501786e-09	-3.626188e+01	-1.609352e+02
4.100000e-07	-5.060453e-06	-2.474731e-09	-3.614627e+01	-1.608258e+02
4.200000e-07	-5.043893e-06	-2.416512e-09	-3.602799e+01	-1.607026e+02
4.300000e-07	-5.027020e-06	-2.474286e-09	-3.590747e+01	-1.605668e+02
4.400000e-07	-5.009800e-06	-2.487418e-09	-3.578447e+01	-1.604195e+02
4.500000e-07	-4.992306e-06	-2.443646e-09	-3.565951e+01	-1.602620e+02
4.600000e-07	-4.974562e-06	-2.453853e-09	-3.553277e+01	-1.600956e+02
4.700000e-07	-4.956447e-06	-2.489428e-09	-3.540337e+01	-1.599216e+02
4.800000e-07	-4.937916e-06	-2.454887e-09	-3.527100e+01	-1.597411e+02
4.900000e-07	-4.919006e-06	-2.441721e-09	-3.513593e+01	-1.595553e+02
5.000000e-07	-4.899731e-06	-2.449225e-09	-3.499825e+01	-1.593653e+02
5.100000e-07	-4.880164e-06	-2.436718e-09	-3.485849e+01	-1.591720e+02
5.200000e-07	-4.860370e-06	-2.435634e-09	-3.471710e+01	-1.589763e+02
5.300000e-07	-4.840355e-06	-2.450372e-09	-3.457414e+01	-1.587788e+02
5.400000e-07	-4.820082e-06	-2.432222e-09	-3.442933e+01	-1.585802e+02
5.500000e-07	-4.799493e-06	-2.426623e-09	-3.428227e+01	-1.583809e+02
5.600000e-07	-4.778581e-06	-2.442449e-09	-3.413289e+01	-1.581811e+02
5.700000e-07	-4.757297e-06	-2.427610e-09	-3.398087e+01	-1.579810e+02
5.800000e-07	-4.735639e-06	-2.408537e-09	-3.382616e+01	-1.577806e+02
5.900000e-07	-4.713706e-06	-2.411866e-09	-3.366950e+01	-1.575798e+02
6.000000e-07	-4.691442e-06	-2.409792e-09	-3.351047e+01	-1.573785e+02
6.100000e-07	-4.668851e-06	-2.402033e-09	-3.334910e+01	-1.571762e+02
6.200000e-07	-4.645968e-06	-2.403152e-09	-3.318565e+01	-1.569725e+02
6.300000e-07	-4.622692e-06	-2.387435e-09	-3.301939e+01	-1.567672e+02
6.400000e-07	-4.599100e-06	-2.383421e-09	-3.285088e+01	-1.565596e+02
6.500000e-07	-4.575337e-06	-2.392498e-09	-3.268114e+01	-1.563492e+02
6.600000e-07	-4.551407e-06	-2.387370e-09	-3.251021e+01	-1.561356e+02
6.700000e-07	-4.527192e-06	-2.367984e-09	-3.233725e+01	-1.559183e+02
6.800000e-07	-4.502615e-06	-2.371475e-09	-3.216170e+01	-1.556967e+02
6.900000e-07	-4.477665e-06	-2.372434e-09	-3.198348e+01	-1.554706e+02
7.000000e-07	-4.452321e-06	-2.367670e-09	-3.180245e+01	-1.552394e+02
7.100000e-07	-4.426572e-06	-2.359645e-09	-3.161853e+01	-1.550030e+02
7.200000e-07	-4.400306e-06	-2.357270e-09	-3.143091e+01	-1.547612e+02
7.300000e-07	-4.373457e-06	-2.352851e-09	-3.123913e+01	-1.545138e+02
7.400000e-07	-4.346147e-06	-2.353296e-09	-3.104406e+01	-1.542607e+02
7.500000e-07	-4.318574e-06	-2.341721e-09	-3.084711e+01	-1.540021e+02
7.600000e-07	-4.290793e-06	-2.332706e-09	-3.064868e+01	-1.537381e+02
7.700000e-07	-4.262798e-06	-2.330002e-09	-3.044871e+01	-1.534689e+02
7.800000e-07	-4.234655e-06	-2.327293e-09	-3.024768e+01	-1.531948e+02
7.900000e-07	-4.206280e-06	-2.316028e-09	-3.004501e+01	-1.529161e+02
8.000000e-07	-4.177584e-06	-2.308977e-09	-2.984004e+01	-1.526332e+02
8.100000e-07	-4.148601e-06	-2.303647e-09	-2.963301e+01	-1.523466e+02
8.200000e-07	-4.119346e-06	-2.301067e-09	-2.942405e+01	-1.520567e+02
8.300000e-07	-4.089791e-06	-2.298177e-09	-2.921294e+01	-1.517640e+02
8.400000e-07	-4.059952e-06	-2.290683e-09	-2.899980e+01	-1.514689e+02
8.500000e-07	-4.029829e-06	-2.281986e-09	-2.878463e+01	-1.511718e+02
8.600000e-07	-3.999445e-06	-2.279001e-09	-2.856761e+01	-1.508731e+02
8.700000e-07	-3.968858e-06	-2.274524e-09	-2.834913e+01	-1.505733e+02
8.800000e-07	-3.938025e-06	-2.264029e-09	-2.812889e+01	-1.502724e+02
8.900000e-07	-3.906875e-06	-2.255290e-09	-2.790639e+01	-1.499709e+02
9.000000e-07	-3.875376e-06	-2.254386e-09	-2.768140e+01	-1.496688e+02
9.100000e-07	-3.843652e-06	-2.255375e-09	-2.745479e+01	-1.493661e+02
9.200000e-07	-3.811807e-06	-2.245782e-09	-2.722733e+01	-1.490630e+02
9.300000e-07	-3.779781e-06	-2.234135e-09	-2.699857e+01	-1.487592e+02
9.400000e-07	-3.747591e-06	-2.226437e-09	-2.676864e+01	-1.484546e+02
9.500000e-07	-3.715263e-06	-2.224333e-09	-2.653773e+01	-1.481489e+02
9.600000e-07	-3.682624e-06	-2.218050e-09	-2.630459e+01	-1.478418e+02
9.700000e-07	-3.649638e-06	-2.211942e-09	-2.606897e+01	-1.475330e+02
9.800000e-07	-3.616238e-06	-2.208274e-09	-2.583040e+01	-1.472219e+02
9.900000e-07	-3.582339e-06	-2.207439e-09	-2.558826e+01	-1.469081e+02
1.000000e-06	-3.548082e-06	-2.198780e-09	-2.534357e+01	-1.465911e+02
1.010000e-06	-3.513465e-06	-2.187370e-09	-2.509630e+01	-1.462704e+02
1.020000e-06	-3.478489e-06	-2.174805e-09	-2.484647e+01	-1.459455e+02
1.030000e-06	-3.443209e-06	-2.166987e-09	-2.459447e+01	-1.456157e+02
1.040000e-06	-3.407646e-06	-2.160755e-09	-2.434045e+01	-1.452807e+02
1.050000e-06	-3.371883e-06	-2.157546e-09	-2.408500e+01	-1.449399e+02
1.060000e-06	-3.335989e-06	-2.153291e-09	-2.382862e+01	-1.445929e+02
1.070000e-06	-3.299972e-06	-2.150506e-09	-2.357135e+01	-1.442394e+02
1.080000e-06	-3.263809e-06	-2.145062e-09	-2.331304e+01	-1.438791e+02
1.090000e-06	-3.227384e-06	-2.135876e-09	-2.305286e+01	-1.435116e+02
1.100000e-06	-3.190668e-06	-2.122655e-09	-2.279060e+01	-1.431368e+02
1.110000e-06	-3.153768e-06	-2.113405e-09	-2.252703e+01	-1.427545e+02
1.120000e-06	-3.116692e-06	-2.106767e-09	-2.226220e+01	-1.423648e+02
1.130000e-06	-3.079393e-06	-2.100954e-09	-2.199578e+01	-1.419674e+02
1.140000e-06	-3.041843e-06	-2.095479e-09	-2.172756e+01	-1.415626e+02
1.150000e-06	-3.004023e-06	-2.092152e-09	-2.145742e+01	-1.411503e+02
1.160000e-06	-2.966072e-06	-2.086955e-09	-2.118634e+01	-1.407308e+02
1.170000e-06	-2.927951e-06	-2.078480e-09	-2.091404e+01	-1.403040e+02
1.180000e-06	-2.889591e-06	-2.067868e-09	-2.064004e+01	-1.398702e+02
1.190000e-06	-2.851079e-06	-2.057809e-09	-2.036495e+01	-1.394296e+02
1.200000e-06	-2.812346e-06	-2.050349e-09	-2.008829e+01	-1.389822e+02
1.210000e-06	-2.773326e-06	-2.039561e-09	-1.980957e+01	-1.385281e+02
1.220000e-06	-2.734091e-06	-2.029070e-09	-1.952932e+01	-1.380676e+02
1.230000e-06	-2.694662e-06	-2.021943e-09	-1.924768e+01	-1.376005e+02
1.240000e-06	-2.655087e-06	-2.019739e-09	-1.896500e+01	-1.371270e+02
1.250000e-06	-2.615411e-06	-2.013703e-09	-1.868160e+01	-1.366468e+02
1.260000e-06	-2.575578e-06	-2.008453e-09	-1.839708e+01	-1.361599e+02
1.270000e-06	-2.535681e-06	-2.001203e-09	-1.811210e+01	-1.356662e+02
1.280000e-06	-2.495724e-06	-1.993734e-09	-1.782669e+01	-1.351652e+02
1.290000e-06	-2.455674e-06	-1.982642e-09	-1.754062e+01	-1.346566e+02
1.300000e-06	-2.415523e-06	-1.969421e-09	-1.725382e+01	-1.341401e+02
1.310000e-06	-2.375245e-06	-1.957372e-09	-1.696612e+01	-1.336151e+02
1.320000e-06	-2.334779e-06	-1.949399e-09	-1.667707e+01	-1.330812e+02
1.330000e-06	-2.294101e-06	-1.942907e-09	-1.638651e+01	-1.325377e+02
1.340000e-06	-2.253195e-06	-1.935958e-09	-1.609433e+01	-1.319841e+02
1.350000e-06	-2.212058e-06	-1.928427e-09	-1.580049e+01	-1.314197e+02
1.360000e-06	-2.170698e-06	-1.919275e-09	-1.550507e+01	-1.308438e+02
1.370000e-06	-2.129026e-06	-1.907196e-09	-1.520740e+01	-1.302559e+02
1.380000e-06	-2.087028e-06	-1.893776e-09	-1.490742e+01	-1.296553e+02
1.390000e-06	-2.044783e-06	-1.879650e-09	-1.460567e+01	-1.290414e+02
1.400000e-06	-2.002315e-06	-1.868888e-09	-1.430232e+01	-1.284136e+02
1.410000e-06	-1.959600e-06	-1.861870e-09	-1.399721e+01	-1.277715e+02
1.420000e-06	-1.916674e-06	-1.855464e-09	-1.369060e+01	-1.271147e+02
1.430000e-06	-1.873564e-06	-1.846941e-09	-1.338266e+01	-1.264427e+02
1.440000e-06	-1.830293e-06	-1.835932e-09	-1.307359e+01	-1.257554e+02
1.450000e-06	-1.786815e-06	-1.823052e-09	-1.276303e+01	-1.250525e+02
1.460000e-06	-1.743210e-06	-1.808821e-09	-1.245156e+01	-1.243338e+02
1.470000e-06	-1.699499e-06	-1.794243e-09	-1.213934e+01	-1.235995e+02
1.480000e-06	-1.655691e-06	-1.778712e-09	-1.182642e+01	-1.228495e+02
1.490000e-06	-1.611911e-06	-1.766545e-09	-1.151371e+01	-1.220840e+02
1.500000e-06	-1.568050e-06	-1.758324e-09	-1.120041e+01	-1.213032e+02
1.510000e-06	-1.524078e-06	-1.748116e-09	-1.088633e+01	-1.205072e+02
1.520000e-06	-1.480078e-06	-1.732379e-09	-1.057204e+01	-1.196964e+02
1.530000e-06	-1.436015e-06	-1.715474e-09	-1.025730e+01	-1.188711e+02
1.540000e-06	-1.391890e-06	-1.700484e-09	-9.942124e+00	-1.180316e+02
1.550000e-06	-1.347779e-06	-1.686909e-09	-9.627043e+00	-1.171780e+02
1.560000e-06	-1.303591e-06	-1.670881e-09	-9.311410e+00	-1.163108e+02
1.570000e-06	-1.259296e-06	-1.655271e-09	-8.995013e+00	-1.154300e+02
1.580000e-06	-1.214922e-06	-1.642663e-09	-8.678057e+00	-1.145357e+02
1.590000e-06	-1.170427e-06	-1.631490e-09	-8.360232e+00	-1.136280e+02
1.600000e-06	-1.125886e-06	-1.617038e-09	-8.042086e+00	-1.127066e+02
1.610000e-06	-1.081260e-06	-1.600719e-09	-7.723324e+00	-1.117715e+02
1.620000e-06	-1.036544e-06	-1.583811e-09	-7.403926e+00	-1.108221e+02
1.630000e-06	-9.917438e-07	-1.569212e-09	-7.083920e+00	-1.098578e+02
1.640000e-06	-9.468067e-07	-1.553573e-09	-6.762939e+00	-1.088781e+02
1.650000e-06	-9.019066e-07	-1.535456e-09	-6.442222e+00	-1.078818e+02
1.660000e-06	-8.569756e-07	-1.518485e-09	-6.121285e+00	-1.068681e+02
1.670000e-06	-8.119191e-07	-1.506178e-09	-5.799451e+00	-1.058355e+02
1.680000e-06	-7.668291e-07	-1.495731e-09	-5.477378e+00	-1.047828e+02
1.690000e-06	-7.216829e-07	-1.479686e-09	-5.154904e+00	-1.037082e+02
1.700000e-06	-6.765317e-07	-1.457955e-09	-4.832393e+00	-1.026102e+02
1.710000e-06	-6.313190e-07	-1.436917e-09	-4.509444e+00	-1.014867e+02
1.720000e-06	-5.859857e-07	-1.417573e-09	-4.185633e+00	-1.003359e+02
1.730000e-06	-5.405972e-07	-1.398528e-09	-3.861428e+00	-9.915564e+01
1.740000e-06	-4.951353e-07	-1.378281e-09	-3.536698e+00	-9.794383e+01
1.750000e-06	-4.496443e-07	-1.361005e-09	-3.211761e+00	-9.669830e+01
1.760000e-06	-4.041380e-07	-1.349064e-09	-2.886715e+00	-9.541685e+01
1.770000e-06	-3.585569e-07	-1.335186e-09	-2.561133e+00	-9.409731e+01
1.780000e-06	-3.129343e-07	-1.312943e-09	-2.235256e+00	-9.273756e+01
1.790000e-06	-2.673384e-07	-1.284102e-09	-1.909570e+00	-9.133553e+01
1.800000e-06	-2.216982e-07	-1.256924e-09	-1.583567e+00	-8.988925e+01
1.810000e-06	-1.759877e-07	-1.233034e-09	-1.257061e+00	-8.839688e+01
1.820000e-06	-1.303753e-07	-1.211718e-09	-9.312566e-01	-8.685672e+01
1.830000e-06	-8.478647e-08	-1.190204e-09	-6.056207e-01	-8.526723e+01
1.840000e-06	-3.913695e-08	-1.169841e-09	-2.795510e-01	-8.362704e+01
1.850000e-06	6.525206e-09	-1.149819e-09	4.660885e-02	-8.193500e+01
1.860000e-06	5.215764e-08	-1.126662e-09	3.725564e-01	-8.019014e+01
1.870000e-06	9.774878e-08	-1.098116e-09	6.982091e-01	-7.839172e+01
1.880000e-06	1.433373e-07	-1.068070e-09	1.023843e+00	-7.653921e+01
1.890000e-06	1.889533e-07	-1.039412e-09	1.349674e+00	-7.463230e+01
1.900000e-06	2.346082e-07	-1.010554e-09	1.675781e+00	-7.267088e+01
1.910000e-06	2.802214e-07	-9.800354e-10	2.001591e+00	-7.065507e+01
1.920000e-06	3.258014e-07	-9.501794e-10	2.327165e+00	-6.858516e+01
1.930000e-06	3.713245e-07	-9.219895e-10	2.652331e+00	-6.646163e+01
1.940000e-06	4.168152e-07	-8.936546e-10	2.977266e+00	-6.428514e+01
1.950000e-06	4.623083e-07	-8.623614e-10	3.302219e+00	-6.205648e+01
1.960000e-06	5.077601e-07	-8.282946e-10	3.626876e+00	-5.977659e+01
1.970000e-06	5.531266e-07	-7.929101e-10	3.950924e+00	-5.744652e+01
1.980000e-06	5.983632e-07	-7.575967e-10	4.274044e+00	-5.506740e+01
1.990000e-06	6.435574e-07	-7.215461e-10	4.596862e+00	-5.264044e+01
2.000000e-06	6.887391e-07	-6.850171e-10	4.919589e+00	-5.016691e+01
2.010000e-06	7.339122e-07	-6.485011e-10	5.242256e+00	-4.764812e+01
2.020000e-06	7.790226e-07	-6.119035e-10	5.564475e+00	-4.508539e+01
2.030000e-06	8.240460e-07	-5.747345e-10	5.886073e+00	-4.248008e+01
2.040000e-06	8.689879e-07	-5.368454e-10	6.207088e+00	-3.983351e+01
2.050000e-06	9.137941e-07	-4.979865e-10	6.527133e+00	-3.714702e+01
2.060000e-06	9.585533e-07	-4.587612e-10	6.846843e+00	-3.442194e+01
2.070000e-06	1.003297e-06	-4.185519e-10	7.166444e+00	-3.165957e+01
2.080000e-06	1.047964e-06	-3.756559e-10	7.485492e+00	-2.886120e+01
2.090000e-06	1.092547e-06	-3.309729e-10	7.803948e+00	-2.602814e+01
2.100000e-06	1.137021e-06	-2.850322e-10	8.121616e+00	-2.316166e+01
2.110000e-06	1.181441e-06	-2.427447e-10	8.438910e+00	-2.026307e+01
2.120000e-06	1.225796e-06	-2.020788e-10	8.755730e+00	-1.733369e+01
2.130000e-06	1.270041e-06	-1.624670e-10	9.071767e+00	-1.437490e+01
2.140000e-06	1.314283e-06	-1.226271e-10	9.387784e+00	-1.138810e+01
2.150000e-06	1.358482e-06	-7.908804e-11	9.703488e+00	-8.374789e+00
2.160000e-06	1.402594e-06	-3.085793e-11	1.001858e+01	-5.336544e+00
2.170000e-06	1.446629e-06	1.884945e-11	1.033311e+01	-2.275047e+00
2.180000e-06	1.490602e-06	6.880432e-11	1.064721e+01	8.078967e-01
2.190000e-06	1.534574e-06	1.155795e-10	1.096130e+01	3.910344e+00
2.200000e-06	1.578518e-06	1.563036e-10	1.127519e+01	7.030205e+00
2.210000e-06	1.622397e-06	1.954830e-10	1.158861e+01	1.016523e+01
2.220000e-06	1.666203e-06	2.369660e-10	1.190151e+01	1.331299e+01
2.230000e-06	1.709951e-06	2.820200e-10	1.221400e+01	1.647090e+01
2.240000e-06	1.753652e-06	3.302629e-10	1.252615e+01	1.963620e+01
2.250000e-06	1.797277e-06	3.794159e-10	1.283776e+01	2.280595e+01
2.260000e-06	1.840801e-06	4.287260e-10	1.314864e+01	2.597704e+01
2.270000e-06	1.884111e-06	4.774398e-10	1.345800e+01	2.914623e+01
2.280000e-06	1.927197e-06	5.248538e-10	1.376576e+01	3.231012e+01
2.290000e-06	1.970098e-06	5.669746e-10	1.407220e+01	3.546521e+01
2.300000e-06	2.012700e-06	6.076798e-10	1.437650e+01	3.860787e+01
2.310000e-06	2.054995e-06	6.512804e-10	1.467861e+01	4.173445e+01
2.320000e-06	2.096993e-06	6.985022e-10	1.497860e+01	4.484119e+01
2.330000e-06	2.138809e-06	7.481024e-10	1.527728e+01	4.792437e+01
2.340000e-06	2.180426e-06	7.935421e-10	1.557455e+01	5.098027e+01
2.350000e-06	2.221737e-06	8.372264e-10	1.586963e+01	5.400520e+01
2.360000e-06	2.262730e-06	8.804333e-10	1.616244e+01	5.699559e+01
2.370000e-06	2.303450e-06	9.221572e-10	1.645330e+01	5.994796e+01
2.380000e-06	2.343953e-06	9.619614e-10	1.674261e+01	6.285900e+01
2.390000e-06	2.384229e-06	1.002595e-09	1.703029e+01	6.572556e+01
2.400000e-06	2.424410e-06	1.044482e-09	1.731730e+01	6.854473e+01
2.410000e-06	2.464516e-06	1.085496e-09	1.760377e+01	7.131381e+01
2.420000e-06	2.504510e-06	1.122344e-09	1.788945e+01	7.403037e+01
2.430000e-06	2.544436e-06	1.156542e-09	1.817463e+01	7.669226e+01
2.440000e-06	2.584244e-06	1.191497e-09	1.845898e+01	7.929763e+01
2.450000e-06	2.623950e-06	1.226971e-09	1.874259e+01	8.184493e+01
2.460000e-06	2.663572e-06	1.260895e-09	1.902561e+01	8.433292e+01
2.470000e-06	2.702940e-06	1.295011e-09	1.930681e+01	8.676068e+01
2.480000e-06	2.742155e-06	1.330339e-09	1.958692e+01	8.912759e+01
2.490000e-06	2.781220e-06	1.366046e-09	1.986596e+01	9.143335e+01
2.500000e-06	2.819974e-06	1.399035e-09	2.014277e+01	9.367794e+01
2.510000e-06	2.858496e-06	1.427058e-09	2.041793e+01	9.586162e+01
2.520000e-06	2.896848e-06	1.452352e-09	2.069188e+01	9.798488e+01
2.530000e-06	2.935034e-06	1.480266e-09	2.096463e+01	1.000485e+02
2.540000e-06	2.973048e-06	1.510243e-09	2.123617e+01	1.020534e+02
2.550000e-06	3.010897e-06	1.539989e-09	2.150651e+01	1.040007e+02
2.560000e-06	3.048533e-06	1.571445e-09	2.177535e+01	1.058917e+02
2.570000e-06	3.085895e-06	1.602624e-09	2.204222e+01	1.077278e+02
2.580000e-06	3.123005e-06	1.629110e-09	2.230729e+01	1.095105e+02
2.590000e-06	3.159877e-06	1.649966e-09	2.257067e+01	1.112413e+02
2.600000e-06	3.196533e-06	1.668132e-09	2.283249e+01	1.129218e+02
2.610000e-06	3.232982e-06	1.687366e-09	2.309284e+01	1.145535e+02
2.620000e-06	3.269256e-06	1.710198e-09	2.335195e+01	1.161381e+02
2.630000e-06	3.305375e-06	1.736052e-09	2.360994e+01	1.176770e+02
2.640000e-06	3.341331e-06	1.763484e-09	2.386677e+01	1.191716e+02
2.650000e-06	3.377192e-06	1.788901e-09	2.412292e+01	1.206233e+02
2.660000e-06	3.412968e-06	1.808967e-09	2.437846e+01	1.220334e+02
2.670000e-06	3.448623e-06	1.823091e-09	2.463314e+01	1.234030e+02
2.680000e-06	3.484005e-06	1.836728e-09	2.488587e+01	1.247331e+02
2.690000e-06	3.519021e-06	1.852706e-09	2.513599e+01	1.260247e+02
2.700000e-06	3.553650e-06	1.869881e-09	2.538334e+01	1.272786e+02
2.710000e-06	3.587912e-06	1.887360e-09	2.562807e+01	1.284955e+02
2.720000e-06	3.621675e-06	1.907076e-09	2.586924e+01	1.296761e+02
2.730000e-06	3.654802e-06	1.928842e-09	2.610586e+01	1.308209e+02
2.740000e-06	3.687501e-06	1.947293e-09	2.633943e+01	1.319303e+02
2.750000e-06	3.720008e-06	1.960234e-09	2.657162e+01	1.330048e+02
2.760000e-06	3.752401e-06	1.971099e-09	2.680300e+01	1.340446e+02
2.770000e-06	3.784565e-06	1.983898e-09	2.703274e+01	1.350503e+02
2.780000e-06	3.816484e-06	1.998717e-09	2.726073e+01	1.360221e+02
2.790000e-06	3.848313e-06	2.013124e-09	2.748809e+01	1.369604e+02
2.800000e-06	3.880066e-06	2.026065e-09	2.771489e+01	1.378656e+02
2.810000e-06	3.911536e-06	2.037898e-09	2.793968e+01	1.387380e+02
2.820000e-06	3.942650e-06	2.051184e-09	2.816192e+01	1.395782e+02
2.830000e-06	3.973502e-06	2.064649e-09	2.838230e+01	1.403868e+02
2.840000e-06	4.004084e-06	2.075909e-09	2.860075e+01	1.411643e+02
2.850000e-06	4.034324e-06	2.086973e-09	2.881674e+01	1.419114e+02
2.860000e-06	4.064266e-06	2.098918e-09	2.903062e+01	1.426290e+02
2.870000e-06	4.094018e-06	2.110442e-09	2.924313e+01	1.433178e+02
2.880000e-06	4.123516e-06	2.118003e-09	2.945383e+01	1.439789e+02
2.890000e-06	4.152758e-06	2.121625e-09	2.966271e+01	1.446133e+02
2.900000e-06	4.181700e-06	2.124399e-09	2.986944e+01	1.452221e+02
