# Temperatura_=_8.49
# Concentracion g/m^3_=_4090.0
# C_Vs_to_Am_M_A/Vsm_=_65563218390.804596
# pendiente_HvsI_1/m_=_3716.3
# ordenada_HvsI_A/m_=_1297.0
# frecuencia_Hz_=_135068.45004987565

Tiempo_(s)	Campo_(V.s)	Magnetizacion_(V.s)	Campo_(kA/m)	Magnetizacion_(A/m)
0.000000e+00	-5.396707e-06	-2.460776e-09	-3.841252e+01	-1.593180e+02
1.000000e-08	-5.396893e-06	-2.468387e-09	-3.841385e+01	-1.592270e+02
2.000000e-08	-5.396850e-06	-2.476900e-09	-3.841354e+01	-1.591395e+02
3.000000e-08	-5.396591e-06	-2.478490e-09	-3.841170e+01	-1.590577e+02
4.000000e-08	-5.395966e-06	-2.472571e-09	-3.840725e+01	-1.589836e+02
5.000000e-08	-5.394954e-06	-2.464001e-09	-3.840005e+01	-1.589192e+02
6.000000e-08	-5.393325e-06	-2.456995e-09	-3.838845e+01	-1.588664e+02
7.000000e-08	-5.390970e-06	-2.458457e-09	-3.837169e+01	-1.588267e+02
8.000000e-08	-5.388089e-06	-2.452599e-09	-3.835118e+01	-1.588016e+02
9.000000e-08	-5.384640e-06	-2.444577e-09	-3.832664e+01	-1.587922e+02
1.000000e-07	-5.380699e-06	-2.470805e-09	-3.829858e+01	-1.587993e+02
1.100000e-07	-5.376480e-06	-2.524728e-09	-3.826856e+01	-1.588237e+02
1.200000e-07	-5.372148e-06	-2.476862e-09	-3.823772e+01	-1.588654e+02
1.300000e-07	-5.367557e-06	-2.434041e-09	-3.820504e+01	-1.589246e+02
1.400000e-07	-5.362494e-06	-2.434885e-09	-3.816900e+01	-1.590007e+02
1.500000e-07	-5.357021e-06	-2.506244e-09	-3.813005e+01	-1.590932e+02
1.600000e-07	-5.351181e-06	-2.470936e-09	-3.808848e+01	-1.592009e+02
1.700000e-07	-5.345000e-06	-2.418997e-09	-3.804449e+01	-1.593226e+02
1.800000e-07	-5.338342e-06	-2.464672e-09	-3.799710e+01	-1.594567e+02
1.900000e-07	-5.331352e-06	-2.543704e-09	-3.794735e+01	-1.596014e+02
2.000000e-07	-5.324130e-06	-2.520787e-09	-3.789594e+01	-1.597545e+02
2.100000e-07	-5.316577e-06	-2.467904e-09	-3.784218e+01	-1.599138e+02
2.200000e-07	-5.308745e-06	-2.517665e-09	-3.778643e+01	-1.600770e+02
2.300000e-07	-5.300700e-06	-2.555098e-09	-3.772917e+01	-1.602415e+02
2.400000e-07	-5.292372e-06	-2.525730e-09	-3.766989e+01	-1.604048e+02
2.500000e-07	-5.283456e-06	-2.505050e-09	-3.760643e+01	-1.605642e+02
2.600000e-07	-5.273805e-06	-2.567120e-09	-3.753773e+01	-1.607173e+02
2.700000e-07	-5.263548e-06	-2.557275e-09	-3.746473e+01	-1.608614e+02
2.800000e-07	-5.252779e-06	-2.519654e-09	-3.738808e+01	-1.609943e+02
2.900000e-07	-5.241508e-06	-2.534523e-09	-3.730785e+01	-1.611138e+02
3.000000e-07	-5.229858e-06	-2.574579e-09	-3.722493e+01	-1.612176e+02
3.100000e-07	-5.217881e-06	-2.518146e-09	-3.713968e+01	-1.613041e+02
3.200000e-07	-5.205505e-06	-2.503603e-09	-3.705159e+01	-1.613716e+02
3.300000e-07	-5.192740e-06	-2.541389e-09	-3.696073e+01	-1.614189e+02
3.400000e-07	-5.179654e-06	-2.549780e-09	-3.686759e+01	-1.614448e+02
3.500000e-07	-5.166135e-06	-2.500448e-09	-3.677136e+01	-1.614487e+02
3.600000e-07	-5.152269e-06	-2.527405e-09	-3.667267e+01	-1.614301e+02
3.700000e-07	-5.138065e-06	-2.537457e-09	-3.657157e+01	-1.613889e+02
3.800000e-07	-5.123378e-06	-2.505211e-09	-3.646703e+01	-1.613252e+02
3.900000e-07	-5.108025e-06	-2.488741e-09	-3.635775e+01	-1.612396e+02
4.000000e-07	-5.091994e-06	-2.519877e-09	-3.624365e+01	-1.611326e+02
4.100000e-07	-5.075481e-06	-2.500908e-09	-3.612611e+01	-1.610054e+02
4.200000e-07	-5.058605e-06	-2.483464e-09	-3.600599e+01	-1.608589e+02
4.300000e-07	-5.041506e-06	-2.508788e-09	-3.588429e+01	-1.606948e+02
4.400000e-07	-5.024178e-06	-2.512783e-09	-3.576095e+01	-1.605144e+02
4.500000e-07	-5.006519e-06	-2.488369e-09	-3.563525e+01	-1.603194e+02
4.600000e-07	-4.988494e-06	-2.484383e-09	-3.550696e+01	-1.601116e+02
4.700000e-07	-4.970163e-06	-2.490622e-09	-3.537648e+01	-1.598928e+02
4.800000e-07	-4.951426e-06	-2.475530e-09	-3.524311e+01	-1.596648e+02
4.900000e-07	-4.932216e-06	-2.479315e-09	-3.510639e+01	-1.594293e+02
5.000000e-07	-4.912659e-06	-2.479340e-09	-3.496718e+01	-1.591881e+02
5.100000e-07	-4.892887e-06	-2.478736e-09	-3.482645e+01	-1.589429e+02
5.200000e-07	-4.873005e-06	-2.478417e-09	-3.468494e+01	-1.586952e+02
5.300000e-07	-4.852933e-06	-2.481751e-09	-3.454206e+01	-1.584463e+02
5.400000e-07	-4.832607e-06	-2.457624e-09	-3.439739e+01	-1.581975e+02
5.500000e-07	-4.811901e-06	-2.453044e-09	-3.425001e+01	-1.579498e+02
5.600000e-07	-4.790699e-06	-2.450853e-09	-3.409910e+01	-1.577040e+02
5.700000e-07	-4.769163e-06	-2.447602e-09	-3.394581e+01	-1.574608e+02
5.800000e-07	-4.747375e-06	-2.439063e-09	-3.379073e+01	-1.572206e+02
5.900000e-07	-4.725348e-06	-2.442816e-09	-3.363395e+01	-1.569836e+02
6.000000e-07	-4.702909e-06	-2.431995e-09	-3.347423e+01	-1.567499e+02
6.100000e-07	-4.680027e-06	-2.432479e-09	-3.331136e+01	-1.565193e+02
6.200000e-07	-4.656942e-06	-2.424268e-09	-3.314704e+01	-1.562913e+02
6.300000e-07	-4.633596e-06	-2.411213e-09	-3.298088e+01	-1.560656e+02
6.400000e-07	-4.609901e-06	-2.400021e-09	-3.281222e+01	-1.558415e+02
6.500000e-07	-4.585974e-06	-2.404754e-09	-3.264192e+01	-1.556181e+02
6.600000e-07	-4.561877e-06	-2.396150e-09	-3.247039e+01	-1.553947e+02
6.700000e-07	-4.537580e-06	-2.388271e-09	-3.229745e+01	-1.551703e+02
6.800000e-07	-4.512949e-06	-2.386307e-09	-3.212214e+01	-1.549440e+02
6.900000e-07	-4.487941e-06	-2.385971e-09	-3.194414e+01	-1.547147e+02
7.000000e-07	-4.462313e-06	-2.378335e-09	-3.176172e+01	-1.544815e+02
7.100000e-07	-4.436083e-06	-2.369695e-09	-3.157502e+01	-1.542435e+02
7.200000e-07	-4.409454e-06	-2.359926e-09	-3.138548e+01	-1.539998e+02
7.300000e-07	-4.382332e-06	-2.356375e-09	-3.119244e+01	-1.537495e+02
7.400000e-07	-4.354828e-06	-2.358812e-09	-3.099667e+01	-1.534920e+02
7.500000e-07	-4.327083e-06	-2.354930e-09	-3.079918e+01	-1.532268e+02
7.600000e-07	-4.299154e-06	-2.347815e-09	-3.060039e+01	-1.529532e+02
7.700000e-07	-4.271071e-06	-2.339905e-09	-3.040050e+01	-1.526711e+02
7.800000e-07	-4.242790e-06	-2.334865e-09	-3.019921e+01	-1.523801e+02
7.900000e-07	-4.214274e-06	-2.324497e-09	-2.999624e+01	-1.520803e+02
8.000000e-07	-4.185415e-06	-2.316431e-09	-2.979082e+01	-1.517717e+02
8.100000e-07	-4.156130e-06	-2.308806e-09	-2.958238e+01	-1.514544e+02
8.200000e-07	-4.126564e-06	-2.311316e-09	-2.937194e+01	-1.511289e+02
8.300000e-07	-4.096776e-06	-2.309580e-09	-2.915991e+01	-1.507956e+02
8.400000e-07	-4.066761e-06	-2.303269e-09	-2.894627e+01	-1.504550e+02
8.500000e-07	-4.036501e-06	-2.290413e-09	-2.873089e+01	-1.501076e+02
8.600000e-07	-4.005965e-06	-2.282096e-09	-2.851354e+01	-1.497542e+02
8.700000e-07	-3.975201e-06	-2.271240e-09	-2.829457e+01	-1.493955e+02
8.800000e-07	-3.944130e-06	-2.263623e-09	-2.807342e+01	-1.490323e+02
8.900000e-07	-3.912775e-06	-2.254526e-09	-2.785024e+01	-1.486652e+02
9.000000e-07	-3.881256e-06	-2.254163e-09	-2.762589e+01	-1.482951e+02
9.100000e-07	-3.849468e-06	-2.252501e-09	-2.739963e+01	-1.479227e+02
9.200000e-07	-3.817474e-06	-2.245310e-09	-2.717191e+01	-1.475485e+02
9.300000e-07	-3.785389e-06	-2.229898e-09	-2.694354e+01	-1.471734e+02
9.400000e-07	-3.753146e-06	-2.218920e-09	-2.671404e+01	-1.467977e+02
9.500000e-07	-3.720570e-06	-2.212441e-09	-2.648217e+01	-1.464221e+02
9.600000e-07	-3.687533e-06	-2.211804e-09	-2.624702e+01	-1.460467e+02
9.700000e-07	-3.654107e-06	-2.211170e-09	-2.600910e+01	-1.456720e+02
9.800000e-07	-3.620244e-06	-2.210674e-09	-2.576807e+01	-1.452980e+02
9.900000e-07	-3.585911e-06	-2.204746e-09	-2.552369e+01	-1.449249e+02
1.000000e-06	-3.551193e-06	-2.194392e-09	-2.527658e+01	-1.445526e+02
1.010000e-06	-3.516110e-06	-2.180998e-09	-2.502687e+01	-1.441809e+02
1.020000e-06	-3.480729e-06	-2.167876e-09	-2.477504e+01	-1.438097e+02
1.030000e-06	-3.445108e-06	-2.159973e-09	-2.452149e+01	-1.434387e+02
1.040000e-06	-3.409337e-06	-2.158572e-09	-2.426688e+01	-1.430674e+02
1.050000e-06	-3.373449e-06	-2.160932e-09	-2.401144e+01	-1.426953e+02
1.060000e-06	-3.337452e-06	-2.158468e-09	-2.375522e+01	-1.423221e+02
1.070000e-06	-3.301342e-06	-2.151070e-09	-2.349820e+01	-1.419471e+02
1.080000e-06	-3.264994e-06	-2.138792e-09	-2.323948e+01	-1.415697e+02
1.090000e-06	-3.228450e-06	-2.126267e-09	-2.297937e+01	-1.411893e+02
1.100000e-06	-3.191735e-06	-2.114412e-09	-2.271804e+01	-1.408053e+02
1.110000e-06	-3.154746e-06	-2.108095e-09	-2.245476e+01	-1.404172e+02
1.120000e-06	-3.117396e-06	-2.103109e-09	-2.218891e+01	-1.400243e+02
1.130000e-06	-3.079715e-06	-2.100907e-09	-2.192071e+01	-1.396260e+02
1.140000e-06	-3.041857e-06	-2.097533e-09	-2.165124e+01	-1.392219e+02
1.150000e-06	-3.003857e-06	-2.093388e-09	-2.138076e+01	-1.388114e+02
1.160000e-06	-2.965649e-06	-2.083193e-09	-2.110881e+01	-1.383941e+02
1.170000e-06	-2.927273e-06	-2.071975e-09	-2.083566e+01	-1.379696e+02
1.180000e-06	-2.888728e-06	-2.059275e-09	-2.056130e+01	-1.375375e+02
1.190000e-06	-2.849943e-06	-2.049625e-09	-2.028524e+01	-1.370975e+02
1.200000e-06	-2.810930e-06	-2.041498e-09	-2.000755e+01	-1.366495e+02
1.210000e-06	-2.771712e-06	-2.036652e-09	-1.972841e+01	-1.361931e+02
1.220000e-06	-2.732225e-06	-2.032595e-09	-1.944735e+01	-1.357282e+02
1.230000e-06	-2.692498e-06	-2.028124e-09	-1.916458e+01	-1.352548e+02
1.240000e-06	-2.652705e-06	-2.020267e-09	-1.888135e+01	-1.347727e+02
1.250000e-06	-2.612868e-06	-2.009925e-09	-1.859779e+01	-1.342818e+02
1.260000e-06	-2.572952e-06	-1.997854e-09	-1.831368e+01	-1.337821e+02
1.270000e-06	-2.532938e-06	-1.986809e-09	-1.802887e+01	-1.332736e+02
1.280000e-06	-2.492812e-06	-1.977238e-09	-1.774327e+01	-1.327562e+02
1.290000e-06	-2.452566e-06	-1.968841e-09	-1.745681e+01	-1.322298e+02
1.300000e-06	-2.412226e-06	-1.960611e-09	-1.716967e+01	-1.316945e+02
1.310000e-06	-2.371848e-06	-1.953788e-09	-1.688227e+01	-1.311501e+02
1.320000e-06	-2.331321e-06	-1.946114e-09	-1.659381e+01	-1.305966e+02
1.330000e-06	-2.290540e-06	-1.935851e-09	-1.630354e+01	-1.300337e+02
1.340000e-06	-2.249499e-06	-1.921679e-09	-1.601142e+01	-1.294615e+02
1.350000e-06	-2.208159e-06	-1.905841e-09	-1.571717e+01	-1.288796e+02
1.360000e-06	-2.166411e-06	-1.891945e-09	-1.542001e+01	-1.282879e+02
1.370000e-06	-2.124327e-06	-1.879663e-09	-1.512047e+01	-1.276862e+02
1.380000e-06	-2.082043e-06	-1.870803e-09	-1.481951e+01	-1.270740e+02
1.390000e-06	-2.039461e-06	-1.862600e-09	-1.451641e+01	-1.264512e+02
1.400000e-06	-1.996517e-06	-1.855563e-09	-1.421075e+01	-1.258174e+02
1.410000e-06	-1.953278e-06	-1.847392e-09	-1.390299e+01	-1.251722e+02
1.420000e-06	-1.909934e-06	-1.837219e-09	-1.359447e+01	-1.245152e+02
1.430000e-06	-1.866517e-06	-1.821026e-09	-1.328544e+01	-1.238460e+02
1.440000e-06	-1.822965e-06	-1.801241e-09	-1.297545e+01	-1.231641e+02
1.450000e-06	-1.779334e-06	-1.781664e-09	-1.266489e+01	-1.224693e+02
1.460000e-06	-1.735611e-06	-1.769887e-09	-1.235368e+01	-1.217609e+02
1.470000e-06	-1.691791e-06	-1.762922e-09	-1.204178e+01	-1.210385e+02
1.480000e-06	-1.647907e-06	-1.754143e-09	-1.172943e+01	-1.203018e+02
1.490000e-06	-1.603986e-06	-1.742957e-09	-1.141681e+01	-1.195502e+02
1.500000e-06	-1.560037e-06	-1.732014e-09	-1.110398e+01	-1.187832e+02
1.510000e-06	-1.516018e-06	-1.718751e-09	-1.079067e+01	-1.180005e+02
1.520000e-06	-1.471868e-06	-1.703324e-09	-1.047642e+01	-1.172016e+02
1.530000e-06	-1.427639e-06	-1.687003e-09	-1.016160e+01	-1.163861e+02
1.540000e-06	-1.383431e-06	-1.674351e-09	-9.846945e+00	-1.155534e+02
1.550000e-06	-1.339199e-06	-1.663940e-09	-9.532115e+00	-1.147031e+02
1.560000e-06	-1.294843e-06	-1.653804e-09	-9.216395e+00	-1.138347e+02
1.570000e-06	-1.250345e-06	-1.642033e-09	-8.899672e+00	-1.129478e+02
1.580000e-06	-1.205756e-06	-1.630697e-09	-8.582298e+00	-1.120418e+02
1.590000e-06	-1.161092e-06	-1.619546e-09	-8.264390e+00	-1.111161e+02
1.600000e-06	-1.116347e-06	-1.606211e-09	-7.945906e+00	-1.101702e+02
1.610000e-06	-1.071552e-06	-1.589156e-09	-7.627064e+00	-1.092034e+02
1.620000e-06	-1.026622e-06	-1.569513e-09	-7.307261e+00	-1.082152e+02
1.630000e-06	-9.815599e-07	-1.551560e-09	-6.986518e+00	-1.072047e+02
1.640000e-06	-9.364996e-07	-1.534576e-09	-6.665790e+00	-1.061712e+02
1.650000e-06	-8.914097e-07	-1.516668e-09	-6.344850e+00	-1.051139e+02
1.660000e-06	-8.462305e-07	-1.500078e-09	-6.023275e+00	-1.040319e+02
1.670000e-06	-8.009821e-07	-1.489201e-09	-5.701208e+00	-1.029242e+02
1.680000e-06	-7.556390e-07	-1.477974e-09	-5.378465e+00	-1.017899e+02
1.690000e-06	-7.102051e-07	-1.459995e-09	-5.055077e+00	-1.006278e+02
1.700000e-06	-6.647649e-07	-1.437088e-09	-4.731644e+00	-9.943683e+01
1.710000e-06	-6.192988e-07	-1.414543e-09	-4.408027e+00	-9.821582e+01
1.720000e-06	-5.737758e-07	-1.393472e-09	-4.084005e+00	-9.696355e+01
1.730000e-06	-5.282055e-07	-1.373818e-09	-3.759646e+00	-9.567875e+01
1.740000e-06	-4.825821e-07	-1.354670e-09	-3.434909e+00	-9.436014e+01
1.750000e-06	-4.368815e-07	-1.338608e-09	-3.109622e+00	-9.300639e+01
1.760000e-06	-3.911412e-07	-1.324330e-09	-2.784053e+00	-9.161619e+01
1.770000e-06	-3.453932e-07	-1.308058e-09	-2.458430e+00	-9.018821e+01
1.780000e-06	-2.996382e-07	-1.284630e-09	-2.132756e+00	-8.872114e+01
1.790000e-06	-2.538811e-07	-1.256965e-09	-1.807068e+00	-8.721371e+01
1.800000e-06	-2.080901e-07	-1.230402e-09	-1.481138e+00	-8.566465e+01
1.810000e-06	-1.623049e-07	-1.206126e-09	-1.155249e+00	-8.407278e+01
1.820000e-06	-1.165080e-07	-1.182539e-09	-8.292776e-01	-8.243696e+01
1.830000e-06	-7.063526e-08	-1.158372e-09	-5.027656e-01	-8.075612e+01
1.840000e-06	-2.482093e-08	-1.133473e-09	-1.766697e-01	-7.902930e+01
1.850000e-06	2.099948e-08	-1.108300e-09	1.494695e-01	-7.725560e+01
1.860000e-06	6.681514e-08	-1.082098e-09	4.755748e-01	-7.543425e+01
1.870000e-06	1.125178e-07	-1.052966e-09	8.008756e-01	-7.356457e+01
1.880000e-06	1.582283e-07	-1.021105e-09	1.126233e+00	-7.164601e+01
1.890000e-06	2.039810e-07	-9.893937e-10	1.451890e+00	-6.967814e+01
1.900000e-06	2.496904e-07	-9.570919e-10	1.777239e+00	-6.766064e+01
1.910000e-06	2.953516e-07	-9.248401e-10	2.102245e+00	-6.559335e+01
1.920000e-06	3.410994e-07	-8.944146e-10	2.427867e+00	-6.347619e+01
1.930000e-06	3.868845e-07	-8.637791e-10	2.753755e+00	-6.130925e+01
1.940000e-06	4.325525e-07	-8.329049e-10	3.078809e+00	-5.909273e+01
1.950000e-06	4.781266e-07	-8.003025e-10	3.403196e+00	-5.682694e+01
1.960000e-06	5.236247e-07	-7.656737e-10	3.727041e+00	-5.451232e+01
1.970000e-06	5.691144e-07	-7.287514e-10	4.050826e+00	-5.214942e+01
1.980000e-06	6.146422e-07	-6.871480e-10	4.374883e+00	-4.973891e+01
1.990000e-06	6.601117e-07	-6.450333e-10	4.698524e+00	-4.728156e+01
2.000000e-06	7.054970e-07	-6.072066e-10	5.021566e+00	-4.477823e+01
2.010000e-06	7.508078e-07	-5.748394e-10	5.344078e+00	-4.222989e+01
2.020000e-06	7.961074e-07	-5.437644e-10	5.666510e+00	-3.963758e+01
2.030000e-06	8.413962e-07	-5.125129e-10	5.988865e+00	-3.700244e+01
2.040000e-06	8.866051e-07	-4.789755e-10	6.310652e+00	-3.432569e+01
2.050000e-06	9.317138e-07	-4.376352e-10	6.631725e+00	-3.160863e+01
2.060000e-06	9.767305e-07	-3.884951e-10	6.952144e+00	-2.885264e+01
2.070000e-06	1.021678e-06	-3.355286e-10	7.272069e+00	-2.605916e+01
2.080000e-06	1.066590e-06	-2.878238e-10	7.591746e+00	-2.322973e+01
2.090000e-06	1.111435e-06	-2.489206e-10	7.910940e+00	-2.036595e+01
2.100000e-06	1.156110e-06	-2.137028e-10	8.228926e+00	-1.746950e+01
2.110000e-06	1.200617e-06	-1.783225e-10	8.545717e+00	-1.454215e+01
2.120000e-06	1.245019e-06	-1.425155e-10	8.861760e+00	-1.158573e+01
2.130000e-06	1.289393e-06	-1.043883e-10	9.177605e+00	-8.602196e+00
2.140000e-06	1.333713e-06	-5.814076e-11	9.493064e+00	-5.593552e+00
2.150000e-06	1.377917e-06	-2.843491e-12	9.807696e+00	-2.561916e+00
2.160000e-06	1.422038e-06	5.364034e-11	1.012174e+01	4.905038e-01
2.170000e-06	1.466090e-06	1.040721e-10	1.043529e+01	3.561399e+00
2.180000e-06	1.510136e-06	1.483325e-10	1.074880e+01	6.648364e+00
2.190000e-06	1.554186e-06	1.903204e-10	1.106234e+01	9.748891e+00
2.200000e-06	1.598217e-06	2.290998e-10	1.137574e+01	1.286037e+01
2.210000e-06	1.642211e-06	2.665365e-10	1.168888e+01	1.598010e+01
2.220000e-06	1.686138e-06	3.089796e-10	1.200154e+01	1.910528e+01
2.230000e-06	1.730018e-06	3.600321e-10	1.231387e+01	2.223302e+01
2.240000e-06	1.773843e-06	4.135704e-10	1.262581e+01	2.536034e+01
2.250000e-06	1.817515e-06	4.621257e-10	1.293666e+01	2.848420e+01
2.260000e-06	1.861043e-06	5.053625e-10	1.324648e+01	3.160148e+01
2.270000e-06	1.904389e-06	5.484517e-10	1.355500e+01	3.470902e+01
2.280000e-06	1.947539e-06	5.909691e-10	1.386214e+01	3.780361e+01
2.290000e-06	1.990523e-06	6.325358e-10	1.416809e+01	4.088204e+01
2.300000e-06	2.033283e-06	6.751124e-10	1.447244e+01	4.394107e+01
2.310000e-06	2.075774e-06	7.219399e-10	1.477488e+01	4.697749e+01
2.320000e-06	2.118097e-06	7.702019e-10	1.507613e+01	4.998812e+01
2.330000e-06	2.160207e-06	8.142355e-10	1.537586e+01	5.296984e+01
2.340000e-06	2.201997e-06	8.539623e-10	1.567331e+01	5.591958e+01
2.350000e-06	2.243518e-06	8.943552e-10	1.596885e+01	5.883439e+01
2.360000e-06	2.284715e-06	9.390184e-10	1.626208e+01	6.171142e+01
2.370000e-06	2.325681e-06	9.835729e-10	1.655366e+01	6.454797e+01
2.380000e-06	2.366444e-06	1.023892e-09	1.684381e+01	6.734146e+01
2.390000e-06	2.406957e-06	1.061514e-09	1.713217e+01	7.008953e+01
2.400000e-06	2.447283e-06	1.098107e-09	1.741920e+01	7.278995e+01
2.410000e-06	2.487461e-06	1.132500e-09	1.770518e+01	7.544072e+01
2.420000e-06	2.527551e-06	1.164392e-09	1.799053e+01	7.804005e+01
2.430000e-06	2.567550e-06	1.196515e-09	1.827524e+01	8.058635e+01
2.440000e-06	2.607409e-06	1.232967e-09	1.855894e+01	8.307828e+01
2.450000e-06	2.647151e-06	1.270511e-09	1.884182e+01	8.551469e+01
2.460000e-06	2.686820e-06	1.305254e-09	1.912417e+01	8.789468e+01
2.470000e-06	2.726288e-06	1.338090e-09	1.940509e+01	9.021759e+01
2.480000e-06	2.765525e-06	1.371624e-09	1.968438e+01	9.248295e+01
2.490000e-06	2.804565e-06	1.402596e-09	1.996225e+01	9.469052e+01
2.500000e-06	2.843306e-06	1.429545e-09	2.023800e+01	9.684027e+01
2.510000e-06	2.881875e-06	1.456314e-09	2.051253e+01	9.893233e+01
2.520000e-06	2.920271e-06	1.486805e-09	2.078582e+01	1.009670e+02
2.530000e-06	2.958379e-06	1.519259e-09	2.105706e+01	1.029449e+02
2.540000e-06	2.996289e-06	1.550937e-09	2.132690e+01	1.048665e+02
2.550000e-06	3.034113e-06	1.581405e-09	2.159612e+01	1.067326e+02
2.560000e-06	3.071930e-06	1.612431e-09	2.186529e+01	1.085442e+02
2.570000e-06	3.109561e-06	1.639466e-09	2.213314e+01	1.103020e+02
2.580000e-06	3.146857e-06	1.659314e-09	2.239861e+01	1.120073e+02
2.590000e-06	3.183845e-06	1.676967e-09	2.266188e+01	1.136610e+02
2.600000e-06	3.220550e-06	1.698319e-09	2.292314e+01	1.152642e+02
2.610000e-06	3.257098e-06	1.724953e-09	2.318328e+01	1.168182e+02
2.620000e-06	3.293478e-06	1.751737e-09	2.344222e+01	1.183240e+02
2.630000e-06	3.329596e-06	1.775476e-09	2.369931e+01	1.197828e+02
2.640000e-06	3.365568e-06	1.797804e-09	2.395534e+01	1.211957e+02
2.650000e-06	3.401489e-06	1.818280e-09	2.421102e+01	1.225639e+02
2.660000e-06	3.437331e-06	1.834624e-09	2.446613e+01	1.238883e+02
2.670000e-06	3.472987e-06	1.848228e-09	2.471993e+01	1.251701e+02
2.680000e-06	3.508421e-06	1.863382e-09	2.497213e+01	1.264102e+02
2.690000e-06	3.543552e-06	1.880384e-09	2.522219e+01	1.276096e+02
2.700000e-06	3.578229e-06	1.897384e-09	2.546902e+01	1.287693e+02
2.710000e-06	3.612411e-06	1.915687e-09	2.571231e+01	1.298901e+02
2.720000e-06	3.646127e-06	1.934317e-09	2.595230e+01	1.309730e+02
2.730000e-06	3.679342e-06	1.952574e-09	2.618872e+01	1.320189e+02
2.740000e-06	3.712138e-06	1.969234e-09	2.642215e+01	1.330285e+02
2.750000e-06	3.744665e-06	1.983726e-09	2.665367e+01	1.340028e+02
2.760000e-06	3.776978e-06	1.996857e-09	2.688367e+01	1.349426e+02
2.770000e-06	3.809130e-06	2.008037e-09	2.711251e+01	1.358489e+02
2.780000e-06	3.841102e-06	2.019169e-09	2.734009e+01	1.367224e+02
2.790000e-06	3.872886e-06	2.032669e-09	2.756631e+01	1.375642e+02
2.800000e-06	3.904542e-06	2.046408e-09	2.779164e+01	1.383752e+02
2.810000e-06	3.935959e-06	2.060701e-09	2.801525e+01	1.391564e+02
2.820000e-06	3.967016e-06	2.074411e-09	2.823631e+01	1.399089e+02
2.830000e-06	3.997810e-06	2.085418e-09	2.845550e+01	1.406336e+02
2.840000e-06	4.028346e-06	2.094868e-09	2.867284e+01	1.413317e+02
2.850000e-06	4.058636e-06	2.103495e-09	2.888844e+01	1.420043e+02
2.860000e-06	4.088715e-06	2.112332e-09	2.910253e+01	1.426526e+02
2.870000e-06	4.118495e-06	2.123448e-09	2.931450e+01	1.432778e+02
2.880000e-06	4.147965e-06	2.134066e-09	2.952426e+01	1.438810e+02
2.890000e-06	4.177196e-06	2.142384e-09	2.973233e+01	1.444635e+02
2.900000e-06	4.206105e-06	2.149128e-09	2.993809e+01	1.450265e+02
