# Temperatura_=_-6.17
# Concentracion g/m^3_=_4090.0
# C_Vs_to_Am_M_A/Vsm_=_65563218390.804596
# pendiente_HvsI_1/m_=_3716.3
# ordenada_HvsI_A/m_=_1297.0
# frecuencia_Hz_=_135073.3155389067

Tiempo_(s)	Campo_(V.s)	Magnetizacion_(V.s)	Campo_(kA/m)	Magnetizacion_(A/m)
0.000000e+00	-5.423748e-06	-1.780334e-09	-3.839615e+01	-1.166525e+02
1.000000e-08	-5.423877e-06	-1.781270e-09	-3.839707e+01	-1.165682e+02
2.000000e-08	-5.423711e-06	-1.781555e-09	-3.839589e+01	-1.164838e+02
3.000000e-08	-5.423134e-06	-1.782117e-09	-3.839181e+01	-1.164013e+02
4.000000e-08	-5.422167e-06	-1.786214e-09	-3.838496e+01	-1.163226e+02
5.000000e-08	-5.420814e-06	-1.794603e-09	-3.837539e+01	-1.162494e+02
6.000000e-08	-5.418925e-06	-1.808355e-09	-3.836201e+01	-1.161836e+02
7.000000e-08	-5.416402e-06	-1.807952e-09	-3.834415e+01	-1.161268e+02
8.000000e-08	-5.413237e-06	-1.740327e-09	-3.832175e+01	-1.160805e+02
9.000000e-08	-5.409465e-06	-1.695533e-09	-3.829504e+01	-1.160461e+02
1.000000e-07	-5.405341e-06	-1.822394e-09	-3.826585e+01	-1.160246e+02
1.100000e-07	-5.401036e-06	-1.916063e-09	-3.823537e+01	-1.160170e+02
1.200000e-07	-5.396486e-06	-1.782246e-09	-3.820316e+01	-1.160239e+02
1.300000e-07	-5.391718e-06	-1.669222e-09	-3.816941e+01	-1.160457e+02
1.400000e-07	-5.386649e-06	-1.792157e-09	-3.813352e+01	-1.160825e+02
1.500000e-07	-5.381151e-06	-1.944920e-09	-3.809460e+01	-1.161340e+02
1.600000e-07	-5.375211e-06	-1.749438e-09	-3.805255e+01	-1.161999e+02
1.700000e-07	-5.368848e-06	-1.614133e-09	-3.800750e+01	-1.162793e+02
1.800000e-07	-5.362115e-06	-1.776680e-09	-3.795984e+01	-1.163713e+02
1.900000e-07	-5.355047e-06	-1.939030e-09	-3.790980e+01	-1.164746e+02
2.000000e-07	-5.347635e-06	-1.781184e-09	-3.785733e+01	-1.165877e+02
2.100000e-07	-5.339983e-06	-1.719427e-09	-3.780316e+01	-1.167088e+02
2.200000e-07	-5.332104e-06	-1.877242e-09	-3.774738e+01	-1.168362e+02
2.300000e-07	-5.323932e-06	-1.909796e-09	-3.768953e+01	-1.169676e+02
2.400000e-07	-5.315283e-06	-1.768185e-09	-3.762830e+01	-1.171011e+02
2.500000e-07	-5.306062e-06	-1.805474e-09	-3.756303e+01	-1.172344e+02
2.600000e-07	-5.296315e-06	-1.949634e-09	-3.749402e+01	-1.173652e+02
2.700000e-07	-5.285972e-06	-1.866892e-09	-3.742081e+01	-1.174913e+02
2.800000e-07	-5.274998e-06	-1.786095e-09	-3.734312e+01	-1.176105e+02
2.900000e-07	-5.263537e-06	-1.910576e-09	-3.726198e+01	-1.177206e+02
3.000000e-07	-5.251717e-06	-1.963676e-09	-3.717830e+01	-1.178196e+02
3.100000e-07	-5.239534e-06	-1.791025e-09	-3.709206e+01	-1.179056e+02
3.200000e-07	-5.226984e-06	-1.792589e-09	-3.700321e+01	-1.179770e+02
3.300000e-07	-5.214084e-06	-1.910189e-09	-3.691189e+01	-1.180323e+02
3.400000e-07	-5.200749e-06	-1.884250e-09	-3.681748e+01	-1.180701e+02
3.500000e-07	-5.186994e-06	-1.792374e-09	-3.672011e+01	-1.180895e+02
3.600000e-07	-5.172966e-06	-1.869899e-09	-3.662081e+01	-1.180897e+02
3.700000e-07	-5.158485e-06	-1.876525e-09	-3.651829e+01	-1.180702e+02
3.800000e-07	-5.143427e-06	-1.819894e-09	-3.641169e+01	-1.180307e+02
3.900000e-07	-5.127740e-06	-1.831344e-09	-3.630064e+01	-1.179713e+02
4.000000e-07	-5.111595e-06	-1.860915e-09	-3.618634e+01	-1.178923e+02
4.100000e-07	-5.095117e-06	-1.782976e-09	-3.606969e+01	-1.177940e+02
4.200000e-07	-5.078186e-06	-1.802167e-09	-3.594983e+01	-1.176774e+02
4.300000e-07	-5.061001e-06	-1.868776e-09	-3.582817e+01	-1.175433e+02
4.400000e-07	-5.043605e-06	-1.833784e-09	-3.570502e+01	-1.173929e+02
4.500000e-07	-5.025823e-06	-1.777013e-09	-3.557914e+01	-1.172275e+02
4.600000e-07	-5.007676e-06	-1.826269e-09	-3.545067e+01	-1.170483e+02
4.700000e-07	-4.989072e-06	-1.845583e-09	-3.531897e+01	-1.168570e+02
4.800000e-07	-4.970004e-06	-1.808934e-09	-3.518398e+01	-1.166550e+02
4.900000e-07	-4.950600e-06	-1.791877e-09	-3.504661e+01	-1.164439e+02
5.000000e-07	-4.930962e-06	-1.787484e-09	-3.490759e+01	-1.162254e+02
5.100000e-07	-4.911160e-06	-1.791451e-09	-3.476741e+01	-1.160008e+02
5.200000e-07	-4.891149e-06	-1.808372e-09	-3.462574e+01	-1.157717e+02
5.300000e-07	-4.870802e-06	-1.795106e-09	-3.448170e+01	-1.155395e+02
5.400000e-07	-4.850139e-06	-1.770335e-09	-3.433543e+01	-1.153053e+02
5.500000e-07	-4.829201e-06	-1.802506e-09	-3.418720e+01	-1.150704e+02
5.600000e-07	-4.807884e-06	-1.815149e-09	-3.403629e+01	-1.148356e+02
5.700000e-07	-4.786191e-06	-1.781675e-09	-3.388272e+01	-1.146017e+02
5.800000e-07	-4.764192e-06	-1.760456e-09	-3.372698e+01	-1.143694e+02
5.900000e-07	-4.741944e-06	-1.774256e-09	-3.356949e+01	-1.141392e+02
6.000000e-07	-4.719320e-06	-1.771302e-09	-3.340933e+01	-1.139112e+02
6.100000e-07	-4.696217e-06	-1.770109e-09	-3.324577e+01	-1.136856e+02
6.200000e-07	-4.672785e-06	-1.753314e-09	-3.307989e+01	-1.134622e+02
6.300000e-07	-4.649192e-06	-1.746443e-09	-3.291287e+01	-1.132409e+02
6.400000e-07	-4.625460e-06	-1.760077e-09	-3.274486e+01	-1.130212e+02
6.500000e-07	-4.601461e-06	-1.768803e-09	-3.257496e+01	-1.128026e+02
6.600000e-07	-4.577111e-06	-1.731098e-09	-3.240259e+01	-1.125846e+02
6.700000e-07	-4.552373e-06	-1.716869e-09	-3.222746e+01	-1.123664e+02
6.800000e-07	-4.527182e-06	-1.731406e-09	-3.204913e+01	-1.121472e+02
6.900000e-07	-4.501492e-06	-1.741685e-09	-3.186726e+01	-1.119263e+02
7.000000e-07	-4.475244e-06	-1.724348e-09	-3.168144e+01	-1.117028e+02
7.100000e-07	-4.448596e-06	-1.717687e-09	-3.149280e+01	-1.114760e+02
7.200000e-07	-4.421614e-06	-1.720052e-09	-3.130178e+01	-1.112449e+02
7.300000e-07	-4.394344e-06	-1.729246e-09	-3.110873e+01	-1.110090e+02
7.400000e-07	-4.366820e-06	-1.716652e-09	-3.091388e+01	-1.107674e+02
7.500000e-07	-4.339049e-06	-1.695572e-09	-3.071728e+01	-1.105197e+02
7.600000e-07	-4.311073e-06	-1.692092e-09	-3.051924e+01	-1.102653e+02
7.700000e-07	-4.282842e-06	-1.704344e-09	-3.031938e+01	-1.100038e+02
7.800000e-07	-4.254324e-06	-1.696270e-09	-3.011749e+01	-1.097349e+02
7.900000e-07	-4.225494e-06	-1.677429e-09	-2.991340e+01	-1.094585e+02
8.000000e-07	-4.196347e-06	-1.671338e-09	-2.970706e+01	-1.091746e+02
8.100000e-07	-4.166909e-06	-1.676260e-09	-2.949866e+01	-1.088831e+02
8.200000e-07	-4.137197e-06	-1.676474e-09	-2.928832e+01	-1.085842e+02
8.300000e-07	-4.107243e-06	-1.663534e-09	-2.907627e+01	-1.082783e+02
8.400000e-07	-4.076982e-06	-1.652897e-09	-2.886204e+01	-1.079657e+02
8.500000e-07	-4.046378e-06	-1.652669e-09	-2.864539e+01	-1.076467e+02
8.600000e-07	-4.015453e-06	-1.652107e-09	-2.842646e+01	-1.073221e+02
8.700000e-07	-3.984354e-06	-1.634386e-09	-2.820631e+01	-1.069921e+02
8.800000e-07	-3.953174e-06	-1.616561e-09	-2.798557e+01	-1.066576e+02
8.900000e-07	-3.921751e-06	-1.611848e-09	-2.776312e+01	-1.063190e+02
9.000000e-07	-3.890083e-06	-1.619346e-09	-2.753893e+01	-1.059770e+02
9.100000e-07	-3.858257e-06	-1.612802e-09	-2.731363e+01	-1.056320e+02
9.200000e-07	-3.826266e-06	-1.600080e-09	-2.708715e+01	-1.052848e+02
9.300000e-07	-3.793975e-06	-1.589895e-09	-2.685856e+01	-1.049357e+02
9.400000e-07	-3.761404e-06	-1.590175e-09	-2.662798e+01	-1.045851e+02
9.500000e-07	-3.728409e-06	-1.582165e-09	-2.639440e+01	-1.042335e+02
9.600000e-07	-3.694825e-06	-1.570594e-09	-2.615665e+01	-1.038810e+02
9.700000e-07	-3.660797e-06	-1.561714e-09	-2.591575e+01	-1.035279e+02
9.800000e-07	-3.626355e-06	-1.564113e-09	-2.567193e+01	-1.031742e+02
9.900000e-07	-3.591457e-06	-1.559758e-09	-2.542488e+01	-1.028200e+02
1.000000e-06	-3.556309e-06	-1.548499e-09	-2.517606e+01	-1.024649e+02
1.010000e-06	-3.521079e-06	-1.535758e-09	-2.492666e+01	-1.021090e+02
1.020000e-06	-3.485632e-06	-1.528470e-09	-2.467571e+01	-1.017518e+02
1.030000e-06	-3.449924e-06	-1.520304e-09	-2.442293e+01	-1.013930e+02
1.040000e-06	-3.414108e-06	-1.515325e-09	-2.416938e+01	-1.010321e+02
1.050000e-06	-3.378164e-06	-1.511751e-09	-2.391492e+01	-1.006686e+02
1.060000e-06	-3.341988e-06	-1.513005e-09	-2.365882e+01	-1.003018e+02
1.070000e-06	-3.305552e-06	-1.510494e-09	-2.340088e+01	-9.993133e+01
1.080000e-06	-3.268962e-06	-1.497980e-09	-2.314185e+01	-9.955638e+01
1.090000e-06	-3.232202e-06	-1.479386e-09	-2.288162e+01	-9.917635e+01
1.100000e-06	-3.195082e-06	-1.465720e-09	-2.261884e+01	-9.879061e+01
1.110000e-06	-3.157673e-06	-1.459491e-09	-2.235401e+01	-9.839852e+01
1.120000e-06	-3.120046e-06	-1.455151e-09	-2.208764e+01	-9.799949e+01
1.130000e-06	-3.082257e-06	-1.451816e-09	-2.182012e+01	-9.759298e+01
1.140000e-06	-3.044374e-06	-1.450873e-09	-2.155193e+01	-9.717849e+01
1.150000e-06	-3.006301e-06	-1.448768e-09	-2.128241e+01	-9.675557e+01
1.160000e-06	-2.967870e-06	-1.438312e-09	-2.101034e+01	-9.632386e+01
1.170000e-06	-2.929110e-06	-1.423412e-09	-2.073595e+01	-9.588307e+01
1.180000e-06	-2.890265e-06	-1.408166e-09	-2.046095e+01	-9.543295e+01
1.190000e-06	-2.851335e-06	-1.398437e-09	-2.018536e+01	-9.497339e+01
1.200000e-06	-2.812172e-06	-1.390112e-09	-1.990811e+01	-9.450430e+01
1.210000e-06	-2.772765e-06	-1.385773e-09	-1.962914e+01	-9.402569e+01
1.220000e-06	-2.733216e-06	-1.384102e-09	-1.934917e+01	-9.353765e+01
1.230000e-06	-2.693557e-06	-1.383672e-09	-1.906841e+01	-9.304030e+01
1.240000e-06	-2.653756e-06	-1.375537e-09	-1.878664e+01	-9.253385e+01
1.250000e-06	-2.613833e-06	-1.366104e-09	-1.850402e+01	-9.201853e+01
1.260000e-06	-2.573838e-06	-1.354226e-09	-1.822088e+01	-9.149464e+01
1.270000e-06	-2.533720e-06	-1.341199e-09	-1.793688e+01	-9.096248e+01
1.280000e-06	-2.493460e-06	-1.329171e-09	-1.765187e+01	-9.042237e+01
1.290000e-06	-2.453037e-06	-1.321897e-09	-1.736571e+01	-8.987465e+01
1.300000e-06	-2.412342e-06	-1.314583e-09	-1.707761e+01	-8.931966e+01
1.310000e-06	-2.371411e-06	-1.307681e-09	-1.678785e+01	-8.875771e+01
1.320000e-06	-2.330248e-06	-1.301179e-09	-1.649645e+01	-8.818909e+01
1.330000e-06	-2.288830e-06	-1.294610e-09	-1.620324e+01	-8.761406e+01
1.340000e-06	-2.247098e-06	-1.287306e-09	-1.590780e+01	-8.703286e+01
1.350000e-06	-2.205050e-06	-1.278172e-09	-1.561013e+01	-8.644565e+01
1.360000e-06	-2.162764e-06	-1.265704e-09	-1.531079e+01	-8.585257e+01
1.370000e-06	-2.120190e-06	-1.254036e-09	-1.500939e+01	-8.525368e+01
1.380000e-06	-2.077338e-06	-1.244106e-09	-1.470603e+01	-8.464902e+01
1.390000e-06	-2.034294e-06	-1.235348e-09	-1.440131e+01	-8.403854e+01
1.400000e-06	-1.991060e-06	-1.226515e-09	-1.409525e+01	-8.342215e+01
1.410000e-06	-1.947593e-06	-1.217818e-09	-1.378753e+01	-8.279969e+01
1.420000e-06	-1.904029e-06	-1.210188e-09	-1.347913e+01	-8.217098e+01
1.430000e-06	-1.860475e-06	-1.201527e-09	-1.317080e+01	-8.153577e+01
1.440000e-06	-1.816822e-06	-1.189379e-09	-1.286176e+01	-8.089378e+01
1.450000e-06	-1.773070e-06	-1.175414e-09	-1.255204e+01	-8.024467e+01
1.460000e-06	-1.729257e-06	-1.164259e-09	-1.224187e+01	-7.958812e+01
1.470000e-06	-1.685380e-06	-1.154664e-09	-1.193125e+01	-7.892373e+01
1.480000e-06	-1.641478e-06	-1.143975e-09	-1.162046e+01	-7.825113e+01
1.490000e-06	-1.597507e-06	-1.131002e-09	-1.130918e+01	-7.756992e+01
1.500000e-06	-1.553470e-06	-1.120226e-09	-1.099743e+01	-7.687970e+01
1.510000e-06	-1.509317e-06	-1.111517e-09	-1.068486e+01	-7.618007e+01
1.520000e-06	-1.465030e-06	-1.101404e-09	-1.037133e+01	-7.547063e+01
1.530000e-06	-1.420657e-06	-1.089640e-09	-1.005721e+01	-7.475102e+01
1.540000e-06	-1.376211e-06	-1.078502e-09	-9.742567e+00	-7.402087e+01
1.550000e-06	-1.331722e-06	-1.068473e-09	-9.427614e+00	-7.327984e+01
1.560000e-06	-1.287096e-06	-1.059426e-09	-9.111695e+00	-7.252761e+01
1.570000e-06	-1.242249e-06	-1.047335e-09	-8.794210e+00	-7.176387e+01
1.580000e-06	-1.197371e-06	-1.033834e-09	-8.476507e+00	-7.098834e+01
1.590000e-06	-1.152515e-06	-1.022467e-09	-8.158958e+00	-7.020076e+01
1.600000e-06	-1.107610e-06	-1.012155e-09	-7.841065e+00	-6.940088e+01
1.610000e-06	-1.062613e-06	-9.962596e-10	-7.522518e+00	-6.858848e+01
1.620000e-06	-1.017443e-06	-9.805849e-10	-7.202750e+00	-6.776335e+01
1.630000e-06	-9.721487e-07	-9.664507e-10	-6.882099e+00	-6.692527e+01
1.640000e-06	-9.267387e-07	-9.535932e-10	-6.560630e+00	-6.607404e+01
1.650000e-06	-8.812842e-07	-9.418355e-10	-6.238845e+00	-6.520947e+01
1.660000e-06	-8.357863e-07	-9.329549e-10	-5.916753e+00	-6.433134e+01
1.670000e-06	-7.902071e-07	-9.246784e-10	-5.594086e+00	-6.343945e+01
1.680000e-06	-7.446174e-07	-9.100509e-10	-5.271345e+00	-6.253359e+01
1.690000e-06	-6.990366e-07	-8.888007e-10	-4.948666e+00	-6.161352e+01
1.700000e-06	-6.533870e-07	-8.689380e-10	-4.625501e+00	-6.067900e+01
1.710000e-06	-6.076591e-07	-8.543794e-10	-4.301780e+00	-5.972977e+01
1.720000e-06	-5.619558e-07	-8.431352e-10	-3.978235e+00	-5.876556e+01
1.730000e-06	-5.162085e-07	-8.306647e-10	-3.654378e+00	-5.778607e+01
1.740000e-06	-4.703558e-07	-8.181324e-10	-3.329774e+00	-5.679101e+01
1.750000e-06	-4.244597e-07	-8.094663e-10	-3.004863e+00	-5.578004e+01
1.760000e-06	-3.785665e-07	-7.990347e-10	-2.679973e+00	-5.475285e+01
1.770000e-06	-3.326486e-07	-7.799690e-10	-2.354908e+00	-5.370908e+01
1.780000e-06	-2.866533e-07	-7.536762e-10	-2.029295e+00	-5.264841e+01
1.790000e-06	-2.406464e-07	-7.307351e-10	-1.703600e+00	-5.157049e+01
1.800000e-06	-1.947033e-07	-7.152685e-10	-1.378357e+00	-5.047497e+01
1.810000e-06	-1.487249e-07	-7.031493e-10	-1.052863e+00	-4.936154e+01
1.820000e-06	-1.026067e-07	-6.902839e-10	-7.263800e-01	-4.822987e+01
1.830000e-06	-5.652935e-08	-6.783716e-10	-4.001863e-01	-4.707968e+01
1.840000e-06	-1.052203e-08	-6.644822e-10	-7.448825e-02	-4.591068e+01
1.850000e-06	3.554524e-08	-6.448173e-10	2.516342e-01	-4.472263e+01
1.860000e-06	8.158231e-08	-6.189480e-10	5.775429e-01	-4.351532e+01
1.870000e-06	1.275763e-07	-5.947229e-10	9.031464e-01	-4.228856e+01
1.880000e-06	1.735619e-07	-5.775864e-10	1.228691e+00	-4.104221e+01
1.890000e-06	2.195169e-07	-5.648957e-10	1.554019e+00	-3.977615e+01
1.900000e-06	2.654415e-07	-5.502898e-10	1.879131e+00	-3.849033e+01
1.910000e-06	3.113350e-07	-5.330583e-10	2.204023e+00	-3.718471e+01
1.920000e-06	3.571872e-07	-5.151598e-10	2.528623e+00	-3.585929e+01
1.930000e-06	4.030256e-07	-4.960636e-10	2.853125e+00	-3.451413e+01
1.940000e-06	4.488973e-07	-4.730174e-10	3.177864e+00	-3.314929e+01
1.950000e-06	4.947508e-07	-4.484145e-10	3.502472e+00	-3.176488e+01
1.960000e-06	5.405007e-07	-4.275079e-10	3.826348e+00	-3.036105e+01
1.970000e-06	5.862072e-07	-4.108173e-10	4.149917e+00	-2.893795e+01
1.980000e-06	6.318755e-07	-3.930939e-10	4.473215e+00	-2.749576e+01
1.990000e-06	6.774815e-07	-3.724131e-10	4.796072e+00	-2.603468e+01
2.000000e-06	7.230299e-07	-3.495948e-10	5.118521e+00	-2.455492e+01
2.010000e-06	7.685049e-07	-3.260310e-10	5.440451e+00	-2.305670e+01
2.020000e-06	8.139544e-07	-3.029393e-10	5.762200e+00	-2.154025e+01
2.030000e-06	8.593922e-07	-2.798911e-10	6.083866e+00	-2.000580e+01
2.040000e-06	9.047378e-07	-2.562367e-10	6.404880e+00	-1.845358e+01
2.050000e-06	9.499909e-07	-2.342754e-10	6.725238e+00	-1.688382e+01
2.060000e-06	9.952798e-07	-2.130571e-10	7.045850e+00	-1.529678e+01
2.070000e-06	1.040505e-06	-1.915094e-10	7.366009e+00	-1.369269e+01
2.080000e-06	1.085550e-06	-1.685062e-10	7.684898e+00	-1.207179e+01
2.090000e-06	1.130487e-06	-1.438357e-10	8.003021e+00	-1.043436e+01
2.100000e-06	1.175389e-06	-1.193427e-10	8.320889e+00	-8.780661e+00
2.110000e-06	1.220199e-06	-9.497728e-11	8.638111e+00	-7.110988e+00
2.120000e-06	1.264909e-06	-7.323358e-11	8.954630e+00	-5.425661e+00
2.130000e-06	1.309556e-06	-5.136805e-11	9.270693e+00	-3.725032e+00
2.140000e-06	1.354142e-06	-2.585433e-11	9.586332e+00	-2.009495e+00
2.150000e-06	1.398557e-06	3.884731e-12	9.900761e+00	-2.794889e-01
2.160000e-06	1.442865e-06	3.378892e-11	1.021443e+01	1.464488e+00
2.170000e-06	1.487167e-06	6.076919e-11	1.052805e+01	3.221873e+00
2.180000e-06	1.531306e-06	8.508452e-11	1.084052e+01	4.992036e+00
2.190000e-06	1.575311e-06	1.084837e-10	1.115205e+01	6.774263e+00
2.200000e-06	1.619296e-06	1.305725e-10	1.146343e+01	8.567758e+00
2.210000e-06	1.663212e-06	1.534708e-10	1.177432e+01	1.037164e+01
2.220000e-06	1.707065e-06	1.790569e-10	1.208477e+01	1.218492e+01
2.230000e-06	1.750885e-06	2.092103e-10	1.239498e+01	1.400652e+01
2.240000e-06	1.794641e-06	2.406581e-10	1.270474e+01	1.583528e+01
2.250000e-06	1.838350e-06	2.684339e-10	1.301417e+01	1.766992e+01
2.260000e-06	1.881971e-06	2.924078e-10	1.332297e+01	1.950908e+01
2.270000e-06	1.925525e-06	3.167973e-10	1.363130e+01	2.135132e+01
2.280000e-06	1.969021e-06	3.417665e-10	1.393923e+01	2.319509e+01
2.290000e-06	2.012349e-06	3.655688e-10	1.424595e+01	2.503879e+01
2.300000e-06	2.055468e-06	3.908405e-10	1.455121e+01	2.688075e+01
2.310000e-06	2.098340e-06	4.209155e-10	1.485471e+01	2.871925e+01
2.320000e-06	2.140982e-06	4.523655e-10	1.515658e+01	3.055252e+01
2.330000e-06	2.183401e-06	4.795512e-10	1.545688e+01	3.237877e+01
2.340000e-06	2.225524e-06	5.023335e-10	1.575508e+01	3.419621e+01
2.350000e-06	2.267355e-06	5.259810e-10	1.605121e+01	3.600306e+01
2.360000e-06	2.308937e-06	5.525736e-10	1.634558e+01	3.779753e+01
2.370000e-06	2.350244e-06	5.775993e-10	1.663800e+01	3.957790e+01
2.380000e-06	2.391251e-06	6.007754e-10	1.692830e+01	4.134251e+01
2.390000e-06	2.432013e-06	6.246304e-10	1.721687e+01	4.308974e+01
2.400000e-06	2.472467e-06	6.507221e-10	1.750325e+01	4.481808e+01
2.410000e-06	2.512701e-06	6.776903e-10	1.778808e+01	4.652611e+01
2.420000e-06	2.552833e-06	7.016079e-10	1.807219e+01	4.821253e+01
2.430000e-06	2.592801e-06	7.229729e-10	1.835513e+01	4.987616e+01
2.440000e-06	2.632679e-06	7.439080e-10	1.863744e+01	5.151594e+01
2.450000e-06	2.672492e-06	7.639275e-10	1.891928e+01	5.313095e+01
2.460000e-06	2.712172e-06	7.844762e-10	1.920018e+01	5.472041e+01
2.470000e-06	2.751700e-06	8.070786e-10	1.948002e+01	5.628370e+01
2.480000e-06	2.791079e-06	8.331509e-10	1.975879e+01	5.782031e+01
2.490000e-06	2.830269e-06	8.585968e-10	2.003623e+01	5.932990e+01
2.500000e-06	2.869253e-06	8.813955e-10	2.031220e+01	6.081225e+01
2.510000e-06	2.908133e-06	9.018968e-10	2.058745e+01	6.226725e+01
2.520000e-06	2.946805e-06	9.225901e-10	2.086122e+01	6.369493e+01
2.530000e-06	2.985132e-06	9.421438e-10	2.113254e+01	6.509541e+01
2.540000e-06	3.023273e-06	9.601050e-10	2.140255e+01	6.646893e+01
2.550000e-06	3.061226e-06	9.781752e-10	2.167123e+01	6.781577e+01
2.560000e-06	3.098922e-06	9.992516e-10	2.193809e+01	6.913630e+01
2.570000e-06	3.136414e-06	1.020721e-09	2.220351e+01	7.043095e+01
2.580000e-06	3.173759e-06	1.039279e-09	2.246789e+01	7.170016e+01
2.590000e-06	3.210936e-06	1.055233e-09	2.273107e+01	7.294440e+01
2.600000e-06	3.247852e-06	1.071999e-09	2.299241e+01	7.416415e+01
2.610000e-06	3.284476e-06	1.091226e-09	2.325168e+01	7.535990e+01
2.620000e-06	3.320825e-06	1.107800e-09	2.350900e+01	7.653208e+01
2.630000e-06	3.357017e-06	1.121094e-09	2.376522e+01	7.768113e+01
2.640000e-06	3.393069e-06	1.133595e-09	2.402044e+01	7.880742e+01
2.650000e-06	3.428958e-06	1.146508e-09	2.427451e+01	7.991131e+01
2.660000e-06	3.464703e-06	1.159866e-09	2.452755e+01	8.099308e+01
2.670000e-06	3.500274e-06	1.173745e-09	2.477937e+01	8.205296e+01
2.680000e-06	3.535699e-06	1.188440e-09	2.503015e+01	8.309114e+01
2.690000e-06	3.570886e-06	1.204509e-09	2.527925e+01	8.410775e+01
2.700000e-06	3.605807e-06	1.218895e-09	2.552647e+01	8.510286e+01
2.710000e-06	3.640388e-06	1.230705e-09	2.577128e+01	8.607650e+01
2.720000e-06	3.674507e-06	1.242305e-09	2.601281e+01	8.702868e+01
2.730000e-06	3.708118e-06	1.257260e-09	2.625076e+01	8.795935e+01
2.740000e-06	3.741272e-06	1.273120e-09	2.648546e+01	8.886847e+01
2.750000e-06	3.774067e-06	1.287704e-09	2.671762e+01	8.975596e+01
2.760000e-06	3.806535e-06	1.301825e-09	2.694748e+01	9.062177e+01
2.770000e-06	3.838709e-06	1.315514e-09	2.717524e+01	9.146583e+01
2.780000e-06	3.870643e-06	1.327598e-09	2.740131e+01	9.228813e+01
2.790000e-06	3.902425e-06	1.339555e-09	2.762630e+01	9.308866e+01
2.800000e-06	3.934047e-06	1.350334e-09	2.785017e+01	9.386747e+01
2.810000e-06	3.965489e-06	1.361907e-09	2.807275e+01	9.462466e+01
2.820000e-06	3.996782e-06	1.374479e-09	2.829428e+01	9.536039e+01
2.830000e-06	4.027898e-06	1.387897e-09	2.851456e+01	9.607489e+01
2.840000e-06	4.058586e-06	1.399837e-09	2.873181e+01	9.676844e+01
2.850000e-06	4.088875e-06	1.411379e-09	2.894624e+01	9.744141e+01
2.860000e-06	4.118890e-06	1.423407e-09	2.915872e+01	9.809424e+01
2.870000e-06	4.148633e-06	1.434257e-09	2.936927e+01	9.872743e+01
2.880000e-06	4.178156e-06	1.443757e-09	2.957828e+01	9.934154e+01
2.890000e-06	4.207443e-06	1.448869e-09	2.978561e+01	9.993722e+01
2.900000e-06	4.236436e-06	1.452202e-09	2.999086e+01	1.005151e+02
