# Temperatura_=_-0.97
# Concentracion g/m^3_=_4090.0
# C_Vs_to_Am_M_A/Vsm_=_65563218390.804596
# pendiente_HvsI_1/m_=_3716.3
# ordenada_HvsI_A/m_=_1297.0
# frecuencia_Hz_=_135065.09787632932

Tiempo_(s)	Campo_(V.s)	Magnetizacion_(V.s)	Campo_(kA/m)	Magnetizacion_(A/m)
0.000000e+00	-5.427902e-06	-2.542913e-09	-3.840407e+01	-1.658041e+02
1.000000e-08	-5.428104e-06	-2.541262e-09	-3.840550e+01	-1.657350e+02
2.000000e-08	-5.428018e-06	-2.537681e-09	-3.840489e+01	-1.656656e+02
3.000000e-08	-5.427586e-06	-2.530635e-09	-3.840183e+01	-1.655973e+02
4.000000e-08	-5.426749e-06	-2.527125e-09	-3.839591e+01	-1.655314e+02
5.000000e-08	-5.425270e-06	-2.531486e-09	-3.838544e+01	-1.654692e+02
6.000000e-08	-5.423110e-06	-2.540267e-09	-3.837017e+01	-1.654120e+02
7.000000e-08	-5.420319e-06	-2.546613e-09	-3.835042e+01	-1.653609e+02
8.000000e-08	-5.416981e-06	-2.531200e-09	-3.832680e+01	-1.653171e+02
9.000000e-08	-5.413182e-06	-2.516987e-09	-3.829992e+01	-1.652814e+02
1.000000e-07	-5.409052e-06	-2.548602e-09	-3.827070e+01	-1.652546e+02
1.100000e-07	-5.404743e-06	-2.584173e-09	-3.824021e+01	-1.652374e+02
1.200000e-07	-5.400203e-06	-2.545938e-09	-3.820809e+01	-1.652302e+02
1.300000e-07	-5.395263e-06	-2.494470e-09	-3.817314e+01	-1.652333e+02
1.400000e-07	-5.389887e-06	-2.518269e-09	-3.813510e+01	-1.652468e+02
1.500000e-07	-5.384233e-06	-2.579864e-09	-3.809509e+01	-1.652706e+02
1.600000e-07	-5.378208e-06	-2.528974e-09	-3.805247e+01	-1.653043e+02
1.700000e-07	-5.371620e-06	-2.471665e-09	-3.800586e+01	-1.653474e+02
1.800000e-07	-5.364606e-06	-2.511429e-09	-3.795623e+01	-1.653991e+02
1.900000e-07	-5.357433e-06	-2.589970e-09	-3.790548e+01	-1.654586e+02
2.000000e-07	-5.350055e-06	-2.566189e-09	-3.785328e+01	-1.655248e+02
2.100000e-07	-5.342343e-06	-2.532794e-09	-3.779872e+01	-1.655965e+02
2.200000e-07	-5.334388e-06	-2.580706e-09	-3.774243e+01	-1.656722e+02
2.300000e-07	-5.326202e-06	-2.620767e-09	-3.768451e+01	-1.657505e+02
2.400000e-07	-5.317445e-06	-2.588371e-09	-3.762255e+01	-1.658299e+02
2.500000e-07	-5.307850e-06	-2.587684e-09	-3.755467e+01	-1.659086e+02
2.600000e-07	-5.297665e-06	-2.648504e-09	-3.748260e+01	-1.659852e+02
2.700000e-07	-5.287048e-06	-2.646379e-09	-3.740748e+01	-1.660578e+02
2.800000e-07	-5.275889e-06	-2.604001e-09	-3.732853e+01	-1.661248e+02
2.900000e-07	-5.264338e-06	-2.625485e-09	-3.724680e+01	-1.661847e+02
3.000000e-07	-5.252449e-06	-2.663797e-09	-3.716269e+01	-1.662359e+02
3.100000e-07	-5.240097e-06	-2.611986e-09	-3.707529e+01	-1.662770e+02
3.200000e-07	-5.227363e-06	-2.583016e-09	-3.698519e+01	-1.663066e+02
3.300000e-07	-5.214272e-06	-2.611023e-09	-3.689257e+01	-1.663236e+02
3.400000e-07	-5.200775e-06	-2.620109e-09	-3.679708e+01	-1.663270e+02
3.500000e-07	-5.187034e-06	-2.587246e-09	-3.669985e+01	-1.663159e+02
3.600000e-07	-5.173042e-06	-2.607183e-09	-3.660086e+01	-1.662897e+02
3.700000e-07	-5.158522e-06	-2.611029e-09	-3.649812e+01	-1.662479e+02
3.800000e-07	-5.143202e-06	-2.582051e-09	-3.638973e+01	-1.661901e+02
3.900000e-07	-5.127177e-06	-2.578989e-09	-3.627635e+01	-1.661164e+02
4.000000e-07	-5.110856e-06	-2.597757e-09	-3.616087e+01	-1.660267e+02
4.100000e-07	-5.094218e-06	-2.561862e-09	-3.604316e+01	-1.659214e+02
4.200000e-07	-5.077198e-06	-2.549803e-09	-3.592273e+01	-1.658008e+02
4.300000e-07	-5.059946e-06	-2.588943e-09	-3.580067e+01	-1.656657e+02
4.400000e-07	-5.042429e-06	-2.596321e-09	-3.567673e+01	-1.655166e+02
4.500000e-07	-5.024523e-06	-2.558934e-09	-3.555004e+01	-1.653546e+02
4.600000e-07	-5.006195e-06	-2.560740e-09	-3.542036e+01	-1.651805e+02
4.700000e-07	-4.987549e-06	-2.576877e-09	-3.528844e+01	-1.649955e+02
4.800000e-07	-4.968509e-06	-2.560479e-09	-3.515372e+01	-1.648005e+02
4.900000e-07	-4.949147e-06	-2.542941e-09	-3.501673e+01	-1.645969e+02
5.000000e-07	-4.929550e-06	-2.545370e-09	-3.487807e+01	-1.643857e+02
5.100000e-07	-4.909655e-06	-2.552513e-09	-3.473731e+01	-1.641681e+02
5.200000e-07	-4.889582e-06	-2.560514e-09	-3.459529e+01	-1.639453e+02
5.300000e-07	-4.869247e-06	-2.561458e-09	-3.445142e+01	-1.637184e+02
5.400000e-07	-4.848478e-06	-2.543073e-09	-3.430446e+01	-1.634884e+02
5.500000e-07	-4.827288e-06	-2.534225e-09	-3.415454e+01	-1.632563e+02
5.600000e-07	-4.805824e-06	-2.535820e-09	-3.400267e+01	-1.630229e+02
5.700000e-07	-4.784090e-06	-2.525807e-09	-3.384890e+01	-1.627890e+02
5.800000e-07	-4.761956e-06	-2.506075e-09	-3.369230e+01	-1.625552e+02
5.900000e-07	-4.739478e-06	-2.509823e-09	-3.353326e+01	-1.623221e+02
6.000000e-07	-4.716742e-06	-2.522743e-09	-3.337239e+01	-1.620900e+02
6.100000e-07	-4.693665e-06	-2.525380e-09	-3.320912e+01	-1.618593e+02
6.200000e-07	-4.670245e-06	-2.510003e-09	-3.304342e+01	-1.616301e+02
6.300000e-07	-4.646590e-06	-2.500513e-09	-3.287605e+01	-1.614025e+02
6.400000e-07	-4.622764e-06	-2.496620e-09	-3.270747e+01	-1.611762e+02
6.500000e-07	-4.598743e-06	-2.491286e-09	-3.253752e+01	-1.609513e+02
6.600000e-07	-4.574400e-06	-2.472668e-09	-3.236528e+01	-1.607272e+02
6.700000e-07	-4.549642e-06	-2.463784e-09	-3.219011e+01	-1.605038e+02
6.800000e-07	-4.524347e-06	-2.468408e-09	-3.201114e+01	-1.602806e+02
6.900000e-07	-4.498638e-06	-2.477291e-09	-3.182924e+01	-1.600570e+02
7.000000e-07	-4.472547e-06	-2.472451e-09	-3.164464e+01	-1.598325e+02
7.100000e-07	-4.445863e-06	-2.461934e-09	-3.145584e+01	-1.596065e+02
7.200000e-07	-4.418651e-06	-2.454773e-09	-3.126331e+01	-1.593785e+02
7.300000e-07	-4.391106e-06	-2.453932e-09	-3.106842e+01	-1.591477e+02
7.400000e-07	-4.363402e-06	-2.443131e-09	-3.087240e+01	-1.589137e+02
7.500000e-07	-4.335618e-06	-2.427906e-09	-3.067582e+01	-1.586757e+02
7.600000e-07	-4.307652e-06	-2.422499e-09	-3.047796e+01	-1.584334e+02
7.700000e-07	-4.279385e-06	-2.427922e-09	-3.027796e+01	-1.581861e+02
7.800000e-07	-4.250766e-06	-2.428435e-09	-3.007547e+01	-1.579334e+02
7.900000e-07	-4.221828e-06	-2.420525e-09	-2.987073e+01	-1.576749e+02
8.000000e-07	-4.192571e-06	-2.414583e-09	-2.966372e+01	-1.574102e+02
8.100000e-07	-4.162988e-06	-2.414440e-09	-2.945442e+01	-1.571391e+02
8.200000e-07	-4.133176e-06	-2.414268e-09	-2.924349e+01	-1.568613e+02
8.300000e-07	-4.103064e-06	-2.404591e-09	-2.903044e+01	-1.565766e+02
8.400000e-07	-4.072616e-06	-2.393260e-09	-2.881500e+01	-1.562849e+02
8.500000e-07	-4.041900e-06	-2.387806e-09	-2.859768e+01	-1.559863e+02
8.600000e-07	-4.010963e-06	-2.385960e-09	-2.837879e+01	-1.556806e+02
8.700000e-07	-3.979771e-06	-2.378553e-09	-2.815810e+01	-1.553681e+02
8.800000e-07	-3.948314e-06	-2.368521e-09	-2.793553e+01	-1.550487e+02
8.900000e-07	-3.916673e-06	-2.364855e-09	-2.771166e+01	-1.547227e+02
9.000000e-07	-3.884899e-06	-2.368335e-09	-2.748685e+01	-1.543902e+02
9.100000e-07	-3.853019e-06	-2.363613e-09	-2.726129e+01	-1.540516e+02
9.200000e-07	-3.820932e-06	-2.350724e-09	-2.703427e+01	-1.537069e+02
9.300000e-07	-3.788492e-06	-2.336727e-09	-2.680474e+01	-1.533564e+02
9.400000e-07	-3.755708e-06	-2.331674e-09	-2.657278e+01	-1.530005e+02
9.500000e-07	-3.722482e-06	-2.328257e-09	-2.633770e+01	-1.526395e+02
9.600000e-07	-3.688751e-06	-2.323430e-09	-2.609904e+01	-1.522734e+02
9.700000e-07	-3.654588e-06	-2.317655e-09	-2.585733e+01	-1.519027e+02
9.800000e-07	-3.620037e-06	-2.316127e-09	-2.561287e+01	-1.515276e+02
9.900000e-07	-3.585094e-06	-2.312376e-09	-2.536564e+01	-1.511483e+02
1.000000e-06	-3.549787e-06	-2.304681e-09	-2.511583e+01	-1.507650e+02
1.010000e-06	-3.514266e-06	-2.291117e-09	-2.486451e+01	-1.503779e+02
1.020000e-06	-3.478616e-06	-2.278195e-09	-2.461227e+01	-1.499871e+02
1.030000e-06	-3.442844e-06	-2.271574e-09	-2.435918e+01	-1.495929e+02
1.040000e-06	-3.406945e-06	-2.271359e-09	-2.410518e+01	-1.491953e+02
1.050000e-06	-3.370956e-06	-2.268459e-09	-2.385055e+01	-1.487943e+02
1.060000e-06	-3.334774e-06	-2.262568e-09	-2.359455e+01	-1.483902e+02
1.070000e-06	-3.298317e-06	-2.257070e-09	-2.333660e+01	-1.479827e+02
1.080000e-06	-3.261585e-06	-2.250455e-09	-2.307671e+01	-1.475721e+02
1.090000e-06	-3.224585e-06	-2.239043e-09	-2.281493e+01	-1.471582e+02
1.100000e-06	-3.187353e-06	-2.227432e-09	-2.255150e+01	-1.467410e+02
1.110000e-06	-3.149876e-06	-2.217387e-09	-2.228634e+01	-1.463204e+02
1.120000e-06	-3.112131e-06	-2.208277e-09	-2.201928e+01	-1.458963e+02
1.130000e-06	-3.074186e-06	-2.201118e-09	-2.175081e+01	-1.454685e+02
1.140000e-06	-3.036049e-06	-2.194775e-09	-2.148098e+01	-1.450370e+02
1.150000e-06	-2.997692e-06	-2.187826e-09	-2.120959e+01	-1.446014e+02
1.160000e-06	-2.959193e-06	-2.180097e-09	-2.093720e+01	-1.441616e+02
1.170000e-06	-2.920513e-06	-2.174889e-09	-2.066353e+01	-1.437174e+02
1.180000e-06	-2.881565e-06	-2.167653e-09	-2.038795e+01	-1.432685e+02
1.190000e-06	-2.842350e-06	-2.159878e-09	-2.011050e+01	-1.428146e+02
1.200000e-06	-2.803017e-06	-2.148881e-09	-1.983221e+01	-1.423554e+02
1.210000e-06	-2.763570e-06	-2.137246e-09	-1.955310e+01	-1.418905e+02
1.220000e-06	-2.723990e-06	-2.125851e-09	-1.927306e+01	-1.414196e+02
1.230000e-06	-2.684331e-06	-2.114321e-09	-1.899247e+01	-1.409424e+02
1.240000e-06	-2.644541e-06	-2.103871e-09	-1.871094e+01	-1.404583e+02
1.250000e-06	-2.604674e-06	-2.098853e-09	-1.842887e+01	-1.399670e+02
1.260000e-06	-2.564652e-06	-2.096682e-09	-1.814570e+01	-1.394681e+02
1.270000e-06	-2.524484e-06	-2.092030e-09	-1.786150e+01	-1.389611e+02
1.280000e-06	-2.484208e-06	-2.083030e-09	-1.757653e+01	-1.384454e+02
1.290000e-06	-2.443687e-06	-2.072468e-09	-1.728983e+01	-1.379207e+02
1.300000e-06	-2.402979e-06	-2.059209e-09	-1.700182e+01	-1.373864e+02
1.310000e-06	-2.362066e-06	-2.044862e-09	-1.671234e+01	-1.368421e+02
1.320000e-06	-2.320895e-06	-2.030920e-09	-1.642104e+01	-1.362873e+02
1.330000e-06	-2.279415e-06	-2.022743e-09	-1.612756e+01	-1.357215e+02
1.340000e-06	-2.237504e-06	-2.018713e-09	-1.583103e+01	-1.351442e+02
1.350000e-06	-2.195211e-06	-2.012612e-09	-1.553179e+01	-1.345550e+02
1.360000e-06	-2.152739e-06	-2.002732e-09	-1.523129e+01	-1.339535e+02
1.370000e-06	-2.110150e-06	-1.988601e-09	-1.492996e+01	-1.333393e+02
1.380000e-06	-2.067337e-06	-1.973084e-09	-1.462704e+01	-1.327120e+02
1.390000e-06	-2.024280e-06	-1.959131e-09	-1.432240e+01	-1.320714e+02
1.400000e-06	-1.980929e-06	-1.946023e-09	-1.401568e+01	-1.314170e+02
1.410000e-06	-1.937350e-06	-1.935689e-09	-1.370734e+01	-1.307487e+02
1.420000e-06	-1.893702e-06	-1.928052e-09	-1.339852e+01	-1.300663e+02
1.430000e-06	-1.849993e-06	-1.920024e-09	-1.308927e+01	-1.293695e+02
1.440000e-06	-1.806197e-06	-1.908611e-09	-1.277940e+01	-1.286584e+02
1.450000e-06	-1.762374e-06	-1.897105e-09	-1.246933e+01	-1.279327e+02
1.460000e-06	-1.718544e-06	-1.887299e-09	-1.215923e+01	-1.271924e+02
1.470000e-06	-1.674646e-06	-1.875406e-09	-1.184863e+01	-1.264375e+02
1.480000e-06	-1.630686e-06	-1.861452e-09	-1.153761e+01	-1.256681e+02
1.490000e-06	-1.586690e-06	-1.846029e-09	-1.122632e+01	-1.248841e+02
1.500000e-06	-1.542606e-06	-1.830492e-09	-1.091441e+01	-1.240855e+02
1.510000e-06	-1.498436e-06	-1.814819e-09	-1.060189e+01	-1.232725e+02
1.520000e-06	-1.454202e-06	-1.801396e-09	-1.028892e+01	-1.224449e+02
1.530000e-06	-1.409910e-06	-1.792952e-09	-9.975545e+00	-1.216029e+02
1.540000e-06	-1.365525e-06	-1.787855e-09	-9.661509e+00	-1.207464e+02
1.550000e-06	-1.320974e-06	-1.780131e-09	-9.346298e+00	-1.198753e+02
1.560000e-06	-1.276302e-06	-1.768072e-09	-9.030225e+00	-1.189895e+02
1.570000e-06	-1.231537e-06	-1.751394e-09	-8.713504e+00	-1.180888e+02
1.580000e-06	-1.186603e-06	-1.733949e-09	-8.395579e+00	-1.171730e+02
1.590000e-06	-1.141575e-06	-1.716309e-09	-8.076996e+00	-1.162417e+02
1.600000e-06	-1.096480e-06	-1.699731e-09	-7.757932e+00	-1.152944e+02
1.610000e-06	-1.051270e-06	-1.683999e-09	-7.438060e+00	-1.143308e+02
1.620000e-06	-1.005991e-06	-1.670989e-09	-7.117696e+00	-1.133500e+02
1.630000e-06	-9.606337e-07	-1.657072e-09	-6.796778e+00	-1.123513e+02
1.640000e-06	-9.152355e-07	-1.639070e-09	-6.475571e+00	-1.113339e+02
1.650000e-06	-8.698001e-07	-1.619451e-09	-6.154102e+00	-1.102969e+02
1.660000e-06	-8.243148e-07	-1.605307e-09	-5.832279e+00	-1.092390e+02
1.670000e-06	-7.787855e-07	-1.595591e-09	-5.510146e+00	-1.081592e+02
1.680000e-06	-7.331923e-07	-1.581399e-09	-5.187560e+00	-1.070561e+02
1.690000e-06	-6.875341e-07	-1.560042e-09	-4.864514e+00	-1.059283e+02
1.700000e-06	-6.418014e-07	-1.537180e-09	-4.540941e+00	-1.047743e+02
1.710000e-06	-5.960524e-07	-1.517463e-09	-4.217254e+00	-1.035925e+02
1.720000e-06	-5.502515e-07	-1.497775e-09	-3.893198e+00	-1.023814e+02
1.730000e-06	-5.043768e-07	-1.476010e-09	-3.568621e+00	-1.011392e+02
1.740000e-06	-4.584917e-07	-1.458188e-09	-3.243970e+00	-9.986425e+01
1.750000e-06	-4.125782e-07	-1.447831e-09	-2.919117e+00	-9.855477e+01
1.760000e-06	-3.666425e-07	-1.435707e-09	-2.594108e+00	-9.720905e+01
1.770000e-06	-3.206370e-07	-1.412979e-09	-2.268605e+00	-9.582534e+01
1.780000e-06	-2.746279e-07	-1.383148e-09	-1.943076e+00	-9.440195e+01
1.790000e-06	-2.286322e-07	-1.357014e-09	-1.617643e+00	-9.293724e+01
1.800000e-06	-1.825864e-07	-1.335244e-09	-1.291855e+00	-9.142961e+01
1.810000e-06	-1.365333e-07	-1.312902e-09	-9.660152e-01	-8.987755e+01
1.820000e-06	-9.050480e-08	-1.287626e-09	-6.403492e-01	-8.827964e+01
1.830000e-06	-4.457082e-08	-1.265616e-09	-3.153522e-01	-8.663458e+01
1.840000e-06	1.337522e-09	-1.245306e-09	9.463375e-03	-8.494116e+01
1.850000e-06	4.727939e-08	-1.219512e-09	3.345162e-01	-8.319831e+01
1.860000e-06	9.323678e-08	-1.185952e-09	6.596788e-01	-8.140509e+01
1.870000e-06	1.392226e-07	-1.151853e-09	9.850428e-01	-7.956069e+01
1.880000e-06	1.851935e-07	-1.124544e-09	1.310301e+00	-7.766445e+01
1.890000e-06	2.312010e-07	-1.100161e-09	1.635818e+00	-7.571585e+01
1.900000e-06	2.772249e-07	-1.071825e-09	1.961451e+00	-7.371451e+01
1.910000e-06	3.231494e-07	-1.041779e-09	2.286381e+00	-7.166018e+01
1.920000e-06	3.690094e-07	-1.013008e-09	2.610855e+00	-6.955278e+01
1.930000e-06	4.148256e-07	-9.836014e-10	2.935018e+00	-6.739232e+01
1.940000e-06	4.606306e-07	-9.495101e-10	3.259102e+00	-6.517896e+01
1.950000e-06	5.064822e-07	-9.120339e-10	3.583517e+00	-6.291298e+01
1.960000e-06	5.522661e-07	-8.759475e-10	3.907452e+00	-6.059475e+01
1.970000e-06	5.979563e-07	-8.445171e-10	4.230724e+00	-5.822476e+01
1.980000e-06	6.436644e-07	-8.139611e-10	4.554123e+00	-5.580358e+01
1.990000e-06	6.893907e-07	-7.798510e-10	4.877650e+00	-5.333188e+01
2.000000e-06	7.350469e-07	-7.427035e-10	5.200682e+00	-5.081039e+01
2.010000e-06	7.806299e-07	-7.030173e-10	5.523196e+00	-4.823993e+01
2.020000e-06	8.261652e-07	-6.618373e-10	5.845372e+00	-4.562138e+01
2.030000e-06	8.716231e-07	-6.186159e-10	6.167000e+00	-4.295566e+01
2.040000e-06	9.170402e-07	-5.761365e-10	6.488341e+00	-4.024379e+01
2.050000e-06	9.623623e-07	-5.359499e-10	6.809008e+00	-3.748680e+01
2.060000e-06	1.007556e-06	-4.970978e-10	7.128768e+00	-3.468582e+01
2.070000e-06	1.052717e-06	-4.578013e-10	7.448294e+00	-3.184200e+01
2.080000e-06	1.097815e-06	-4.162307e-10	7.767376e+00	-2.895658e+01
2.090000e-06	1.142755e-06	-3.709574e-10	8.085343e+00	-2.603086e+01
2.100000e-06	1.187498e-06	-3.247027e-10	8.401911e+00	-2.306619e+01
2.110000e-06	1.232225e-06	-2.789581e-10	8.718372e+00	-2.006404e+01
2.120000e-06	1.276882e-06	-2.352565e-10	9.034333e+00	-1.702594e+01
2.130000e-06	1.321394e-06	-1.927880e-10	9.349269e+00	-1.395353e+01
2.140000e-06	1.365878e-06	-1.491427e-10	9.664007e+00	-1.084855e+01
2.150000e-06	1.410254e-06	-1.042268e-10	9.977980e+00	-7.712867e+00
2.160000e-06	1.454588e-06	-5.779477e-11	1.029165e+01	-4.548463e+00
2.170000e-06	1.498876e-06	-1.025501e-11	1.060500e+01	-1.357461e+00
2.180000e-06	1.543039e-06	3.715339e-11	1.091747e+01	1.857871e+00
2.190000e-06	1.587105e-06	8.406465e-11	1.122925e+01	5.095121e+00
2.200000e-06	1.631109e-06	1.311958e-10	1.154060e+01	8.351722e+00
2.210000e-06	1.675055e-06	1.796777e-10	1.185153e+01	1.162495e+01
2.220000e-06	1.718939e-06	2.282775e-10	1.216202e+01	1.491193e+01
2.230000e-06	1.762820e-06	2.784336e-10	1.247249e+01	1.820963e+01
2.240000e-06	1.806657e-06	3.299912e-10	1.278265e+01	2.151486e+01
2.250000e-06	1.850359e-06	3.789855e-10	1.309185e+01	2.482431e+01
2.260000e-06	1.893926e-06	4.273161e-10	1.340011e+01	2.813452e+01
2.270000e-06	1.937429e-06	4.767531e-10	1.370791e+01	3.144193e+01
2.280000e-06	1.980858e-06	5.228262e-10	1.401517e+01	3.474288e+01
2.290000e-06	2.024100e-06	5.654106e-10	1.432113e+01	3.803360e+01
2.300000e-06	2.067149e-06	6.103764e-10	1.462571e+01	4.131031e+01
2.310000e-06	2.110035e-06	6.592827e-10	1.492914e+01	4.456915e+01
2.320000e-06	2.152674e-06	7.097704e-10	1.523083e+01	4.780628e+01
2.330000e-06	2.195061e-06	7.571736e-10	1.553073e+01	5.101786e+01
2.340000e-06	2.237154e-06	8.020622e-10	1.582855e+01	5.420010e+01
2.350000e-06	2.278943e-06	8.478475e-10	1.612422e+01	5.734929e+01
2.360000e-06	2.320416e-06	8.950175e-10	1.641766e+01	6.046182e+01
2.370000e-06	2.361561e-06	9.405440e-10	1.670876e+01	6.353421e+01
2.380000e-06	2.402406e-06	9.826713e-10	1.699776e+01	6.656314e+01
2.390000e-06	2.442961e-06	1.022681e-09	1.728470e+01	6.954549e+01
2.400000e-06	2.483416e-06	1.063835e-09	1.757093e+01	7.247832e+01
2.410000e-06	2.523743e-06	1.104560e-09	1.785626e+01	7.535895e+01
2.420000e-06	2.563895e-06	1.144270e-09	1.814034e+01	7.818494e+01
2.430000e-06	2.603925e-06	1.183735e-09	1.842357e+01	8.095413e+01
2.440000e-06	2.643783e-06	1.222325e-09	1.870557e+01	8.366464e+01
2.450000e-06	2.683534e-06	1.261095e-09	1.898683e+01	8.631488e+01
2.460000e-06	2.723214e-06	1.301302e-09	1.926757e+01	8.890354e+01
2.470000e-06	2.762734e-06	1.340339e-09	1.954719e+01	9.142964e+01
2.480000e-06	2.802083e-06	1.374265e-09	1.982559e+01	9.389249e+01
2.490000e-06	2.841297e-06	1.406077e-09	2.010304e+01	9.629168e+01
2.500000e-06	2.880333e-06	1.439492e-09	2.037924e+01	9.862709e+01
2.510000e-06	2.919139e-06	1.473113e-09	2.065380e+01	1.008989e+02
2.520000e-06	2.957694e-06	1.504566e-09	2.092659e+01	1.031074e+02
2.530000e-06	2.995997e-06	1.536081e-09	2.119760e+01	1.052534e+02
2.540000e-06	3.034145e-06	1.569713e-09	2.146750e+01	1.073377e+02
2.550000e-06	3.072172e-06	1.605464e-09	2.173656e+01	1.093612e+02
2.560000e-06	3.109959e-06	1.637528e-09	2.200391e+01	1.113253e+02
2.570000e-06	3.147482e-06	1.660913e-09	2.226940e+01	1.132312e+02
2.580000e-06	3.184905e-06	1.679727e-09	2.253418e+01	1.150804e+02
2.590000e-06	3.222128e-06	1.699702e-09	2.279754e+01	1.168745e+02
2.600000e-06	3.258984e-06	1.723083e-09	2.305831e+01	1.186149e+02
2.610000e-06	3.295543e-06	1.749956e-09	2.331698e+01	1.203034e+02
2.620000e-06	3.331864e-06	1.777593e-09	2.357396e+01	1.219415e+02
2.630000e-06	3.368001e-06	1.804224e-09	2.382964e+01	1.235309e+02
2.640000e-06	3.403977e-06	1.830208e-09	2.408418e+01	1.250730e+02
2.650000e-06	3.439849e-06	1.853606e-09	2.433798e+01	1.265695e+02
2.660000e-06	3.475635e-06	1.871949e-09	2.459118e+01	1.280217e+02
2.670000e-06	3.511274e-06	1.887988e-09	2.484334e+01	1.294309e+02
2.680000e-06	3.546742e-06	1.905431e-09	2.509429e+01	1.307984e+02
2.690000e-06	3.581954e-06	1.924725e-09	2.534342e+01	1.321254e+02
2.700000e-06	3.616779e-06	1.944493e-09	2.558982e+01	1.334129e+02
2.710000e-06	3.651166e-06	1.964184e-09	2.583312e+01	1.346618e+02
2.720000e-06	3.685104e-06	1.983303e-09	2.607324e+01	1.358730e+02
2.730000e-06	3.718651e-06	1.999959e-09	2.631059e+01	1.370471e+02
2.740000e-06	3.751743e-06	2.014937e-09	2.654473e+01	1.381850e+02
2.750000e-06	3.784405e-06	2.030148e-09	2.677582e+01	1.392870e+02
2.760000e-06	3.816853e-06	2.045712e-09	2.700540e+01	1.403539e+02
2.770000e-06	3.849060e-06	2.061505e-09	2.723328e+01	1.413859e+02
2.780000e-06	3.881057e-06	2.076236e-09	2.745967e+01	1.423836e+02
2.790000e-06	3.912922e-06	2.088736e-09	2.768513e+01	1.433473e+02
2.800000e-06	3.944582e-06	2.101168e-09	2.790912e+01	1.442774e+02
2.810000e-06	3.976102e-06	2.113183e-09	2.813214e+01	1.451744e+02
2.820000e-06	4.007384e-06	2.121066e-09	2.835347e+01	1.460387e+02
2.830000e-06	4.038259e-06	2.129405e-09	2.857192e+01	1.468707e+02
2.840000e-06	4.068820e-06	2.144187e-09	2.878815e+01	1.476710e+02
2.850000e-06	4.099107e-06	2.161830e-09	2.900244e+01	1.484400e+02
2.860000e-06	4.129115e-06	2.176691e-09	2.921476e+01	1.491785e+02
2.870000e-06	4.158874e-06	2.186717e-09	2.942531e+01	1.498870e+02
2.880000e-06	4.188326e-06	2.192599e-09	2.963369e+01	1.505664e+02
2.890000e-06	4.217521e-06	2.196636e-09	2.984025e+01	1.512174e+02
2.900000e-06	4.246435e-06	2.199523e-09	3.004483e+01	1.518410e+02
