# Temperatura_=_-12.4
# Concentracion g/m^3_=_4090.0
# C_Vs_to_Am_M_A/Vsm_=_65563218390.804596
# pendiente_HvsI_1/m_=_3716.3
# ordenada_HvsI_A/m_=_1297.0
# frecuencia_Hz_=_135075.15149880826

Tiempo_(s)	Campo_(V.s)	Magnetizacion_(V.s)	Campo_(kA/m)	Magnetizacion_(A/m)
0.000000e+00	-5.412380e-06	-1.982881e-09	-3.839466e+01	-1.283464e+02
1.000000e-08	-5.412560e-06	-1.986632e-09	-3.839594e+01	-1.283385e+02
2.000000e-08	-5.412474e-06	-1.989924e-09	-3.839533e+01	-1.283285e+02
3.000000e-08	-5.412074e-06	-1.986649e-09	-3.839249e+01	-1.283171e+02
4.000000e-08	-5.411289e-06	-1.980505e-09	-3.838692e+01	-1.283050e+02
5.000000e-08	-5.410046e-06	-1.976769e-09	-3.837810e+01	-1.282929e+02
6.000000e-08	-5.408300e-06	-1.970405e-09	-3.836572e+01	-1.282812e+02
7.000000e-08	-5.405929e-06	-1.948475e-09	-3.834890e+01	-1.282704e+02
8.000000e-08	-5.402912e-06	-1.944814e-09	-3.832750e+01	-1.282608e+02
9.000000e-08	-5.399282e-06	-2.016373e-09	-3.830174e+01	-1.282525e+02
1.000000e-07	-5.395076e-06	-2.094389e-09	-3.827191e+01	-1.282455e+02
1.100000e-07	-5.390615e-06	-2.031349e-09	-3.824026e+01	-1.282398e+02
1.200000e-07	-5.386208e-06	-1.903773e-09	-3.820900e+01	-1.282350e+02
1.300000e-07	-5.381579e-06	-1.950325e-09	-3.817616e+01	-1.282309e+02
1.400000e-07	-5.376399e-06	-2.064738e-09	-3.813942e+01	-1.282270e+02
1.500000e-07	-5.370766e-06	-1.994951e-09	-3.809945e+01	-1.282228e+02
1.600000e-07	-5.364938e-06	-1.840736e-09	-3.805811e+01	-1.282175e+02
1.700000e-07	-5.358846e-06	-1.907762e-09	-3.801490e+01	-1.282105e+02
1.800000e-07	-5.352190e-06	-2.104867e-09	-3.796768e+01	-1.282009e+02
1.900000e-07	-5.345031e-06	-2.069201e-09	-3.791689e+01	-1.281880e+02
2.000000e-07	-5.337710e-06	-1.931304e-09	-3.786496e+01	-1.281709e+02
2.100000e-07	-5.330340e-06	-1.955509e-09	-3.781268e+01	-1.281487e+02
2.200000e-07	-5.322729e-06	-2.052748e-09	-3.775869e+01	-1.281206e+02
2.300000e-07	-5.314708e-06	-1.973954e-09	-3.770179e+01	-1.280858e+02
2.400000e-07	-5.306318e-06	-1.913793e-09	-3.764227e+01	-1.280435e+02
2.500000e-07	-5.297378e-06	-1.998223e-09	-3.757885e+01	-1.279930e+02
2.600000e-07	-5.287646e-06	-2.044614e-09	-3.750982e+01	-1.279336e+02
2.700000e-07	-5.277239e-06	-1.970048e-09	-3.743599e+01	-1.278649e+02
2.800000e-07	-5.266383e-06	-1.980967e-09	-3.735898e+01	-1.277864e+02
2.900000e-07	-5.255043e-06	-2.046683e-09	-3.727854e+01	-1.276977e+02
3.000000e-07	-5.243271e-06	-1.970142e-09	-3.719503e+01	-1.275986e+02
3.100000e-07	-5.231220e-06	-1.893869e-09	-3.710954e+01	-1.274890e+02
3.200000e-07	-5.218734e-06	-1.981324e-09	-3.702096e+01	-1.273688e+02
3.300000e-07	-5.205826e-06	-2.042434e-09	-3.692940e+01	-1.272383e+02
3.400000e-07	-5.192589e-06	-1.944792e-09	-3.683549e+01	-1.270975e+02
3.500000e-07	-5.179027e-06	-1.920557e-09	-3.673929e+01	-1.269468e+02
3.600000e-07	-5.165049e-06	-1.987152e-09	-3.664013e+01	-1.267867e+02
3.700000e-07	-5.150622e-06	-1.976078e-09	-3.653779e+01	-1.266174e+02
3.800000e-07	-5.135805e-06	-1.919113e-09	-3.643268e+01	-1.264397e+02
3.900000e-07	-5.120369e-06	-1.942359e-09	-3.632318e+01	-1.262541e+02
4.000000e-07	-5.104242e-06	-1.952149e-09	-3.620877e+01	-1.260613e+02
4.100000e-07	-5.087648e-06	-1.935863e-09	-3.609106e+01	-1.258618e+02
4.200000e-07	-5.070684e-06	-1.958699e-09	-3.597072e+01	-1.256564e+02
4.300000e-07	-5.053469e-06	-1.967316e-09	-3.584860e+01	-1.254456e+02
4.400000e-07	-5.036045e-06	-1.906687e-09	-3.572500e+01	-1.252303e+02
4.500000e-07	-5.018377e-06	-1.909132e-09	-3.559966e+01	-1.250109e+02
4.600000e-07	-5.000323e-06	-1.954465e-09	-3.547159e+01	-1.247880e+02
4.700000e-07	-4.981798e-06	-1.935075e-09	-3.534017e+01	-1.245621e+02
4.800000e-07	-4.962881e-06	-1.895340e-09	-3.520598e+01	-1.243337e+02
4.900000e-07	-4.943540e-06	-1.920445e-09	-3.506878e+01	-1.241031e+02
5.000000e-07	-4.923837e-06	-1.937635e-09	-3.492900e+01	-1.238705e+02
5.100000e-07	-4.903963e-06	-1.924260e-09	-3.478802e+01	-1.236362e+02
5.200000e-07	-4.883905e-06	-1.910325e-09	-3.464573e+01	-1.234002e+02
5.300000e-07	-4.863637e-06	-1.895383e-09	-3.450195e+01	-1.231627e+02
5.400000e-07	-4.843134e-06	-1.891464e-09	-3.435651e+01	-1.229235e+02
5.500000e-07	-4.822273e-06	-1.914762e-09	-3.420853e+01	-1.226825e+02
5.600000e-07	-4.801019e-06	-1.908587e-09	-3.405775e+01	-1.224395e+02
5.700000e-07	-4.779409e-06	-1.879590e-09	-3.390445e+01	-1.221943e+02
5.800000e-07	-4.757514e-06	-1.890274e-09	-3.374913e+01	-1.219464e+02
5.900000e-07	-4.735336e-06	-1.913634e-09	-3.359180e+01	-1.216956e+02
6.000000e-07	-4.712807e-06	-1.896400e-09	-3.343199e+01	-1.214414e+02
6.100000e-07	-4.689910e-06	-1.867826e-09	-3.326956e+01	-1.211835e+02
6.200000e-07	-4.666683e-06	-1.865265e-09	-3.310479e+01	-1.209214e+02
6.300000e-07	-4.643134e-06	-1.875680e-09	-3.293774e+01	-1.206547e+02
6.400000e-07	-4.619338e-06	-1.883290e-09	-3.276893e+01	-1.203829e+02
6.500000e-07	-4.595400e-06	-1.868641e-09	-3.259912e+01	-1.201057e+02
6.600000e-07	-4.571317e-06	-1.847387e-09	-3.242828e+01	-1.198227e+02
6.700000e-07	-4.546945e-06	-1.848327e-09	-3.225539e+01	-1.195337e+02
6.800000e-07	-4.522138e-06	-1.861018e-09	-3.207941e+01	-1.192383e+02
6.900000e-07	-4.496757e-06	-1.846227e-09	-3.189936e+01	-1.189363e+02
7.000000e-07	-4.470836e-06	-1.826249e-09	-3.171548e+01	-1.186276e+02
7.100000e-07	-4.444497e-06	-1.826653e-09	-3.152864e+01	-1.183122e+02
7.200000e-07	-4.417643e-06	-1.837372e-09	-3.133814e+01	-1.179898e+02
7.300000e-07	-4.390323e-06	-1.826898e-09	-3.114433e+01	-1.176607e+02
7.400000e-07	-4.362754e-06	-1.808557e-09	-3.094876e+01	-1.173248e+02
7.500000e-07	-4.335057e-06	-1.801533e-09	-3.075228e+01	-1.169823e+02
7.600000e-07	-4.307135e-06	-1.811417e-09	-3.055420e+01	-1.166334e+02
7.700000e-07	-4.278906e-06	-1.809026e-09	-3.035395e+01	-1.162783e+02
7.800000e-07	-4.250419e-06	-1.789638e-09	-3.015187e+01	-1.159174e+02
7.900000e-07	-4.221672e-06	-1.775284e-09	-2.994795e+01	-1.155507e+02
8.000000e-07	-4.192683e-06	-1.778404e-09	-2.974230e+01	-1.151788e+02
8.100000e-07	-4.163327e-06	-1.778605e-09	-2.953405e+01	-1.148018e+02
8.200000e-07	-4.133585e-06	-1.766853e-09	-2.932307e+01	-1.144201e+02
8.300000e-07	-4.103596e-06	-1.753827e-09	-2.911033e+01	-1.140339e+02
8.400000e-07	-4.073384e-06	-1.753040e-09	-2.889601e+01	-1.136437e+02
8.500000e-07	-4.042991e-06	-1.755243e-09	-2.868041e+01	-1.132495e+02
8.600000e-07	-4.012371e-06	-1.744463e-09	-2.846319e+01	-1.128517e+02
8.700000e-07	-3.981446e-06	-1.723935e-09	-2.824382e+01	-1.124504e+02
8.800000e-07	-3.950249e-06	-1.713192e-09	-2.802251e+01	-1.120457e+02
8.900000e-07	-3.918769e-06	-1.714760e-09	-2.779919e+01	-1.116378e+02
9.000000e-07	-3.887096e-06	-1.712994e-09	-2.757451e+01	-1.112267e+02
9.100000e-07	-3.855316e-06	-1.703081e-09	-2.734907e+01	-1.108124e+02
9.200000e-07	-3.823365e-06	-1.696459e-09	-2.712241e+01	-1.103947e+02
9.300000e-07	-3.791202e-06	-1.697288e-09	-2.689425e+01	-1.099737e+02
9.400000e-07	-3.758754e-06	-1.690491e-09	-2.666407e+01	-1.095491e+02
9.500000e-07	-3.725936e-06	-1.673909e-09	-2.643127e+01	-1.091208e+02
9.600000e-07	-3.692723e-06	-1.658927e-09	-2.619565e+01	-1.086886e+02
9.700000e-07	-3.659100e-06	-1.656534e-09	-2.595714e+01	-1.082521e+02
9.800000e-07	-3.625080e-06	-1.654324e-09	-2.571581e+01	-1.078110e+02
9.900000e-07	-3.590668e-06	-1.642825e-09	-2.547169e+01	-1.073652e+02
1.000000e-06	-3.555815e-06	-1.629613e-09	-2.522445e+01	-1.069142e+02
1.010000e-06	-3.520574e-06	-1.626012e-09	-2.497446e+01	-1.064578e+02
1.020000e-06	-3.485129e-06	-1.620845e-09	-2.472301e+01	-1.059956e+02
1.030000e-06	-3.449554e-06	-1.605991e-09	-2.447065e+01	-1.055274e+02
1.040000e-06	-3.413771e-06	-1.591180e-09	-2.421681e+01	-1.050528e+02
1.050000e-06	-3.377817e-06	-1.587588e-09	-2.396175e+01	-1.045716e+02
1.060000e-06	-3.341745e-06	-1.587099e-09	-2.370587e+01	-1.040836e+02
1.070000e-06	-3.305551e-06	-1.579819e-09	-2.344911e+01	-1.035884e+02
1.080000e-06	-3.269120e-06	-1.566086e-09	-2.319067e+01	-1.030861e+02
1.090000e-06	-3.232309e-06	-1.556540e-09	-2.292954e+01	-1.025763e+02
1.100000e-06	-3.195245e-06	-1.550611e-09	-2.266662e+01	-1.020591e+02
1.110000e-06	-3.158000e-06	-1.541760e-09	-2.240240e+01	-1.015343e+02
1.120000e-06	-3.120570e-06	-1.527696e-09	-2.213689e+01	-1.010019e+02
1.130000e-06	-3.082968e-06	-1.516314e-09	-2.187014e+01	-1.004619e+02
1.140000e-06	-3.045027e-06	-1.512167e-09	-2.160099e+01	-9.991427e+01
1.150000e-06	-3.006817e-06	-1.507113e-09	-2.132993e+01	-9.935908e+01
1.160000e-06	-2.968548e-06	-1.495285e-09	-2.105846e+01	-9.879638e+01
1.170000e-06	-2.930063e-06	-1.483681e-09	-2.078545e+01	-9.822624e+01
1.180000e-06	-2.891240e-06	-1.477145e-09	-2.051005e+01	-9.764874e+01
1.190000e-06	-2.852161e-06	-1.471877e-09	-2.023283e+01	-9.706394e+01
1.200000e-06	-2.812870e-06	-1.462023e-09	-1.995410e+01	-9.647193e+01
1.210000e-06	-2.773492e-06	-1.450472e-09	-1.967476e+01	-9.587277e+01
1.220000e-06	-2.734007e-06	-1.442424e-09	-1.939466e+01	-9.526651e+01
1.230000e-06	-2.694394e-06	-1.435560e-09	-1.911365e+01	-9.465319e+01
1.240000e-06	-2.654686e-06	-1.426768e-09	-1.883196e+01	-9.403283e+01
1.250000e-06	-2.614881e-06	-1.415663e-09	-1.854960e+01	-9.340541e+01
1.260000e-06	-2.574939e-06	-1.406090e-09	-1.826625e+01	-9.277089e+01
1.270000e-06	-2.534867e-06	-1.397756e-09	-1.798199e+01	-9.212923e+01
1.280000e-06	-2.494648e-06	-1.387884e-09	-1.769668e+01	-9.148032e+01
1.290000e-06	-2.454261e-06	-1.375210e-09	-1.741018e+01	-9.082406e+01
1.300000e-06	-2.413814e-06	-1.363024e-09	-1.712326e+01	-9.016031e+01
1.310000e-06	-2.373165e-06	-1.352958e-09	-1.683490e+01	-8.948889e+01
1.320000e-06	-2.332294e-06	-1.343606e-09	-1.654497e+01	-8.880964e+01
1.330000e-06	-2.291197e-06	-1.330559e-09	-1.625343e+01	-8.812236e+01
1.340000e-06	-2.249776e-06	-1.318634e-09	-1.595959e+01	-8.742684e+01
1.350000e-06	-2.207934e-06	-1.309729e-09	-1.566278e+01	-8.672286e+01
1.360000e-06	-2.165665e-06	-1.298776e-09	-1.536292e+01	-8.601023e+01
1.370000e-06	-2.123196e-06	-1.285112e-09	-1.506165e+01	-8.528872e+01
1.380000e-06	-2.080644e-06	-1.270983e-09	-1.475980e+01	-8.455813e+01
1.390000e-06	-2.037865e-06	-1.258169e-09	-1.445633e+01	-8.381828e+01
1.400000e-06	-1.994744e-06	-1.247635e-09	-1.415044e+01	-8.306900e+01
1.410000e-06	-1.951436e-06	-1.237764e-09	-1.384321e+01	-8.231015e+01
1.420000e-06	-1.908030e-06	-1.225903e-09	-1.353530e+01	-8.154159e+01
1.430000e-06	-1.864513e-06	-1.211472e-09	-1.322659e+01	-8.076323e+01
1.440000e-06	-1.820921e-06	-1.194950e-09	-1.291736e+01	-7.997500e+01
1.450000e-06	-1.777295e-06	-1.176883e-09	-1.260788e+01	-7.917686e+01
1.460000e-06	-1.733597e-06	-1.161356e-09	-1.229789e+01	-7.836881e+01
1.470000e-06	-1.689805e-06	-1.149038e-09	-1.198724e+01	-7.755085e+01
1.480000e-06	-1.645875e-06	-1.138471e-09	-1.167561e+01	-7.672303e+01
1.490000e-06	-1.601810e-06	-1.127630e-09	-1.136301e+01	-7.588541e+01
1.500000e-06	-1.557613e-06	-1.115541e-09	-1.104949e+01	-7.503807e+01
1.510000e-06	-1.513384e-06	-1.103265e-09	-1.073573e+01	-7.418111e+01
1.520000e-06	-1.469209e-06	-1.086553e-09	-1.042236e+01	-7.331463e+01
1.530000e-06	-1.425015e-06	-1.064763e-09	-1.010885e+01	-7.243874e+01
1.540000e-06	-1.380698e-06	-1.046894e-09	-9.794476e+00	-7.155354e+01
1.550000e-06	-1.336206e-06	-1.033145e-09	-9.478860e+00	-7.065913e+01
1.560000e-06	-1.291573e-06	-1.021833e-09	-9.162237e+00	-6.975559e+01
1.570000e-06	-1.246946e-06	-1.011645e-09	-8.845662e+00	-6.884300e+01
1.580000e-06	-1.202280e-06	-9.990093e-10	-8.528807e+00	-6.792138e+01
1.590000e-06	-1.157425e-06	-9.856185e-10	-8.210613e+00	-6.699077e+01
1.600000e-06	-1.112511e-06	-9.722838e-10	-7.891997e+00	-6.605113e+01
1.610000e-06	-1.067498e-06	-9.571741e-10	-7.572681e+00	-6.510241e+01
1.620000e-06	-1.022352e-06	-9.403152e-10	-7.252424e+00	-6.414454e+01
1.630000e-06	-9.771330e-07	-9.233278e-10	-6.931644e+00	-6.317738e+01
1.640000e-06	-9.318559e-07	-9.075122e-10	-6.610454e+00	-6.220078e+01
1.650000e-06	-8.865514e-07	-8.934972e-10	-6.289071e+00	-6.121453e+01
1.660000e-06	-8.412061e-07	-8.800397e-10	-5.967397e+00	-6.021841e+01
1.670000e-06	-7.957640e-07	-8.674148e-10	-5.645038e+00	-5.921216e+01
1.680000e-06	-7.502246e-07	-8.530953e-10	-5.321987e+00	-5.819550e+01
1.690000e-06	-7.046718e-07	-8.368141e-10	-4.998843e+00	-5.716811e+01
1.700000e-06	-6.590081e-07	-8.193543e-10	-4.674910e+00	-5.612969e+01
1.710000e-06	-6.133048e-07	-8.017668e-10	-4.350698e+00	-5.507989e+01
1.720000e-06	-5.677028e-07	-7.850263e-10	-4.027203e+00	-5.401840e+01
1.730000e-06	-5.220582e-07	-7.691729e-10	-3.703407e+00	-5.294488e+01
1.740000e-06	-4.763259e-07	-7.525820e-10	-3.378989e+00	-5.185903e+01
1.750000e-06	-4.305077e-07	-7.359829e-10	-3.053961e+00	-5.076054e+01
1.760000e-06	-3.846417e-07	-7.204342e-10	-2.728594e+00	-4.964916e+01
1.770000e-06	-3.387986e-07	-7.033491e-10	-2.403389e+00	-4.852465e+01
1.780000e-06	-2.929718e-07	-6.831018e-10	-2.078301e+00	-4.738680e+01
1.790000e-06	-2.471300e-07	-6.633094e-10	-1.753105e+00	-4.623546e+01
1.800000e-06	-2.012703e-07	-6.451866e-10	-1.427783e+00	-4.507051e+01
1.810000e-06	-1.554002e-07	-6.281098e-10	-1.102387e+00	-4.389189e+01
1.820000e-06	-1.095118e-07	-6.098577e-10	-7.768609e-01	-4.269958e+01
1.830000e-06	-6.365169e-08	-5.906148e-10	-4.515361e-01	-4.149360e+01
1.840000e-06	-1.781860e-08	-5.730729e-10	-1.264026e-01	-4.027404e+01
1.850000e-06	2.807788e-08	-5.568068e-10	1.991805e-01	-3.904101e+01
1.860000e-06	7.397354e-08	-5.396512e-10	5.247579e-01	-3.779468e+01
1.870000e-06	1.197435e-07	-5.208839e-10	8.494437e-01	-3.653525e+01
1.880000e-06	1.654823e-07	-5.022334e-10	1.173908e+00	-3.526295e+01
1.890000e-06	2.112870e-07	-4.838739e-10	1.498840e+00	-3.397804e+01
1.900000e-06	2.571370e-07	-4.647357e-10	1.824094e+00	-3.268079e+01
1.910000e-06	3.029911e-07	-4.432088e-10	2.149376e+00	-3.137150e+01
1.920000e-06	3.487940e-07	-4.205859e-10	2.474295e+00	-3.005044e+01
1.930000e-06	3.945563e-07	-4.013220e-10	2.798927e+00	-2.871792e+01
1.940000e-06	4.402888e-07	-3.868091e-10	3.123347e+00	-2.737422e+01
1.950000e-06	4.859824e-07	-3.725676e-10	3.447491e+00	-2.601958e+01
1.960000e-06	5.316365e-07	-3.541260e-10	3.771354e+00	-2.465425e+01
1.970000e-06	5.772662e-07	-3.317702e-10	4.095045e+00	-2.327844e+01
1.980000e-06	6.228182e-07	-3.083282e-10	4.418185e+00	-2.189233e+01
1.990000e-06	6.683283e-07	-2.853538e-10	4.741027e+00	-2.049605e+01
2.000000e-06	7.138619e-07	-2.632349e-10	5.064035e+00	-1.908970e+01
2.010000e-06	7.593148e-07	-2.418331e-10	5.386472e+00	-1.767335e+01
2.020000e-06	8.046568e-07	-2.227926e-10	5.708122e+00	-1.624701e+01
2.030000e-06	8.499918e-07	-2.065001e-10	6.029722e+00	-1.481067e+01
2.040000e-06	8.953219e-07	-1.891911e-10	6.351287e+00	-1.336429e+01
2.050000e-06	9.404796e-07	-1.684099e-10	6.671630e+00	-1.190779e+01
2.060000e-06	9.855288e-07	-1.448634e-10	6.991202e+00	-1.044106e+01
2.070000e-06	1.030606e-06	-1.204464e-10	7.310973e+00	-8.964012e+00
2.080000e-06	1.075620e-06	-9.800894e-11	7.630299e+00	-7.476512e+00
2.090000e-06	1.120532e-06	-7.552007e-11	7.948899e+00	-5.978447e+00
2.100000e-06	1.165296e-06	-5.171986e-11	8.266445e+00	-4.469715e+00
2.110000e-06	1.209890e-06	-3.017635e-11	8.582790e+00	-2.950233e+00
2.120000e-06	1.254450e-06	-1.322934e-11	8.898888e+00	-1.419954e+00
2.130000e-06	1.298958e-06	3.802152e-12	9.214628e+00	1.211300e-01
2.140000e-06	1.343419e-06	2.751635e-11	9.530025e+00	1.672972e+00
2.150000e-06	1.387853e-06	5.626187e-11	9.845233e+00	3.235466e+00
2.160000e-06	1.432166e-06	8.383132e-11	1.015958e+01	4.808436e+00
2.170000e-06	1.476345e-06	1.090403e-10	1.047298e+01	6.391630e+00
2.180000e-06	1.520400e-06	1.328500e-10	1.078550e+01	7.984713e+00
2.190000e-06	1.564383e-06	1.550866e-10	1.109751e+01	9.587265e+00
2.200000e-06	1.608321e-06	1.733519e-10	1.140920e+01	1.119878e+01
2.210000e-06	1.652206e-06	1.902675e-10	1.172051e+01	1.281864e+01
2.220000e-06	1.696060e-06	2.126356e-10	1.203161e+01	1.444618e+01
2.230000e-06	1.739881e-06	2.412998e-10	1.234247e+01	1.608061e+01
2.240000e-06	1.783659e-06	2.720161e-10	1.265302e+01	1.772106e+01
2.250000e-06	1.827381e-06	2.999032e-10	1.296318e+01	1.936660e+01
2.260000e-06	1.871043e-06	3.241986e-10	1.327292e+01	2.101622e+01
2.270000e-06	1.914633e-06	3.467394e-10	1.358214e+01	2.266884e+01
2.280000e-06	1.958079e-06	3.670633e-10	1.389033e+01	2.432334e+01
2.290000e-06	2.001321e-06	3.873128e-10	1.419709e+01	2.597855e+01
2.300000e-06	2.044422e-06	4.105371e-10	1.450284e+01	2.763327e+01
2.310000e-06	2.087321e-06	4.368076e-10	1.480716e+01	2.928629e+01
2.320000e-06	2.129977e-06	4.665493e-10	1.510976e+01	3.093639e+01
2.330000e-06	2.172339e-06	4.939155e-10	1.541027e+01	3.258235e+01
2.340000e-06	2.214338e-06	5.176307e-10	1.570820e+01	3.422297e+01
2.350000e-06	2.256049e-06	5.371145e-10	1.600409e+01	3.585710e+01
2.360000e-06	2.297426e-06	5.562303e-10	1.629762e+01	3.748361e+01
2.370000e-06	2.338397e-06	5.768283e-10	1.658826e+01	3.910143e+01
2.380000e-06	2.379082e-06	5.986071e-10	1.687687e+01	4.070955e+01
2.390000e-06	2.419637e-06	6.239659e-10	1.716456e+01	4.230703e+01
2.400000e-06	2.460078e-06	6.521921e-10	1.745145e+01	4.389299e+01
2.410000e-06	2.500290e-06	6.785723e-10	1.773670e+01	4.546665e+01
2.420000e-06	2.540299e-06	6.983625e-10	1.802052e+01	4.702729e+01
2.430000e-06	2.580221e-06	7.148849e-10	1.830372e+01	4.857430e+01
2.440000e-06	2.620089e-06	7.335143e-10	1.858654e+01	5.010711e+01
2.450000e-06	2.659961e-06	7.540913e-10	1.886939e+01	5.162526e+01
2.460000e-06	2.699711e-06	7.743259e-10	1.915137e+01	5.312836e+01
2.470000e-06	2.739235e-06	7.974779e-10	1.943175e+01	5.461608e+01
2.480000e-06	2.778582e-06	8.237346e-10	1.971087e+01	5.608815e+01
2.490000e-06	2.817759e-06	8.502492e-10	1.998878e+01	5.754438e+01
2.500000e-06	2.856751e-06	8.725391e-10	2.026539e+01	5.898460e+01
2.510000e-06	2.895501e-06	8.887361e-10	2.054028e+01	6.040869e+01
2.520000e-06	2.933996e-06	9.034911e-10	2.081336e+01	6.181657e+01
2.530000e-06	2.972316e-06	9.210824e-10	2.108519e+01	6.320816e+01
2.540000e-06	3.010455e-06	9.406776e-10	2.135574e+01	6.458341e+01
2.550000e-06	3.048388e-06	9.626351e-10	2.162484e+01	6.594227e+01
2.560000e-06	3.086190e-06	9.875130e-10	2.189300e+01	6.728468e+01
2.570000e-06	3.123807e-06	1.011448e-09	2.215985e+01	6.861058e+01
2.580000e-06	3.161182e-06	1.029702e-09	2.242498e+01	6.991988e+01
2.590000e-06	3.198316e-06	1.044170e-09	2.268840e+01	7.121249e+01
2.600000e-06	3.235181e-06	1.057281e-09	2.294992e+01	7.248828e+01
2.610000e-06	3.271800e-06	1.071375e-09	2.320969e+01	7.374712e+01
2.620000e-06	3.308183e-06	1.088257e-09	2.346778e+01	7.498881e+01
2.630000e-06	3.344350e-06	1.107495e-09	2.372435e+01	7.621318e+01
2.640000e-06	3.380337e-06	1.128943e-09	2.397964e+01	7.742001e+01
2.650000e-06	3.416212e-06	1.148992e-09	2.423413e+01	7.860907e+01
2.660000e-06	3.452025e-06	1.166462e-09	2.448818e+01	7.978011e+01
2.670000e-06	3.487712e-06	1.182704e-09	2.474133e+01	8.093289e+01
2.680000e-06	3.523174e-06	1.197913e-09	2.499290e+01	8.206717e+01
2.690000e-06	3.558343e-06	1.211363e-09	2.524238e+01	8.318271e+01
2.700000e-06	3.593202e-06	1.223782e-09	2.548967e+01	8.427930e+01
2.710000e-06	3.627671e-06	1.238724e-09	2.573419e+01	8.535673e+01
2.720000e-06	3.661691e-06	1.257720e-09	2.597552e+01	8.641486e+01
2.730000e-06	3.695153e-06	1.277594e-09	2.621289e+01	8.745357e+01
2.740000e-06	3.728112e-06	1.295784e-09	2.644670e+01	8.847278e+01
2.750000e-06	3.760750e-06	1.311792e-09	2.667823e+01	8.947247e+01
2.760000e-06	3.793104e-06	1.327026e-09	2.690775e+01	9.045270e+01
2.770000e-06	3.825239e-06	1.340790e-09	2.713571e+01	9.141355e+01
2.780000e-06	3.857213e-06	1.353484e-09	2.736252e+01	9.235520e+01
2.790000e-06	3.889045e-06	1.366109e-09	2.758834e+01	9.327788e+01
2.800000e-06	3.920719e-06	1.378246e-09	2.781303e+01	9.418189e+01
2.810000e-06	3.952267e-06	1.391662e-09	2.803683e+01	9.506757e+01
2.820000e-06	3.983622e-06	1.405017e-09	2.825925e+01	9.593535e+01
2.830000e-06	4.014580e-06	1.418438e-09	2.847886e+01	9.678568e+01
2.840000e-06	4.045121e-06	1.431981e-09	2.869552e+01	9.761909e+01
2.850000e-06	4.075356e-06	1.445777e-09	2.891000e+01	9.843611e+01
2.860000e-06	4.105308e-06	1.458840e-09	2.912248e+01	9.923732e+01
2.870000e-06	4.135065e-06	1.471078e-09	2.933357e+01	1.000233e+02
2.880000e-06	4.164657e-06	1.482574e-09	2.954349e+01	1.007947e+02
2.890000e-06	4.193985e-06	1.491198e-09	2.975154e+01	1.015520e+02
2.900000e-06	4.222954e-06	1.498055e-09	2.995704e+01	1.022960e+02
