# Temperatura_=_-0.9
# Concentracion g/m^3_=_4090.0
# C_Vs_to_Am_M_A/Vsm_=_65563218390.804596
# pendiente_HvsI_1/m_=_3716.3
# ordenada_HvsI_A/m_=_1297.0
# frecuencia_Hz_=_135066.02846181192

Tiempo_(s)	Campo_(V.s)	Magnetizacion_(V.s)	Campo_(kA/m)	Magnetizacion_(A/m)
0.000000e+00	-5.394345e-06	-2.501943e-09	-3.839337e+01	-1.640269e+02
1.000000e-08	-5.394572e-06	-2.498458e-09	-3.839499e+01	-1.639339e+02
2.000000e-08	-5.394546e-06	-2.493247e-09	-3.839480e+01	-1.638445e+02
3.000000e-08	-5.394234e-06	-2.488341e-09	-3.839259e+01	-1.637608e+02
4.000000e-08	-5.393541e-06	-2.486635e-09	-3.838765e+01	-1.636850e+02
5.000000e-08	-5.392344e-06	-2.491762e-09	-3.837913e+01	-1.636188e+02
6.000000e-08	-5.390632e-06	-2.513856e-09	-3.836695e+01	-1.635642e+02
7.000000e-08	-5.388277e-06	-2.510000e-09	-3.835018e+01	-1.635229e+02
8.000000e-08	-5.385343e-06	-2.435006e-09	-3.832930e+01	-1.634961e+02
9.000000e-08	-5.381932e-06	-2.394952e-09	-3.830503e+01	-1.634852e+02
1.000000e-07	-5.378047e-06	-2.518343e-09	-3.827738e+01	-1.634911e+02
1.100000e-07	-5.373835e-06	-2.617178e-09	-3.824739e+01	-1.635145e+02
1.200000e-07	-5.369416e-06	-2.519714e-09	-3.821595e+01	-1.635555e+02
1.300000e-07	-5.364749e-06	-2.361269e-09	-3.818273e+01	-1.636144e+02
1.400000e-07	-5.359787e-06	-2.489092e-09	-3.814741e+01	-1.636907e+02
1.500000e-07	-5.354433e-06	-2.638580e-09	-3.810930e+01	-1.637839e+02
1.600000e-07	-5.348654e-06	-2.523134e-09	-3.806817e+01	-1.638930e+02
1.700000e-07	-5.342607e-06	-2.337274e-09	-3.802514e+01	-1.640166e+02
1.800000e-07	-5.336173e-06	-2.452087e-09	-3.797934e+01	-1.641534e+02
1.900000e-07	-5.329235e-06	-2.653270e-09	-3.792996e+01	-1.643014e+02
2.000000e-07	-5.321973e-06	-2.575613e-09	-3.787828e+01	-1.644586e+02
2.100000e-07	-5.314526e-06	-2.489768e-09	-3.782528e+01	-1.646227e+02
2.200000e-07	-5.306818e-06	-2.580430e-09	-3.777041e+01	-1.647915e+02
2.300000e-07	-5.298759e-06	-2.662899e-09	-3.771306e+01	-1.649622e+02
2.400000e-07	-5.290359e-06	-2.549391e-09	-3.765327e+01	-1.651323e+02
2.500000e-07	-5.281589e-06	-2.552393e-09	-3.759085e+01	-1.652991e+02
2.600000e-07	-5.272217e-06	-2.649478e-09	-3.752415e+01	-1.654601e+02
2.700000e-07	-5.262188e-06	-2.636186e-09	-3.745277e+01	-1.656126e+02
2.800000e-07	-5.251540e-06	-2.551200e-09	-3.737698e+01	-1.657541e+02
2.900000e-07	-5.240507e-06	-2.645422e-09	-3.729846e+01	-1.658823e+02
3.000000e-07	-5.229151e-06	-2.704255e-09	-3.721763e+01	-1.659950e+02
3.100000e-07	-5.217321e-06	-2.588924e-09	-3.713343e+01	-1.660903e+02
3.200000e-07	-5.205029e-06	-2.530438e-09	-3.704594e+01	-1.661664e+02
3.300000e-07	-5.192276e-06	-2.645738e-09	-3.695518e+01	-1.662220e+02
3.400000e-07	-5.179173e-06	-2.656754e-09	-3.686192e+01	-1.662558e+02
3.500000e-07	-5.165720e-06	-2.567444e-09	-3.676617e+01	-1.662671e+02
3.600000e-07	-5.151852e-06	-2.581891e-09	-3.666747e+01	-1.662553e+02
3.700000e-07	-5.137605e-06	-2.638912e-09	-3.656607e+01	-1.662202e+02
3.800000e-07	-5.122966e-06	-2.605210e-09	-3.646188e+01	-1.661619e+02
3.900000e-07	-5.107863e-06	-2.580046e-09	-3.635438e+01	-1.660809e+02
4.000000e-07	-5.091946e-06	-2.593240e-09	-3.624110e+01	-1.659779e+02
4.100000e-07	-5.075483e-06	-2.558692e-09	-3.612392e+01	-1.658537e+02
4.200000e-07	-5.058829e-06	-2.553778e-09	-3.600539e+01	-1.657097e+02
4.300000e-07	-5.041758e-06	-2.601375e-09	-3.588389e+01	-1.655472e+02
4.400000e-07	-5.024419e-06	-2.597626e-09	-3.576048e+01	-1.653680e+02
4.500000e-07	-5.006820e-06	-2.537179e-09	-3.563523e+01	-1.651737e+02
4.600000e-07	-4.988956e-06	-2.562590e-09	-3.550808e+01	-1.649661e+02
4.700000e-07	-4.970791e-06	-2.595431e-09	-3.537880e+01	-1.647474e+02
4.800000e-07	-4.952137e-06	-2.571570e-09	-3.524603e+01	-1.645193e+02
4.900000e-07	-4.933068e-06	-2.527202e-09	-3.511031e+01	-1.642839e+02
5.000000e-07	-4.913694e-06	-2.542986e-09	-3.497242e+01	-1.640431e+02
5.100000e-07	-4.894033e-06	-2.559493e-09	-3.483248e+01	-1.637987e+02
5.200000e-07	-4.874162e-06	-2.569807e-09	-3.469106e+01	-1.635524e+02
5.300000e-07	-4.854051e-06	-2.544099e-09	-3.454792e+01	-1.633058e+02
5.400000e-07	-4.833687e-06	-2.527585e-09	-3.440298e+01	-1.630603e+02
5.500000e-07	-4.812987e-06	-2.530754e-09	-3.425565e+01	-1.628171e+02
5.600000e-07	-4.791914e-06	-2.543682e-09	-3.410567e+01	-1.625771e+02
5.700000e-07	-4.770476e-06	-2.515101e-09	-3.395308e+01	-1.623412e+02
5.800000e-07	-4.748644e-06	-2.494089e-09	-3.379770e+01	-1.621099e+02
5.900000e-07	-4.726513e-06	-2.502477e-09	-3.364019e+01	-1.618834e+02
6.000000e-07	-4.704177e-06	-2.527042e-09	-3.348121e+01	-1.616620e+02
6.100000e-07	-4.681556e-06	-2.523462e-09	-3.332021e+01	-1.614454e+02
6.200000e-07	-4.658522e-06	-2.500306e-09	-3.315627e+01	-1.612332e+02
6.300000e-07	-4.635094e-06	-2.480658e-09	-3.298953e+01	-1.610250e+02
6.400000e-07	-4.611409e-06	-2.490276e-09	-3.282096e+01	-1.608201e+02
6.500000e-07	-4.587593e-06	-2.494438e-09	-3.265144e+01	-1.606176e+02
6.600000e-07	-4.563594e-06	-2.468005e-09	-3.248064e+01	-1.604164e+02
6.700000e-07	-4.539290e-06	-2.449632e-09	-3.230766e+01	-1.602156e+02
6.800000e-07	-4.514587e-06	-2.467373e-09	-3.213184e+01	-1.600140e+02
6.900000e-07	-4.489501e-06	-2.486468e-09	-3.195329e+01	-1.598105e+02
7.000000e-07	-4.463964e-06	-2.472518e-09	-3.177154e+01	-1.596037e+02
7.100000e-07	-4.437820e-06	-2.454434e-09	-3.158546e+01	-1.593927e+02
7.200000e-07	-4.411171e-06	-2.449526e-09	-3.139579e+01	-1.591761e+02
7.300000e-07	-4.384115e-06	-2.456436e-09	-3.120322e+01	-1.589531e+02
7.400000e-07	-4.356695e-06	-2.445059e-09	-3.100807e+01	-1.587227e+02
7.500000e-07	-4.329007e-06	-2.426447e-09	-3.081100e+01	-1.584840e+02
7.600000e-07	-4.301120e-06	-2.418488e-09	-3.061252e+01	-1.582364e+02
7.700000e-07	-4.273086e-06	-2.434235e-09	-3.041300e+01	-1.579792e+02
7.800000e-07	-4.244865e-06	-2.434056e-09	-3.021213e+01	-1.577120e+02
7.900000e-07	-4.216406e-06	-2.419455e-09	-3.000958e+01	-1.574347e+02
8.000000e-07	-4.187681e-06	-2.404572e-09	-2.980513e+01	-1.571471e+02
8.100000e-07	-4.158594e-06	-2.409340e-09	-2.959811e+01	-1.568493e+02
8.200000e-07	-4.129137e-06	-2.408490e-09	-2.938846e+01	-1.565416e+02
8.300000e-07	-4.099395e-06	-2.399014e-09	-2.917677e+01	-1.562242e+02
8.400000e-07	-4.069417e-06	-2.381894e-09	-2.896341e+01	-1.558977e+02
8.500000e-07	-4.039172e-06	-2.380758e-09	-2.874815e+01	-1.555628e+02
8.600000e-07	-4.008635e-06	-2.382959e-09	-2.853081e+01	-1.552200e+02
8.700000e-07	-3.977880e-06	-2.374441e-09	-2.831191e+01	-1.548703e+02
8.800000e-07	-3.946868e-06	-2.354924e-09	-2.809119e+01	-1.545145e+02
8.900000e-07	-3.915610e-06	-2.349434e-09	-2.786872e+01	-1.541534e+02
9.000000e-07	-3.884207e-06	-2.355773e-09	-2.764521e+01	-1.537880e+02
9.100000e-07	-3.852580e-06	-2.356869e-09	-2.742011e+01	-1.534193e+02
9.200000e-07	-3.820688e-06	-2.341966e-09	-2.719313e+01	-1.530480e+02
9.300000e-07	-3.788676e-06	-2.328399e-09	-2.696528e+01	-1.526751e+02
9.400000e-07	-3.756486e-06	-2.322925e-09	-2.673618e+01	-1.523013e+02
9.500000e-07	-3.723984e-06	-2.317551e-09	-2.650485e+01	-1.519274e+02
9.600000e-07	-3.691085e-06	-2.306582e-09	-2.627070e+01	-1.515540e+02
9.700000e-07	-3.657771e-06	-2.298103e-09	-2.603359e+01	-1.511817e+02
9.800000e-07	-3.624079e-06	-2.300925e-09	-2.579379e+01	-1.508107e+02
9.900000e-07	-3.589873e-06	-2.300833e-09	-2.555034e+01	-1.504415e+02
1.000000e-06	-3.555233e-06	-2.289497e-09	-2.530379e+01	-1.500743e+02
1.010000e-06	-3.520294e-06	-2.276083e-09	-2.505512e+01	-1.497090e+02
1.020000e-06	-3.484988e-06	-2.269791e-09	-2.480384e+01	-1.493457e+02
1.030000e-06	-3.449427e-06	-2.261213e-09	-2.455073e+01	-1.489841e+02
1.040000e-06	-3.413708e-06	-2.251117e-09	-2.429651e+01	-1.486239e+02
1.050000e-06	-3.377826e-06	-2.242456e-09	-2.404113e+01	-1.482648e+02
1.060000e-06	-3.341813e-06	-2.242160e-09	-2.378481e+01	-1.479064e+02
1.070000e-06	-3.305608e-06	-2.241232e-09	-2.352712e+01	-1.475479e+02
1.080000e-06	-3.269254e-06	-2.236809e-09	-2.326838e+01	-1.471888e+02
1.090000e-06	-3.232743e-06	-2.224786e-09	-2.300852e+01	-1.468283e+02
1.100000e-06	-3.195953e-06	-2.215015e-09	-2.274667e+01	-1.464658e+02
1.110000e-06	-3.158851e-06	-2.206783e-09	-2.248260e+01	-1.461005e+02
1.120000e-06	-3.121543e-06	-2.198374e-09	-2.221708e+01	-1.457315e+02
1.130000e-06	-3.084087e-06	-2.186340e-09	-2.195049e+01	-1.453580e+02
1.140000e-06	-3.046342e-06	-2.179685e-09	-2.168184e+01	-1.449793e+02
1.150000e-06	-3.008357e-06	-2.177913e-09	-2.141149e+01	-1.445946e+02
1.160000e-06	-2.970228e-06	-2.174663e-09	-2.114011e+01	-1.442031e+02
1.170000e-06	-2.931928e-06	-2.162474e-09	-2.086752e+01	-1.438040e+02
1.180000e-06	-2.893448e-06	-2.148815e-09	-2.059365e+01	-1.433968e+02
1.190000e-06	-2.854776e-06	-2.139210e-09	-2.031840e+01	-1.429807e+02
1.200000e-06	-2.815836e-06	-2.133664e-09	-2.004126e+01	-1.425552e+02
1.210000e-06	-2.776645e-06	-2.124712e-09	-1.976232e+01	-1.421197e+02
1.220000e-06	-2.737231e-06	-2.117025e-09	-1.948180e+01	-1.416739e+02
1.230000e-06	-2.697666e-06	-2.112846e-09	-1.920020e+01	-1.412172e+02
1.240000e-06	-2.658070e-06	-2.108837e-09	-1.891838e+01	-1.407493e+02
1.250000e-06	-2.618383e-06	-2.100149e-09	-1.863591e+01	-1.402699e+02
1.260000e-06	-2.578568e-06	-2.086086e-09	-1.835254e+01	-1.397787e+02
1.270000e-06	-2.538610e-06	-2.072632e-09	-1.806814e+01	-1.392756e+02
1.280000e-06	-2.498471e-06	-2.063665e-09	-1.778246e+01	-1.387603e+02
1.290000e-06	-2.458220e-06	-2.059488e-09	-1.749598e+01	-1.382328e+02
1.300000e-06	-2.417903e-06	-2.054146e-09	-1.720903e+01	-1.376930e+02
1.310000e-06	-2.377457e-06	-2.045338e-09	-1.692117e+01	-1.371407e+02
1.320000e-06	-2.336912e-06	-2.034837e-09	-1.663259e+01	-1.365760e+02
1.330000e-06	-2.296243e-06	-2.024117e-09	-1.634314e+01	-1.359989e+02
1.340000e-06	-2.255298e-06	-2.010112e-09	-1.605172e+01	-1.354093e+02
1.350000e-06	-2.213981e-06	-1.996424e-09	-1.575765e+01	-1.348074e+02
1.360000e-06	-2.172323e-06	-1.984892e-09	-1.546116e+01	-1.341930e+02
1.370000e-06	-2.130382e-06	-1.976944e-09	-1.516265e+01	-1.335663e+02
1.380000e-06	-2.088138e-06	-1.969260e-09	-1.486198e+01	-1.329273e+02
1.390000e-06	-2.045698e-06	-1.962426e-09	-1.455993e+01	-1.322761e+02
1.400000e-06	-2.003011e-06	-1.954748e-09	-1.425611e+01	-1.316126e+02
1.410000e-06	-1.960044e-06	-1.945069e-09	-1.395029e+01	-1.309370e+02
1.420000e-06	-1.916914e-06	-1.931790e-09	-1.364332e+01	-1.302493e+02
1.430000e-06	-1.873602e-06	-1.914884e-09	-1.333506e+01	-1.295494e+02
1.440000e-06	-1.830106e-06	-1.896581e-09	-1.302548e+01	-1.288375e+02
1.450000e-06	-1.786434e-06	-1.881880e-09	-1.271466e+01	-1.281135e+02
1.460000e-06	-1.742652e-06	-1.871533e-09	-1.240304e+01	-1.273775e+02
1.470000e-06	-1.698819e-06	-1.866092e-09	-1.209107e+01	-1.266294e+02
1.480000e-06	-1.654939e-06	-1.860185e-09	-1.177876e+01	-1.258692e+02
1.490000e-06	-1.611007e-06	-1.852541e-09	-1.146608e+01	-1.250969e+02
1.500000e-06	-1.566991e-06	-1.841758e-09	-1.115280e+01	-1.243124e+02
1.510000e-06	-1.522892e-06	-1.827107e-09	-1.083893e+01	-1.235156e+02
1.520000e-06	-1.478736e-06	-1.810106e-09	-1.052466e+01	-1.227063e+02
1.530000e-06	-1.434580e-06	-1.792804e-09	-1.021039e+01	-1.218845e+02
1.540000e-06	-1.390387e-06	-1.781202e-09	-9.895855e+00	-1.210498e+02
1.550000e-06	-1.346069e-06	-1.774587e-09	-9.580424e+00	-1.202020e+02
1.560000e-06	-1.301665e-06	-1.766574e-09	-9.264387e+00	-1.193407e+02
1.570000e-06	-1.257191e-06	-1.757761e-09	-8.947855e+00	-1.184657e+02
1.580000e-06	-1.212638e-06	-1.748537e-09	-8.630757e+00	-1.175764e+02
1.590000e-06	-1.168020e-06	-1.739611e-09	-8.313191e+00	-1.166724e+02
1.600000e-06	-1.123297e-06	-1.728409e-09	-7.994885e+00	-1.157530e+02
1.610000e-06	-1.078482e-06	-1.713495e-09	-7.675919e+00	-1.148176e+02
1.620000e-06	-1.033607e-06	-1.696672e-09	-7.356527e+00	-1.138654e+02
1.630000e-06	-9.886562e-07	-1.680635e-09	-7.036599e+00	-1.128956e+02
1.640000e-06	-9.435982e-07	-1.662907e-09	-6.715907e+00	-1.119072e+02
1.650000e-06	-8.984360e-07	-1.641113e-09	-6.394472e+00	-1.108992e+02
1.660000e-06	-8.531927e-07	-1.622292e-09	-6.072460e+00	-1.098706e+02
1.670000e-06	-8.079123e-07	-1.613024e-09	-5.750184e+00	-1.088201e+02
1.680000e-06	-7.626054e-07	-1.609338e-09	-5.427720e+00	-1.077465e+02
1.690000e-06	-7.172637e-07	-1.600094e-09	-5.105008e+00	-1.066485e+02
1.700000e-06	-6.718310e-07	-1.580606e-09	-4.781648e+00	-1.055246e+02
1.710000e-06	-6.263622e-07	-1.553249e-09	-4.458031e+00	-1.043735e+02
1.720000e-06	-5.808669e-07	-1.527289e-09	-4.134225e+00	-1.031935e+02
1.730000e-06	-5.352118e-07	-1.503993e-09	-3.809283e+00	-1.019833e+02
1.740000e-06	-4.895597e-07	-1.483157e-09	-3.484362e+00	-1.007412e+02
1.750000e-06	-4.439328e-07	-1.466629e-09	-3.159619e+00	-9.946560e+01
1.760000e-06	-3.982412e-07	-1.456669e-09	-2.834417e+00	-9.815500e+01
1.770000e-06	-3.525311e-07	-1.445572e-09	-2.509083e+00	-9.680783e+01
1.780000e-06	-3.068422e-07	-1.424536e-09	-2.183900e+00	-9.542256e+01
1.790000e-06	-2.611483e-07	-1.394830e-09	-1.858680e+00	-9.399768e+01
1.800000e-06	-2.154123e-07	-1.365598e-09	-1.533162e+00	-9.253175e+01
1.810000e-06	-1.696925e-07	-1.338686e-09	-1.207759e+00	-9.102342e+01
1.820000e-06	-1.239449e-07	-1.312769e-09	-8.821577e-01	-8.947136e+01
1.830000e-06	-7.813702e-08	-1.287689e-09	-5.561275e-01	-8.787436e+01
1.840000e-06	-3.222400e-08	-1.265421e-09	-2.293491e-01	-8.623131e+01
1.850000e-06	1.374736e-08	-1.245409e-09	9.784463e-02	-8.454117e+01
1.860000e-06	5.961466e-08	-1.224899e-09	4.242977e-01	-8.280304e+01
1.870000e-06	1.053354e-07	-1.198650e-09	7.497074e-01	-8.101610e+01
1.880000e-06	1.510112e-07	-1.167770e-09	1.074798e+00	-7.917967e+01
1.890000e-06	1.967204e-07	-1.136241e-09	1.400126e+00	-7.729316e+01
1.900000e-06	2.424382e-07	-1.103875e-09	1.725515e+00	-7.535611e+01
1.910000e-06	2.881623e-07	-1.069060e-09	2.050949e+00	-7.336818e+01
1.920000e-06	3.338449e-07	-1.034266e-09	2.376087e+00	-7.132911e+01
1.930000e-06	3.795017e-07	-1.005767e-09	2.701042e+00	-6.923878e+01
1.940000e-06	4.252149e-07	-9.812614e-10	3.026398e+00	-6.709714e+01
1.950000e-06	4.708864e-07	-9.530030e-10	3.351457e+00	-6.490426e+01
1.960000e-06	5.164047e-07	-9.192285e-10	3.675426e+00	-6.266029e+01
1.970000e-06	5.618609e-07	-8.846769e-10	3.998953e+00	-6.036546e+01
1.980000e-06	6.073935e-07	-8.496538e-10	4.323024e+00	-5.802007e+01
1.990000e-06	6.528879e-07	-8.121831e-10	4.646823e+00	-5.562452e+01
2.000000e-06	6.982298e-07	-7.723901e-10	4.969537e+00	-5.317924e+01
2.010000e-06	7.435067e-07	-7.364862e-10	5.291788e+00	-5.068476e+01
2.020000e-06	7.887629e-07	-7.044019e-10	5.613892e+00	-4.814164e+01
2.030000e-06	8.339722e-07	-6.705320e-10	5.935662e+00	-4.555052e+01
2.040000e-06	8.790454e-07	-6.335686e-10	6.256463e+00	-4.291210e+01
2.050000e-06	9.240719e-07	-5.951445e-10	6.576931e+00	-4.022713e+01
2.060000e-06	9.690927e-07	-5.552081e-10	6.897359e+00	-3.749642e+01
2.070000e-06	1.013971e-06	-5.144040e-10	7.216774e+00	-3.472088e+01
2.080000e-06	1.058766e-06	-4.713748e-10	7.535594e+00	-3.190145e+01
2.090000e-06	1.103426e-06	-4.277602e-10	7.853456e+00	-2.903919e+01
2.100000e-06	1.147926e-06	-3.862676e-10	8.170177e+00	-2.613524e+01
2.110000e-06	1.192407e-06	-3.467318e-10	8.486766e+00	-2.319083e+01
2.120000e-06	1.236877e-06	-3.058327e-10	8.803269e+00	-2.020731e+01
2.130000e-06	1.281351e-06	-2.643451e-10	9.119809e+00	-1.718616e+01
2.140000e-06	1.325777e-06	-2.212995e-10	9.436001e+00	-1.412897e+01
2.150000e-06	1.370080e-06	-1.752955e-10	9.751323e+00	-1.103750e+01
2.160000e-06	1.414289e-06	-1.269234e-10	1.006597e+01	-7.913645e+00
2.170000e-06	1.458436e-06	-7.859030e-11	1.038018e+01	-4.759463e+00
2.180000e-06	1.502528e-06	-3.041258e-11	1.069400e+01	-1.577188e+00
2.190000e-06	1.546569e-06	1.747301e-11	1.100745e+01	1.630775e+00
2.200000e-06	1.590588e-06	6.373340e-11	1.132075e+01	4.861841e+00
2.210000e-06	1.634557e-06	1.105485e-10	1.163369e+01	8.113244e+00
2.220000e-06	1.678449e-06	1.567589e-10	1.194609e+01	1.138204e+01
2.230000e-06	1.722241e-06	2.026636e-10	1.225777e+01	1.466512e+01
2.240000e-06	1.765927e-06	2.496114e-10	1.256870e+01	1.795919e+01
2.250000e-06	1.809517e-06	2.966604e-10	1.287894e+01	2.126080e+01
2.260000e-06	1.852883e-06	3.446522e-10	1.318760e+01	2.456638e+01
2.270000e-06	1.896040e-06	3.964599e-10	1.349475e+01	2.787221e+01
2.280000e-06	1.939088e-06	4.498665e-10	1.380114e+01	3.117446e+01
2.290000e-06	1.982002e-06	5.009044e-10	1.410658e+01	3.446923e+01
2.300000e-06	2.024733e-06	5.480363e-10	1.441071e+01	3.775254e+01
2.310000e-06	2.067224e-06	5.929228e-10	1.471313e+01	4.102038e+01
2.320000e-06	2.109457e-06	6.339008e-10	1.501371e+01	4.426875e+01
2.330000e-06	2.151405e-06	6.745983e-10	1.531228e+01	4.749364e+01
2.340000e-06	2.193113e-06	7.162521e-10	1.560912e+01	5.069112e+01
2.350000e-06	2.234618e-06	7.633964e-10	1.590453e+01	5.385732e+01
2.360000e-06	2.275808e-06	8.176940e-10	1.619769e+01	5.698850e+01
2.370000e-06	2.316670e-06	8.750338e-10	1.648852e+01	6.008106e+01
2.380000e-06	2.357344e-06	9.256336e-10	1.677801e+01	6.313158e+01
2.390000e-06	2.397803e-06	9.682528e-10	1.706597e+01	6.613682e+01
2.400000e-06	2.438023e-06	1.007018e-09	1.735223e+01	6.909378e+01
2.410000e-06	2.478170e-06	1.041493e-09	1.763797e+01	7.199971e+01
2.420000e-06	2.518280e-06	1.074462e-09	1.792345e+01	7.485210e+01
2.430000e-06	2.558314e-06	1.109420e-09	1.820838e+01	7.764876e+01
2.440000e-06	2.598255e-06	1.152899e-09	1.849266e+01	8.038776e+01
2.450000e-06	2.638062e-06	1.201965e-09	1.877597e+01	8.306749e+01
2.460000e-06	2.677711e-06	1.249347e-09	1.905817e+01	8.568664e+01
2.470000e-06	2.717170e-06	1.290746e-09	1.933902e+01	8.824420e+01
2.480000e-06	2.756439e-06	1.326725e-09	1.961851e+01	9.073946e+01
2.490000e-06	2.795504e-06	1.357586e-09	1.989654e+01	9.317203e+01
2.500000e-06	2.834399e-06	1.384987e-09	2.017337e+01	9.554175e+01
2.510000e-06	2.873104e-06	1.411776e-09	2.044885e+01	9.784877e+01
2.520000e-06	2.911522e-06	1.443995e-09	2.072228e+01	1.000935e+02
2.530000e-06	2.949765e-06	1.482890e-09	2.099448e+01	1.022765e+02
2.540000e-06	2.987844e-06	1.523630e-09	2.126549e+01	1.043985e+02
2.550000e-06	3.025689e-06	1.560490e-09	2.153485e+01	1.064607e+02
2.560000e-06	3.063365e-06	1.593908e-09	2.180300e+01	1.084640e+02
2.570000e-06	3.100844e-06	1.621634e-09	2.206975e+01	1.104099e+02
2.580000e-06	3.138103e-06	1.643960e-09	2.233494e+01	1.122995e+02
2.590000e-06	3.175123e-06	1.663514e-09	2.259842e+01	1.141344e+02
2.600000e-06	3.211921e-06	1.684451e-09	2.286032e+01	1.159159e+02
2.610000e-06	3.248519e-06	1.709889e-09	2.312081e+01	1.176456e+02
2.620000e-06	3.284872e-06	1.737809e-09	2.337954e+01	1.193249e+02
2.630000e-06	3.321043e-06	1.765108e-09	2.363698e+01	1.209553e+02
2.640000e-06	3.357073e-06	1.791290e-09	2.389342e+01	1.225381e+02
2.650000e-06	3.392958e-06	1.814794e-09	2.414882e+01	1.240747e+02
2.660000e-06	3.428758e-06	1.834106e-09	2.440363e+01	1.255664e+02
2.670000e-06	3.464431e-06	1.851245e-09	2.465752e+01	1.270142e+02
2.680000e-06	3.499785e-06	1.866221e-09	2.490915e+01	1.284192e+02
2.690000e-06	3.534858e-06	1.881134e-09	2.515877e+01	1.297825e+02
2.700000e-06	3.569610e-06	1.897293e-09	2.540612e+01	1.311050e+02
2.710000e-06	3.603932e-06	1.916395e-09	2.565040e+01	1.323875e+02
2.720000e-06	3.637884e-06	1.938268e-09	2.589204e+01	1.336306e+02
2.730000e-06	3.671421e-06	1.960521e-09	2.613074e+01	1.348351e+02
2.740000e-06	3.704573e-06	1.980235e-09	2.636670e+01	1.360015e+02
2.750000e-06	3.737473e-06	1.997302e-09	2.660085e+01	1.371304e+02
2.760000e-06	3.770071e-06	2.012606e-09	2.683286e+01	1.382222e+02
2.770000e-06	3.802345e-06	2.024720e-09	2.706257e+01	1.392776e+02
2.780000e-06	3.834404e-06	2.032340e-09	2.729075e+01	1.402969e+02
2.790000e-06	3.866255e-06	2.038948e-09	2.751744e+01	1.412807e+02
2.800000e-06	3.897902e-06	2.048552e-09	2.774268e+01	1.422295e+02
2.810000e-06	3.929298e-06	2.063872e-09	2.796614e+01	1.431437e+02
2.820000e-06	3.960420e-06	2.082323e-09	2.818765e+01	1.440240e+02
2.830000e-06	3.991293e-06	2.099241e-09	2.840738e+01	1.448711e+02
2.840000e-06	4.021872e-06	2.113188e-09	2.862502e+01	1.456856e+02
2.850000e-06	4.052153e-06	2.124770e-09	2.884054e+01	1.464683e+02
2.860000e-06	4.082162e-06	2.133858e-09	2.905413e+01	1.472201e+02
2.870000e-06	4.111959e-06	2.140814e-09	2.926620e+01	1.479418e+02
2.880000e-06	4.141568e-06	2.145372e-09	2.947694e+01	1.486344e+02
2.890000e-06	4.170852e-06	2.150147e-09	2.968536e+01	1.492989e+02
2.900000e-06	4.199815e-06	2.158677e-09	2.989150e+01	1.499365e+02
