# Temperatura_=_-2.0
# Concentracion g/m^3_=_4090.0
# C_Vs_to_Am_M_A/Vsm_=_65563218390.804596
# pendiente_HvsI_1/m_=_3716.3
# ordenada_HvsI_A/m_=_1297.0
# frecuencia_Hz_=_135066.0453895445

Tiempo_(s)	Campo_(V.s)	Magnetizacion_(V.s)	Campo_(kA/m)	Magnetizacion_(A/m)
0.000000e+00	-5.429887e-06	-2.368061e-09	-3.840488e+01	-1.535628e+02
1.000000e-08	-5.429910e-06	-2.360359e-09	-3.840503e+01	-1.534742e+02
2.000000e-08	-5.429667e-06	-2.354292e-09	-3.840332e+01	-1.533867e+02
3.000000e-08	-5.429166e-06	-2.352921e-09	-3.839978e+01	-1.533022e+02
4.000000e-08	-5.428215e-06	-2.357493e-09	-3.839305e+01	-1.532228e+02
5.000000e-08	-5.426715e-06	-2.365657e-09	-3.838244e+01	-1.531504e+02
6.000000e-08	-5.424618e-06	-2.372514e-09	-3.836761e+01	-1.530866e+02
7.000000e-08	-5.421884e-06	-2.367737e-09	-3.834827e+01	-1.530332e+02
8.000000e-08	-5.418462e-06	-2.346317e-09	-3.832407e+01	-1.529917e+02
9.000000e-08	-5.414501e-06	-2.360210e-09	-3.829605e+01	-1.529634e+02
1.000000e-07	-5.410255e-06	-2.425271e-09	-3.826602e+01	-1.529495e+02
1.100000e-07	-5.405853e-06	-2.403079e-09	-3.823489e+01	-1.529508e+02
1.200000e-07	-5.401341e-06	-2.314531e-09	-3.820297e+01	-1.529680e+02
1.300000e-07	-5.396515e-06	-2.313810e-09	-3.816884e+01	-1.530014e+02
1.400000e-07	-5.391236e-06	-2.422275e-09	-3.813150e+01	-1.530511e+02
1.500000e-07	-5.385561e-06	-2.417847e-09	-3.809136e+01	-1.531168e+02
1.600000e-07	-5.379467e-06	-2.277523e-09	-3.804826e+01	-1.531981e+02
1.700000e-07	-5.372938e-06	-2.284178e-09	-3.800208e+01	-1.532942e+02
1.800000e-07	-5.366022e-06	-2.420718e-09	-3.795317e+01	-1.534040e+02
1.900000e-07	-5.358794e-06	-2.432063e-09	-3.790205e+01	-1.535263e+02
2.000000e-07	-5.351303e-06	-2.306319e-09	-3.784906e+01	-1.536596e+02
2.100000e-07	-5.343545e-06	-2.316810e-09	-3.779419e+01	-1.538021e+02
2.200000e-07	-5.335605e-06	-2.411021e-09	-3.773803e+01	-1.539519e+02
2.300000e-07	-5.327413e-06	-2.389457e-09	-3.768009e+01	-1.541071e+02
2.400000e-07	-5.318751e-06	-2.323772e-09	-3.761883e+01	-1.542655e+02
2.500000e-07	-5.309484e-06	-2.385963e-09	-3.755328e+01	-1.544248e+02
2.600000e-07	-5.299566e-06	-2.443016e-09	-3.748313e+01	-1.545830e+02
2.700000e-07	-5.288907e-06	-2.381277e-09	-3.740774e+01	-1.547378e+02
2.800000e-07	-5.277648e-06	-2.365077e-09	-3.732811e+01	-1.548869e+02
2.900000e-07	-5.266097e-06	-2.440651e-09	-3.724641e+01	-1.550284e+02
3.000000e-07	-5.254224e-06	-2.421702e-09	-3.716243e+01	-1.551602e+02
3.100000e-07	-5.241932e-06	-2.344032e-09	-3.707549e+01	-1.552805e+02
3.200000e-07	-5.229215e-06	-2.396217e-09	-3.698555e+01	-1.553877e+02
3.300000e-07	-5.216114e-06	-2.455187e-09	-3.689289e+01	-1.554803e+02
3.400000e-07	-5.202612e-06	-2.388542e-09	-3.679739e+01	-1.555570e+02
3.500000e-07	-5.188721e-06	-2.356559e-09	-3.669914e+01	-1.556168e+02
3.600000e-07	-5.174483e-06	-2.419836e-09	-3.659844e+01	-1.556591e+02
3.700000e-07	-5.159848e-06	-2.413558e-09	-3.649493e+01	-1.556831e+02
3.800000e-07	-5.144628e-06	-2.360898e-09	-3.638728e+01	-1.556888e+02
3.900000e-07	-5.128780e-06	-2.383030e-09	-3.627519e+01	-1.556761e+02
4.000000e-07	-5.112529e-06	-2.394777e-09	-3.616025e+01	-1.556451e+02
4.100000e-07	-5.095848e-06	-2.354388e-09	-3.604226e+01	-1.555964e+02
4.200000e-07	-5.078725e-06	-2.369059e-09	-3.592115e+01	-1.555306e+02
4.300000e-07	-5.061345e-06	-2.398105e-09	-3.579822e+01	-1.554486e+02
4.400000e-07	-5.043644e-06	-2.363368e-09	-3.567303e+01	-1.553514e+02
4.500000e-07	-5.025686e-06	-2.346796e-09	-3.554601e+01	-1.552401e+02
4.600000e-07	-5.007455e-06	-2.384470e-09	-3.541707e+01	-1.551161e+02
4.700000e-07	-4.988753e-06	-2.374074e-09	-3.528479e+01	-1.549808e+02
4.800000e-07	-4.969576e-06	-2.338253e-09	-3.514916e+01	-1.548356e+02
4.900000e-07	-4.950081e-06	-2.342063e-09	-3.501127e+01	-1.546819e+02
5.000000e-07	-4.930408e-06	-2.357181e-09	-3.487212e+01	-1.545213e+02
5.100000e-07	-4.910504e-06	-2.347697e-09	-3.473135e+01	-1.543552e+02
5.200000e-07	-4.890345e-06	-2.344725e-09	-3.458877e+01	-1.541850e+02
5.300000e-07	-4.869887e-06	-2.342474e-09	-3.444407e+01	-1.540120e+02
5.400000e-07	-4.849099e-06	-2.342414e-09	-3.429704e+01	-1.538376e+02
5.500000e-07	-4.827979e-06	-2.347483e-09	-3.414766e+01	-1.536627e+02
5.600000e-07	-4.806561e-06	-2.338499e-09	-3.399617e+01	-1.534884e+02
5.700000e-07	-4.784802e-06	-2.314652e-09	-3.384227e+01	-1.533156e+02
5.800000e-07	-4.762645e-06	-2.313408e-09	-3.368556e+01	-1.531450e+02
5.900000e-07	-4.740219e-06	-2.323400e-09	-3.352695e+01	-1.529770e+02
6.000000e-07	-4.717463e-06	-2.322436e-09	-3.336599e+01	-1.528122e+02
6.100000e-07	-4.694331e-06	-2.315213e-09	-3.320239e+01	-1.526506e+02
6.200000e-07	-4.670924e-06	-2.309156e-09	-3.303683e+01	-1.524923e+02
6.300000e-07	-4.647254e-06	-2.310181e-09	-3.286942e+01	-1.523374e+02
6.400000e-07	-4.623416e-06	-2.315105e-09	-3.270081e+01	-1.521855e+02
6.500000e-07	-4.599416e-06	-2.302912e-09	-3.253106e+01	-1.520364e+02
6.600000e-07	-4.575179e-06	-2.284455e-09	-3.235964e+01	-1.518895e+02
6.700000e-07	-4.550592e-06	-2.289394e-09	-3.218574e+01	-1.517444e+02
6.800000e-07	-4.525547e-06	-2.301075e-09	-3.200860e+01	-1.516004e+02
6.900000e-07	-4.499945e-06	-2.298790e-09	-3.182752e+01	-1.514568e+02
7.000000e-07	-4.473810e-06	-2.290498e-09	-3.164267e+01	-1.513130e+02
7.100000e-07	-4.447233e-06	-2.287437e-09	-3.145469e+01	-1.511681e+02
7.200000e-07	-4.420100e-06	-2.285777e-09	-3.126278e+01	-1.510214e+02
7.300000e-07	-4.392550e-06	-2.283007e-09	-3.106793e+01	-1.508723e+02
7.400000e-07	-4.364809e-06	-2.273293e-09	-3.087172e+01	-1.507199e+02
7.500000e-07	-4.336892e-06	-2.267773e-09	-3.067426e+01	-1.505636e+02
7.600000e-07	-4.308842e-06	-2.274266e-09	-3.047587e+01	-1.504029e+02
7.700000e-07	-4.280605e-06	-2.280183e-09	-3.027615e+01	-1.502372e+02
7.800000e-07	-4.251995e-06	-2.270877e-09	-3.007380e+01	-1.500660e+02
7.900000e-07	-4.223004e-06	-2.260746e-09	-2.986875e+01	-1.498889e+02
8.000000e-07	-4.193727e-06	-2.257822e-09	-2.966168e+01	-1.497057e+02
8.100000e-07	-4.164177e-06	-2.257837e-09	-2.945267e+01	-1.495161e+02
8.200000e-07	-4.134367e-06	-2.254683e-09	-2.924183e+01	-1.493201e+02
8.300000e-07	-4.104289e-06	-2.250334e-09	-2.902909e+01	-1.491176e+02
8.400000e-07	-4.073956e-06	-2.247770e-09	-2.881455e+01	-1.489087e+02
8.500000e-07	-4.043337e-06	-2.248658e-09	-2.859799e+01	-1.486935e+02
8.600000e-07	-4.012417e-06	-2.242697e-09	-2.837929e+01	-1.484723e+02
8.700000e-07	-3.981239e-06	-2.230604e-09	-2.815878e+01	-1.482454e+02
8.800000e-07	-3.949840e-06	-2.220186e-09	-2.793670e+01	-1.480131e+02
8.900000e-07	-3.918278e-06	-2.222909e-09	-2.771346e+01	-1.477757e+02
9.000000e-07	-3.886543e-06	-2.228552e-09	-2.748900e+01	-1.475338e+02
9.100000e-07	-3.854632e-06	-2.224073e-09	-2.726330e+01	-1.472877e+02
9.200000e-07	-3.822510e-06	-2.212351e-09	-2.703611e+01	-1.470380e+02
9.300000e-07	-3.790133e-06	-2.202806e-09	-2.680711e+01	-1.467850e+02
9.400000e-07	-3.757415e-06	-2.197265e-09	-2.657570e+01	-1.465294e+02
9.500000e-07	-3.724299e-06	-2.190112e-09	-2.634148e+01	-1.462714e+02
9.600000e-07	-3.690794e-06	-2.183815e-09	-2.610450e+01	-1.460116e+02
9.700000e-07	-3.656880e-06	-2.185715e-09	-2.586463e+01	-1.457503e+02
9.800000e-07	-3.622450e-06	-2.191375e-09	-2.562111e+01	-1.454879e+02
9.900000e-07	-3.587561e-06	-2.187387e-09	-2.537434e+01	-1.452247e+02
1.000000e-06	-3.552349e-06	-2.176304e-09	-2.512530e+01	-1.449609e+02
1.010000e-06	-3.516900e-06	-2.163124e-09	-2.487457e+01	-1.446966e+02
1.020000e-06	-3.481288e-06	-2.151095e-09	-2.462269e+01	-1.444321e+02
1.030000e-06	-3.445493e-06	-2.143589e-09	-2.436952e+01	-1.441673e+02
1.040000e-06	-3.409536e-06	-2.142823e-09	-2.411520e+01	-1.439023e+02
1.050000e-06	-3.373480e-06	-2.144927e-09	-2.386018e+01	-1.436371e+02
1.060000e-06	-3.337256e-06	-2.147693e-09	-2.360397e+01	-1.433714e+02
1.070000e-06	-3.300762e-06	-2.146482e-09	-2.334586e+01	-1.431051e+02
1.080000e-06	-3.264041e-06	-2.138785e-09	-2.308613e+01	-1.428380e+02
1.090000e-06	-3.227050e-06	-2.124962e-09	-2.282450e+01	-1.425698e+02
1.100000e-06	-3.189810e-06	-2.113315e-09	-2.256110e+01	-1.423001e+02
1.110000e-06	-3.152343e-06	-2.104692e-09	-2.229611e+01	-1.420285e+02
1.120000e-06	-3.114647e-06	-2.098074e-09	-2.202949e+01	-1.417548e+02
1.130000e-06	-3.076707e-06	-2.093357e-09	-2.176114e+01	-1.414783e+02
1.140000e-06	-3.038557e-06	-2.093832e-09	-2.149131e+01	-1.411988e+02
1.150000e-06	-3.000323e-06	-2.095010e-09	-2.122089e+01	-1.409156e+02
1.160000e-06	-2.961985e-06	-2.091534e-09	-2.094973e+01	-1.406283e+02
1.170000e-06	-2.923414e-06	-2.080102e-09	-2.067693e+01	-1.403364e+02
1.180000e-06	-2.884540e-06	-2.066399e-09	-2.040197e+01	-1.400395e+02
1.190000e-06	-2.845322e-06	-2.057033e-09	-2.012458e+01	-1.397370e+02
1.200000e-06	-2.805915e-06	-2.049328e-09	-1.984586e+01	-1.394284e+02
1.210000e-06	-2.766455e-06	-2.042854e-09	-1.956677e+01	-1.391134e+02
1.220000e-06	-2.726858e-06	-2.040512e-09	-1.928671e+01	-1.387915e+02
1.230000e-06	-2.687113e-06	-2.041486e-09	-1.900560e+01	-1.384623e+02
1.240000e-06	-2.647231e-06	-2.041256e-09	-1.872351e+01	-1.381254e+02
1.250000e-06	-2.607249e-06	-2.037607e-09	-1.844073e+01	-1.377806e+02
1.260000e-06	-2.567163e-06	-2.027883e-09	-1.815720e+01	-1.374274e+02
1.270000e-06	-2.526950e-06	-2.015092e-09	-1.787279e+01	-1.370657e+02
1.280000e-06	-2.486578e-06	-2.005295e-09	-1.758724e+01	-1.366953e+02
1.290000e-06	-2.445981e-06	-1.999240e-09	-1.730010e+01	-1.363159e+02
1.300000e-06	-2.405223e-06	-1.992300e-09	-1.701182e+01	-1.359275e+02
1.310000e-06	-2.364246e-06	-1.985734e-09	-1.672200e+01	-1.355299e+02
1.320000e-06	-2.323057e-06	-1.979937e-09	-1.643068e+01	-1.351231e+02
1.330000e-06	-2.281671e-06	-1.974460e-09	-1.613796e+01	-1.347071e+02
1.340000e-06	-2.239886e-06	-1.968762e-09	-1.584242e+01	-1.342818e+02
1.350000e-06	-2.197727e-06	-1.961131e-09	-1.554423e+01	-1.338475e+02
1.360000e-06	-2.155277e-06	-1.953571e-09	-1.524399e+01	-1.334040e+02
1.370000e-06	-2.112559e-06	-1.947910e-09	-1.494185e+01	-1.329515e+02
1.380000e-06	-2.069704e-06	-1.941117e-09	-1.463874e+01	-1.324901e+02
1.390000e-06	-2.026640e-06	-1.934002e-09	-1.433416e+01	-1.320200e+02
1.400000e-06	-1.983337e-06	-1.927311e-09	-1.402788e+01	-1.315412e+02
1.410000e-06	-1.939925e-06	-1.921058e-09	-1.372083e+01	-1.310539e+02
1.420000e-06	-1.896383e-06	-1.913963e-09	-1.341287e+01	-1.305582e+02
1.430000e-06	-1.852730e-06	-1.905643e-09	-1.310411e+01	-1.300541e+02
1.440000e-06	-1.808979e-06	-1.896008e-09	-1.279467e+01	-1.295418e+02
1.450000e-06	-1.765115e-06	-1.888886e-09	-1.248443e+01	-1.290212e+02
1.460000e-06	-1.721202e-06	-1.885523e-09	-1.217383e+01	-1.284923e+02
1.470000e-06	-1.677241e-06	-1.879520e-09	-1.186291e+01	-1.279551e+02
1.480000e-06	-1.633186e-06	-1.868773e-09	-1.155131e+01	-1.274094e+02
1.490000e-06	-1.589086e-06	-1.857652e-09	-1.123940e+01	-1.268551e+02
1.500000e-06	-1.544921e-06	-1.848075e-09	-1.092702e+01	-1.262918e+02
1.510000e-06	-1.500616e-06	-1.837434e-09	-1.061366e+01	-1.257193e+02
1.520000e-06	-1.456215e-06	-1.824710e-09	-1.029962e+01	-1.251371e+02
1.530000e-06	-1.411742e-06	-1.815247e-09	-9.985064e+00	-1.245447e+02
1.540000e-06	-1.367158e-06	-1.809786e-09	-9.669729e+00	-1.239416e+02
1.550000e-06	-1.322481e-06	-1.805094e-09	-9.353735e+00	-1.233271e+02
1.560000e-06	-1.277759e-06	-1.799358e-09	-9.037418e+00	-1.227004e+02
1.570000e-06	-1.232948e-06	-1.790650e-09	-8.720477e+00	-1.220607e+02
1.580000e-06	-1.188030e-06	-1.779767e-09	-8.402778e+00	-1.214071e+02
1.590000e-06	-1.143015e-06	-1.767736e-09	-8.084397e+00	-1.207385e+02
1.600000e-06	-1.097891e-06	-1.754382e-09	-7.765237e+00	-1.200539e+02
1.610000e-06	-1.052745e-06	-1.740051e-09	-7.445925e+00	-1.193523e+02
1.620000e-06	-1.007510e-06	-1.729349e-09	-7.125988e+00	-1.186322e+02
1.630000e-06	-9.620699e-07	-1.720622e-09	-6.804594e+00	-1.178927e+02
1.640000e-06	-9.165440e-07	-1.710310e-09	-6.482595e+00	-1.171322e+02
1.650000e-06	-8.710681e-07	-1.699320e-09	-6.160950e+00	-1.163496e+02
1.660000e-06	-8.255917e-07	-1.690426e-09	-5.839301e+00	-1.155434e+02
1.670000e-06	-7.800474e-07	-1.680776e-09	-5.517173e+00	-1.147124e+02
1.680000e-06	-7.344998e-07	-1.664249e-09	-5.195020e+00	-1.138551e+02
1.690000e-06	-6.888827e-07	-1.642880e-09	-4.872377e+00	-1.129701e+02
1.700000e-06	-6.432083e-07	-1.624698e-09	-4.549328e+00	-1.120562e+02
1.710000e-06	-5.975012e-07	-1.611771e-09	-4.226047e+00	-1.111119e+02
1.720000e-06	-5.517440e-07	-1.597866e-09	-3.902413e+00	-1.101360e+02
1.730000e-06	-5.059689e-07	-1.581075e-09	-3.578652e+00	-1.091272e+02
1.740000e-06	-4.601304e-07	-1.565826e-09	-3.254442e+00	-1.080843e+02
1.750000e-06	-4.143012e-07	-1.554568e-09	-2.930298e+00	-1.070059e+02
1.760000e-06	-3.684420e-07	-1.541078e-09	-2.605942e+00	-1.058910e+02
1.770000e-06	-3.224808e-07	-1.517770e-09	-2.280864e+00	-1.047384e+02
1.780000e-06	-2.765053e-07	-1.492453e-09	-1.955685e+00	-1.035469e+02
1.790000e-06	-2.305153e-07	-1.474209e-09	-1.630405e+00	-1.023155e+02
1.800000e-06	-1.845446e-07	-1.460689e-09	-1.305260e+00	-1.010432e+02
1.810000e-06	-1.386171e-07	-1.445007e-09	-9.804205e-01	-9.972876e+01
1.820000e-06	-9.266081e-08	-1.425068e-09	-6.553777e-01	-9.837125e+01
1.830000e-06	-4.665656e-08	-1.404118e-09	-3.299957e-01	-9.696958e+01
1.840000e-06	-6.514545e-10	-1.381007e-09	-4.607652e-03	-9.552269e+01
1.850000e-06	4.535866e-08	-1.354672e-09	3.208158e-01	-9.402947e+01
1.860000e-06	9.131521e-08	-1.326719e-09	6.458604e-01	-9.248880e+01
1.870000e-06	1.372716e-07	-1.300472e-09	9.709042e-01	-9.089950e+01
1.880000e-06	1.832629e-07	-1.279903e-09	1.296194e+00	-8.926034e+01
1.890000e-06	2.292238e-07	-1.261230e-09	1.621270e+00	-8.757003e+01
1.900000e-06	2.752484e-07	-1.237632e-09	1.946796e+00	-8.582723e+01
1.910000e-06	3.212822e-07	-1.210330e-09	2.272387e+00	-8.403051e+01
1.920000e-06	3.672275e-07	-1.182315e-09	2.597352e+00	-8.217839e+01
1.930000e-06	4.131247e-07	-1.152695e-09	2.921977e+00	-8.026931e+01
1.940000e-06	4.590014e-07	-1.120009e-09	3.246456e+00	-7.830166e+01
1.950000e-06	5.048417e-07	-1.087134e-09	3.570679e+00	-7.627376e+01
1.960000e-06	5.506712e-07	-1.056678e-09	3.894825e+00	-7.418391e+01
1.970000e-06	5.964709e-07	-1.028428e-09	4.218760e+00	-7.203038e+01
1.980000e-06	6.422072e-07	-9.997285e-10	4.542247e+00	-6.981142e+01
1.990000e-06	6.879183e-07	-9.685562e-10	4.865556e+00	-6.752530e+01
2.000000e-06	7.336189e-07	-9.352611e-10	5.188790e+00	-6.517036e+01
2.010000e-06	7.792899e-07	-9.010597e-10	5.511815e+00	-6.274497e+01
2.020000e-06	8.248722e-07	-8.644556e-10	5.834213e+00	-6.024762e+01
2.030000e-06	8.703646e-07	-8.253725e-10	6.155974e+00	-5.767696e+01
2.040000e-06	9.157781e-07	-7.865457e-10	6.477178e+00	-5.503178e+01
2.050000e-06	9.611357e-07	-7.485278e-10	6.797986e+00	-5.231109e+01
2.060000e-06	1.006435e-06	-7.110984e-10	7.118381e+00	-4.951415e+01
2.070000e-06	1.051626e-06	-6.716958e-10	7.438009e+00	-4.664051e+01
2.080000e-06	1.096613e-06	-6.299613e-10	7.756197e+00	-4.369003e+01
2.090000e-06	1.141509e-06	-5.863529e-10	8.073741e+00	-4.066295e+01
2.100000e-06	1.186409e-06	-5.423928e-10	8.391318e+00	-3.755988e+01
2.110000e-06	1.231164e-06	-4.956822e-10	8.707857e+00	-3.438186e+01
2.120000e-06	1.275816e-06	-4.457217e-10	9.023675e+00	-3.113037e+01
2.130000e-06	1.320393e-06	-3.960236e-10	9.338968e+00	-2.780737e+01
2.140000e-06	1.364919e-06	-3.483393e-10	9.653896e+00	-2.441531e+01
2.150000e-06	1.409432e-06	-3.007392e-10	9.968728e+00	-2.095713e+01
2.160000e-06	1.453854e-06	-2.488286e-10	1.028292e+01	-1.743627e+01
2.170000e-06	1.498188e-06	-1.936488e-10	1.059649e+01	-1.385669e+01
2.180000e-06	1.542452e-06	-1.394428e-10	1.090956e+01	-1.022282e+01
2.190000e-06	1.586596e-06	-8.922167e-11	1.122178e+01	-6.539609e+00
2.200000e-06	1.630657e-06	-3.619743e-11	1.153342e+01	-2.812426e+00
2.210000e-06	1.674668e-06	2.495422e-11	1.184471e+01	9.529094e-01
2.220000e-06	1.718604e-06	8.782397e-11	1.215546e+01	4.750188e+00
2.230000e-06	1.762484e-06	1.453542e-10	1.246582e+01	8.572845e+00
2.240000e-06	1.806335e-06	1.986598e-10	1.277597e+01	1.241401e+01
2.250000e-06	1.850142e-06	2.541470e-10	1.308581e+01	1.626657e+01
2.260000e-06	1.893872e-06	3.129725e-10	1.339511e+01	2.012319e+01
2.270000e-06	1.937412e-06	3.706449e-10	1.370306e+01	2.397644e+01
2.280000e-06	1.980764e-06	4.263423e-10	1.400968e+01	2.781879e+01
2.290000e-06	2.024033e-06	4.848149e-10	1.431572e+01	3.164272e+01
2.300000e-06	2.067199e-06	5.461253e-10	1.462103e+01	3.544077e+01
2.310000e-06	2.110132e-06	6.058181e-10	1.492469e+01	3.920561e+01
2.320000e-06	2.152724e-06	6.615191e-10	1.522593e+01	4.293014e+01
2.330000e-06	2.194968e-06	7.125815e-10	1.552472e+01	4.660747e+01
2.340000e-06	2.237013e-06	7.613751e-10	1.582210e+01	5.023108e+01
2.350000e-06	2.278825e-06	8.104828e-10	1.611783e+01	5.379481e+01
2.360000e-06	2.320371e-06	8.620793e-10	1.641168e+01	5.729296e+01
2.370000e-06	2.361653e-06	9.152961e-10	1.670366e+01	6.072027e+01
2.380000e-06	2.402512e-06	9.674351e-10	1.699265e+01	6.407204e+01
2.390000e-06	2.443070e-06	1.016258e-09	1.727951e+01	6.734411e+01
2.400000e-06	2.483506e-06	1.062149e-09	1.756551e+01	7.053290e+01
2.410000e-06	2.523804e-06	1.104397e-09	1.785053e+01	7.363543e+01
2.420000e-06	2.563982e-06	1.142683e-09	1.813470e+01	7.664933e+01
2.430000e-06	2.604042e-06	1.180661e-09	1.841805e+01	7.957282e+01
2.440000e-06	2.643969e-06	1.220317e-09	1.870044e+01	8.240475e+01
2.450000e-06	2.683870e-06	1.261034e-09	1.898266e+01	8.514452e+01
2.460000e-06	2.723687e-06	1.299806e-09	1.926428e+01	8.779212e+01
2.470000e-06	2.763328e-06	1.336805e-09	1.954466e+01	9.034806e+01
2.480000e-06	2.802791e-06	1.373767e-09	1.982377e+01	9.281333e+01
2.490000e-06	2.842039e-06	1.409015e-09	2.010137e+01	9.518940e+01
2.500000e-06	2.881016e-06	1.440867e-09	2.037705e+01	9.747813e+01
2.510000e-06	2.919795e-06	1.470857e-09	2.065133e+01	9.968173e+01
2.520000e-06	2.958442e-06	1.501323e-09	2.092467e+01	1.018027e+02
2.530000e-06	2.996869e-06	1.531323e-09	2.119646e+01	1.038439e+02
2.540000e-06	3.035039e-06	1.560491e-09	2.146643e+01	1.058081e+02
2.550000e-06	3.073013e-06	1.589854e-09	2.173502e+01	1.076986e+02
2.560000e-06	3.110803e-06	1.616805e-09	2.200230e+01	1.095183e+02
2.570000e-06	3.148398e-06	1.640880e-09	2.226821e+01	1.112706e+02
2.580000e-06	3.185791e-06	1.665070e-09	2.253268e+01	1.129586e+02
2.590000e-06	3.222970e-06	1.690046e-09	2.279564e+01	1.145853e+02
2.600000e-06	3.259956e-06	1.713948e-09	2.305724e+01	1.161538e+02
2.610000e-06	3.296695e-06	1.735486e-09	2.331709e+01	1.176668e+02
2.620000e-06	3.333171e-06	1.755898e-09	2.357508e+01	1.191270e+02
2.630000e-06	3.369448e-06	1.775913e-09	2.383167e+01	1.205368e+02
2.640000e-06	3.405590e-06	1.793569e-09	2.408729e+01	1.218984e+02
2.650000e-06	3.441606e-06	1.808276e-09	2.434202e+01	1.232139e+02
2.660000e-06	3.477506e-06	1.823594e-09	2.459594e+01	1.244850e+02
2.670000e-06	3.513234e-06	1.841654e-09	2.484864e+01	1.257131e+02
2.680000e-06	3.548746e-06	1.859612e-09	2.509981e+01	1.268997e+02
2.690000e-06	3.584044e-06	1.874727e-09	2.534947e+01	1.280457e+02
2.700000e-06	3.618995e-06	1.889823e-09	2.559667e+01	1.291520e+02
2.710000e-06	3.653402e-06	1.907135e-09	2.584003e+01	1.302193e+02
2.720000e-06	3.687254e-06	1.922447e-09	2.607946e+01	1.312482e+02
2.730000e-06	3.720684e-06	1.934738e-09	2.631591e+01	1.322391e+02
2.740000e-06	3.753682e-06	1.946166e-09	2.654930e+01	1.331924e+02
2.750000e-06	3.786371e-06	1.960276e-09	2.678050e+01	1.341083e+02
2.760000e-06	3.818848e-06	1.973449e-09	2.701021e+01	1.349872e+02
2.770000e-06	3.851012e-06	1.982448e-09	2.723770e+01	1.358292e+02
2.780000e-06	3.882981e-06	1.990443e-09	2.746381e+01	1.366346e+02
2.790000e-06	3.914806e-06	1.999895e-09	2.768891e+01	1.374039e+02
2.800000e-06	3.946463e-06	2.011784e-09	2.791281e+01	1.381374e+02
2.810000e-06	3.977957e-06	2.024408e-09	2.813556e+01	1.388357e+02
2.820000e-06	4.009177e-06	2.036150e-09	2.835638e+01	1.394994e+02
2.830000e-06	4.040038e-06	2.046993e-09	2.857465e+01	1.401294e+02
2.840000e-06	4.070556e-06	2.057704e-09	2.879050e+01	1.407266e+02
2.850000e-06	4.100833e-06	2.066016e-09	2.900465e+01	1.412921e+02
2.860000e-06	4.130901e-06	2.071497e-09	2.921732e+01	1.418270e+02
2.870000e-06	4.160709e-06	2.075320e-09	2.942815e+01	1.423328e+02
2.880000e-06	4.190179e-06	2.078608e-09	2.963658e+01	1.428109e+02
2.890000e-06	4.219310e-06	2.082560e-09	2.984262e+01	1.432630e+02
2.900000e-06	4.248202e-06	2.088370e-09	3.004697e+01	1.436907e+02
