# Temperatura_=_8.7
# Concentracion g/m^3_=_4090.0
# C_Vs_to_Am_M_A/Vsm_=_65563218390.804596
# pendiente_HvsI_1/m_=_3716.3
# ordenada_HvsI_A/m_=_1297.0
# frecuencia_Hz_=_135069.47593887302

Tiempo_(s)	Campo_(V.s)	Magnetizacion_(V.s)	Campo_(kA/m)	Magnetizacion_(A/m)
0.000000e+00	-5.371494e-06	-2.444654e-09	-3.840342e+01	-1.590965e+02
1.000000e-08	-5.371588e-06	-2.443575e-09	-3.840410e+01	-1.590173e+02
2.000000e-08	-5.371561e-06	-2.443186e-09	-3.840390e+01	-1.589445e+02
3.000000e-08	-5.371298e-06	-2.442737e-09	-3.840202e+01	-1.588800e+02
4.000000e-08	-5.370629e-06	-2.441654e-09	-3.839724e+01	-1.588252e+02
5.000000e-08	-5.369525e-06	-2.439300e-09	-3.838935e+01	-1.587817e+02
6.000000e-08	-5.367896e-06	-2.434967e-09	-3.837770e+01	-1.587507e+02
7.000000e-08	-5.365671e-06	-2.421807e-09	-3.836179e+01	-1.587333e+02
8.000000e-08	-5.362715e-06	-2.424008e-09	-3.834066e+01	-1.587302e+02
9.000000e-08	-5.359076e-06	-2.461576e-09	-3.831464e+01	-1.587421e+02
1.000000e-07	-5.355016e-06	-2.487019e-09	-3.828562e+01	-1.587693e+02
1.100000e-07	-5.350705e-06	-2.458759e-09	-3.825479e+01	-1.588117e+02
1.200000e-07	-5.346374e-06	-2.439141e-09	-3.822383e+01	-1.588691e+02
1.300000e-07	-5.341892e-06	-2.449944e-09	-3.819179e+01	-1.589411e+02
1.400000e-07	-5.336892e-06	-2.477068e-09	-3.815604e+01	-1.590267e+02
1.500000e-07	-5.331420e-06	-2.442423e-09	-3.811691e+01	-1.591248e+02
1.600000e-07	-5.325768e-06	-2.413931e-09	-3.807650e+01	-1.592343e+02
1.700000e-07	-5.319841e-06	-2.442572e-09	-3.803413e+01	-1.593535e+02
1.800000e-07	-5.313353e-06	-2.490475e-09	-3.798774e+01	-1.594806e+02
1.900000e-07	-5.306366e-06	-2.498773e-09	-3.793779e+01	-1.596139e+02
2.000000e-07	-5.299220e-06	-2.480882e-09	-3.788670e+01	-1.597511e+02
2.100000e-07	-5.291856e-06	-2.496433e-09	-3.783405e+01	-1.598902e+02
2.200000e-07	-5.284112e-06	-2.497048e-09	-3.777868e+01	-1.600289e+02
2.300000e-07	-5.276166e-06	-2.496399e-09	-3.772187e+01	-1.601649e+02
2.400000e-07	-5.268002e-06	-2.504906e-09	-3.766351e+01	-1.602961e+02
2.500000e-07	-5.259310e-06	-2.525996e-09	-3.760137e+01	-1.604202e+02
2.600000e-07	-5.249935e-06	-2.513911e-09	-3.753434e+01	-1.605351e+02
2.700000e-07	-5.239873e-06	-2.522103e-09	-3.746240e+01	-1.606388e+02
2.800000e-07	-5.229188e-06	-2.544251e-09	-3.738601e+01	-1.607295e+02
2.900000e-07	-5.218026e-06	-2.533804e-09	-3.730620e+01	-1.608055e+02
3.000000e-07	-5.206468e-06	-2.493803e-09	-3.722357e+01	-1.608654e+02
3.100000e-07	-5.194568e-06	-2.504058e-09	-3.713849e+01	-1.609078e+02
3.200000e-07	-5.182265e-06	-2.532573e-09	-3.705053e+01	-1.609319e+02
3.300000e-07	-5.169536e-06	-2.526923e-09	-3.695953e+01	-1.609370e+02
3.400000e-07	-5.156458e-06	-2.497326e-09	-3.686603e+01	-1.609224e+02
3.500000e-07	-5.143030e-06	-2.496777e-09	-3.677002e+01	-1.608881e+02
3.600000e-07	-5.129238e-06	-2.511559e-09	-3.667142e+01	-1.608341e+02
3.700000e-07	-5.115098e-06	-2.507309e-09	-3.657032e+01	-1.607607e+02
3.800000e-07	-5.100484e-06	-2.489269e-09	-3.646584e+01	-1.606685e+02
3.900000e-07	-5.085167e-06	-2.476589e-09	-3.635633e+01	-1.605582e+02
4.000000e-07	-5.069173e-06	-2.482324e-09	-3.624198e+01	-1.604308e+02
4.100000e-07	-5.052876e-06	-2.486702e-09	-3.612547e+01	-1.602875e+02
4.200000e-07	-5.036248e-06	-2.479972e-09	-3.600659e+01	-1.601295e+02
4.300000e-07	-5.019263e-06	-2.461387e-09	-3.588515e+01	-1.599583e+02
4.400000e-07	-5.002164e-06	-2.458151e-09	-3.576290e+01	-1.597753e+02
4.500000e-07	-4.984774e-06	-2.463782e-09	-3.563857e+01	-1.595821e+02
4.600000e-07	-4.967020e-06	-2.468744e-09	-3.551165e+01	-1.593803e+02
4.700000e-07	-4.948905e-06	-2.454976e-09	-3.538213e+01	-1.591715e+02
4.800000e-07	-4.930312e-06	-2.442622e-09	-3.524920e+01	-1.589571e+02
4.900000e-07	-4.911284e-06	-2.444768e-09	-3.511316e+01	-1.587386e+02
5.000000e-07	-4.891926e-06	-2.455654e-09	-3.497476e+01	-1.585173e+02
5.100000e-07	-4.872289e-06	-2.440705e-09	-3.483436e+01	-1.582946e+02
5.200000e-07	-4.852386e-06	-2.423828e-09	-3.469207e+01	-1.580715e+02
5.300000e-07	-4.832307e-06	-2.431077e-09	-3.454852e+01	-1.578489e+02
5.400000e-07	-4.812033e-06	-2.443854e-09	-3.440356e+01	-1.576276e+02
5.500000e-07	-4.791432e-06	-2.429269e-09	-3.425627e+01	-1.574082e+02
5.600000e-07	-4.770426e-06	-2.417423e-09	-3.410609e+01	-1.571911e+02
5.700000e-07	-4.749062e-06	-2.419335e-09	-3.395335e+01	-1.569766e+02
5.800000e-07	-4.727447e-06	-2.417174e-09	-3.379882e+01	-1.567646e+02
5.900000e-07	-4.705556e-06	-2.406286e-09	-3.364231e+01	-1.565551e+02
6.000000e-07	-4.683337e-06	-2.400785e-09	-3.348345e+01	-1.563478e+02
6.100000e-07	-4.660722e-06	-2.392473e-09	-3.332177e+01	-1.561422e+02
6.200000e-07	-4.637628e-06	-2.388943e-09	-3.315666e+01	-1.559379e+02
6.300000e-07	-4.614215e-06	-2.394893e-09	-3.298927e+01	-1.557342e+02
6.400000e-07	-4.590642e-06	-2.391274e-09	-3.282073e+01	-1.555303e+02
6.500000e-07	-4.566883e-06	-2.378006e-09	-3.265087e+01	-1.553255e+02
6.600000e-07	-4.542884e-06	-2.377535e-09	-3.247929e+01	-1.551189e+02
6.700000e-07	-4.518649e-06	-2.379034e-09	-3.230602e+01	-1.549096e+02
6.800000e-07	-4.494175e-06	-2.366742e-09	-3.213104e+01	-1.546968e+02
6.900000e-07	-4.469360e-06	-2.357397e-09	-3.195363e+01	-1.544797e+02
7.000000e-07	-4.444054e-06	-2.357913e-09	-3.177271e+01	-1.542576e+02
7.100000e-07	-4.418220e-06	-2.359323e-09	-3.158800e+01	-1.540296e+02
7.200000e-07	-4.391849e-06	-2.356382e-09	-3.139946e+01	-1.537952e+02
7.300000e-07	-4.365004e-06	-2.353650e-09	-3.120754e+01	-1.535539e+02
7.400000e-07	-4.337715e-06	-2.348320e-09	-3.101243e+01	-1.533053e+02
7.500000e-07	-4.309990e-06	-2.347188e-09	-3.081422e+01	-1.530489e+02
7.600000e-07	-4.282022e-06	-2.343835e-09	-3.061426e+01	-1.527847e+02
7.700000e-07	-4.253963e-06	-2.335741e-09	-3.041365e+01	-1.525126e+02
7.800000e-07	-4.225788e-06	-2.327364e-09	-3.021221e+01	-1.522325e+02
7.900000e-07	-4.197384e-06	-2.323752e-09	-3.000914e+01	-1.519448e+02
8.000000e-07	-4.168691e-06	-2.317634e-09	-2.980400e+01	-1.516495e+02
8.100000e-07	-4.139638e-06	-2.312649e-09	-2.959628e+01	-1.513470e+02
8.200000e-07	-4.110244e-06	-2.309591e-09	-2.938613e+01	-1.510379e+02
8.300000e-07	-4.080593e-06	-2.309073e-09	-2.917414e+01	-1.507225e+02
8.400000e-07	-4.050672e-06	-2.306986e-09	-2.896022e+01	-1.504013e+02
8.500000e-07	-4.020485e-06	-2.302664e-09	-2.874441e+01	-1.500751e+02
8.600000e-07	-3.990107e-06	-2.292202e-09	-2.852722e+01	-1.497442e+02
8.700000e-07	-3.959400e-06	-2.281504e-09	-2.830768e+01	-1.494094e+02
8.800000e-07	-3.928294e-06	-2.272662e-09	-2.808528e+01	-1.490712e+02
8.900000e-07	-3.896980e-06	-2.265128e-09	-2.786140e+01	-1.487301e+02
9.000000e-07	-3.865530e-06	-2.261101e-09	-2.763655e+01	-1.483867e+02
9.100000e-07	-3.833887e-06	-2.259957e-09	-2.741032e+01	-1.480412e+02
9.200000e-07	-3.802035e-06	-2.256593e-09	-2.718260e+01	-1.476942e+02
9.300000e-07	-3.769995e-06	-2.250149e-09	-2.695353e+01	-1.473458e+02
9.400000e-07	-3.737756e-06	-2.242250e-09	-2.672304e+01	-1.469963e+02
9.500000e-07	-3.705286e-06	-2.236197e-09	-2.649089e+01	-1.466457e+02
9.600000e-07	-3.672549e-06	-2.231280e-09	-2.625684e+01	-1.462941e+02
9.700000e-07	-3.639474e-06	-2.224451e-09	-2.602037e+01	-1.459414e+02
9.800000e-07	-3.606015e-06	-2.218400e-09	-2.578116e+01	-1.455874e+02
9.900000e-07	-3.572066e-06	-2.213218e-09	-2.553844e+01	-1.452318e+02
1.000000e-06	-3.537621e-06	-2.205013e-09	-2.529217e+01	-1.448744e+02
1.010000e-06	-3.502785e-06	-2.194642e-09	-2.504312e+01	-1.445148e+02
1.020000e-06	-3.467653e-06	-2.186073e-09	-2.479194e+01	-1.441524e+02
1.030000e-06	-3.432256e-06	-2.178842e-09	-2.453887e+01	-1.437868e+02
1.040000e-06	-3.396632e-06	-2.174490e-09	-2.428418e+01	-1.434175e+02
1.050000e-06	-3.360847e-06	-2.170564e-09	-2.402833e+01	-1.430440e+02
1.060000e-06	-3.324860e-06	-2.165082e-09	-2.377104e+01	-1.426656e+02
1.070000e-06	-3.288702e-06	-2.157620e-09	-2.351253e+01	-1.422819e+02
1.080000e-06	-3.252393e-06	-2.147658e-09	-2.325294e+01	-1.418923e+02
1.090000e-06	-3.215896e-06	-2.134138e-09	-2.299200e+01	-1.414963e+02
1.100000e-06	-3.179180e-06	-2.123043e-09	-2.272951e+01	-1.410935e+02
1.110000e-06	-3.142255e-06	-2.116662e-09	-2.246551e+01	-1.406835e+02
1.120000e-06	-3.105079e-06	-2.112539e-09	-2.219972e+01	-1.402660e+02
1.130000e-06	-3.067649e-06	-2.107327e-09	-2.193211e+01	-1.398405e+02
1.140000e-06	-3.030082e-06	-2.101341e-09	-2.166353e+01	-1.394070e+02
1.150000e-06	-2.992348e-06	-2.093642e-09	-2.139375e+01	-1.389653e+02
1.160000e-06	-2.954402e-06	-2.083480e-09	-2.112245e+01	-1.385152e+02
1.170000e-06	-2.916327e-06	-2.069662e-09	-2.085024e+01	-1.380568e+02
1.180000e-06	-2.878030e-06	-2.056580e-09	-2.057643e+01	-1.375900e+02
1.190000e-06	-2.839418e-06	-2.048407e-09	-2.030038e+01	-1.371149e+02
1.200000e-06	-2.800630e-06	-2.041791e-09	-2.002307e+01	-1.366317e+02
1.210000e-06	-2.761675e-06	-2.032352e-09	-1.974455e+01	-1.361404e+02
1.220000e-06	-2.722442e-06	-2.024030e-09	-1.946406e+01	-1.356413e+02
1.230000e-06	-2.682992e-06	-2.018930e-09	-1.918201e+01	-1.351346e+02
1.240000e-06	-2.643453e-06	-2.014876e-09	-1.889933e+01	-1.346204e+02
1.250000e-06	-2.603805e-06	-2.009712e-09	-1.861587e+01	-1.340989e+02
1.260000e-06	-2.563998e-06	-2.001113e-09	-1.833127e+01	-1.335704e+02
1.270000e-06	-2.524096e-06	-1.991469e-09	-1.804599e+01	-1.330348e+02
1.280000e-06	-2.484133e-06	-1.978141e-09	-1.776027e+01	-1.324924e+02
1.290000e-06	-2.444086e-06	-1.963070e-09	-1.747396e+01	-1.319432e+02
1.300000e-06	-2.403900e-06	-1.946214e-09	-1.718665e+01	-1.313871e+02
1.310000e-06	-2.363553e-06	-1.930557e-09	-1.689819e+01	-1.308243e+02
1.320000e-06	-2.322987e-06	-1.922845e-09	-1.660816e+01	-1.302545e+02
1.330000e-06	-2.282197e-06	-1.920385e-09	-1.631654e+01	-1.296776e+02
1.340000e-06	-2.241256e-06	-1.919880e-09	-1.602383e+01	-1.290934e+02
1.350000e-06	-2.200111e-06	-1.917063e-09	-1.572966e+01	-1.285015e+02
1.360000e-06	-2.158771e-06	-1.908223e-09	-1.543411e+01	-1.279018e+02
1.370000e-06	-2.117250e-06	-1.891829e-09	-1.513725e+01	-1.272936e+02
1.380000e-06	-2.075358e-06	-1.870537e-09	-1.483774e+01	-1.266767e+02
1.390000e-06	-2.033105e-06	-1.850841e-09	-1.453565e+01	-1.260505e+02
1.400000e-06	-1.990579e-06	-1.839416e-09	-1.423162e+01	-1.254145e+02
1.410000e-06	-1.947783e-06	-1.835488e-09	-1.392565e+01	-1.247682e+02
1.420000e-06	-1.904829e-06	-1.835383e-09	-1.361855e+01	-1.241110e+02
1.430000e-06	-1.861771e-06	-1.833409e-09	-1.331071e+01	-1.234423e+02
1.440000e-06	-1.818534e-06	-1.826116e-09	-1.300158e+01	-1.227616e+02
1.450000e-06	-1.775094e-06	-1.811381e-09	-1.269101e+01	-1.220682e+02
1.460000e-06	-1.731493e-06	-1.792757e-09	-1.237928e+01	-1.213616e+02
1.470000e-06	-1.687779e-06	-1.774425e-09	-1.206675e+01	-1.206413e+02
1.480000e-06	-1.643971e-06	-1.757968e-09	-1.175355e+01	-1.199068e+02
1.490000e-06	-1.600079e-06	-1.744193e-09	-1.143975e+01	-1.191575e+02
1.500000e-06	-1.556150e-06	-1.735642e-09	-1.112568e+01	-1.183930e+02
1.510000e-06	-1.512154e-06	-1.729119e-09	-1.081113e+01	-1.176128e+02
1.520000e-06	-1.468124e-06	-1.721452e-09	-1.049633e+01	-1.168165e+02
1.530000e-06	-1.424065e-06	-1.712065e-09	-1.018133e+01	-1.160037e+02
1.540000e-06	-1.379920e-06	-1.698748e-09	-9.865716e+00	-1.151741e+02
1.550000e-06	-1.335751e-06	-1.683355e-09	-9.549934e+00	-1.143272e+02
1.560000e-06	-1.291527e-06	-1.668508e-09	-9.233756e+00	-1.134627e+02
1.570000e-06	-1.247216e-06	-1.655660e-09	-8.916955e+00	-1.125802e+02
1.580000e-06	-1.202852e-06	-1.641998e-09	-8.599775e+00	-1.116794e+02
1.590000e-06	-1.158420e-06	-1.627490e-09	-8.282108e+00	-1.107598e+02
1.600000e-06	-1.113892e-06	-1.613545e-09	-7.963752e+00	-1.098211e+02
1.610000e-06	-1.069280e-06	-1.601682e-09	-7.644806e+00	-1.088627e+02
1.620000e-06	-1.024593e-06	-1.586829e-09	-7.325316e+00	-1.078840e+02
1.630000e-06	-9.798293e-07	-1.569450e-09	-7.005276e+00	-1.068847e+02
1.640000e-06	-9.350321e-07	-1.552015e-09	-6.685000e+00	-1.058638e+02
1.650000e-06	-8.901677e-07	-1.535779e-09	-6.364242e+00	-1.048208e+02
1.660000e-06	-8.451773e-07	-1.519754e-09	-6.042583e+00	-1.037548e+02
1.670000e-06	-8.000460e-07	-1.502537e-09	-5.719918e+00	-1.026650e+02
1.680000e-06	-7.549161e-07	-1.483594e-09	-5.397262e+00	-1.015502e+02
1.690000e-06	-7.097784e-07	-1.463721e-09	-5.074551e+00	-1.004095e+02
1.700000e-06	-6.645445e-07	-1.441819e-09	-4.751152e+00	-9.924178e+01
1.710000e-06	-6.192596e-07	-1.417152e-09	-4.427388e+00	-9.804566e+01
1.720000e-06	-5.738821e-07	-1.395047e-09	-4.102962e+00	-9.681988e+01
1.730000e-06	-5.284943e-07	-1.379560e-09	-3.778463e+00	-9.556305e+01
1.740000e-06	-4.830552e-07	-1.365028e-09	-3.453596e+00	-9.427372e+01
1.750000e-06	-4.375002e-07	-1.346779e-09	-3.127902e+00	-9.295038e+01
1.760000e-06	-3.919039e-07	-1.327115e-09	-2.801911e+00	-9.159151e+01
1.770000e-06	-3.463120e-07	-1.307652e-09	-2.475953e+00	-9.019556e+01
1.780000e-06	-3.007591e-07	-1.284852e-09	-2.150273e+00	-8.876095e+01
1.790000e-06	-2.552052e-07	-1.255235e-09	-1.824586e+00	-8.728615e+01
1.800000e-06	-2.096068e-07	-1.226369e-09	-1.498581e+00	-8.576962e+01
1.810000e-06	-1.639975e-07	-1.203657e-09	-1.172498e+00	-8.420989e+01
1.820000e-06	-1.184076e-07	-1.183287e-09	-8.465537e-01	-8.260555e+01
1.830000e-06	-7.279191e-08	-1.158478e-09	-5.204247e-01	-8.095524e+01
1.840000e-06	-2.717616e-08	-1.130086e-09	-1.942956e-01	-7.925773e+01
1.850000e-06	1.840279e-08	-1.105412e-09	1.315705e-01	-7.751187e+01
1.860000e-06	6.395851e-08	-1.082971e-09	4.572705e-01	-7.571665e+01
1.870000e-06	1.095090e-07	-1.055796e-09	7.829333e-01	-7.387118e+01
1.880000e-06	1.550664e-07	-1.021826e-09	1.108645e+00	-7.197473e+01
1.890000e-06	2.006212e-07	-9.900162e-10	1.434338e+00	-7.002669e+01
1.900000e-06	2.461274e-07	-9.611106e-10	1.759685e+00	-6.802666e+01
1.910000e-06	2.916205e-07	-9.266384e-10	2.084937e+00	-6.597436e+01
1.920000e-06	3.371065e-07	-8.895233e-10	2.410138e+00	-6.386969e+01
1.930000e-06	3.824927e-07	-8.597142e-10	2.734626e+00	-6.171274e+01
1.940000e-06	4.278989e-07	-8.380876e-10	3.059257e+00	-5.950372e+01
1.950000e-06	4.733857e-07	-8.146761e-10	3.384465e+00	-5.724306e+01
1.960000e-06	5.188484e-07	-7.810937e-10	3.709500e+00	-5.493131e+01
1.970000e-06	5.641627e-07	-7.400909e-10	4.033474e+00	-5.256918e+01
1.980000e-06	6.093936e-07	-6.988905e-10	4.356851e+00	-5.015754e+01
1.990000e-06	6.546168e-07	-6.588505e-10	4.680174e+00	-4.769739e+01
2.000000e-06	6.997851e-07	-6.185664e-10	5.003104e+00	-4.518986e+01
2.010000e-06	7.449227e-07	-5.812532e-10	5.325815e+00	-4.263621e+01
2.020000e-06	7.899755e-07	-5.500164e-10	5.647919e+00	-4.003781e+01
2.030000e-06	8.348822e-07	-5.215912e-10	5.968979e+00	-3.739612e+01
2.040000e-06	8.797901e-07	-4.901411e-10	6.290047e+00	-3.471270e+01
2.050000e-06	9.247357e-07	-4.511595e-10	6.611385e+00	-3.198921e+01
2.060000e-06	9.695356e-07	-4.076921e-10	6.931682e+00	-2.922736e+01
2.070000e-06	1.014214e-06	-3.633593e-10	7.251107e+00	-2.642896e+01
2.080000e-06	1.058870e-06	-3.199026e-10	7.570374e+00	-2.359586e+01
2.090000e-06	1.103424e-06	-2.757463e-10	7.888912e+00	-2.072998e+01
2.100000e-06	1.147833e-06	-2.340682e-10	8.206413e+00	-1.783329e+01
2.110000e-06	1.192148e-06	-1.975000e-10	8.523243e+00	-1.490782e+01
2.120000e-06	1.236402e-06	-1.607558e-10	8.839640e+00	-1.195562e+01
2.130000e-06	1.280668e-06	-1.203973e-10	9.156121e+00	-8.978836e+00
2.140000e-06	1.324918e-06	-7.624246e-11	9.472482e+00	-5.979616e+00
2.150000e-06	1.369114e-06	-2.993512e-11	9.788463e+00	-2.960177e+00
2.160000e-06	1.413278e-06	1.955647e-11	1.010421e+01	7.722243e-02
2.170000e-06	1.457374e-06	7.065104e-11	1.041947e+01	3.130274e+00
2.180000e-06	1.501392e-06	1.199930e-10	1.073418e+01	6.196620e+00
2.190000e-06	1.545324e-06	1.636578e-10	1.104827e+01	9.273854e+00
2.200000e-06	1.589195e-06	2.015026e-10	1.136193e+01	1.235952e+01
2.210000e-06	1.633026e-06	2.416187e-10	1.167530e+01	1.545110e+01
2.220000e-06	1.676798e-06	2.859472e-10	1.198824e+01	1.854605e+01
2.230000e-06	1.720520e-06	3.299929e-10	1.230083e+01	2.164175e+01
2.240000e-06	1.764115e-06	3.745309e-10	1.261251e+01	2.473556e+01
2.250000e-06	1.807571e-06	4.216473e-10	1.292321e+01	2.782478e+01
2.260000e-06	1.850967e-06	4.681019e-10	1.323346e+01	3.090669e+01
2.270000e-06	1.894248e-06	5.126308e-10	1.354290e+01	3.397852e+01
2.280000e-06	1.937236e-06	5.535900e-10	1.385024e+01	3.703750e+01
2.290000e-06	1.979816e-06	5.927089e-10	1.415466e+01	4.008083e+01
2.300000e-06	2.022124e-06	6.360613e-10	1.445715e+01	4.310573e+01
2.310000e-06	2.064259e-06	6.835980e-10	1.475839e+01	4.610941e+01
2.320000e-06	2.106147e-06	7.287598e-10	1.505787e+01	4.908912e+01
2.330000e-06	2.147748e-06	7.709846e-10	1.535529e+01	5.204212e+01
2.340000e-06	2.189041e-06	8.110950e-10	1.565052e+01	5.496577e+01
2.350000e-06	2.230082e-06	8.495599e-10	1.594394e+01	5.785744e+01
2.360000e-06	2.270927e-06	8.890301e-10	1.623596e+01	6.071463e+01
2.370000e-06	2.311563e-06	9.302895e-10	1.652649e+01	6.353489e+01
2.380000e-06	2.351991e-06	9.738562e-10	1.681553e+01	6.631593e+01
2.390000e-06	2.392264e-06	1.017623e-09	1.710346e+01	6.905554e+01
2.400000e-06	2.432433e-06	1.056449e-09	1.739065e+01	7.175168e+01
2.410000e-06	2.472532e-06	1.089881e-09	1.767733e+01	7.440243e+01
2.420000e-06	2.512589e-06	1.122590e-09	1.796372e+01	7.700606e+01
2.430000e-06	2.552559e-06	1.155794e-09	1.824948e+01	7.956098e+01
2.440000e-06	2.592369e-06	1.188608e-09	1.853410e+01	8.206579e+01
2.450000e-06	2.632074e-06	1.224110e-09	1.881797e+01	8.451927e+01
2.460000e-06	2.671697e-06	1.264222e-09	1.910126e+01	8.692037e+01
2.470000e-06	2.711130e-06	1.306418e-09	1.938319e+01	8.926824e+01
2.480000e-06	2.750268e-06	1.344175e-09	1.966301e+01	9.156220e+01
2.490000e-06	2.789102e-06	1.374549e-09	1.994064e+01	9.380175e+01
2.500000e-06	2.827766e-06	1.401266e-09	2.021708e+01	9.598658e+01
2.510000e-06	2.866272e-06	1.427670e-09	2.049238e+01	9.811654e+01
2.520000e-06	2.904556e-06	1.453131e-09	2.076608e+01	1.001916e+02
2.530000e-06	2.942677e-06	1.478345e-09	2.103863e+01	1.022120e+02
2.540000e-06	2.980608e-06	1.507932e-09	2.130981e+01	1.041779e+02
2.550000e-06	3.018344e-06	1.542899e-09	2.157961e+01	1.060898e+02
2.560000e-06	3.055915e-06	1.577908e-09	2.184822e+01	1.079482e+02
2.570000e-06	3.093298e-06	1.604510e-09	2.211549e+01	1.097538e+02
2.580000e-06	3.130448e-06	1.623245e-09	2.238110e+01	1.115072e+02
2.590000e-06	3.167263e-06	1.643758e-09	2.264430e+01	1.132092e+02
2.600000e-06	3.203806e-06	1.666568e-09	2.290557e+01	1.148607e+02
2.610000e-06	3.240220e-06	1.688840e-09	2.316591e+01	1.164626e+02
2.620000e-06	3.276501e-06	1.711993e-09	2.342530e+01	1.180158e+02
2.630000e-06	3.312640e-06	1.737408e-09	2.368367e+01	1.195212e+02
2.640000e-06	3.348656e-06	1.762972e-09	2.394117e+01	1.209798e+02
2.650000e-06	3.384555e-06	1.782919e-09	2.419783e+01	1.223925e+02
2.660000e-06	3.420315e-06	1.794711e-09	2.445349e+01	1.237605e+02
2.670000e-06	3.455839e-06	1.805793e-09	2.470748e+01	1.250845e+02
2.680000e-06	3.491075e-06	1.821012e-09	2.495939e+01	1.263655e+02
2.690000e-06	3.525890e-06	1.836680e-09	2.520831e+01	1.276046e+02
2.700000e-06	3.560245e-06	1.852902e-09	2.545392e+01	1.288026e+02
2.710000e-06	3.594234e-06	1.871649e-09	2.569692e+01	1.299605e+02
2.720000e-06	3.627818e-06	1.897212e-09	2.593704e+01	1.310792e+02
2.730000e-06	3.661006e-06	1.919880e-09	2.617431e+01	1.321595e+02
2.740000e-06	3.693826e-06	1.931082e-09	2.640896e+01	1.332024e+02
2.750000e-06	3.726291e-06	1.936691e-09	2.664107e+01	1.342089e+02
2.760000e-06	3.758553e-06	1.946945e-09	2.687173e+01	1.351797e+02
2.770000e-06	3.790690e-06	1.961020e-09	2.710149e+01	1.361159e+02
2.780000e-06	3.822619e-06	1.974405e-09	2.732976e+01	1.370182e+02
2.790000e-06	3.854357e-06	1.990631e-09	2.755667e+01	1.378878e+02
2.800000e-06	3.885925e-06	2.011231e-09	2.778237e+01	1.387255e+02
2.810000e-06	3.917219e-06	2.031301e-09	2.800610e+01	1.395323e+02
2.820000e-06	3.948167e-06	2.041304e-09	2.822737e+01	1.403092e+02
2.830000e-06	3.978811e-06	2.041310e-09	2.844646e+01	1.410572e+02
2.840000e-06	4.009196e-06	2.043569e-09	2.866369e+01	1.417773e+02
2.850000e-06	4.039359e-06	2.053773e-09	2.887934e+01	1.424706e+02
2.860000e-06	4.069312e-06	2.067822e-09	2.909349e+01	1.431381e+02
2.870000e-06	4.098987e-06	2.081271e-09	2.930565e+01	1.437808e+02
2.880000e-06	4.128380e-06	2.094188e-09	2.951579e+01	1.443999e+02
2.890000e-06	4.157475e-06	2.106852e-09	2.972381e+01	1.449965e+02
2.900000e-06	4.186261e-06	2.112064e-09	2.992962e+01	1.455714e+02
