# Temperatura_=_14.64
# Concentracion g/m^3_=_4090.0
# C_Vs_to_Am_M_A/Vsm_=_65563218390.804596
# pendiente_HvsI_1/m_=_3716.3
# ordenada_HvsI_A/m_=_1297.0
# frecuencia_Hz_=_135081.3781621785

Tiempo_(s)	Campo_(V.s)	Magnetizacion_(V.s)	Campo_(kA/m)	Magnetizacion_(A/m)
0.000000e+00	-5.376024e-06	-2.404251e-09	-3.838861e+01	-1.560344e+02
1.000000e-08	-5.376262e-06	-2.401506e-09	-3.839031e+01	-1.559714e+02
2.000000e-08	-5.376278e-06	-2.401346e-09	-3.839042e+01	-1.559127e+02
3.000000e-08	-5.376054e-06	-2.401389e-09	-3.838882e+01	-1.558593e+02
4.000000e-08	-5.375481e-06	-2.399425e-09	-3.838473e+01	-1.558120e+02
5.000000e-08	-5.374543e-06	-2.396189e-09	-3.837803e+01	-1.557718e+02
6.000000e-08	-5.373120e-06	-2.398417e-09	-3.836787e+01	-1.557391e+02
7.000000e-08	-5.371024e-06	-2.412581e-09	-3.835290e+01	-1.557147e+02
8.000000e-08	-5.368285e-06	-2.402000e-09	-3.833334e+01	-1.556987e+02
9.000000e-08	-5.364893e-06	-2.340377e-09	-3.830912e+01	-1.556914e+02
1.000000e-07	-5.360981e-06	-2.338140e-09	-3.828119e+01	-1.556927e+02
1.100000e-07	-5.356780e-06	-2.458832e-09	-3.825119e+01	-1.557025e+02
1.200000e-07	-5.352389e-06	-2.504531e-09	-3.821983e+01	-1.557204e+02
1.300000e-07	-5.347829e-06	-2.356221e-09	-3.818727e+01	-1.557459e+02
1.400000e-07	-5.342952e-06	-2.292537e-09	-3.815245e+01	-1.557783e+02
1.500000e-07	-5.337702e-06	-2.450317e-09	-3.811496e+01	-1.558168e+02
1.600000e-07	-5.332076e-06	-2.515968e-09	-3.807478e+01	-1.558603e+02
1.700000e-07	-5.325996e-06	-2.327249e-09	-3.803137e+01	-1.559077e+02
1.800000e-07	-5.319478e-06	-2.260984e-09	-3.798482e+01	-1.559579e+02
1.900000e-07	-5.312592e-06	-2.449371e-09	-3.793566e+01	-1.560094e+02
2.000000e-07	-5.305442e-06	-2.518039e-09	-3.788460e+01	-1.560610e+02
2.100000e-07	-5.298032e-06	-2.376972e-09	-3.783169e+01	-1.561113e+02
2.200000e-07	-5.290312e-06	-2.356420e-09	-3.777656e+01	-1.561587e+02
2.300000e-07	-5.282394e-06	-2.491269e-09	-3.772002e+01	-1.562020e+02
2.400000e-07	-5.274188e-06	-2.461671e-09	-3.766142e+01	-1.562398e+02
2.500000e-07	-5.265450e-06	-2.352330e-09	-3.759903e+01	-1.562706e+02
2.600000e-07	-5.256047e-06	-2.404885e-09	-3.753189e+01	-1.562934e+02
2.700000e-07	-5.246068e-06	-2.498509e-09	-3.746063e+01	-1.563069e+02
2.800000e-07	-5.235506e-06	-2.408801e-09	-3.738521e+01	-1.563101e+02
2.900000e-07	-5.224393e-06	-2.358740e-09	-3.730585e+01	-1.563021e+02
3.000000e-07	-5.212900e-06	-2.477339e-09	-3.722378e+01	-1.562822e+02
3.100000e-07	-5.201022e-06	-2.473355e-09	-3.713897e+01	-1.562499e+02
3.200000e-07	-5.188684e-06	-2.333809e-09	-3.705087e+01	-1.562045e+02
3.300000e-07	-5.175989e-06	-2.371793e-09	-3.696021e+01	-1.561460e+02
3.400000e-07	-5.162946e-06	-2.483604e-09	-3.686708e+01	-1.560742e+02
3.500000e-07	-5.149474e-06	-2.421751e-09	-3.677088e+01	-1.559891e+02
3.600000e-07	-5.135682e-06	-2.365561e-09	-3.667239e+01	-1.558910e+02
3.700000e-07	-5.121640e-06	-2.436615e-09	-3.657212e+01	-1.557802e+02
3.800000e-07	-5.107182e-06	-2.429936e-09	-3.646888e+01	-1.556572e+02
3.900000e-07	-5.092174e-06	-2.362830e-09	-3.636171e+01	-1.555227e+02
4.000000e-07	-5.076608e-06	-2.397188e-09	-3.625057e+01	-1.553773e+02
4.100000e-07	-5.060489e-06	-2.407861e-09	-3.613546e+01	-1.552219e+02
4.200000e-07	-5.043951e-06	-2.348192e-09	-3.601737e+01	-1.550573e+02
4.300000e-07	-5.026963e-06	-2.376200e-09	-3.589607e+01	-1.548845e+02
4.400000e-07	-5.009721e-06	-2.441276e-09	-3.577294e+01	-1.547044e+02
4.500000e-07	-4.992293e-06	-2.388767e-09	-3.564850e+01	-1.545179e+02
4.600000e-07	-4.974547e-06	-2.345173e-09	-3.552178e+01	-1.543260e+02
4.700000e-07	-4.956421e-06	-2.386358e-09	-3.539235e+01	-1.541296e+02
4.800000e-07	-4.937852e-06	-2.393932e-09	-3.525975e+01	-1.539294e+02
4.900000e-07	-4.918827e-06	-2.349515e-09	-3.512390e+01	-1.537264e+02
5.000000e-07	-4.899381e-06	-2.346838e-09	-3.498504e+01	-1.535212e+02
5.100000e-07	-4.879653e-06	-2.362634e-09	-3.484417e+01	-1.533143e+02
5.200000e-07	-4.859729e-06	-2.374594e-09	-3.470190e+01	-1.531064e+02
5.300000e-07	-4.839655e-06	-2.381417e-09	-3.455856e+01	-1.528978e+02
5.400000e-07	-4.819372e-06	-2.360582e-09	-3.441372e+01	-1.526888e+02
5.500000e-07	-4.798787e-06	-2.334124e-09	-3.426673e+01	-1.524795e+02
5.600000e-07	-4.777814e-06	-2.348031e-09	-3.411696e+01	-1.522700e+02
5.700000e-07	-4.756470e-06	-2.353139e-09	-3.396455e+01	-1.520603e+02
5.800000e-07	-4.734803e-06	-2.327312e-09	-3.380984e+01	-1.518501e+02
5.900000e-07	-4.712847e-06	-2.317436e-09	-3.365305e+01	-1.516394e+02
6.000000e-07	-4.690653e-06	-2.330522e-09	-3.349458e+01	-1.514276e+02
6.100000e-07	-4.668140e-06	-2.338722e-09	-3.333382e+01	-1.512145e+02
6.200000e-07	-4.645233e-06	-2.331687e-09	-3.317024e+01	-1.509996e+02
6.300000e-07	-4.621986e-06	-2.307048e-09	-3.300424e+01	-1.507824e+02
6.400000e-07	-4.598483e-06	-2.296284e-09	-3.283642e+01	-1.505623e+02
6.500000e-07	-4.574711e-06	-2.315716e-09	-3.266667e+01	-1.503388e+02
6.600000e-07	-4.550650e-06	-2.315988e-09	-3.249485e+01	-1.501115e+02
6.700000e-07	-4.526395e-06	-2.287044e-09	-3.232166e+01	-1.498797e+02
6.800000e-07	-4.501898e-06	-2.277613e-09	-3.214673e+01	-1.496429e+02
6.900000e-07	-4.476954e-06	-2.293254e-09	-3.196861e+01	-1.494008e+02
7.000000e-07	-4.451471e-06	-2.293608e-09	-3.178665e+01	-1.491530e+02
7.100000e-07	-4.425533e-06	-2.277092e-09	-3.160143e+01	-1.488991e+02
7.200000e-07	-4.399116e-06	-2.263712e-09	-3.141280e+01	-1.486389e+02
7.300000e-07	-4.372191e-06	-2.267244e-09	-3.122053e+01	-1.483721e+02
7.400000e-07	-4.344917e-06	-2.274558e-09	-3.102578e+01	-1.480987e+02
7.500000e-07	-4.317303e-06	-2.265076e-09	-3.082859e+01	-1.478187e+02
7.600000e-07	-4.289379e-06	-2.243766e-09	-3.062919e+01	-1.475321e+02
7.700000e-07	-4.261309e-06	-2.240322e-09	-3.042875e+01	-1.472390e+02
7.800000e-07	-4.233111e-06	-2.243627e-09	-3.022740e+01	-1.469397e+02
7.900000e-07	-4.204699e-06	-2.235108e-09	-3.002452e+01	-1.466344e+02
8.000000e-07	-4.175979e-06	-2.219094e-09	-2.981944e+01	-1.463234e+02
8.100000e-07	-4.146878e-06	-2.213632e-09	-2.961164e+01	-1.460070e+02
8.200000e-07	-4.117421e-06	-2.217925e-09	-2.940129e+01	-1.456858e+02
8.300000e-07	-4.087745e-06	-2.220652e-09	-2.918939e+01	-1.453601e+02
8.400000e-07	-4.057905e-06	-2.211069e-09	-2.897631e+01	-1.450304e+02
8.500000e-07	-4.027819e-06	-2.200329e-09	-2.876147e+01	-1.446970e+02
8.600000e-07	-3.997474e-06	-2.199458e-09	-2.854478e+01	-1.443605e+02
8.700000e-07	-3.966801e-06	-2.195638e-09	-2.832576e+01	-1.440212e+02
8.800000e-07	-3.935824e-06	-2.180713e-09	-2.810456e+01	-1.436796e+02
8.900000e-07	-3.904648e-06	-2.167050e-09	-2.788195e+01	-1.433360e+02
9.000000e-07	-3.873246e-06	-2.169006e-09	-2.765771e+01	-1.429906e+02
9.100000e-07	-3.841619e-06	-2.177668e-09	-2.743187e+01	-1.426438e+02
9.200000e-07	-3.809808e-06	-2.174035e-09	-2.720472e+01	-1.422957e+02
9.300000e-07	-3.777844e-06	-2.159243e-09	-2.697647e+01	-1.419464e+02
9.400000e-07	-3.745710e-06	-2.148287e-09	-2.674702e+01	-1.415960e+02
9.500000e-07	-3.713370e-06	-2.144038e-09	-2.651608e+01	-1.412446e+02
9.600000e-07	-3.680696e-06	-2.136595e-09	-2.628277e+01	-1.408920e+02
9.700000e-07	-3.647603e-06	-2.124385e-09	-2.604646e+01	-1.405382e+02
9.800000e-07	-3.614086e-06	-2.119925e-09	-2.580713e+01	-1.401829e+02
9.900000e-07	-3.580064e-06	-2.122420e-09	-2.556418e+01	-1.398260e+02
1.000000e-06	-3.545586e-06	-2.119941e-09	-2.531799e+01	-1.394672e+02
1.010000e-06	-3.510755e-06	-2.108051e-09	-2.506927e+01	-1.391062e+02
1.020000e-06	-3.475610e-06	-2.096426e-09	-2.481831e+01	-1.387427e+02
1.030000e-06	-3.440150e-06	-2.089379e-09	-2.456510e+01	-1.383764e+02
1.040000e-06	-3.404477e-06	-2.084500e-09	-2.431037e+01	-1.380068e+02
1.050000e-06	-3.368696e-06	-2.079078e-09	-2.405487e+01	-1.376337e+02
1.060000e-06	-3.332757e-06	-2.073701e-09	-2.379824e+01	-1.372567e+02
1.070000e-06	-3.296709e-06	-2.069192e-09	-2.354083e+01	-1.368754e+02
1.080000e-06	-3.260554e-06	-2.063967e-09	-2.328266e+01	-1.364896e+02
1.090000e-06	-3.224194e-06	-2.052845e-09	-2.302302e+01	-1.360990e+02
1.100000e-06	-3.187594e-06	-2.040613e-09	-2.276167e+01	-1.357032e+02
1.110000e-06	-3.150747e-06	-2.035311e-09	-2.249856e+01	-1.353022e+02
1.120000e-06	-3.113625e-06	-2.034053e-09	-2.223348e+01	-1.348955e+02
1.130000e-06	-3.076199e-06	-2.028982e-09	-2.196623e+01	-1.344832e+02
1.140000e-06	-3.038594e-06	-2.019230e-09	-2.169770e+01	-1.340650e+02
1.150000e-06	-3.000834e-06	-2.011766e-09	-2.142808e+01	-1.336408e+02
1.160000e-06	-2.962885e-06	-2.005324e-09	-2.115709e+01	-1.332107e+02
1.170000e-06	-2.924760e-06	-1.993913e-09	-2.088485e+01	-1.327744e+02
1.180000e-06	-2.886377e-06	-1.977929e-09	-2.061077e+01	-1.323319e+02
1.190000e-06	-2.847832e-06	-1.965659e-09	-2.033553e+01	-1.318833e+02
1.200000e-06	-2.809092e-06	-1.961452e-09	-2.005890e+01	-1.314284e+02
1.210000e-06	-2.770099e-06	-1.957629e-09	-1.978046e+01	-1.309672e+02
1.220000e-06	-2.730890e-06	-1.951094e-09	-1.950048e+01	-1.304998e+02
1.230000e-06	-2.691507e-06	-1.946359e-09	-1.921926e+01	-1.300259e+02
1.240000e-06	-2.651957e-06	-1.943987e-09	-1.893684e+01	-1.295456e+02
1.250000e-06	-2.612208e-06	-1.936443e-09	-1.865301e+01	-1.290587e+02
1.260000e-06	-2.572369e-06	-1.922790e-09	-1.836853e+01	-1.285651e+02
1.270000e-06	-2.532456e-06	-1.907917e-09	-1.808353e+01	-1.280645e+02
1.280000e-06	-2.492444e-06	-1.894657e-09	-1.779781e+01	-1.275567e+02
1.290000e-06	-2.452275e-06	-1.885548e-09	-1.751098e+01	-1.270415e+02
1.300000e-06	-2.411991e-06	-1.880105e-09	-1.722332e+01	-1.265186e+02
1.310000e-06	-2.371657e-06	-1.875513e-09	-1.693530e+01	-1.259875e+02
1.320000e-06	-2.331232e-06	-1.870552e-09	-1.664664e+01	-1.254479e+02
1.330000e-06	-2.290600e-06	-1.865082e-09	-1.635650e+01	-1.248994e+02
1.340000e-06	-2.249681e-06	-1.854428e-09	-1.606431e+01	-1.243413e+02
1.350000e-06	-2.208549e-06	-1.840617e-09	-1.577060e+01	-1.237734e+02
1.360000e-06	-2.167184e-06	-1.826095e-09	-1.547522e+01	-1.231949e+02
1.370000e-06	-2.125347e-06	-1.812976e-09	-1.517648e+01	-1.226055e+02
1.380000e-06	-2.083155e-06	-1.798520e-09	-1.487520e+01	-1.220044e+02
1.390000e-06	-2.040870e-06	-1.784721e-09	-1.457325e+01	-1.213912e+02
1.400000e-06	-1.998348e-06	-1.775380e-09	-1.426962e+01	-1.207654e+02
1.410000e-06	-1.955551e-06	-1.768959e-09	-1.396401e+01	-1.201262e+02
1.420000e-06	-1.912596e-06	-1.762468e-09	-1.365728e+01	-1.194734e+02
1.430000e-06	-1.869494e-06	-1.754539e-09	-1.334951e+01	-1.188062e+02
1.440000e-06	-1.826228e-06	-1.745054e-09	-1.304056e+01	-1.181244e+02
1.450000e-06	-1.782795e-06	-1.733286e-09	-1.273042e+01	-1.174273e+02
1.460000e-06	-1.739121e-06	-1.720304e-09	-1.241855e+01	-1.167147e+02
1.470000e-06	-1.695255e-06	-1.702637e-09	-1.210532e+01	-1.159862e+02
1.480000e-06	-1.651338e-06	-1.683429e-09	-1.179172e+01	-1.152413e+02
1.490000e-06	-1.607405e-06	-1.668162e-09	-1.147801e+01	-1.144799e+02
1.500000e-06	-1.563457e-06	-1.658912e-09	-1.116419e+01	-1.137017e+02
1.510000e-06	-1.519476e-06	-1.653148e-09	-1.085013e+01	-1.129065e+02
1.520000e-06	-1.475476e-06	-1.649423e-09	-1.053594e+01	-1.120939e+02
1.530000e-06	-1.431464e-06	-1.643512e-09	-1.022166e+01	-1.112639e+02
1.540000e-06	-1.387373e-06	-1.633236e-09	-9.906824e+00	-1.104162e+02
1.550000e-06	-1.343199e-06	-1.617930e-09	-9.591392e+00	-1.095506e+02
1.560000e-06	-1.298984e-06	-1.597208e-09	-9.275663e+00	-1.086670e+02
1.570000e-06	-1.254707e-06	-1.574400e-09	-8.959491e+00	-1.077650e+02
1.580000e-06	-1.210327e-06	-1.556344e-09	-8.642591e+00	-1.068444e+02
1.590000e-06	-1.165800e-06	-1.546249e-09	-8.324634e+00	-1.059048e+02
1.600000e-06	-1.121195e-06	-1.541426e-09	-8.006122e+00	-1.049460e+02
1.610000e-06	-1.076542e-06	-1.531052e-09	-7.687267e+00	-1.039674e+02
1.620000e-06	-1.031840e-06	-1.513690e-09	-7.368066e+00	-1.029685e+02
1.630000e-06	-9.870430e-07	-1.497132e-09	-7.048184e+00	-1.019487e+02
1.640000e-06	-9.421886e-07	-1.478750e-09	-6.727892e+00	-1.009072e+02
1.650000e-06	-8.973540e-07	-1.455535e-09	-6.407741e+00	-9.984330e+01
1.660000e-06	-8.525005e-07	-1.434190e-09	-6.087456e+00	-9.875606e+01
1.670000e-06	-8.075125e-07	-1.420619e-09	-5.766209e+00	-9.764445e+01
1.680000e-06	-7.624134e-07	-1.410713e-09	-5.444170e+00	-9.650737e+01
1.690000e-06	-7.173515e-07	-1.396819e-09	-5.122396e+00	-9.534360e+01
1.700000e-06	-6.722431e-07	-1.376225e-09	-4.800290e+00	-9.415184e+01
1.710000e-06	-6.269848e-07	-1.355103e-09	-4.477114e+00	-9.293068e+01
1.720000e-06	-5.816652e-07	-1.335973e-09	-4.153500e+00	-9.167867e+01
1.730000e-06	-5.362975e-07	-1.317119e-09	-3.829543e+00	-9.039425e+01
1.740000e-06	-4.908366e-07	-1.296723e-09	-3.504920e+00	-8.907585e+01
1.750000e-06	-4.453699e-07	-1.278063e-09	-3.180255e+00	-8.772183e+01
1.760000e-06	-3.998849e-07	-1.262478e-09	-2.855460e+00	-8.633055e+01
1.770000e-06	-3.544275e-07	-1.244601e-09	-2.530862e+00	-8.490035e+01
1.780000e-06	-3.088711e-07	-1.218802e-09	-2.205558e+00	-8.342960e+01
1.790000e-06	-2.632482e-07	-1.188128e-09	-1.879778e+00	-8.191668e+01
1.800000e-06	-2.176511e-07	-1.159569e-09	-1.554182e+00	-8.036004e+01
1.810000e-06	-1.719733e-07	-1.135332e-09	-1.228011e+00	-7.875819e+01
1.820000e-06	-1.263714e-07	-1.113211e-09	-9.023810e-01	-7.710973e+01
1.830000e-06	-8.082014e-08	-1.090530e-09	-5.771129e-01	-7.541337e+01
1.840000e-06	-3.520839e-08	-1.067004e-09	-2.514127e-01	-7.366794e+01
1.850000e-06	1.047812e-08	-1.042453e-09	7.482119e-02	-7.187239e+01
1.860000e-06	5.619984e-08	-1.014131e-09	4.013066e-01	-7.002585e+01
1.870000e-06	1.018940e-07	-9.801690e-10	7.275951e-01	-6.812759e+01
1.880000e-06	1.476165e-07	-9.430902e-10	1.054086e+00	-6.617705e+01
1.890000e-06	1.933509e-07	-9.089362e-10	1.380662e+00	-6.417386e+01
1.900000e-06	2.390546e-07	-8.785315e-10	1.707019e+00	-6.211784e+01
1.910000e-06	2.847100e-07	-8.479790e-10	2.033031e+00	-6.000897e+01
1.920000e-06	3.302810e-07	-8.160625e-10	2.358440e+00	-5.784746e+01
1.930000e-06	3.757785e-07	-7.852085e-10	2.683324e+00	-5.563368e+01
1.940000e-06	4.212149e-07	-7.559362e-10	3.007772e+00	-5.336819e+01
1.950000e-06	4.666388e-07	-7.249536e-10	3.332131e+00	-5.105174e+01
1.960000e-06	5.120739e-07	-6.900248e-10	3.656569e+00	-4.868525e+01
1.970000e-06	5.574522e-07	-6.509337e-10	3.980603e+00	-4.626981e+01
1.980000e-06	6.027892e-07	-6.096328e-10	4.304341e+00	-4.380667e+01
1.990000e-06	6.480370e-07	-5.684756e-10	4.627442e+00	-4.129721e+01
2.000000e-06	6.931381e-07	-5.289653e-10	4.949495e+00	-3.874297e+01
2.010000e-06	7.381626e-07	-4.918389e-10	5.271002e+00	-3.614561e+01
2.020000e-06	7.832350e-07	-4.565249e-10	5.592851e+00	-3.350689e+01
2.030000e-06	8.282875e-07	-4.215799e-10	5.914558e+00	-3.082870e+01
2.040000e-06	8.731823e-07	-3.855145e-10	6.235138e+00	-2.811300e+01
2.050000e-06	9.180054e-07	-3.467325e-10	6.555207e+00	-2.536183e+01
2.060000e-06	9.628475e-07	-3.040896e-10	6.875411e+00	-2.257731e+01
2.070000e-06	1.007694e-06	-2.574512e-10	7.195648e+00	-1.976160e+01
2.080000e-06	1.052383e-06	-2.100491e-10	7.514757e+00	-1.691693e+01
2.090000e-06	1.096939e-06	-1.661515e-10	7.832921e+00	-1.404557e+01
2.100000e-06	1.141430e-06	-1.244871e-10	8.150618e+00	-1.114982e+01
2.110000e-06	1.185741e-06	-8.421614e-11	8.467031e+00	-8.232011e+00
2.120000e-06	1.229979e-06	-4.525628e-11	8.782919e+00	-5.294496e+00
2.130000e-06	1.274251e-06	-7.435339e-12	9.099049e+00	-2.339654e+00
2.140000e-06	1.318534e-06	3.231633e-11	9.415263e+00	6.301190e-01
2.150000e-06	1.362746e-06	7.781429e-11	9.730970e+00	3.612412e+00
2.160000e-06	1.406849e-06	1.274048e-10	1.004589e+01	6.604797e+00
2.170000e-06	1.450909e-06	1.771402e-10	1.036052e+01	9.604837e+00
2.180000e-06	1.494944e-06	2.242160e-10	1.067496e+01	1.261008e+01
2.190000e-06	1.538918e-06	2.677839e-10	1.098896e+01	1.561806e+01
2.200000e-06	1.582827e-06	3.062283e-10	1.130250e+01	1.862630e+01
2.210000e-06	1.626736e-06	3.395696e-10	1.161604e+01	2.163232e+01
2.220000e-06	1.670616e-06	3.761463e-10	1.192938e+01	2.463361e+01
2.230000e-06	1.714378e-06	4.214086e-10	1.224187e+01	2.762769e+01
2.240000e-06	1.758033e-06	4.705193e-10	1.255359e+01	3.061203e+01
2.250000e-06	1.801573e-06	5.176440e-10	1.286450e+01	3.358414e+01
2.260000e-06	1.844980e-06	5.615131e-10	1.317446e+01	3.654151e+01
2.270000e-06	1.888187e-06	6.037919e-10	1.348299e+01	3.948163e+01
2.280000e-06	1.931081e-06	6.453314e-10	1.378928e+01	4.240202e+01
2.290000e-06	1.973787e-06	6.834585e-10	1.409423e+01	4.530023e+01
2.300000e-06	2.016429e-06	7.203471e-10	1.439873e+01	4.817382e+01
2.310000e-06	2.058825e-06	7.605592e-10	1.470146e+01	5.102040e+01
2.320000e-06	2.100879e-06	7.996757e-10	1.500176e+01	5.383762e+01
2.330000e-06	2.142783e-06	8.375126e-10	1.530098e+01	5.662320e+01
2.340000e-06	2.184371e-06	8.755339e-10	1.559795e+01	5.937492e+01
2.350000e-06	2.225524e-06	9.146816e-10	1.589181e+01	6.209065e+01
2.360000e-06	2.266458e-06	9.544756e-10	1.618411e+01	6.476834e+01
2.370000e-06	2.307175e-06	9.917299e-10	1.647486e+01	6.740605e+01
2.380000e-06	2.347685e-06	1.028149e-09	1.676413e+01	7.000197e+01
2.390000e-06	2.388039e-06	1.068140e-09	1.705229e+01	7.255439e+01
2.400000e-06	2.428271e-06	1.109015e-09	1.733957e+01	7.506174e+01
2.410000e-06	2.468394e-06	1.144745e-09	1.762607e+01	7.752260e+01
2.420000e-06	2.508442e-06	1.175239e-09	1.791205e+01	7.993569e+01
2.430000e-06	2.548431e-06	1.205420e-09	1.819760e+01	8.229990e+01
2.440000e-06	2.588308e-06	1.236873e-09	1.848234e+01	8.461426e+01
2.450000e-06	2.628019e-06	1.266756e-09	1.876591e+01	8.687799e+01
2.460000e-06	2.667593e-06	1.294039e-09	1.904849e+01	8.909044e+01
2.470000e-06	2.707045e-06	1.327364e-09	1.933021e+01	9.125115e+01
2.480000e-06	2.746287e-06	1.365204e-09	1.961043e+01	9.335981e+01
2.490000e-06	2.785256e-06	1.398646e-09	1.988870e+01	9.541627e+01
2.500000e-06	2.823925e-06	1.426021e-09	2.016482e+01	9.742054e+01
2.510000e-06	2.862385e-06	1.451689e-09	2.043945e+01	9.937276e+01
2.520000e-06	2.900675e-06	1.479323e-09	2.071287e+01	1.012732e+02
2.530000e-06	2.938772e-06	1.505924e-09	2.098491e+01	1.031223e+02
2.540000e-06	2.976795e-06	1.529309e-09	2.125642e+01	1.049206e+02
2.550000e-06	3.014674e-06	1.553689e-09	2.152690e+01	1.066686e+02
2.560000e-06	3.052279e-06	1.584035e-09	2.179543e+01	1.083672e+02
2.570000e-06	3.089580e-06	1.613701e-09	2.206178e+01	1.100172e+02
2.580000e-06	3.126557e-06	1.634957e-09	2.232582e+01	1.116193e+02
2.590000e-06	3.163376e-06	1.650734e-09	2.258874e+01	1.131745e+02
2.600000e-06	3.200085e-06	1.668434e-09	2.285086e+01	1.146839e+02
2.610000e-06	3.236590e-06	1.691153e-09	2.311154e+01	1.161483e+02
2.620000e-06	3.272929e-06	1.714140e-09	2.337103e+01	1.175688e+02
2.630000e-06	3.309127e-06	1.734190e-09	2.362950e+01	1.189465e+02
2.640000e-06	3.345186e-06	1.755487e-09	2.388699e+01	1.202823e+02
2.650000e-06	3.381073e-06	1.779672e-09	2.414325e+01	1.215772e+02
2.660000e-06	3.416793e-06	1.799767e-09	2.439831e+01	1.228324e+02
2.670000e-06	3.452391e-06	1.811299e-09	2.465251e+01	1.240487e+02
2.680000e-06	3.487664e-06	1.822341e-09	2.490439e+01	1.252271e+02
2.690000e-06	3.522517e-06	1.837569e-09	2.515326e+01	1.263686e+02
2.700000e-06	3.557027e-06	1.853911e-09	2.539969e+01	1.274739e+02
2.710000e-06	3.591123e-06	1.869578e-09	2.564315e+01	1.285441e+02
2.720000e-06	3.624750e-06	1.888184e-09	2.588328e+01	1.295800e+02
2.730000e-06	3.657964e-06	1.909205e-09	2.612044e+01	1.305823e+02
2.740000e-06	3.690836e-06	1.926946e-09	2.635517e+01	1.315519e+02
2.750000e-06	3.723386e-06	1.936072e-09	2.658761e+01	1.324896e+02
2.760000e-06	3.755719e-06	1.941709e-09	2.681848e+01	1.333960e+02
2.770000e-06	3.787858e-06	1.949619e-09	2.704798e+01	1.342720e+02
2.780000e-06	3.819802e-06	1.959745e-09	2.727608e+01	1.351182e+02
2.790000e-06	3.851588e-06	1.971031e-09	2.750306e+01	1.359355e+02
2.800000e-06	3.883148e-06	1.985401e-09	2.772842e+01	1.367245e+02
2.810000e-06	3.914483e-06	2.003463e-09	2.795217e+01	1.374859e+02
2.820000e-06	3.945535e-06	2.020121e-09	2.817391e+01	1.382206e+02
2.830000e-06	3.976244e-06	2.028920e-09	2.839319e+01	1.389292e+02
2.840000e-06	4.006695e-06	2.031690e-09	2.861063e+01	1.396125e+02
2.850000e-06	4.036949e-06	2.037186e-09	2.882666e+01	1.402713e+02
2.860000e-06	4.066936e-06	2.047944e-09	2.904079e+01	1.409063e+02
2.870000e-06	4.096644e-06	2.058171e-09	2.925293e+01	1.415183e+02
2.880000e-06	4.126107e-06	2.065151e-09	2.946332e+01	1.421082e+02
2.890000e-06	4.155279e-06	2.073276e-09	2.967162e+01	1.426766e+02
2.900000e-06	4.184149e-06	2.082501e-09	2.987778e+01	1.432244e+02
