# Temperatura_=_13.8
# Concentracion g/m^3_=_4090.0
# C_Vs_to_Am_M_A/Vsm_=_65563218390.804596
# pendiente_HvsI_1/m_=_3716.3
# ordenada_HvsI_A/m_=_1297.0
# frecuencia_Hz_=_135081.4463503379

Tiempo_(s)	Campo_(V.s)	Magnetizacion_(V.s)	Campo_(kA/m)	Magnetizacion_(A/m)
0.000000e+00	-5.409479e-06	-2.337454e-09	-3.839354e+01	-1.549236e+02
1.000000e-08	-5.409617e-06	-2.335030e-09	-3.839451e+01	-1.548191e+02
2.000000e-08	-5.409495e-06	-2.332762e-09	-3.839365e+01	-1.547160e+02
3.000000e-08	-5.409168e-06	-2.329746e-09	-3.839133e+01	-1.546158e+02
4.000000e-08	-5.408557e-06	-2.327505e-09	-3.838699e+01	-1.545199e+02
5.000000e-08	-5.407488e-06	-2.326287e-09	-3.837941e+01	-1.544297e+02
6.000000e-08	-5.405854e-06	-2.329137e-09	-3.836781e+01	-1.543463e+02
7.000000e-08	-5.403537e-06	-2.325221e-09	-3.835136e+01	-1.542711e+02
8.000000e-08	-5.400506e-06	-2.287448e-09	-3.832986e+01	-1.542048e+02
9.000000e-08	-5.396893e-06	-2.299349e-09	-3.830421e+01	-1.541484e+02
1.000000e-07	-5.392869e-06	-2.417102e-09	-3.827565e+01	-1.541025e+02
1.100000e-07	-5.388606e-06	-2.430761e-09	-3.824539e+01	-1.540675e+02
1.200000e-07	-5.384193e-06	-2.268388e-09	-3.821407e+01	-1.540436e+02
1.300000e-07	-5.379546e-06	-2.246933e-09	-3.818109e+01	-1.540309e+02
1.400000e-07	-5.374526e-06	-2.386550e-09	-3.814546e+01	-1.540290e+02
1.500000e-07	-5.369002e-06	-2.449030e-09	-3.810625e+01	-1.540377e+02
1.600000e-07	-5.363056e-06	-2.217929e-09	-3.806405e+01	-1.540563e+02
1.700000e-07	-5.356837e-06	-2.209432e-09	-3.801991e+01	-1.540839e+02
1.800000e-07	-5.350185e-06	-2.432076e-09	-3.797270e+01	-1.541195e+02
1.900000e-07	-5.343035e-06	-2.484332e-09	-3.792195e+01	-1.541620e+02
2.000000e-07	-5.335609e-06	-2.303278e-09	-3.786925e+01	-1.542100e+02
2.100000e-07	-5.328124e-06	-2.296508e-09	-3.781612e+01	-1.542621e+02
2.200000e-07	-5.320381e-06	-2.470989e-09	-3.776117e+01	-1.543168e+02
2.300000e-07	-5.312157e-06	-2.420118e-09	-3.770280e+01	-1.543724e+02
2.400000e-07	-5.303589e-06	-2.319404e-09	-3.764199e+01	-1.544272e+02
2.500000e-07	-5.294557e-06	-2.400033e-09	-3.757788e+01	-1.544797e+02
2.600000e-07	-5.284799e-06	-2.517622e-09	-3.750863e+01	-1.545281e+02
2.700000e-07	-5.274404e-06	-2.403533e-09	-3.743485e+01	-1.545709e+02
2.800000e-07	-5.263558e-06	-2.386710e-09	-3.735787e+01	-1.546065e+02
2.900000e-07	-5.252200e-06	-2.510267e-09	-3.727726e+01	-1.546334e+02
3.000000e-07	-5.240504e-06	-2.485688e-09	-3.719425e+01	-1.546504e+02
3.100000e-07	-5.228523e-06	-2.323486e-09	-3.710921e+01	-1.546562e+02
3.200000e-07	-5.216170e-06	-2.419926e-09	-3.702153e+01	-1.546498e+02
3.300000e-07	-5.203420e-06	-2.538856e-09	-3.693104e+01	-1.546303e+02
3.400000e-07	-5.190268e-06	-2.445715e-09	-3.683770e+01	-1.545972e+02
3.500000e-07	-5.176735e-06	-2.376374e-09	-3.674164e+01	-1.545499e+02
3.600000e-07	-5.162809e-06	-2.492048e-09	-3.664281e+01	-1.544881e+02
3.700000e-07	-5.148506e-06	-2.471338e-09	-3.654129e+01	-1.544117e+02
3.800000e-07	-5.133777e-06	-2.378394e-09	-3.643675e+01	-1.543208e+02
3.900000e-07	-5.118526e-06	-2.408229e-09	-3.632851e+01	-1.542157e+02
4.000000e-07	-5.102405e-06	-2.437133e-09	-3.621410e+01	-1.540968e+02
4.100000e-07	-5.085768e-06	-2.374178e-09	-3.609602e+01	-1.539648e+02
4.200000e-07	-5.068994e-06	-2.412028e-09	-3.597696e+01	-1.538204e+02
4.300000e-07	-5.051917e-06	-2.465855e-09	-3.585575e+01	-1.536644e+02
4.400000e-07	-5.034526e-06	-2.397366e-09	-3.573233e+01	-1.534978e+02
4.500000e-07	-5.016814e-06	-2.374460e-09	-3.560662e+01	-1.533216e+02
4.600000e-07	-4.998779e-06	-2.431854e-09	-3.547861e+01	-1.531369e+02
4.700000e-07	-4.980253e-06	-2.414171e-09	-3.534712e+01	-1.529448e+02
4.800000e-07	-4.961257e-06	-2.352365e-09	-3.521230e+01	-1.527465e+02
4.900000e-07	-4.941975e-06	-2.377424e-09	-3.507545e+01	-1.525430e+02
5.000000e-07	-4.922325e-06	-2.391980e-09	-3.493599e+01	-1.523354e+02
5.100000e-07	-4.902417e-06	-2.388056e-09	-3.479469e+01	-1.521246e+02
5.200000e-07	-4.882374e-06	-2.384883e-09	-3.465243e+01	-1.519117e+02
5.300000e-07	-4.862175e-06	-2.379227e-09	-3.450907e+01	-1.516973e+02
5.400000e-07	-4.841727e-06	-2.362206e-09	-3.436395e+01	-1.514823e+02
5.500000e-07	-4.820858e-06	-2.389154e-09	-3.421583e+01	-1.512672e+02
5.600000e-07	-4.799579e-06	-2.371196e-09	-3.406480e+01	-1.510524e+02
5.700000e-07	-4.778035e-06	-2.338293e-09	-3.391189e+01	-1.508384e+02
5.800000e-07	-4.756213e-06	-2.340061e-09	-3.375701e+01	-1.506253e+02
5.900000e-07	-4.734080e-06	-2.361865e-09	-3.359992e+01	-1.504131e+02
6.000000e-07	-4.711638e-06	-2.344333e-09	-3.344064e+01	-1.502019e+02
6.100000e-07	-4.688890e-06	-2.341143e-09	-3.327919e+01	-1.499914e+02
6.200000e-07	-4.665842e-06	-2.332546e-09	-3.311561e+01	-1.497813e+02
6.300000e-07	-4.642394e-06	-2.331768e-09	-3.294919e+01	-1.495714e+02
6.400000e-07	-4.618637e-06	-2.339558e-09	-3.278057e+01	-1.493610e+02
6.500000e-07	-4.594664e-06	-2.334058e-09	-3.261042e+01	-1.491497e+02
6.600000e-07	-4.570420e-06	-2.302253e-09	-3.243836e+01	-1.489370e+02
6.700000e-07	-4.545910e-06	-2.305144e-09	-3.226439e+01	-1.487221e+02
6.800000e-07	-4.521069e-06	-2.320085e-09	-3.208809e+01	-1.485045e+02
6.900000e-07	-4.495748e-06	-2.309751e-09	-3.190837e+01	-1.482836e+02
7.000000e-07	-4.469894e-06	-2.291690e-09	-3.172487e+01	-1.480586e+02
7.100000e-07	-4.443494e-06	-2.292954e-09	-3.153750e+01	-1.478291e+02
7.200000e-07	-4.416631e-06	-2.299579e-09	-3.134685e+01	-1.475946e+02
7.300000e-07	-4.389390e-06	-2.299011e-09	-3.115350e+01	-1.473545e+02
7.400000e-07	-4.361812e-06	-2.287922e-09	-3.095777e+01	-1.471084e+02
7.500000e-07	-4.333973e-06	-2.274337e-09	-3.076018e+01	-1.468561e+02
7.600000e-07	-4.305924e-06	-2.282292e-09	-3.056110e+01	-1.465972e+02
7.700000e-07	-4.277706e-06	-2.285554e-09	-3.036083e+01	-1.463317e+02
7.800000e-07	-4.249314e-06	-2.273811e-09	-3.015932e+01	-1.460594e+02
7.900000e-07	-4.220645e-06	-2.259136e-09	-2.995584e+01	-1.457805e+02
8.000000e-07	-4.191625e-06	-2.263437e-09	-2.974987e+01	-1.454950e+02
8.100000e-07	-4.162250e-06	-2.265517e-09	-2.954138e+01	-1.452030e+02
8.200000e-07	-4.132583e-06	-2.263500e-09	-2.933083e+01	-1.449049e+02
8.300000e-07	-4.102636e-06	-2.251366e-09	-2.911828e+01	-1.446011e+02
8.400000e-07	-4.072419e-06	-2.249981e-09	-2.890381e+01	-1.442917e+02
8.500000e-07	-4.042037e-06	-2.251471e-09	-2.868818e+01	-1.439774e+02
8.600000e-07	-4.011387e-06	-2.247621e-09	-2.847064e+01	-1.436585e+02
8.700000e-07	-3.980475e-06	-2.228195e-09	-2.825125e+01	-1.433355e+02
8.800000e-07	-3.949301e-06	-2.219668e-09	-2.802999e+01	-1.430088e+02
8.900000e-07	-3.917855e-06	-2.220318e-09	-2.780680e+01	-1.426789e+02
9.000000e-07	-3.886236e-06	-2.225491e-09	-2.758239e+01	-1.423463e+02
9.100000e-07	-3.854379e-06	-2.216150e-09	-2.735628e+01	-1.420112e+02
9.200000e-07	-3.822275e-06	-2.204665e-09	-2.712842e+01	-1.416742e+02
9.300000e-07	-3.790005e-06	-2.197195e-09	-2.689939e+01	-1.413354e+02
9.400000e-07	-3.757551e-06	-2.193763e-09	-2.666905e+01	-1.409951e+02
9.500000e-07	-3.724729e-06	-2.181376e-09	-2.643610e+01	-1.406535e+02
9.600000e-07	-3.691549e-06	-2.171372e-09	-2.620060e+01	-1.403107e+02
9.700000e-07	-3.658062e-06	-2.169282e-09	-2.596294e+01	-1.399666e+02
9.800000e-07	-3.624221e-06	-2.171305e-09	-2.572275e+01	-1.396212e+02
9.900000e-07	-3.589978e-06	-2.164222e-09	-2.547971e+01	-1.392744e+02
1.000000e-06	-3.555269e-06	-2.152099e-09	-2.523337e+01	-1.389261e+02
1.010000e-06	-3.520100e-06	-2.143099e-09	-2.498375e+01	-1.385759e+02
1.020000e-06	-3.484535e-06	-2.135023e-09	-2.473134e+01	-1.382235e+02
1.030000e-06	-3.448741e-06	-2.123853e-09	-2.447728e+01	-1.378685e+02
1.040000e-06	-3.412835e-06	-2.113752e-09	-2.422245e+01	-1.375107e+02
1.050000e-06	-3.376805e-06	-2.110328e-09	-2.396673e+01	-1.371494e+02
1.060000e-06	-3.340635e-06	-2.109994e-09	-2.371001e+01	-1.367843e+02
1.070000e-06	-3.304346e-06	-2.108073e-09	-2.345245e+01	-1.364148e+02
1.080000e-06	-3.267849e-06	-2.096286e-09	-2.319342e+01	-1.360406e+02
1.090000e-06	-3.231115e-06	-2.082723e-09	-2.293270e+01	-1.356611e+02
1.100000e-06	-3.194121e-06	-2.071296e-09	-2.267013e+01	-1.352759e+02
1.110000e-06	-3.156821e-06	-2.065063e-09	-2.240539e+01	-1.348845e+02
1.120000e-06	-3.119285e-06	-2.054000e-09	-2.213898e+01	-1.344866e+02
1.130000e-06	-3.081575e-06	-2.042809e-09	-2.187134e+01	-1.340819e+02
1.140000e-06	-3.043677e-06	-2.034484e-09	-2.160237e+01	-1.336699e+02
1.150000e-06	-3.005614e-06	-2.029382e-09	-2.133221e+01	-1.332505e+02
1.160000e-06	-2.967379e-06	-2.017401e-09	-2.106084e+01	-1.328234e+02
1.170000e-06	-2.928902e-06	-2.004536e-09	-2.078775e+01	-1.323885e+02
1.180000e-06	-2.890244e-06	-1.994148e-09	-2.051338e+01	-1.319456e+02
1.190000e-06	-2.851438e-06	-1.989223e-09	-2.023795e+01	-1.314947e+02
1.200000e-06	-2.812382e-06	-1.980486e-09	-1.996075e+01	-1.310358e+02
1.210000e-06	-2.773096e-06	-1.968681e-09	-1.968193e+01	-1.305687e+02
1.220000e-06	-2.733616e-06	-1.957699e-09	-1.940172e+01	-1.300937e+02
1.230000e-06	-2.693941e-06	-1.954713e-09	-1.912013e+01	-1.296108e+02
1.240000e-06	-2.654141e-06	-1.948798e-09	-1.883765e+01	-1.291199e+02
1.250000e-06	-2.614284e-06	-1.940300e-09	-1.855476e+01	-1.286213e+02
1.260000e-06	-2.574311e-06	-1.930480e-09	-1.827106e+01	-1.281149e+02
1.270000e-06	-2.534180e-06	-1.922199e-09	-1.798623e+01	-1.276010e+02
1.280000e-06	-2.493963e-06	-1.914088e-09	-1.770079e+01	-1.270795e+02
1.290000e-06	-2.453616e-06	-1.903557e-09	-1.741443e+01	-1.265504e+02
1.300000e-06	-2.413118e-06	-1.893338e-09	-1.712700e+01	-1.260139e+02
1.310000e-06	-2.372589e-06	-1.885029e-09	-1.683935e+01	-1.254698e+02
1.320000e-06	-2.331840e-06	-1.877585e-09	-1.655013e+01	-1.249181e+02
1.330000e-06	-2.290657e-06	-1.868735e-09	-1.625784e+01	-1.243587e+02
1.340000e-06	-2.249277e-06	-1.860102e-09	-1.596415e+01	-1.237914e+02
1.350000e-06	-2.207741e-06	-1.849830e-09	-1.566935e+01	-1.232161e+02
1.360000e-06	-2.165829e-06	-1.839135e-09	-1.537187e+01	-1.226325e+02
1.370000e-06	-2.123561e-06	-1.829476e-09	-1.507188e+01	-1.220403e+02
1.380000e-06	-2.080977e-06	-1.821421e-09	-1.476964e+01	-1.214391e+02
1.390000e-06	-2.038077e-06	-1.812467e-09	-1.446516e+01	-1.208286e+02
1.400000e-06	-1.994966e-06	-1.804843e-09	-1.415918e+01	-1.202084e+02
1.410000e-06	-1.951760e-06	-1.796684e-09	-1.385253e+01	-1.195779e+02
1.420000e-06	-1.908556e-06	-1.786908e-09	-1.354589e+01	-1.189368e+02
1.430000e-06	-1.865221e-06	-1.774930e-09	-1.323832e+01	-1.182845e+02
1.440000e-06	-1.821634e-06	-1.763591e-09	-1.292897e+01	-1.176204e+02
1.450000e-06	-1.777889e-06	-1.752693e-09	-1.261849e+01	-1.169441e+02
1.460000e-06	-1.734094e-06	-1.744060e-09	-1.230765e+01	-1.162550e+02
1.470000e-06	-1.690234e-06	-1.732469e-09	-1.199636e+01	-1.155525e+02
1.480000e-06	-1.646283e-06	-1.720712e-09	-1.168442e+01	-1.148361e+02
1.490000e-06	-1.602244e-06	-1.711974e-09	-1.137186e+01	-1.141052e+02
1.500000e-06	-1.558137e-06	-1.703387e-09	-1.105880e+01	-1.133593e+02
1.510000e-06	-1.513953e-06	-1.691189e-09	-1.074522e+01	-1.125979e+02
1.520000e-06	-1.469675e-06	-1.678094e-09	-1.043095e+01	-1.118204e+02
1.530000e-06	-1.425366e-06	-1.667075e-09	-1.011647e+01	-1.110262e+02
1.540000e-06	-1.381016e-06	-1.658050e-09	-9.801699e+00	-1.102150e+02
1.550000e-06	-1.336596e-06	-1.646765e-09	-9.486431e+00	-1.093860e+02
1.560000e-06	-1.292115e-06	-1.635747e-09	-9.170727e+00	-1.085389e+02
1.570000e-06	-1.247514e-06	-1.625277e-09	-8.854178e+00	-1.076730e+02
1.580000e-06	-1.202785e-06	-1.613681e-09	-8.536713e+00	-1.067878e+02
1.590000e-06	-1.157908e-06	-1.598657e-09	-8.218200e+00	-1.058827e+02
1.600000e-06	-1.112941e-06	-1.581961e-09	-7.899051e+00	-1.049570e+02
1.610000e-06	-1.067884e-06	-1.565121e-09	-7.579260e+00	-1.040103e+02
1.620000e-06	-1.022747e-06	-1.549016e-09	-7.258902e+00	-1.030417e+02
1.630000e-06	-9.775662e-07	-1.532728e-09	-6.938233e+00	-1.020504e+02
1.640000e-06	-9.322812e-07	-1.515457e-09	-6.616825e+00	-1.010358e+02
1.650000e-06	-8.868986e-07	-1.499686e-09	-6.294723e+00	-9.999692e+01
1.660000e-06	-8.414898e-07	-1.485151e-09	-5.972437e+00	-9.893282e+01
1.670000e-06	-7.960409e-07	-1.471577e-09	-5.649865e+00	-9.784252e+01
1.680000e-06	-7.505544e-07	-1.455229e-09	-5.327026e+00	-9.672493e+01
1.690000e-06	-7.050393e-07	-1.435382e-09	-5.003985e+00	-9.557891e+01
1.700000e-06	-6.594732e-07	-1.413383e-09	-4.680582e+00	-9.440323e+01
1.710000e-06	-6.138372e-07	-1.391122e-09	-4.356682e+00	-9.319662e+01
1.720000e-06	-5.681080e-07	-1.368494e-09	-4.032121e+00	-9.195771e+01
1.730000e-06	-5.223869e-07	-1.347736e-09	-3.707618e+00	-9.068509e+01
1.740000e-06	-4.766746e-07	-1.327662e-09	-3.383177e+00	-8.937731e+01
1.750000e-06	-4.308571e-07	-1.309408e-09	-3.057989e+00	-8.803287e+01
1.760000e-06	-3.849242e-07	-1.294262e-09	-2.731982e+00	-8.665025e+01
1.770000e-06	-3.389498e-07	-1.276895e-09	-2.405681e+00	-8.522791e+01
1.780000e-06	-2.930450e-07	-1.249925e-09	-2.079874e+00	-8.376430e+01
1.790000e-06	-2.471952e-07	-1.216888e-09	-1.754457e+00	-8.225791e+01
1.800000e-06	-2.013418e-07	-1.184984e-09	-1.429015e+00	-8.070725e+01
1.810000e-06	-1.555572e-07	-1.159465e-09	-1.104061e+00	-7.911086e+01
1.820000e-06	-1.097612e-07	-1.134919e-09	-7.790252e-01	-7.746737e+01
1.830000e-06	-6.394574e-08	-1.109725e-09	-4.538520e-01	-7.577549e+01
1.840000e-06	-1.807624e-08	-1.086665e-09	-1.282953e-01	-7.403400e+01
1.850000e-06	2.787841e-08	-1.065128e-09	1.978658e-01	-7.224183e+01
1.860000e-06	7.377472e-08	-1.039503e-09	5.236128e-01	-7.039801e+01
1.870000e-06	1.195936e-07	-1.007632e-09	8.488101e-01	-6.850174e+01
1.880000e-06	1.653981e-07	-9.756340e-10	1.173905e+00	-6.655234e+01
1.890000e-06	2.111979e-07	-9.459441e-10	1.498968e+00	-6.454932e+01
1.900000e-06	2.570007e-07	-9.150635e-10	1.824051e+00	-6.249237e+01
1.910000e-06	3.028195e-07	-8.814417e-10	2.149248e+00	-6.038135e+01
1.920000e-06	3.486732e-07	-8.475128e-10	2.474693e+00	-5.821631e+01
1.930000e-06	3.945482e-07	-8.175858e-10	2.800289e+00	-5.599749e+01
1.940000e-06	4.403505e-07	-7.896562e-10	3.125368e+00	-5.372533e+01
1.950000e-06	4.860751e-07	-7.571089e-10	3.449896e+00	-5.140046e+01
1.960000e-06	5.317962e-07	-7.221355e-10	3.774400e+00	-4.902369e+01
1.970000e-06	5.774114e-07	-6.872160e-10	4.098152e+00	-4.659604e+01
1.980000e-06	6.229056e-07	-6.531182e-10	4.421045e+00	-4.411869e+01
1.990000e-06	6.684162e-07	-6.170626e-10	4.744054e+00	-4.159300e+01
2.000000e-06	7.139295e-07	-5.769818e-10	5.067083e+00	-3.902048e+01
2.010000e-06	7.594282e-07	-5.377211e-10	5.390008e+00	-3.640282e+01
2.020000e-06	8.048279e-07	-5.024138e-10	5.712230e+00	-3.374182e+01
2.030000e-06	8.500845e-07	-4.659250e-10	6.033437e+00	-3.103944e+01
2.040000e-06	8.953426e-07	-4.263049e-10	6.354654e+00	-2.829775e+01
2.050000e-06	9.406356e-07	-3.839384e-10	6.676119e+00	-2.551890e+01
2.060000e-06	9.858011e-07	-3.471933e-10	6.996680e+00	-2.270518e+01
2.070000e-06	1.030878e-06	-3.107264e-10	7.316611e+00	-1.985892e+01
2.080000e-06	1.075902e-06	-2.692367e-10	7.636168e+00	-1.698253e+01
2.090000e-06	1.120830e-06	-2.249353e-10	7.955042e+00	-1.407850e+01
2.100000e-06	1.165695e-06	-1.822483e-10	8.273471e+00	-1.114934e+01
2.110000e-06	1.210514e-06	-1.412797e-10	8.591573e+00	-8.197598e+00
2.120000e-06	1.255249e-06	-9.751522e-11	8.909073e+00	-5.225865e+00
2.130000e-06	1.299809e-06	-5.311694e-11	9.225339e+00	-2.236740e+00
2.140000e-06	1.344225e-06	-1.151114e-11	9.540579e+00	7.671645e-01
2.150000e-06	1.388592e-06	2.803859e-11	9.855471e+00	3.783228e+00
2.160000e-06	1.432881e-06	6.930833e-11	1.016981e+01	6.808833e+00
2.170000e-06	1.477087e-06	1.135488e-10	1.048356e+01	9.841363e+00
2.180000e-06	1.521270e-06	1.580438e-10	1.079714e+01	1.287821e+01
2.190000e-06	1.565386e-06	1.993880e-10	1.111026e+01	1.591679e+01
2.200000e-06	1.609467e-06	2.423171e-10	1.142312e+01	1.895451e+01
2.210000e-06	1.653527e-06	2.891118e-10	1.173584e+01	2.198880e+01
2.220000e-06	1.697525e-06	3.358966e-10	1.204811e+01	2.501714e+01
2.230000e-06	1.741411e-06	3.785344e-10	1.235958e+01	2.803698e+01
2.240000e-06	1.785184e-06	4.211542e-10	1.267027e+01	3.104582e+01
2.250000e-06	1.828898e-06	4.645774e-10	1.298052e+01	3.404120e+01
2.260000e-06	1.872527e-06	5.070591e-10	1.329018e+01	3.702065e+01
2.270000e-06	1.915996e-06	5.473614e-10	1.359870e+01	3.998175e+01
2.280000e-06	1.959383e-06	5.881672e-10	1.390664e+01	4.292212e+01
2.290000e-06	2.002600e-06	6.320357e-10	1.421336e+01	4.583940e+01
2.300000e-06	2.045423e-06	6.783281e-10	1.451730e+01	4.873129e+01
2.310000e-06	2.087968e-06	7.205469e-10	1.481926e+01	5.159553e+01
2.320000e-06	2.130364e-06	7.608835e-10	1.512017e+01	5.442990e+01
2.330000e-06	2.172498e-06	8.011811e-10	1.541921e+01	5.723224e+01
2.340000e-06	2.214266e-06	8.385315e-10	1.571565e+01	6.000049e+01
2.350000e-06	2.255730e-06	8.742609e-10	1.600994e+01	6.273262e+01
2.360000e-06	2.296923e-06	9.130004e-10	1.630231e+01	6.542669e+01
2.370000e-06	2.337766e-06	9.568239e-10	1.659219e+01	6.808088e+01
2.380000e-06	2.378408e-06	1.001253e-09	1.688064e+01	7.069342e+01
2.390000e-06	2.418946e-06	1.041264e-09	1.716836e+01	7.326268e+01
2.400000e-06	2.459250e-06	1.078437e-09	1.745442e+01	7.578712e+01
2.410000e-06	2.499421e-06	1.114915e-09	1.773953e+01	7.826532e+01
2.420000e-06	2.539549e-06	1.148918e-09	1.802434e+01	8.069599e+01
2.430000e-06	2.579627e-06	1.181095e-09	1.830879e+01	8.307798e+01
2.440000e-06	2.619606e-06	1.211348e-09	1.859254e+01	8.541025e+01
2.450000e-06	2.659479e-06	1.243141e-09	1.887553e+01	8.769192e+01
2.460000e-06	2.699247e-06	1.277683e-09	1.915779e+01	8.992223e+01
2.470000e-06	2.738840e-06	1.310628e-09	1.943880e+01	9.210060e+01
2.480000e-06	2.778230e-06	1.340604e-09	1.971837e+01	9.422655e+01
2.490000e-06	2.817420e-06	1.370575e-09	1.999651e+01	9.629978e+01
2.500000e-06	2.856341e-06	1.400316e-09	2.027275e+01	9.832009e+01
2.510000e-06	2.895010e-06	1.431029e-09	2.054720e+01	1.002875e+02
2.520000e-06	2.933477e-06	1.459328e-09	2.082022e+01	1.022020e+02
2.530000e-06	2.971720e-06	1.488810e-09	2.109165e+01	1.040638e+02
2.540000e-06	3.009748e-06	1.519370e-09	2.136155e+01	1.058734e+02
2.550000e-06	3.047654e-06	1.548192e-09	2.163059e+01	1.076311e+02
2.560000e-06	3.085399e-06	1.572806e-09	2.189849e+01	1.093375e+02
2.570000e-06	3.122925e-06	1.591469e-09	2.216482e+01	1.109933e+02
2.580000e-06	3.160260e-06	1.612588e-09	2.242980e+01	1.125991e+02
2.590000e-06	3.197364e-06	1.637058e-09	2.269315e+01	1.141558e+02
2.600000e-06	3.234278e-06	1.661658e-09	2.295514e+01	1.156643e+02
2.610000e-06	3.270904e-06	1.684429e-09	2.321509e+01	1.171254e+02
2.620000e-06	3.307265e-06	1.707773e-09	2.347316e+01	1.185402e+02
2.630000e-06	3.343487e-06	1.730487e-09	2.373025e+01	1.199096e+02
2.640000e-06	3.379590e-06	1.746854e-09	2.398649e+01	1.212348e+02
2.650000e-06	3.415579e-06	1.758316e-09	2.424192e+01	1.225166e+02
2.660000e-06	3.451412e-06	1.770321e-09	2.449625e+01	1.237563e+02
2.670000e-06	3.487132e-06	1.786822e-09	2.474977e+01	1.249548e+02
2.680000e-06	3.522614e-06	1.807851e-09	2.500160e+01	1.261133e+02
2.690000e-06	3.557751e-06	1.827332e-09	2.525098e+01	1.272328e+02
2.700000e-06	3.592575e-06	1.843846e-09	2.549814e+01	1.283145e+02
2.710000e-06	3.626986e-06	1.861190e-09	2.574237e+01	1.293592e+02
2.720000e-06	3.660929e-06	1.878600e-09	2.598328e+01	1.303681e+02
2.730000e-06	3.694356e-06	1.889276e-09	2.622053e+01	1.313422e+02
2.740000e-06	3.727349e-06	1.896071e-09	2.645469e+01	1.322826e+02
2.750000e-06	3.759955e-06	1.906043e-09	2.668612e+01	1.331901e+02
2.760000e-06	3.792287e-06	1.919361e-09	2.691559e+01	1.340658e+02
2.770000e-06	3.824512e-06	1.931570e-09	2.714431e+01	1.349107e+02
2.780000e-06	3.856603e-06	1.941594e-09	2.737207e+01	1.357257e+02
2.790000e-06	3.888564e-06	1.953107e-09	2.759891e+01	1.365117e+02
2.800000e-06	3.920354e-06	1.966147e-09	2.782454e+01	1.372697e+02
2.810000e-06	3.951868e-06	1.976294e-09	2.804821e+01	1.380007e+02
2.820000e-06	3.983032e-06	1.982519e-09	2.826939e+01	1.387054e+02
2.830000e-06	4.013890e-06	1.989950e-09	2.848841e+01	1.393849e+02
2.840000e-06	4.044477e-06	2.001460e-09	2.870550e+01	1.400400e+02
2.850000e-06	4.074770e-06	2.014262e-09	2.892050e+01	1.406717e+02
2.860000e-06	4.104847e-06	2.024575e-09	2.913397e+01	1.412807e+02
2.870000e-06	4.134637e-06	2.031873e-09	2.934541e+01	1.418680e+02
2.880000e-06	4.164102e-06	2.038237e-09	2.955453e+01	1.424343e+02
2.890000e-06	4.193329e-06	2.043711e-09	2.976197e+01	1.429806e+02
2.900000e-06	4.222263e-06	2.047175e-09	2.996732e+01	1.435075e+02
