# Temperatura_=_-1.19
# Concentracion g/m^3_=_4090.0
# C_Vs_to_Am_M_A/Vsm_=_65563218390.804596
# pendiente_HvsI_1/m_=_3716.3
# ordenada_HvsI_A/m_=_1297.0
# frecuencia_Hz_=_135061.5939609589

Tiempo_(s)	Campo_(V.s)	Magnetizacion_(V.s)	Campo_(kA/m)	Magnetizacion_(A/m)
0.000000e+00	-5.400921e-06	-2.549992e-09	-3.840591e+01	-1.667338e+02
1.000000e-08	-5.401060e-06	-2.552839e-09	-3.840690e+01	-1.666517e+02
2.000000e-08	-5.400968e-06	-2.558443e-09	-3.840625e+01	-1.665719e+02
3.000000e-08	-5.400637e-06	-2.557599e-09	-3.840389e+01	-1.664960e+02
4.000000e-08	-5.399931e-06	-2.551200e-09	-3.839887e+01	-1.664258e+02
5.000000e-08	-5.398679e-06	-2.547345e-09	-3.838997e+01	-1.663631e+02
6.000000e-08	-5.396809e-06	-2.541493e-09	-3.837667e+01	-1.663094e+02
7.000000e-08	-5.394244e-06	-2.525881e-09	-3.835843e+01	-1.662661e+02
8.000000e-08	-5.391085e-06	-2.516439e-09	-3.833597e+01	-1.662346e+02
9.000000e-08	-5.387398e-06	-2.590250e-09	-3.830975e+01	-1.662160e+02
1.000000e-07	-5.383267e-06	-2.686175e-09	-3.828037e+01	-1.662112e+02
1.100000e-07	-5.378948e-06	-2.620108e-09	-3.824966e+01	-1.662208e+02
1.200000e-07	-5.374529e-06	-2.446799e-09	-3.821824e+01	-1.662454e+02
1.300000e-07	-5.369882e-06	-2.506826e-09	-3.818519e+01	-1.662851e+02
1.400000e-07	-5.364732e-06	-2.642368e-09	-3.814858e+01	-1.663397e+02
1.500000e-07	-5.359097e-06	-2.596915e-09	-3.810850e+01	-1.664090e+02
1.600000e-07	-5.353201e-06	-2.376767e-09	-3.806658e+01	-1.664923e+02
1.700000e-07	-5.347017e-06	-2.480729e-09	-3.802260e+01	-1.665886e+02
1.800000e-07	-5.340316e-06	-2.711487e-09	-3.797495e+01	-1.666969e+02
1.900000e-07	-5.333190e-06	-2.670754e-09	-3.792428e+01	-1.668157e+02
2.000000e-07	-5.325861e-06	-2.481400e-09	-3.787216e+01	-1.669434e+02
2.100000e-07	-5.318382e-06	-2.535899e-09	-3.781897e+01	-1.670782e+02
2.200000e-07	-5.310578e-06	-2.671920e-09	-3.776348e+01	-1.672182e+02
2.300000e-07	-5.302434e-06	-2.582643e-09	-3.770558e+01	-1.673612e+02
2.400000e-07	-5.294033e-06	-2.533273e-09	-3.764583e+01	-1.675050e+02
2.500000e-07	-5.285114e-06	-2.651291e-09	-3.758241e+01	-1.676475e+02
2.600000e-07	-5.275319e-06	-2.716787e-09	-3.751276e+01	-1.677862e+02
2.700000e-07	-5.264732e-06	-2.600694e-09	-3.743748e+01	-1.679190e+02
2.800000e-07	-5.253695e-06	-2.635830e-09	-3.735899e+01	-1.680436e+02
2.900000e-07	-5.242257e-06	-2.717418e-09	-3.727766e+01	-1.681578e+02
3.000000e-07	-5.230518e-06	-2.631638e-09	-3.719418e+01	-1.682598e+02
3.100000e-07	-5.218454e-06	-2.525999e-09	-3.710839e+01	-1.683476e+02
3.200000e-07	-5.205954e-06	-2.676277e-09	-3.701950e+01	-1.684195e+02
3.300000e-07	-5.193005e-06	-2.730925e-09	-3.692742e+01	-1.684740e+02
3.400000e-07	-5.179765e-06	-2.601480e-09	-3.683327e+01	-1.685099e+02
3.500000e-07	-5.166181e-06	-2.562607e-09	-3.673668e+01	-1.685263e+02
3.600000e-07	-5.152167e-06	-2.679672e-09	-3.663702e+01	-1.685223e+02
3.700000e-07	-5.137746e-06	-2.636818e-09	-3.653448e+01	-1.684975e+02
3.800000e-07	-5.122857e-06	-2.573469e-09	-3.642860e+01	-1.684516e+02
3.900000e-07	-5.107433e-06	-2.608735e-09	-3.631892e+01	-1.683846e+02
4.000000e-07	-5.091360e-06	-2.629972e-09	-3.620463e+01	-1.682970e+02
4.100000e-07	-5.074820e-06	-2.588823e-09	-3.608701e+01	-1.681892e+02
4.200000e-07	-5.058090e-06	-2.627957e-09	-3.596804e+01	-1.680620e+02
4.300000e-07	-5.041108e-06	-2.632812e-09	-3.584728e+01	-1.679165e+02
4.400000e-07	-5.023799e-06	-2.557405e-09	-3.572420e+01	-1.677537e+02
4.500000e-07	-5.006218e-06	-2.565880e-09	-3.559918e+01	-1.675750e+02
4.600000e-07	-4.988243e-06	-2.624834e-09	-3.547136e+01	-1.673820e+02
4.700000e-07	-4.969867e-06	-2.593659e-09	-3.534069e+01	-1.671761e+02
4.800000e-07	-4.951078e-06	-2.546390e-09	-3.520708e+01	-1.669591e+02
4.900000e-07	-4.931791e-06	-2.586211e-09	-3.506993e+01	-1.667326e+02
5.000000e-07	-4.912130e-06	-2.605379e-09	-3.493012e+01	-1.664983e+02
5.100000e-07	-4.892321e-06	-2.594061e-09	-3.478926e+01	-1.662580e+02
5.200000e-07	-4.872377e-06	-2.574437e-09	-3.464744e+01	-1.660133e+02
5.300000e-07	-4.852218e-06	-2.566977e-09	-3.450409e+01	-1.657658e+02
5.400000e-07	-4.831776e-06	-2.561438e-09	-3.435873e+01	-1.655169e+02
5.500000e-07	-4.810940e-06	-2.582288e-09	-3.421056e+01	-1.652679e+02
5.600000e-07	-4.789665e-06	-2.555716e-09	-3.405927e+01	-1.650202e+02
5.700000e-07	-4.768036e-06	-2.534619e-09	-3.390547e+01	-1.647747e+02
5.800000e-07	-4.746206e-06	-2.549949e-09	-3.375024e+01	-1.645324e+02
5.900000e-07	-4.724167e-06	-2.578733e-09	-3.359352e+01	-1.642938e+02
6.000000e-07	-4.701699e-06	-2.560676e-09	-3.343375e+01	-1.640597e+02
6.100000e-07	-4.678824e-06	-2.544504e-09	-3.327108e+01	-1.638302e+02
6.200000e-07	-4.655614e-06	-2.528688e-09	-3.310604e+01	-1.636057e+02
6.300000e-07	-4.632082e-06	-2.536401e-09	-3.293871e+01	-1.633859e+02
6.400000e-07	-4.608376e-06	-2.537522e-09	-3.277013e+01	-1.631709e+02
6.500000e-07	-4.584536e-06	-2.520404e-09	-3.260060e+01	-1.629602e+02
6.600000e-07	-4.560527e-06	-2.497308e-09	-3.242988e+01	-1.627534e+02
6.700000e-07	-4.536131e-06	-2.517703e-09	-3.225640e+01	-1.625498e+02
6.800000e-07	-4.511176e-06	-2.531898e-09	-3.207894e+01	-1.623489e+02
6.900000e-07	-4.485643e-06	-2.515334e-09	-3.189738e+01	-1.621497e+02
7.000000e-07	-4.459619e-06	-2.494256e-09	-3.171232e+01	-1.619515e+02
7.100000e-07	-4.433125e-06	-2.497857e-09	-3.152392e+01	-1.617534e+02
7.200000e-07	-4.406129e-06	-2.504169e-09	-3.133195e+01	-1.615543e+02
7.300000e-07	-4.378789e-06	-2.495548e-09	-3.113754e+01	-1.613535e+02
7.400000e-07	-4.351197e-06	-2.476783e-09	-3.094133e+01	-1.611500e+02
7.500000e-07	-4.323379e-06	-2.471115e-09	-3.074352e+01	-1.609429e+02
7.600000e-07	-4.295447e-06	-2.485013e-09	-3.054489e+01	-1.607314e+02
7.700000e-07	-4.267373e-06	-2.483994e-09	-3.034526e+01	-1.605146e+02
7.800000e-07	-4.239013e-06	-2.465487e-09	-3.014359e+01	-1.602920e+02
7.900000e-07	-4.210342e-06	-2.451615e-09	-2.993971e+01	-1.600628e+02
8.000000e-07	-4.181357e-06	-2.457421e-09	-2.973360e+01	-1.598265e+02
8.100000e-07	-4.152002e-06	-2.455552e-09	-2.952486e+01	-1.595827e+02
8.200000e-07	-4.122320e-06	-2.446184e-09	-2.931379e+01	-1.593311e+02
8.300000e-07	-4.092423e-06	-2.432296e-09	-2.910119e+01	-1.590713e+02
8.400000e-07	-4.062284e-06	-2.433926e-09	-2.888688e+01	-1.588033e+02
8.500000e-07	-4.031963e-06	-2.436478e-09	-2.867126e+01	-1.585270e+02
8.600000e-07	-4.001379e-06	-2.430171e-09	-2.845378e+01	-1.582425e+02
8.700000e-07	-3.970433e-06	-2.408857e-09	-2.823372e+01	-1.579497e+02
8.800000e-07	-3.939224e-06	-2.402897e-09	-2.801180e+01	-1.576490e+02
8.900000e-07	-3.907755e-06	-2.406066e-09	-2.778802e+01	-1.573406e+02
9.000000e-07	-3.876073e-06	-2.407425e-09	-2.756273e+01	-1.570247e+02
9.100000e-07	-3.844220e-06	-2.391204e-09	-2.733622e+01	-1.567018e+02
9.200000e-07	-3.812227e-06	-2.380716e-09	-2.710872e+01	-1.563723e+02
9.300000e-07	-3.780086e-06	-2.376644e-09	-2.688016e+01	-1.560365e+02
9.400000e-07	-3.747661e-06	-2.372581e-09	-2.664959e+01	-1.556949e+02
9.500000e-07	-3.714854e-06	-2.354984e-09	-2.641630e+01	-1.553479e+02
9.600000e-07	-3.681593e-06	-2.343135e-09	-2.617978e+01	-1.549960e+02
9.700000e-07	-3.647892e-06	-2.342518e-09	-2.594014e+01	-1.546395e+02
9.800000e-07	-3.613801e-06	-2.345142e-09	-2.569771e+01	-1.542790e+02
9.900000e-07	-3.579372e-06	-2.334015e-09	-2.545289e+01	-1.539147e+02
1.000000e-06	-3.544528e-06	-2.317988e-09	-2.520512e+01	-1.535470e+02
1.010000e-06	-3.509256e-06	-2.309278e-09	-2.495430e+01	-1.531762e+02
1.020000e-06	-3.473752e-06	-2.304749e-09	-2.470182e+01	-1.528026e+02
1.030000e-06	-3.438065e-06	-2.292177e-09	-2.444806e+01	-1.524264e+02
1.040000e-06	-3.402246e-06	-2.278529e-09	-2.419335e+01	-1.520478e+02
1.050000e-06	-3.366322e-06	-2.277183e-09	-2.393789e+01	-1.516670e+02
1.060000e-06	-3.330238e-06	-2.281261e-09	-2.368130e+01	-1.512841e+02
1.070000e-06	-3.294033e-06	-2.277989e-09	-2.342385e+01	-1.508991e+02
1.080000e-06	-3.257610e-06	-2.263330e-09	-2.316484e+01	-1.505120e+02
1.090000e-06	-3.220886e-06	-2.251992e-09	-2.290370e+01	-1.501229e+02
1.100000e-06	-3.183889e-06	-2.247783e-09	-2.264062e+01	-1.497317e+02
1.110000e-06	-3.146623e-06	-2.242623e-09	-2.237562e+01	-1.493383e+02
1.120000e-06	-3.109144e-06	-2.229408e-09	-2.210911e+01	-1.489426e+02
1.130000e-06	-3.071427e-06	-2.224402e-09	-2.184090e+01	-1.485444e+02
1.140000e-06	-3.033522e-06	-2.226833e-09	-2.157135e+01	-1.481437e+02
1.150000e-06	-2.995444e-06	-2.225790e-09	-2.130058e+01	-1.477402e+02
1.160000e-06	-2.957246e-06	-2.210555e-09	-2.102896e+01	-1.473336e+02
1.170000e-06	-2.918849e-06	-2.198030e-09	-2.075592e+01	-1.469239e+02
1.180000e-06	-2.880234e-06	-2.193329e-09	-2.048132e+01	-1.465106e+02
1.190000e-06	-2.841491e-06	-2.194420e-09	-2.020582e+01	-1.460936e+02
1.200000e-06	-2.802443e-06	-2.185214e-09	-1.992815e+01	-1.456725e+02
1.210000e-06	-2.763133e-06	-2.172777e-09	-1.964862e+01	-1.452471e+02
1.220000e-06	-2.723680e-06	-2.168175e-09	-1.936807e+01	-1.448170e+02
1.230000e-06	-2.684040e-06	-2.169449e-09	-1.908619e+01	-1.443819e+02
1.240000e-06	-2.644283e-06	-2.161161e-09	-1.880348e+01	-1.439415e+02
1.250000e-06	-2.604451e-06	-2.148804e-09	-1.852024e+01	-1.434953e+02
1.260000e-06	-2.564567e-06	-2.139502e-09	-1.823662e+01	-1.430430e+02
1.270000e-06	-2.524584e-06	-2.138389e-09	-1.795230e+01	-1.425842e+02
1.280000e-06	-2.484464e-06	-2.135342e-09	-1.766701e+01	-1.421186e+02
1.290000e-06	-2.444268e-06	-2.124212e-09	-1.738117e+01	-1.416456e+02
1.300000e-06	-2.403844e-06	-2.113423e-09	-1.709372e+01	-1.411648e+02
1.310000e-06	-2.363103e-06	-2.108164e-09	-1.680401e+01	-1.406759e+02
1.320000e-06	-2.322172e-06	-2.102183e-09	-1.651295e+01	-1.401784e+02
1.330000e-06	-2.281105e-06	-2.089193e-09	-1.622092e+01	-1.396718e+02
1.340000e-06	-2.239730e-06	-2.077744e-09	-1.592671e+01	-1.391557e+02
1.350000e-06	-2.198006e-06	-2.071792e-09	-1.563001e+01	-1.386297e+02
1.360000e-06	-2.156037e-06	-2.066687e-09	-1.533157e+01	-1.380933e+02
1.370000e-06	-2.113805e-06	-2.057140e-09	-1.503125e+01	-1.375462e+02
1.380000e-06	-2.071391e-06	-2.045477e-09	-1.472965e+01	-1.369878e+02
1.390000e-06	-2.028726e-06	-2.035764e-09	-1.442626e+01	-1.364179e+02
1.400000e-06	-1.985719e-06	-2.029167e-09	-1.412044e+01	-1.358360e+02
1.410000e-06	-1.942475e-06	-2.021159e-09	-1.381293e+01	-1.352417e+02
1.420000e-06	-1.899108e-06	-2.011087e-09	-1.350454e+01	-1.346348e+02
1.430000e-06	-1.855655e-06	-1.996645e-09	-1.319555e+01	-1.340149e+02
1.440000e-06	-1.812063e-06	-1.981600e-09	-1.288557e+01	-1.333818e+02
1.450000e-06	-1.768327e-06	-1.966117e-09	-1.257456e+01	-1.327350e+02
1.460000e-06	-1.724554e-06	-1.955916e-09	-1.226330e+01	-1.320745e+02
1.470000e-06	-1.680757e-06	-1.949467e-09	-1.195185e+01	-1.314000e+02
1.480000e-06	-1.636893e-06	-1.944433e-09	-1.163994e+01	-1.307112e+02
1.490000e-06	-1.593020e-06	-1.936974e-09	-1.132795e+01	-1.300080e+02
1.500000e-06	-1.549073e-06	-1.927145e-09	-1.101545e+01	-1.292901e+02
1.510000e-06	-1.505017e-06	-1.913186e-09	-1.070217e+01	-1.285574e+02
1.520000e-06	-1.460865e-06	-1.892742e-09	-1.038820e+01	-1.278097e+02
1.530000e-06	-1.416662e-06	-1.869734e-09	-1.007387e+01	-1.270468e+02
1.540000e-06	-1.372440e-06	-1.853765e-09	-9.759410e+00	-1.262684e+02
1.550000e-06	-1.328118e-06	-1.847058e-09	-9.444239e+00	-1.254743e+02
1.560000e-06	-1.283685e-06	-1.844751e-09	-9.128273e+00	-1.246642e+02
1.570000e-06	-1.239178e-06	-1.839050e-09	-8.811790e+00	-1.238379e+02
1.580000e-06	-1.194575e-06	-1.830099e-09	-8.494613e+00	-1.229949e+02
1.590000e-06	-1.149796e-06	-1.816819e-09	-8.176188e+00	-1.221348e+02
1.600000e-06	-1.104889e-06	-1.797027e-09	-7.856857e+00	-1.212572e+02
1.610000e-06	-1.059980e-06	-1.773018e-09	-7.537512e+00	-1.203614e+02
1.620000e-06	-1.015032e-06	-1.750164e-09	-7.217883e+00	-1.194470e+02
1.630000e-06	-9.699508e-07	-1.735211e-09	-6.897313e+00	-1.185132e+02
1.640000e-06	-9.246926e-07	-1.727220e-09	-6.575483e+00	-1.175592e+02
1.650000e-06	-8.793800e-07	-1.721510e-09	-6.253265e+00	-1.165842e+02
1.660000e-06	-8.340556e-07	-1.712398e-09	-5.930964e+00	-1.155873e+02
1.670000e-06	-7.886510e-07	-1.699378e-09	-5.608092e+00	-1.145674e+02
1.680000e-06	-7.431822e-07	-1.680247e-09	-5.284763e+00	-1.135235e+02
1.690000e-06	-6.977092e-07	-1.654441e-09	-4.961406e+00	-1.124544e+02
1.700000e-06	-6.522192e-07	-1.627059e-09	-4.637926e+00	-1.113589e+02
1.710000e-06	-6.066731e-07	-1.606078e-09	-4.314048e+00	-1.102357e+02
1.720000e-06	-5.610776e-07	-1.592146e-09	-3.989819e+00	-1.090835e+02
1.730000e-06	-5.154097e-07	-1.580462e-09	-3.665075e+00	-1.079009e+02
1.740000e-06	-4.696662e-07	-1.565922e-09	-3.339793e+00	-1.066864e+02
1.750000e-06	-4.239764e-07	-1.551944e-09	-3.014894e+00	-1.054387e+02
1.760000e-06	-3.783527e-07	-1.537889e-09	-2.690464e+00	-1.041563e+02
1.770000e-06	-3.326577e-07	-1.517675e-09	-2.365527e+00	-1.028376e+02
1.780000e-06	-2.869308e-07	-1.489892e-09	-2.040363e+00	-1.014813e+02
1.790000e-06	-2.412009e-07	-1.462380e-09	-1.715178e+00	-1.000859e+02
1.800000e-06	-1.954203e-07	-1.439664e-09	-1.389633e+00	-9.865000e+01
1.810000e-06	-1.495481e-07	-1.419862e-09	-1.063436e+00	-9.717215e+01
1.820000e-06	-1.036958e-07	-1.398618e-09	-7.373804e-01	-9.565104e+01
1.830000e-06	-5.792505e-08	-1.376640e-09	-4.119046e-01	-9.408538e+01
1.840000e-06	-1.219591e-08	-1.355579e-09	-8.672504e-02	-9.247394e+01
1.850000e-06	3.352220e-08	-1.333854e-09	2.383762e-01	-9.081555e+01
1.860000e-06	7.928959e-08	-1.306734e-09	5.638277e-01	-8.910910e+01
1.870000e-06	1.250950e-07	-1.274989e-09	8.895496e-01	-8.735358e+01
1.880000e-06	1.708996e-07	-1.246041e-09	1.215266e+00	-8.554802e+01
1.890000e-06	2.166873e-07	-1.220680e-09	1.540862e+00	-8.369156e+01
1.900000e-06	2.624714e-07	-1.192047e-09	1.866432e+00	-8.178339e+01
1.910000e-06	3.082067e-07	-1.159140e-09	2.191656e+00	-7.982280e+01
1.920000e-06	3.538596e-07	-1.130068e-09	2.516293e+00	-7.780914e+01
1.930000e-06	3.995545e-07	-1.106284e-09	2.841229e+00	-7.574185e+01
1.940000e-06	4.452729e-07	-1.079274e-09	3.166332e+00	-7.362044e+01
1.950000e-06	4.909325e-07	-1.045366e-09	3.491018e+00	-7.144448e+01
1.960000e-06	5.365341e-07	-1.011313e-09	3.815290e+00	-6.921362e+01
1.970000e-06	5.820004e-07	-9.792134e-10	4.138601e+00	-6.692759e+01
1.980000e-06	6.274369e-07	-9.437087e-10	4.461700e+00	-6.458618e+01
1.990000e-06	6.728955e-07	-9.020899e-10	4.784955e+00	-6.218924e+01
2.000000e-06	7.183424e-07	-8.610271e-10	5.108128e+00	-5.973671e+01
2.010000e-06	7.637586e-07	-8.269734e-10	5.431082e+00	-5.722860e+01
2.020000e-06	8.090558e-07	-7.964963e-10	5.753191e+00	-5.466498e+01
2.030000e-06	8.542691e-07	-7.608353e-10	6.074702e+00	-5.204602e+01
2.040000e-06	8.994235e-07	-7.216299e-10	6.395794e+00	-4.937197e+01
2.050000e-06	9.445305e-07	-6.820442e-10	6.716550e+00	-4.664318e+01
2.060000e-06	9.895933e-07	-6.412202e-10	7.036991e+00	-4.386009e+01
2.070000e-06	1.034552e-06	-5.950891e-10	7.356692e+00	-4.102328e+01
2.080000e-06	1.079402e-06	-5.454104e-10	7.675622e+00	-3.813344e+01
2.090000e-06	1.124191e-06	-4.993258e-10	7.994113e+00	-3.519139e+01
2.100000e-06	1.168823e-06	-4.599621e-10	8.311490e+00	-3.219811e+01
2.110000e-06	1.213331e-06	-4.210863e-10	8.627990e+00	-2.915474e+01
2.120000e-06	1.257813e-06	-3.772549e-10	8.944301e+00	-2.606260e+01
2.130000e-06	1.302188e-06	-3.316376e-10	9.259853e+00	-2.292319e+01
2.140000e-06	1.346429e-06	-2.861252e-10	9.574444e+00	-1.973820e+01
2.150000e-06	1.390593e-06	-2.372982e-10	9.888496e+00	-1.650956e+01
2.160000e-06	1.434718e-06	-1.836757e-10	1.020227e+01	-1.323938e+01
2.170000e-06	1.478783e-06	-1.297063e-10	1.051561e+01	-9.930039e+00
2.180000e-06	1.522825e-06	-8.148945e-11	1.082880e+01	-6.584110e+00
2.190000e-06	1.566870e-06	-3.827942e-11	1.114200e+01	-3.204419e+00
2.200000e-06	1.610831e-06	7.986358e-12	1.145460e+01	2.059730e-01
2.210000e-06	1.654719e-06	5.989555e-11	1.176670e+01	3.643777e+00
2.220000e-06	1.698540e-06	1.124869e-10	1.207831e+01	7.105475e+00
2.230000e-06	1.742260e-06	1.633249e-10	1.238920e+01	1.058733e+01
2.240000e-06	1.785889e-06	2.158406e-10	1.269944e+01	1.408542e+01
2.250000e-06	1.829438e-06	2.703066e-10	1.300912e+01	1.759559e+01
2.260000e-06	1.872883e-06	3.232159e-10	1.331806e+01	2.111356e+01
2.270000e-06	1.916196e-06	3.724541e-10	1.362606e+01	2.463489e+01
2.280000e-06	1.959385e-06	4.215989e-10	1.393318e+01	2.815501e+01
2.290000e-06	2.002399e-06	4.767153e-10	1.423904e+01	3.166925e+01
2.300000e-06	2.045258e-06	5.348121e-10	1.454382e+01	3.517290e+01
2.310000e-06	2.087870e-06	5.891173e-10	1.484683e+01	3.866121e+01
2.320000e-06	2.130191e-06	6.399342e-10	1.514777e+01	4.212941e+01
2.330000e-06	2.172217e-06	6.901960e-10	1.544662e+01	4.557281e+01
2.340000e-06	2.213987e-06	7.390798e-10	1.574364e+01	4.898675e+01
2.350000e-06	2.255562e-06	7.853925e-10	1.603929e+01	5.236671e+01
2.360000e-06	2.296755e-06	8.319983e-10	1.633221e+01	5.570830e+01
2.370000e-06	2.337602e-06	8.828488e-10	1.662267e+01	5.900731e+01
2.380000e-06	2.378249e-06	9.364328e-10	1.691171e+01	6.225974e+01
2.390000e-06	2.418698e-06	9.864815e-10	1.719934e+01	6.546183e+01
2.400000e-06	2.458977e-06	1.031470e-09	1.748577e+01	6.861007e+01
2.410000e-06	2.499061e-06	1.072846e-09	1.777081e+01	7.170127e+01
2.420000e-06	2.539005e-06	1.110520e-09	1.805485e+01	7.473253e+01
2.430000e-06	2.578884e-06	1.145856e-09	1.833843e+01	7.770127e+01
2.440000e-06	2.618674e-06	1.182438e-09	1.862138e+01	8.060528e+01
2.450000e-06	2.658345e-06	1.222350e-09	1.890347e+01	8.344267e+01
2.460000e-06	2.697911e-06	1.266150e-09	1.918483e+01	8.621192e+01
2.470000e-06	2.737411e-06	1.309069e-09	1.946571e+01	8.891184e+01
2.480000e-06	2.776732e-06	1.347905e-09	1.974532e+01	9.154160e+01
2.490000e-06	2.815829e-06	1.385032e-09	2.002334e+01	9.410072e+01
2.500000e-06	2.854690e-06	1.419825e-09	2.029968e+01	9.658902e+01
2.510000e-06	2.893234e-06	1.449646e-09	2.057376e+01	9.900663e+01
2.520000e-06	2.931533e-06	1.477284e-09	2.084611e+01	1.013540e+02
2.530000e-06	2.969705e-06	1.508160e-09	2.111755e+01	1.036318e+02
2.540000e-06	3.007775e-06	1.543558e-09	2.138827e+01	1.058409e+02
2.550000e-06	3.045638e-06	1.579403e-09	2.165751e+01	1.079826e+02
2.560000e-06	3.083295e-06	1.611075e-09	2.192529e+01	1.100580e+02
2.570000e-06	3.120813e-06	1.637176e-09	2.219208e+01	1.120687e+02
2.580000e-06	3.158028e-06	1.662766e-09	2.245672e+01	1.140163e+02
2.590000e-06	3.194918e-06	1.688424e-09	2.271904e+01	1.159025e+02
2.600000e-06	3.231571e-06	1.711710e-09	2.297968e+01	1.177289e+02
2.610000e-06	3.268032e-06	1.736364e-09	2.323895e+01	1.194974e+02
2.620000e-06	3.304307e-06	1.763726e-09	2.349690e+01	1.212098e+02
2.630000e-06	3.340400e-06	1.790221e-09	2.375356e+01	1.228679e+02
2.640000e-06	3.376370e-06	1.812630e-09	2.400934e+01	1.244733e+02
2.650000e-06	3.412223e-06	1.831687e-09	2.426429e+01	1.260278e+02
2.660000e-06	3.447924e-06	1.850944e-09	2.451817e+01	1.275331e+02
2.670000e-06	3.483471e-06	1.870923e-09	2.477094e+01	1.289906e+02
2.680000e-06	3.518832e-06	1.889538e-09	2.502239e+01	1.304018e+02
2.690000e-06	3.553846e-06	1.906769e-09	2.527137e+01	1.317682e+02
2.700000e-06	3.588390e-06	1.924676e-09	2.551702e+01	1.330909e+02
2.710000e-06	3.622501e-06	1.945978e-09	2.575958e+01	1.343712e+02
2.720000e-06	3.656220e-06	1.967571e-09	2.599935e+01	1.356101e+02
2.730000e-06	3.689484e-06	1.985363e-09	2.623590e+01	1.368087e+02
2.740000e-06	3.722357e-06	2.001752e-09	2.646966e+01	1.379679e+02
2.750000e-06	3.754870e-06	2.020994e-09	2.670085e+01	1.390886e+02
2.760000e-06	3.787054e-06	2.039612e-09	2.692971e+01	1.401715e+02
2.770000e-06	3.819073e-06	2.053985e-09	2.715740e+01	1.412176e+02
2.780000e-06	3.850990e-06	2.066181e-09	2.738436e+01	1.422276e+02
2.790000e-06	3.882809e-06	2.079356e-09	2.761063e+01	1.432021e+02
2.800000e-06	3.914498e-06	2.093517e-09	2.783597e+01	1.441420e+02
2.810000e-06	3.945995e-06	2.106371e-09	2.805994e+01	1.450480e+02
2.820000e-06	3.977242e-06	2.118218e-09	2.828214e+01	1.459208e+02
2.830000e-06	4.008191e-06	2.132304e-09	2.850222e+01	1.467614e+02
2.840000e-06	4.038706e-06	2.148971e-09	2.871921e+01	1.475705e+02
2.850000e-06	4.068922e-06	2.164497e-09	2.893407e+01	1.483491e+02
2.860000e-06	4.098943e-06	2.177661e-09	2.914756e+01	1.490981e+02
2.870000e-06	4.128651e-06	2.189401e-09	2.935881e+01	1.498185e+02
2.880000e-06	4.158131e-06	2.197291e-09	2.956844e+01	1.505112e+02
2.890000e-06	4.187367e-06	2.200642e-09	2.977634e+01	1.511775e+02
2.900000e-06	4.216268e-06	2.206371e-09	2.998186e+01	1.518184e+02
