# Temperatura_=_-1.8
# Concentracion g/m^3_=_4090.0
# C_Vs_to_Am_M_A/Vsm_=_65563218390.804596
# pendiente_HvsI_1/m_=_3716.3
# ordenada_HvsI_A/m_=_1297.0
# frecuencia_Hz_=_135068.83493199348

Tiempo_(s)	Campo_(V.s)	Magnetizacion_(V.s)	Campo_(kA/m)	Magnetizacion_(A/m)
0.000000e+00	-5.417444e-06	-2.348908e-09	-3.840193e+01	-1.549129e+02
1.000000e-08	-5.417670e-06	-2.347897e-09	-3.840353e+01	-1.548211e+02
2.000000e-08	-5.417671e-06	-2.346707e-09	-3.840354e+01	-1.547324e+02
3.000000e-08	-5.417417e-06	-2.344812e-09	-3.840174e+01	-1.546482e+02
4.000000e-08	-5.416833e-06	-2.343258e-09	-3.839760e+01	-1.545700e+02
5.000000e-08	-5.415768e-06	-2.342999e-09	-3.839004e+01	-1.544990e+02
6.000000e-08	-5.414149e-06	-2.347079e-09	-3.837857e+01	-1.544365e+02
7.000000e-08	-5.411978e-06	-2.358427e-09	-3.836318e+01	-1.543835e+02
8.000000e-08	-5.409229e-06	-2.340406e-09	-3.834369e+01	-1.543408e+02
9.000000e-08	-5.405907e-06	-2.301677e-09	-3.832015e+01	-1.543091e+02
1.000000e-07	-5.402072e-06	-2.340849e-09	-3.829296e+01	-1.542889e+02
1.100000e-07	-5.397874e-06	-2.435771e-09	-3.826320e+01	-1.542805e+02
1.200000e-07	-5.393461e-06	-2.374971e-09	-3.823192e+01	-1.542838e+02
1.300000e-07	-5.388861e-06	-2.277327e-09	-3.819931e+01	-1.542987e+02
1.400000e-07	-5.383946e-06	-2.308966e-09	-3.816447e+01	-1.543247e+02
1.500000e-07	-5.378589e-06	-2.435546e-09	-3.812650e+01	-1.543613e+02
1.600000e-07	-5.372848e-06	-2.372374e-09	-3.808581e+01	-1.544077e+02
1.700000e-07	-5.366738e-06	-2.236190e-09	-3.804249e+01	-1.544627e+02
1.800000e-07	-5.360155e-06	-2.311997e-09	-3.799583e+01	-1.545254e+02
1.900000e-07	-5.353125e-06	-2.459094e-09	-3.794599e+01	-1.545942e+02
2.000000e-07	-5.345749e-06	-2.416289e-09	-3.789371e+01	-1.546679e+02
2.100000e-07	-5.338166e-06	-2.320507e-09	-3.783996e+01	-1.547449e+02
2.200000e-07	-5.330382e-06	-2.407170e-09	-3.778478e+01	-1.548235e+02
2.300000e-07	-5.322338e-06	-2.482035e-09	-3.772776e+01	-1.549022e+02
2.400000e-07	-5.313999e-06	-2.404933e-09	-3.766865e+01	-1.549793e+02
2.500000e-07	-5.305242e-06	-2.373918e-09	-3.760658e+01	-1.550532e+02
2.600000e-07	-5.295889e-06	-2.485409e-09	-3.754027e+01	-1.551224e+02
2.700000e-07	-5.285813e-06	-2.488499e-09	-3.746885e+01	-1.551852e+02
2.800000e-07	-5.275167e-06	-2.404266e-09	-3.739338e+01	-1.552405e+02
2.900000e-07	-5.264043e-06	-2.451035e-09	-3.731453e+01	-1.552869e+02
3.000000e-07	-5.252498e-06	-2.527833e-09	-3.723270e+01	-1.553232e+02
3.100000e-07	-5.240582e-06	-2.430846e-09	-3.714823e+01	-1.553485e+02
3.200000e-07	-5.228255e-06	-2.382736e-09	-3.706085e+01	-1.553621e+02
3.300000e-07	-5.215547e-06	-2.474520e-09	-3.697077e+01	-1.553633e+02
3.400000e-07	-5.202412e-06	-2.484570e-09	-3.687766e+01	-1.553517e+02
3.500000e-07	-5.188841e-06	-2.389072e-09	-3.678146e+01	-1.553270e+02
3.600000e-07	-5.174950e-06	-2.427643e-09	-3.668299e+01	-1.552892e+02
3.700000e-07	-5.160691e-06	-2.479080e-09	-3.658191e+01	-1.552385e+02
3.800000e-07	-5.145988e-06	-2.424735e-09	-3.647769e+01	-1.551750e+02
3.900000e-07	-5.130701e-06	-2.402883e-09	-3.636933e+01	-1.550993e+02
4.000000e-07	-5.114816e-06	-2.448745e-09	-3.625673e+01	-1.550119e+02
4.100000e-07	-5.098420e-06	-2.409933e-09	-3.614050e+01	-1.549135e+02
4.200000e-07	-5.081538e-06	-2.375545e-09	-3.602083e+01	-1.548050e+02
4.300000e-07	-5.064402e-06	-2.430722e-09	-3.589936e+01	-1.546871e+02
4.400000e-07	-5.047086e-06	-2.433323e-09	-3.577662e+01	-1.545609e+02
4.500000e-07	-5.029521e-06	-2.382088e-09	-3.565211e+01	-1.544272e+02
4.600000e-07	-5.011687e-06	-2.407614e-09	-3.552569e+01	-1.542872e+02
4.700000e-07	-4.993459e-06	-2.442658e-09	-3.539648e+01	-1.541417e+02
4.800000e-07	-4.974745e-06	-2.404797e-09	-3.526382e+01	-1.539917e+02
4.900000e-07	-4.955572e-06	-2.388763e-09	-3.512791e+01	-1.538381e+02
5.000000e-07	-4.936072e-06	-2.402068e-09	-3.498969e+01	-1.536818e+02
5.100000e-07	-4.916407e-06	-2.396419e-09	-3.485029e+01	-1.535235e+02
5.200000e-07	-4.896560e-06	-2.393600e-09	-3.470961e+01	-1.533638e+02
5.300000e-07	-4.876445e-06	-2.401969e-09	-3.456702e+01	-1.532034e+02
5.400000e-07	-4.856003e-06	-2.382872e-09	-3.442211e+01	-1.530427e+02
5.500000e-07	-4.835184e-06	-2.384500e-09	-3.427454e+01	-1.528820e+02
5.600000e-07	-4.813978e-06	-2.401704e-09	-3.412421e+01	-1.527216e+02
5.700000e-07	-4.792443e-06	-2.387498e-09	-3.397156e+01	-1.525617e+02
5.800000e-07	-4.770645e-06	-2.363451e-09	-3.381705e+01	-1.524023e+02
5.900000e-07	-4.748573e-06	-2.372977e-09	-3.366059e+01	-1.522433e+02
6.000000e-07	-4.726236e-06	-2.378064e-09	-3.350225e+01	-1.520845e+02
6.100000e-07	-4.703523e-06	-2.375301e-09	-3.334125e+01	-1.519258e+02
6.200000e-07	-4.680338e-06	-2.368837e-09	-3.317690e+01	-1.517668e+02
6.300000e-07	-4.656796e-06	-2.363261e-09	-3.301002e+01	-1.516073e+02
6.400000e-07	-4.633083e-06	-2.366332e-09	-3.284193e+01	-1.514468e+02
6.500000e-07	-4.609272e-06	-2.375708e-09	-3.267315e+01	-1.512850e+02
6.600000e-07	-4.585223e-06	-2.358880e-09	-3.250267e+01	-1.511214e+02
6.700000e-07	-4.560820e-06	-2.339525e-09	-3.232969e+01	-1.509557e+02
6.800000e-07	-4.536045e-06	-2.345014e-09	-3.215407e+01	-1.507875e+02
6.900000e-07	-4.510850e-06	-2.356412e-09	-3.197547e+01	-1.506164e+02
7.000000e-07	-4.485021e-06	-2.350918e-09	-3.179238e+01	-1.504421e+02
7.100000e-07	-4.458593e-06	-2.341626e-09	-3.160504e+01	-1.502644e+02
7.200000e-07	-4.431768e-06	-2.338781e-09	-3.141490e+01	-1.500831e+02
7.300000e-07	-4.404539e-06	-2.342058e-09	-3.122188e+01	-1.498980e+02
7.400000e-07	-4.376990e-06	-2.337330e-09	-3.102659e+01	-1.497090e+02
7.500000e-07	-4.349261e-06	-2.318803e-09	-3.083004e+01	-1.495161e+02
7.600000e-07	-4.321397e-06	-2.307909e-09	-3.063252e+01	-1.493193e+02
7.700000e-07	-4.293319e-06	-2.313458e-09	-3.043349e+01	-1.491188e+02
7.800000e-07	-4.264996e-06	-2.316866e-09	-3.023272e+01	-1.489147e+02
7.900000e-07	-4.236407e-06	-2.308347e-09	-3.003006e+01	-1.487072e+02
8.000000e-07	-4.207427e-06	-2.300936e-09	-2.982464e+01	-1.484965e+02
8.100000e-07	-4.178146e-06	-2.299144e-09	-2.961708e+01	-1.482829e+02
8.200000e-07	-4.148609e-06	-2.299433e-09	-2.940770e+01	-1.480666e+02
8.300000e-07	-4.118826e-06	-2.291330e-09	-2.919658e+01	-1.478480e+02
8.400000e-07	-4.088813e-06	-2.280507e-09	-2.898384e+01	-1.476273e+02
8.500000e-07	-4.058452e-06	-2.277304e-09	-2.876862e+01	-1.474049e+02
8.600000e-07	-4.027814e-06	-2.281538e-09	-2.855144e+01	-1.471809e+02
8.700000e-07	-3.996886e-06	-2.275444e-09	-2.833220e+01	-1.469556e+02
8.800000e-07	-3.965681e-06	-2.265512e-09	-2.811100e+01	-1.467293e+02
8.900000e-07	-3.934324e-06	-2.258744e-09	-2.788873e+01	-1.465019e+02
9.000000e-07	-3.902749e-06	-2.260270e-09	-2.766491e+01	-1.462737e+02
9.100000e-07	-3.870944e-06	-2.256150e-09	-2.743946e+01	-1.460447e+02
9.200000e-07	-3.838982e-06	-2.245554e-09	-2.721289e+01	-1.458148e+02
9.300000e-07	-3.806815e-06	-2.237271e-09	-2.698487e+01	-1.455840e+02
9.400000e-07	-3.774374e-06	-2.236243e-09	-2.675491e+01	-1.453522e+02
9.500000e-07	-3.741645e-06	-2.233240e-09	-2.652291e+01	-1.451191e+02
9.600000e-07	-3.708587e-06	-2.226436e-09	-2.628858e+01	-1.448846e+02
9.700000e-07	-3.675176e-06	-2.220205e-09	-2.605174e+01	-1.446484e+02
9.800000e-07	-3.641210e-06	-2.219111e-09	-2.581097e+01	-1.444101e+02
9.900000e-07	-3.606761e-06	-2.214049e-09	-2.556677e+01	-1.441695e+02
1.000000e-06	-3.572028e-06	-2.201960e-09	-2.532057e+01	-1.439261e+02
1.010000e-06	-3.536966e-06	-2.192895e-09	-2.507203e+01	-1.436796e+02
1.020000e-06	-3.501616e-06	-2.189520e-09	-2.482145e+01	-1.434295e+02
1.030000e-06	-3.466020e-06	-2.184783e-09	-2.456912e+01	-1.431756e+02
1.040000e-06	-3.430256e-06	-2.177816e-09	-2.431561e+01	-1.429174e+02
1.050000e-06	-3.394426e-06	-2.175050e-09	-2.406163e+01	-1.426546e+02
1.060000e-06	-3.358472e-06	-2.175056e-09	-2.380676e+01	-1.423868e+02
1.070000e-06	-3.322289e-06	-2.173317e-09	-2.355027e+01	-1.421138e+02
1.080000e-06	-3.285843e-06	-2.164389e-09	-2.329193e+01	-1.418353e+02
1.090000e-06	-3.249189e-06	-2.152146e-09	-2.303210e+01	-1.415511e+02
1.100000e-06	-3.212296e-06	-2.144977e-09	-2.277058e+01	-1.412609e+02
1.110000e-06	-3.175182e-06	-2.143021e-09	-2.250750e+01	-1.409648e+02
1.120000e-06	-3.137864e-06	-2.138376e-09	-2.224297e+01	-1.406626e+02
1.130000e-06	-3.100259e-06	-2.131739e-09	-2.197640e+01	-1.403543e+02
1.140000e-06	-3.062464e-06	-2.125183e-09	-2.170849e+01	-1.400399e+02
1.150000e-06	-3.024498e-06	-2.122735e-09	-2.143936e+01	-1.397194e+02
1.160000e-06	-2.986289e-06	-2.117737e-09	-2.116852e+01	-1.393929e+02
1.170000e-06	-2.947831e-06	-2.110197e-09	-2.089591e+01	-1.390605e+02
1.180000e-06	-2.909186e-06	-2.103625e-09	-2.062196e+01	-1.387224e+02
1.190000e-06	-2.870327e-06	-2.101021e-09	-2.034651e+01	-1.383786e+02
1.200000e-06	-2.831310e-06	-2.096552e-09	-2.006994e+01	-1.380294e+02
1.210000e-06	-2.792150e-06	-2.085148e-09	-1.979235e+01	-1.376748e+02
1.220000e-06	-2.752707e-06	-2.072605e-09	-1.951275e+01	-1.373150e+02
1.230000e-06	-2.713020e-06	-2.067604e-09	-1.923143e+01	-1.369501e+02
1.240000e-06	-2.673198e-06	-2.064898e-09	-1.894915e+01	-1.365802e+02
1.250000e-06	-2.633299e-06	-2.060756e-09	-1.866632e+01	-1.362053e+02
1.260000e-06	-2.593353e-06	-2.057855e-09	-1.838316e+01	-1.358255e+02
1.270000e-06	-2.553361e-06	-2.055179e-09	-1.809968e+01	-1.354408e+02
1.280000e-06	-2.513279e-06	-2.048905e-09	-1.781555e+01	-1.350510e+02
1.290000e-06	-2.473098e-06	-2.038894e-09	-1.753072e+01	-1.346562e+02
1.300000e-06	-2.432697e-06	-2.028197e-09	-1.724434e+01	-1.342561e+02
1.310000e-06	-2.392021e-06	-2.017520e-09	-1.695601e+01	-1.338506e+02
1.320000e-06	-2.351118e-06	-2.008847e-09	-1.666606e+01	-1.334394e+02
1.330000e-06	-2.310029e-06	-2.002818e-09	-1.637480e+01	-1.330223e+02
1.340000e-06	-2.268640e-06	-2.001909e-09	-1.608141e+01	-1.325989e+02
1.350000e-06	-2.226833e-06	-2.002794e-09	-1.578506e+01	-1.321690e+02
1.360000e-06	-2.184705e-06	-1.998400e-09	-1.548643e+01	-1.317322e+02
1.370000e-06	-2.142331e-06	-1.988002e-09	-1.518606e+01	-1.312880e+02
1.380000e-06	-2.099753e-06	-1.974423e-09	-1.488425e+01	-1.308361e+02
1.390000e-06	-2.056931e-06	-1.962213e-09	-1.458070e+01	-1.303761e+02
1.400000e-06	-2.013827e-06	-1.951108e-09	-1.427515e+01	-1.299075e+02
1.410000e-06	-1.970529e-06	-1.943223e-09	-1.396823e+01	-1.294299e+02
1.420000e-06	-1.927106e-06	-1.941729e-09	-1.366042e+01	-1.289429e+02
1.430000e-06	-1.883579e-06	-1.942337e-09	-1.335188e+01	-1.284461e+02
1.440000e-06	-1.839943e-06	-1.938246e-09	-1.304257e+01	-1.279391e+02
1.450000e-06	-1.796190e-06	-1.926816e-09	-1.273242e+01	-1.274215e+02
1.460000e-06	-1.752365e-06	-1.914454e-09	-1.242176e+01	-1.268929e+02
1.470000e-06	-1.708465e-06	-1.901990e-09	-1.211057e+01	-1.263530e+02
1.480000e-06	-1.664503e-06	-1.887599e-09	-1.179894e+01	-1.258013e+02
1.490000e-06	-1.620510e-06	-1.873417e-09	-1.148710e+01	-1.252377e+02
1.500000e-06	-1.576485e-06	-1.866664e-09	-1.117502e+01	-1.246617e+02
1.510000e-06	-1.532349e-06	-1.865281e-09	-1.086216e+01	-1.240731e+02
1.520000e-06	-1.488153e-06	-1.861200e-09	-1.054887e+01	-1.234715e+02
1.530000e-06	-1.443925e-06	-1.849208e-09	-1.023536e+01	-1.228566e+02
1.540000e-06	-1.399542e-06	-1.834892e-09	-9.920753e+00	-1.222280e+02
1.550000e-06	-1.355065e-06	-1.822649e-09	-9.605471e+00	-1.215854e+02
1.560000e-06	-1.310548e-06	-1.808308e-09	-9.289913e+00	-1.209285e+02
1.570000e-06	-1.265969e-06	-1.789873e-09	-8.973906e+00	-1.202567e+02
1.580000e-06	-1.221349e-06	-1.774232e-09	-8.657615e+00	-1.195697e+02
1.590000e-06	-1.176647e-06	-1.769021e-09	-8.340741e+00	-1.188670e+02
1.600000e-06	-1.131744e-06	-1.769078e-09	-8.022448e+00	-1.181480e+02
1.610000e-06	-1.086686e-06	-1.762099e-09	-7.703052e+00	-1.174122e+02
1.620000e-06	-1.041572e-06	-1.745761e-09	-7.383258e+00	-1.166588e+02
1.630000e-06	-9.963951e-07	-1.727704e-09	-7.063016e+00	-1.158872e+02
1.640000e-06	-9.511401e-07	-1.712089e-09	-6.742222e+00	-1.150966e+02
1.650000e-06	-9.057575e-07	-1.694806e-09	-6.420525e+00	-1.142862e+02
1.660000e-06	-8.603387e-07	-1.676758e-09	-6.098570e+00	-1.134551e+02
1.670000e-06	-8.149417e-07	-1.665875e-09	-5.776770e+00	-1.126022e+02
1.680000e-06	-7.694711e-07	-1.661816e-09	-5.454449e+00	-1.117267e+02
1.690000e-06	-7.239072e-07	-1.652003e-09	-5.131466e+00	-1.108273e+02
1.700000e-06	-6.782603e-07	-1.632068e-09	-4.807895e+00	-1.099030e+02
1.710000e-06	-6.326278e-07	-1.611527e-09	-4.484426e+00	-1.089526e+02
1.720000e-06	-5.869354e-07	-1.596377e-09	-4.160532e+00	-1.079749e+02
1.730000e-06	-5.411524e-07	-1.582172e-09	-3.835996e+00	-1.069686e+02
1.740000e-06	-4.953598e-07	-1.562089e-09	-3.511392e+00	-1.059324e+02
1.750000e-06	-4.495220e-07	-1.543310e-09	-3.186467e+00	-1.048649e+02
1.760000e-06	-4.036570e-07	-1.532905e-09	-2.861351e+00	-1.037648e+02
1.770000e-06	-3.577759e-07	-1.523989e-09	-2.536119e+00	-1.026308e+02
1.780000e-06	-3.119091e-07	-1.503565e-09	-2.210989e+00	-1.014614e+02
1.790000e-06	-2.659386e-07	-1.476305e-09	-1.885124e+00	-1.002553e+02
1.800000e-06	-2.198674e-07	-1.454290e-09	-1.558545e+00	-9.901103e+01
1.810000e-06	-1.738033e-07	-1.438308e-09	-1.232016e+00	-9.772717e+01
1.820000e-06	-1.277663e-07	-1.420986e-09	-9.056800e-01	-9.640231e+01
1.830000e-06	-8.181035e-08	-1.399156e-09	-5.799183e-01	-9.503503e+01
1.840000e-06	-3.591958e-08	-1.379141e-09	-2.546184e-01	-9.362391e+01
1.850000e-06	9.911755e-09	-1.362557e-09	7.026016e-02	-9.216751e+01
1.860000e-06	5.574463e-08	-1.342074e-09	3.951497e-01	-9.066440e+01
1.870000e-06	1.016093e-07	-1.312899e-09	7.202647e-01	-8.911314e+01
1.880000e-06	1.474887e-07	-1.284590e-09	1.045484e+00	-8.751227e+01
1.890000e-06	1.933845e-07	-1.264557e-09	1.370820e+00	-8.586035e+01
1.900000e-06	2.392388e-07	-1.244532e-09	1.695861e+00	-8.415591e+01
1.910000e-06	2.851459e-07	-1.215308e-09	2.021276e+00	-8.239746e+01
1.920000e-06	3.310689e-07	-1.184586e-09	2.346804e+00	-8.058354e+01
1.930000e-06	3.769389e-07	-1.160225e-09	2.671957e+00	-7.871266e+01
1.940000e-06	4.228078e-07	-1.135063e-09	2.997102e+00	-7.678332e+01
1.950000e-06	4.686179e-07	-1.103122e-09	3.321830e+00	-7.479405e+01
1.960000e-06	5.144245e-07	-1.070010e-09	3.646534e+00	-7.274338e+01
1.970000e-06	5.601857e-07	-1.042875e-09	3.970915e+00	-7.062986e+01
1.980000e-06	6.058117e-07	-1.016514e-09	4.294338e+00	-6.845207e+01
1.990000e-06	6.513380e-07	-9.821010e-10	4.617054e+00	-6.620865e+01
2.000000e-06	6.968668e-07	-9.437772e-10	4.939789e+00	-6.389829e+01
2.010000e-06	7.424305e-07	-9.103133e-10	5.262770e+00	-6.151978e+01
2.020000e-06	7.879371e-07	-8.781850e-10	5.585347e+00	-5.907199e+01
2.030000e-06	8.333342e-07	-8.398909e-10	5.907147e+00	-5.655394e+01
2.040000e-06	8.786798e-07	-7.983913e-10	6.228583e+00	-5.396479e+01
2.050000e-06	9.240407e-07	-7.614117e-10	6.550126e+00	-5.130387e+01
2.060000e-06	9.693754e-07	-7.286765e-10	6.871485e+00	-4.857072e+01
2.070000e-06	1.014585e-06	-6.898229e-10	7.191957e+00	-4.576512e+01
2.080000e-06	1.059706e-06	-6.438814e-10	7.511797e+00	-4.288710e+01
2.090000e-06	1.104663e-06	-5.986581e-10	7.830478e+00	-3.993696e+01
2.100000e-06	1.149452e-06	-5.537296e-10	8.147967e+00	-3.691533e+01
2.110000e-06	1.194092e-06	-5.081374e-10	8.464402e+00	-3.382318e+01
2.120000e-06	1.238561e-06	-4.599825e-10	8.779626e+00	-3.066182e+01
2.130000e-06	1.283002e-06	-4.143133e-10	9.094647e+00	-2.743294e+01
2.140000e-06	1.327391e-06	-3.732287e-10	9.409302e+00	-2.413865e+01
2.150000e-06	1.371741e-06	-3.266465e-10	9.723679e+00	-2.078143e+01
2.160000e-06	1.416060e-06	-2.691777e-10	1.003784e+01	-1.736419e+01
2.170000e-06	1.460309e-06	-2.085971e-10	1.035150e+01	-1.389028e+01
2.180000e-06	1.504462e-06	-1.546317e-10	1.066449e+01	-1.036342e+01
2.190000e-06	1.548533e-06	-1.051249e-10	1.097689e+01	-6.787797e+00
2.200000e-06	1.592575e-06	-5.326432e-11	1.128908e+01	-3.167953e+00
2.210000e-06	1.636566e-06	2.439402e-12	1.160091e+01	4.911698e-01
2.220000e-06	1.680520e-06	5.868259e-11	1.191248e+01	4.184274e+00
2.230000e-06	1.724475e-06	1.134114e-10	1.222406e+01	7.905731e+00
2.240000e-06	1.768369e-06	1.710013e-10	1.253520e+01	1.164962e+01
2.250000e-06	1.812139e-06	2.309458e-10	1.284547e+01	1.540975e+01
2.260000e-06	1.855806e-06	2.903673e-10	1.315501e+01	1.917974e+01
2.270000e-06	1.899395e-06	3.484082e-10	1.346399e+01	2.295302e+01
2.280000e-06	1.942895e-06	4.059698e-10	1.377235e+01	2.672290e+01
2.290000e-06	1.986278e-06	4.629305e-10	1.407987e+01	3.048264e+01
2.300000e-06	2.029490e-06	5.184592e-10	1.438618e+01	3.422549e+01
2.310000e-06	2.072446e-06	5.720806e-10	1.469068e+01	3.794473e+01
2.320000e-06	2.115134e-06	6.236216e-10	1.499328e+01	4.163375e+01
2.330000e-06	2.157559e-06	6.790786e-10	1.529400e+01	4.528611e+01
2.340000e-06	2.199689e-06	7.352049e-10	1.559265e+01	4.889557e+01
2.350000e-06	2.241472e-06	7.908742e-10	1.588883e+01	5.245614e+01
2.360000e-06	2.282874e-06	8.438900e-10	1.618231e+01	5.596217e+01
2.370000e-06	2.323998e-06	8.946853e-10	1.647382e+01	5.940835e+01
2.380000e-06	2.365016e-06	9.425417e-10	1.676458e+01	6.278978e+01
2.390000e-06	2.405847e-06	9.860901e-10	1.705401e+01	6.610198e+01
2.400000e-06	2.446312e-06	1.028262e-09	1.734085e+01	6.934094e+01
2.410000e-06	2.486576e-06	1.073557e-09	1.762627e+01	7.250314e+01
2.420000e-06	2.526719e-06	1.120813e-09	1.791082e+01	7.558557e+01
2.430000e-06	2.566716e-06	1.166943e-09	1.819434e+01	7.858572e+01
2.440000e-06	2.606616e-06	1.211532e-09	1.847718e+01	8.150161e+01
2.450000e-06	2.646441e-06	1.251551e-09	1.875948e+01	8.433177e+01
2.460000e-06	2.686225e-06	1.286388e-09	1.904149e+01	8.707524e+01
2.470000e-06	2.725916e-06	1.317545e-09	1.932284e+01	8.973156e+01
2.480000e-06	2.765423e-06	1.349461e-09	1.960289e+01	9.230073e+01
2.490000e-06	2.804753e-06	1.385624e-09	1.988169e+01	9.478318e+01
2.500000e-06	2.843879e-06	1.424641e-09	2.015903e+01	9.717978e+01
2.510000e-06	2.882791e-06	1.460171e-09	2.043486e+01	9.949177e+01
2.520000e-06	2.921487e-06	1.490554e-09	2.070916e+01	1.017207e+02
2.530000e-06	2.959902e-06	1.518514e-09	2.098147e+01	1.038684e+02
2.540000e-06	2.998054e-06	1.546812e-09	2.125192e+01	1.059371e+02
2.550000e-06	3.036036e-06	1.574622e-09	2.152115e+01	1.079290e+02
2.560000e-06	3.073942e-06	1.603562e-09	2.178985e+01	1.098466e+02
2.570000e-06	3.111686e-06	1.630976e-09	2.205740e+01	1.116925e+02
2.580000e-06	3.149201e-06	1.656758e-09	2.232333e+01	1.134694e+02
2.590000e-06	3.186506e-06	1.681377e-09	2.258777e+01	1.151800e+02
2.600000e-06	3.223555e-06	1.703865e-09	2.285039e+01	1.168269e+02
2.610000e-06	3.260306e-06	1.725330e-09	2.311091e+01	1.184129e+02
2.620000e-06	3.296741e-06	1.747388e-09	2.336918e+01	1.199404e+02
2.630000e-06	3.332933e-06	1.769536e-09	2.362573e+01	1.214120e+02
2.640000e-06	3.368985e-06	1.791382e-09	2.388129e+01	1.228300e+02
2.650000e-06	3.404911e-06	1.811417e-09	2.413595e+01	1.241966e+02
2.660000e-06	3.440765e-06	1.827314e-09	2.439010e+01	1.255139e+02
2.670000e-06	3.476516e-06	1.840371e-09	2.464353e+01	1.267837e+02
2.680000e-06	3.512107e-06	1.853878e-09	2.489581e+01	1.280079e+02
2.690000e-06	3.547420e-06	1.869542e-09	2.514613e+01	1.291880e+02
2.700000e-06	3.582423e-06	1.888840e-09	2.539425e+01	1.303254e+02
2.710000e-06	3.617070e-06	1.908903e-09	2.563985e+01	1.314213e+02
2.720000e-06	3.651248e-06	1.925134e-09	2.588213e+01	1.324770e+02
2.730000e-06	3.684961e-06	1.939159e-09	2.612110e+01	1.334934e+02
2.740000e-06	3.718178e-06	1.952652e-09	2.635656e+01	1.344715e+02
2.750000e-06	3.751007e-06	1.964319e-09	2.658927e+01	1.354120e+02
2.760000e-06	3.783504e-06	1.974656e-09	2.681963e+01	1.363159e+02
2.770000e-06	3.815682e-06	1.985769e-09	2.704773e+01	1.371836e+02
2.780000e-06	3.847684e-06	1.997939e-09	2.727458e+01	1.380161e+02
2.790000e-06	3.879601e-06	2.011077e-09	2.750082e+01	1.388140e+02
2.800000e-06	3.911390e-06	2.021485e-09	2.772616e+01	1.395779e+02
2.810000e-06	3.942994e-06	2.028717e-09	2.795019e+01	1.403086e+02
2.820000e-06	3.974387e-06	2.038773e-09	2.817272e+01	1.410070e+02
2.830000e-06	4.005535e-06	2.051598e-09	2.839351e+01	1.416738e+02
2.840000e-06	4.036366e-06	2.062107e-09	2.861206e+01	1.423099e+02
2.850000e-06	4.066862e-06	2.071541e-09	2.882823e+01	1.429163e+02
2.860000e-06	4.097019e-06	2.082062e-09	2.904200e+01	1.434940e+02
2.870000e-06	4.126861e-06	2.093222e-09	2.925354e+01	1.440442e+02
2.880000e-06	4.156452e-06	2.101202e-09	2.946330e+01	1.445678e+02
2.890000e-06	4.185791e-06	2.103585e-09	2.967127e+01	1.450663e+02
2.900000e-06	4.214907e-06	2.104658e-09	2.987766e+01	1.455408e+02
