# Temperatura_=_-1.8
# Concentracion g/m^3_=_4090.0
# C_Vs_to_Am_M_A/Vsm_=_65563218390.804596
# pendiente_HvsI_1/m_=_3716.3
# ordenada_HvsI_A/m_=_1297.0
# frecuencia_Hz_=_135067.76530244728

Tiempo_(s)	Campo_(V.s)	Magnetizacion_(V.s)	Campo_(kA/m)	Magnetizacion_(A/m)
0.000000e+00	-5.448569e-06	-2.265947e-09	-3.840115e+01	-1.491319e+02
1.000000e-08	-5.448676e-06	-2.265666e-09	-3.840190e+01	-1.490424e+02
2.000000e-08	-5.448551e-06	-2.263177e-09	-3.840102e+01	-1.489546e+02
3.000000e-08	-5.448112e-06	-2.261264e-09	-3.839793e+01	-1.488699e+02
4.000000e-08	-5.447161e-06	-2.259866e-09	-3.839123e+01	-1.487901e+02
5.000000e-08	-5.445449e-06	-2.257282e-09	-3.837916e+01	-1.487167e+02
6.000000e-08	-5.443073e-06	-2.250076e-09	-3.836242e+01	-1.486513e+02
7.000000e-08	-5.440227e-06	-2.229974e-09	-3.834236e+01	-1.485952e+02
8.000000e-08	-5.436828e-06	-2.236830e-09	-3.831840e+01	-1.485496e+02
9.000000e-08	-5.432936e-06	-2.316175e-09	-3.829097e+01	-1.485158e+02
1.000000e-07	-5.428705e-06	-2.356517e-09	-3.826115e+01	-1.484946e+02
1.100000e-07	-5.424358e-06	-2.249231e-09	-3.823052e+01	-1.484866e+02
1.200000e-07	-5.419948e-06	-2.182391e-09	-3.819943e+01	-1.484923e+02
1.300000e-07	-5.415143e-06	-2.277949e-09	-3.816556e+01	-1.485120e+02
1.400000e-07	-5.409734e-06	-2.348943e-09	-3.812744e+01	-1.485455e+02
1.500000e-07	-5.403948e-06	-2.218914e-09	-3.808666e+01	-1.485927e+02
1.600000e-07	-5.397878e-06	-2.126468e-09	-3.804388e+01	-1.486530e+02
1.700000e-07	-5.391275e-06	-2.278143e-09	-3.799734e+01	-1.487256e+02
1.800000e-07	-5.384208e-06	-2.388890e-09	-3.794754e+01	-1.488096e+02
1.900000e-07	-5.376916e-06	-2.292792e-09	-3.789614e+01	-1.489036e+02
2.000000e-07	-5.369448e-06	-2.223197e-09	-3.784351e+01	-1.490063e+02
2.100000e-07	-5.361758e-06	-2.321989e-09	-3.778931e+01	-1.491162e+02
2.200000e-07	-5.353769e-06	-2.349471e-09	-3.773301e+01	-1.492316e+02
2.300000e-07	-5.345456e-06	-2.267611e-09	-3.767442e+01	-1.493505e+02
2.400000e-07	-5.336746e-06	-2.292595e-09	-3.761303e+01	-1.494712e+02
2.500000e-07	-5.327270e-06	-2.392492e-09	-3.754625e+01	-1.495917e+02
2.600000e-07	-5.316952e-06	-2.359500e-09	-3.747352e+01	-1.497101e+02
2.700000e-07	-5.306142e-06	-2.304241e-09	-3.739733e+01	-1.498244e+02
2.800000e-07	-5.294940e-06	-2.382830e-09	-3.731838e+01	-1.499330e+02
2.900000e-07	-5.283381e-06	-2.412070e-09	-3.723692e+01	-1.500339e+02
3.000000e-07	-5.271480e-06	-2.306645e-09	-3.715304e+01	-1.501255e+02
3.100000e-07	-5.259130e-06	-2.309140e-09	-3.706600e+01	-1.502065e+02
3.200000e-07	-5.246343e-06	-2.421403e-09	-3.697587e+01	-1.502755e+02
3.300000e-07	-5.233185e-06	-2.394131e-09	-3.688314e+01	-1.503314e+02
3.400000e-07	-5.219656e-06	-2.302425e-09	-3.678779e+01	-1.503734e+02
3.500000e-07	-5.205781e-06	-2.339206e-09	-3.669000e+01	-1.504007e+02
3.600000e-07	-5.191551e-06	-2.384093e-09	-3.658970e+01	-1.504129e+02
3.700000e-07	-5.176783e-06	-2.331529e-09	-3.648562e+01	-1.504100e+02
3.800000e-07	-5.161317e-06	-2.319453e-09	-3.637662e+01	-1.503918e+02
3.900000e-07	-5.145270e-06	-2.350800e-09	-3.626352e+01	-1.503586e+02
4.000000e-07	-5.128811e-06	-2.334045e-09	-3.614752e+01	-1.503109e+02
4.100000e-07	-5.111991e-06	-2.325965e-09	-3.602897e+01	-1.502495e+02
4.200000e-07	-5.094843e-06	-2.357917e-09	-3.590811e+01	-1.501750e+02
4.300000e-07	-5.077499e-06	-2.330658e-09	-3.578587e+01	-1.500886e+02
4.400000e-07	-5.059946e-06	-2.292287e-09	-3.566216e+01	-1.499914e+02
4.500000e-07	-5.041901e-06	-2.326254e-09	-3.553498e+01	-1.498845e+02
4.600000e-07	-5.023385e-06	-2.355722e-09	-3.540448e+01	-1.497694e+02
4.700000e-07	-5.004526e-06	-2.323872e-09	-3.527156e+01	-1.496473e+02
4.800000e-07	-4.985282e-06	-2.312181e-09	-3.513593e+01	-1.495197e+02
4.900000e-07	-4.965740e-06	-2.330894e-09	-3.499821e+01	-1.493879e+02
5.000000e-07	-4.946027e-06	-2.334645e-09	-3.485926e+01	-1.492533e+02
5.100000e-07	-4.926126e-06	-2.318450e-09	-3.471901e+01	-1.491170e+02
5.200000e-07	-4.905964e-06	-2.297422e-09	-3.457690e+01	-1.489803e+02
5.300000e-07	-4.885539e-06	-2.290188e-09	-3.443295e+01	-1.488442e+02
5.400000e-07	-4.864706e-06	-2.309395e-09	-3.428612e+01	-1.487096e+02
5.500000e-07	-4.843362e-06	-2.317710e-09	-3.413569e+01	-1.485773e+02
5.600000e-07	-4.821675e-06	-2.299253e-09	-3.398284e+01	-1.484480e+02
5.700000e-07	-4.799779e-06	-2.295454e-09	-3.382852e+01	-1.483220e+02
5.800000e-07	-4.777678e-06	-2.309591e-09	-3.367276e+01	-1.481996e+02
5.900000e-07	-4.755299e-06	-2.308545e-09	-3.351503e+01	-1.480811e+02
6.000000e-07	-4.732511e-06	-2.292794e-09	-3.335442e+01	-1.479662e+02
6.100000e-07	-4.709324e-06	-2.279407e-09	-3.319100e+01	-1.478549e+02
6.200000e-07	-4.685837e-06	-2.278853e-09	-3.302546e+01	-1.477467e+02
6.300000e-07	-4.662103e-06	-2.296383e-09	-3.285819e+01	-1.476412e+02
6.400000e-07	-4.638178e-06	-2.301979e-09	-3.268957e+01	-1.475377e+02
6.500000e-07	-4.614111e-06	-2.283587e-09	-3.251995e+01	-1.474356e+02
6.600000e-07	-4.589781e-06	-2.276597e-09	-3.234847e+01	-1.473341e+02
6.700000e-07	-4.564950e-06	-2.292078e-09	-3.217346e+01	-1.472324e+02
6.800000e-07	-4.539574e-06	-2.289933e-09	-3.199462e+01	-1.471295e+02
6.900000e-07	-4.513664e-06	-2.270090e-09	-3.181200e+01	-1.470247e+02
7.000000e-07	-4.487172e-06	-2.263022e-09	-3.162529e+01	-1.469171e+02
7.100000e-07	-4.460186e-06	-2.271485e-09	-3.143509e+01	-1.468058e+02
7.200000e-07	-4.432883e-06	-2.275339e-09	-3.124266e+01	-1.466900e+02
7.300000e-07	-4.405313e-06	-2.268374e-09	-3.104835e+01	-1.465691e+02
7.400000e-07	-4.377522e-06	-2.258434e-09	-3.085248e+01	-1.464425e+02
7.500000e-07	-4.349587e-06	-2.262494e-09	-3.065560e+01	-1.463095e+02
7.600000e-07	-4.321503e-06	-2.268778e-09	-3.045766e+01	-1.461699e+02
7.700000e-07	-4.293141e-06	-2.258707e-09	-3.025777e+01	-1.460233e+02
7.800000e-07	-4.264422e-06	-2.242607e-09	-3.005536e+01	-1.458695e+02
7.900000e-07	-4.235390e-06	-2.242057e-09	-2.985074e+01	-1.457085e+02
8.000000e-07	-4.206026e-06	-2.250493e-09	-2.964379e+01	-1.455404e+02
8.100000e-07	-4.176363e-06	-2.251538e-09	-2.943473e+01	-1.453654e+02
8.200000e-07	-4.146455e-06	-2.243505e-09	-2.922393e+01	-1.451837e+02
8.300000e-07	-4.116261e-06	-2.236922e-09	-2.901113e+01	-1.449959e+02
8.400000e-07	-4.085744e-06	-2.237759e-09	-2.879605e+01	-1.448023e+02
8.500000e-07	-4.054845e-06	-2.236865e-09	-2.857828e+01	-1.446036e+02
8.600000e-07	-4.023645e-06	-2.224816e-09	-2.835838e+01	-1.444003e+02
8.700000e-07	-3.992362e-06	-2.214713e-09	-2.813790e+01	-1.441932e+02
8.800000e-07	-3.960902e-06	-2.214886e-09	-2.791617e+01	-1.439830e+02
8.900000e-07	-3.929200e-06	-2.219077e-09	-2.769274e+01	-1.437703e+02
9.000000e-07	-3.897364e-06	-2.214708e-09	-2.746836e+01	-1.435558e+02
9.100000e-07	-3.865371e-06	-2.202649e-09	-2.724288e+01	-1.433403e+02
9.200000e-07	-3.833178e-06	-2.197106e-09	-2.701599e+01	-1.431244e+02
9.300000e-07	-3.800692e-06	-2.195906e-09	-2.678702e+01	-1.429086e+02
9.400000e-07	-3.767864e-06	-2.190508e-09	-2.655566e+01	-1.426934e+02
9.500000e-07	-3.734519e-06	-2.182729e-09	-2.632064e+01	-1.424793e+02
9.600000e-07	-3.700643e-06	-2.181194e-09	-2.608188e+01	-1.422665e+02
9.700000e-07	-3.666403e-06	-2.183937e-09	-2.584057e+01	-1.420554e+02
9.800000e-07	-3.631781e-06	-2.180582e-09	-2.559655e+01	-1.418460e+02
9.900000e-07	-3.596754e-06	-2.166620e-09	-2.534968e+01	-1.416385e+02
1.000000e-06	-3.561391e-06	-2.155081e-09	-2.510045e+01	-1.414326e+02
1.010000e-06	-3.525816e-06	-2.150453e-09	-2.484972e+01	-1.412282e+02
1.020000e-06	-3.490101e-06	-2.147604e-09	-2.459800e+01	-1.410250e+02
1.030000e-06	-3.454249e-06	-2.143639e-09	-2.434532e+01	-1.408227e+02
1.040000e-06	-3.418253e-06	-2.144192e-09	-2.409162e+01	-1.406209e+02
1.050000e-06	-3.382092e-06	-2.148143e-09	-2.383676e+01	-1.404189e+02
1.060000e-06	-3.345677e-06	-2.149916e-09	-2.358011e+01	-1.402162e+02
1.070000e-06	-3.309005e-06	-2.141568e-09	-2.332165e+01	-1.400122e+02
1.080000e-06	-3.272098e-06	-2.127318e-09	-2.306153e+01	-1.398061e+02
1.090000e-06	-3.234948e-06	-2.118523e-09	-2.279970e+01	-1.395973e+02
1.100000e-06	-3.197581e-06	-2.118900e-09	-2.253634e+01	-1.393851e+02
1.110000e-06	-3.159917e-06	-2.119796e-09	-2.227088e+01	-1.391688e+02
1.120000e-06	-3.122052e-06	-2.117596e-09	-2.200401e+01	-1.389476e+02
1.130000e-06	-3.084106e-06	-2.114813e-09	-2.173657e+01	-1.387210e+02
1.140000e-06	-3.045889e-06	-2.111932e-09	-2.146722e+01	-1.384883e+02
1.150000e-06	-3.007372e-06	-2.102371e-09	-2.119576e+01	-1.382489e+02
1.160000e-06	-2.968686e-06	-2.089117e-09	-2.092310e+01	-1.380023e+02
1.170000e-06	-2.929815e-06	-2.080315e-09	-2.064914e+01	-1.377480e+02
1.180000e-06	-2.890710e-06	-2.078962e-09	-2.037353e+01	-1.374857e+02
1.190000e-06	-2.851433e-06	-2.080306e-09	-2.009671e+01	-1.372151e+02
1.200000e-06	-2.812030e-06	-2.077972e-09	-1.981900e+01	-1.369359e+02
1.210000e-06	-2.772464e-06	-2.074319e-09	-1.954014e+01	-1.366479e+02
1.220000e-06	-2.732741e-06	-2.068646e-09	-1.926018e+01	-1.363511e+02
1.230000e-06	-2.692898e-06	-2.059065e-09	-1.897937e+01	-1.360453e+02
1.240000e-06	-2.652938e-06	-2.045553e-09	-1.869773e+01	-1.357307e+02
1.250000e-06	-2.612877e-06	-2.035922e-09	-1.841538e+01	-1.354073e+02
1.260000e-06	-2.572759e-06	-2.030496e-09	-1.813263e+01	-1.350751e+02
1.270000e-06	-2.532461e-06	-2.029009e-09	-1.784862e+01	-1.347345e+02
1.280000e-06	-2.491977e-06	-2.027520e-09	-1.756329e+01	-1.343855e+02
1.290000e-06	-2.451319e-06	-2.022850e-09	-1.727673e+01	-1.340284e+02
1.300000e-06	-2.410377e-06	-2.014898e-09	-1.698817e+01	-1.336634e+02
1.310000e-06	-2.369149e-06	-2.004663e-09	-1.669761e+01	-1.332908e+02
1.320000e-06	-2.327653e-06	-1.992879e-09	-1.640515e+01	-1.329106e+02
1.330000e-06	-2.285854e-06	-1.981646e-09	-1.611054e+01	-1.325232e+02
1.340000e-06	-2.243727e-06	-1.975361e-09	-1.581364e+01	-1.321287e+02
1.350000e-06	-2.201266e-06	-1.971278e-09	-1.551438e+01	-1.317272e+02
1.360000e-06	-2.158485e-06	-1.965563e-09	-1.521286e+01	-1.313188e+02
1.370000e-06	-2.115579e-06	-1.957285e-09	-1.491046e+01	-1.309036e+02
1.380000e-06	-2.072509e-06	-1.947601e-09	-1.460690e+01	-1.304815e+02
1.390000e-06	-2.029200e-06	-1.939828e-09	-1.430166e+01	-1.300525e+02
1.400000e-06	-1.985770e-06	-1.934435e-09	-1.399557e+01	-1.296165e+02
1.410000e-06	-1.942265e-06	-1.928876e-09	-1.368895e+01	-1.291732e+02
1.420000e-06	-1.898603e-06	-1.921767e-09	-1.338123e+01	-1.287224e+02
1.430000e-06	-1.854787e-06	-1.913562e-09	-1.307241e+01	-1.282639e+02
1.440000e-06	-1.810915e-06	-1.902830e-09	-1.276321e+01	-1.277972e+02
1.450000e-06	-1.767004e-06	-1.891930e-09	-1.245372e+01	-1.273219e+02
1.460000e-06	-1.723075e-06	-1.883535e-09	-1.214412e+01	-1.268375e+02
1.470000e-06	-1.679051e-06	-1.875427e-09	-1.183384e+01	-1.263436e+02
1.480000e-06	-1.634889e-06	-1.868189e-09	-1.152259e+01	-1.258394e+02
1.490000e-06	-1.590708e-06	-1.859945e-09	-1.121120e+01	-1.253245e+02
1.500000e-06	-1.546484e-06	-1.850558e-09	-1.089952e+01	-1.247981e+02
1.510000e-06	-1.502059e-06	-1.840817e-09	-1.058641e+01	-1.242595e+02
1.520000e-06	-1.457483e-06	-1.829247e-09	-1.027224e+01	-1.237080e+02
1.530000e-06	-1.412899e-06	-1.819195e-09	-9.958020e+00	-1.231429e+02
1.540000e-06	-1.368285e-06	-1.810264e-09	-9.643578e+00	-1.225634e+02
1.550000e-06	-1.323592e-06	-1.801818e-09	-9.328590e+00	-1.219688e+02
1.560000e-06	-1.278719e-06	-1.791873e-09	-9.012327e+00	-1.213581e+02
1.570000e-06	-1.233712e-06	-1.782059e-09	-8.695123e+00	-1.207307e+02
1.580000e-06	-1.188638e-06	-1.774653e-09	-8.377439e+00	-1.200856e+02
1.590000e-06	-1.143485e-06	-1.765844e-09	-8.059209e+00	-1.194222e+02
1.600000e-06	-1.098244e-06	-1.752015e-09	-7.740349e+00	-1.187395e+02
1.610000e-06	-1.052918e-06	-1.732664e-09	-7.420899e+00	-1.180368e+02
1.620000e-06	-1.007494e-06	-1.715024e-09	-7.100754e+00	-1.173133e+02
1.630000e-06	-9.619405e-07	-1.701336e-09	-6.779692e+00	-1.165680e+02
1.640000e-06	-9.163669e-07	-1.690020e-09	-6.458493e+00	-1.158003e+02
1.650000e-06	-8.707986e-07	-1.680254e-09	-6.137330e+00	-1.150092e+02
1.660000e-06	-8.252041e-07	-1.672952e-09	-5.815983e+00	-1.141939e+02
1.670000e-06	-7.795486e-07	-1.665069e-09	-5.494206e+00	-1.133537e+02
1.680000e-06	-7.337829e-07	-1.652443e-09	-5.171653e+00	-1.124875e+02
1.690000e-06	-6.879319e-07	-1.633958e-09	-4.848498e+00	-1.115946e+02
1.700000e-06	-6.420684e-07	-1.614021e-09	-4.525255e+00	-1.106741e+02
1.710000e-06	-5.961987e-07	-1.595960e-09	-4.201968e+00	-1.097250e+02
1.720000e-06	-5.502803e-07	-1.581524e-09	-3.878339e+00	-1.087465e+02
1.730000e-06	-5.043072e-07	-1.566253e-09	-3.554323e+00	-1.077375e+02
1.740000e-06	-4.582947e-07	-1.552565e-09	-3.230030e+00	-1.066971e+02
1.750000e-06	-4.122487e-07	-1.543927e-09	-2.905501e+00	-1.056242e+02
1.760000e-06	-3.662087e-07	-1.534860e-09	-2.581014e+00	-1.045178e+02
1.770000e-06	-3.200911e-07	-1.517717e-09	-2.255981e+00	-1.033767e+02
1.780000e-06	-2.738988e-07	-1.492741e-09	-1.930421e+00	-1.021997e+02
1.790000e-06	-2.277508e-07	-1.468071e-09	-1.605172e+00	-1.009856e+02
1.800000e-06	-1.816153e-07	-1.443941e-09	-1.280012e+00	-9.973320e+01
1.810000e-06	-1.353911e-07	-1.421430e-09	-9.542275e-01	-9.844109e+01
1.820000e-06	-8.914846e-08	-1.401763e-09	-6.283124e-01	-9.710788e+01
1.830000e-06	-4.293330e-08	-1.385722e-09	-3.025910e-01	-9.573213e+01
1.840000e-06	3.216203e-09	-1.369836e-09	2.266758e-02	-9.431231e+01
1.850000e-06	4.932187e-08	-1.351584e-09	3.476172e-01	-9.284687e+01
1.860000e-06	9.553171e-08	-1.326781e-09	6.733011e-01	-9.133416e+01
1.870000e-06	1.417516e-07	-1.298359e-09	9.990561e-01	-8.977252e+01
1.880000e-06	1.879139e-07	-1.270900e-09	1.324405e+00	-8.816022e+01
1.890000e-06	2.340828e-07	-1.244463e-09	1.649800e+00	-8.649548e+01
1.900000e-06	2.802362e-07	-1.216346e-09	1.975086e+00	-8.477652e+01
1.910000e-06	3.263547e-07	-1.190395e-09	2.300126e+00	-8.300150e+01
1.920000e-06	3.724016e-07	-1.168709e-09	2.624661e+00	-8.116859e+01
1.930000e-06	4.184353e-07	-1.148067e-09	2.949104e+00	-7.927595e+01
1.940000e-06	4.644971e-07	-1.121763e-09	3.273744e+00	-7.732175e+01
1.950000e-06	5.105768e-07	-1.090783e-09	3.598511e+00	-7.530419e+01
1.960000e-06	5.565705e-07	-1.058186e-09	3.922672e+00	-7.322152e+01
1.970000e-06	6.024081e-07	-1.024226e-09	4.245732e+00	-7.107206e+01
1.980000e-06	6.482351e-07	-9.876669e-10	4.568717e+00	-6.885420e+01
1.990000e-06	6.940066e-07	-9.499805e-10	4.891312e+00	-6.656645e+01
2.000000e-06	7.397187e-07	-9.161051e-10	5.213488e+00	-6.420745e+01
2.010000e-06	7.854142e-07	-8.847417e-10	5.535547e+00	-6.177598e+01
2.020000e-06	8.310528e-07	-8.534590e-10	5.857205e+00	-5.927102e+01
2.030000e-06	8.766688e-07	-8.204836e-10	6.178703e+00	-5.669174e+01
2.040000e-06	9.222514e-07	-7.834358e-10	6.499966e+00	-5.403755e+01
2.050000e-06	9.677993e-07	-7.420594e-10	6.820985e+00	-5.130810e+01
2.060000e-06	1.013356e-06	-6.974234e-10	7.142062e+00	-4.850334e+01
2.070000e-06	1.058829e-06	-6.501318e-10	7.462557e+00	-4.562350e+01
2.080000e-06	1.104148e-06	-6.052027e-10	7.781963e+00	-4.266915e+01
2.090000e-06	1.149334e-06	-5.625024e-10	8.100433e+00	-3.964121e+01
2.100000e-06	1.194419e-06	-5.219779e-10	8.418183e+00	-3.654095e+01
2.110000e-06	1.239423e-06	-4.803382e-10	8.735371e+00	-3.337003e+01
2.120000e-06	1.284360e-06	-4.369827e-10	9.052083e+00	-3.013050e+01
2.130000e-06	1.329175e-06	-3.892937e-10	9.367934e+00	-2.682481e+01
2.140000e-06	1.373864e-06	-3.353362e-10	9.682903e+00	-2.345583e+01
2.150000e-06	1.418460e-06	-2.786416e-10	9.997209e+00	-2.002681e+01
2.160000e-06	1.462851e-06	-2.245759e-10	1.031007e+01	-1.654144e+01
2.170000e-06	1.507128e-06	-1.742714e-10	1.062213e+01	-1.300379e+01
2.180000e-06	1.551373e-06	-1.258776e-10	1.093398e+01	-9.418321e+00
2.190000e-06	1.595515e-06	-7.724201e-11	1.124509e+01	-5.789877e+00
2.200000e-06	1.639540e-06	-2.624332e-11	1.155537e+01	-2.123641e+00
2.210000e-06	1.683540e-06	3.128976e-11	1.186548e+01	1.574878e+00
2.220000e-06	1.727515e-06	9.352173e-11	1.217541e+01	5.299872e+00
2.230000e-06	1.771410e-06	1.563221e-10	1.248478e+01	9.045275e+00
2.240000e-06	1.815268e-06	2.168782e-10	1.279389e+01	1.280480e+01
2.250000e-06	1.859049e-06	2.731872e-10	1.310245e+01	1.657198e+01
2.260000e-06	1.902744e-06	3.266677e-10	1.341041e+01	2.034020e+01
2.270000e-06	1.946360e-06	3.804566e-10	1.371781e+01	2.410279e+01
2.280000e-06	1.989873e-06	4.361936e-10	1.402449e+01	2.785301e+01
2.290000e-06	2.033301e-06	4.934771e-10	1.433057e+01	3.158414e+01
2.300000e-06	2.076580e-06	5.517580e-10	1.463560e+01	3.528954e+01
2.310000e-06	2.119714e-06	6.081542e-10	1.493960e+01	3.896267e+01
2.320000e-06	2.162654e-06	6.618458e-10	1.524224e+01	4.259717e+01
2.330000e-06	2.205312e-06	7.114738e-10	1.554289e+01	4.618691e+01
2.340000e-06	2.247691e-06	7.572838e-10	1.584158e+01	4.972599e+01
2.350000e-06	2.289815e-06	8.027631e-10	1.613847e+01	5.320885e+01
2.360000e-06	2.331624e-06	8.523436e-10	1.643313e+01	5.663029e+01
2.370000e-06	2.372978e-06	9.040037e-10	1.672459e+01	5.998547e+01
2.380000e-06	2.414003e-06	9.562636e-10	1.701373e+01	6.327000e+01
2.390000e-06	2.454851e-06	1.005654e-09	1.730163e+01	6.647994e+01
2.400000e-06	2.495429e-06	1.049349e-09	1.758761e+01	6.961182e+01
2.410000e-06	2.535806e-06	1.087093e-09	1.787219e+01	7.266266e+01
2.420000e-06	2.576090e-06	1.122370e-09	1.815611e+01	7.562998e+01
2.430000e-06	2.616258e-06	1.158613e-09	1.843921e+01	7.851181e+01
2.440000e-06	2.656272e-06	1.197872e-09	1.872123e+01	8.130671e+01
2.450000e-06	2.696167e-06	1.240786e-09	1.900241e+01	8.401370e+01
2.460000e-06	2.735993e-06	1.284398e-09	1.928310e+01	8.663231e+01
2.470000e-06	2.775732e-06	1.324585e-09	1.956317e+01	8.916253e+01
2.480000e-06	2.815358e-06	1.358904e-09	1.984246e+01	9.160481e+01
2.490000e-06	2.854815e-06	1.387902e-09	2.012055e+01	9.395999e+01
2.500000e-06	2.894042e-06	1.415030e-09	2.039702e+01	9.622929e+01
2.510000e-06	2.932978e-06	1.442755e-09	2.067143e+01	9.841432e+01
2.520000e-06	2.971662e-06	1.472349e-09	2.094407e+01	1.005169e+02
2.530000e-06	3.010143e-06	1.504351e-09	2.121529e+01	1.025393e+02
2.540000e-06	3.048437e-06	1.538846e-09	2.148518e+01	1.044838e+02
2.550000e-06	3.086551e-06	1.575066e-09	2.175381e+01	1.063529e+02
2.560000e-06	3.124477e-06	1.604258e-09	2.202111e+01	1.081494e+02
2.570000e-06	3.162181e-06	1.624160e-09	2.228684e+01	1.098760e+02
2.580000e-06	3.199684e-06	1.639279e-09	2.255116e+01	1.115356e+02
2.590000e-06	3.236971e-06	1.654867e-09	2.281396e+01	1.131309e+02
2.600000e-06	3.273982e-06	1.674901e-09	2.307480e+01	1.146649e+02
2.610000e-06	3.310645e-06	1.698537e-09	2.333321e+01	1.161401e+02
2.620000e-06	3.347047e-06	1.723787e-09	2.358976e+01	1.175594e+02
2.630000e-06	3.383315e-06	1.749281e-09	2.384538e+01	1.189252e+02
2.640000e-06	3.419399e-06	1.770618e-09	2.409970e+01	1.202400e+02
2.650000e-06	3.455348e-06	1.785409e-09	2.435306e+01	1.215061e+02
2.660000e-06	3.491203e-06	1.797193e-09	2.460577e+01	1.227254e+02
2.670000e-06	3.526952e-06	1.810220e-09	2.485772e+01	1.239000e+02
2.680000e-06	3.562518e-06	1.824592e-09	2.510839e+01	1.250316e+02
2.690000e-06	3.597810e-06	1.839227e-09	2.535712e+01	1.261218e+02
2.700000e-06	3.632852e-06	1.855020e-09	2.560410e+01	1.271721e+02
2.710000e-06	3.667550e-06	1.874126e-09	2.584865e+01	1.281836e+02
2.720000e-06	3.701697e-06	1.895291e-09	2.608932e+01	1.291576e+02
2.730000e-06	3.735362e-06	1.911643e-09	2.632659e+01	1.300950e+02
2.740000e-06	3.768659e-06	1.920817e-09	2.656126e+01	1.309967e+02
2.750000e-06	3.801492e-06	1.929187e-09	2.679266e+01	1.318635e+02
2.760000e-06	3.833917e-06	1.940039e-09	2.702119e+01	1.326962e+02
2.770000e-06	3.866085e-06	1.950199e-09	2.724791e+01	1.334954e+02
2.780000e-06	3.898061e-06	1.958110e-09	2.747327e+01	1.342618e+02
2.790000e-06	3.929870e-06	1.966415e-09	2.769746e+01	1.349960e+02
2.800000e-06	3.961545e-06	1.978528e-09	2.792070e+01	1.356988e+02
2.810000e-06	3.993042e-06	1.992724e-09	2.814269e+01	1.363707e+02
2.820000e-06	4.024302e-06	2.001910e-09	2.836301e+01	1.370125e+02
2.830000e-06	4.055302e-06	2.007971e-09	2.858150e+01	1.376251e+02
2.840000e-06	4.085898e-06	2.018642e-09	2.879714e+01	1.382091e+02
2.850000e-06	4.116191e-06	2.032276e-09	2.901064e+01	1.387656e+02
2.860000e-06	4.146257e-06	2.043427e-09	2.922254e+01	1.392955e+02
2.870000e-06	4.176116e-06	2.049876e-09	2.943298e+01	1.397999e+02
2.880000e-06	4.205826e-06	2.052573e-09	2.964238e+01	1.402799e+02
2.890000e-06	4.235270e-06	2.055898e-09	2.984990e+01	1.407365e+02
2.900000e-06	4.264347e-06	2.061925e-09	3.005483e+01	1.411712e+02
