# Temperatura_=_16.51
# Concentracion g/m^3_=_4090.0
# C_Vs_to_Am_M_A/Vsm_=_65563218390.804596
# pendiente_HvsI_1/m_=_3716.3
# ordenada_HvsI_A/m_=_1297.0
# frecuencia_Hz_=_135082.62894930603

Tiempo_(s)	Campo_(V.s)	Magnetizacion_(V.s)	Campo_(kA/m)	Magnetizacion_(A/m)
0.000000e+00	-5.410849e-06	-2.357788e-09	-3.839774e+01	-1.539740e+02
1.000000e-08	-5.411135e-06	-2.356767e-09	-3.839976e+01	-1.538441e+02
2.000000e-08	-5.411233e-06	-2.359328e-09	-3.840046e+01	-1.537128e+02
3.000000e-08	-5.411123e-06	-2.359615e-09	-3.839968e+01	-1.535821e+02
4.000000e-08	-5.410676e-06	-2.356649e-09	-3.839651e+01	-1.534540e+02
5.000000e-08	-5.409718e-06	-2.353779e-09	-3.838971e+01	-1.533308e+02
6.000000e-08	-5.408161e-06	-2.351133e-09	-3.837866e+01	-1.532144e+02
7.000000e-08	-5.406003e-06	-2.341832e-09	-3.836334e+01	-1.531069e+02
8.000000e-08	-5.403196e-06	-2.321132e-09	-3.834343e+01	-1.530102e+02
9.000000e-08	-5.399757e-06	-2.304105e-09	-3.831902e+01	-1.529260e+02
1.000000e-07	-5.395899e-06	-2.374099e-09	-3.829164e+01	-1.528559e+02
1.100000e-07	-5.391690e-06	-2.474393e-09	-3.826177e+01	-1.528014e+02
1.200000e-07	-5.387236e-06	-2.394463e-09	-3.823017e+01	-1.527636e+02
1.300000e-07	-5.382724e-06	-2.248848e-09	-3.819815e+01	-1.527433e+02
1.400000e-07	-5.377977e-06	-2.324859e-09	-3.816446e+01	-1.527411e+02
1.500000e-07	-5.372643e-06	-2.455071e-09	-3.812661e+01	-1.527574e+02
1.600000e-07	-5.366809e-06	-2.381958e-09	-3.808521e+01	-1.527922e+02
1.700000e-07	-5.360650e-06	-2.157820e-09	-3.804150e+01	-1.528451e+02
1.800000e-07	-5.354247e-06	-2.302803e-09	-3.799606e+01	-1.529155e+02
1.900000e-07	-5.347373e-06	-2.507702e-09	-3.794728e+01	-1.530025e+02
2.000000e-07	-5.340009e-06	-2.444173e-09	-3.789502e+01	-1.531048e+02
2.100000e-07	-5.332468e-06	-2.264876e-09	-3.784151e+01	-1.532209e+02
2.200000e-07	-5.324757e-06	-2.363155e-09	-3.778679e+01	-1.533492e+02
2.300000e-07	-5.316805e-06	-2.475247e-09	-3.773036e+01	-1.534875e+02
2.400000e-07	-5.308532e-06	-2.362217e-09	-3.767165e+01	-1.536337e+02
2.500000e-07	-5.299856e-06	-2.314199e-09	-3.761008e+01	-1.537856e+02
2.600000e-07	-5.290587e-06	-2.445501e-09	-3.754431e+01	-1.539406e+02
2.700000e-07	-5.280542e-06	-2.480540e-09	-3.747302e+01	-1.540962e+02
2.800000e-07	-5.269847e-06	-2.350562e-09	-3.739712e+01	-1.542499e+02
2.900000e-07	-5.258716e-06	-2.400885e-09	-3.731813e+01	-1.543991e+02
3.000000e-07	-5.247244e-06	-2.494182e-09	-3.723672e+01	-1.545413e+02
3.100000e-07	-5.235439e-06	-2.401996e-09	-3.715295e+01	-1.546741e+02
3.200000e-07	-5.223137e-06	-2.302491e-09	-3.706565e+01	-1.547951e+02
3.300000e-07	-5.210368e-06	-2.463125e-09	-3.697504e+01	-1.549023e+02
3.400000e-07	-5.197210e-06	-2.496353e-09	-3.688166e+01	-1.549938e+02
3.500000e-07	-5.183715e-06	-2.372462e-09	-3.678589e+01	-1.550676e+02
3.600000e-07	-5.169887e-06	-2.354124e-09	-3.668776e+01	-1.551226e+02
3.700000e-07	-5.155773e-06	-2.462444e-09	-3.658761e+01	-1.551572e+02
3.800000e-07	-5.141216e-06	-2.392337e-09	-3.648430e+01	-1.551708e+02
3.900000e-07	-5.125997e-06	-2.343411e-09	-3.637630e+01	-1.551626e+02
4.000000e-07	-5.110150e-06	-2.392821e-09	-3.626385e+01	-1.551322e+02
4.100000e-07	-5.093745e-06	-2.405159e-09	-3.614743e+01	-1.550795e+02
4.200000e-07	-5.077019e-06	-2.356792e-09	-3.602873e+01	-1.550048e+02
4.300000e-07	-5.060042e-06	-2.413711e-09	-3.590826e+01	-1.549085e+02
4.400000e-07	-5.042713e-06	-2.415074e-09	-3.578528e+01	-1.547913e+02
4.500000e-07	-5.025076e-06	-2.339669e-09	-3.566012e+01	-1.546541e+02
4.600000e-07	-5.007149e-06	-2.342003e-09	-3.553290e+01	-1.544981e+02
4.700000e-07	-4.988872e-06	-2.396181e-09	-3.540320e+01	-1.543246e+02
4.800000e-07	-4.970251e-06	-2.360829e-09	-3.527106e+01	-1.541349e+02
4.900000e-07	-4.951271e-06	-2.327661e-09	-3.513637e+01	-1.539305e+02
5.000000e-07	-4.931856e-06	-2.363300e-09	-3.499860e+01	-1.537132e+02
5.100000e-07	-4.912129e-06	-2.378847e-09	-3.485860e+01	-1.534846e+02
5.200000e-07	-4.892282e-06	-2.369589e-09	-3.471776e+01	-1.532463e+02
5.300000e-07	-4.872308e-06	-2.351337e-09	-3.457602e+01	-1.529999e+02
5.400000e-07	-4.852066e-06	-2.331729e-09	-3.443237e+01	-1.527470e+02
5.500000e-07	-4.831364e-06	-2.328721e-09	-3.428546e+01	-1.524891e+02
5.600000e-07	-4.810234e-06	-2.350538e-09	-3.413551e+01	-1.522276e+02
5.700000e-07	-4.788776e-06	-2.325232e-09	-3.398324e+01	-1.519638e+02
5.800000e-07	-4.767068e-06	-2.310059e-09	-3.382918e+01	-1.516988e+02
5.900000e-07	-4.745157e-06	-2.327380e-09	-3.367369e+01	-1.514335e+02
6.000000e-07	-4.722864e-06	-2.343649e-09	-3.351550e+01	-1.511687e+02
6.100000e-07	-4.700105e-06	-2.320884e-09	-3.335399e+01	-1.509052e+02
6.200000e-07	-4.676979e-06	-2.311235e-09	-3.318987e+01	-1.506433e+02
6.300000e-07	-4.653520e-06	-2.294446e-09	-3.302340e+01	-1.503833e+02
6.400000e-07	-4.629836e-06	-2.302616e-09	-3.285533e+01	-1.501253e+02
6.500000e-07	-4.606015e-06	-2.308892e-09	-3.268628e+01	-1.498694e+02
6.600000e-07	-4.581983e-06	-2.292647e-09	-3.251574e+01	-1.496154e+02
6.700000e-07	-4.557674e-06	-2.266221e-09	-3.234324e+01	-1.493629e+02
6.800000e-07	-4.533027e-06	-2.289515e-09	-3.216833e+01	-1.491116e+02
6.900000e-07	-4.507952e-06	-2.299993e-09	-3.199038e+01	-1.488611e+02
7.000000e-07	-4.482376e-06	-2.283783e-09	-3.180889e+01	-1.486108e+02
7.100000e-07	-4.456266e-06	-2.264559e-09	-3.162360e+01	-1.483600e+02
7.200000e-07	-4.429600e-06	-2.269496e-09	-3.143437e+01	-1.481083e+02
7.300000e-07	-4.402507e-06	-2.267899e-09	-3.124210e+01	-1.478549e+02
7.400000e-07	-4.375097e-06	-2.259584e-09	-3.104759e+01	-1.475993e+02
7.500000e-07	-4.347414e-06	-2.241453e-09	-3.085114e+01	-1.473409e+02
7.600000e-07	-4.319552e-06	-2.238802e-09	-3.065342e+01	-1.470791e+02
7.700000e-07	-4.291579e-06	-2.250406e-09	-3.045491e+01	-1.468136e+02
7.800000e-07	-4.263404e-06	-2.247939e-09	-3.025496e+01	-1.465438e+02
7.900000e-07	-4.234835e-06	-2.227799e-09	-3.005223e+01	-1.462695e+02
8.000000e-07	-4.205897e-06	-2.216488e-09	-2.984687e+01	-1.459905e+02
8.100000e-07	-4.176652e-06	-2.221421e-09	-2.963933e+01	-1.457065e+02
8.200000e-07	-4.147123e-06	-2.220660e-09	-2.942979e+01	-1.454176e+02
8.300000e-07	-4.117354e-06	-2.213135e-09	-2.921853e+01	-1.451236e+02
8.400000e-07	-4.087285e-06	-2.203093e-09	-2.900515e+01	-1.448247e+02
8.500000e-07	-4.056921e-06	-2.202698e-09	-2.878968e+01	-1.445211e+02
8.600000e-07	-4.026391e-06	-2.199755e-09	-2.857302e+01	-1.442129e+02
8.700000e-07	-3.995639e-06	-2.186258e-09	-2.835479e+01	-1.439003e+02
8.800000e-07	-3.964577e-06	-2.164973e-09	-2.813436e+01	-1.435838e+02
8.900000e-07	-3.933296e-06	-2.163617e-09	-2.791238e+01	-1.432636e+02
9.000000e-07	-3.901804e-06	-2.173678e-09	-2.768889e+01	-1.429400e+02
9.100000e-07	-3.870061e-06	-2.179569e-09	-2.746363e+01	-1.426133e+02
9.200000e-07	-3.838096e-06	-2.165908e-09	-2.723680e+01	-1.422838e+02
9.300000e-07	-3.805921e-06	-2.157243e-09	-2.700847e+01	-1.419519e+02
9.400000e-07	-3.773501e-06	-2.147533e-09	-2.677840e+01	-1.416177e+02
9.500000e-07	-3.740788e-06	-2.135918e-09	-2.654625e+01	-1.412815e+02
9.600000e-07	-3.707696e-06	-2.116093e-09	-2.631142e+01	-1.409433e+02
9.700000e-07	-3.674206e-06	-2.110391e-09	-2.607376e+01	-1.406034e+02
9.800000e-07	-3.640229e-06	-2.116744e-09	-2.583265e+01	-1.402616e+02
9.900000e-07	-3.605759e-06	-2.125163e-09	-2.558803e+01	-1.399179e+02
1.000000e-06	-3.570978e-06	-2.115977e-09	-2.534121e+01	-1.395723e+02
1.010000e-06	-3.535847e-06	-2.104257e-09	-2.509191e+01	-1.392245e+02
1.020000e-06	-3.500409e-06	-2.094290e-09	-2.484042e+01	-1.388743e+02
1.030000e-06	-3.464823e-06	-2.083755e-09	-2.458789e+01	-1.385215e+02
1.040000e-06	-3.429075e-06	-2.067554e-09	-2.433421e+01	-1.381657e+02
1.050000e-06	-3.393176e-06	-2.059446e-09	-2.407945e+01	-1.378065e+02
1.060000e-06	-3.357158e-06	-2.061748e-09	-2.382385e+01	-1.374436e+02
1.070000e-06	-3.320931e-06	-2.067192e-09	-2.356677e+01	-1.370766e+02
1.080000e-06	-3.284437e-06	-2.064764e-09	-2.330779e+01	-1.367050e+02
1.090000e-06	-3.247746e-06	-2.052484e-09	-2.304742e+01	-1.363284e+02
1.100000e-06	-3.210924e-06	-2.038005e-09	-2.278611e+01	-1.359465e+02
1.110000e-06	-3.173893e-06	-2.028846e-09	-2.252332e+01	-1.355588e+02
1.120000e-06	-3.136508e-06	-2.018848e-09	-2.225802e+01	-1.351650e+02
1.130000e-06	-3.098838e-06	-2.005184e-09	-2.199070e+01	-1.347648e+02
1.140000e-06	-3.060970e-06	-1.997596e-09	-2.172197e+01	-1.343579e+02
1.150000e-06	-3.022892e-06	-1.996954e-09	-2.145175e+01	-1.339441e+02
1.160000e-06	-2.984641e-06	-1.996962e-09	-2.118031e+01	-1.335232e+02
1.170000e-06	-2.946279e-06	-1.987521e-09	-2.090808e+01	-1.330950e+02
1.180000e-06	-2.907698e-06	-1.978158e-09	-2.063429e+01	-1.326595e+02
1.190000e-06	-2.868773e-06	-1.970860e-09	-2.035806e+01	-1.322166e+02
1.200000e-06	-2.829620e-06	-1.967776e-09	-2.008021e+01	-1.317662e+02
1.210000e-06	-2.790304e-06	-1.957326e-09	-1.980121e+01	-1.313084e+02
1.220000e-06	-2.750870e-06	-1.945756e-09	-1.952137e+01	-1.308432e+02
1.230000e-06	-2.711332e-06	-1.937274e-09	-1.924079e+01	-1.303706e+02
1.240000e-06	-2.671650e-06	-1.933530e-09	-1.895919e+01	-1.298906e+02
1.250000e-06	-2.631836e-06	-1.924558e-09	-1.867665e+01	-1.294034e+02
1.260000e-06	-2.591912e-06	-1.915140e-09	-1.839334e+01	-1.289089e+02
1.270000e-06	-2.551926e-06	-1.903658e-09	-1.810957e+01	-1.284071e+02
1.280000e-06	-2.511886e-06	-1.896724e-09	-1.782544e+01	-1.278980e+02
1.290000e-06	-2.471764e-06	-1.891452e-09	-1.754071e+01	-1.273815e+02
1.300000e-06	-2.431413e-06	-1.884373e-09	-1.725436e+01	-1.268575e+02
1.310000e-06	-2.390775e-06	-1.873266e-09	-1.696597e+01	-1.263257e+02
1.320000e-06	-2.349957e-06	-1.862298e-09	-1.667632e+01	-1.257861e+02
1.330000e-06	-2.309046e-06	-1.851664e-09	-1.638599e+01	-1.252381e+02
1.340000e-06	-2.267851e-06	-1.840238e-09	-1.609366e+01	-1.246816e+02
1.350000e-06	-2.226254e-06	-1.828649e-09	-1.579847e+01	-1.241160e+02
1.360000e-06	-2.184280e-06	-1.821120e-09	-1.550060e+01	-1.235409e+02
1.370000e-06	-2.141935e-06	-1.816590e-09	-1.520010e+01	-1.229558e+02
1.380000e-06	-2.099355e-06	-1.811371e-09	-1.489793e+01	-1.223600e+02
1.390000e-06	-2.056624e-06	-1.801243e-09	-1.459470e+01	-1.217530e+02
1.400000e-06	-2.013640e-06	-1.785646e-09	-1.428966e+01	-1.211342e+02
1.410000e-06	-1.970427e-06	-1.773025e-09	-1.398300e+01	-1.205027e+02
1.420000e-06	-1.927175e-06	-1.764212e-09	-1.367607e+01	-1.198580e+02
1.430000e-06	-1.883745e-06	-1.753784e-09	-1.336787e+01	-1.191994e+02
1.440000e-06	-1.840096e-06	-1.738075e-09	-1.305812e+01	-1.185261e+02
1.450000e-06	-1.796425e-06	-1.723886e-09	-1.274821e+01	-1.178376e+02
1.460000e-06	-1.752731e-06	-1.715319e-09	-1.243814e+01	-1.171332e+02
1.470000e-06	-1.708967e-06	-1.710133e-09	-1.212757e+01	-1.164122e+02
1.480000e-06	-1.665105e-06	-1.697836e-09	-1.181631e+01	-1.156741e+02
1.490000e-06	-1.621155e-06	-1.683276e-09	-1.150442e+01	-1.149185e+02
1.500000e-06	-1.577114e-06	-1.672003e-09	-1.119189e+01	-1.141447e+02
1.510000e-06	-1.532950e-06	-1.661007e-09	-1.087848e+01	-1.133525e+02
1.520000e-06	-1.488683e-06	-1.643791e-09	-1.056434e+01	-1.125414e+02
1.530000e-06	-1.444369e-06	-1.622923e-09	-1.024987e+01	-1.117111e+02
1.540000e-06	-1.400041e-06	-1.605987e-09	-9.935297e+00	-1.108613e+02
1.550000e-06	-1.355675e-06	-1.593566e-09	-9.620460e+00	-1.099918e+02
1.560000e-06	-1.311176e-06	-1.581465e-09	-9.304675e+00	-1.091023e+02
1.570000e-06	-1.266631e-06	-1.568290e-09	-8.988566e+00	-1.081926e+02
1.580000e-06	-1.222033e-06	-1.553418e-09	-8.672074e+00	-1.072626e+02
1.590000e-06	-1.177252e-06	-1.540889e-09	-8.354292e+00	-1.063118e+02
1.600000e-06	-1.132364e-06	-1.528358e-09	-8.035747e+00	-1.053402e+02
1.610000e-06	-1.087434e-06	-1.511524e-09	-7.716901e+00	-1.043474e+02
1.620000e-06	-1.042384e-06	-1.491439e-09	-7.397211e+00	-1.033331e+02
1.630000e-06	-9.971481e-07	-1.476269e-09	-7.076196e+00	-1.022967e+02
1.640000e-06	-9.519269e-07	-1.462784e-09	-6.755287e+00	-1.012379e+02
1.650000e-06	-9.067409e-07	-1.447433e-09	-6.434627e+00	-1.001559e+02
1.660000e-06	-8.614097e-07	-1.430724e-09	-6.112937e+00	-9.905006e+01
1.670000e-06	-8.159461e-07	-1.415072e-09	-5.790308e+00	-9.791953e+01
1.680000e-06	-7.704304e-07	-1.400248e-09	-5.467309e+00	-9.676334e+01
1.690000e-06	-7.248604e-07	-1.381120e-09	-5.143924e+00	-9.558038e+01
1.700000e-06	-6.792171e-07	-1.357301e-09	-4.820019e+00	-9.436945e+01
1.710000e-06	-6.335633e-07	-1.335210e-09	-4.496041e+00	-9.312920e+01
1.720000e-06	-5.879212e-07	-1.318312e-09	-4.172144e+00	-9.185815e+01
1.730000e-06	-5.422368e-07	-1.301962e-09	-3.847948e+00	-9.055473e+01
1.740000e-06	-4.964926e-07	-1.280938e-09	-3.523327e+00	-8.921726e+01
1.750000e-06	-4.507389e-07	-1.257418e-09	-3.198639e+00	-8.784400e+01
1.760000e-06	-4.049705e-07	-1.236973e-09	-2.873846e+00	-8.643310e+01
1.770000e-06	-3.591181e-07	-1.217165e-09	-2.548458e+00	-8.498272e+01
1.780000e-06	-3.132372e-07	-1.191676e-09	-2.222867e+00	-8.349095e+01
1.790000e-06	-2.673447e-07	-1.162416e-09	-1.897194e+00	-8.195591e+01
1.800000e-06	-2.214286e-07	-1.138259e-09	-1.571353e+00	-8.037575e+01
1.810000e-06	-1.755116e-07	-1.116572e-09	-1.245507e+00	-7.874867e+01
1.820000e-06	-1.295389e-07	-1.092514e-09	-9.192646e-01	-7.707294e+01
1.830000e-06	-8.355948e-08	-1.064749e-09	-5.929743e-01	-7.534697e+01
1.840000e-06	-3.759352e-08	-1.037046e-09	-2.667800e-01	-7.356928e+01
1.850000e-06	8.286108e-09	-1.009244e-09	5.880182e-02	-7.173856e+01
1.860000e-06	5.414457e-08	-9.816595e-10	3.842334e-01	-6.985370e+01
1.870000e-06	1.000521e-07	-9.527139e-10	7.100133e-01	-6.791378e+01
1.880000e-06	1.459498e-07	-9.227871e-10	1.035723e+00	-6.591811e+01
1.890000e-06	1.918530e-07	-8.939049e-10	1.361473e+00	-6.386623e+01
1.900000e-06	2.375890e-07	-8.649190e-10	1.686035e+00	-6.175796e+01
1.910000e-06	2.832470e-07	-8.308407e-10	2.010044e+00	-5.959335e+01
1.920000e-06	3.290246e-07	-7.944655e-10	2.334902e+00	-5.737273e+01
1.930000e-06	3.748354e-07	-7.608956e-10	2.659995e+00	-5.509670e+01
1.940000e-06	4.206230e-07	-7.287632e-10	2.984924e+00	-5.276612e+01
1.950000e-06	4.664452e-07	-6.946836e-10	3.310098e+00	-5.038210e+01
1.960000e-06	5.122297e-07	-6.582275e-10	3.635005e+00	-4.794600e+01
1.970000e-06	5.579153e-07	-6.206595e-10	3.959209e+00	-4.545942e+01
1.980000e-06	6.036153e-07	-5.822315e-10	4.283517e+00	-4.292417e+01
1.990000e-06	6.491373e-07	-5.406333e-10	4.606560e+00	-4.034225e+01
2.000000e-06	6.945895e-07	-4.976764e-10	4.929108e+00	-3.771585e+01
2.010000e-06	7.401006e-07	-4.588788e-10	5.252075e+00	-3.504729e+01
2.020000e-06	7.855552e-07	-4.228695e-10	5.574641e+00	-3.233904e+01
2.030000e-06	8.309927e-07	-3.868937e-10	5.897085e+00	-2.959366e+01
2.040000e-06	8.762640e-07	-3.491100e-10	6.218350e+00	-2.681379e+01
2.050000e-06	9.213958e-07	-3.089220e-10	6.538624e+00	-2.400211e+01
2.060000e-06	9.665377e-07	-2.671258e-10	6.858971e+00	-2.116135e+01
2.070000e-06	1.011680e-06	-2.235704e-10	7.179319e+00	-1.829424e+01
2.080000e-06	1.056715e-06	-1.784709e-10	7.498906e+00	-1.540348e+01
2.090000e-06	1.101691e-06	-1.341618e-10	7.818080e+00	-1.249175e+01
2.100000e-06	1.146582e-06	-8.883101e-11	8.136646e+00	-9.561686e+00
2.110000e-06	1.191331e-06	-4.539876e-11	8.454204e+00	-6.615845e+00
2.120000e-06	1.235945e-06	-4.634488e-12	8.770802e+00	-3.656728e+00
2.130000e-06	1.280411e-06	3.556208e-11	9.086355e+00	-6.867503e-01
2.140000e-06	1.324835e-06	7.759748e-11	9.401603e+00	2.291752e+00
2.150000e-06	1.369196e-06	1.233335e-10	9.716412e+00	5.276527e+00
2.160000e-06	1.413401e-06	1.718663e-10	1.003011e+01	8.265404e+00
2.170000e-06	1.457532e-06	2.196095e-10	1.034328e+01	1.125629e+01
2.180000e-06	1.501629e-06	2.651991e-10	1.065621e+01	1.424715e+01
2.190000e-06	1.545683e-06	3.081623e-10	1.096884e+01	1.723602e+01
2.200000e-06	1.589659e-06	3.477038e-10	1.128091e+01	2.022099e+01
2.210000e-06	1.633595e-06	3.866215e-10	1.159270e+01	2.320017e+01
2.220000e-06	1.677487e-06	4.297679e-10	1.190418e+01	2.617170e+01
2.230000e-06	1.721296e-06	4.750020e-10	1.221506e+01	2.913373e+01
2.240000e-06	1.765083e-06	5.187272e-10	1.252579e+01	3.208443e+01
2.250000e-06	1.808803e-06	5.618081e-10	1.283605e+01	3.502191e+01
2.260000e-06	1.852449e-06	6.046387e-10	1.314578e+01	3.794431e+01
2.270000e-06	1.895992e-06	6.467628e-10	1.345478e+01	4.084970e+01
2.280000e-06	1.939376e-06	6.884697e-10	1.376266e+01	4.373613e+01
2.290000e-06	1.982628e-06	7.288684e-10	1.406959e+01	4.660158e+01
2.300000e-06	2.025696e-06	7.688236e-10	1.437522e+01	4.944401e+01
2.310000e-06	2.068473e-06	8.120096e-10	1.467878e+01	5.226133e+01
2.320000e-06	2.111051e-06	8.543171e-10	1.498093e+01	5.505140e+01
2.330000e-06	2.153360e-06	8.932972e-10	1.528118e+01	5.781204e+01
2.340000e-06	2.195428e-06	9.287563e-10	1.557971e+01	6.054105e+01
2.350000e-06	2.237233e-06	9.634790e-10	1.587638e+01	6.323622e+01
2.360000e-06	2.278666e-06	1.001602e-09	1.617040e+01	6.589534e+01
2.370000e-06	2.319826e-06	1.042676e-09	1.646249e+01	6.851620e+01
2.380000e-06	2.360716e-06	1.082336e-09	1.675266e+01	7.109664e+01
2.390000e-06	2.401384e-06	1.120350e-09	1.704127e+01	7.363455e+01
2.400000e-06	2.441882e-06	1.157792e-09	1.732865e+01	7.612789e+01
2.410000e-06	2.482164e-06	1.193594e-09	1.761451e+01	7.857472e+01
2.420000e-06	2.522296e-06	1.225233e-09	1.789931e+01	8.097323e+01
2.430000e-06	2.562351e-06	1.253069e-09	1.818356e+01	8.332172e+01
2.440000e-06	2.602288e-06	1.281730e-09	1.846697e+01	8.561867e+01
2.450000e-06	2.642158e-06	1.314308e-09	1.874990e+01	8.786273e+01
2.460000e-06	2.681937e-06	1.348712e-09	1.903219e+01	9.005275e+01
2.470000e-06	2.721538e-06	1.382194e-09	1.931322e+01	9.218777e+01
2.480000e-06	2.760968e-06	1.415459e-09	1.959303e+01	9.426706e+01
2.490000e-06	2.800258e-06	1.447773e-09	1.987185e+01	9.629011e+01
2.500000e-06	2.839419e-06	1.476950e-09	2.014975e+01	9.825664e+01
2.510000e-06	2.878420e-06	1.499355e-09	2.042652e+01	1.001666e+02
2.520000e-06	2.917104e-06	1.518915e-09	2.070104e+01	1.020202e+02
2.530000e-06	2.955479e-06	1.541380e-09	2.097336e+01	1.038178e+02
2.540000e-06	2.993618e-06	1.567210e-09	2.124402e+01	1.055600e+02
2.550000e-06	3.031533e-06	1.592863e-09	2.151307e+01	1.072477e+02
2.560000e-06	3.069312e-06	1.619656e-09	2.178117e+01	1.088819e+02
2.570000e-06	3.106911e-06	1.647455e-09	2.204799e+01	1.104637e+02
2.580000e-06	3.144274e-06	1.672753e-09	2.231314e+01	1.119945e+02
2.590000e-06	3.181469e-06	1.694844e-09	2.257708e+01	1.134757e+02
2.600000e-06	3.218494e-06	1.712983e-09	2.283983e+01	1.149089e+02
2.610000e-06	3.255289e-06	1.728543e-09	2.310094e+01	1.162957e+02
2.620000e-06	3.291827e-06	1.742681e-09	2.336023e+01	1.176378e+02
2.630000e-06	3.328155e-06	1.757536e-09	2.361803e+01	1.189368e+02
2.640000e-06	3.364266e-06	1.774845e-09	2.387429e+01	1.201946e+02
2.650000e-06	3.400180e-06	1.794228e-09	2.412915e+01	1.214128e+02
2.660000e-06	3.436004e-06	1.813686e-09	2.438338e+01	1.225930e+02
2.670000e-06	3.471740e-06	1.832319e-09	2.463698e+01	1.237369e+02
2.680000e-06	3.507286e-06	1.849649e-09	2.488922e+01	1.248459e+02
2.690000e-06	3.542567e-06	1.864330e-09	2.513959e+01	1.259215e+02
2.700000e-06	3.577589e-06	1.874365e-09	2.538812e+01	1.269649e+02
2.710000e-06	3.612288e-06	1.885275e-09	2.563437e+01	1.279775e+02
2.720000e-06	3.646439e-06	1.900796e-09	2.587672e+01	1.289602e+02
2.730000e-06	3.680008e-06	1.919150e-09	2.611494e+01	1.299140e+02
2.740000e-06	3.713250e-06	1.936024e-09	2.635084e+01	1.308398e+02
2.750000e-06	3.746059e-06	1.950426e-09	2.658366e+01	1.317384e+02
2.760000e-06	3.778432e-06	1.965096e-09	2.681339e+01	1.326102e+02
2.770000e-06	3.810649e-06	1.979327e-09	2.704202e+01	1.334559e+02
2.780000e-06	3.842706e-06	1.988990e-09	2.726951e+01	1.342759e+02
2.790000e-06	3.874599e-06	1.994103e-09	2.749584e+01	1.350705e+02
2.800000e-06	3.906338e-06	2.001058e-09	2.772107e+01	1.358401e+02
2.810000e-06	3.937864e-06	2.013977e-09	2.794479e+01	1.365849e+02
2.820000e-06	3.969161e-06	2.029958e-09	2.816689e+01	1.373051e+02
2.830000e-06	4.000203e-06	2.041701e-09	2.838718e+01	1.380009e+02
2.840000e-06	4.030979e-06	2.050613e-09	2.860558e+01	1.386726e+02
2.850000e-06	4.061436e-06	2.062331e-09	2.882171e+01	1.393204e+02
2.860000e-06	4.091524e-06	2.075726e-09	2.903523e+01	1.399446e+02
2.870000e-06	4.121363e-06	2.084901e-09	2.924698e+01	1.405454e+02
2.880000e-06	4.151083e-06	2.089083e-09	2.945789e+01	1.411233e+02
2.890000e-06	4.180584e-06	2.093191e-09	2.966724e+01	1.416785e+02
2.900000e-06	4.209709e-06	2.100180e-09	2.987392e+01	1.422117e+02
