# Temperatura_=_-2.3
# Concentracion g/m^3_=_4090.0
# C_Vs_to_Am_M_A/Vsm_=_65563218390.804596
# pendiente_HvsI_1/m_=_3716.3
# ordenada_HvsI_A/m_=_1297.0
# frecuencia_Hz_=_135072.45527474332

Tiempo_(s)	Campo_(V.s)	Magnetizacion_(V.s)	Campo_(kA/m)	Magnetizacion_(A/m)
0.000000e+00	-5.406396e-06	-2.274618e-09	-3.840273e+01	-1.490019e+02
1.000000e-08	-5.406462e-06	-2.274205e-09	-3.840320e+01	-1.489451e+02
2.000000e-08	-5.406364e-06	-2.273777e-09	-3.840250e+01	-1.488928e+02
3.000000e-08	-5.406074e-06	-2.271923e-09	-3.840044e+01	-1.488460e+02
4.000000e-08	-5.405443e-06	-2.271303e-09	-3.839596e+01	-1.488058e+02
5.000000e-08	-5.404297e-06	-2.272913e-09	-3.838782e+01	-1.487730e+02
6.000000e-08	-5.402613e-06	-2.271244e-09	-3.837586e+01	-1.487484e+02
7.000000e-08	-5.400335e-06	-2.259082e-09	-3.835967e+01	-1.487325e+02
8.000000e-08	-5.397385e-06	-2.242747e-09	-3.833872e+01	-1.487258e+02
9.000000e-08	-5.393740e-06	-2.276465e-09	-3.831283e+01	-1.487284e+02
1.000000e-07	-5.389618e-06	-2.363770e-09	-3.828355e+01	-1.487404e+02
1.100000e-07	-5.385301e-06	-2.354690e-09	-3.825289e+01	-1.487616e+02
1.200000e-07	-5.380902e-06	-2.209374e-09	-3.822164e+01	-1.487917e+02
1.300000e-07	-5.376260e-06	-2.219321e-09	-3.818867e+01	-1.488302e+02
1.400000e-07	-5.371114e-06	-2.341056e-09	-3.815212e+01	-1.488764e+02
1.500000e-07	-5.365512e-06	-2.353474e-09	-3.811232e+01	-1.489294e+02
1.600000e-07	-5.359625e-06	-2.169608e-09	-3.807051e+01	-1.489883e+02
1.700000e-07	-5.353467e-06	-2.170412e-09	-3.802676e+01	-1.490520e+02
1.800000e-07	-5.346809e-06	-2.386345e-09	-3.797947e+01	-1.491193e+02
1.900000e-07	-5.339620e-06	-2.417359e-09	-3.792840e+01	-1.491889e+02
2.000000e-07	-5.332155e-06	-2.261255e-09	-3.787538e+01	-1.492596e+02
2.100000e-07	-5.324548e-06	-2.244171e-09	-3.782135e+01	-1.493299e+02
2.200000e-07	-5.316728e-06	-2.393173e-09	-3.776580e+01	-1.493986e+02
2.300000e-07	-5.308652e-06	-2.359249e-09	-3.770843e+01	-1.494643e+02
2.400000e-07	-5.300317e-06	-2.269209e-09	-3.764923e+01	-1.495257e+02
2.500000e-07	-5.291435e-06	-2.338385e-09	-3.758614e+01	-1.495816e+02
2.600000e-07	-5.281696e-06	-2.437828e-09	-3.751696e+01	-1.496310e+02
2.700000e-07	-5.271248e-06	-2.347838e-09	-3.744274e+01	-1.496728e+02
2.800000e-07	-5.260385e-06	-2.322816e-09	-3.736559e+01	-1.497061e+02
2.900000e-07	-5.249109e-06	-2.415104e-09	-3.728549e+01	-1.497301e+02
3.000000e-07	-5.237386e-06	-2.389452e-09	-3.720222e+01	-1.497443e+02
3.100000e-07	-5.225296e-06	-2.269410e-09	-3.711634e+01	-1.497482e+02
3.200000e-07	-5.212821e-06	-2.339374e-09	-3.702772e+01	-1.497414e+02
3.300000e-07	-5.199882e-06	-2.435925e-09	-3.693581e+01	-1.497239e+02
3.400000e-07	-5.186568e-06	-2.351229e-09	-3.684125e+01	-1.496955e+02
3.500000e-07	-5.172889e-06	-2.283509e-09	-3.674408e+01	-1.496565e+02
3.600000e-07	-5.158834e-06	-2.368676e-09	-3.664424e+01	-1.496071e+02
3.700000e-07	-5.144511e-06	-2.372927e-09	-3.654251e+01	-1.495477e+02
3.800000e-07	-5.129681e-06	-2.302700e-09	-3.643717e+01	-1.494787e+02
3.900000e-07	-5.114154e-06	-2.320275e-09	-3.632687e+01	-1.494008e+02
4.000000e-07	-5.098021e-06	-2.350142e-09	-3.621228e+01	-1.493147e+02
4.100000e-07	-5.081487e-06	-2.310861e-09	-3.609483e+01	-1.492211e+02
4.200000e-07	-5.064606e-06	-2.324772e-09	-3.597493e+01	-1.491207e+02
4.300000e-07	-5.047348e-06	-2.361961e-09	-3.585234e+01	-1.490144e+02
4.400000e-07	-5.029834e-06	-2.301871e-09	-3.572793e+01	-1.489030e+02
4.500000e-07	-5.012078e-06	-2.278298e-09	-3.560181e+01	-1.487873e+02
4.600000e-07	-4.993979e-06	-2.334041e-09	-3.547324e+01	-1.486681e+02
4.700000e-07	-4.975541e-06	-2.339555e-09	-3.534228e+01	-1.485462e+02
4.800000e-07	-4.956731e-06	-2.286628e-09	-3.520866e+01	-1.484221e+02
4.900000e-07	-4.937441e-06	-2.305716e-09	-3.507165e+01	-1.482966e+02
5.000000e-07	-4.917751e-06	-2.330302e-09	-3.493179e+01	-1.481703e+02
5.100000e-07	-4.897823e-06	-2.321315e-09	-3.479023e+01	-1.480436e+02
5.200000e-07	-4.877731e-06	-2.304615e-09	-3.464751e+01	-1.479169e+02
5.300000e-07	-4.857496e-06	-2.300741e-09	-3.450378e+01	-1.477906e+02
5.400000e-07	-4.837047e-06	-2.289311e-09	-3.435853e+01	-1.476649e+02
5.500000e-07	-4.816257e-06	-2.311468e-09	-3.421085e+01	-1.475400e+02
5.600000e-07	-4.795023e-06	-2.311203e-09	-3.406002e+01	-1.474160e+02
5.700000e-07	-4.773402e-06	-2.285587e-09	-3.390645e+01	-1.472928e+02
5.800000e-07	-4.751497e-06	-2.281685e-09	-3.375085e+01	-1.471704e+02
5.900000e-07	-4.729342e-06	-2.307117e-09	-3.359348e+01	-1.470487e+02
6.000000e-07	-4.706915e-06	-2.298715e-09	-3.343418e+01	-1.469275e+02
6.100000e-07	-4.684134e-06	-2.278605e-09	-3.327235e+01	-1.468065e+02
6.200000e-07	-4.660935e-06	-2.268708e-09	-3.310757e+01	-1.466855e+02
6.300000e-07	-4.637348e-06	-2.276228e-09	-3.294002e+01	-1.465642e+02
6.400000e-07	-4.613560e-06	-2.285146e-09	-3.277106e+01	-1.464423e+02
6.500000e-07	-4.589629e-06	-2.277588e-09	-3.260106e+01	-1.463195e+02
6.600000e-07	-4.565444e-06	-2.255228e-09	-3.242928e+01	-1.461954e+02
6.700000e-07	-4.540935e-06	-2.257783e-09	-3.225518e+01	-1.460697e+02
6.800000e-07	-4.516101e-06	-2.273308e-09	-3.207878e+01	-1.459421e+02
6.900000e-07	-4.490854e-06	-2.263684e-09	-3.189945e+01	-1.458122e+02
7.000000e-07	-4.465004e-06	-2.244292e-09	-3.171583e+01	-1.456799e+02
7.100000e-07	-4.438572e-06	-2.242789e-09	-3.152808e+01	-1.455449e+02
7.200000e-07	-4.411711e-06	-2.253722e-09	-3.133728e+01	-1.454068e+02
7.300000e-07	-4.384468e-06	-2.250924e-09	-3.114377e+01	-1.452655e+02
7.400000e-07	-4.356869e-06	-2.236482e-09	-3.094772e+01	-1.451208e+02
7.500000e-07	-4.329015e-06	-2.224341e-09	-3.074987e+01	-1.449726e+02
7.600000e-07	-4.301054e-06	-2.235561e-09	-3.055126e+01	-1.448206e+02
7.700000e-07	-4.272945e-06	-2.241977e-09	-3.035160e+01	-1.446649e+02
7.800000e-07	-4.244549e-06	-2.233313e-09	-3.014990e+01	-1.445052e+02
7.900000e-07	-4.215846e-06	-2.221114e-09	-2.994601e+01	-1.443415e+02
8.000000e-07	-4.186797e-06	-2.227243e-09	-2.973967e+01	-1.441738e+02
8.100000e-07	-4.157498e-06	-2.230380e-09	-2.953155e+01	-1.440019e+02
8.200000e-07	-4.127960e-06	-2.223586e-09	-2.932174e+01	-1.438259e+02
8.300000e-07	-4.098086e-06	-2.208708e-09	-2.910954e+01	-1.436457e+02
8.400000e-07	-4.067928e-06	-2.204748e-09	-2.889532e+01	-1.434613e+02
8.500000e-07	-4.037477e-06	-2.207740e-09	-2.867902e+01	-1.432727e+02
8.600000e-07	-4.006777e-06	-2.207867e-09	-2.846095e+01	-1.430799e+02
8.700000e-07	-3.975883e-06	-2.195163e-09	-2.824151e+01	-1.428828e+02
8.800000e-07	-3.944708e-06	-2.190237e-09	-2.802006e+01	-1.426815e+02
8.900000e-07	-3.913226e-06	-2.196045e-09	-2.779644e+01	-1.424760e+02
9.000000e-07	-3.881580e-06	-2.201599e-09	-2.757165e+01	-1.422664e+02
9.100000e-07	-3.849709e-06	-2.190662e-09	-2.734527e+01	-1.420526e+02
9.200000e-07	-3.817596e-06	-2.177511e-09	-2.711716e+01	-1.418348e+02
9.300000e-07	-3.785414e-06	-2.172067e-09	-2.688856e+01	-1.416130e+02
9.400000e-07	-3.753068e-06	-2.169826e-09	-2.665880e+01	-1.413874e+02
9.500000e-07	-3.720369e-06	-2.161876e-09	-2.642654e+01	-1.411580e+02
9.600000e-07	-3.687323e-06	-2.153668e-09	-2.619181e+01	-1.409249e+02
9.700000e-07	-3.653870e-06	-2.155771e-09	-2.595418e+01	-1.406885e+02
9.800000e-07	-3.619857e-06	-2.162038e-09	-2.571258e+01	-1.404488e+02
9.900000e-07	-3.585286e-06	-2.158594e-09	-2.546702e+01	-1.402060e+02
1.000000e-06	-3.550371e-06	-2.145153e-09	-2.521901e+01	-1.399605e+02
1.010000e-06	-3.515192e-06	-2.135166e-09	-2.496912e+01	-1.397123e+02
1.020000e-06	-3.479689e-06	-2.128827e-09	-2.471693e+01	-1.394619e+02
1.030000e-06	-3.444002e-06	-2.119471e-09	-2.446345e+01	-1.392095e+02
1.040000e-06	-3.408196e-06	-2.107572e-09	-2.420911e+01	-1.389553e+02
1.050000e-06	-3.372252e-06	-2.105171e-09	-2.395379e+01	-1.386996e+02
1.060000e-06	-3.336209e-06	-2.109182e-09	-2.369777e+01	-1.384427e+02
1.070000e-06	-3.300003e-06	-2.112624e-09	-2.344059e+01	-1.381848e+02
1.080000e-06	-3.263566e-06	-2.107739e-09	-2.318177e+01	-1.379262e+02
1.090000e-06	-3.226875e-06	-2.100995e-09	-2.292115e+01	-1.376670e+02
1.100000e-06	-3.189881e-06	-2.095029e-09	-2.265838e+01	-1.374074e+02
1.110000e-06	-3.152612e-06	-2.089613e-09	-2.239364e+01	-1.371474e+02
1.120000e-06	-3.115153e-06	-2.078811e-09	-2.212756e+01	-1.368872e+02
1.130000e-06	-3.077553e-06	-2.070831e-09	-2.186049e+01	-1.366267e+02
1.140000e-06	-3.039731e-06	-2.069257e-09	-2.159183e+01	-1.363658e+02
1.150000e-06	-3.001711e-06	-2.071265e-09	-2.132176e+01	-1.361043e+02
1.160000e-06	-2.963518e-06	-2.065963e-09	-2.105047e+01	-1.358420e+02
1.170000e-06	-2.925101e-06	-2.057732e-09	-2.077758e+01	-1.355785e+02
1.180000e-06	-2.886440e-06	-2.053114e-09	-2.050297e+01	-1.353135e+02
1.190000e-06	-2.847528e-06	-2.050120e-09	-2.022657e+01	-1.350465e+02
1.200000e-06	-2.808436e-06	-2.038733e-09	-1.994889e+01	-1.347770e+02
1.210000e-06	-2.769198e-06	-2.023421e-09	-1.967018e+01	-1.345042e+02
1.220000e-06	-2.729798e-06	-2.014155e-09	-1.939031e+01	-1.342276e+02
1.230000e-06	-2.690188e-06	-2.014283e-09	-1.910896e+01	-1.339464e+02
1.240000e-06	-2.650401e-06	-2.014790e-09	-1.882634e+01	-1.336599e+02
1.250000e-06	-2.610507e-06	-2.011047e-09	-1.854296e+01	-1.333672e+02
1.260000e-06	-2.570531e-06	-2.005135e-09	-1.825900e+01	-1.330675e+02
1.270000e-06	-2.530488e-06	-1.999376e-09	-1.797457e+01	-1.327601e+02
1.280000e-06	-2.490325e-06	-1.992545e-09	-1.768928e+01	-1.324441e+02
1.290000e-06	-2.450014e-06	-1.980281e-09	-1.740295e+01	-1.321187e+02
1.300000e-06	-2.409572e-06	-1.966649e-09	-1.711568e+01	-1.317832e+02
1.310000e-06	-2.369010e-06	-1.957942e-09	-1.682756e+01	-1.314369e+02
1.320000e-06	-2.328278e-06	-1.953300e-09	-1.653823e+01	-1.310793e+02
1.330000e-06	-2.287282e-06	-1.947774e-09	-1.624703e+01	-1.307097e+02
1.340000e-06	-2.245888e-06	-1.943222e-09	-1.595300e+01	-1.303277e+02
1.350000e-06	-2.204190e-06	-1.939128e-09	-1.565681e+01	-1.299330e+02
1.360000e-06	-2.162265e-06	-1.933776e-09	-1.535900e+01	-1.295253e+02
1.370000e-06	-2.120054e-06	-1.924756e-09	-1.505917e+01	-1.291044e+02
1.380000e-06	-2.077619e-06	-1.913674e-09	-1.475775e+01	-1.286704e+02
1.390000e-06	-2.034971e-06	-1.903353e-09	-1.445481e+01	-1.282232e+02
1.400000e-06	-1.992043e-06	-1.895643e-09	-1.414989e+01	-1.277631e+02
1.410000e-06	-1.948763e-06	-1.887923e-09	-1.384246e+01	-1.272903e+02
1.420000e-06	-1.905243e-06	-1.880885e-09	-1.353333e+01	-1.268051e+02
1.430000e-06	-1.861696e-06	-1.873093e-09	-1.322401e+01	-1.263079e+02
1.440000e-06	-1.818078e-06	-1.863753e-09	-1.291418e+01	-1.257992e+02
1.450000e-06	-1.774255e-06	-1.853227e-09	-1.260289e+01	-1.252796e+02
1.460000e-06	-1.730351e-06	-1.844173e-09	-1.229104e+01	-1.247496e+02
1.470000e-06	-1.686452e-06	-1.834906e-09	-1.197921e+01	-1.242096e+02
1.480000e-06	-1.642512e-06	-1.826442e-09	-1.166710e+01	-1.236603e+02
1.490000e-06	-1.598475e-06	-1.818518e-09	-1.135429e+01	-1.231020e+02
1.500000e-06	-1.554335e-06	-1.811273e-09	-1.104076e+01	-1.225354e+02
1.510000e-06	-1.510155e-06	-1.802259e-09	-1.072694e+01	-1.219607e+02
1.520000e-06	-1.465964e-06	-1.791129e-09	-1.041304e+01	-1.213782e+02
1.530000e-06	-1.421756e-06	-1.779519e-09	-1.009902e+01	-1.207881e+02
1.540000e-06	-1.377475e-06	-1.770192e-09	-9.784488e+00	-1.201903e+02
1.550000e-06	-1.333078e-06	-1.763385e-09	-9.469124e+00	-1.195850e+02
1.560000e-06	-1.288581e-06	-1.757131e-09	-9.153053e+00	-1.189717e+02
1.570000e-06	-1.244032e-06	-1.750969e-09	-8.836612e+00	-1.183500e+02
1.580000e-06	-1.199441e-06	-1.743867e-09	-8.519875e+00	-1.177196e+02
1.590000e-06	-1.154773e-06	-1.732947e-09	-8.202585e+00	-1.170795e+02
1.600000e-06	-1.110023e-06	-1.718815e-09	-7.884719e+00	-1.164290e+02
1.610000e-06	-1.065219e-06	-1.703850e-09	-7.566467e+00	-1.157670e+02
1.620000e-06	-1.020285e-06	-1.690352e-09	-7.247288e+00	-1.150924e+02
1.630000e-06	-9.752669e-07	-1.680387e-09	-6.927519e+00	-1.144037e+02
1.640000e-06	-9.301811e-07	-1.672122e-09	-6.607266e+00	-1.136996e+02
1.650000e-06	-8.849394e-07	-1.665130e-09	-6.285904e+00	-1.129786e+02
1.660000e-06	-8.396393e-07	-1.657972e-09	-5.964129e+00	-1.122388e+02
1.670000e-06	-7.942969e-07	-1.648302e-09	-5.642053e+00	-1.114787e+02
1.680000e-06	-7.488934e-07	-1.634523e-09	-5.319542e+00	-1.106965e+02
1.690000e-06	-7.034070e-07	-1.615760e-09	-4.996443e+00	-1.098902e+02
1.700000e-06	-6.578693e-07	-1.595371e-09	-4.672979e+00	-1.090581e+02
1.710000e-06	-6.122602e-07	-1.579494e-09	-4.349008e+00	-1.081983e+02
1.720000e-06	-5.665725e-07	-1.567288e-09	-4.024480e+00	-1.073090e+02
1.730000e-06	-5.208989e-07	-1.556948e-09	-3.700051e+00	-1.063883e+02
1.740000e-06	-4.752555e-07	-1.545968e-09	-3.375837e+00	-1.054345e+02
1.750000e-06	-4.295704e-07	-1.537187e-09	-3.051326e+00	-1.044460e+02
1.760000e-06	-3.838006e-07	-1.528032e-09	-2.726214e+00	-1.034210e+02
1.770000e-06	-3.379836e-07	-1.512774e-09	-2.400766e+00	-1.023580e+02
1.780000e-06	-2.921225e-07	-1.488080e-09	-2.075006e+00	-1.012555e+02
1.790000e-06	-2.462775e-07	-1.460582e-09	-1.749359e+00	-1.001121e+02
1.800000e-06	-2.004483e-07	-1.438015e-09	-1.423825e+00	-9.892652e+01
1.810000e-06	-1.546315e-07	-1.419981e-09	-1.098379e+00	-9.769738e+01
1.820000e-06	-1.088261e-07	-1.402931e-09	-7.730141e-01	-9.642350e+01
1.830000e-06	-6.300716e-08	-1.387002e-09	-4.475527e-01	-9.510372e+01
1.840000e-06	-1.722125e-08	-1.373155e-09	-1.223260e-01	-9.373689e+01
1.850000e-06	2.857467e-08	-1.356730e-09	2.029717e-01	-9.232190e+01
1.860000e-06	7.443003e-08	-1.331873e-09	5.286916e-01	-9.085765e+01
1.870000e-06	1.203442e-07	-1.300477e-09	8.548290e-01	-8.934301e+01
1.880000e-06	1.662439e-07	-1.269524e-09	1.180864e+00	-8.777684e+01
1.890000e-06	2.120257e-07	-1.242584e-09	1.506062e+00	-8.615796e+01
1.900000e-06	2.577517e-07	-1.217674e-09	1.830863e+00	-8.448513e+01
1.910000e-06	3.034820e-07	-1.193462e-09	2.155694e+00	-8.275706e+01
1.920000e-06	3.492891e-07	-1.171782e-09	2.481071e+00	-8.097237e+01
1.930000e-06	3.951440e-07	-1.150631e-09	2.806788e+00	-7.912963e+01
1.940000e-06	4.409607e-07	-1.125780e-09	3.132233e+00	-7.722730e+01
1.950000e-06	4.867243e-07	-1.093262e-09	3.457302e+00	-7.526380e+01
1.960000e-06	5.323978e-07	-1.058425e-09	3.781730e+00	-7.323747e+01
1.970000e-06	5.780021e-07	-1.026729e-09	4.105666e+00	-7.114658e+01
1.980000e-06	6.235435e-07	-9.944978e-10	4.429156e+00	-6.898939e+01
1.990000e-06	6.690246e-07	-9.590423e-10	4.752217e+00	-6.676413e+01
2.000000e-06	7.145335e-07	-9.248981e-10	5.075476e+00	-6.446904e+01
2.010000e-06	7.600561e-07	-8.931307e-10	5.398833e+00	-6.210240e+01
2.020000e-06	8.054601e-07	-8.614138e-10	5.721347e+00	-5.966258e+01
2.030000e-06	8.507373e-07	-8.257218e-10	6.042960e+00	-5.714803e+01
2.040000e-06	8.959742e-07	-7.883450e-10	6.364286e+00	-5.455740e+01
2.050000e-06	9.411687e-07	-7.509267e-10	6.685313e+00	-5.188950e+01
2.060000e-06	9.862991e-07	-7.111873e-10	7.005883e+00	-4.914340e+01
2.070000e-06	1.031335e-06	-6.674955e-10	7.325779e+00	-4.631844e+01
2.080000e-06	1.076248e-06	-6.221644e-10	7.644809e+00	-4.341431e+01
2.090000e-06	1.121065e-06	-5.783509e-10	7.963151e+00	-4.043105e+01
2.100000e-06	1.165805e-06	-5.368460e-10	8.280951e+00	-3.736913e+01
2.110000e-06	1.210452e-06	-4.940908e-10	8.598088e+00	-3.422945e+01
2.120000e-06	1.254971e-06	-4.480395e-10	8.914314e+00	-3.101342e+01
2.130000e-06	1.299404e-06	-4.017086e-10	9.229928e+00	-2.772293e+01
2.140000e-06	1.343736e-06	-3.541801e-10	9.544828e+00	-2.436042e+01
2.150000e-06	1.387969e-06	-3.023043e-10	9.859026e+00	-2.092886e+01
2.160000e-06	1.432189e-06	-2.459379e-10	1.017313e+01	-1.743180e+01
2.170000e-06	1.476414e-06	-1.885186e-10	1.048727e+01	-1.387332e+01
2.180000e-06	1.520620e-06	-1.329147e-10	1.080128e+01	-1.025805e+01
2.190000e-06	1.564776e-06	-7.965685e-11	1.111492e+01	-6.591161e+00
2.200000e-06	1.608837e-06	-2.771021e-11	1.142790e+01	-2.878319e+00
2.210000e-06	1.652831e-06	2.297618e-11	1.174039e+01	8.743295e-01
2.220000e-06	1.696768e-06	7.539040e-11	1.205249e+01	4.660209e+00
2.230000e-06	1.740585e-06	1.329778e-10	1.236373e+01	8.472356e+00
2.240000e-06	1.784300e-06	1.943822e-10	1.267425e+01	1.230348e+01
2.250000e-06	1.827964e-06	2.559422e-10	1.298440e+01	1.614601e+01
2.260000e-06	1.871509e-06	3.164843e-10	1.329371e+01	1.999217e+01
2.270000e-06	1.914964e-06	3.745459e-10	1.360238e+01	2.383407e+01
2.280000e-06	1.958310e-06	4.293980e-10	1.391027e+01	2.766373e+01
2.290000e-06	2.001476e-06	4.817145e-10	1.421689e+01	3.147318e+01
2.300000e-06	2.044464e-06	5.357867e-10	1.452224e+01	3.525457e+01
2.310000e-06	2.087173e-06	5.932523e-10	1.482561e+01	3.900018e+01
2.320000e-06	2.129657e-06	6.503303e-10	1.512738e+01	4.270254e+01
2.330000e-06	2.171813e-06	7.037708e-10	1.542683e+01	4.635448e+01
2.340000e-06	2.213497e-06	7.556636e-10	1.572292e+01	4.994920e+01
2.350000e-06	2.254941e-06	8.073487e-10	1.601730e+01	5.348034e+01
2.360000e-06	2.296128e-06	8.575793e-10	1.630987e+01	5.694204e+01
2.370000e-06	2.337005e-06	9.058360e-10	1.660022e+01	6.032895e+01
2.380000e-06	2.377684e-06	9.530376e-10	1.688917e+01	6.363633e+01
2.390000e-06	2.418161e-06	1.000597e-09	1.717669e+01	6.686002e+01
2.400000e-06	2.458447e-06	1.046242e-09	1.746285e+01	6.999652e+01
2.410000e-06	2.498607e-06	1.088888e-09	1.774811e+01	7.304296e+01
2.420000e-06	2.538673e-06	1.127832e-09	1.803271e+01	7.599713e+01
2.430000e-06	2.578689e-06	1.166723e-09	1.831695e+01	7.885748e+01
2.440000e-06	2.618634e-06	1.208948e-09	1.860069e+01	8.162307e+01
2.450000e-06	2.658455e-06	1.251427e-09	1.888355e+01	8.429360e+01
2.460000e-06	2.698194e-06	1.290954e-09	1.916582e+01	8.686936e+01
2.470000e-06	2.737780e-06	1.328123e-09	1.944701e+01	8.935116e+01
2.480000e-06	2.777148e-06	1.363466e-09	1.972665e+01	9.174035e+01
2.490000e-06	2.816254e-06	1.394731e-09	2.000442e+01	9.403872e+01
2.500000e-06	2.855086e-06	1.421788e-09	2.028026e+01	9.624846e+01
2.510000e-06	2.893627e-06	1.448569e-09	2.055402e+01	9.837212e+01
2.520000e-06	2.932000e-06	1.477693e-09	2.082659e+01	1.004125e+02
2.530000e-06	2.970319e-06	1.509828e-09	2.109878e+01	1.023728e+02
2.540000e-06	3.008465e-06	1.541991e-09	2.136974e+01	1.042561e+02
2.550000e-06	3.046389e-06	1.572925e-09	2.163912e+01	1.060658e+02
2.560000e-06	3.084103e-06	1.601757e-09	2.190701e+01	1.078053e+02
2.570000e-06	3.121617e-06	1.626766e-09	2.217348e+01	1.094780e+02
2.580000e-06	3.158867e-06	1.647994e-09	2.243807e+01	1.110873e+02
2.590000e-06	3.195826e-06	1.666106e-09	2.270060e+01	1.126363e+02
2.600000e-06	3.232590e-06	1.684827e-09	2.296175e+01	1.141283e+02
2.610000e-06	3.269101e-06	1.705736e-09	2.322109e+01	1.155661e+02
2.620000e-06	3.305415e-06	1.725814e-09	2.347903e+01	1.169526e+02
2.630000e-06	3.341647e-06	1.745332e-09	2.373639e+01	1.182902e+02
2.640000e-06	3.377745e-06	1.766019e-09	2.399281e+01	1.195813e+02
2.650000e-06	3.413720e-06	1.785567e-09	2.424835e+01	1.208278e+02
2.660000e-06	3.449519e-06	1.800778e-09	2.450263e+01	1.220318e+02
2.670000e-06	3.485111e-06	1.813364e-09	2.475545e+01	1.231946e+02
2.680000e-06	3.520528e-06	1.828138e-09	2.500703e+01	1.243177e+02
2.690000e-06	3.555705e-06	1.844423e-09	2.525689e+01	1.254023e+02
2.700000e-06	3.590597e-06	1.858864e-09	2.550474e+01	1.264492e+02
2.710000e-06	3.625017e-06	1.872104e-09	2.574923e+01	1.274593e+02
2.720000e-06	3.658888e-06	1.888816e-09	2.598983e+01	1.284333e+02
2.730000e-06	3.692306e-06	1.907027e-09	2.622720e+01	1.293716e+02
2.740000e-06	3.725312e-06	1.921040e-09	2.646164e+01	1.302748e+02
2.750000e-06	3.757952e-06	1.931427e-09	2.669350e+01	1.311432e+02
2.760000e-06	3.790227e-06	1.942556e-09	2.692275e+01	1.319771e+02
2.770000e-06	3.822310e-06	1.953217e-09	2.715064e+01	1.327771e+02
2.780000e-06	3.854336e-06	1.961785e-09	2.737813e+01	1.335434e+02
2.790000e-06	3.886245e-06	1.972837e-09	2.760478e+01	1.342765e+02
2.800000e-06	3.917942e-06	1.986024e-09	2.782994e+01	1.349769e+02
2.810000e-06	3.949453e-06	1.999113e-09	2.805377e+01	1.356452e+02
2.820000e-06	3.980730e-06	2.009591e-09	2.827593e+01	1.362822e+02
2.830000e-06	4.011616e-06	2.014656e-09	2.849533e+01	1.368886e+02
2.840000e-06	4.042090e-06	2.018356e-09	2.871178e+01	1.374654e+02
2.850000e-06	4.072187e-06	2.023112e-09	2.892557e+01	1.380135e+02
2.860000e-06	4.102035e-06	2.029314e-09	2.913759e+01	1.385342e+02
2.870000e-06	4.131759e-06	2.035877e-09	2.934872e+01	1.390285e+02
2.880000e-06	4.161261e-06	2.044342e-09	2.955828e+01	1.394979e+02
2.890000e-06	4.190443e-06	2.053026e-09	2.976557e+01	1.399437e+02
2.900000e-06	4.219335e-06	2.059870e-09	2.997079e+01	1.403673e+02
