# Temperatura_=_-1.0
# Concentracion g/m^3_=_4090.0
# C_Vs_to_Am_M_A/Vsm_=_65563218390.804596
# pendiente_HvsI_1/m_=_3716.3
# ordenada_HvsI_A/m_=_1297.0
# frecuencia_Hz_=_135059.31371827124

Tiempo_(s)	Campo_(V.s)	Magnetizacion_(V.s)	Campo_(kA/m)	Magnetizacion_(A/m)
0.000000e+00	-5.381437e-06	-2.616492e-09	-3.840329e+01	-1.689178e+02
1.000000e-08	-5.381654e-06	-2.614955e-09	-3.840484e+01	-1.688200e+02
2.000000e-08	-5.381661e-06	-2.609497e-09	-3.840489e+01	-1.687260e+02
3.000000e-08	-5.381363e-06	-2.601197e-09	-3.840276e+01	-1.686382e+02
4.000000e-08	-5.380686e-06	-2.596666e-09	-3.839794e+01	-1.685588e+02
5.000000e-08	-5.379558e-06	-2.601638e-09	-3.838988e+01	-1.684901e+02
6.000000e-08	-5.377930e-06	-2.627583e-09	-3.837827e+01	-1.684341e+02
7.000000e-08	-5.375713e-06	-2.663936e-09	-3.836245e+01	-1.683925e+02
8.000000e-08	-5.372860e-06	-2.612978e-09	-3.834209e+01	-1.683671e+02
9.000000e-08	-5.369513e-06	-2.477779e-09	-3.831820e+01	-1.683590e+02
1.000000e-07	-5.365748e-06	-2.535349e-09	-3.829134e+01	-1.683692e+02
1.100000e-07	-5.361614e-06	-2.731339e-09	-3.826183e+01	-1.683985e+02
1.200000e-07	-5.357171e-06	-2.713953e-09	-3.823012e+01	-1.684472e+02
1.300000e-07	-5.352418e-06	-2.474934e-09	-3.819620e+01	-1.685153e+02
1.400000e-07	-5.347377e-06	-2.492463e-09	-3.816023e+01	-1.686023e+02
1.500000e-07	-5.342017e-06	-2.779110e-09	-3.812198e+01	-1.687075e+02
1.600000e-07	-5.336193e-06	-2.763366e-09	-3.808042e+01	-1.688299e+02
1.700000e-07	-5.330036e-06	-2.459150e-09	-3.803648e+01	-1.689680e+02
1.800000e-07	-5.323663e-06	-2.459176e-09	-3.799101e+01	-1.691200e+02
1.900000e-07	-5.316887e-06	-2.736025e-09	-3.794265e+01	-1.692841e+02
2.000000e-07	-5.309672e-06	-2.730746e-09	-3.789116e+01	-1.694579e+02
2.100000e-07	-5.302107e-06	-2.550781e-09	-3.783717e+01	-1.696391e+02
2.200000e-07	-5.294325e-06	-2.636353e-09	-3.778164e+01	-1.698249e+02
2.300000e-07	-5.286322e-06	-2.789460e-09	-3.772453e+01	-1.700127e+02
2.400000e-07	-5.277917e-06	-2.660750e-09	-3.766455e+01	-1.701997e+02
2.500000e-07	-5.269096e-06	-2.562417e-09	-3.760160e+01	-1.703830e+02
2.600000e-07	-5.259711e-06	-2.706921e-09	-3.753462e+01	-1.705600e+02
2.700000e-07	-5.249695e-06	-2.734023e-09	-3.746315e+01	-1.707279e+02
2.800000e-07	-5.239117e-06	-2.559961e-09	-3.738766e+01	-1.708841e+02
2.900000e-07	-5.228027e-06	-2.617832e-09	-3.730852e+01	-1.710263e+02
3.000000e-07	-5.216501e-06	-2.793357e-09	-3.722627e+01	-1.711523e+02
3.100000e-07	-5.204609e-06	-2.671804e-09	-3.714141e+01	-1.712600e+02
3.200000e-07	-5.192422e-06	-2.510198e-09	-3.705444e+01	-1.713480e+02
3.300000e-07	-5.179871e-06	-2.642277e-09	-3.696487e+01	-1.714147e+02
3.400000e-07	-5.166819e-06	-2.719809e-09	-3.687172e+01	-1.714592e+02
3.500000e-07	-5.153344e-06	-2.600612e-09	-3.677556e+01	-1.714806e+02
3.600000e-07	-5.139612e-06	-2.601096e-09	-3.667757e+01	-1.714787e+02
3.700000e-07	-5.125527e-06	-2.697372e-09	-3.657705e+01	-1.714533e+02
3.800000e-07	-5.110915e-06	-2.641579e-09	-3.647278e+01	-1.714048e+02
3.900000e-07	-5.095840e-06	-2.608183e-09	-3.636520e+01	-1.713336e+02
4.000000e-07	-5.080263e-06	-2.654212e-09	-3.625404e+01	-1.712407e+02
4.100000e-07	-5.064147e-06	-2.589776e-09	-3.613903e+01	-1.711271e+02
4.200000e-07	-5.047582e-06	-2.529803e-09	-3.602082e+01	-1.709942e+02
4.300000e-07	-5.030639e-06	-2.631085e-09	-3.589991e+01	-1.708436e+02
4.400000e-07	-5.013394e-06	-2.668467e-09	-3.577685e+01	-1.706769e+02
4.500000e-07	-4.995806e-06	-2.572489e-09	-3.565133e+01	-1.704959e+02
4.600000e-07	-4.977906e-06	-2.579077e-09	-3.552360e+01	-1.703026e+02
4.700000e-07	-4.959707e-06	-2.646292e-09	-3.539372e+01	-1.700989e+02
4.800000e-07	-4.941107e-06	-2.616757e-09	-3.526099e+01	-1.698866e+02
4.900000e-07	-4.922091e-06	-2.559260e-09	-3.512529e+01	-1.696678e+02
5.000000e-07	-4.902802e-06	-2.563869e-09	-3.498763e+01	-1.694442e+02
5.100000e-07	-4.883181e-06	-2.576349e-09	-3.484761e+01	-1.692174e+02
5.200000e-07	-4.863209e-06	-2.600947e-09	-3.470509e+01	-1.689890e+02
5.300000e-07	-4.843012e-06	-2.599735e-09	-3.456095e+01	-1.687605e+02
5.400000e-07	-4.822609e-06	-2.562664e-09	-3.441536e+01	-1.685328e+02
5.500000e-07	-4.801932e-06	-2.556489e-09	-3.426780e+01	-1.683071e+02
5.600000e-07	-4.780992e-06	-2.595017e-09	-3.411837e+01	-1.680841e+02
5.700000e-07	-4.759690e-06	-2.577277e-09	-3.396635e+01	-1.678642e+02
5.800000e-07	-4.737952e-06	-2.536248e-09	-3.381122e+01	-1.676478e+02
5.900000e-07	-4.715905e-06	-2.535545e-09	-3.365389e+01	-1.674349e+02
6.000000e-07	-4.693609e-06	-2.560009e-09	-3.349478e+01	-1.672254e+02
6.100000e-07	-4.671048e-06	-2.564065e-09	-3.333378e+01	-1.670189e+02
6.200000e-07	-4.648115e-06	-2.545308e-09	-3.317012e+01	-1.668149e+02
6.300000e-07	-4.624730e-06	-2.517565e-09	-3.300324e+01	-1.666127e+02
6.400000e-07	-4.601058e-06	-2.530025e-09	-3.283431e+01	-1.664116e+02
6.500000e-07	-4.577216e-06	-2.554719e-09	-3.266417e+01	-1.662105e+02
6.600000e-07	-4.553113e-06	-2.533109e-09	-3.249216e+01	-1.660086e+02
6.700000e-07	-4.528721e-06	-2.499591e-09	-3.231809e+01	-1.658048e+02
6.800000e-07	-4.504047e-06	-2.511586e-09	-3.214201e+01	-1.655980e+02
6.900000e-07	-4.479087e-06	-2.534064e-09	-3.196390e+01	-1.653872e+02
7.000000e-07	-4.453708e-06	-2.525851e-09	-3.178278e+01	-1.651715e+02
7.100000e-07	-4.427844e-06	-2.503344e-09	-3.159821e+01	-1.649500e+02
7.200000e-07	-4.401540e-06	-2.494664e-09	-3.141050e+01	-1.647218e+02
7.300000e-07	-4.374838e-06	-2.508595e-09	-3.121995e+01	-1.644862e+02
7.400000e-07	-4.347698e-06	-2.514047e-09	-3.102627e+01	-1.642426e+02
7.500000e-07	-4.320089e-06	-2.496011e-09	-3.082925e+01	-1.639907e+02
7.600000e-07	-4.292176e-06	-2.483322e-09	-3.063005e+01	-1.637301e+02
7.700000e-07	-4.264078e-06	-2.495688e-09	-3.042953e+01	-1.634608e+02
7.800000e-07	-4.235766e-06	-2.496082e-09	-3.022750e+01	-1.631827e+02
7.900000e-07	-4.207248e-06	-2.474810e-09	-3.002399e+01	-1.628960e+02
8.000000e-07	-4.178507e-06	-2.455245e-09	-2.981888e+01	-1.626011e+02
8.100000e-07	-4.149454e-06	-2.458563e-09	-2.961155e+01	-1.622984e+02
8.200000e-07	-4.120078e-06	-2.468700e-09	-2.940191e+01	-1.619885e+02
8.300000e-07	-4.090411e-06	-2.469810e-09	-2.919020e+01	-1.616720e+02
8.400000e-07	-4.060459e-06	-2.455574e-09	-2.897646e+01	-1.613497e+02
8.500000e-07	-4.030200e-06	-2.450044e-09	-2.876053e+01	-1.610224e+02
8.600000e-07	-3.999657e-06	-2.450262e-09	-2.854257e+01	-1.606909e+02
8.700000e-07	-3.968856e-06	-2.439730e-09	-2.832276e+01	-1.603560e+02
8.800000e-07	-3.937810e-06	-2.414165e-09	-2.810121e+01	-1.600186e+02
8.900000e-07	-3.906566e-06	-2.400207e-09	-2.787824e+01	-1.596794e+02
9.000000e-07	-3.875069e-06	-2.406950e-09	-2.765347e+01	-1.593392e+02
9.100000e-07	-3.843364e-06	-2.414901e-09	-2.742722e+01	-1.589987e+02
9.200000e-07	-3.811489e-06	-2.404289e-09	-2.719975e+01	-1.586584e+02
9.300000e-07	-3.779397e-06	-2.390076e-09	-2.697074e+01	-1.583187e+02
9.400000e-07	-3.747061e-06	-2.386153e-09	-2.673997e+01	-1.579800e+02
9.500000e-07	-3.714465e-06	-2.385276e-09	-2.650736e+01	-1.576425e+02
9.600000e-07	-3.681633e-06	-2.373022e-09	-2.627306e+01	-1.573063e+02
9.700000e-07	-3.648514e-06	-2.357286e-09	-2.603672e+01	-1.569714e+02
9.800000e-07	-3.615129e-06	-2.351817e-09	-2.579848e+01	-1.566374e+02
9.900000e-07	-3.581363e-06	-2.352643e-09	-2.555751e+01	-1.563042e+02
1.000000e-06	-3.547097e-06	-2.345887e-09	-2.531298e+01	-1.559714e+02
1.010000e-06	-3.512424e-06	-2.332787e-09	-2.506554e+01	-1.556382e+02
1.020000e-06	-3.477369e-06	-2.323594e-09	-2.481538e+01	-1.553043e+02
1.030000e-06	-3.441949e-06	-2.317120e-09	-2.456261e+01	-1.549688e+02
1.040000e-06	-3.406233e-06	-2.311391e-09	-2.430774e+01	-1.546310e+02
1.050000e-06	-3.370301e-06	-2.303297e-09	-2.405132e+01	-1.542900e+02
1.060000e-06	-3.334265e-06	-2.296134e-09	-2.379415e+01	-1.539452e+02
1.070000e-06	-3.298110e-06	-2.292478e-09	-2.353615e+01	-1.535956e+02
1.080000e-06	-3.261811e-06	-2.287476e-09	-2.327710e+01	-1.532404e+02
1.090000e-06	-3.225346e-06	-2.273057e-09	-2.301688e+01	-1.528789e+02
1.100000e-06	-3.188701e-06	-2.256619e-09	-2.275538e+01	-1.525104e+02
1.110000e-06	-3.151802e-06	-2.249108e-09	-2.249205e+01	-1.521341e+02
1.120000e-06	-3.114618e-06	-2.249460e-09	-2.222670e+01	-1.517495e+02
1.130000e-06	-3.077257e-06	-2.245471e-09	-2.196008e+01	-1.513561e+02
1.140000e-06	-3.039738e-06	-2.238026e-09	-2.169234e+01	-1.509534e+02
1.150000e-06	-3.002032e-06	-2.231143e-09	-2.142326e+01	-1.505411e+02
1.160000e-06	-2.964062e-06	-2.225029e-09	-2.115230e+01	-1.501191e+02
1.170000e-06	-2.925868e-06	-2.213030e-09	-2.087973e+01	-1.496872e+02
1.180000e-06	-2.887501e-06	-2.197787e-09	-2.060594e+01	-1.492454e+02
1.190000e-06	-2.848925e-06	-2.186322e-09	-2.033065e+01	-1.487937e+02
1.200000e-06	-2.810148e-06	-2.183634e-09	-2.005392e+01	-1.483322e+02
1.210000e-06	-2.771152e-06	-2.181121e-09	-1.977564e+01	-1.478612e+02
1.220000e-06	-2.731888e-06	-2.174504e-09	-1.949544e+01	-1.473809e+02
1.230000e-06	-2.692378e-06	-2.164632e-09	-1.921349e+01	-1.468916e+02
1.240000e-06	-2.652680e-06	-2.154803e-09	-1.893019e+01	-1.463937e+02
1.250000e-06	-2.612868e-06	-2.146791e-09	-1.864608e+01	-1.458874e+02
1.260000e-06	-2.572978e-06	-2.139329e-09	-1.836142e+01	-1.453732e+02
1.270000e-06	-2.533007e-06	-2.126825e-09	-1.807618e+01	-1.448512e+02
1.280000e-06	-2.492944e-06	-2.115132e-09	-1.779028e+01	-1.443219e+02
1.290000e-06	-2.452766e-06	-2.108780e-09	-1.750356e+01	-1.437854e+02
1.300000e-06	-2.412433e-06	-2.103419e-09	-1.721573e+01	-1.432419e+02
1.310000e-06	-2.371928e-06	-2.093688e-09	-1.692668e+01	-1.426915e+02
1.320000e-06	-2.331338e-06	-2.082201e-09	-1.663702e+01	-1.421344e+02
1.330000e-06	-2.290559e-06	-2.074776e-09	-1.634601e+01	-1.415703e+02
1.340000e-06	-2.249516e-06	-2.069373e-09	-1.605312e+01	-1.409993e+02
1.350000e-06	-2.208315e-06	-2.060906e-09	-1.575910e+01	-1.404210e+02
1.360000e-06	-2.167011e-06	-2.047999e-09	-1.546434e+01	-1.398353e+02
1.370000e-06	-2.125444e-06	-2.036349e-09	-1.516771e+01	-1.392418e+02
1.380000e-06	-2.083577e-06	-2.027598e-09	-1.486893e+01	-1.386399e+02
1.390000e-06	-2.041412e-06	-2.019698e-09	-1.456803e+01	-1.380292e+02
1.400000e-06	-1.998860e-06	-2.009051e-09	-1.426437e+01	-1.374092e+02
1.410000e-06	-1.956121e-06	-1.999570e-09	-1.395938e+01	-1.367792e+02
1.420000e-06	-1.913210e-06	-1.993345e-09	-1.365315e+01	-1.361386e+02
1.430000e-06	-1.870111e-06	-1.986461e-09	-1.334558e+01	-1.354867e+02
1.440000e-06	-1.826806e-06	-1.973119e-09	-1.303655e+01	-1.348228e+02
1.450000e-06	-1.783285e-06	-1.957748e-09	-1.272598e+01	-1.341462e+02
1.460000e-06	-1.739708e-06	-1.946626e-09	-1.241500e+01	-1.334563e+02
1.470000e-06	-1.695994e-06	-1.938133e-09	-1.210304e+01	-1.327523e+02
1.480000e-06	-1.652139e-06	-1.926117e-09	-1.179008e+01	-1.320338e+02
1.490000e-06	-1.608224e-06	-1.913514e-09	-1.147670e+01	-1.312999e+02
1.500000e-06	-1.564216e-06	-1.903916e-09	-1.116264e+01	-1.305503e+02
1.510000e-06	-1.520145e-06	-1.894981e-09	-1.084814e+01	-1.297844e+02
1.520000e-06	-1.476058e-06	-1.881333e-09	-1.053352e+01	-1.290017e+02
1.530000e-06	-1.431878e-06	-1.865331e-09	-1.021824e+01	-1.282019e+02
1.540000e-06	-1.387573e-06	-1.854552e-09	-9.902075e+00	-1.273845e+02
1.550000e-06	-1.343255e-06	-1.847509e-09	-9.585806e+00	-1.265492e+02
1.560000e-06	-1.298931e-06	-1.837727e-09	-9.269499e+00	-1.256957e+02
1.570000e-06	-1.254516e-06	-1.824290e-09	-8.952545e+00	-1.248237e+02
1.580000e-06	-1.210073e-06	-1.812076e-09	-8.635386e+00	-1.239331e+02
1.590000e-06	-1.165625e-06	-1.801517e-09	-8.318193e+00	-1.230235e+02
1.600000e-06	-1.121058e-06	-1.786460e-09	-8.000154e+00	-1.220946e+02
1.610000e-06	-1.076331e-06	-1.765203e-09	-7.680969e+00	-1.211463e+02
1.620000e-06	-1.031527e-06	-1.742608e-09	-7.361235e+00	-1.201781e+02
1.630000e-06	-9.867035e-07	-1.727872e-09	-7.041366e+00	-1.191898e+02
1.640000e-06	-9.418041e-07	-1.716270e-09	-6.720952e+00	-1.181809e+02
1.650000e-06	-8.968153e-07	-1.701050e-09	-6.399901e+00	-1.171509e+02
1.660000e-06	-8.518047e-07	-1.685188e-09	-6.078693e+00	-1.160994e+02
1.670000e-06	-8.067662e-07	-1.672270e-09	-5.757287e+00	-1.150256e+02
1.680000e-06	-7.616038e-07	-1.658695e-09	-5.434997e+00	-1.139288e+02
1.690000e-06	-7.162729e-07	-1.636948e-09	-5.111505e+00	-1.128082e+02
1.700000e-06	-6.708951e-07	-1.609888e-09	-4.787677e+00	-1.116628e+02
1.710000e-06	-6.255276e-07	-1.585983e-09	-4.463923e+00	-1.104917e+02
1.720000e-06	-5.800985e-07	-1.569600e-09	-4.139729e+00	-1.092937e+02
1.730000e-06	-5.346952e-07	-1.554874e-09	-3.815720e+00	-1.080675e+02
1.740000e-06	-4.893220e-07	-1.536041e-09	-3.491925e+00	-1.068120e+02
1.750000e-06	-4.438240e-07	-1.516668e-09	-3.167240e+00	-1.055256e+02
1.760000e-06	-3.982123e-07	-1.501789e-09	-2.841744e+00	-1.042069e+02
1.770000e-06	-3.525792e-07	-1.484298e-09	-2.516094e+00	-1.028545e+02
1.780000e-06	-3.068781e-07	-1.456826e-09	-2.189960e+00	-1.014668e+02
1.790000e-06	-2.611732e-07	-1.425004e-09	-1.863798e+00	-1.000422e+02
1.800000e-06	-2.154979e-07	-1.400004e-09	-1.537847e+00	-9.857905e+01
1.810000e-06	-1.697902e-07	-1.380411e-09	-1.211666e+00	-9.707585e+01
1.820000e-06	-1.240830e-07	-1.360307e-09	-8.854874e-01	-9.553102e+01
1.830000e-06	-7.840709e-08	-1.338267e-09	-5.595328e-01	-9.394304e+01
1.840000e-06	-3.272981e-08	-1.317176e-09	-2.335682e-01	-9.231043e+01
1.850000e-06	1.292809e-08	-1.295892e-09	9.225815e-02	-9.063179e+01
1.860000e-06	5.858671e-08	-1.270751e-09	4.180896e-01	-8.890580e+01
1.870000e-06	1.042518e-07	-1.240057e-09	7.439675e-01	-8.713124e+01
1.880000e-06	1.499431e-07	-1.209649e-09	1.070032e+00	-8.530699e+01
1.890000e-06	1.956976e-07	-1.182072e-09	1.396548e+00	-8.343204e+01
1.900000e-06	2.413664e-07	-1.153496e-09	1.722452e+00	-8.150550e+01
1.910000e-06	2.869151e-07	-1.122405e-09	2.047498e+00	-7.952661e+01
1.920000e-06	3.325037e-07	-1.091766e-09	2.372830e+00	-7.749474e+01
1.930000e-06	3.781089e-07	-1.065416e-09	2.698280e+00	-7.540939e+01
1.940000e-06	4.236680e-07	-1.039601e-09	3.023402e+00	-7.327018e+01
1.950000e-06	4.692247e-07	-1.008038e-09	3.348506e+00	-7.107687e+01
1.960000e-06	5.146959e-07	-9.724916e-10	3.673000e+00	-6.882933e+01
1.970000e-06	5.601323e-07	-9.387701e-10	3.997245e+00	-6.652758e+01
1.980000e-06	6.054776e-07	-9.053092e-10	4.320841e+00	-6.417171e+01
1.990000e-06	6.506690e-07	-8.679116e-10	4.643338e+00	-6.176196e+01
2.000000e-06	6.958596e-07	-8.292712e-10	4.965830e+00	-5.929865e+01
2.010000e-06	7.411003e-07	-7.935026e-10	5.288679e+00	-5.678221e+01
2.020000e-06	7.863144e-07	-7.599586e-10	5.611338e+00	-5.421315e+01
2.030000e-06	8.313648e-07	-7.269589e-10	5.932829e+00	-5.159207e+01
2.040000e-06	8.762591e-07	-6.927371e-10	6.253206e+00	-4.891967e+01
2.050000e-06	9.211299e-07	-6.557620e-10	6.573415e+00	-4.619671e+01
2.060000e-06	9.660615e-07	-6.149241e-10	6.894059e+00	-4.342403e+01
2.070000e-06	1.010903e-06	-5.712532e-10	7.214059e+00	-4.060257e+01
2.080000e-06	1.055556e-06	-5.256205e-10	7.532716e+00	-3.773333e+01
2.090000e-06	1.100145e-06	-4.792526e-10	7.850914e+00	-3.481741e+01
2.100000e-06	1.144657e-06	-4.338657e-10	8.168563e+00	-3.185598e+01
2.110000e-06	1.189099e-06	-3.922763e-10	8.485710e+00	-2.885032e+01
2.120000e-06	1.233492e-06	-3.519395e-10	8.802508e+00	-2.580181e+01
2.130000e-06	1.277815e-06	-3.117015e-10	9.118810e+00	-2.271194e+01
2.140000e-06	1.322111e-06	-2.689742e-10	9.434921e+00	-1.958231e+01
2.150000e-06	1.366329e-06	-2.210859e-10	9.750469e+00	-1.641465e+01
2.160000e-06	1.410452e-06	-1.683482e-10	1.006534e+01	-1.321085e+01
2.170000e-06	1.454551e-06	-1.145170e-10	1.038004e+01	-9.972924e+00
2.180000e-06	1.498618e-06	-6.363864e-11	1.069451e+01	-6.703044e+00
2.190000e-06	1.542630e-06	-1.594475e-11	1.100860e+01	-3.403550e+00
2.200000e-06	1.586650e-06	3.051263e-11	1.132273e+01	-7.694993e-02
2.210000e-06	1.630618e-06	7.655391e-11	1.163650e+01	3.274076e+00
2.220000e-06	1.674443e-06	1.214320e-10	1.194925e+01	6.646674e+00
2.230000e-06	1.718229e-06	1.682167e-10	1.226172e+01	1.003781e+01
2.240000e-06	1.761957e-06	2.197964e-10	1.257377e+01	1.344429e+01
2.250000e-06	1.805526e-06	2.745399e-10	1.288469e+01	1.686274e+01
2.260000e-06	1.848989e-06	3.280849e-10	1.319485e+01	2.028964e+01
2.270000e-06	1.892297e-06	3.798444e-10	1.350391e+01	2.372131e+01
2.280000e-06	1.935345e-06	4.311534e-10	1.381111e+01	2.715397e+01
2.290000e-06	1.978133e-06	4.814036e-10	1.411645e+01	3.058370e+01
2.300000e-06	2.020598e-06	5.319292e-10	1.441950e+01	3.400649e+01
2.310000e-06	2.062791e-06	5.837709e-10	1.472060e+01	3.741828e+01
2.320000e-06	2.104801e-06	6.354795e-10	1.502039e+01	4.081496e+01
2.330000e-06	2.146576e-06	6.857607e-10	1.531851e+01	4.419241e+01
2.340000e-06	2.188004e-06	7.326813e-10	1.561415e+01	4.754650e+01
2.350000e-06	2.229117e-06	7.789200e-10	1.590754e+01	5.087317e+01
2.360000e-06	2.270048e-06	8.267718e-10	1.619964e+01	5.416842e+01
2.370000e-06	2.310796e-06	8.766899e-10	1.649042e+01	5.742838e+01
2.380000e-06	2.351337e-06	9.290062e-10	1.677974e+01	6.064929e+01
2.390000e-06	2.391673e-06	9.825823e-10	1.706758e+01	6.382756e+01
2.400000e-06	2.431883e-06	1.031489e-09	1.735453e+01	6.695979e+01
2.410000e-06	2.472033e-06	1.074593e-09	1.764105e+01	7.004281e+01
2.420000e-06	2.512109e-06	1.113297e-09	1.792704e+01	7.307368e+01
2.430000e-06	2.552092e-06	1.149821e-09	1.821238e+01	7.604971e+01
2.440000e-06	2.591979e-06	1.186429e-09	1.849701e+01	7.896851e+01
2.450000e-06	2.631745e-06	1.223062e-09	1.878080e+01	8.182796e+01
2.460000e-06	2.671350e-06	1.261341e-09	1.906343e+01	8.462625e+01
2.470000e-06	2.710759e-06	1.304518e-09	1.934466e+01	8.736185e+01
2.480000e-06	2.749940e-06	1.350582e-09	1.962426e+01	9.003356e+01
2.490000e-06	2.788913e-06	1.392613e-09	1.990239e+01	9.264047e+01
2.500000e-06	2.827663e-06	1.427911e-09	2.017892e+01	9.518195e+01
2.510000e-06	2.866203e-06	1.459083e-09	2.045395e+01	9.765768e+01
2.520000e-06	2.904617e-06	1.489157e-09	2.072808e+01	1.000676e+02
2.530000e-06	2.942850e-06	1.518220e-09	2.100092e+01	1.024119e+02
2.540000e-06	2.980912e-06	1.547138e-09	2.127254e+01	1.046909e+02
2.550000e-06	3.018852e-06	1.578876e-09	2.154329e+01	1.069053e+02
2.560000e-06	3.056609e-06	1.616161e-09	2.181273e+01	1.090560e+02
2.570000e-06	3.094101e-06	1.652124e-09	2.208029e+01	1.111438e+02
2.580000e-06	3.131302e-06	1.682238e-09	2.234576e+01	1.131699e+02
2.590000e-06	3.168235e-06	1.709465e-09	2.260933e+01	1.151355e+02
2.600000e-06	3.204853e-06	1.736124e-09	2.287064e+01	1.170419e+02
2.610000e-06	3.241273e-06	1.761056e-09	2.313054e+01	1.188905e+02
2.620000e-06	3.277586e-06	1.782818e-09	2.338968e+01	1.206825e+02
2.630000e-06	3.313755e-06	1.803664e-09	2.364779e+01	1.224194e+02
2.640000e-06	3.349819e-06	1.828478e-09	2.390515e+01	1.241027e+02
2.650000e-06	3.385758e-06	1.855593e-09	2.416162e+01	1.257337e+02
2.660000e-06	3.421544e-06	1.877563e-09	2.441700e+01	1.273136e+02
2.670000e-06	3.457061e-06	1.897092e-09	2.467046e+01	1.288439e+02
2.680000e-06	3.492302e-06	1.918199e-09	2.492195e+01	1.303257e+02
2.690000e-06	3.527274e-06	1.939540e-09	2.517152e+01	1.317601e+02
2.700000e-06	3.561785e-06	1.957126e-09	2.541780e+01	1.331484e+02
2.710000e-06	3.595845e-06	1.973582e-09	2.566086e+01	1.344916e+02
2.720000e-06	3.629468e-06	1.994163e-09	2.590080e+01	1.357906e+02
2.730000e-06	3.662673e-06	2.016520e-09	2.613776e+01	1.370464e+02
2.740000e-06	3.695580e-06	2.034354e-09	2.637259e+01	1.382598e+02
2.750000e-06	3.728200e-06	2.047521e-09	2.660538e+01	1.394319e+02
2.760000e-06	3.760636e-06	2.063306e-09	2.683685e+01	1.405633e+02
2.770000e-06	3.792917e-06	2.081672e-09	2.706721e+01	1.416549e+02
2.780000e-06	3.824944e-06	2.096853e-09	2.729577e+01	1.427075e+02
2.790000e-06	3.856791e-06	2.108548e-09	2.752303e+01	1.437220e+02
2.800000e-06	3.888436e-06	2.120718e-09	2.774886e+01	1.446993e+02
2.810000e-06	3.919821e-06	2.135027e-09	2.797284e+01	1.456401e+02
2.820000e-06	3.950949e-06	2.148756e-09	2.819497e+01	1.465455e+02
2.830000e-06	3.981747e-06	2.158728e-09	2.841475e+01	1.474165e+02
2.840000e-06	4.012211e-06	2.170469e-09	2.863215e+01	1.482539e+02
2.850000e-06	4.042436e-06	2.187615e-09	2.884785e+01	1.490590e+02
2.860000e-06	4.072435e-06	2.203338e-09	2.906193e+01	1.498328e+02
2.870000e-06	4.102191e-06	2.212547e-09	2.927427e+01	1.505765e+02
2.880000e-06	4.131657e-06	2.219675e-09	2.948455e+01	1.512913e+02
2.890000e-06	4.160843e-06	2.228311e-09	2.969282e+01	1.519786e+02
2.900000e-06	4.189821e-06	2.237557e-09	2.989962e+01	1.526395e+02
