# Temperatura_=_8.8
# Concentracion g/m^3_=_4090.0
# C_Vs_to_Am_M_A/Vsm_=_65563218390.804596
# pendiente_HvsI_1/m_=_3716.3
# ordenada_HvsI_A/m_=_1297.0
# frecuencia_Hz_=_135066.07207272534

Tiempo_(s)	Campo_(V.s)	Magnetizacion_(V.s)	Campo_(kA/m)	Magnetizacion_(A/m)
0.000000e+00	-5.375006e-06	-2.461808e-09	-3.840116e+01	-1.612167e+02
1.000000e-08	-5.374974e-06	-2.463207e-09	-3.840093e+01	-1.611504e+02
2.000000e-08	-5.374690e-06	-2.465046e-09	-3.839890e+01	-1.610891e+02
3.000000e-08	-5.374196e-06	-2.465165e-09	-3.839537e+01	-1.610340e+02
4.000000e-08	-5.373361e-06	-2.465089e-09	-3.838941e+01	-1.609862e+02
5.000000e-08	-5.371965e-06	-2.466203e-09	-3.837944e+01	-1.609469e+02
6.000000e-08	-5.369926e-06	-2.472047e-09	-3.836487e+01	-1.609169e+02
7.000000e-08	-5.367312e-06	-2.461784e-09	-3.834619e+01	-1.608968e+02
8.000000e-08	-5.364133e-06	-2.417864e-09	-3.832348e+01	-1.608872e+02
9.000000e-08	-5.360383e-06	-2.446845e-09	-3.829669e+01	-1.608883e+02
1.000000e-07	-5.356192e-06	-2.577174e-09	-3.826674e+01	-1.609003e+02
1.100000e-07	-5.351797e-06	-2.552741e-09	-3.823535e+01	-1.609230e+02
1.200000e-07	-5.347278e-06	-2.390108e-09	-3.820306e+01	-1.609560e+02
1.300000e-07	-5.342508e-06	-2.397612e-09	-3.816898e+01	-1.609987e+02
1.400000e-07	-5.337309e-06	-2.556483e-09	-3.813184e+01	-1.610505e+02
1.500000e-07	-5.331657e-06	-2.570310e-09	-3.809146e+01	-1.611103e+02
1.600000e-07	-5.325642e-06	-2.334608e-09	-3.804849e+01	-1.611770e+02
1.700000e-07	-5.319271e-06	-2.379790e-09	-3.800297e+01	-1.612494e+02
1.800000e-07	-5.312428e-06	-2.596798e-09	-3.795408e+01	-1.613259e+02
1.900000e-07	-5.305223e-06	-2.612258e-09	-3.790260e+01	-1.614052e+02
2.000000e-07	-5.297760e-06	-2.420264e-09	-3.784928e+01	-1.614854e+02
2.100000e-07	-5.290055e-06	-2.474187e-09	-3.779424e+01	-1.615651e+02
2.200000e-07	-5.282148e-06	-2.620722e-09	-3.773774e+01	-1.616425e+02
2.300000e-07	-5.273978e-06	-2.540225e-09	-3.767938e+01	-1.617159e+02
2.400000e-07	-5.265421e-06	-2.449948e-09	-3.761824e+01	-1.617836e+02
2.500000e-07	-5.256376e-06	-2.573176e-09	-3.755362e+01	-1.618441e+02
2.600000e-07	-5.246651e-06	-2.648776e-09	-3.748414e+01	-1.618958e+02
2.700000e-07	-5.236238e-06	-2.505403e-09	-3.740974e+01	-1.619373e+02
2.800000e-07	-5.225399e-06	-2.513496e-09	-3.733231e+01	-1.619673e+02
2.900000e-07	-5.214143e-06	-2.637975e-09	-3.725189e+01	-1.619847e+02
3.000000e-07	-5.202390e-06	-2.565351e-09	-3.716792e+01	-1.619885e+02
3.100000e-07	-5.190205e-06	-2.414532e-09	-3.708087e+01	-1.619780e+02
3.200000e-07	-5.177650e-06	-2.539921e-09	-3.699117e+01	-1.619525e+02
3.300000e-07	-5.164766e-06	-2.621060e-09	-3.689912e+01	-1.619116e+02
3.400000e-07	-5.151557e-06	-2.503879e-09	-3.680476e+01	-1.618551e+02
3.500000e-07	-5.137816e-06	-2.459324e-09	-3.670658e+01	-1.617828e+02
3.600000e-07	-5.123654e-06	-2.574942e-09	-3.660541e+01	-1.616951e+02
3.700000e-07	-5.109229e-06	-2.528956e-09	-3.650234e+01	-1.615921e+02
3.800000e-07	-5.094366e-06	-2.465464e-09	-3.639616e+01	-1.614743e+02
3.900000e-07	-5.078979e-06	-2.508323e-09	-3.628623e+01	-1.613424e+02
4.000000e-07	-5.063041e-06	-2.522563e-09	-3.617236e+01	-1.611971e+02
4.100000e-07	-5.046618e-06	-2.455735e-09	-3.605503e+01	-1.610392e+02
4.200000e-07	-5.029785e-06	-2.505955e-09	-3.593476e+01	-1.608697e+02
4.300000e-07	-5.012661e-06	-2.531387e-09	-3.581242e+01	-1.606896e+02
4.400000e-07	-4.995281e-06	-2.460042e-09	-3.568826e+01	-1.604999e+02
4.500000e-07	-4.977546e-06	-2.448583e-09	-3.556155e+01	-1.603017e+02
4.600000e-07	-4.959538e-06	-2.509238e-09	-3.543289e+01	-1.600960e+02
4.700000e-07	-4.941204e-06	-2.485565e-09	-3.530190e+01	-1.598839e+02
4.800000e-07	-4.922426e-06	-2.447652e-09	-3.516775e+01	-1.596663e+02
4.900000e-07	-4.903158e-06	-2.468948e-09	-3.503010e+01	-1.594443e+02
5.000000e-07	-4.883505e-06	-2.477740e-09	-3.488969e+01	-1.592187e+02
5.100000e-07	-4.863650e-06	-2.471639e-09	-3.474783e+01	-1.589903e+02
5.200000e-07	-4.843634e-06	-2.462526e-09	-3.460483e+01	-1.587597e+02
5.300000e-07	-4.823394e-06	-2.439641e-09	-3.446022e+01	-1.585276e+02
5.400000e-07	-4.802882e-06	-2.434651e-09	-3.431368e+01	-1.582944e+02
5.500000e-07	-4.782092e-06	-2.463960e-09	-3.416515e+01	-1.580605e+02
5.600000e-07	-4.760920e-06	-2.443972e-09	-3.401389e+01	-1.578261e+02
5.700000e-07	-4.739388e-06	-2.421499e-09	-3.386005e+01	-1.575914e+02
5.800000e-07	-4.717525e-06	-2.433247e-09	-3.370386e+01	-1.573565e+02
5.900000e-07	-4.695352e-06	-2.444823e-09	-3.354545e+01	-1.571212e+02
6.000000e-07	-4.672861e-06	-2.424247e-09	-3.338476e+01	-1.568854e+02
6.100000e-07	-4.650041e-06	-2.418269e-09	-3.322173e+01	-1.566490e+02
6.200000e-07	-4.626936e-06	-2.400520e-09	-3.305666e+01	-1.564117e+02
6.300000e-07	-4.603530e-06	-2.402184e-09	-3.288944e+01	-1.561731e+02
6.400000e-07	-4.579844e-06	-2.415471e-09	-3.272021e+01	-1.559329e+02
6.500000e-07	-4.555880e-06	-2.408492e-09	-3.254900e+01	-1.556908e+02
6.600000e-07	-4.531681e-06	-2.377977e-09	-3.237611e+01	-1.554464e+02
6.700000e-07	-4.507248e-06	-2.391119e-09	-3.220156e+01	-1.551992e+02
6.800000e-07	-4.482435e-06	-2.403134e-09	-3.202428e+01	-1.549490e+02
6.900000e-07	-4.457190e-06	-2.389802e-09	-3.184392e+01	-1.546955e+02
7.000000e-07	-4.431537e-06	-2.371588e-09	-3.166064e+01	-1.544383e+02
7.100000e-07	-4.405412e-06	-2.375952e-09	-3.147400e+01	-1.541772e+02
7.200000e-07	-4.378765e-06	-2.380028e-09	-3.128362e+01	-1.539121e+02
7.300000e-07	-4.351658e-06	-2.381662e-09	-3.108996e+01	-1.536428e+02
7.400000e-07	-4.324261e-06	-2.366481e-09	-3.089423e+01	-1.533692e+02
7.500000e-07	-4.296570e-06	-2.354532e-09	-3.069639e+01	-1.530913e+02
7.600000e-07	-4.268559e-06	-2.358794e-09	-3.049626e+01	-1.528093e+02
7.700000e-07	-4.240345e-06	-2.361077e-09	-3.029469e+01	-1.525230e+02
7.800000e-07	-4.211934e-06	-2.345678e-09	-3.009172e+01	-1.522328e+02
7.900000e-07	-4.183247e-06	-2.335399e-09	-2.988676e+01	-1.519388e+02
8.000000e-07	-4.154243e-06	-2.339027e-09	-2.967955e+01	-1.516412e+02
8.100000e-07	-4.124973e-06	-2.342181e-09	-2.947044e+01	-1.513402e+02
8.200000e-07	-4.095457e-06	-2.337032e-09	-2.925956e+01	-1.510361e+02
8.300000e-07	-4.065709e-06	-2.320682e-09	-2.904703e+01	-1.507291e+02
8.400000e-07	-4.035714e-06	-2.312544e-09	-2.883273e+01	-1.504196e+02
8.500000e-07	-4.005391e-06	-2.312315e-09	-2.861609e+01	-1.501077e+02
8.600000e-07	-3.974807e-06	-2.308543e-09	-2.839759e+01	-1.497936e+02
8.700000e-07	-3.943940e-06	-2.292400e-09	-2.817706e+01	-1.494776e+02
8.800000e-07	-3.912716e-06	-2.285159e-09	-2.795399e+01	-1.491597e+02
8.900000e-07	-3.881232e-06	-2.287496e-09	-2.772905e+01	-1.488401e+02
9.000000e-07	-3.849594e-06	-2.292212e-09	-2.750302e+01	-1.485189e+02
9.100000e-07	-3.817821e-06	-2.281407e-09	-2.727602e+01	-1.481960e+02
9.200000e-07	-3.785876e-06	-2.270722e-09	-2.704779e+01	-1.478714e+02
9.300000e-07	-3.753701e-06	-2.262987e-09	-2.681792e+01	-1.475450e+02
9.400000e-07	-3.721279e-06	-2.261831e-09	-2.658628e+01	-1.472166e+02
9.500000e-07	-3.688584e-06	-2.251374e-09	-2.635270e+01	-1.468861e+02
9.600000e-07	-3.655563e-06	-2.243254e-09	-2.611678e+01	-1.465531e+02
9.700000e-07	-3.622228e-06	-2.241856e-09	-2.587862e+01	-1.462174e+02
9.800000e-07	-3.588463e-06	-2.245044e-09	-2.563739e+01	-1.458787e+02
9.900000e-07	-3.554201e-06	-2.235628e-09	-2.539261e+01	-1.455365e+02
1.000000e-06	-3.519632e-06	-2.221765e-09	-2.514563e+01	-1.451905e+02
1.010000e-06	-3.484737e-06	-2.208181e-09	-2.489633e+01	-1.448404e+02
1.020000e-06	-3.449477e-06	-2.200200e-09	-2.464442e+01	-1.444857e+02
1.030000e-06	-3.413946e-06	-2.193590e-09	-2.439058e+01	-1.441260e+02
1.040000e-06	-3.378179e-06	-2.190988e-09	-2.413504e+01	-1.437609e+02
1.050000e-06	-3.342234e-06	-2.190261e-09	-2.387823e+01	-1.433901e+02
1.060000e-06	-3.306119e-06	-2.189109e-09	-2.362021e+01	-1.430133e+02
1.070000e-06	-3.269864e-06	-2.180641e-09	-2.336120e+01	-1.426300e+02
1.080000e-06	-3.233422e-06	-2.165502e-09	-2.310084e+01	-1.422401e+02
1.090000e-06	-3.196804e-06	-2.151341e-09	-2.283923e+01	-1.418432e+02
1.100000e-06	-3.159987e-06	-2.142116e-09	-2.257619e+01	-1.414392e+02
1.110000e-06	-3.122953e-06	-2.136648e-09	-2.231161e+01	-1.410278e+02
1.120000e-06	-3.085695e-06	-2.131058e-09	-2.204542e+01	-1.406090e+02
1.130000e-06	-3.048168e-06	-2.127874e-09	-2.177732e+01	-1.401825e+02
1.140000e-06	-3.010486e-06	-2.126297e-09	-2.150810e+01	-1.397484e+02
1.150000e-06	-2.972676e-06	-2.120669e-09	-2.123797e+01	-1.393066e+02
1.160000e-06	-2.934640e-06	-2.106128e-09	-2.096622e+01	-1.388569e+02
1.170000e-06	-2.896347e-06	-2.091366e-09	-2.069264e+01	-1.383996e+02
1.180000e-06	-2.857823e-06	-2.079365e-09	-2.041741e+01	-1.379344e+02
1.190000e-06	-2.818989e-06	-2.073208e-09	-2.013997e+01	-1.374614e+02
1.200000e-06	-2.780015e-06	-2.065215e-09	-1.986152e+01	-1.369806e+02
1.210000e-06	-2.740976e-06	-2.058510e-09	-1.958261e+01	-1.364920e+02
1.220000e-06	-2.701749e-06	-2.053085e-09	-1.930236e+01	-1.359956e+02
1.230000e-06	-2.662260e-06	-2.051122e-09	-1.902023e+01	-1.354913e+02
1.240000e-06	-2.622579e-06	-2.043189e-09	-1.873674e+01	-1.349789e+02
1.250000e-06	-2.582813e-06	-2.032643e-09	-1.845264e+01	-1.344585e+02
1.260000e-06	-2.542902e-06	-2.021235e-09	-1.816750e+01	-1.339299e+02
1.270000e-06	-2.502868e-06	-2.013153e-09	-1.788148e+01	-1.333929e+02
1.280000e-06	-2.462730e-06	-2.004688e-09	-1.759471e+01	-1.328473e+02
1.290000e-06	-2.422550e-06	-1.995699e-09	-1.730765e+01	-1.322928e+02
1.300000e-06	-2.382291e-06	-1.985769e-09	-1.702002e+01	-1.317293e+02
1.310000e-06	-2.341852e-06	-1.977414e-09	-1.673111e+01	-1.311563e+02
1.320000e-06	-2.301213e-06	-1.969498e-09	-1.644077e+01	-1.305737e+02
1.330000e-06	-2.260375e-06	-1.960993e-09	-1.614901e+01	-1.299809e+02
1.340000e-06	-2.219367e-06	-1.952418e-09	-1.585603e+01	-1.293778e+02
1.350000e-06	-2.178069e-06	-1.942788e-09	-1.556098e+01	-1.287639e+02
1.360000e-06	-2.136329e-06	-1.932413e-09	-1.526278e+01	-1.281388e+02
1.370000e-06	-2.094350e-06	-1.921848e-09	-1.496286e+01	-1.275023e+02
1.380000e-06	-2.052244e-06	-1.909531e-09	-1.466204e+01	-1.268539e+02
1.390000e-06	-2.009872e-06	-1.896857e-09	-1.435932e+01	-1.261934e+02
1.400000e-06	-1.967354e-06	-1.886886e-09	-1.405556e+01	-1.255204e+02
1.410000e-06	-1.924726e-06	-1.878695e-09	-1.375100e+01	-1.248346e+02
1.420000e-06	-1.881767e-06	-1.868255e-09	-1.344408e+01	-1.241359e+02
1.430000e-06	-1.838551e-06	-1.854653e-09	-1.313533e+01	-1.234239e+02
1.440000e-06	-1.795230e-06	-1.840507e-09	-1.282583e+01	-1.226985e+02
1.450000e-06	-1.751742e-06	-1.827117e-09	-1.251513e+01	-1.219595e+02
1.460000e-06	-1.708129e-06	-1.816812e-09	-1.220354e+01	-1.212069e+02
1.470000e-06	-1.664397e-06	-1.805646e-09	-1.189110e+01	-1.204405e+02
1.480000e-06	-1.620514e-06	-1.795621e-09	-1.157759e+01	-1.196602e+02
1.490000e-06	-1.576567e-06	-1.787445e-09	-1.126361e+01	-1.188661e+02
1.500000e-06	-1.532578e-06	-1.778221e-09	-1.094934e+01	-1.180580e+02
1.510000e-06	-1.488529e-06	-1.761226e-09	-1.063464e+01	-1.172359e+02
1.520000e-06	-1.444405e-06	-1.737040e-09	-1.031940e+01	-1.163997e+02
1.530000e-06	-1.400234e-06	-1.714454e-09	-1.000382e+01	-1.155494e+02
1.540000e-06	-1.356040e-06	-1.699496e-09	-9.688084e+00	-1.146848e+02
1.550000e-06	-1.311778e-06	-1.691081e-09	-9.371859e+00	-1.138057e+02
1.560000e-06	-1.267458e-06	-1.685008e-09	-9.055217e+00	-1.129120e+02
1.570000e-06	-1.223132e-06	-1.676511e-09	-8.738537e+00	-1.120033e+02
1.580000e-06	-1.178800e-06	-1.665704e-09	-8.421809e+00	-1.110793e+02
1.590000e-06	-1.134363e-06	-1.649865e-09	-8.104333e+00	-1.101394e+02
1.600000e-06	-1.089771e-06	-1.629647e-09	-7.785751e+00	-1.091831e+02
1.610000e-06	-1.045115e-06	-1.603743e-09	-7.466712e+00	-1.082097e+02
1.620000e-06	-1.000373e-06	-1.582969e-09	-7.147056e+00	-1.072184e+02
1.630000e-06	-9.555284e-07	-1.569125e-09	-6.826671e+00	-1.062083e+02
1.640000e-06	-9.105865e-07	-1.559719e-09	-6.505589e+00	-1.051783e+02
1.650000e-06	-8.655938e-07	-1.551494e-09	-6.184143e+00	-1.041273e+02
1.660000e-06	-8.205873e-07	-1.541372e-09	-5.862599e+00	-1.030541e+02
1.670000e-06	-7.754557e-07	-1.526055e-09	-5.540161e+00	-1.019572e+02
1.680000e-06	-7.302337e-07	-1.501488e-09	-5.217077e+00	-1.008351e+02
1.690000e-06	-6.849847e-07	-1.469881e-09	-4.893801e+00	-9.968630e+01
1.700000e-06	-6.396635e-07	-1.439078e-09	-4.570008e+00	-9.850909e+01
1.710000e-06	-5.943240e-07	-1.417784e-09	-4.246085e+00	-9.730175e+01
1.720000e-06	-5.489727e-07	-1.405708e-09	-3.922077e+00	-9.606249e+01
1.730000e-06	-5.035463e-07	-1.395100e-09	-3.597533e+00	-9.478949e+01
1.740000e-06	-4.581163e-07	-1.381116e-09	-3.272963e+00	-9.348090e+01
1.750000e-06	-4.127221e-07	-1.365224e-09	-2.948649e+00	-9.213488e+01
1.760000e-06	-3.672732e-07	-1.345942e-09	-2.623944e+00	-9.074962e+01
1.770000e-06	-3.216566e-07	-1.318714e-09	-2.298041e+00	-8.932333e+01
1.780000e-06	-2.759791e-07	-1.284482e-09	-1.971703e+00	-8.785429e+01
1.790000e-06	-2.303264e-07	-1.254821e-09	-1.645542e+00	-8.634086e+01
1.800000e-06	-1.847406e-07	-1.232668e-09	-1.319859e+00	-8.478150e+01
1.810000e-06	-1.392626e-07	-1.214538e-09	-9.949472e-01	-8.317478e+01
1.820000e-06	-9.383394e-08	-1.193020e-09	-6.703866e-01	-8.151937e+01
1.830000e-06	-4.842617e-08	-1.168278e-09	-3.459756e-01	-7.981413e+01
1.840000e-06	-2.920666e-09	-1.143475e-09	-2.086639e-02	-7.805805e+01
1.850000e-06	4.266715e-08	-1.118896e-09	3.048310e-01	-7.625026e+01
1.860000e-06	8.827574e-08	-1.087672e-09	6.306766e-01	-7.439011e+01
1.870000e-06	1.339128e-07	-1.052668e-09	9.567255e-01	-7.247709e+01
1.880000e-06	1.794415e-07	-1.020438e-09	1.282001e+00	-7.051087e+01
1.890000e-06	2.249109e-07	-9.932146e-10	1.606852e+00	-6.849130e+01
1.900000e-06	2.703980e-07	-9.641159e-10	1.931830e+00	-6.641842e+01
1.910000e-06	3.158080e-07	-9.310831e-10	2.256257e+00	-6.429242e+01
1.920000e-06	3.612537e-07	-8.989035e-10	2.580939e+00	-6.211368e+01
1.930000e-06	4.067749e-07	-8.701188e-10	2.906160e+00	-5.988273e+01
1.940000e-06	4.522837e-07	-8.402905e-10	3.231293e+00	-5.760023e+01
1.950000e-06	4.977345e-07	-8.049874e-10	3.556011e+00	-5.526701e+01
1.960000e-06	5.430607e-07	-7.676511e-10	3.879840e+00	-5.288401e+01
1.970000e-06	5.882197e-07	-7.314911e-10	4.202474e+00	-5.045230e+01
1.980000e-06	6.333752e-07	-6.950105e-10	4.525082e+00	-4.797306e+01
1.990000e-06	6.786353e-07	-6.559521e-10	4.848438e+00	-4.544754e+01
2.000000e-06	7.237776e-07	-6.173680e-10	5.170953e+00	-4.287711e+01
2.010000e-06	7.688059e-07	-5.818202e-10	5.492652e+00	-4.026318e+01
2.020000e-06	8.138374e-07	-5.475756e-10	5.814375e+00	-3.760726e+01
2.030000e-06	8.588009e-07	-5.110254e-10	6.135612e+00	-3.491089e+01
2.040000e-06	9.036738e-07	-4.718930e-10	6.456201e+00	-3.217568e+01
2.050000e-06	9.484877e-07	-4.316391e-10	6.776370e+00	-2.940326e+01
2.060000e-06	9.931955e-07	-3.910566e-10	7.095780e+00	-2.659533e+01
2.070000e-06	1.037804e-06	-3.480153e-10	7.414478e+00	-2.375360e+01
2.080000e-06	1.082423e-06	-3.042529e-10	7.733253e+00	-2.087985e+01
2.090000e-06	1.126988e-06	-2.620955e-10	8.051647e+00	-1.797587e+01
2.100000e-06	1.171457e-06	-2.218885e-10	8.369348e+00	-1.504351e+01
2.110000e-06	1.215893e-06	-1.800809e-10	8.686816e+00	-1.208463e+01
2.120000e-06	1.260265e-06	-1.373771e-10	9.003832e+00	-9.101177e+00
2.130000e-06	1.304531e-06	-9.556912e-11	9.320081e+00	-6.095123e+00
2.140000e-06	1.348687e-06	-5.376067e-11	9.635549e+00	-3.068500e+00
2.150000e-06	1.392795e-06	-7.240690e-12	9.950678e+00	-2.340460e-02
2.160000e-06	1.436890e-06	4.274443e-11	1.026571e+01	3.038006e+00
2.170000e-06	1.480954e-06	9.067022e-11	1.058052e+01	6.113502e+00
2.180000e-06	1.524963e-06	1.345695e-10	1.089494e+01	9.200784e+00
2.190000e-06	1.568941e-06	1.763828e-10	1.120913e+01	1.229747e+01
2.200000e-06	1.612930e-06	2.204508e-10	1.152341e+01	1.540112e+01
2.210000e-06	1.656807e-06	2.671985e-10	1.183688e+01	1.850918e+01
2.220000e-06	1.700440e-06	3.133696e-10	1.214861e+01	2.161906e+01
2.230000e-06	1.743924e-06	3.593919e-10	1.245928e+01	2.472807e+01
2.240000e-06	1.787333e-06	4.075114e-10	1.276941e+01	2.783348e+01
2.250000e-06	1.830645e-06	4.563714e-10	1.307885e+01	3.093246e+01
2.260000e-06	1.873834e-06	5.013116e-10	1.338741e+01	3.402218e+01
2.270000e-06	1.916797e-06	5.414851e-10	1.369435e+01	3.709973e+01
2.280000e-06	1.959462e-06	5.825049e-10	1.399917e+01	4.016219e+01
2.290000e-06	2.001851e-06	6.282565e-10	1.430201e+01	4.320662e+01
2.300000e-06	2.044019e-06	6.759392e-10	1.460328e+01	4.623011e+01
2.310000e-06	2.085983e-06	7.212915e-10	1.490308e+01	4.922973e+01
2.320000e-06	2.127723e-06	7.660706e-10	1.520129e+01	5.220261e+01
2.330000e-06	2.169262e-06	8.086824e-10	1.549806e+01	5.514596e+01
2.340000e-06	2.210589e-06	8.467065e-10	1.579332e+01	5.805701e+01
2.350000e-06	2.251630e-06	8.830010e-10	1.608653e+01	6.093314e+01
2.360000e-06	2.292394e-06	9.219812e-10	1.637777e+01	6.377181e+01
2.370000e-06	2.332989e-06	9.655397e-10	1.666779e+01	6.657062e+01
2.380000e-06	2.373379e-06	1.012740e-09	1.695636e+01	6.932732e+01
2.390000e-06	2.413588e-06	1.057935e-09	1.724362e+01	7.203981e+01
2.400000e-06	2.453700e-06	1.098211e-09	1.753020e+01	7.470616e+01
2.410000e-06	2.493743e-06	1.133070e-09	1.781628e+01	7.732465e+01
2.420000e-06	2.533712e-06	1.164609e-09	1.810183e+01	7.989373e+01
2.430000e-06	2.573559e-06	1.196409e-09	1.838652e+01	8.241205e+01
2.440000e-06	2.613305e-06	1.229620e-09	1.867048e+01	8.487848e+01
2.450000e-06	2.652936e-06	1.264501e-09	1.895362e+01	8.729209e+01
2.460000e-06	2.692505e-06	1.300738e-09	1.923632e+01	8.965214e+01
2.470000e-06	2.731917e-06	1.337643e-09	1.951789e+01	9.195809e+01
2.480000e-06	2.771003e-06	1.373158e-09	1.979714e+01	9.420963e+01
2.490000e-06	2.809870e-06	1.405230e-09	2.007482e+01	9.640658e+01
2.500000e-06	2.848603e-06	1.433754e-09	2.035154e+01	9.854898e+01
2.510000e-06	2.887076e-06	1.460891e-09	2.062641e+01	1.006370e+02
2.520000e-06	2.925270e-06	1.488054e-09	2.089928e+01	1.026710e+02
2.530000e-06	2.963266e-06	1.515278e-09	2.117074e+01	1.046514e+02
2.540000e-06	3.001053e-06	1.542940e-09	2.144070e+01	1.065788e+02
2.550000e-06	3.038689e-06	1.572700e-09	2.170959e+01	1.084540e+02
2.560000e-06	3.076131e-06	1.601398e-09	2.197709e+01	1.102775e+02
2.570000e-06	3.113314e-06	1.627372e-09	2.224274e+01	1.120504e+02
2.580000e-06	3.150265e-06	1.650393e-09	2.250673e+01	1.137735e+02
2.590000e-06	3.186991e-06	1.671914e-09	2.276912e+01	1.154476e+02
2.600000e-06	3.223493e-06	1.695378e-09	2.302990e+01	1.170738e+02
2.610000e-06	3.259831e-06	1.718735e-09	2.328952e+01	1.186530e+02
2.620000e-06	3.296065e-06	1.740514e-09	2.354839e+01	1.201861e+02
2.630000e-06	3.332143e-06	1.761893e-09	2.380614e+01	1.216740e+02
2.640000e-06	3.368041e-06	1.783790e-09	2.406261e+01	1.231178e+02
2.650000e-06	3.403777e-06	1.803928e-09	2.431793e+01	1.245181e+02
2.660000e-06	3.439357e-06	1.820777e-09	2.457212e+01	1.258760e+02
2.670000e-06	3.474807e-06	1.836661e-09	2.482539e+01	1.271922e+02
2.680000e-06	3.509999e-06	1.852944e-09	2.507682e+01	1.284676e+02
2.690000e-06	3.544731e-06	1.868271e-09	2.532496e+01	1.297028e+02
2.700000e-06	3.579022e-06	1.883871e-09	2.556994e+01	1.308985e+02
2.710000e-06	3.612829e-06	1.902911e-09	2.581147e+01	1.320556e+02
2.720000e-06	3.646093e-06	1.923390e-09	2.604913e+01	1.331747e+02
2.730000e-06	3.678939e-06	1.940988e-09	2.628379e+01	1.342565e+02
2.740000e-06	3.711497e-06	1.953550e-09	2.651640e+01	1.353016e+02
2.750000e-06	3.743820e-06	1.964799e-09	2.674732e+01	1.363106e+02
2.760000e-06	3.775975e-06	1.977461e-09	2.697705e+01	1.372844e+02
2.770000e-06	3.807969e-06	1.989943e-09	2.720563e+01	1.382236e+02
2.780000e-06	3.839785e-06	2.003298e-09	2.743294e+01	1.391290e+02
2.790000e-06	3.871399e-06	2.018185e-09	2.765880e+01	1.400012e+02
2.800000e-06	3.902725e-06	2.033388e-09	2.788260e+01	1.408411e+02
2.810000e-06	3.933792e-06	2.046552e-09	2.810456e+01	1.416495e+02
2.820000e-06	3.964706e-06	2.055189e-09	2.832542e+01	1.424272e+02
2.830000e-06	3.995418e-06	2.062549e-09	2.854484e+01	1.431753e+02
2.840000e-06	4.025755e-06	2.072555e-09	2.876158e+01	1.438946e+02
2.850000e-06	4.055778e-06	2.084667e-09	2.897607e+01	1.445861e+02
2.860000e-06	4.085597e-06	2.098541e-09	2.918911e+01	1.452508e+02
2.870000e-06	4.115153e-06	2.111304e-09	2.940028e+01	1.458897e+02
2.880000e-06	4.144393e-06	2.118903e-09	2.960918e+01	1.465041e+02
2.890000e-06	4.173246e-06	2.122138e-09	2.981531e+01	1.470948e+02
2.900000e-06	4.201844e-06	2.124957e-09	3.001963e+01	1.476630e+02
