# Temperatura_=_-1.3
# Concentracion g/m^3_=_4090.0
# C_Vs_to_Am_M_A/Vsm_=_65563218390.804596
# pendiente_HvsI_1/m_=_3716.3
# ordenada_HvsI_A/m_=_1297.0
# frecuencia_Hz_=_135063.65656864576

Tiempo_(s)	Campo_(V.s)	Magnetizacion_(V.s)	Campo_(kA/m)	Magnetizacion_(A/m)
0.000000e+00	-5.400386e-06	-2.486966e-09	-3.839796e+01	-1.615461e+02
1.000000e-08	-5.400586e-06	-2.485384e-09	-3.839938e+01	-1.614587e+02
2.000000e-08	-5.400585e-06	-2.487511e-09	-3.839937e+01	-1.613719e+02
3.000000e-08	-5.400388e-06	-2.487565e-09	-3.839797e+01	-1.612874e+02
4.000000e-08	-5.399879e-06	-2.485450e-09	-3.839435e+01	-1.612071e+02
5.000000e-08	-5.398901e-06	-2.486533e-09	-3.838739e+01	-1.611326e+02
6.000000e-08	-5.397318e-06	-2.491234e-09	-3.837615e+01	-1.610655e+02
7.000000e-08	-5.395038e-06	-2.494803e-09	-3.835993e+01	-1.610074e+02
8.000000e-08	-5.392090e-06	-2.476894e-09	-3.833897e+01	-1.609596e+02
9.000000e-08	-5.388571e-06	-2.446571e-09	-3.831395e+01	-1.609230e+02
1.000000e-07	-5.384604e-06	-2.506369e-09	-3.828574e+01	-1.608988e+02
1.100000e-07	-5.380402e-06	-2.591043e-09	-3.825586e+01	-1.608875e+02
1.200000e-07	-5.376046e-06	-2.496506e-09	-3.822489e+01	-1.608895e+02
1.300000e-07	-5.371442e-06	-2.390391e-09	-3.819215e+01	-1.609050e+02
1.400000e-07	-5.366502e-06	-2.459667e-09	-3.815703e+01	-1.609340e+02
1.500000e-07	-5.361121e-06	-2.598913e-09	-3.811877e+01	-1.609759e+02
1.600000e-07	-5.355387e-06	-2.503990e-09	-3.807800e+01	-1.610302e+02
1.700000e-07	-5.349369e-06	-2.322255e-09	-3.803521e+01	-1.610960e+02
1.800000e-07	-5.342865e-06	-2.485940e-09	-3.798897e+01	-1.611722e+02
1.900000e-07	-5.335844e-06	-2.622604e-09	-3.793905e+01	-1.612574e+02
2.000000e-07	-5.328543e-06	-2.539140e-09	-3.788714e+01	-1.613502e+02
2.100000e-07	-5.321070e-06	-2.383383e-09	-3.783400e+01	-1.614487e+02
2.200000e-07	-5.313371e-06	-2.527162e-09	-3.777926e+01	-1.615513e+02
2.300000e-07	-5.305340e-06	-2.584186e-09	-3.772216e+01	-1.616560e+02
2.400000e-07	-5.297041e-06	-2.476363e-09	-3.766315e+01	-1.617607e+02
2.500000e-07	-5.288296e-06	-2.448791e-09	-3.760097e+01	-1.618636e+02
2.600000e-07	-5.278866e-06	-2.586185e-09	-3.753392e+01	-1.619625e+02
2.700000e-07	-5.268643e-06	-2.566184e-09	-3.746124e+01	-1.620555e+02
2.800000e-07	-5.257852e-06	-2.455912e-09	-3.738451e+01	-1.621408e+02
2.900000e-07	-5.246659e-06	-2.521297e-09	-3.730493e+01	-1.622165e+02
3.000000e-07	-5.235009e-06	-2.593144e-09	-3.722209e+01	-1.622809e+02
3.100000e-07	-5.223009e-06	-2.475988e-09	-3.713677e+01	-1.623328e+02
3.200000e-07	-5.210664e-06	-2.420626e-09	-3.704899e+01	-1.623706e+02
3.300000e-07	-5.197980e-06	-2.577696e-09	-3.695880e+01	-1.623934e+02
3.400000e-07	-5.184933e-06	-2.558113e-09	-3.686604e+01	-1.624002e+02
3.500000e-07	-5.171498e-06	-2.448193e-09	-3.677051e+01	-1.623905e+02
3.600000e-07	-5.157694e-06	-2.485881e-09	-3.667236e+01	-1.623639e+02
3.700000e-07	-5.143538e-06	-2.576166e-09	-3.657171e+01	-1.623202e+02
3.800000e-07	-5.128961e-06	-2.472103e-09	-3.646806e+01	-1.622595e+02
3.900000e-07	-5.113793e-06	-2.464782e-09	-3.636021e+01	-1.621821e+02
4.000000e-07	-5.097831e-06	-2.525992e-09	-3.624672e+01	-1.620885e+02
4.100000e-07	-5.081442e-06	-2.496874e-09	-3.613019e+01	-1.619795e+02
4.200000e-07	-5.064840e-06	-2.438373e-09	-3.601215e+01	-1.618560e+02
4.300000e-07	-5.047849e-06	-2.522445e-09	-3.589134e+01	-1.617190e+02
4.400000e-07	-5.030568e-06	-2.506521e-09	-3.576847e+01	-1.615698e+02
4.500000e-07	-5.013007e-06	-2.441449e-09	-3.564360e+01	-1.614097e+02
4.600000e-07	-4.995126e-06	-2.464038e-09	-3.551647e+01	-1.612400e+02
4.700000e-07	-4.976993e-06	-2.520362e-09	-3.538754e+01	-1.610622e+02
4.800000e-07	-4.958466e-06	-2.456104e-09	-3.525580e+01	-1.608778e+02
4.900000e-07	-4.939433e-06	-2.441215e-09	-3.512048e+01	-1.606881e+02
5.000000e-07	-4.919940e-06	-2.471111e-09	-3.498188e+01	-1.604947e+02
5.100000e-07	-4.900162e-06	-2.472744e-09	-3.484125e+01	-1.602988e+02
5.200000e-07	-4.880203e-06	-2.454037e-09	-3.469934e+01	-1.601018e+02
5.300000e-07	-4.860097e-06	-2.462701e-09	-3.455638e+01	-1.599047e+02
5.400000e-07	-4.839778e-06	-2.444835e-09	-3.441191e+01	-1.597087e+02
5.500000e-07	-4.819060e-06	-2.440892e-09	-3.426460e+01	-1.595147e+02
5.600000e-07	-4.797899e-06	-2.454760e-09	-3.411414e+01	-1.593233e+02
5.700000e-07	-4.776391e-06	-2.439929e-09	-3.396121e+01	-1.591352e+02
5.800000e-07	-4.754621e-06	-2.420855e-09	-3.380642e+01	-1.589508e+02
5.900000e-07	-4.732585e-06	-2.431744e-09	-3.364974e+01	-1.587704e+02
6.000000e-07	-4.710279e-06	-2.442826e-09	-3.349114e+01	-1.585939e+02
6.100000e-07	-4.687663e-06	-2.425660e-09	-3.333034e+01	-1.584215e+02
6.200000e-07	-4.664612e-06	-2.408977e-09	-3.316644e+01	-1.582528e+02
6.300000e-07	-4.641197e-06	-2.397509e-09	-3.299995e+01	-1.580874e+02
6.400000e-07	-4.617600e-06	-2.414614e-09	-3.283217e+01	-1.579250e+02
6.500000e-07	-4.593786e-06	-2.415270e-09	-3.266285e+01	-1.577649e+02
6.600000e-07	-4.569741e-06	-2.399406e-09	-3.249189e+01	-1.576064e+02
6.700000e-07	-4.545478e-06	-2.383422e-09	-3.231937e+01	-1.574487e+02
6.800000e-07	-4.520917e-06	-2.400928e-09	-3.214473e+01	-1.572911e+02
6.900000e-07	-4.495866e-06	-2.395378e-09	-3.196661e+01	-1.571326e+02
7.000000e-07	-4.470294e-06	-2.384759e-09	-3.178479e+01	-1.569725e+02
7.100000e-07	-4.444154e-06	-2.372125e-09	-3.159893e+01	-1.568097e+02
7.200000e-07	-4.417420e-06	-2.384498e-09	-3.140885e+01	-1.566436e+02
7.300000e-07	-4.390278e-06	-2.387764e-09	-3.121586e+01	-1.564731e+02
7.400000e-07	-4.362816e-06	-2.384651e-09	-3.102060e+01	-1.562977e+02
7.500000e-07	-4.335149e-06	-2.360265e-09	-3.082388e+01	-1.561166e+02
7.600000e-07	-4.307314e-06	-2.360444e-09	-3.062597e+01	-1.559291e+02
7.700000e-07	-4.279298e-06	-2.364127e-09	-3.042677e+01	-1.557348e+02
7.800000e-07	-4.251064e-06	-2.359845e-09	-3.022602e+01	-1.555332e+02
7.900000e-07	-4.222548e-06	-2.341542e-09	-3.002326e+01	-1.553239e+02
8.000000e-07	-4.193785e-06	-2.342475e-09	-2.981875e+01	-1.551068e+02
8.100000e-07	-4.164697e-06	-2.346054e-09	-2.961193e+01	-1.548816e+02
8.200000e-07	-4.135168e-06	-2.346309e-09	-2.940197e+01	-1.546485e+02
8.300000e-07	-4.105336e-06	-2.332090e-09	-2.918986e+01	-1.544073e+02
8.400000e-07	-4.075276e-06	-2.319980e-09	-2.897613e+01	-1.541583e+02
8.500000e-07	-4.045013e-06	-2.319083e-09	-2.876095e+01	-1.539018e+02
8.600000e-07	-4.014560e-06	-2.322099e-09	-2.854442e+01	-1.536379e+02
8.700000e-07	-3.983759e-06	-2.314511e-09	-2.832542e+01	-1.533672e+02
8.800000e-07	-3.952674e-06	-2.302652e-09	-2.810440e+01	-1.530900e+02
8.900000e-07	-3.921421e-06	-2.299899e-09	-2.788218e+01	-1.528068e+02
9.000000e-07	-3.889949e-06	-2.301411e-09	-2.765841e+01	-1.525181e+02
9.100000e-07	-3.858175e-06	-2.298245e-09	-2.743249e+01	-1.522245e+02
9.200000e-07	-3.826211e-06	-2.281409e-09	-2.720522e+01	-1.519265e+02
9.300000e-07	-3.794121e-06	-2.271593e-09	-2.697706e+01	-1.516246e+02
9.400000e-07	-3.761884e-06	-2.268017e-09	-2.674784e+01	-1.513194e+02
9.500000e-07	-3.729398e-06	-2.268037e-09	-2.651686e+01	-1.510114e+02
9.600000e-07	-3.696508e-06	-2.258076e-09	-2.628300e+01	-1.507010e+02
9.700000e-07	-3.663112e-06	-2.254405e-09	-2.604555e+01	-1.503886e+02
9.800000e-07	-3.629248e-06	-2.252863e-09	-2.580477e+01	-1.500748e+02
9.900000e-07	-3.595028e-06	-2.252429e-09	-2.556145e+01	-1.497597e+02
1.000000e-06	-3.560407e-06	-2.237759e-09	-2.531529e+01	-1.494438e+02
1.010000e-06	-3.525420e-06	-2.226666e-09	-2.506653e+01	-1.491272e+02
1.020000e-06	-3.490141e-06	-2.218320e-09	-2.481569e+01	-1.488100e+02
1.030000e-06	-3.454592e-06	-2.216855e-09	-2.456293e+01	-1.484925e+02
1.040000e-06	-3.418806e-06	-2.209952e-09	-2.430848e+01	-1.481746e+02
1.050000e-06	-3.382855e-06	-2.208773e-09	-2.405286e+01	-1.478563e+02
1.060000e-06	-3.346784e-06	-2.205700e-09	-2.379639e+01	-1.475375e+02
1.070000e-06	-3.310582e-06	-2.205546e-09	-2.353898e+01	-1.472181e+02
1.080000e-06	-3.274259e-06	-2.196148e-09	-2.328072e+01	-1.468979e+02
1.090000e-06	-3.237734e-06	-2.182944e-09	-2.302102e+01	-1.465767e+02
1.100000e-06	-3.200934e-06	-2.171804e-09	-2.275936e+01	-1.462541e+02
1.110000e-06	-3.163900e-06	-2.170181e-09	-2.249604e+01	-1.459299e+02
1.120000e-06	-3.126671e-06	-2.167425e-09	-2.223133e+01	-1.456036e+02
1.130000e-06	-3.089213e-06	-2.162766e-09	-2.196500e+01	-1.452749e+02
1.140000e-06	-3.051489e-06	-2.159790e-09	-2.169677e+01	-1.449433e+02
1.150000e-06	-3.013545e-06	-2.159197e-09	-2.142698e+01	-1.446084e+02
1.160000e-06	-2.975417e-06	-2.152908e-09	-2.115589e+01	-1.442698e+02
1.170000e-06	-2.937112e-06	-2.139835e-09	-2.088353e+01	-1.439268e+02
1.180000e-06	-2.898608e-06	-2.128161e-09	-2.060976e+01	-1.435791e+02
1.190000e-06	-2.859863e-06	-2.122548e-09	-2.033427e+01	-1.432262e+02
1.200000e-06	-2.820847e-06	-2.119488e-09	-2.005686e+01	-1.428675e+02
1.210000e-06	-2.781613e-06	-2.111282e-09	-1.977789e+01	-1.425025e+02
1.220000e-06	-2.742169e-06	-2.104980e-09	-1.949744e+01	-1.421308e+02
1.230000e-06	-2.702565e-06	-2.100150e-09	-1.921585e+01	-1.417520e+02
1.240000e-06	-2.662846e-06	-2.094508e-09	-1.893343e+01	-1.413654e+02
1.250000e-06	-2.623017e-06	-2.082993e-09	-1.865024e+01	-1.409708e+02
1.260000e-06	-2.583093e-06	-2.075497e-09	-1.836637e+01	-1.405676e+02
1.270000e-06	-2.543078e-06	-2.069381e-09	-1.808186e+01	-1.401556e+02
1.280000e-06	-2.502980e-06	-2.066957e-09	-1.779675e+01	-1.397343e+02
1.290000e-06	-2.462771e-06	-2.061721e-09	-1.751086e+01	-1.393033e+02
1.300000e-06	-2.422447e-06	-2.054774e-09	-1.722414e+01	-1.388625e+02
1.310000e-06	-2.381926e-06	-2.043911e-09	-1.693603e+01	-1.384115e+02
1.320000e-06	-2.341237e-06	-2.033668e-09	-1.664672e+01	-1.379500e+02
1.330000e-06	-2.300371e-06	-2.020672e-09	-1.635615e+01	-1.374779e+02
1.340000e-06	-2.259152e-06	-2.009907e-09	-1.606308e+01	-1.369950e+02
1.350000e-06	-2.217650e-06	-2.003242e-09	-1.576799e+01	-1.365012e+02
1.360000e-06	-2.175876e-06	-2.001112e-09	-1.547097e+01	-1.359963e+02
1.370000e-06	-2.133816e-06	-1.995681e-09	-1.517191e+01	-1.354803e+02
1.380000e-06	-2.091528e-06	-1.986661e-09	-1.487123e+01	-1.349531e+02
1.390000e-06	-2.048866e-06	-1.974266e-09	-1.456790e+01	-1.344148e+02
1.400000e-06	-2.005863e-06	-1.962246e-09	-1.426214e+01	-1.338653e+02
1.410000e-06	-1.962776e-06	-1.949350e-09	-1.395578e+01	-1.333046e+02
1.420000e-06	-1.919597e-06	-1.938250e-09	-1.364877e+01	-1.327328e+02
1.430000e-06	-1.876240e-06	-1.929541e-09	-1.334049e+01	-1.321500e+02
1.440000e-06	-1.832758e-06	-1.923095e-09	-1.303132e+01	-1.315561e+02
1.450000e-06	-1.789245e-06	-1.914160e-09	-1.272193e+01	-1.309513e+02
1.460000e-06	-1.745562e-06	-1.902798e-09	-1.241134e+01	-1.303355e+02
1.470000e-06	-1.701714e-06	-1.892012e-09	-1.209957e+01	-1.297087e+02
1.480000e-06	-1.657841e-06	-1.880189e-09	-1.178762e+01	-1.290710e+02
1.490000e-06	-1.613892e-06	-1.867760e-09	-1.147514e+01	-1.284223e+02
1.500000e-06	-1.569903e-06	-1.856176e-09	-1.116236e+01	-1.277624e+02
1.510000e-06	-1.525835e-06	-1.845294e-09	-1.084903e+01	-1.270913e+02
1.520000e-06	-1.481686e-06	-1.833964e-09	-1.053512e+01	-1.264087e+02
1.530000e-06	-1.437494e-06	-1.822741e-09	-1.022091e+01	-1.257143e+02
1.540000e-06	-1.393206e-06	-1.812204e-09	-9.906009e+00	-1.250078e+02
1.550000e-06	-1.348875e-06	-1.800996e-09	-9.590803e+00	-1.242889e+02
1.560000e-06	-1.304464e-06	-1.788170e-09	-9.275034e+00	-1.235569e+02
1.570000e-06	-1.259927e-06	-1.776887e-09	-8.958362e+00	-1.228113e+02
1.580000e-06	-1.215340e-06	-1.764097e-09	-8.641342e+00	-1.220514e+02
1.590000e-06	-1.170679e-06	-1.752847e-09	-8.323789e+00	-1.212765e+02
1.600000e-06	-1.125918e-06	-1.742697e-09	-8.005527e+00	-1.204858e+02
1.610000e-06	-1.081119e-06	-1.732477e-09	-7.687001e+00	-1.196783e+02
1.620000e-06	-1.036256e-06	-1.717234e-09	-7.368013e+00	-1.188529e+02
1.630000e-06	-9.912429e-07	-1.701833e-09	-7.047959e+00	-1.180088e+02
1.640000e-06	-9.461124e-07	-1.685595e-09	-6.727072e+00	-1.171446e+02
1.650000e-06	-9.009292e-07	-1.669592e-09	-6.405809e+00	-1.162592e+02
1.660000e-06	-8.556406e-07	-1.654526e-09	-6.083797e+00	-1.153513e+02
1.670000e-06	-8.102965e-07	-1.641516e-09	-5.761390e+00	-1.144197e+02
1.680000e-06	-7.649709e-07	-1.629160e-09	-5.439115e+00	-1.134629e+02
1.690000e-06	-7.195960e-07	-1.615262e-09	-5.116489e+00	-1.124796e+02
1.700000e-06	-6.741306e-07	-1.596305e-09	-4.793220e+00	-1.114685e+02
1.710000e-06	-6.285745e-07	-1.576361e-09	-4.469306e+00	-1.104282e+02
1.720000e-06	-5.829930e-07	-1.559513e-09	-4.145211e+00	-1.093572e+02
1.730000e-06	-5.374302e-07	-1.544695e-09	-3.821250e+00	-1.082542e+02
1.740000e-06	-4.918769e-07	-1.527832e-09	-3.497355e+00	-1.071179e+02
1.750000e-06	-4.462602e-07	-1.511534e-09	-3.173010e+00	-1.059470e+02
1.760000e-06	-4.005270e-07	-1.497764e-09	-2.847837e+00	-1.047402e+02
1.770000e-06	-3.547710e-07	-1.483892e-09	-2.522501e+00	-1.034963e+02
1.780000e-06	-3.090057e-07	-1.465531e-09	-2.197100e+00	-1.022141e+02
1.790000e-06	-2.631906e-07	-1.442470e-09	-1.871344e+00	-1.008925e+02
1.800000e-06	-2.173190e-07	-1.420144e-09	-1.545187e+00	-9.953047e+01
1.810000e-06	-1.714165e-07	-1.400150e-09	-1.218810e+00	-9.812694e+01
1.820000e-06	-1.255595e-07	-1.381370e-09	-8.927559e-01	-9.668096e+01
1.830000e-06	-7.972121e-08	-1.359645e-09	-5.668357e-01	-9.519165e+01
1.840000e-06	-3.384942e-08	-1.336103e-09	-2.406770e-01	-9.365811e+01
1.850000e-06	1.206986e-08	-1.313676e-09	8.581943e-02	-9.207953e+01
1.860000e-06	5.796958e-08	-1.294762e-09	4.121767e-01	-9.045512e+01
1.870000e-06	1.037626e-07	-1.272382e-09	7.377754e-01	-8.878409e+01
1.880000e-06	1.495770e-07	-1.244973e-09	1.063526e+00	-8.706569e+01
1.890000e-06	1.954074e-07	-1.216731e-09	1.389390e+00	-8.529919e+01
1.900000e-06	2.411791e-07	-1.189860e-09	1.714838e+00	-8.348383e+01
1.910000e-06	2.869798e-07	-1.160275e-09	2.040491e+00	-8.161888e+01
1.920000e-06	3.327760e-07	-1.130095e-09	2.366112e+00	-7.970357e+01
1.930000e-06	3.784729e-07	-1.102305e-09	2.691028e+00	-7.773714e+01
1.940000e-06	4.240809e-07	-1.077108e-09	3.015310e+00	-7.571880e+01
1.950000e-06	4.697222e-07	-1.049972e-09	3.339831e+00	-7.364774e+01
1.960000e-06	5.153191e-07	-1.019599e-09	3.664035e+00	-7.152316e+01
1.970000e-06	5.608533e-07	-9.870272e-10	3.987793e+00	-6.934420e+01
1.980000e-06	6.063837e-07	-9.534138e-10	4.311524e+00	-6.711005e+01
1.990000e-06	6.518350e-07	-9.179148e-10	4.634693e+00	-6.481984e+01
2.000000e-06	6.972518e-07	-8.809930e-10	4.957617e+00	-6.247277e+01
2.010000e-06	7.426655e-07	-8.450799e-10	5.280519e+00	-6.006804e+01
2.020000e-06	7.880161e-07	-8.122176e-10	5.602971e+00	-5.760489e+01
2.030000e-06	8.332885e-07	-7.808937e-10	5.924868e+00	-5.508263e+01
2.040000e-06	8.784717e-07	-7.465548e-10	6.246131e+00	-5.250067e+01
2.050000e-06	9.235416e-07	-7.100178e-10	6.566588e+00	-4.985849e+01
2.060000e-06	9.686039e-07	-6.721289e-10	6.886991e+00	-4.715575e+01
2.070000e-06	1.013665e-06	-6.307294e-10	7.207383e+00	-4.439222e+01
2.080000e-06	1.058599e-06	-5.868808e-10	7.526874e+00	-4.156788e+01
2.090000e-06	1.103414e-06	-5.417186e-10	7.845521e+00	-3.868293e+01
2.100000e-06	1.148103e-06	-4.968063e-10	8.163271e+00	-3.573776e+01
2.110000e-06	1.192671e-06	-4.545482e-10	8.480157e+00	-3.273307e+01
2.120000e-06	1.237157e-06	-4.116226e-10	8.796463e+00	-2.966982e+01
2.130000e-06	1.281554e-06	-3.697705e-10	9.112137e+00	-2.654926e+01
2.140000e-06	1.325854e-06	-3.268001e-10	9.427122e+00	-2.337299e+01
2.150000e-06	1.370085e-06	-2.796584e-10	9.741612e+00	-2.014292e+01
2.160000e-06	1.414278e-06	-2.283668e-10	1.005583e+01	-1.686132e+01
2.170000e-06	1.458418e-06	-1.755721e-10	1.036968e+01	-1.353082e+01
2.180000e-06	1.502486e-06	-1.254213e-10	1.068301e+01	-1.015439e+01
2.190000e-06	1.546474e-06	-7.762491e-11	1.099577e+01	-6.735371e+00
2.200000e-06	1.590416e-06	-2.918305e-11	1.130822e+01	-3.277442e+00
2.210000e-06	1.634360e-06	2.156664e-11	1.162067e+01	2.153809e-01
2.220000e-06	1.678237e-06	7.432342e-11	1.193264e+01	3.738764e+00
2.230000e-06	1.722052e-06	1.285035e-10	1.224418e+01	7.288078e+00
2.240000e-06	1.765857e-06	1.847920e-10	1.255564e+01	1.085843e+01
2.250000e-06	1.809557e-06	2.411951e-10	1.286636e+01	1.444467e+01
2.260000e-06	1.853089e-06	2.969259e-10	1.317588e+01	1.804148e+01
2.270000e-06	1.896461e-06	3.493729e-10	1.348426e+01	2.164335e+01
2.280000e-06	1.939668e-06	3.996899e-10	1.379147e+01	2.524467e+01
2.290000e-06	1.982749e-06	4.514650e-10	1.409779e+01	2.883974e+01
2.300000e-06	2.025631e-06	5.061124e-10	1.440269e+01	3.242284e+01
2.310000e-06	2.068238e-06	5.606908e-10	1.470564e+01	3.598829e+01
2.320000e-06	2.110583e-06	6.120999e-10	1.500672e+01	3.953043e+01
2.330000e-06	2.152759e-06	6.627484e-10	1.530660e+01	4.304376e+01
2.340000e-06	2.194718e-06	7.139134e-10	1.560494e+01	4.652293e+01
2.350000e-06	2.236273e-06	7.647957e-10	1.590040e+01	4.996278e+01
2.360000e-06	2.277444e-06	8.129293e-10	1.619314e+01	5.335843e+01
2.370000e-06	2.318304e-06	8.601967e-10	1.648366e+01	5.670526e+01
2.380000e-06	2.358999e-06	9.090988e-10	1.677301e+01	5.999899e+01
2.390000e-06	2.399507e-06	9.600583e-10	1.706104e+01	6.323569e+01
2.400000e-06	2.439799e-06	1.007041e-09	1.734752e+01	6.641180e+01
2.410000e-06	2.479943e-06	1.048690e-09	1.763295e+01	6.952417e+01
2.420000e-06	2.519979e-06	1.087907e-09	1.791761e+01	7.257006e+01
2.430000e-06	2.559993e-06	1.128275e-09	1.820212e+01	7.554714e+01
2.440000e-06	2.599910e-06	1.170303e-09	1.848594e+01	7.845353e+01
2.450000e-06	2.639694e-06	1.210479e-09	1.876881e+01	8.128774e+01
2.460000e-06	2.679394e-06	1.250114e-09	1.905110e+01	8.404871e+01
2.470000e-06	2.718977e-06	1.291570e-09	1.933253e+01	8.673578e+01
2.480000e-06	2.758376e-06	1.331627e-09	1.961268e+01	8.934867e+01
2.490000e-06	2.797548e-06	1.367444e-09	1.989119e+01	9.188746e+01
2.500000e-06	2.836511e-06	1.399969e-09	2.016823e+01	9.435254e+01
2.510000e-06	2.875278e-06	1.431819e-09	2.044387e+01	9.674461e+01
2.520000e-06	2.913757e-06	1.464775e-09	2.071746e+01	9.906465e+01
2.530000e-06	2.951969e-06	1.497643e-09	2.098916e+01	1.013139e+02
2.540000e-06	2.990046e-06	1.529789e-09	2.125990e+01	1.034936e+02
2.550000e-06	3.028003e-06	1.561124e-09	2.152978e+01	1.056055e+02
2.560000e-06	3.065817e-06	1.593678e-09	2.179864e+01	1.076511e+02
2.570000e-06	3.103465e-06	1.623469e-09	2.206633e+01	1.096323e+02
2.580000e-06	3.140877e-06	1.649131e-09	2.233234e+01	1.115508e+02
2.590000e-06	3.178004e-06	1.671987e-09	2.259632e+01	1.134084e+02
2.600000e-06	3.214821e-06	1.695315e-09	2.285810e+01	1.152070e+02
2.610000e-06	3.251416e-06	1.722525e-09	2.311830e+01	1.169483e+02
2.620000e-06	3.287778e-06	1.750894e-09	2.337684e+01	1.186341e+02
2.630000e-06	3.323879e-06	1.776632e-09	2.363352e+01	1.202660e+02
2.640000e-06	3.359902e-06	1.799883e-09	2.388966e+01	1.218455e+02
2.650000e-06	3.395874e-06	1.820908e-09	2.414543e+01	1.233741e+02
2.660000e-06	3.431716e-06	1.838333e-09	2.440027e+01	1.248531e+02
2.670000e-06	3.467453e-06	1.854508e-09	2.465437e+01	1.262838e+02
2.680000e-06	3.503011e-06	1.872992e-09	2.490719e+01	1.276672e+02
2.690000e-06	3.538167e-06	1.893163e-09	2.515716e+01	1.290045e+02
2.700000e-06	3.572922e-06	1.913956e-09	2.540427e+01	1.302965e+02
2.710000e-06	3.607315e-06	1.934868e-09	2.564882e+01	1.315441e+02
2.720000e-06	3.641202e-06	1.956220e-09	2.588976e+01	1.327480e+02
2.730000e-06	3.674599e-06	1.974789e-09	2.612722e+01	1.339092e+02
2.740000e-06	3.707554e-06	1.987387e-09	2.636154e+01	1.350281e+02
2.750000e-06	3.740122e-06	1.997735e-09	2.659311e+01	1.361057e+02
2.760000e-06	3.772458e-06	2.011365e-09	2.682302e+01	1.371425e+02
2.770000e-06	3.804630e-06	2.028354e-09	2.705177e+01	1.381393e+02
2.780000e-06	3.836683e-06	2.044139e-09	2.727968e+01	1.390969e+02
2.790000e-06	3.868609e-06	2.059597e-09	2.750668e+01	1.400161e+02
2.800000e-06	3.900362e-06	2.075368e-09	2.773245e+01	1.408978e+02
2.810000e-06	3.931893e-06	2.089996e-09	2.795664e+01	1.417429e+02
2.820000e-06	3.963220e-06	2.100317e-09	2.817938e+01	1.425525e+02
2.830000e-06	3.994205e-06	2.105155e-09	2.839969e+01	1.433278e+02
2.840000e-06	4.024769e-06	2.111528e-09	2.861701e+01	1.440699e+02
2.850000e-06	4.055049e-06	2.123203e-09	2.883231e+01	1.447802e+02
2.860000e-06	4.085050e-06	2.137341e-09	2.904563e+01	1.454601e+02
2.870000e-06	4.114815e-06	2.150253e-09	2.925726e+01	1.461109e+02
2.880000e-06	4.144320e-06	2.161156e-09	2.946705e+01	1.467343e+02
2.890000e-06	4.173570e-06	2.171960e-09	2.967502e+01	1.473317e+02
2.900000e-06	4.202641e-06	2.179828e-09	2.988172e+01	1.479047e+02
