# Temperatura_=_13.6
# Concentracion g/m^3_=_4090.0
# C_Vs_to_Am_M_A/Vsm_=_65563218390.804596
# pendiente_HvsI_1/m_=_3716.3
# ordenada_HvsI_A/m_=_1297.0
# frecuencia_Hz_=_135080.4106900365

Tiempo_(s)	Campo_(V.s)	Magnetizacion_(V.s)	Campo_(kA/m)	Magnetizacion_(A/m)
0.000000e+00	-5.410618e-06	-2.361307e-09	-3.839361e+01	-1.570659e+02
1.000000e-08	-5.410687e-06	-2.355808e-09	-3.839410e+01	-1.569477e+02
2.000000e-08	-5.410536e-06	-2.354038e-09	-3.839303e+01	-1.568282e+02
3.000000e-08	-5.410188e-06	-2.356150e-09	-3.839056e+01	-1.567093e+02
4.000000e-08	-5.409576e-06	-2.357402e-09	-3.838622e+01	-1.565928e+02
5.000000e-08	-5.408555e-06	-2.356492e-09	-3.837897e+01	-1.564803e+02
6.000000e-08	-5.406969e-06	-2.354143e-09	-3.836771e+01	-1.563736e+02
7.000000e-08	-5.404787e-06	-2.346521e-09	-3.835223e+01	-1.562743e+02
8.000000e-08	-5.401912e-06	-2.348606e-09	-3.833183e+01	-1.561839e+02
9.000000e-08	-5.398343e-06	-2.364836e-09	-3.830651e+01	-1.561037e+02
1.000000e-07	-5.394285e-06	-2.374347e-09	-3.827771e+01	-1.560350e+02
1.100000e-07	-5.389932e-06	-2.361957e-09	-3.824682e+01	-1.559786e+02
1.200000e-07	-5.385497e-06	-2.366493e-09	-3.821535e+01	-1.559353e+02
1.300000e-07	-5.380826e-06	-2.354825e-09	-3.818220e+01	-1.559057e+02
1.400000e-07	-5.375699e-06	-2.357004e-09	-3.814583e+01	-1.558899e+02
1.500000e-07	-5.370241e-06	-2.338445e-09	-3.810709e+01	-1.558880e+02
1.600000e-07	-5.364543e-06	-2.347776e-09	-3.806666e+01	-1.558996e+02
1.700000e-07	-5.358459e-06	-2.345913e-09	-3.802349e+01	-1.559244e+02
1.800000e-07	-5.351769e-06	-2.356338e-09	-3.797602e+01	-1.559614e+02
1.900000e-07	-5.344670e-06	-2.375990e-09	-3.792564e+01	-1.560097e+02
2.000000e-07	-5.337443e-06	-2.412951e-09	-3.787436e+01	-1.560679e+02
2.100000e-07	-5.329978e-06	-2.419606e-09	-3.782139e+01	-1.561348e+02
2.200000e-07	-5.322209e-06	-2.406480e-09	-3.776626e+01	-1.562085e+02
2.300000e-07	-5.314232e-06	-2.426952e-09	-3.770966e+01	-1.562874e+02
2.400000e-07	-5.305997e-06	-2.455357e-09	-3.765122e+01	-1.563696e+02
2.500000e-07	-5.297296e-06	-2.455967e-09	-3.758948e+01	-1.564531e+02
2.600000e-07	-5.287881e-06	-2.445087e-09	-3.752267e+01	-1.565357e+02
2.700000e-07	-5.277793e-06	-2.490466e-09	-3.745109e+01	-1.566156e+02
2.800000e-07	-5.267184e-06	-2.512473e-09	-3.737581e+01	-1.566906e+02
2.900000e-07	-5.255981e-06	-2.491261e-09	-3.729631e+01	-1.567588e+02
3.000000e-07	-5.244352e-06	-2.484145e-09	-3.721379e+01	-1.568183e+02
3.100000e-07	-5.232465e-06	-2.519168e-09	-3.712944e+01	-1.568672e+02
3.200000e-07	-5.220096e-06	-2.506621e-09	-3.704167e+01	-1.569041e+02
3.300000e-07	-5.207301e-06	-2.490320e-09	-3.695088e+01	-1.569273e+02
3.400000e-07	-5.194190e-06	-2.481132e-09	-3.685784e+01	-1.569357e+02
3.500000e-07	-5.180622e-06	-2.486309e-09	-3.676156e+01	-1.569281e+02
3.600000e-07	-5.166693e-06	-2.468077e-09	-3.666273e+01	-1.569038e+02
3.700000e-07	-5.152520e-06	-2.478299e-09	-3.656215e+01	-1.568621e+02
3.800000e-07	-5.137893e-06	-2.470319e-09	-3.645836e+01	-1.568027e+02
3.900000e-07	-5.122628e-06	-2.460133e-09	-3.635004e+01	-1.567255e+02
4.000000e-07	-5.106743e-06	-2.463093e-09	-3.623732e+01	-1.566305e+02
4.100000e-07	-5.090384e-06	-2.476932e-09	-3.612123e+01	-1.565181e+02
4.200000e-07	-5.073605e-06	-2.449420e-09	-3.600217e+01	-1.563888e+02
4.300000e-07	-5.056410e-06	-2.431075e-09	-3.588015e+01	-1.562434e+02
4.400000e-07	-5.038970e-06	-2.446310e-09	-3.575641e+01	-1.560827e+02
4.500000e-07	-5.021311e-06	-2.454264e-09	-3.563110e+01	-1.559078e+02
4.600000e-07	-5.003359e-06	-2.441884e-09	-3.550371e+01	-1.557199e+02
4.700000e-07	-4.985052e-06	-2.441809e-09	-3.537380e+01	-1.555203e+02
4.800000e-07	-4.966305e-06	-2.450489e-09	-3.524077e+01	-1.553102e+02
4.900000e-07	-4.947133e-06	-2.448750e-09	-3.510473e+01	-1.550910e+02
5.000000e-07	-4.927567e-06	-2.442483e-09	-3.496589e+01	-1.548641e+02
5.100000e-07	-4.907719e-06	-2.423966e-09	-3.482505e+01	-1.546310e+02
5.200000e-07	-4.887663e-06	-2.413950e-09	-3.468273e+01	-1.543928e+02
5.300000e-07	-4.867475e-06	-2.419554e-09	-3.453948e+01	-1.541509e+02
5.400000e-07	-4.847061e-06	-2.424161e-09	-3.439463e+01	-1.539064e+02
5.500000e-07	-4.826304e-06	-2.405981e-09	-3.424733e+01	-1.536604e+02
5.600000e-07	-4.805224e-06	-2.405541e-09	-3.409775e+01	-1.534137e+02
5.700000e-07	-4.783724e-06	-2.414135e-09	-3.394518e+01	-1.531672e+02
5.800000e-07	-4.761917e-06	-2.415259e-09	-3.379044e+01	-1.529215e+02
5.900000e-07	-4.739865e-06	-2.401546e-09	-3.363396e+01	-1.526771e+02
6.000000e-07	-4.717408e-06	-2.391772e-09	-3.347461e+01	-1.524342e+02
6.100000e-07	-4.694588e-06	-2.380921e-09	-3.331268e+01	-1.521931e+02
6.200000e-07	-4.671434e-06	-2.381903e-09	-3.314838e+01	-1.519538e+02
6.300000e-07	-4.647957e-06	-2.377241e-09	-3.298178e+01	-1.517161e+02
6.400000e-07	-4.624202e-06	-2.369273e-09	-3.281322e+01	-1.514798e+02
6.500000e-07	-4.600219e-06	-2.364382e-09	-3.264304e+01	-1.512445e+02
6.600000e-07	-4.576077e-06	-2.371822e-09	-3.247173e+01	-1.510097e+02
6.700000e-07	-4.551597e-06	-2.365898e-09	-3.229802e+01	-1.507749e+02
6.800000e-07	-4.526713e-06	-2.355740e-09	-3.212144e+01	-1.505394e+02
6.900000e-07	-4.501456e-06	-2.350766e-09	-3.194222e+01	-1.503027e+02
7.000000e-07	-4.475761e-06	-2.353703e-09	-3.175989e+01	-1.500639e+02
7.100000e-07	-4.449558e-06	-2.350194e-09	-3.157395e+01	-1.498224e+02
7.200000e-07	-4.422825e-06	-2.341930e-09	-3.138425e+01	-1.495776e+02
7.300000e-07	-4.395572e-06	-2.332391e-09	-3.119087e+01	-1.493287e+02
7.400000e-07	-4.368024e-06	-2.331536e-09	-3.099539e+01	-1.490752e+02
7.500000e-07	-4.340331e-06	-2.332078e-09	-3.079888e+01	-1.488165e+02
7.600000e-07	-4.312406e-06	-2.325787e-09	-3.060072e+01	-1.485521e+02
7.700000e-07	-4.284249e-06	-2.318024e-09	-3.040092e+01	-1.482817e+02
7.800000e-07	-4.255876e-06	-2.316417e-09	-3.019959e+01	-1.480050e+02
7.900000e-07	-4.227213e-06	-2.314770e-09	-2.999620e+01	-1.477218e+02
8.000000e-07	-4.198262e-06	-2.304678e-09	-2.979076e+01	-1.474319e+02
8.100000e-07	-4.169052e-06	-2.294109e-09	-2.958349e+01	-1.471355e+02
8.200000e-07	-4.139471e-06	-2.287213e-09	-2.937358e+01	-1.468325e+02
8.300000e-07	-4.109594e-06	-2.286898e-09	-2.916158e+01	-1.465231e+02
8.400000e-07	-4.079509e-06	-2.283983e-09	-2.894809e+01	-1.462077e+02
8.500000e-07	-4.049180e-06	-2.279353e-09	-2.873288e+01	-1.458864e+02
8.600000e-07	-4.018477e-06	-2.272266e-09	-2.851501e+01	-1.455598e+02
8.700000e-07	-3.987505e-06	-2.268518e-09	-2.829523e+01	-1.452282e+02
8.800000e-07	-3.956395e-06	-2.260683e-09	-2.807448e+01	-1.448921e+02
8.900000e-07	-3.925018e-06	-2.250044e-09	-2.785183e+01	-1.445520e+02
9.000000e-07	-3.893357e-06	-2.241938e-09	-2.762716e+01	-1.442083e+02
9.100000e-07	-3.861501e-06	-2.241168e-09	-2.740112e+01	-1.438616e+02
9.200000e-07	-3.829581e-06	-2.236939e-09	-2.717461e+01	-1.435121e+02
9.300000e-07	-3.797492e-06	-2.228943e-09	-2.694691e+01	-1.431605e+02
9.400000e-07	-3.765095e-06	-2.216101e-09	-2.671702e+01	-1.428069e+02
9.500000e-07	-3.732456e-06	-2.208987e-09	-2.648542e+01	-1.424517e+02
9.600000e-07	-3.699504e-06	-2.203482e-09	-2.625159e+01	-1.420951e+02
9.700000e-07	-3.666165e-06	-2.195500e-09	-2.601501e+01	-1.417374e+02
9.800000e-07	-3.632437e-06	-2.185380e-09	-2.577568e+01	-1.413784e+02
9.900000e-07	-3.598264e-06	-2.178410e-09	-2.553319e+01	-1.410184e+02
1.000000e-06	-3.563607e-06	-2.170878e-09	-2.528726e+01	-1.406571e+02
1.010000e-06	-3.528568e-06	-2.164072e-09	-2.503863e+01	-1.402945e+02
1.020000e-06	-3.493264e-06	-2.155058e-09	-2.478812e+01	-1.399303e+02
1.030000e-06	-3.457687e-06	-2.145870e-09	-2.453566e+01	-1.395641e+02
1.040000e-06	-3.421856e-06	-2.140380e-09	-2.428140e+01	-1.391958e+02
1.050000e-06	-3.385800e-06	-2.139085e-09	-2.402555e+01	-1.388248e+02
1.060000e-06	-3.349658e-06	-2.136375e-09	-2.376909e+01	-1.384507e+02
1.070000e-06	-3.313423e-06	-2.130041e-09	-2.351197e+01	-1.380731e+02
1.080000e-06	-3.276996e-06	-2.120701e-09	-2.325348e+01	-1.376914e+02
1.090000e-06	-3.240353e-06	-2.111569e-09	-2.299346e+01	-1.373052e+02
1.100000e-06	-3.203543e-06	-2.104275e-09	-2.273226e+01	-1.369139e+02
1.110000e-06	-3.166439e-06	-2.097002e-09	-2.246897e+01	-1.365171e+02
1.120000e-06	-3.128987e-06	-2.089844e-09	-2.220322e+01	-1.361144e+02
1.130000e-06	-3.091354e-06	-2.082643e-09	-2.193617e+01	-1.357051e+02
1.140000e-06	-3.053463e-06	-2.076947e-09	-2.166730e+01	-1.352891e+02
1.150000e-06	-3.015399e-06	-2.070573e-09	-2.139720e+01	-1.348659e+02
1.160000e-06	-2.977184e-06	-2.061763e-09	-2.112602e+01	-1.344352e+02
1.170000e-06	-2.938748e-06	-2.051343e-09	-2.085328e+01	-1.339968e+02
1.180000e-06	-2.900167e-06	-2.045072e-09	-2.057951e+01	-1.335505e+02
1.190000e-06	-2.861397e-06	-2.039089e-09	-2.030440e+01	-1.330962e+02
1.200000e-06	-2.822283e-06	-2.031143e-09	-2.002685e+01	-1.326337e+02
1.210000e-06	-2.782928e-06	-2.018827e-09	-1.974758e+01	-1.321631e+02
1.220000e-06	-2.743427e-06	-2.008966e-09	-1.946729e+01	-1.316843e+02
1.230000e-06	-2.703769e-06	-2.002050e-09	-1.918588e+01	-1.311975e+02
1.240000e-06	-2.664052e-06	-1.997071e-09	-1.890405e+01	-1.307026e+02
1.250000e-06	-2.624201e-06	-1.988758e-09	-1.862127e+01	-1.301997e+02
1.260000e-06	-2.584223e-06	-1.981036e-09	-1.833758e+01	-1.296891e+02
1.270000e-06	-2.544105e-06	-1.974661e-09	-1.805290e+01	-1.291707e+02
1.280000e-06	-2.503849e-06	-1.967457e-09	-1.776725e+01	-1.286448e+02
1.290000e-06	-2.463528e-06	-1.956567e-09	-1.748113e+01	-1.281114e+02
1.300000e-06	-2.423059e-06	-1.943812e-09	-1.719396e+01	-1.275706e+02
1.310000e-06	-2.382376e-06	-1.934033e-09	-1.690528e+01	-1.270224e+02
1.320000e-06	-2.341575e-06	-1.926706e-09	-1.661576e+01	-1.264669e+02
1.330000e-06	-2.300619e-06	-1.917114e-09	-1.632514e+01	-1.259039e+02
1.340000e-06	-2.259434e-06	-1.906174e-09	-1.603288e+01	-1.253335e+02
1.350000e-06	-2.217969e-06	-1.897988e-09	-1.573865e+01	-1.247554e+02
1.360000e-06	-2.176191e-06	-1.891627e-09	-1.544220e+01	-1.241695e+02
1.370000e-06	-2.134189e-06	-1.882025e-09	-1.514415e+01	-1.235756e+02
1.380000e-06	-2.091868e-06	-1.869587e-09	-1.484384e+01	-1.229732e+02
1.390000e-06	-2.049187e-06	-1.859614e-09	-1.454098e+01	-1.223620e+02
1.400000e-06	-2.006245e-06	-1.853662e-09	-1.423626e+01	-1.217416e+02
1.410000e-06	-1.963096e-06	-1.846155e-09	-1.393008e+01	-1.211114e+02
1.420000e-06	-1.919797e-06	-1.833490e-09	-1.362283e+01	-1.204710e+02
1.430000e-06	-1.876295e-06	-1.817791e-09	-1.331414e+01	-1.198197e+02
1.440000e-06	-1.832592e-06	-1.801594e-09	-1.300402e+01	-1.191570e+02
1.450000e-06	-1.788782e-06	-1.787159e-09	-1.269315e+01	-1.184821e+02
1.460000e-06	-1.744900e-06	-1.777004e-09	-1.238177e+01	-1.177945e+02
1.470000e-06	-1.700959e-06	-1.772937e-09	-1.206996e+01	-1.170933e+02
1.480000e-06	-1.656941e-06	-1.767230e-09	-1.175761e+01	-1.163778e+02
1.490000e-06	-1.612893e-06	-1.757413e-09	-1.144505e+01	-1.156475e+02
1.500000e-06	-1.568776e-06	-1.742594e-09	-1.113200e+01	-1.149014e+02
1.510000e-06	-1.524559e-06	-1.723416e-09	-1.081823e+01	-1.141389e+02
1.520000e-06	-1.480306e-06	-1.701846e-09	-1.050422e+01	-1.133593e+02
1.530000e-06	-1.436002e-06	-1.680715e-09	-1.018983e+01	-1.125619e+02
1.540000e-06	-1.391610e-06	-1.665905e-09	-9.874832e+00	-1.117459e+02
1.550000e-06	-1.347172e-06	-1.656493e-09	-9.559496e+00	-1.109107e+02
1.560000e-06	-1.302695e-06	-1.651254e-09	-9.243887e+00	-1.100555e+02
1.570000e-06	-1.258137e-06	-1.647864e-09	-8.927707e+00	-1.091797e+02
1.580000e-06	-1.213546e-06	-1.639333e-09	-8.611291e+00	-1.082826e+02
1.590000e-06	-1.168807e-06	-1.622527e-09	-8.293825e+00	-1.073635e+02
1.600000e-06	-1.123947e-06	-1.598007e-09	-7.975498e+00	-1.064218e+02
1.610000e-06	-1.079004e-06	-1.571543e-09	-7.656582e+00	-1.054567e+02
1.620000e-06	-1.033964e-06	-1.547902e-09	-7.336979e+00	-1.044676e+02
1.630000e-06	-9.888326e-07	-1.532304e-09	-7.016731e+00	-1.034537e+02
1.640000e-06	-9.435662e-07	-1.521665e-09	-6.695522e+00	-1.024143e+02
1.650000e-06	-8.982570e-07	-1.512360e-09	-6.374009e+00	-1.013485e+02
1.660000e-06	-8.528800e-07	-1.502963e-09	-6.052015e+00	-1.002556e+02
1.670000e-06	-8.074978e-07	-1.490496e-09	-5.729984e+00	-9.913469e+01
1.680000e-06	-7.621241e-07	-1.471677e-09	-5.408013e+00	-9.798487e+01
1.690000e-06	-7.166108e-07	-1.444186e-09	-5.085052e+00	-9.680519e+01
1.700000e-06	-6.709184e-07	-1.411342e-09	-4.760820e+00	-9.559465e+01
1.710000e-06	-6.251555e-07	-1.382164e-09	-4.436087e+00	-9.435220e+01
1.720000e-06	-5.794244e-07	-1.362605e-09	-4.111581e+00	-9.307673e+01
1.730000e-06	-5.337423e-07	-1.349236e-09	-3.787422e+00	-9.176711e+01
1.740000e-06	-4.880348e-07	-1.336081e-09	-3.463083e+00	-9.042216e+01
1.750000e-06	-4.421974e-07	-1.322226e-09	-3.137822e+00	-8.904066e+01
1.760000e-06	-3.962940e-07	-1.307747e-09	-2.812092e+00	-8.762137e+01
1.770000e-06	-3.504047e-07	-1.287655e-09	-2.486463e+00	-8.616304e+01
1.780000e-06	-3.045318e-07	-1.257976e-09	-2.160950e+00	-8.466440e+01
1.790000e-06	-2.587014e-07	-1.223084e-09	-1.835738e+00	-8.312418e+01
1.800000e-06	-2.128369e-07	-1.192608e-09	-1.510285e+00	-8.154115e+01
1.810000e-06	-1.668970e-07	-1.168792e-09	-1.184297e+00	-7.991409e+01
1.820000e-06	-1.210082e-07	-1.148333e-09	-8.586708e-01	-7.824181e+01
1.830000e-06	-7.513995e-08	-1.127065e-09	-5.331912e-01	-7.652321e+01
1.840000e-06	-2.923555e-08	-1.104618e-09	-2.074547e-01	-7.475724e+01
1.850000e-06	1.664943e-08	-1.082967e-09	1.181440e-01	-7.294293e+01
1.860000e-06	6.252121e-08	-1.059221e-09	4.436490e-01	-7.107941e+01
1.870000e-06	1.083854e-07	-1.029069e-09	7.691002e-01	-6.916593e+01
1.880000e-06	1.543026e-07	-9.951564e-10	1.094928e+00	-6.720185e+01
1.890000e-06	2.002645e-07	-9.624091e-10	1.421072e+00	-6.518668e+01
1.900000e-06	2.461814e-07	-9.303038e-10	1.746897e+00	-6.312006e+01
1.910000e-06	2.920485e-07	-8.962716e-10	2.072369e+00	-6.100176e+01
1.920000e-06	3.379351e-07	-8.650348e-10	2.397979e+00	-5.883176e+01
1.930000e-06	3.837701e-07	-8.363957e-10	2.723223e+00	-5.661015e+01
1.940000e-06	4.295611e-07	-8.064012e-10	3.048155e+00	-5.433721e+01
1.950000e-06	4.754155e-07	-7.742666e-10	3.373537e+00	-5.201340e+01
1.960000e-06	5.211845e-07	-7.395764e-10	3.698312e+00	-4.963933e+01
1.970000e-06	5.668151e-07	-7.033226e-10	4.022106e+00	-4.721577e+01
1.980000e-06	6.124400e-07	-6.641931e-10	4.345859e+00	-4.474369e+01
1.990000e-06	6.580652e-07	-6.226013e-10	4.669614e+00	-4.222418e+01
2.000000e-06	7.035525e-07	-5.815234e-10	4.992391e+00	-3.965851e+01
2.010000e-06	7.489374e-07	-5.425247e-10	5.314441e+00	-3.704810e+01
2.020000e-06	7.943656e-07	-5.064200e-10	5.636798e+00	-3.439449e+01
2.030000e-06	8.397952e-07	-4.717355e-10	5.959165e+00	-3.169937e+01
2.040000e-06	8.851952e-07	-4.368533e-10	6.281323e+00	-2.896455e+01
2.050000e-06	9.305527e-07	-3.992718e-10	6.603179e+00	-2.619196e+01
2.060000e-06	9.757932e-07	-3.574930e-10	6.924204e+00	-2.338363e+01
2.070000e-06	1.020883e-06	-3.130329e-10	7.244159e+00	-2.054167e+01
2.080000e-06	1.065906e-06	-2.679891e-10	7.563643e+00	-1.766831e+01
2.090000e-06	1.110858e-06	-2.223458e-10	7.882621e+00	-1.476583e+01
2.100000e-06	1.155690e-06	-1.779358e-10	8.200747e+00	-1.183658e+01
2.110000e-06	1.200453e-06	-1.377851e-10	8.518387e+00	-8.882990e+00
2.120000e-06	1.245120e-06	-9.802591e-11	8.835342e+00	-5.907514e+00
2.130000e-06	1.289660e-06	-5.652111e-11	9.151396e+00	-2.912667e+00
2.140000e-06	1.334136e-06	-1.156949e-11	9.466993e+00	9.900420e-02
2.150000e-06	1.378494e-06	3.593568e-11	9.781757e+00	3.124923e+00
2.160000e-06	1.422739e-06	8.545535e-11	1.009572e+01	6.162487e+00
2.170000e-06	1.466984e-06	1.344599e-10	1.040968e+01	9.209074e+00
2.180000e-06	1.511166e-06	1.794297e-10	1.072319e+01	1.226205e+01
2.190000e-06	1.555278e-06	2.211791e-10	1.103621e+01	1.531877e+01
2.200000e-06	1.599382e-06	2.613534e-10	1.134918e+01	1.837658e+01
2.210000e-06	1.643475e-06	3.032085e-10	1.166206e+01	2.143283e+01
2.220000e-06	1.687508e-06	3.507933e-10	1.197452e+01	2.448487e+01
2.230000e-06	1.731510e-06	4.014937e-10	1.228675e+01	2.753006e+01
2.240000e-06	1.775436e-06	4.502475e-10	1.259845e+01	3.056578e+01
2.250000e-06	1.819264e-06	4.970673e-10	1.290945e+01	3.358940e+01
2.260000e-06	1.863000e-06	5.425426e-10	1.321980e+01	3.659834e+01
2.270000e-06	1.906541e-06	5.880313e-10	1.352876e+01	3.959005e+01
2.280000e-06	1.949866e-06	6.317252e-10	1.383620e+01	4.256197e+01
2.290000e-06	1.993029e-06	6.716506e-10	1.414248e+01	4.551164e+01
2.300000e-06	2.035989e-06	7.132850e-10	1.444733e+01	4.843661e+01
2.310000e-06	2.078678e-06	7.593386e-10	1.475025e+01	5.133449e+01
2.320000e-06	2.121162e-06	8.056542e-10	1.505171e+01	5.420295e+01
2.330000e-06	2.163424e-06	8.477623e-10	1.535160e+01	5.703974e+01
2.340000e-06	2.205336e-06	8.867298e-10	1.564901e+01	5.984269e+01
2.350000e-06	2.246968e-06	9.258606e-10	1.594443e+01	6.260971e+01
2.360000e-06	2.288270e-06	9.658898e-10	1.623751e+01	6.533880e+01
2.370000e-06	2.329197e-06	1.004974e-09	1.652792e+01	6.802807e+01
2.380000e-06	2.369944e-06	1.042448e-09	1.681706e+01	7.067575e+01
2.390000e-06	2.410570e-06	1.080019e-09	1.710534e+01	7.328018e+01
2.400000e-06	2.451037e-06	1.116457e-09	1.739250e+01	7.583982e+01
2.410000e-06	2.491334e-06	1.149936e-09	1.767845e+01	7.835328e+01
2.420000e-06	2.531507e-06	1.182384e-09	1.796351e+01	8.081928e+01
2.430000e-06	2.571645e-06	1.216824e-09	1.824833e+01	8.323671e+01
2.440000e-06	2.611705e-06	1.251643e-09	1.853259e+01	8.560459e+01
2.450000e-06	2.651643e-06	1.283998e-09	1.881600e+01	8.792207e+01
2.460000e-06	2.691500e-06	1.315839e-09	1.909881e+01	9.018848e+01
2.470000e-06	2.731207e-06	1.348695e-09	1.938058e+01	9.240326e+01
2.480000e-06	2.770677e-06	1.380394e-09	1.966065e+01	9.456600e+01
2.490000e-06	2.809907e-06	1.409492e-09	1.993903e+01	9.667645e+01
2.500000e-06	2.848933e-06	1.437358e-09	2.021596e+01	9.873448e+01
2.510000e-06	2.887657e-06	1.466982e-09	2.049074e+01	1.007401e+02
2.520000e-06	2.926171e-06	1.496626e-09	2.076404e+01	1.026933e+02
2.530000e-06	2.964530e-06	1.524340e-09	2.103623e+01	1.045945e+02
2.540000e-06	3.002650e-06	1.549753e-09	2.130673e+01	1.064439e+02
2.550000e-06	3.040672e-06	1.576286e-09	2.157653e+01	1.082419e+02
2.560000e-06	3.078569e-06	1.604709e-09	2.184545e+01	1.099891e+02
2.570000e-06	3.116225e-06	1.630075e-09	2.211265e+01	1.116860e+02
2.580000e-06	3.153649e-06	1.650418e-09	2.237821e+01	1.133332e+02
2.590000e-06	3.190817e-06	1.670461e-09	2.264196e+01	1.149315e+02
2.600000e-06	3.227709e-06	1.693258e-09	2.290374e+01	1.164815e+02
2.610000e-06	3.264443e-06	1.716604e-09	2.316441e+01	1.179841e+02
2.620000e-06	3.300983e-06	1.736987e-09	2.342369e+01	1.194401e+02
2.630000e-06	3.337270e-06	1.754093e-09	2.368118e+01	1.208501e+02
2.640000e-06	3.373392e-06	1.772633e-09	2.393750e+01	1.222152e+02
2.650000e-06	3.409366e-06	1.792266e-09	2.419278e+01	1.235361e+02
2.660000e-06	3.445264e-06	1.808950e-09	2.444751e+01	1.248136e+02
2.670000e-06	3.481013e-06	1.825126e-09	2.470118e+01	1.260486e+02
2.680000e-06	3.516553e-06	1.844180e-09	2.495337e+01	1.272420e+02
2.690000e-06	3.551754e-06	1.863360e-09	2.520315e+01	1.283946e+02
2.700000e-06	3.586527e-06	1.877996e-09	2.544991e+01	1.295072e+02
2.710000e-06	3.620933e-06	1.888918e-09	2.569405e+01	1.305808e+02
2.720000e-06	3.654865e-06	1.902256e-09	2.593483e+01	1.316161e+02
2.730000e-06	3.688285e-06	1.918223e-09	2.617198e+01	1.326141e+02
2.740000e-06	3.721248e-06	1.931457e-09	2.640588e+01	1.335756e+02
2.750000e-06	3.753913e-06	1.942144e-09	2.663767e+01	1.345016e+02
2.760000e-06	3.786320e-06	1.955881e-09	2.686763e+01	1.353930e+02
2.770000e-06	3.818509e-06	1.972217e-09	2.709605e+01	1.362508e+02
2.780000e-06	3.850590e-06	1.985243e-09	2.732369e+01	1.370760e+02
2.790000e-06	3.882617e-06	1.994396e-09	2.755095e+01	1.378696e+02
2.800000e-06	3.914494e-06	2.003893e-09	2.777715e+01	1.386326e+02
2.810000e-06	3.946018e-06	2.015341e-09	2.800084e+01	1.393662e+02
2.820000e-06	3.977222e-06	2.025859e-09	2.822227e+01	1.400714e+02
2.830000e-06	4.008141e-06	2.034245e-09	2.844167e+01	1.407496e+02
2.840000e-06	4.038705e-06	2.045784e-09	2.865855e+01	1.414018e+02
2.850000e-06	4.068966e-06	2.059990e-09	2.887328e+01	1.420293e+02
2.860000e-06	4.099060e-06	2.071897e-09	2.908683e+01	1.426333e+02
2.870000e-06	4.129018e-06	2.079629e-09	2.929941e+01	1.432151e+02
2.880000e-06	4.158700e-06	2.084694e-09	2.951003e+01	1.437760e+02
2.890000e-06	4.188052e-06	2.090089e-09	2.971831e+01	1.443172e+02
2.900000e-06	4.217136e-06	2.096690e-09	2.992469e+01	1.448399e+02
