# Temperatura_=_-1.4
# Concentracion g/m^3_=_4090.0
# C_Vs_to_Am_M_A/Vsm_=_65563218390.804596
# pendiente_HvsI_1/m_=_3716.3
# ordenada_HvsI_A/m_=_1297.0
# frecuencia_Hz_=_135067.23533666707

Tiempo_(s)	Campo_(V.s)	Magnetizacion_(V.s)	Campo_(kA/m)	Magnetizacion_(A/m)
0.000000e+00	-5.408804e-06	-2.563654e-09	-3.839180e+01	-1.664498e+02
1.000000e-08	-5.408803e-06	-2.566404e-09	-3.839180e+01	-1.663891e+02
2.000000e-08	-5.408604e-06	-2.565601e-09	-3.839038e+01	-1.663316e+02
3.000000e-08	-5.408109e-06	-2.560993e-09	-3.838687e+01	-1.662786e+02
4.000000e-08	-5.407144e-06	-2.558746e-09	-3.838002e+01	-1.662308e+02
5.000000e-08	-5.405554e-06	-2.564320e-09	-3.836873e+01	-1.661893e+02
6.000000e-08	-5.403359e-06	-2.580633e-09	-3.835315e+01	-1.661549e+02
7.000000e-08	-5.400621e-06	-2.572325e-09	-3.833372e+01	-1.661282e+02
8.000000e-08	-5.397404e-06	-2.505730e-09	-3.831088e+01	-1.661098e+02
9.000000e-08	-5.393670e-06	-2.507379e-09	-3.828438e+01	-1.661003e+02
1.000000e-07	-5.389544e-06	-2.665517e-09	-3.825509e+01	-1.660999e+02
1.100000e-07	-5.385231e-06	-2.671860e-09	-3.822448e+01	-1.661088e+02
1.200000e-07	-5.380703e-06	-2.504362e-09	-3.819234e+01	-1.661271e+02
1.300000e-07	-5.375916e-06	-2.448912e-09	-3.815836e+01	-1.661545e+02
1.400000e-07	-5.370714e-06	-2.655278e-09	-3.812144e+01	-1.661908e+02
1.500000e-07	-5.365037e-06	-2.705458e-09	-3.808114e+01	-1.662355e+02
1.600000e-07	-5.358999e-06	-2.447050e-09	-3.803829e+01	-1.662881e+02
1.700000e-07	-5.352593e-06	-2.415829e-09	-3.799282e+01	-1.663476e+02
1.800000e-07	-5.345740e-06	-2.661222e-09	-3.794417e+01	-1.664134e+02
1.900000e-07	-5.338513e-06	-2.716973e-09	-3.789287e+01	-1.664842e+02
2.000000e-07	-5.331079e-06	-2.514263e-09	-3.784011e+01	-1.665591e+02
2.100000e-07	-5.323441e-06	-2.547193e-09	-3.778589e+01	-1.666367e+02
2.200000e-07	-5.315551e-06	-2.722712e-09	-3.772989e+01	-1.667158e+02
2.300000e-07	-5.307328e-06	-2.665366e-09	-3.767153e+01	-1.667951e+02
2.400000e-07	-5.298625e-06	-2.520015e-09	-3.760975e+01	-1.668731e+02
2.500000e-07	-5.289382e-06	-2.635552e-09	-3.754414e+01	-1.669485e+02
2.600000e-07	-5.279507e-06	-2.738923e-09	-3.747405e+01	-1.670199e+02
2.700000e-07	-5.268963e-06	-2.607680e-09	-3.739920e+01	-1.670858e+02
2.800000e-07	-5.257911e-06	-2.572024e-09	-3.732076e+01	-1.671450e+02
2.900000e-07	-5.246425e-06	-2.736131e-09	-3.723924e+01	-1.671963e+02
3.000000e-07	-5.234554e-06	-2.702003e-09	-3.715497e+01	-1.672383e+02
3.100000e-07	-5.222363e-06	-2.531370e-09	-3.706844e+01	-1.672700e+02
3.200000e-07	-5.209757e-06	-2.613205e-09	-3.697896e+01	-1.672904e+02
3.300000e-07	-5.196739e-06	-2.737793e-09	-3.688656e+01	-1.672987e+02
3.400000e-07	-5.183360e-06	-2.623945e-09	-3.679160e+01	-1.672941e+02
3.500000e-07	-5.169640e-06	-2.561767e-09	-3.669421e+01	-1.672760e+02
3.600000e-07	-5.155534e-06	-2.665160e-09	-3.659409e+01	-1.672439e+02
3.700000e-07	-5.141027e-06	-2.651275e-09	-3.649112e+01	-1.671975e+02
3.800000e-07	-5.126090e-06	-2.571779e-09	-3.638509e+01	-1.671367e+02
3.900000e-07	-5.110585e-06	-2.626365e-09	-3.627504e+01	-1.670612e+02
4.000000e-07	-5.094558e-06	-2.637470e-09	-3.616128e+01	-1.669714e+02
4.100000e-07	-5.078094e-06	-2.554728e-09	-3.604442e+01	-1.668673e+02
4.200000e-07	-5.061150e-06	-2.598809e-09	-3.592414e+01	-1.667492e+02
4.300000e-07	-5.043863e-06	-2.661506e-09	-3.580144e+01	-1.666178e+02
4.400000e-07	-5.026297e-06	-2.587793e-09	-3.567676e+01	-1.664734e+02
4.500000e-07	-5.008439e-06	-2.546131e-09	-3.555001e+01	-1.663167e+02
4.600000e-07	-4.990248e-06	-2.622060e-09	-3.542088e+01	-1.661485e+02
4.700000e-07	-4.971567e-06	-2.622655e-09	-3.528828e+01	-1.659694e+02
4.800000e-07	-4.952507e-06	-2.570507e-09	-3.515299e+01	-1.657804e+02
4.900000e-07	-4.933137e-06	-2.569852e-09	-3.501551e+01	-1.655822e+02
5.000000e-07	-4.913462e-06	-2.592487e-09	-3.487585e+01	-1.653758e+02
5.100000e-07	-4.893563e-06	-2.591059e-09	-3.473461e+01	-1.651620e+02
5.200000e-07	-4.873457e-06	-2.590559e-09	-3.459190e+01	-1.649416e+02
5.300000e-07	-4.853104e-06	-2.560772e-09	-3.444743e+01	-1.647156e+02
5.400000e-07	-4.832444e-06	-2.550110e-09	-3.430078e+01	-1.644847e+02
5.500000e-07	-4.811392e-06	-2.578416e-09	-3.415136e+01	-1.642498e+02
5.600000e-07	-4.789941e-06	-2.582732e-09	-3.399910e+01	-1.640116e+02
5.700000e-07	-4.768196e-06	-2.545407e-09	-3.384475e+01	-1.637707e+02
5.800000e-07	-4.746130e-06	-2.538995e-09	-3.368813e+01	-1.635279e+02
5.900000e-07	-4.723768e-06	-2.555177e-09	-3.352940e+01	-1.632836e+02
6.000000e-07	-4.701230e-06	-2.561811e-09	-3.336943e+01	-1.630384e+02
6.100000e-07	-4.678359e-06	-2.546395e-09	-3.320709e+01	-1.627928e+02
6.200000e-07	-4.655038e-06	-2.517987e-09	-3.304155e+01	-1.625470e+02
6.300000e-07	-4.631413e-06	-2.514910e-09	-3.287386e+01	-1.623014e+02
6.400000e-07	-4.607592e-06	-2.540785e-09	-3.270478e+01	-1.620562e+02
6.500000e-07	-4.583565e-06	-2.533390e-09	-3.253424e+01	-1.618115e+02
6.600000e-07	-4.559311e-06	-2.496540e-09	-3.236208e+01	-1.615675e+02
6.700000e-07	-4.534748e-06	-2.498109e-09	-3.218773e+01	-1.613242e+02
6.800000e-07	-4.509702e-06	-2.522536e-09	-3.200996e+01	-1.610815e+02
6.900000e-07	-4.484176e-06	-2.519893e-09	-3.182877e+01	-1.608394e+02
7.000000e-07	-4.458166e-06	-2.493470e-09	-3.164416e+01	-1.605978e+02
7.100000e-07	-4.431596e-06	-2.481752e-09	-3.145556e+01	-1.603564e+02
7.200000e-07	-4.404552e-06	-2.489828e-09	-3.126360e+01	-1.601152e+02
7.300000e-07	-4.377142e-06	-2.498799e-09	-3.106904e+01	-1.598738e+02
7.400000e-07	-4.349481e-06	-2.479440e-09	-3.087271e+01	-1.596320e+02
7.500000e-07	-4.321626e-06	-2.460444e-09	-3.067499e+01	-1.593894e+02
7.600000e-07	-4.293619e-06	-2.466925e-09	-3.047619e+01	-1.591458e+02
7.700000e-07	-4.265462e-06	-2.477950e-09	-3.027634e+01	-1.589009e+02
7.800000e-07	-4.237071e-06	-2.461572e-09	-3.007481e+01	-1.586542e+02
7.900000e-07	-4.208336e-06	-2.441294e-09	-2.987085e+01	-1.584055e+02
8.000000e-07	-4.179203e-06	-2.436881e-09	-2.966407e+01	-1.581543e+02
8.100000e-07	-4.149737e-06	-2.447486e-09	-2.945492e+01	-1.579003e+02
8.200000e-07	-4.120018e-06	-2.447818e-09	-2.924397e+01	-1.576432e+02
8.300000e-07	-4.089984e-06	-2.433778e-09	-2.903079e+01	-1.573827e+02
8.400000e-07	-4.059656e-06	-2.423151e-09	-2.881552e+01	-1.571182e+02
8.500000e-07	-4.029182e-06	-2.428475e-09	-2.859922e+01	-1.568497e+02
8.600000e-07	-3.998476e-06	-2.424130e-09	-2.838127e+01	-1.565767e+02
8.700000e-07	-3.967394e-06	-2.404867e-09	-2.816065e+01	-1.562989e+02
8.800000e-07	-3.936078e-06	-2.388238e-09	-2.793836e+01	-1.560162e+02
8.900000e-07	-3.904549e-06	-2.394639e-09	-2.771457e+01	-1.557282e+02
9.000000e-07	-3.872753e-06	-2.403889e-09	-2.748888e+01	-1.554347e+02
9.100000e-07	-3.840798e-06	-2.397695e-09	-2.726206e+01	-1.551356e+02
9.200000e-07	-3.808701e-06	-2.384785e-09	-2.703424e+01	-1.548307e+02
9.300000e-07	-3.776434e-06	-2.381785e-09	-2.680520e+01	-1.545199e+02
9.400000e-07	-3.743939e-06	-2.382136e-09	-2.657456e+01	-1.542031e+02
9.500000e-07	-3.711170e-06	-2.369414e-09	-2.634196e+01	-1.538803e+02
9.600000e-07	-3.678045e-06	-2.351302e-09	-2.610684e+01	-1.535515e+02
9.700000e-07	-3.644367e-06	-2.343522e-09	-2.586779e+01	-1.532167e+02
9.800000e-07	-3.610104e-06	-2.345309e-09	-2.562459e+01	-1.528759e+02
9.900000e-07	-3.575391e-06	-2.339395e-09	-2.537820e+01	-1.525293e+02
1.000000e-06	-3.540321e-06	-2.327633e-09	-2.512927e+01	-1.521771e+02
1.010000e-06	-3.504990e-06	-2.318727e-09	-2.487849e+01	-1.518193e+02
1.020000e-06	-3.469488e-06	-2.316181e-09	-2.462650e+01	-1.514563e+02
1.030000e-06	-3.433801e-06	-2.309929e-09	-2.437319e+01	-1.510881e+02
1.040000e-06	-3.397915e-06	-2.300680e-09	-2.411847e+01	-1.507151e+02
1.050000e-06	-3.361864e-06	-2.291345e-09	-2.386258e+01	-1.503375e+02
1.060000e-06	-3.325634e-06	-2.287477e-09	-2.360541e+01	-1.499556e+02
1.070000e-06	-3.289235e-06	-2.282089e-09	-2.334706e+01	-1.495697e+02
1.080000e-06	-3.252647e-06	-2.271237e-09	-2.308736e+01	-1.491799e+02
1.090000e-06	-3.215798e-06	-2.257914e-09	-2.282580e+01	-1.487866e+02
1.100000e-06	-3.178685e-06	-2.252218e-09	-2.256237e+01	-1.483901e+02
1.110000e-06	-3.141347e-06	-2.246588e-09	-2.229734e+01	-1.479904e+02
1.120000e-06	-3.103742e-06	-2.237485e-09	-2.203042e+01	-1.475878e+02
1.130000e-06	-3.065902e-06	-2.226623e-09	-2.176184e+01	-1.471825e+02
1.140000e-06	-3.027947e-06	-2.223104e-09	-2.149243e+01	-1.467744e+02
1.150000e-06	-2.989802e-06	-2.219780e-09	-2.122168e+01	-1.463637e+02
1.160000e-06	-2.951390e-06	-2.209363e-09	-2.094903e+01	-1.459504e+02
1.170000e-06	-2.912789e-06	-2.195056e-09	-2.067504e+01	-1.455343e+02
1.180000e-06	-2.873975e-06	-2.185829e-09	-2.039953e+01	-1.451153e+02
1.190000e-06	-2.834925e-06	-2.180123e-09	-2.012236e+01	-1.446933e+02
1.200000e-06	-2.795575e-06	-2.170708e-09	-1.984305e+01	-1.442680e+02
1.210000e-06	-2.756056e-06	-2.161389e-09	-1.956254e+01	-1.438389e+02
1.220000e-06	-2.716487e-06	-2.158496e-09	-1.928168e+01	-1.434059e+02
1.230000e-06	-2.676755e-06	-2.158167e-09	-1.899966e+01	-1.429684e+02
1.240000e-06	-2.636861e-06	-2.151399e-09	-1.871649e+01	-1.425259e+02
1.250000e-06	-2.596902e-06	-2.140762e-09	-1.843286e+01	-1.420779e+02
1.260000e-06	-2.556916e-06	-2.131115e-09	-1.814904e+01	-1.416239e+02
1.270000e-06	-2.516824e-06	-2.124136e-09	-1.786447e+01	-1.411631e+02
1.280000e-06	-2.476583e-06	-2.117028e-09	-1.757884e+01	-1.406951e+02
1.290000e-06	-2.436173e-06	-2.109736e-09	-1.729201e+01	-1.402191e+02
1.300000e-06	-2.395582e-06	-2.102687e-09	-1.700389e+01	-1.397345e+02
1.310000e-06	-2.354850e-06	-2.097765e-09	-1.671478e+01	-1.392408e+02
1.320000e-06	-2.313944e-06	-2.089397e-09	-1.642442e+01	-1.387372e+02
1.330000e-06	-2.272761e-06	-2.076038e-09	-1.613211e+01	-1.382233e+02
1.340000e-06	-2.231271e-06	-2.063032e-09	-1.583761e+01	-1.376985e+02
1.350000e-06	-2.189442e-06	-2.056124e-09	-1.554070e+01	-1.371622e+02
1.360000e-06	-2.147279e-06	-2.051462e-09	-1.524143e+01	-1.366142e+02
1.370000e-06	-2.104818e-06	-2.044315e-09	-1.494004e+01	-1.360540e+02
1.380000e-06	-2.062053e-06	-2.034987e-09	-1.463649e+01	-1.354813e+02
1.390000e-06	-2.019107e-06	-2.027662e-09	-1.433166e+01	-1.348959e+02
1.400000e-06	-1.976037e-06	-2.020514e-09	-1.402595e+01	-1.342976e+02
1.410000e-06	-1.932778e-06	-2.010542e-09	-1.371890e+01	-1.336864e+02
1.420000e-06	-1.889354e-06	-1.997148e-09	-1.341067e+01	-1.330623e+02
1.430000e-06	-1.845737e-06	-1.984312e-09	-1.310108e+01	-1.324253e+02
1.440000e-06	-1.801988e-06	-1.971827e-09	-1.279055e+01	-1.317755e+02
1.450000e-06	-1.758201e-06	-1.961237e-09	-1.247975e+01	-1.311131e+02
1.460000e-06	-1.714369e-06	-1.953041e-09	-1.216863e+01	-1.304383e+02
1.470000e-06	-1.670501e-06	-1.945536e-09	-1.185725e+01	-1.297514e+02
1.480000e-06	-1.626553e-06	-1.936453e-09	-1.154531e+01	-1.290525e+02
1.490000e-06	-1.582506e-06	-1.924637e-09	-1.123266e+01	-1.283420e+02
1.500000e-06	-1.538418e-06	-1.909507e-09	-1.091972e+01	-1.276202e+02
1.510000e-06	-1.494257e-06	-1.892045e-09	-1.060627e+01	-1.268871e+02
1.520000e-06	-1.450008e-06	-1.874649e-09	-1.029219e+01	-1.261431e+02
1.530000e-06	-1.405703e-06	-1.860850e-09	-9.977711e+00	-1.253883e+02
1.540000e-06	-1.361349e-06	-1.850451e-09	-9.662880e+00	-1.246226e+02
1.550000e-06	-1.316868e-06	-1.842885e-09	-9.347154e+00	-1.238462e+02
1.560000e-06	-1.272328e-06	-1.835726e-09	-9.031008e+00	-1.230588e+02
1.570000e-06	-1.227754e-06	-1.823883e-09	-8.714625e+00	-1.222602e+02
1.580000e-06	-1.183025e-06	-1.808314e-09	-8.397136e+00	-1.214500e+02
1.590000e-06	-1.138172e-06	-1.790835e-09	-8.078770e+00	-1.206279e+02
1.600000e-06	-1.093258e-06	-1.772752e-09	-7.759970e+00	-1.197931e+02
1.610000e-06	-1.048254e-06	-1.755884e-09	-7.440531e+00	-1.189449e+02
1.620000e-06	-1.003116e-06	-1.743987e-09	-7.120141e+00	-1.180824e+02
1.630000e-06	-9.578878e-07	-1.732419e-09	-6.799108e+00	-1.172045e+02
1.640000e-06	-9.125758e-07	-1.718316e-09	-6.477482e+00	-1.163101e+02
1.650000e-06	-8.672557e-07	-1.704159e-09	-6.155799e+00	-1.153979e+02
1.660000e-06	-8.219074e-07	-1.692072e-09	-5.833916e+00	-1.144665e+02
1.670000e-06	-7.764391e-07	-1.678141e-09	-5.511181e+00	-1.135143e+02
1.680000e-06	-7.309474e-07	-1.659452e-09	-5.188280e+00	-1.125397e+02
1.690000e-06	-6.854673e-07	-1.636568e-09	-4.865461e+00	-1.115410e+02
1.700000e-06	-6.399606e-07	-1.615767e-09	-4.542453e+00	-1.105164e+02
1.710000e-06	-5.943872e-07	-1.601047e-09	-4.218973e+00	-1.094640e+02
1.720000e-06	-5.487292e-07	-1.588776e-09	-3.894891e+00	-1.083820e+02
1.730000e-06	-5.030052e-07	-1.572709e-09	-3.570342e+00	-1.072685e+02
1.740000e-06	-4.572622e-07	-1.555241e-09	-3.245657e+00	-1.061216e+02
1.750000e-06	-4.115479e-07	-1.540484e-09	-2.921175e+00	-1.049393e+02
1.760000e-06	-3.658281e-07	-1.525402e-09	-2.596655e+00	-1.037198e+02
1.770000e-06	-3.199964e-07	-1.503419e-09	-2.271341e+00	-1.024614e+02
1.780000e-06	-2.741328e-07	-1.477366e-09	-1.945800e+00	-1.011623e+02
1.790000e-06	-2.283719e-07	-1.454315e-09	-1.620988e+00	-9.982066e+01
1.800000e-06	-1.826189e-07	-1.434619e-09	-1.296233e+00	-9.843505e+01
1.810000e-06	-1.367845e-07	-1.415844e-09	-9.708991e-01	-9.700391e+01
1.820000e-06	-9.089216e-08	-1.395108e-09	-6.451544e-01	-9.552582e+01
1.830000e-06	-4.501891e-08	-1.373395e-09	-3.195452e-01	-9.399946e+01
1.840000e-06	8.013079e-10	-1.350754e-09	5.687700e-03	-9.242363e+01
1.850000e-06	4.660877e-08	-1.325528e-09	3.308300e-01	-9.079721e+01
1.860000e-06	9.244498e-08	-1.295866e-09	6.561764e-01	-8.911919e+01
1.870000e-06	1.383183e-07	-1.265052e-09	9.817859e-01	-8.738866e+01
1.880000e-06	1.842184e-07	-1.238347e-09	1.307586e+00	-8.560478e+01
1.890000e-06	2.300648e-07	-1.214473e-09	1.633005e+00	-8.376681e+01
1.900000e-06	2.758684e-07	-1.186044e-09	1.958119e+00	-8.187408e+01
1.910000e-06	3.216817e-07	-1.155433e-09	2.283303e+00	-7.992600e+01
1.920000e-06	3.674557e-07	-1.128108e-09	2.608208e+00	-7.792203e+01
1.930000e-06	4.132254e-07	-1.103632e-09	2.933083e+00	-7.586167e+01
1.940000e-06	4.590246e-07	-1.075774e-09	3.258166e+00	-7.374449e+01
1.950000e-06	5.047654e-07	-1.041771e-09	3.582835e+00	-7.157006e+01
1.960000e-06	5.504200e-07	-1.007327e-09	3.906893e+00	-6.933802e+01
1.970000e-06	5.960488e-07	-9.756420e-10	4.230766e+00	-6.704801e+01
1.980000e-06	6.416397e-07	-9.418746e-10	4.554372e+00	-6.469972e+01
1.990000e-06	6.871936e-07	-9.031806e-10	4.877714e+00	-6.229284e+01
2.000000e-06	7.327765e-07	-8.646313e-10	5.201263e+00	-5.982712e+01
2.010000e-06	7.783494e-07	-8.308316e-10	5.524740e+00	-5.730231e+01
2.020000e-06	8.238070e-07	-7.972319e-10	5.847399e+00	-5.471825e+01
2.030000e-06	8.690986e-07	-7.586229e-10	6.168880e+00	-5.207478e+01
2.040000e-06	9.142957e-07	-7.171153e-10	6.489690e+00	-4.937185e+01
2.050000e-06	9.595071e-07	-6.770571e-10	6.810601e+00	-4.660947e+01
2.060000e-06	1.004627e-06	-6.371564e-10	7.130863e+00	-4.378777e+01
2.070000e-06	1.049618e-06	-5.927821e-10	7.450207e+00	-4.090699e+01
2.080000e-06	1.094526e-06	-5.451142e-10	7.768965e+00	-3.796749e+01
2.090000e-06	1.139357e-06	-4.989477e-10	8.087179e+00	-3.496983e+01
2.100000e-06	1.184096e-06	-4.573355e-10	8.404735e+00	-3.191474e+01
2.110000e-06	1.228747e-06	-4.148187e-10	8.721670e+00	-2.880314e+01
2.120000e-06	1.273270e-06	-3.693117e-10	9.037694e+00	-2.563620e+01
2.130000e-06	1.317638e-06	-3.224297e-10	9.352620e+00	-2.241534e+01
2.140000e-06	1.361974e-06	-2.747791e-10	9.667319e+00	-1.914224e+01
2.150000e-06	1.406291e-06	-2.249645e-10	9.981880e+00	-1.581887e+01
2.160000e-06	1.450543e-06	-1.713522e-10	1.029598e+01	-1.244750e+01
2.170000e-06	1.494735e-06	-1.165803e-10	1.060966e+01	-9.030722e+00
2.180000e-06	1.538867e-06	-6.638983e-11	1.092291e+01	-5.571425e+00
2.190000e-06	1.582887e-06	-2.140062e-11	1.123537e+01	-2.072838e+00
2.200000e-06	1.626849e-06	2.652053e-11	1.154741e+01	1.461496e+00
2.210000e-06	1.670837e-06	8.228279e-11	1.185963e+01	5.027718e+00
2.220000e-06	1.714773e-06	1.391267e-10	1.217150e+01	8.621663e+00
2.230000e-06	1.758603e-06	1.919399e-10	1.248260e+01	1.223888e+01
2.240000e-06	1.802324e-06	2.444992e-10	1.279293e+01	1.587464e+01
2.250000e-06	1.845950e-06	3.009743e-10	1.310259e+01	1.952399e+01
2.260000e-06	1.889466e-06	3.579790e-10	1.341147e+01	2.318173e+01
2.270000e-06	1.932861e-06	4.116334e-10	1.371949e+01	2.684251e+01
2.280000e-06	1.976144e-06	4.644495e-10	1.402671e+01	3.050082e+01
2.290000e-06	2.019179e-06	5.210574e-10	1.433217e+01	3.415105e+01
2.300000e-06	2.062010e-06	5.817056e-10	1.463619e+01	3.778753e+01
2.310000e-06	2.104630e-06	6.392812e-10	1.493871e+01	4.140457e+01
2.320000e-06	2.146908e-06	6.921938e-10	1.523880e+01	4.499651e+01
2.330000e-06	2.188864e-06	7.424953e-10	1.553660e+01	4.855778e+01
2.340000e-06	2.230510e-06	7.913523e-10	1.583221e+01	5.208293e+01
2.350000e-06	2.271897e-06	8.399349e-10	1.612597e+01	5.556667e+01
2.360000e-06	2.313068e-06	8.907759e-10	1.641821e+01	5.900395e+01
2.370000e-06	2.354012e-06	9.447374e-10	1.670882e+01	6.238995e+01
2.380000e-06	2.394626e-06	1.000363e-09	1.699711e+01	6.572018e+01
2.390000e-06	2.434982e-06	1.052249e-09	1.728355e+01	6.899046e+01
2.400000e-06	2.475260e-06	1.097543e-09	1.756944e+01	7.219698e+01
2.410000e-06	2.515480e-06	1.139636e-09	1.785493e+01	7.533633e+01
2.420000e-06	2.555616e-06	1.181258e-09	1.813982e+01	7.840552e+01
2.430000e-06	2.595589e-06	1.222082e-09	1.842354e+01	8.140198e+01
2.440000e-06	2.635404e-06	1.261912e-09	1.870615e+01	8.432357e+01
2.450000e-06	2.675159e-06	1.301961e-09	1.898834e+01	8.716863e+01
2.460000e-06	2.714848e-06	1.342880e-09	1.927004e+01	8.993592e+01
2.470000e-06	2.754409e-06	1.381758e-09	1.955085e+01	9.262464e+01
2.480000e-06	2.793766e-06	1.417325e-09	1.983021e+01	9.523443e+01
2.490000e-06	2.832924e-06	1.452989e-09	2.010815e+01	9.776532e+01
2.500000e-06	2.871848e-06	1.490441e-09	2.038444e+01	1.002177e+02
2.510000e-06	2.910475e-06	1.525085e-09	2.065861e+01	1.025925e+02
2.520000e-06	2.948943e-06	1.556076e-09	2.093166e+01	1.048906e+02
2.530000e-06	2.987240e-06	1.586489e-09	2.120349e+01	1.071136e+02
2.540000e-06	3.025349e-06	1.618895e-09	2.147399e+01	1.092631e+02
2.550000e-06	3.063260e-06	1.653697e-09	2.174309e+01	1.113410e+02
2.560000e-06	3.100952e-06	1.683393e-09	2.201062e+01	1.133493e+02
2.570000e-06	3.138436e-06	1.709465e-09	2.227669e+01	1.152903e+02
2.580000e-06	3.175703e-06	1.733759e-09	2.254121e+01	1.171663e+02
2.590000e-06	3.212729e-06	1.756914e-09	2.280401e+01	1.189796e+02
2.600000e-06	3.249442e-06	1.777142e-09	2.306460e+01	1.207326e+02
2.610000e-06	3.285881e-06	1.798499e-09	2.332325e+01	1.224277e+02
2.620000e-06	3.322139e-06	1.826172e-09	2.358061e+01	1.240673e+02
2.630000e-06	3.358279e-06	1.856528e-09	2.383713e+01	1.256536e+02
2.640000e-06	3.394285e-06	1.882983e-09	2.409270e+01	1.271889e+02
2.650000e-06	3.430188e-06	1.900997e-09	2.434755e+01	1.286750e+02
2.660000e-06	3.465975e-06	1.914317e-09	2.460156e+01	1.301140e+02
2.670000e-06	3.501586e-06	1.929365e-09	2.485433e+01	1.315077e+02
2.680000e-06	3.537022e-06	1.945634e-09	2.510586e+01	1.328577e+02
2.690000e-06	3.572165e-06	1.962378e-09	2.535530e+01	1.341654e+02
2.700000e-06	3.606889e-06	1.982059e-09	2.560177e+01	1.354321e+02
2.710000e-06	3.641116e-06	2.005095e-09	2.584472e+01	1.366590e+02
2.720000e-06	3.674826e-06	2.028827e-09	2.608399e+01	1.378471e+02
2.730000e-06	3.708036e-06	2.046930e-09	2.631972e+01	1.389973e+02
2.740000e-06	3.740819e-06	2.057797e-09	2.655241e+01	1.401103e+02
2.750000e-06	3.773368e-06	2.069111e-09	2.678344e+01	1.411867e+02
2.760000e-06	3.805689e-06	2.084223e-09	2.701286e+01	1.422270e+02
2.770000e-06	3.837788e-06	2.099347e-09	2.724070e+01	1.432319e+02
2.780000e-06	3.869752e-06	2.113973e-09	2.746758e+01	1.442017e+02
2.790000e-06	3.901569e-06	2.129011e-09	2.769341e+01	1.451368e+02
2.800000e-06	3.933207e-06	2.143887e-09	2.791799e+01	1.460375e+02
2.810000e-06	3.964600e-06	2.155715e-09	2.814081e+01	1.469044e+02
2.820000e-06	3.995645e-06	2.164022e-09	2.836117e+01	1.477378e+02
2.830000e-06	4.026387e-06	2.173139e-09	2.857938e+01	1.485382e+02
2.840000e-06	4.056875e-06	2.188279e-09	2.879578e+01	1.493062e+02
2.850000e-06	4.087074e-06	2.205783e-09	2.901014e+01	1.500422e+02
2.860000e-06	4.116993e-06	2.220452e-09	2.922250e+01	1.507471e+02
2.870000e-06	4.146649e-06	2.230621e-09	2.943300e+01	1.514215e+02
2.880000e-06	4.176071e-06	2.236431e-09	2.964184e+01	1.520662e+02
2.890000e-06	4.205247e-06	2.238146e-09	2.984893e+01	1.526822e+02
2.900000e-06	4.234124e-06	2.239010e-09	3.005390e+01	1.532705e+02
