# Temperatura_=_-1.3
# Concentracion g/m^3_=_4090.0
# C_Vs_to_Am_M_A/Vsm_=_65563218390.804596
# pendiente_HvsI_1/m_=_3716.3
# ordenada_HvsI_A/m_=_1297.0
# frecuencia_Hz_=_135061.97512795476

Tiempo_(s)	Campo_(V.s)	Magnetizacion_(V.s)	Campo_(kA/m)	Magnetizacion_(A/m)
0.000000e+00	-5.401416e-06	-2.559414e-09	-3.840236e+01	-1.663492e+02
1.000000e-08	-5.401406e-06	-2.558505e-09	-3.840229e+01	-1.662358e+02
2.000000e-08	-5.401277e-06	-2.558298e-09	-3.840137e+01	-1.661259e+02
3.000000e-08	-5.400903e-06	-2.559422e-09	-3.839871e+01	-1.660220e+02
4.000000e-08	-5.400080e-06	-2.560226e-09	-3.839286e+01	-1.659262e+02
5.000000e-08	-5.398739e-06	-2.561009e-09	-3.838333e+01	-1.658408e+02
6.000000e-08	-5.396841e-06	-2.562881e-09	-3.836983e+01	-1.657677e+02
7.000000e-08	-5.394355e-06	-2.548176e-09	-3.835216e+01	-1.657087e+02
8.000000e-08	-5.391299e-06	-2.517735e-09	-3.833043e+01	-1.656655e+02
9.000000e-08	-5.387640e-06	-2.556695e-09	-3.830441e+01	-1.656392e+02
1.000000e-07	-5.383437e-06	-2.660735e-09	-3.827453e+01	-1.656309e+02
1.100000e-07	-5.378965e-06	-2.637499e-09	-3.824274e+01	-1.656414e+02
1.200000e-07	-5.374446e-06	-2.486256e-09	-3.821061e+01	-1.656709e+02
1.300000e-07	-5.369801e-06	-2.487915e-09	-3.817759e+01	-1.657194e+02
1.400000e-07	-5.364676e-06	-2.642771e-09	-3.814115e+01	-1.657868e+02
1.500000e-07	-5.358991e-06	-2.637722e-09	-3.810073e+01	-1.658721e+02
1.600000e-07	-5.353026e-06	-2.437626e-09	-3.805832e+01	-1.659746e+02
1.700000e-07	-5.346813e-06	-2.450205e-09	-3.801415e+01	-1.660927e+02
1.800000e-07	-5.340136e-06	-2.677158e-09	-3.796668e+01	-1.662249e+02
1.900000e-07	-5.332966e-06	-2.695499e-09	-3.791570e+01	-1.663694e+02
2.000000e-07	-5.325559e-06	-2.532686e-09	-3.786304e+01	-1.665239e+02
2.100000e-07	-5.318035e-06	-2.541450e-09	-3.780955e+01	-1.666861e+02
2.200000e-07	-5.310268e-06	-2.677600e-09	-3.775433e+01	-1.668535e+02
2.300000e-07	-5.302163e-06	-2.630309e-09	-3.769670e+01	-1.670236e+02
2.400000e-07	-5.293665e-06	-2.552432e-09	-3.763628e+01	-1.671936e+02
2.500000e-07	-5.284618e-06	-2.646530e-09	-3.757196e+01	-1.673609e+02
2.600000e-07	-5.274911e-06	-2.722239e-09	-3.750295e+01	-1.675227e+02
2.700000e-07	-5.264546e-06	-2.621906e-09	-3.742926e+01	-1.676766e+02
2.800000e-07	-5.253634e-06	-2.608686e-09	-3.735168e+01	-1.678201e+02
2.900000e-07	-5.242267e-06	-2.720742e-09	-3.727086e+01	-1.679508e+02
3.000000e-07	-5.230507e-06	-2.677120e-09	-3.718725e+01	-1.680665e+02
3.100000e-07	-5.218397e-06	-2.551526e-09	-3.710115e+01	-1.681655e+02
3.200000e-07	-5.205917e-06	-2.628700e-09	-3.701242e+01	-1.682461e+02
3.300000e-07	-5.193077e-06	-2.722843e-09	-3.692113e+01	-1.683070e+02
3.400000e-07	-5.179922e-06	-2.616968e-09	-3.682760e+01	-1.683470e+02
3.500000e-07	-5.166463e-06	-2.554411e-09	-3.673192e+01	-1.683655e+02
3.600000e-07	-5.152548e-06	-2.638397e-09	-3.663298e+01	-1.683620e+02
3.700000e-07	-5.138111e-06	-2.641397e-09	-3.653034e+01	-1.683365e+02
3.800000e-07	-5.123153e-06	-2.575275e-09	-3.642400e+01	-1.682890e+02
3.900000e-07	-5.107695e-06	-2.603177e-09	-3.631409e+01	-1.682201e+02
4.000000e-07	-5.091694e-06	-2.620672e-09	-3.620034e+01	-1.681305e+02
4.100000e-07	-5.075173e-06	-2.580154e-09	-3.608288e+01	-1.680213e+02
4.200000e-07	-5.058281e-06	-2.598706e-09	-3.596278e+01	-1.678936e+02
4.300000e-07	-5.041128e-06	-2.620586e-09	-3.584083e+01	-1.677488e+02
4.400000e-07	-5.023794e-06	-2.554104e-09	-3.571758e+01	-1.675885e+02
4.500000e-07	-5.006229e-06	-2.542439e-09	-3.559270e+01	-1.674144e+02
4.600000e-07	-4.988237e-06	-2.603270e-09	-3.546479e+01	-1.672282e+02
4.700000e-07	-4.969866e-06	-2.596085e-09	-3.533418e+01	-1.670317e+02
4.800000e-07	-4.951124e-06	-2.548173e-09	-3.520093e+01	-1.668266e+02
4.900000e-07	-4.931884e-06	-2.567368e-09	-3.506414e+01	-1.666147e+02
5.000000e-07	-4.912251e-06	-2.587117e-09	-3.492455e+01	-1.663976e+02
5.100000e-07	-4.892394e-06	-2.570297e-09	-3.478337e+01	-1.661769e+02
5.200000e-07	-4.872354e-06	-2.548448e-09	-3.464090e+01	-1.659541e+02
5.300000e-07	-4.852058e-06	-2.532918e-09	-3.449659e+01	-1.657304e+02
5.400000e-07	-4.831430e-06	-2.532822e-09	-3.434994e+01	-1.655068e+02
5.500000e-07	-4.810519e-06	-2.558598e-09	-3.420127e+01	-1.652843e+02
5.600000e-07	-4.789292e-06	-2.551246e-09	-3.405035e+01	-1.650636e+02
5.700000e-07	-4.767651e-06	-2.521196e-09	-3.389649e+01	-1.648451e+02
5.800000e-07	-4.745681e-06	-2.529118e-09	-3.374029e+01	-1.646291e+02
5.900000e-07	-4.723454e-06	-2.547795e-09	-3.358226e+01	-1.644156e+02
6.000000e-07	-4.700977e-06	-2.529004e-09	-3.342246e+01	-1.642045e+02
6.100000e-07	-4.678194e-06	-2.506591e-09	-3.326048e+01	-1.639955e+02
6.200000e-07	-4.655009e-06	-2.502395e-09	-3.309564e+01	-1.637881e+02
6.300000e-07	-4.631474e-06	-2.508313e-09	-3.292832e+01	-1.635816e+02
6.400000e-07	-4.607697e-06	-2.518059e-09	-3.275927e+01	-1.633753e+02
6.500000e-07	-4.583635e-06	-2.510067e-09	-3.258819e+01	-1.631684e+02
6.600000e-07	-4.559315e-06	-2.490148e-09	-3.241528e+01	-1.629599e+02
6.700000e-07	-4.534779e-06	-2.495422e-09	-3.224085e+01	-1.627488e+02
6.800000e-07	-4.509869e-06	-2.511752e-09	-3.206374e+01	-1.625343e+02
6.900000e-07	-4.484459e-06	-2.499903e-09	-3.188308e+01	-1.623152e+02
7.000000e-07	-4.458521e-06	-2.483105e-09	-3.169867e+01	-1.620908e+02
7.100000e-07	-4.432072e-06	-2.484951e-09	-3.151063e+01	-1.618602e+02
7.200000e-07	-4.405210e-06	-2.490440e-09	-3.131965e+01	-1.616226e+02
7.300000e-07	-4.377951e-06	-2.481702e-09	-3.112585e+01	-1.613773e+02
7.400000e-07	-4.350365e-06	-2.468379e-09	-3.092972e+01	-1.611239e+02
7.500000e-07	-4.322573e-06	-2.460278e-09	-3.073213e+01	-1.608620e+02
7.600000e-07	-4.294590e-06	-2.464737e-09	-3.053317e+01	-1.605912e+02
7.700000e-07	-4.266385e-06	-2.464213e-09	-3.033265e+01	-1.603117e+02
7.800000e-07	-4.237954e-06	-2.453374e-09	-3.013051e+01	-1.600233e+02
7.900000e-07	-4.209274e-06	-2.447179e-09	-2.992661e+01	-1.597263e+02
8.000000e-07	-4.180259e-06	-2.452240e-09	-2.972032e+01	-1.594210e+02
8.100000e-07	-4.150854e-06	-2.449794e-09	-2.951126e+01	-1.591080e+02
8.200000e-07	-4.121175e-06	-2.438011e-09	-2.930025e+01	-1.587879e+02
8.300000e-07	-4.091293e-06	-2.426682e-09	-2.908780e+01	-1.584612e+02
8.400000e-07	-4.061128e-06	-2.423074e-09	-2.887334e+01	-1.581289e+02
8.500000e-07	-4.030699e-06	-2.421678e-09	-2.865700e+01	-1.577917e+02
8.600000e-07	-4.000051e-06	-2.414558e-09	-2.843910e+01	-1.574505e+02
8.700000e-07	-3.969065e-06	-2.402199e-09	-2.821880e+01	-1.571062e+02
8.800000e-07	-3.937781e-06	-2.395264e-09	-2.799638e+01	-1.567598e+02
8.900000e-07	-3.906346e-06	-2.396272e-09	-2.777289e+01	-1.564121e+02
9.000000e-07	-3.874664e-06	-2.397075e-09	-2.754763e+01	-1.560639e+02
9.100000e-07	-3.842766e-06	-2.387925e-09	-2.732085e+01	-1.557160e+02
9.200000e-07	-3.810721e-06	-2.375012e-09	-2.709302e+01	-1.553690e+02
9.300000e-07	-3.778469e-06	-2.366470e-09	-2.686372e+01	-1.550236e+02
9.400000e-07	-3.746025e-06	-2.360808e-09	-2.663306e+01	-1.546802e+02
9.500000e-07	-3.713338e-06	-2.354170e-09	-2.640066e+01	-1.543391e+02
9.600000e-07	-3.680222e-06	-2.348298e-09	-2.616521e+01	-1.540006e+02
9.700000e-07	-3.646673e-06	-2.347287e-09	-2.592669e+01	-1.536647e+02
9.800000e-07	-3.612750e-06	-2.346331e-09	-2.568551e+01	-1.533313e+02
9.900000e-07	-3.578441e-06	-2.339197e-09	-2.544159e+01	-1.530004e+02
1.000000e-06	-3.543746e-06	-2.327398e-09	-2.519492e+01	-1.526715e+02
1.010000e-06	-3.508667e-06	-2.316718e-09	-2.494551e+01	-1.523443e+02
1.020000e-06	-3.473251e-06	-2.305985e-09	-2.469372e+01	-1.520183e+02
1.030000e-06	-3.437587e-06	-2.296562e-09	-2.444015e+01	-1.516927e+02
1.040000e-06	-3.401779e-06	-2.290154e-09	-2.418557e+01	-1.513669e+02
1.050000e-06	-3.365825e-06	-2.288776e-09	-2.392995e+01	-1.510400e+02
1.060000e-06	-3.329711e-06	-2.287927e-09	-2.367319e+01	-1.507114e+02
1.070000e-06	-3.293405e-06	-2.282985e-09	-2.341507e+01	-1.503800e+02
1.080000e-06	-3.256892e-06	-2.273366e-09	-2.315547e+01	-1.500452e+02
1.090000e-06	-3.220161e-06	-2.263097e-09	-2.289432e+01	-1.497058e+02
1.100000e-06	-3.183199e-06	-2.254417e-09	-2.263154e+01	-1.493613e+02
1.110000e-06	-3.146020e-06	-2.246289e-09	-2.236721e+01	-1.490106e+02
1.120000e-06	-3.108625e-06	-2.235584e-09	-2.210134e+01	-1.486531e+02
1.130000e-06	-3.071045e-06	-2.226273e-09	-2.183416e+01	-1.482880e+02
1.140000e-06	-3.033266e-06	-2.220585e-09	-2.156556e+01	-1.479148e+02
1.150000e-06	-2.995249e-06	-2.216979e-09	-2.129527e+01	-1.475329e+02
1.160000e-06	-2.957015e-06	-2.210210e-09	-2.102344e+01	-1.471417e+02
1.170000e-06	-2.918575e-06	-2.199984e-09	-2.075014e+01	-1.467410e+02
1.180000e-06	-2.879929e-06	-2.190351e-09	-2.047538e+01	-1.463305e+02
1.190000e-06	-2.841079e-06	-2.184651e-09	-2.019917e+01	-1.459100e+02
1.200000e-06	-2.802042e-06	-2.177258e-09	-1.992163e+01	-1.454793e+02
1.210000e-06	-2.762837e-06	-2.165685e-09	-1.964290e+01	-1.450384e+02
1.220000e-06	-2.723423e-06	-2.154141e-09	-1.936267e+01	-1.445875e+02
1.230000e-06	-2.683785e-06	-2.146504e-09	-1.908086e+01	-1.441266e+02
1.240000e-06	-2.643997e-06	-2.140988e-09	-1.879798e+01	-1.436559e+02
1.250000e-06	-2.604087e-06	-2.134436e-09	-1.851423e+01	-1.431756e+02
1.260000e-06	-2.564094e-06	-2.126653e-09	-1.822990e+01	-1.426861e+02
1.270000e-06	-2.524057e-06	-2.117594e-09	-1.794525e+01	-1.421875e+02
1.280000e-06	-2.483909e-06	-2.111114e-09	-1.765981e+01	-1.416802e+02
1.290000e-06	-2.443661e-06	-2.105241e-09	-1.737365e+01	-1.411646e+02
1.300000e-06	-2.403309e-06	-2.094905e-09	-1.708676e+01	-1.406408e+02
1.310000e-06	-2.362750e-06	-2.081839e-09	-1.679840e+01	-1.401092e+02
1.320000e-06	-2.321960e-06	-2.072888e-09	-1.650840e+01	-1.395700e+02
1.330000e-06	-2.280858e-06	-2.066857e-09	-1.621618e+01	-1.390234e+02
1.340000e-06	-2.239507e-06	-2.060497e-09	-1.592219e+01	-1.384696e+02
1.350000e-06	-2.198019e-06	-2.052361e-09	-1.562722e+01	-1.379087e+02
1.360000e-06	-2.156229e-06	-2.045412e-09	-1.533010e+01	-1.373407e+02
1.370000e-06	-2.114043e-06	-2.040084e-09	-1.503017e+01	-1.367656e+02
1.380000e-06	-2.071507e-06	-2.032568e-09	-1.472776e+01	-1.361833e+02
1.390000e-06	-2.028682e-06	-2.021130e-09	-1.442329e+01	-1.355938e+02
1.400000e-06	-1.985622e-06	-2.009102e-09	-1.411714e+01	-1.349969e+02
1.410000e-06	-1.942375e-06	-2.001683e-09	-1.380967e+01	-1.343922e+02
1.420000e-06	-1.898976e-06	-1.996080e-09	-1.350112e+01	-1.337795e+02
1.430000e-06	-1.855530e-06	-1.984960e-09	-1.319223e+01	-1.331584e+02
1.440000e-06	-1.812042e-06	-1.970589e-09	-1.288305e+01	-1.325285e+02
1.450000e-06	-1.768457e-06	-1.959889e-09	-1.257317e+01	-1.318894e+02
1.460000e-06	-1.724771e-06	-1.953292e-09	-1.226258e+01	-1.312407e+02
1.470000e-06	-1.680943e-06	-1.945356e-09	-1.195097e+01	-1.305817e+02
1.480000e-06	-1.637027e-06	-1.934012e-09	-1.163875e+01	-1.299119e+02
1.490000e-06	-1.593063e-06	-1.923052e-09	-1.132617e+01	-1.292309e+02
1.500000e-06	-1.549062e-06	-1.914924e-09	-1.101334e+01	-1.285379e+02
1.510000e-06	-1.505008e-06	-1.904127e-09	-1.070013e+01	-1.278325e+02
1.520000e-06	-1.460858e-06	-1.886303e-09	-1.038624e+01	-1.271139e+02
1.530000e-06	-1.416658e-06	-1.868205e-09	-1.007199e+01	-1.263815e+02
1.540000e-06	-1.372406e-06	-1.855766e-09	-9.757375e+00	-1.256348e+02
1.550000e-06	-1.328093e-06	-1.846216e-09	-9.442322e+00	-1.248730e+02
1.560000e-06	-1.283663e-06	-1.837702e-09	-9.126436e+00	-1.240956e+02
1.570000e-06	-1.239109e-06	-1.829171e-09	-8.809671e+00	-1.233017e+02
1.580000e-06	-1.194430e-06	-1.818653e-09	-8.492016e+00	-1.224909e+02
1.590000e-06	-1.149634e-06	-1.805602e-09	-8.173533e+00	-1.216622e+02
1.600000e-06	-1.104680e-06	-1.790693e-09	-7.853923e+00	-1.208151e+02
1.610000e-06	-1.059613e-06	-1.776245e-09	-7.533513e+00	-1.199488e+02
1.620000e-06	-1.014621e-06	-1.762549e-09	-7.213634e+00	-1.190625e+02
1.630000e-06	-9.696038e-07	-1.746627e-09	-6.893576e+00	-1.181554e+02
1.640000e-06	-9.245025e-07	-1.728771e-09	-6.572920e+00	-1.172267e+02
1.650000e-06	-8.793330e-07	-1.713515e-09	-6.251780e+00	-1.162756e+02
1.660000e-06	-8.340391e-07	-1.703002e-09	-5.929754e+00	-1.153011e+02
1.670000e-06	-7.886649e-07	-1.692375e-09	-5.607158e+00	-1.143023e+02
1.680000e-06	-7.432537e-07	-1.675923e-09	-5.284298e+00	-1.132782e+02
1.690000e-06	-6.977786e-07	-1.656729e-09	-4.960985e+00	-1.122279e+02
1.700000e-06	-6.522649e-07	-1.638811e-09	-4.637397e+00	-1.111503e+02
1.710000e-06	-6.066957e-07	-1.620628e-09	-4.313415e+00	-1.100443e+02
1.720000e-06	-5.610646e-07	-1.598989e-09	-3.988992e+00	-1.089088e+02
1.730000e-06	-5.155067e-07	-1.575159e-09	-3.665090e+00	-1.077427e+02
1.740000e-06	-4.699861e-07	-1.554268e-09	-3.341453e+00	-1.065446e+02
1.750000e-06	-4.243632e-07	-1.539275e-09	-3.017088e+00	-1.053136e+02
1.760000e-06	-3.786076e-07	-1.525059e-09	-2.691780e+00	-1.040483e+02
1.770000e-06	-3.328288e-07	-1.506130e-09	-2.366307e+00	-1.027474e+02
1.780000e-06	-2.870626e-07	-1.485129e-09	-2.040924e+00	-1.014097e+02
1.790000e-06	-2.412528e-07	-1.464196e-09	-1.715231e+00	-1.000340e+02
1.800000e-06	-1.954734e-07	-1.439778e-09	-1.389754e+00	-9.861901e+01
1.810000e-06	-1.496754e-07	-1.412264e-09	-1.064144e+00	-9.716339e+01
1.820000e-06	-1.038690e-07	-1.385778e-09	-7.384759e-01	-9.566592e+01
1.830000e-06	-5.807098e-08	-1.363124e-09	-4.128663e-01	-9.412533e+01
1.840000e-06	-1.225902e-08	-1.343380e-09	-8.715773e-02	-9.254041e+01
1.850000e-06	3.355254e-08	-1.323250e-09	2.385480e-01	-9.090993e+01
1.860000e-06	7.938210e-08	-1.300356e-09	5.643816e-01	-8.923271e+01
1.870000e-06	1.252437e-07	-1.274090e-09	8.904431e-01	-8.750759e+01
1.880000e-06	1.711460e-07	-1.247057e-09	1.216794e+00	-8.573342e+01
1.890000e-06	2.170348e-07	-1.219530e-09	1.543049e+00	-8.390912e+01
1.900000e-06	2.628080e-07	-1.187889e-09	1.868482e+00	-8.203362e+01
1.910000e-06	3.084753e-07	-1.153831e-09	2.193161e+00	-8.010589e+01
1.920000e-06	3.541706e-07	-1.123917e-09	2.518041e+00	-7.812496e+01
1.930000e-06	3.999203e-07	-1.098845e-09	2.843307e+00	-7.608989e+01
1.940000e-06	4.457175e-07	-1.072742e-09	3.168910e+00	-7.399979e+01
1.950000e-06	4.914730e-07	-1.044075e-09	3.494217e+00	-7.185382e+01
1.960000e-06	5.370482e-07	-1.013457e-09	3.818243e+00	-6.965119e+01
1.970000e-06	5.824755e-07	-9.806473e-10	4.141217e+00	-6.739120e+01
1.980000e-06	6.279039e-07	-9.443060e-10	4.464198e+00	-6.507318e+01
1.990000e-06	6.733027e-07	-9.049724e-10	4.786969e+00	-6.269657e+01
2.000000e-06	7.186699e-07	-8.679574e-10	5.109516e+00	-6.026085e+01
2.010000e-06	7.641101e-07	-8.330700e-10	5.432581e+00	-5.776564e+01
2.020000e-06	8.094706e-07	-8.008348e-10	5.755080e+00	-5.521063e+01
2.030000e-06	8.546799e-07	-7.693757e-10	6.076503e+00	-5.259564e+01
2.040000e-06	8.998619e-07	-7.355178e-10	6.397733e+00	-4.992059e+01
2.050000e-06	9.450001e-07	-6.935752e-10	6.718651e+00	-4.718559e+01
2.060000e-06	9.900443e-07	-6.470483e-10	7.038902e+00	-4.439084e+01
2.070000e-06	1.034975e-06	-6.029040e-10	7.358345e+00	-4.153677e+01
2.080000e-06	1.079779e-06	-5.613446e-10	7.676889e+00	-3.862396e+01
2.090000e-06	1.124505e-06	-5.206750e-10	7.994877e+00	-3.565318e+01
2.100000e-06	1.169117e-06	-4.805278e-10	8.312049e+00	-3.262545e+01
2.110000e-06	1.213656e-06	-4.424184e-10	8.628711e+00	-2.954198e+01
2.120000e-06	1.258176e-06	-4.023867e-10	8.945236e+00	-2.640424e+01
2.130000e-06	1.302608e-06	-3.550211e-10	9.261133e+00	-2.321397e+01
2.140000e-06	1.346941e-06	-3.005009e-10	9.576327e+00	-1.997313e+01
2.150000e-06	1.391171e-06	-2.447643e-10	9.890782e+00	-1.668398e+01
2.160000e-06	1.435323e-06	-1.914131e-10	1.020469e+01	-1.334906e+01
2.170000e-06	1.479420e-06	-1.408369e-10	1.051821e+01	-9.971172e+00
2.180000e-06	1.523451e-06	-9.263831e-11	1.083126e+01	-6.553412e+00
2.190000e-06	1.567410e-06	-4.815737e-11	1.114379e+01	-3.099146e+00
2.200000e-06	1.611324e-06	-5.711126e-12	1.145600e+01	3.879937e-01
2.210000e-06	1.655212e-06	4.296119e-11	1.176804e+01	3.904112e+00
2.220000e-06	1.699080e-06	1.014105e-10	1.207992e+01	7.445071e+00
2.230000e-06	1.742905e-06	1.640846e-10	1.239150e+01	1.100651e+01
2.240000e-06	1.786638e-06	2.235076e-10	1.270243e+01	1.458386e+01
2.250000e-06	1.830283e-06	2.760506e-10	1.301273e+01	1.817236e+01
2.260000e-06	1.873926e-06	3.271313e-10	1.332302e+01	2.176714e+01
2.270000e-06	1.917504e-06	3.787056e-10	1.363285e+01	2.536316e+01
2.280000e-06	1.960780e-06	4.282344e-10	1.394053e+01	2.895531e+01
2.290000e-06	2.003770e-06	4.766665e-10	1.424617e+01	3.253846e+01
2.300000e-06	2.046523e-06	5.300116e-10	1.455013e+01	3.610743e+01
2.310000e-06	2.088974e-06	5.885632e-10	1.485194e+01	3.965708e+01
2.320000e-06	2.131191e-06	6.478164e-10	1.515209e+01	4.318234e+01
2.330000e-06	2.173224e-06	7.037127e-10	1.545094e+01	4.667824e+01
2.340000e-06	2.214956e-06	7.537288e-10	1.574764e+01	5.013996e+01
2.350000e-06	2.256327e-06	8.005739e-10	1.604177e+01	5.356286e+01
2.360000e-06	2.297370e-06	8.477189e-10	1.633358e+01	5.694251e+01
2.370000e-06	2.338136e-06	8.951541e-10	1.662340e+01	6.027475e+01
2.380000e-06	2.378707e-06	9.433103e-10	1.691185e+01	6.355567e+01
2.390000e-06	2.419089e-06	9.914621e-10	1.719896e+01	6.678170e+01
2.400000e-06	2.459271e-06	1.039560e-09	1.748464e+01	6.994958e+01
2.410000e-06	2.499390e-06	1.084805e-09	1.776987e+01	7.305640e+01
2.420000e-06	2.539471e-06	1.124963e-09	1.805484e+01	7.609962e+01
2.430000e-06	2.579424e-06	1.163816e-09	1.833889e+01	7.907707e+01
2.440000e-06	2.619281e-06	1.205149e-09	1.862226e+01	8.198696e+01
2.450000e-06	2.659047e-06	1.248437e-09	1.890498e+01	8.482784e+01
2.460000e-06	2.698682e-06	1.290118e-09	1.918678e+01	8.759868e+01
2.470000e-06	2.738134e-06	1.331678e-09	1.946726e+01	9.029877e+01
2.480000e-06	2.777402e-06	1.371993e-09	1.974645e+01	9.292775e+01
2.490000e-06	2.816445e-06	1.407732e-09	2.002403e+01	9.548560e+01
2.500000e-06	2.855227e-06	1.439376e-09	2.029976e+01	9.797257e+01
2.510000e-06	2.893808e-06	1.470435e-09	2.057406e+01	1.003892e+02
2.520000e-06	2.932187e-06	1.504707e-09	2.084692e+01	1.027363e+02
2.530000e-06	2.970336e-06	1.540327e-09	2.111815e+01	1.050149e+02
2.540000e-06	3.008327e-06	1.575076e-09	2.138825e+01	1.072261e+02
2.550000e-06	3.046153e-06	1.610665e-09	2.165719e+01	1.093712e+02
2.560000e-06	3.083761e-06	1.644446e-09	2.192457e+01	1.114518e+02
2.570000e-06	3.121207e-06	1.671674e-09	2.219079e+01	1.134693e+02
2.580000e-06	3.158467e-06	1.692587e-09	2.245570e+01	1.154254e+02
2.590000e-06	3.195468e-06	1.713310e-09	2.271876e+01	1.173216e+02
2.600000e-06	3.232159e-06	1.735797e-09	2.297963e+01	1.191595e+02
2.610000e-06	3.268627e-06	1.759904e-09	2.323890e+01	1.209408e+02
2.620000e-06	3.304937e-06	1.785826e-09	2.349706e+01	1.226669e+02
2.630000e-06	3.341081e-06	1.813886e-09	2.375403e+01	1.243392e+02
2.640000e-06	3.377084e-06	1.841987e-09	2.401000e+01	1.259593e+02
2.650000e-06	3.412996e-06	1.865345e-09	2.426532e+01	1.275283e+02
2.660000e-06	3.448769e-06	1.882406e-09	2.451966e+01	1.290475e+02
2.670000e-06	3.484339e-06	1.896279e-09	2.477255e+01	1.305179e+02
2.680000e-06	3.519705e-06	1.911948e-09	2.502399e+01	1.319406e+02
2.690000e-06	3.554774e-06	1.929489e-09	2.527332e+01	1.333164e+02
2.700000e-06	3.589457e-06	1.945826e-09	2.551991e+01	1.346462e+02
2.710000e-06	3.623677e-06	1.964226e-09	2.576320e+01	1.359307e+02
2.720000e-06	3.657414e-06	1.986368e-09	2.600306e+01	1.371707e+02
2.730000e-06	3.690740e-06	2.008831e-09	2.623999e+01	1.383667e+02
2.740000e-06	3.723676e-06	2.026990e-09	2.647416e+01	1.395194e+02
2.750000e-06	3.756260e-06	2.040373e-09	2.670582e+01	1.406295e+02
2.760000e-06	3.788554e-06	2.054265e-09	2.693542e+01	1.416976e+02
2.770000e-06	3.820630e-06	2.069602e-09	2.716347e+01	1.427242e+02
2.780000e-06	3.852584e-06	2.082487e-09	2.739065e+01	1.437103e+02
2.790000e-06	3.884417e-06	2.091947e-09	2.761698e+01	1.446564e+02
2.800000e-06	3.916065e-06	2.102887e-09	2.784198e+01	1.455635e+02
2.810000e-06	3.947512e-06	2.117104e-09	2.806556e+01	1.464324e+02
2.820000e-06	3.978717e-06	2.130665e-09	2.828742e+01	1.472642e+02
2.830000e-06	4.009619e-06	2.140528e-09	2.850713e+01	1.480600e+02
2.840000e-06	4.040099e-06	2.152868e-09	2.872383e+01	1.488210e+02
2.850000e-06	4.070219e-06	2.169589e-09	2.893797e+01	1.495485e+02
2.860000e-06	4.100193e-06	2.185236e-09	2.915108e+01	1.502438e+02
2.870000e-06	4.129961e-06	2.194902e-09	2.936272e+01	1.509085e+02
2.880000e-06	4.159477e-06	2.198940e-09	2.957257e+01	1.515441e+02
2.890000e-06	4.188722e-06	2.201224e-09	2.978049e+01	1.521521e+02
2.900000e-06	4.217589e-06	2.204225e-09	2.998572e+01	1.527343e+02
