# Temperatura_=_-6.42
# Concentracion g/m^3_=_4090.0
# C_Vs_to_Am_M_A/Vsm_=_65563218390.804596
# pendiente_HvsI_1/m_=_3716.3
# ordenada_HvsI_A/m_=_1297.0
# frecuencia_Hz_=_135074.891366414

Tiempo_(s)	Campo_(V.s)	Magnetizacion_(V.s)	Campo_(kA/m)	Magnetizacion_(A/m)
0.000000e+00	-5.418728e-06	-1.803615e-09	-3.839195e+01	-1.168100e+02
1.000000e-08	-5.418879e-06	-1.801182e-09	-3.839302e+01	-1.167750e+02
2.000000e-08	-5.418699e-06	-1.800635e-09	-3.839174e+01	-1.167409e+02
3.000000e-08	-5.418141e-06	-1.799555e-09	-3.838779e+01	-1.167085e+02
4.000000e-08	-5.417170e-06	-1.797806e-09	-3.838091e+01	-1.166785e+02
5.000000e-08	-5.415688e-06	-1.801858e-09	-3.837041e+01	-1.166514e+02
6.000000e-08	-5.413551e-06	-1.820854e-09	-3.835527e+01	-1.166279e+02
7.000000e-08	-5.410748e-06	-1.827699e-09	-3.833541e+01	-1.166083e+02
8.000000e-08	-5.407374e-06	-1.769496e-09	-3.831151e+01	-1.165930e+02
9.000000e-08	-5.403531e-06	-1.728000e-09	-3.828428e+01	-1.165822e+02
1.000000e-07	-5.399376e-06	-1.827570e-09	-3.825484e+01	-1.165760e+02
1.100000e-07	-5.395021e-06	-1.917377e-09	-3.822398e+01	-1.165745e+02
1.200000e-07	-5.390424e-06	-1.780485e-09	-3.819142e+01	-1.165774e+02
1.300000e-07	-5.385487e-06	-1.693761e-09	-3.815644e+01	-1.165846e+02
1.400000e-07	-5.380243e-06	-1.798669e-09	-3.811928e+01	-1.165957e+02
1.500000e-07	-5.374678e-06	-1.937128e-09	-3.807985e+01	-1.166101e+02
1.600000e-07	-5.368620e-06	-1.777189e-09	-3.803693e+01	-1.166273e+02
1.700000e-07	-5.362085e-06	-1.652133e-09	-3.799063e+01	-1.166466e+02
1.800000e-07	-5.355209e-06	-1.795544e-09	-3.794192e+01	-1.166672e+02
1.900000e-07	-5.348007e-06	-1.912346e-09	-3.789089e+01	-1.166882e+02
2.000000e-07	-5.340556e-06	-1.812036e-09	-3.783809e+01	-1.167088e+02
2.100000e-07	-5.332825e-06	-1.738081e-09	-3.778332e+01	-1.167279e+02
2.200000e-07	-5.324893e-06	-1.877758e-09	-3.772712e+01	-1.167446e+02
2.300000e-07	-5.316732e-06	-1.881239e-09	-3.766930e+01	-1.167578e+02
2.400000e-07	-5.307921e-06	-1.771776e-09	-3.760687e+01	-1.167666e+02
2.500000e-07	-5.298299e-06	-1.776861e-09	-3.753871e+01	-1.167700e+02
2.600000e-07	-5.288188e-06	-1.905130e-09	-3.746706e+01	-1.167670e+02
2.700000e-07	-5.277605e-06	-1.825478e-09	-3.739209e+01	-1.167568e+02
2.800000e-07	-5.266489e-06	-1.752188e-09	-3.731333e+01	-1.167386e+02
2.900000e-07	-5.254969e-06	-1.856693e-09	-3.723171e+01	-1.167116e+02
3.000000e-07	-5.243037e-06	-1.902156e-09	-3.714717e+01	-1.166752e+02
3.100000e-07	-5.230683e-06	-1.746930e-09	-3.705964e+01	-1.166290e+02
3.200000e-07	-5.218001e-06	-1.744569e-09	-3.696978e+01	-1.165724e+02
3.300000e-07	-5.205014e-06	-1.854734e-09	-3.687777e+01	-1.165053e+02
3.400000e-07	-5.191668e-06	-1.820372e-09	-3.678322e+01	-1.164274e+02
3.500000e-07	-5.177908e-06	-1.742112e-09	-3.668572e+01	-1.163387e+02
3.600000e-07	-5.163717e-06	-1.816656e-09	-3.658518e+01	-1.162394e+02
3.700000e-07	-5.149004e-06	-1.829530e-09	-3.648094e+01	-1.161296e+02
3.800000e-07	-5.133764e-06	-1.761033e-09	-3.637297e+01	-1.160097e+02
3.900000e-07	-5.118081e-06	-1.781869e-09	-3.626185e+01	-1.158800e+02
4.000000e-07	-5.101959e-06	-1.806979e-09	-3.614763e+01	-1.157411e+02
4.100000e-07	-5.085370e-06	-1.734330e-09	-3.603009e+01	-1.155936e+02
4.200000e-07	-5.068390e-06	-1.735253e-09	-3.590979e+01	-1.154381e+02
4.300000e-07	-5.051193e-06	-1.810493e-09	-3.578795e+01	-1.152755e+02
4.400000e-07	-5.033725e-06	-1.770692e-09	-3.566418e+01	-1.151063e+02
4.500000e-07	-5.015888e-06	-1.724757e-09	-3.553781e+01	-1.149314e+02
4.600000e-07	-4.997679e-06	-1.764465e-09	-3.540879e+01	-1.147516e+02
4.700000e-07	-4.979040e-06	-1.791724e-09	-3.527674e+01	-1.145676e+02
4.800000e-07	-4.959980e-06	-1.741830e-09	-3.514169e+01	-1.143801e+02
4.900000e-07	-4.940641e-06	-1.738407e-09	-3.500468e+01	-1.141899e+02
5.000000e-07	-4.921052e-06	-1.736288e-09	-3.486589e+01	-1.139976e+02
5.100000e-07	-4.901237e-06	-1.739723e-09	-3.472550e+01	-1.138038e+02
5.200000e-07	-4.881167e-06	-1.740154e-09	-3.458331e+01	-1.136089e+02
5.300000e-07	-4.860814e-06	-1.736083e-09	-3.443910e+01	-1.134133e+02
5.400000e-07	-4.840077e-06	-1.704491e-09	-3.429218e+01	-1.132174e+02
5.500000e-07	-4.818948e-06	-1.728305e-09	-3.414248e+01	-1.130214e+02
5.600000e-07	-4.797518e-06	-1.740745e-09	-3.399064e+01	-1.128254e+02
5.700000e-07	-4.775785e-06	-1.721723e-09	-3.383667e+01	-1.126295e+02
5.800000e-07	-4.753778e-06	-1.700132e-09	-3.368075e+01	-1.124336e+02
5.900000e-07	-4.731458e-06	-1.711767e-09	-3.352261e+01	-1.122374e+02
6.000000e-07	-4.708801e-06	-1.709377e-09	-3.336208e+01	-1.120409e+02
6.100000e-07	-4.685741e-06	-1.706379e-09	-3.319870e+01	-1.118437e+02
6.200000e-07	-4.662321e-06	-1.687238e-09	-3.303277e+01	-1.116454e+02
6.300000e-07	-4.638734e-06	-1.679709e-09	-3.286565e+01	-1.114456e+02
6.400000e-07	-4.614950e-06	-1.696939e-09	-3.269714e+01	-1.112438e+02
6.500000e-07	-4.590902e-06	-1.707356e-09	-3.252676e+01	-1.110396e+02
6.600000e-07	-4.566557e-06	-1.680561e-09	-3.235428e+01	-1.108325e+02
6.700000e-07	-4.541873e-06	-1.666645e-09	-3.217939e+01	-1.106218e+02
6.800000e-07	-4.516808e-06	-1.677974e-09	-3.200180e+01	-1.104073e+02
6.900000e-07	-4.491195e-06	-1.677133e-09	-3.182033e+01	-1.101883e+02
7.000000e-07	-4.464977e-06	-1.661435e-09	-3.163457e+01	-1.099645e+02
7.100000e-07	-4.438221e-06	-1.648017e-09	-3.144501e+01	-1.097355e+02
7.200000e-07	-4.410974e-06	-1.652552e-09	-3.125196e+01	-1.095008e+02
7.300000e-07	-4.383463e-06	-1.661064e-09	-3.105705e+01	-1.092603e+02
7.400000e-07	-4.355806e-06	-1.658974e-09	-3.086110e+01	-1.090137e+02
7.500000e-07	-4.328012e-06	-1.637640e-09	-3.066417e+01	-1.087609e+02
7.600000e-07	-4.300036e-06	-1.635627e-09	-3.046596e+01	-1.085018e+02
7.700000e-07	-4.271739e-06	-1.639483e-09	-3.026547e+01	-1.082363e+02
7.800000e-07	-4.243163e-06	-1.634910e-09	-3.006301e+01	-1.079646e+02
7.900000e-07	-4.214265e-06	-1.615572e-09	-2.985827e+01	-1.076867e+02
8.000000e-07	-4.185030e-06	-1.613114e-09	-2.965114e+01	-1.074028e+02
8.100000e-07	-4.155477e-06	-1.616985e-09	-2.944176e+01	-1.071131e+02
8.200000e-07	-4.125632e-06	-1.624682e-09	-2.923030e+01	-1.068180e+02
8.300000e-07	-4.095589e-06	-1.611489e-09	-2.901745e+01	-1.065177e+02
8.400000e-07	-4.065278e-06	-1.599536e-09	-2.880269e+01	-1.062125e+02
8.500000e-07	-4.034667e-06	-1.596130e-09	-2.858581e+01	-1.059029e+02
8.600000e-07	-4.003777e-06	-1.599319e-09	-2.836695e+01	-1.055890e+02
8.700000e-07	-3.972591e-06	-1.586344e-09	-2.814600e+01	-1.052713e+02
8.800000e-07	-3.941155e-06	-1.571286e-09	-2.792327e+01	-1.049502e+02
8.900000e-07	-3.909566e-06	-1.567937e-09	-2.769946e+01	-1.046258e+02
9.000000e-07	-3.877880e-06	-1.577387e-09	-2.747496e+01	-1.042985e+02
9.100000e-07	-3.846033e-06	-1.571705e-09	-2.724933e+01	-1.039685e+02
9.200000e-07	-3.813959e-06	-1.555604e-09	-2.702209e+01	-1.036360e+02
9.300000e-07	-3.781649e-06	-1.542522e-09	-2.679316e+01	-1.033011e+02
9.400000e-07	-3.748973e-06	-1.543432e-09	-2.656165e+01	-1.029640e+02
9.500000e-07	-3.715883e-06	-1.544488e-09	-2.632721e+01	-1.026246e+02
9.600000e-07	-3.682411e-06	-1.536912e-09	-2.609006e+01	-1.022829e+02
9.700000e-07	-3.648415e-06	-1.529797e-09	-2.584920e+01	-1.019388e+02
9.800000e-07	-3.613934e-06	-1.530530e-09	-2.560489e+01	-1.015922e+02
9.900000e-07	-3.579174e-06	-1.526633e-09	-2.535862e+01	-1.012430e+02
1.000000e-06	-3.544068e-06	-1.509916e-09	-2.510989e+01	-1.008909e+02
1.010000e-06	-3.508646e-06	-1.490722e-09	-2.485893e+01	-1.005357e+02
1.020000e-06	-3.473076e-06	-1.479221e-09	-2.460691e+01	-1.001770e+02
1.030000e-06	-3.437354e-06	-1.479992e-09	-2.435382e+01	-9.981469e+01
1.040000e-06	-3.401484e-06	-1.481353e-09	-2.409968e+01	-9.944834e+01
1.050000e-06	-3.365497e-06	-1.479003e-09	-2.384471e+01	-9.907769e+01
1.060000e-06	-3.329301e-06	-1.472700e-09	-2.358826e+01	-9.870243e+01
1.070000e-06	-3.292858e-06	-1.468423e-09	-2.333006e+01	-9.832227e+01
1.080000e-06	-3.256129e-06	-1.455674e-09	-2.306983e+01	-9.793696e+01
1.090000e-06	-3.219139e-06	-1.440070e-09	-2.280776e+01	-9.754625e+01
1.100000e-06	-3.181972e-06	-1.428397e-09	-2.254443e+01	-9.714994e+01
1.110000e-06	-3.144539e-06	-1.427417e-09	-2.227921e+01	-9.674787e+01
1.120000e-06	-3.106873e-06	-1.425520e-09	-2.201235e+01	-9.633990e+01
1.130000e-06	-3.069067e-06	-1.421244e-09	-2.174449e+01	-9.592596e+01
1.140000e-06	-3.031086e-06	-1.414186e-09	-2.147539e+01	-9.550601e+01
1.150000e-06	-2.992858e-06	-1.409217e-09	-2.120454e+01	-9.508004e+01
1.160000e-06	-2.954418e-06	-1.400854e-09	-2.093219e+01	-9.464809e+01
1.170000e-06	-2.915831e-06	-1.390323e-09	-2.065880e+01	-9.421023e+01
1.180000e-06	-2.877028e-06	-1.377022e-09	-2.038388e+01	-9.376657e+01
1.190000e-06	-2.837991e-06	-1.370037e-09	-2.010730e+01	-9.331723e+01
1.200000e-06	-2.798715e-06	-1.363532e-09	-1.982903e+01	-9.286234e+01
1.210000e-06	-2.759215e-06	-1.356392e-09	-1.954917e+01	-9.240206e+01
1.220000e-06	-2.719617e-06	-1.348753e-09	-1.926862e+01	-9.193652e+01
1.230000e-06	-2.679925e-06	-1.345638e-09	-1.898739e+01	-9.146587e+01
1.240000e-06	-2.640138e-06	-1.342141e-09	-1.870551e+01	-9.099021e+01
1.250000e-06	-2.600273e-06	-1.336397e-09	-1.842306e+01	-9.050964e+01
1.260000e-06	-2.560299e-06	-1.327363e-09	-1.813984e+01	-9.002421e+01
1.270000e-06	-2.520187e-06	-1.315300e-09	-1.785565e+01	-8.953393e+01
1.280000e-06	-2.479893e-06	-1.306009e-09	-1.757016e+01	-8.903876e+01
1.290000e-06	-2.439357e-06	-1.300403e-09	-1.728296e+01	-8.853862e+01
1.300000e-06	-2.398651e-06	-1.294890e-09	-1.699456e+01	-8.803334e+01
1.310000e-06	-2.357683e-06	-1.287871e-09	-1.670430e+01	-8.752274e+01
1.320000e-06	-2.316437e-06	-1.283255e-09	-1.641207e+01	-8.700652e+01
1.330000e-06	-2.275023e-06	-1.279227e-09	-1.611864e+01	-8.648437e+01
1.340000e-06	-2.233335e-06	-1.272886e-09	-1.582328e+01	-8.595589e+01
1.350000e-06	-2.191349e-06	-1.262451e-09	-1.552581e+01	-8.542065e+01
1.360000e-06	-2.149003e-06	-1.251986e-09	-1.522579e+01	-8.487814e+01
1.370000e-06	-2.106289e-06	-1.239727e-09	-1.492316e+01	-8.432784e+01
1.380000e-06	-2.063307e-06	-1.226892e-09	-1.461863e+01	-8.376919e+01
1.390000e-06	-2.020153e-06	-1.215189e-09	-1.431288e+01	-8.320158e+01
1.400000e-06	-1.976906e-06	-1.209979e-09	-1.400648e+01	-8.262442e+01
1.410000e-06	-1.933581e-06	-1.208370e-09	-1.369951e+01	-8.203709e+01
1.420000e-06	-1.890126e-06	-1.206985e-09	-1.339163e+01	-8.143900e+01
1.430000e-06	-1.846544e-06	-1.196398e-09	-1.308285e+01	-8.082955e+01
1.440000e-06	-1.802894e-06	-1.179462e-09	-1.277359e+01	-8.020819e+01
1.450000e-06	-1.759150e-06	-1.163736e-09	-1.246366e+01	-7.957440e+01
1.460000e-06	-1.715294e-06	-1.150746e-09	-1.215294e+01	-7.892772e+01
1.470000e-06	-1.671388e-06	-1.134822e-09	-1.184187e+01	-7.826773e+01
1.480000e-06	-1.627452e-06	-1.123736e-09	-1.153058e+01	-7.759409e+01
1.490000e-06	-1.583465e-06	-1.122785e-09	-1.121892e+01	-7.690650e+01
1.500000e-06	-1.539360e-06	-1.121939e-09	-1.090644e+01	-7.620478e+01
1.510000e-06	-1.495156e-06	-1.110938e-09	-1.059325e+01	-7.548880e+01
1.520000e-06	-1.450870e-06	-1.089298e-09	-1.027949e+01	-7.475849e+01
1.530000e-06	-1.406464e-06	-1.067252e-09	-9.964867e+00	-7.401390e+01
1.540000e-06	-1.361968e-06	-1.055055e-09	-9.649606e+00	-7.325512e+01
1.550000e-06	-1.317314e-06	-1.048614e-09	-9.333232e+00	-7.248231e+01
1.560000e-06	-1.272588e-06	-1.045770e-09	-9.016348e+00	-7.169571e+01
1.570000e-06	-1.227865e-06	-1.043431e-09	-8.699479e+00	-7.089560e+01
1.580000e-06	-1.183102e-06	-1.039404e-09	-8.382335e+00	-7.008230e+01
1.590000e-06	-1.138260e-06	-1.028352e-09	-8.064624e+00	-6.925617e+01
1.600000e-06	-1.093300e-06	-1.007922e-09	-7.746081e+00	-6.841759e+01
1.610000e-06	-1.048207e-06	-9.823406e-10	-7.426595e+00	-6.756695e+01
1.620000e-06	-1.002979e-06	-9.602376e-10	-7.106156e+00	-6.670462e+01
1.630000e-06	-9.577266e-07	-9.453527e-10	-6.785539e+00	-6.583098e+01
1.640000e-06	-9.123866e-07	-9.370510e-10	-6.464303e+00	-6.494635e+01
1.650000e-06	-8.669910e-07	-9.337835e-10	-6.142673e+00	-6.405103e+01
1.660000e-06	-8.216239e-07	-9.308434e-10	-5.821245e+00	-6.314526e+01
1.670000e-06	-7.761674e-07	-9.216206e-10	-5.499183e+00	-6.222919e+01
1.680000e-06	-7.305841e-07	-9.015589e-10	-5.176223e+00	-6.130294e+01
1.690000e-06	-6.849399e-07	-8.735174e-10	-4.852832e+00	-6.036651e+01
1.700000e-06	-6.392754e-07	-8.445174e-10	-4.529297e+00	-5.941983e+01
1.710000e-06	-5.935888e-07	-8.245540e-10	-4.205605e+00	-5.846275e+01
1.720000e-06	-5.478901e-07	-8.133856e-10	-3.881828e+00	-5.749499e+01
1.730000e-06	-5.021307e-07	-8.072219e-10	-3.557620e+00	-5.651622e+01
1.740000e-06	-4.562785e-07	-8.012905e-10	-3.232755e+00	-5.552599e+01
1.750000e-06	-4.104044e-07	-7.947636e-10	-2.907735e+00	-5.452378e+01
1.760000e-06	-3.645676e-07	-7.812884e-10	-2.582979e+00	-5.350897e+01
1.770000e-06	-3.186838e-07	-7.590130e-10	-2.257890e+00	-5.248091e+01
1.780000e-06	-2.727553e-07	-7.301004e-10	-1.932485e+00	-5.143884e+01
1.790000e-06	-2.268426e-07	-7.055843e-10	-1.607191e+00	-5.038197e+01
1.800000e-06	-1.809273e-07	-6.887138e-10	-1.281879e+00	-4.930949e+01
1.810000e-06	-1.350384e-07	-6.774045e-10	-9.567533e-01	-4.822055e+01
1.820000e-06	-8.919449e-08	-6.661166e-10	-6.319472e-01	-4.711428e+01
1.830000e-06	-4.337747e-08	-6.516074e-10	-3.073315e-01	-4.598983e+01
1.840000e-06	2.516896e-09	-6.340132e-10	1.783233e-02	-4.484638e+01
1.850000e-06	4.844935e-08	-6.157590e-10	3.432659e-01	-4.368312e+01
1.860000e-06	9.440420e-08	-5.940673e-10	6.688583e-01	-4.249931e+01
1.870000e-06	1.404189e-07	-5.706361e-10	9.948744e-01	-4.129426e+01
1.880000e-06	1.863879e-07	-5.511048e-10	1.320567e+00	-4.006736e+01
1.890000e-06	2.322875e-07	-5.351009e-10	1.645768e+00	-3.881809e+01
1.900000e-06	2.781528e-07	-5.174818e-10	1.970726e+00	-3.754601e+01
1.910000e-06	3.239778e-07	-4.966292e-10	2.295398e+00	-3.625078e+01
1.920000e-06	3.698223e-07	-4.762746e-10	2.620209e+00	-3.493220e+01
1.930000e-06	4.157075e-07	-4.595428e-10	2.945307e+00	-3.359015e+01
1.940000e-06	4.615538e-07	-4.434641e-10	3.270131e+00	-3.222462e+01
1.950000e-06	5.073349e-07	-4.225904e-10	3.594492e+00	-3.083573e+01
1.960000e-06	5.529984e-07	-4.002119e-10	3.918020e+00	-2.942370e+01
1.970000e-06	5.985704e-07	-3.775297e-10	4.240900e+00	-2.798887e+01
1.980000e-06	6.441471e-07	-3.554929e-10	4.563813e+00	-2.653166e+01
1.990000e-06	6.897332e-07	-3.304753e-10	4.886793e+00	-2.505259e+01
2.000000e-06	7.353488e-07	-3.055455e-10	5.209981e+00	-2.355229e+01
2.010000e-06	7.808842e-07	-2.850476e-10	5.532602e+00	-2.203142e+01
2.020000e-06	8.263203e-07	-2.692871e-10	5.854519e+00	-2.049074e+01
2.030000e-06	8.717457e-07	-2.550986e-10	6.176360e+00	-1.893105e+01
2.040000e-06	9.171132e-07	-2.364421e-10	6.497791e+00	-1.735320e+01
2.050000e-06	9.624582e-07	-2.125891e-10	6.819063e+00	-1.575807e+01
2.060000e-06	1.007721e-06	-1.852427e-10	7.139755e+00	-1.414655e+01
2.070000e-06	1.052783e-06	-1.564536e-10	7.459015e+00	-1.251956e+01
2.080000e-06	1.097733e-06	-1.269055e-10	7.777488e+00	-1.087802e+01
2.090000e-06	1.142660e-06	-9.668930e-11	8.095798e+00	-9.222815e+00
2.100000e-06	1.187539e-06	-7.459233e-11	8.413774e+00	-7.554848e+00
2.110000e-06	1.232296e-06	-5.989123e-11	8.730874e+00	-5.874987e+00
2.120000e-06	1.276939e-06	-4.406635e-11	9.047177e+00	-4.184076e+00
2.130000e-06	1.321392e-06	-2.094379e-11	9.362123e+00	-2.482933e+00
2.140000e-06	1.365738e-06	1.000123e-11	9.676320e+00	-7.723463e-01
2.150000e-06	1.410134e-06	4.250171e-11	9.990864e+00	9.469268e-01
2.160000e-06	1.454410e-06	7.299923e-11	1.030457e+01	2.674155e+00
2.170000e-06	1.498583e-06	1.013980e-10	1.061753e+01	4.408634e+00
2.180000e-06	1.542692e-06	1.243307e-10	1.093005e+01	6.149678e+00
2.190000e-06	1.586737e-06	1.398166e-10	1.124211e+01	7.896619e+00
2.200000e-06	1.630739e-06	1.542614e-10	1.155386e+01	9.648795e+00
2.210000e-06	1.674661e-06	1.760015e-10	1.186505e+01	1.140555e+01
2.220000e-06	1.718512e-06	2.049581e-10	1.217574e+01	1.316622e+01
2.230000e-06	1.762311e-06	2.360290e-10	1.248606e+01	1.493013e+01
2.240000e-06	1.806023e-06	2.658967e-10	1.279576e+01	1.669658e+01
2.250000e-06	1.849649e-06	2.919051e-10	1.310485e+01	1.846486e+01
2.260000e-06	1.893192e-06	3.152693e-10	1.341336e+01	2.023420e+01
2.270000e-06	1.936625e-06	3.382152e-10	1.372108e+01	2.200380e+01
2.280000e-06	1.979951e-06	3.597561e-10	1.402804e+01	2.377283e+01
2.290000e-06	2.023175e-06	3.832764e-10	1.433429e+01	2.554039e+01
2.300000e-06	2.066277e-06	4.131303e-10	1.463967e+01	2.730553e+01
2.310000e-06	2.109108e-06	4.432336e-10	1.494313e+01	2.906726e+01
2.320000e-06	2.151575e-06	4.702236e-10	1.524401e+01	3.082452e+01
2.330000e-06	2.193852e-06	4.929872e-10	1.554354e+01	3.257622e+01
2.340000e-06	2.235935e-06	5.143473e-10	1.584171e+01	3.432119e+01
2.350000e-06	2.277717e-06	5.360699e-10	1.613774e+01	3.605825e+01
2.360000e-06	2.319146e-06	5.582362e-10	1.643126e+01	3.778615e+01
2.370000e-06	2.360179e-06	5.840031e-10	1.672198e+01	3.950364e+01
2.380000e-06	2.400955e-06	6.150136e-10	1.701088e+01	4.120943e+01
2.390000e-06	2.441590e-06	6.451217e-10	1.729878e+01	4.290222e+01
2.400000e-06	2.482018e-06	6.691907e-10	1.758522e+01	4.458071e+01
2.410000e-06	2.522219e-06	6.872563e-10	1.787004e+01	4.624362e+01
2.420000e-06	2.562241e-06	7.049543e-10	1.815360e+01	4.788966e+01
2.430000e-06	2.602165e-06	7.266328e-10	1.843646e+01	4.951762e+01
2.440000e-06	2.642043e-06	7.485086e-10	1.871900e+01	5.112629e+01
2.450000e-06	2.681825e-06	7.714653e-10	1.900086e+01	5.271453e+01
2.460000e-06	2.721489e-06	7.997052e-10	1.928188e+01	5.428129e+01
2.470000e-06	2.761031e-06	8.303080e-10	1.956204e+01	5.582555e+01
2.480000e-06	2.800372e-06	8.557107e-10	1.984077e+01	5.734641e+01
2.490000e-06	2.839489e-06	8.754424e-10	2.011792e+01	5.884304e+01
2.500000e-06	2.878401e-06	8.947192e-10	2.039361e+01	6.031473e+01
2.510000e-06	2.917070e-06	9.154153e-10	2.066758e+01	6.176086e+01
2.520000e-06	2.955544e-06	9.353659e-10	2.094017e+01	6.318091e+01
2.530000e-06	2.993794e-06	9.546561e-10	2.121117e+01	6.457447e+01
2.540000e-06	3.031901e-06	9.753668e-10	2.148117e+01	6.594126e+01
2.550000e-06	3.069894e-06	1.000219e-09	2.175034e+01	6.728107e+01
2.560000e-06	3.107599e-06	1.022722e-09	2.201749e+01	6.859382e+01
2.570000e-06	3.145131e-06	1.038760e-09	2.228340e+01	6.987952e+01
2.580000e-06	3.182439e-06	1.053859e-09	2.254773e+01	7.113827e+01
2.590000e-06	3.219459e-06	1.070324e-09	2.281002e+01	7.237028e+01
2.600000e-06	3.256273e-06	1.085977e-09	2.307085e+01	7.357580e+01
2.610000e-06	3.292844e-06	1.100642e-09	2.332996e+01	7.475518e+01
2.620000e-06	3.329180e-06	1.116684e-09	2.358740e+01	7.590881e+01
2.630000e-06	3.365309e-06	1.135511e-09	2.384338e+01	7.703715e+01
2.640000e-06	3.401317e-06	1.153076e-09	2.409849e+01	7.814068e+01
2.650000e-06	3.437155e-06	1.166582e-09	2.435241e+01	7.921994e+01
2.660000e-06	3.472835e-06	1.177887e-09	2.460521e+01	8.027547e+01
2.670000e-06	3.508404e-06	1.190718e-09	2.485721e+01	8.130781e+01
2.680000e-06	3.543761e-06	1.206514e-09	2.510772e+01	8.231753e+01
2.690000e-06	3.578827e-06	1.219097e-09	2.535616e+01	8.330518e+01
2.700000e-06	3.613517e-06	1.230941e-09	2.560194e+01	8.427130e+01
2.710000e-06	3.647846e-06	1.248122e-09	2.584517e+01	8.521641e+01
2.720000e-06	3.681747e-06	1.264774e-09	2.608535e+01	8.614101e+01
2.730000e-06	3.715132e-06	1.274932e-09	2.632189e+01	8.704557e+01
2.740000e-06	3.748168e-06	1.280251e-09	2.655595e+01	8.793054e+01
2.750000e-06	3.780881e-06	1.290100e-09	2.678772e+01	8.879630e+01
2.760000e-06	3.813230e-06	1.305717e-09	2.701692e+01	8.964324e+01
2.770000e-06	3.845333e-06	1.321312e-09	2.724437e+01	9.047170e+01
2.780000e-06	3.877232e-06	1.335171e-09	2.747038e+01	9.128198e+01
2.790000e-06	3.908955e-06	1.347875e-09	2.769513e+01	9.207436e+01
2.800000e-06	3.940519e-06	1.359599e-09	2.791877e+01	9.284908e+01
2.810000e-06	3.971920e-06	1.367731e-09	2.814124e+01	9.360638e+01
2.820000e-06	4.003081e-06	1.368937e-09	2.836202e+01	9.434645e+01
2.830000e-06	4.033923e-06	1.373124e-09	2.858054e+01	9.506948e+01
2.840000e-06	4.064437e-06	1.387197e-09	2.879673e+01	9.577565e+01
2.850000e-06	4.094655e-06	1.404951e-09	2.901082e+01	9.646512e+01
2.860000e-06	4.124691e-06	1.419585e-09	2.922363e+01	9.713807e+01
2.870000e-06	4.154439e-06	1.428970e-09	2.943440e+01	9.779465e+01
2.880000e-06	4.183837e-06	1.436552e-09	2.964268e+01	9.843503e+01
2.890000e-06	4.212961e-06	1.439806e-09	2.984903e+01	9.905939e+01
2.900000e-06	4.241861e-06	1.438501e-09	3.005379e+01	9.966791e+01
