# Temperatura_=_0.55
# Concentracion g/m^3_=_4090.0
# C_Vs_to_Am_M_A/Vsm_=_65563218390.804596
# pendiente_HvsI_1/m_=_3716.3
# ordenada_HvsI_A/m_=_1297.0
# frecuencia_Hz_=_135081.11998758945

Tiempo_(s)	Campo_(V.s)	Magnetizacion_(V.s)	Campo_(kA/m)	Magnetizacion_(A/m)
0.000000e+00	-5.429096e-06	-1.745147e-09	-3.838721e+01	-1.160378e+02
1.000000e-08	-5.429255e-06	-1.743708e-09	-3.838834e+01	-1.159289e+02
2.000000e-08	-5.429204e-06	-1.742768e-09	-3.838798e+01	-1.158001e+02
3.000000e-08	-5.428950e-06	-1.738210e-09	-3.838618e+01	-1.156518e+02
4.000000e-08	-5.428392e-06	-1.734387e-09	-3.838224e+01	-1.154851e+02
5.000000e-08	-5.427397e-06	-1.737579e-09	-3.837520e+01	-1.153027e+02
6.000000e-08	-5.425814e-06	-1.748294e-09	-3.836400e+01	-1.151080e+02
7.000000e-08	-5.423521e-06	-1.748501e-09	-3.834779e+01	-1.149056e+02
8.000000e-08	-5.420613e-06	-1.711037e-09	-3.832723e+01	-1.147008e+02
9.000000e-08	-5.417106e-06	-1.665013e-09	-3.830243e+01	-1.144999e+02
1.000000e-07	-5.413137e-06	-1.722068e-09	-3.827437e+01	-1.143093e+02
1.100000e-07	-5.408873e-06	-1.819343e-09	-3.824422e+01	-1.141359e+02
1.200000e-07	-5.404382e-06	-1.750338e-09	-3.821247e+01	-1.139864e+02
1.300000e-07	-5.399780e-06	-1.666736e-09	-3.817993e+01	-1.138673e+02
1.400000e-07	-5.394908e-06	-1.708275e-09	-3.814548e+01	-1.137844e+02
1.500000e-07	-5.389474e-06	-1.836021e-09	-3.810706e+01	-1.137426e+02
1.600000e-07	-5.383630e-06	-1.771475e-09	-3.806574e+01	-1.137456e+02
1.700000e-07	-5.377506e-06	-1.614995e-09	-3.802244e+01	-1.137959e+02
1.800000e-07	-5.371065e-06	-1.687319e-09	-3.797689e+01	-1.138947e+02
1.900000e-07	-5.364153e-06	-1.797313e-09	-3.792802e+01	-1.140413e+02
2.000000e-07	-5.356769e-06	-1.798473e-09	-3.787582e+01	-1.142336e+02
2.100000e-07	-5.349215e-06	-1.707139e-09	-3.782240e+01	-1.144680e+02
2.200000e-07	-5.341542e-06	-1.799471e-09	-3.776814e+01	-1.147395e+02
2.300000e-07	-5.333498e-06	-1.839882e-09	-3.771127e+01	-1.150416e+02
2.400000e-07	-5.325058e-06	-1.799678e-09	-3.765160e+01	-1.153671e+02
2.500000e-07	-5.316238e-06	-1.786618e-09	-3.758923e+01	-1.157077e+02
2.600000e-07	-5.306756e-06	-1.884669e-09	-3.752219e+01	-1.160549e+02
2.700000e-07	-5.296484e-06	-1.868244e-09	-3.744956e+01	-1.163997e+02
2.800000e-07	-5.285701e-06	-1.816305e-09	-3.737331e+01	-1.167334e+02
2.900000e-07	-5.274471e-06	-1.864556e-09	-3.729391e+01	-1.170480e+02
3.000000e-07	-5.262725e-06	-1.897079e-09	-3.721086e+01	-1.173358e+02
3.100000e-07	-5.250617e-06	-1.810596e-09	-3.712525e+01	-1.175904e+02
3.200000e-07	-5.238210e-06	-1.787020e-09	-3.703752e+01	-1.178064e+02
3.300000e-07	-5.225376e-06	-1.890030e-09	-3.694678e+01	-1.179799e+02
3.400000e-07	-5.212146e-06	-1.882157e-09	-3.685324e+01	-1.181083e+02
3.500000e-07	-5.198640e-06	-1.825458e-09	-3.675774e+01	-1.181906e+02
3.600000e-07	-5.184694e-06	-1.848623e-09	-3.665913e+01	-1.182271e+02
3.700000e-07	-5.170319e-06	-1.886577e-09	-3.655749e+01	-1.182197e+02
3.800000e-07	-5.155580e-06	-1.823583e-09	-3.645327e+01	-1.181710e+02
3.900000e-07	-5.140323e-06	-1.816176e-09	-3.634540e+01	-1.180852e+02
4.000000e-07	-5.124320e-06	-1.840250e-09	-3.623225e+01	-1.179668e+02
4.100000e-07	-5.107777e-06	-1.827202e-09	-3.611528e+01	-1.178210e+02
4.200000e-07	-5.090926e-06	-1.813362e-09	-3.599613e+01	-1.176534e+02
4.300000e-07	-5.073707e-06	-1.868800e-09	-3.587438e+01	-1.174694e+02
4.400000e-07	-5.056196e-06	-1.848737e-09	-3.575057e+01	-1.172742e+02
4.500000e-07	-5.038469e-06	-1.814552e-09	-3.562522e+01	-1.170726e+02
4.600000e-07	-5.020443e-06	-1.817415e-09	-3.549777e+01	-1.168688e+02
4.700000e-07	-5.002027e-06	-1.840807e-09	-3.536756e+01	-1.166663e+02
4.800000e-07	-4.983161e-06	-1.798439e-09	-3.523416e+01	-1.164674e+02
4.900000e-07	-4.963867e-06	-1.795217e-09	-3.509774e+01	-1.162739e+02
5.000000e-07	-4.944286e-06	-1.805190e-09	-3.495929e+01	-1.160864e+02
5.100000e-07	-4.924547e-06	-1.815914e-09	-3.481973e+01	-1.159048e+02
5.200000e-07	-4.904566e-06	-1.807689e-09	-3.467845e+01	-1.157283e+02
5.300000e-07	-4.884322e-06	-1.808764e-09	-3.453531e+01	-1.155553e+02
5.400000e-07	-4.863783e-06	-1.788462e-09	-3.439009e+01	-1.153839e+02
5.500000e-07	-4.842918e-06	-1.794151e-09	-3.424255e+01	-1.152119e+02
5.600000e-07	-4.821721e-06	-1.800891e-09	-3.409268e+01	-1.150370e+02
5.700000e-07	-4.800164e-06	-1.790415e-09	-3.394025e+01	-1.148567e+02
5.800000e-07	-4.778285e-06	-1.771053e-09	-3.378556e+01	-1.146691e+02
5.900000e-07	-4.756142e-06	-1.773150e-09	-3.362899e+01	-1.144725e+02
6.000000e-07	-4.733716e-06	-1.777377e-09	-3.347042e+01	-1.142656e+02
6.100000e-07	-4.710934e-06	-1.773139e-09	-3.330934e+01	-1.140478e+02
6.200000e-07	-4.687793e-06	-1.761445e-09	-3.314572e+01	-1.138189e+02
6.300000e-07	-4.664346e-06	-1.753892e-09	-3.297993e+01	-1.135794e+02
6.400000e-07	-4.640603e-06	-1.767555e-09	-3.281206e+01	-1.133305e+02
6.500000e-07	-4.616598e-06	-1.772416e-09	-3.264233e+01	-1.130735e+02
6.600000e-07	-4.592467e-06	-1.758845e-09	-3.247170e+01	-1.128104e+02
6.700000e-07	-4.568120e-06	-1.740984e-09	-3.229956e+01	-1.125435e+02
6.800000e-07	-4.543383e-06	-1.744854e-09	-3.212465e+01	-1.122749e+02
6.900000e-07	-4.518097e-06	-1.739259e-09	-3.194586e+01	-1.120071e+02
7.000000e-07	-4.492282e-06	-1.732341e-09	-3.176333e+01	-1.117422e+02
7.100000e-07	-4.465955e-06	-1.717929e-09	-3.157718e+01	-1.114822e+02
7.200000e-07	-4.439077e-06	-1.722481e-09	-3.138714e+01	-1.112287e+02
7.300000e-07	-4.411791e-06	-1.724903e-09	-3.119420e+01	-1.109829e+02
7.400000e-07	-4.384278e-06	-1.728163e-09	-3.099967e+01	-1.107454e+02
7.500000e-07	-4.356585e-06	-1.714036e-09	-3.080387e+01	-1.105164e+02
7.600000e-07	-4.328619e-06	-1.714433e-09	-3.060613e+01	-1.102956e+02
7.700000e-07	-4.300422e-06	-1.714051e-09	-3.040676e+01	-1.100820e+02
7.800000e-07	-4.271977e-06	-1.714642e-09	-3.020563e+01	-1.098745e+02
7.900000e-07	-4.243251e-06	-1.701753e-09	-3.000252e+01	-1.096715e+02
8.000000e-07	-4.214248e-06	-1.700271e-09	-2.979745e+01	-1.094710e+02
8.100000e-07	-4.184967e-06	-1.699177e-09	-2.959042e+01	-1.092710e+02
8.200000e-07	-4.155383e-06	-1.702463e-09	-2.938124e+01	-1.090696e+02
8.300000e-07	-4.125491e-06	-1.695123e-09	-2.916989e+01	-1.088647e+02
8.400000e-07	-4.095348e-06	-1.690358e-09	-2.895675e+01	-1.086545e+02
8.500000e-07	-4.064853e-06	-1.689718e-09	-2.874113e+01	-1.084375e+02
8.600000e-07	-4.034063e-06	-1.694068e-09	-2.852342e+01	-1.082125e+02
8.700000e-07	-4.003025e-06	-1.688581e-09	-2.830397e+01	-1.079786e+02
8.800000e-07	-3.971788e-06	-1.679466e-09	-2.808311e+01	-1.077353e+02
8.900000e-07	-3.940380e-06	-1.673608e-09	-2.786103e+01	-1.074827e+02
9.000000e-07	-3.908660e-06	-1.671197e-09	-2.763674e+01	-1.072208e+02
9.100000e-07	-3.876779e-06	-1.665684e-09	-2.741133e+01	-1.069505e+02
9.200000e-07	-3.844818e-06	-1.659197e-09	-2.718535e+01	-1.066725e+02
9.300000e-07	-3.812603e-06	-1.660203e-09	-2.695756e+01	-1.063879e+02
9.400000e-07	-3.780169e-06	-1.665583e-09	-2.672823e+01	-1.060978e+02
9.500000e-07	-3.747458e-06	-1.669079e-09	-2.649695e+01	-1.058034e+02
9.600000e-07	-3.714282e-06	-1.661204e-09	-2.626237e+01	-1.055058e+02
9.700000e-07	-3.680582e-06	-1.652467e-09	-2.602409e+01	-1.052061e+02
9.800000e-07	-3.646458e-06	-1.641815e-09	-2.578281e+01	-1.049050e+02
9.900000e-07	-3.611970e-06	-1.634767e-09	-2.553896e+01	-1.046032e+02
1.000000e-06	-3.577107e-06	-1.624900e-09	-2.529245e+01	-1.043010e+02
1.010000e-06	-3.541825e-06	-1.622035e-09	-2.504299e+01	-1.039984e+02
1.020000e-06	-3.506260e-06	-1.621936e-09	-2.479152e+01	-1.036954e+02
1.030000e-06	-3.470579e-06	-1.628734e-09	-2.453923e+01	-1.033916e+02
1.040000e-06	-3.434771e-06	-1.627949e-09	-2.428605e+01	-1.030864e+02
1.050000e-06	-3.398790e-06	-1.622874e-09	-2.403164e+01	-1.027791e+02
1.060000e-06	-3.362674e-06	-1.610750e-09	-2.377627e+01	-1.024692e+02
1.070000e-06	-3.326405e-06	-1.602749e-09	-2.351983e+01	-1.021558e+02
1.080000e-06	-3.289879e-06	-1.592052e-09	-2.326157e+01	-1.018384e+02
1.090000e-06	-3.253041e-06	-1.584439e-09	-2.300110e+01	-1.015165e+02
1.100000e-06	-3.215923e-06	-1.578555e-09	-2.273865e+01	-1.011896e+02
1.110000e-06	-3.178676e-06	-1.578956e-09	-2.247529e+01	-1.008577e+02
1.120000e-06	-3.141235e-06	-1.575008e-09	-2.221056e+01	-1.005209e+02
1.130000e-06	-3.103432e-06	-1.569123e-09	-2.194327e+01	-1.001795e+02
1.140000e-06	-3.065430e-06	-1.561801e-09	-2.167457e+01	-9.983392e+01
1.150000e-06	-3.027353e-06	-1.555668e-09	-2.140534e+01	-9.948497e+01
1.160000e-06	-2.989081e-06	-1.547709e-09	-2.113473e+01	-9.913345e+01
1.170000e-06	-2.950503e-06	-1.540413e-09	-2.086196e+01	-9.878031e+01
1.180000e-06	-2.911699e-06	-1.533088e-09	-2.058759e+01	-9.842652e+01
1.190000e-06	-2.872738e-06	-1.525523e-09	-2.031211e+01	-9.807299e+01
1.200000e-06	-2.833575e-06	-1.519600e-09	-2.003520e+01	-9.772059e+01
1.210000e-06	-2.794256e-06	-1.516437e-09	-1.975719e+01	-9.737000e+01
1.220000e-06	-2.754765e-06	-1.514637e-09	-1.947797e+01	-9.702172e+01
1.230000e-06	-2.715114e-06	-1.511305e-09	-1.919760e+01	-9.667602e+01
1.240000e-06	-2.675374e-06	-1.505710e-09	-1.891662e+01	-9.633293e+01
1.250000e-06	-2.635505e-06	-1.496760e-09	-1.863472e+01	-9.599219e+01
1.260000e-06	-2.595485e-06	-1.488967e-09	-1.835176e+01	-9.565329e+01
1.270000e-06	-2.555403e-06	-1.479137e-09	-1.806835e+01	-9.531551e+01
1.280000e-06	-2.515256e-06	-1.472743e-09	-1.778449e+01	-9.497788e+01
1.290000e-06	-2.475014e-06	-1.467066e-09	-1.749995e+01	-9.463933e+01
1.300000e-06	-2.434583e-06	-1.460779e-09	-1.721408e+01	-9.429865e+01
1.310000e-06	-2.393939e-06	-1.452878e-09	-1.692669e+01	-9.395458e+01
1.320000e-06	-2.353000e-06	-1.446893e-09	-1.663723e+01	-9.360589e+01
1.330000e-06	-2.311755e-06	-1.439970e-09	-1.634560e+01	-9.325141e+01
1.340000e-06	-2.270131e-06	-1.435084e-09	-1.605129e+01	-9.289008e+01
1.350000e-06	-2.228126e-06	-1.428238e-09	-1.575429e+01	-9.252099e+01
1.360000e-06	-2.185873e-06	-1.419856e-09	-1.545553e+01	-9.214344e+01
1.370000e-06	-2.143335e-06	-1.409966e-09	-1.515476e+01	-9.175689e+01
1.380000e-06	-2.100495e-06	-1.403059e-09	-1.485185e+01	-9.136105e+01
1.390000e-06	-2.057534e-06	-1.395858e-09	-1.454809e+01	-9.095578e+01
1.400000e-06	-2.014517e-06	-1.389215e-09	-1.424394e+01	-9.054113e+01
1.410000e-06	-1.971273e-06	-1.380382e-09	-1.393817e+01	-9.011730e+01
1.420000e-06	-1.927887e-06	-1.373708e-09	-1.363141e+01	-8.968456e+01
1.430000e-06	-1.884449e-06	-1.368217e-09	-1.332427e+01	-8.924326e+01
1.440000e-06	-1.840870e-06	-1.361922e-09	-1.301614e+01	-8.879375e+01
1.450000e-06	-1.797144e-06	-1.355320e-09	-1.270697e+01	-8.833634e+01
1.460000e-06	-1.753324e-06	-1.350121e-09	-1.239713e+01	-8.787125e+01
1.470000e-06	-1.709411e-06	-1.345168e-09	-1.208664e+01	-8.739862e+01
1.480000e-06	-1.665374e-06	-1.337939e-09	-1.177527e+01	-8.691845e+01
1.490000e-06	-1.621223e-06	-1.328962e-09	-1.146309e+01	-8.643059e+01
1.500000e-06	-1.577054e-06	-1.321796e-09	-1.115079e+01	-8.593476e+01
1.510000e-06	-1.532838e-06	-1.317180e-09	-1.083815e+01	-8.543055e+01
1.520000e-06	-1.488587e-06	-1.313298e-09	-1.052527e+01	-8.491746e+01
1.530000e-06	-1.444293e-06	-1.305665e-09	-1.021208e+01	-8.439490e+01
1.540000e-06	-1.399855e-06	-1.292693e-09	-9.897880e+00	-8.386229e+01
1.550000e-06	-1.355279e-06	-1.280514e-09	-9.582694e+00	-8.331901e+01
1.560000e-06	-1.310670e-06	-1.270119e-09	-9.267282e+00	-8.276454e+01
1.570000e-06	-1.265915e-06	-1.259916e-09	-8.950835e+00	-8.219843e+01
1.580000e-06	-1.220941e-06	-1.251753e-09	-8.632843e+00	-8.162036e+01
1.590000e-06	-1.175984e-06	-1.247743e-09	-8.314963e+00	-8.103020e+01
1.600000e-06	-1.130971e-06	-1.245599e-09	-7.996696e+00	-8.042793e+01
1.610000e-06	-1.085785e-06	-1.241042e-09	-7.677199e+00	-7.981374e+01
1.620000e-06	-1.040523e-06	-1.228012e-09	-7.357170e+00	-7.918795e+01
1.630000e-06	-9.952542e-07	-1.210389e-09	-7.037089e+00	-7.855102e+01
1.640000e-06	-9.499134e-07	-1.194126e-09	-6.716500e+00	-7.790351e+01
1.650000e-06	-9.044832e-07	-1.183798e-09	-6.395280e+00	-7.724598e+01
1.660000e-06	-8.589531e-07	-1.174660e-09	-6.073353e+00	-7.657901e+01
1.670000e-06	-8.133708e-07	-1.167540e-09	-5.751056e+00	-7.590309e+01
1.680000e-06	-7.678063e-07	-1.164280e-09	-5.428886e+00	-7.521857e+01
1.690000e-06	-7.221205e-07	-1.159919e-09	-5.105857e+00	-7.452559e+01
1.700000e-06	-6.763442e-07	-1.148369e-09	-4.782190e+00	-7.382404e+01
1.710000e-06	-6.305836e-07	-1.131219e-09	-4.458633e+00	-7.311354e+01
1.720000e-06	-5.848574e-07	-1.115068e-09	-4.135319e+00	-7.239336e+01
1.730000e-06	-5.391039e-07	-1.105247e-09	-3.811812e+00	-7.166244e+01
1.740000e-06	-4.931867e-07	-1.095574e-09	-3.487148e+00	-7.091942e+01
1.750000e-06	-4.472008e-07	-1.084344e-09	-3.161998e+00	-7.016257e+01
1.760000e-06	-4.012245e-07	-1.074168e-09	-2.836916e+00	-6.938995e+01
1.770000e-06	-3.552072e-07	-1.063897e-09	-2.511544e+00	-6.859936e+01
1.780000e-06	-3.091914e-07	-1.050751e-09	-2.186182e+00	-6.778846e+01
1.790000e-06	-2.632165e-07	-1.034559e-09	-1.861110e+00	-6.695483e+01
1.800000e-06	-2.172027e-07	-1.018539e-09	-1.535763e+00	-6.609604e+01
1.810000e-06	-1.711193e-07	-1.004835e-09	-1.209924e+00	-6.520976e+01
1.820000e-06	-1.250236e-07	-9.903370e-10	-8.839976e-01	-6.429380e+01
1.830000e-06	-7.899420e-08	-9.727422e-10	-5.585399e-01	-6.334621e+01
1.840000e-06	-3.298213e-08	-9.534629e-10	-2.332049e-01	-6.236534e+01
1.850000e-06	1.303381e-08	-9.373305e-10	9.215745e-02	-6.134988e+01
1.860000e-06	5.907889e-08	-9.249981e-10	4.177258e-01	-6.029885e+01
1.870000e-06	1.051249e-07	-9.117260e-10	7.433008e-01	-5.921171e+01
1.880000e-06	1.510712e-07	-8.979990e-10	1.068171e+00	-5.808823e+01
1.890000e-06	1.970526e-07	-8.836129e-10	1.393289e+00	-5.692855e+01
1.900000e-06	2.431426e-07	-8.656223e-10	1.719175e+00	-5.573313e+01
1.910000e-06	2.892048e-07	-8.417593e-10	2.044864e+00	-5.450263e+01
1.920000e-06	3.351971e-07	-8.142050e-10	2.370060e+00	-5.323792e+01
1.930000e-06	3.811539e-07	-7.869920e-10	2.695004e+00	-5.193996e+01
1.940000e-06	4.270334e-07	-7.640789e-10	3.019402e+00	-5.060972e+01
1.950000e-06	4.728702e-07	-7.449879e-10	3.343497e+00	-4.924812e+01
1.960000e-06	5.186887e-07	-7.265598e-10	3.667463e+00	-4.785596e+01
1.970000e-06	5.645487e-07	-7.063231e-10	3.991724e+00	-4.643384e+01
1.980000e-06	6.103321e-07	-6.844642e-10	4.315442e+00	-4.498213e+01
1.990000e-06	6.559400e-07	-6.599498e-10	4.637919e+00	-4.350093e+01
2.000000e-06	7.015116e-07	-6.328272e-10	4.960140e+00	-4.199005e+01
2.010000e-06	7.470956e-07	-6.045392e-10	5.282448e+00	-4.044902e+01
2.020000e-06	7.926528e-07	-5.776768e-10	5.604567e+00	-3.887709e+01
2.030000e-06	8.381831e-07	-5.526299e-10	5.926495e+00	-3.727330e+01
2.040000e-06	8.836583e-07	-5.289135e-10	6.248034e+00	-3.563649e+01
2.050000e-06	9.290257e-07	-5.051895e-10	6.568811e+00	-3.396539e+01
2.060000e-06	9.743416e-07	-4.806976e-10	6.889224e+00	-3.225866e+01
2.070000e-06	1.019654e-06	-4.544182e-10	7.209609e+00	-3.051498e+01
2.080000e-06	1.064883e-06	-4.248027e-10	7.529408e+00	-2.873313e+01
2.090000e-06	1.109946e-06	-3.950188e-10	7.848038e+00	-2.691201e+01
2.100000e-06	1.154928e-06	-3.673107e-10	8.166083e+00	-2.505075e+01
2.110000e-06	1.199843e-06	-3.377236e-10	8.483666e+00	-2.314874e+01
2.120000e-06	1.244634e-06	-3.047528e-10	8.800367e+00	-2.120564e+01
2.130000e-06	1.289362e-06	-2.728043e-10	9.116620e+00	-1.922143e+01
2.140000e-06	1.333951e-06	-2.439376e-10	9.431895e+00	-1.719641e+01
2.150000e-06	1.378365e-06	-2.145468e-10	9.745928e+00	-1.513119e+01
2.160000e-06	1.422720e-06	-1.826220e-10	1.005955e+01	-1.302668e+01
2.170000e-06	1.466979e-06	-1.484573e-10	1.037249e+01	-1.088404e+01
2.180000e-06	1.511167e-06	-1.156937e-10	1.068493e+01	-8.704668e+00
2.190000e-06	1.555336e-06	-8.548689e-11	1.099723e+01	-6.490142e+00
2.200000e-06	1.599406e-06	-5.496409e-11	1.130883e+01	-4.242186e+00
2.210000e-06	1.643415e-06	-2.311264e-11	1.162000e+01	-1.962631e+00
2.220000e-06	1.687409e-06	7.766790e-12	1.193107e+01	3.466262e-01
2.230000e-06	1.731389e-06	4.034730e-11	1.224204e+01	2.683643e+00
2.240000e-06	1.775353e-06	8.053390e-11	1.255289e+01	5.046450e+00
2.250000e-06	1.819200e-06	1.246194e-10	1.286292e+01	7.433060e+00
2.260000e-06	1.862894e-06	1.654098e-10	1.317186e+01	9.841461e+00
2.270000e-06	1.906469e-06	2.018031e-10	1.347997e+01	1.226960e+01
2.280000e-06	1.949984e-06	2.373013e-10	1.378765e+01	1.471537e+01
2.290000e-06	1.993466e-06	2.715502e-10	1.409509e+01	1.717656e+01
2.300000e-06	2.036771e-06	3.035040e-10	1.440129e+01	1.965083e+01
2.310000e-06	2.079790e-06	3.356403e-10	1.470546e+01	2.213568e+01
2.320000e-06	2.122491e-06	3.730244e-10	1.500738e+01	2.462841e+01
2.330000e-06	2.165021e-06	4.156832e-10	1.530810e+01	2.712611e+01
2.340000e-06	2.207383e-06	4.579508e-10	1.560762e+01	2.962559e+01
2.350000e-06	2.249511e-06	4.967692e-10	1.590549e+01	3.212344e+01
2.360000e-06	2.291259e-06	5.323638e-10	1.620068e+01	3.461599e+01
2.370000e-06	2.332527e-06	5.657022e-10	1.649247e+01	3.709932e+01
2.380000e-06	2.373556e-06	5.990023e-10	1.678257e+01	3.956936e+01
2.390000e-06	2.414368e-06	6.329292e-10	1.707114e+01	4.202187e+01
2.400000e-06	2.454949e-06	6.691406e-10	1.735808e+01	4.445252e+01
2.410000e-06	2.495316e-06	7.061448e-10	1.764349e+01	4.685700e+01
2.420000e-06	2.535521e-06	7.435938e-10	1.792777e+01	4.923104e+01
2.430000e-06	2.575590e-06	7.826855e-10	1.821108e+01	5.157057e+01
2.440000e-06	2.615535e-06	8.220854e-10	1.849352e+01	5.387170e+01
2.450000e-06	2.655417e-06	8.581260e-10	1.877551e+01	5.613092e+01
2.460000e-06	2.695224e-06	8.917063e-10	1.905697e+01	5.834507e+01
2.470000e-06	2.734949e-06	9.236137e-10	1.933785e+01	6.051145e+01
2.480000e-06	2.774532e-06	9.533326e-10	1.961773e+01	6.262785e+01
2.490000e-06	2.813915e-06	9.823749e-10	1.989619e+01	6.469261e+01
2.500000e-06	2.853103e-06	1.013056e-09	2.017328e+01	6.670455e+01
2.510000e-06	2.892056e-06	1.045388e-09	2.044870e+01	6.866306e+01
2.520000e-06	2.930844e-06	1.079088e-09	2.072296e+01	7.056798e+01
2.530000e-06	2.969383e-06	1.115438e-09	2.099546e+01	7.241961e+01
2.540000e-06	3.007592e-06	1.149965e-09	2.126561e+01	7.421863e+01
2.550000e-06	3.045673e-06	1.178862e-09	2.153487e+01	7.596604e+01
2.560000e-06	3.083645e-06	1.202613e-09	2.180336e+01	7.766306e+01
2.570000e-06	3.121385e-06	1.225504e-09	2.207021e+01	7.931106e+01
2.580000e-06	3.158899e-06	1.246717e-09	2.233545e+01	8.091147e+01
2.590000e-06	3.196167e-06	1.266234e-09	2.259897e+01	8.246572e+01
2.600000e-06	3.233202e-06	1.288923e-09	2.286082e+01	8.397517e+01
2.610000e-06	3.269987e-06	1.317660e-09	2.312092e+01	8.544102e+01
2.620000e-06	3.306487e-06	1.349359e-09	2.337900e+01	8.686432e+01
2.630000e-06	3.342812e-06	1.376221e-09	2.363584e+01	8.824590e+01
2.640000e-06	3.378973e-06	1.396021e-09	2.389152e+01	8.958638e+01
2.650000e-06	3.414976e-06	1.412087e-09	2.414608e+01	9.088620e+01
2.660000e-06	3.450858e-06	1.426451e-09	2.439979e+01	9.214558e+01
2.670000e-06	3.486654e-06	1.439030e-09	2.465289e+01	9.336463e+01
2.680000e-06	3.522303e-06	1.452067e-09	2.490495e+01	9.454332e+01
2.690000e-06	3.557724e-06	1.469883e-09	2.515540e+01	9.568160e+01
2.700000e-06	3.592823e-06	1.492282e-09	2.540358e+01	9.677939e+01
2.710000e-06	3.627572e-06	1.514982e-09	2.564928e+01	9.783667e+01
2.720000e-06	3.662002e-06	1.533974e-09	2.589271e+01	9.885353e+01
2.730000e-06	3.695949e-06	1.548535e-09	2.613274e+01	9.983017e+01
2.740000e-06	3.729300e-06	1.561264e-09	2.636856e+01	1.007670e+02
2.750000e-06	3.762169e-06	1.572516e-09	2.660096e+01	1.016645e+02
2.760000e-06	3.794647e-06	1.581431e-09	2.683060e+01	1.025235e+02
2.770000e-06	3.826819e-06	1.589688e-09	2.705808e+01	1.033449e+02
2.780000e-06	3.858838e-06	1.600346e-09	2.728448e+01	1.041297e+02
2.790000e-06	3.890773e-06	1.614144e-09	2.751028e+01	1.048793e+02
2.800000e-06	3.922568e-06	1.626277e-09	2.773509e+01	1.055948e+02
2.810000e-06	3.954167e-06	1.634632e-09	2.795851e+01	1.062776e+02
2.820000e-06	3.985612e-06	1.643291e-09	2.818085e+01	1.069291e+02
2.830000e-06	4.016808e-06	1.653082e-09	2.840142e+01	1.075504e+02
2.840000e-06	4.047595e-06	1.662544e-09	2.861911e+01	1.081429e+02
2.850000e-06	4.078064e-06	1.669100e-09	2.883454e+01	1.087076e+02
2.860000e-06	4.108299e-06	1.674562e-09	2.904832e+01	1.092454e+02
2.870000e-06	4.138271e-06	1.677291e-09	2.926025e+01	1.097572e+02
2.880000e-06	4.167951e-06	1.678131e-09	2.947011e+01	1.102435e+02
2.890000e-06	4.197357e-06	1.679437e-09	2.967802e+01	1.107048e+02
2.900000e-06	4.226499e-06	1.684813e-09	2.988408e+01	1.111416e+02
