# Temperatura_=_13.55
# Concentracion g/m^3_=_4090.0
# C_Vs_to_Am_M_A/Vsm_=_65563218390.804596
# pendiente_HvsI_1/m_=_3716.3
# ordenada_HvsI_A/m_=_1297.0
# frecuencia_Hz_=_135086.66167294214

Tiempo_(s)	Campo_(V.s)	Magnetizacion_(V.s)	Campo_(kA/m)	Magnetizacion_(A/m)
0.000000e+00	-5.416403e-06	-1.197888e-09	-3.838126e+01	-8.353742e+01
1.000000e-08	-5.416518e-06	-1.193520e-09	-3.838208e+01	-8.340080e+01
2.000000e-08	-5.416392e-06	-1.192194e-09	-3.838118e+01	-8.324949e+01
3.000000e-08	-5.415975e-06	-1.191552e-09	-3.837822e+01	-8.308398e+01
4.000000e-08	-5.415282e-06	-1.195135e-09	-3.837332e+01	-8.290557e+01
5.000000e-08	-5.414001e-06	-1.201154e-09	-3.836424e+01	-8.271641e+01
6.000000e-08	-5.411953e-06	-1.210615e-09	-3.834972e+01	-8.251949e+01
7.000000e-08	-5.409357e-06	-1.225537e-09	-3.833133e+01	-8.231858e+01
8.000000e-08	-5.406217e-06	-1.209845e-09	-3.830908e+01	-8.211810e+01
9.000000e-08	-5.402516e-06	-1.142929e-09	-3.828285e+01	-8.192302e+01
1.000000e-07	-5.398484e-06	-1.162019e-09	-3.825428e+01	-8.173865e+01
1.100000e-07	-5.394215e-06	-1.267705e-09	-3.822403e+01	-8.157046e+01
1.200000e-07	-5.389610e-06	-1.243473e-09	-3.819140e+01	-8.142385e+01
1.300000e-07	-5.384759e-06	-1.129602e-09	-3.815702e+01	-8.130394e+01
1.400000e-07	-5.379663e-06	-1.132168e-09	-3.812092e+01	-8.121532e+01
1.500000e-07	-5.374131e-06	-1.302700e-09	-3.808171e+01	-8.116184e+01
1.600000e-07	-5.368123e-06	-1.307160e-09	-3.803914e+01	-8.114644e+01
1.700000e-07	-5.361716e-06	-1.099706e-09	-3.799374e+01	-8.117095e+01
1.800000e-07	-5.354949e-06	-1.109017e-09	-3.794579e+01	-8.123604e+01
1.900000e-07	-5.347811e-06	-1.287836e-09	-3.789521e+01	-8.134105e+01
2.000000e-07	-5.340409e-06	-1.320947e-09	-3.784276e+01	-8.148406e+01
2.100000e-07	-5.332763e-06	-1.174703e-09	-3.778857e+01	-8.166186e+01
2.200000e-07	-5.324845e-06	-1.232318e-09	-3.773247e+01	-8.187008e+01
2.300000e-07	-5.316708e-06	-1.355098e-09	-3.767481e+01	-8.210328e+01
2.400000e-07	-5.308240e-06	-1.298720e-09	-3.761480e+01	-8.235516e+01
2.500000e-07	-5.299125e-06	-1.234173e-09	-3.755021e+01	-8.261874e+01
2.600000e-07	-5.289318e-06	-1.352961e-09	-3.748072e+01	-8.288667e+01
2.700000e-07	-5.279056e-06	-1.394365e-09	-3.740800e+01	-8.315139e+01
2.800000e-07	-5.268227e-06	-1.279598e-09	-3.733127e+01	-8.340551e+01
2.900000e-07	-5.256848e-06	-1.282230e-09	-3.725063e+01	-8.364196e+01
3.000000e-07	-5.245060e-06	-1.394966e-09	-3.716710e+01	-8.385432e+01
3.100000e-07	-5.232825e-06	-1.349777e-09	-3.708040e+01	-8.403700e+01
3.200000e-07	-5.220202e-06	-1.248462e-09	-3.699096e+01	-8.418542e+01
3.300000e-07	-5.207219e-06	-1.330520e-09	-3.689896e+01	-8.429613e+01
3.400000e-07	-5.193912e-06	-1.390602e-09	-3.680466e+01	-8.436693e+01
3.500000e-07	-5.180195e-06	-1.324734e-09	-3.670746e+01	-8.439690e+01
3.600000e-07	-5.166109e-06	-1.304936e-09	-3.660765e+01	-8.438634e+01
3.700000e-07	-5.151602e-06	-1.354826e-09	-3.650485e+01	-8.433676e+01
3.800000e-07	-5.136574e-06	-1.306163e-09	-3.639836e+01	-8.425070e+01
3.900000e-07	-5.121077e-06	-1.282033e-09	-3.628855e+01	-8.413163e+01
4.000000e-07	-5.104964e-06	-1.329833e-09	-3.617437e+01	-8.398372e+01
4.100000e-07	-5.088254e-06	-1.316207e-09	-3.605596e+01	-8.381167e+01
4.200000e-07	-5.071290e-06	-1.262389e-09	-3.593575e+01	-8.362043e+01
4.300000e-07	-5.054098e-06	-1.322419e-09	-3.581392e+01	-8.341504e+01
4.400000e-07	-5.036515e-06	-1.354386e-09	-3.568933e+01	-8.320037e+01
4.500000e-07	-5.018608e-06	-1.294478e-09	-3.556244e+01	-8.298095e+01
4.600000e-07	-5.000440e-06	-1.264136e-09	-3.543370e+01	-8.276079e+01
4.700000e-07	-4.981866e-06	-1.303844e-09	-3.530208e+01	-8.254325e+01
4.800000e-07	-4.962820e-06	-1.292773e-09	-3.516712e+01	-8.233093e+01
4.900000e-07	-4.943467e-06	-1.268833e-09	-3.502998e+01	-8.212565e+01
5.000000e-07	-4.923868e-06	-1.262153e-09	-3.489110e+01	-8.192841e+01
5.100000e-07	-4.904051e-06	-1.268903e-09	-3.475068e+01	-8.173944e+01
5.200000e-07	-4.884013e-06	-1.285706e-09	-3.460868e+01	-8.155825e+01
5.300000e-07	-4.863694e-06	-1.294812e-09	-3.446470e+01	-8.138374e+01
5.400000e-07	-4.843014e-06	-1.262956e-09	-3.431816e+01	-8.121433e+01
5.500000e-07	-4.821975e-06	-1.253254e-09	-3.416907e+01	-8.104808e+01
5.600000e-07	-4.800636e-06	-1.279709e-09	-3.401786e+01	-8.088287e+01
5.700000e-07	-4.779019e-06	-1.278111e-09	-3.386468e+01	-8.071652e+01
5.800000e-07	-4.757084e-06	-1.245363e-09	-3.370925e+01	-8.054695e+01
5.900000e-07	-4.734842e-06	-1.232485e-09	-3.355164e+01	-8.037233e+01
6.000000e-07	-4.712209e-06	-1.244402e-09	-3.339126e+01	-8.019111e+01
6.100000e-07	-4.689180e-06	-1.262885e-09	-3.322807e+01	-8.000219e+01
6.200000e-07	-4.665911e-06	-1.264521e-09	-3.306318e+01	-7.980492e+01
6.300000e-07	-4.642327e-06	-1.239467e-09	-3.289607e+01	-7.959911e+01
6.400000e-07	-4.618471e-06	-1.239407e-09	-3.272702e+01	-7.938506e+01
6.500000e-07	-4.594491e-06	-1.260748e-09	-3.255710e+01	-7.916347e+01
6.600000e-07	-4.570200e-06	-1.252401e-09	-3.238497e+01	-7.893544e+01
6.700000e-07	-4.545519e-06	-1.216820e-09	-3.221007e+01	-7.870230e+01
6.800000e-07	-4.520380e-06	-1.215736e-09	-3.203193e+01	-7.846562e+01
6.900000e-07	-4.494800e-06	-1.232446e-09	-3.185067e+01	-7.822702e+01
7.000000e-07	-4.468719e-06	-1.239864e-09	-3.166586e+01	-7.798811e+01
7.100000e-07	-4.442108e-06	-1.226687e-09	-3.147729e+01	-7.775037e+01
7.200000e-07	-4.415127e-06	-1.219925e-09	-3.128610e+01	-7.751510e+01
7.300000e-07	-4.387739e-06	-1.225934e-09	-3.109203e+01	-7.728331e+01
7.400000e-07	-4.360065e-06	-1.234960e-09	-3.089593e+01	-7.705570e+01
7.500000e-07	-4.332197e-06	-1.215503e-09	-3.069845e+01	-7.683263e+01
7.600000e-07	-4.304175e-06	-1.196761e-09	-3.049988e+01	-7.661410e+01
7.700000e-07	-4.275982e-06	-1.201564e-09	-3.030010e+01	-7.639980e+01
7.800000e-07	-4.247523e-06	-1.216538e-09	-3.009844e+01	-7.618912e+01
7.900000e-07	-4.218755e-06	-1.208561e-09	-2.989458e+01	-7.598124e+01
8.000000e-07	-4.189575e-06	-1.196135e-09	-2.968781e+01	-7.577516e+01
8.100000e-07	-4.160065e-06	-1.196075e-09	-2.947870e+01	-7.556981e+01
8.200000e-07	-4.130341e-06	-1.203346e-09	-2.926808e+01	-7.536414e+01
8.300000e-07	-4.100240e-06	-1.194889e-09	-2.905478e+01	-7.515715e+01
8.400000e-07	-4.069853e-06	-1.175331e-09	-2.883945e+01	-7.494802e+01
8.500000e-07	-4.039317e-06	-1.167369e-09	-2.862307e+01	-7.473612e+01
8.600000e-07	-4.008525e-06	-1.179476e-09	-2.840487e+01	-7.452107e+01
8.700000e-07	-3.977513e-06	-1.187273e-09	-2.818512e+01	-7.430278e+01
8.800000e-07	-3.946278e-06	-1.176392e-09	-2.796379e+01	-7.408143e+01
8.900000e-07	-3.914803e-06	-1.165852e-09	-2.774075e+01	-7.385744e+01
9.000000e-07	-3.883130e-06	-1.167111e-09	-2.751631e+01	-7.363150e+01
9.100000e-07	-3.851292e-06	-1.168368e-09	-2.729070e+01	-7.340443e+01
9.200000e-07	-3.819233e-06	-1.156860e-09	-2.706353e+01	-7.317720e+01
9.300000e-07	-3.786906e-06	-1.146531e-09	-2.683445e+01	-7.295080e+01
9.400000e-07	-3.754234e-06	-1.152403e-09	-2.660293e+01	-7.272620e+01
9.500000e-07	-3.721249e-06	-1.166378e-09	-2.636920e+01	-7.250425e+01
9.600000e-07	-3.688000e-06	-1.165634e-09	-2.613359e+01	-7.228565e+01
9.700000e-07	-3.654285e-06	-1.151179e-09	-2.589469e+01	-7.207085e+01
9.800000e-07	-3.620017e-06	-1.138556e-09	-2.565186e+01	-7.186005e+01
9.900000e-07	-3.585334e-06	-1.136562e-09	-2.540609e+01	-7.165315e+01
1.000000e-06	-3.550269e-06	-1.134941e-09	-2.515762e+01	-7.144973e+01
1.010000e-06	-3.514830e-06	-1.132589e-09	-2.490650e+01	-7.124911e+01
1.020000e-06	-3.479189e-06	-1.130150e-09	-2.465394e+01	-7.105035e+01
1.030000e-06	-3.443420e-06	-1.134694e-09	-2.440047e+01	-7.085230e+01
1.040000e-06	-3.407533e-06	-1.136511e-09	-2.414617e+01	-7.065366e+01
1.050000e-06	-3.371506e-06	-1.131276e-09	-2.389088e+01	-7.045306e+01
1.060000e-06	-3.335306e-06	-1.118924e-09	-2.363437e+01	-7.024916e+01
1.070000e-06	-3.298810e-06	-1.112854e-09	-2.337575e+01	-7.004066e+01
1.080000e-06	-3.262071e-06	-1.108225e-09	-2.311541e+01	-6.982645e+01
1.090000e-06	-3.225240e-06	-1.103048e-09	-2.285442e+01	-6.960563e+01
1.100000e-06	-3.188192e-06	-1.098627e-09	-2.259190e+01	-6.937757e+01
1.110000e-06	-3.150844e-06	-1.097412e-09	-2.232725e+01	-6.914194e+01
1.120000e-06	-3.113306e-06	-1.096199e-09	-2.206125e+01	-6.889875e+01
1.130000e-06	-3.075642e-06	-1.090240e-09	-2.179436e+01	-6.864833e+01
1.140000e-06	-3.037813e-06	-1.081167e-09	-2.152629e+01	-6.839128e+01
1.150000e-06	-2.999674e-06	-1.077582e-09	-2.125604e+01	-6.812850e+01
1.160000e-06	-2.961269e-06	-1.075249e-09	-2.098389e+01	-6.786105e+01
1.170000e-06	-2.922618e-06	-1.069697e-09	-2.071001e+01	-6.759014e+01
1.180000e-06	-2.883759e-06	-1.061221e-09	-2.043465e+01	-6.731703e+01
1.190000e-06	-2.844811e-06	-1.054050e-09	-2.015866e+01	-6.704296e+01
1.200000e-06	-2.805643e-06	-1.054547e-09	-1.988111e+01	-6.676903e+01
1.210000e-06	-2.766261e-06	-1.056122e-09	-1.960205e+01	-6.649619e+01
1.220000e-06	-2.726727e-06	-1.052301e-09	-1.932191e+01	-6.622511e+01
1.230000e-06	-2.687061e-06	-1.045899e-09	-1.904082e+01	-6.595619e+01
1.240000e-06	-2.647263e-06	-1.041922e-09	-1.875881e+01	-6.568947e+01
1.250000e-06	-2.607398e-06	-1.036082e-09	-1.847632e+01	-6.542468e+01
1.260000e-06	-2.567468e-06	-1.027776e-09	-1.819337e+01	-6.516118e+01
1.270000e-06	-2.527372e-06	-1.019372e-09	-1.790925e+01	-6.489807e+01
1.280000e-06	-2.487190e-06	-1.017811e-09	-1.762451e+01	-6.463416e+01
1.290000e-06	-2.446854e-06	-1.017907e-09	-1.733869e+01	-6.436807e+01
1.300000e-06	-2.406256e-06	-1.014336e-09	-1.705101e+01	-6.409830e+01
1.310000e-06	-2.365438e-06	-1.005821e-09	-1.676176e+01	-6.382334e+01
1.320000e-06	-2.324302e-06	-9.986186e-10	-1.647027e+01	-6.354170e+01
1.330000e-06	-2.282855e-06	-9.922809e-10	-1.617657e+01	-6.325204e+01
1.340000e-06	-2.241258e-06	-9.870435e-10	-1.588182e+01	-6.295322e+01
1.350000e-06	-2.199309e-06	-9.838549e-10	-1.558456e+01	-6.264441e+01
1.360000e-06	-2.157036e-06	-9.833429e-10	-1.528501e+01	-6.232507e+01
1.370000e-06	-2.114588e-06	-9.813770e-10	-1.498422e+01	-6.199504e+01
1.380000e-06	-2.071911e-06	-9.779239e-10	-1.468180e+01	-6.165452e+01
1.390000e-06	-2.028963e-06	-9.731003e-10	-1.437747e+01	-6.130407e+01
1.400000e-06	-1.985781e-06	-9.656338e-10	-1.407148e+01	-6.094457e+01
1.410000e-06	-1.942416e-06	-9.563225e-10	-1.376418e+01	-6.057720e+01
1.420000e-06	-1.898957e-06	-9.499049e-10	-1.345623e+01	-6.020330e+01
1.430000e-06	-1.855507e-06	-9.459260e-10	-1.314834e+01	-5.982438e+01
1.440000e-06	-1.811889e-06	-9.438744e-10	-1.283926e+01	-5.944196e+01
1.450000e-06	-1.768143e-06	-9.398570e-10	-1.252927e+01	-5.905751e+01
1.460000e-06	-1.724332e-06	-9.355380e-10	-1.221882e+01	-5.867237e+01
1.470000e-06	-1.680459e-06	-9.318052e-10	-1.190793e+01	-5.828763e+01
1.480000e-06	-1.636497e-06	-9.275947e-10	-1.159640e+01	-5.790411e+01
1.490000e-06	-1.592448e-06	-9.255775e-10	-1.128427e+01	-5.752225e+01
1.500000e-06	-1.548378e-06	-9.234204e-10	-1.097198e+01	-5.714214e+01
1.510000e-06	-1.504208e-06	-9.205479e-10	-1.065900e+01	-5.676342e+01
1.520000e-06	-1.459976e-06	-9.149667e-10	-1.034556e+01	-5.638538e+01
1.530000e-06	-1.415712e-06	-9.069528e-10	-1.003190e+01	-5.600692e+01
1.540000e-06	-1.371293e-06	-8.954677e-10	-9.717139e+00	-5.562662e+01
1.550000e-06	-1.326783e-06	-8.812458e-10	-9.401738e+00	-5.524282e+01
1.560000e-06	-1.282247e-06	-8.699429e-10	-9.086152e+00	-5.485368e+01
1.570000e-06	-1.237622e-06	-8.651926e-10	-8.769935e+00	-5.445726e+01
1.580000e-06	-1.192951e-06	-8.638259e-10	-8.453390e+00	-5.405163e+01
1.590000e-06	-1.148157e-06	-8.639114e-10	-8.135977e+00	-5.363496e+01
1.600000e-06	-1.103221e-06	-8.611018e-10	-7.817550e+00	-5.320557e+01
1.610000e-06	-1.058201e-06	-8.539310e-10	-7.498538e+00	-5.276205e+01
1.620000e-06	-1.013068e-06	-8.421694e-10	-7.178717e+00	-5.230327e+01
1.630000e-06	-9.678404e-07	-8.281740e-10	-6.858229e+00	-5.182845e+01
1.640000e-06	-9.225031e-07	-8.146134e-10	-6.536964e+00	-5.133715e+01
1.650000e-06	-8.771377e-07	-8.053385e-10	-6.215499e+00	-5.082931e+01
1.660000e-06	-8.317349e-07	-7.998503e-10	-5.893770e+00	-5.030517e+01
1.670000e-06	-7.862438e-07	-7.997445e-10	-5.571414e+00	-4.976525e+01
1.680000e-06	-7.406906e-07	-7.984851e-10	-5.248620e+00	-4.921032e+01
1.690000e-06	-6.950273e-07	-7.907297e-10	-4.925044e+00	-4.864127e+01
1.700000e-06	-6.492944e-07	-7.763686e-10	-4.600976e+00	-4.805904e+01
1.710000e-06	-6.035382e-07	-7.594184e-10	-4.276741e+00	-4.746458e+01
1.720000e-06	-5.578746e-07	-7.449085e-10	-3.953164e+00	-4.685869e+01
1.730000e-06	-5.122200e-07	-7.336437e-10	-3.629650e+00	-4.624198e+01
1.740000e-06	-4.663969e-07	-7.244450e-10	-3.304942e+00	-4.561481e+01
1.750000e-06	-4.204519e-07	-7.162540e-10	-2.979371e+00	-4.497720e+01
1.760000e-06	-3.744413e-07	-7.076816e-10	-2.653334e+00	-4.432879e+01
1.770000e-06	-3.285218e-07	-6.962812e-10	-2.327944e+00	-4.366886e+01
1.780000e-06	-2.827544e-07	-6.825059e-10	-2.003631e+00	-4.299628e+01
1.790000e-06	-2.369361e-07	-6.677912e-10	-1.678957e+00	-4.230957e+01
1.800000e-06	-1.910229e-07	-6.541661e-10	-1.353611e+00	-4.160692e+01
1.810000e-06	-1.451001e-07	-6.419691e-10	-1.028196e+00	-4.088626e+01
1.820000e-06	-9.919271e-08	-6.291319e-10	-7.028910e-01	-4.014532e+01
1.830000e-06	-5.327299e-08	-6.144003e-10	-3.774986e-01	-3.938171e+01
1.840000e-06	-7.285850e-09	-5.993236e-10	-5.162838e-02	-3.859305e+01
1.850000e-06	3.866884e-08	-5.873674e-10	2.740119e-01	-3.777699e+01
1.860000e-06	8.459283e-08	-5.786630e-10	5.994346e-01	-3.693137e+01
1.870000e-06	1.304973e-07	-5.698690e-10	9.247190e-01	-3.605422e+01
1.880000e-06	1.764290e-07	-5.601325e-10	1.250196e+00	-3.514392e+01
1.890000e-06	2.223943e-07	-5.464734e-10	1.575912e+00	-3.419916e+01
1.900000e-06	2.682517e-07	-5.275758e-10	1.900862e+00	-3.321902e+01
1.910000e-06	3.140488e-07	-5.042165e-10	2.225386e+00	-3.220301e+01
1.920000e-06	3.598210e-07	-4.828346e-10	2.549733e+00	-3.115099e+01
1.930000e-06	4.055602e-07	-4.641400e-10	2.873847e+00	-3.006323e+01
1.940000e-06	4.513312e-07	-4.460062e-10	3.198185e+00	-2.894032e+01
1.950000e-06	4.971596e-07	-4.288574e-10	3.522930e+00	-2.778313e+01
1.960000e-06	5.429395e-07	-4.181693e-10	3.847332e+00	-2.659278e+01
1.970000e-06	5.886548e-07	-4.073480e-10	4.171276e+00	-2.537050e+01
1.980000e-06	6.341991e-07	-3.870239e-10	4.494008e+00	-2.411764e+01
1.990000e-06	6.796253e-07	-3.586661e-10	4.815903e+00	-2.283554e+01
2.000000e-06	7.251629e-07	-3.305080e-10	5.138588e+00	-2.152548e+01
2.010000e-06	7.707416e-07	-3.096716e-10	5.461564e+00	-2.018865e+01
2.020000e-06	8.162382e-07	-2.929951e-10	5.783959e+00	-1.882607e+01
2.030000e-06	8.616405e-07	-2.736059e-10	6.105684e+00	-1.743856e+01
2.040000e-06	9.069465e-07	-2.535478e-10	6.426728e+00	-1.602679e+01
2.050000e-06	9.521942e-07	-2.371545e-10	6.747358e+00	-1.459117e+01
2.060000e-06	9.974330e-07	-2.183373e-10	7.067926e+00	-1.313195e+01
2.070000e-06	1.042577e-06	-1.916970e-10	7.387821e+00	-1.164925e+01
2.080000e-06	1.087657e-06	-1.611857e-10	7.707263e+00	-1.014304e+01
2.090000e-06	1.132635e-06	-1.364341e-10	8.025986e+00	-8.613235e+00
2.100000e-06	1.177348e-06	-1.186108e-10	8.342821e+00	-7.059756e+00
2.110000e-06	1.221982e-06	-1.002443e-10	8.659109e+00	-5.482566e+00
2.120000e-06	1.266599e-06	-7.597375e-11	8.975268e+00	-3.881744e+00
2.130000e-06	1.311110e-06	-5.096765e-11	9.290678e+00	-2.257529e+00
2.140000e-06	1.355576e-06	-2.803138e-11	9.605768e+00	-6.103777e-01
2.150000e-06	1.399944e-06	-3.493424e-12	9.920167e+00	1.059007e+00
2.160000e-06	1.444172e-06	2.345713e-11	1.023357e+01	2.749643e+00
2.170000e-06	1.488331e-06	5.070096e-11	1.054649e+01	4.460258e+00
2.180000e-06	1.532445e-06	7.430316e-11	1.085909e+01	6.189289e+00
2.190000e-06	1.576480e-06	9.504508e-11	1.117112e+01	7.934891e+00
2.200000e-06	1.620452e-06	1.195620e-10	1.148271e+01	9.694963e+00
2.210000e-06	1.664363e-06	1.478347e-10	1.179387e+01	1.146718e+01
2.220000e-06	1.708243e-06	1.778351e-10	1.210481e+01	1.324904e+01
2.230000e-06	1.752108e-06	2.069536e-10	1.241564e+01	1.503789e+01
2.240000e-06	1.795873e-06	2.363044e-10	1.272577e+01	1.683101e+01
2.250000e-06	1.839555e-06	2.649243e-10	1.303530e+01	1.862563e+01
2.260000e-06	1.883160e-06	2.925085e-10	1.334429e+01	2.041902e+01
2.270000e-06	1.926612e-06	3.177201e-10	1.365219e+01	2.220847e+01
2.280000e-06	1.969970e-06	3.437635e-10	1.395943e+01	2.399141e+01
2.290000e-06	2.013195e-06	3.752163e-10	1.426573e+01	2.576535e+01
2.300000e-06	2.056191e-06	4.053647e-10	1.457041e+01	2.752799e+01
2.310000e-06	2.098907e-06	4.310966e-10	1.487310e+01	2.927718e+01
2.320000e-06	2.141416e-06	4.551865e-10	1.517432e+01	3.101092e+01
2.330000e-06	2.183692e-06	4.794756e-10	1.547389e+01	3.272739e+01
2.340000e-06	2.225582e-06	5.045179e-10	1.577073e+01	3.442493e+01
2.350000e-06	2.267151e-06	5.301627e-10	1.606529e+01	3.610200e+01
2.360000e-06	2.308476e-06	5.557435e-10	1.635813e+01	3.775721e+01
2.370000e-06	2.349568e-06	5.838488e-10	1.664931e+01	3.938925e+01
2.380000e-06	2.390408e-06	6.133926e-10	1.693871e+01	4.099689e+01
2.390000e-06	2.431015e-06	6.400912e-10	1.722646e+01	4.257898e+01
2.400000e-06	2.471424e-06	6.625295e-10	1.751280e+01	4.413441e+01
2.410000e-06	2.511630e-06	6.838360e-10	1.779770e+01	4.566209e+01
2.420000e-06	2.551723e-06	7.077769e-10	1.808180e+01	4.716099e+01
2.430000e-06	2.591741e-06	7.336906e-10	1.836538e+01	4.863008e+01
2.440000e-06	2.631649e-06	7.559205e-10	1.864817e+01	5.006839e+01
2.450000e-06	2.671422e-06	7.750881e-10	1.893001e+01	5.147495e+01
2.460000e-06	2.711091e-06	7.988469e-10	1.921110e+01	5.284887e+01
2.470000e-06	2.750655e-06	8.229599e-10	1.949146e+01	5.418931e+01
2.480000e-06	2.790008e-06	8.421615e-10	1.977032e+01	5.549552e+01
2.490000e-06	2.829152e-06	8.593076e-10	2.004770e+01	5.676683e+01
2.500000e-06	2.868154e-06	8.784204e-10	2.032407e+01	5.800268e+01
2.510000e-06	2.906936e-06	9.030965e-10	2.059888e+01	5.920264e+01
2.520000e-06	2.945413e-06	9.300485e-10	2.087154e+01	6.036641e+01
2.530000e-06	2.983669e-06	9.527738e-10	2.114262e+01	6.149381e+01
2.540000e-06	3.021784e-06	9.711268e-10	2.141271e+01	6.258481e+01
2.550000e-06	3.059751e-06	9.855872e-10	2.168175e+01	6.363953e+01
2.560000e-06	3.097531e-06	9.966737e-10	2.194946e+01	6.465820e+01
2.570000e-06	3.135044e-06	1.006335e-09	2.221529e+01	6.564118e+01
2.580000e-06	3.172332e-06	1.015265e-09	2.247951e+01	6.658894e+01
2.590000e-06	3.209476e-06	1.029323e-09	2.274272e+01	6.750205e+01
2.600000e-06	3.246314e-06	1.050459e-09	2.300376e+01	6.838115e+01
2.610000e-06	3.282865e-06	1.073634e-09	2.326276e+01	6.922699e+01
2.620000e-06	3.319263e-06	1.091167e-09	2.352068e+01	7.004031e+01
2.630000e-06	3.355481e-06	1.099140e-09	2.377732e+01	7.082196e+01
2.640000e-06	3.391523e-06	1.103723e-09	2.403273e+01	7.157279e+01
2.650000e-06	3.427439e-06	1.110447e-09	2.428723e+01	7.229367e+01
2.660000e-06	3.463242e-06	1.116265e-09	2.454093e+01	7.298553e+01
2.670000e-06	3.498888e-06	1.121827e-09	2.479353e+01	7.364928e+01
2.680000e-06	3.534271e-06	1.130992e-09	2.504425e+01	7.428587e+01
2.690000e-06	3.569387e-06	1.145543e-09	2.529309e+01	7.489628e+01
2.700000e-06	3.604246e-06	1.161925e-09	2.554010e+01	7.548149e+01
2.710000e-06	3.638625e-06	1.172680e-09	2.578372e+01	7.604250e+01
2.720000e-06	3.672504e-06	1.174699e-09	2.602379e+01	7.658034e+01
2.730000e-06	3.705916e-06	1.177972e-09	2.626055e+01	7.709605e+01
2.740000e-06	3.738887e-06	1.186073e-09	2.649419e+01	7.759068e+01
2.750000e-06	3.771572e-06	1.192130e-09	2.672580e+01	7.806527e+01
2.760000e-06	3.803931e-06	1.194423e-09	2.695510e+01	7.852085e+01
2.770000e-06	3.836020e-06	1.197343e-09	2.718248e+01	7.895843e+01
2.780000e-06	3.867979e-06	1.207780e-09	2.740895e+01	7.937898e+01
2.790000e-06	3.899759e-06	1.219215e-09	2.763414e+01	7.978339e+01
2.800000e-06	3.931338e-06	1.222663e-09	2.785792e+01	8.017248e+01
2.810000e-06	3.962732e-06	1.219677e-09	2.808037e+01	8.054697e+01
2.820000e-06	3.993826e-06	1.218926e-09	2.830072e+01	8.090747e+01
2.830000e-06	4.024633e-06	1.223347e-09	2.851902e+01	8.125447e+01
2.840000e-06	4.055221e-06	1.227174e-09	2.873577e+01	8.158831e+01
2.850000e-06	4.085498e-06	1.228990e-09	2.895031e+01	8.190922e+01
2.860000e-06	4.115468e-06	1.234753e-09	2.916268e+01	8.221728e+01
2.870000e-06	4.145262e-06	1.247686e-09	2.937381e+01	8.251247e+01
2.880000e-06	4.174800e-06	1.258220e-09	2.958311e+01	8.279464e+01
2.890000e-06	4.204076e-06	1.257391e-09	2.979057e+01	8.306359e+01
2.900000e-06	4.233026e-06	1.252869e-09	2.999571e+01	8.331905e+01
