# Temperatura_=_16.33
# Concentracion g/m^3_=_4090.0
# C_Vs_to_Am_M_A/Vsm_=_65563218390.804596
# pendiente_HvsI_1/m_=_3716.3
# ordenada_HvsI_A/m_=_1297.0
# frecuencia_Hz_=_135084.97026390658

Tiempo_(s)	Campo_(V.s)	Magnetizacion_(V.s)	Campo_(kA/m)	Magnetizacion_(A/m)
0.000000e+00	-5.399145e-06	-1.207606e-09	-3.839195e+01	-8.392183e+01
1.000000e-08	-5.399368e-06	-1.204756e-09	-3.839354e+01	-8.378776e+01
2.000000e-08	-5.399312e-06	-1.201971e-09	-3.839313e+01	-8.363562e+01
3.000000e-08	-5.399009e-06	-1.200137e-09	-3.839098e+01	-8.346637e+01
4.000000e-08	-5.398358e-06	-1.199435e-09	-3.838636e+01	-8.328201e+01
5.000000e-08	-5.397253e-06	-1.198192e-09	-3.837850e+01	-8.308559e+01
6.000000e-08	-5.395649e-06	-1.197126e-09	-3.836709e+01	-8.288110e+01
7.000000e-08	-5.393513e-06	-1.207656e-09	-3.835190e+01	-8.267344e+01
8.000000e-08	-5.390684e-06	-1.229102e-09	-3.833179e+01	-8.246826e+01
9.000000e-08	-5.387207e-06	-1.204414e-09	-3.830706e+01	-8.227175e+01
1.000000e-07	-5.383289e-06	-1.143824e-09	-3.827920e+01	-8.209043e+01
1.100000e-07	-5.379139e-06	-1.189577e-09	-3.824969e+01	-8.193090e+01
1.200000e-07	-5.374812e-06	-1.266877e-09	-3.821893e+01	-8.179959e+01
1.300000e-07	-5.370156e-06	-1.246133e-09	-3.818582e+01	-8.170248e+01
1.400000e-07	-5.365070e-06	-1.139890e-09	-3.814965e+01	-8.164483e+01
1.500000e-07	-5.359604e-06	-1.174662e-09	-3.811079e+01	-8.163093e+01
1.600000e-07	-5.353850e-06	-1.304268e-09	-3.806987e+01	-8.166394e+01
1.700000e-07	-5.347750e-06	-1.248821e-09	-3.802649e+01	-8.174566e+01
1.800000e-07	-5.341244e-06	-1.128992e-09	-3.798023e+01	-8.187644e+01
1.900000e-07	-5.334303e-06	-1.163675e-09	-3.793088e+01	-8.205513e+01
2.000000e-07	-5.327056e-06	-1.320021e-09	-3.787934e+01	-8.227906e+01
2.100000e-07	-5.319552e-06	-1.292023e-09	-3.782599e+01	-8.254411e+01
2.200000e-07	-5.311733e-06	-1.243648e-09	-3.777039e+01	-8.284482e+01
2.300000e-07	-5.303741e-06	-1.321660e-09	-3.771356e+01	-8.317457e+01
2.400000e-07	-5.295503e-06	-1.409858e-09	-3.765498e+01	-8.352582e+01
2.500000e-07	-5.286722e-06	-1.339752e-09	-3.759254e+01	-8.389034e+01
2.600000e-07	-5.277245e-06	-1.321471e-09	-3.752515e+01	-8.425953e+01
2.700000e-07	-5.267088e-06	-1.409220e-09	-3.745293e+01	-8.462472e+01
2.800000e-07	-5.256372e-06	-1.413605e-09	-3.737673e+01	-8.497746e+01
2.900000e-07	-5.245290e-06	-1.329921e-09	-3.729793e+01	-8.530982e+01
3.000000e-07	-5.233849e-06	-1.368569e-09	-3.721657e+01	-8.561468e+01
3.100000e-07	-5.221858e-06	-1.448128e-09	-3.713131e+01	-8.588594e+01
3.200000e-07	-5.209428e-06	-1.389836e-09	-3.704292e+01	-8.611870e+01
3.300000e-07	-5.196686e-06	-1.344246e-09	-3.695231e+01	-8.630944e+01
3.400000e-07	-5.183611e-06	-1.404438e-09	-3.685934e+01	-8.645602e+01
3.500000e-07	-5.170104e-06	-1.424269e-09	-3.676330e+01	-8.655778e+01
3.600000e-07	-5.156212e-06	-1.363111e-09	-3.666452e+01	-8.661541e+01
3.700000e-07	-5.142007e-06	-1.372359e-09	-3.656351e+01	-8.663092e+01
3.800000e-07	-5.127321e-06	-1.382867e-09	-3.645908e+01	-8.660740e+01
3.900000e-07	-5.111965e-06	-1.352323e-09	-3.634989e+01	-8.654892e+01
4.000000e-07	-5.096025e-06	-1.360743e-09	-3.623654e+01	-8.646022e+01
4.100000e-07	-5.079707e-06	-1.403017e-09	-3.612050e+01	-8.634650e+01
4.200000e-07	-5.063011e-06	-1.362247e-09	-3.600179e+01	-8.621315e+01
4.300000e-07	-5.045953e-06	-1.347734e-09	-3.588049e+01	-8.606548e+01
4.400000e-07	-5.028590e-06	-1.394917e-09	-3.575703e+01	-8.590852e+01
4.500000e-07	-5.010898e-06	-1.402692e-09	-3.563123e+01	-8.574678e+01
4.600000e-07	-4.992902e-06	-1.334553e-09	-3.550326e+01	-8.558407e+01
4.700000e-07	-4.974628e-06	-1.336288e-09	-3.537332e+01	-8.542340e+01
4.800000e-07	-4.955945e-06	-1.365254e-09	-3.524047e+01	-8.526685e+01
4.900000e-07	-4.936835e-06	-1.363392e-09	-3.510458e+01	-8.511560e+01
5.000000e-07	-4.917364e-06	-1.336287e-09	-3.496613e+01	-8.496988e+01
5.100000e-07	-4.897619e-06	-1.338904e-09	-3.482573e+01	-8.482908e+01
5.200000e-07	-4.877642e-06	-1.342512e-09	-3.468368e+01	-8.469186e+01
5.300000e-07	-4.857463e-06	-1.356929e-09	-3.454019e+01	-8.455626e+01
5.400000e-07	-4.837082e-06	-1.353680e-09	-3.439526e+01	-8.441989e+01
5.500000e-07	-4.816422e-06	-1.334188e-09	-3.424835e+01	-8.428011e+01
5.600000e-07	-4.795395e-06	-1.323331e-09	-3.409884e+01	-8.413421e+01
5.700000e-07	-4.773977e-06	-1.339643e-09	-3.394654e+01	-8.397961e+01
5.800000e-07	-4.752153e-06	-1.334909e-09	-3.379135e+01	-8.381403e+01
5.900000e-07	-4.730036e-06	-1.309608e-09	-3.363409e+01	-8.363561e+01
6.000000e-07	-4.707600e-06	-1.300424e-09	-3.347455e+01	-8.344305e+01
6.100000e-07	-4.684749e-06	-1.319514e-09	-3.331207e+01	-8.323567e+01
6.200000e-07	-4.661597e-06	-1.334515e-09	-3.314743e+01	-8.301349e+01
6.300000e-07	-4.638226e-06	-1.319965e-09	-3.298125e+01	-8.277718e+01
6.400000e-07	-4.614557e-06	-1.305868e-09	-3.281294e+01	-8.252805e+01
6.500000e-07	-4.590654e-06	-1.314462e-09	-3.264298e+01	-8.226797e+01
6.600000e-07	-4.566622e-06	-1.324646e-09	-3.247209e+01	-8.199928e+01
6.700000e-07	-4.542386e-06	-1.304879e-09	-3.229975e+01	-8.172462e+01
6.800000e-07	-4.517706e-06	-1.286759e-09	-3.212426e+01	-8.144686e+01
6.900000e-07	-4.492501e-06	-1.283698e-09	-3.194503e+01	-8.116886e+01
7.000000e-07	-4.466792e-06	-1.292631e-09	-3.176222e+01	-8.089341e+01
7.100000e-07	-4.440601e-06	-1.284443e-09	-3.157599e+01	-8.062302e+01
7.200000e-07	-4.413993e-06	-1.273350e-09	-3.138678e+01	-8.035983e+01
7.300000e-07	-4.386931e-06	-1.269432e-09	-3.119435e+01	-8.010551e+01
7.400000e-07	-4.359489e-06	-1.284833e-09	-3.099922e+01	-7.986120e+01
7.500000e-07	-4.331799e-06	-1.283686e-09	-3.080232e+01	-7.962744e+01
7.600000e-07	-4.303977e-06	-1.268518e-09	-3.060449e+01	-7.940419e+01
7.700000e-07	-4.275890e-06	-1.254334e-09	-3.040477e+01	-7.919084e+01
7.800000e-07	-4.247545e-06	-1.259845e-09	-3.020322e+01	-7.898628e+01
7.900000e-07	-4.218927e-06	-1.259145e-09	-2.999972e+01	-7.878894e+01
8.000000e-07	-4.189949e-06	-1.252415e-09	-2.979367e+01	-7.859696e+01
8.100000e-07	-4.160732e-06	-1.243468e-09	-2.958591e+01	-7.840825e+01
8.200000e-07	-4.131253e-06	-1.249997e-09	-2.937629e+01	-7.822060e+01
8.300000e-07	-4.101512e-06	-1.256751e-09	-2.916481e+01	-7.803186e+01
8.400000e-07	-4.071453e-06	-1.251710e-09	-2.895107e+01	-7.784001e+01
8.500000e-07	-4.041067e-06	-1.237511e-09	-2.873500e+01	-7.764325e+01
8.600000e-07	-4.010409e-06	-1.233336e-09	-2.851700e+01	-7.744012e+01
8.700000e-07	-3.979453e-06	-1.236670e-09	-2.829688e+01	-7.722955e+01
8.800000e-07	-3.948270e-06	-1.233963e-09	-2.807515e+01	-7.701087e+01
8.900000e-07	-3.916868e-06	-1.220981e-09	-2.785185e+01	-7.678384e+01
9.000000e-07	-3.885262e-06	-1.212608e-09	-2.762711e+01	-7.654864e+01
9.100000e-07	-3.853471e-06	-1.215844e-09	-2.740106e+01	-7.630581e+01
9.200000e-07	-3.821500e-06	-1.218970e-09	-2.717371e+01	-7.605621e+01
9.300000e-07	-3.789385e-06	-1.213088e-09	-2.694536e+01	-7.580094e+01
9.400000e-07	-3.757098e-06	-1.206511e-09	-2.671577e+01	-7.554125e+01
9.500000e-07	-3.724486e-06	-1.210633e-09	-2.648388e+01	-7.527844e+01
9.600000e-07	-3.691505e-06	-1.212284e-09	-2.624936e+01	-7.501379e+01
9.700000e-07	-3.658163e-06	-1.202719e-09	-2.601227e+01	-7.474849e+01
9.800000e-07	-3.624351e-06	-1.186361e-09	-2.577184e+01	-7.448352e+01
9.900000e-07	-3.590094e-06	-1.179623e-09	-2.552825e+01	-7.421965e+01
1.000000e-06	-3.555501e-06	-1.179308e-09	-2.528227e+01	-7.395737e+01
1.010000e-06	-3.520557e-06	-1.180951e-09	-2.503379e+01	-7.369687e+01
1.020000e-06	-3.485265e-06	-1.178003e-09	-2.478283e+01	-7.343808e+01
1.030000e-06	-3.449758e-06	-1.180821e-09	-2.453035e+01	-7.318065e+01
1.040000e-06	-3.414039e-06	-1.184738e-09	-2.427637e+01	-7.292403e+01
1.050000e-06	-3.378121e-06	-1.183892e-09	-2.402096e+01	-7.266749e+01
1.060000e-06	-3.342082e-06	-1.167770e-09	-2.376470e+01	-7.241022e+01
1.070000e-06	-3.305898e-06	-1.151589e-09	-2.350740e+01	-7.215136e+01
1.080000e-06	-3.269523e-06	-1.143652e-09	-2.324875e+01	-7.189013e+01
1.090000e-06	-3.232957e-06	-1.143167e-09	-2.298873e+01	-7.162583e+01
1.100000e-06	-3.196112e-06	-1.140435e-09	-2.272674e+01	-7.135794e+01
1.110000e-06	-3.159086e-06	-1.138462e-09	-2.246346e+01	-7.108617e+01
1.120000e-06	-3.121865e-06	-1.138903e-09	-2.219879e+01	-7.081047e+01
1.130000e-06	-3.084274e-06	-1.138765e-09	-2.193149e+01	-7.053104e+01
1.140000e-06	-3.046461e-06	-1.130810e-09	-2.166261e+01	-7.024834e+01
1.150000e-06	-3.008504e-06	-1.120062e-09	-2.139271e+01	-6.996305e+01
1.160000e-06	-2.970326e-06	-1.110682e-09	-2.112123e+01	-6.967604e+01
1.170000e-06	-2.931989e-06	-1.105882e-09	-2.084863e+01	-6.938829e+01
1.180000e-06	-2.893558e-06	-1.101705e-09	-2.057535e+01	-6.910086e+01
1.190000e-06	-2.854886e-06	-1.095551e-09	-2.030037e+01	-6.881479e+01
1.200000e-06	-2.815891e-06	-1.092785e-09	-2.002309e+01	-6.853102e+01
1.210000e-06	-2.776672e-06	-1.094233e-09	-1.974421e+01	-6.825034e+01
1.220000e-06	-2.737337e-06	-1.094012e-09	-1.946451e+01	-6.797329e+01
1.230000e-06	-2.697840e-06	-1.089078e-09	-1.918366e+01	-6.770015e+01
1.240000e-06	-2.658180e-06	-1.082763e-09	-1.890164e+01	-6.743088e+01
1.250000e-06	-2.618361e-06	-1.077252e-09	-1.861850e+01	-6.716508e+01
1.260000e-06	-2.578431e-06	-1.073420e-09	-1.833457e+01	-6.690201e+01
1.270000e-06	-2.538469e-06	-1.067961e-09	-1.805041e+01	-6.664061e+01
1.280000e-06	-2.498441e-06	-1.062345e-09	-1.776578e+01	-6.637952e+01
1.290000e-06	-2.458303e-06	-1.056871e-09	-1.748037e+01	-6.611714e+01
1.300000e-06	-2.418019e-06	-1.053933e-09	-1.719392e+01	-6.585170e+01
1.310000e-06	-2.377550e-06	-1.048956e-09	-1.690616e+01	-6.558131e+01
1.320000e-06	-2.336850e-06	-1.043199e-09	-1.661675e+01	-6.530411e+01
1.330000e-06	-2.295957e-06	-1.039112e-09	-1.632597e+01	-6.501826e+01
1.340000e-06	-2.254744e-06	-1.036644e-09	-1.603291e+01	-6.472209e+01
1.350000e-06	-2.213159e-06	-1.031828e-09	-1.573721e+01	-6.441415e+01
1.360000e-06	-2.171316e-06	-1.026058e-09	-1.543968e+01	-6.409326e+01
1.370000e-06	-2.129252e-06	-1.018820e-09	-1.514057e+01	-6.375858e+01
1.380000e-06	-2.086992e-06	-1.011770e-09	-1.484007e+01	-6.340963e+01
1.390000e-06	-2.044436e-06	-1.004758e-09	-1.453747e+01	-6.304626e+01
1.400000e-06	-2.001652e-06	-9.987382e-10	-1.423324e+01	-6.266873e+01
1.410000e-06	-1.958739e-06	-9.925228e-10	-1.392810e+01	-6.227759e+01
1.420000e-06	-1.915695e-06	-9.881761e-10	-1.362202e+01	-6.187370e+01
1.430000e-06	-1.872454e-06	-9.861166e-10	-1.331455e+01	-6.145813e+01
1.440000e-06	-1.828899e-06	-9.835391e-10	-1.300484e+01	-6.103216e+01
1.450000e-06	-1.785260e-06	-9.767273e-10	-1.269453e+01	-6.059712e+01
1.460000e-06	-1.741612e-06	-9.682984e-10	-1.238416e+01	-6.015439e+01
1.470000e-06	-1.697854e-06	-9.593802e-10	-1.207301e+01	-5.970530e+01
1.480000e-06	-1.654032e-06	-9.526537e-10	-1.176140e+01	-5.925106e+01
1.490000e-06	-1.610055e-06	-9.489897e-10	-1.144869e+01	-5.879271e+01
1.500000e-06	-1.565947e-06	-9.450876e-10	-1.113505e+01	-5.833110e+01
1.510000e-06	-1.521814e-06	-9.401351e-10	-1.082123e+01	-5.786683e+01
1.520000e-06	-1.477610e-06	-9.339665e-10	-1.050691e+01	-5.740025e+01
1.530000e-06	-1.433348e-06	-9.250630e-10	-1.019217e+01	-5.693147e+01
1.540000e-06	-1.389048e-06	-9.138881e-10	-9.877170e+00	-5.646038e+01
1.550000e-06	-1.344654e-06	-9.016216e-10	-9.561493e+00	-5.598665e+01
1.560000e-06	-1.300237e-06	-8.897550e-10	-9.245655e+00	-5.550981e+01
1.570000e-06	-1.255790e-06	-8.829970e-10	-8.929607e+00	-5.502928e+01
1.580000e-06	-1.211160e-06	-8.805866e-10	-8.612253e+00	-5.454441e+01
1.590000e-06	-1.166438e-06	-8.778304e-10	-8.294244e+00	-5.405454e+01
1.600000e-06	-1.121776e-06	-8.708272e-10	-7.976667e+00	-5.355905e+01
1.610000e-06	-1.077041e-06	-8.607243e-10	-7.658568e+00	-5.305736e+01
1.620000e-06	-1.032148e-06	-8.490258e-10	-7.339341e+00	-5.254901e+01
1.630000e-06	-9.870266e-07	-8.379468e-10	-7.018496e+00	-5.203366e+01
1.640000e-06	-9.417724e-07	-8.281798e-10	-6.696705e+00	-5.151105e+01
1.650000e-06	-8.966039e-07	-8.197474e-10	-6.375523e+00	-5.098103e+01
1.660000e-06	-8.512808e-07	-8.115023e-10	-6.053242e+00	-5.044354e+01
1.670000e-06	-8.058066e-07	-8.057245e-10	-5.729886e+00	-4.989855e+01
1.680000e-06	-7.604193e-07	-8.015739e-10	-5.407149e+00	-4.934600e+01
1.690000e-06	-7.149908e-07	-7.946980e-10	-5.084118e+00	-4.878581e+01
1.700000e-06	-6.695694e-07	-7.833439e-10	-4.761138e+00	-4.821776e+01
1.710000e-06	-6.241429e-07	-7.711065e-10	-4.438122e+00	-4.764148e+01
1.720000e-06	-5.786110e-07	-7.610779e-10	-4.114356e+00	-4.705639e+01
1.730000e-06	-5.330061e-07	-7.539709e-10	-3.790071e+00	-4.646167e+01
1.740000e-06	-4.873715e-07	-7.453646e-10	-3.465575e+00	-4.585620e+01
1.750000e-06	-4.416680e-07	-7.343653e-10	-3.140589e+00	-4.523860e+01
1.760000e-06	-3.958953e-07	-7.237101e-10	-2.815111e+00	-4.460721e+01
1.770000e-06	-3.501069e-07	-7.114185e-10	-2.489522e+00	-4.396008e+01
1.780000e-06	-3.043244e-07	-6.948487e-10	-2.163974e+00	-4.329505e+01
1.790000e-06	-2.585898e-07	-6.790774e-10	-1.838766e+00	-4.260979e+01
1.800000e-06	-2.128204e-07	-6.662673e-10	-1.513312e+00	-4.190183e+01
1.810000e-06	-1.669969e-07	-6.579292e-10	-1.187473e+00	-4.116867e+01
1.820000e-06	-1.211851e-07	-6.506522e-10	-8.617166e-01	-4.040784e+01
1.830000e-06	-7.532499e-08	-6.422791e-10	-5.356169e-01	-3.961698e+01
1.840000e-06	-2.950670e-08	-6.313923e-10	-2.098146e-01	-3.879392e+01
1.850000e-06	1.619741e-08	-6.167140e-10	1.151757e-01	-3.793677e+01
1.860000e-06	6.192035e-08	-5.997973e-10	4.402999e-01	-3.704396e+01
1.870000e-06	1.077059e-07	-5.824114e-10	7.658691e-01	-3.611430e+01
1.880000e-06	1.535182e-07	-5.657649e-10	1.091629e+00	-3.514700e+01
1.890000e-06	1.992738e-07	-5.483551e-10	1.416986e+00	-3.414174e+01
1.900000e-06	2.449852e-07	-5.334732e-10	1.742028e+00	-3.309858e+01
1.910000e-06	2.906436e-07	-5.211370e-10	2.066693e+00	-3.201804e+01
1.920000e-06	3.363066e-07	-5.071115e-10	2.391391e+00	-3.090101e+01
1.930000e-06	3.819778e-07	-4.890342e-10	2.716147e+00	-2.974869e+01
1.940000e-06	4.276170e-07	-4.684047e-10	3.040676e+00	-2.856257e+01
1.950000e-06	4.732620e-07	-4.447757e-10	3.365246e+00	-2.734434e+01
1.960000e-06	5.188494e-07	-4.213096e-10	3.689407e+00	-2.609579e+01
1.970000e-06	5.643302e-07	-3.993660e-10	4.012809e+00	-2.481879e+01
1.980000e-06	6.098535e-07	-3.779351e-10	4.336514e+00	-2.351517e+01
1.990000e-06	6.554037e-07	-3.563621e-10	4.660410e+00	-2.218664e+01
2.000000e-06	7.008847e-07	-3.384956e-10	4.983814e+00	-2.083481e+01
2.010000e-06	7.462752e-07	-3.225626e-10	5.306574e+00	-1.946104e+01
2.020000e-06	7.915413e-07	-3.038684e-10	5.628449e+00	-1.806651e+01
2.030000e-06	8.367547e-07	-2.811259e-10	5.949950e+00	-1.665212e+01
2.040000e-06	8.819528e-07	-2.560484e-10	6.271342e+00	-1.521855e+01
2.050000e-06	9.270832e-07	-2.304409e-10	6.592254e+00	-1.376624e+01
2.060000e-06	9.721322e-07	-2.060996e-10	6.912586e+00	-1.229544e+01
2.070000e-06	1.017094e-06	-1.831901e-10	7.232300e+00	-1.080623e+01
2.080000e-06	1.061850e-06	-1.612596e-10	7.550547e+00	-9.298589e+00
2.090000e-06	1.106548e-06	-1.382915e-10	7.868385e+00	-7.772426e+00
2.100000e-06	1.151238e-06	-1.155774e-10	8.186160e+00	-6.227653e+00
2.110000e-06	1.195769e-06	-9.394811e-11	8.502807e+00	-4.664233e+00
2.120000e-06	1.240305e-06	-6.955380e-11	8.819495e+00	-3.082230e+00
2.130000e-06	1.284852e-06	-4.190033e-11	9.136256e+00	-1.481854e+00
2.140000e-06	1.329226e-06	-1.506992e-11	9.451791e+00	1.365054e-01
2.150000e-06	1.373506e-06	9.168953e-12	9.766655e+00	1.772253e+00
2.160000e-06	1.417788e-06	3.178022e-11	1.008153e+01	3.424577e+00
2.170000e-06	1.461976e-06	5.488300e-11	1.039574e+01	5.092448e+00
2.180000e-06	1.506082e-06	7.933780e-11	1.070937e+01	6.774625e+00
2.190000e-06	1.550185e-06	1.032207e-10	1.102297e+01	8.469677e+00
2.200000e-06	1.594214e-06	1.262651e-10	1.133605e+01	1.017601e+01
2.210000e-06	1.638160e-06	1.505093e-10	1.164854e+01	1.189189e+01
2.220000e-06	1.682108e-06	1.776955e-10	1.196104e+01	1.361550e+01
2.230000e-06	1.725999e-06	2.044622e-10	1.227314e+01	1.534495e+01
2.240000e-06	1.769769e-06	2.308372e-10	1.258437e+01	1.707834e+01
2.250000e-06	1.813426e-06	2.578924e-10	1.289481e+01	1.881374e+01
2.260000e-06	1.857003e-06	2.847394e-10	1.320468e+01	2.054928e+01
2.270000e-06	1.900483e-06	3.116295e-10	1.351385e+01	2.228313e+01
2.280000e-06	1.943772e-06	3.393243e-10	1.382167e+01	2.401350e+01
2.290000e-06	1.986887e-06	3.672737e-10	1.412825e+01	2.573868e+01
2.300000e-06	2.029709e-06	3.939043e-10	1.443275e+01	2.745701e+01
2.310000e-06	2.072188e-06	4.177584e-10	1.473480e+01	2.916685e+01
2.320000e-06	2.114516e-06	4.417845e-10	1.503579e+01	3.086662e+01
2.330000e-06	2.156560e-06	4.674574e-10	1.533475e+01	3.255472e+01
2.340000e-06	2.198250e-06	4.915981e-10	1.563120e+01	3.422955e+01
2.350000e-06	2.239744e-06	5.148378e-10	1.592625e+01	3.588948e+01
2.360000e-06	2.280941e-06	5.412789e-10	1.621919e+01	3.753283e+01
2.370000e-06	2.321817e-06	5.693209e-10	1.650985e+01	3.915787e+01
2.380000e-06	2.362469e-06	5.967493e-10	1.679891e+01	4.076280e+01
2.390000e-06	2.402919e-06	6.214293e-10	1.708655e+01	4.234576e+01
2.400000e-06	2.443216e-06	6.428162e-10	1.737309e+01	4.390487e+01
2.410000e-06	2.483412e-06	6.636097e-10	1.765891e+01	4.543820e+01
2.420000e-06	2.523517e-06	6.866082e-10	1.794409e+01	4.694383e+01
2.430000e-06	2.563515e-06	7.116553e-10	1.822851e+01	4.841989e+01
2.440000e-06	2.603417e-06	7.366737e-10	1.851224e+01	4.986458e+01
2.450000e-06	2.643152e-06	7.606387e-10	1.879478e+01	5.127619e+01
2.460000e-06	2.682786e-06	7.839805e-10	1.907661e+01	5.265322e+01
2.470000e-06	2.722400e-06	8.064430e-10	1.935830e+01	5.399431e+01
2.480000e-06	2.761822e-06	8.245559e-10	1.963861e+01	5.529837e+01
2.490000e-06	2.801029e-06	8.405424e-10	1.991741e+01	5.656455e+01
2.500000e-06	2.839959e-06	8.567743e-10	2.019423e+01	5.779229e+01
2.510000e-06	2.878647e-06	8.762783e-10	2.046933e+01	5.898131e+01
2.520000e-06	2.917202e-06	9.000564e-10	2.074348e+01	6.013164e+01
2.530000e-06	2.955531e-06	9.248148e-10	2.101603e+01	6.124356e+01
2.540000e-06	2.993623e-06	9.469636e-10	2.128689e+01	6.231763e+01
2.550000e-06	3.031497e-06	9.638797e-10	2.155621e+01	6.335464e+01
2.560000e-06	3.069223e-06	9.761332e-10	2.182447e+01	6.435556e+01
2.570000e-06	3.106764e-06	9.857315e-10	2.209141e+01	6.532153e+01
2.580000e-06	3.144060e-06	9.969946e-10	2.235661e+01	6.625377e+01
2.590000e-06	3.181113e-06	1.010964e-09	2.262008e+01	6.715358e+01
2.600000e-06	3.217917e-06	1.028215e-09	2.288179e+01	6.802226e+01
2.610000e-06	3.254477e-06	1.049592e-09	2.314176e+01	6.886107e+01
2.620000e-06	3.290802e-06	1.069881e-09	2.340006e+01	6.967120e+01
2.630000e-06	3.326929e-06	1.085347e-09	2.365695e+01	7.045377e+01
2.640000e-06	3.362929e-06	1.094749e-09	2.391294e+01	7.120974e+01
2.650000e-06	3.398852e-06	1.098459e-09	2.416837e+01	7.193997e+01
2.660000e-06	3.434694e-06	1.101264e-09	2.442324e+01	7.264516e+01
2.670000e-06	3.470408e-06	1.104983e-09	2.467719e+01	7.332590e+01
2.680000e-06	3.505955e-06	1.111570e-09	2.492996e+01	7.398266e+01
2.690000e-06	3.541243e-06	1.123951e-09	2.518088e+01	7.461582e+01
2.700000e-06	3.576262e-06	1.140070e-09	2.542989e+01	7.522569e+01
2.710000e-06	3.610810e-06	1.157132e-09	2.567556e+01	7.581254e+01
2.720000e-06	3.644753e-06	1.169965e-09	2.591691e+01	7.637664e+01
2.730000e-06	3.678242e-06	1.176388e-09	2.615505e+01	7.691827e+01
2.740000e-06	3.711190e-06	1.179524e-09	2.638933e+01	7.743775e+01
2.750000e-06	3.743769e-06	1.180981e-09	2.662100e+01	7.793547e+01
2.760000e-06	3.776178e-06	1.183412e-09	2.685144e+01	7.841189e+01
2.770000e-06	3.808388e-06	1.187101e-09	2.708048e+01	7.886755e+01
2.780000e-06	3.840409e-06	1.193503e-09	2.730817e+01	7.930308e+01
2.790000e-06	3.872302e-06	1.203768e-09	2.753496e+01	7.971915e+01
2.800000e-06	3.904033e-06	1.212772e-09	2.776059e+01	8.011653e+01
2.810000e-06	3.935511e-06	1.215707e-09	2.798442e+01	8.049600e+01
2.820000e-06	3.966709e-06	1.216234e-09	2.820626e+01	8.085835e+01
2.830000e-06	3.997534e-06	1.217516e-09	2.842545e+01	8.120440e+01
2.840000e-06	4.028067e-06	1.218243e-09	2.864256e+01	8.153488e+01
2.850000e-06	4.058357e-06	1.219404e-09	2.885795e+01	8.185051e+01
2.860000e-06	4.088457e-06	1.221240e-09	2.907198e+01	8.215190e+01
2.870000e-06	4.118291e-06	1.225679e-09	2.928413e+01	8.243960e+01
2.880000e-06	4.147795e-06	1.233476e-09	2.949392e+01	8.271404e+01
2.890000e-06	4.177038e-06	1.238588e-09	2.970186e+01	8.297555e+01
2.900000e-06	4.205978e-06	1.239365e-09	2.990764e+01	8.322438e+01
