# Temperatura_=_-1.8
# Concentracion g/m^3_=_4090.0
# C_Vs_to_Am_M_A/Vsm_=_65563218390.804596
# pendiente_HvsI_1/m_=_3716.3
# ordenada_HvsI_A/m_=_1297.0
# frecuencia_Hz_=_135069.85380575358

Tiempo_(s)	Campo_(V.s)	Magnetizacion_(V.s)	Campo_(kA/m)	Magnetizacion_(A/m)
0.000000e+00	-5.414490e-06	-2.013556e-09	-3.839019e+01	-1.349720e+02
1.000000e-08	-5.414719e-06	-2.008727e-09	-3.839182e+01	-1.348339e+02
2.000000e-08	-5.414756e-06	-2.007657e-09	-3.839208e+01	-1.346805e+02
3.000000e-08	-5.414386e-06	-2.006379e-09	-3.838946e+01	-1.345123e+02
4.000000e-08	-5.413526e-06	-2.005160e-09	-3.838336e+01	-1.343306e+02
5.000000e-08	-5.412178e-06	-2.006391e-09	-3.837380e+01	-1.341379e+02
6.000000e-08	-5.410184e-06	-2.006700e-09	-3.835966e+01	-1.339372e+02
7.000000e-08	-5.407588e-06	-2.002199e-09	-3.834126e+01	-1.337327e+02
8.000000e-08	-5.404450e-06	-2.009176e-09	-3.831900e+01	-1.335291e+02
9.000000e-08	-5.400773e-06	-2.033404e-09	-3.829294e+01	-1.333318e+02
1.000000e-07	-5.396667e-06	-2.029118e-09	-3.826383e+01	-1.331465e+02
1.100000e-07	-5.392345e-06	-1.998791e-09	-3.823318e+01	-1.329790e+02
1.200000e-07	-5.387958e-06	-1.980042e-09	-3.820207e+01	-1.328352e+02
1.300000e-07	-5.383256e-06	-2.027568e-09	-3.816874e+01	-1.327204e+02
1.400000e-07	-5.378041e-06	-2.028973e-09	-3.813176e+01	-1.326395e+02
1.500000e-07	-5.372461e-06	-2.000725e-09	-3.809219e+01	-1.325965e+02
1.600000e-07	-5.366689e-06	-1.982757e-09	-3.805127e+01	-1.325943e+02
1.700000e-07	-5.360597e-06	-2.016462e-09	-3.800807e+01	-1.326346e+02
1.800000e-07	-5.353842e-06	-2.021549e-09	-3.796018e+01	-1.327177e+02
1.900000e-07	-5.346618e-06	-1.994051e-09	-3.790896e+01	-1.328427e+02
2.000000e-07	-5.339304e-06	-2.006356e-09	-3.785710e+01	-1.330071e+02
2.100000e-07	-5.331836e-06	-2.026178e-09	-3.780415e+01	-1.332069e+02
2.200000e-07	-5.324024e-06	-2.034597e-09	-3.774877e+01	-1.334370e+02
2.300000e-07	-5.315930e-06	-2.038542e-09	-3.769138e+01	-1.336913e+02
2.400000e-07	-5.307515e-06	-2.089180e-09	-3.763171e+01	-1.339625e+02
2.500000e-07	-5.298524e-06	-2.107116e-09	-3.756796e+01	-1.342428e+02
2.600000e-07	-5.288791e-06	-2.110044e-09	-3.749895e+01	-1.345242e+02
2.700000e-07	-5.278486e-06	-2.126983e-09	-3.742589e+01	-1.347984e+02
2.800000e-07	-5.267624e-06	-2.158595e-09	-3.734887e+01	-1.350575e+02
2.900000e-07	-5.256199e-06	-2.116215e-09	-3.726787e+01	-1.352939e+02
3.000000e-07	-5.244459e-06	-2.085387e-09	-3.718463e+01	-1.355012e+02
3.100000e-07	-5.232370e-06	-2.122570e-09	-3.709891e+01	-1.356737e+02
3.200000e-07	-5.219901e-06	-2.163712e-09	-3.701050e+01	-1.358069e+02
3.300000e-07	-5.206995e-06	-2.129828e-09	-3.691899e+01	-1.358978e+02
3.400000e-07	-5.193704e-06	-2.119116e-09	-3.682476e+01	-1.359447e+02
3.500000e-07	-5.180060e-06	-2.141899e-09	-3.672802e+01	-1.359475e+02
3.600000e-07	-5.166026e-06	-2.139000e-09	-3.662851e+01	-1.359071e+02
3.700000e-07	-5.151596e-06	-2.102834e-09	-3.652620e+01	-1.358261e+02
3.800000e-07	-5.136688e-06	-2.099261e-09	-3.642050e+01	-1.357078e+02
3.900000e-07	-5.120930e-06	-2.092179e-09	-3.630878e+01	-1.355567e+02
4.000000e-07	-5.104545e-06	-2.089281e-09	-3.619260e+01	-1.353777e+02
4.100000e-07	-5.087948e-06	-2.111793e-09	-3.607492e+01	-1.351763e+02
4.200000e-07	-5.071061e-06	-2.119920e-09	-3.595519e+01	-1.349581e+02
4.300000e-07	-5.053871e-06	-2.095574e-09	-3.583331e+01	-1.347285e+02
4.400000e-07	-5.036393e-06	-2.096485e-09	-3.570938e+01	-1.344927e+02
4.500000e-07	-5.018614e-06	-2.117628e-09	-3.558333e+01	-1.342553e+02
4.600000e-07	-5.000450e-06	-2.088397e-09	-3.545454e+01	-1.340200e+02
4.700000e-07	-4.981853e-06	-2.063717e-09	-3.532268e+01	-1.337900e+02
4.800000e-07	-4.962841e-06	-2.072299e-09	-3.518788e+01	-1.335671e+02
4.900000e-07	-4.943490e-06	-2.084497e-09	-3.505067e+01	-1.333526e+02
5.000000e-07	-4.923910e-06	-2.071766e-09	-3.491185e+01	-1.331466e+02
5.100000e-07	-4.904184e-06	-2.076121e-09	-3.477199e+01	-1.329484e+02
5.200000e-07	-4.884303e-06	-2.067928e-09	-3.463102e+01	-1.327566e+02
5.300000e-07	-4.864206e-06	-2.067202e-09	-3.448853e+01	-1.325692e+02
5.400000e-07	-4.843801e-06	-2.070094e-09	-3.434386e+01	-1.323836e+02
5.500000e-07	-4.822996e-06	-2.066304e-09	-3.419634e+01	-1.321971e+02
5.600000e-07	-4.801789e-06	-2.040751e-09	-3.404598e+01	-1.320070e+02
5.700000e-07	-4.780250e-06	-2.044236e-09	-3.389326e+01	-1.318105e+02
5.800000e-07	-4.758411e-06	-2.048457e-09	-3.373841e+01	-1.316054e+02
5.900000e-07	-4.736264e-06	-2.036935e-09	-3.358139e+01	-1.313896e+02
6.000000e-07	-4.713747e-06	-2.023404e-09	-3.342173e+01	-1.311618e+02
6.100000e-07	-4.690809e-06	-2.030034e-09	-3.325910e+01	-1.309210e+02
6.200000e-07	-4.667530e-06	-2.030275e-09	-3.309404e+01	-1.306670e+02
6.300000e-07	-4.644030e-06	-2.028484e-09	-3.292742e+01	-1.304004e+02
6.400000e-07	-4.620347e-06	-2.023810e-09	-3.275951e+01	-1.301220e+02
6.500000e-07	-4.596500e-06	-2.018342e-09	-3.259042e+01	-1.298334e+02
6.600000e-07	-4.572433e-06	-2.012989e-09	-3.241978e+01	-1.295364e+02
6.700000e-07	-4.548032e-06	-2.011851e-09	-3.224677e+01	-1.292332e+02
6.800000e-07	-4.523099e-06	-2.003085e-09	-3.206999e+01	-1.289260e+02
6.900000e-07	-4.497487e-06	-1.990476e-09	-3.188839e+01	-1.286171e+02
7.000000e-07	-4.471276e-06	-1.986889e-09	-3.170255e+01	-1.283087e+02
7.100000e-07	-4.444604e-06	-1.989281e-09	-3.151344e+01	-1.280025e+02
7.200000e-07	-4.417496e-06	-1.989562e-09	-3.132124e+01	-1.277000e+02
7.300000e-07	-4.390102e-06	-1.983761e-09	-3.112700e+01	-1.274022e+02
7.400000e-07	-4.362543e-06	-1.980898e-09	-3.093160e+01	-1.271097e+02
7.500000e-07	-4.334820e-06	-1.977975e-09	-3.073504e+01	-1.268223e+02
7.600000e-07	-4.306945e-06	-1.973710e-09	-3.053740e+01	-1.265397e+02
7.700000e-07	-4.278865e-06	-1.962219e-09	-3.033831e+01	-1.262608e+02
7.800000e-07	-4.250525e-06	-1.954838e-09	-3.013737e+01	-1.259842e+02
7.900000e-07	-4.221894e-06	-1.949290e-09	-2.993437e+01	-1.257084e+02
8.000000e-07	-4.192879e-06	-1.948371e-09	-2.972864e+01	-1.254315e+02
8.100000e-07	-4.163527e-06	-1.942185e-09	-2.952053e+01	-1.251516e+02
8.200000e-07	-4.133911e-06	-1.937475e-09	-2.931054e+01	-1.248669e+02
8.300000e-07	-4.103987e-06	-1.931257e-09	-2.909837e+01	-1.245757e+02
8.400000e-07	-4.073777e-06	-1.929948e-09	-2.888417e+01	-1.242766e+02
8.500000e-07	-4.043361e-06	-1.924004e-09	-2.866852e+01	-1.239685e+02
8.600000e-07	-4.012686e-06	-1.916706e-09	-2.845103e+01	-1.236508e+02
8.700000e-07	-3.981664e-06	-1.907922e-09	-2.823107e+01	-1.233232e+02
8.800000e-07	-3.950418e-06	-1.904992e-09	-2.800953e+01	-1.229859e+02
8.900000e-07	-3.918997e-06	-1.899923e-09	-2.778674e+01	-1.226396e+02
9.000000e-07	-3.887402e-06	-1.893009e-09	-2.756273e+01	-1.222852e+02
9.100000e-07	-3.855661e-06	-1.884465e-09	-2.733768e+01	-1.219240e+02
9.200000e-07	-3.823757e-06	-1.881851e-09	-2.711147e+01	-1.215577e+02
9.300000e-07	-3.791626e-06	-1.880127e-09	-2.688365e+01	-1.211878e+02
9.400000e-07	-3.759177e-06	-1.878133e-09	-2.665358e+01	-1.208159e+02
9.500000e-07	-3.726324e-06	-1.872547e-09	-2.642064e+01	-1.204437e+02
9.600000e-07	-3.693034e-06	-1.867751e-09	-2.618460e+01	-1.200725e+02
9.700000e-07	-3.659225e-06	-1.860566e-09	-2.594489e+01	-1.197036e+02
9.800000e-07	-3.624911e-06	-1.847813e-09	-2.570159e+01	-1.193378e+02
9.900000e-07	-3.590229e-06	-1.833324e-09	-2.545569e+01	-1.189754e+02
1.000000e-06	-3.555249e-06	-1.825683e-09	-2.520767e+01	-1.186168e+02
1.010000e-06	-3.519964e-06	-1.826418e-09	-2.495749e+01	-1.182614e+02
1.020000e-06	-3.484392e-06	-1.826553e-09	-2.470528e+01	-1.179089e+02
1.030000e-06	-3.448717e-06	-1.823301e-09	-2.445233e+01	-1.175581e+02
1.040000e-06	-3.413003e-06	-1.817359e-09	-2.419911e+01	-1.172081e+02
1.050000e-06	-3.377146e-06	-1.812370e-09	-2.394487e+01	-1.168574e+02
1.060000e-06	-3.341069e-06	-1.802368e-09	-2.368908e+01	-1.165047e+02
1.070000e-06	-3.304743e-06	-1.789497e-09	-2.343152e+01	-1.161486e+02
1.080000e-06	-3.268171e-06	-1.776607e-09	-2.317222e+01	-1.157880e+02
1.090000e-06	-3.231361e-06	-1.770690e-09	-2.291122e+01	-1.154216e+02
1.100000e-06	-3.194296e-06	-1.767444e-09	-2.264842e+01	-1.150487e+02
1.110000e-06	-3.157041e-06	-1.763418e-09	-2.238427e+01	-1.146688e+02
1.120000e-06	-3.119627e-06	-1.757648e-09	-2.211900e+01	-1.142816e+02
1.130000e-06	-3.081931e-06	-1.754631e-09	-2.185172e+01	-1.138873e+02
1.140000e-06	-3.043949e-06	-1.750213e-09	-2.158242e+01	-1.134860e+02
1.150000e-06	-3.005825e-06	-1.743097e-09	-2.131211e+01	-1.130787e+02
1.160000e-06	-2.967652e-06	-1.730175e-09	-2.104145e+01	-1.126660e+02
1.170000e-06	-2.929293e-06	-1.719078e-09	-2.076947e+01	-1.122489e+02
1.180000e-06	-2.890568e-06	-1.709262e-09	-2.049491e+01	-1.118286e+02
1.190000e-06	-2.851559e-06	-1.698586e-09	-2.021832e+01	-1.114061e+02
1.200000e-06	-2.812418e-06	-1.689365e-09	-1.994080e+01	-1.109822e+02
1.210000e-06	-2.773204e-06	-1.687804e-09	-1.966276e+01	-1.105579e+02
1.220000e-06	-2.733808e-06	-1.688675e-09	-1.938343e+01	-1.101335e+02
1.230000e-06	-2.694287e-06	-1.685280e-09	-1.910322e+01	-1.097093e+02
1.240000e-06	-2.654686e-06	-1.675019e-09	-1.882244e+01	-1.092854e+02
1.250000e-06	-2.614906e-06	-1.665368e-09	-1.854039e+01	-1.088613e+02
1.260000e-06	-2.575018e-06	-1.658478e-09	-1.825757e+01	-1.084364e+02
1.270000e-06	-2.535050e-06	-1.649399e-09	-1.797418e+01	-1.080097e+02
1.280000e-06	-2.494895e-06	-1.638503e-09	-1.768948e+01	-1.075801e+02
1.290000e-06	-2.454572e-06	-1.629100e-09	-1.740358e+01	-1.071463e+02
1.300000e-06	-2.414175e-06	-1.625952e-09	-1.711715e+01	-1.067068e+02
1.310000e-06	-2.373540e-06	-1.622935e-09	-1.682903e+01	-1.062603e+02
1.320000e-06	-2.332589e-06	-1.614967e-09	-1.653869e+01	-1.058054e+02
1.330000e-06	-2.291440e-06	-1.604811e-09	-1.624692e+01	-1.053409e+02
1.340000e-06	-2.250050e-06	-1.598357e-09	-1.595346e+01	-1.048661e+02
1.350000e-06	-2.208249e-06	-1.592184e-09	-1.565708e+01	-1.043801e+02
1.360000e-06	-2.166095e-06	-1.581574e-09	-1.535819e+01	-1.038828e+02
1.370000e-06	-2.123637e-06	-1.568578e-09	-1.505716e+01	-1.033741e+02
1.380000e-06	-2.080823e-06	-1.559607e-09	-1.475359e+01	-1.028543e+02
1.390000e-06	-2.037818e-06	-1.555264e-09	-1.444868e+01	-1.023242e+02
1.400000e-06	-1.994659e-06	-1.550283e-09	-1.414267e+01	-1.017847e+02
1.410000e-06	-1.951301e-06	-1.538681e-09	-1.383525e+01	-1.012370e+02
1.420000e-06	-1.907850e-06	-1.526525e-09	-1.352717e+01	-1.006823e+02
1.430000e-06	-1.864331e-06	-1.520152e-09	-1.321861e+01	-1.001220e+02
1.440000e-06	-1.820766e-06	-1.515129e-09	-1.290972e+01	-9.955737e+01
1.450000e-06	-1.777126e-06	-1.505579e-09	-1.260030e+01	-9.898961e+01
1.460000e-06	-1.733380e-06	-1.496268e-09	-1.229013e+01	-9.841967e+01
1.470000e-06	-1.689580e-06	-1.492540e-09	-1.197958e+01	-9.784825e+01
1.480000e-06	-1.645748e-06	-1.488356e-09	-1.166880e+01	-9.727568e+01
1.490000e-06	-1.601834e-06	-1.478088e-09	-1.135744e+01	-9.670194e+01
1.500000e-06	-1.557766e-06	-1.464468e-09	-1.104498e+01	-9.612659e+01
1.510000e-06	-1.513588e-06	-1.454678e-09	-1.073175e+01	-9.554882e+01
1.520000e-06	-1.469363e-06	-1.448592e-09	-1.041818e+01	-9.496746e+01
1.530000e-06	-1.425050e-06	-1.436716e-09	-1.010399e+01	-9.438100e+01
1.540000e-06	-1.380602e-06	-1.425125e-09	-9.788841e+00	-9.378771e+01
1.550000e-06	-1.336142e-06	-1.417884e-09	-9.473610e+00	-9.318564e+01
1.560000e-06	-1.291607e-06	-1.412605e-09	-9.157840e+00	-9.257279e+01
1.570000e-06	-1.246943e-06	-1.402000e-09	-8.841163e+00	-9.194715e+01
1.580000e-06	-1.202264e-06	-1.387004e-09	-8.524376e+00	-9.130681e+01
1.590000e-06	-1.157510e-06	-1.374319e-09	-8.207060e+00	-9.065002e+01
1.600000e-06	-1.112663e-06	-1.365662e-09	-7.889081e+00	-8.997531e+01
1.610000e-06	-1.067716e-06	-1.356291e-09	-7.570391e+00	-8.928150e+01
1.620000e-06	-1.022596e-06	-1.344426e-09	-7.250479e+00	-8.856778e+01
1.630000e-06	-9.773645e-07	-1.333864e-09	-6.929778e+00	-8.783371e+01
1.640000e-06	-9.321391e-07	-1.327515e-09	-6.609118e+00	-8.707920e+01
1.650000e-06	-8.869232e-07	-1.319278e-09	-6.288525e+00	-8.630453e+01
1.660000e-06	-8.415414e-07	-1.303785e-09	-5.966755e+00	-8.551028e+01
1.670000e-06	-7.960032e-07	-1.286888e-09	-5.643877e+00	-8.469727e+01
1.680000e-06	-7.504464e-07	-1.275655e-09	-5.320867e+00	-8.386649e+01
1.690000e-06	-7.048604e-07	-1.267789e-09	-4.997650e+00	-8.301900e+01
1.700000e-06	-6.592504e-07	-1.254674e-09	-4.674263e+00	-8.215589e+01
1.710000e-06	-6.136509e-07	-1.238723e-09	-4.350950e+00	-8.127811e+01
1.720000e-06	-5.680253e-07	-1.227016e-09	-4.027453e+00	-8.038649e+01
1.730000e-06	-5.223441e-07	-1.218864e-09	-3.703560e+00	-7.948156e+01
1.740000e-06	-4.765978e-07	-1.204711e-09	-3.379207e+00	-7.856356e+01
1.750000e-06	-4.308124e-07	-1.186774e-09	-3.054576e+00	-7.763241e+01
1.760000e-06	-3.850032e-07	-1.171786e-09	-2.729776e+00	-7.668762e+01
1.770000e-06	-3.391229e-07	-1.158851e-09	-2.404472e+00	-7.572834e+01
1.780000e-06	-2.932001e-07	-1.142147e-09	-2.078868e+00	-7.475338e+01
1.790000e-06	-2.472904e-07	-1.121460e-09	-1.753356e+00	-7.376123e+01
1.800000e-06	-2.014126e-07	-1.100933e-09	-1.428070e+00	-7.275009e+01
1.810000e-06	-1.555254e-07	-1.085008e-09	-1.102717e+00	-7.171801e+01
1.820000e-06	-1.095998e-07	-1.067857e-09	-7.770919e-01	-7.066290e+01
1.830000e-06	-6.371055e-08	-1.047489e-09	-4.517250e-01	-6.958263e+01
1.840000e-06	-1.786715e-08	-1.028328e-09	-1.266829e-01	-6.847513e+01
1.850000e-06	2.796391e-08	-1.015281e-09	1.982717e-01	-6.733844e+01
1.860000e-06	7.382964e-08	-1.005259e-09	5.234720e-01	-6.617082e+01
1.870000e-06	1.197746e-07	-9.921092e-10	8.492345e-01	-6.497074e+01
1.880000e-06	1.657078e-07	-9.740715e-10	1.174913e+00	-6.373699e+01
1.890000e-06	2.116244e-07	-9.547334e-10	1.500474e+00	-6.246866e+01
1.900000e-06	2.575098e-07	-9.328565e-10	1.825814e+00	-6.116516e+01
1.910000e-06	3.033159e-07	-9.059157e-10	2.150591e+00	-5.982620e+01
1.920000e-06	3.491940e-07	-8.791909e-10	2.475880e+00	-5.845177e+01
1.930000e-06	3.951023e-07	-8.583289e-10	2.801382e+00	-5.704211e+01
1.940000e-06	4.409377e-07	-8.400167e-10	3.126367e+00	-5.559761e+01
1.950000e-06	4.867334e-07	-8.204822e-10	3.451071e+00	-5.411880e+01
1.960000e-06	5.324582e-07	-8.000089e-10	3.775272e+00	-5.260622e+01
1.970000e-06	5.781484e-07	-7.806457e-10	4.099228e+00	-5.106043e+01
1.980000e-06	6.237783e-07	-7.585458e-10	4.422756e+00	-4.948188e+01
1.990000e-06	6.693084e-07	-7.300730e-10	4.745577e+00	-4.787087e+01
2.000000e-06	7.147857e-07	-6.997320e-10	5.068023e+00	-4.622755e+01
2.010000e-06	7.602712e-07	-6.732784e-10	5.390528e+00	-4.455181e+01
2.020000e-06	8.057533e-07	-6.501885e-10	5.713008e+00	-4.284332e+01
2.030000e-06	8.511779e-07	-6.235451e-10	6.035081e+00	-4.110154e+01
2.040000e-06	8.964911e-07	-5.950836e-10	6.356363e+00	-3.932567e+01
2.050000e-06	9.416987e-07	-5.676698e-10	6.676897e+00	-3.751475e+01
2.060000e-06	9.868056e-07	-5.410708e-10	6.996717e+00	-3.566765e+01
2.070000e-06	1.031866e-06	-5.125136e-10	7.316206e+00	-3.378317e+01
2.080000e-06	1.076903e-06	-4.816498e-10	7.635529e+00	-3.186006e+01
2.090000e-06	1.121810e-06	-4.519562e-10	7.953935e+00	-2.989710e+01
2.100000e-06	1.166594e-06	-4.240007e-10	8.271468e+00	-2.789317e+01
2.110000e-06	1.211324e-06	-3.917819e-10	8.588616e+00	-2.584729e+01
2.120000e-06	1.256019e-06	-3.562604e-10	8.905513e+00	-2.375872e+01
2.130000e-06	1.300656e-06	-3.211308e-10	9.222000e+00	-2.162696e+01
2.140000e-06	1.345172e-06	-2.891938e-10	9.537630e+00	-1.945179e+01
2.150000e-06	1.389521e-06	-2.589882e-10	9.852078e+00	-1.723335e+01
2.160000e-06	1.433735e-06	-2.289387e-10	1.016557e+01	-1.497210e+01
2.170000e-06	1.477883e-06	-1.960977e-10	1.047859e+01	-1.266881e+01
2.180000e-06	1.521944e-06	-1.634332e-10	1.079100e+01	-1.032461e+01
2.190000e-06	1.565936e-06	-1.301897e-10	1.110291e+01	-7.940930e+00
2.200000e-06	1.609904e-06	-9.331630e-11	1.141465e+01	-5.519477e+00
2.210000e-06	1.653784e-06	-5.425240e-11	1.172577e+01	-3.062210e+00
2.220000e-06	1.697580e-06	-1.548050e-11	1.203630e+01	-5.712998e-01
2.230000e-06	1.741304e-06	2.262406e-11	1.234632e+01	1.950901e+00
2.240000e-06	1.785005e-06	6.099313e-11	1.265616e+01	4.501895e+00
2.250000e-06	1.828672e-06	9.858388e-11	1.296577e+01	7.079073e+00
2.260000e-06	1.872196e-06	1.350968e-10	1.327437e+01	9.679736e+00
2.270000e-06	1.915608e-06	1.714422e-10	1.358218e+01	1.230112e+01
2.280000e-06	1.958943e-06	2.110044e-10	1.388943e+01	1.494040e+01
2.290000e-06	2.002193e-06	2.553339e-10	1.419609e+01	1.759471e+01
2.300000e-06	2.045276e-06	2.979789e-10	1.450156e+01	2.026115e+01
2.310000e-06	2.088176e-06	3.357291e-10	1.480573e+01	2.293677e+01
2.320000e-06	2.130846e-06	3.746355e-10	1.510827e+01	2.561857e+01
2.330000e-06	2.173214e-06	4.158370e-10	1.540868e+01	2.830350e+01
2.340000e-06	2.215251e-06	4.536526e-10	1.570673e+01	3.098846e+01
2.350000e-06	2.256961e-06	4.886996e-10	1.600246e+01	3.367032e+01
2.360000e-06	2.298372e-06	5.277745e-10	1.629607e+01	3.634586e+01
2.370000e-06	2.339482e-06	5.698397e-10	1.658756e+01	3.901186e+01
2.380000e-06	2.380376e-06	6.121426e-10	1.687750e+01	4.166505e+01
2.390000e-06	2.421080e-06	6.503311e-10	1.716611e+01	4.430217e+01
2.400000e-06	2.461557e-06	6.881746e-10	1.745310e+01	4.691997e+01
2.410000e-06	2.501803e-06	7.273328e-10	1.773846e+01	4.951528e+01
2.420000e-06	2.541894e-06	7.681604e-10	1.802272e+01	5.208499e+01
2.430000e-06	2.581886e-06	8.089511e-10	1.830627e+01	5.462615e+01
2.440000e-06	2.621737e-06	8.477825e-10	1.858882e+01	5.713594e+01
2.450000e-06	2.661477e-06	8.860603e-10	1.887059e+01	5.961175e+01
2.460000e-06	2.701137e-06	9.243974e-10	1.915179e+01	6.205119e+01
2.470000e-06	2.740741e-06	9.585123e-10	1.943259e+01	6.445213e+01
2.480000e-06	2.780197e-06	9.899228e-10	1.971235e+01	6.681268e+01
2.490000e-06	2.819386e-06	1.022466e-09	1.999021e+01	6.913125e+01
2.500000e-06	2.858324e-06	1.058515e-09	2.026629e+01	7.140647e+01
2.510000e-06	2.897064e-06	1.096412e-09	2.054097e+01	7.363727e+01
2.520000e-06	2.935698e-06	1.134552e-09	2.081489e+01	7.582277e+01
2.530000e-06	2.974148e-06	1.172080e-09	2.108751e+01	7.796232e+01
2.540000e-06	3.012310e-06	1.206890e-09	2.135809e+01	8.005543e+01
2.550000e-06	3.050278e-06	1.235373e-09	2.162729e+01	8.210171e+01
2.560000e-06	3.088075e-06	1.258307e-09	2.189529e+01	8.410091e+01
2.570000e-06	3.125595e-06	1.282827e-09	2.216131e+01	8.605280e+01
2.580000e-06	3.162873e-06	1.311462e-09	2.242562e+01	8.795716e+01
2.590000e-06	3.199892e-06	1.341798e-09	2.268810e+01	8.981379e+01
2.600000e-06	3.236612e-06	1.372576e-09	2.294845e+01	9.162243e+01
2.610000e-06	3.273174e-06	1.406705e-09	2.320768e+01	9.338281e+01
2.620000e-06	3.309627e-06	1.439609e-09	2.346615e+01	9.509461e+01
2.630000e-06	3.345854e-06	1.466465e-09	2.372301e+01	9.675749e+01
2.640000e-06	3.381848e-06	1.485900e-09	2.397822e+01	9.837110e+01
2.650000e-06	3.417709e-06	1.503054e-09	2.423248e+01	9.993511e+01
2.660000e-06	3.453456e-06	1.521638e-09	2.448594e+01	1.014493e+02
2.670000e-06	3.489085e-06	1.540526e-09	2.473855e+01	1.029134e+02
2.680000e-06	3.524600e-06	1.559319e-09	2.499036e+01	1.043276e+02
2.690000e-06	3.559884e-06	1.582876e-09	2.524054e+01	1.056920e+02
2.700000e-06	3.594792e-06	1.610443e-09	2.548805e+01	1.070069e+02
2.710000e-06	3.629239e-06	1.636495e-09	2.573228e+01	1.082730e+02
2.720000e-06	3.663280e-06	1.655786e-09	2.597364e+01	1.094913e+02
2.730000e-06	3.696940e-06	1.672681e-09	2.621230e+01	1.106629e+02
2.740000e-06	3.730068e-06	1.690435e-09	2.644718e+01	1.117894e+02
2.750000e-06	3.762735e-06	1.705457e-09	2.667880e+01	1.128723e+02
2.760000e-06	3.795112e-06	1.716690e-09	2.690837e+01	1.139136e+02
2.770000e-06	3.827208e-06	1.729158e-09	2.713594e+01	1.149153e+02
2.780000e-06	3.859092e-06	1.746149e-09	2.736200e+01	1.158797e+02
2.790000e-06	3.890870e-06	1.765178e-09	2.758731e+01	1.168088e+02
2.800000e-06	3.922482e-06	1.779641e-09	2.781145e+01	1.177050e+02
2.810000e-06	3.953872e-06	1.789005e-09	2.803402e+01	1.185703e+02
2.820000e-06	3.985049e-06	1.800125e-09	2.825507e+01	1.194066e+02
2.830000e-06	4.015920e-06	1.815318e-09	2.847395e+01	1.202156e+02
2.840000e-06	4.046460e-06	1.830111e-09	2.869049e+01	1.209987e+02
2.850000e-06	4.076732e-06	1.840739e-09	2.890513e+01	1.217571e+02
2.860000e-06	4.106691e-06	1.849593e-09	2.911755e+01	1.224917e+02
2.870000e-06	4.136372e-06	1.858979e-09	2.932799e+01	1.232030e+02
2.880000e-06	4.165831e-06	1.866293e-09	2.953686e+01	1.238912e+02
2.890000e-06	4.195091e-06	1.867988e-09	2.974432e+01	1.245563e+02
2.900000e-06	4.224065e-06	1.871867e-09	2.994976e+01	1.251980e+02
