# Temperatura_=_17.77
# Concentracion g/m^3_=_4090.0
# C_Vs_to_Am_M_A/Vsm_=_65563218390.804596
# pendiente_HvsI_1/m_=_3716.3
# ordenada_HvsI_A/m_=_1297.0
# frecuencia_Hz_=_135087.3780248731

Tiempo_(s)	Campo_(V.s)	Magnetizacion_(V.s)	Campo_(kA/m)	Magnetizacion_(A/m)
0.000000e+00	-5.412943e-06	-1.246379e-09	-3.837961e+01	-8.551210e+01
1.000000e-08	-5.412946e-06	-1.237371e-09	-3.837963e+01	-8.534195e+01
2.000000e-08	-5.412756e-06	-1.231657e-09	-3.837828e+01	-8.514080e+01
3.000000e-08	-5.412346e-06	-1.230026e-09	-3.837538e+01	-8.490974e+01
4.000000e-08	-5.411571e-06	-1.231639e-09	-3.836988e+01	-8.465157e+01
5.000000e-08	-5.410366e-06	-1.237126e-09	-3.836134e+01	-8.437079e+01
6.000000e-08	-5.408563e-06	-1.257914e-09	-3.834856e+01	-8.407360e+01
7.000000e-08	-5.406061e-06	-1.260717e-09	-3.833081e+01	-8.376769e+01
8.000000e-08	-5.402874e-06	-1.205141e-09	-3.830822e+01	-8.346202e+01
9.000000e-08	-5.399103e-06	-1.155062e-09	-3.828148e+01	-8.316649e+01
1.000000e-07	-5.394982e-06	-1.221988e-09	-3.825226e+01	-8.289159e+01
1.100000e-07	-5.390646e-06	-1.315188e-09	-3.822152e+01	-8.264793e+01
1.200000e-07	-5.386164e-06	-1.249464e-09	-3.818974e+01	-8.244584e+01
1.300000e-07	-5.381439e-06	-1.151407e-09	-3.815624e+01	-8.229488e+01
1.400000e-07	-5.376297e-06	-1.225506e-09	-3.811978e+01	-8.220339e+01
1.500000e-07	-5.370683e-06	-1.340069e-09	-3.807997e+01	-8.217814e+01
1.600000e-07	-5.364663e-06	-1.270079e-09	-3.803729e+01	-8.222390e+01
1.700000e-07	-5.358274e-06	-1.087956e-09	-3.799199e+01	-8.234325e+01
1.800000e-07	-5.351540e-06	-1.164936e-09	-3.794425e+01	-8.253635e+01
1.900000e-07	-5.344428e-06	-1.283567e-09	-3.789381e+01	-8.280085e+01
2.000000e-07	-5.337045e-06	-1.298274e-09	-3.784147e+01	-8.313198e+01
2.100000e-07	-5.329349e-06	-1.213963e-09	-3.778690e+01	-8.352260e+01
2.200000e-07	-5.321406e-06	-1.312101e-09	-3.773058e+01	-8.396350e+01
2.300000e-07	-5.313258e-06	-1.375894e-09	-3.767281e+01	-8.444367e+01
2.400000e-07	-5.304701e-06	-1.337087e-09	-3.761214e+01	-8.495076e+01
2.500000e-07	-5.295550e-06	-1.328772e-09	-3.754726e+01	-8.547147e+01
2.600000e-07	-5.285777e-06	-1.410823e-09	-3.747796e+01	-8.599214e+01
2.700000e-07	-5.275481e-06	-1.404209e-09	-3.740496e+01	-8.649919e+01
2.800000e-07	-5.264661e-06	-1.345400e-09	-3.732824e+01	-8.697966e+01
2.900000e-07	-5.253317e-06	-1.392754e-09	-3.724781e+01	-8.742171e+01
3.000000e-07	-5.241556e-06	-1.427023e-09	-3.716442e+01	-8.781499e+01
3.100000e-07	-5.229472e-06	-1.369874e-09	-3.707874e+01	-8.815106e+01
3.200000e-07	-5.216969e-06	-1.332075e-09	-3.699009e+01	-8.842360e+01
3.300000e-07	-5.204088e-06	-1.412978e-09	-3.689876e+01	-8.862863e+01
3.400000e-07	-5.190852e-06	-1.398230e-09	-3.680491e+01	-8.876453e+01
3.500000e-07	-5.177235e-06	-1.362607e-09	-3.670836e+01	-8.883201e+01
3.600000e-07	-5.163257e-06	-1.368142e-09	-3.660925e+01	-8.883400e+01
3.700000e-07	-5.148829e-06	-1.399526e-09	-3.650695e+01	-8.877538e+01
3.800000e-07	-5.133926e-06	-1.338626e-09	-3.640129e+01	-8.866268e+01
3.900000e-07	-5.118454e-06	-1.346789e-09	-3.629159e+01	-8.850371e+01
4.000000e-07	-5.102230e-06	-1.358362e-09	-3.617655e+01	-8.830711e+01
4.100000e-07	-5.085593e-06	-1.343001e-09	-3.605859e+01	-8.808198e+01
4.200000e-07	-5.068651e-06	-1.322265e-09	-3.593846e+01	-8.783738e+01
4.300000e-07	-5.051345e-06	-1.375567e-09	-3.581576e+01	-8.758192e+01
4.400000e-07	-5.033773e-06	-1.363916e-09	-3.569116e+01	-8.732343e+01
4.500000e-07	-5.015955e-06	-1.334172e-09	-3.556483e+01	-8.706860e+01
4.600000e-07	-4.997877e-06	-1.324614e-09	-3.543665e+01	-8.682278e+01
4.700000e-07	-4.979342e-06	-1.344763e-09	-3.530523e+01	-8.658976e+01
4.800000e-07	-4.960380e-06	-1.319842e-09	-3.517078e+01	-8.637176e+01
4.900000e-07	-4.941075e-06	-1.312633e-09	-3.503391e+01	-8.616941e+01
5.000000e-07	-4.921464e-06	-1.308768e-09	-3.489486e+01	-8.598186e+01
5.100000e-07	-4.901668e-06	-1.319244e-09	-3.475450e+01	-8.580692e+01
5.200000e-07	-4.881681e-06	-1.326183e-09	-3.461278e+01	-8.564134e+01
5.300000e-07	-4.861511e-06	-1.324188e-09	-3.446977e+01	-8.548106e+01
5.400000e-07	-4.840999e-06	-1.305257e-09	-3.432433e+01	-8.532154e+01
5.500000e-07	-4.819988e-06	-1.305554e-09	-3.417536e+01	-8.515805e+01
5.600000e-07	-4.798665e-06	-1.311180e-09	-3.402417e+01	-8.498602e+01
5.700000e-07	-4.777009e-06	-1.298222e-09	-3.387062e+01	-8.480133e+01
5.800000e-07	-4.755066e-06	-1.280885e-09	-3.371504e+01	-8.460053e+01
5.900000e-07	-4.732843e-06	-1.272414e-09	-3.355747e+01	-8.438110e+01
6.000000e-07	-4.710194e-06	-1.279932e-09	-3.339688e+01	-8.414153e+01
6.100000e-07	-4.687244e-06	-1.284164e-09	-3.323416e+01	-8.388145e+01
6.200000e-07	-4.664020e-06	-1.280464e-09	-3.306949e+01	-8.360160e+01
6.300000e-07	-4.640530e-06	-1.264812e-09	-3.290294e+01	-8.330378e+01
6.400000e-07	-4.616794e-06	-1.278905e-09	-3.273465e+01	-8.299074e+01
6.500000e-07	-4.592796e-06	-1.283327e-09	-3.256449e+01	-8.266599e+01
6.600000e-07	-4.568593e-06	-1.271045e-09	-3.239288e+01	-8.233362e+01
6.700000e-07	-4.544061e-06	-1.247338e-09	-3.221894e+01	-8.199800e+01
6.800000e-07	-4.519075e-06	-1.252456e-09	-3.204178e+01	-8.166360e+01
6.900000e-07	-4.493551e-06	-1.250103e-09	-3.186081e+01	-8.133467e+01
7.000000e-07	-4.467484e-06	-1.249823e-09	-3.167599e+01	-8.101508e+01
7.100000e-07	-4.440914e-06	-1.236665e-09	-3.148759e+01	-8.070806e+01
7.200000e-07	-4.413888e-06	-1.241333e-09	-3.129597e+01	-8.041607e+01
7.300000e-07	-4.386472e-06	-1.244206e-09	-3.110158e+01	-8.014067e+01
7.400000e-07	-4.358738e-06	-1.248101e-09	-3.090494e+01	-7.988247e+01
7.500000e-07	-4.330864e-06	-1.230004e-09	-3.070730e+01	-7.964114e+01
7.600000e-07	-4.302840e-06	-1.223855e-09	-3.050860e+01	-7.941544e+01
7.700000e-07	-4.274651e-06	-1.221432e-09	-3.030873e+01	-7.920332e+01
7.800000e-07	-4.246206e-06	-1.220789e-09	-3.010705e+01	-7.900209e+01
7.900000e-07	-4.217439e-06	-1.207180e-09	-2.990308e+01	-7.880855e+01
8.000000e-07	-4.188342e-06	-1.204989e-09	-2.969677e+01	-7.861924e+01
8.100000e-07	-4.158922e-06	-1.207545e-09	-2.948817e+01	-7.843062e+01
8.200000e-07	-4.129236e-06	-1.214317e-09	-2.927769e+01	-7.823924e+01
8.300000e-07	-4.099320e-06	-1.210035e-09	-2.906558e+01	-7.804199e+01
8.400000e-07	-4.069228e-06	-1.199450e-09	-2.885221e+01	-7.783624e+01
8.500000e-07	-4.038834e-06	-1.196264e-09	-2.863671e+01	-7.761994e+01
8.600000e-07	-4.008027e-06	-1.200481e-09	-2.841827e+01	-7.739174e+01
8.700000e-07	-3.976886e-06	-1.199901e-09	-2.819748e+01	-7.715102e+01
8.800000e-07	-3.945489e-06	-1.189761e-09	-2.797486e+01	-7.689792e+01
8.900000e-07	-3.913931e-06	-1.183226e-09	-2.775110e+01	-7.663323e+01
9.000000e-07	-3.882258e-06	-1.178284e-09	-2.752653e+01	-7.635836e+01
9.100000e-07	-3.850423e-06	-1.176282e-09	-2.730081e+01	-7.607521e+01
9.200000e-07	-3.818416e-06	-1.168124e-09	-2.707387e+01	-7.578601e+01
9.300000e-07	-3.786259e-06	-1.166328e-09	-2.684587e+01	-7.549318e+01
9.400000e-07	-3.753806e-06	-1.170874e-09	-2.661576e+01	-7.519915e+01
9.500000e-07	-3.720904e-06	-1.177667e-09	-2.638248e+01	-7.490621e+01
9.600000e-07	-3.687610e-06	-1.170175e-09	-2.614641e+01	-7.461636e+01
9.700000e-07	-3.653955e-06	-1.157865e-09	-2.590778e+01	-7.433121e+01
9.800000e-07	-3.619817e-06	-1.144416e-09	-2.566573e+01	-7.405185e+01
9.900000e-07	-3.585111e-06	-1.143807e-09	-2.541966e+01	-7.377882e+01
1.000000e-06	-3.550064e-06	-1.139384e-09	-2.517117e+01	-7.351210e+01
1.010000e-06	-3.514771e-06	-1.137777e-09	-2.492093e+01	-7.325110e+01
1.020000e-06	-3.479276e-06	-1.136153e-09	-2.466925e+01	-7.299471e+01
1.030000e-06	-3.443598e-06	-1.139037e-09	-2.441628e+01	-7.274142e+01
1.040000e-06	-3.407742e-06	-1.133135e-09	-2.416205e+01	-7.248939e+01
1.050000e-06	-3.371771e-06	-1.124982e-09	-2.390701e+01	-7.223662e+01
1.060000e-06	-3.335634e-06	-1.114667e-09	-2.365078e+01	-7.198101e+01
1.070000e-06	-3.299397e-06	-1.110753e-09	-2.339385e+01	-7.172058e+01
1.080000e-06	-3.263012e-06	-1.104806e-09	-2.313587e+01	-7.145354e+01
1.090000e-06	-3.226342e-06	-1.101418e-09	-2.287586e+01	-7.117842e+01
1.100000e-06	-3.189379e-06	-1.097915e-09	-2.261378e+01	-7.089414e+01
1.110000e-06	-3.152121e-06	-1.095095e-09	-2.234961e+01	-7.060008e+01
1.120000e-06	-3.114622e-06	-1.088308e-09	-2.208373e+01	-7.029614e+01
1.130000e-06	-3.076962e-06	-1.078948e-09	-2.181671e+01	-6.998267e+01
1.140000e-06	-3.039109e-06	-1.069539e-09	-2.154832e+01	-6.966048e+01
1.150000e-06	-3.000881e-06	-1.065652e-09	-2.127727e+01	-6.933076e+01
1.160000e-06	-2.962339e-06	-1.062988e-09	-2.100399e+01	-6.899501e+01
1.170000e-06	-2.923730e-06	-1.056523e-09	-2.073024e+01	-6.865491e+01
1.180000e-06	-2.884891e-06	-1.049113e-09	-2.045486e+01	-6.831223e+01
1.190000e-06	-2.845789e-06	-1.042261e-09	-2.017761e+01	-6.796868e+01
1.200000e-06	-2.806605e-06	-1.038320e-09	-1.989979e+01	-6.762583e+01
1.210000e-06	-2.767328e-06	-1.034505e-09	-1.962130e+01	-6.728499e+01
1.220000e-06	-2.727882e-06	-1.033586e-09	-1.934162e+01	-6.694712e+01
1.230000e-06	-2.688227e-06	-1.030915e-09	-1.906045e+01	-6.661282e+01
1.240000e-06	-2.648493e-06	-1.027523e-09	-1.877872e+01	-6.628221e+01
1.250000e-06	-2.608689e-06	-1.021378e-09	-1.849649e+01	-6.595502e+01
1.260000e-06	-2.568771e-06	-1.017048e-09	-1.821346e+01	-6.563055e+01
1.270000e-06	-2.528727e-06	-1.008759e-09	-1.792953e+01	-6.530775e+01
1.280000e-06	-2.488551e-06	-1.001977e-09	-1.764467e+01	-6.498528e+01
1.290000e-06	-2.448296e-06	-9.959396e-10	-1.735926e+01	-6.466162e+01
1.300000e-06	-2.407911e-06	-9.932023e-10	-1.707291e+01	-6.433517e+01
1.310000e-06	-2.367302e-06	-9.878727e-10	-1.678498e+01	-6.400434e+01
1.320000e-06	-2.326418e-06	-9.833725e-10	-1.649510e+01	-6.366767e+01
1.330000e-06	-2.285170e-06	-9.773672e-10	-1.620264e+01	-6.332392e+01
1.340000e-06	-2.243618e-06	-9.744380e-10	-1.590802e+01	-6.297215e+01
1.350000e-06	-2.201872e-06	-9.705264e-10	-1.561202e+01	-6.261180e+01
1.360000e-06	-2.159772e-06	-9.656632e-10	-1.531352e+01	-6.224267e+01
1.370000e-06	-2.117346e-06	-9.584592e-10	-1.501270e+01	-6.186499e+01
1.380000e-06	-2.074625e-06	-9.534250e-10	-1.470980e+01	-6.147937e+01
1.390000e-06	-2.031608e-06	-9.485006e-10	-1.440479e+01	-6.108672e+01
1.400000e-06	-1.988409e-06	-9.405121e-10	-1.409850e+01	-6.068827e+01
1.410000e-06	-1.945099e-06	-9.298266e-10	-1.379141e+01	-6.028537e+01
1.420000e-06	-1.901662e-06	-9.230079e-10	-1.348343e+01	-5.987949e+01
1.430000e-06	-1.858020e-06	-9.217016e-10	-1.317399e+01	-5.947204e+01
1.440000e-06	-1.814243e-06	-9.209612e-10	-1.286360e+01	-5.906432e+01
1.450000e-06	-1.770421e-06	-9.163466e-10	-1.255289e+01	-5.865738e+01
1.460000e-06	-1.726544e-06	-9.106376e-10	-1.224179e+01	-5.825194e+01
1.470000e-06	-1.682629e-06	-9.078584e-10	-1.193041e+01	-5.784836e+01
1.480000e-06	-1.638669e-06	-9.036945e-10	-1.161872e+01	-5.744654e+01
1.490000e-06	-1.594622e-06	-8.971253e-10	-1.130641e+01	-5.704595e+01
1.500000e-06	-1.550444e-06	-8.882009e-10	-1.099317e+01	-5.664565e+01
1.510000e-06	-1.506256e-06	-8.816181e-10	-1.067987e+01	-5.624426e+01
1.520000e-06	-1.462062e-06	-8.757202e-10	-1.036652e+01	-5.584011e+01
1.530000e-06	-1.417754e-06	-8.689948e-10	-1.005236e+01	-5.543126e+01
1.540000e-06	-1.373338e-06	-8.595277e-10	-9.737434e+00	-5.501563e+01
1.550000e-06	-1.328798e-06	-8.529138e-10	-9.421633e+00	-5.459108e+01
1.560000e-06	-1.284156e-06	-8.480040e-10	-9.105101e+00	-5.415555e+01
1.570000e-06	-1.239484e-06	-8.438417e-10	-8.788362e+00	-5.370716e+01
1.580000e-06	-1.194771e-06	-8.386683e-10	-8.471336e+00	-5.324430e+01
1.590000e-06	-1.149859e-06	-8.324689e-10	-8.152891e+00	-5.276569e+01
1.600000e-06	-1.104890e-06	-8.229841e-10	-7.834049e+00	-5.227046e+01
1.610000e-06	-1.059867e-06	-8.127033e-10	-7.514820e+00	-5.175818e+01
1.620000e-06	-1.014676e-06	-8.003379e-10	-7.194400e+00	-5.122885e+01
1.630000e-06	-9.694975e-07	-7.893081e-10	-6.874068e+00	-5.068289e+01
1.640000e-06	-9.242737e-07	-7.814692e-10	-6.553416e+00	-5.012106e+01
1.650000e-06	-8.789313e-07	-7.747665e-10	-6.231923e+00	-4.954443e+01
1.660000e-06	-8.334815e-07	-7.660814e-10	-5.909668e+00	-4.895426e+01
1.670000e-06	-7.879812e-07	-7.580962e-10	-5.587055e+00	-4.835188e+01
1.680000e-06	-7.424129e-07	-7.504962e-10	-5.263961e+00	-4.773864e+01
1.690000e-06	-6.968543e-07	-7.402040e-10	-4.940935e+00	-4.711570e+01
1.700000e-06	-6.513744e-07	-7.263405e-10	-4.618466e+00	-4.648403e+01
1.710000e-06	-6.057728e-07	-7.117975e-10	-4.295135e+00	-4.584424e+01
1.720000e-06	-5.600800e-07	-7.019909e-10	-3.971158e+00	-4.519655e+01
1.730000e-06	-5.143300e-07	-6.944200e-10	-3.646775e+00	-4.454073e+01
1.740000e-06	-4.685302e-07	-6.837218e-10	-3.322039e+00	-4.387606e+01
1.750000e-06	-4.226738e-07	-6.714086e-10	-2.996901e+00	-4.320137e+01
1.760000e-06	-3.767684e-07	-6.589486e-10	-2.671417e+00	-4.251505e+01
1.770000e-06	-3.309119e-07	-6.462512e-10	-2.346278e+00	-4.181512e+01
1.780000e-06	-2.850591e-07	-6.347576e-10	-2.021166e+00	-4.109928e+01
1.790000e-06	-2.392233e-07	-6.250772e-10	-1.696175e+00	-4.036505e+01
1.800000e-06	-1.933529e-07	-6.141391e-10	-1.370938e+00	-3.960987e+01
1.810000e-06	-1.474333e-07	-5.980081e-10	-1.045353e+00	-3.883116e+01
1.820000e-06	-1.014987e-07	-5.803443e-10	-7.196606e-01	-3.802653e+01
1.830000e-06	-5.554621e-08	-5.639202e-10	-3.938416e-01	-3.719376e+01
1.840000e-06	-9.634167e-09	-5.474881e-10	-6.830953e-02	-3.633102e+01
1.850000e-06	3.630753e-08	-5.322778e-10	2.574327e-01	-3.543681e+01
1.860000e-06	8.226593e-08	-5.207790e-10	5.832935e-01	-3.451010e+01
1.870000e-06	1.281349e-07	-5.099574e-10	9.085203e-01	-3.355031e+01
1.880000e-06	1.739722e-07	-4.997274e-10	1.233522e+00	-3.255729e+01
1.890000e-06	2.198736e-07	-4.830999e-10	1.558979e+00	-3.153132e+01
1.900000e-06	2.657731e-07	-4.619312e-10	1.884422e+00	-3.047305e+01
1.910000e-06	3.116588e-07	-4.398810e-10	2.209767e+00	-2.938337e+01
1.920000e-06	3.575362e-07	-4.204430e-10	2.535054e+00	-2.826342e+01
1.930000e-06	4.033589e-07	-4.031435e-10	2.859952e+00	-2.711438e+01
1.940000e-06	4.491049e-07	-3.848014e-10	3.184307e+00	-2.593749e+01
1.950000e-06	4.948373e-07	-3.673132e-10	3.508565e+00	-2.473385e+01
1.960000e-06	5.405631e-07	-3.520296e-10	3.832777e+00	-2.350440e+01
1.970000e-06	5.862432e-07	-3.338678e-10	4.156664e+00	-2.224985e+01
1.980000e-06	6.318133e-07	-3.117491e-10	4.479771e+00	-2.097061e+01
1.990000e-06	6.773189e-07	-2.856840e-10	4.802422e+00	-1.966677e+01
2.000000e-06	7.228441e-07	-2.617661e-10	5.125211e+00	-1.833813e+01
2.010000e-06	7.683246e-07	-2.421570e-10	5.447683e+00	-1.698420e+01
2.020000e-06	8.137302e-07	-2.227240e-10	5.769625e+00	-1.560424e+01
2.030000e-06	8.590438e-07	-2.018079e-10	6.090913e+00	-1.419739e+01
2.040000e-06	9.043459e-07	-1.792536e-10	6.412120e+00	-1.276268e+01
2.050000e-06	9.496820e-07	-1.585830e-10	6.733569e+00	-1.129916e+01
2.060000e-06	9.949245e-07	-1.392124e-10	7.054354e+00	-9.806028e+00
2.070000e-06	1.039970e-06	-1.161360e-10	7.373742e+00	-8.282664e+00
2.080000e-06	1.084868e-06	-8.883631e-11	7.692084e+00	-6.728775e+00
2.090000e-06	1.129818e-06	-6.311087e-11	8.010792e+00	-5.144442e+00
2.100000e-06	1.174696e-06	-3.742538e-11	8.328998e+00	-3.530186e+00
2.110000e-06	1.219431e-06	-1.146561e-11	8.646183e+00	-1.887000e+00
2.120000e-06	1.264113e-06	1.419218e-11	8.962991e+00	-2.163607e-01
2.130000e-06	1.308583e-06	3.678465e-11	9.278301e+00	1.479790e+00
2.140000e-06	1.352990e-06	5.764308e-11	9.593163e+00	3.199079e+00
2.150000e-06	1.397381e-06	7.975930e-11	9.907911e+00	4.938768e+00
2.160000e-06	1.441652e-06	1.045559e-10	1.022180e+01	6.695828e+00
2.170000e-06	1.485818e-06	1.319531e-10	1.053496e+01	8.467035e+00
2.180000e-06	1.529909e-06	1.602077e-10	1.084757e+01	1.024907e+01
2.190000e-06	1.573935e-06	1.877561e-10	1.115974e+01	1.203861e+01
2.200000e-06	1.617914e-06	2.147465e-10	1.147156e+01	1.383245e+01
2.210000e-06	1.661882e-06	2.396277e-10	1.178331e+01	1.562756e+01
2.220000e-06	1.705824e-06	2.656389e-10	1.209487e+01	1.742117e+01
2.230000e-06	1.749717e-06	2.948187e-10	1.240609e+01	1.921084e+01
2.240000e-06	1.793471e-06	3.248971e-10	1.271632e+01	2.099445e+01
2.250000e-06	1.837119e-06	3.522557e-10	1.302580e+01	2.277025e+01
2.260000e-06	1.880730e-06	3.790446e-10	1.333502e+01	2.453680e+01
2.270000e-06	1.924172e-06	4.078230e-10	1.364303e+01	2.629298e+01
2.280000e-06	1.967427e-06	4.353022e-10	1.394973e+01	2.803789e+01
2.290000e-06	2.010592e-06	4.612904e-10	1.425578e+01	2.977080e+01
2.300000e-06	2.053560e-06	4.854359e-10	1.456044e+01	3.149108e+01
2.310000e-06	2.096285e-06	5.097331e-10	1.486338e+01	3.319809e+01
2.320000e-06	2.138668e-06	5.368039e-10	1.516388e+01	3.489112e+01
2.330000e-06	2.180662e-06	5.640738e-10	1.546164e+01	3.656933e+01
2.340000e-06	2.222396e-06	5.886532e-10	1.575755e+01	3.823164e+01
2.350000e-06	2.263974e-06	6.119329e-10	1.605235e+01	3.987675e+01
2.360000e-06	2.305359e-06	6.373443e-10	1.634578e+01	4.150309e+01
2.370000e-06	2.346496e-06	6.633246e-10	1.663745e+01	4.310884e+01
2.380000e-06	2.387351e-06	6.868940e-10	1.692713e+01	4.469191e+01
2.390000e-06	2.427949e-06	7.084094e-10	1.721498e+01	4.625007e+01
2.400000e-06	2.468346e-06	7.299960e-10	1.750141e+01	4.778095e+01
2.410000e-06	2.508570e-06	7.539466e-10	1.778662e+01	4.928213e+01
2.420000e-06	2.548698e-06	7.805977e-10	1.807114e+01	5.075128e+01
2.430000e-06	2.588699e-06	8.088721e-10	1.835475e+01	5.218619e+01
2.440000e-06	2.628585e-06	8.338694e-10	1.863756e+01	5.358493e+01
2.450000e-06	2.668408e-06	8.531308e-10	1.891992e+01	5.494588e+01
2.460000e-06	2.708057e-06	8.711468e-10	1.920105e+01	5.626783e+01
2.470000e-06	2.747481e-06	8.875583e-10	1.948058e+01	5.755003e+01
2.480000e-06	2.786789e-06	9.038856e-10	1.975929e+01	5.879224e+01
2.490000e-06	2.825910e-06	9.231404e-10	2.003666e+01	5.999467e+01
2.500000e-06	2.864840e-06	9.460841e-10	2.031269e+01	6.115805e+01
2.510000e-06	2.903513e-06	9.734912e-10	2.058690e+01	6.228352e+01
2.520000e-06	2.941951e-06	1.001201e-09	2.085943e+01	6.337258e+01
2.530000e-06	2.980231e-06	1.023103e-09	2.113085e+01	6.442702e+01
2.540000e-06	3.018293e-06	1.034779e-09	2.140072e+01	6.544879e+01
2.550000e-06	3.056127e-06	1.040897e-09	2.166898e+01	6.643991e+01
2.560000e-06	3.093755e-06	1.049077e-09	2.193578e+01	6.740236e+01
2.570000e-06	3.131168e-06	1.060681e-09	2.220105e+01	6.833796e+01
2.580000e-06	3.168403e-06	1.072948e-09	2.246506e+01	6.924830e+01
2.590000e-06	3.205448e-06	1.087573e-09	2.272772e+01	7.013464e+01
2.600000e-06	3.242246e-06	1.109834e-09	2.298863e+01	7.099785e+01
2.610000e-06	3.278773e-06	1.135410e-09	2.324762e+01	7.183841e+01
2.620000e-06	3.315093e-06	1.152773e-09	2.350514e+01	7.265638e+01
2.630000e-06	3.351393e-06	1.160216e-09	2.376252e+01	7.345144e+01
2.640000e-06	3.387559e-06	1.162885e-09	2.401895e+01	7.422292e+01
2.650000e-06	3.423503e-06	1.164588e-09	2.427380e+01	7.496989e+01
2.660000e-06	3.459293e-06	1.166150e-09	2.452757e+01	7.569123e+01
2.670000e-06	3.494964e-06	1.170791e-09	2.478049e+01	7.638576e+01
2.680000e-06	3.530469e-06	1.180389e-09	2.503223e+01	7.705232e+01
2.690000e-06	3.565658e-06	1.196673e-09	2.528173e+01	7.768991e+01
2.700000e-06	3.600336e-06	1.216977e-09	2.552761e+01	7.829773e+01
2.710000e-06	3.634614e-06	1.233282e-09	2.577065e+01	7.887532e+01
2.720000e-06	3.668651e-06	1.239749e-09	2.601198e+01	7.942263e+01
2.730000e-06	3.702240e-06	1.242140e-09	2.625014e+01	7.994000e+01
2.740000e-06	3.735318e-06	1.244037e-09	2.648467e+01	8.042823e+01
2.750000e-06	3.768006e-06	1.244394e-09	2.671645e+01	8.088856e+01
2.760000e-06	3.800354e-06	1.245782e-09	2.694580e+01	8.132258e+01
2.770000e-06	3.832480e-06	1.249085e-09	2.717359e+01	8.173224e+01
2.780000e-06	3.864454e-06	1.258247e-09	2.740029e+01	8.211971e+01
2.790000e-06	3.896267e-06	1.271035e-09	2.762586e+01	8.248729e+01
2.800000e-06	3.927937e-06	1.278024e-09	2.785041e+01	8.283730e+01
2.810000e-06	3.959438e-06	1.279531e-09	2.807376e+01	8.317198e+01
2.820000e-06	3.990674e-06	1.280918e-09	2.829524e+01	8.349335e+01
2.830000e-06	4.021597e-06	1.282717e-09	2.851450e+01	8.380315e+01
2.840000e-06	4.052218e-06	1.282695e-09	2.873160e+01	8.410275e+01
2.850000e-06	4.082500e-06	1.282847e-09	2.894632e+01	8.439305e+01
2.860000e-06	4.112455e-06	1.287115e-09	2.915870e+01	8.467454e+01
2.870000e-06	4.142147e-06	1.294209e-09	2.936923e+01	8.494722e+01
2.880000e-06	4.171584e-06	1.301072e-09	2.957795e+01	8.521068e+01
2.890000e-06	4.200745e-06	1.300760e-09	2.978471e+01	8.546412e+01
2.900000e-06	4.229727e-06	1.299705e-09	2.999021e+01	8.570647e+01
