# Temperatura_=_-2.53
# Concentracion g/m^3_=_4090.0
# C_Vs_to_Am_M_A/Vsm_=_65563218390.804596
# pendiente_HvsI_1/m_=_3716.3
# ordenada_HvsI_A/m_=_1297.0
# frecuencia_Hz_=_135068.89256914667

Tiempo_(s)	Campo_(V.s)	Magnetizacion_(V.s)	Campo_(kA/m)	Magnetizacion_(A/m)
0.000000e+00	-5.419391e-06	-1.802316e-09	-3.838794e+01	-1.208812e+02
1.000000e-08	-5.419492e-06	-1.798091e-09	-3.838866e+01	-1.207513e+02
2.000000e-08	-5.419419e-06	-1.794239e-09	-3.838814e+01	-1.206070e+02
3.000000e-08	-5.419015e-06	-1.792340e-09	-3.838528e+01	-1.204488e+02
4.000000e-08	-5.418019e-06	-1.792267e-09	-3.837822e+01	-1.202778e+02
5.000000e-08	-5.416311e-06	-1.793733e-09	-3.836612e+01	-1.200959e+02
6.000000e-08	-5.414008e-06	-1.797832e-09	-3.834981e+01	-1.199057e+02
7.000000e-08	-5.411218e-06	-1.804756e-09	-3.833004e+01	-1.197104e+02
8.000000e-08	-5.407908e-06	-1.793117e-09	-3.830660e+01	-1.195135e+02
9.000000e-08	-5.404065e-06	-1.761120e-09	-3.827938e+01	-1.193192e+02
1.000000e-07	-5.399852e-06	-1.786978e-09	-3.824954e+01	-1.191317e+02
1.100000e-07	-5.395466e-06	-1.835368e-09	-3.821847e+01	-1.189554e+02
1.200000e-07	-5.390887e-06	-1.801557e-09	-3.818603e+01	-1.187946e+02
1.300000e-07	-5.385982e-06	-1.741255e-09	-3.815129e+01	-1.186532e+02
1.400000e-07	-5.380667e-06	-1.773302e-09	-3.811364e+01	-1.185347e+02
1.500000e-07	-5.374963e-06	-1.852741e-09	-3.807324e+01	-1.184419e+02
1.600000e-07	-5.368918e-06	-1.805294e-09	-3.803042e+01	-1.183769e+02
1.700000e-07	-5.362470e-06	-1.691609e-09	-3.798474e+01	-1.183407e+02
1.800000e-07	-5.355682e-06	-1.745803e-09	-3.793666e+01	-1.183336e+02
1.900000e-07	-5.348580e-06	-1.828122e-09	-3.788635e+01	-1.183546e+02
2.000000e-07	-5.341213e-06	-1.802533e-09	-3.783417e+01	-1.184018e+02
2.100000e-07	-5.333546e-06	-1.724867e-09	-3.777986e+01	-1.184724e+02
2.200000e-07	-5.325543e-06	-1.803987e-09	-3.772317e+01	-1.185625e+02
2.300000e-07	-5.317312e-06	-1.856402e-09	-3.766487e+01	-1.186677e+02
2.400000e-07	-5.308667e-06	-1.805331e-09	-3.760364e+01	-1.187827e+02
2.500000e-07	-5.299330e-06	-1.784097e-09	-3.753749e+01	-1.189022e+02
2.600000e-07	-5.289346e-06	-1.863507e-09	-3.746677e+01	-1.190204e+02
2.700000e-07	-5.278820e-06	-1.874719e-09	-3.739222e+01	-1.191315e+02
2.800000e-07	-5.267773e-06	-1.800432e-09	-3.731396e+01	-1.192302e+02
2.900000e-07	-5.256273e-06	-1.815972e-09	-3.723251e+01	-1.193115e+02
3.000000e-07	-5.244361e-06	-1.870540e-09	-3.714813e+01	-1.193709e+02
3.100000e-07	-5.232096e-06	-1.832278e-09	-3.706125e+01	-1.194048e+02
3.200000e-07	-5.219442e-06	-1.790552e-09	-3.697162e+01	-1.194105e+02
3.300000e-07	-5.206364e-06	-1.857297e-09	-3.687898e+01	-1.193863e+02
3.400000e-07	-5.192928e-06	-1.864276e-09	-3.678380e+01	-1.193314e+02
3.500000e-07	-5.179118e-06	-1.818677e-09	-3.668598e+01	-1.192462e+02
3.600000e-07	-5.164869e-06	-1.817422e-09	-3.658505e+01	-1.191317e+02
3.700000e-07	-5.150218e-06	-1.847407e-09	-3.648127e+01	-1.189901e+02
3.800000e-07	-5.134951e-06	-1.797859e-09	-3.637313e+01	-1.188240e+02
3.900000e-07	-5.119099e-06	-1.798780e-09	-3.626084e+01	-1.186369e+02
4.000000e-07	-5.102863e-06	-1.832348e-09	-3.614583e+01	-1.184323e+02
4.100000e-07	-5.086237e-06	-1.822281e-09	-3.602806e+01	-1.182143e+02
4.200000e-07	-5.069221e-06	-1.787706e-09	-3.590753e+01	-1.179866e+02
4.300000e-07	-5.051902e-06	-1.822078e-09	-3.578485e+01	-1.177531e+02
4.400000e-07	-5.034371e-06	-1.825382e-09	-3.566067e+01	-1.175170e+02
4.500000e-07	-5.016492e-06	-1.788391e-09	-3.553403e+01	-1.172812e+02
4.600000e-07	-4.998223e-06	-1.776440e-09	-3.540462e+01	-1.170481e+02
4.700000e-07	-4.979593e-06	-1.798411e-09	-3.527265e+01	-1.168194e+02
4.800000e-07	-4.960538e-06	-1.785539e-09	-3.513768e+01	-1.165958e+02
4.900000e-07	-4.941076e-06	-1.771483e-09	-3.499983e+01	-1.163778e+02
5.000000e-07	-4.921408e-06	-1.768301e-09	-3.486050e+01	-1.161649e+02
5.100000e-07	-4.901588e-06	-1.773280e-09	-3.472011e+01	-1.159561e+02
5.200000e-07	-4.881534e-06	-1.778769e-09	-3.457806e+01	-1.157499e+02
5.300000e-07	-4.861224e-06	-1.777663e-09	-3.443420e+01	-1.155447e+02
5.400000e-07	-4.840564e-06	-1.763051e-09	-3.428785e+01	-1.153382e+02
5.500000e-07	-4.819492e-06	-1.760452e-09	-3.413859e+01	-1.151284e+02
5.600000e-07	-4.798049e-06	-1.766006e-09	-3.398670e+01	-1.149134e+02
5.700000e-07	-4.776306e-06	-1.754465e-09	-3.383268e+01	-1.146911e+02
5.800000e-07	-4.754272e-06	-1.740473e-09	-3.367661e+01	-1.144602e+02
5.900000e-07	-4.731885e-06	-1.733160e-09	-3.351803e+01	-1.142195e+02
6.000000e-07	-4.709131e-06	-1.735685e-09	-3.335686e+01	-1.139683e+02
6.100000e-07	-4.686063e-06	-1.740843e-09	-3.319345e+01	-1.137066e+02
6.200000e-07	-4.662782e-06	-1.740907e-09	-3.302855e+01	-1.134346e+02
6.300000e-07	-4.639200e-06	-1.726292e-09	-3.286150e+01	-1.131532e+02
6.400000e-07	-4.615345e-06	-1.732223e-09	-3.269253e+01	-1.128637e+02
6.500000e-07	-4.591333e-06	-1.740168e-09	-3.252244e+01	-1.125677e+02
6.600000e-07	-4.567057e-06	-1.727502e-09	-3.235048e+01	-1.122671e+02
6.700000e-07	-4.542369e-06	-1.704712e-09	-3.217561e+01	-1.119637e+02
6.800000e-07	-4.517163e-06	-1.706103e-09	-3.199706e+01	-1.116597e+02
6.900000e-07	-4.491439e-06	-1.705680e-09	-3.181485e+01	-1.113568e+02
7.000000e-07	-4.465171e-06	-1.701052e-09	-3.162878e+01	-1.110568e+02
7.100000e-07	-4.438363e-06	-1.692153e-09	-3.143889e+01	-1.107611e+02
7.200000e-07	-4.411164e-06	-1.696003e-09	-3.124622e+01	-1.104705e+02
7.300000e-07	-4.383725e-06	-1.701083e-09	-3.105186e+01	-1.101855e+02
7.400000e-07	-4.356073e-06	-1.704027e-09	-3.085599e+01	-1.099064e+02
7.500000e-07	-4.328240e-06	-1.690603e-09	-3.065884e+01	-1.096326e+02
7.600000e-07	-4.300224e-06	-1.681513e-09	-3.046038e+01	-1.093634e+02
7.700000e-07	-4.271954e-06	-1.678701e-09	-3.026014e+01	-1.090974e+02
7.800000e-07	-4.243417e-06	-1.673206e-09	-3.005800e+01	-1.088332e+02
7.900000e-07	-4.214562e-06	-1.659125e-09	-2.985360e+01	-1.085689e+02
8.000000e-07	-4.185374e-06	-1.654981e-09	-2.964685e+01	-1.083028e+02
8.100000e-07	-4.155884e-06	-1.658706e-09	-2.943796e+01	-1.080330e+02
8.200000e-07	-4.126073e-06	-1.663362e-09	-2.922680e+01	-1.077576e+02
8.300000e-07	-4.096010e-06	-1.659862e-09	-2.901385e+01	-1.074752e+02
8.400000e-07	-4.065738e-06	-1.649582e-09	-2.879942e+01	-1.071843e+02
8.500000e-07	-4.035157e-06	-1.641620e-09	-2.858280e+01	-1.068840e+02
8.600000e-07	-4.004250e-06	-1.640787e-09	-2.836387e+01	-1.065738e+02
8.700000e-07	-3.973093e-06	-1.637029e-09	-2.814317e+01	-1.062535e+02
8.800000e-07	-3.941692e-06	-1.626564e-09	-2.792075e+01	-1.059234e+02
8.900000e-07	-3.910057e-06	-1.620652e-09	-2.769666e+01	-1.055843e+02
9.000000e-07	-3.878292e-06	-1.618577e-09	-2.747166e+01	-1.052371e+02
9.100000e-07	-3.846411e-06	-1.615293e-09	-2.724583e+01	-1.048833e+02
9.200000e-07	-3.814286e-06	-1.605336e-09	-2.701827e+01	-1.045242e+02
9.300000e-07	-3.781859e-06	-1.601780e-09	-2.678858e+01	-1.041616e+02
9.400000e-07	-3.749108e-06	-1.603806e-09	-2.655659e+01	-1.037971e+02
9.500000e-07	-3.716029e-06	-1.606570e-09	-2.632228e+01	-1.034323e+02
9.600000e-07	-3.682564e-06	-1.598218e-09	-2.608523e+01	-1.030687e+02
9.700000e-07	-3.648609e-06	-1.586421e-09	-2.584471e+01	-1.027073e+02
9.800000e-07	-3.614195e-06	-1.577019e-09	-2.560094e+01	-1.023491e+02
9.900000e-07	-3.579388e-06	-1.572693e-09	-2.535439e+01	-1.019946e+02
1.000000e-06	-3.544291e-06	-1.564134e-09	-2.510578e+01	-1.016438e+02
1.010000e-06	-3.508943e-06	-1.557396e-09	-2.485540e+01	-1.012966e+02
1.020000e-06	-3.473402e-06	-1.553847e-09	-2.460364e+01	-1.009524e+02
1.030000e-06	-3.437730e-06	-1.555807e-09	-2.435096e+01	-1.006101e+02
1.040000e-06	-3.401921e-06	-1.553152e-09	-2.409731e+01	-1.002687e+02
1.050000e-06	-3.365955e-06	-1.546767e-09	-2.384254e+01	-9.992671e+01
1.060000e-06	-3.329733e-06	-1.538385e-09	-2.358597e+01	-9.958260e+01
1.070000e-06	-3.293310e-06	-1.531187e-09	-2.332797e+01	-9.923483e+01
1.080000e-06	-3.256714e-06	-1.521528e-09	-2.306874e+01	-9.888189e+01
1.090000e-06	-3.219797e-06	-1.512932e-09	-2.280725e+01	-9.852237e+01
1.100000e-06	-3.182656e-06	-1.507229e-09	-2.254416e+01	-9.815506e+01
1.110000e-06	-3.145332e-06	-1.504126e-09	-2.227977e+01	-9.777897e+01
1.120000e-06	-3.107732e-06	-1.498028e-09	-2.201344e+01	-9.739342e+01
1.130000e-06	-3.069926e-06	-1.490256e-09	-2.174564e+01	-9.699799e+01
1.140000e-06	-3.031917e-06	-1.484235e-09	-2.147641e+01	-9.659258e+01
1.150000e-06	-2.993714e-06	-1.480068e-09	-2.120580e+01	-9.617738e+01
1.160000e-06	-2.955271e-06	-1.472464e-09	-2.093349e+01	-9.575283e+01
1.170000e-06	-2.916648e-06	-1.460678e-09	-2.065991e+01	-9.531960e+01
1.180000e-06	-2.877844e-06	-1.448538e-09	-2.038504e+01	-9.487850e+01
1.190000e-06	-2.838763e-06	-1.439397e-09	-2.010821e+01	-9.443047e+01
1.200000e-06	-2.799446e-06	-1.436788e-09	-1.982972e+01	-9.397645e+01
1.210000e-06	-2.759959e-06	-1.433247e-09	-1.955001e+01	-9.351741e+01
1.220000e-06	-2.720410e-06	-1.428836e-09	-1.926987e+01	-9.305419e+01
1.230000e-06	-2.680750e-06	-1.424523e-09	-1.898894e+01	-9.258753e+01
1.240000e-06	-2.640938e-06	-1.418235e-09	-1.870693e+01	-9.211800e+01
1.250000e-06	-2.601035e-06	-1.407165e-09	-1.842428e+01	-9.164599e+01
1.260000e-06	-2.561023e-06	-1.395828e-09	-1.814086e+01	-9.117168e+01
1.270000e-06	-2.520861e-06	-1.384449e-09	-1.785637e+01	-9.069504e+01
1.280000e-06	-2.480584e-06	-1.376648e-09	-1.757107e+01	-9.021589e+01
1.290000e-06	-2.440196e-06	-1.369248e-09	-1.728498e+01	-8.973386e+01
1.300000e-06	-2.399596e-06	-1.361042e-09	-1.699740e+01	-8.924849e+01
1.310000e-06	-2.358730e-06	-1.351810e-09	-1.670793e+01	-8.875924e+01
1.320000e-06	-2.317527e-06	-1.346725e-09	-1.641607e+01	-8.826553e+01
1.330000e-06	-2.275962e-06	-1.342504e-09	-1.612164e+01	-8.776680e+01
1.340000e-06	-2.234112e-06	-1.336830e-09	-1.582520e+01	-8.726255e+01
1.350000e-06	-2.191949e-06	-1.328318e-09	-1.552654e+01	-8.675239e+01
1.360000e-06	-2.149443e-06	-1.319172e-09	-1.522545e+01	-8.623600e+01
1.370000e-06	-2.106691e-06	-1.309710e-09	-1.492262e+01	-8.571324e+01
1.380000e-06	-2.063801e-06	-1.299584e-09	-1.461881e+01	-8.518410e+01
1.390000e-06	-2.020765e-06	-1.287874e-09	-1.431397e+01	-8.464867e+01
1.400000e-06	-1.977545e-06	-1.279348e-09	-1.400783e+01	-8.410717e+01
1.410000e-06	-1.934220e-06	-1.273848e-09	-1.370094e+01	-8.355991e+01
1.420000e-06	-1.890814e-06	-1.268375e-09	-1.339347e+01	-8.300721e+01
1.430000e-06	-1.847231e-06	-1.264132e-09	-1.308475e+01	-8.244944e+01
1.440000e-06	-1.803573e-06	-1.259615e-09	-1.277550e+01	-8.188688e+01
1.450000e-06	-1.759849e-06	-1.252618e-09	-1.246579e+01	-8.131976e+01
1.460000e-06	-1.716027e-06	-1.244080e-09	-1.215538e+01	-8.074817e+01
1.470000e-06	-1.672192e-06	-1.234338e-09	-1.184488e+01	-8.017206e+01
1.480000e-06	-1.628317e-06	-1.224156e-09	-1.153409e+01	-7.959120e+01
1.490000e-06	-1.584362e-06	-1.217105e-09	-1.122274e+01	-7.900518e+01
1.500000e-06	-1.540303e-06	-1.211049e-09	-1.091064e+01	-7.841343e+01
1.510000e-06	-1.496103e-06	-1.204679e-09	-1.059756e+01	-7.781518e+01
1.520000e-06	-1.451740e-06	-1.195073e-09	-1.028331e+01	-7.720956e+01
1.530000e-06	-1.407324e-06	-1.183006e-09	-9.968696e+00	-7.659557e+01
1.540000e-06	-1.362851e-06	-1.170029e-09	-9.653678e+00	-7.597218e+01
1.550000e-06	-1.318327e-06	-1.158946e-09	-9.338295e+00	-7.533834e+01
1.560000e-06	-1.273786e-06	-1.149140e-09	-9.022792e+00	-7.469306e+01
1.570000e-06	-1.229129e-06	-1.140761e-09	-8.706462e+00	-7.403545e+01
1.580000e-06	-1.184315e-06	-1.133713e-09	-8.389029e+00	-7.336476e+01
1.590000e-06	-1.139378e-06	-1.125791e-09	-8.070716e+00	-7.268044e+01
1.600000e-06	-1.094410e-06	-1.113458e-09	-7.752193e+00	-7.198214e+01
1.610000e-06	-1.049459e-06	-1.098189e-09	-7.433784e+00	-7.126975e+01
1.620000e-06	-1.004451e-06	-1.082895e-09	-7.114972e+00	-7.054340e+01
1.630000e-06	-9.593119e-07	-1.071063e-09	-6.795230e+00	-6.980342e+01
1.640000e-06	-9.140165e-07	-1.061128e-09	-6.474383e+00	-6.905036e+01
1.650000e-06	-8.686304e-07	-1.050663e-09	-6.152893e+00	-6.828490e+01
1.660000e-06	-8.232152e-07	-1.038945e-09	-5.831197e+00	-6.750783e+01
1.670000e-06	-7.777243e-07	-1.028262e-09	-5.508965e+00	-6.671999e+01
1.680000e-06	-7.321535e-07	-1.016168e-09	-5.186167e+00	-6.592220e+01
1.690000e-06	-6.864924e-07	-1.000269e-09	-4.862729e+00	-6.511518e+01
1.700000e-06	-6.407767e-07	-9.847395e-10	-4.538905e+00	-6.429951e+01
1.710000e-06	-5.950831e-07	-9.718854e-10	-4.215237e+00	-6.347556e+01
1.720000e-06	-5.494564e-07	-9.610353e-10	-3.892042e+00	-6.264346e+01
1.730000e-06	-5.038042e-07	-9.493732e-10	-3.568668e+00	-6.180305e+01
1.740000e-06	-4.580141e-07	-9.352945e-10	-3.244316e+00	-6.095386e+01
1.750000e-06	-4.121661e-07	-9.220140e-10	-2.919554e+00	-6.009511e+01
1.760000e-06	-3.663212e-07	-9.083192e-10	-2.594815e+00	-5.922575e+01
1.770000e-06	-3.203912e-07	-8.913980e-10	-2.269472e+00	-5.834444e+01
1.780000e-06	-2.744127e-07	-8.740061e-10	-1.943787e+00	-5.744963e+01
1.790000e-06	-2.284598e-07	-8.572002e-10	-1.618282e+00	-5.653962e+01
1.800000e-06	-1.825606e-07	-8.417280e-10	-1.293157e+00	-5.561259e+01
1.810000e-06	-1.367181e-07	-8.254118e-10	-9.684344e-01	-5.466671e+01
1.820000e-06	-9.086866e-08	-8.079501e-10	-6.436629e-01	-5.370019e+01
1.830000e-06	-4.501011e-08	-7.900181e-10	-3.188265e-01	-5.271134e+01
1.840000e-06	8.171964e-10	-7.732882e-10	5.788563e-03	-5.169868e+01
1.850000e-06	4.664530e-08	-7.589801e-10	3.304092e-01	-5.066093e+01
1.860000e-06	9.259906e-08	-7.439677e-10	6.559201e-01	-4.959710e+01
1.870000e-06	1.385379e-07	-7.275018e-10	9.813254e-01	-4.850649e+01
1.880000e-06	1.844539e-07	-7.124489e-10	1.306569e+00	-4.738871e+01
1.890000e-06	2.304462e-07	-6.956881e-10	1.632352e+00	-4.624366e+01
1.900000e-06	2.763968e-07	-6.733914e-10	1.957841e+00	-4.507151e+01
1.910000e-06	3.222788e-07	-6.488308e-10	2.282843e+00	-4.387266e+01
1.920000e-06	3.681650e-07	-6.283350e-10	2.607875e+00	-4.264770e+01
1.930000e-06	4.140386e-07	-6.105389e-10	2.932818e+00	-4.139733e+01
1.940000e-06	4.598239e-07	-5.912985e-10	3.257136e+00	-4.012229e+01
1.950000e-06	5.055383e-07	-5.719698e-10	3.580951e+00	-3.882332e+01
1.960000e-06	5.512096e-07	-5.560042e-10	3.904461e+00	-3.750106e+01
1.970000e-06	5.968303e-07	-5.378511e-10	4.227612e+00	-3.615601e+01
1.980000e-06	6.424291e-07	-5.147881e-10	4.550609e+00	-3.478850e+01
1.990000e-06	6.880633e-07	-4.909808e-10	4.873856e+00	-3.339859e+01
2.000000e-06	7.336672e-07	-4.682113e-10	5.196889e+00	-3.198612e+01
2.010000e-06	7.791954e-07	-4.463266e-10	5.519385e+00	-3.055067e+01
2.020000e-06	8.246972e-07	-4.241076e-10	5.841694e+00	-2.909157e+01
2.030000e-06	8.702119e-07	-4.009510e-10	6.164095e+00	-2.760796e+01
2.040000e-06	9.156487e-07	-3.797694e-10	6.485944e+00	-2.609878e+01
2.050000e-06	9.609519e-07	-3.594767e-10	6.806847e+00	-2.456290e+01
2.060000e-06	1.006129e-06	-3.345732e-10	7.126857e+00	-2.299910e+01
2.070000e-06	1.051223e-06	-3.049642e-10	7.446276e+00	-2.140624e+01
2.080000e-06	1.096288e-06	-2.766123e-10	7.765492e+00	-1.978323e+01
2.090000e-06	1.141258e-06	-2.530893e-10	8.084031e+00	-1.812918e+01
2.100000e-06	1.186097e-06	-2.291168e-10	8.401649e+00	-1.644343e+01
2.110000e-06	1.230861e-06	-2.011890e-10	8.718733e+00	-1.472561e+01
2.120000e-06	1.275389e-06	-1.742258e-10	9.034143e+00	-1.297568e+01
2.130000e-06	1.319699e-06	-1.509137e-10	9.348013e+00	-1.119396e+01
2.140000e-06	1.364037e-06	-1.242367e-10	9.662075e+00	-9.381128e+00
2.150000e-06	1.408335e-06	-9.382579e-11	9.975861e+00	-7.538228e+00
2.160000e-06	1.452492e-06	-6.345403e-11	1.028864e+01	-5.666642e+00
2.170000e-06	1.496559e-06	-3.434274e-11	1.060078e+01	-3.768047e+00
2.180000e-06	1.540583e-06	-7.712917e-12	1.091263e+01	-1.844367e+00
2.190000e-06	1.584539e-06	1.937010e-11	1.122399e+01	1.022850e-01
2.200000e-06	1.628412e-06	4.742559e-11	1.153476e+01	2.069679e+00
2.210000e-06	1.672252e-06	7.343946e-11	1.184530e+01	4.055532e+00
2.220000e-06	1.716069e-06	1.008874e-10	1.215567e+01	6.057576e+00
2.230000e-06	1.759843e-06	1.349234e-10	1.246575e+01	8.073623e+00
2.240000e-06	1.803614e-06	1.726973e-10	1.277579e+01	1.010161e+01
2.250000e-06	1.847325e-06	2.066299e-10	1.308542e+01	1.213967e+01
2.260000e-06	1.890960e-06	2.374626e-10	1.339450e+01	1.418610e+01
2.270000e-06	1.934550e-06	2.676924e-10	1.370327e+01	1.623943e+01
2.280000e-06	1.978024e-06	2.966443e-10	1.401121e+01	1.829843e+01
2.290000e-06	2.021289e-06	3.248321e-10	1.431768e+01	2.036202e+01
2.300000e-06	2.064326e-06	3.525251e-10	1.462253e+01	2.242933e+01
2.310000e-06	2.107197e-06	3.833689e-10	1.492621e+01	2.449959e+01
2.320000e-06	2.149896e-06	4.189503e-10	1.522866e+01	2.657212e+01
2.330000e-06	2.192341e-06	4.542591e-10	1.552932e+01	2.864628e+01
2.340000e-06	2.234393e-06	4.856851e-10	1.582719e+01	3.072138e+01
2.350000e-06	2.275981e-06	5.154094e-10	1.612178e+01	3.279666e+01
2.360000e-06	2.317246e-06	5.461971e-10	1.641408e+01	3.487121e+01
2.370000e-06	2.358250e-06	5.784989e-10	1.670453e+01	3.694396e+01
2.380000e-06	2.398974e-06	6.094380e-10	1.699300e+01	3.901364e+01
2.390000e-06	2.439475e-06	6.388915e-10	1.727988e+01	4.107874e+01
2.400000e-06	2.479782e-06	6.694715e-10	1.756539e+01	4.313755e+01
2.410000e-06	2.519892e-06	7.017836e-10	1.784951e+01	4.518810e+01
2.420000e-06	2.559873e-06	7.365808e-10	1.813271e+01	4.722827e+01
2.430000e-06	2.599796e-06	7.724984e-10	1.841550e+01	4.925574e+01
2.440000e-06	2.639644e-06	8.042939e-10	1.869777e+01	5.126809e+01
2.450000e-06	2.679417e-06	8.322058e-10	1.897949e+01	5.326282e+01
2.460000e-06	2.719155e-06	8.610128e-10	1.926097e+01	5.523742e+01
2.470000e-06	2.758807e-06	8.886536e-10	1.954184e+01	5.718941e+01
2.480000e-06	2.798280e-06	9.153770e-10	1.982146e+01	5.911642e+01
2.490000e-06	2.837574e-06	9.426607e-10	2.009979e+01	6.101621e+01
2.500000e-06	2.876605e-06	9.719569e-10	2.037626e+01	6.288675e+01
2.510000e-06	2.915325e-06	1.004820e-09	2.065054e+01	6.472620e+01
2.520000e-06	2.953789e-06	1.039862e-09	2.092299e+01	6.653300e+01
2.530000e-06	2.991977e-06	1.072980e-09	2.119350e+01	6.830583e+01
2.540000e-06	3.029954e-06	1.100894e-09	2.146250e+01	7.004365e+01
2.550000e-06	3.067816e-06	1.122726e-09	2.173069e+01	7.174564e+01
2.560000e-06	3.105559e-06	1.142186e-09	2.199804e+01	7.341125e+01
2.570000e-06	3.143129e-06	1.163014e-09	2.226417e+01	7.504011e+01
2.580000e-06	3.180494e-06	1.185677e-09	2.252884e+01	7.663205e+01
2.590000e-06	3.217650e-06	1.211910e-09	2.279204e+01	7.818703e+01
2.600000e-06	3.254550e-06	1.243792e-09	2.305342e+01	7.970512e+01
2.610000e-06	3.291171e-06	1.277291e-09	2.331282e+01	8.118647e+01
2.620000e-06	3.327464e-06	1.303972e-09	2.356989e+01	8.263125e+01
2.630000e-06	3.363470e-06	1.321373e-09	2.382494e+01	8.403969e+01
2.640000e-06	3.399367e-06	1.333676e-09	2.407922e+01	8.541200e+01
2.650000e-06	3.435196e-06	1.347042e-09	2.433301e+01	8.674838e+01
2.660000e-06	3.470912e-06	1.361059e-09	2.458600e+01	8.804904e+01
2.670000e-06	3.506578e-06	1.376093e-09	2.483864e+01	8.931418e+01
2.680000e-06	3.542162e-06	1.393132e-09	2.509070e+01	9.054400e+01
2.690000e-06	3.577383e-06	1.414295e-09	2.534019e+01	9.173874e+01
2.700000e-06	3.612238e-06	1.437820e-09	2.558708e+01	9.289867e+01
2.710000e-06	3.646755e-06	1.459933e-09	2.583158e+01	9.402414e+01
2.720000e-06	3.680785e-06	1.477306e-09	2.607263e+01	9.511557e+01
2.730000e-06	3.714290e-06	1.490058e-09	2.630995e+01	9.617350e+01
2.740000e-06	3.747290e-06	1.500630e-09	2.654371e+01	9.719855e+01
2.750000e-06	3.779872e-06	1.509180e-09	2.677450e+01	9.819149e+01
2.760000e-06	3.812089e-06	1.518961e-09	2.700271e+01	9.915319e+01
2.770000e-06	3.844079e-06	1.531173e-09	2.722931e+01	1.000846e+02
2.780000e-06	3.875966e-06	1.550156e-09	2.745518e+01	1.009868e+02
2.790000e-06	3.907776e-06	1.572181e-09	2.768050e+01	1.018609e+02
2.800000e-06	3.939438e-06	1.587452e-09	2.790478e+01	1.027080e+02
2.810000e-06	3.970883e-06	1.595464e-09	2.812752e+01	1.035294e+02
2.820000e-06	4.002087e-06	1.603026e-09	2.834855e+01	1.043260e+02
2.830000e-06	4.033006e-06	1.610151e-09	2.856756e+01	1.050990e+02
2.840000e-06	4.063554e-06	1.614734e-09	2.878395e+01	1.058492e+02
2.850000e-06	4.093759e-06	1.619308e-09	2.899790e+01	1.065775e+02
2.860000e-06	4.123738e-06	1.629654e-09	2.921025e+01	1.072845e+02
2.870000e-06	4.153484e-06	1.647593e-09	2.942096e+01	1.079707e+02
2.880000e-06	4.182967e-06	1.665867e-09	2.962981e+01	1.086363e+02
2.890000e-06	4.212077e-06	1.676633e-09	2.983600e+01	1.092815e+02
2.900000e-06	4.240841e-06	1.684022e-09	3.003975e+01	1.099063e+02
