# Temperatura_=_-1.3
# Concentracion g/m^3_=_4090.0
# C_Vs_to_Am_M_A/Vsm_=_65563218390.804596
# pendiente_HvsI_1/m_=_3716.3
# ordenada_HvsI_A/m_=_1297.0
# frecuencia_Hz_=_135074.43245961663

Tiempo_(s)	Campo_(V.s)	Magnetizacion_(V.s)	Campo_(kA/m)	Magnetizacion_(A/m)
0.000000e+00	-5.416201e-06	-2.152357e-09	-3.839113e+01	-1.419007e+02
1.000000e-08	-5.416227e-06	-2.148034e-09	-3.839132e+01	-1.417680e+02
2.000000e-08	-5.415995e-06	-2.147037e-09	-3.838967e+01	-1.416148e+02
3.000000e-08	-5.415509e-06	-2.146247e-09	-3.838622e+01	-1.414419e+02
4.000000e-08	-5.414638e-06	-2.143053e-09	-3.838005e+01	-1.412513e+02
5.000000e-08	-5.413184e-06	-2.140033e-09	-3.836975e+01	-1.410463e+02
6.000000e-08	-5.411115e-06	-2.149426e-09	-3.835508e+01	-1.408311e+02
7.000000e-08	-5.408348e-06	-2.153453e-09	-3.833547e+01	-1.406107e+02
8.000000e-08	-5.404926e-06	-2.125542e-09	-3.831121e+01	-1.403911e+02
9.000000e-08	-5.401010e-06	-2.106119e-09	-3.828345e+01	-1.401786e+02
1.000000e-07	-5.396829e-06	-2.155010e-09	-3.825382e+01	-1.399800e+02
1.100000e-07	-5.392553e-06	-2.160695e-09	-3.822351e+01	-1.398021e+02
1.200000e-07	-5.388051e-06	-2.137112e-09	-3.819160e+01	-1.396511e+02
1.300000e-07	-5.383123e-06	-2.091391e-09	-3.815667e+01	-1.395331e+02
1.400000e-07	-5.377767e-06	-2.153370e-09	-3.811870e+01	-1.394529e+02
1.500000e-07	-5.372038e-06	-2.186248e-09	-3.807810e+01	-1.394145e+02
1.600000e-07	-5.365999e-06	-2.136856e-09	-3.803529e+01	-1.394204e+02
1.700000e-07	-5.359607e-06	-2.088606e-09	-3.798998e+01	-1.394718e+02
1.800000e-07	-5.352697e-06	-2.110346e-09	-3.794100e+01	-1.395683e+02
1.900000e-07	-5.345400e-06	-2.180361e-09	-3.788928e+01	-1.397079e+02
2.000000e-07	-5.337876e-06	-2.157176e-09	-3.783595e+01	-1.398869e+02
2.100000e-07	-5.330067e-06	-2.157561e-09	-3.778060e+01	-1.401005e+02
2.200000e-07	-5.322003e-06	-2.174664e-09	-3.772344e+01	-1.403423e+02
2.300000e-07	-5.313739e-06	-2.227669e-09	-3.766486e+01	-1.406051e+02
2.400000e-07	-5.305066e-06	-2.211371e-09	-3.760339e+01	-1.408809e+02
2.500000e-07	-5.295733e-06	-2.231607e-09	-3.753723e+01	-1.411612e+02
2.600000e-07	-5.285726e-06	-2.235294e-09	-3.746630e+01	-1.414373e+02
2.700000e-07	-5.275240e-06	-2.230570e-09	-3.739197e+01	-1.417008e+02
2.800000e-07	-5.264203e-06	-2.207688e-09	-3.731374e+01	-1.419437e+02
2.900000e-07	-5.252615e-06	-2.215851e-09	-3.723160e+01	-1.421590e+02
3.000000e-07	-5.240684e-06	-2.202216e-09	-3.714703e+01	-1.423404e+02
3.100000e-07	-5.228447e-06	-2.195191e-09	-3.706029e+01	-1.424832e+02
3.200000e-07	-5.215779e-06	-2.203238e-09	-3.697050e+01	-1.425838e+02
3.300000e-07	-5.202698e-06	-2.211689e-09	-3.687778e+01	-1.426404e+02
3.400000e-07	-5.189261e-06	-2.203038e-09	-3.678253e+01	-1.426524e+02
3.500000e-07	-5.175409e-06	-2.208883e-09	-3.668435e+01	-1.426209e+02
3.600000e-07	-5.161127e-06	-2.210504e-09	-3.658311e+01	-1.425479e+02
3.700000e-07	-5.146404e-06	-2.180119e-09	-3.647875e+01	-1.424371e+02
3.800000e-07	-5.131111e-06	-2.164177e-09	-3.637036e+01	-1.422928e+02
3.900000e-07	-5.115165e-06	-2.170943e-09	-3.625733e+01	-1.421200e+02
4.000000e-07	-5.098720e-06	-2.172798e-09	-3.614076e+01	-1.419243e+02
4.100000e-07	-5.081967e-06	-2.158659e-09	-3.602201e+01	-1.417114e+02
4.200000e-07	-5.064955e-06	-2.173554e-09	-3.590143e+01	-1.414868e+02
4.300000e-07	-5.047641e-06	-2.177998e-09	-3.577870e+01	-1.412557e+02
4.400000e-07	-5.030096e-06	-2.181049e-09	-3.565434e+01	-1.410228e+02
4.500000e-07	-5.012258e-06	-2.165034e-09	-3.552790e+01	-1.407920e+02
4.600000e-07	-4.994000e-06	-2.156920e-09	-3.539849e+01	-1.405662e+02
4.700000e-07	-4.975274e-06	-2.136350e-09	-3.526575e+01	-1.403475e+02
4.800000e-07	-4.956148e-06	-2.146751e-09	-3.513018e+01	-1.401370e+02
4.900000e-07	-4.936670e-06	-2.138040e-09	-3.499212e+01	-1.399346e+02
5.000000e-07	-4.916853e-06	-2.131138e-09	-3.485165e+01	-1.397397e+02
5.100000e-07	-4.896827e-06	-2.128206e-09	-3.470970e+01	-1.395507e+02
5.200000e-07	-4.876645e-06	-2.149727e-09	-3.456665e+01	-1.393654e+02
5.300000e-07	-4.856192e-06	-2.140083e-09	-3.442167e+01	-1.391812e+02
5.400000e-07	-4.835434e-06	-2.132366e-09	-3.427454e+01	-1.389952e+02
5.500000e-07	-4.814311e-06	-2.123634e-09	-3.412481e+01	-1.388047e+02
5.600000e-07	-4.792877e-06	-2.126020e-09	-3.397288e+01	-1.386068e+02
5.700000e-07	-4.771138e-06	-2.113730e-09	-3.381879e+01	-1.383992e+02
5.800000e-07	-4.749025e-06	-2.102918e-09	-3.366206e+01	-1.381797e+02
5.900000e-07	-4.726562e-06	-2.088980e-09	-3.350283e+01	-1.379470e+02
6.000000e-07	-4.703789e-06	-2.094234e-09	-3.334141e+01	-1.377003e+02
6.100000e-07	-4.680720e-06	-2.103009e-09	-3.317789e+01	-1.374394e+02
6.200000e-07	-4.657305e-06	-2.101662e-09	-3.301192e+01	-1.371648e+02
6.300000e-07	-4.633609e-06	-2.090994e-09	-3.284396e+01	-1.368776e+02
6.400000e-07	-4.609751e-06	-2.090267e-09	-3.267485e+01	-1.365794e+02
6.500000e-07	-4.585706e-06	-2.091448e-09	-3.250441e+01	-1.362721e+02
6.600000e-07	-4.561378e-06	-2.078695e-09	-3.233197e+01	-1.359583e+02
6.700000e-07	-4.536639e-06	-2.062194e-09	-3.215662e+01	-1.356402e+02
6.800000e-07	-4.511494e-06	-2.054225e-09	-3.197839e+01	-1.353203e+02
6.900000e-07	-4.485909e-06	-2.060515e-09	-3.179703e+01	-1.350011e+02
7.000000e-07	-4.459723e-06	-2.059580e-09	-3.161142e+01	-1.346845e+02
7.100000e-07	-4.432972e-06	-2.054779e-09	-3.142181e+01	-1.343725e+02
7.200000e-07	-4.405862e-06	-2.048434e-09	-3.122964e+01	-1.340662e+02
7.300000e-07	-4.378477e-06	-2.054971e-09	-3.103553e+01	-1.337667e+02
7.400000e-07	-4.350750e-06	-2.049954e-09	-3.083900e+01	-1.334742e+02
7.500000e-07	-4.322782e-06	-2.040339e-09	-3.064076e+01	-1.331887e+02
7.600000e-07	-4.294711e-06	-2.026504e-09	-3.044178e+01	-1.329097e+02
7.700000e-07	-4.266464e-06	-2.028225e-09	-3.024156e+01	-1.326363e+02
7.800000e-07	-4.237923e-06	-2.026353e-09	-3.003926e+01	-1.323673e+02
7.900000e-07	-4.209080e-06	-2.021968e-09	-2.983481e+01	-1.321013e+02
8.000000e-07	-4.179978e-06	-2.008113e-09	-2.962853e+01	-1.318370e+02
8.100000e-07	-4.150595e-06	-2.005749e-09	-2.942026e+01	-1.315729e+02
8.200000e-07	-4.120848e-06	-2.003355e-09	-2.920941e+01	-1.313076e+02
8.300000e-07	-4.090733e-06	-2.001504e-09	-2.899595e+01	-1.310400e+02
8.400000e-07	-4.060339e-06	-1.994464e-09	-2.878051e+01	-1.307691e+02
8.500000e-07	-4.029705e-06	-1.995840e-09	-2.856337e+01	-1.304944e+02
8.600000e-07	-3.998781e-06	-1.995722e-09	-2.834417e+01	-1.302155e+02
8.700000e-07	-3.967695e-06	-1.991937e-09	-2.812383e+01	-1.299324e+02
8.800000e-07	-3.936396e-06	-1.977620e-09	-2.790197e+01	-1.296453e+02
8.900000e-07	-3.904798e-06	-1.965817e-09	-2.767800e+01	-1.293549e+02
9.000000e-07	-3.872991e-06	-1.958727e-09	-2.745255e+01	-1.290616e+02
9.100000e-07	-3.840974e-06	-1.957706e-09	-2.722560e+01	-1.287663e+02
9.200000e-07	-3.808705e-06	-1.956227e-09	-2.699687e+01	-1.284697e+02
9.300000e-07	-3.776268e-06	-1.958625e-09	-2.676695e+01	-1.281726e+02
9.400000e-07	-3.743680e-06	-1.963942e-09	-2.653596e+01	-1.278756e+02
9.500000e-07	-3.710790e-06	-1.963184e-09	-2.630283e+01	-1.275789e+02
9.600000e-07	-3.677546e-06	-1.953692e-09	-2.606719e+01	-1.272828e+02
9.700000e-07	-3.643842e-06	-1.938207e-09	-2.582829e+01	-1.269871e+02
9.800000e-07	-3.609677e-06	-1.926846e-09	-2.558612e+01	-1.266915e+02
9.900000e-07	-3.575165e-06	-1.918549e-09	-2.534150e+01	-1.263951e+02
1.000000e-06	-3.540311e-06	-1.915677e-09	-2.509444e+01	-1.260973e+02
1.010000e-06	-3.505041e-06	-1.915741e-09	-2.484444e+01	-1.257967e+02
1.020000e-06	-3.469470e-06	-1.921464e-09	-2.459231e+01	-1.254922e+02
1.030000e-06	-3.433756e-06	-1.923252e-09	-2.433916e+01	-1.251825e+02
1.040000e-06	-3.397884e-06	-1.919785e-09	-2.408489e+01	-1.248663e+02
1.050000e-06	-3.361825e-06	-1.906136e-09	-2.382930e+01	-1.245424e+02
1.060000e-06	-3.325611e-06	-1.891972e-09	-2.357260e+01	-1.242098e+02
1.070000e-06	-3.289254e-06	-1.877129e-09	-2.331490e+01	-1.238678e+02
1.080000e-06	-3.252639e-06	-1.867306e-09	-2.305537e+01	-1.235157e+02
1.090000e-06	-3.215735e-06	-1.859843e-09	-2.279378e+01	-1.231534e+02
1.100000e-06	-3.178538e-06	-1.860456e-09	-2.253013e+01	-1.227810e+02
1.110000e-06	-3.141029e-06	-1.860446e-09	-2.226425e+01	-1.223990e+02
1.120000e-06	-3.103317e-06	-1.858740e-09	-2.199694e+01	-1.220079e+02
1.130000e-06	-3.065483e-06	-1.849919e-09	-2.172876e+01	-1.216089e+02
1.140000e-06	-3.027460e-06	-1.840651e-09	-2.145925e+01	-1.212029e+02
1.150000e-06	-2.989195e-06	-1.830555e-09	-2.118802e+01	-1.207911e+02
1.160000e-06	-2.950785e-06	-1.820135e-09	-2.091577e+01	-1.203749e+02
1.170000e-06	-2.912228e-06	-1.808409e-09	-2.064246e+01	-1.199554e+02
1.180000e-06	-2.873380e-06	-1.798965e-09	-2.036710e+01	-1.195337e+02
1.190000e-06	-2.834336e-06	-1.793192e-09	-2.009035e+01	-1.191105e+02
1.200000e-06	-2.795008e-06	-1.794686e-09	-1.981159e+01	-1.186866e+02
1.210000e-06	-2.755459e-06	-1.795987e-09	-1.953125e+01	-1.182622e+02
1.220000e-06	-2.715865e-06	-1.792328e-09	-1.925060e+01	-1.178374e+02
1.230000e-06	-2.676112e-06	-1.784875e-09	-1.896882e+01	-1.174119e+02
1.240000e-06	-2.636224e-06	-1.775489e-09	-1.868609e+01	-1.169852e+02
1.250000e-06	-2.596255e-06	-1.765823e-09	-1.840278e+01	-1.165565e+02
1.260000e-06	-2.556182e-06	-1.753156e-09	-1.811874e+01	-1.161248e+02
1.270000e-06	-2.515968e-06	-1.741504e-09	-1.783369e+01	-1.156891e+02
1.280000e-06	-2.475666e-06	-1.734811e-09	-1.754802e+01	-1.152482e+02
1.290000e-06	-2.435251e-06	-1.732307e-09	-1.726155e+01	-1.148012e+02
1.300000e-06	-2.394688e-06	-1.727391e-09	-1.697403e+01	-1.143470e+02
1.310000e-06	-2.353978e-06	-1.719859e-09	-1.668547e+01	-1.138849e+02
1.320000e-06	-2.312953e-06	-1.711546e-09	-1.639468e+01	-1.134145e+02
1.330000e-06	-2.271642e-06	-1.704421e-09	-1.610186e+01	-1.129354e+02
1.340000e-06	-2.230110e-06	-1.697978e-09	-1.580747e+01	-1.124477e+02
1.350000e-06	-2.188204e-06	-1.691379e-09	-1.551043e+01	-1.119517e+02
1.360000e-06	-2.146018e-06	-1.680519e-09	-1.521141e+01	-1.114482e+02
1.370000e-06	-2.103601e-06	-1.670166e-09	-1.491075e+01	-1.109379e+02
1.380000e-06	-2.060862e-06	-1.661762e-09	-1.460780e+01	-1.104218e+02
1.390000e-06	-2.017858e-06	-1.655519e-09	-1.430298e+01	-1.099011e+02
1.400000e-06	-1.974706e-06	-1.648039e-09	-1.399711e+01	-1.093768e+02
1.410000e-06	-1.931460e-06	-1.641944e-09	-1.369058e+01	-1.088501e+02
1.420000e-06	-1.888025e-06	-1.638727e-09	-1.338270e+01	-1.083217e+02
1.430000e-06	-1.844455e-06	-1.638361e-09	-1.307387e+01	-1.077924e+02
1.440000e-06	-1.800768e-06	-1.632751e-09	-1.276421e+01	-1.072624e+02
1.450000e-06	-1.756915e-06	-1.620783e-09	-1.245337e+01	-1.067316e+02
1.460000e-06	-1.713052e-06	-1.608413e-09	-1.214246e+01	-1.061996e+02
1.470000e-06	-1.669156e-06	-1.599283e-09	-1.183132e+01	-1.056657e+02
1.480000e-06	-1.625158e-06	-1.591805e-09	-1.151945e+01	-1.051284e+02
1.490000e-06	-1.581094e-06	-1.588177e-09	-1.120711e+01	-1.045864e+02
1.500000e-06	-1.536945e-06	-1.584184e-09	-1.089418e+01	-1.040376e+02
1.510000e-06	-1.492706e-06	-1.577638e-09	-1.058060e+01	-1.034800e+02
1.520000e-06	-1.448422e-06	-1.565461e-09	-1.026671e+01	-1.029116e+02
1.530000e-06	-1.403990e-06	-1.547557e-09	-9.951765e+00	-1.023299e+02
1.540000e-06	-1.359334e-06	-1.528645e-09	-9.635237e+00	-1.017331e+02
1.550000e-06	-1.314660e-06	-1.514544e-09	-9.318576e+00	-1.011191e+02
1.560000e-06	-1.270009e-06	-1.505747e-09	-9.002083e+00	-1.004864e+02
1.570000e-06	-1.225282e-06	-1.500860e-09	-8.685044e+00	-9.983373e+01
1.580000e-06	-1.180519e-06	-1.496109e-09	-8.367761e+00	-9.916034e+01
1.590000e-06	-1.135736e-06	-1.488003e-09	-8.050328e+00	-9.846585e+01
1.600000e-06	-1.090880e-06	-1.474816e-09	-7.732380e+00	-9.775043e+01
1.610000e-06	-1.045906e-06	-1.455826e-09	-7.413592e+00	-9.701464e+01
1.620000e-06	-1.000761e-06	-1.437149e-09	-7.093600e+00	-9.625950e+01
1.630000e-06	-9.554682e-07	-1.423322e-09	-6.772553e+00	-9.548635e+01
1.640000e-06	-9.101421e-07	-1.415870e-09	-6.451272e+00	-9.469676e+01
1.650000e-06	-8.647791e-07	-1.409242e-09	-6.129729e+00	-9.389247e+01
1.660000e-06	-8.193719e-07	-1.398046e-09	-5.807874e+00	-9.307523e+01
1.670000e-06	-7.739884e-07	-1.384330e-09	-5.486187e+00	-9.224672e+01
1.680000e-06	-7.285687e-07	-1.371256e-09	-5.164243e+00	-9.140838e+01
1.690000e-06	-6.829775e-07	-1.354187e-09	-4.841083e+00	-9.056134e+01
1.700000e-06	-6.373165e-07	-1.335481e-09	-4.517429e+00	-8.970632e+01
1.710000e-06	-5.916960e-07	-1.320209e-09	-4.194061e+00	-8.884354e+01
1.720000e-06	-5.460052e-07	-1.313691e-09	-3.870196e+00	-8.797271e+01
1.730000e-06	-5.002542e-07	-1.308520e-09	-3.545903e+00	-8.709295e+01
1.740000e-06	-4.544676e-07	-1.298137e-09	-3.221358e+00	-8.620284e+01
1.750000e-06	-4.086699e-07	-1.282506e-09	-2.896735e+00	-8.530044e+01
1.760000e-06	-3.628302e-07	-1.266760e-09	-2.571814e+00	-8.438336e+01
1.770000e-06	-3.169801e-07	-1.247778e-09	-2.246819e+00	-8.344882e+01
1.780000e-06	-2.711106e-07	-1.226264e-09	-1.921687e+00	-8.249378e+01
1.790000e-06	-2.251726e-07	-1.207324e-09	-1.596069e+00	-8.151501e+01
1.800000e-06	-1.791989e-07	-1.192556e-09	-1.270198e+00	-8.050927e+01
1.810000e-06	-1.332353e-07	-1.178836e-09	-9.443985e-01	-7.947337e+01
1.820000e-06	-8.736088e-08	-1.162718e-09	-6.192317e-01	-7.840432e+01
1.830000e-06	-4.145096e-08	-1.146486e-09	-2.938128e-01	-7.729940e+01
1.840000e-06	4.470959e-09	-1.129981e-09	3.169107e-02	-7.615628e+01
1.850000e-06	5.039329e-08	-1.112333e-09	3.571979e-01	-7.497304e+01
1.860000e-06	9.639111e-08	-1.091989e-09	6.832397e-01	-7.374826e+01
1.870000e-06	1.423811e-07	-1.072667e-09	1.009226e+00	-7.248095e+01
1.880000e-06	1.882867e-07	-1.054778e-09	1.334615e+00	-7.117062e+01
1.890000e-06	2.341832e-07	-1.033641e-09	1.659938e+00	-6.981718e+01
1.900000e-06	2.801255e-07	-1.007804e-09	1.985587e+00	-6.842093e+01
1.910000e-06	3.260393e-07	-9.803949e-10	2.311032e+00	-6.698241e+01
1.920000e-06	3.719045e-07	-9.581452e-10	2.636135e+00	-6.550242e+01
1.930000e-06	4.177963e-07	-9.400807e-10	2.961425e+00	-6.398182e+01
1.940000e-06	4.636465e-07	-9.179909e-10	3.286420e+00	-6.242150e+01
1.950000e-06	5.093783e-07	-8.930953e-10	3.610577e+00	-6.082226e+01
1.960000e-06	5.550930e-07	-8.684266e-10	3.934612e+00	-5.918476e+01
1.970000e-06	6.008516e-07	-8.418849e-10	4.258958e+00	-5.750944e+01
1.980000e-06	6.465609e-07	-8.109626e-10	4.582955e+00	-5.579644e+01
1.990000e-06	6.921178e-07	-7.777045e-10	4.905872e+00	-5.404565e+01
2.000000e-06	7.375625e-07	-7.482657e-10	5.227993e+00	-5.225664e+01
2.010000e-06	7.830615e-07	-7.248784e-10	5.550499e+00	-5.042872e+01
2.020000e-06	8.285632e-07	-7.009849e-10	5.873024e+00	-4.856096e+01
2.030000e-06	8.738737e-07	-6.725793e-10	6.194194e+00	-4.665223e+01
2.040000e-06	9.190553e-07	-6.418230e-10	6.514451e+00	-4.470132e+01
2.050000e-06	9.642340e-07	-6.106113e-10	6.834686e+00	-4.270694e+01
2.060000e-06	1.009405e-06	-5.761766e-10	7.154868e+00	-4.066787e+01
2.070000e-06	1.054527e-06	-5.376946e-10	7.474702e+00	-3.858299e+01
2.080000e-06	1.099571e-06	-5.014431e-10	7.793981e+00	-3.645139e+01
2.090000e-06	1.144515e-06	-4.704960e-10	8.112556e+00	-3.427239e+01
2.100000e-06	1.189342e-06	-4.412397e-10	8.430297e+00	-3.204562e+01
2.110000e-06	1.234040e-06	-4.097303e-10	8.747129e+00	-2.977104e+01
2.120000e-06	1.278605e-06	-3.747226e-10	9.063013e+00	-2.744894e+01
2.130000e-06	1.323086e-06	-3.381556e-10	9.378301e+00	-2.507998e+01
2.140000e-06	1.367516e-06	-3.010464e-10	9.693233e+00	-2.266512e+01
2.150000e-06	1.411878e-06	-2.631617e-10	1.000768e+01	-2.020559e+01
2.160000e-06	1.456166e-06	-2.258087e-10	1.032160e+01	-1.770289e+01
2.170000e-06	1.500331e-06	-1.886591e-10	1.063465e+01	-1.515866e+01
2.180000e-06	1.544443e-06	-1.521124e-10	1.094733e+01	-1.257471e+01
2.190000e-06	1.588528e-06	-1.155106e-10	1.125981e+01	-9.952884e+00
2.200000e-06	1.632572e-06	-7.692253e-11	1.157200e+01	-7.295061e+00
2.210000e-06	1.676567e-06	-3.578456e-11	1.188384e+01	-4.603089e+00
2.220000e-06	1.720462e-06	6.491255e-12	1.219499e+01	-1.878767e+00
2.230000e-06	1.764258e-06	5.012098e-11	1.250542e+01	8.761759e-01
2.240000e-06	1.807968e-06	9.557682e-11	1.281524e+01	3.660074e+00
2.250000e-06	1.851628e-06	1.384160e-10	1.312472e+01	6.471308e+00
2.260000e-06	1.895217e-06	1.795812e-10	1.343368e+01	9.308271e+00
2.270000e-06	1.938583e-06	2.211076e-10	1.374107e+01	1.216933e+01
2.280000e-06	1.981747e-06	2.646661e-10	1.404702e+01	1.505274e+01
2.290000e-06	2.024693e-06	3.088412e-10	1.435143e+01	1.795665e+01
2.300000e-06	2.067373e-06	3.515531e-10	1.465396e+01	2.087895e+01
2.310000e-06	2.109914e-06	3.956026e-10	1.495550e+01	2.381729e+01
2.320000e-06	2.152275e-06	4.416285e-10	1.525576e+01	2.676899e+01
2.330000e-06	2.194402e-06	4.860382e-10	1.555436e+01	2.973100e+01
2.340000e-06	2.236237e-06	5.276527e-10	1.585090e+01	3.269991e+01
2.350000e-06	2.277761e-06	5.694896e-10	1.614523e+01	3.567190e+01
2.360000e-06	2.318986e-06	6.136465e-10	1.643745e+01	3.864280e+01
2.370000e-06	2.359826e-06	6.579054e-10	1.672693e+01	4.160810e+01
2.380000e-06	2.400438e-06	7.008936e-10	1.701479e+01	4.456304e+01
2.390000e-06	2.440977e-06	7.464002e-10	1.730214e+01	4.750263e+01
2.400000e-06	2.481386e-06	7.923639e-10	1.758857e+01	5.042180e+01
2.410000e-06	2.521640e-06	8.349968e-10	1.787390e+01	5.331546e+01
2.420000e-06	2.561755e-06	8.767715e-10	1.815824e+01	5.617863e+01
2.430000e-06	2.601788e-06	9.213842e-10	1.844200e+01	5.900650e+01
2.440000e-06	2.641715e-06	9.662905e-10	1.872501e+01	6.179461e+01
2.450000e-06	2.681549e-06	1.008432e-09	1.900737e+01	6.453886e+01
2.460000e-06	2.721274e-06	1.048067e-09	1.928894e+01	6.723563e+01
2.470000e-06	2.760803e-06	1.085050e-09	1.956913e+01	6.988180e+01
2.480000e-06	2.800137e-06	1.121989e-09	1.984794e+01	7.247483e+01
2.490000e-06	2.839220e-06	1.158656e-09	2.012497e+01	7.501272e+01
2.500000e-06	2.878078e-06	1.194544e-09	2.040040e+01	7.749403e+01
2.510000e-06	2.916777e-06	1.233769e-09	2.067471e+01	7.991782e+01
2.520000e-06	2.955218e-06	1.277658e-09	2.094718e+01	8.228361e+01
2.530000e-06	2.993372e-06	1.320431e-09	2.121763e+01	8.459131e+01
2.540000e-06	3.031374e-06	1.355467e-09	2.148700e+01	8.684112e+01
2.550000e-06	3.069255e-06	1.382438e-09	2.175550e+01	8.903344e+01
2.560000e-06	3.106989e-06	1.407502e-09	2.202297e+01	9.116881e+01
2.570000e-06	3.144497e-06	1.434515e-09	2.228884e+01	9.324776e+01
2.580000e-06	3.181733e-06	1.463255e-09	2.255277e+01	9.527081e+01
2.590000e-06	3.218736e-06	1.493550e-09	2.281506e+01	9.723835e+01
2.600000e-06	3.255517e-06	1.525388e-09	2.307576e+01	9.915062e+01
2.610000e-06	3.292054e-06	1.560839e-09	2.333474e+01	1.010077e+02
2.620000e-06	3.328374e-06	1.596485e-09	2.359219e+01	1.028094e+02
2.630000e-06	3.364559e-06	1.623637e-09	2.384868e+01	1.045554e+02
2.640000e-06	3.400608e-06	1.642127e-09	2.410420e+01	1.062455e+02
2.650000e-06	3.436480e-06	1.658059e-09	2.435847e+01	1.078790e+02
2.660000e-06	3.472167e-06	1.673602e-09	2.461142e+01	1.094555e+02
2.670000e-06	3.507597e-06	1.690393e-09	2.486256e+01	1.109746e+02
2.680000e-06	3.542796e-06	1.710556e-09	2.511206e+01	1.124360e+02
2.690000e-06	3.577831e-06	1.735362e-09	2.536040e+01	1.138398e+02
2.700000e-06	3.612503e-06	1.766436e-09	2.560616e+01	1.151863e+02
2.710000e-06	3.646638e-06	1.796503e-09	2.584811e+01	1.164761e+02
2.720000e-06	3.680252e-06	1.816818e-09	2.608638e+01	1.177103e+02
2.730000e-06	3.713489e-06	1.831613e-09	2.632196e+01	1.188904e+02
2.740000e-06	3.746445e-06	1.844261e-09	2.655556e+01	1.200183e+02
2.750000e-06	3.779084e-06	1.855006e-09	2.678692e+01	1.210963e+02
2.760000e-06	3.811452e-06	1.865095e-09	2.701635e+01	1.221270e+02
2.770000e-06	3.843680e-06	1.877000e-09	2.724478e+01	1.231133e+02
2.780000e-06	3.875751e-06	1.894841e-09	2.747211e+01	1.240583e+02
2.790000e-06	3.907592e-06	1.914206e-09	2.769781e+01	1.249652e+02
2.800000e-06	3.939221e-06	1.927444e-09	2.792199e+01	1.258371e+02
2.810000e-06	3.970572e-06	1.936048e-09	2.814422e+01	1.266770e+02
2.820000e-06	4.001648e-06	1.945442e-09	2.836450e+01	1.274877e+02
2.830000e-06	4.032423e-06	1.956945e-09	2.858263e+01	1.282717e+02
2.840000e-06	4.062876e-06	1.967270e-09	2.879849e+01	1.290311e+02
2.850000e-06	4.093070e-06	1.975859e-09	2.901251e+01	1.297674e+02
2.860000e-06	4.123005e-06	1.985459e-09	2.922469e+01	1.304819e+02
2.870000e-06	4.152708e-06	1.997887e-09	2.943524e+01	1.311752e+02
2.880000e-06	4.182095e-06	2.009714e-09	2.964354e+01	1.318476e+02
2.890000e-06	4.211170e-06	2.016603e-09	2.984963e+01	1.324988e+02
2.900000e-06	4.239989e-06	2.023256e-09	3.005390e+01	1.331283e+02
