# Temperatura_=_17.8
# Concentracion g/m^3_=_4090.0
# C_Vs_to_Am_M_A/Vsm_=_65563218390.804596
# pendiente_HvsI_1/m_=_3716.3
# ordenada_HvsI_A/m_=_1297.0
# frecuencia_Hz_=_135087.0224204788

Tiempo_(s)	Campo_(V.s)	Magnetizacion_(V.s)	Campo_(kA/m)	Magnetizacion_(A/m)
0.000000e+00	-5.421774e-06	-1.213635e-09	-3.838273e+01	-8.532612e+01
1.000000e-08	-5.421954e-06	-1.216206e-09	-3.838400e+01	-8.521620e+01
2.000000e-08	-5.421926e-06	-1.215962e-09	-3.838380e+01	-8.508365e+01
3.000000e-08	-5.421593e-06	-1.210927e-09	-3.838144e+01	-8.492728e+01
4.000000e-08	-5.420907e-06	-1.207708e-09	-3.837659e+01	-8.474701e+01
5.000000e-08	-5.419709e-06	-1.206648e-09	-3.836810e+01	-8.454404e+01
6.000000e-08	-5.417869e-06	-1.208622e-09	-3.835508e+01	-8.432085e+01
7.000000e-08	-5.415513e-06	-1.218811e-09	-3.833840e+01	-8.408120e+01
8.000000e-08	-5.412580e-06	-1.213839e-09	-3.831764e+01	-8.383011e+01
9.000000e-08	-5.409070e-06	-1.152218e-09	-3.829279e+01	-8.357368e+01
1.000000e-07	-5.405128e-06	-1.160016e-09	-3.826488e+01	-8.331890e+01
1.100000e-07	-5.400865e-06	-1.276807e-09	-3.823470e+01	-8.307343e+01
1.200000e-07	-5.396363e-06	-1.297128e-09	-3.820283e+01	-8.284530e+01
1.300000e-07	-5.391643e-06	-1.123512e-09	-3.816942e+01	-8.264257e+01
1.400000e-07	-5.386573e-06	-1.106890e-09	-3.813353e+01	-8.247303e+01
1.500000e-07	-5.381007e-06	-1.272362e-09	-3.809412e+01	-8.234380e+01
1.600000e-07	-5.375086e-06	-1.348540e-09	-3.805220e+01	-8.226106e+01
1.700000e-07	-5.368713e-06	-1.101635e-09	-3.800709e+01	-8.222973e+01
1.800000e-07	-5.361933e-06	-1.055256e-09	-3.795909e+01	-8.225322e+01
1.900000e-07	-5.354759e-06	-1.253373e-09	-3.790830e+01	-8.233320e+01
2.000000e-07	-5.347248e-06	-1.330625e-09	-3.785513e+01	-8.246954e+01
2.100000e-07	-5.339635e-06	-1.169739e-09	-3.780123e+01	-8.266019e+01
2.200000e-07	-5.331804e-06	-1.170164e-09	-3.774579e+01	-8.290126e+01
2.300000e-07	-5.323689e-06	-1.332540e-09	-3.768835e+01	-8.318709e+01
2.400000e-07	-5.315233e-06	-1.297404e-09	-3.762848e+01	-8.351042e+01
2.500000e-07	-5.306181e-06	-1.209281e-09	-3.756440e+01	-8.386270e+01
2.600000e-07	-5.296574e-06	-1.308672e-09	-3.749639e+01	-8.423433e+01
2.700000e-07	-5.286409e-06	-1.424370e-09	-3.742443e+01	-8.461504e+01
2.800000e-07	-5.275543e-06	-1.301274e-09	-3.734750e+01	-8.499427e+01
2.900000e-07	-5.264286e-06	-1.276680e-09	-3.726781e+01	-8.536156e+01
3.000000e-07	-5.252680e-06	-1.401071e-09	-3.718565e+01	-8.570693e+01
3.100000e-07	-5.240669e-06	-1.400783e-09	-3.710061e+01	-8.602125e+01
3.200000e-07	-5.228263e-06	-1.248116e-09	-3.701279e+01	-8.629654e+01
3.300000e-07	-5.215425e-06	-1.329317e-09	-3.692190e+01	-8.652627e+01
3.400000e-07	-5.202128e-06	-1.424752e-09	-3.682777e+01	-8.670553e+01
3.500000e-07	-5.188483e-06	-1.364344e-09	-3.673117e+01	-8.683118e+01
3.600000e-07	-5.174561e-06	-1.300486e-09	-3.663261e+01	-8.690192e+01
3.700000e-07	-5.160199e-06	-1.390774e-09	-3.653094e+01	-8.691821e+01
3.800000e-07	-5.145246e-06	-1.354954e-09	-3.642508e+01	-8.688220e+01
3.900000e-07	-5.129828e-06	-1.299928e-09	-3.631593e+01	-8.679758e+01
4.000000e-07	-5.113899e-06	-1.337518e-09	-3.620316e+01	-8.666928e+01
4.100000e-07	-5.097410e-06	-1.362927e-09	-3.608643e+01	-8.650326e+01
4.200000e-07	-5.080525e-06	-1.295422e-09	-3.596690e+01	-8.630613e+01
4.300000e-07	-5.063347e-06	-1.337913e-09	-3.584529e+01	-8.608490e+01
4.400000e-07	-5.045949e-06	-1.391225e-09	-3.572212e+01	-8.584657e+01
4.500000e-07	-5.028197e-06	-1.327200e-09	-3.559645e+01	-8.559785e+01
4.600000e-07	-5.010118e-06	-1.287375e-09	-3.546846e+01	-8.534489e+01
4.700000e-07	-4.991735e-06	-1.341959e-09	-3.533832e+01	-8.509302e+01
4.800000e-07	-4.972872e-06	-1.343354e-09	-3.520478e+01	-8.484657e+01
4.900000e-07	-4.953567e-06	-1.295012e-09	-3.506811e+01	-8.460872e+01
5.000000e-07	-4.934013e-06	-1.305842e-09	-3.492969e+01	-8.438147e+01
5.100000e-07	-4.914232e-06	-1.315333e-09	-3.478965e+01	-8.416565e+01
5.200000e-07	-4.894210e-06	-1.317869e-09	-3.464791e+01	-8.396093e+01
5.300000e-07	-4.873934e-06	-1.318282e-09	-3.450437e+01	-8.376602e+01
5.400000e-07	-4.853339e-06	-1.305895e-09	-3.435857e+01	-8.357877e+01
5.500000e-07	-4.832425e-06	-1.277146e-09	-3.421051e+01	-8.339640e+01
5.600000e-07	-4.811111e-06	-1.306781e-09	-3.405962e+01	-8.321577e+01
5.700000e-07	-4.789390e-06	-1.312929e-09	-3.390585e+01	-8.303355e+01
5.800000e-07	-4.767439e-06	-1.287070e-09	-3.375045e+01	-8.284651e+01
5.900000e-07	-4.745207e-06	-1.268687e-09	-3.359306e+01	-8.265170e+01
6.000000e-07	-4.722598e-06	-1.289510e-09	-3.343300e+01	-8.244666e+01
6.100000e-07	-4.699706e-06	-1.288644e-09	-3.327094e+01	-8.222960e+01
6.200000e-07	-4.676606e-06	-1.283337e-09	-3.310741e+01	-8.199945e+01
6.300000e-07	-4.653192e-06	-1.259317e-09	-3.294165e+01	-8.175597e+01
6.400000e-07	-4.629406e-06	-1.261412e-09	-3.277326e+01	-8.149970e+01
6.500000e-07	-4.605411e-06	-1.277532e-09	-3.260339e+01	-8.123198e+01
6.600000e-07	-4.581193e-06	-1.286190e-09	-3.243194e+01	-8.095483e+01
6.700000e-07	-4.556654e-06	-1.256006e-09	-3.225823e+01	-8.067080e+01
6.800000e-07	-4.531786e-06	-1.250993e-09	-3.208217e+01	-8.038286e+01
6.900000e-07	-4.506516e-06	-1.260939e-09	-3.190328e+01	-8.009416e+01
7.000000e-07	-4.480682e-06	-1.260391e-09	-3.172039e+01	-7.980790e+01
7.100000e-07	-4.454236e-06	-1.239428e-09	-3.153317e+01	-7.952710e+01
7.200000e-07	-4.427266e-06	-1.234041e-09	-3.134224e+01	-7.925445e+01
7.300000e-07	-4.399931e-06	-1.242108e-09	-3.114872e+01	-7.899214e+01
7.400000e-07	-4.372332e-06	-1.253795e-09	-3.095334e+01	-7.874175e+01
7.500000e-07	-4.344523e-06	-1.245145e-09	-3.075647e+01	-7.850418e+01
7.600000e-07	-4.316616e-06	-1.229610e-09	-3.055891e+01	-7.827959e+01
7.700000e-07	-4.288420e-06	-1.230352e-09	-3.035930e+01	-7.806738e+01
7.800000e-07	-4.259896e-06	-1.234520e-09	-3.015736e+01	-7.786628e+01
7.900000e-07	-4.231137e-06	-1.225037e-09	-2.995377e+01	-7.767441e+01
8.000000e-07	-4.202083e-06	-1.208687e-09	-2.974808e+01	-7.748939e+01
8.100000e-07	-4.172731e-06	-1.208240e-09	-2.954029e+01	-7.730845e+01
8.200000e-07	-4.143102e-06	-1.213968e-09	-2.933053e+01	-7.712867e+01
8.300000e-07	-4.113194e-06	-1.217098e-09	-2.911881e+01	-7.694705e+01
8.400000e-07	-4.083006e-06	-1.204219e-09	-2.890510e+01	-7.676071e+01
8.500000e-07	-4.052509e-06	-1.198814e-09	-2.868920e+01	-7.656707e+01
8.600000e-07	-4.021669e-06	-1.200091e-09	-2.847087e+01	-7.636392e+01
8.700000e-07	-3.990604e-06	-1.206345e-09	-2.825095e+01	-7.614958e+01
8.800000e-07	-3.959320e-06	-1.193957e-09	-2.802948e+01	-7.592294e+01
8.900000e-07	-3.927763e-06	-1.186560e-09	-2.780607e+01	-7.568349e+01
9.000000e-07	-3.896064e-06	-1.184210e-09	-2.758166e+01	-7.543135e+01
9.100000e-07	-3.864247e-06	-1.189217e-09	-2.735642e+01	-7.516722e+01
9.200000e-07	-3.832262e-06	-1.180206e-09	-2.712998e+01	-7.489233e+01
9.300000e-07	-3.800048e-06	-1.172741e-09	-2.690193e+01	-7.460831e+01
9.400000e-07	-3.767512e-06	-1.174782e-09	-2.667160e+01	-7.431712e+01
9.500000e-07	-3.734600e-06	-1.186407e-09	-2.643860e+01	-7.402089e+01
9.600000e-07	-3.701231e-06	-1.185257e-09	-2.620237e+01	-7.372182e+01
9.700000e-07	-3.667395e-06	-1.174638e-09	-2.596283e+01	-7.342203e+01
9.800000e-07	-3.633205e-06	-1.163792e-09	-2.572079e+01	-7.312343e+01
9.900000e-07	-3.598734e-06	-1.163106e-09	-2.547676e+01	-7.282767e+01
1.000000e-06	-3.563944e-06	-1.155694e-09	-2.523046e+01	-7.253598e+01
1.010000e-06	-3.528835e-06	-1.146934e-09	-2.498191e+01	-7.224920e+01
1.020000e-06	-3.493402e-06	-1.143704e-09	-2.473107e+01	-7.196770e+01
1.030000e-06	-3.457722e-06	-1.148734e-09	-2.447848e+01	-7.169141e+01
1.040000e-06	-3.421889e-06	-1.149638e-09	-2.422480e+01	-7.141984e+01
1.050000e-06	-3.385914e-06	-1.141445e-09	-2.397012e+01	-7.115216e+01
1.060000e-06	-3.349775e-06	-1.128909e-09	-2.371428e+01	-7.088724e+01
1.070000e-06	-3.313422e-06	-1.119194e-09	-2.345693e+01	-7.062379e+01
1.080000e-06	-3.276820e-06	-1.112802e-09	-2.319781e+01	-7.036041e+01
1.090000e-06	-3.240035e-06	-1.104074e-09	-2.293740e+01	-7.009574e+01
1.100000e-06	-3.203080e-06	-1.099264e-09	-2.267578e+01	-6.982850e+01
1.110000e-06	-3.165838e-06	-1.101630e-09	-2.241213e+01	-6.955764e+01
1.120000e-06	-3.128313e-06	-1.107388e-09	-2.214647e+01	-6.928234e+01
1.130000e-06	-3.090524e-06	-1.101275e-09	-2.187895e+01	-6.900211e+01
1.140000e-06	-3.052604e-06	-1.091420e-09	-2.161050e+01	-6.871676e+01
1.150000e-06	-3.014550e-06	-1.084543e-09	-2.134110e+01	-6.842647e+01
1.160000e-06	-2.976247e-06	-1.083975e-09	-2.106994e+01	-6.813170e+01
1.170000e-06	-2.937757e-06	-1.076509e-09	-2.079746e+01	-6.783314e+01
1.180000e-06	-2.899043e-06	-1.065550e-09	-2.052339e+01	-6.753172e+01
1.190000e-06	-2.859978e-06	-1.055760e-09	-2.024684e+01	-6.722843e+01
1.200000e-06	-2.820656e-06	-1.056214e-09	-1.996846e+01	-6.692433e+01
1.210000e-06	-2.781232e-06	-1.056748e-09	-1.968936e+01	-6.662038e+01
1.220000e-06	-2.741714e-06	-1.053594e-09	-1.940960e+01	-6.631740e+01
1.230000e-06	-2.702065e-06	-1.047269e-09	-1.912891e+01	-6.601602e+01
1.240000e-06	-2.662265e-06	-1.045059e-09	-1.884715e+01	-6.571654e+01
1.250000e-06	-2.622326e-06	-1.040938e-09	-1.856441e+01	-6.541899e+01
1.260000e-06	-2.582271e-06	-1.033339e-09	-1.828084e+01	-6.512302e+01
1.270000e-06	-2.542103e-06	-1.021250e-09	-1.799648e+01	-6.482797e+01
1.280000e-06	-2.501780e-06	-1.015446e-09	-1.771102e+01	-6.453289e+01
1.290000e-06	-2.461350e-06	-1.014924e-09	-1.742480e+01	-6.423654e+01
1.300000e-06	-2.420883e-06	-1.012070e-09	-1.713831e+01	-6.393754e+01
1.310000e-06	-2.380149e-06	-1.002531e-09	-1.684995e+01	-6.363436e+01
1.320000e-06	-2.339082e-06	-9.949134e-10	-1.655922e+01	-6.332548e+01
1.330000e-06	-2.297811e-06	-9.922962e-10	-1.626705e+01	-6.300944e+01
1.340000e-06	-2.256303e-06	-9.886860e-10	-1.597319e+01	-6.268497e+01
1.350000e-06	-2.214487e-06	-9.817639e-10	-1.567717e+01	-6.235102e+01
1.360000e-06	-2.172465e-06	-9.760186e-10	-1.537968e+01	-6.200686e+01
1.370000e-06	-2.130204e-06	-9.719080e-10	-1.508049e+01	-6.165210e+01
1.380000e-06	-2.087570e-06	-9.663230e-10	-1.477868e+01	-6.128676e+01
1.390000e-06	-2.044721e-06	-9.590815e-10	-1.447533e+01	-6.091121e+01
1.400000e-06	-2.001727e-06	-9.509341e-10	-1.417096e+01	-6.052620e+01
1.410000e-06	-1.958550e-06	-9.446298e-10	-1.386530e+01	-6.013277e+01
1.420000e-06	-1.915130e-06	-9.373426e-10	-1.355790e+01	-5.973223e+01
1.430000e-06	-1.871525e-06	-9.303367e-10	-1.324921e+01	-5.932602e+01
1.440000e-06	-1.827820e-06	-9.250193e-10	-1.293980e+01	-5.891568e+01
1.450000e-06	-1.784039e-06	-9.227792e-10	-1.262987e+01	-5.850270e+01
1.460000e-06	-1.740193e-06	-9.177044e-10	-1.231946e+01	-5.808844e+01
1.470000e-06	-1.696271e-06	-9.110843e-10	-1.200852e+01	-5.767402e+01
1.480000e-06	-1.652288e-06	-9.033675e-10	-1.169715e+01	-5.726028e+01
1.490000e-06	-1.608258e-06	-8.980437e-10	-1.138545e+01	-5.684766e+01
1.500000e-06	-1.564132e-06	-8.924489e-10	-1.107306e+01	-5.643621e+01
1.510000e-06	-1.519883e-06	-8.865994e-10	-1.075981e+01	-5.602553e+01
1.520000e-06	-1.475610e-06	-8.790037e-10	-1.044639e+01	-5.561481e+01
1.530000e-06	-1.431319e-06	-8.713463e-10	-1.013283e+01	-5.520282e+01
1.540000e-06	-1.386963e-06	-8.636322e-10	-9.818823e+00	-5.478802e+01
1.550000e-06	-1.342463e-06	-8.546074e-10	-9.503791e+00	-5.436857e+01
1.560000e-06	-1.297790e-06	-8.434544e-10	-9.187531e+00	-5.394248e+01
1.570000e-06	-1.253066e-06	-8.341851e-10	-8.870916e+00	-5.350766e+01
1.580000e-06	-1.208288e-06	-8.278422e-10	-8.553913e+00	-5.306206e+01
1.590000e-06	-1.163432e-06	-8.234045e-10	-8.236365e+00	-5.260374e+01
1.600000e-06	-1.118501e-06	-8.172335e-10	-7.918280e+00	-5.213098e+01
1.610000e-06	-1.073462e-06	-8.110900e-10	-7.599432e+00	-5.164238e+01
1.620000e-06	-1.028305e-06	-8.032214e-10	-7.279748e+00	-5.113686e+01
1.630000e-06	-9.829863e-07	-7.928177e-10	-6.958920e+00	-5.061375e+01
1.640000e-06	-9.376008e-07	-7.811234e-10	-6.637619e+00	-5.007279e+01
1.650000e-06	-8.922116e-07	-7.711781e-10	-6.316293e+00	-4.951409e+01
1.660000e-06	-8.467132e-07	-7.619246e-10	-5.994193e+00	-4.893815e+01
1.670000e-06	-8.011504e-07	-7.544715e-10	-5.671637e+00	-4.834572e+01
1.680000e-06	-7.555758e-07	-7.474934e-10	-5.348998e+00	-4.773778e+01
1.690000e-06	-7.099790e-07	-7.372126e-10	-5.026201e+00	-4.711543e+01
1.700000e-06	-6.643675e-07	-7.270383e-10	-4.703301e+00	-4.647978e+01
1.710000e-06	-6.187360e-07	-7.173507e-10	-4.380259e+00	-4.583186e+01
1.720000e-06	-5.730387e-07	-7.054946e-10	-4.056751e+00	-4.517248e+01
1.730000e-06	-5.272382e-07	-6.935301e-10	-3.732512e+00	-4.450220e+01
1.740000e-06	-4.813669e-07	-6.836361e-10	-3.407773e+00	-4.382122e+01
1.750000e-06	-4.354681e-07	-6.722362e-10	-3.082838e+00	-4.312932e+01
1.760000e-06	-3.895646e-07	-6.602316e-10	-2.757871e+00	-4.242585e+01
1.770000e-06	-3.436186e-07	-6.453677e-10	-2.432602e+00	-4.170972e+01
1.780000e-06	-2.976614e-07	-6.319829e-10	-2.107254e+00	-4.097942e+01
1.790000e-06	-2.517438e-07	-6.221011e-10	-1.782187e+00	-4.023307e+01
1.800000e-06	-2.058296e-07	-6.109982e-10	-1.457143e+00	-3.946850e+01
1.810000e-06	-1.598312e-07	-5.944494e-10	-1.131504e+00	-3.868331e+01
1.820000e-06	-1.137605e-07	-5.799720e-10	-8.053522e-01	-3.787502e+01
1.830000e-06	-6.778202e-08	-5.692681e-10	-4.798538e-01	-3.704113e+01
1.840000e-06	-2.190582e-08	-5.574107e-10	-1.550793e-01	-3.617928e+01
1.850000e-06	2.401483e-08	-5.423436e-10	1.700098e-01	-3.528733e+01
1.860000e-06	6.998295e-08	-5.275559e-10	4.954350e-01	-3.436345e+01
1.870000e-06	1.160386e-07	-5.156455e-10	8.214801e-01	-3.340622e+01
1.880000e-06	1.621716e-07	-5.033118e-10	1.148072e+00	-3.241468e+01
1.890000e-06	2.081830e-07	-4.854592e-10	1.473804e+00	-3.138834e+01
1.900000e-06	2.541328e-07	-4.645963e-10	1.799099e+00	-3.032725e+01
1.910000e-06	3.000141e-07	-4.449657e-10	2.123910e+00	-2.923189e+01
1.920000e-06	3.458712e-07	-4.267172e-10	2.448549e+00	-2.810321e+01
1.930000e-06	3.917559e-07	-4.050089e-10	2.773383e+00	-2.694252e+01
1.940000e-06	4.376458e-07	-3.841471e-10	3.098255e+00	-2.575140e+01
1.950000e-06	4.835273e-07	-3.674760e-10	3.423067e+00	-2.453161e+01
1.960000e-06	5.292456e-07	-3.533984e-10	3.746723e+00	-2.328500e+01
1.970000e-06	5.749716e-07	-3.352415e-10	4.070435e+00	-2.201337e+01
1.980000e-06	6.207294e-07	-3.105001e-10	4.394371e+00	-2.071839e+01
1.990000e-06	6.664117e-07	-2.862980e-10	4.717773e+00	-1.940152e+01
2.000000e-06	7.120675e-07	-2.653902e-10	5.040987e+00	-1.806388e+01
2.010000e-06	7.576787e-07	-2.458089e-10	5.363885e+00	-1.670628e+01
2.020000e-06	8.032115e-07	-2.239770e-10	5.686228e+00	-1.532912e+01
2.030000e-06	8.486919e-07	-2.024526e-10	6.008201e+00	-1.393241e+01
2.040000e-06	8.941471e-07	-1.843877e-10	6.329995e+00	-1.251581e+01
2.050000e-06	9.394611e-07	-1.658925e-10	6.650789e+00	-1.107865e+01
2.060000e-06	9.846918e-07	-1.412808e-10	6.970994e+00	-9.619999e+00
2.070000e-06	1.029877e-06	-1.138863e-10	7.290875e+00	-8.138785e+00
2.080000e-06	1.074953e-06	-8.767177e-11	7.609984e+00	-6.633853e+00
2.090000e-06	1.119894e-06	-6.197235e-11	7.928139e+00	-5.104095e+00
2.100000e-06	1.164756e-06	-3.596821e-11	8.245737e+00	-3.548545e+00
2.110000e-06	1.209611e-06	-1.050983e-11	8.563278e+00	-1.966488e+00
2.120000e-06	1.254439e-06	1.411880e-11	8.880635e+00	-3.575486e-01
2.130000e-06	1.299184e-06	3.541001e-11	9.197401e+00	1.278235e+00
2.140000e-06	1.343711e-06	5.741856e-11	9.512623e+00	2.940355e+00
2.150000e-06	1.388130e-06	8.421545e-11	9.827082e+00	4.627801e+00
2.160000e-06	1.432461e-06	1.106447e-10	1.014092e+01	6.339052e+00
2.170000e-06	1.476648e-06	1.355419e-10	1.045373e+01	8.072096e+00
2.180000e-06	1.520809e-06	1.620941e-10	1.076636e+01	9.824462e+00
2.190000e-06	1.564997e-06	1.880909e-10	1.107919e+01	1.159329e+01
2.200000e-06	1.609103e-06	2.133567e-10	1.139143e+01	1.337539e+01
2.210000e-06	1.653113e-06	2.370260e-10	1.170299e+01	1.516737e+01
2.220000e-06	1.697055e-06	2.623981e-10	1.201408e+01	1.696568e+01
2.230000e-06	1.740897e-06	2.908874e-10	1.232445e+01	1.876674e+01
2.240000e-06	1.784718e-06	3.192190e-10	1.263467e+01	2.056705e+01
2.250000e-06	1.828492e-06	3.461231e-10	1.294457e+01	2.236324e+01
2.260000e-06	1.872162e-06	3.730053e-10	1.325372e+01	2.415216e+01
2.270000e-06	1.915738e-06	4.016986e-10	1.356221e+01	2.593094e+01
2.280000e-06	1.959168e-06	4.309206e-10	1.386967e+01	2.769703e+01
2.290000e-06	2.002444e-06	4.588878e-10	1.417603e+01	2.944820e+01
2.300000e-06	2.045510e-06	4.832637e-10	1.448091e+01	3.118257e+01
2.310000e-06	2.088343e-06	5.076075e-10	1.478415e+01	3.289855e+01
2.320000e-06	2.131033e-06	5.325529e-10	1.508636e+01	3.459483e+01
2.330000e-06	2.173461e-06	5.575363e-10	1.538673e+01	3.627033e+01
2.340000e-06	2.215564e-06	5.818211e-10	1.568479e+01	3.792414e+01
2.350000e-06	2.257329e-06	6.054816e-10	1.598046e+01	3.955545e+01
2.360000e-06	2.298739e-06	6.316424e-10	1.627362e+01	4.116351e+01
2.370000e-06	2.339962e-06	6.597578e-10	1.656545e+01	4.274755e+01
2.380000e-06	2.380919e-06	6.860470e-10	1.685540e+01	4.430674e+01
2.390000e-06	2.421590e-06	7.093448e-10	1.714333e+01	4.584020e+01
2.400000e-06	2.462088e-06	7.302956e-10	1.743003e+01	4.734690e+01
2.410000e-06	2.502339e-06	7.506330e-10	1.771497e+01	4.882572e+01
2.420000e-06	2.542433e-06	7.729400e-10	1.799881e+01	5.027543e+01
2.430000e-06	2.582478e-06	7.974515e-10	1.828231e+01	5.169474e+01
2.440000e-06	2.622433e-06	8.231805e-10	1.856516e+01	5.308234e+01
2.450000e-06	2.662310e-06	8.445884e-10	1.884746e+01	5.443690e+01
2.460000e-06	2.702073e-06	8.642795e-10	1.912897e+01	5.575720e+01
2.470000e-06	2.741665e-06	8.838645e-10	1.940925e+01	5.704214e+01
2.480000e-06	2.781118e-06	9.014013e-10	1.968855e+01	5.829083e+01
2.490000e-06	2.820377e-06	9.187999e-10	1.996648e+01	5.950258e+01
2.500000e-06	2.859360e-06	9.350945e-10	2.024246e+01	6.067704e+01
2.510000e-06	2.898181e-06	9.522644e-10	2.051729e+01	6.181413e+01
2.520000e-06	2.936892e-06	9.757828e-10	2.079134e+01	6.291412e+01
2.530000e-06	2.975321e-06	1.001233e-09	2.106339e+01	6.397759e+01
2.540000e-06	3.013482e-06	1.021715e-09	2.133354e+01	6.500544e+01
2.550000e-06	3.051451e-06	1.037128e-09	2.160234e+01	6.599882e+01
2.560000e-06	3.089249e-06	1.048746e-09	2.186992e+01	6.695910e+01
2.570000e-06	3.126876e-06	1.057365e-09	2.213630e+01	6.788784e+01
2.580000e-06	3.164333e-06	1.063424e-09	2.240147e+01	6.878664e+01
2.590000e-06	3.201541e-06	1.070511e-09	2.266488e+01	6.965714e+01
2.600000e-06	3.238504e-06	1.084572e-09	2.292656e+01	7.050091e+01
2.610000e-06	3.275294e-06	1.105819e-09	2.318700e+01	7.131943e+01
2.620000e-06	3.311796e-06	1.126668e-09	2.344542e+01	7.211394e+01
2.630000e-06	3.348059e-06	1.141081e-09	2.370213e+01	7.288549e+01
2.640000e-06	3.384188e-06	1.148909e-09	2.395790e+01	7.363486e+01
2.650000e-06	3.420215e-06	1.155104e-09	2.421296e+01	7.436254e+01
2.660000e-06	3.456129e-06	1.159010e-09	2.446720e+01	7.506875e+01
2.670000e-06	3.491902e-06	1.162016e-09	2.472045e+01	7.575346e+01
2.680000e-06	3.527535e-06	1.166674e-09	2.497271e+01	7.641641e+01
2.690000e-06	3.562872e-06	1.175656e-09	2.522288e+01	7.705718e+01
2.700000e-06	3.597886e-06	1.189344e-09	2.547075e+01	7.767522e+01
2.710000e-06	3.632562e-06	1.204179e-09	2.571624e+01	7.826995e+01
2.720000e-06	3.666662e-06	1.215157e-09	2.595765e+01	7.884080e+01
2.730000e-06	3.700256e-06	1.222579e-09	2.619547e+01	7.938727e+01
2.740000e-06	3.733544e-06	1.230192e-09	2.643113e+01	7.990901e+01
2.750000e-06	3.766465e-06	1.235554e-09	2.666419e+01	8.040587e+01
2.760000e-06	3.798972e-06	1.238769e-09	2.689431e+01	8.087791e+01
2.770000e-06	3.831205e-06	1.242029e-09	2.712250e+01	8.132545e+01
2.780000e-06	3.863229e-06	1.246434e-09	2.734921e+01	8.174903e+01
2.790000e-06	3.895051e-06	1.251245e-09	2.757449e+01	8.214947e+01
2.800000e-06	3.926742e-06	1.255389e-09	2.779885e+01	8.252776e+01
2.810000e-06	3.958272e-06	1.259163e-09	2.802206e+01	8.288507e+01
2.820000e-06	3.989422e-06	1.266613e-09	2.824258e+01	8.322270e+01
2.830000e-06	4.020265e-06	1.275155e-09	2.846093e+01	8.354198e+01
2.840000e-06	4.050948e-06	1.280288e-09	2.867814e+01	8.384426e+01
2.850000e-06	4.081396e-06	1.282601e-09	2.889370e+01	8.413081e+01
2.860000e-06	4.111524e-06	1.282966e-09	2.910699e+01	8.440278e+01
2.870000e-06	4.141311e-06	1.283696e-09	2.931786e+01	8.466117e+01
2.880000e-06	4.170861e-06	1.285683e-09	2.952705e+01	8.490677e+01
2.890000e-06	4.200148e-06	1.287233e-09	2.973438e+01	8.514014e+01
2.900000e-06	4.229179e-06	1.290232e-09	2.993991e+01	8.536164e+01
