# Temperatura_=_13.01
# Concentracion g/m^3_=_4090.0
# C_Vs_to_Am_M_A/Vsm_=_65563218390.804596
# pendiente_HvsI_1/m_=_3716.3
# ordenada_HvsI_A/m_=_1297.0
# frecuencia_Hz_=_135088.29605239865

Tiempo_(s)	Campo_(V.s)	Magnetizacion_(V.s)	Campo_(kA/m)	Magnetizacion_(A/m)
0.000000e+00	-5.389215e-06	-1.328647e-09	-3.838748e+01	-9.014126e+01
1.000000e-08	-5.389355e-06	-1.326401e-09	-3.838847e+01	-8.997701e+01
2.000000e-08	-5.389216e-06	-1.322559e-09	-3.838748e+01	-8.980446e+01
3.000000e-08	-5.388840e-06	-1.318993e-09	-3.838481e+01	-8.962537e+01
4.000000e-08	-5.388043e-06	-1.319013e-09	-3.837913e+01	-8.944213e+01
5.000000e-08	-5.386591e-06	-1.319355e-09	-3.836879e+01	-8.925773e+01
6.000000e-08	-5.384514e-06	-1.322028e-09	-3.835399e+01	-8.907565e+01
7.000000e-08	-5.381953e-06	-1.334782e-09	-3.833575e+01	-8.889979e+01
8.000000e-08	-5.378767e-06	-1.324975e-09	-3.831306e+01	-8.873431e+01
9.000000e-08	-5.374983e-06	-1.298460e-09	-3.828610e+01	-8.858350e+01
1.000000e-07	-5.370863e-06	-1.336602e-09	-3.825675e+01	-8.845157e+01
1.100000e-07	-5.366502e-06	-1.400619e-09	-3.822569e+01	-8.834251e+01
1.200000e-07	-5.362008e-06	-1.335555e-09	-3.819368e+01	-8.825990e+01
1.300000e-07	-5.357363e-06	-1.257277e-09	-3.816060e+01	-8.820673e+01
1.400000e-07	-5.352256e-06	-1.306966e-09	-3.812422e+01	-8.818528e+01
1.500000e-07	-5.346700e-06	-1.420024e-09	-3.808464e+01	-8.819698e+01
1.600000e-07	-5.340816e-06	-1.356223e-09	-3.804273e+01	-8.824229e+01
1.700000e-07	-5.334480e-06	-1.250827e-09	-3.799760e+01	-8.832073e+01
1.800000e-07	-5.327721e-06	-1.328273e-09	-3.794945e+01	-8.843075e+01
1.900000e-07	-5.320571e-06	-1.446995e-09	-3.789852e+01	-8.856986e+01
2.000000e-07	-5.313091e-06	-1.398944e-09	-3.784524e+01	-8.873462e+01
2.100000e-07	-5.305495e-06	-1.328728e-09	-3.779114e+01	-8.892081e+01
2.200000e-07	-5.297659e-06	-1.409303e-09	-3.773532e+01	-8.912350e+01
2.300000e-07	-5.289490e-06	-1.464377e-09	-3.767713e+01	-8.933729e+01
2.400000e-07	-5.280994e-06	-1.405363e-09	-3.761662e+01	-8.955643e+01
2.500000e-07	-5.272027e-06	-1.399900e-09	-3.755274e+01	-8.977506e+01
2.600000e-07	-5.262427e-06	-1.498725e-09	-3.748436e+01	-8.998741e+01
2.700000e-07	-5.252027e-06	-1.484783e-09	-3.741028e+01	-9.018796e+01
2.800000e-07	-5.241069e-06	-1.401796e-09	-3.733223e+01	-9.037168e+01
2.900000e-07	-5.229767e-06	-1.423389e-09	-3.725173e+01	-9.053413e+01
3.000000e-07	-5.218023e-06	-1.472874e-09	-3.716807e+01	-9.067163e+01
3.100000e-07	-5.205865e-06	-1.398369e-09	-3.708147e+01	-9.078135e+01
3.200000e-07	-5.193354e-06	-1.382133e-09	-3.699235e+01	-9.086133e+01
3.300000e-07	-5.180461e-06	-1.463492e-09	-3.690052e+01	-9.091057e+01
3.400000e-07	-5.167198e-06	-1.459718e-09	-3.680605e+01	-9.092894e+01
3.500000e-07	-5.153531e-06	-1.388319e-09	-3.670869e+01	-9.091714e+01
3.600000e-07	-5.139511e-06	-1.424937e-09	-3.660883e+01	-9.087666e+01
3.700000e-07	-5.125160e-06	-1.447235e-09	-3.650661e+01	-9.080956e+01
3.800000e-07	-5.110268e-06	-1.383486e-09	-3.640053e+01	-9.071845e+01
3.900000e-07	-5.094642e-06	-1.376871e-09	-3.628923e+01	-9.060622e+01
4.000000e-07	-5.078285e-06	-1.428540e-09	-3.617272e+01	-9.047598e+01
4.100000e-07	-5.061525e-06	-1.407333e-09	-3.605333e+01	-9.033085e+01
4.200000e-07	-5.044600e-06	-1.385248e-09	-3.593277e+01	-9.017382e+01
4.300000e-07	-5.027335e-06	-1.426611e-09	-3.580980e+01	-9.000763e+01
4.400000e-07	-5.009735e-06	-1.420884e-09	-3.568443e+01	-8.983469e+01
4.500000e-07	-4.991985e-06	-1.372218e-09	-3.555800e+01	-8.965694e+01
4.600000e-07	-4.973984e-06	-1.380308e-09	-3.542978e+01	-8.947585e+01
4.700000e-07	-4.955617e-06	-1.400279e-09	-3.529895e+01	-8.929241e+01
4.800000e-07	-4.936936e-06	-1.373464e-09	-3.516588e+01	-8.910709e+01
4.900000e-07	-4.917821e-06	-1.371067e-09	-3.502973e+01	-8.891992e+01
5.000000e-07	-4.898264e-06	-1.386009e-09	-3.489042e+01	-8.873055e+01
5.100000e-07	-4.878447e-06	-1.376942e-09	-3.474927e+01	-8.853833e+01
5.200000e-07	-4.858480e-06	-1.366320e-09	-3.460704e+01	-8.834237e+01
5.300000e-07	-4.838360e-06	-1.368527e-09	-3.446372e+01	-8.814171e+01
5.400000e-07	-4.817936e-06	-1.354033e-09	-3.431824e+01	-8.793535e+01
5.500000e-07	-4.797114e-06	-1.353591e-09	-3.416993e+01	-8.772242e+01
5.600000e-07	-4.775937e-06	-1.365140e-09	-3.401909e+01	-8.750219e+01
5.700000e-07	-4.754391e-06	-1.363314e-09	-3.386561e+01	-8.727419e+01
5.800000e-07	-4.732514e-06	-1.349626e-09	-3.370978e+01	-8.703827e+01
5.900000e-07	-4.710306e-06	-1.346178e-09	-3.355159e+01	-8.679457e+01
6.000000e-07	-4.687746e-06	-1.342168e-09	-3.339090e+01	-8.654359e+01
6.100000e-07	-4.664801e-06	-1.342203e-09	-3.322746e+01	-8.628613e+01
6.200000e-07	-4.641557e-06	-1.338238e-09	-3.306190e+01	-8.602327e+01
6.300000e-07	-4.618134e-06	-1.334008e-09	-3.289505e+01	-8.575632e+01
6.400000e-07	-4.594459e-06	-1.339156e-09	-3.272641e+01	-8.548673e+01
6.500000e-07	-4.570573e-06	-1.348872e-09	-3.255627e+01	-8.521604e+01
6.600000e-07	-4.546451e-06	-1.338731e-09	-3.238445e+01	-8.494578e+01
6.700000e-07	-4.522056e-06	-1.325888e-09	-3.221069e+01	-8.467740e+01
6.800000e-07	-4.497259e-06	-1.323034e-09	-3.203406e+01	-8.441218e+01
6.900000e-07	-4.471864e-06	-1.321229e-09	-3.185317e+01	-8.415118e+01
7.000000e-07	-4.445895e-06	-1.315097e-09	-3.166819e+01	-8.389520e+01
7.100000e-07	-4.419525e-06	-1.311503e-09	-3.148035e+01	-8.364473e+01
7.200000e-07	-4.392741e-06	-1.314334e-09	-3.128957e+01	-8.339993e+01
7.300000e-07	-4.365571e-06	-1.318362e-09	-3.109604e+01	-8.316068e+01
7.400000e-07	-4.338118e-06	-1.320176e-09	-3.090050e+01	-8.292653e+01
7.500000e-07	-4.310397e-06	-1.313339e-09	-3.070304e+01	-8.269680e+01
7.600000e-07	-4.282457e-06	-1.307354e-09	-3.050402e+01	-8.247062e+01
7.700000e-07	-4.254322e-06	-1.305603e-09	-3.030362e+01	-8.224698e+01
7.800000e-07	-4.226028e-06	-1.300076e-09	-3.010208e+01	-8.202478e+01
7.900000e-07	-4.197418e-06	-1.289714e-09	-2.989828e+01	-8.180295e+01
8.000000e-07	-4.168404e-06	-1.281862e-09	-2.969162e+01	-8.158045e+01
8.100000e-07	-4.139013e-06	-1.276511e-09	-2.948226e+01	-8.135641e+01
8.200000e-07	-4.109330e-06	-1.276089e-09	-2.927083e+01	-8.113007e+01
8.300000e-07	-4.079444e-06	-1.275571e-09	-2.905795e+01	-8.090092e+01
8.400000e-07	-4.049329e-06	-1.276028e-09	-2.884344e+01	-8.066864e+01
8.500000e-07	-4.018907e-06	-1.277211e-09	-2.862675e+01	-8.043314e+01
8.600000e-07	-3.988182e-06	-1.278588e-09	-2.840789e+01	-8.019453e+01
8.700000e-07	-3.957239e-06	-1.273313e-09	-2.818748e+01	-7.995311e+01
8.800000e-07	-3.926118e-06	-1.261205e-09	-2.796581e+01	-7.970929e+01
8.900000e-07	-3.894736e-06	-1.249678e-09	-2.774227e+01	-7.946359e+01
9.000000e-07	-3.863082e-06	-1.243548e-09	-2.751680e+01	-7.921652e+01
9.100000e-07	-3.831304e-06	-1.240687e-09	-2.729045e+01	-7.896860e+01
9.200000e-07	-3.799370e-06	-1.240587e-09	-2.706298e+01	-7.872024e+01
9.300000e-07	-3.767195e-06	-1.242792e-09	-2.683380e+01	-7.847170e+01
9.400000e-07	-3.734749e-06	-1.249322e-09	-2.660268e+01	-7.822310e+01
9.500000e-07	-3.702001e-06	-1.250810e-09	-2.636942e+01	-7.797431e+01
9.600000e-07	-3.668981e-06	-1.243163e-09	-2.613422e+01	-7.772502e+01
9.700000e-07	-3.635559e-06	-1.228010e-09	-2.589616e+01	-7.747469e+01
9.800000e-07	-3.601692e-06	-1.214304e-09	-2.565491e+01	-7.722258e+01
9.900000e-07	-3.567410e-06	-1.206437e-09	-2.541072e+01	-7.696780e+01
1.000000e-06	-3.532576e-06	-1.203902e-09	-2.516260e+01	-7.670932e+01
1.010000e-06	-3.497480e-06	-1.202541e-09	-2.491261e+01	-7.644608e+01
1.020000e-06	-3.462139e-06	-1.203439e-09	-2.466088e+01	-7.617700e+01
1.030000e-06	-3.426475e-06	-1.203182e-09	-2.440684e+01	-7.590107e+01
1.040000e-06	-3.390657e-06	-1.198803e-09	-2.415171e+01	-7.561743e+01
1.050000e-06	-3.354705e-06	-1.189673e-09	-2.389562e+01	-7.532537e+01
1.060000e-06	-3.318664e-06	-1.177115e-09	-2.363890e+01	-7.502446e+01
1.070000e-06	-3.282468e-06	-1.165480e-09	-2.338108e+01	-7.471452e+01
1.080000e-06	-3.246060e-06	-1.155384e-09	-2.312175e+01	-7.439570e+01
1.090000e-06	-3.209386e-06	-1.150415e-09	-2.286051e+01	-7.406841e+01
1.100000e-06	-3.172431e-06	-1.149980e-09	-2.259728e+01	-7.373340e+01
1.110000e-06	-3.135271e-06	-1.151169e-09	-2.233259e+01	-7.339166e+01
1.120000e-06	-3.097858e-06	-1.149723e-09	-2.206610e+01	-7.304442e+01
1.130000e-06	-3.060242e-06	-1.142549e-09	-2.179816e+01	-7.269307e+01
1.140000e-06	-3.022480e-06	-1.131969e-09	-2.152918e+01	-7.233910e+01
1.150000e-06	-2.984498e-06	-1.123954e-09	-2.125864e+01	-7.198405e+01
1.160000e-06	-2.946391e-06	-1.118269e-09	-2.098719e+01	-7.162941e+01
1.170000e-06	-2.908212e-06	-1.110882e-09	-2.071525e+01	-7.127654e+01
1.180000e-06	-2.869827e-06	-1.102828e-09	-2.044183e+01	-7.092665e+01
1.190000e-06	-2.831164e-06	-1.098368e-09	-2.016644e+01	-7.058070e+01
1.200000e-06	-2.792101e-06	-1.096694e-09	-1.988819e+01	-7.023936e+01
1.210000e-06	-2.752823e-06	-1.094891e-09	-1.960841e+01	-6.990302e+01
1.220000e-06	-2.713463e-06	-1.090007e-09	-1.932805e+01	-6.957173e+01
1.230000e-06	-2.673905e-06	-1.086278e-09	-1.904627e+01	-6.924523e+01
1.240000e-06	-2.634206e-06	-1.081656e-09	-1.876350e+01	-6.892297e+01
1.250000e-06	-2.594419e-06	-1.076514e-09	-1.848010e+01	-6.860414e+01
1.260000e-06	-2.554565e-06	-1.069263e-09	-1.819622e+01	-6.828773e+01
1.270000e-06	-2.514547e-06	-1.059455e-09	-1.791116e+01	-6.797257e+01
1.280000e-06	-2.474427e-06	-1.051374e-09	-1.762539e+01	-6.765740e+01
1.290000e-06	-2.434308e-06	-1.048105e-09	-1.733962e+01	-6.734096e+01
1.300000e-06	-2.394011e-06	-1.046436e-09	-1.705258e+01	-6.702199e+01
1.310000e-06	-2.353440e-06	-1.043571e-09	-1.676359e+01	-6.669937e+01
1.320000e-06	-2.312636e-06	-1.040662e-09	-1.647295e+01	-6.637211e+01
1.330000e-06	-2.271749e-06	-1.039376e-09	-1.618171e+01	-6.603939e+01
1.340000e-06	-2.230627e-06	-1.037825e-09	-1.588880e+01	-6.570060e+01
1.350000e-06	-2.189170e-06	-1.031297e-09	-1.559350e+01	-6.535537e+01
1.360000e-06	-2.147405e-06	-1.021808e-09	-1.529601e+01	-6.500348e+01
1.370000e-06	-2.105329e-06	-1.014310e-09	-1.499630e+01	-6.464493e+01
1.380000e-06	-2.063004e-06	-1.009718e-09	-1.469482e+01	-6.427986e+01
1.390000e-06	-2.020448e-06	-1.004915e-09	-1.439168e+01	-6.390851e+01
1.400000e-06	-1.977747e-06	-9.988871e-10	-1.408752e+01	-6.353118e+01
1.410000e-06	-1.934712e-06	-9.933010e-10	-1.378099e+01	-6.314815e+01
1.420000e-06	-1.891478e-06	-9.899161e-10	-1.347303e+01	-6.275967e+01
1.430000e-06	-1.848126e-06	-9.851301e-10	-1.316424e+01	-6.236589e+01
1.440000e-06	-1.804570e-06	-9.772385e-10	-1.285398e+01	-6.196680e+01
1.450000e-06	-1.760928e-06	-9.684856e-10	-1.254312e+01	-6.156224e+01
1.460000e-06	-1.717179e-06	-9.604874e-10	-1.223150e+01	-6.115186e+01
1.470000e-06	-1.673340e-06	-9.552080e-10	-1.191923e+01	-6.073512e+01
1.480000e-06	-1.629481e-06	-9.527203e-10	-1.160682e+01	-6.031133e+01
1.490000e-06	-1.585537e-06	-9.504589e-10	-1.129381e+01	-5.987961e+01
1.500000e-06	-1.541512e-06	-9.464473e-10	-1.098022e+01	-5.943902e+01
1.510000e-06	-1.497465e-06	-9.410444e-10	-1.066647e+01	-5.898853e+01
1.520000e-06	-1.453336e-06	-9.314784e-10	-1.035214e+01	-5.852712e+01
1.530000e-06	-1.409151e-06	-9.190730e-10	-1.003741e+01	-5.805384e+01
1.540000e-06	-1.364983e-06	-9.064899e-10	-9.722799e+00	-5.756786e+01
1.550000e-06	-1.320736e-06	-8.948139e-10	-9.407628e+00	-5.706850e+01
1.560000e-06	-1.276347e-06	-8.867133e-10	-9.091445e+00	-5.655533e+01
1.570000e-06	-1.231884e-06	-8.821823e-10	-8.774729e+00	-5.602818e+01
1.580000e-06	-1.187382e-06	-8.782264e-10	-8.457746e+00	-5.548713e+01
1.590000e-06	-1.142781e-06	-8.707815e-10	-8.140051e+00	-5.493257e+01
1.600000e-06	-1.098089e-06	-8.600217e-10	-7.821711e+00	-5.436515e+01
1.610000e-06	-1.053318e-06	-8.482216e-10	-7.502806e+00	-5.378576e+01
1.620000e-06	-1.008522e-06	-8.366706e-10	-7.183723e+00	-5.319548e+01
1.630000e-06	-9.636509e-07	-8.243091e-10	-6.864103e+00	-5.259553e+01
1.640000e-06	-9.186942e-07	-8.112982e-10	-6.543876e+00	-5.198719e+01
1.650000e-06	-8.736160e-07	-7.976054e-10	-6.222782e+00	-5.137171e+01
1.660000e-06	-8.284368e-07	-7.855436e-10	-5.900970e+00	-5.075025e+01
1.670000e-06	-7.832448e-07	-7.790981e-10	-5.579067e+00	-5.012378e+01
1.680000e-06	-7.380109e-07	-7.746965e-10	-5.256865e+00	-4.949302e+01
1.690000e-06	-6.926816e-07	-7.651285e-10	-4.933984e+00	-4.885835e+01
1.700000e-06	-6.472933e-07	-7.503074e-10	-4.610682e+00	-4.821979e+01
1.710000e-06	-6.018916e-07	-7.373972e-10	-4.287285e+00	-4.757694e+01
1.720000e-06	-5.565037e-07	-7.280523e-10	-3.963986e+00	-4.692897e+01
1.730000e-06	-5.109933e-07	-7.179859e-10	-3.639815e+00	-4.627463e+01
1.740000e-06	-4.653358e-07	-7.068701e-10	-3.314595e+00	-4.561226e+01
1.750000e-06	-4.196463e-07	-6.960169e-10	-2.989148e+00	-4.493987e+01
1.760000e-06	-3.739097e-07	-6.867978e-10	-2.663365e+00	-4.425516e+01
1.770000e-06	-3.282162e-07	-6.722910e-10	-2.337890e+00	-4.355560e+01
1.780000e-06	-2.825050e-07	-6.547503e-10	-2.012289e+00	-4.283855e+01
1.790000e-06	-2.367837e-07	-6.427303e-10	-1.686615e+00	-4.210133e+01
1.800000e-06	-1.910044e-07	-6.316175e-10	-1.360528e+00	-4.134130e+01
1.810000e-06	-1.452484e-07	-6.172580e-10	-1.034607e+00	-4.055598e+01
1.820000e-06	-9.959076e-08	-6.019210e-10	-7.093868e-01	-3.974312e+01
1.830000e-06	-5.390054e-08	-5.878635e-10	-3.839345e-01	-3.890076e+01
1.840000e-06	-8.149090e-09	-5.740665e-10	-5.804612e-02	-3.802733e+01
1.850000e-06	3.756335e-08	-5.604470e-10	2.675644e-01	-3.712163e+01
1.860000e-06	8.322635e-08	-5.459895e-10	5.928228e-01	-3.618289e+01
1.870000e-06	1.288991e-07	-5.327041e-10	9.181506e-01	-3.521075e+01
1.880000e-06	1.746370e-07	-5.205910e-10	1.243943e+00	-3.420526e+01
1.890000e-06	2.203518e-07	-5.055241e-10	1.569570e+00	-3.316682e+01
1.900000e-06	2.659458e-07	-4.858743e-10	1.894336e+00	-3.209616e+01
1.910000e-06	3.115452e-07	-4.681779e-10	2.219142e+00	-3.099423e+01
1.920000e-06	3.572438e-07	-4.511651e-10	2.544654e+00	-2.986218e+01
1.930000e-06	4.029147e-07	-4.298504e-10	2.869969e+00	-2.870122e+01
1.940000e-06	4.485006e-07	-4.076009e-10	3.194678e+00	-2.751261e+01
1.950000e-06	4.940751e-07	-3.898987e-10	3.519306e+00	-2.629757e+01
1.960000e-06	5.395353e-07	-3.767402e-10	3.843120e+00	-2.505716e+01
1.970000e-06	5.849538e-07	-3.613194e-10	4.166636e+00	-2.379232e+01
1.980000e-06	6.303673e-07	-3.414123e-10	4.490117e+00	-2.250376e+01
1.990000e-06	6.757310e-07	-3.185270e-10	4.813244e+00	-2.119198e+01
2.000000e-06	7.210839e-07	-2.981913e-10	5.136294e+00	-1.985726e+01
2.010000e-06	7.664006e-07	-2.792319e-10	5.459085e+00	-1.849963e+01
2.020000e-06	8.116573e-07	-2.582942e-10	5.781450e+00	-1.711894e+01
2.030000e-06	8.567818e-07	-2.373303e-10	6.102872e+00	-1.571490e+01
2.040000e-06	9.017776e-07	-2.189398e-10	6.423378e+00	-1.428710e+01
2.050000e-06	9.468036e-07	-1.986413e-10	6.744099e+00	-1.283505e+01
2.060000e-06	9.917620e-07	-1.719369e-10	7.064339e+00	-1.135832e+01
2.070000e-06	1.036565e-06	-1.434968e-10	7.383473e+00	-9.856487e+00
2.080000e-06	1.081271e-06	-1.169943e-10	7.701912e+00	-8.329274e+00
2.090000e-06	1.125859e-06	-9.503968e-11	8.019513e+00	-6.776558e+00
2.100000e-06	1.170445e-06	-7.525804e-11	8.337103e+00	-5.198415e+00
2.110000e-06	1.214965e-06	-5.211252e-11	8.654217e+00	-3.595153e+00
2.120000e-06	1.259329e-06	-2.914333e-11	8.970222e+00	-1.967319e+00
2.130000e-06	1.303549e-06	-5.275609e-12	9.285205e+00	-3.157066e-01
2.140000e-06	1.347718e-06	1.708639e-11	9.599820e+00	1.358656e+00
2.150000e-06	1.391945e-06	4.247774e-11	9.914848e+00	3.054524e+00
2.160000e-06	1.436134e-06	6.943325e-11	1.022961e+01	4.770468e+00
2.170000e-06	1.480186e-06	9.651949e-11	1.054339e+01	6.504905e+00
2.180000e-06	1.524166e-06	1.244043e-10	1.085666e+01	8.256142e+00
2.190000e-06	1.568132e-06	1.509098e-10	1.116983e+01	1.002241e+01
2.200000e-06	1.612053e-06	1.781841e-10	1.148269e+01	1.180190e+01
2.210000e-06	1.655889e-06	2.044488e-10	1.179493e+01	1.359280e+01
2.220000e-06	1.699588e-06	2.309936e-10	1.210619e+01	1.539333e+01
2.230000e-06	1.743211e-06	2.575857e-10	1.241692e+01	1.720174e+01
2.240000e-06	1.786829e-06	2.864729e-10	1.272762e+01	1.901631e+01
2.250000e-06	1.830394e-06	3.177692e-10	1.303793e+01	2.083538e+01
2.260000e-06	1.873775e-06	3.482913e-10	1.334693e+01	2.265733e+01
2.270000e-06	1.916903e-06	3.784598e-10	1.365413e+01	2.448053e+01
2.280000e-06	1.960007e-06	4.091487e-10	1.396117e+01	2.630335e+01
2.290000e-06	2.003102e-06	4.394772e-10	1.426813e+01	2.812413e+01
2.300000e-06	2.045822e-06	4.666437e-10	1.457243e+01	2.994111e+01
2.310000e-06	2.088126e-06	4.899492e-10	1.487376e+01	3.175247e+01
2.320000e-06	2.130181e-06	5.158603e-10	1.517332e+01	3.355623e+01
2.330000e-06	2.172048e-06	5.424817e-10	1.547154e+01	3.535030e+01
2.340000e-06	2.213757e-06	5.677144e-10	1.576863e+01	3.713242e+01
2.350000e-06	2.255148e-06	5.946336e-10	1.606346e+01	3.890021e+01
2.360000e-06	2.296101e-06	6.253516e-10	1.635517e+01	4.065116e+01
2.370000e-06	2.336813e-06	6.564368e-10	1.664516e+01	4.238263e+01
2.380000e-06	2.377359e-06	6.864235e-10	1.693397e+01	4.409194e+01
2.390000e-06	2.417690e-06	7.141120e-10	1.722125e+01	4.577640e+01
2.400000e-06	2.457895e-06	7.378578e-10	1.750763e+01	4.743334e+01
2.410000e-06	2.498000e-06	7.572492e-10	1.779330e+01	4.906019e+01
2.420000e-06	2.537959e-06	7.790495e-10	1.807793e+01	5.065454e+01
2.430000e-06	2.577895e-06	8.053019e-10	1.836239e+01	5.221420e+01
2.440000e-06	2.617808e-06	8.315143e-10	1.864670e+01	5.373726e+01
2.450000e-06	2.657547e-06	8.542400e-10	1.892976e+01	5.522211e+01
2.460000e-06	2.697109e-06	8.767566e-10	1.921156e+01	5.666753e+01
2.470000e-06	2.736462e-06	9.005756e-10	1.949187e+01	5.807266e+01
2.480000e-06	2.775582e-06	9.232723e-10	1.977052e+01	5.943705e+01
2.490000e-06	2.814466e-06	9.416984e-10	2.004749e+01	6.076064e+01
2.500000e-06	2.853242e-06	9.586916e-10	2.032370e+01	6.204372e+01
2.510000e-06	2.891845e-06	9.802598e-10	2.059866e+01	6.328695e+01
2.520000e-06	2.930168e-06	1.006889e-09	2.087164e+01	6.449125e+01
2.530000e-06	2.968282e-06	1.031977e-09	2.114312e+01	6.565780e+01
2.540000e-06	3.006185e-06	1.050267e-09	2.141311e+01	6.678794e+01
2.550000e-06	3.043913e-06	1.065930e-09	2.168185e+01	6.788311e+01
2.560000e-06	3.081458e-06	1.082801e-09	2.194928e+01	6.894478e+01
2.570000e-06	3.118776e-06	1.096961e-09	2.221510e+01	6.997440e+01
2.580000e-06	3.155949e-06	1.106176e-09	2.247989e+01	7.097335e+01
2.590000e-06	3.192874e-06	1.119669e-09	2.274290e+01	7.194282e+01
2.600000e-06	3.229473e-06	1.139194e-09	2.300360e+01	7.288387e+01
2.610000e-06	3.265885e-06	1.159598e-09	2.326296e+01	7.379733e+01
2.620000e-06	3.302064e-06	1.173656e-09	2.352066e+01	7.468384e+01
2.630000e-06	3.338036e-06	1.182670e-09	2.377689e+01	7.554380e+01
2.640000e-06	3.373929e-06	1.194583e-09	2.403256e+01	7.637745e+01
2.650000e-06	3.409758e-06	1.206083e-09	2.428777e+01	7.718484e+01
2.660000e-06	3.445444e-06	1.210483e-09	2.454196e+01	7.796589e+01
2.670000e-06	3.480865e-06	1.211829e-09	2.479426e+01	7.872046e+01
2.680000e-06	3.516010e-06	1.219131e-09	2.504461e+01	7.944835e+01
2.690000e-06	3.550870e-06	1.235429e-09	2.529291e+01	8.014939e+01
2.700000e-06	3.585365e-06	1.248014e-09	2.553862e+01	8.082346e+01
2.710000e-06	3.619394e-06	1.259190e-09	2.578101e+01	8.147055e+01
2.720000e-06	3.652870e-06	1.270888e-09	2.601946e+01	8.209078e+01
2.730000e-06	3.685944e-06	1.284477e-09	2.625505e+01	8.268441e+01
2.740000e-06	3.718757e-06	1.292631e-09	2.648877e+01	8.325189e+01
2.750000e-06	3.751268e-06	1.292190e-09	2.672035e+01	8.379383e+01
2.760000e-06	3.783486e-06	1.293065e-09	2.694984e+01	8.431099e+01
2.770000e-06	3.815487e-06	1.298883e-09	2.717779e+01	8.480427e+01
2.780000e-06	3.847330e-06	1.309013e-09	2.740460e+01	8.527466e+01
2.790000e-06	3.879094e-06	1.315842e-09	2.763086e+01	8.572322e+01
2.800000e-06	3.910673e-06	1.321834e-09	2.785579e+01	8.615104e+01
2.810000e-06	3.941931e-06	1.329991e-09	2.807844e+01	8.655917e+01
2.820000e-06	3.972928e-06	1.335803e-09	2.829924e+01	8.694862e+01
2.830000e-06	4.003655e-06	1.336264e-09	2.851811e+01	8.732030e+01
2.840000e-06	4.034022e-06	1.335036e-09	2.873441e+01	8.767499e+01
2.850000e-06	4.064084e-06	1.337125e-09	2.894854e+01	8.801332e+01
2.860000e-06	4.093909e-06	1.343073e-09	2.916099e+01	8.833578e+01
2.870000e-06	4.123618e-06	1.347660e-09	2.937260e+01	8.864271e+01
2.880000e-06	4.153094e-06	1.353248e-09	2.958257e+01	8.893433e+01
2.890000e-06	4.182214e-06	1.359164e-09	2.978999e+01	8.921071e+01
2.900000e-06	4.211067e-06	1.365627e-09	2.999550e+01	8.947190e+01
