# Temperatura_=_1.44
# Concentracion g/m^3_=_4090.0
# C_Vs_to_Am_M_A/Vsm_=_65563218390.804596
# pendiente_HvsI_1/m_=_3716.3
# ordenada_HvsI_A/m_=_1297.0
# frecuencia_Hz_=_135083.5211345087

Tiempo_(s)	Campo_(V.s)	Magnetizacion_(V.s)	Campo_(kA/m)	Magnetizacion_(A/m)
0.000000e+00	-5.410989e-06	-1.605860e-09	-3.837494e+01	-1.051565e+02
1.000000e-08	-5.411081e-06	-1.604885e-09	-3.837559e+01	-1.050514e+02
2.000000e-08	-5.411058e-06	-1.600548e-09	-3.837543e+01	-1.049308e+02
3.000000e-08	-5.410825e-06	-1.596104e-09	-3.837377e+01	-1.047936e+02
4.000000e-08	-5.410242e-06	-1.592852e-09	-3.836964e+01	-1.046395e+02
5.000000e-08	-5.409111e-06	-1.596278e-09	-3.836162e+01	-1.044689e+02
6.000000e-08	-5.407353e-06	-1.609320e-09	-3.834915e+01	-1.042833e+02
7.000000e-08	-5.404899e-06	-1.605104e-09	-3.833175e+01	-1.040853e+02
8.000000e-08	-5.401881e-06	-1.556188e-09	-3.831035e+01	-1.038781e+02
9.000000e-08	-5.398352e-06	-1.530110e-09	-3.828532e+01	-1.036659e+02
1.000000e-07	-5.394362e-06	-1.609307e-09	-3.825702e+01	-1.034537e+02
1.100000e-07	-5.390100e-06	-1.688509e-09	-3.822679e+01	-1.032467e+02
1.200000e-07	-5.385701e-06	-1.580231e-09	-3.819559e+01	-1.030508e+02
1.300000e-07	-5.381142e-06	-1.463694e-09	-3.816326e+01	-1.028716e+02
1.400000e-07	-5.376219e-06	-1.583132e-09	-3.812835e+01	-1.027148e+02
1.500000e-07	-5.370772e-06	-1.703599e-09	-3.808972e+01	-1.025856e+02
1.600000e-07	-5.364918e-06	-1.593916e-09	-3.804820e+01	-1.024884e+02
1.700000e-07	-5.358770e-06	-1.409143e-09	-3.800460e+01	-1.024268e+02
1.800000e-07	-5.352164e-06	-1.532836e-09	-3.795775e+01	-1.024032e+02
1.900000e-07	-5.345108e-06	-1.674896e-09	-3.790770e+01	-1.024190e+02
2.000000e-07	-5.337811e-06	-1.612640e-09	-3.785596e+01	-1.024739e+02
2.100000e-07	-5.330351e-06	-1.497353e-09	-3.780305e+01	-1.025665e+02
2.200000e-07	-5.322636e-06	-1.584111e-09	-3.774834e+01	-1.026939e+02
2.300000e-07	-5.314505e-06	-1.633872e-09	-3.769067e+01	-1.028519e+02
2.400000e-07	-5.306020e-06	-1.546412e-09	-3.763049e+01	-1.030351e+02
2.500000e-07	-5.297131e-06	-1.536711e-09	-3.756745e+01	-1.032373e+02
2.600000e-07	-5.287603e-06	-1.642034e-09	-3.749988e+01	-1.034512e+02
2.700000e-07	-5.277321e-06	-1.633256e-09	-3.742696e+01	-1.036695e+02
2.800000e-07	-5.266439e-06	-1.543900e-09	-3.734978e+01	-1.038842e+02
2.900000e-07	-5.255197e-06	-1.606996e-09	-3.727005e+01	-1.040878e+02
3.000000e-07	-5.243541e-06	-1.647212e-09	-3.718739e+01	-1.042729e+02
3.100000e-07	-5.231395e-06	-1.545517e-09	-3.710125e+01	-1.044330e+02
3.200000e-07	-5.218896e-06	-1.511365e-09	-3.701261e+01	-1.045624e+02
3.300000e-07	-5.206040e-06	-1.644172e-09	-3.692143e+01	-1.046565e+02
3.400000e-07	-5.192818e-06	-1.636873e-09	-3.682766e+01	-1.047119e+02
3.500000e-07	-5.179290e-06	-1.557932e-09	-3.673172e+01	-1.047268e+02
3.600000e-07	-5.165391e-06	-1.584042e-09	-3.663315e+01	-1.047005e+02
3.700000e-07	-5.151106e-06	-1.638424e-09	-3.653184e+01	-1.046340e+02
3.800000e-07	-5.136236e-06	-1.558495e-09	-3.642638e+01	-1.045293e+02
3.900000e-07	-5.120803e-06	-1.542086e-09	-3.631693e+01	-1.043898e+02
4.000000e-07	-5.104765e-06	-1.571539e-09	-3.620318e+01	-1.042197e+02
4.100000e-07	-5.088213e-06	-1.559637e-09	-3.608580e+01	-1.040239e+02
4.200000e-07	-5.071372e-06	-1.547228e-09	-3.596636e+01	-1.038080e+02
4.300000e-07	-5.054237e-06	-1.608136e-09	-3.584484e+01	-1.035776e+02
4.400000e-07	-5.036868e-06	-1.586856e-09	-3.572165e+01	-1.033385e+02
4.500000e-07	-5.019210e-06	-1.532345e-09	-3.559643e+01	-1.030960e+02
4.600000e-07	-5.001108e-06	-1.549697e-09	-3.546804e+01	-1.028551e+02
4.700000e-07	-4.982537e-06	-1.577109e-09	-3.533634e+01	-1.026198e+02
4.800000e-07	-4.963598e-06	-1.529325e-09	-3.520202e+01	-1.023934e+02
4.900000e-07	-4.944306e-06	-1.515653e-09	-3.506521e+01	-1.021784e+02
5.000000e-07	-4.924741e-06	-1.544626e-09	-3.492645e+01	-1.019761e+02
5.100000e-07	-4.904966e-06	-1.549899e-09	-3.478621e+01	-1.017867e+02
5.200000e-07	-4.884974e-06	-1.543343e-09	-3.464442e+01	-1.016096e+02
5.300000e-07	-4.864818e-06	-1.537778e-09	-3.450147e+01	-1.014433e+02
5.400000e-07	-4.844393e-06	-1.520497e-09	-3.435661e+01	-1.012855e+02
5.500000e-07	-4.823551e-06	-1.523984e-09	-3.420880e+01	-1.011336e+02
5.600000e-07	-4.802349e-06	-1.546453e-09	-3.405844e+01	-1.009844e+02
5.700000e-07	-4.780909e-06	-1.525966e-09	-3.390639e+01	-1.008345e+02
5.800000e-07	-4.759173e-06	-1.503580e-09	-3.375223e+01	-1.006807e+02
5.900000e-07	-4.736948e-06	-1.513799e-09	-3.359461e+01	-1.005201e+02
6.000000e-07	-4.714417e-06	-1.527215e-09	-3.343482e+01	-1.003499e+02
6.100000e-07	-4.691573e-06	-1.510471e-09	-3.327281e+01	-1.001681e+02
6.200000e-07	-4.668348e-06	-1.500013e-09	-3.310810e+01	-9.997333e+01
6.300000e-07	-4.644873e-06	-1.498644e-09	-3.294161e+01	-9.976476e+01
6.400000e-07	-4.621160e-06	-1.519614e-09	-3.277344e+01	-9.954241e+01
6.500000e-07	-4.597228e-06	-1.527051e-09	-3.260371e+01	-9.930698e+01
6.600000e-07	-4.573067e-06	-1.514255e-09	-3.243236e+01	-9.905982e+01
6.700000e-07	-4.548633e-06	-1.494239e-09	-3.225908e+01	-9.880282e+01
6.800000e-07	-4.523791e-06	-1.502479e-09	-3.208290e+01	-9.853832e+01
6.900000e-07	-4.498396e-06	-1.498850e-09	-3.190279e+01	-9.826894e+01
7.000000e-07	-4.472344e-06	-1.481668e-09	-3.171803e+01	-9.799743e+01
7.100000e-07	-4.445793e-06	-1.465468e-09	-3.152973e+01	-9.772655e+01
7.200000e-07	-4.418830e-06	-1.478508e-09	-3.133851e+01	-9.745887e+01
7.300000e-07	-4.391484e-06	-1.494590e-09	-3.114457e+01	-9.719667e+01
7.400000e-07	-4.363894e-06	-1.496729e-09	-3.094890e+01	-9.694181e+01
7.500000e-07	-4.336091e-06	-1.476756e-09	-3.075172e+01	-9.669568e+01
7.600000e-07	-4.308150e-06	-1.468555e-09	-3.055356e+01	-9.645909e+01
7.700000e-07	-4.280044e-06	-1.470006e-09	-3.035423e+01	-9.623227e+01
7.800000e-07	-4.251614e-06	-1.463543e-09	-3.015260e+01	-9.601492e+01
7.900000e-07	-4.222847e-06	-1.446395e-09	-2.994859e+01	-9.580620e+01
8.000000e-07	-4.193823e-06	-1.443625e-09	-2.974275e+01	-9.560481e+01
8.100000e-07	-4.164511e-06	-1.453410e-09	-2.953487e+01	-9.540913e+01
8.200000e-07	-4.134904e-06	-1.457880e-09	-2.932489e+01	-9.521725e+01
8.300000e-07	-4.104988e-06	-1.447088e-09	-2.911273e+01	-9.502718e+01
8.400000e-07	-4.074795e-06	-1.433523e-09	-2.889860e+01	-9.483688e+01
8.500000e-07	-4.044362e-06	-1.434658e-09	-2.868276e+01	-9.464445e+01
8.600000e-07	-4.013710e-06	-1.439308e-09	-2.846538e+01	-9.444819e+01
8.700000e-07	-3.982740e-06	-1.434368e-09	-2.824574e+01	-9.424671e+01
8.800000e-07	-3.951455e-06	-1.421954e-09	-2.802386e+01	-9.403897e+01
8.900000e-07	-3.919924e-06	-1.421448e-09	-2.780025e+01	-9.382434e+01
9.000000e-07	-3.888219e-06	-1.422020e-09	-2.757539e+01	-9.360264e+01
9.100000e-07	-3.856425e-06	-1.415826e-09	-2.734991e+01	-9.337404e+01
9.200000e-07	-3.824454e-06	-1.401863e-09	-2.712317e+01	-9.313914e+01
9.300000e-07	-3.792307e-06	-1.401241e-09	-2.689518e+01	-9.289880e+01
9.400000e-07	-3.759897e-06	-1.409976e-09	-2.666533e+01	-9.265415e+01
9.500000e-07	-3.727117e-06	-1.415580e-09	-2.643285e+01	-9.240644e+01
9.600000e-07	-3.693933e-06	-1.407005e-09	-2.619751e+01	-9.215700e+01
9.700000e-07	-3.660283e-06	-1.396821e-09	-2.595887e+01	-9.190708e+01
9.800000e-07	-3.626117e-06	-1.388377e-09	-2.571656e+01	-9.165784e+01
9.900000e-07	-3.591452e-06	-1.381348e-09	-2.547071e+01	-9.141020e+01
1.000000e-06	-3.556420e-06	-1.367854e-09	-2.522227e+01	-9.116483e+01
1.010000e-06	-3.521122e-06	-1.364075e-09	-2.497193e+01	-9.092208e+01
1.020000e-06	-3.485605e-06	-1.372386e-09	-2.472004e+01	-9.068198e+01
1.030000e-06	-3.449954e-06	-1.385220e-09	-2.446720e+01	-9.044420e+01
1.040000e-06	-3.414148e-06	-1.385319e-09	-2.421326e+01	-9.020813e+01
1.050000e-06	-3.378219e-06	-1.376170e-09	-2.395846e+01	-8.997286e+01
1.060000e-06	-3.342119e-06	-1.363440e-09	-2.370243e+01	-8.973728e+01
1.070000e-06	-3.305826e-06	-1.352588e-09	-2.344504e+01	-8.950015e+01
1.080000e-06	-3.269354e-06	-1.340287e-09	-2.318638e+01	-8.926014e+01
1.090000e-06	-3.232615e-06	-1.332206e-09	-2.292583e+01	-8.901596e+01
1.100000e-06	-3.195614e-06	-1.334586e-09	-2.266342e+01	-8.876640e+01
1.110000e-06	-3.158401e-06	-1.344866e-09	-2.239950e+01	-8.851042e+01
1.120000e-06	-3.120950e-06	-1.349505e-09	-2.213389e+01	-8.824720e+01
1.130000e-06	-3.083294e-06	-1.343675e-09	-2.186684e+01	-8.797618e+01
1.140000e-06	-3.045485e-06	-1.333331e-09	-2.159869e+01	-8.769713e+01
1.150000e-06	-3.007410e-06	-1.323375e-09	-2.132867e+01	-8.741008e+01
1.160000e-06	-2.969055e-06	-1.313197e-09	-2.105665e+01	-8.711537e+01
1.170000e-06	-2.930489e-06	-1.302127e-09	-2.078314e+01	-8.681362e+01
1.180000e-06	-2.891770e-06	-1.293014e-09	-2.050854e+01	-8.650565e+01
1.190000e-06	-2.852880e-06	-1.290224e-09	-2.023273e+01	-8.619246e+01
1.200000e-06	-2.813755e-06	-1.296638e-09	-1.995525e+01	-8.587512e+01
1.210000e-06	-2.774491e-06	-1.304068e-09	-1.967679e+01	-8.555477e+01
1.220000e-06	-2.735051e-06	-1.306280e-09	-1.939709e+01	-8.523247e+01
1.230000e-06	-2.695422e-06	-1.301519e-09	-1.911603e+01	-8.490920e+01
1.240000e-06	-2.655662e-06	-1.292821e-09	-1.883405e+01	-8.458577e+01
1.250000e-06	-2.615739e-06	-1.278192e-09	-1.855092e+01	-8.426277e+01
1.260000e-06	-2.575709e-06	-1.265154e-09	-1.826703e+01	-8.394057e+01
1.270000e-06	-2.535638e-06	-1.254672e-09	-1.798284e+01	-8.361928e+01
1.280000e-06	-2.495529e-06	-1.253759e-09	-1.769839e+01	-8.329875e+01
1.290000e-06	-2.455331e-06	-1.258049e-09	-1.741330e+01	-8.297861e+01
1.300000e-06	-2.414957e-06	-1.262402e-09	-1.712696e+01	-8.265827e+01
1.310000e-06	-2.374372e-06	-1.258356e-09	-1.683913e+01	-8.233700e+01
1.320000e-06	-2.333507e-06	-1.250450e-09	-1.654932e+01	-8.201396e+01
1.330000e-06	-2.292318e-06	-1.240610e-09	-1.625721e+01	-8.168826e+01
1.340000e-06	-2.250865e-06	-1.230807e-09	-1.596322e+01	-8.135901e+01
1.350000e-06	-2.209084e-06	-1.222360e-09	-1.566691e+01	-8.102540e+01
1.360000e-06	-2.166976e-06	-1.217862e-09	-1.536828e+01	-8.068673e+01
1.370000e-06	-2.124631e-06	-1.214894e-09	-1.506796e+01	-8.034246e+01
1.380000e-06	-2.082100e-06	-1.213455e-09	-1.476633e+01	-7.999221e+01
1.390000e-06	-2.039333e-06	-1.210132e-09	-1.446302e+01	-7.963580e+01
1.400000e-06	-1.996232e-06	-1.203545e-09	-1.415735e+01	-7.927326e+01
1.410000e-06	-1.952970e-06	-1.194847e-09	-1.385054e+01	-7.890476e+01
1.420000e-06	-1.909608e-06	-1.187347e-09	-1.354301e+01	-7.853062e+01
1.430000e-06	-1.866096e-06	-1.182651e-09	-1.323442e+01	-7.815128e+01
1.440000e-06	-1.822532e-06	-1.180322e-09	-1.292546e+01	-7.776719e+01
1.450000e-06	-1.778874e-06	-1.177447e-09	-1.261584e+01	-7.737884e+01
1.460000e-06	-1.735059e-06	-1.173357e-09	-1.230510e+01	-7.698662e+01
1.470000e-06	-1.691129e-06	-1.167875e-09	-1.199355e+01	-7.659084e+01
1.480000e-06	-1.647135e-06	-1.159279e-09	-1.168154e+01	-7.619164e+01
1.490000e-06	-1.603062e-06	-1.151131e-09	-1.136897e+01	-7.578895e+01
1.500000e-06	-1.558966e-06	-1.146090e-09	-1.105625e+01	-7.538252e+01
1.510000e-06	-1.514899e-06	-1.144477e-09	-1.074372e+01	-7.497184e+01
1.520000e-06	-1.470754e-06	-1.140052e-09	-1.043065e+01	-7.455619e+01
1.530000e-06	-1.426440e-06	-1.131628e-09	-1.011637e+01	-7.413468e+01
1.540000e-06	-1.382041e-06	-1.121277e-09	-9.801486e+00	-7.370622e+01
1.550000e-06	-1.337641e-06	-1.111362e-09	-9.486602e+00	-7.326961e+01
1.560000e-06	-1.293172e-06	-1.099428e-09	-9.171224e+00	-7.282359e+01
1.570000e-06	-1.248569e-06	-1.088415e-09	-8.854898e+00	-7.236692e+01
1.580000e-06	-1.203913e-06	-1.081001e-09	-8.538194e+00	-7.189839e+01
1.590000e-06	-1.159228e-06	-1.077749e-09	-8.221292e+00	-7.141692e+01
1.600000e-06	-1.114430e-06	-1.074794e-09	-7.903580e+00	-7.092159e+01
1.610000e-06	-1.069487e-06	-1.068607e-09	-7.584839e+00	-7.041171e+01
1.620000e-06	-1.024303e-06	-1.058513e-09	-7.264393e+00	-6.988682e+01
1.630000e-06	-9.790743e-07	-1.045925e-09	-6.943632e+00	-6.934672e+01
1.640000e-06	-9.338931e-07	-1.030074e-09	-6.623205e+00	-6.879144e+01
1.650000e-06	-8.885528e-07	-1.016288e-09	-6.301650e+00	-6.822127e+01
1.660000e-06	-8.431221e-07	-1.006061e-09	-5.979454e+00	-6.763666e+01
1.670000e-06	-7.976994e-07	-1.000121e-09	-5.657314e+00	-6.703822e+01
1.680000e-06	-7.522311e-07	-9.962996e-10	-5.334852e+00	-6.642663e+01
1.690000e-06	-7.067299e-07	-9.915504e-10	-5.012155e+00	-6.580257e+01
1.700000e-06	-6.611973e-07	-9.814904e-10	-4.689236e+00	-6.516667e+01
1.710000e-06	-6.156135e-07	-9.673177e-10	-4.365954e+00	-6.451940e+01
1.720000e-06	-5.699731e-07	-9.515532e-10	-4.042270e+00	-6.386103e+01
1.730000e-06	-5.242216e-07	-9.368782e-10	-3.717799e+00	-6.319154e+01
1.740000e-06	-4.784503e-07	-9.235673e-10	-3.393187e+00	-6.251062e+01
1.750000e-06	-4.327528e-07	-9.135203e-10	-3.069099e+00	-6.181758e+01
1.760000e-06	-3.870052e-07	-9.058493e-10	-2.744655e+00	-6.111141e+01
1.770000e-06	-3.410734e-07	-8.954460e-10	-2.418905e+00	-6.039072e+01
1.780000e-06	-2.951928e-07	-8.823993e-10	-2.093519e+00	-5.965382e+01
1.790000e-06	-2.493483e-07	-8.700681e-10	-1.768387e+00	-5.889874e+01
1.800000e-06	-2.033957e-07	-8.596702e-10	-1.442490e+00	-5.812329e+01
1.810000e-06	-1.574631e-07	-8.457076e-10	-1.116734e+00	-5.732516e+01
1.820000e-06	-1.115850e-07	-8.278959e-10	-7.913647e-01	-5.650198e+01
1.830000e-06	-6.571743e-08	-8.109718e-10	-4.660705e-01	-5.565144e+01
1.840000e-06	-1.973550e-08	-7.983765e-10	-1.399649e-01	-5.477134e+01
1.850000e-06	2.626801e-08	-7.870699e-10	1.862937e-01	-5.385972e+01
1.860000e-06	7.217447e-08	-7.734455e-10	5.118641e-01	-5.291488e+01
1.870000e-06	1.180469e-07	-7.584565e-10	8.371928e-01	-5.193550e+01
1.880000e-06	1.638832e-07	-7.450257e-10	1.162266e+00	-5.092064e+01
1.890000e-06	2.097892e-07	-7.298455e-10	1.487833e+00	-4.986978e+01
1.900000e-06	2.557328e-07	-7.085102e-10	1.813666e+00	-4.878280e+01
1.910000e-06	3.016077e-07	-6.831422e-10	2.139013e+00	-4.766001e+01
1.920000e-06	3.474359e-07	-6.629154e-10	2.464028e+00	-4.650204e+01
1.930000e-06	3.931960e-07	-6.475082e-10	2.788561e+00	-4.530985e+01
1.940000e-06	4.389618e-07	-6.335294e-10	3.113134e+00	-4.408461e+01
1.950000e-06	4.846750e-07	-6.177121e-10	3.437333e+00	-4.282762e+01
1.960000e-06	5.303253e-07	-6.023606e-10	3.761087e+00	-4.154023e+01
1.970000e-06	5.759335e-07	-5.849908e-10	4.084542e+00	-4.022376e+01
1.980000e-06	6.214622e-07	-5.612895e-10	4.407433e+00	-3.887939e+01
1.990000e-06	6.670024e-07	-5.324513e-10	4.730406e+00	-3.750806e+01
2.000000e-06	7.124530e-07	-5.056012e-10	5.052744e+00	-3.611046e+01
2.010000e-06	7.578540e-07	-4.852744e-10	5.374729e+00	-3.468692e+01
2.020000e-06	8.033121e-07	-4.658007e-10	5.697120e+00	-3.323741e+01
2.030000e-06	8.487460e-07	-4.458109e-10	6.019339e+00	-3.176152e+01
2.040000e-06	8.941535e-07	-4.256142e-10	6.341371e+00	-3.025846e+01
2.050000e-06	9.394676e-07	-4.055180e-10	6.662739e+00	-2.872711e+01
2.060000e-06	9.847229e-07	-3.829974e-10	6.983692e+00	-2.716606e+01
2.070000e-06	1.029871e-06	-3.546123e-10	7.303885e+00	-2.557365e+01
2.080000e-06	1.074800e-06	-3.222047e-10	7.622523e+00	-2.394811e+01
2.090000e-06	1.119644e-06	-2.937306e-10	7.940561e+00	-2.228757e+01
2.100000e-06	1.164553e-06	-2.687885e-10	8.259052e+00	-2.059022e+01
2.110000e-06	1.209363e-06	-2.422623e-10	8.576848e+00	-1.885436e+01
2.120000e-06	1.253970e-06	-2.153964e-10	8.893202e+00	-1.707850e+01
2.130000e-06	1.298476e-06	-1.916698e-10	9.208840e+00	-1.526144e+01
2.140000e-06	1.342910e-06	-1.697395e-10	9.523967e+00	-1.340235e+01
2.150000e-06	1.387241e-06	-1.433696e-10	9.838367e+00	-1.150079e+01
2.160000e-06	1.431478e-06	-1.132488e-10	1.015210e+01	-9.556755e+00
2.170000e-06	1.475621e-06	-8.185526e-11	1.046516e+01	-7.570721e+00
2.180000e-06	1.519643e-06	-4.887036e-11	1.077736e+01	-5.543612e+00
2.190000e-06	1.563664e-06	-1.478770e-11	1.108957e+01	-3.476802e+00
2.200000e-06	1.607647e-06	1.850986e-11	1.140149e+01	-1.372079e+00
2.210000e-06	1.651557e-06	4.778000e-11	1.171290e+01	7.683931e-01
2.220000e-06	1.695504e-06	7.499767e-11	1.202458e+01	2.942126e+00
2.230000e-06	1.739382e-06	1.040091e-10	1.233576e+01	5.146361e+00
2.240000e-06	1.783129e-06	1.389272e-10	1.264602e+01	7.378128e+00
2.250000e-06	1.826840e-06	1.763402e-10	1.295602e+01	9.634300e+00
2.260000e-06	1.870492e-06	2.130520e-10	1.326560e+01	1.191165e+01
2.270000e-06	1.914033e-06	2.511693e-10	1.357440e+01	1.420687e+01
2.280000e-06	1.957382e-06	2.900273e-10	1.388183e+01	1.651667e+01
2.290000e-06	2.000516e-06	3.281835e-10	1.418774e+01	1.883772e+01
2.300000e-06	2.043475e-06	3.605391e-10	1.449240e+01	2.116675e+01
2.310000e-06	2.086241e-06	3.891182e-10	1.479570e+01	2.350050e+01
2.320000e-06	2.128764e-06	4.213107e-10	1.509728e+01	2.583576e+01
2.330000e-06	2.170863e-06	4.587462e-10	1.539584e+01	2.816933e+01
2.340000e-06	2.212686e-06	4.959047e-10	1.569245e+01	3.049807e+01
2.350000e-06	2.254469e-06	5.294783e-10	1.598878e+01	3.281880e+01
2.360000e-06	2.295924e-06	5.638498e-10	1.628278e+01	3.512839e+01
2.370000e-06	2.336995e-06	6.018131e-10	1.657406e+01	3.742366e+01
2.380000e-06	2.377755e-06	6.385817e-10	1.686313e+01	3.970148e+01
2.390000e-06	2.418247e-06	6.705736e-10	1.715030e+01	4.195866e+01
2.400000e-06	2.458610e-06	7.009536e-10	1.743656e+01	4.419206e+01
2.410000e-06	2.498835e-06	7.323266e-10	1.772183e+01	4.639856e+01
2.420000e-06	2.538914e-06	7.649379e-10	1.800607e+01	4.857510e+01
2.430000e-06	2.578875e-06	7.971592e-10	1.828948e+01	5.071871e+01
2.440000e-06	2.618788e-06	8.289353e-10	1.857254e+01	5.282656e+01
2.450000e-06	2.658575e-06	8.607550e-10	1.885472e+01	5.489598e+01
2.460000e-06	2.698201e-06	8.946045e-10	1.913575e+01	5.692452e+01
2.470000e-06	2.737781e-06	9.263354e-10	1.941645e+01	5.891000e+01
2.480000e-06	2.777239e-06	9.526605e-10	1.969629e+01	6.085049e+01
2.490000e-06	2.816534e-06	9.784396e-10	1.997496e+01	6.274442e+01
2.500000e-06	2.855552e-06	1.005387e-09	2.025168e+01	6.459051e+01
2.510000e-06	2.894243e-06	1.033234e-09	2.052608e+01	6.638786e+01
2.520000e-06	2.932724e-06	1.062805e-09	2.079899e+01	6.813589e+01
2.530000e-06	2.971048e-06	1.093390e-09	2.107078e+01	6.983432e+01
2.540000e-06	3.009218e-06	1.120887e-09	2.134149e+01	7.148320e+01
2.550000e-06	3.047166e-06	1.143306e-09	2.161062e+01	7.308282e+01
2.560000e-06	3.084915e-06	1.162910e-09	2.187834e+01	7.463367e+01
2.570000e-06	3.122493e-06	1.182832e-09	2.214484e+01	7.613642e+01
2.580000e-06	3.159855e-06	1.204196e-09	2.240981e+01	7.759185e+01
2.590000e-06	3.197000e-06	1.225611e-09	2.267325e+01	7.900077e+01
2.600000e-06	3.233879e-06	1.248521e-09	2.293479e+01	8.036402e+01
2.610000e-06	3.270464e-06	1.274337e-09	2.319426e+01	8.168241e+01
2.620000e-06	3.306866e-06	1.297558e-09	2.345242e+01	8.295666e+01
2.630000e-06	3.343061e-06	1.313312e-09	2.370911e+01	8.418740e+01
2.640000e-06	3.379085e-06	1.326487e-09	2.396460e+01	8.537515e+01
2.650000e-06	3.414982e-06	1.340736e-09	2.421918e+01	8.652035e+01
2.660000e-06	3.450713e-06	1.353679e-09	2.447259e+01	8.762332e+01
2.670000e-06	3.486328e-06	1.362706e-09	2.472517e+01	8.868432e+01
2.680000e-06	3.521811e-06	1.372719e-09	2.497682e+01	8.970358e+01
2.690000e-06	3.557010e-06	1.387437e-09	2.522645e+01	9.068134e+01
2.700000e-06	3.591839e-06	1.406164e-09	2.547346e+01	9.161788e+01
2.710000e-06	3.626304e-06	1.425771e-09	2.571788e+01	9.251359e+01
2.720000e-06	3.660372e-06	1.443772e-09	2.595949e+01	9.336899e+01
2.730000e-06	3.693916e-06	1.459533e-09	2.619739e+01	9.418479e+01
2.740000e-06	3.726990e-06	1.470883e-09	2.643195e+01	9.496188e+01
2.750000e-06	3.759698e-06	1.476138e-09	2.666392e+01	9.570138e+01
2.760000e-06	3.792109e-06	1.477799e-09	2.689378e+01	9.640466e+01
2.770000e-06	3.824342e-06	1.482678e-09	2.712238e+01	9.707327e+01
2.780000e-06	3.856365e-06	1.494521e-09	2.734949e+01	9.770898e+01
2.790000e-06	3.888177e-06	1.511500e-09	2.757509e+01	9.831370e+01
2.800000e-06	3.919874e-06	1.525343e-09	2.779989e+01	9.888944e+01
2.810000e-06	3.951319e-06	1.533446e-09	2.802290e+01	9.943828e+01
2.820000e-06	3.982468e-06	1.538680e-09	2.824381e+01	9.996229e+01
2.830000e-06	4.013419e-06	1.544033e-09	2.846332e+01	1.004634e+02
2.840000e-06	4.044036e-06	1.547038e-09	2.868046e+01	1.009436e+02
2.850000e-06	4.074319e-06	1.546753e-09	2.889522e+01	1.014043e+02
2.860000e-06	4.104344e-06	1.548413e-09	2.910816e+01	1.018471e+02
2.870000e-06	4.134121e-06	1.557374e-09	2.931934e+01	1.022731e+02
2.880000e-06	4.163566e-06	1.570984e-09	2.952816e+01	1.026830e+02
2.890000e-06	4.192756e-06	1.580084e-09	2.973518e+01	1.030774e+02
2.900000e-06	4.221708e-06	1.583707e-09	2.994051e+01	1.034565e+02
