# Temperatura_=_-8.77
# Concentracion g/m^3_=_4090.0
# C_Vs_to_Am_M_A/Vsm_=_65563218390.804596
# pendiente_HvsI_1/m_=_3716.3
# ordenada_HvsI_A/m_=_1297.0
# frecuencia_Hz_=_135076.15401735582

Tiempo_(s)	Campo_(V.s)	Magnetizacion_(V.s)	Campo_(kA/m)	Magnetizacion_(A/m)
0.000000e+00	-5.423107e-06	-1.367556e-09	-3.839740e+01	-9.101863e+01
1.000000e-08	-5.423227e-06	-1.363890e-09	-3.839825e+01	-9.097869e+01
2.000000e-08	-5.423060e-06	-1.356556e-09	-3.839707e+01	-9.092276e+01
3.000000e-08	-5.422531e-06	-1.352364e-09	-3.839332e+01	-9.085155e+01
4.000000e-08	-5.421562e-06	-1.357403e-09	-3.838646e+01	-9.076635e+01
5.000000e-08	-5.420000e-06	-1.374288e-09	-3.837541e+01	-9.066913e+01
6.000000e-08	-5.417771e-06	-1.397918e-09	-3.835962e+01	-9.056236e+01
7.000000e-08	-5.414940e-06	-1.382771e-09	-3.833958e+01	-9.044906e+01
8.000000e-08	-5.411666e-06	-1.300081e-09	-3.831640e+01	-9.033256e+01
9.000000e-08	-5.407993e-06	-1.284041e-09	-3.829039e+01	-9.021649e+01
1.000000e-07	-5.403866e-06	-1.403215e-09	-3.826117e+01	-9.010454e+01
1.100000e-07	-5.399337e-06	-1.424788e-09	-3.822910e+01	-9.000035e+01
1.200000e-07	-5.394704e-06	-1.299104e-09	-3.819630e+01	-8.990736e+01
1.300000e-07	-5.389999e-06	-1.287093e-09	-3.816299e+01	-8.982861e+01
1.400000e-07	-5.384847e-06	-1.453778e-09	-3.812651e+01	-8.976667e+01
1.500000e-07	-5.379196e-06	-1.522374e-09	-3.808649e+01	-8.972346e+01
1.600000e-07	-5.373168e-06	-1.302143e-09	-3.804382e+01	-8.970018e+01
1.700000e-07	-5.366814e-06	-1.220535e-09	-3.799883e+01	-8.969725e+01
1.800000e-07	-5.360001e-06	-1.367670e-09	-3.795059e+01	-8.971430e+01
1.900000e-07	-5.352733e-06	-1.438896e-09	-3.789913e+01	-8.975013e+01
2.000000e-07	-5.345225e-06	-1.326161e-09	-3.784597e+01	-8.980280e+01
2.100000e-07	-5.337547e-06	-1.338515e-09	-3.779161e+01	-8.986968e+01
2.200000e-07	-5.329645e-06	-1.471185e-09	-3.773566e+01	-8.994759e+01
2.300000e-07	-5.321411e-06	-1.448068e-09	-3.767736e+01	-9.003289e+01
2.400000e-07	-5.312717e-06	-1.368085e-09	-3.761580e+01	-9.012167e+01
2.500000e-07	-5.303377e-06	-1.436952e-09	-3.754967e+01	-9.020989e+01
2.600000e-07	-5.293178e-06	-1.497696e-09	-3.747746e+01	-9.029356e+01
2.700000e-07	-5.282492e-06	-1.394069e-09	-3.740180e+01	-9.036891e+01
2.800000e-07	-5.271545e-06	-1.377539e-09	-3.732429e+01	-9.043253e+01
2.900000e-07	-5.260083e-06	-1.466351e-09	-3.724314e+01	-9.048148e+01
3.000000e-07	-5.248159e-06	-1.436154e-09	-3.715871e+01	-9.051345e+01
3.100000e-07	-5.235911e-06	-1.319773e-09	-3.707199e+01	-9.052681e+01
3.200000e-07	-5.223350e-06	-1.373361e-09	-3.698305e+01	-9.052062e+01
3.300000e-07	-5.210336e-06	-1.439734e-09	-3.689091e+01	-9.049470e+01
3.400000e-07	-5.196881e-06	-1.397011e-09	-3.679565e+01	-9.044954e+01
3.500000e-07	-5.182993e-06	-1.376886e-09	-3.669731e+01	-9.038631e+01
3.600000e-07	-5.168704e-06	-1.428249e-09	-3.659615e+01	-9.030669e+01
3.700000e-07	-5.154102e-06	-1.391263e-09	-3.649276e+01	-9.021284e+01
3.800000e-07	-5.138954e-06	-1.361777e-09	-3.638550e+01	-9.010721e+01
3.900000e-07	-5.123040e-06	-1.392787e-09	-3.627283e+01	-8.999241e+01
4.000000e-07	-5.106590e-06	-1.380671e-09	-3.615635e+01	-8.987109e+01
4.100000e-07	-5.089886e-06	-1.329827e-09	-3.603808e+01	-8.974578e+01
4.200000e-07	-5.072873e-06	-1.378773e-09	-3.591763e+01	-8.961878e+01
4.300000e-07	-5.055491e-06	-1.421653e-09	-3.579456e+01	-8.949201e+01
4.400000e-07	-5.037836e-06	-1.381458e-09	-3.566955e+01	-8.936696e+01
4.500000e-07	-5.019947e-06	-1.357036e-09	-3.554289e+01	-8.924464e+01
4.600000e-07	-5.001688e-06	-1.377169e-09	-3.541361e+01	-8.912549e+01
4.700000e-07	-4.982974e-06	-1.369569e-09	-3.528111e+01	-8.900947e+01
4.800000e-07	-4.963906e-06	-1.346458e-09	-3.514611e+01	-8.889598e+01
4.900000e-07	-4.944560e-06	-1.340225e-09	-3.500913e+01	-8.878404e+01
5.000000e-07	-4.924985e-06	-1.332024e-09	-3.487053e+01	-8.867226e+01
5.100000e-07	-4.905180e-06	-1.354879e-09	-3.473031e+01	-8.855901e+01
5.200000e-07	-4.885163e-06	-1.373836e-09	-3.458858e+01	-8.844251e+01
5.300000e-07	-4.864859e-06	-1.351972e-09	-3.444482e+01	-8.832092e+01
5.400000e-07	-4.844267e-06	-1.332511e-09	-3.429902e+01	-8.819250e+01
5.500000e-07	-4.823357e-06	-1.358515e-09	-3.415097e+01	-8.805570e+01
5.600000e-07	-4.802011e-06	-1.356705e-09	-3.399984e+01	-8.790924e+01
5.700000e-07	-4.780323e-06	-1.333563e-09	-3.384628e+01	-8.775222e+01
5.800000e-07	-4.758339e-06	-1.318694e-09	-3.369062e+01	-8.758414e+01
5.900000e-07	-4.736043e-06	-1.324002e-09	-3.353276e+01	-8.740493e+01
6.000000e-07	-4.713372e-06	-1.332815e-09	-3.337224e+01	-8.721499e+01
6.100000e-07	-4.690364e-06	-1.341084e-09	-3.320934e+01	-8.701513e+01
6.200000e-07	-4.667089e-06	-1.318957e-09	-3.304454e+01	-8.680654e+01
6.300000e-07	-4.643554e-06	-1.312100e-09	-3.287791e+01	-8.659070e+01
6.400000e-07	-4.619777e-06	-1.334467e-09	-3.270956e+01	-8.636933e+01
6.500000e-07	-4.595725e-06	-1.338826e-09	-3.253926e+01	-8.614426e+01
6.600000e-07	-4.571362e-06	-1.307374e-09	-3.236676e+01	-8.591737e+01
6.700000e-07	-4.546601e-06	-1.297350e-09	-3.219145e+01	-8.569042e+01
6.800000e-07	-4.521317e-06	-1.308158e-09	-3.201243e+01	-8.546504e+01
6.900000e-07	-4.495491e-06	-1.314044e-09	-3.182957e+01	-8.524257e+01
7.000000e-07	-4.469125e-06	-1.301844e-09	-3.164289e+01	-8.502402e+01
7.100000e-07	-4.442301e-06	-1.289891e-09	-3.145297e+01	-8.481005e+01
7.200000e-07	-4.415151e-06	-1.293965e-09	-3.126074e+01	-8.460089e+01
7.300000e-07	-4.387733e-06	-1.309145e-09	-3.106661e+01	-8.439638e+01
7.400000e-07	-4.360152e-06	-1.301356e-09	-3.087132e+01	-8.419596e+01
7.500000e-07	-4.332426e-06	-1.278301e-09	-3.067501e+01	-8.399873e+01
7.600000e-07	-4.304454e-06	-1.276195e-09	-3.047696e+01	-8.380350e+01
7.700000e-07	-4.276195e-06	-1.288436e-09	-3.027688e+01	-8.360888e+01
7.800000e-07	-4.247632e-06	-1.287861e-09	-3.007464e+01	-8.341334e+01
7.900000e-07	-4.218754e-06	-1.274935e-09	-2.987018e+01	-8.321531e+01
8.000000e-07	-4.189611e-06	-1.273133e-09	-2.966384e+01	-8.301330e+01
8.100000e-07	-4.160233e-06	-1.280221e-09	-2.945583e+01	-8.280593e+01
8.200000e-07	-4.130588e-06	-1.283253e-09	-2.924594e+01	-8.259205e+01
8.300000e-07	-4.100585e-06	-1.268404e-09	-2.903351e+01	-8.237081e+01
8.400000e-07	-4.070306e-06	-1.255317e-09	-2.881912e+01	-8.214164e+01
8.500000e-07	-4.039796e-06	-1.257484e-09	-2.860310e+01	-8.190435e+01
8.600000e-07	-4.008941e-06	-1.267993e-09	-2.838463e+01	-8.165908e+01
8.700000e-07	-3.977794e-06	-1.262293e-09	-2.816411e+01	-8.140632e+01
8.800000e-07	-3.946439e-06	-1.250319e-09	-2.794210e+01	-8.114683e+01
8.900000e-07	-3.914944e-06	-1.245882e-09	-2.771911e+01	-8.088164e+01
9.000000e-07	-3.883311e-06	-1.248731e-09	-2.749514e+01	-8.061193e+01
9.100000e-07	-3.851466e-06	-1.240748e-09	-2.726966e+01	-8.033900e+01
9.200000e-07	-3.819381e-06	-1.229059e-09	-2.704249e+01	-8.006416e+01
9.300000e-07	-3.787043e-06	-1.228200e-09	-2.681353e+01	-7.978866e+01
9.400000e-07	-3.754390e-06	-1.241296e-09	-2.658233e+01	-7.951363e+01
9.500000e-07	-3.721322e-06	-1.243593e-09	-2.634820e+01	-7.923996e+01
9.600000e-07	-3.687823e-06	-1.233829e-09	-2.611101e+01	-7.896832e+01
9.700000e-07	-3.653885e-06	-1.222499e-09	-2.587072e+01	-7.869906e+01
9.800000e-07	-3.619460e-06	-1.220017e-09	-2.562698e+01	-7.843224e+01
9.900000e-07	-3.584587e-06	-1.215747e-09	-2.538007e+01	-7.816759e+01
1.000000e-06	-3.549457e-06	-1.206689e-09	-2.513133e+01	-7.790454e+01
1.010000e-06	-3.514183e-06	-1.201746e-09	-2.488159e+01	-7.764227e+01
1.020000e-06	-3.478735e-06	-1.207218e-09	-2.463060e+01	-7.737972e+01
1.030000e-06	-3.443049e-06	-1.212357e-09	-2.437794e+01	-7.711571e+01
1.040000e-06	-3.407215e-06	-1.206893e-09	-2.412422e+01	-7.684894e+01
1.050000e-06	-3.371274e-06	-1.195957e-09	-2.386974e+01	-7.657812e+01
1.060000e-06	-3.335094e-06	-1.188319e-09	-2.361357e+01	-7.630200e+01
1.070000e-06	-3.298614e-06	-1.182440e-09	-2.335528e+01	-7.601947e+01
1.080000e-06	-3.261919e-06	-1.172118e-09	-2.309547e+01	-7.572959e+01
1.090000e-06	-3.224991e-06	-1.164138e-09	-2.283401e+01	-7.543165e+01
1.100000e-06	-3.187761e-06	-1.164150e-09	-2.257041e+01	-7.512520e+01
1.110000e-06	-3.150358e-06	-1.168769e-09	-2.230558e+01	-7.481009e+01
1.120000e-06	-3.112770e-06	-1.167220e-09	-2.203945e+01	-7.448641e+01
1.130000e-06	-3.074983e-06	-1.158842e-09	-2.177190e+01	-7.415455e+01
1.140000e-06	-3.037031e-06	-1.149949e-09	-2.150319e+01	-7.381510e+01
1.150000e-06	-2.998852e-06	-1.146952e-09	-2.123287e+01	-7.346886e+01
1.160000e-06	-2.960438e-06	-1.139852e-09	-2.096089e+01	-7.311676e+01
1.170000e-06	-2.921856e-06	-1.128376e-09	-2.068771e+01	-7.275981e+01
1.180000e-06	-2.883119e-06	-1.117751e-09	-2.041344e+01	-7.239903e+01
1.190000e-06	-2.844112e-06	-1.113509e-09	-2.013726e+01	-7.203539e+01
1.200000e-06	-2.804851e-06	-1.113133e-09	-1.985928e+01	-7.166978e+01
1.210000e-06	-2.765468e-06	-1.112712e-09	-1.958043e+01	-7.130291e+01
1.220000e-06	-2.725937e-06	-1.108686e-09	-1.930054e+01	-7.093535e+01
1.230000e-06	-2.686271e-06	-1.105405e-09	-1.901969e+01	-7.056741e+01
1.240000e-06	-2.646556e-06	-1.098437e-09	-1.873849e+01	-7.019924e+01
1.250000e-06	-2.606725e-06	-1.089278e-09	-1.845648e+01	-6.983072e+01
1.260000e-06	-2.566716e-06	-1.079348e-09	-1.817320e+01	-6.946157e+01
1.270000e-06	-2.526546e-06	-1.072071e-09	-1.788879e+01	-6.909133e+01
1.280000e-06	-2.486279e-06	-1.068751e-09	-1.760368e+01	-6.871940e+01
1.290000e-06	-2.445836e-06	-1.064585e-09	-1.731733e+01	-6.834513e+01
1.300000e-06	-2.405218e-06	-1.058080e-09	-1.702974e+01	-6.796779e+01
1.310000e-06	-2.364372e-06	-1.050432e-09	-1.674054e+01	-6.758671e+01
1.320000e-06	-2.323167e-06	-1.044642e-09	-1.644880e+01	-6.720125e+01
1.330000e-06	-2.281649e-06	-1.039183e-09	-1.615483e+01	-6.681089e+01
1.340000e-06	-2.239846e-06	-1.034371e-09	-1.585886e+01	-6.641523e+01
1.350000e-06	-2.197824e-06	-1.031535e-09	-1.556133e+01	-6.601406e+01
1.360000e-06	-2.155547e-06	-1.029166e-09	-1.526199e+01	-6.560728e+01
1.370000e-06	-2.112938e-06	-1.022505e-09	-1.496031e+01	-6.519500e+01
1.380000e-06	-2.070063e-06	-1.013541e-09	-1.465673e+01	-6.477745e+01
1.390000e-06	-2.027062e-06	-1.005099e-09	-1.435227e+01	-6.435499e+01
1.400000e-06	-1.983935e-06	-1.000234e-09	-1.404692e+01	-6.392805e+01
1.410000e-06	-1.940575e-06	-9.973358e-10	-1.373991e+01	-6.349709e+01
1.420000e-06	-1.897042e-06	-9.933772e-10	-1.343169e+01	-6.306259e+01
1.430000e-06	-1.853509e-06	-9.905653e-10	-1.312346e+01	-6.262495e+01
1.440000e-06	-1.809948e-06	-9.876643e-10	-1.281503e+01	-6.218447e+01
1.450000e-06	-1.766236e-06	-9.823347e-10	-1.250554e+01	-6.174130e+01
1.460000e-06	-1.722451e-06	-9.768502e-10	-1.219553e+01	-6.129544e+01
1.470000e-06	-1.678618e-06	-9.721991e-10	-1.188517e+01	-6.084668e+01
1.480000e-06	-1.634695e-06	-9.684353e-10	-1.157419e+01	-6.039461e+01
1.490000e-06	-1.590668e-06	-9.627321e-10	-1.126246e+01	-5.993863e+01
1.500000e-06	-1.546514e-06	-9.544718e-10	-1.094983e+01	-5.947796e+01
1.510000e-06	-1.502261e-06	-9.478979e-10	-1.063651e+01	-5.901168e+01
1.520000e-06	-1.457961e-06	-9.414700e-10	-1.032285e+01	-5.853875e+01
1.530000e-06	-1.413564e-06	-9.324331e-10	-1.000850e+01	-5.805810e+01
1.540000e-06	-1.369062e-06	-9.220059e-10	-9.693412e+00	-5.756866e+01
1.550000e-06	-1.324493e-06	-9.154244e-10	-9.377852e+00	-5.706939e+01
1.560000e-06	-1.279853e-06	-9.123472e-10	-9.061787e+00	-5.655942e+01
1.570000e-06	-1.235138e-06	-9.080253e-10	-8.745189e+00	-5.603800e+01
1.580000e-06	-1.190268e-06	-9.016511e-10	-8.427494e+00	-5.550461e+01
1.590000e-06	-1.145275e-06	-8.941196e-10	-8.108930e+00	-5.495899e+01
1.600000e-06	-1.100269e-06	-8.842651e-10	-7.790270e+00	-5.440112e+01
1.610000e-06	-1.055205e-06	-8.712592e-10	-7.471202e+00	-5.383125e+01
1.620000e-06	-1.009973e-06	-8.583968e-10	-7.150942e+00	-5.324991e+01
1.630000e-06	-9.646247e-07	-8.492463e-10	-6.829863e+00	-5.265784e+01
1.640000e-06	-9.192575e-07	-8.431462e-10	-6.508649e+00	-5.205597e+01
1.650000e-06	-8.738284e-07	-8.374625e-10	-6.186996e+00	-5.144538e+01
1.660000e-06	-8.283397e-07	-8.312311e-10	-5.864921e+00	-5.082723e+01
1.670000e-06	-7.828798e-07	-8.251702e-10	-5.543049e+00	-5.020268e+01
1.680000e-06	-7.373447e-07	-8.178016e-10	-5.220646e+00	-4.957284e+01
1.690000e-06	-6.917356e-07	-8.049218e-10	-4.897718e+00	-4.893871e+01
1.700000e-06	-6.461361e-07	-7.884582e-10	-4.574858e+00	-4.830107e+01
1.710000e-06	-6.004788e-07	-7.741421e-10	-4.251589e+00	-4.766047e+01
1.720000e-06	-5.547650e-07	-7.638781e-10	-3.927920e+00	-4.701719e+01
1.730000e-06	-5.089977e-07	-7.538976e-10	-3.603873e+00	-4.637118e+01
1.740000e-06	-4.631878e-07	-7.437576e-10	-3.279524e+00	-4.572207e+01
1.750000e-06	-4.173693e-07	-7.355916e-10	-2.955113e+00	-4.506918e+01
1.760000e-06	-3.715655e-07	-7.265431e-10	-2.630808e+00	-4.441152e+01
1.770000e-06	-3.256778e-07	-7.126379e-10	-2.305907e+00	-4.374784e+01
1.780000e-06	-2.796708e-07	-6.959314e-10	-1.980163e+00	-4.307667e+01
1.790000e-06	-2.336476e-07	-6.821289e-10	-1.654302e+00	-4.239642e+01
1.800000e-06	-1.876888e-07	-6.716378e-10	-1.328899e+00	-4.170538e+01
1.810000e-06	-1.417834e-07	-6.596906e-10	-1.003874e+00	-4.100187e+01
1.820000e-06	-9.584302e-08	-6.453081e-10	-6.786005e-01	-4.028426e+01
1.830000e-06	-4.989128e-08	-6.326114e-10	-3.532469e-01	-3.955104e+01
1.840000e-06	-4.003874e-09	-6.232479e-10	-2.834876e-02	-3.880094e+01
1.850000e-06	4.186094e-08	-6.155863e-10	2.963894e-01	-3.803293e+01
1.860000e-06	8.780614e-08	-6.068042e-10	6.216967e-01	-3.724624e+01
1.870000e-06	1.338176e-07	-5.952594e-10	9.474734e-01	-3.644048e+01
1.880000e-06	1.798372e-07	-5.806604e-10	1.273307e+00	-3.561554e+01
1.890000e-06	2.257800e-07	-5.638346e-10	1.598597e+00	-3.477164e+01
1.900000e-06	2.716696e-07	-5.440203e-10	1.923511e+00	-3.390932e+01
1.910000e-06	3.175329e-07	-5.240166e-10	2.248239e+00	-3.302937e+01
1.920000e-06	3.633618e-07	-5.073000e-10	2.572722e+00	-3.213279e+01
1.930000e-06	4.091959e-07	-4.935893e-10	2.897243e+00	-3.122073e+01
1.940000e-06	4.550038e-07	-4.807829e-10	3.221578e+00	-3.029445e+01
1.950000e-06	5.007727e-07	-4.667064e-10	3.545637e+00	-2.935523e+01
1.960000e-06	5.465002e-07	-4.526495e-10	3.869403e+00	-2.840432e+01
1.970000e-06	5.921945e-07	-4.388905e-10	4.192934e+00	-2.744286e+01
1.980000e-06	6.378618e-07	-4.235952e-10	4.516274e+00	-2.647188e+01
1.990000e-06	6.834641e-07	-4.052793e-10	4.839153e+00	-2.549218e+01
2.000000e-06	7.289988e-07	-3.869004e-10	5.161554e+00	-2.450439e+01
2.010000e-06	7.744933e-07	-3.724609e-10	5.483670e+00	-2.350888e+01
2.020000e-06	8.199764e-07	-3.594892e-10	5.805706e+00	-2.250580e+01
2.030000e-06	8.654014e-07	-3.447812e-10	6.127330e+00	-2.149510e+01
2.040000e-06	9.107367e-07	-3.287575e-10	6.448319e+00	-2.047651e+01
2.050000e-06	9.559755e-07	-3.128206e-10	6.768625e+00	-1.944963e+01
2.060000e-06	1.001121e-06	-2.964768e-10	7.088271e+00	-1.841393e+01
2.070000e-06	1.046270e-06	-2.748512e-10	7.407936e+00	-1.736883e+01
2.080000e-06	1.091418e-06	-2.543185e-10	7.727606e+00	-1.631372e+01
2.090000e-06	1.136426e-06	-2.386252e-10	8.046271e+00	-1.524804e+01
2.100000e-06	1.181250e-06	-2.258048e-10	8.363645e+00	-1.417131e+01
2.110000e-06	1.226033e-06	-2.110189e-10	8.680722e+00	-1.308319e+01
2.120000e-06	1.270697e-06	-1.925053e-10	8.996959e+00	-1.198348e+01
2.130000e-06	1.315218e-06	-1.764399e-10	9.312184e+00	-1.087218e+01
2.140000e-06	1.359747e-06	-1.624415e-10	9.627458e+00	-9.749451e+00
2.150000e-06	1.404183e-06	-1.443929e-10	9.942083e+00	-8.615686e+00
2.160000e-06	1.448480e-06	-1.239267e-10	1.025572e+01	-7.471439e+00
2.170000e-06	1.492695e-06	-1.050642e-10	1.056878e+01	-6.317434e+00
2.180000e-06	1.536805e-06	-8.845504e-11	1.088109e+01	-5.154527e+00
2.190000e-06	1.580863e-06	-7.078025e-11	1.119304e+01	-3.983671e+00
2.200000e-06	1.624881e-06	-5.156167e-11	1.150470e+01	-2.805879e+00
2.210000e-06	1.668824e-06	-3.449609e-11	1.181583e+01	-1.622181e+00
2.220000e-06	1.712663e-06	-1.924451e-11	1.212623e+01	-4.335812e-01
2.230000e-06	1.756394e-06	5.044312e-13	1.243586e+01	7.589760e-01
2.240000e-06	1.800075e-06	2.521008e-11	1.274513e+01	1.954642e+00
2.250000e-06	1.843689e-06	4.799550e-11	1.305393e+01	3.152688e+00
2.260000e-06	1.887215e-06	6.670898e-11	1.336211e+01	4.352523e+00
2.270000e-06	1.930664e-06	8.216691e-11	1.366975e+01	5.553704e+00
2.280000e-06	1.974043e-06	9.914648e-11	1.397688e+01	6.755930e+00
2.290000e-06	2.017355e-06	1.191016e-10	1.428354e+01	7.959042e+00
2.300000e-06	2.060575e-06	1.384084e-10	1.458956e+01	9.162998e+00
2.310000e-06	2.103575e-06	1.571184e-10	1.489401e+01	1.036785e+01
2.320000e-06	2.146254e-06	1.807387e-10	1.519619e+01	1.157373e+01
2.330000e-06	2.188672e-06	2.052200e-10	1.549653e+01	1.278078e+01
2.340000e-06	2.230765e-06	2.236458e-10	1.579456e+01	1.398918e+01
2.350000e-06	2.272492e-06	2.355286e-10	1.609000e+01	1.519907e+01
2.360000e-06	2.313887e-06	2.500302e-10	1.638309e+01	1.641051e+01
2.370000e-06	2.354946e-06	2.708894e-10	1.667380e+01	1.762351e+01
2.380000e-06	2.395793e-06	2.915719e-10	1.696301e+01	1.883797e+01
2.390000e-06	2.436430e-06	3.066885e-10	1.725073e+01	2.005367e+01
2.400000e-06	2.476779e-06	3.238829e-10	1.753642e+01	2.127030e+01
2.410000e-06	2.516913e-06	3.494172e-10	1.782058e+01	2.248739e+01
2.420000e-06	2.556980e-06	3.793934e-10	1.810427e+01	2.370441e+01
2.430000e-06	2.596935e-06	4.028712e-10	1.838716e+01	2.492070e+01
2.440000e-06	2.636744e-06	4.176231e-10	1.866902e+01	2.613555e+01
2.450000e-06	2.676486e-06	4.316920e-10	1.895041e+01	2.734817e+01
2.460000e-06	2.716127e-06	4.525952e-10	1.923108e+01	2.855776e+01
2.470000e-06	2.755612e-06	4.720046e-10	1.951065e+01	2.976351e+01
2.480000e-06	2.794994e-06	4.869764e-10	1.978949e+01	3.096460e+01
2.490000e-06	2.834269e-06	5.074029e-10	2.006757e+01	3.216028e+01
2.500000e-06	2.873300e-06	5.356139e-10	2.034392e+01	3.334983e+01
2.510000e-06	2.912081e-06	5.641863e-10	2.061851e+01	3.453258e+01
2.520000e-06	2.950677e-06	5.865589e-10	2.089177e+01	3.570795e+01
2.530000e-06	2.989080e-06	6.052828e-10	2.116368e+01	3.687543e+01
2.540000e-06	3.027214e-06	6.228278e-10	2.143368e+01	3.803456e+01
2.550000e-06	3.065086e-06	6.375838e-10	2.170183e+01	3.918495e+01
2.560000e-06	3.102776e-06	6.482191e-10	2.196869e+01	4.032629e+01
2.570000e-06	3.140299e-06	6.616551e-10	2.223436e+01	4.145828e+01
2.580000e-06	3.177665e-06	6.790424e-10	2.249892e+01	4.258066e+01
2.590000e-06	3.214816e-06	7.004940e-10	2.276197e+01	4.369319e+01
2.600000e-06	3.251729e-06	7.257616e-10	2.302332e+01	4.479565e+01
2.610000e-06	3.288381e-06	7.519042e-10	2.328283e+01	4.588780e+01
2.620000e-06	3.324775e-06	7.745914e-10	2.354052e+01	4.696938e+01
2.630000e-06	3.360954e-06	7.917226e-10	2.379667e+01	4.804015e+01
2.640000e-06	3.396893e-06	8.033895e-10	2.405113e+01	4.909983e+01
2.650000e-06	3.432702e-06	8.129127e-10	2.430467e+01	5.014812e+01
2.660000e-06	3.468411e-06	8.203479e-10	2.455750e+01	5.118471e+01
2.670000e-06	3.503966e-06	8.292421e-10	2.480924e+01	5.220929e+01
2.680000e-06	3.539464e-06	8.433177e-10	2.506058e+01	5.322155e+01
2.690000e-06	3.574817e-06	8.631893e-10	2.531089e+01	5.422119e+01
2.700000e-06	3.609855e-06	8.865573e-10	2.555897e+01	5.520789e+01
2.710000e-06	3.644480e-06	9.078979e-10	2.580413e+01	5.618139e+01
2.720000e-06	3.678655e-06	9.217812e-10	2.604610e+01	5.714141e+01
2.730000e-06	3.712292e-06	9.334904e-10	2.628426e+01	5.808772e+01
2.740000e-06	3.745434e-06	9.458471e-10	2.651892e+01	5.902007e+01
2.750000e-06	3.778177e-06	9.559662e-10	2.675075e+01	5.993826e+01
2.760000e-06	3.810517e-06	9.648640e-10	2.697972e+01	6.084207e+01
2.770000e-06	3.842582e-06	9.755487e-10	2.720676e+01	6.173127e+01
2.780000e-06	3.874556e-06	9.926233e-10	2.743315e+01	6.260562e+01
2.790000e-06	3.906360e-06	1.011295e-09	2.765832e+01	6.346486e+01
2.800000e-06	3.937906e-06	1.023367e-09	2.788168e+01	6.430868e+01
2.810000e-06	3.969371e-06	1.030684e-09	2.810447e+01	6.513675e+01
2.820000e-06	4.000699e-06	1.041330e-09	2.832628e+01	6.594867e+01
2.830000e-06	4.031655e-06	1.053741e-09	2.854546e+01	6.674401e+01
2.840000e-06	4.062165e-06	1.062223e-09	2.876148e+01	6.752230e+01
2.850000e-06	4.092354e-06	1.066999e-09	2.897523e+01	6.828304e+01
2.860000e-06	4.122243e-06	1.075485e-09	2.918685e+01	6.902570e+01
2.870000e-06	4.151889e-06	1.090215e-09	2.939676e+01	6.974979e+01
2.880000e-06	4.181381e-06	1.103182e-09	2.960557e+01	7.045481e+01
2.890000e-06	4.210688e-06	1.109808e-09	2.981307e+01	7.114034e+01
2.900000e-06	4.239691e-06	1.116699e-09	3.001842e+01	7.180603e+01
