# Temperatura_=_15.96
# Concentracion g/m^3_=_4090.0
# C_Vs_to_Am_M_A/Vsm_=_65563218390.804596
# pendiente_HvsI_1/m_=_3716.3
# ordenada_HvsI_A/m_=_1297.0
# frecuencia_Hz_=_135085.0975618842

Tiempo_(s)	Campo_(V.s)	Magnetizacion_(V.s)	Campo_(kA/m)	Magnetizacion_(A/m)
0.000000e+00	-5.416507e-06	-1.247077e-09	-3.839553e+01	-8.644658e+01
1.000000e-08	-5.416651e-06	-1.241566e-09	-3.839656e+01	-8.630271e+01
2.000000e-08	-5.416574e-06	-1.231221e-09	-3.839601e+01	-8.614016e+01
3.000000e-08	-5.416286e-06	-1.222006e-09	-3.839397e+01	-8.595932e+01
4.000000e-08	-5.415698e-06	-1.218106e-09	-3.838980e+01	-8.576162e+01
5.000000e-08	-5.414666e-06	-1.217216e-09	-3.838248e+01	-8.554952e+01
6.000000e-08	-5.412963e-06	-1.224068e-09	-3.837041e+01	-8.532649e+01
7.000000e-08	-5.410502e-06	-1.240985e-09	-3.835297e+01	-8.509700e+01
8.000000e-08	-5.407340e-06	-1.225256e-09	-3.833055e+01	-8.486635e+01
9.000000e-08	-5.403649e-06	-1.194922e-09	-3.830439e+01	-8.464055e+01
1.000000e-07	-5.399606e-06	-1.227105e-09	-3.827573e+01	-8.442607e+01
1.100000e-07	-5.395272e-06	-1.290597e-09	-3.824501e+01	-8.422965e+01
1.200000e-07	-5.390810e-06	-1.231262e-09	-3.821338e+01	-8.405801e+01
1.300000e-07	-5.386192e-06	-1.167184e-09	-3.818064e+01	-8.391759e+01
1.400000e-07	-5.381137e-06	-1.190623e-09	-3.814481e+01	-8.381427e+01
1.500000e-07	-5.375552e-06	-1.295629e-09	-3.810522e+01	-8.375309e+01
1.600000e-07	-5.369512e-06	-1.238597e-09	-3.806240e+01	-8.373805e+01
1.700000e-07	-5.363192e-06	-1.165125e-09	-3.801760e+01	-8.377187e+01
1.800000e-07	-5.356476e-06	-1.189747e-09	-3.797000e+01	-8.385584e+01
1.900000e-07	-5.349397e-06	-1.293207e-09	-3.791982e+01	-8.398976e+01
2.000000e-07	-5.342058e-06	-1.283070e-09	-3.786779e+01	-8.417182e+01
2.100000e-07	-5.334489e-06	-1.235980e-09	-3.781414e+01	-8.439869e+01
2.200000e-07	-5.326707e-06	-1.280796e-09	-3.775897e+01	-8.466557e+01
2.300000e-07	-5.318599e-06	-1.331602e-09	-3.770150e+01	-8.496634e+01
2.400000e-07	-5.310123e-06	-1.321220e-09	-3.764142e+01	-8.529375e+01
2.500000e-07	-5.301174e-06	-1.304098e-09	-3.757798e+01	-8.563968e+01
2.600000e-07	-5.291451e-06	-1.380882e-09	-3.750906e+01	-8.599543e+01
2.700000e-07	-5.281007e-06	-1.386951e-09	-3.743503e+01	-8.635199e+01
2.800000e-07	-5.270184e-06	-1.354228e-09	-3.735831e+01	-8.670040e+01
2.900000e-07	-5.258998e-06	-1.366084e-09	-3.727901e+01	-8.703201e+01
3.000000e-07	-5.247378e-06	-1.406630e-09	-3.719664e+01	-8.733884e+01
3.100000e-07	-5.235333e-06	-1.353561e-09	-3.711126e+01	-8.761380e+01
3.200000e-07	-5.222868e-06	-1.361959e-09	-3.702290e+01	-8.785093e+01
3.300000e-07	-5.209897e-06	-1.403377e-09	-3.693096e+01	-8.804558e+01
3.400000e-07	-5.196603e-06	-1.402692e-09	-3.683672e+01	-8.819454e+01
3.500000e-07	-5.182993e-06	-1.357123e-09	-3.674024e+01	-8.829606e+01
3.600000e-07	-5.168912e-06	-1.398628e-09	-3.664043e+01	-8.834988e+01
3.700000e-07	-5.154369e-06	-1.392035e-09	-3.653734e+01	-8.835716e+01
3.800000e-07	-5.139422e-06	-1.355079e-09	-3.643139e+01	-8.832033e+01
3.900000e-07	-5.123842e-06	-1.350601e-09	-3.632095e+01	-8.824297e+01
4.000000e-07	-5.107667e-06	-1.379906e-09	-3.620629e+01	-8.812951e+01
4.100000e-07	-5.091207e-06	-1.355806e-09	-3.608961e+01	-8.798509e+01
4.200000e-07	-5.074423e-06	-1.360481e-09	-3.597063e+01	-8.781523e+01
4.300000e-07	-5.057274e-06	-1.383948e-09	-3.584907e+01	-8.762557e+01
4.400000e-07	-5.039796e-06	-1.370814e-09	-3.572517e+01	-8.742164e+01
4.500000e-07	-5.022017e-06	-1.349336e-09	-3.559915e+01	-8.720864e+01
4.600000e-07	-5.003947e-06	-1.358777e-09	-3.547105e+01	-8.699117e+01
4.700000e-07	-4.985556e-06	-1.351653e-09	-3.534069e+01	-8.677311e+01
4.800000e-07	-4.966771e-06	-1.332496e-09	-3.520753e+01	-8.655750e+01
4.900000e-07	-4.947582e-06	-1.345405e-09	-3.507150e+01	-8.634645e+01
5.000000e-07	-4.928051e-06	-1.343689e-09	-3.493305e+01	-8.614113e+01
5.100000e-07	-4.908202e-06	-1.334158e-09	-3.479236e+01	-8.594179e+01
5.200000e-07	-4.888123e-06	-1.338944e-09	-3.465002e+01	-8.574787e+01
5.300000e-07	-4.867857e-06	-1.347988e-09	-3.450637e+01	-8.555806e+01
5.400000e-07	-4.847289e-06	-1.327467e-09	-3.436057e+01	-8.537049e+01
5.500000e-07	-4.826363e-06	-1.331489e-09	-3.421223e+01	-8.518289e+01
5.600000e-07	-4.805004e-06	-1.335001e-09	-3.406083e+01	-8.499278e+01
5.700000e-07	-4.783340e-06	-1.330290e-09	-3.390726e+01	-8.479763e+01
5.800000e-07	-4.761502e-06	-1.317089e-09	-3.375245e+01	-8.459509e+01
5.900000e-07	-4.739358e-06	-1.315651e-09	-3.359548e+01	-8.438311e+01
6.000000e-07	-4.716838e-06	-1.299367e-09	-3.343585e+01	-8.416007e+01
6.100000e-07	-4.693955e-06	-1.302576e-09	-3.327364e+01	-8.392492e+01
6.200000e-07	-4.670729e-06	-1.302535e-09	-3.310900e+01	-8.367723e+01
6.300000e-07	-4.647218e-06	-1.299081e-09	-3.294234e+01	-8.341721e+01
6.400000e-07	-4.623501e-06	-1.293169e-09	-3.277422e+01	-8.314571e+01
6.500000e-07	-4.599597e-06	-1.303718e-09	-3.260477e+01	-8.286417e+01
6.600000e-07	-4.575414e-06	-1.296378e-09	-3.243335e+01	-8.257454e+01
6.700000e-07	-4.550881e-06	-1.285580e-09	-3.225945e+01	-8.227915e+01
6.800000e-07	-4.526002e-06	-1.274744e-09	-3.208308e+01	-8.198061e+01
6.900000e-07	-4.500642e-06	-1.272319e-09	-3.190332e+01	-8.168166e+01
7.000000e-07	-4.474671e-06	-1.266346e-09	-3.171922e+01	-8.138500e+01
7.100000e-07	-4.448275e-06	-1.265338e-09	-3.153211e+01	-8.109318e+01
7.200000e-07	-4.421425e-06	-1.263412e-09	-3.134178e+01	-8.080843e+01
7.300000e-07	-4.394085e-06	-1.268374e-09	-3.114798e+01	-8.053259e+01
7.400000e-07	-4.366460e-06	-1.272096e-09	-3.095215e+01	-8.026699e+01
7.500000e-07	-4.338596e-06	-1.267119e-09	-3.075464e+01	-8.001241e+01
7.600000e-07	-4.310561e-06	-1.258295e-09	-3.055591e+01	-7.976903e+01
7.700000e-07	-4.282361e-06	-1.253036e-09	-3.035601e+01	-7.953649e+01
7.800000e-07	-4.253967e-06	-1.249868e-09	-3.015474e+01	-7.931385e+01
7.900000e-07	-4.225334e-06	-1.244100e-09	-2.995177e+01	-7.909971e+01
8.000000e-07	-4.196314e-06	-1.241025e-09	-2.974606e+01	-7.889230e+01
8.100000e-07	-4.166955e-06	-1.238736e-09	-2.953794e+01	-7.868955e+01
8.200000e-07	-4.137324e-06	-1.240966e-09	-2.932789e+01	-7.848924e+01
8.300000e-07	-4.107415e-06	-1.235851e-09	-2.911589e+01	-7.828909e+01
8.400000e-07	-4.077272e-06	-1.228292e-09	-2.890221e+01	-7.808694e+01
8.500000e-07	-4.046865e-06	-1.220913e-09	-2.868667e+01	-7.788078e+01
8.600000e-07	-4.016154e-06	-1.223954e-09	-2.846897e+01	-7.766893e+01
8.700000e-07	-3.985131e-06	-1.223899e-09	-2.824906e+01	-7.745007e+01
8.800000e-07	-3.953859e-06	-1.220838e-09	-2.802739e+01	-7.722329e+01
8.900000e-07	-3.922360e-06	-1.212636e-09	-2.780410e+01	-7.698813e+01
9.000000e-07	-3.890653e-06	-1.210556e-09	-2.757934e+01	-7.674461e+01
9.100000e-07	-3.858795e-06	-1.204763e-09	-2.735351e+01	-7.649315e+01
9.200000e-07	-3.826780e-06	-1.198868e-09	-2.712657e+01	-7.623456e+01
9.300000e-07	-3.794510e-06	-1.190714e-09	-2.689782e+01	-7.596996e+01
9.400000e-07	-3.761923e-06	-1.196146e-09	-2.666683e+01	-7.570071e+01
9.500000e-07	-3.729018e-06	-1.201616e-09	-2.643357e+01	-7.542829e+01
9.600000e-07	-3.695821e-06	-1.202085e-09	-2.619825e+01	-7.515424e+01
9.700000e-07	-3.662276e-06	-1.189367e-09	-2.596047e+01	-7.488003e+01
9.800000e-07	-3.628290e-06	-1.178693e-09	-2.571955e+01	-7.460698e+01
9.900000e-07	-3.593851e-06	-1.170997e-09	-2.547543e+01	-7.433618e+01
1.000000e-06	-3.558897e-06	-1.163259e-09	-2.522765e+01	-7.406846e+01
1.010000e-06	-3.523625e-06	-1.155765e-09	-2.497762e+01	-7.380429e+01
1.020000e-06	-3.488269e-06	-1.157001e-09	-2.472699e+01	-7.354380e+01
1.030000e-06	-3.452642e-06	-1.163580e-09	-2.447445e+01	-7.328675e+01
1.040000e-06	-3.416737e-06	-1.166432e-09	-2.421993e+01	-7.303259e+01
1.050000e-06	-3.380742e-06	-1.156417e-09	-2.396478e+01	-7.278046e+01
1.060000e-06	-3.344643e-06	-1.142999e-09	-2.370889e+01	-7.252925e+01
1.070000e-06	-3.308347e-06	-1.134864e-09	-2.345160e+01	-7.227769e+01
1.080000e-06	-3.271806e-06	-1.126151e-09	-2.319257e+01	-7.202439e+01
1.090000e-06	-3.234958e-06	-1.118423e-09	-2.293137e+01	-7.176795e+01
1.100000e-06	-3.197859e-06	-1.115804e-09	-2.266839e+01	-7.150703e+01
1.110000e-06	-3.160616e-06	-1.119121e-09	-2.240439e+01	-7.124041e+01
1.120000e-06	-3.123103e-06	-1.119999e-09	-2.213847e+01	-7.096707e+01
1.130000e-06	-3.085391e-06	-1.114947e-09	-2.187115e+01	-7.068622e+01
1.140000e-06	-3.047526e-06	-1.103481e-09	-2.160274e+01	-7.039735e+01
1.150000e-06	-3.009461e-06	-1.097143e-09	-2.133291e+01	-7.010027e+01
1.160000e-06	-2.971242e-06	-1.094249e-09	-2.106199e+01	-6.979505e+01
1.170000e-06	-2.932749e-06	-1.091471e-09	-2.078913e+01	-6.948206e+01
1.180000e-06	-2.893968e-06	-1.083132e-09	-2.051422e+01	-6.916194e+01
1.190000e-06	-2.855028e-06	-1.077501e-09	-2.023820e+01	-6.883552e+01
1.200000e-06	-2.815923e-06	-1.074236e-09	-1.996099e+01	-6.850379e+01
1.210000e-06	-2.776578e-06	-1.071703e-09	-1.968209e+01	-6.816786e+01
1.220000e-06	-2.737036e-06	-1.066335e-09	-1.940179e+01	-6.782886e+01
1.230000e-06	-2.697375e-06	-1.063481e-09	-1.912065e+01	-6.748792e+01
1.240000e-06	-2.657547e-06	-1.060634e-09	-1.883833e+01	-6.714607e+01
1.250000e-06	-2.617575e-06	-1.057531e-09	-1.855498e+01	-6.680423e+01
1.260000e-06	-2.577572e-06	-1.048692e-09	-1.827141e+01	-6.646315e+01
1.270000e-06	-2.537572e-06	-1.039193e-09	-1.798787e+01	-6.612338e+01
1.280000e-06	-2.497414e-06	-1.031220e-09	-1.770321e+01	-6.578526e+01
1.290000e-06	-2.456959e-06	-1.025113e-09	-1.741643e+01	-6.544891e+01
1.300000e-06	-2.416332e-06	-1.017806e-09	-1.712844e+01	-6.511424e+01
1.310000e-06	-2.375545e-06	-1.013559e-09	-1.683932e+01	-6.478095e+01
1.320000e-06	-2.334513e-06	-1.013416e-09	-1.654847e+01	-6.444858e+01
1.330000e-06	-2.293277e-06	-1.012400e-09	-1.625616e+01	-6.411653e+01
1.340000e-06	-2.251746e-06	-1.006827e-09	-1.596176e+01	-6.378408e+01
1.350000e-06	-2.209885e-06	-9.991604e-10	-1.566503e+01	-6.345046e+01
1.360000e-06	-2.167743e-06	-9.921046e-10	-1.536630e+01	-6.311485e+01
1.370000e-06	-2.125387e-06	-9.839958e-10	-1.506605e+01	-6.277645e+01
1.380000e-06	-2.082914e-06	-9.744322e-10	-1.476498e+01	-6.243445e+01
1.390000e-06	-2.040222e-06	-9.693017e-10	-1.446235e+01	-6.208813e+01
1.400000e-06	-1.997241e-06	-9.699159e-10	-1.415767e+01	-6.173682e+01
1.410000e-06	-1.954050e-06	-9.700873e-10	-1.385151e+01	-6.137989e+01
1.420000e-06	-1.910707e-06	-9.653810e-10	-1.354427e+01	-6.101684e+01
1.430000e-06	-1.867167e-06	-9.564804e-10	-1.323563e+01	-6.064719e+01
1.440000e-06	-1.823544e-06	-9.488467e-10	-1.292640e+01	-6.027055e+01
1.450000e-06	-1.779892e-06	-9.394942e-10	-1.261697e+01	-5.988655e+01
1.460000e-06	-1.736093e-06	-9.312103e-10	-1.230650e+01	-5.949490e+01
1.470000e-06	-1.692122e-06	-9.276806e-10	-1.199480e+01	-5.909528e+01
1.480000e-06	-1.648077e-06	-9.289639e-10	-1.168259e+01	-5.868741e+01
1.490000e-06	-1.604009e-06	-9.307981e-10	-1.137020e+01	-5.827103e+01
1.500000e-06	-1.559879e-06	-9.291903e-10	-1.105738e+01	-5.784586e+01
1.510000e-06	-1.515665e-06	-9.218342e-10	-1.074397e+01	-5.741161e+01
1.520000e-06	-1.471449e-06	-9.112756e-10	-1.043053e+01	-5.696803e+01
1.530000e-06	-1.427208e-06	-8.953051e-10	-1.011693e+01	-5.651487e+01
1.540000e-06	-1.382784e-06	-8.805979e-10	-9.802021e+00	-5.605192e+01
1.550000e-06	-1.338243e-06	-8.698686e-10	-9.486292e+00	-5.557902e+01
1.560000e-06	-1.293674e-06	-8.645348e-10	-9.170359e+00	-5.509605e+01
1.570000e-06	-1.249042e-06	-8.653787e-10	-8.853977e+00	-5.460299e+01
1.580000e-06	-1.204336e-06	-8.658041e-10	-8.537074e+00	-5.409989e+01
1.590000e-06	-1.159534e-06	-8.579680e-10	-8.219493e+00	-5.358691e+01
1.600000e-06	-1.114713e-06	-8.472212e-10	-7.901771e+00	-5.306428e+01
1.610000e-06	-1.069853e-06	-8.368292e-10	-7.583778e+00	-5.253233e+01
1.620000e-06	-1.024833e-06	-8.251172e-10	-7.264646e+00	-5.199144e+01
1.630000e-06	-9.796866e-07	-8.098285e-10	-6.944622e+00	-5.144204e+01
1.640000e-06	-9.344061e-07	-7.980300e-10	-6.623646e+00	-5.088459e+01
1.650000e-06	-8.890631e-07	-7.954454e-10	-6.302226e+00	-5.031949e+01
1.660000e-06	-8.436661e-07	-7.937567e-10	-5.980424e+00	-4.974711e+01
1.670000e-06	-7.981318e-07	-7.870411e-10	-5.657649e+00	-4.916769e+01
1.680000e-06	-7.525961e-07	-7.787167e-10	-5.334864e+00	-4.858132e+01
1.690000e-06	-7.070842e-07	-7.709183e-10	-5.012248e+00	-4.798791e+01
1.700000e-06	-6.615345e-07	-7.604143e-10	-4.689363e+00	-4.738713e+01
1.710000e-06	-6.159368e-07	-7.460445e-10	-4.366139e+00	-4.677841e+01
1.720000e-06	-5.702876e-07	-7.332879e-10	-4.042549e+00	-4.616089e+01
1.730000e-06	-5.246341e-07	-7.254070e-10	-3.718930e+00	-4.553344e+01
1.740000e-06	-4.789161e-07	-7.194851e-10	-3.394852e+00	-4.489466e+01
1.750000e-06	-4.331016e-07	-7.130898e-10	-3.070090e+00	-4.424290e+01
1.760000e-06	-3.872539e-07	-7.017602e-10	-2.745094e+00	-4.357630e+01
1.770000e-06	-3.413783e-07	-6.887466e-10	-2.419900e+00	-4.289282e+01
1.780000e-06	-2.954913e-07	-6.770248e-10	-2.094624e+00	-4.219031e+01
1.790000e-06	-2.495281e-07	-6.665494e-10	-1.768808e+00	-4.146654e+01
1.800000e-06	-2.035526e-07	-6.537799e-10	-1.442906e+00	-4.071932e+01
1.810000e-06	-1.576889e-07	-6.385988e-10	-1.117796e+00	-3.994653e+01
1.820000e-06	-1.118479e-07	-6.251860e-10	-7.928467e-01	-3.914620e+01
1.830000e-06	-6.606852e-08	-6.142540e-10	-4.683343e-01	-3.831657e+01
1.840000e-06	-2.025462e-08	-5.988885e-10	-1.435772e-01	-3.745614e+01
1.850000e-06	2.566242e-08	-5.824664e-10	1.819110e-01	-3.656373e+01
1.860000e-06	7.160050e-08	-5.690929e-10	5.075484e-01	-3.563848e+01
1.870000e-06	1.175827e-07	-5.591716e-10	8.334987e-01	-3.467988e+01
1.880000e-06	1.634999e-07	-5.484140e-10	1.158988e+00	-3.368778e+01
1.890000e-06	2.093812e-07	-5.322570e-10	1.484223e+00	-3.266237e+01
1.900000e-06	2.552665e-07	-5.113732e-10	1.809486e+00	-3.160413e+01
1.910000e-06	3.010987e-07	-4.916763e-10	2.134373e+00	-3.051381e+01
1.920000e-06	3.469158e-07	-4.725472e-10	2.459153e+00	-2.939236e+01
1.930000e-06	3.927052e-07	-4.507487e-10	2.783736e+00	-2.824088e+01
1.940000e-06	4.384516e-07	-4.298845e-10	3.108015e+00	-2.706056e+01
1.950000e-06	4.842034e-07	-4.123962e-10	3.432331e+00	-2.585259e+01
1.960000e-06	5.300087e-07	-3.965049e-10	3.757028e+00	-2.461813e+01
1.970000e-06	5.758428e-07	-3.778401e-10	4.081928e+00	-2.335823e+01
1.980000e-06	6.215347e-07	-3.582362e-10	4.405820e+00	-2.207379e+01
1.990000e-06	6.670662e-07	-3.362100e-10	4.728575e+00	-2.076555e+01
2.000000e-06	7.126303e-07	-3.135600e-10	5.051562e+00	-1.943402e+01
2.010000e-06	7.581577e-07	-2.940416e-10	5.374288e+00	-1.807952e+01
2.020000e-06	8.035599e-07	-2.754363e-10	5.696127e+00	-1.670216e+01
2.030000e-06	8.489161e-07	-2.536128e-10	6.017640e+00	-1.530189e+01
2.040000e-06	8.942575e-07	-2.304891e-10	6.339047e+00	-1.387850e+01
2.050000e-06	9.394872e-07	-2.074894e-10	6.659663e+00	-1.243170e+01
2.060000e-06	9.846210e-07	-1.856256e-10	6.979599e+00	-1.096116e+01
2.070000e-06	1.029762e-06	-1.620421e-10	7.299587e+00	-9.466551e+00
2.080000e-06	1.074825e-06	-1.368744e-10	7.619022e+00	-7.947630e+00
2.090000e-06	1.119789e-06	-1.122620e-10	7.937756e+00	-6.404285e+00
2.100000e-06	1.164682e-06	-8.896407e-11	8.255983e+00	-4.836584e+00
2.110000e-06	1.209425e-06	-6.500337e-11	8.573146e+00	-3.244820e+00
2.120000e-06	1.254063e-06	-3.862608e-11	8.889569e+00	-1.629544e+00
2.130000e-06	1.298598e-06	-1.301246e-11	9.205263e+00	8.416252e-03
2.140000e-06	1.343000e-06	1.063293e-11	9.520011e+00	1.667951e+00
2.150000e-06	1.387365e-06	3.518505e-11	9.834495e+00	3.347672e+00
2.160000e-06	1.431705e-06	6.042085e-11	1.014881e+01	5.045933e+00
2.170000e-06	1.476005e-06	8.578485e-11	1.046283e+01	6.760859e+00
2.180000e-06	1.520211e-06	1.111309e-10	1.077619e+01	8.490386e+00
2.190000e-06	1.564347e-06	1.361906e-10	1.108905e+01	1.023231e+01
2.200000e-06	1.608412e-06	1.623052e-10	1.140141e+01	1.198432e+01
2.210000e-06	1.652377e-06	1.907420e-10	1.171307e+01	1.374408e+01
2.220000e-06	1.696311e-06	2.188364e-10	1.202449e+01	1.550924e+01
2.230000e-06	1.740194e-06	2.448461e-10	1.233556e+01	1.727751e+01
2.240000e-06	1.783982e-06	2.725650e-10	1.264596e+01	1.904667e+01
2.250000e-06	1.827672e-06	3.027358e-10	1.295566e+01	2.081464e+01
2.260000e-06	1.871251e-06	3.328851e-10	1.326457e+01	2.257942e+01
2.270000e-06	1.914704e-06	3.599084e-10	1.357260e+01	2.433919e+01
2.280000e-06	1.958106e-06	3.853950e-10	1.388026e+01	2.609223e+01
2.290000e-06	2.001382e-06	4.121983e-10	1.418703e+01	2.783695e+01
2.300000e-06	2.044401e-06	4.392542e-10	1.449197e+01	2.957187e+01
2.310000e-06	2.087193e-06	4.649179e-10	1.479531e+01	3.129554e+01
2.320000e-06	2.129826e-06	4.916081e-10	1.509752e+01	3.300659e+01
2.330000e-06	2.172203e-06	5.209723e-10	1.539791e+01	3.470363e+01
2.340000e-06	2.214199e-06	5.509111e-10	1.569561e+01	3.638528e+01
2.350000e-06	2.255775e-06	5.767988e-10	1.599032e+01	3.805009e+01
2.360000e-06	2.297054e-06	6.004233e-10	1.628293e+01	3.969655e+01
2.370000e-06	2.338091e-06	6.253978e-10	1.657383e+01	4.132309e+01
2.380000e-06	2.378819e-06	6.526485e-10	1.686253e+01	4.292806e+01
2.390000e-06	2.419304e-06	6.791501e-10	1.714951e+01	4.450975e+01
2.400000e-06	2.459657e-06	7.020778e-10	1.743556e+01	4.606640e+01
2.410000e-06	2.499912e-06	7.248939e-10	1.772092e+01	4.759624e+01
2.420000e-06	2.540037e-06	7.503354e-10	1.800534e+01	4.909753e+01
2.430000e-06	2.580046e-06	7.763339e-10	1.828895e+01	5.056859e+01
2.440000e-06	2.619991e-06	7.999392e-10	1.857211e+01	5.200782e+01
2.450000e-06	2.659878e-06	8.190171e-10	1.885485e+01	5.341381e+01
2.460000e-06	2.699605e-06	8.401723e-10	1.913646e+01	5.478532e+01
2.470000e-06	2.739164e-06	8.636559e-10	1.941688e+01	5.612135e+01
2.480000e-06	2.778610e-06	8.824021e-10	1.969650e+01	5.742115e+01
2.490000e-06	2.817883e-06	8.969566e-10	1.997489e+01	5.868425e+01
2.500000e-06	2.856896e-06	9.140525e-10	2.025144e+01	5.991049e+01
2.510000e-06	2.895772e-06	9.388816e-10	2.052702e+01	6.109995e+01
2.520000e-06	2.934425e-06	9.643983e-10	2.080101e+01	6.225304e+01
2.530000e-06	2.972810e-06	9.846853e-10	2.107311e+01	6.337036e+01
2.540000e-06	3.011007e-06	1.003457e-09	2.134387e+01	6.445275e+01
2.550000e-06	3.048965e-06	1.021281e-09	2.161294e+01	6.550121e+01
2.560000e-06	3.086743e-06	1.033614e-09	2.188073e+01	6.651686e+01
2.570000e-06	3.124333e-06	1.041640e-09	2.214720e+01	6.750087e+01
2.580000e-06	3.161638e-06	1.051478e-09	2.241163e+01	6.845444e+01
2.590000e-06	3.198722e-06	1.066087e-09	2.267451e+01	6.937871e+01
2.600000e-06	3.235644e-06	1.084561e-09	2.293624e+01	7.027477e+01
2.610000e-06	3.272349e-06	1.104474e-09	2.319642e+01	7.114356e+01
2.620000e-06	3.308821e-06	1.120763e-09	2.345496e+01	7.198589e+01
2.630000e-06	3.345077e-06	1.135255e-09	2.371196e+01	7.280243e+01
2.640000e-06	3.381174e-06	1.149008e-09	2.396784e+01	7.359366e+01
2.650000e-06	3.417180e-06	1.159971e-09	2.422307e+01	7.435990e+01
2.660000e-06	3.453094e-06	1.166054e-09	2.447765e+01	7.510137e+01
2.670000e-06	3.488811e-06	1.169780e-09	2.473084e+01	7.581813e+01
2.680000e-06	3.524294e-06	1.174543e-09	2.498236e+01	7.651021e+01
2.690000e-06	3.559592e-06	1.179225e-09	2.523258e+01	7.717756e+01
2.700000e-06	3.594625e-06	1.185464e-09	2.548091e+01	7.782017e+01
2.710000e-06	3.629180e-06	1.196957e-09	2.572586e+01	7.843804e+01
2.720000e-06	3.663097e-06	1.213037e-09	2.596628e+01	7.903125e+01
2.730000e-06	3.696427e-06	1.229801e-09	2.620255e+01	7.960001e+01
2.740000e-06	3.729438e-06	1.242623e-09	2.643655e+01	8.014463e+01
2.750000e-06	3.762260e-06	1.249082e-09	2.666922e+01	8.066556e+01
2.760000e-06	3.794759e-06	1.250276e-09	2.689958e+01	8.116341e+01
2.770000e-06	3.826920e-06	1.247206e-09	2.712756e+01	8.163891e+01
2.780000e-06	3.858924e-06	1.247001e-09	2.735443e+01	8.209289e+01
2.790000e-06	3.890826e-06	1.255342e-09	2.758057e+01	8.252627e+01
2.800000e-06	3.922595e-06	1.268298e-09	2.780577e+01	8.294004e+01
2.810000e-06	3.954140e-06	1.281290e-09	2.802938e+01	8.333518e+01
2.820000e-06	3.985368e-06	1.292476e-09	2.825074e+01	8.371266e+01
2.830000e-06	4.016332e-06	1.301360e-09	2.847023e+01	8.407338e+01
2.840000e-06	4.047064e-06	1.305276e-09	2.868808e+01	8.441813e+01
2.850000e-06	4.077426e-06	1.301153e-09	2.890330e+01	8.474760e+01
2.860000e-06	4.107493e-06	1.293109e-09	2.911644e+01	8.506230e+01
2.870000e-06	4.137342e-06	1.290995e-09	2.932802e+01	8.536261e+01
2.880000e-06	4.166914e-06	1.300563e-09	2.953765e+01	8.564876e+01
2.890000e-06	4.196228e-06	1.312516e-09	2.974545e+01	8.592080e+01
2.900000e-06	4.225203e-06	1.319615e-09	2.995084e+01	8.617871e+01
