# Temperatura_=_-2.0
# Concentracion g/m^3_=_4090.0
# C_Vs_to_Am_M_A/Vsm_=_65563218390.804596
# pendiente_HvsI_1/m_=_3716.3
# ordenada_HvsI_A/m_=_1297.0
# frecuencia_Hz_=_135071.02965064178

Tiempo_(s)	Campo_(V.s)	Magnetizacion_(V.s)	Campo_(kA/m)	Magnetizacion_(A/m)
0.000000e+00	-5.399104e-06	-2.037308e-09	-3.839906e+01	-1.323398e+02
1.000000e-08	-5.399331e-06	-2.033118e-09	-3.840067e+01	-1.322079e+02
2.000000e-08	-5.399333e-06	-2.025201e-09	-3.840069e+01	-1.320597e+02
3.000000e-08	-5.399045e-06	-2.018767e-09	-3.839864e+01	-1.318954e+02
4.000000e-08	-5.398426e-06	-2.016603e-09	-3.839424e+01	-1.317159e+02
5.000000e-08	-5.397336e-06	-2.016764e-09	-3.838648e+01	-1.315232e+02
6.000000e-08	-5.395722e-06	-2.015801e-09	-3.837501e+01	-1.313198e+02
7.000000e-08	-5.393562e-06	-2.022625e-09	-3.835964e+01	-1.311095e+02
8.000000e-08	-5.390848e-06	-2.044223e-09	-3.834035e+01	-1.308963e+02
9.000000e-08	-5.387472e-06	-2.031202e-09	-3.831633e+01	-1.306852e+02
1.000000e-07	-5.383512e-06	-1.978541e-09	-3.828817e+01	-1.304816e+02
1.100000e-07	-5.379308e-06	-2.004240e-09	-3.825827e+01	-1.302912e+02
1.200000e-07	-5.374992e-06	-2.048919e-09	-3.822757e+01	-1.301197e+02
1.300000e-07	-5.370437e-06	-2.021138e-09	-3.819518e+01	-1.299728e+02
1.400000e-07	-5.365509e-06	-1.952040e-09	-3.816013e+01	-1.298557e+02
1.500000e-07	-5.360178e-06	-1.989904e-09	-3.812222e+01	-1.297731e+02
1.600000e-07	-5.354451e-06	-2.090048e-09	-3.808149e+01	-1.297288e+02
1.700000e-07	-5.348345e-06	-2.013733e-09	-3.803806e+01	-1.297256e+02
1.800000e-07	-5.341841e-06	-1.907622e-09	-3.799180e+01	-1.297653e+02
1.900000e-07	-5.334811e-06	-1.942554e-09	-3.794180e+01	-1.298481e+02
2.000000e-07	-5.327405e-06	-2.052483e-09	-3.788913e+01	-1.299731e+02
2.100000e-07	-5.319931e-06	-1.990565e-09	-3.783598e+01	-1.301379e+02
2.200000e-07	-5.312207e-06	-1.919741e-09	-3.778104e+01	-1.303389e+02
2.300000e-07	-5.304125e-06	-1.990084e-09	-3.772356e+01	-1.305711e+02
2.400000e-07	-5.295842e-06	-2.061399e-09	-3.766465e+01	-1.308286e+02
2.500000e-07	-5.287165e-06	-2.003647e-09	-3.760294e+01	-1.311043e+02
2.600000e-07	-5.277821e-06	-1.991034e-09	-3.753648e+01	-1.313908e+02
2.700000e-07	-5.267717e-06	-2.064666e-09	-3.746462e+01	-1.316799e+02
2.800000e-07	-5.257021e-06	-2.048546e-09	-3.738855e+01	-1.319637e+02
2.900000e-07	-5.245919e-06	-1.967776e-09	-3.730959e+01	-1.322339e+02
3.000000e-07	-5.234343e-06	-1.994289e-09	-3.722726e+01	-1.324831e+02
3.100000e-07	-5.222268e-06	-2.057818e-09	-3.714138e+01	-1.327043e+02
3.200000e-07	-5.209831e-06	-2.007763e-09	-3.705293e+01	-1.328915e+02
3.300000e-07	-5.197072e-06	-1.990502e-09	-3.696219e+01	-1.330398e+02
3.400000e-07	-5.183892e-06	-2.049976e-09	-3.686845e+01	-1.331454e+02
3.500000e-07	-5.170427e-06	-2.056173e-09	-3.677268e+01	-1.332061e+02
3.600000e-07	-5.156702e-06	-2.005755e-09	-3.667507e+01	-1.332207e+02
3.700000e-07	-5.142574e-06	-2.026491e-09	-3.657459e+01	-1.331898e+02
3.800000e-07	-5.127903e-06	-2.029409e-09	-3.647025e+01	-1.331149e+02
3.900000e-07	-5.112524e-06	-1.983547e-09	-3.636087e+01	-1.329988e+02
4.000000e-07	-5.096556e-06	-1.990727e-09	-3.624731e+01	-1.328453e+02
4.100000e-07	-5.080132e-06	-2.035462e-09	-3.613049e+01	-1.326590e+02
4.200000e-07	-5.063365e-06	-2.005169e-09	-3.601125e+01	-1.324450e+02
4.300000e-07	-5.046315e-06	-1.991659e-09	-3.588999e+01	-1.322088e+02
4.400000e-07	-5.028986e-06	-2.029727e-09	-3.576674e+01	-1.319559e+02
4.500000e-07	-5.011473e-06	-2.031899e-09	-3.564219e+01	-1.316917e+02
4.600000e-07	-4.993589e-06	-1.980556e-09	-3.551499e+01	-1.314211e+02
4.700000e-07	-4.975285e-06	-1.972337e-09	-3.538481e+01	-1.311487e+02
4.800000e-07	-4.956670e-06	-1.974324e-09	-3.525242e+01	-1.308782e+02
4.900000e-07	-4.937675e-06	-1.965825e-09	-3.511733e+01	-1.306124e+02
5.000000e-07	-4.918251e-06	-1.962178e-09	-3.497918e+01	-1.303534e+02
5.100000e-07	-4.898511e-06	-1.963145e-09	-3.483878e+01	-1.301023e+02
5.200000e-07	-4.878566e-06	-1.958684e-09	-3.469694e+01	-1.298593e+02
5.300000e-07	-4.858438e-06	-1.974179e-09	-3.455378e+01	-1.296239e+02
5.400000e-07	-4.838065e-06	-1.971417e-09	-3.440889e+01	-1.293947e+02
5.500000e-07	-4.817423e-06	-1.946243e-09	-3.426208e+01	-1.291700e+02
5.600000e-07	-4.796461e-06	-1.939623e-09	-3.411299e+01	-1.289476e+02
5.700000e-07	-4.775109e-06	-1.948279e-09	-3.396114e+01	-1.287249e+02
5.800000e-07	-4.753428e-06	-1.935901e-09	-3.380694e+01	-1.284993e+02
5.900000e-07	-4.731471e-06	-1.920522e-09	-3.365078e+01	-1.282685e+02
6.000000e-07	-4.709227e-06	-1.916924e-09	-3.349257e+01	-1.280302e+02
6.100000e-07	-4.686645e-06	-1.919595e-09	-3.333197e+01	-1.277827e+02
6.200000e-07	-4.663657e-06	-1.931579e-09	-3.316848e+01	-1.275245e+02
6.300000e-07	-4.640252e-06	-1.929344e-09	-3.300201e+01	-1.272548e+02
6.400000e-07	-4.616569e-06	-1.912169e-09	-3.283358e+01	-1.269736e+02
6.500000e-07	-4.592698e-06	-1.911569e-09	-3.266381e+01	-1.266810e+02
6.600000e-07	-4.568657e-06	-1.923222e-09	-3.249282e+01	-1.263779e+02
6.700000e-07	-4.544376e-06	-1.905529e-09	-3.232014e+01	-1.260658e+02
6.800000e-07	-4.519709e-06	-1.883181e-09	-3.214470e+01	-1.257463e+02
6.900000e-07	-4.494653e-06	-1.879747e-09	-3.196650e+01	-1.254214e+02
7.000000e-07	-4.469210e-06	-1.886377e-09	-3.178555e+01	-1.250933e+02
7.100000e-07	-4.443217e-06	-1.882447e-09	-3.160068e+01	-1.247640e+02
7.200000e-07	-4.416676e-06	-1.876717e-09	-3.141192e+01	-1.244357e+02
7.300000e-07	-4.389656e-06	-1.870595e-09	-3.121975e+01	-1.241102e+02
7.400000e-07	-4.362255e-06	-1.876495e-09	-3.102487e+01	-1.237889e+02
7.500000e-07	-4.334581e-06	-1.877511e-09	-3.082805e+01	-1.234729e+02
7.600000e-07	-4.306681e-06	-1.867007e-09	-3.062962e+01	-1.231629e+02
7.700000e-07	-4.278609e-06	-1.851745e-09	-3.042997e+01	-1.228591e+02
7.800000e-07	-4.250317e-06	-1.853364e-09	-3.022875e+01	-1.225611e+02
7.900000e-07	-4.221810e-06	-1.852852e-09	-3.002601e+01	-1.222681e+02
8.000000e-07	-4.193046e-06	-1.845508e-09	-2.982144e+01	-1.219792e+02
8.100000e-07	-4.163863e-06	-1.835260e-09	-2.961388e+01	-1.216927e+02
8.200000e-07	-4.134352e-06	-1.831606e-09	-2.940400e+01	-1.214070e+02
8.300000e-07	-4.104636e-06	-1.831602e-09	-2.919265e+01	-1.211204e+02
8.400000e-07	-4.074694e-06	-1.828516e-09	-2.897970e+01	-1.208311e+02
8.500000e-07	-4.044526e-06	-1.818354e-09	-2.876514e+01	-1.205372e+02
8.600000e-07	-4.014072e-06	-1.814182e-09	-2.854855e+01	-1.202372e+02
8.700000e-07	-3.983247e-06	-1.816691e-09	-2.832932e+01	-1.199298e+02
8.800000e-07	-3.952152e-06	-1.814131e-09	-2.810817e+01	-1.196140e+02
8.900000e-07	-3.920845e-06	-1.801715e-09	-2.788551e+01	-1.192892e+02
9.000000e-07	-3.889356e-06	-1.790443e-09	-2.766156e+01	-1.189551e+02
9.100000e-07	-3.857680e-06	-1.788063e-09	-2.743628e+01	-1.186118e+02
9.200000e-07	-3.825777e-06	-1.786553e-09	-2.720938e+01	-1.182596e+02
9.300000e-07	-3.793717e-06	-1.782369e-09	-2.698136e+01	-1.178995e+02
9.400000e-07	-3.761434e-06	-1.780031e-09	-2.675176e+01	-1.175322e+02
9.500000e-07	-3.728889e-06	-1.785881e-09	-2.652030e+01	-1.171591e+02
9.600000e-07	-3.696035e-06	-1.787018e-09	-2.628664e+01	-1.167813e+02
9.700000e-07	-3.662780e-06	-1.776081e-09	-2.605012e+01	-1.164000e+02
9.800000e-07	-3.629031e-06	-1.756905e-09	-2.581010e+01	-1.160165e+02
9.900000e-07	-3.594810e-06	-1.745796e-09	-2.556671e+01	-1.156318e+02
1.000000e-06	-3.560233e-06	-1.740227e-09	-2.532079e+01	-1.152468e+02
1.010000e-06	-3.525251e-06	-1.737538e-09	-2.507200e+01	-1.148621e+02
1.020000e-06	-3.489927e-06	-1.735287e-09	-2.482077e+01	-1.144779e+02
1.030000e-06	-3.454371e-06	-1.738198e-09	-2.456790e+01	-1.140945e+02
1.040000e-06	-3.418620e-06	-1.740180e-09	-2.431363e+01	-1.137116e+02
1.050000e-06	-3.382712e-06	-1.734145e-09	-2.405824e+01	-1.133289e+02
1.060000e-06	-3.346674e-06	-1.717304e-09	-2.380194e+01	-1.129456e+02
1.070000e-06	-3.310547e-06	-1.701586e-09	-2.354500e+01	-1.125611e+02
1.080000e-06	-3.274229e-06	-1.690118e-09	-2.328670e+01	-1.121746e+02
1.090000e-06	-3.237666e-06	-1.683636e-09	-2.302666e+01	-1.117852e+02
1.100000e-06	-3.200803e-06	-1.679119e-09	-2.276448e+01	-1.113921e+02
1.110000e-06	-3.163697e-06	-1.679722e-09	-2.250059e+01	-1.109947e+02
1.120000e-06	-3.126415e-06	-1.681486e-09	-2.223543e+01	-1.105925e+02
1.130000e-06	-3.088917e-06	-1.676970e-09	-2.196874e+01	-1.101850e+02
1.140000e-06	-3.051231e-06	-1.663589e-09	-2.170071e+01	-1.097722e+02
1.150000e-06	-3.013365e-06	-1.649147e-09	-2.143141e+01	-1.093543e+02
1.160000e-06	-2.975295e-06	-1.639685e-09	-2.116065e+01	-1.089314e+02
1.170000e-06	-2.937008e-06	-1.634170e-09	-2.088835e+01	-1.085042e+02
1.180000e-06	-2.898570e-06	-1.628297e-09	-2.061497e+01	-1.080733e+02
1.190000e-06	-2.859950e-06	-1.622176e-09	-2.034030e+01	-1.076394e+02
1.200000e-06	-2.821087e-06	-1.617462e-09	-2.006390e+01	-1.072033e+02
1.210000e-06	-2.781980e-06	-1.613370e-09	-1.978577e+01	-1.067659e+02
1.220000e-06	-2.742604e-06	-1.606391e-09	-1.950572e+01	-1.063277e+02
1.230000e-06	-2.702957e-06	-1.596556e-09	-1.922375e+01	-1.058894e+02
1.240000e-06	-2.663183e-06	-1.589658e-09	-1.894087e+01	-1.054513e+02
1.250000e-06	-2.623405e-06	-1.583086e-09	-1.865796e+01	-1.050135e+02
1.260000e-06	-2.583574e-06	-1.576410e-09	-1.837468e+01	-1.045759e+02
1.270000e-06	-2.543646e-06	-1.567322e-09	-1.809071e+01	-1.041382e+02
1.280000e-06	-2.503609e-06	-1.557096e-09	-1.780596e+01	-1.036997e+02
1.290000e-06	-2.463489e-06	-1.548110e-09	-1.752062e+01	-1.032594e+02
1.300000e-06	-2.423241e-06	-1.540529e-09	-1.723437e+01	-1.028163e+02
1.310000e-06	-2.382834e-06	-1.530570e-09	-1.694699e+01	-1.023692e+02
1.320000e-06	-2.342237e-06	-1.521516e-09	-1.665826e+01	-1.019167e+02
1.330000e-06	-2.301425e-06	-1.517579e-09	-1.636801e+01	-1.014573e+02
1.340000e-06	-2.260349e-06	-1.516080e-09	-1.607587e+01	-1.009898e+02
1.350000e-06	-2.218978e-06	-1.511978e-09	-1.578163e+01	-1.005129e+02
1.360000e-06	-2.177298e-06	-1.505824e-09	-1.548520e+01	-1.000254e+02
1.370000e-06	-2.135301e-06	-1.497260e-09	-1.518651e+01	-9.952656e+01
1.380000e-06	-2.093029e-06	-1.486959e-09	-1.488587e+01	-9.901558e+01
1.390000e-06	-2.050487e-06	-1.474073e-09	-1.458330e+01	-9.849213e+01
1.400000e-06	-2.007783e-06	-1.462023e-09	-1.427959e+01	-9.795608e+01
1.410000e-06	-1.964949e-06	-1.453330e-09	-1.397495e+01	-9.740760e+01
1.420000e-06	-1.921897e-06	-1.448641e-09	-1.366876e+01	-9.684709e+01
1.430000e-06	-1.878621e-06	-1.443336e-09	-1.336098e+01	-9.627517e+01
1.440000e-06	-1.835171e-06	-1.435666e-09	-1.305195e+01	-9.569261e+01
1.450000e-06	-1.791570e-06	-1.427419e-09	-1.274185e+01	-9.510032e+01
1.460000e-06	-1.747820e-06	-1.418751e-09	-1.243070e+01	-9.449922e+01
1.470000e-06	-1.703980e-06	-1.408131e-09	-1.211890e+01	-9.389022e+01
1.480000e-06	-1.660125e-06	-1.396442e-09	-1.180700e+01	-9.327417e+01
1.490000e-06	-1.616209e-06	-1.386899e-09	-1.149467e+01	-9.265175e+01
1.500000e-06	-1.572233e-06	-1.379863e-09	-1.118191e+01	-9.202349e+01
1.510000e-06	-1.528158e-06	-1.372879e-09	-1.086844e+01	-9.138968e+01
1.520000e-06	-1.484005e-06	-1.364483e-09	-1.055442e+01	-9.075037e+01
1.530000e-06	-1.439840e-06	-1.353985e-09	-1.024031e+01	-9.010537e+01
1.540000e-06	-1.395601e-06	-1.341231e-09	-9.925678e+00	-8.945424e+01
1.550000e-06	-1.351252e-06	-1.327072e-09	-9.610260e+00	-8.879633e+01
1.560000e-06	-1.306835e-06	-1.315191e-09	-9.294364e+00	-8.813082e+01
1.570000e-06	-1.262378e-06	-1.306562e-09	-8.978183e+00	-8.745671e+01
1.580000e-06	-1.217851e-06	-1.299591e-09	-8.661496e+00	-8.677296e+01
1.590000e-06	-1.173232e-06	-1.292994e-09	-8.344166e+00	-8.607846e+01
1.600000e-06	-1.128520e-06	-1.285399e-09	-8.026169e+00	-8.537215e+01
1.610000e-06	-1.083690e-06	-1.275035e-09	-7.707331e+00	-8.465302e+01
1.620000e-06	-1.038751e-06	-1.259532e-09	-7.387716e+00	-8.392020e+01
1.630000e-06	-9.937440e-07	-1.242985e-09	-7.067624e+00	-8.317298e+01
1.640000e-06	-9.485809e-07	-1.228557e-09	-6.746419e+00	-8.241082e+01
1.650000e-06	-9.032611e-07	-1.219096e-09	-6.424099e+00	-8.163336e+01
1.660000e-06	-8.579336e-07	-1.212365e-09	-6.101724e+00	-8.084047e+01
1.670000e-06	-8.125865e-07	-1.203861e-09	-5.779210e+00	-8.003213e+01
1.680000e-06	-7.672006e-07	-1.193492e-09	-5.456421e+00	-7.920853e+01
1.690000e-06	-7.218104e-07	-1.181747e-09	-5.133600e+00	-7.836990e+01
1.700000e-06	-6.763215e-07	-1.166374e-09	-4.810078e+00	-7.751656e+01
1.710000e-06	-6.307540e-07	-1.148622e-09	-4.485997e+00	-7.664880e+01
1.720000e-06	-5.851837e-07	-1.130865e-09	-4.161896e+00	-7.576688e+01
1.730000e-06	-5.395613e-07	-1.115932e-09	-3.837423e+00	-7.487091e+01
1.740000e-06	-4.939317e-07	-1.103043e-09	-3.512900e+00	-7.396088e+01
1.750000e-06	-4.483260e-07	-1.090760e-09	-3.188547e+00	-7.303654e+01
1.760000e-06	-4.026889e-07	-1.077677e-09	-2.863971e+00	-7.209742e+01
1.770000e-06	-3.570140e-07	-1.062362e-09	-2.539126e+00	-7.114281e+01
1.780000e-06	-3.113521e-07	-1.043576e-09	-2.214373e+00	-7.017175e+01
1.790000e-06	-2.656446e-07	-1.023861e-09	-1.889296e+00	-6.918302e+01
1.800000e-06	-2.197801e-07	-1.004961e-09	-1.563102e+00	-6.817521e+01
1.810000e-06	-1.739320e-07	-9.871870e-10	-1.237025e+00	-6.714673e+01
1.820000e-06	-1.282040e-07	-9.698497e-10	-9.118017e-01	-6.609589e+01
1.830000e-06	-8.246320e-08	-9.519092e-10	-5.864880e-01	-6.502092e+01
1.840000e-06	-3.669454e-08	-9.337497e-10	-2.609759e-01	-6.392005e+01
1.850000e-06	9.090914e-09	-9.155079e-10	6.465565e-02	-6.279159e+01
1.860000e-06	5.487521e-08	-8.992853e-10	3.902789e-01	-6.163397e+01
1.870000e-06	1.006440e-07	-8.836381e-10	7.157918e-01	-6.044580e+01
1.880000e-06	1.464516e-07	-8.671540e-10	1.041581e+00	-5.922593e+01
1.890000e-06	1.922906e-07	-8.487563e-10	1.367593e+00	-5.797345e+01
1.900000e-06	2.380934e-07	-8.276872e-10	1.693348e+00	-5.668777e+01
1.910000e-06	2.838477e-07	-8.041875e-10	2.018758e+00	-5.536855e+01
1.920000e-06	3.295981e-07	-7.787503e-10	2.344140e+00	-5.401575e+01
1.930000e-06	3.753209e-07	-7.535369e-10	2.669327e+00	-5.262959e+01
1.940000e-06	4.209728e-07	-7.303878e-10	2.994008e+00	-5.121048e+01
1.950000e-06	4.665574e-07	-7.074637e-10	3.318211e+00	-4.975901e+01
1.960000e-06	5.121266e-07	-6.850416e-10	3.642304e+00	-4.827589e+01
1.970000e-06	5.577018e-07	-6.652783e-10	3.966441e+00	-4.676186e+01
1.980000e-06	6.033052e-07	-6.449597e-10	4.290778e+00	-4.521765e+01
1.990000e-06	6.489041e-07	-6.201672e-10	4.615082e+00	-4.364392e+01
2.000000e-06	6.943393e-07	-5.938734e-10	4.938223e+00	-4.204119e+01
2.010000e-06	7.396668e-07	-5.661451e-10	5.260597e+00	-4.040981e+01
2.020000e-06	7.849687e-07	-5.384612e-10	5.582789e+00	-3.874992e+01
2.030000e-06	8.302513e-07	-5.109099e-10	5.904845e+00	-3.706142e+01
2.040000e-06	8.754224e-07	-4.822903e-10	6.226107e+00	-3.534398e+01
2.050000e-06	9.205257e-07	-4.549533e-10	6.546887e+00	-3.359706e+01
2.060000e-06	9.656205e-07	-4.298599e-10	6.867607e+00	-3.181988e+01
2.070000e-06	1.010562e-06	-4.060704e-10	7.187235e+00	-3.001153e+01
2.080000e-06	1.055406e-06	-3.801223e-10	7.506170e+00	-2.817096e+01
2.090000e-06	1.100197e-06	-3.501407e-10	7.824729e+00	-2.629708e+01
2.100000e-06	1.144870e-06	-3.180305e-10	8.142448e+00	-2.438878e+01
2.110000e-06	1.189371e-06	-2.849970e-10	8.458945e+00	-2.244506e+01
2.120000e-06	1.233801e-06	-2.511558e-10	8.774941e+00	-2.046500e+01
2.130000e-06	1.278294e-06	-2.175893e-10	9.091376e+00	-1.844790e+01
2.140000e-06	1.322672e-06	-1.867241e-10	9.407001e+00	-1.639330e+01
2.150000e-06	1.366937e-06	-1.591851e-10	9.721813e+00	-1.430103e+01
2.160000e-06	1.411201e-06	-1.328948e-10	1.003663e+01	-1.217123e+01
2.170000e-06	1.455399e-06	-1.038127e-10	1.035097e+01	-1.000435e+01
2.180000e-06	1.499523e-06	-7.025944e-11	1.066478e+01	-7.801200e+00
2.190000e-06	1.543604e-06	-3.493254e-11	1.097829e+01	-5.562913e+00
2.200000e-06	1.587621e-06	4.148377e-13	1.129135e+01	-3.290922e+00
2.210000e-06	1.631556e-06	3.540953e-11	1.160381e+01	-9.869334e-01
2.220000e-06	1.675492e-06	7.054085e-11	1.191630e+01	1.347109e+00
2.230000e-06	1.719419e-06	1.047825e-10	1.222871e+01	3.709068e+00
2.240000e-06	1.763240e-06	1.380316e-10	1.254037e+01	6.096665e+00
2.250000e-06	1.806936e-06	1.735743e-10	1.285114e+01	8.507518e+00
2.260000e-06	1.850512e-06	2.122536e-10	1.316106e+01	1.093919e+01
2.270000e-06	1.893919e-06	2.526456e-10	1.346977e+01	1.338922e+01
2.280000e-06	1.937157e-06	2.918502e-10	1.377729e+01	1.585516e+01
2.290000e-06	1.980230e-06	3.286001e-10	1.408363e+01	1.833459e+01
2.300000e-06	2.023049e-06	3.635445e-10	1.438816e+01	2.082513e+01
2.310000e-06	2.065640e-06	3.964966e-10	1.469108e+01	2.332445e+01
2.320000e-06	2.108000e-06	4.311555e-10	1.499234e+01	2.583025e+01
2.330000e-06	2.150029e-06	4.687896e-10	1.529126e+01	2.834026e+01
2.340000e-06	2.191771e-06	5.074498e-10	1.558814e+01	3.085220e+01
2.350000e-06	2.233214e-06	5.453395e-10	1.588288e+01	3.336377e+01
2.360000e-06	2.274416e-06	5.819938e-10	1.617591e+01	3.587264e+01
2.370000e-06	2.315429e-06	6.174438e-10	1.646761e+01	3.837639e+01
2.380000e-06	2.356202e-06	6.520969e-10	1.675758e+01	4.087251e+01
2.390000e-06	2.396709e-06	6.871055e-10	1.704567e+01	4.335837e+01
2.400000e-06	2.437056e-06	7.260622e-10	1.733262e+01	4.583124e+01
2.410000e-06	2.477330e-06	7.675173e-10	1.761906e+01	4.828828e+01
2.420000e-06	2.517470e-06	8.079512e-10	1.790454e+01	5.072653e+01
2.430000e-06	2.557502e-06	8.465753e-10	1.818925e+01	5.314294e+01
2.440000e-06	2.597437e-06	8.825872e-10	1.847328e+01	5.553443e+01
2.450000e-06	2.637252e-06	9.153829e-10	1.875644e+01	5.789789e+01
2.460000e-06	2.676974e-06	9.459574e-10	1.903895e+01	6.023025e+01
2.470000e-06	2.716563e-06	9.769239e-10	1.932051e+01	6.252850e+01
2.480000e-06	2.755949e-06	1.009285e-09	1.960063e+01	6.478979e+01
2.490000e-06	2.795127e-06	1.044633e-09	1.987927e+01	6.701144e+01
2.500000e-06	2.834091e-06	1.081467e-09	2.015639e+01	6.919102e+01
2.510000e-06	2.872840e-06	1.116913e-09	2.043198e+01	7.132635e+01
2.520000e-06	2.911334e-06	1.150969e-09	2.070575e+01	7.341561e+01
2.530000e-06	2.949624e-06	1.184809e-09	2.097807e+01	7.545728e+01
2.540000e-06	2.987792e-06	1.217217e-09	2.124952e+01	7.745024e+01
2.550000e-06	3.025752e-06	1.246108e-09	2.151950e+01	7.939372e+01
2.560000e-06	3.063476e-06	1.270933e-09	2.178780e+01	8.128732e+01
2.570000e-06	3.100993e-06	1.293868e-09	2.205462e+01	8.313097e+01
2.580000e-06	3.138324e-06	1.318167e-09	2.232013e+01	8.492495e+01
2.590000e-06	3.175451e-06	1.344313e-09	2.258418e+01	8.666979e+01
2.600000e-06	3.212271e-06	1.374270e-09	2.284605e+01	8.836629e+01
2.610000e-06	3.248776e-06	1.407799e-09	2.310567e+01	9.001541e+01
2.620000e-06	3.285053e-06	1.439105e-09	2.336368e+01	9.161827e+01
2.630000e-06	3.321220e-06	1.465117e-09	2.362090e+01	9.317609e+01
2.640000e-06	3.357316e-06	1.484551e-09	2.387762e+01	9.469012e+01
2.650000e-06	3.393318e-06	1.499045e-09	2.413367e+01	9.616159e+01
2.660000e-06	3.429196e-06	1.511231e-09	2.438884e+01	9.759174e+01
2.670000e-06	3.464879e-06	1.523801e-09	2.464263e+01	9.898168e+01
2.680000e-06	3.500344e-06	1.540846e-09	2.489485e+01	1.003324e+02
2.690000e-06	3.535587e-06	1.563194e-09	2.514551e+01	1.016450e+02
2.700000e-06	3.570458e-06	1.589510e-09	2.539352e+01	1.029201e+02
2.710000e-06	3.604799e-06	1.617154e-09	2.563775e+01	1.041584e+02
2.720000e-06	3.638656e-06	1.640360e-09	2.587855e+01	1.053606e+02
2.730000e-06	3.672215e-06	1.655211e-09	2.611722e+01	1.065270e+02
2.740000e-06	3.705418e-06	1.666571e-09	2.635337e+01	1.076582e+02
2.750000e-06	3.738140e-06	1.677730e-09	2.658609e+01	1.087543e+02
2.760000e-06	3.770559e-06	1.690407e-09	2.681666e+01	1.098158e+02
2.770000e-06	3.802775e-06	1.704814e-09	2.704578e+01	1.108427e+02
2.780000e-06	3.834782e-06	1.720703e-09	2.727342e+01	1.118355e+02
2.790000e-06	3.866655e-06	1.740465e-09	2.750011e+01	1.127944e+02
2.800000e-06	3.898433e-06	1.759368e-09	2.772611e+01	1.137196e+02
2.810000e-06	3.929964e-06	1.770318e-09	2.795037e+01	1.146115e+02
2.820000e-06	3.961170e-06	1.775259e-09	2.817230e+01	1.154706e+02
2.830000e-06	3.992057e-06	1.782986e-09	2.839198e+01	1.162972e+02
2.840000e-06	4.022571e-06	1.795593e-09	2.860900e+01	1.170918e+02
2.850000e-06	4.052859e-06	1.807770e-09	2.882441e+01	1.178550e+02
2.860000e-06	4.082923e-06	1.817770e-09	2.903823e+01	1.185874e+02
2.870000e-06	4.112759e-06	1.828792e-09	2.925042e+01	1.192895e+02
2.880000e-06	4.142420e-06	1.842202e-09	2.946138e+01	1.199622e+02
2.890000e-06	4.171774e-06	1.852337e-09	2.967015e+01	1.206062e+02
2.900000e-06	4.200818e-06	1.855890e-09	2.987671e+01	1.212222e+02
