# Temperatura_=_11.54
# Concentracion g/m^3_=_4090.0
# C_Vs_to_Am_M_A/Vsm_=_65563218390.804596
# pendiente_HvsI_1/m_=_3716.3
# ordenada_HvsI_A/m_=_1297.0
# frecuencia_Hz_=_135086.97908073242

Tiempo_(s)	Campo_(V.s)	Magnetizacion_(V.s)	Campo_(kA/m)	Magnetizacion_(A/m)
0.000000e+00	-5.409488e-06	-1.261109e-09	-3.839300e+01	-8.538496e+01
1.000000e-08	-5.409632e-06	-1.255025e-09	-3.839402e+01	-8.526165e+01
2.000000e-08	-5.409554e-06	-1.246903e-09	-3.839347e+01	-8.512838e+01
3.000000e-08	-5.409210e-06	-1.241553e-09	-3.839103e+01	-8.498488e+01
4.000000e-08	-5.408429e-06	-1.242278e-09	-3.838548e+01	-8.483134e+01
5.000000e-08	-5.407047e-06	-1.245959e-09	-3.837568e+01	-8.466856e+01
6.000000e-08	-5.405074e-06	-1.247792e-09	-3.836167e+01	-8.449793e+01
7.000000e-08	-5.402599e-06	-1.247891e-09	-3.834410e+01	-8.432147e+01
8.000000e-08	-5.399459e-06	-1.253048e-09	-3.832182e+01	-8.414177e+01
9.000000e-08	-5.395648e-06	-1.263889e-09	-3.829477e+01	-8.396197e+01
1.000000e-07	-5.391441e-06	-1.290380e-09	-3.826491e+01	-8.378564e+01
1.100000e-07	-5.387076e-06	-1.296527e-09	-3.823393e+01	-8.361666e+01
1.200000e-07	-5.382689e-06	-1.226493e-09	-3.820280e+01	-8.345912e+01
1.300000e-07	-5.378118e-06	-1.216752e-09	-3.817036e+01	-8.331711e+01
1.400000e-07	-5.373003e-06	-1.264238e-09	-3.813405e+01	-8.319453e+01
1.500000e-07	-5.367319e-06	-1.297678e-09	-3.809371e+01	-8.309500e+01
1.600000e-07	-5.361331e-06	-1.243505e-09	-3.805122e+01	-8.302156e+01
1.700000e-07	-5.355054e-06	-1.188582e-09	-3.800666e+01	-8.297663e+01
1.800000e-07	-5.348229e-06	-1.279827e-09	-3.795822e+01	-8.296177e+01
1.900000e-07	-5.340819e-06	-1.313221e-09	-3.790563e+01	-8.297766e+01
2.000000e-07	-5.333126e-06	-1.281064e-09	-3.785103e+01	-8.302394e+01
2.100000e-07	-5.325369e-06	-1.212111e-09	-3.779598e+01	-8.309925e+01
2.200000e-07	-5.317466e-06	-1.279980e-09	-3.773989e+01	-8.320120e+01
2.300000e-07	-5.309318e-06	-1.309570e-09	-3.768206e+01	-8.332641e+01
2.400000e-07	-5.300914e-06	-1.293204e-09	-3.762241e+01	-8.347066e+01
2.500000e-07	-5.291888e-06	-1.294924e-09	-3.755835e+01	-8.362898e+01
2.600000e-07	-5.282027e-06	-1.355940e-09	-3.748836e+01	-8.379584e+01
2.700000e-07	-5.271489e-06	-1.350654e-09	-3.741357e+01	-8.396532e+01
2.800000e-07	-5.260597e-06	-1.317670e-09	-3.733627e+01	-8.413137e+01
2.900000e-07	-5.249276e-06	-1.327475e-09	-3.725592e+01	-8.428801e+01
3.000000e-07	-5.237426e-06	-1.331447e-09	-3.717181e+01	-8.442954e+01
3.100000e-07	-5.225293e-06	-1.305458e-09	-3.708570e+01	-8.455077e+01
3.200000e-07	-5.212801e-06	-1.317446e-09	-3.699704e+01	-8.464719e+01
3.300000e-07	-5.199854e-06	-1.368083e-09	-3.690516e+01	-8.471516e+01
3.400000e-07	-5.186575e-06	-1.330457e-09	-3.681091e+01	-8.475198e+01
3.500000e-07	-5.172877e-06	-1.303717e-09	-3.671369e+01	-8.475604e+01
3.600000e-07	-5.158743e-06	-1.326922e-09	-3.661337e+01	-8.472679e+01
3.700000e-07	-5.144364e-06	-1.338308e-09	-3.651132e+01	-8.466475e+01
3.800000e-07	-5.129502e-06	-1.280448e-09	-3.640584e+01	-8.457145e+01
3.900000e-07	-5.113917e-06	-1.288600e-09	-3.629523e+01	-8.444933e+01
4.000000e-07	-5.097645e-06	-1.317804e-09	-3.617974e+01	-8.430160e+01
4.100000e-07	-5.080958e-06	-1.319615e-09	-3.606131e+01	-8.413204e+01
4.200000e-07	-5.064021e-06	-1.299967e-09	-3.594110e+01	-8.394486e+01
4.300000e-07	-5.046809e-06	-1.316977e-09	-3.581894e+01	-8.374445e+01
4.400000e-07	-5.029390e-06	-1.299149e-09	-3.569531e+01	-8.353522e+01
4.500000e-07	-5.011602e-06	-1.293907e-09	-3.556907e+01	-8.332133e+01
4.600000e-07	-4.993370e-06	-1.291184e-09	-3.543967e+01	-8.310659e+01
4.700000e-07	-4.974815e-06	-1.289597e-09	-3.530798e+01	-8.289427e+01
4.800000e-07	-4.955874e-06	-1.266415e-09	-3.517354e+01	-8.268696e+01
4.900000e-07	-4.936548e-06	-1.280058e-09	-3.503638e+01	-8.248652e+01
5.000000e-07	-4.916896e-06	-1.277269e-09	-3.489691e+01	-8.229403e+01
5.100000e-07	-4.896992e-06	-1.268843e-09	-3.475564e+01	-8.210978e+01
5.200000e-07	-4.876948e-06	-1.263798e-09	-3.461338e+01	-8.193331e+01
5.300000e-07	-4.856748e-06	-1.272084e-09	-3.447001e+01	-8.176351e+01
5.400000e-07	-4.836200e-06	-1.266087e-09	-3.432418e+01	-8.159869e+01
5.500000e-07	-4.815160e-06	-1.271544e-09	-3.417485e+01	-8.143676e+01
5.600000e-07	-4.793792e-06	-1.267491e-09	-3.402320e+01	-8.127535e+01
5.700000e-07	-4.772175e-06	-1.256289e-09	-3.386977e+01	-8.111200e+01
5.800000e-07	-4.750256e-06	-1.251781e-09	-3.371421e+01	-8.094427e+01
5.900000e-07	-4.727988e-06	-1.249742e-09	-3.355616e+01	-8.076998e+01
6.000000e-07	-4.705360e-06	-1.238893e-09	-3.339556e+01	-8.058723e+01
6.100000e-07	-4.682429e-06	-1.239916e-09	-3.323281e+01	-8.039463e+01
6.200000e-07	-4.659153e-06	-1.250669e-09	-3.306761e+01	-8.019129e+01
6.300000e-07	-4.635517e-06	-1.245512e-09	-3.289986e+01	-7.997691e+01
6.400000e-07	-4.611623e-06	-1.245272e-09	-3.273027e+01	-7.975180e+01
6.500000e-07	-4.587542e-06	-1.240845e-09	-3.255936e+01	-7.951683e+01
6.600000e-07	-4.563257e-06	-1.229656e-09	-3.238700e+01	-7.927340e+01
6.700000e-07	-4.538765e-06	-1.217180e-09	-3.221318e+01	-7.902335e+01
6.800000e-07	-4.513954e-06	-1.224129e-09	-3.203709e+01	-7.876885e+01
6.900000e-07	-4.488550e-06	-1.220702e-09	-3.185679e+01	-7.851229e+01
7.000000e-07	-4.462488e-06	-1.221374e-09	-3.167181e+01	-7.825614e+01
7.100000e-07	-4.435901e-06	-1.219213e-09	-3.148312e+01	-7.800280e+01
7.200000e-07	-4.408778e-06	-1.221306e-09	-3.129061e+01	-7.775448e+01
7.300000e-07	-4.381279e-06	-1.212518e-09	-3.109545e+01	-7.751311e+01
7.400000e-07	-4.353599e-06	-1.209587e-09	-3.089899e+01	-7.728019e+01
7.500000e-07	-4.325726e-06	-1.198958e-09	-3.070117e+01	-7.705678e+01
7.600000e-07	-4.297693e-06	-1.200153e-09	-3.050221e+01	-7.684338e+01
7.700000e-07	-4.269543e-06	-1.203817e-09	-3.030242e+01	-7.663997e+01
7.800000e-07	-4.241152e-06	-1.209339e-09	-3.010092e+01	-7.644602e+01
7.900000e-07	-4.212443e-06	-1.202016e-09	-2.989716e+01	-7.626048e+01
8.000000e-07	-4.183389e-06	-1.199894e-09	-2.969095e+01	-7.608191e+01
8.100000e-07	-4.153991e-06	-1.192604e-09	-2.948231e+01	-7.590853e+01
8.200000e-07	-4.124331e-06	-1.187220e-09	-2.927180e+01	-7.573835e+01
8.300000e-07	-4.094395e-06	-1.180455e-09	-2.905933e+01	-7.556925e+01
8.400000e-07	-4.064229e-06	-1.177685e-09	-2.884523e+01	-7.539912e+01
8.500000e-07	-4.033869e-06	-1.177644e-09	-2.862975e+01	-7.522597e+01
8.600000e-07	-4.003223e-06	-1.180639e-09	-2.841225e+01	-7.504801e+01
8.700000e-07	-3.972176e-06	-1.179195e-09	-2.819190e+01	-7.486378e+01
8.800000e-07	-3.940855e-06	-1.174321e-09	-2.796961e+01	-7.467218e+01
8.900000e-07	-3.909420e-06	-1.166637e-09	-2.774650e+01	-7.447253e+01
9.000000e-07	-3.877766e-06	-1.157026e-09	-2.752184e+01	-7.426456e+01
9.100000e-07	-3.845897e-06	-1.148616e-09	-2.729566e+01	-7.404845e+01
9.200000e-07	-3.813880e-06	-1.143189e-09	-2.706842e+01	-7.382476e+01
9.300000e-07	-3.781643e-06	-1.146620e-09	-2.683962e+01	-7.359441e+01
9.400000e-07	-3.749099e-06	-1.152639e-09	-2.660865e+01	-7.335857e+01
9.500000e-07	-3.716263e-06	-1.157349e-09	-2.637559e+01	-7.311860e+01
9.600000e-07	-3.683053e-06	-1.153908e-09	-2.613990e+01	-7.287595e+01
9.700000e-07	-3.649361e-06	-1.145961e-09	-2.590077e+01	-7.263206e+01
9.800000e-07	-3.615207e-06	-1.132279e-09	-2.565837e+01	-7.238829e+01
9.900000e-07	-3.580602e-06	-1.121460e-09	-2.541277e+01	-7.214581e+01
1.000000e-06	-3.545638e-06	-1.112401e-09	-2.516462e+01	-7.190554e+01
1.010000e-06	-3.510378e-06	-1.112895e-09	-2.491436e+01	-7.166809e+01
1.020000e-06	-3.474760e-06	-1.113830e-09	-2.466157e+01	-7.143373e+01
1.030000e-06	-3.438903e-06	-1.116449e-09	-2.440708e+01	-7.120240e+01
1.040000e-06	-3.402953e-06	-1.114212e-09	-2.415193e+01	-7.097367e+01
1.050000e-06	-3.366882e-06	-1.111827e-09	-2.389592e+01	-7.074683e+01
1.060000e-06	-3.330725e-06	-1.103320e-09	-2.363930e+01	-7.052087e+01
1.070000e-06	-3.294442e-06	-1.095465e-09	-2.338179e+01	-7.029463e+01
1.080000e-06	-3.257958e-06	-1.084238e-09	-2.312285e+01	-7.006677e+01
1.090000e-06	-3.221231e-06	-1.079632e-09	-2.286218e+01	-6.983594e+01
1.100000e-06	-3.184222e-06	-1.077986e-09	-2.259952e+01	-6.960082e+01
1.110000e-06	-3.146925e-06	-1.078037e-09	-2.233481e+01	-6.936019e+01
1.120000e-06	-3.109327e-06	-1.075646e-09	-2.206796e+01	-6.911304e+01
1.130000e-06	-3.071551e-06	-1.072334e-09	-2.179985e+01	-6.885858e+01
1.140000e-06	-3.033638e-06	-1.068279e-09	-2.153077e+01	-6.859630e+01
1.150000e-06	-2.995539e-06	-1.064408e-09	-2.126037e+01	-6.832604e+01
1.160000e-06	-2.957271e-06	-1.056638e-09	-2.098877e+01	-6.804792e+01
1.170000e-06	-2.918874e-06	-1.047737e-09	-2.071625e+01	-6.776237e+01
1.180000e-06	-2.880233e-06	-1.041770e-09	-2.044200e+01	-6.747013e+01
1.190000e-06	-2.841255e-06	-1.038196e-09	-2.016536e+01	-6.717214e+01
1.200000e-06	-2.801978e-06	-1.036455e-09	-1.988660e+01	-6.686952e+01
1.210000e-06	-2.762521e-06	-1.034231e-09	-1.960656e+01	-6.656350e+01
1.220000e-06	-2.722978e-06	-1.032303e-09	-1.932591e+01	-6.625537e+01
1.230000e-06	-2.683295e-06	-1.029814e-09	-1.904427e+01	-6.594637e+01
1.240000e-06	-2.643450e-06	-1.024024e-09	-1.876148e+01	-6.563763e+01
1.250000e-06	-2.603519e-06	-1.014939e-09	-1.847807e+01	-6.533013e+01
1.260000e-06	-2.563558e-06	-1.007929e-09	-1.819446e+01	-6.502464e+01
1.270000e-06	-2.523436e-06	-1.003202e-09	-1.790969e+01	-6.472168e+01
1.280000e-06	-2.483163e-06	-1.005258e-09	-1.762386e+01	-6.442148e+01
1.290000e-06	-2.442811e-06	-1.005079e-09	-1.733747e+01	-6.412403e+01
1.300000e-06	-2.402374e-06	-1.001293e-09	-1.705048e+01	-6.382901e+01
1.310000e-06	-2.361760e-06	-9.924790e-10	-1.676222e+01	-6.353588e+01
1.320000e-06	-2.320924e-06	-9.870556e-10	-1.647240e+01	-6.324388e+01
1.330000e-06	-2.279899e-06	-9.817635e-10	-1.618123e+01	-6.295210e+01
1.340000e-06	-2.238582e-06	-9.776642e-10	-1.588799e+01	-6.265948e+01
1.350000e-06	-2.196873e-06	-9.753477e-10	-1.559197e+01	-6.236495e+01
1.360000e-06	-2.154800e-06	-9.755573e-10	-1.529336e+01	-6.206742e+01
1.370000e-06	-2.112495e-06	-9.746361e-10	-1.499311e+01	-6.176582e+01
1.380000e-06	-2.069967e-06	-9.715965e-10	-1.469127e+01	-6.145924e+01
1.390000e-06	-2.027202e-06	-9.647440e-10	-1.438775e+01	-6.114684e+01
1.400000e-06	-1.984231e-06	-9.582740e-10	-1.408277e+01	-6.082799e+01
1.410000e-06	-1.941118e-06	-9.522914e-10	-1.377679e+01	-6.050219e+01
1.420000e-06	-1.897834e-06	-9.469073e-10	-1.346958e+01	-6.016916e+01
1.430000e-06	-1.854324e-06	-9.445278e-10	-1.316077e+01	-5.982875e+01
1.440000e-06	-1.810678e-06	-9.457139e-10	-1.285100e+01	-5.948097e+01
1.450000e-06	-1.766999e-06	-9.433728e-10	-1.254100e+01	-5.912595e+01
1.460000e-06	-1.723217e-06	-9.370247e-10	-1.223026e+01	-5.876391e+01
1.470000e-06	-1.679326e-06	-9.302001e-10	-1.191876e+01	-5.839510e+01
1.480000e-06	-1.635400e-06	-9.240027e-10	-1.160700e+01	-5.801980e+01
1.490000e-06	-1.591365e-06	-9.188933e-10	-1.129446e+01	-5.763824e+01
1.500000e-06	-1.547260e-06	-9.125111e-10	-1.098144e+01	-5.725060e+01
1.510000e-06	-1.503104e-06	-9.067804e-10	-1.066805e+01	-5.685698e+01
1.520000e-06	-1.458897e-06	-9.011699e-10	-1.035429e+01	-5.645735e+01
1.530000e-06	-1.414667e-06	-8.932888e-10	-1.004038e+01	-5.605161e+01
1.540000e-06	-1.370345e-06	-8.822253e-10	-9.725813e+00	-5.563951e+01
1.550000e-06	-1.325876e-06	-8.733816e-10	-9.410196e+00	-5.522073e+01
1.560000e-06	-1.281374e-06	-8.654860e-10	-9.094351e+00	-5.479485e+01
1.570000e-06	-1.236785e-06	-8.613310e-10	-8.777889e+00	-5.436138e+01
1.580000e-06	-1.192100e-06	-8.576255e-10	-8.460746e+00	-5.391983e+01
1.590000e-06	-1.147446e-06	-8.507255e-10	-8.143820e+00	-5.346967e+01
1.600000e-06	-1.102656e-06	-8.438087e-10	-7.825926e+00	-5.301042e+01
1.610000e-06	-1.057638e-06	-8.354892e-10	-7.506420e+00	-5.254164e+01
1.620000e-06	-1.012467e-06	-8.233383e-10	-7.185825e+00	-5.206296e+01
1.630000e-06	-9.672349e-07	-8.098920e-10	-6.864799e+00	-5.157409e+01
1.640000e-06	-9.219754e-07	-7.975502e-10	-6.543577e+00	-5.107483e+01
1.650000e-06	-8.766830e-07	-7.925177e-10	-6.222121e+00	-5.056506e+01
1.660000e-06	-8.313875e-07	-7.884456e-10	-5.900644e+00	-5.004471e+01
1.670000e-06	-7.860546e-07	-7.840557e-10	-5.578900e+00	-4.951377e+01
1.680000e-06	-7.406462e-07	-7.782228e-10	-5.256621e+00	-4.897223e+01
1.690000e-06	-6.951162e-07	-7.693179e-10	-4.933479e+00	-4.842007e+01
1.700000e-06	-6.495492e-07	-7.575942e-10	-4.610074e+00	-4.785720e+01
1.710000e-06	-6.039321e-07	-7.461747e-10	-4.286314e+00	-4.728345e+01
1.720000e-06	-5.581383e-07	-7.361865e-10	-3.961300e+00	-4.669848e+01
1.730000e-06	-5.123537e-07	-7.294229e-10	-3.636351e+00	-4.610183e+01
1.740000e-06	-4.666761e-07	-7.215435e-10	-3.312161e+00	-4.549282e+01
1.750000e-06	-4.209109e-07	-7.108059e-10	-2.987349e+00	-4.487059e+01
1.760000e-06	-3.750571e-07	-6.997049e-10	-2.661909e+00	-4.423407e+01
1.770000e-06	-3.292053e-07	-6.860201e-10	-2.336483e+00	-4.358199e+01
1.780000e-06	-2.833548e-07	-6.713866e-10	-2.011066e+00	-4.291293e+01
1.790000e-06	-2.374593e-07	-6.585179e-10	-1.685331e+00	-4.222531e+01
1.800000e-06	-1.914884e-07	-6.461461e-10	-1.359059e+00	-4.151745e+01
1.810000e-06	-1.456063e-07	-6.318696e-10	-1.033418e+00	-4.078766e+01
1.820000e-06	-9.979312e-08	-6.194738e-10	-7.082661e-01	-4.003420e+01
1.830000e-06	-5.387894e-08	-6.078003e-10	-3.823974e-01	-3.925545e+01
1.840000e-06	-7.972981e-09	-5.947101e-10	-5.658699e-02	-3.844987e+01
1.850000e-06	3.790649e-08	-5.825518e-10	2.690354e-01	-3.761612e+01
1.860000e-06	8.380125e-08	-5.716326e-10	5.947663e-01	-3.675306e+01
1.870000e-06	1.296303e-07	-5.600135e-10	9.200307e-01	-3.585982e+01
1.880000e-06	1.754649e-07	-5.472613e-10	1.245335e+00	-3.493580e+01
1.890000e-06	2.212900e-07	-5.308973e-10	1.570571e+00	-3.398069e+01
1.900000e-06	2.670563e-07	-5.110389e-10	1.895390e+00	-3.299446e+01
1.910000e-06	3.128829e-07	-4.911951e-10	2.220637e+00	-3.197735e+01
1.920000e-06	3.587454e-07	-4.746640e-10	2.546139e+00	-3.092986e+01
1.930000e-06	4.045355e-07	-4.586542e-10	2.871128e+00	-2.985266e+01
1.940000e-06	4.502881e-07	-4.426671e-10	3.195850e+00	-2.874659e+01
1.950000e-06	4.960065e-07	-4.251519e-10	3.520329e+00	-2.761257e+01
1.960000e-06	5.416438e-07	-4.065742e-10	3.844233e+00	-2.645155e+01
1.970000e-06	5.872518e-07	-3.869956e-10	4.167928e+00	-2.526447e+01
1.980000e-06	6.328217e-07	-3.675028e-10	4.491353e+00	-2.405219e+01
1.990000e-06	6.783455e-07	-3.482585e-10	4.814452e+00	-2.281544e+01
2.000000e-06	7.238471e-07	-3.290864e-10	5.137392e+00	-2.155480e+01
2.010000e-06	7.693526e-07	-3.108311e-10	5.460361e+00	-2.027066e+01
2.020000e-06	8.148100e-07	-2.943211e-10	5.782987e+00	-1.896320e+01
2.030000e-06	8.601160e-07	-2.748279e-10	6.104539e+00	-1.763244e+01
2.040000e-06	9.053425e-07	-2.518427e-10	6.425527e+00	-1.627818e+01
2.050000e-06	9.505447e-07	-2.291871e-10	6.746343e+00	-1.490010e+01
2.060000e-06	9.956557e-07	-2.068393e-10	7.066511e+00	-1.349777e+01
2.070000e-06	1.040690e-06	-1.823533e-10	7.386135e+00	-1.207070e+01
2.080000e-06	1.085684e-06	-1.586222e-10	7.705470e+00	-1.061840e+01
2.090000e-06	1.130618e-06	-1.365468e-10	8.024384e+00	-9.140416e+00
2.100000e-06	1.175396e-06	-1.124326e-10	8.342189e+00	-7.636439e+00
2.110000e-06	1.220006e-06	-8.675563e-11	8.658803e+00	-6.106307e+00
2.120000e-06	1.264518e-06	-6.118780e-11	8.974721e+00	-4.550077e+00
2.130000e-06	1.308924e-06	-3.900027e-11	9.289882e+00	-2.968059e+00
2.140000e-06	1.353278e-06	-1.855310e-11	9.604676e+00	-1.360837e+00
2.150000e-06	1.397629e-06	5.003161e-12	9.919451e+00	2.707123e-01
2.160000e-06	1.441917e-06	3.147963e-11	1.023378e+01	1.925422e+00
2.170000e-06	1.486102e-06	5.822296e-11	1.054738e+01	3.601849e+00
2.180000e-06	1.530229e-06	8.568004e-11	1.086056e+01	5.298294e+00
2.190000e-06	1.574329e-06	1.117251e-10	1.117356e+01	7.012842e+00
2.200000e-06	1.618355e-06	1.364646e-10	1.148602e+01	8.743400e+00
2.210000e-06	1.662267e-06	1.618956e-10	1.179768e+01	1.048775e+01
2.220000e-06	1.706149e-06	1.892417e-10	1.210913e+01	1.224359e+01
2.230000e-06	1.750004e-06	2.173893e-10	1.242038e+01	1.400858e+01
2.240000e-06	1.793786e-06	2.495693e-10	1.273112e+01	1.578042e+01
2.250000e-06	1.837478e-06	2.849216e-10	1.304121e+01	1.755684e+01
2.260000e-06	1.881075e-06	3.176619e-10	1.335064e+01	1.933565e+01
2.270000e-06	1.924505e-06	3.433194e-10	1.365887e+01	2.111478e+01
2.280000e-06	1.967751e-06	3.646754e-10	1.396581e+01	2.289225e+01
2.290000e-06	2.010881e-06	3.893049e-10	1.427192e+01	2.466620e+01
2.300000e-06	2.053813e-06	4.167753e-10	1.457662e+01	2.643487e+01
2.310000e-06	2.096450e-06	4.451163e-10	1.487923e+01	2.819658e+01
2.320000e-06	2.138922e-06	4.742841e-10	1.518066e+01	2.994969e+01
2.330000e-06	2.181094e-06	5.044055e-10	1.547997e+01	3.169259e+01
2.340000e-06	2.222855e-06	5.328583e-10	1.577637e+01	3.342365e+01
2.350000e-06	2.264462e-06	5.573707e-10	1.607167e+01	3.514122e+01
2.360000e-06	2.305790e-06	5.792356e-10	1.636499e+01	3.684358e+01
2.370000e-06	2.346736e-06	6.019894e-10	1.665559e+01	3.852890e+01
2.380000e-06	2.387414e-06	6.300286e-10	1.694430e+01	4.019528e+01
2.390000e-06	2.427930e-06	6.590504e-10	1.723186e+01	4.184074e+01
2.400000e-06	2.468298e-06	6.846192e-10	1.751836e+01	4.346320e+01
2.410000e-06	2.508491e-06	7.090284e-10	1.780363e+01	4.506054e+01
2.420000e-06	2.548578e-06	7.364394e-10	1.808814e+01	4.663059e+01
2.430000e-06	2.588549e-06	7.655943e-10	1.837182e+01	4.817123e+01
2.440000e-06	2.628459e-06	7.895265e-10	1.865508e+01	4.968040e+01
2.450000e-06	2.668288e-06	8.062169e-10	1.893776e+01	5.115617e+01
2.460000e-06	2.707875e-06	8.248513e-10	1.921872e+01	5.259678e+01
2.470000e-06	2.747356e-06	8.476190e-10	1.949893e+01	5.400069e+01
2.480000e-06	2.786772e-06	8.694182e-10	1.977868e+01	5.536664e+01
2.490000e-06	2.826006e-06	8.891291e-10	2.005714e+01	5.669370e+01
2.500000e-06	2.864949e-06	9.092518e-10	2.033353e+01	5.798123e+01
2.510000e-06	2.903630e-06	9.335754e-10	2.060806e+01	5.922899e+01
2.520000e-06	2.942101e-06	9.590670e-10	2.088111e+01	6.043705e+01
2.530000e-06	2.980310e-06	9.802306e-10	2.115228e+01	6.160582e+01
2.540000e-06	3.018342e-06	9.971197e-10	2.142221e+01	6.273600e+01
2.550000e-06	3.056255e-06	1.013294e-09	2.169129e+01	6.382857e+01
2.560000e-06	3.094013e-06	1.028733e-09	2.195928e+01	6.488467e+01
2.570000e-06	3.131511e-06	1.042550e-09	2.222541e+01	6.590561e+01
2.580000e-06	3.168786e-06	1.054709e-09	2.248996e+01	6.689274e+01
2.590000e-06	3.205855e-06	1.069823e-09	2.275305e+01	6.784742e+01
2.600000e-06	3.242649e-06	1.089699e-09	2.301420e+01	6.877096e+01
2.610000e-06	3.279184e-06	1.108346e-09	2.327350e+01	6.966452e+01
2.620000e-06	3.315463e-06	1.122024e-09	2.353098e+01	7.052911e+01
2.630000e-06	3.351590e-06	1.134293e-09	2.378739e+01	7.136551e+01
2.640000e-06	3.387617e-06	1.145597e-09	2.404309e+01	7.217428e+01
2.650000e-06	3.423530e-06	1.153733e-09	2.429797e+01	7.295574e+01
2.660000e-06	3.459320e-06	1.156097e-09	2.455198e+01	7.371001e+01
2.670000e-06	3.494921e-06	1.158351e-09	2.480466e+01	7.443697e+01
2.680000e-06	3.530251e-06	1.168489e-09	2.505541e+01	7.513638e+01
2.690000e-06	3.565232e-06	1.184640e-09	2.530368e+01	7.580787e+01
2.700000e-06	3.599887e-06	1.198914e-09	2.554963e+01	7.645105e+01
2.710000e-06	3.634119e-06	1.210113e-09	2.579259e+01	7.706555e+01
2.720000e-06	3.667862e-06	1.219324e-09	2.603208e+01	7.765106e+01
2.730000e-06	3.701147e-06	1.227690e-09	2.626831e+01	7.820748e+01
2.740000e-06	3.734004e-06	1.231462e-09	2.650151e+01	7.873486e+01
2.750000e-06	3.766516e-06	1.231124e-09	2.673226e+01	7.923355e+01
2.760000e-06	3.798797e-06	1.234403e-09	2.696137e+01	7.970417e+01
2.770000e-06	3.830893e-06	1.242127e-09	2.718916e+01	8.014762e+01
2.780000e-06	3.862869e-06	1.251597e-09	2.741611e+01	8.056515e+01
2.790000e-06	3.894738e-06	1.259909e-09	2.764230e+01	8.095823e+01
2.800000e-06	3.926411e-06	1.265627e-09	2.786709e+01	8.132863e+01
2.810000e-06	3.957857e-06	1.267474e-09	2.809027e+01	8.167827e+01
2.820000e-06	3.989019e-06	1.268591e-09	2.831144e+01	8.200922e+01
2.830000e-06	4.019808e-06	1.269815e-09	2.852996e+01	8.232360e+01
2.840000e-06	4.050289e-06	1.272555e-09	2.874629e+01	8.262352e+01
2.850000e-06	4.080521e-06	1.276329e-09	2.896086e+01	8.291098e+01
2.860000e-06	4.110433e-06	1.279699e-09	2.917316e+01	8.318782e+01
2.870000e-06	4.140091e-06	1.284137e-09	2.938365e+01	8.345563e+01
2.880000e-06	4.169546e-06	1.288667e-09	2.959271e+01	8.371572e+01
2.890000e-06	4.198768e-06	1.288369e-09	2.980010e+01	8.396905e+01
2.900000e-06	4.227619e-06	1.287981e-09	3.000487e+01	8.421625e+01
