# Temperatura_=_3.2
# Concentracion g/m^3_=_4090.0
# C_Vs_to_Am_M_A/Vsm_=_65563218390.804596
# pendiente_HvsI_1/m_=_3716.3
# ordenada_HvsI_A/m_=_1297.0
# frecuencia_Hz_=_135083.48664098218

Tiempo_(s)	Campo_(V.s)	Magnetizacion_(V.s)	Campo_(kA/m)	Magnetizacion_(A/m)
0.000000e+00	-5.423357e-06	-1.484291e-09	-3.839502e+01	-9.925675e+01
1.000000e-08	-5.423510e-06	-1.478475e-09	-3.839611e+01	-9.904642e+01
2.000000e-08	-5.423436e-06	-1.471030e-09	-3.839558e+01	-9.880538e+01
3.000000e-08	-5.423222e-06	-1.464418e-09	-3.839407e+01	-9.853658e+01
4.000000e-08	-5.422737e-06	-1.461811e-09	-3.839063e+01	-9.824455e+01
5.000000e-08	-5.421798e-06	-1.462499e-09	-3.838399e+01	-9.793538e+01
6.000000e-08	-5.420288e-06	-1.461159e-09	-3.837329e+01	-9.761652e+01
7.000000e-08	-5.418152e-06	-1.461877e-09	-3.835817e+01	-9.729659e+01
8.000000e-08	-5.415353e-06	-1.473678e-09	-3.833836e+01	-9.698510e+01
9.000000e-08	-5.411921e-06	-1.460325e-09	-3.831406e+01	-9.669210e+01
1.000000e-07	-5.407942e-06	-1.431418e-09	-3.828589e+01	-9.642782e+01
1.100000e-07	-5.403653e-06	-1.474038e-09	-3.825553e+01	-9.620228e+01
1.200000e-07	-5.399186e-06	-1.541263e-09	-3.822391e+01	-9.602487e+01
1.300000e-07	-5.394448e-06	-1.456451e-09	-3.819036e+01	-9.590397e+01
1.400000e-07	-5.389388e-06	-1.421551e-09	-3.815454e+01	-9.584660e+01
1.500000e-07	-5.384003e-06	-1.462993e-09	-3.811641e+01	-9.585807e+01
1.600000e-07	-5.378289e-06	-1.566121e-09	-3.807596e+01	-9.594176e+01
1.700000e-07	-5.372196e-06	-1.452124e-09	-3.803282e+01	-9.609893e+01
1.800000e-07	-5.365753e-06	-1.370135e-09	-3.798721e+01	-9.632858e+01
1.900000e-07	-5.358844e-06	-1.485813e-09	-3.793830e+01	-9.662749e+01
2.000000e-07	-5.351517e-06	-1.588346e-09	-3.788643e+01	-9.699026e+01
2.100000e-07	-5.344005e-06	-1.529506e-09	-3.783325e+01	-9.740949e+01
2.200000e-07	-5.336331e-06	-1.473416e-09	-3.777892e+01	-9.787601e+01
2.300000e-07	-5.328437e-06	-1.607985e-09	-3.772303e+01	-9.837920e+01
2.400000e-07	-5.320170e-06	-1.636751e-09	-3.766450e+01	-9.890736e+01
2.500000e-07	-5.311371e-06	-1.579600e-09	-3.760221e+01	-9.944813e+01
2.600000e-07	-5.302012e-06	-1.592568e-09	-3.753595e+01	-9.998891e+01
2.700000e-07	-5.291966e-06	-1.716966e-09	-3.746483e+01	-1.005173e+02
2.800000e-07	-5.281308e-06	-1.658818e-09	-3.738938e+01	-1.010216e+02
2.900000e-07	-5.270237e-06	-1.584532e-09	-3.731100e+01	-1.014911e+02
3.000000e-07	-5.258747e-06	-1.626947e-09	-3.722966e+01	-1.019164e+02
3.100000e-07	-5.246902e-06	-1.673290e-09	-3.714580e+01	-1.022899e+02
3.200000e-07	-5.234627e-06	-1.566240e-09	-3.705890e+01	-1.026057e+02
3.300000e-07	-5.221944e-06	-1.575462e-09	-3.696911e+01	-1.028602e+02
3.400000e-07	-5.208772e-06	-1.667328e-09	-3.687586e+01	-1.030515e+02
3.500000e-07	-5.195206e-06	-1.645227e-09	-3.677981e+01	-1.031799e+02
3.600000e-07	-5.181394e-06	-1.567120e-09	-3.668203e+01	-1.032476e+02
3.700000e-07	-5.167200e-06	-1.625577e-09	-3.658154e+01	-1.032583e+02
3.800000e-07	-5.152457e-06	-1.627333e-09	-3.647717e+01	-1.032173e+02
3.900000e-07	-5.137134e-06	-1.551166e-09	-3.636868e+01	-1.031310e+02
4.000000e-07	-5.121279e-06	-1.562115e-09	-3.625644e+01	-1.030065e+02
4.100000e-07	-5.104857e-06	-1.616267e-09	-3.614018e+01	-1.028514e+02
4.200000e-07	-5.088002e-06	-1.572114e-09	-3.602085e+01	-1.026732e+02
4.300000e-07	-5.070956e-06	-1.563555e-09	-3.590018e+01	-1.024794e+02
4.400000e-07	-5.053653e-06	-1.623250e-09	-3.577768e+01	-1.022768e+02
4.500000e-07	-5.035938e-06	-1.585313e-09	-3.565227e+01	-1.020712e+02
4.600000e-07	-5.017903e-06	-1.533184e-09	-3.552458e+01	-1.018677e+02
4.700000e-07	-4.999525e-06	-1.558077e-09	-3.539447e+01	-1.016699e+02
4.800000e-07	-4.980691e-06	-1.577807e-09	-3.526114e+01	-1.014804e+02
4.900000e-07	-4.961477e-06	-1.534502e-09	-3.512511e+01	-1.013003e+02
5.000000e-07	-4.942004e-06	-1.556413e-09	-3.498725e+01	-1.011297e+02
5.100000e-07	-4.922330e-06	-1.567371e-09	-3.484797e+01	-1.009676e+02
5.200000e-07	-4.902442e-06	-1.554004e-09	-3.470717e+01	-1.008120e+02
5.300000e-07	-4.882270e-06	-1.546346e-09	-3.456436e+01	-1.006603e+02
5.400000e-07	-4.861821e-06	-1.560423e-09	-3.441959e+01	-1.005093e+02
5.500000e-07	-4.841022e-06	-1.525230e-09	-3.427234e+01	-1.003556e+02
5.600000e-07	-4.819877e-06	-1.530720e-09	-3.412265e+01	-1.001959e+02
5.700000e-07	-4.798397e-06	-1.543520e-09	-3.397058e+01	-1.000271e+02
5.800000e-07	-4.776627e-06	-1.532591e-09	-3.381645e+01	-9.984640e+01
5.900000e-07	-4.754584e-06	-1.505420e-09	-3.366040e+01	-9.965173e+01
6.000000e-07	-4.732113e-06	-1.517526e-09	-3.350132e+01	-9.944170e+01
6.100000e-07	-4.709244e-06	-1.514499e-09	-3.333941e+01	-9.921569e+01
6.200000e-07	-4.686048e-06	-1.512922e-09	-3.317520e+01	-9.897392e+01
6.300000e-07	-4.662542e-06	-1.507931e-09	-3.300878e+01	-9.871737e+01
6.400000e-07	-4.638798e-06	-1.507892e-09	-3.284069e+01	-9.844773e+01
6.500000e-07	-4.614880e-06	-1.509942e-09	-3.267136e+01	-9.816731e+01
6.600000e-07	-4.590847e-06	-1.517613e-09	-3.250122e+01	-9.787886e+01
6.700000e-07	-4.566420e-06	-1.500146e-09	-3.232828e+01	-9.758540e+01
6.800000e-07	-4.541492e-06	-1.484704e-09	-3.215180e+01	-9.729009e+01
6.900000e-07	-4.516241e-06	-1.485310e-09	-3.197303e+01	-9.699601e+01
7.000000e-07	-4.490550e-06	-1.486759e-09	-3.179115e+01	-9.670598e+01
7.100000e-07	-4.464285e-06	-1.480851e-09	-3.160521e+01	-9.642244e+01
7.200000e-07	-4.437466e-06	-1.476666e-09	-3.141534e+01	-9.614734e+01
7.300000e-07	-4.410195e-06	-1.482769e-09	-3.122228e+01	-9.588197e+01
7.400000e-07	-4.382643e-06	-1.487929e-09	-3.102722e+01	-9.562701e+01
7.500000e-07	-4.354901e-06	-1.484133e-09	-3.083082e+01	-9.538242e+01
7.600000e-07	-4.326990e-06	-1.463705e-09	-3.063322e+01	-9.514755e+01
7.700000e-07	-4.298915e-06	-1.457579e-09	-3.043446e+01	-9.492114e+01
7.800000e-07	-4.270599e-06	-1.457820e-09	-3.023400e+01	-9.470145e+01
7.900000e-07	-4.241954e-06	-1.458852e-09	-3.003120e+01	-9.448636e+01
8.000000e-07	-4.213050e-06	-1.448695e-09	-2.982657e+01	-9.427352e+01
8.100000e-07	-4.183837e-06	-1.450441e-09	-2.961975e+01	-9.406047e+01
8.200000e-07	-4.154253e-06	-1.451497e-09	-2.941031e+01	-9.384485e+01
8.300000e-07	-4.124436e-06	-1.455628e-09	-2.919922e+01	-9.362446e+01
8.400000e-07	-4.094343e-06	-1.443309e-09	-2.898618e+01	-9.339746e+01
8.500000e-07	-4.063978e-06	-1.433535e-09	-2.877121e+01	-9.316241e+01
8.600000e-07	-4.033365e-06	-1.427358e-09	-2.855448e+01	-9.291838e+01
8.700000e-07	-4.002403e-06	-1.433175e-09	-2.833528e+01	-9.266497e+01
8.800000e-07	-3.971063e-06	-1.427975e-09	-2.811341e+01	-9.240236e+01
8.900000e-07	-3.939559e-06	-1.420904e-09	-2.789037e+01	-9.213123e+01
9.000000e-07	-3.907877e-06	-1.414178e-09	-2.766608e+01	-9.185276e+01
9.100000e-07	-3.876039e-06	-1.416574e-09	-2.744068e+01	-9.156850e+01
9.200000e-07	-3.844155e-06	-1.410837e-09	-2.721496e+01	-9.128030e+01
9.300000e-07	-3.812121e-06	-1.404655e-09	-2.698817e+01	-9.099020e+01
9.400000e-07	-3.779773e-06	-1.401926e-09	-2.675916e+01	-9.070028e+01
9.500000e-07	-3.746982e-06	-1.410031e-09	-2.652702e+01	-9.041255e+01
9.600000e-07	-3.713934e-06	-1.414080e-09	-2.629304e+01	-9.012883e+01
9.700000e-07	-3.680429e-06	-1.405809e-09	-2.605585e+01	-8.985065e+01
9.800000e-07	-3.646319e-06	-1.388272e-09	-2.581436e+01	-8.957916e+01
9.900000e-07	-3.611794e-06	-1.375820e-09	-2.556994e+01	-8.931506e+01
1.000000e-06	-3.576994e-06	-1.367967e-09	-2.532357e+01	-8.905858e+01
1.010000e-06	-3.541877e-06	-1.361054e-09	-2.507496e+01	-8.880948e+01
1.020000e-06	-3.506462e-06	-1.359640e-09	-2.482423e+01	-8.856703e+01
1.030000e-06	-3.470870e-06	-1.363141e-09	-2.457226e+01	-8.833012e+01
1.040000e-06	-3.435137e-06	-1.370475e-09	-2.431928e+01	-8.809725e+01
1.050000e-06	-3.399232e-06	-1.372178e-09	-2.406509e+01	-8.786668e+01
1.060000e-06	-3.363161e-06	-1.365002e-09	-2.380972e+01	-8.763651e+01
1.070000e-06	-3.326948e-06	-1.348252e-09	-2.355336e+01	-8.740476e+01
1.080000e-06	-3.290568e-06	-1.334757e-09	-2.329580e+01	-8.716951e+01
1.090000e-06	-3.253939e-06	-1.322294e-09	-2.303648e+01	-8.692897e+01
1.100000e-06	-3.216940e-06	-1.317907e-09	-2.277454e+01	-8.668160e+01
1.110000e-06	-3.179638e-06	-1.318497e-09	-2.251046e+01	-8.642615e+01
1.120000e-06	-3.142121e-06	-1.326920e-09	-2.224486e+01	-8.616172e+01
1.130000e-06	-3.104467e-06	-1.327576e-09	-2.197828e+01	-8.588781e+01
1.140000e-06	-3.066674e-06	-1.321115e-09	-2.171073e+01	-8.560430e+01
1.150000e-06	-3.028696e-06	-1.308745e-09	-2.144186e+01	-8.531147e+01
1.160000e-06	-2.990446e-06	-1.300789e-09	-2.117107e+01	-8.500994e+01
1.170000e-06	-2.951994e-06	-1.290728e-09	-2.089884e+01	-8.470062e+01
1.180000e-06	-2.913375e-06	-1.280261e-09	-2.062544e+01	-8.438465e+01
1.190000e-06	-2.874453e-06	-1.271994e-09	-2.034988e+01	-8.406333e+01
1.200000e-06	-2.835328e-06	-1.273792e-09	-2.007290e+01	-8.373801e+01
1.210000e-06	-2.796028e-06	-1.277163e-09	-1.979467e+01	-8.341007e+01
1.220000e-06	-2.756583e-06	-1.275811e-09	-1.951541e+01	-8.308076e+01
1.230000e-06	-2.717019e-06	-1.267362e-09	-1.923532e+01	-8.275120e+01
1.240000e-06	-2.677251e-06	-1.260282e-09	-1.895378e+01	-8.242232e+01
1.250000e-06	-2.637430e-06	-1.253308e-09	-1.867186e+01	-8.209476e+01
1.260000e-06	-2.597589e-06	-1.247040e-09	-1.838981e+01	-8.176892e+01
1.270000e-06	-2.557589e-06	-1.239421e-09	-1.810662e+01	-8.144490e+01
1.280000e-06	-2.517429e-06	-1.231207e-09	-1.782231e+01	-8.112257e+01
1.290000e-06	-2.477088e-06	-1.225835e-09	-1.753671e+01	-8.080152e+01
1.300000e-06	-2.436442e-06	-1.220040e-09	-1.724896e+01	-8.048114e+01
1.310000e-06	-2.395563e-06	-1.212920e-09	-1.695955e+01	-8.016067e+01
1.320000e-06	-2.354693e-06	-1.205473e-09	-1.667021e+01	-7.983925e+01
1.330000e-06	-2.313623e-06	-1.202516e-09	-1.637945e+01	-7.951595e+01
1.340000e-06	-2.272091e-06	-1.202319e-09	-1.608542e+01	-7.918984e+01
1.350000e-06	-2.230211e-06	-1.202925e-09	-1.578893e+01	-7.886005e+01
1.360000e-06	-2.188027e-06	-1.198293e-09	-1.549028e+01	-7.852579e+01
1.370000e-06	-2.145551e-06	-1.189376e-09	-1.518958e+01	-7.818638e+01
1.380000e-06	-2.102831e-06	-1.177774e-09	-1.488713e+01	-7.784128e+01
1.390000e-06	-2.059884e-06	-1.168163e-09	-1.458309e+01	-7.749008e+01
1.400000e-06	-2.016842e-06	-1.160837e-09	-1.427837e+01	-7.713250e+01
1.410000e-06	-1.973660e-06	-1.157541e-09	-1.397266e+01	-7.676841e+01
1.420000e-06	-1.930248e-06	-1.155605e-09	-1.366532e+01	-7.639772e+01
1.430000e-06	-1.886738e-06	-1.156095e-09	-1.335729e+01	-7.602044e+01
1.440000e-06	-1.843129e-06	-1.155199e-09	-1.304856e+01	-7.563658e+01
1.450000e-06	-1.799385e-06	-1.150017e-09	-1.273887e+01	-7.524616e+01
1.460000e-06	-1.755614e-06	-1.139616e-09	-1.242899e+01	-7.484914e+01
1.470000e-06	-1.711808e-06	-1.129872e-09	-1.211886e+01	-7.444544e+01
1.480000e-06	-1.667851e-06	-1.121935e-09	-1.180766e+01	-7.403485e+01
1.490000e-06	-1.623796e-06	-1.116777e-09	-1.149577e+01	-7.361709e+01
1.500000e-06	-1.579698e-06	-1.112170e-09	-1.118358e+01	-7.319178e+01
1.510000e-06	-1.535532e-06	-1.109412e-09	-1.087090e+01	-7.275846e+01
1.520000e-06	-1.491260e-06	-1.106869e-09	-1.055747e+01	-7.231657e+01
1.530000e-06	-1.446914e-06	-1.099177e-09	-1.024353e+01	-7.186553e+01
1.540000e-06	-1.402507e-06	-1.084696e-09	-9.929145e+00	-7.140476e+01
1.550000e-06	-1.357961e-06	-1.068772e-09	-9.613775e+00	-7.093369e+01
1.560000e-06	-1.313285e-06	-1.056919e-09	-9.297491e+00	-7.045184e+01
1.570000e-06	-1.268551e-06	-1.049164e-09	-8.980796e+00	-6.995882e+01
1.580000e-06	-1.223752e-06	-1.042846e-09	-8.663638e+00	-6.945436e+01
1.590000e-06	-1.178872e-06	-1.038969e-09	-8.345907e+00	-6.893838e+01
1.600000e-06	-1.133872e-06	-1.035911e-09	-8.027321e+00	-6.841093e+01
1.610000e-06	-1.088874e-06	-1.030269e-09	-7.708758e+00	-6.787224e+01
1.620000e-06	-1.043868e-06	-1.018966e-09	-7.390131e+00	-6.732271e+01
1.630000e-06	-9.986538e-07	-1.005966e-09	-7.070037e+00	-6.676283e+01
1.640000e-06	-9.533520e-07	-9.944698e-10	-6.749320e+00	-6.619322e+01
1.650000e-06	-9.079815e-07	-9.854120e-10	-6.428117e+00	-6.561451e+01
1.660000e-06	-8.625590e-07	-9.772612e-10	-6.106545e+00	-6.502734e+01
1.670000e-06	-8.170818e-07	-9.676995e-10	-5.784586e+00	-6.443226e+01
1.680000e-06	-7.715133e-07	-9.593634e-10	-5.461980e+00	-6.382970e+01
1.690000e-06	-7.259167e-07	-9.514639e-10	-5.139176e+00	-6.321990e+01
1.700000e-06	-6.802658e-07	-9.415862e-10	-4.815988e+00	-6.260285e+01
1.710000e-06	-6.345863e-07	-9.288870e-10	-4.492597e+00	-6.197826e+01
1.720000e-06	-5.889325e-07	-9.157440e-10	-4.169387e+00	-6.134554e+01
1.730000e-06	-5.432574e-07	-9.041431e-10	-3.846028e+00	-6.070374e+01
1.740000e-06	-4.975176e-07	-8.933098e-10	-3.522209e+00	-6.005159e+01
1.750000e-06	-4.516497e-07	-8.802906e-10	-3.197484e+00	-5.938754e+01
1.760000e-06	-4.056800e-07	-8.697512e-10	-2.872039e+00	-5.870972e+01
1.770000e-06	-3.597755e-07	-8.588027e-10	-2.547055e+00	-5.801605e+01
1.780000e-06	-3.138880e-07	-8.464959e-10	-2.222192e+00	-5.730429e+01
1.790000e-06	-2.679237e-07	-8.343441e-10	-1.896784e+00	-5.657208e+01
1.800000e-06	-2.219876e-07	-8.229043e-10	-1.571577e+00	-5.581707e+01
1.810000e-06	-1.761199e-07	-8.086225e-10	-1.246853e+00	-5.503695e+01
1.820000e-06	-1.302141e-07	-7.925560e-10	-9.218598e-01	-5.422957e+01
1.830000e-06	-8.422320e-08	-7.749065e-10	-5.962639e-01	-5.339298e+01
1.840000e-06	-3.825572e-08	-7.581725e-10	-2.708340e-01	-5.252551e+01
1.850000e-06	7.728368e-09	-7.445026e-10	5.471351e-02	-5.162580e+01
1.860000e-06	5.377206e-08	-7.333931e-10	3.806829e-01	-5.069288e+01
1.870000e-06	9.980637e-08	-7.220881e-10	7.065859e-01	-4.972613e+01
1.880000e-06	1.458159e-07	-7.093432e-10	1.032313e+00	-4.872531e+01
1.890000e-06	1.917757e-07	-6.938993e-10	1.357689e+00	-4.769053e+01
1.900000e-06	2.378134e-07	-6.749346e-10	1.683616e+00	-4.662224e+01
1.910000e-06	2.838783e-07	-6.520716e-10	2.009735e+00	-4.552113e+01
1.920000e-06	3.299326e-07	-6.278208e-10	2.335780e+00	-4.438810e+01
1.930000e-06	3.759028e-07	-6.060800e-10	2.661230e+00	-4.322419e+01
1.940000e-06	4.217172e-07	-5.865912e-10	2.985575e+00	-4.203049e+01
1.950000e-06	4.674495e-07	-5.701301e-10	3.309341e+00	-4.080806e+01
1.960000e-06	5.131157e-07	-5.564844e-10	3.632637e+00	-3.955786e+01
1.970000e-06	5.588291e-07	-5.429701e-10	3.956269e+00	-3.828073e+01
1.980000e-06	6.045531e-07	-5.266413e-10	4.279975e+00	-3.697723e+01
1.990000e-06	6.502603e-07	-5.059162e-10	4.603562e+00	-3.564773e+01
2.000000e-06	6.959298e-07	-4.803950e-10	4.926882e+00	-3.429228e+01
2.010000e-06	7.414527e-07	-4.562928e-10	5.249164e+00	-3.291064e+01
2.020000e-06	7.869482e-07	-4.349163e-10	5.571253e+00	-3.150231e+01
2.030000e-06	8.324722e-07	-4.136577e-10	5.893543e+00	-3.006654e+01
2.040000e-06	8.779475e-07	-3.918280e-10	6.215489e+00	-2.860234e+01
2.050000e-06	9.233321e-07	-3.703211e-10	6.536792e+00	-2.710857e+01
2.060000e-06	9.686512e-07	-3.501696e-10	6.857632e+00	-2.558400e+01
2.070000e-06	1.013914e-06	-3.296140e-10	7.178076e+00	-2.402735e+01
2.080000e-06	1.058965e-06	-3.046392e-10	7.497014e+00	-2.243739e+01
2.090000e-06	1.103929e-06	-2.760663e-10	7.815342e+00	-2.081299e+01
2.100000e-06	1.148905e-06	-2.475068e-10	8.133752e+00	-1.915319e+01
2.110000e-06	1.193799e-06	-2.214225e-10	8.451580e+00	-1.745726e+01
2.120000e-06	1.238592e-06	-1.932375e-10	8.768697e+00	-1.572474e+01
2.130000e-06	1.283252e-06	-1.630815e-10	9.084872e+00	-1.395548e+01
2.140000e-06	1.327779e-06	-1.358021e-10	9.400100e+00	-1.214965e+01
2.150000e-06	1.372191e-06	-1.133630e-10	9.714517e+00	-1.030778e+01
2.160000e-06	1.416536e-06	-9.227783e-11	1.002846e+01	-8.430718e+00
2.170000e-06	1.460882e-06	-6.825858e-11	1.034241e+01	-6.519636e+00
2.180000e-06	1.505206e-06	-4.068281e-11	1.065621e+01	-4.576001e+00
2.190000e-06	1.549417e-06	-1.056523e-11	1.096921e+01	-2.601541e+00
2.200000e-06	1.593527e-06	2.286349e-11	1.128148e+01	-5.982063e-01
2.210000e-06	1.637548e-06	5.831746e-11	1.159313e+01	1.431870e+00
2.220000e-06	1.681473e-06	9.217029e-11	1.190410e+01	3.486416e+00
2.230000e-06	1.725357e-06	1.225948e-10	1.221478e+01	5.563057e+00
2.240000e-06	1.769167e-06	1.512968e-10	1.252494e+01	7.659350e+00
2.250000e-06	1.812881e-06	1.812033e-10	1.283442e+01	9.772815e+00
2.260000e-06	1.856536e-06	2.111369e-10	1.314347e+01	1.190095e+01
2.270000e-06	1.900112e-06	2.434251e-10	1.345197e+01	1.404126e+01
2.280000e-06	1.943599e-06	2.802088e-10	1.375984e+01	1.619125e+01
2.290000e-06	1.986941e-06	3.203739e-10	1.406668e+01	1.834843e+01
2.300000e-06	2.030134e-06	3.584628e-10	1.437247e+01	2.051032e+01
2.310000e-06	2.073106e-06	3.918589e-10	1.467669e+01	2.267441e+01
2.320000e-06	2.115749e-06	4.220645e-10	1.497859e+01	2.483820e+01
2.330000e-06	2.158249e-06	4.522961e-10	1.527947e+01	2.699916e+01
2.340000e-06	2.200557e-06	4.810273e-10	1.557900e+01	2.915472e+01
2.350000e-06	2.242508e-06	5.082159e-10	1.587599e+01	3.130228e+01
2.360000e-06	2.284118e-06	5.384147e-10	1.617056e+01	3.343919e+01
2.370000e-06	2.325436e-06	5.740262e-10	1.646308e+01	3.556278e+01
2.380000e-06	2.366493e-06	6.120264e-10	1.675375e+01	3.767035e+01
2.390000e-06	2.407321e-06	6.469942e-10	1.704279e+01	3.975920e+01
2.400000e-06	2.447911e-06	6.771679e-10	1.733015e+01	4.182664e+01
2.410000e-06	2.488254e-06	7.057633e-10	1.761576e+01	4.387004e+01
2.420000e-06	2.528475e-06	7.349082e-10	1.790051e+01	4.588685e+01
2.430000e-06	2.568569e-06	7.651108e-10	1.818436e+01	4.787461e+01
2.440000e-06	2.608558e-06	7.954375e-10	1.846746e+01	4.983101e+01
2.450000e-06	2.648470e-06	8.244143e-10	1.875002e+01	5.175390e+01
2.460000e-06	2.688285e-06	8.555454e-10	1.903189e+01	5.364135e+01
2.470000e-06	2.727995e-06	8.888224e-10	1.931302e+01	5.549160e+01
2.480000e-06	2.767543e-06	9.173449e-10	1.959301e+01	5.730315e+01
2.490000e-06	2.806943e-06	9.406283e-10	1.987195e+01	5.907472e+01
2.500000e-06	2.846154e-06	9.636357e-10	2.014954e+01	6.080524e+01
2.510000e-06	2.885123e-06	9.906054e-10	2.042543e+01	6.249388e+01
2.520000e-06	2.923920e-06	1.020473e-09	2.070009e+01	6.414000e+01
2.530000e-06	2.962489e-06	1.049996e-09	2.097314e+01	6.574314e+01
2.540000e-06	3.000754e-06	1.077615e-09	2.124404e+01	6.730299e+01
2.550000e-06	3.038734e-06	1.100250e-09	2.151292e+01	6.881936e+01
2.560000e-06	3.076565e-06	1.117658e-09	2.178075e+01	7.029218e+01
2.570000e-06	3.114268e-06	1.133760e-09	2.204767e+01	7.172141e+01
2.580000e-06	3.151735e-06	1.152626e-09	2.231292e+01	7.310710e+01
2.590000e-06	3.189048e-06	1.173296e-09	2.257708e+01	7.444931e+01
2.600000e-06	3.226167e-06	1.195830e-09	2.283987e+01	7.574811e+01
2.610000e-06	3.263007e-06	1.221411e-09	2.310068e+01	7.700362e+01
2.620000e-06	3.299611e-06	1.248127e-09	2.335982e+01	7.821596e+01
2.630000e-06	3.335938e-06	1.268660e-09	2.361700e+01	7.938527e+01
2.640000e-06	3.372038e-06	1.278173e-09	2.387257e+01	8.051179e+01
2.650000e-06	3.407998e-06	1.282833e-09	2.412715e+01	8.159577e+01
2.660000e-06	3.443855e-06	1.290679e-09	2.438100e+01	8.263759e+01
2.670000e-06	3.479608e-06	1.301146e-09	2.463412e+01	8.363774e+01
2.680000e-06	3.515231e-06	1.311868e-09	2.488632e+01	8.459684e+01
2.690000e-06	3.550591e-06	1.324764e-09	2.513665e+01	8.551570e+01
2.700000e-06	3.585595e-06	1.343439e-09	2.538447e+01	8.639526e+01
2.710000e-06	3.620262e-06	1.364686e-09	2.562989e+01	8.723666e+01
2.720000e-06	3.654413e-06	1.381306e-09	2.587166e+01	8.804120e+01
2.730000e-06	3.688135e-06	1.389198e-09	2.611040e+01	8.881033e+01
2.740000e-06	3.721524e-06	1.393824e-09	2.634678e+01	8.954564e+01
2.750000e-06	3.754392e-06	1.397812e-09	2.657947e+01	9.024882e+01
2.760000e-06	3.786860e-06	1.403708e-09	2.680933e+01	9.092160e+01
2.770000e-06	3.819137e-06	1.411826e-09	2.703784e+01	9.156574e+01
2.780000e-06	3.851229e-06	1.422271e-09	2.726504e+01	9.218295e+01
2.790000e-06	3.883258e-06	1.437811e-09	2.749179e+01	9.277486e+01
2.800000e-06	3.915177e-06	1.452215e-09	2.771776e+01	9.334296e+01
2.810000e-06	3.946755e-06	1.457847e-09	2.794132e+01	9.388854e+01
2.820000e-06	3.978050e-06	1.455546e-09	2.816287e+01	9.441271e+01
2.830000e-06	4.009114e-06	1.455856e-09	2.838279e+01	9.491631e+01
2.840000e-06	4.039866e-06	1.462157e-09	2.860051e+01	9.539995e+01
2.850000e-06	4.070327e-06	1.469151e-09	2.881616e+01	9.586397e+01
2.860000e-06	4.100472e-06	1.474521e-09	2.902957e+01	9.630848e+01
2.870000e-06	4.130335e-06	1.482953e-09	2.924099e+01	9.673337e+01
2.880000e-06	4.159956e-06	1.494400e-09	2.945069e+01	9.713839e+01
2.890000e-06	4.189374e-06	1.501880e-09	2.965896e+01	9.752312e+01
2.900000e-06	4.218580e-06	1.500161e-09	2.986572e+01	9.788712e+01
