# Temperatura_=_12.82
# Concentracion g/m^3_=_4090.0
# C_Vs_to_Am_M_A/Vsm_=_65563218390.804596
# pendiente_HvsI_1/m_=_3716.3
# ordenada_HvsI_A/m_=_1297.0
# frecuencia_Hz_=_135085.9875835348

Tiempo_(s)	Campo_(V.s)	Magnetizacion_(V.s)	Campo_(kA/m)	Magnetizacion_(A/m)
0.000000e+00	-5.395754e-06	-1.296975e-09	-3.838483e+01	-8.505401e+01
1.000000e-08	-5.395825e-06	-1.288512e-09	-3.838533e+01	-8.492236e+01
2.000000e-08	-5.395717e-06	-1.278413e-09	-3.838457e+01	-8.476501e+01
3.000000e-08	-5.395272e-06	-1.269532e-09	-3.838140e+01	-8.458362e+01
4.000000e-08	-5.394407e-06	-1.268823e-09	-3.837525e+01	-8.438124e+01
5.000000e-08	-5.392966e-06	-1.271627e-09	-3.836500e+01	-8.416221e+01
6.000000e-08	-5.390922e-06	-1.271382e-09	-3.835045e+01	-8.393209e+01
7.000000e-08	-5.388264e-06	-1.268352e-09	-3.833155e+01	-8.369745e+01
8.000000e-08	-5.384975e-06	-1.293327e-09	-3.830815e+01	-8.346559e+01
9.000000e-08	-5.381173e-06	-1.320098e-09	-3.828110e+01	-8.324434e+01
1.000000e-07	-5.376936e-06	-1.288581e-09	-3.825096e+01	-8.304164e+01
1.100000e-07	-5.372559e-06	-1.246975e-09	-3.821982e+01	-8.286524e+01
1.200000e-07	-5.368183e-06	-1.245292e-09	-3.818869e+01	-8.272237e+01
1.300000e-07	-5.363408e-06	-1.287926e-09	-3.815472e+01	-8.261935e+01
1.400000e-07	-5.358085e-06	-1.280580e-09	-3.811686e+01	-8.256135e+01
1.500000e-07	-5.352374e-06	-1.224831e-09	-3.807623e+01	-8.255208e+01
1.600000e-07	-5.346380e-06	-1.257603e-09	-3.803359e+01	-8.259363e+01
1.700000e-07	-5.339952e-06	-1.266846e-09	-3.798786e+01	-8.268629e+01
1.800000e-07	-5.333008e-06	-1.270195e-09	-3.793846e+01	-8.282854e+01
1.900000e-07	-5.325812e-06	-1.238244e-09	-3.788727e+01	-8.301706e+01
2.000000e-07	-5.318476e-06	-1.279646e-09	-3.783508e+01	-8.324680e+01
2.100000e-07	-5.310874e-06	-1.272124e-09	-3.778100e+01	-8.351121e+01
2.200000e-07	-5.302954e-06	-1.271706e-09	-3.772466e+01	-8.380245e+01
2.300000e-07	-5.294740e-06	-1.300565e-09	-3.766622e+01	-8.411169e+01
2.400000e-07	-5.286137e-06	-1.340296e-09	-3.760503e+01	-8.442949e+01
2.500000e-07	-5.276811e-06	-1.327533e-09	-3.753868e+01	-8.474613e+01
2.600000e-07	-5.266767e-06	-1.307277e-09	-3.746723e+01	-8.505201e+01
2.700000e-07	-5.256246e-06	-1.325769e-09	-3.739238e+01	-8.533803e+01
2.800000e-07	-5.245227e-06	-1.317130e-09	-3.731400e+01	-8.559591e+01
2.900000e-07	-5.233730e-06	-1.264823e-09	-3.723221e+01	-8.581852e+01
3.000000e-07	-5.221829e-06	-1.242685e-09	-3.714755e+01	-8.600012e+01
3.100000e-07	-5.209529e-06	-1.304826e-09	-3.706005e+01	-8.613655e+01
3.200000e-07	-5.196881e-06	-1.312464e-09	-3.697007e+01	-8.622532e+01
3.300000e-07	-5.183914e-06	-1.287576e-09	-3.687782e+01	-8.626567e+01
3.400000e-07	-5.170607e-06	-1.272920e-09	-3.678316e+01	-8.625850e+01
3.500000e-07	-5.156826e-06	-1.300067e-09	-3.668512e+01	-8.620626e+01
3.600000e-07	-5.142554e-06	-1.280159e-09	-3.658359e+01	-8.611279e+01
3.700000e-07	-5.127822e-06	-1.266815e-09	-3.647879e+01	-8.598301e+01
3.800000e-07	-5.112525e-06	-1.247887e-09	-3.636997e+01	-8.582271e+01
3.900000e-07	-5.096644e-06	-1.255410e-09	-3.625699e+01	-8.563820e+01
4.000000e-07	-5.080317e-06	-1.267959e-09	-3.614085e+01	-8.543599e+01
4.100000e-07	-5.063662e-06	-1.293110e-09	-3.602236e+01	-8.522247e+01
4.200000e-07	-5.046729e-06	-1.259251e-09	-3.590190e+01	-8.500361e+01
4.300000e-07	-5.029525e-06	-1.240794e-09	-3.577951e+01	-8.478471e+01
4.400000e-07	-5.012015e-06	-1.251906e-09	-3.565495e+01	-8.457017e+01
4.500000e-07	-4.994194e-06	-1.264656e-09	-3.552818e+01	-8.436333e+01
4.600000e-07	-4.975996e-06	-1.231572e-09	-3.539872e+01	-8.416637e+01
4.700000e-07	-4.957456e-06	-1.229389e-09	-3.526682e+01	-8.398030e+01
4.800000e-07	-4.938494e-06	-1.242555e-09	-3.513193e+01	-8.380494e+01
4.900000e-07	-4.919132e-06	-1.250082e-09	-3.499419e+01	-8.363909e+01
5.000000e-07	-4.899503e-06	-1.233810e-09	-3.485455e+01	-8.348061e+01
5.100000e-07	-4.879637e-06	-1.218485e-09	-3.471322e+01	-8.332665e+01
5.200000e-07	-4.859577e-06	-1.208330e-09	-3.457052e+01	-8.317386e+01
5.300000e-07	-4.839336e-06	-1.221611e-09	-3.442653e+01	-8.301862e+01
5.400000e-07	-4.818816e-06	-1.229899e-09	-3.428056e+01	-8.285731e+01
5.500000e-07	-4.797937e-06	-1.214644e-09	-3.413202e+01	-8.268656e+01
5.600000e-07	-4.776507e-06	-1.207477e-09	-3.397957e+01	-8.250341e+01
5.700000e-07	-4.754664e-06	-1.217810e-09	-3.382418e+01	-8.230557e+01
5.800000e-07	-4.732687e-06	-1.211363e-09	-3.366784e+01	-8.209148e+01
5.900000e-07	-4.710476e-06	-1.185325e-09	-3.350983e+01	-8.186048e+01
6.000000e-07	-4.687888e-06	-1.180217e-09	-3.334914e+01	-8.161280e+01
6.100000e-07	-4.664874e-06	-1.188149e-09	-3.318542e+01	-8.134956e+01
6.200000e-07	-4.641509e-06	-1.200449e-09	-3.301921e+01	-8.107271e+01
6.300000e-07	-4.617874e-06	-1.198719e-09	-3.285108e+01	-8.078492e+01
6.400000e-07	-4.594025e-06	-1.195991e-09	-3.268142e+01	-8.048944e+01
6.500000e-07	-4.569980e-06	-1.187862e-09	-3.251036e+01	-8.018988e+01
6.600000e-07	-4.545770e-06	-1.191568e-09	-3.233813e+01	-7.989008e+01
6.700000e-07	-4.521345e-06	-1.180191e-09	-3.216438e+01	-7.959383e+01
6.800000e-07	-4.496327e-06	-1.165780e-09	-3.198640e+01	-7.930475e+01
6.900000e-07	-4.470765e-06	-1.155155e-09	-3.180455e+01	-7.902606e+01
7.000000e-07	-4.444810e-06	-1.165374e-09	-3.161991e+01	-7.876040e+01
7.100000e-07	-4.418277e-06	-1.167016e-09	-3.143116e+01	-7.850978e+01
7.200000e-07	-4.391260e-06	-1.165951e-09	-3.123896e+01	-7.827543e+01
7.300000e-07	-4.363869e-06	-1.156908e-09	-3.104411e+01	-7.805778e+01
7.400000e-07	-4.336202e-06	-1.157091e-09	-3.084729e+01	-7.785647e+01
7.500000e-07	-4.308356e-06	-1.151258e-09	-3.064919e+01	-7.767037e+01
7.600000e-07	-4.280395e-06	-1.146648e-09	-3.045028e+01	-7.749771e+01
7.700000e-07	-4.252267e-06	-1.138821e-09	-3.025018e+01	-7.733614e+01
7.800000e-07	-4.223862e-06	-1.140138e-09	-3.004811e+01	-7.718292e+01
7.900000e-07	-4.195081e-06	-1.140651e-09	-2.984337e+01	-7.703505e+01
8.000000e-07	-4.165881e-06	-1.140552e-09	-2.963564e+01	-7.688945e+01
8.100000e-07	-4.136394e-06	-1.134847e-09	-2.942587e+01	-7.674309e+01
8.200000e-07	-4.106728e-06	-1.130774e-09	-2.921483e+01	-7.659319e+01
8.300000e-07	-4.076807e-06	-1.128001e-09	-2.900198e+01	-7.643734e+01
8.400000e-07	-4.046568e-06	-1.128123e-09	-2.878686e+01	-7.627355e+01
8.500000e-07	-4.016059e-06	-1.126742e-09	-2.856983e+01	-7.610039e+01
8.600000e-07	-3.985358e-06	-1.123319e-09	-2.835142e+01	-7.591701e+01
8.700000e-07	-3.954408e-06	-1.122398e-09	-2.813125e+01	-7.572310e+01
8.800000e-07	-3.923144e-06	-1.119131e-09	-2.790884e+01	-7.551893e+01
8.900000e-07	-3.891690e-06	-1.110935e-09	-2.768508e+01	-7.530523e+01
9.000000e-07	-3.860055e-06	-1.098547e-09	-2.746003e+01	-7.508314e+01
9.100000e-07	-3.828197e-06	-1.093299e-09	-2.723340e+01	-7.485408e+01
9.200000e-07	-3.796224e-06	-1.093398e-09	-2.700594e+01	-7.461964e+01
9.300000e-07	-3.764068e-06	-1.099783e-09	-2.677719e+01	-7.438148e+01
9.400000e-07	-3.731635e-06	-1.101028e-09	-2.654646e+01	-7.414118e+01
9.500000e-07	-3.698832e-06	-1.101296e-09	-2.631310e+01	-7.390014e+01
9.600000e-07	-3.665581e-06	-1.095163e-09	-2.607656e+01	-7.365953e+01
9.700000e-07	-3.631831e-06	-1.086873e-09	-2.583646e+01	-7.342015e+01
9.800000e-07	-3.597530e-06	-1.072715e-09	-2.559245e+01	-7.318247e+01
9.900000e-07	-3.562842e-06	-1.062991e-09	-2.534569e+01	-7.294655e+01
1.000000e-06	-3.527894e-06	-1.058658e-09	-2.509707e+01	-7.271211e+01
1.010000e-06	-3.492626e-06	-1.065717e-09	-2.484617e+01	-7.247853e+01
1.020000e-06	-3.457061e-06	-1.071231e-09	-2.459317e+01	-7.224492e+01
1.030000e-06	-3.421404e-06	-1.073088e-09	-2.433951e+01	-7.201023e+01
1.040000e-06	-3.385641e-06	-1.067411e-09	-2.408510e+01	-7.177329e+01
1.050000e-06	-3.349708e-06	-1.061973e-09	-2.382947e+01	-7.153297e+01
1.060000e-06	-3.313649e-06	-1.051649e-09	-2.357295e+01	-7.128821e+01
1.070000e-06	-3.277425e-06	-1.039292e-09	-2.331526e+01	-7.103816e+01
1.080000e-06	-3.241029e-06	-1.028683e-09	-2.305634e+01	-7.078222e+01
1.090000e-06	-3.204326e-06	-1.029875e-09	-2.279524e+01	-7.052012e+01
1.100000e-06	-3.167304e-06	-1.035271e-09	-2.253187e+01	-7.025193e+01
1.110000e-06	-3.129963e-06	-1.038563e-09	-2.226623e+01	-6.997808e+01
1.120000e-06	-3.092384e-06	-1.035187e-09	-2.199889e+01	-6.969933e+01
1.130000e-06	-3.054702e-06	-1.028429e-09	-2.173083e+01	-6.941675e+01
1.140000e-06	-3.016862e-06	-1.021885e-09	-2.146164e+01	-6.913166e+01
1.150000e-06	-2.978837e-06	-1.014026e-09	-2.119114e+01	-6.884550e+01
1.160000e-06	-2.940616e-06	-1.006482e-09	-2.091924e+01	-6.855980e+01
1.170000e-06	-2.902148e-06	-1.002500e-09	-2.064558e+01	-6.827606e+01
1.180000e-06	-2.863365e-06	-1.002678e-09	-2.036968e+01	-6.799563e+01
1.190000e-06	-2.824416e-06	-1.002155e-09	-2.009260e+01	-6.771966e+01
1.200000e-06	-2.785336e-06	-1.001434e-09	-1.981459e+01	-6.744897e+01
1.210000e-06	-2.746062e-06	-9.989022e-10	-1.953520e+01	-6.718404e+01
1.220000e-06	-2.706634e-06	-9.968326e-10	-1.925471e+01	-6.692492e+01
1.230000e-06	-2.667012e-06	-9.913172e-10	-1.897285e+01	-6.667125e+01
1.240000e-06	-2.627238e-06	-9.845655e-10	-1.868989e+01	-6.642225e+01
1.250000e-06	-2.587377e-06	-9.766511e-10	-1.840633e+01	-6.617674e+01
1.260000e-06	-2.547419e-06	-9.728533e-10	-1.812207e+01	-6.593323e+01
1.270000e-06	-2.507377e-06	-9.720818e-10	-1.783722e+01	-6.568994e+01
1.280000e-06	-2.467211e-06	-9.716435e-10	-1.755148e+01	-6.544495e+01
1.290000e-06	-2.426877e-06	-9.661250e-10	-1.726455e+01	-6.519624e+01
1.300000e-06	-2.386410e-06	-9.609555e-10	-1.697667e+01	-6.494186e+01
1.310000e-06	-2.345732e-06	-9.552934e-10	-1.668730e+01	-6.467996e+01
1.320000e-06	-2.304834e-06	-9.510725e-10	-1.639635e+01	-6.440893e+01
1.330000e-06	-2.263781e-06	-9.469836e-10	-1.610430e+01	-6.412747e+01
1.340000e-06	-2.222447e-06	-9.466284e-10	-1.581025e+01	-6.383462e+01
1.350000e-06	-2.180766e-06	-9.480458e-10	-1.551374e+01	-6.352985e+01
1.360000e-06	-2.138832e-06	-9.467527e-10	-1.521543e+01	-6.321304e+01
1.370000e-06	-2.096537e-06	-9.389020e-10	-1.491455e+01	-6.288448e+01
1.380000e-06	-2.053919e-06	-9.305638e-10	-1.461136e+01	-6.254484e+01
1.390000e-06	-2.011116e-06	-9.215526e-10	-1.430687e+01	-6.219510e+01
1.400000e-06	-1.968114e-06	-9.124734e-10	-1.400096e+01	-6.183650e+01
1.410000e-06	-1.924915e-06	-9.022083e-10	-1.369365e+01	-6.147044e+01
1.420000e-06	-1.881591e-06	-8.983364e-10	-1.338544e+01	-6.109839e+01
1.430000e-06	-1.838135e-06	-9.015394e-10	-1.307630e+01	-6.072179e+01
1.440000e-06	-1.794487e-06	-9.030257e-10	-1.276579e+01	-6.034195e+01
1.450000e-06	-1.750738e-06	-8.996656e-10	-1.245457e+01	-5.995999e+01
1.460000e-06	-1.706911e-06	-8.930688e-10	-1.214278e+01	-5.957674e+01
1.470000e-06	-1.662997e-06	-8.858847e-10	-1.183039e+01	-5.919270e+01
1.480000e-06	-1.619046e-06	-8.758254e-10	-1.151773e+01	-5.880800e+01
1.490000e-06	-1.575054e-06	-8.650477e-10	-1.120477e+01	-5.842243e+01
1.500000e-06	-1.530967e-06	-8.561703e-10	-1.089114e+01	-5.803540e+01
1.510000e-06	-1.486824e-06	-8.554941e-10	-1.057711e+01	-5.764598e+01
1.520000e-06	-1.442680e-06	-8.554106e-10	-1.026308e+01	-5.725301e+01
1.530000e-06	-1.398463e-06	-8.502559e-10	-9.948517e+00	-5.685510e+01
1.540000e-06	-1.354118e-06	-8.412294e-10	-9.633054e+00	-5.645076e+01
1.550000e-06	-1.309751e-06	-8.321791e-10	-9.317432e+00	-5.603847e+01
1.560000e-06	-1.265300e-06	-8.245812e-10	-9.001211e+00	-5.561676e+01
1.570000e-06	-1.220721e-06	-8.185261e-10	-8.684082e+00	-5.518429e+01
1.580000e-06	-1.176096e-06	-8.111783e-10	-8.366623e+00	-5.473994e+01
1.590000e-06	-1.131343e-06	-8.041707e-10	-8.048254e+00	-5.428286e+01
1.600000e-06	-1.086554e-06	-7.990380e-10	-7.729630e+00	-5.381248e+01
1.610000e-06	-1.041697e-06	-7.916942e-10	-7.410523e+00	-5.332858e+01
1.620000e-06	-9.967002e-07	-7.770182e-10	-7.090421e+00	-5.283123e+01
1.630000e-06	-9.516679e-07	-7.616804e-10	-6.770066e+00	-5.232080e+01
1.640000e-06	-9.065633e-07	-7.515232e-10	-6.449196e+00	-5.179790e+01
1.650000e-06	-8.613581e-07	-7.499444e-10	-6.127611e+00	-5.126335e+01
1.660000e-06	-8.160858e-07	-7.488768e-10	-5.805549e+00	-5.071802e+01
1.670000e-06	-7.708416e-07	-7.456741e-10	-5.483687e+00	-5.016285e+01
1.680000e-06	-7.255527e-07	-7.397096e-10	-5.161506e+00	-4.959869e+01
1.690000e-06	-6.801019e-07	-7.292248e-10	-4.838174e+00	-4.902623e+01
1.700000e-06	-6.346169e-07	-7.128102e-10	-4.514598e+00	-4.844594e+01
1.710000e-06	-5.890878e-07	-6.954322e-10	-4.190709e+00	-4.785798e+01
1.720000e-06	-5.434654e-07	-6.837898e-10	-3.866156e+00	-4.726215e+01
1.730000e-06	-4.978417e-07	-6.794833e-10	-3.541594e+00	-4.665789e+01
1.740000e-06	-4.522538e-07	-6.787893e-10	-3.217286e+00	-4.604422e+01
1.750000e-06	-4.066423e-07	-6.749785e-10	-2.892811e+00	-4.541978e+01
1.760000e-06	-3.609825e-07	-6.663048e-10	-2.567991e+00	-4.478286e+01
1.770000e-06	-3.152976e-07	-6.530144e-10	-2.242994e+00	-4.413144e+01
1.780000e-06	-2.695316e-07	-6.370952e-10	-1.917420e+00	-4.346329e+01
1.790000e-06	-2.237105e-07	-6.205002e-10	-1.591453e+00	-4.277599e+01
1.800000e-06	-1.779535e-07	-6.031240e-10	-1.265942e+00	-4.206709e+01
1.810000e-06	-1.322540e-07	-5.887785e-10	-9.408408e-01	-4.133417e+01
1.820000e-06	-8.650413e-08	-5.832769e-10	-6.153813e-01	-4.057491e+01
1.830000e-06	-4.070765e-08	-5.796197e-10	-2.895900e-01	-3.978722e+01
1.840000e-06	5.141972e-09	-5.728327e-10	3.657945e-02	-3.896929e+01
1.850000e-06	5.099897e-08	-5.634737e-10	3.628013e-01	-3.811963e+01
1.860000e-06	9.676714e-08	-5.502702e-10	6.883913e-01	-3.723717e+01
1.870000e-06	1.425610e-07	-5.329434e-10	1.014164e+00	-3.632120e+01
1.880000e-06	1.883843e-07	-5.141390e-10	1.340146e+00	-3.537145e+01
1.890000e-06	2.341760e-07	-4.942866e-10	1.665903e+00	-3.438803e+01
1.900000e-06	2.799564e-07	-4.774080e-10	1.991580e+00	-3.337138e+01
1.910000e-06	3.256884e-07	-4.627519e-10	2.316913e+00	-3.232227e+01
1.920000e-06	3.714020e-07	-4.482721e-10	2.642115e+00	-3.124169e+01
1.930000e-06	4.171291e-07	-4.326916e-10	2.967413e+00	-3.013079e+01
1.940000e-06	4.628255e-07	-4.152179e-10	3.292492e+00	-2.899082e+01
1.950000e-06	5.084600e-07	-3.971144e-10	3.617131e+00	-2.782305e+01
1.960000e-06	5.540010e-07	-3.796188e-10	3.941105e+00	-2.662868e+01
1.970000e-06	5.995022e-07	-3.606424e-10	4.264796e+00	-2.540881e+01
1.980000e-06	6.450120e-07	-3.411568e-10	4.588548e+00	-2.416435e+01
1.990000e-06	6.904853e-07	-3.182253e-10	4.912040e+00	-2.289606e+01
2.000000e-06	7.359209e-07	-2.948637e-10	5.235264e+00	-2.160443e+01
2.010000e-06	7.813023e-07	-2.761430e-10	5.558103e+00	-2.028977e+01
2.020000e-06	8.265354e-07	-2.582102e-10	5.879887e+00	-1.895216e+01
2.030000e-06	8.715905e-07	-2.372062e-10	6.200404e+00	-1.759150e+01
2.040000e-06	9.165793e-07	-2.155440e-10	6.520449e+00	-1.620756e+01
2.050000e-06	9.614982e-07	-1.951972e-10	6.839998e+00	-1.480000e+01
2.060000e-06	1.006433e-06	-1.749697e-10	7.159658e+00	-1.336844e+01
2.070000e-06	1.051373e-06	-1.512434e-10	7.479354e+00	-1.191250e+01
2.080000e-06	1.096136e-06	-1.229756e-10	7.797795e+00	-1.043187e+01
2.090000e-06	1.140833e-06	-9.554000e-11	8.115765e+00	-8.926348e+00
2.100000e-06	1.185521e-06	-7.165693e-11	8.433674e+00	-7.395876e+00
2.110000e-06	1.230057e-06	-4.859690e-11	8.750499e+00	-5.840582e+00
2.120000e-06	1.274407e-06	-2.285674e-11	9.065996e+00	-4.260793e+00
2.130000e-06	1.318658e-06	1.328819e-13	9.380795e+00	-2.657053e+00
2.140000e-06	1.362910e-06	1.818256e-11	9.695600e+00	-1.030115e+00
2.150000e-06	1.407114e-06	3.632721e-11	1.001006e+01	6.190626e-01
2.160000e-06	1.451222e-06	6.092448e-11	1.032384e+01	2.289339e+00
2.170000e-06	1.495274e-06	9.295964e-11	1.063723e+01	3.979411e+00
2.180000e-06	1.539287e-06	1.242726e-10	1.095033e+01	5.687840e+00
2.190000e-06	1.583281e-06	1.488609e-10	1.126330e+01	7.413085e+00
2.200000e-06	1.627247e-06	1.731539e-10	1.157607e+01	9.153521e+00
2.210000e-06	1.671140e-06	2.000294e-10	1.188831e+01	1.090747e+01
2.220000e-06	1.714913e-06	2.264360e-10	1.219971e+01	1.267320e+01
2.230000e-06	1.758620e-06	2.518191e-10	1.251064e+01	1.444896e+01
2.240000e-06	1.802286e-06	2.796917e-10	1.282128e+01	1.623296e+01
2.250000e-06	1.845855e-06	3.113030e-10	1.313122e+01	1.802339e+01
2.260000e-06	1.889330e-06	3.432443e-10	1.344050e+01	1.981836e+01
2.270000e-06	1.932575e-06	3.706185e-10	1.374814e+01	2.161595e+01
2.280000e-06	1.975603e-06	3.956983e-10	1.405423e+01	2.341414e+01
2.290000e-06	2.018388e-06	4.207038e-10	1.435860e+01	2.521079e+01
2.300000e-06	2.060857e-06	4.453601e-10	1.466072e+01	2.700366e+01
2.310000e-06	2.103181e-06	4.707102e-10	1.496181e+01	2.879037e+01
2.320000e-06	2.145283e-06	4.983744e-10	1.526132e+01	3.056838e+01
2.330000e-06	2.187130e-06	5.284017e-10	1.555901e+01	3.233504e+01
2.340000e-06	2.228743e-06	5.575248e-10	1.585505e+01	3.408754e+01
2.350000e-06	2.269980e-06	5.826810e-10	1.614840e+01	3.582300e+01
2.360000e-06	2.310841e-06	6.056564e-10	1.643908e+01	3.753846e+01
2.370000e-06	2.351537e-06	6.307190e-10	1.672859e+01	3.923093e+01
2.380000e-06	2.392078e-06	6.589394e-10	1.701699e+01	4.089748e+01
2.390000e-06	2.432368e-06	6.860478e-10	1.730361e+01	4.253528e+01
2.400000e-06	2.472510e-06	7.087028e-10	1.758917e+01	4.414166e+01
2.410000e-06	2.512591e-06	7.317600e-10	1.787431e+01	4.571417e+01
2.420000e-06	2.552607e-06	7.579455e-10	1.815898e+01	4.725068e+01
2.430000e-06	2.592497e-06	7.846822e-10	1.844275e+01	4.874938e+01
2.440000e-06	2.632323e-06	8.069553e-10	1.872607e+01	5.020888e+01
2.450000e-06	2.672094e-06	8.257544e-10	1.900900e+01	5.162821e+01
2.460000e-06	2.711709e-06	8.489367e-10	1.929081e+01	5.300683e+01
2.470000e-06	2.751039e-06	8.713453e-10	1.957060e+01	5.434465e+01
2.480000e-06	2.790116e-06	8.865839e-10	1.984859e+01	5.564200e+01
2.490000e-06	2.829081e-06	8.994718e-10	2.012579e+01	5.689958e+01
2.500000e-06	2.867790e-06	9.176230e-10	2.040116e+01	5.811844e+01
2.510000e-06	2.906166e-06	9.426625e-10	2.067416e+01	5.929989e+01
2.520000e-06	2.944415e-06	9.664415e-10	2.094626e+01	6.044541e+01
2.530000e-06	2.982497e-06	9.850925e-10	2.121717e+01	6.155663e+01
2.540000e-06	3.020360e-06	1.003419e-09	2.148653e+01	6.263516e+01
2.550000e-06	3.058148e-06	1.020652e-09	2.175535e+01	6.368260e+01
2.560000e-06	3.095797e-06	1.032733e-09	2.202318e+01	6.470040e+01
2.570000e-06	3.133209e-06	1.039580e-09	2.228932e+01	6.568981e+01
2.580000e-06	3.170352e-06	1.047170e-09	2.255355e+01	6.665187e+01
2.590000e-06	3.207304e-06	1.063893e-09	2.281643e+01	6.758734e+01
2.600000e-06	3.244021e-06	1.085368e-09	2.307762e+01	6.849669e+01
2.610000e-06	3.280450e-06	1.104622e-09	2.333678e+01	6.938013e+01
2.620000e-06	3.316669e-06	1.119774e-09	2.359443e+01	7.023760e+01
2.630000e-06	3.352696e-06	1.132889e-09	2.385073e+01	7.106887e+01
2.640000e-06	3.388602e-06	1.144128e-09	2.410616e+01	7.187350e+01
2.650000e-06	3.424421e-06	1.151721e-09	2.436097e+01	7.265102e+01
2.660000e-06	3.460126e-06	1.154072e-09	2.461497e+01	7.340088e+01
2.670000e-06	3.495652e-06	1.158299e-09	2.486770e+01	7.412262e+01
2.680000e-06	3.530868e-06	1.169016e-09	2.511823e+01	7.481590e+01
2.690000e-06	3.565750e-06	1.181803e-09	2.536637e+01	7.548052e+01
2.700000e-06	3.600166e-06	1.194782e-09	2.561121e+01	7.611656e+01
2.710000e-06	3.634016e-06	1.209718e-09	2.585201e+01	7.672430e+01
2.720000e-06	3.667452e-06	1.224212e-09	2.608987e+01	7.730433e+01
2.730000e-06	3.700534e-06	1.233572e-09	2.632521e+01	7.785751e+01
2.740000e-06	3.733252e-06	1.238846e-09	2.655797e+01	7.838492e+01
2.750000e-06	3.765678e-06	1.241486e-09	2.678864e+01	7.888787e+01
2.760000e-06	3.797885e-06	1.242395e-09	2.701776e+01	7.936783e+01
2.770000e-06	3.829909e-06	1.245331e-09	2.724557e+01	7.982633e+01
2.780000e-06	3.861807e-06	1.252284e-09	2.747249e+01	8.026493e+01
2.790000e-06	3.893576e-06	1.261687e-09	2.769849e+01	8.068513e+01
2.800000e-06	3.925141e-06	1.270037e-09	2.792304e+01	8.108830e+01
2.810000e-06	3.956365e-06	1.274336e-09	2.814517e+01	8.147560e+01
2.820000e-06	3.987327e-06	1.277451e-09	2.836543e+01	8.184793e+01
2.830000e-06	4.017976e-06	1.281869e-09	2.858346e+01	8.220591e+01
2.840000e-06	4.048233e-06	1.285693e-09	2.879871e+01	8.254984e+01
2.850000e-06	4.078246e-06	1.286324e-09	2.901221e+01	8.287971e+01
2.860000e-06	4.108071e-06	1.288240e-09	2.922439e+01	8.319521e+01
2.870000e-06	4.137638e-06	1.295169e-09	2.943473e+01	8.349578e+01
2.880000e-06	4.166857e-06	1.302686e-09	2.964258e+01	8.378067e+01
2.890000e-06	4.195787e-06	1.305747e-09	2.984839e+01	8.404903e+01
2.900000e-06	4.224388e-06	1.308357e-09	3.005186e+01	8.429994e+01
