# Temperatura_=_19.13
# Concentracion g/m^3_=_4090.0
# C_Vs_to_Am_M_A/Vsm_=_65563218390.804596
# pendiente_HvsI_1/m_=_3716.3
# ordenada_HvsI_A/m_=_1297.0
# frecuencia_Hz_=_135081.77037986577

Tiempo_(s)	Campo_(V.s)	Magnetizacion_(V.s)	Campo_(kA/m)	Magnetizacion_(A/m)
0.000000e+00	-5.411445e-06	-1.290695e-09	-3.838948e+01	-8.729262e+01
1.000000e-08	-5.411567e-06	-1.285321e-09	-3.839034e+01	-8.716757e+01
2.000000e-08	-5.411494e-06	-1.281239e-09	-3.838983e+01	-8.702581e+01
3.000000e-08	-5.411222e-06	-1.279452e-09	-3.838789e+01	-8.686686e+01
4.000000e-08	-5.410596e-06	-1.279639e-09	-3.838346e+01	-8.669112e+01
5.000000e-08	-5.409404e-06	-1.284354e-09	-3.837500e+01	-8.649992e+01
6.000000e-08	-5.407591e-06	-1.298545e-09	-3.836214e+01	-8.629553e+01
7.000000e-08	-5.405229e-06	-1.291183e-09	-3.834538e+01	-8.608113e+01
8.000000e-08	-5.402272e-06	-1.235021e-09	-3.832441e+01	-8.586076e+01
9.000000e-08	-5.398681e-06	-1.224796e-09	-3.829893e+01	-8.563914e+01
1.000000e-07	-5.394579e-06	-1.342340e-09	-3.826983e+01	-8.542158e+01
1.100000e-07	-5.390186e-06	-1.385002e-09	-3.823866e+01	-8.521371e+01
1.200000e-07	-5.385679e-06	-1.230314e-09	-3.820669e+01	-8.502129e+01
1.300000e-07	-5.381059e-06	-1.154959e-09	-3.817391e+01	-8.485000e+01
1.400000e-07	-5.376056e-06	-1.332013e-09	-3.813842e+01	-8.470512e+01
1.500000e-07	-5.370481e-06	-1.435419e-09	-3.809888e+01	-8.459134e+01
1.600000e-07	-5.364510e-06	-1.249014e-09	-3.805651e+01	-8.451254e+01
1.700000e-07	-5.358345e-06	-1.105124e-09	-3.801278e+01	-8.447158e+01
1.800000e-07	-5.351818e-06	-1.279640e-09	-3.796648e+01	-8.447014e+01
1.900000e-07	-5.344734e-06	-1.391553e-09	-3.791622e+01	-8.450863e+01
2.000000e-07	-5.337304e-06	-1.267474e-09	-3.786351e+01	-8.458610e+01
2.100000e-07	-5.329817e-06	-1.190193e-09	-3.781040e+01	-8.470030e+01
2.200000e-07	-5.322122e-06	-1.318563e-09	-3.775581e+01	-8.484767e+01
2.300000e-07	-5.313935e-06	-1.334935e-09	-3.769773e+01	-8.502349e+01
2.400000e-07	-5.305420e-06	-1.237499e-09	-3.763732e+01	-8.522203e+01
2.500000e-07	-5.296590e-06	-1.286074e-09	-3.757468e+01	-8.543676e+01
2.600000e-07	-5.287050e-06	-1.388416e-09	-3.750700e+01	-8.566056e+01
2.700000e-07	-5.276699e-06	-1.317343e-09	-3.743357e+01	-8.588604e+01
2.800000e-07	-5.265800e-06	-1.267185e-09	-3.735625e+01	-8.610574e+01
2.900000e-07	-5.254452e-06	-1.383107e-09	-3.727575e+01	-8.631248e+01
3.000000e-07	-5.242695e-06	-1.375662e-09	-3.719234e+01	-8.649954e+01
3.100000e-07	-5.230637e-06	-1.238737e-09	-3.710680e+01	-8.666096e+01
3.200000e-07	-5.218213e-06	-1.272885e-09	-3.701867e+01	-8.679171e+01
3.300000e-07	-5.205333e-06	-1.412153e-09	-3.692729e+01	-8.688786e+01
3.400000e-07	-5.192032e-06	-1.356414e-09	-3.683294e+01	-8.694667e+01
3.500000e-07	-5.178392e-06	-1.282406e-09	-3.673617e+01	-8.696666e+01
3.600000e-07	-5.164287e-06	-1.341776e-09	-3.663611e+01	-8.694760e+01
3.700000e-07	-5.149810e-06	-1.364954e-09	-3.653340e+01	-8.689046e+01
3.800000e-07	-5.135025e-06	-1.289876e-09	-3.642852e+01	-8.679730e+01
3.900000e-07	-5.119651e-06	-1.299344e-09	-3.631946e+01	-8.667113e+01
4.000000e-07	-5.103552e-06	-1.314063e-09	-3.620525e+01	-8.651572e+01
4.100000e-07	-5.086988e-06	-1.286031e-09	-3.608774e+01	-8.633539e+01
4.200000e-07	-5.070113e-06	-1.311786e-09	-3.596802e+01	-8.613480e+01
4.300000e-07	-5.052922e-06	-1.368497e-09	-3.584607e+01	-8.591872e+01
4.400000e-07	-5.035447e-06	-1.316920e-09	-3.572210e+01	-8.569180e+01
4.500000e-07	-5.017682e-06	-1.277631e-09	-3.559608e+01	-8.545838e+01
4.600000e-07	-4.999611e-06	-1.315230e-09	-3.546788e+01	-8.522233e+01
4.700000e-07	-4.981150e-06	-1.322002e-09	-3.533691e+01	-8.498688e+01
4.800000e-07	-4.962347e-06	-1.266074e-09	-3.520352e+01	-8.475457e+01
4.900000e-07	-4.943225e-06	-1.258934e-09	-3.506787e+01	-8.452714e+01
5.000000e-07	-4.923751e-06	-1.283399e-09	-3.492972e+01	-8.430557e+01
5.100000e-07	-4.904011e-06	-1.296947e-09	-3.478968e+01	-8.409008e+01
5.200000e-07	-4.884028e-06	-1.296364e-09	-3.464792e+01	-8.388022e+01
5.300000e-07	-4.863760e-06	-1.278509e-09	-3.450413e+01	-8.367496e+01
5.400000e-07	-4.843310e-06	-1.265887e-09	-3.435905e+01	-8.347283e+01
5.500000e-07	-4.822563e-06	-1.285464e-09	-3.421187e+01	-8.327207e+01
5.600000e-07	-4.801301e-06	-1.287939e-09	-3.406104e+01	-8.307076e+01
5.700000e-07	-4.779636e-06	-1.251950e-09	-3.390735e+01	-8.286700e+01
5.800000e-07	-4.757720e-06	-1.236129e-09	-3.375187e+01	-8.265907e+01
5.900000e-07	-4.735531e-06	-1.249613e-09	-3.359446e+01	-8.244550e+01
6.000000e-07	-4.713063e-06	-1.260646e-09	-3.343506e+01	-8.222522e+01
6.100000e-07	-4.690287e-06	-1.251984e-09	-3.327349e+01	-8.199763e+01
6.200000e-07	-4.667138e-06	-1.240962e-09	-3.310927e+01	-8.176262e+01
6.300000e-07	-4.643670e-06	-1.244267e-09	-3.294279e+01	-8.152056e+01
6.400000e-07	-4.619899e-06	-1.268476e-09	-3.277415e+01	-8.127234e+01
6.500000e-07	-4.595903e-06	-1.263418e-09	-3.260392e+01	-8.101923e+01
6.600000e-07	-4.571728e-06	-1.230449e-09	-3.243242e+01	-8.076285e+01
6.700000e-07	-4.547224e-06	-1.214086e-09	-3.225858e+01	-8.050504e+01
6.800000e-07	-4.522269e-06	-1.232518e-09	-3.208155e+01	-8.024777e+01
6.900000e-07	-4.496832e-06	-1.234684e-09	-3.190109e+01	-7.999297e+01
7.000000e-07	-4.470948e-06	-1.218032e-09	-3.171748e+01	-7.974243e+01
7.100000e-07	-4.444577e-06	-1.207520e-09	-3.153039e+01	-7.949770e+01
7.200000e-07	-4.417729e-06	-1.226216e-09	-3.133993e+01	-7.925998e+01
7.300000e-07	-4.390494e-06	-1.241092e-09	-3.114672e+01	-7.903002e+01
7.400000e-07	-4.362915e-06	-1.230717e-09	-3.095107e+01	-7.880810e+01
7.500000e-07	-4.335115e-06	-1.206695e-09	-3.075385e+01	-7.859398e+01
7.600000e-07	-4.307214e-06	-1.206284e-09	-3.055592e+01	-7.838694e+01
7.700000e-07	-4.279153e-06	-1.213860e-09	-3.035686e+01	-7.818577e+01
7.800000e-07	-4.250862e-06	-1.207353e-09	-3.015615e+01	-7.798885e+01
7.900000e-07	-4.222262e-06	-1.191252e-09	-2.995326e+01	-7.779426e+01
8.000000e-07	-4.193228e-06	-1.191613e-09	-2.974729e+01	-7.759982e+01
8.100000e-07	-4.163867e-06	-1.203463e-09	-2.953900e+01	-7.740325e+01
8.200000e-07	-4.134247e-06	-1.207722e-09	-2.932888e+01	-7.720227e+01
8.300000e-07	-4.104373e-06	-1.194348e-09	-2.911694e+01	-7.699473e+01
8.400000e-07	-4.074274e-06	-1.178558e-09	-2.890341e+01	-7.677869e+01
8.500000e-07	-4.043806e-06	-1.176414e-09	-2.868727e+01	-7.655252e+01
8.600000e-07	-4.013031e-06	-1.178339e-09	-2.846895e+01	-7.631499e+01
8.700000e-07	-3.982091e-06	-1.170403e-09	-2.824946e+01	-7.606534e+01
8.800000e-07	-3.950971e-06	-1.159269e-09	-2.802869e+01	-7.580323e+01
8.900000e-07	-3.919588e-06	-1.160659e-09	-2.780606e+01	-7.552885e+01
9.000000e-07	-3.887910e-06	-1.165218e-09	-2.758133e+01	-7.524279e+01
9.100000e-07	-3.856046e-06	-1.158736e-09	-2.735528e+01	-7.494609e+01
9.200000e-07	-3.824087e-06	-1.145253e-09	-2.712856e+01	-7.464010e+01
9.300000e-07	-3.791948e-06	-1.144096e-09	-2.690056e+01	-7.432645e+01
9.400000e-07	-3.759556e-06	-1.151301e-09	-2.667077e+01	-7.400690e+01
9.500000e-07	-3.726843e-06	-1.151309e-09	-2.643870e+01	-7.368333e+01
9.600000e-07	-3.693650e-06	-1.138752e-09	-2.620322e+01	-7.335756e+01
9.700000e-07	-3.659971e-06	-1.127748e-09	-2.596430e+01	-7.303131e+01
9.800000e-07	-3.625841e-06	-1.118437e-09	-2.572217e+01	-7.270608e+01
9.900000e-07	-3.591284e-06	-1.109920e-09	-2.547702e+01	-7.238316e+01
1.000000e-06	-3.556399e-06	-1.098352e-09	-2.522954e+01	-7.206349e+01
1.010000e-06	-3.521198e-06	-1.096315e-09	-2.497983e+01	-7.174771e+01
1.020000e-06	-3.485677e-06	-1.102170e-09	-2.472783e+01	-7.143611e+01
1.030000e-06	-3.449995e-06	-1.107373e-09	-2.447470e+01	-7.112866e+01
1.040000e-06	-3.414196e-06	-1.101256e-09	-2.422074e+01	-7.082506e+01
1.050000e-06	-3.378258e-06	-1.089537e-09	-2.396579e+01	-7.052474e+01
1.060000e-06	-3.342178e-06	-1.075931e-09	-2.370984e+01	-7.022696e+01
1.070000e-06	-3.305887e-06	-1.063871e-09	-2.345238e+01	-6.993088e+01
1.080000e-06	-3.269398e-06	-1.052481e-09	-2.319352e+01	-6.963559e+01
1.090000e-06	-3.232689e-06	-1.046976e-09	-2.293310e+01	-6.934020e+01
1.100000e-06	-3.195676e-06	-1.049000e-09	-2.267053e+01	-6.904389e+01
1.110000e-06	-3.158419e-06	-1.055183e-09	-2.240622e+01	-6.874599e+01
1.120000e-06	-3.120990e-06	-1.055435e-09	-2.214070e+01	-6.844597e+01
1.130000e-06	-3.083347e-06	-1.046144e-09	-2.187366e+01	-6.814349e+01
1.140000e-06	-3.045411e-06	-1.033069e-09	-2.160453e+01	-6.783842e+01
1.150000e-06	-3.007272e-06	-1.023882e-09	-2.133397e+01	-6.753079e+01
1.160000e-06	-2.968991e-06	-1.015931e-09	-2.106240e+01	-6.722080e+01
1.170000e-06	-2.930492e-06	-1.007971e-09	-2.078928e+01	-6.690877e+01
1.180000e-06	-2.891686e-06	-1.002795e-09	-2.051399e+01	-6.659509e+01
1.190000e-06	-2.852681e-06	-9.999497e-10	-2.023728e+01	-6.628019e+01
1.200000e-06	-2.813506e-06	-1.001332e-09	-1.995937e+01	-6.596445e+01
1.210000e-06	-2.774086e-06	-1.000899e-09	-1.967972e+01	-6.564819e+01
1.220000e-06	-2.734557e-06	-9.968483e-10	-1.939929e+01	-6.533158e+01
1.230000e-06	-2.694899e-06	-9.909192e-10	-1.911796e+01	-6.501466e+01
1.240000e-06	-2.655105e-06	-9.848819e-10	-1.883565e+01	-6.469725e+01
1.250000e-06	-2.615231e-06	-9.768328e-10	-1.855278e+01	-6.437898e+01
1.260000e-06	-2.575266e-06	-9.690658e-10	-1.826927e+01	-6.405929e+01
1.270000e-06	-2.535185e-06	-9.616358e-10	-1.798493e+01	-6.373743e+01
1.280000e-06	-2.494997e-06	-9.581338e-10	-1.769983e+01	-6.341252e+01
1.290000e-06	-2.454771e-06	-9.549772e-10	-1.741446e+01	-6.308357e+01
1.300000e-06	-2.414419e-06	-9.497302e-10	-1.712820e+01	-6.274953e+01
1.310000e-06	-2.373840e-06	-9.413920e-10	-1.684032e+01	-6.240937e+01
1.320000e-06	-2.333034e-06	-9.359016e-10	-1.655084e+01	-6.206214e+01
1.330000e-06	-2.291963e-06	-9.335561e-10	-1.625947e+01	-6.170699e+01
1.340000e-06	-2.250550e-06	-9.308904e-10	-1.596569e+01	-6.134327e+01
1.350000e-06	-2.208726e-06	-9.257510e-10	-1.566898e+01	-6.097056e+01
1.360000e-06	-2.166592e-06	-9.191290e-10	-1.537008e+01	-6.058869e+01
1.370000e-06	-2.124278e-06	-9.120517e-10	-1.506990e+01	-6.019775e+01
1.380000e-06	-2.081798e-06	-9.050067e-10	-1.476854e+01	-5.979811e+01
1.390000e-06	-2.039084e-06	-8.966662e-10	-1.446552e+01	-5.939040e+01
1.400000e-06	-1.996081e-06	-8.887106e-10	-1.416045e+01	-5.897547e+01
1.410000e-06	-1.952889e-06	-8.817958e-10	-1.385404e+01	-5.855435e+01
1.420000e-06	-1.909587e-06	-8.774606e-10	-1.354685e+01	-5.812817e+01
1.430000e-06	-1.866135e-06	-8.724366e-10	-1.323860e+01	-5.769813e+01
1.440000e-06	-1.822531e-06	-8.669086e-10	-1.292927e+01	-5.726542e+01
1.450000e-06	-1.778780e-06	-8.610606e-10	-1.261889e+01	-5.683111e+01
1.460000e-06	-1.734928e-06	-8.572351e-10	-1.230780e+01	-5.639614e+01
1.470000e-06	-1.691051e-06	-8.539500e-10	-1.199653e+01	-5.596121e+01
1.480000e-06	-1.647061e-06	-8.484005e-10	-1.168446e+01	-5.552676e+01
1.490000e-06	-1.602960e-06	-8.414819e-10	-1.137160e+01	-5.509293e+01
1.500000e-06	-1.558857e-06	-8.328744e-10	-1.105873e+01	-5.465952e+01
1.510000e-06	-1.514738e-06	-8.242121e-10	-1.074574e+01	-5.422600e+01
1.520000e-06	-1.470534e-06	-8.141860e-10	-1.043216e+01	-5.379156e+01
1.530000e-06	-1.426213e-06	-8.048567e-10	-1.011774e+01	-5.335506e+01
1.540000e-06	-1.381855e-06	-7.983987e-10	-9.803055e+00	-5.291516e+01
1.550000e-06	-1.337453e-06	-7.952025e-10	-9.488059e+00	-5.247034e+01
1.560000e-06	-1.292952e-06	-7.918364e-10	-9.172367e+00	-5.201895e+01
1.570000e-06	-1.248356e-06	-7.857773e-10	-8.855994e+00	-5.155931e+01
1.580000e-06	-1.203682e-06	-7.776655e-10	-8.539074e+00	-5.108978e+01
1.590000e-06	-1.158901e-06	-7.677954e-10	-8.221391e+00	-5.060880e+01
1.600000e-06	-1.114014e-06	-7.550462e-10	-7.902953e+00	-5.011501e+01
1.610000e-06	-1.069098e-06	-7.420861e-10	-7.584314e+00	-4.960721e+01
1.620000e-06	-1.024089e-06	-7.299199e-10	-7.265015e+00	-4.908448e+01
1.630000e-06	-9.788825e-07	-7.238561e-10	-6.944317e+00	-4.854616e+01
1.640000e-06	-9.336189e-07	-7.203752e-10	-6.623211e+00	-4.799185e+01
1.650000e-06	-8.883738e-07	-7.185829e-10	-6.302237e+00	-4.742143e+01
1.660000e-06	-8.430171e-07	-7.122132e-10	-5.980470e+00	-4.683497e+01
1.670000e-06	-7.976185e-07	-7.039856e-10	-5.658407e+00	-4.623274e+01
1.680000e-06	-7.521642e-07	-6.927034e-10	-5.335948e+00	-4.561516e+01
1.690000e-06	-7.066360e-07	-6.764023e-10	-5.012966e+00	-4.498267e+01
1.700000e-06	-6.611125e-07	-6.570602e-10	-4.690016e+00	-4.433575e+01
1.710000e-06	-6.155454e-07	-6.401861e-10	-4.366757e+00	-4.367479e+01
1.720000e-06	-5.698907e-07	-6.302397e-10	-4.042877e+00	-4.300005e+01
1.730000e-06	-5.241792e-07	-6.249562e-10	-3.718594e+00	-4.231159e+01
1.740000e-06	-4.784863e-07	-6.230951e-10	-3.394442e+00	-4.160928e+01
1.750000e-06	-4.327255e-07	-6.199996e-10	-3.069809e+00	-4.089269e+01
1.760000e-06	-3.868839e-07	-6.121210e-10	-2.744603e+00	-4.016114e+01
1.770000e-06	-3.410399e-07	-5.952501e-10	-2.419380e+00	-3.941364e+01
1.780000e-06	-2.952514e-07	-5.725497e-10	-2.094551e+00	-3.864900e+01
1.790000e-06	-2.494555e-07	-5.517491e-10	-1.769669e+00	-3.786576e+01
1.800000e-06	-2.035038e-07	-5.345086e-10	-1.443682e+00	-3.706230e+01
1.810000e-06	-1.575352e-07	-5.208003e-10	-1.117575e+00	-3.623690e+01
1.820000e-06	-1.116294e-07	-5.136949e-10	-7.919131e-01	-3.538775e+01
1.830000e-06	-6.576694e-08	-5.100351e-10	-4.665590e-01	-3.451310e+01
1.840000e-06	-1.994130e-08	-5.042999e-10	-1.414661e-01	-3.361126e+01
1.850000e-06	2.590424e-08	-4.927505e-10	1.837680e-01	-3.268069e+01
1.860000e-06	7.178077e-08	-4.767630e-10	5.092219e-01	-3.172006e+01
1.870000e-06	1.176646e-07	-4.558299e-10	8.347278e-01	-3.072832e+01
1.880000e-06	1.635501e-07	-4.343163e-10	1.160245e+00	-2.970468e+01
1.890000e-06	2.094204e-07	-4.134434e-10	1.485655e+00	-2.864868e+01
1.900000e-06	2.552991e-07	-3.951297e-10	1.811124e+00	-2.756017e+01
1.910000e-06	3.012094e-07	-3.822556e-10	2.136817e+00	-2.643931e+01
1.920000e-06	3.470724e-07	-3.719791e-10	2.462176e+00	-2.528654e+01
1.930000e-06	3.928327e-07	-3.577926e-10	2.786805e+00	-2.410256e+01
1.940000e-06	4.385479e-07	-3.400492e-10	3.111115e+00	-2.288826e+01
1.950000e-06	4.842552e-07	-3.201530e-10	3.435368e+00	-2.164466e+01
1.960000e-06	5.299457e-07	-3.016669e-10	3.759502e+00	-2.037289e+01
1.970000e-06	5.756478e-07	-2.828267e-10	4.083719e+00	-1.907411e+01
1.980000e-06	6.212942e-07	-2.602251e-10	4.407540e+00	-1.774945e+01
1.990000e-06	6.668128e-07	-2.380670e-10	4.730455e+00	-1.639996e+01
2.000000e-06	7.122917e-07	-2.174145e-10	5.053088e+00	-1.502660e+01
2.010000e-06	7.577691e-07	-1.969853e-10	5.375710e+00	-1.363017e+01
2.020000e-06	8.031438e-07	-1.774241e-10	5.697604e+00	-1.221132e+01
2.030000e-06	8.484403e-07	-1.575748e-10	6.018943e+00	-1.077053e+01
2.040000e-06	8.937571e-07	-1.384536e-10	6.340426e+00	-9.308160e+00
2.050000e-06	9.391022e-07	-1.203671e-10	6.662110e+00	-7.824401e+00
2.060000e-06	9.843423e-07	-9.916672e-11	6.983049e+00	-6.319366e+00
2.070000e-06	1.029479e-06	-7.149412e-11	7.303256e+00	-4.793103e+00
2.080000e-06	1.074557e-06	-4.105921e-11	7.623043e+00	-3.245642e+00
2.090000e-06	1.119510e-06	-1.315299e-11	7.941947e+00	-1.677046e+00
2.100000e-06	1.164307e-06	1.280876e-11	8.259743e+00	-8.745492e-02
2.110000e-06	1.209004e-06	3.609009e-11	8.576827e+00	1.522869e+00
2.120000e-06	1.253628e-06	5.663355e-11	8.893399e+00	3.153506e+00
2.130000e-06	1.298118e-06	7.512553e-11	9.209017e+00	4.803843e+00
2.140000e-06	1.342511e-06	9.431487e-11	9.523943e+00	6.473059e+00
2.150000e-06	1.386834e-06	1.199585e-10	9.838379e+00	8.160107e+00
2.160000e-06	1.431053e-06	1.488730e-10	1.015207e+01	9.863717e+00
2.170000e-06	1.475237e-06	1.770382e-10	1.046552e+01	1.158240e+01
2.180000e-06	1.519441e-06	2.068335e-10	1.077911e+01	1.331448e+01
2.190000e-06	1.563597e-06	2.374669e-10	1.109236e+01	1.505809e+01
2.200000e-06	1.607676e-06	2.655722e-10	1.140506e+01	1.681124e+01
2.210000e-06	1.651676e-06	2.895673e-10	1.171720e+01	1.857182e+01
2.220000e-06	1.695634e-06	3.139442e-10	1.202904e+01	2.033765e+01
2.230000e-06	1.739511e-06	3.408998e-10	1.234031e+01	2.210650e+01
2.240000e-06	1.783266e-06	3.694516e-10	1.265072e+01	2.387615e+01
2.250000e-06	1.826947e-06	3.969922e-10	1.296059e+01	2.564438e+01
2.260000e-06	1.870493e-06	4.254582e-10	1.326951e+01	2.740904e+01
2.270000e-06	1.913881e-06	4.557245e-10	1.357731e+01	2.916798e+01
2.280000e-06	1.957209e-06	4.866156e-10	1.388469e+01	3.091917e+01
2.290000e-06	2.000484e-06	5.171671e-10	1.419169e+01	3.266059e+01
2.300000e-06	2.043551e-06	5.433186e-10	1.449721e+01	3.439031e+01
2.310000e-06	2.086245e-06	5.658065e-10	1.480009e+01	3.610643e+01
2.320000e-06	2.128729e-06	5.893153e-10	1.510147e+01	3.780709e+01
2.330000e-06	2.171045e-06	6.134145e-10	1.540167e+01	3.949046e+01
2.340000e-06	2.212934e-06	6.362459e-10	1.569883e+01	4.115471e+01
2.350000e-06	2.254430e-06	6.589816e-10	1.599321e+01	4.279803e+01
2.360000e-06	2.295661e-06	6.835214e-10	1.628571e+01	4.441860e+01
2.370000e-06	2.336643e-06	7.116068e-10	1.657644e+01	4.601462e+01
2.380000e-06	2.377400e-06	7.409266e-10	1.686558e+01	4.758430e+01
2.390000e-06	2.417951e-06	7.672950e-10	1.715325e+01	4.912587e+01
2.400000e-06	2.458359e-06	7.900155e-10	1.743991e+01	5.063761e+01
2.410000e-06	2.498608e-06	8.115086e-10	1.772544e+01	5.211791e+01
2.420000e-06	2.538676e-06	8.346218e-10	1.800969e+01	5.356522e+01
2.430000e-06	2.578679e-06	8.583291e-10	1.829348e+01	5.497819e+01
2.440000e-06	2.618609e-06	8.819073e-10	1.857675e+01	5.635562e+01
2.450000e-06	2.658408e-06	9.030920e-10	1.885908e+01	5.769652e+01
2.460000e-06	2.698093e-06	9.238991e-10	1.914062e+01	5.900016e+01
2.470000e-06	2.737731e-06	9.442794e-10	1.942181e+01	6.026606e+01
2.480000e-06	2.777197e-06	9.598314e-10	1.970179e+01	6.149403e+01
2.490000e-06	2.816372e-06	9.713050e-10	1.997970e+01	6.268415e+01
2.500000e-06	2.855368e-06	9.852816e-10	2.025635e+01	6.383680e+01
2.510000e-06	2.894241e-06	1.006831e-09	2.053212e+01	6.495259e+01
2.520000e-06	2.932877e-06	1.033013e-09	2.080620e+01	6.603240e+01
2.530000e-06	2.971195e-06	1.057321e-09	2.107803e+01	6.707727e+01
2.540000e-06	3.009286e-06	1.076457e-09	2.134825e+01	6.808843e+01
2.550000e-06	3.047197e-06	1.088198e-09	2.161720e+01	6.906719e+01
2.560000e-06	3.084947e-06	1.094505e-09	2.188500e+01	7.001492e+01
2.570000e-06	3.122532e-06	1.100913e-09	2.215164e+01	7.093298e+01
2.580000e-06	3.159906e-06	1.108800e-09	2.241677e+01	7.182269e+01
2.590000e-06	3.196987e-06	1.121618e-09	2.267983e+01	7.268525e+01
2.600000e-06	3.233826e-06	1.142867e-09	2.294117e+01	7.352171e+01
2.610000e-06	3.270492e-06	1.167682e-09	2.320129e+01	7.433299e+01
2.620000e-06	3.306917e-06	1.187501e-09	2.345969e+01	7.511976e+01
2.630000e-06	3.343120e-06	1.197425e-09	2.371652e+01	7.588254e+01
2.640000e-06	3.379180e-06	1.200575e-09	2.397233e+01	7.662162e+01
2.650000e-06	3.415129e-06	1.202784e-09	2.422736e+01	7.733713e+01
2.660000e-06	3.450933e-06	1.204610e-09	2.448136e+01	7.802905e+01
2.670000e-06	3.486595e-06	1.208037e-09	2.473435e+01	7.869723e+01
2.680000e-06	3.522110e-06	1.215951e-09	2.498630e+01	7.934145e+01
2.690000e-06	3.557287e-06	1.231413e-09	2.523585e+01	7.996147e+01
2.700000e-06	3.592098e-06	1.250606e-09	2.548280e+01	8.055707e+01
2.710000e-06	3.626553e-06	1.266223e-09	2.572723e+01	8.112807e+01
2.720000e-06	3.660585e-06	1.273068e-09	2.596866e+01	8.167442e+01
2.730000e-06	3.694187e-06	1.275796e-09	2.620703e+01	8.219618e+01
2.740000e-06	3.727410e-06	1.279650e-09	2.644272e+01	8.269359e+01
2.750000e-06	3.760232e-06	1.282552e-09	2.667557e+01	8.316705e+01
2.760000e-06	3.792630e-06	1.284421e-09	2.690540e+01	8.361714e+01
2.770000e-06	3.824760e-06	1.289648e-09	2.713334e+01	8.404459e+01
2.780000e-06	3.856718e-06	1.299327e-09	2.736005e+01	8.445029e+01
2.790000e-06	3.888522e-06	1.308548e-09	2.758567e+01	8.483523e+01
2.800000e-06	3.920111e-06	1.313315e-09	2.780977e+01	8.520050e+01
2.810000e-06	3.951535e-06	1.313908e-09	2.803269e+01	8.554720e+01
2.820000e-06	3.982790e-06	1.315118e-09	2.825442e+01	8.587645e+01
2.830000e-06	4.013740e-06	1.319187e-09	2.847398e+01	8.618932e+01
2.840000e-06	4.044352e-06	1.322712e-09	2.869115e+01	8.648679e+01
2.850000e-06	4.074627e-06	1.324422e-09	2.890592e+01	8.676975e+01
2.860000e-06	4.104622e-06	1.327362e-09	2.911871e+01	8.703892e+01
2.870000e-06	4.134394e-06	1.332224e-09	2.932991e+01	8.729492e+01
2.880000e-06	4.163897e-06	1.336913e-09	2.953922e+01	8.753818e+01
2.890000e-06	4.193019e-06	1.338192e-09	2.974581e+01	8.776903e+01
2.900000e-06	4.221861e-06	1.338960e-09	2.995042e+01	8.798766e+01
