# Temperatura_=_-0.51
# Concentracion g/m^3_=_4090.0
# C_Vs_to_Am_M_A/Vsm_=_65563218390.804596
# pendiente_HvsI_1/m_=_3716.3
# ordenada_HvsI_A/m_=_1297.0
# frecuencia_Hz_=_135080.68344868143

Tiempo_(s)	Campo_(V.s)	Magnetizacion_(V.s)	Campo_(kA/m)	Magnetizacion_(A/m)
0.000000e+00	-5.406467e-06	-1.975981e-09	-3.837969e+01	-1.330273e+02
1.000000e-08	-5.406660e-06	-1.971652e-09	-3.838107e+01	-1.328999e+02
2.000000e-08	-5.406580e-06	-1.962764e-09	-3.838050e+01	-1.327551e+02
3.000000e-08	-5.406180e-06	-1.952698e-09	-3.837766e+01	-1.325933e+02
4.000000e-08	-5.405384e-06	-1.946431e-09	-3.837201e+01	-1.324162e+02
5.000000e-08	-5.403942e-06	-1.944725e-09	-3.836177e+01	-1.322259e+02
6.000000e-08	-5.401873e-06	-1.949818e-09	-3.834708e+01	-1.320256e+02
7.000000e-08	-5.399219e-06	-1.949384e-09	-3.832824e+01	-1.318193e+02
8.000000e-08	-5.395876e-06	-1.935794e-09	-3.830451e+01	-1.316117e+02
9.000000e-08	-5.392060e-06	-1.952743e-09	-3.827743e+01	-1.314078e+02
1.000000e-07	-5.387920e-06	-2.010934e-09	-3.824803e+01	-1.312133e+02
1.100000e-07	-5.383385e-06	-1.960744e-09	-3.821584e+01	-1.310337e+02
1.200000e-07	-5.378786e-06	-1.915733e-09	-3.818319e+01	-1.308746e+02
1.300000e-07	-5.374073e-06	-1.914245e-09	-3.814974e+01	-1.307412e+02
1.400000e-07	-5.368841e-06	-1.985016e-09	-3.811259e+01	-1.306381e+02
1.500000e-07	-5.363225e-06	-1.962133e-09	-3.807273e+01	-1.305693e+02
1.600000e-07	-5.357455e-06	-1.890611e-09	-3.803177e+01	-1.305376e+02
1.700000e-07	-5.351355e-06	-1.940671e-09	-3.798846e+01	-1.305448e+02
1.800000e-07	-5.344520e-06	-2.002447e-09	-3.793995e+01	-1.305916e+02
1.900000e-07	-5.337178e-06	-1.995352e-09	-3.788783e+01	-1.306772e+02
2.000000e-07	-5.329753e-06	-1.947446e-09	-3.783512e+01	-1.307995e+02
2.100000e-07	-5.322232e-06	-1.999674e-09	-3.778173e+01	-1.309554e+02
2.200000e-07	-5.314421e-06	-2.023172e-09	-3.772628e+01	-1.311404e+02
2.300000e-07	-5.306326e-06	-2.002785e-09	-3.766881e+01	-1.313490e+02
2.400000e-07	-5.297931e-06	-1.995967e-09	-3.760922e+01	-1.315750e+02
2.500000e-07	-5.288889e-06	-2.058413e-09	-3.754503e+01	-1.318115e+02
2.600000e-07	-5.279024e-06	-2.054898e-09	-3.747500e+01	-1.320512e+02
2.700000e-07	-5.268564e-06	-2.036661e-09	-3.740074e+01	-1.322869e+02
2.800000e-07	-5.257633e-06	-2.065432e-09	-3.732315e+01	-1.325114e+02
2.900000e-07	-5.246206e-06	-2.079088e-09	-3.724203e+01	-1.327180e+02
3.000000e-07	-5.234395e-06	-2.015626e-09	-3.715818e+01	-1.329006e+02
3.100000e-07	-5.222287e-06	-2.015824e-09	-3.707223e+01	-1.330542e+02
3.200000e-07	-5.209784e-06	-2.083576e-09	-3.698348e+01	-1.331746e+02
3.300000e-07	-5.196831e-06	-2.069699e-09	-3.689152e+01	-1.332587e+02
3.400000e-07	-5.183584e-06	-2.011869e-09	-3.679748e+01	-1.333049e+02
3.500000e-07	-5.169967e-06	-2.042040e-09	-3.670082e+01	-1.333126e+02
3.600000e-07	-5.155858e-06	-2.070020e-09	-3.660066e+01	-1.332825e+02
3.700000e-07	-5.141296e-06	-2.025624e-09	-3.649729e+01	-1.332163e+02
3.800000e-07	-5.126236e-06	-2.003515e-09	-3.639038e+01	-1.331167e+02
3.900000e-07	-5.110507e-06	-2.031040e-09	-3.627872e+01	-1.329873e+02
4.000000e-07	-5.094204e-06	-2.028995e-09	-3.616299e+01	-1.328322e+02
4.100000e-07	-5.077580e-06	-2.024537e-09	-3.604498e+01	-1.326558e+02
4.200000e-07	-5.060616e-06	-2.048389e-09	-3.592455e+01	-1.324627e+02
4.300000e-07	-5.043308e-06	-2.031364e-09	-3.580169e+01	-1.322576e+02
4.400000e-07	-5.025819e-06	-2.018150e-09	-3.567753e+01	-1.320447e+02
4.500000e-07	-5.008140e-06	-2.028085e-09	-3.555204e+01	-1.318278e+02
4.600000e-07	-4.990081e-06	-2.025159e-09	-3.542384e+01	-1.316103e+02
4.700000e-07	-4.971559e-06	-1.995134e-09	-3.529235e+01	-1.313946e+02
4.800000e-07	-4.952581e-06	-2.005332e-09	-3.515763e+01	-1.311826e+02
4.900000e-07	-4.933179e-06	-2.014995e-09	-3.501990e+01	-1.309752e+02
5.000000e-07	-4.913512e-06	-2.015237e-09	-3.488029e+01	-1.307728e+02
5.100000e-07	-4.893694e-06	-2.012294e-09	-3.473960e+01	-1.305747e+02
5.200000e-07	-4.873727e-06	-2.012060e-09	-3.459785e+01	-1.303801e+02
5.300000e-07	-4.853537e-06	-1.998515e-09	-3.445453e+01	-1.301872e+02
5.400000e-07	-4.832986e-06	-2.009230e-09	-3.430864e+01	-1.299943e+02
5.500000e-07	-4.811992e-06	-2.002657e-09	-3.415961e+01	-1.297993e+02
5.600000e-07	-4.790628e-06	-1.982154e-09	-3.400795e+01	-1.296002e+02
5.700000e-07	-4.768957e-06	-1.983276e-09	-3.385411e+01	-1.293949e+02
5.800000e-07	-4.747004e-06	-1.993006e-09	-3.369827e+01	-1.291819e+02
5.900000e-07	-4.724777e-06	-1.972579e-09	-3.354048e+01	-1.289598e+02
6.000000e-07	-4.702239e-06	-1.969203e-09	-3.338049e+01	-1.287279e+02
6.100000e-07	-4.679378e-06	-1.981172e-09	-3.321820e+01	-1.284858e+02
6.200000e-07	-4.656087e-06	-1.976151e-09	-3.305286e+01	-1.282336e+02
6.300000e-07	-4.632470e-06	-1.968946e-09	-3.288521e+01	-1.279723e+02
6.400000e-07	-4.608713e-06	-1.975616e-09	-3.271656e+01	-1.277029e+02
6.500000e-07	-4.584782e-06	-1.965227e-09	-3.254668e+01	-1.274270e+02
6.600000e-07	-4.560696e-06	-1.952618e-09	-3.237570e+01	-1.271466e+02
6.700000e-07	-4.536278e-06	-1.952966e-09	-3.220236e+01	-1.268636e+02
6.800000e-07	-4.511385e-06	-1.945581e-09	-3.202564e+01	-1.265800e+02
6.900000e-07	-4.485982e-06	-1.934718e-09	-3.184531e+01	-1.262980e+02
7.000000e-07	-4.459930e-06	-1.934751e-09	-3.166037e+01	-1.260192e+02
7.100000e-07	-4.433394e-06	-1.937136e-09	-3.147200e+01	-1.257452e+02
7.200000e-07	-4.406448e-06	-1.932973e-09	-3.128071e+01	-1.254769e+02
7.300000e-07	-4.379058e-06	-1.932491e-09	-3.108628e+01	-1.252150e+02
7.400000e-07	-4.351405e-06	-1.925871e-09	-3.088997e+01	-1.249597e+02
7.500000e-07	-4.323665e-06	-1.920483e-09	-3.069305e+01	-1.247105e+02
7.600000e-07	-4.295794e-06	-1.914085e-09	-3.049520e+01	-1.244665e+02
7.700000e-07	-4.267621e-06	-1.907790e-09	-3.029520e+01	-1.242265e+02
7.800000e-07	-4.239214e-06	-1.897951e-09	-3.009355e+01	-1.239889e+02
7.900000e-07	-4.210599e-06	-1.894992e-09	-2.989041e+01	-1.237519e+02
8.000000e-07	-4.181562e-06	-1.891428e-09	-2.968428e+01	-1.235134e+02
8.100000e-07	-4.152091e-06	-1.890802e-09	-2.947507e+01	-1.232714e+02
8.200000e-07	-4.122394e-06	-1.887514e-09	-2.926426e+01	-1.230241e+02
8.300000e-07	-4.092496e-06	-1.884194e-09	-2.905201e+01	-1.227698e+02
8.400000e-07	-4.062325e-06	-1.876658e-09	-2.883783e+01	-1.225070e+02
8.500000e-07	-4.031918e-06	-1.874894e-09	-2.862198e+01	-1.222347e+02
8.600000e-07	-4.001195e-06	-1.869036e-09	-2.840388e+01	-1.219525e+02
8.700000e-07	-3.970144e-06	-1.862904e-09	-2.818345e+01	-1.216602e+02
8.800000e-07	-3.938895e-06	-1.854768e-09	-2.796163e+01	-1.213580e+02
8.900000e-07	-3.907470e-06	-1.850004e-09	-2.773854e+01	-1.210469e+02
9.000000e-07	-3.875846e-06	-1.843895e-09	-2.751405e+01	-1.207279e+02
9.100000e-07	-3.844053e-06	-1.839395e-09	-2.728836e+01	-1.204024e+02
9.200000e-07	-3.812137e-06	-1.836303e-09	-2.706179e+01	-1.200723e+02
9.300000e-07	-3.779991e-06	-1.839056e-09	-2.683359e+01	-1.197391e+02
9.400000e-07	-3.747415e-06	-1.840903e-09	-2.660233e+01	-1.194047e+02
9.500000e-07	-3.714442e-06	-1.836605e-09	-2.636826e+01	-1.190708e+02
9.600000e-07	-3.681105e-06	-1.828463e-09	-2.613161e+01	-1.187388e+02
9.700000e-07	-3.647417e-06	-1.815627e-09	-2.589246e+01	-1.184099e+02
9.800000e-07	-3.613366e-06	-1.802698e-09	-2.565074e+01	-1.180848e+02
9.900000e-07	-3.578821e-06	-1.792033e-09	-2.540551e+01	-1.177640e+02
1.000000e-06	-3.543932e-06	-1.789458e-09	-2.515784e+01	-1.174475e+02
1.010000e-06	-3.508771e-06	-1.794501e-09	-2.490824e+01	-1.171348e+02
1.020000e-06	-3.473355e-06	-1.802426e-09	-2.465683e+01	-1.168250e+02
1.030000e-06	-3.437726e-06	-1.804619e-09	-2.440390e+01	-1.165170e+02
1.040000e-06	-3.401891e-06	-1.800211e-09	-2.414951e+01	-1.162092e+02
1.050000e-06	-3.365919e-06	-1.789009e-09	-2.389415e+01	-1.159001e+02
1.060000e-06	-3.329860e-06	-1.774244e-09	-2.363818e+01	-1.155879e+02
1.070000e-06	-3.293674e-06	-1.757069e-09	-2.338130e+01	-1.152708e+02
1.080000e-06	-3.257188e-06	-1.745970e-09	-2.312229e+01	-1.149472e+02
1.090000e-06	-3.220311e-06	-1.743685e-09	-2.286050e+01	-1.146155e+02
1.100000e-06	-3.183148e-06	-1.750170e-09	-2.259669e+01	-1.142747e+02
1.110000e-06	-3.145841e-06	-1.756984e-09	-2.233185e+01	-1.139239e+02
1.120000e-06	-3.108353e-06	-1.758747e-09	-2.206573e+01	-1.135625e+02
1.130000e-06	-3.070647e-06	-1.751676e-09	-2.179806e+01	-1.131904e+02
1.140000e-06	-3.032749e-06	-1.741151e-09	-2.152903e+01	-1.128080e+02
1.150000e-06	-2.994705e-06	-1.726441e-09	-2.125896e+01	-1.124157e+02
1.160000e-06	-2.956486e-06	-1.710358e-09	-2.098765e+01	-1.120146e+02
1.170000e-06	-2.918014e-06	-1.698998e-09	-2.071454e+01	-1.116058e+02
1.180000e-06	-2.879354e-06	-1.695054e-09	-2.044011e+01	-1.111907e+02
1.190000e-06	-2.840417e-06	-1.693874e-09	-2.016370e+01	-1.107707e+02
1.200000e-06	-2.801247e-06	-1.695956e-09	-1.988563e+01	-1.103471e+02
1.210000e-06	-2.762004e-06	-1.696604e-09	-1.960705e+01	-1.099214e+02
1.220000e-06	-2.722536e-06	-1.695222e-09	-1.932688e+01	-1.094947e+02
1.230000e-06	-2.682879e-06	-1.688779e-09	-1.904535e+01	-1.090679e+02
1.240000e-06	-2.643156e-06	-1.676508e-09	-1.876337e+01	-1.086417e+02
1.250000e-06	-2.603306e-06	-1.664660e-09	-1.848048e+01	-1.082165e+02
1.260000e-06	-2.563338e-06	-1.653691e-09	-1.819675e+01	-1.077922e+02
1.270000e-06	-2.523285e-06	-1.643954e-09	-1.791242e+01	-1.073686e+02
1.280000e-06	-2.483129e-06	-1.640237e-09	-1.762736e+01	-1.069450e+02
1.290000e-06	-2.442859e-06	-1.640565e-09	-1.734149e+01	-1.065207e+02
1.300000e-06	-2.402461e-06	-1.639940e-09	-1.705471e+01	-1.060947e+02
1.310000e-06	-2.361764e-06	-1.632149e-09	-1.676581e+01	-1.056657e+02
1.320000e-06	-2.320776e-06	-1.619036e-09	-1.647484e+01	-1.052327e+02
1.330000e-06	-2.279686e-06	-1.605736e-09	-1.618315e+01	-1.047944e+02
1.340000e-06	-2.238344e-06	-1.595978e-09	-1.588967e+01	-1.043498e+02
1.350000e-06	-2.196532e-06	-1.592045e-09	-1.559285e+01	-1.038980e+02
1.360000e-06	-2.154315e-06	-1.589141e-09	-1.529316e+01	-1.034383e+02
1.370000e-06	-2.111850e-06	-1.585979e-09	-1.499170e+01	-1.029702e+02
1.380000e-06	-2.069134e-06	-1.580879e-09	-1.468847e+01	-1.024935e+02
1.390000e-06	-2.026218e-06	-1.572782e-09	-1.438382e+01	-1.020082e+02
1.400000e-06	-1.983169e-06	-1.558955e-09	-1.407822e+01	-1.015146e+02
1.410000e-06	-1.939991e-06	-1.543690e-09	-1.377170e+01	-1.010131e+02
1.420000e-06	-1.896688e-06	-1.530887e-09	-1.346430e+01	-1.005043e+02
1.430000e-06	-1.853257e-06	-1.523416e-09	-1.315600e+01	-9.998897e+01
1.440000e-06	-1.809705e-06	-1.520345e-09	-1.284683e+01	-9.946768e+01
1.450000e-06	-1.766043e-06	-1.518635e-09	-1.253687e+01	-9.894111e+01
1.460000e-06	-1.722301e-06	-1.513615e-09	-1.222636e+01	-9.840978e+01
1.470000e-06	-1.678511e-06	-1.505381e-09	-1.191550e+01	-9.787402e+01
1.480000e-06	-1.634669e-06	-1.493353e-09	-1.160427e+01	-9.733397e+01
1.490000e-06	-1.590738e-06	-1.479309e-09	-1.129241e+01	-9.678946e+01
1.500000e-06	-1.546689e-06	-1.466575e-09	-1.097971e+01	-9.624009e+01
1.510000e-06	-1.502528e-06	-1.460408e-09	-1.066622e+01	-9.568516e+01
1.520000e-06	-1.458225e-06	-1.457740e-09	-1.035172e+01	-9.512372e+01
1.530000e-06	-1.413922e-06	-1.453258e-09	-1.003722e+01	-9.455461e+01
1.540000e-06	-1.369671e-06	-1.443193e-09	-9.723089e+00	-9.397650e+01
1.550000e-06	-1.325346e-06	-1.429562e-09	-9.408430e+00	-9.338794e+01
1.560000e-06	-1.280986e-06	-1.416004e-09	-9.093524e+00	-9.278747e+01
1.570000e-06	-1.236473e-06	-1.403548e-09	-8.777534e+00	-9.217364e+01
1.580000e-06	-1.191771e-06	-1.392793e-09	-8.460206e+00	-9.154515e+01
1.590000e-06	-1.146956e-06	-1.384660e-09	-8.142069e+00	-9.090085e+01
1.600000e-06	-1.102051e-06	-1.378779e-09	-7.823293e+00	-9.023986e+01
1.610000e-06	-1.057144e-06	-1.371994e-09	-7.504503e+00	-8.956156e+01
1.620000e-06	-1.012156e-06	-1.361657e-09	-7.185141e+00	-8.886566e+01
1.630000e-06	-9.669814e-07	-1.347119e-09	-6.864455e+00	-8.815220e+01
1.640000e-06	-9.216792e-07	-1.331262e-09	-6.542862e+00	-8.742150e+01
1.650000e-06	-8.763890e-07	-1.316894e-09	-6.221354e+00	-8.667419e+01
1.660000e-06	-8.310958e-07	-1.303011e-09	-5.899825e+00	-8.591111e+01
1.670000e-06	-7.857094e-07	-1.292290e-09	-5.577633e+00	-8.513326e+01
1.680000e-06	-7.402858e-07	-1.285919e-09	-5.255178e+00	-8.434176e+01
1.690000e-06	-6.947579e-07	-1.276936e-09	-4.931982e+00	-8.353768e+01
1.700000e-06	-6.490977e-07	-1.262794e-09	-4.607847e+00	-8.272203e+01
1.710000e-06	-6.034689e-07	-1.247540e-09	-4.283935e+00	-8.189564e+01
1.720000e-06	-5.578846e-07	-1.233362e-09	-3.960339e+00	-8.105907e+01
1.730000e-06	-5.122598e-07	-1.219027e-09	-3.636456e+00	-8.021255e+01
1.740000e-06	-4.665786e-07	-1.206279e-09	-3.312172e+00	-7.935593e+01
1.750000e-06	-4.208703e-07	-1.194440e-09	-2.987695e+00	-7.848861e+01
1.760000e-06	-3.751371e-07	-1.183552e-09	-2.663042e+00	-7.760958e+01
1.770000e-06	-3.293514e-07	-1.170998e-09	-2.338016e+00	-7.671737e+01
1.780000e-06	-2.835517e-07	-1.156345e-09	-2.012891e+00	-7.581010e+01
1.790000e-06	-2.377626e-07	-1.140060e-09	-1.687841e+00	-7.488555e+01
1.800000e-06	-1.919272e-07	-1.124209e-09	-1.362462e+00	-7.394116e+01
1.810000e-06	-1.461315e-07	-1.108019e-09	-1.037366e+00	-7.297418e+01
1.820000e-06	-1.003508e-07	-1.093422e-09	-7.123753e-01	-7.198173e+01
1.830000e-06	-5.451939e-08	-1.079068e-09	-3.870249e-01	-7.096088e+01
1.840000e-06	-8.668417e-09	-1.062877e-09	-6.153579e-02	-6.990878e+01
1.850000e-06	3.725927e-08	-1.045860e-09	2.644979e-01	-6.882273e+01
1.860000e-06	8.316950e-08	-1.028224e-09	5.904078e-01	-6.770025e+01
1.870000e-06	1.289564e-07	-1.009729e-09	9.154420e-01	-6.653921e+01
1.880000e-06	1.746493e-07	-9.909999e-10	1.239809e+00	-6.533780e+01
1.890000e-06	2.204040e-07	-9.700540e-10	1.564615e+00	-6.409464e+01
1.900000e-06	2.662480e-07	-9.461410e-10	1.890055e+00	-6.280875e+01
1.910000e-06	3.120185e-07	-9.230124e-10	2.214972e+00	-6.147954e+01
1.920000e-06	3.577528e-07	-9.025027e-10	2.539633e+00	-6.010684e+01
1.930000e-06	4.035859e-07	-8.847255e-10	2.864996e+00	-5.869079e+01
1.940000e-06	4.494058e-07	-8.645431e-10	3.190265e+00	-5.723182e+01
1.950000e-06	4.951372e-07	-8.405785e-10	3.514905e+00	-5.573056e+01
1.960000e-06	5.408576e-07	-8.161967e-10	3.839467e+00	-5.418779e+01
1.970000e-06	5.865717e-07	-7.895062e-10	4.163984e+00	-5.260433e+01
1.980000e-06	6.321915e-07	-7.599579e-10	4.487832e+00	-5.098100e+01
1.990000e-06	6.776924e-07	-7.309831e-10	4.810836e+00	-4.931851e+01
2.000000e-06	7.231213e-07	-7.056591e-10	5.133329e+00	-4.761744e+01
2.010000e-06	7.685370e-07	-6.837989e-10	5.455728e+00	-4.587816e+01
2.020000e-06	8.139466e-07	-6.606113e-10	5.778085e+00	-4.410083e+01
2.030000e-06	8.592880e-07	-6.337495e-10	6.099956e+00	-4.228535e+01
2.040000e-06	9.045616e-07	-6.041760e-10	6.421347e+00	-4.043141e+01
2.050000e-06	9.497371e-07	-5.733695e-10	6.742041e+00	-3.853848e+01
2.060000e-06	9.947173e-07	-5.399265e-10	7.061349e+00	-3.660585e+01
2.070000e-06	1.039650e-06	-5.027701e-10	7.380321e+00	-3.463270e+01
2.080000e-06	1.084622e-06	-4.660647e-10	7.699570e+00	-3.261813e+01
2.090000e-06	1.129491e-06	-4.360104e-10	8.018090e+00	-3.056126e+01
2.100000e-06	1.174229e-06	-4.106266e-10	8.335676e+00	-2.846126e+01
2.110000e-06	1.218874e-06	-3.825358e-10	8.652606e+00	-2.631746e+01
2.120000e-06	1.263430e-06	-3.471809e-10	8.968901e+00	-2.412936e+01
2.130000e-06	1.307893e-06	-3.101507e-10	9.284535e+00	-2.189674e+01
2.140000e-06	1.352271e-06	-2.760250e-10	9.599570e+00	-1.961965e+01
2.150000e-06	1.396540e-06	-2.405947e-10	9.913831e+00	-1.729850e+01
2.160000e-06	1.440730e-06	-2.024547e-10	1.022753e+01	-1.493399e+01
2.170000e-06	1.484854e-06	-1.647232e-10	1.054075e+01	-1.252719e+01
2.180000e-06	1.528932e-06	-1.323397e-10	1.085366e+01	-1.007951e+01
2.190000e-06	1.572945e-06	-1.016472e-10	1.116610e+01	-7.592628e+00
2.200000e-06	1.616859e-06	-6.618761e-11	1.147784e+01	-5.068515e+00
2.210000e-06	1.660676e-06	-2.737462e-11	1.178889e+01	-2.509363e+00
2.220000e-06	1.704447e-06	1.301481e-11	1.209961e+01	8.245732e-02
2.230000e-06	1.748202e-06	5.346509e-11	1.241022e+01	2.704441e+00
2.240000e-06	1.791908e-06	9.681379e-11	1.272049e+01	5.353996e+00
2.250000e-06	1.835557e-06	1.393200e-10	1.303035e+01	8.028483e+00
2.260000e-06	1.879054e-06	1.782380e-10	1.333912e+01	1.072525e+01
2.270000e-06	1.922368e-06	2.151051e-10	1.364660e+01	1.344166e+01
2.280000e-06	1.965546e-06	2.534325e-10	1.395311e+01	1.617510e+01
2.290000e-06	2.008610e-06	2.955898e-10	1.425882e+01	1.892298e+01
2.300000e-06	2.051545e-06	3.371936e-10	1.456361e+01	2.168275e+01
2.310000e-06	2.094207e-06	3.781699e-10	1.486646e+01	2.445186e+01
2.320000e-06	2.136534e-06	4.208149e-10	1.516694e+01	2.722775e+01
2.330000e-06	2.178651e-06	4.640238e-10	1.546592e+01	3.000780e+01
2.340000e-06	2.220539e-06	5.022914e-10	1.576327e+01	3.278935e+01
2.350000e-06	2.262106e-06	5.377391e-10	1.605835e+01	3.556961e+01
2.360000e-06	2.303392e-06	5.745975e-10	1.635143e+01	3.834567e+01
2.370000e-06	2.344376e-06	6.171967e-10	1.664237e+01	4.111445e+01
2.380000e-06	2.385070e-06	6.621703e-10	1.693125e+01	4.387272e+01
2.390000e-06	2.425572e-06	7.037300e-10	1.721877e+01	4.661706e+01
2.400000e-06	2.465908e-06	7.423863e-10	1.750511e+01	4.934390e+01
2.410000e-06	2.506031e-06	7.807496e-10	1.778993e+01	5.204950e+01
2.420000e-06	2.545990e-06	8.216451e-10	1.807360e+01	5.473001e+01
2.430000e-06	2.585894e-06	8.628968e-10	1.835687e+01	5.738151e+01
2.440000e-06	2.625713e-06	9.027651e-10	1.863954e+01	6.000001e+01
2.450000e-06	2.665434e-06	9.399619e-10	1.892152e+01	6.258160e+01
2.460000e-06	2.705055e-06	9.766248e-10	1.920278e+01	6.512242e+01
2.470000e-06	2.744584e-06	1.012447e-09	1.948339e+01	6.761876e+01
2.480000e-06	2.783929e-06	1.045205e-09	1.976269e+01	7.006715e+01
2.490000e-06	2.823035e-06	1.078825e-09	2.004030e+01	7.246436e+01
2.500000e-06	2.861919e-06	1.115928e-09	2.031633e+01	7.480752e+01
2.510000e-06	2.900518e-06	1.153926e-09	2.059034e+01	7.709410e+01
2.520000e-06	2.938881e-06	1.192413e-09	2.086267e+01	7.932200e+01
2.530000e-06	2.977064e-06	1.231833e-09	2.113373e+01	8.148953e+01
2.540000e-06	3.015047e-06	1.268176e-09	2.140336e+01	8.359544e+01
2.550000e-06	3.052848e-06	1.297095e-09	2.167171e+01	8.563893e+01
2.560000e-06	3.090526e-06	1.320813e-09	2.193918e+01	8.761960e+01
2.570000e-06	3.128031e-06	1.343488e-09	2.220542e+01	8.953746e+01
2.580000e-06	3.165286e-06	1.367491e-09	2.246989e+01	9.139287e+01
2.590000e-06	3.202265e-06	1.394291e-09	2.273240e+01	9.318653e+01
2.600000e-06	3.238966e-06	1.425452e-09	2.299293e+01	9.491940e+01
2.610000e-06	3.275431e-06	1.460099e-09	2.325180e+01	9.659266e+01
2.620000e-06	3.311674e-06	1.493108e-09	2.350908e+01	9.820771e+01
2.630000e-06	3.347715e-06	1.521151e-09	2.376493e+01	9.976604e+01
2.640000e-06	3.383661e-06	1.542519e-09	2.402010e+01	1.012692e+02
2.650000e-06	3.419543e-06	1.557684e-09	2.427482e+01	1.027190e+02
2.660000e-06	3.455336e-06	1.569399e-09	2.452891e+01	1.041169e+02
2.670000e-06	3.490942e-06	1.582952e-09	2.478167e+01	1.054647e+02
2.680000e-06	3.526270e-06	1.601389e-09	2.503246e+01	1.067640e+02
2.690000e-06	3.561399e-06	1.624366e-09	2.528184e+01	1.080165e+02
2.700000e-06	3.596273e-06	1.651894e-09	2.552940e+01	1.092236e+02
2.710000e-06	3.630685e-06	1.680959e-09	2.577369e+01	1.103870e+02
2.720000e-06	3.664579e-06	1.702807e-09	2.601430e+01	1.115080e+02
2.730000e-06	3.697985e-06	1.715964e-09	2.625144e+01	1.125882e+02
2.740000e-06	3.731029e-06	1.724992e-09	2.648601e+01	1.136289e+02
2.750000e-06	3.763657e-06	1.732634e-09	2.671763e+01	1.146315e+02
2.760000e-06	3.795922e-06	1.741117e-09	2.694668e+01	1.155973e+02
2.770000e-06	3.827970e-06	1.754537e-09	2.717419e+01	1.165275e+02
2.780000e-06	3.859805e-06	1.775488e-09	2.740018e+01	1.174234e+02
2.790000e-06	3.891528e-06	1.799058e-09	2.762537e+01	1.182863e+02
2.800000e-06	3.923143e-06	1.815464e-09	2.784980e+01	1.191171e+02
2.810000e-06	3.954560e-06	1.822567e-09	2.807283e+01	1.199170e+02
2.820000e-06	3.985725e-06	1.828087e-09	2.829406e+01	1.206868e+02
2.830000e-06	4.016539e-06	1.836076e-09	2.851281e+01	1.214276e+02
2.840000e-06	4.047030e-06	1.844707e-09	2.872926e+01	1.221400e+02
2.850000e-06	4.077268e-06	1.853830e-09	2.894391e+01	1.228248e+02
2.860000e-06	4.107147e-06	1.866143e-09	2.915602e+01	1.234825e+02
2.870000e-06	4.136697e-06	1.881158e-09	2.936579e+01	1.241137e+02
2.880000e-06	4.165971e-06	1.894620e-09	2.957360e+01	1.247187e+02
2.890000e-06	4.195014e-06	1.901011e-09	2.977977e+01	1.252979e+02
2.900000e-06	4.223791e-06	1.902839e-09	2.998406e+01	1.258516e+02
