# Temperatura_=_-1.0
# Concentracion g/m^3_=_4090.0
# C_Vs_to_Am_M_A/Vsm_=_65563218390.804596
# pendiente_HvsI_1/m_=_3716.3
# ordenada_HvsI_A/m_=_1297.0
# frecuencia_Hz_=_135077.5488336518

Tiempo_(s)	Campo_(V.s)	Magnetizacion_(V.s)	Campo_(kA/m)	Magnetizacion_(A/m)
0.000000e+00	-5.412501e-06	-2.031083e-09	-3.837570e+01	-1.332959e+02
1.000000e-08	-5.412722e-06	-2.026463e-09	-3.837726e+01	-1.331642e+02
2.000000e-08	-5.412718e-06	-2.021602e-09	-3.837724e+01	-1.330183e+02
3.000000e-08	-5.412509e-06	-2.016317e-09	-3.837576e+01	-1.328583e+02
4.000000e-08	-5.411897e-06	-2.010265e-09	-3.837142e+01	-1.326851e+02
5.000000e-08	-5.410852e-06	-2.007779e-09	-3.836401e+01	-1.325001e+02
6.000000e-08	-5.409334e-06	-2.007775e-09	-3.835325e+01	-1.323057e+02
7.000000e-08	-5.407077e-06	-2.007642e-09	-3.833724e+01	-1.321049e+02
8.000000e-08	-5.404119e-06	-2.021566e-09	-3.831627e+01	-1.319015e+02
9.000000e-08	-5.400630e-06	-2.037919e-09	-3.829153e+01	-1.316999e+02
1.000000e-07	-5.396610e-06	-2.017764e-09	-3.826303e+01	-1.315047e+02
1.100000e-07	-5.392256e-06	-1.988666e-09	-3.823216e+01	-1.313212e+02
1.200000e-07	-5.387892e-06	-2.035672e-09	-3.820121e+01	-1.311543e+02
1.300000e-07	-5.383361e-06	-2.035275e-09	-3.816909e+01	-1.310092e+02
1.400000e-07	-5.378362e-06	-2.004906e-09	-3.813364e+01	-1.308905e+02
1.500000e-07	-5.372909e-06	-1.969921e-09	-3.809498e+01	-1.308025e+02
1.600000e-07	-5.367203e-06	-2.029677e-09	-3.805453e+01	-1.307485e+02
1.700000e-07	-5.361178e-06	-2.054288e-09	-3.801181e+01	-1.307312e+02
1.800000e-07	-5.354639e-06	-1.980640e-09	-3.796545e+01	-1.307519e+02
1.900000e-07	-5.347545e-06	-1.983150e-09	-3.791515e+01	-1.308110e+02
2.000000e-07	-5.340200e-06	-2.051349e-09	-3.786307e+01	-1.309076e+02
2.100000e-07	-5.332766e-06	-2.078456e-09	-3.781036e+01	-1.310397e+02
2.200000e-07	-5.325016e-06	-1.995144e-09	-3.775541e+01	-1.312038e+02
2.300000e-07	-5.317012e-06	-2.030185e-09	-3.769866e+01	-1.313956e+02
2.400000e-07	-5.308807e-06	-2.099743e-09	-3.764049e+01	-1.316097e+02
2.500000e-07	-5.300099e-06	-2.094852e-09	-3.757874e+01	-1.318400e+02
2.600000e-07	-5.290678e-06	-2.043734e-09	-3.751195e+01	-1.320796e+02
2.700000e-07	-5.280673e-06	-2.111810e-09	-3.744101e+01	-1.323215e+02
2.800000e-07	-5.270059e-06	-2.141678e-09	-3.736576e+01	-1.325584e+02
2.900000e-07	-5.258945e-06	-2.060331e-09	-3.728695e+01	-1.327834e+02
3.000000e-07	-5.247390e-06	-2.019357e-09	-3.720503e+01	-1.329897e+02
3.100000e-07	-5.235423e-06	-2.091171e-09	-3.712018e+01	-1.331714e+02
3.200000e-07	-5.223026e-06	-2.094779e-09	-3.703228e+01	-1.333234e+02
3.300000e-07	-5.210146e-06	-2.043670e-09	-3.694096e+01	-1.334415e+02
3.400000e-07	-5.196920e-06	-2.080290e-09	-3.684719e+01	-1.335228e+02
3.500000e-07	-5.183400e-06	-2.125309e-09	-3.675133e+01	-1.335655e+02
3.600000e-07	-5.169581e-06	-2.083827e-09	-3.665335e+01	-1.335691e+02
3.700000e-07	-5.155423e-06	-2.057335e-09	-3.655297e+01	-1.335344e+02
3.800000e-07	-5.140661e-06	-2.070939e-09	-3.644830e+01	-1.334631e+02
3.900000e-07	-5.125138e-06	-2.039480e-09	-3.633824e+01	-1.333581e+02
4.000000e-07	-5.109054e-06	-2.027446e-09	-3.622420e+01	-1.332232e+02
4.100000e-07	-5.092648e-06	-2.069721e-09	-3.610788e+01	-1.330626e+02
4.200000e-07	-5.075913e-06	-2.075121e-09	-3.598923e+01	-1.328811e+02
4.300000e-07	-5.058771e-06	-2.034983e-09	-3.586768e+01	-1.326838e+02
4.400000e-07	-5.041434e-06	-2.063932e-09	-3.574476e+01	-1.324755e+02
4.500000e-07	-5.023768e-06	-2.076846e-09	-3.561950e+01	-1.322609e+02
4.600000e-07	-5.005662e-06	-2.034093e-09	-3.549113e+01	-1.320444e+02
4.700000e-07	-4.987264e-06	-2.001669e-09	-3.536068e+01	-1.318296e+02
4.800000e-07	-4.968547e-06	-2.026793e-09	-3.522798e+01	-1.316193e+02
4.900000e-07	-4.949424e-06	-2.022030e-09	-3.509239e+01	-1.314156e+02
5.000000e-07	-4.929919e-06	-2.016693e-09	-3.495410e+01	-1.312198e+02
5.100000e-07	-4.910198e-06	-2.012308e-09	-3.481427e+01	-1.310322e+02
5.200000e-07	-4.890292e-06	-2.012407e-09	-3.467314e+01	-1.308523e+02
5.300000e-07	-4.870187e-06	-2.009914e-09	-3.453059e+01	-1.306790e+02
5.400000e-07	-4.849906e-06	-2.022324e-09	-3.438679e+01	-1.305103e+02
5.500000e-07	-4.829249e-06	-2.006679e-09	-3.424032e+01	-1.303441e+02
5.600000e-07	-4.808094e-06	-1.998696e-09	-3.409034e+01	-1.301778e+02
5.700000e-07	-4.786566e-06	-2.005817e-09	-3.393770e+01	-1.300087e+02
5.800000e-07	-4.764755e-06	-2.006020e-09	-3.378305e+01	-1.298341e+02
5.900000e-07	-4.742684e-06	-1.983733e-09	-3.362657e+01	-1.296517e+02
6.000000e-07	-4.720320e-06	-1.975143e-09	-3.346800e+01	-1.294595e+02
6.100000e-07	-4.697580e-06	-1.976405e-09	-3.330677e+01	-1.292558e+02
6.200000e-07	-4.674467e-06	-1.985809e-09	-3.314289e+01	-1.290397e+02
6.300000e-07	-4.651030e-06	-1.988632e-09	-3.297672e+01	-1.288108e+02
6.400000e-07	-4.627341e-06	-1.980026e-09	-3.280876e+01	-1.285693e+02
6.500000e-07	-4.603523e-06	-1.976250e-09	-3.263988e+01	-1.283162e+02
6.600000e-07	-4.579510e-06	-1.979924e-09	-3.246963e+01	-1.280529e+02
6.700000e-07	-4.555193e-06	-1.969685e-09	-3.229721e+01	-1.277812e+02
6.800000e-07	-4.530460e-06	-1.945355e-09	-3.212185e+01	-1.275034e+02
6.900000e-07	-4.505191e-06	-1.936478e-09	-3.194270e+01	-1.272219e+02
7.000000e-07	-4.479359e-06	-1.938575e-09	-3.175954e+01	-1.269392e+02
7.100000e-07	-4.452939e-06	-1.943928e-09	-3.157221e+01	-1.266578e+02
7.200000e-07	-4.426006e-06	-1.939229e-09	-3.138125e+01	-1.263799e+02
7.300000e-07	-4.398735e-06	-1.935183e-09	-3.118790e+01	-1.261074e+02
7.400000e-07	-4.371258e-06	-1.931884e-09	-3.099308e+01	-1.258419e+02
7.500000e-07	-4.343613e-06	-1.933503e-09	-3.079707e+01	-1.255843e+02
7.600000e-07	-4.315786e-06	-1.919436e-09	-3.059977e+01	-1.253351e+02
7.700000e-07	-4.287755e-06	-1.907667e-09	-3.040103e+01	-1.250942e+02
7.800000e-07	-4.259494e-06	-1.903154e-09	-3.020065e+01	-1.248610e+02
7.900000e-07	-4.230854e-06	-1.908231e-09	-2.999759e+01	-1.246342e+02
8.000000e-07	-4.201831e-06	-1.903915e-09	-2.979181e+01	-1.244123e+02
8.100000e-07	-4.172596e-06	-1.900616e-09	-2.958453e+01	-1.241935e+02
8.200000e-07	-4.143124e-06	-1.895090e-09	-2.937556e+01	-1.239757e+02
8.300000e-07	-4.113327e-06	-1.895616e-09	-2.916430e+01	-1.237566e+02
8.400000e-07	-4.083267e-06	-1.891755e-09	-2.895117e+01	-1.235342e+02
8.500000e-07	-4.052895e-06	-1.884541e-09	-2.873583e+01	-1.233064e+02
8.600000e-07	-4.022210e-06	-1.876655e-09	-2.851826e+01	-1.230715e+02
8.700000e-07	-3.991258e-06	-1.879766e-09	-2.829881e+01	-1.228281e+02
8.800000e-07	-3.960063e-06	-1.880513e-09	-2.807763e+01	-1.225751e+02
8.900000e-07	-3.928673e-06	-1.872738e-09	-2.785507e+01	-1.223121e+02
9.000000e-07	-3.897082e-06	-1.858435e-09	-2.763108e+01	-1.220389e+02
9.100000e-07	-3.865303e-06	-1.851115e-09	-2.740576e+01	-1.217559e+02
9.200000e-07	-3.833339e-06	-1.851751e-09	-2.717913e+01	-1.214639e+02
9.300000e-07	-3.801259e-06	-1.852824e-09	-2.695167e+01	-1.211639e+02
9.400000e-07	-3.768941e-06	-1.850041e-09	-2.672253e+01	-1.208573e+02
9.500000e-07	-3.736250e-06	-1.848956e-09	-2.649075e+01	-1.205456e+02
9.600000e-07	-3.703176e-06	-1.851851e-09	-2.625625e+01	-1.202304e+02
9.700000e-07	-3.669656e-06	-1.849034e-09	-2.601859e+01	-1.199133e+02
9.800000e-07	-3.635647e-06	-1.837159e-09	-2.577745e+01	-1.195956e+02
9.900000e-07	-3.601168e-06	-1.821209e-09	-2.553299e+01	-1.192786e+02
1.000000e-06	-3.566334e-06	-1.813896e-09	-2.528601e+01	-1.189630e+02
1.010000e-06	-3.531141e-06	-1.813594e-09	-2.503649e+01	-1.186495e+02
1.020000e-06	-3.495629e-06	-1.814838e-09	-2.478470e+01	-1.183383e+02
1.030000e-06	-3.459960e-06	-1.811971e-09	-2.453180e+01	-1.180290e+02
1.040000e-06	-3.424208e-06	-1.812227e-09	-2.427831e+01	-1.177213e+02
1.050000e-06	-3.388345e-06	-1.809823e-09	-2.402403e+01	-1.174141e+02
1.060000e-06	-3.352328e-06	-1.800872e-09	-2.376867e+01	-1.171065e+02
1.070000e-06	-3.316099e-06	-1.782225e-09	-2.351179e+01	-1.167970e+02
1.080000e-06	-3.279592e-06	-1.768134e-09	-2.325296e+01	-1.164843e+02
1.090000e-06	-3.242902e-06	-1.764046e-09	-2.299281e+01	-1.161671e+02
1.100000e-06	-3.205964e-06	-1.766811e-09	-2.273092e+01	-1.158441e+02
1.110000e-06	-3.168711e-06	-1.763754e-09	-2.246679e+01	-1.155142e+02
1.120000e-06	-3.131219e-06	-1.759738e-09	-2.220096e+01	-1.151765e+02
1.130000e-06	-3.093509e-06	-1.756106e-09	-2.193359e+01	-1.148305e+02
1.140000e-06	-3.055626e-06	-1.752374e-09	-2.166499e+01	-1.144760e+02
1.150000e-06	-3.017597e-06	-1.741378e-09	-2.139536e+01	-1.141132e+02
1.160000e-06	-2.979401e-06	-1.728257e-09	-2.112454e+01	-1.137426e+02
1.170000e-06	-2.941004e-06	-1.719522e-09	-2.085230e+01	-1.133650e+02
1.180000e-06	-2.902440e-06	-1.717438e-09	-2.057887e+01	-1.129815e+02
1.190000e-06	-2.863682e-06	-1.711968e-09	-2.030407e+01	-1.125935e+02
1.200000e-06	-2.824643e-06	-1.702932e-09	-2.002728e+01	-1.122024e+02
1.210000e-06	-2.785381e-06	-1.696941e-09	-1.974890e+01	-1.118096e+02
1.220000e-06	-2.745954e-06	-1.694411e-09	-1.946935e+01	-1.114165e+02
1.230000e-06	-2.706364e-06	-1.690265e-09	-1.918865e+01	-1.110243e+02
1.240000e-06	-2.666625e-06	-1.683093e-09	-1.890690e+01	-1.106342e+02
1.250000e-06	-2.626728e-06	-1.676623e-09	-1.862402e+01	-1.102467e+02
1.260000e-06	-2.586741e-06	-1.672711e-09	-1.834050e+01	-1.098622e+02
1.270000e-06	-2.546690e-06	-1.668915e-09	-1.805653e+01	-1.094808e+02
1.280000e-06	-2.506574e-06	-1.660357e-09	-1.777210e+01	-1.091020e+02
1.290000e-06	-2.466414e-06	-1.650764e-09	-1.748736e+01	-1.087250e+02
1.300000e-06	-2.426078e-06	-1.642518e-09	-1.720137e+01	-1.083487e+02
1.310000e-06	-2.385427e-06	-1.634531e-09	-1.691315e+01	-1.079716e+02
1.320000e-06	-2.344512e-06	-1.625003e-09	-1.662305e+01	-1.075920e+02
1.330000e-06	-2.303330e-06	-1.618574e-09	-1.633106e+01	-1.072081e+02
1.340000e-06	-2.261879e-06	-1.617002e-09	-1.603717e+01	-1.068180e+02
1.350000e-06	-2.220193e-06	-1.617250e-09	-1.574160e+01	-1.064198e+02
1.360000e-06	-2.178189e-06	-1.612714e-09	-1.544379e+01	-1.060119e+02
1.370000e-06	-2.135905e-06	-1.603992e-09	-1.514399e+01	-1.055925e+02
1.380000e-06	-2.093445e-06	-1.593295e-09	-1.484294e+01	-1.051605e+02
1.390000e-06	-2.050623e-06	-1.582063e-09	-1.453932e+01	-1.047149e+02
1.400000e-06	-2.007550e-06	-1.568650e-09	-1.423392e+01	-1.042550e+02
1.410000e-06	-1.964451e-06	-1.558701e-09	-1.392834e+01	-1.037806e+02
1.420000e-06	-1.921271e-06	-1.553554e-09	-1.362219e+01	-1.032917e+02
1.430000e-06	-1.877926e-06	-1.550950e-09	-1.331487e+01	-1.027889e+02
1.440000e-06	-1.834355e-06	-1.547231e-09	-1.300594e+01	-1.022728e+02
1.450000e-06	-1.790698e-06	-1.542489e-09	-1.269640e+01	-1.017444e+02
1.460000e-06	-1.746977e-06	-1.535554e-09	-1.238641e+01	-1.012047e+02
1.470000e-06	-1.703168e-06	-1.527891e-09	-1.207579e+01	-1.006549e+02
1.480000e-06	-1.659283e-06	-1.516990e-09	-1.176464e+01	-1.000963e+02
1.490000e-06	-1.615281e-06	-1.506906e-09	-1.145266e+01	-9.952981e+01
1.500000e-06	-1.571233e-06	-1.500498e-09	-1.114035e+01	-9.895643e+01
1.510000e-06	-1.527170e-06	-1.493818e-09	-1.082794e+01	-9.837687e+01
1.520000e-06	-1.483056e-06	-1.485091e-09	-1.051516e+01	-9.779160e+01
1.530000e-06	-1.438829e-06	-1.474531e-09	-1.020158e+01	-9.720078e+01
1.540000e-06	-1.394495e-06	-1.462032e-09	-9.887245e+00	-9.660430e+01
1.550000e-06	-1.350026e-06	-1.450959e-09	-9.571953e+00	-9.600176e+01
1.560000e-06	-1.305413e-06	-1.438396e-09	-9.255634e+00	-9.539247e+01
1.570000e-06	-1.260741e-06	-1.426869e-09	-8.938905e+00	-9.477555e+01
1.580000e-06	-1.216081e-06	-1.419810e-09	-8.622251e+00	-9.414993e+01
1.590000e-06	-1.171419e-06	-1.412501e-09	-8.305591e+00	-9.351444e+01
1.600000e-06	-1.126612e-06	-1.403548e-09	-7.987903e+00	-9.286786e+01
1.610000e-06	-1.081613e-06	-1.390665e-09	-7.668851e+00	-9.220900e+01
1.620000e-06	-1.036519e-06	-1.379631e-09	-7.349123e+00	-9.153676e+01
1.630000e-06	-9.913126e-07	-1.370387e-09	-7.028601e+00	-9.085016e+01
1.640000e-06	-9.460039e-07	-1.360206e-09	-6.707354e+00	-9.014843e+01
1.650000e-06	-9.006765e-07	-1.346877e-09	-6.385974e+00	-8.943098e+01
1.660000e-06	-8.552712e-07	-1.333276e-09	-6.064041e+00	-8.869746e+01
1.670000e-06	-8.097944e-07	-1.323034e-09	-5.741602e+00	-8.794774e+01
1.680000e-06	-7.643805e-07	-1.314935e-09	-5.419608e+00	-8.718188e+01
1.690000e-06	-7.189483e-07	-1.301872e-09	-5.097485e+00	-8.640010e+01
1.700000e-06	-6.734201e-07	-1.287096e-09	-4.774681e+00	-8.560273e+01
1.710000e-06	-6.278299e-07	-1.273452e-09	-4.451438e+00	-8.479015e+01
1.720000e-06	-5.821670e-07	-1.261768e-09	-4.127679e+00	-8.396274e+01
1.730000e-06	-5.364948e-07	-1.248775e-09	-3.803854e+00	-8.312076e+01
1.740000e-06	-4.908451e-07	-1.231855e-09	-3.480188e+00	-8.226436e+01
1.750000e-06	-4.450848e-07	-1.215202e-09	-3.155739e+00	-8.139345e+01
1.760000e-06	-3.992115e-07	-1.201247e-09	-2.830488e+00	-8.050771e+01
1.770000e-06	-3.534329e-07	-1.183812e-09	-2.505909e+00	-7.960651e+01
1.780000e-06	-3.076398e-07	-1.166484e-09	-2.181227e+00	-7.868891e+01
1.790000e-06	-2.617315e-07	-1.153982e-09	-1.855728e+00	-7.775363e+01
1.800000e-06	-2.157661e-07	-1.147947e-09	-1.529824e+00	-7.679912e+01
1.810000e-06	-1.698944e-07	-1.138722e-09	-1.204584e+00	-7.582353e+01
1.820000e-06	-1.240891e-07	-1.120494e-09	-8.798161e-01	-7.482478e+01
1.830000e-06	-7.829626e-08	-1.099358e-09	-5.551359e-01	-7.380065e+01
1.840000e-06	-3.252983e-08	-1.076832e-09	-2.306429e-01	-7.274877e+01
1.850000e-06	1.333894e-08	-1.054175e-09	9.457571e-02	-7.166679e+01
1.860000e-06	5.924841e-08	-1.032746e-09	4.200829e-01	-7.055239e+01
1.870000e-06	1.051283e-07	-1.019242e-09	7.453806e-01	-6.940337e+01
1.880000e-06	1.510684e-07	-1.011632e-09	1.071105e+00	-6.821774e+01
1.890000e-06	1.969594e-07	-1.000061e-09	1.396481e+00	-6.699374e+01
1.900000e-06	2.428287e-07	-9.775722e-10	1.721703e+00	-6.572990e+01
1.910000e-06	2.887658e-07	-9.493910e-10	2.047406e+00	-6.442510e+01
1.920000e-06	3.345810e-07	-9.242830e-10	2.372245e+00	-6.307853e+01
1.930000e-06	3.803657e-07	-9.014995e-10	2.696868e+00	-6.168971e+01
1.940000e-06	4.262109e-07	-8.770742e-10	3.021919e+00	-6.025847e+01
1.950000e-06	4.720432e-07	-8.527703e-10	3.346879e+00	-5.878491e+01
1.960000e-06	5.177783e-07	-8.334241e-10	3.671150e+00	-5.726933e+01
1.970000e-06	5.634995e-07	-8.162301e-10	3.995322e+00	-5.571221e+01
1.980000e-06	6.092621e-07	-7.898465e-10	4.319788e+00	-5.411412e+01
1.990000e-06	6.549412e-07	-7.576736e-10	4.643662e+00	-5.247565e+01
2.000000e-06	7.005218e-07	-7.271913e-10	4.966837e+00	-5.079735e+01
2.010000e-06	7.460650e-07	-7.047813e-10	5.289748e+00	-4.907967e+01
2.020000e-06	7.915516e-07	-6.835043e-10	5.612257e+00	-4.732293e+01
2.030000e-06	8.369626e-07	-6.574185e-10	5.934230e+00	-4.552725e+01
2.040000e-06	8.823569e-07	-6.277489e-10	6.256084e+00	-4.369255e+01
2.050000e-06	9.276271e-07	-5.998734e-10	6.577059e+00	-4.181852e+01
2.060000e-06	9.727567e-07	-5.707063e-10	6.897037e+00	-3.990468e+01
2.070000e-06	1.017893e-06	-5.361340e-10	7.217059e+00	-3.795032e+01
2.080000e-06	1.062934e-06	-5.011411e-10	7.536414e+00	-3.595463e+01
2.090000e-06	1.107840e-06	-4.723536e-10	7.854806e+00	-3.391669e+01
2.100000e-06	1.152712e-06	-4.471528e-10	8.172954e+00	-3.183555e+01
2.110000e-06	1.197477e-06	-4.169329e-10	8.490348e+00	-2.971028e+01
2.120000e-06	1.242125e-06	-3.804287e-10	8.806908e+00	-2.754004e+01
2.130000e-06	1.286697e-06	-3.463485e-10	9.122938e+00	-2.532418e+01
2.140000e-06	1.331106e-06	-3.171280e-10	9.437804e+00	-2.306223e+01
2.150000e-06	1.375461e-06	-2.868062e-10	9.752293e+00	-2.075400e+01
2.160000e-06	1.419799e-06	-2.513325e-10	1.006665e+01	-1.839963e+01
2.170000e-06	1.463955e-06	-2.153579e-10	1.037973e+01	-1.599955e+01
2.180000e-06	1.508042e-06	-1.797362e-10	1.069232e+01	-1.355458e+01
2.190000e-06	1.552124e-06	-1.395712e-10	1.100486e+01	-1.106586e+01
2.200000e-06	1.596161e-06	-9.667302e-11	1.131709e+01	-8.534877e+00
2.210000e-06	1.640138e-06	-5.759852e-11	1.162890e+01	-5.963428e+00
2.220000e-06	1.683999e-06	-2.468436e-11	1.193988e+01	-3.353588e+00
2.230000e-06	1.727761e-06	1.017286e-11	1.225017e+01	-7.076692e-01
2.240000e-06	1.771488e-06	5.052344e-11	1.256020e+01	1.971820e+00
2.250000e-06	1.815202e-06	9.201236e-11	1.287014e+01	4.682222e+00
2.260000e-06	1.858797e-06	1.321953e-10	1.317924e+01	7.420773e+00
2.270000e-06	1.902261e-06	1.766904e-10	1.348741e+01	1.018464e+01
2.280000e-06	1.945667e-06	2.242272e-10	1.379516e+01	1.297093e+01
2.290000e-06	1.988873e-06	2.704041e-10	1.410150e+01	1.577677e+01
2.300000e-06	2.031842e-06	3.094277e-10	1.440616e+01	1.859924e+01
2.310000e-06	2.074657e-06	3.439614e-10	1.470973e+01	2.143544e+01
2.320000e-06	2.117196e-06	3.806402e-10	1.501134e+01	2.428243e+01
2.330000e-06	2.159483e-06	4.219080e-10	1.531116e+01	2.713725e+01
2.340000e-06	2.201492e-06	4.629771e-10	1.560901e+01	2.999689e+01
2.350000e-06	2.243189e-06	5.050085e-10	1.590465e+01	3.285825e+01
2.360000e-06	2.284637e-06	5.510698e-10	1.619852e+01	3.571810e+01
2.370000e-06	2.325766e-06	6.007997e-10	1.649014e+01	3.857311e+01
2.380000e-06	2.366636e-06	6.468558e-10	1.677991e+01	4.141976e+01
2.390000e-06	2.407298e-06	6.864218e-10	1.706822e+01	4.425436e+01
2.400000e-06	2.447717e-06	7.249921e-10	1.735480e+01	4.707306e+01
2.410000e-06	2.487901e-06	7.653378e-10	1.763971e+01	4.987182e+01
2.420000e-06	2.528007e-06	8.067806e-10	1.792407e+01	5.264646e+01
2.430000e-06	2.568072e-06	8.500204e-10	1.820814e+01	5.539268e+01
2.440000e-06	2.608011e-06	8.951468e-10	1.849131e+01	5.810613e+01
2.450000e-06	2.647865e-06	9.398363e-10	1.877388e+01	6.078244e+01
2.460000e-06	2.687663e-06	9.818397e-10	1.905606e+01	6.341730e+01
2.470000e-06	2.727358e-06	1.019664e-09	1.933750e+01	6.600654e+01
2.480000e-06	2.766906e-06	1.054189e-09	1.961791e+01	6.854620e+01
2.490000e-06	2.806237e-06	1.089930e-09	1.989677e+01	7.103262e+01
2.500000e-06	2.845314e-06	1.127068e-09	2.017384e+01	7.346251e+01
2.510000e-06	2.884207e-06	1.163519e-09	2.044960e+01	7.583302e+01
2.520000e-06	2.922886e-06	1.201851e-09	2.072384e+01	7.814179e+01
2.530000e-06	2.961271e-06	1.242378e-09	2.099600e+01	8.038700e+01
2.540000e-06	2.999440e-06	1.281745e-09	2.126662e+01	8.256739e+01
2.550000e-06	3.037437e-06	1.315148e-09	2.153603e+01	8.468230e+01
2.560000e-06	3.075269e-06	1.343534e-09	2.180426e+01	8.673162e+01
2.570000e-06	3.112979e-06	1.370142e-09	2.207163e+01	8.871579e+01
2.580000e-06	3.150489e-06	1.396927e-09	2.233758e+01	9.063575e+01
2.590000e-06	3.187685e-06	1.423561e-09	2.260132e+01	9.249288e+01
2.600000e-06	3.224595e-06	1.453322e-09	2.286302e+01	9.428893e+01
2.610000e-06	3.261364e-06	1.486125e-09	2.312371e+01	9.602595e+01
2.620000e-06	3.297880e-06	1.517904e-09	2.338262e+01	9.770616e+01
2.630000e-06	3.334077e-06	1.544462e-09	2.363926e+01	9.933194e+01
2.640000e-06	3.370132e-06	1.566032e-09	2.389490e+01	1.009056e+02
2.650000e-06	3.406085e-06	1.585909e-09	2.414981e+01	1.024296e+02
2.660000e-06	3.441900e-06	1.605825e-09	2.440375e+01	1.039060e+02
2.670000e-06	3.477527e-06	1.623111e-09	2.465635e+01	1.053368e+02
2.680000e-06	3.513028e-06	1.640180e-09	2.490806e+01	1.067238e+02
2.690000e-06	3.548375e-06	1.661918e-09	2.515868e+01	1.080684e+02
2.700000e-06	3.583445e-06	1.687606e-09	2.540733e+01	1.093718e+02
2.710000e-06	3.618104e-06	1.711903e-09	2.565307e+01	1.106349e+02
2.720000e-06	3.652193e-06	1.732007e-09	2.589477e+01	1.118583e+02
2.730000e-06	3.685778e-06	1.748222e-09	2.613289e+01	1.130422e+02
2.740000e-06	3.718963e-06	1.763986e-09	2.636818e+01	1.141869e+02
2.750000e-06	3.751796e-06	1.779165e-09	2.660097e+01	1.152922e+02
2.760000e-06	3.784363e-06	1.790983e-09	2.683188e+01	1.163580e+02
2.770000e-06	3.816701e-06	1.803296e-09	2.706116e+01	1.173839e+02
2.780000e-06	3.848774e-06	1.819986e-09	2.728857e+01	1.183698e+02
2.790000e-06	3.880650e-06	1.837675e-09	2.751457e+01	1.193154e+02
2.800000e-06	3.912395e-06	1.849882e-09	2.773965e+01	1.202205e+02
2.810000e-06	3.943928e-06	1.857309e-09	2.796323e+01	1.210852e+02
2.820000e-06	3.975242e-06	1.864774e-09	2.818525e+01	1.219096e+02
2.830000e-06	4.006273e-06	1.875933e-09	2.840526e+01	1.226940e+02
2.840000e-06	4.036953e-06	1.888041e-09	2.862279e+01	1.234390e+02
2.850000e-06	4.067313e-06	1.898632e-09	2.883805e+01	1.241452e+02
2.860000e-06	4.097422e-06	1.909289e-09	2.905153e+01	1.248136e+02
2.870000e-06	4.127257e-06	1.919867e-09	2.926306e+01	1.254453e+02
2.880000e-06	4.156835e-06	1.927084e-09	2.947278e+01	1.260416e+02
2.890000e-06	4.186184e-06	1.931552e-09	2.968087e+01	1.266037e+02
2.900000e-06	4.215213e-06	1.937293e-09	2.988669e+01	1.271333e+02
