# Temperatura_=_10.63
# Concentracion g/m^3_=_4090.0
# C_Vs_to_Am_M_A/Vsm_=_65563218390.804596
# pendiente_HvsI_1/m_=_3716.3
# ordenada_HvsI_A/m_=_1297.0
# frecuencia_Hz_=_135089.15896118648

Tiempo_(s)	Campo_(V.s)	Magnetizacion_(V.s)	Campo_(kA/m)	Magnetizacion_(A/m)
0.000000e+00	-5.406593e-06	-1.253261e-09	-3.838476e+01	-8.553921e+01
1.000000e-08	-5.406716e-06	-1.248301e-09	-3.838563e+01	-8.539294e+01
2.000000e-08	-5.406654e-06	-1.243619e-09	-3.838519e+01	-8.523236e+01
3.000000e-08	-5.406376e-06	-1.241875e-09	-3.838322e+01	-8.505750e+01
4.000000e-08	-5.405834e-06	-1.242598e-09	-3.837937e+01	-8.486911e+01
5.000000e-08	-5.404965e-06	-1.242556e-09	-3.837320e+01	-8.466874e+01
6.000000e-08	-5.403432e-06	-1.239262e-09	-3.836232e+01	-8.445875e+01
7.000000e-08	-5.401044e-06	-1.235597e-09	-3.834537e+01	-8.424229e+01
8.000000e-08	-5.398091e-06	-1.214602e-09	-3.832440e+01	-8.402326e+01
9.000000e-08	-5.394590e-06	-1.224060e-09	-3.829955e+01	-8.380613e+01
1.000000e-07	-5.390505e-06	-1.284466e-09	-3.827054e+01	-8.359590e+01
1.100000e-07	-5.386116e-06	-1.286402e-09	-3.823938e+01	-8.339784e+01
1.200000e-07	-5.381712e-06	-1.204814e-09	-3.820812e+01	-8.321732e+01
1.300000e-07	-5.377246e-06	-1.188713e-09	-3.817641e+01	-8.305961e+01
1.400000e-07	-5.372294e-06	-1.262633e-09	-3.814125e+01	-8.292962e+01
1.500000e-07	-5.366762e-06	-1.295532e-09	-3.810198e+01	-8.283171e+01
1.600000e-07	-5.360885e-06	-1.158531e-09	-3.806025e+01	-8.276945e+01
1.700000e-07	-5.354813e-06	-1.149548e-09	-3.801714e+01	-8.274546e+01
1.800000e-07	-5.348437e-06	-1.235360e-09	-3.797188e+01	-8.276127e+01
1.900000e-07	-5.341592e-06	-1.297633e-09	-3.792328e+01	-8.281717e+01
2.000000e-07	-5.334320e-06	-1.199548e-09	-3.787165e+01	-8.291220e+01
2.100000e-07	-5.326848e-06	-1.212297e-09	-3.781860e+01	-8.304412e+01
2.200000e-07	-5.319166e-06	-1.276934e-09	-3.776406e+01	-8.320942e+01
2.300000e-07	-5.311212e-06	-1.277333e-09	-3.770759e+01	-8.340350e+01
2.400000e-07	-5.302964e-06	-1.233633e-09	-3.764904e+01	-8.362073e+01
2.500000e-07	-5.294210e-06	-1.286897e-09	-3.758688e+01	-8.385469e+01
2.600000e-07	-5.284691e-06	-1.347615e-09	-3.751930e+01	-8.409840e+01
2.700000e-07	-5.274476e-06	-1.309793e-09	-3.744678e+01	-8.434453e+01
2.800000e-07	-5.263833e-06	-1.314091e-09	-3.737122e+01	-8.458569e+01
2.900000e-07	-5.252679e-06	-1.363596e-09	-3.729203e+01	-8.481471e+01
3.000000e-07	-5.241014e-06	-1.340060e-09	-3.720921e+01	-8.502484e+01
3.100000e-07	-5.228995e-06	-1.258135e-09	-3.712388e+01	-8.521008e+01
3.200000e-07	-5.216633e-06	-1.332453e-09	-3.703612e+01	-8.536528e+01
3.300000e-07	-5.203879e-06	-1.379104e-09	-3.694557e+01	-8.548639e+01
3.400000e-07	-5.190849e-06	-1.338050e-09	-3.685306e+01	-8.557053e+01
3.500000e-07	-5.177400e-06	-1.291032e-09	-3.675758e+01	-8.561607e+01
3.600000e-07	-5.163418e-06	-1.363819e-09	-3.665831e+01	-8.562265e+01
3.700000e-07	-5.149095e-06	-1.341643e-09	-3.655663e+01	-8.559112e+01
3.800000e-07	-5.134482e-06	-1.306117e-09	-3.645288e+01	-8.552346e+01
3.900000e-07	-5.119265e-06	-1.300673e-09	-3.634484e+01	-8.542266e+01
4.000000e-07	-5.103275e-06	-1.322374e-09	-3.623132e+01	-8.529251e+01
4.100000e-07	-5.086784e-06	-1.297703e-09	-3.611424e+01	-8.513742e+01
4.200000e-07	-5.070005e-06	-1.333982e-09	-3.599511e+01	-8.496220e+01
4.300000e-07	-5.052941e-06	-1.339247e-09	-3.587397e+01	-8.477184e+01
4.400000e-07	-5.035587e-06	-1.307889e-09	-3.575076e+01	-8.457124e+01
4.500000e-07	-5.017931e-06	-1.296660e-09	-3.562541e+01	-8.436506e+01
4.600000e-07	-4.999960e-06	-1.329107e-09	-3.549782e+01	-8.415749e+01
4.700000e-07	-4.981645e-06	-1.301359e-09	-3.536779e+01	-8.395212e+01
4.800000e-07	-4.962925e-06	-1.276176e-09	-3.523489e+01	-8.375182e+01
4.900000e-07	-4.943726e-06	-1.288846e-09	-3.509858e+01	-8.355865e+01
5.000000e-07	-4.924143e-06	-1.301813e-09	-3.495955e+01	-8.337386e+01
5.100000e-07	-4.904391e-06	-1.291550e-09	-3.481932e+01	-8.319785e+01
5.200000e-07	-4.884447e-06	-1.284810e-09	-3.467772e+01	-8.303031e+01
5.300000e-07	-4.864257e-06	-1.275057e-09	-3.453438e+01	-8.287022e+01
5.400000e-07	-4.843821e-06	-1.277404e-09	-3.438929e+01	-8.271604e+01
5.500000e-07	-4.823097e-06	-1.294004e-09	-3.424216e+01	-8.256579e+01
5.600000e-07	-4.801986e-06	-1.278636e-09	-3.409228e+01	-8.241729e+01
5.700000e-07	-4.780446e-06	-1.259748e-09	-3.393936e+01	-8.226821e+01
5.800000e-07	-4.758618e-06	-1.262184e-09	-3.378438e+01	-8.211632e+01
5.900000e-07	-4.736431e-06	-1.270216e-09	-3.362687e+01	-8.195959e+01
6.000000e-07	-4.713953e-06	-1.251542e-09	-3.346728e+01	-8.179630e+01
6.100000e-07	-4.691270e-06	-1.247142e-09	-3.330624e+01	-8.162516e+01
6.200000e-07	-4.668149e-06	-1.243580e-09	-3.314209e+01	-8.144534e+01
6.300000e-07	-4.644667e-06	-1.254760e-09	-3.297538e+01	-8.125655e+01
6.400000e-07	-4.620946e-06	-1.262781e-09	-3.280697e+01	-8.105900e+01
6.500000e-07	-4.597026e-06	-1.264336e-09	-3.263714e+01	-8.085338e+01
6.600000e-07	-4.572913e-06	-1.243668e-09	-3.246595e+01	-8.064078e+01
6.700000e-07	-4.548515e-06	-1.245223e-09	-3.229274e+01	-8.042266e+01
6.800000e-07	-4.523731e-06	-1.239872e-09	-3.211677e+01	-8.020066e+01
6.900000e-07	-4.498565e-06	-1.228137e-09	-3.193811e+01	-7.997658e+01
7.000000e-07	-4.472924e-06	-1.210027e-09	-3.175606e+01	-7.975221e+01
7.100000e-07	-4.446775e-06	-1.218089e-09	-3.157042e+01	-7.952922e+01
7.200000e-07	-4.420047e-06	-1.224747e-09	-3.138066e+01	-7.930910e+01
7.300000e-07	-4.392818e-06	-1.234715e-09	-3.118734e+01	-7.909301e+01
7.400000e-07	-4.365225e-06	-1.227299e-09	-3.099145e+01	-7.888178e+01
7.500000e-07	-4.337329e-06	-1.221860e-09	-3.079339e+01	-7.867584e+01
7.600000e-07	-4.309297e-06	-1.214147e-09	-3.059437e+01	-7.847522e+01
7.700000e-07	-4.281166e-06	-1.206990e-09	-3.039466e+01	-7.827952e+01
7.800000e-07	-4.252901e-06	-1.192615e-09	-3.019398e+01	-7.808802e+01
7.900000e-07	-4.224358e-06	-1.188684e-09	-2.999134e+01	-7.789969e+01
8.000000e-07	-4.195443e-06	-1.191105e-09	-2.978605e+01	-7.771325e+01
8.100000e-07	-4.166210e-06	-1.194061e-09	-2.957851e+01	-7.752732e+01
8.200000e-07	-4.136686e-06	-1.191750e-09	-2.936890e+01	-7.734044e+01
8.300000e-07	-4.106858e-06	-1.186542e-09	-2.915714e+01	-7.715122e+01
8.400000e-07	-4.076793e-06	-1.183051e-09	-2.894368e+01	-7.695841e+01
8.500000e-07	-4.046519e-06	-1.180875e-09	-2.872876e+01	-7.676095e+01
8.600000e-07	-4.015912e-06	-1.177329e-09	-2.851145e+01	-7.655808e+01
8.700000e-07	-3.985000e-06	-1.170298e-09	-2.829199e+01	-7.634934e+01
8.800000e-07	-3.953892e-06	-1.167706e-09	-2.807113e+01	-7.613462e+01
8.900000e-07	-3.922490e-06	-1.165371e-09	-2.784819e+01	-7.591412e+01
9.000000e-07	-3.890809e-06	-1.163984e-09	-2.762327e+01	-7.568838e+01
9.100000e-07	-3.858963e-06	-1.154561e-09	-2.739717e+01	-7.545818e+01
9.200000e-07	-3.826986e-06	-1.151668e-09	-2.717015e+01	-7.522453e+01
9.300000e-07	-3.794802e-06	-1.149390e-09	-2.694166e+01	-7.498857e+01
9.400000e-07	-3.762335e-06	-1.154016e-09	-2.671115e+01	-7.475147e+01
9.500000e-07	-3.729593e-06	-1.154770e-09	-2.647870e+01	-7.451439e+01
9.600000e-07	-3.696481e-06	-1.157882e-09	-2.624362e+01	-7.427839e+01
9.700000e-07	-3.662946e-06	-1.150433e-09	-2.600553e+01	-7.404433e+01
9.800000e-07	-3.629114e-06	-1.140407e-09	-2.576533e+01	-7.381282e+01
9.900000e-07	-3.594936e-06	-1.128537e-09	-2.552268e+01	-7.358421e+01
1.000000e-06	-3.560336e-06	-1.125467e-09	-2.527704e+01	-7.335853e+01
1.010000e-06	-3.525342e-06	-1.123889e-09	-2.502859e+01	-7.313548e+01
1.020000e-06	-3.489944e-06	-1.128305e-09	-2.477728e+01	-7.291448e+01
1.030000e-06	-3.454238e-06	-1.132410e-09	-2.452378e+01	-7.269468e+01
1.040000e-06	-3.418389e-06	-1.137375e-09	-2.426927e+01	-7.247501e+01
1.050000e-06	-3.382424e-06	-1.132942e-09	-2.401393e+01	-7.225428e+01
1.060000e-06	-3.346359e-06	-1.124018e-09	-2.375788e+01	-7.203120e+01
1.070000e-06	-3.310211e-06	-1.109649e-09	-2.350125e+01	-7.180450e+01
1.080000e-06	-3.273824e-06	-1.096735e-09	-2.324291e+01	-7.157301e+01
1.090000e-06	-3.237207e-06	-1.088515e-09	-2.298294e+01	-7.133570e+01
1.100000e-06	-3.200368e-06	-1.089260e-09	-2.272140e+01	-7.109179e+01
1.110000e-06	-3.163164e-06	-1.093022e-09	-2.245726e+01	-7.084077e+01
1.120000e-06	-3.125684e-06	-1.093932e-09	-2.219117e+01	-7.058241e+01
1.130000e-06	-3.088040e-06	-1.089746e-09	-2.192391e+01	-7.031686e+01
1.140000e-06	-3.050239e-06	-1.083012e-09	-2.165554e+01	-7.004455e+01
1.150000e-06	-3.012298e-06	-1.077297e-09	-2.138617e+01	-6.976620e+01
1.160000e-06	-2.974218e-06	-1.070326e-09	-2.111582e+01	-6.948281e+01
1.170000e-06	-2.935947e-06	-1.062142e-09	-2.084411e+01	-6.919556e+01
1.180000e-06	-2.897471e-06	-1.053842e-09	-2.057094e+01	-6.890575e+01
1.190000e-06	-2.858592e-06	-1.051048e-09	-2.029492e+01	-6.861473e+01
1.200000e-06	-2.819450e-06	-1.049596e-09	-2.001703e+01	-6.832382e+01
1.210000e-06	-2.780256e-06	-1.048151e-09	-1.973876e+01	-6.803425e+01
1.220000e-06	-2.740833e-06	-1.044322e-09	-1.945887e+01	-6.774704e+01
1.230000e-06	-2.701203e-06	-1.044181e-09	-1.917752e+01	-6.746298e+01
1.240000e-06	-2.661451e-06	-1.039251e-09	-1.889529e+01	-6.718260e+01
1.250000e-06	-2.621598e-06	-1.033676e-09	-1.861235e+01	-6.690608e+01
1.260000e-06	-2.581630e-06	-1.025085e-09	-1.832860e+01	-6.663332e+01
1.270000e-06	-2.541554e-06	-1.018985e-09	-1.804407e+01	-6.636387e+01
1.280000e-06	-2.501341e-06	-1.013303e-09	-1.775857e+01	-6.609702e+01
1.290000e-06	-2.460978e-06	-1.008700e-09	-1.747201e+01	-6.583180e+01
1.300000e-06	-2.420558e-06	-1.001495e-09	-1.718505e+01	-6.556706e+01
1.310000e-06	-2.380063e-06	-9.956722e-10	-1.689754e+01	-6.530152e+01
1.320000e-06	-2.339231e-06	-9.921999e-10	-1.660765e+01	-6.503388e+01
1.330000e-06	-2.298144e-06	-9.889422e-10	-1.631595e+01	-6.476282e+01
1.340000e-06	-2.256909e-06	-9.846104e-10	-1.602320e+01	-6.448713e+01
1.350000e-06	-2.215342e-06	-9.830303e-10	-1.572809e+01	-6.420576e+01
1.360000e-06	-2.173535e-06	-9.809081e-10	-1.543128e+01	-6.391783e+01
1.370000e-06	-2.131471e-06	-9.768331e-10	-1.513264e+01	-6.362271e+01
1.380000e-06	-2.089122e-06	-9.682731e-10	-1.483197e+01	-6.332002e+01
1.390000e-06	-2.046420e-06	-9.589528e-10	-1.452881e+01	-6.300964e+01
1.400000e-06	-2.003404e-06	-9.521474e-10	-1.422341e+01	-6.269166e+01
1.410000e-06	-1.960248e-06	-9.490294e-10	-1.391702e+01	-6.236639e+01
1.420000e-06	-1.916938e-06	-9.446884e-10	-1.360953e+01	-6.203428e+01
1.430000e-06	-1.873445e-06	-9.399483e-10	-1.330075e+01	-6.169589e+01
1.440000e-06	-1.829884e-06	-9.383807e-10	-1.299148e+01	-6.135182e+01
1.450000e-06	-1.786280e-06	-9.352888e-10	-1.268191e+01	-6.100264e+01
1.460000e-06	-1.742572e-06	-9.314897e-10	-1.237160e+01	-6.064881e+01
1.470000e-06	-1.698767e-06	-9.269133e-10	-1.206060e+01	-6.029066e+01
1.480000e-06	-1.654853e-06	-9.222982e-10	-1.174883e+01	-5.992832e+01
1.490000e-06	-1.610918e-06	-9.170916e-10	-1.143691e+01	-5.956170e+01
1.500000e-06	-1.566914e-06	-9.118969e-10	-1.112450e+01	-5.919045e+01
1.510000e-06	-1.522763e-06	-9.053002e-10	-1.081104e+01	-5.881399e+01
1.520000e-06	-1.478475e-06	-8.978795e-10	-1.049661e+01	-5.843151e+01
1.530000e-06	-1.434178e-06	-8.902716e-10	-1.018212e+01	-5.804200e+01
1.540000e-06	-1.389914e-06	-8.828303e-10	-9.867863e+00	-5.764432e+01
1.550000e-06	-1.345578e-06	-8.742653e-10	-9.553094e+00	-5.723723e+01
1.560000e-06	-1.301155e-06	-8.651812e-10	-9.237705e+00	-5.681947e+01
1.570000e-06	-1.256633e-06	-8.593291e-10	-8.921620e+00	-5.638985e+01
1.580000e-06	-1.211972e-06	-8.598046e-10	-8.604539e+00	-5.594730e+01
1.590000e-06	-1.167230e-06	-8.574002e-10	-8.286894e+00	-5.549093e+01
1.600000e-06	-1.122494e-06	-8.502881e-10	-7.969281e+00	-5.502010e+01
1.610000e-06	-1.077703e-06	-8.399753e-10	-7.651282e+00	-5.453445e+01
1.620000e-06	-1.032768e-06	-8.306036e-10	-7.332259e+00	-5.403393e+01
1.630000e-06	-9.877276e-07	-8.209853e-10	-7.012491e+00	-5.351881e+01
1.640000e-06	-9.425965e-07	-8.105961e-10	-6.692078e+00	-5.298965e+01
1.650000e-06	-8.973968e-07	-8.017347e-10	-6.371177e+00	-5.244730e+01
1.660000e-06	-8.521532e-07	-7.975854e-10	-6.049965e+00	-5.189279e+01
1.670000e-06	-8.068265e-07	-7.940549e-10	-5.728163e+00	-5.132734e+01
1.680000e-06	-7.613830e-07	-7.871483e-10	-5.405531e+00	-5.075222e+01
1.690000e-06	-7.158585e-07	-7.759360e-10	-5.082324e+00	-5.016867e+01
1.700000e-06	-6.703180e-07	-7.629869e-10	-4.759004e+00	-4.957785e+01
1.710000e-06	-6.248091e-07	-7.485895e-10	-4.435908e+00	-4.898072e+01
1.720000e-06	-5.792602e-07	-7.350470e-10	-4.112528e+00	-4.837796e+01
1.730000e-06	-5.336051e-07	-7.240635e-10	-3.788394e+00	-4.776991e+01
1.740000e-06	-4.879788e-07	-7.179891e-10	-3.464464e+00	-4.715651e+01
1.750000e-06	-4.422461e-07	-7.156439e-10	-3.139780e+00	-4.653728e+01
1.760000e-06	-3.964815e-07	-7.129038e-10	-2.814868e+00	-4.591128e+01
1.770000e-06	-3.507528e-07	-7.057329e-10	-2.490212e+00	-4.527716e+01
1.780000e-06	-3.049111e-07	-6.933353e-10	-2.164753e+00	-4.463313e+01
1.790000e-06	-2.590687e-07	-6.781016e-10	-1.839289e+00	-4.397707e+01
1.800000e-06	-2.131976e-07	-6.604894e-10	-1.513622e+00	-4.330657e+01
1.810000e-06	-1.673356e-07	-6.438282e-10	-1.188019e+00	-4.261902e+01
1.820000e-06	-1.214745e-07	-6.300020e-10	-8.624229e-01	-4.191168e+01
1.830000e-06	-7.561840e-08	-6.216699e-10	-5.368620e-01	-4.118184e+01
1.840000e-06	-2.980158e-08	-6.154504e-10	-2.115800e-01	-4.042685e+01
1.850000e-06	1.608661e-08	-6.087188e-10	1.142088e-01	-3.964426e+01
1.860000e-06	6.198440e-08	-6.004437e-10	4.400658e-01	-3.883186e+01
1.870000e-06	1.078735e-07	-5.908073e-10	7.658608e-01	-3.798781e+01
1.880000e-06	1.536992e-07	-5.776703e-10	1.091206e+00	-3.711064e+01
1.890000e-06	1.994952e-07	-5.595284e-10	1.416340e+00	-3.619932e+01
1.900000e-06	2.452903e-07	-5.360447e-10	1.741468e+00	-3.525324e+01
1.910000e-06	2.910186e-07	-5.156598e-10	2.066122e+00	-3.427222e+01
1.920000e-06	3.367832e-07	-5.016816e-10	2.391033e+00	-3.325648e+01
1.930000e-06	3.825413e-07	-4.902813e-10	2.715899e+00	-3.220657e+01
1.940000e-06	4.282077e-07	-4.778733e-10	3.040112e+00	-3.112336e+01
1.950000e-06	4.738403e-07	-4.646967e-10	3.364086e+00	-3.000790e+01
1.960000e-06	5.194914e-07	-4.512646e-10	3.688192e+00	-2.886138e+01
1.970000e-06	5.651424e-07	-4.338274e-10	4.012297e+00	-2.768507e+01
1.980000e-06	6.107805e-07	-4.096940e-10	4.336310e+00	-2.648017e+01
1.990000e-06	6.563835e-07	-3.818365e-10	4.660074e+00	-2.524781e+01
2.000000e-06	7.018990e-07	-3.566211e-10	4.983217e+00	-2.398895e+01
2.010000e-06	7.473448e-07	-3.373061e-10	5.305865e+00	-2.270436e+01
2.020000e-06	7.927777e-07	-3.207223e-10	5.628422e+00	-2.139456e+01
2.030000e-06	8.381351e-07	-3.032054e-10	5.950441e+00	-2.005986e+01
2.040000e-06	8.833943e-07	-2.868424e-10	6.271765e+00	-1.870030e+01
2.050000e-06	9.285834e-07	-2.707545e-10	6.592590e+00	-1.731574e+01
2.060000e-06	9.737121e-07	-2.484468e-10	6.912987e+00	-1.590587e+01
2.070000e-06	1.018747e-06	-2.217383e-10	7.232720e+00	-1.447024e+01
2.080000e-06	1.063729e-06	-1.949787e-10	7.552070e+00	-1.300839e+01
2.090000e-06	1.108698e-06	-1.696998e-10	7.871337e+00	-1.151984e+01
2.100000e-06	1.153514e-06	-1.455515e-10	8.189510e+00	-1.000421e+01
2.110000e-06	1.198200e-06	-1.216160e-10	8.506766e+00	-8.461260e+00
2.120000e-06	1.242814e-06	-9.888532e-11	8.823505e+00	-6.890966e+00
2.130000e-06	1.287301e-06	-7.807466e-11	9.139346e+00	-5.293551e+00
2.140000e-06	1.331688e-06	-5.666864e-11	9.454482e+00	-3.669528e+00
2.150000e-06	1.376035e-06	-3.149346e-11	9.769325e+00	-2.019723e+00
2.160000e-06	1.420366e-06	-5.189674e-12	1.008406e+01	-3.452723e-01
2.170000e-06	1.464656e-06	1.899039e-11	1.039851e+01	1.352379e+00
2.180000e-06	1.508840e-06	4.217179e-11	1.071219e+01	3.071509e+00
2.190000e-06	1.552886e-06	6.829730e-11	1.102490e+01	4.810151e+00
2.200000e-06	1.596867e-06	9.692617e-11	1.133715e+01	6.566142e+00
2.210000e-06	1.640828e-06	1.251468e-10	1.164925e+01	8.337178e+00
2.220000e-06	1.684768e-06	1.517875e-10	1.196121e+01	1.012087e+01
2.230000e-06	1.728633e-06	1.791077e-10	1.227264e+01	1.191479e+01
2.240000e-06	1.772424e-06	2.074566e-10	1.258354e+01	1.371654e+01
2.250000e-06	1.816133e-06	2.335815e-10	1.289386e+01	1.552380e+01
2.260000e-06	1.859748e-06	2.575865e-10	1.320351e+01	1.733432e+01
2.270000e-06	1.903196e-06	2.856985e-10	1.351197e+01	1.914603e+01
2.280000e-06	1.946458e-06	3.178614e-10	1.381912e+01	2.095695e+01
2.290000e-06	1.989689e-06	3.489111e-10	1.412604e+01	2.276528e+01
2.300000e-06	2.032872e-06	3.772200e-10	1.443262e+01	2.456933e+01
2.310000e-06	2.075903e-06	4.044015e-10	1.473812e+01	2.636752e+01
2.320000e-06	2.118540e-06	4.318744e-10	1.504083e+01	2.815834e+01
2.330000e-06	2.160771e-06	4.572746e-10	1.534066e+01	2.994034e+01
2.340000e-06	2.202619e-06	4.793737e-10	1.563776e+01	3.171205e+01
2.350000e-06	2.244101e-06	5.022559e-10	1.593226e+01	3.347196e+01
2.360000e-06	2.285386e-06	5.282102e-10	1.622538e+01	3.521850e+01
2.370000e-06	2.326443e-06	5.582996e-10	1.651686e+01	3.695000e+01
2.380000e-06	2.367202e-06	5.894872e-10	1.680624e+01	3.866466e+01
2.390000e-06	2.407696e-06	6.175212e-10	1.709373e+01	4.036055e+01
2.400000e-06	2.448052e-06	6.425705e-10	1.738024e+01	4.203561e+01
2.410000e-06	2.488213e-06	6.664642e-10	1.766537e+01	4.368769e+01
2.420000e-06	2.528254e-06	6.901523e-10	1.794964e+01	4.531453e+01
2.430000e-06	2.568288e-06	7.153194e-10	1.823387e+01	4.691386e+01
2.440000e-06	2.608255e-06	7.415230e-10	1.851763e+01	4.848340e+01
2.450000e-06	2.648067e-06	7.648714e-10	1.880027e+01	5.002091e+01
2.460000e-06	2.687681e-06	7.889670e-10	1.908152e+01	5.152429e+01
2.470000e-06	2.727232e-06	8.161811e-10	1.936232e+01	5.299161e+01
2.480000e-06	2.766653e-06	8.384035e-10	1.964219e+01	5.442115e+01
2.490000e-06	2.805824e-06	8.557841e-10	1.992029e+01	5.581146e+01
2.500000e-06	2.844800e-06	8.764872e-10	2.019700e+01	5.716140e+01
2.510000e-06	2.883613e-06	9.004560e-10	2.047256e+01	5.847017e+01
2.520000e-06	2.922150e-06	9.244582e-10	2.074616e+01	5.973730e+01
2.530000e-06	2.960427e-06	9.478322e-10	2.101791e+01	6.096266e+01
2.540000e-06	2.998527e-06	9.700044e-10	2.128841e+01	6.214647e+01
2.550000e-06	3.036413e-06	9.896037e-10	2.155738e+01	6.328921e+01
2.560000e-06	3.074168e-06	1.003471e-09	2.182543e+01	6.439166e+01
2.570000e-06	3.111716e-06	1.012983e-09	2.209200e+01	6.545479e+01
2.580000e-06	3.149077e-06	1.024527e-09	2.235726e+01	6.647972e+01
2.590000e-06	3.186306e-06	1.039049e-09	2.262157e+01	6.746769e+01
2.600000e-06	3.223248e-06	1.057727e-09	2.288384e+01	6.841997e+01
2.610000e-06	3.259877e-06	1.078448e-09	2.314389e+01	6.933785e+01
2.620000e-06	3.296253e-06	1.097250e-09	2.340215e+01	7.022251e+01
2.630000e-06	3.332489e-06	1.114663e-09	2.365941e+01	7.107510e+01
2.640000e-06	3.368634e-06	1.126799e-09	2.391602e+01	7.189661e+01
2.650000e-06	3.404622e-06	1.132440e-09	2.417153e+01	7.268790e+01
2.660000e-06	3.440478e-06	1.134964e-09	2.442609e+01	7.344972e+01
2.670000e-06	3.476265e-06	1.137223e-09	2.468016e+01	7.418265e+01
2.680000e-06	3.511796e-06	1.144585e-09	2.493242e+01	7.488721e+01
2.690000e-06	3.547023e-06	1.156271e-09	2.518252e+01	7.556380e+01
2.700000e-06	3.581992e-06	1.169905e-09	2.543079e+01	7.621280e+01
2.710000e-06	3.616539e-06	1.184832e-09	2.567605e+01	7.683458e+01
2.720000e-06	3.650561e-06	1.197990e-09	2.591760e+01	7.742956e+01
2.730000e-06	3.683954e-06	1.207754e-09	2.615468e+01	7.799819e+01
2.740000e-06	3.716805e-06	1.212965e-09	2.638791e+01	7.854108e+01
2.750000e-06	3.749327e-06	1.215498e-09	2.661880e+01	7.905893e+01
2.760000e-06	3.781699e-06	1.220692e-09	2.684863e+01	7.955259e+01
2.770000e-06	3.813922e-06	1.226807e-09	2.707740e+01	8.002305e+01
2.780000e-06	3.845922e-06	1.232953e-09	2.730459e+01	8.047147e+01
2.790000e-06	3.877831e-06	1.241050e-09	2.753113e+01	8.089909e+01
2.800000e-06	3.909629e-06	1.250576e-09	2.775689e+01	8.130725e+01
2.810000e-06	3.941163e-06	1.258308e-09	2.798076e+01	8.169736e+01
2.820000e-06	3.972403e-06	1.261130e-09	2.820256e+01	8.207081e+01
2.830000e-06	4.003405e-06	1.261028e-09	2.842266e+01	8.242896e+01
2.840000e-06	4.034103e-06	1.262201e-09	2.864060e+01	8.277309e+01
2.850000e-06	4.064405e-06	1.264995e-09	2.885573e+01	8.310433e+01
2.860000e-06	4.094455e-06	1.266519e-09	2.906908e+01	8.342366e+01
2.870000e-06	4.124283e-06	1.267179e-09	2.928085e+01	8.373183e+01
2.880000e-06	4.153899e-06	1.272553e-09	2.949111e+01	8.402939e+01
2.890000e-06	4.183274e-06	1.279535e-09	2.969966e+01	8.431664e+01
2.900000e-06	4.212283e-06	1.283083e-09	2.990562e+01	8.459367e+01
