# Temperatura_=_-3.18
# Concentracion g/m^3_=_4090.0
# C_Vs_to_Am_M_A/Vsm_=_65563218390.804596
# pendiente_HvsI_1/m_=_3716.3
# ordenada_HvsI_A/m_=_1297.0
# frecuencia_Hz_=_135069.15433429205

Tiempo_(s)	Campo_(V.s)	Magnetizacion_(V.s)	Campo_(kA/m)	Magnetizacion_(A/m)
0.000000e+00	-5.433322e-06	-1.616520e-09	-3.838835e+01	-1.096408e+02
1.000000e-08	-5.433491e-06	-1.613989e-09	-3.838954e+01	-1.095503e+02
2.000000e-08	-5.433413e-06	-1.607517e-09	-3.838899e+01	-1.094439e+02
3.000000e-08	-5.433068e-06	-1.599268e-09	-3.838655e+01	-1.093214e+02
4.000000e-08	-5.432419e-06	-1.596805e-09	-3.838197e+01	-1.091836e+02
5.000000e-08	-5.431381e-06	-1.600852e-09	-3.837463e+01	-1.090315e+02
6.000000e-08	-5.429725e-06	-1.615053e-09	-3.836293e+01	-1.088673e+02
7.000000e-08	-5.427362e-06	-1.641473e-09	-3.834624e+01	-1.086937e+02
8.000000e-08	-5.424443e-06	-1.613412e-09	-3.832562e+01	-1.085140e+02
9.000000e-08	-5.421005e-06	-1.516068e-09	-3.830132e+01	-1.083320e+02
1.000000e-07	-5.417050e-06	-1.546384e-09	-3.827338e+01	-1.081518e+02
1.100000e-07	-5.412725e-06	-1.720452e-09	-3.824282e+01	-1.079780e+02
1.200000e-07	-5.408142e-06	-1.684683e-09	-3.821044e+01	-1.078150e+02
1.300000e-07	-5.403382e-06	-1.489975e-09	-3.817681e+01	-1.076672e+02
1.400000e-07	-5.398401e-06	-1.496820e-09	-3.814162e+01	-1.075385e+02
1.500000e-07	-5.393064e-06	-1.754236e-09	-3.810391e+01	-1.074325e+02
1.600000e-07	-5.387288e-06	-1.740378e-09	-3.806310e+01	-1.073521e+02
1.700000e-07	-5.381129e-06	-1.443817e-09	-3.801959e+01	-1.072994e+02
1.800000e-07	-5.374590e-06	-1.449204e-09	-3.797338e+01	-1.072756e+02
1.900000e-07	-5.367629e-06	-1.704504e-09	-3.792420e+01	-1.072810e+02
2.000000e-07	-5.360327e-06	-1.723616e-09	-3.787261e+01	-1.073148e+02
2.100000e-07	-5.352742e-06	-1.524864e-09	-3.781902e+01	-1.073754e+02
2.200000e-07	-5.344952e-06	-1.600781e-09	-3.776398e+01	-1.074600e+02
2.300000e-07	-5.336907e-06	-1.752390e-09	-3.770714e+01	-1.075653e+02
2.400000e-07	-5.328459e-06	-1.663189e-09	-3.764745e+01	-1.076870e+02
2.500000e-07	-5.319573e-06	-1.564831e-09	-3.758467e+01	-1.078204e+02
2.600000e-07	-5.310191e-06	-1.723589e-09	-3.751839e+01	-1.079603e+02
2.700000e-07	-5.300068e-06	-1.772068e-09	-3.744686e+01	-1.081015e+02
2.800000e-07	-5.289301e-06	-1.614165e-09	-3.737078e+01	-1.082385e+02
2.900000e-07	-5.278141e-06	-1.635285e-09	-3.729194e+01	-1.083662e+02
3.000000e-07	-5.266571e-06	-1.789941e-09	-3.721019e+01	-1.084798e+02
3.100000e-07	-5.254514e-06	-1.680826e-09	-3.712500e+01	-1.085750e+02
3.200000e-07	-5.242072e-06	-1.535621e-09	-3.703710e+01	-1.086482e+02
3.300000e-07	-5.229300e-06	-1.669381e-09	-3.694686e+01	-1.086965e+02
3.400000e-07	-5.216078e-06	-1.757486e-09	-3.685344e+01	-1.087179e+02
3.500000e-07	-5.202459e-06	-1.640972e-09	-3.675722e+01	-1.087111e+02
3.600000e-07	-5.188420e-06	-1.636800e-09	-3.665803e+01	-1.086758e+02
3.700000e-07	-5.173799e-06	-1.732324e-09	-3.655472e+01	-1.086124e+02
3.800000e-07	-5.158802e-06	-1.673126e-09	-3.644876e+01	-1.085221e+02
3.900000e-07	-5.143410e-06	-1.624494e-09	-3.634002e+01	-1.084068e+02
4.000000e-07	-5.127377e-06	-1.673307e-09	-3.622673e+01	-1.082686e+02
4.100000e-07	-5.110785e-06	-1.642703e-09	-3.610951e+01	-1.081103e+02
4.200000e-07	-5.093844e-06	-1.590883e-09	-3.598981e+01	-1.079348e+02
4.300000e-07	-5.076594e-06	-1.681453e-09	-3.586794e+01	-1.077451e+02
4.400000e-07	-5.059078e-06	-1.707979e-09	-3.574418e+01	-1.075440e+02
4.500000e-07	-5.041336e-06	-1.622732e-09	-3.561883e+01	-1.073343e+02
4.600000e-07	-5.023213e-06	-1.617320e-09	-3.549078e+01	-1.071183e+02
4.700000e-07	-5.004641e-06	-1.681297e-09	-3.535956e+01	-1.068983e+02
4.800000e-07	-4.985699e-06	-1.646596e-09	-3.522573e+01	-1.066759e+02
4.900000e-07	-4.966461e-06	-1.604099e-09	-3.508981e+01	-1.064522e+02
5.000000e-07	-4.946872e-06	-1.610848e-09	-3.495141e+01	-1.062280e+02
5.100000e-07	-4.927022e-06	-1.626190e-09	-3.481116e+01	-1.060037e+02
5.200000e-07	-4.906978e-06	-1.635287e-09	-3.466954e+01	-1.057793e+02
5.300000e-07	-4.886645e-06	-1.633409e-09	-3.452588e+01	-1.055543e+02
5.400000e-07	-4.866017e-06	-1.593873e-09	-3.438013e+01	-1.053281e+02
5.500000e-07	-4.845141e-06	-1.596141e-09	-3.423264e+01	-1.051002e+02
5.600000e-07	-4.823969e-06	-1.635491e-09	-3.408305e+01	-1.048696e+02
5.700000e-07	-4.802444e-06	-1.626127e-09	-3.393097e+01	-1.046356e+02
5.800000e-07	-4.780538e-06	-1.587443e-09	-3.377619e+01	-1.043975e+02
5.900000e-07	-4.758331e-06	-1.589612e-09	-3.361930e+01	-1.041549e+02
6.000000e-07	-4.735838e-06	-1.604404e-09	-3.346038e+01	-1.039073e+02
6.100000e-07	-4.713025e-06	-1.602989e-09	-3.329919e+01	-1.036548e+02
6.200000e-07	-4.689910e-06	-1.584411e-09	-3.313588e+01	-1.033974e+02
6.300000e-07	-4.666430e-06	-1.560233e-09	-3.296998e+01	-1.031356e+02
6.400000e-07	-4.642699e-06	-1.573282e-09	-3.280231e+01	-1.028700e+02
6.500000e-07	-4.618756e-06	-1.606750e-09	-3.263315e+01	-1.026014e+02
6.600000e-07	-4.594495e-06	-1.596982e-09	-3.246173e+01	-1.023305e+02
6.700000e-07	-4.569894e-06	-1.561419e-09	-3.228793e+01	-1.020583e+02
6.800000e-07	-4.544861e-06	-1.565547e-09	-3.211105e+01	-1.017858e+02
6.900000e-07	-4.519323e-06	-1.581710e-09	-3.193062e+01	-1.015135e+02
7.000000e-07	-4.493270e-06	-1.571815e-09	-3.174655e+01	-1.012424e+02
7.100000e-07	-4.466775e-06	-1.544957e-09	-3.155935e+01	-1.009727e+02
7.200000e-07	-4.439846e-06	-1.539068e-09	-3.136909e+01	-1.007047e+02
7.300000e-07	-4.412524e-06	-1.553820e-09	-3.117604e+01	-1.004384e+02
7.400000e-07	-4.384972e-06	-1.566360e-09	-3.098138e+01	-1.001735e+02
7.500000e-07	-4.357224e-06	-1.548122e-09	-3.078533e+01	-9.990956e+01
7.600000e-07	-4.329274e-06	-1.535858e-09	-3.058786e+01	-9.964571e+01
7.700000e-07	-4.301081e-06	-1.545359e-09	-3.038866e+01	-9.938109e+01
7.800000e-07	-4.272573e-06	-1.554261e-09	-3.018724e+01	-9.911465e+01
7.900000e-07	-4.243795e-06	-1.537862e-09	-2.998392e+01	-9.884527e+01
8.000000e-07	-4.214742e-06	-1.521050e-09	-2.977865e+01	-9.857183e+01
8.100000e-07	-4.185337e-06	-1.519790e-09	-2.957089e+01	-9.829329e+01
8.200000e-07	-4.155610e-06	-1.527337e-09	-2.936086e+01	-9.800870e+01
8.300000e-07	-4.125670e-06	-1.522309e-09	-2.914932e+01	-9.771729e+01
8.400000e-07	-4.095504e-06	-1.507384e-09	-2.893619e+01	-9.741853e+01
8.500000e-07	-4.065030e-06	-1.501565e-09	-2.872088e+01	-9.711209e+01
8.600000e-07	-4.034270e-06	-1.511832e-09	-2.850355e+01	-9.679793e+01
8.700000e-07	-4.003267e-06	-1.510912e-09	-2.828450e+01	-9.647624e+01
8.800000e-07	-3.972060e-06	-1.492118e-09	-2.806401e+01	-9.614746e+01
8.900000e-07	-3.940589e-06	-1.477135e-09	-2.784166e+01	-9.581223e+01
9.000000e-07	-3.908870e-06	-1.479755e-09	-2.761756e+01	-9.547134e+01
9.100000e-07	-3.876982e-06	-1.482224e-09	-2.739226e+01	-9.512571e+01
9.200000e-07	-3.844918e-06	-1.469949e-09	-2.716571e+01	-9.477629e+01
9.300000e-07	-3.812649e-06	-1.457251e-09	-2.693772e+01	-9.442404e+01
9.400000e-07	-3.780095e-06	-1.459525e-09	-2.670771e+01	-9.406983e+01
9.500000e-07	-3.747141e-06	-1.466943e-09	-2.647488e+01	-9.371443e+01
9.600000e-07	-3.713763e-06	-1.461432e-09	-2.623905e+01	-9.335843e+01
9.700000e-07	-3.679910e-06	-1.448822e-09	-2.599987e+01	-9.300222e+01
9.800000e-07	-3.645613e-06	-1.441381e-09	-2.575755e+01	-9.264599e+01
9.900000e-07	-3.611018e-06	-1.440391e-09	-2.551312e+01	-9.228968e+01
1.000000e-06	-3.576077e-06	-1.434358e-09	-2.526625e+01	-9.193303e+01
1.010000e-06	-3.540787e-06	-1.426772e-09	-2.501692e+01	-9.157558e+01
1.020000e-06	-3.505274e-06	-1.422550e-09	-2.476600e+01	-9.121672e+01
1.030000e-06	-3.469552e-06	-1.423404e-09	-2.451362e+01	-9.085573e+01
1.040000e-06	-3.433680e-06	-1.420029e-09	-2.426017e+01	-9.049180e+01
1.050000e-06	-3.397672e-06	-1.412246e-09	-2.400576e+01	-9.012416e+01
1.060000e-06	-3.361491e-06	-1.403152e-09	-2.375013e+01	-8.975207e+01
1.070000e-06	-3.325155e-06	-1.399329e-09	-2.349340e+01	-8.937490e+01
1.080000e-06	-3.288573e-06	-1.393580e-09	-2.323493e+01	-8.899217e+01
1.090000e-06	-3.251730e-06	-1.384915e-09	-2.297463e+01	-8.860361e+01
1.100000e-06	-3.214632e-06	-1.376325e-09	-2.271251e+01	-8.820912e+01
1.110000e-06	-3.177251e-06	-1.371903e-09	-2.244840e+01	-8.780886e+01
1.120000e-06	-3.139679e-06	-1.367642e-09	-2.218294e+01	-8.740320e+01
1.130000e-06	-3.101928e-06	-1.361239e-09	-2.191622e+01	-8.699272e+01
1.140000e-06	-3.063937e-06	-1.352261e-09	-2.164780e+01	-8.657814e+01
1.150000e-06	-3.025727e-06	-1.345384e-09	-2.137783e+01	-8.616033e+01
1.160000e-06	-2.987294e-06	-1.340142e-09	-2.110629e+01	-8.574023e+01
1.170000e-06	-2.948663e-06	-1.334266e-09	-2.083335e+01	-8.531880e+01
1.180000e-06	-2.909815e-06	-1.326648e-09	-2.055887e+01	-8.489692e+01
1.190000e-06	-2.870781e-06	-1.317941e-09	-2.028309e+01	-8.447541e+01
1.200000e-06	-2.831589e-06	-1.311028e-09	-2.000618e+01	-8.405491e+01
1.210000e-06	-2.792196e-06	-1.307785e-09	-1.972785e+01	-8.363584e+01
1.220000e-06	-2.752688e-06	-1.304249e-09	-1.944872e+01	-8.321841e+01
1.230000e-06	-2.712988e-06	-1.298127e-09	-1.916822e+01	-8.280253e+01
1.240000e-06	-2.673140e-06	-1.290599e-09	-1.888668e+01	-8.238786e+01
1.250000e-06	-2.633261e-06	-1.282823e-09	-1.860493e+01	-8.197379e+01
1.260000e-06	-2.593293e-06	-1.277003e-09	-1.832253e+01	-8.155947e+01
1.270000e-06	-2.553199e-06	-1.268766e-09	-1.803926e+01	-8.114383e+01
1.280000e-06	-2.512945e-06	-1.259655e-09	-1.775485e+01	-8.072566e+01
1.290000e-06	-2.472515e-06	-1.253087e-09	-1.746920e+01	-8.030362e+01
1.300000e-06	-2.431921e-06	-1.248527e-09	-1.718239e+01	-7.987634e+01
1.310000e-06	-2.391098e-06	-1.240924e-09	-1.689396e+01	-7.944246e+01
1.320000e-06	-2.349979e-06	-1.231197e-09	-1.660344e+01	-7.900072e+01
1.330000e-06	-2.308610e-06	-1.223084e-09	-1.631115e+01	-7.854997e+01
1.340000e-06	-2.267031e-06	-1.217537e-09	-1.601738e+01	-7.808927e+01
1.350000e-06	-2.225109e-06	-1.212736e-09	-1.572119e+01	-7.761790e+01
1.360000e-06	-2.182856e-06	-1.209292e-09	-1.542265e+01	-7.713540e+01
1.370000e-06	-2.140424e-06	-1.204987e-09	-1.512286e+01	-7.664156e+01
1.380000e-06	-2.097761e-06	-1.198470e-09	-1.482143e+01	-7.613645e+01
1.390000e-06	-2.054811e-06	-1.188511e-09	-1.451797e+01	-7.562037e+01
1.400000e-06	-2.011592e-06	-1.175940e-09	-1.421261e+01	-7.509385e+01
1.410000e-06	-1.968283e-06	-1.163384e-09	-1.390662e+01	-7.455759e+01
1.420000e-06	-1.924960e-06	-1.155629e-09	-1.360053e+01	-7.401242e+01
1.430000e-06	-1.881536e-06	-1.152430e-09	-1.329372e+01	-7.345925e+01
1.440000e-06	-1.837969e-06	-1.149568e-09	-1.298591e+01	-7.289901e+01
1.450000e-06	-1.794194e-06	-1.144719e-09	-1.267662e+01	-7.233258e+01
1.460000e-06	-1.750326e-06	-1.139654e-09	-1.236668e+01	-7.176078e+01
1.470000e-06	-1.706410e-06	-1.132910e-09	-1.205639e+01	-7.118427e+01
1.480000e-06	-1.662391e-06	-1.119772e-09	-1.174539e+01	-7.060357e+01
1.490000e-06	-1.618297e-06	-1.103223e-09	-1.143384e+01	-7.001900e+01
1.500000e-06	-1.574099e-06	-1.092105e-09	-1.112157e+01	-6.943069e+01
1.510000e-06	-1.529808e-06	-1.087100e-09	-1.080864e+01	-6.883856e+01
1.520000e-06	-1.485465e-06	-1.082907e-09	-1.049534e+01	-6.824238e+01
1.530000e-06	-1.441042e-06	-1.073867e-09	-1.018147e+01	-6.764172e+01
1.540000e-06	-1.396492e-06	-1.062826e-09	-9.866711e+00	-6.703604e+01
1.550000e-06	-1.351808e-06	-1.053456e-09	-9.551007e+00	-6.642472e+01
1.560000e-06	-1.307063e-06	-1.044130e-09	-9.234864e+00	-6.580708e+01
1.570000e-06	-1.262320e-06	-1.030359e-09	-8.918740e+00	-6.518242e+01
1.580000e-06	-1.217438e-06	-1.014091e-09	-8.601630e+00	-6.455011e+01
1.590000e-06	-1.172353e-06	-1.002876e-09	-8.283093e+00	-6.390955e+01
1.600000e-06	-1.127248e-06	-9.949971e-10	-7.964405e+00	-6.326027e+01
1.610000e-06	-1.082141e-06	-9.866291e-10	-7.645712e+00	-6.260188e+01
1.620000e-06	-1.036913e-06	-9.785366e-10	-7.326155e+00	-6.193412e+01
1.630000e-06	-9.915820e-07	-9.714463e-10	-7.005878e+00	-6.125686e+01
1.640000e-06	-9.462279e-07	-9.619372e-10	-6.685436e+00	-6.057007e+01
1.650000e-06	-9.007394e-07	-9.500656e-10	-6.364043e+00	-5.987379e+01
1.660000e-06	-8.550643e-07	-9.372190e-10	-6.041333e+00	-5.916812e+01
1.670000e-06	-8.093810e-07	-9.253271e-10	-5.718564e+00	-5.845316e+01
1.680000e-06	-7.636960e-07	-9.139803e-10	-5.395783e+00	-5.772901e+01
1.690000e-06	-7.179472e-07	-9.012493e-10	-5.072551e+00	-5.699567e+01
1.700000e-06	-6.721726e-07	-8.883100e-10	-4.749138e+00	-5.625308e+01
1.710000e-06	-6.263477e-07	-8.785587e-10	-4.425369e+00	-5.550102e+01
1.720000e-06	-5.804652e-07	-8.693212e-10	-4.101193e+00	-5.473912e+01
1.730000e-06	-5.345693e-07	-8.588170e-10	-3.776922e+00	-5.396685e+01
1.740000e-06	-4.886581e-07	-8.465684e-10	-3.452543e+00	-5.318349e+01
1.750000e-06	-4.426983e-07	-8.333053e-10	-3.127821e+00	-5.238817e+01
1.760000e-06	-3.966873e-07	-8.187874e-10	-2.802736e+00	-5.157988e+01
1.770000e-06	-3.507049e-07	-8.039784e-10	-2.477855e+00	-5.075749e+01
1.780000e-06	-3.047586e-07	-7.885286e-10	-2.153228e+00	-4.991979e+01
1.790000e-06	-2.587935e-07	-7.738772e-10	-1.828468e+00	-4.906556e+01
1.800000e-06	-2.127821e-07	-7.619913e-10	-1.503381e+00	-4.819360e+01
1.810000e-06	-1.667296e-07	-7.505517e-10	-1.178004e+00	-4.730277e+01
1.820000e-06	-1.207392e-07	-7.367088e-10	-8.530652e-01	-4.639210e+01
1.830000e-06	-7.477329e-08	-7.209687e-10	-5.282998e-01	-4.546075e+01
1.840000e-06	-2.877962e-08	-7.041733e-10	-2.033382e-01	-4.450811e+01
1.850000e-06	1.722280e-08	-6.881709e-10	1.216852e-01	-4.353382e+01
1.860000e-06	6.323302e-08	-6.738555e-10	4.467637e-01	-4.253775e+01
1.870000e-06	1.093188e-07	-6.592576e-10	7.723764e-01	-4.152005e+01
1.880000e-06	1.554096e-07	-6.450244e-10	1.098024e+00	-4.048110e+01
1.890000e-06	2.014350e-07	-6.299149e-10	1.423209e+00	-3.942153e+01
1.900000e-06	2.474460e-07	-6.117983e-10	1.748294e+00	-3.834213e+01
1.910000e-06	2.933891e-07	-5.923652e-10	2.072898e+00	-3.724383e+01
1.920000e-06	3.393276e-07	-5.743840e-10	2.397470e+00	-3.612767e+01
1.930000e-06	3.852962e-07	-5.569999e-10	2.722254e+00	-3.499470e+01
1.940000e-06	4.312801e-07	-5.396108e-10	3.047147e+00	-3.384593e+01
1.950000e-06	4.772165e-07	-5.201235e-10	3.371704e+00	-3.268230e+01
1.960000e-06	5.230240e-07	-5.029041e-10	3.695350e+00	-3.150458e+01
1.970000e-06	5.687691e-07	-4.867889e-10	4.018556e+00	-3.031337e+01
1.980000e-06	6.145130e-07	-4.683236e-10	4.341752e+00	-2.910903e+01
1.990000e-06	6.602498e-07	-4.482776e-10	4.664899e+00	-2.789169e+01
2.000000e-06	7.059237e-07	-4.285694e-10	4.987601e+00	-2.666119e+01
2.010000e-06	7.515339e-07	-4.111650e-10	5.309854e+00	-2.541716e+01
2.020000e-06	7.971666e-07	-3.939748e-10	5.632265e+00	-2.415898e+01
2.030000e-06	8.427544e-07	-3.746708e-10	5.954359e+00	-2.288583e+01
2.040000e-06	8.882154e-07	-3.522644e-10	6.275557e+00	-2.159677e+01
2.050000e-06	9.335811e-07	-3.287459e-10	6.596082e+00	-2.029072e+01
2.060000e-06	9.788441e-07	-3.051085e-10	6.915881e+00	-1.896661e+01
2.070000e-06	1.024061e-06	-2.804718e-10	7.235353e+00	-1.762336e+01
2.080000e-06	1.069262e-06	-2.564344e-10	7.554713e+00	-1.626000e+01
2.090000e-06	1.114397e-06	-2.371191e-10	7.873613e+00	-1.487568e+01
2.100000e-06	1.159462e-06	-2.202090e-10	8.192013e+00	-1.346978e+01
2.110000e-06	1.204406e-06	-2.009488e-10	8.509557e+00	-1.204188e+01
2.120000e-06	1.249212e-06	-1.780422e-10	8.826124e+00	-1.059184e+01
2.130000e-06	1.293927e-06	-1.545722e-10	9.142055e+00	-9.119802e+00
2.140000e-06	1.338564e-06	-1.320302e-10	9.457429e+00	-7.626181e+00
2.150000e-06	1.383054e-06	-1.082403e-10	9.771767e+00	-6.111666e+00
2.160000e-06	1.427451e-06	-8.377799e-11	1.008545e+01	-4.577189e+00
2.170000e-06	1.471773e-06	-6.123282e-11	1.039860e+01	-3.023892e+00
2.180000e-06	1.515993e-06	-3.948067e-11	1.071103e+01	-1.453082e+00
2.190000e-06	1.560145e-06	-1.721062e-11	1.102297e+01	1.338166e-01
2.200000e-06	1.604215e-06	7.159220e-12	1.133434e+01	1.735316e+00
2.210000e-06	1.648248e-06	3.286307e-11	1.164546e+01	3.349919e+00
2.220000e-06	1.692254e-06	5.791058e-11	1.195638e+01	4.976166e+00
2.230000e-06	1.736211e-06	8.425724e-11	1.226695e+01	6.612680e+00
2.240000e-06	1.780118e-06	1.133201e-10	1.257717e+01	8.258204e+00
2.250000e-06	1.823961e-06	1.416273e-10	1.288693e+01	9.911621e+00
2.260000e-06	1.867736e-06	1.672706e-10	1.319622e+01	1.157198e+01
2.270000e-06	1.911417e-06	1.928930e-10	1.350484e+01	1.323847e+01
2.280000e-06	1.954949e-06	2.186216e-10	1.381241e+01	1.491045e+01
2.290000e-06	1.998381e-06	2.444388e-10	1.411927e+01	1.658741e+01
2.300000e-06	2.041646e-06	2.699526e-10	1.442495e+01	1.826893e+01
2.310000e-06	2.084629e-06	2.942264e-10	1.472864e+01	1.995466e+01
2.320000e-06	2.127332e-06	3.198478e-10	1.503036e+01	2.164429e+01
2.330000e-06	2.169915e-06	3.481894e-10	1.533122e+01	2.333746e+01
2.340000e-06	2.212291e-06	3.747756e-10	1.563062e+01	2.503379e+01
2.350000e-06	2.254296e-06	3.988548e-10	1.592740e+01	2.673277e+01
2.360000e-06	2.296024e-06	4.229031e-10	1.622222e+01	2.843379e+01
2.370000e-06	2.337319e-06	4.483829e-10	1.651399e+01	3.013606e+01
2.380000e-06	2.378215e-06	4.753899e-10	1.680293e+01	3.183864e+01
2.390000e-06	2.418911e-06	5.021103e-10	1.709046e+01	3.354041e+01
2.400000e-06	2.459391e-06	5.277141e-10	1.737647e+01	3.524007e+01
2.410000e-06	2.499671e-06	5.518409e-10	1.766106e+01	3.693617e+01
2.420000e-06	2.539863e-06	5.764607e-10	1.794503e+01	3.862715e+01
2.430000e-06	2.580011e-06	6.050813e-10	1.822869e+01	4.031131e+01
2.440000e-06	2.620063e-06	6.351706e-10	1.851167e+01	4.198693e+01
2.450000e-06	2.659968e-06	6.605563e-10	1.879362e+01	4.365224e+01
2.460000e-06	2.699758e-06	6.826592e-10	1.907475e+01	4.530550e+01
2.470000e-06	2.739521e-06	7.077352e-10	1.935569e+01	4.694503e+01
2.480000e-06	2.779166e-06	7.343102e-10	1.963579e+01	4.856924e+01
2.490000e-06	2.818543e-06	7.586302e-10	1.991401e+01	5.017668e+01
2.500000e-06	2.857745e-06	7.817241e-10	2.019098e+01	5.176604e+01
2.510000e-06	2.896768e-06	8.069098e-10	2.046669e+01	5.333618e+01
2.520000e-06	2.935469e-06	8.354100e-10	2.074013e+01	5.488614e+01
2.530000e-06	2.973899e-06	8.643714e-10	2.101165e+01	5.641511e+01
2.540000e-06	3.012150e-06	8.897420e-10	2.128191e+01	5.792248e+01
2.550000e-06	3.050163e-06	9.120829e-10	2.155048e+01	5.940774e+01
2.560000e-06	3.087979e-06	9.328411e-10	2.181766e+01	6.087054e+01
2.570000e-06	3.125738e-06	9.510980e-10	2.208445e+01	6.231061e+01
2.580000e-06	3.163312e-06	9.669981e-10	2.234992e+01	6.372775e+01
2.590000e-06	3.200667e-06	9.841833e-10	2.261385e+01	6.512178e+01
2.600000e-06	3.237832e-06	1.006861e-09	2.287643e+01	6.649256e+01
2.610000e-06	3.274665e-06	1.033794e-09	2.313667e+01	6.783992e+01
2.620000e-06	3.311196e-06	1.059171e-09	2.339477e+01	6.916367e+01
2.630000e-06	3.347480e-06	1.080447e-09	2.365113e+01	7.046358e+01
2.640000e-06	3.383603e-06	1.099262e-09	2.390635e+01	7.173938e+01
2.650000e-06	3.419625e-06	1.115767e-09	2.416086e+01	7.299074e+01
2.660000e-06	3.455534e-06	1.128143e-09	2.441457e+01	7.421731e+01
2.670000e-06	3.491339e-06	1.137832e-09	2.466755e+01	7.541871e+01
2.680000e-06	3.526970e-06	1.150492e-09	2.491929e+01	7.659456e+01
2.690000e-06	3.562392e-06	1.169252e-09	2.516956e+01	7.774451e+01
2.700000e-06	3.597480e-06	1.191739e-09	2.541747e+01	7.886824e+01
2.710000e-06	3.632179e-06	1.214907e-09	2.566264e+01	7.996547e+01
2.720000e-06	3.666457e-06	1.236175e-09	2.590482e+01	8.103603e+01
2.730000e-06	3.700196e-06	1.253650e-09	2.614320e+01	8.207982e+01
2.740000e-06	3.733491e-06	1.268517e-09	2.637844e+01	8.309685e+01
2.750000e-06	3.766360e-06	1.280718e-09	2.661067e+01	8.408724e+01
2.760000e-06	3.798868e-06	1.291986e-09	2.684035e+01	8.505121e+01
2.770000e-06	3.831207e-06	1.305377e-09	2.706883e+01	8.598906e+01
2.780000e-06	3.863388e-06	1.320133e-09	2.729621e+01	8.690119e+01
2.790000e-06	3.895447e-06	1.335768e-09	2.752271e+01	8.778806e+01
2.800000e-06	3.927358e-06	1.349529e-09	2.774818e+01	8.865016e+01
2.810000e-06	3.959053e-06	1.358966e-09	2.797212e+01	8.948799e+01
2.820000e-06	3.990512e-06	1.365960e-09	2.819438e+01	9.030206e+01
2.830000e-06	4.021626e-06	1.376284e-09	2.841421e+01	9.109285e+01
2.840000e-06	4.052379e-06	1.391706e-09	2.863149e+01	9.186079e+01
2.850000e-06	4.082886e-06	1.408477e-09	2.884703e+01	9.260623e+01
2.860000e-06	4.113134e-06	1.422665e-09	2.906075e+01	9.332949e+01
2.870000e-06	4.143037e-06	1.432791e-09	2.927202e+01	9.403081e+01
2.880000e-06	4.172669e-06	1.440339e-09	2.948139e+01	9.471037e+01
2.890000e-06	4.202074e-06	1.445608e-09	2.968914e+01	9.536829e+01
2.900000e-06	4.231312e-06	1.449077e-09	2.989572e+01	9.600469e+01
