# Temperatura_=_-0.16
# Concentracion g/m^3_=_4090.0
# C_Vs_to_Am_M_A/Vsm_=_65563218390.804596
# pendiente_HvsI_1/m_=_3716.3
# ordenada_HvsI_A/m_=_1297.0
# frecuencia_Hz_=_135078.9141468087

Tiempo_(s)	Campo_(V.s)	Magnetizacion_(V.s)	Campo_(kA/m)	Magnetizacion_(A/m)
0.000000e+00	-5.424263e-06	-1.963218e-09	-3.838437e+01	-1.308504e+02
1.000000e-08	-5.424348e-06	-1.955416e-09	-3.838497e+01	-1.307408e+02
2.000000e-08	-5.424246e-06	-1.950474e-09	-3.838425e+01	-1.306111e+02
3.000000e-08	-5.423794e-06	-1.948546e-09	-3.838105e+01	-1.304606e+02
4.000000e-08	-5.422760e-06	-1.950825e-09	-3.837374e+01	-1.302900e+02
5.000000e-08	-5.421151e-06	-1.955504e-09	-3.836235e+01	-1.301008e+02
6.000000e-08	-5.419059e-06	-1.962666e-09	-3.834755e+01	-1.298959e+02
7.000000e-08	-5.416318e-06	-1.966553e-09	-3.832816e+01	-1.296791e+02
8.000000e-08	-5.412946e-06	-1.953298e-09	-3.830429e+01	-1.294553e+02
9.000000e-08	-5.409119e-06	-1.935029e-09	-3.827721e+01	-1.292305e+02
1.000000e-07	-5.404878e-06	-1.982844e-09	-3.824720e+01	-1.290108e+02
1.100000e-07	-5.400451e-06	-1.999914e-09	-3.821587e+01	-1.288033e+02
1.200000e-07	-5.395996e-06	-1.968534e-09	-3.818435e+01	-1.286149e+02
1.300000e-07	-5.391274e-06	-1.896822e-09	-3.815093e+01	-1.284523e+02
1.400000e-07	-5.386091e-06	-1.968667e-09	-3.811425e+01	-1.283220e+02
1.500000e-07	-5.380460e-06	-2.025997e-09	-3.807440e+01	-1.282295e+02
1.600000e-07	-5.374444e-06	-1.978188e-09	-3.803184e+01	-1.281794e+02
1.700000e-07	-5.368053e-06	-1.872532e-09	-3.798661e+01	-1.281749e+02
1.800000e-07	-5.361211e-06	-1.945325e-09	-3.793819e+01	-1.282180e+02
1.900000e-07	-5.353918e-06	-2.031456e-09	-3.788659e+01	-1.283088e+02
2.000000e-07	-5.346358e-06	-1.985054e-09	-3.783308e+01	-1.284460e+02
2.100000e-07	-5.338618e-06	-1.912262e-09	-3.777831e+01	-1.286265e+02
2.200000e-07	-5.330648e-06	-1.977572e-09	-3.772191e+01	-1.288457e+02
2.300000e-07	-5.322456e-06	-2.044907e-09	-3.766395e+01	-1.290977e+02
2.400000e-07	-5.313953e-06	-1.989159e-09	-3.760377e+01	-1.293751e+02
2.500000e-07	-5.304794e-06	-1.994454e-09	-3.753896e+01	-1.296697e+02
2.600000e-07	-5.294915e-06	-2.060388e-09	-3.746906e+01	-1.299728e+02
2.700000e-07	-5.284375e-06	-2.089214e-09	-3.739447e+01	-1.302749e+02
2.800000e-07	-5.273259e-06	-2.022777e-09	-3.731581e+01	-1.305671e+02
2.900000e-07	-5.261792e-06	-2.041543e-09	-3.723466e+01	-1.308403e+02
3.000000e-07	-5.249967e-06	-2.061811e-09	-3.715098e+01	-1.310864e+02
3.100000e-07	-5.237824e-06	-2.041066e-09	-3.706505e+01	-1.312982e+02
3.200000e-07	-5.225259e-06	-2.006001e-09	-3.697614e+01	-1.314697e+02
3.300000e-07	-5.212220e-06	-2.066981e-09	-3.688387e+01	-1.315962e+02
3.400000e-07	-5.198801e-06	-2.057526e-09	-3.678891e+01	-1.316747e+02
3.500000e-07	-5.185057e-06	-2.034555e-09	-3.669165e+01	-1.317037e+02
3.600000e-07	-5.170960e-06	-2.025737e-09	-3.659189e+01	-1.316832e+02
3.700000e-07	-5.156468e-06	-2.052851e-09	-3.648935e+01	-1.316149e+02
3.800000e-07	-5.141317e-06	-1.999484e-09	-3.638213e+01	-1.315017e+02
3.900000e-07	-5.125370e-06	-1.999541e-09	-3.626928e+01	-1.313478e+02
4.000000e-07	-5.108969e-06	-2.019585e-09	-3.615322e+01	-1.311582e+02
4.100000e-07	-5.092216e-06	-2.020451e-09	-3.603467e+01	-1.309388e+02
4.200000e-07	-5.075109e-06	-1.996077e-09	-3.591361e+01	-1.306957e+02
4.300000e-07	-5.057768e-06	-2.019317e-09	-3.579090e+01	-1.304350e+02
4.400000e-07	-5.040241e-06	-2.028711e-09	-3.566687e+01	-1.301629e+02
4.500000e-07	-5.022480e-06	-2.002861e-09	-3.554119e+01	-1.298850e+02
4.600000e-07	-5.004289e-06	-1.990854e-09	-3.541246e+01	-1.296061e+02
4.700000e-07	-4.985642e-06	-1.996679e-09	-3.528050e+01	-1.293304e+02
4.800000e-07	-4.966619e-06	-1.993144e-09	-3.514589e+01	-1.290611e+02
4.900000e-07	-4.947175e-06	-1.972572e-09	-3.500830e+01	-1.288001e+02
5.000000e-07	-4.927421e-06	-1.972736e-09	-3.486851e+01	-1.285486e+02
5.100000e-07	-4.907518e-06	-1.971675e-09	-3.472767e+01	-1.283067e+02
5.200000e-07	-4.887441e-06	-1.981481e-09	-3.458559e+01	-1.280733e+02
5.300000e-07	-4.867127e-06	-1.971774e-09	-3.444185e+01	-1.278469e+02
5.400000e-07	-4.846535e-06	-1.972844e-09	-3.429613e+01	-1.276253e+02
5.500000e-07	-4.825549e-06	-1.965855e-09	-3.414762e+01	-1.274058e+02
5.600000e-07	-4.804176e-06	-1.970305e-09	-3.399638e+01	-1.271855e+02
5.700000e-07	-4.782496e-06	-1.954054e-09	-3.384296e+01	-1.269616e+02
5.800000e-07	-4.760511e-06	-1.946721e-09	-3.368738e+01	-1.267315e+02
5.900000e-07	-4.738207e-06	-1.928806e-09	-3.352956e+01	-1.264927e+02
6.000000e-07	-4.715541e-06	-1.933132e-09	-3.336916e+01	-1.262436e+02
6.100000e-07	-4.692428e-06	-1.937417e-09	-3.320560e+01	-1.259831e+02
6.200000e-07	-4.668989e-06	-1.944460e-09	-3.303974e+01	-1.257106e+02
6.300000e-07	-4.645356e-06	-1.931275e-09	-3.287250e+01	-1.254264e+02
6.400000e-07	-4.621542e-06	-1.939126e-09	-3.270398e+01	-1.251314e+02
6.500000e-07	-4.597581e-06	-1.937400e-09	-3.253442e+01	-1.248271e+02
6.600000e-07	-4.573335e-06	-1.924506e-09	-3.236285e+01	-1.245156e+02
6.700000e-07	-4.548691e-06	-1.904260e-09	-3.218846e+01	-1.241993e+02
6.800000e-07	-4.523568e-06	-1.906656e-09	-3.201068e+01	-1.238809e+02
6.900000e-07	-4.497948e-06	-1.905368e-09	-3.182938e+01	-1.235632e+02
7.000000e-07	-4.471818e-06	-1.904585e-09	-3.164447e+01	-1.232488e+02
7.100000e-07	-4.445125e-06	-1.898545e-09	-3.145558e+01	-1.229402e+02
7.200000e-07	-4.417944e-06	-1.897205e-09	-3.126324e+01	-1.226396e+02
7.300000e-07	-4.390452e-06	-1.897312e-09	-3.106869e+01	-1.223485e+02
7.400000e-07	-4.362749e-06	-1.894908e-09	-3.087265e+01	-1.220680e+02
7.500000e-07	-4.334859e-06	-1.884474e-09	-3.067529e+01	-1.217985e+02
7.600000e-07	-4.306808e-06	-1.877733e-09	-3.047679e+01	-1.215400e+02
7.700000e-07	-4.278563e-06	-1.880649e-09	-3.027692e+01	-1.212916e+02
7.800000e-07	-4.250065e-06	-1.878522e-09	-3.007525e+01	-1.210520e+02
7.900000e-07	-4.221209e-06	-1.873330e-09	-2.987106e+01	-1.208195e+02
8.000000e-07	-4.191971e-06	-1.865689e-09	-2.966416e+01	-1.205920e+02
8.100000e-07	-4.162430e-06	-1.863641e-09	-2.945511e+01	-1.203669e+02
8.200000e-07	-4.132662e-06	-1.860071e-09	-2.924446e+01	-1.201420e+02
8.300000e-07	-4.102609e-06	-1.859678e-09	-2.903179e+01	-1.199147e+02
8.400000e-07	-4.072292e-06	-1.851483e-09	-2.881726e+01	-1.196828e+02
8.500000e-07	-4.041676e-06	-1.851805e-09	-2.860061e+01	-1.194440e+02
8.600000e-07	-4.010673e-06	-1.849322e-09	-2.838122e+01	-1.191969e+02
8.700000e-07	-3.979481e-06	-1.846434e-09	-2.816048e+01	-1.189399e+02
8.800000e-07	-3.948143e-06	-1.830990e-09	-2.793873e+01	-1.186723e+02
8.900000e-07	-3.916538e-06	-1.821888e-09	-2.771508e+01	-1.183936e+02
9.000000e-07	-3.884735e-06	-1.812959e-09	-2.749002e+01	-1.181039e+02
9.100000e-07	-3.852819e-06	-1.811203e-09	-2.726417e+01	-1.178036e+02
9.200000e-07	-3.820710e-06	-1.805097e-09	-2.703696e+01	-1.174935e+02
9.300000e-07	-3.788391e-06	-1.807721e-09	-2.680825e+01	-1.171746e+02
9.400000e-07	-3.755758e-06	-1.811668e-09	-2.657733e+01	-1.168481e+02
9.500000e-07	-3.722795e-06	-1.814196e-09	-2.634407e+01	-1.165154e+02
9.600000e-07	-3.689408e-06	-1.804069e-09	-2.610781e+01	-1.161777e+02
9.700000e-07	-3.655453e-06	-1.790092e-09	-2.586753e+01	-1.158361e+02
9.800000e-07	-3.620987e-06	-1.774315e-09	-2.562363e+01	-1.154916e+02
9.900000e-07	-3.586013e-06	-1.765639e-09	-2.537614e+01	-1.151450e+02
1.000000e-06	-3.550704e-06	-1.760910e-09	-2.512628e+01	-1.147968e+02
1.010000e-06	-3.515199e-06	-1.761509e-09	-2.487504e+01	-1.144471e+02
1.020000e-06	-3.479583e-06	-1.763425e-09	-2.462300e+01	-1.140961e+02
1.030000e-06	-3.443846e-06	-1.764977e-09	-2.437010e+01	-1.137432e+02
1.040000e-06	-3.407961e-06	-1.759389e-09	-2.411617e+01	-1.133882e+02
1.050000e-06	-3.371987e-06	-1.745223e-09	-2.386161e+01	-1.130302e+02
1.060000e-06	-3.335823e-06	-1.727011e-09	-2.360569e+01	-1.126687e+02
1.070000e-06	-3.299448e-06	-1.712243e-09	-2.334829e+01	-1.123030e+02
1.080000e-06	-3.262863e-06	-1.705060e-09	-2.308939e+01	-1.119325e+02
1.090000e-06	-3.225933e-06	-1.701124e-09	-2.282807e+01	-1.115568e+02
1.100000e-06	-3.188659e-06	-1.700578e-09	-2.256430e+01	-1.111756e+02
1.110000e-06	-3.151180e-06	-1.698678e-09	-2.229908e+01	-1.107890e+02
1.120000e-06	-3.113561e-06	-1.697670e-09	-2.203287e+01	-1.103973e+02
1.130000e-06	-3.075770e-06	-1.689390e-09	-2.176545e+01	-1.100011e+02
1.140000e-06	-3.037815e-06	-1.677350e-09	-2.149686e+01	-1.096011e+02
1.150000e-06	-2.999661e-06	-1.663235e-09	-2.122687e+01	-1.091984e+02
1.160000e-06	-2.961306e-06	-1.656409e-09	-2.095545e+01	-1.087942e+02
1.170000e-06	-2.922690e-06	-1.649839e-09	-2.068219e+01	-1.083898e+02
1.180000e-06	-2.883856e-06	-1.644214e-09	-2.040738e+01	-1.079864e+02
1.190000e-06	-2.844827e-06	-1.634676e-09	-2.013120e+01	-1.075852e+02
1.200000e-06	-2.805497e-06	-1.630972e-09	-1.985288e+01	-1.071872e+02
1.210000e-06	-2.765997e-06	-1.628212e-09	-1.957336e+01	-1.067932e+02
1.220000e-06	-2.726388e-06	-1.624531e-09	-1.929308e+01	-1.064036e+02
1.230000e-06	-2.686612e-06	-1.616926e-09	-1.901160e+01	-1.060187e+02
1.240000e-06	-2.646724e-06	-1.612568e-09	-1.872934e+01	-1.056380e+02
1.250000e-06	-2.606787e-06	-1.611107e-09	-1.844672e+01	-1.052609e+02
1.260000e-06	-2.566775e-06	-1.607309e-09	-1.816358e+01	-1.048863e+02
1.270000e-06	-2.526678e-06	-1.594599e-09	-1.787984e+01	-1.045128e+02
1.280000e-06	-2.486469e-06	-1.580811e-09	-1.759530e+01	-1.041387e+02
1.290000e-06	-2.446025e-06	-1.570635e-09	-1.730910e+01	-1.037620e+02
1.300000e-06	-2.405367e-06	-1.564258e-09	-1.702139e+01	-1.033807e+02
1.310000e-06	-2.364511e-06	-1.558664e-09	-1.673228e+01	-1.029926e+02
1.320000e-06	-2.323331e-06	-1.556942e-09	-1.644087e+01	-1.025958e+02
1.330000e-06	-2.281903e-06	-1.558947e-09	-1.614771e+01	-1.021882e+02
1.340000e-06	-2.240157e-06	-1.559550e-09	-1.585230e+01	-1.017683e+02
1.350000e-06	-2.197963e-06	-1.552721e-09	-1.555371e+01	-1.013347e+02
1.360000e-06	-2.155559e-06	-1.538665e-09	-1.525364e+01	-1.008865e+02
1.370000e-06	-2.113006e-06	-1.524454e-09	-1.495252e+01	-1.004231e+02
1.380000e-06	-2.070196e-06	-1.513710e-09	-1.464958e+01	-9.994441e+01
1.390000e-06	-2.027179e-06	-1.506763e-09	-1.434518e+01	-9.945076e+01
1.400000e-06	-1.983961e-06	-1.499150e-09	-1.403935e+01	-9.894283e+01
1.410000e-06	-1.940527e-06	-1.494197e-09	-1.373199e+01	-9.842167e+01
1.420000e-06	-1.896987e-06	-1.492143e-09	-1.342388e+01	-9.788857e+01
1.430000e-06	-1.853385e-06	-1.490246e-09	-1.311534e+01	-9.734501e+01
1.440000e-06	-1.809586e-06	-1.480150e-09	-1.280540e+01	-9.679256e+01
1.450000e-06	-1.765666e-06	-1.465065e-09	-1.249460e+01	-9.623279e+01
1.460000e-06	-1.721747e-06	-1.450005e-09	-1.218381e+01	-9.566716e+01
1.470000e-06	-1.677795e-06	-1.442110e-09	-1.187279e+01	-9.509694e+01
1.480000e-06	-1.633794e-06	-1.436545e-09	-1.156142e+01	-9.452314e+01
1.490000e-06	-1.589735e-06	-1.429816e-09	-1.124964e+01	-9.394644e+01
1.500000e-06	-1.545601e-06	-1.423744e-09	-1.093733e+01	-9.336718e+01
1.510000e-06	-1.501420e-06	-1.419527e-09	-1.062468e+01	-9.278529e+01
1.520000e-06	-1.457171e-06	-1.411936e-09	-1.031155e+01	-9.220037e+01
1.530000e-06	-1.412847e-06	-1.397171e-09	-9.997902e+00	-9.161163e+01
1.540000e-06	-1.368453e-06	-1.377759e-09	-9.683749e+00	-9.101799e+01
1.550000e-06	-1.323912e-06	-1.362228e-09	-9.368562e+00	-9.041813e+01
1.560000e-06	-1.279221e-06	-1.350965e-09	-9.052308e+00	-8.981056e+01
1.570000e-06	-1.234404e-06	-1.341013e-09	-8.735162e+00	-8.919368e+01
1.580000e-06	-1.189505e-06	-1.329904e-09	-8.417438e+00	-8.856590e+01
1.590000e-06	-1.144534e-06	-1.321384e-09	-8.099206e+00	-8.792567e+01
1.600000e-06	-1.099414e-06	-1.314601e-09	-7.779920e+00	-8.727161e+01
1.610000e-06	-1.054173e-06	-1.303479e-09	-7.459770e+00	-8.660251e+01
1.620000e-06	-1.008953e-06	-1.287275e-09	-7.139775e+00	-8.591741e+01
1.630000e-06	-9.637248e-07	-1.273603e-09	-6.819724e+00	-8.521562e+01
1.640000e-06	-9.183581e-07	-1.263999e-09	-6.498690e+00	-8.449672e+01
1.650000e-06	-8.729376e-07	-1.253551e-09	-6.177275e+00	-8.376055e+01
1.660000e-06	-8.274908e-07	-1.237600e-09	-5.855674e+00	-8.300717e+01
1.670000e-06	-7.819192e-07	-1.222350e-09	-5.533190e+00	-8.223682e+01
1.680000e-06	-7.362844e-07	-1.211995e-09	-5.210259e+00	-8.144988e+01
1.690000e-06	-6.906257e-07	-1.201777e-09	-4.887159e+00	-8.064674e+01
1.700000e-06	-6.449842e-07	-1.188644e-09	-4.564180e+00	-7.982779e+01
1.710000e-06	-5.992315e-07	-1.174370e-09	-4.240415e+00	-7.899332e+01
1.720000e-06	-5.533920e-07	-1.164114e-09	-3.916036e+00	-7.814344e+01
1.730000e-06	-5.075817e-07	-1.154533e-09	-3.591863e+00	-7.727804e+01
1.740000e-06	-4.617075e-07	-1.138592e-09	-3.267237e+00	-7.639673e+01
1.750000e-06	-4.157778e-07	-1.116950e-09	-2.942219e+00	-7.549881e+01
1.760000e-06	-3.698422e-07	-1.098039e-09	-2.617159e+00	-7.458328e+01
1.770000e-06	-3.239074e-07	-1.081389e-09	-2.292105e+00	-7.364881e+01
1.780000e-06	-2.779389e-07	-1.065997e-09	-1.966813e+00	-7.269382e+01
1.790000e-06	-2.319018e-07	-1.050222e-09	-1.641035e+00	-7.171646e+01
1.800000e-06	-1.858849e-07	-1.036109e-09	-1.315400e+00	-7.071473e+01
1.810000e-06	-1.399112e-07	-1.022420e-09	-9.900706e-01	-6.968651e+01
1.820000e-06	-9.389766e-08	-1.005075e-09	-6.644595e-01	-6.862967e+01
1.830000e-06	-4.786446e-08	-9.820371e-10	-3.387091e-01	-6.754212e+01
1.840000e-06	-1.799921e-09	-9.598981e-10	-1.273700e-02	-6.642192e+01
1.850000e-06	4.416088e-08	-9.429193e-10	3.125011e-01	-6.526734e+01
1.860000e-06	9.002973e-08	-9.285771e-10	6.370884e-01	-6.407691e+01
1.870000e-06	1.359059e-07	-9.139279e-10	9.617273e-01	-6.284951e+01
1.880000e-06	1.817968e-07	-8.994599e-10	1.286471e+00	-6.158437e+01
1.890000e-06	2.277643e-07	-8.826472e-10	1.611756e+00	-6.028107e+01
1.900000e-06	2.737426e-07	-8.597658e-10	1.937118e+00	-5.893958e+01
1.910000e-06	3.196995e-07	-8.313342e-10	2.262329e+00	-5.756020e+01
1.920000e-06	3.656279e-07	-8.037549e-10	2.587338e+00	-5.614355e+01
1.930000e-06	4.115231e-07	-7.812192e-10	2.912111e+00	-5.469046e+01
1.940000e-06	4.574132e-07	-7.631079e-10	3.236849e+00	-5.320196e+01
1.950000e-06	5.032458e-07	-7.458365e-10	3.561180e+00	-5.167917e+01
1.960000e-06	5.489720e-07	-7.285457e-10	3.884757e+00	-5.012321e+01
1.970000e-06	5.945948e-07	-7.082982e-10	4.207604e+00	-4.853518e+01
1.980000e-06	6.401813e-07	-6.821914e-10	4.530193e+00	-4.691601e+01
1.990000e-06	6.857870e-07	-6.512608e-10	4.852918e+00	-4.526644e+01
2.000000e-06	7.314024e-07	-6.206857e-10	5.175712e+00	-4.358698e+01
2.010000e-06	7.769361e-07	-5.955627e-10	5.497928e+00	-4.187781e+01
2.020000e-06	8.224314e-07	-5.736266e-10	5.819872e+00	-4.013886e+01
2.030000e-06	8.678968e-07	-5.510966e-10	6.141604e+00	-3.836971e+01
2.040000e-06	9.132413e-07	-5.263626e-10	6.462481e+00	-3.656965e+01
2.050000e-06	9.585569e-07	-4.994719e-10	6.783153e+00	-3.473773e+01
2.060000e-06	1.003855e-06	-4.704554e-10	7.103699e+00	-3.287276e+01
2.070000e-06	1.049110e-06	-4.402116e-10	7.423942e+00	-3.097340e+01
2.080000e-06	1.094300e-06	-4.076918e-10	7.743729e+00	-2.903820e+01
2.090000e-06	1.139226e-06	-3.770058e-10	8.061644e+00	-2.706568e+01
2.100000e-06	1.183968e-06	-3.472208e-10	8.378258e+00	-2.505441e+01
2.110000e-06	1.228676e-06	-3.158193e-10	8.694628e+00	-2.300306e+01
2.120000e-06	1.273277e-06	-2.827763e-10	9.010244e+00	-2.091045e+01
2.130000e-06	1.317758e-06	-2.510533e-10	9.325014e+00	-1.877562e+01
2.140000e-06	1.362187e-06	-2.202011e-10	9.639410e+00	-1.659788e+01
2.150000e-06	1.406570e-06	-1.860760e-10	9.953480e+00	-1.437681e+01
2.160000e-06	1.450916e-06	-1.526728e-10	1.026730e+01	-1.211231e+01
2.170000e-06	1.495246e-06	-1.198372e-10	1.058099e+01	-9.804585e+00
2.180000e-06	1.539511e-06	-8.677692e-11	1.089423e+01	-7.454151e+00
2.190000e-06	1.583674e-06	-5.158389e-11	1.120675e+01	-5.061828e+00
2.200000e-06	1.627698e-06	-1.199158e-11	1.151828e+01	-2.628720e+00
2.210000e-06	1.671620e-06	2.718209e-11	1.182909e+01	-1.561927e-01
2.220000e-06	1.715491e-06	6.590902e-11	1.213954e+01	2.354144e+00
2.230000e-06	1.759300e-06	1.054618e-10	1.244955e+01	4.900458e+00
2.240000e-06	1.803108e-06	1.470897e-10	1.275955e+01	7.480716e+00
2.250000e-06	1.846888e-06	1.865334e-10	1.306936e+01	1.009269e+01
2.260000e-06	1.890523e-06	2.224134e-10	1.337814e+01	1.273397e+01
2.270000e-06	1.934072e-06	2.604121e-10	1.368631e+01	1.540196e+01
2.280000e-06	1.977444e-06	3.036063e-10	1.399323e+01	1.809389e+01
2.290000e-06	2.020590e-06	3.486374e-10	1.429855e+01	2.080679e+01
2.300000e-06	2.063599e-06	3.896000e-10	1.460290e+01	2.353747e+01
2.310000e-06	2.106441e-06	4.289391e-10	1.490607e+01	2.628255e+01
2.320000e-06	2.149010e-06	4.701391e-10	1.520730e+01	2.903840e+01
2.330000e-06	2.191299e-06	5.124024e-10	1.550656e+01	3.180119e+01
2.340000e-06	2.233266e-06	5.513144e-10	1.580354e+01	3.456683e+01
2.350000e-06	2.274961e-06	5.876462e-10	1.609859e+01	3.733102e+01
2.360000e-06	2.316356e-06	6.274292e-10	1.639151e+01	4.008927e+01
2.370000e-06	2.357328e-06	6.729469e-10	1.668145e+01	4.283688e+01
2.380000e-06	2.398037e-06	7.172279e-10	1.696952e+01	4.556908e+01
2.390000e-06	2.438542e-06	7.560652e-10	1.725615e+01	4.828098e+01
2.400000e-06	2.478887e-06	7.939000e-10	1.754165e+01	5.096770e+01
2.410000e-06	2.519139e-06	8.319344e-10	1.782649e+01	5.362442e+01
2.420000e-06	2.559288e-06	8.711010e-10	1.811060e+01	5.624646e+01
2.430000e-06	2.599334e-06	9.105289e-10	1.839398e+01	5.882936e+01
2.440000e-06	2.639253e-06	9.473439e-10	1.867647e+01	6.136895e+01
2.450000e-06	2.679055e-06	9.843745e-10	1.895812e+01	6.386144e+01
2.460000e-06	2.718732e-06	1.024345e-09	1.923889e+01	6.630348e+01
2.470000e-06	2.758296e-06	1.061424e-09	1.951887e+01	6.869221e+01
2.480000e-06	2.797761e-06	1.095909e-09	1.979814e+01	7.102530e+01
2.490000e-06	2.837016e-06	1.131564e-09	2.007592e+01	7.330097e+01
2.500000e-06	2.875938e-06	1.166769e-09	2.035135e+01	7.551799e+01
2.510000e-06	2.914594e-06	1.197360e-09	2.062490e+01	7.767569e+01
2.520000e-06	2.953105e-06	1.226839e-09	2.089742e+01	7.977389e+01
2.530000e-06	2.991378e-06	1.259491e-09	2.116825e+01	8.181288e+01
2.540000e-06	3.029438e-06	1.293358e-09	2.143758e+01	8.379335e+01
2.550000e-06	3.067344e-06	1.322729e-09	2.170582e+01	8.571629e+01
2.560000e-06	3.105030e-06	1.346707e-09	2.197250e+01	8.758297e+01
2.570000e-06	3.142561e-06	1.369731e-09	2.223809e+01	8.939478e+01
2.580000e-06	3.179941e-06	1.393702e-09	2.250260e+01	9.115320e+01
2.590000e-06	3.217059e-06	1.418313e-09	2.276527e+01	9.285971e+01
2.600000e-06	3.253905e-06	1.442673e-09	2.302600e+01	9.451571e+01
2.610000e-06	3.290522e-06	1.469967e-09	2.328512e+01	9.612249e+01
2.620000e-06	3.326924e-06	1.499851e-09	2.354272e+01	9.768114e+01
2.630000e-06	3.363144e-06	1.526686e-09	2.379903e+01	9.919259e+01
2.640000e-06	3.399201e-06	1.545271e-09	2.405418e+01	1.006575e+02
2.650000e-06	3.435103e-06	1.558225e-09	2.430824e+01	1.020765e+02
2.660000e-06	3.470875e-06	1.570652e-09	2.456138e+01	1.034499e+02
2.670000e-06	3.506504e-06	1.585016e-09	2.481351e+01	1.047779e+02
2.680000e-06	3.541927e-06	1.598888e-09	2.506417e+01	1.060607e+02
2.690000e-06	3.577063e-06	1.616242e-09	2.531281e+01	1.072984e+02
2.700000e-06	3.611895e-06	1.640072e-09	2.555929e+01	1.084912e+02
2.710000e-06	3.646343e-06	1.668002e-09	2.580306e+01	1.096392e+02
2.720000e-06	3.680178e-06	1.691267e-09	2.604249e+01	1.107429e+02
2.730000e-06	3.713433e-06	1.706529e-09	2.627782e+01	1.118027e+02
2.740000e-06	3.746399e-06	1.715563e-09	2.651110e+01	1.128195e+02
2.750000e-06	3.779090e-06	1.722297e-09	2.674244e+01	1.137941e+02
2.760000e-06	3.811447e-06	1.729940e-09	2.697141e+01	1.147277e+02
2.770000e-06	3.843555e-06	1.739387e-09	2.719862e+01	1.156216e+02
2.780000e-06	3.875518e-06	1.758250e-09	2.742480e+01	1.164774e+02
2.790000e-06	3.907373e-06	1.780886e-09	2.765022e+01	1.172966e+02
2.800000e-06	3.939003e-06	1.798319e-09	2.787405e+01	1.180809e+02
2.810000e-06	3.970378e-06	1.806847e-09	2.809607e+01	1.188321e+02
2.820000e-06	4.001521e-06	1.812193e-09	2.831645e+01	1.195517e+02
2.830000e-06	4.032372e-06	1.818976e-09	2.853477e+01	1.202413e+02
2.840000e-06	4.062966e-06	1.823821e-09	2.875126e+01	1.209023e+02
2.850000e-06	4.093320e-06	1.829539e-09	2.896606e+01	1.215359e+02
2.860000e-06	4.123329e-06	1.842127e-09	2.917841e+01	1.221430e+02
2.870000e-06	4.153128e-06	1.859532e-09	2.938929e+01	1.227243e+02
2.880000e-06	4.182679e-06	1.874374e-09	2.959840e+01	1.232804e+02
2.890000e-06	4.211883e-06	1.881658e-09	2.980506e+01	1.238114e+02
2.900000e-06	4.240831e-06	1.886963e-09	3.000991e+01	1.243175e+02
