# Temperatura_=_18.1
# Concentracion g/m^3_=_4090.0
# C_Vs_to_Am_M_A/Vsm_=_65563218390.804596
# pendiente_HvsI_1/m_=_3716.3
# ordenada_HvsI_A/m_=_1297.0
# frecuencia_Hz_=_135084.14647974528

Tiempo_(s)	Campo_(V.s)	Magnetizacion_(V.s)	Campo_(kA/m)	Magnetizacion_(A/m)
0.000000e+00	-5.428048e-06	-1.196169e-09	-3.839156e+01	-8.277800e+01
1.000000e-08	-5.428149e-06	-1.198586e-09	-3.839227e+01	-8.263618e+01
2.000000e-08	-5.428036e-06	-1.203482e-09	-3.839148e+01	-8.247279e+01
3.000000e-08	-5.427568e-06	-1.204186e-09	-3.838817e+01	-8.228798e+01
4.000000e-08	-5.426505e-06	-1.203232e-09	-3.838065e+01	-8.208296e+01
5.000000e-08	-5.424900e-06	-1.203410e-09	-3.836930e+01	-8.185996e+01
6.000000e-08	-5.422759e-06	-1.206715e-09	-3.835415e+01	-8.162231e+01
7.000000e-08	-5.420013e-06	-1.221807e-09	-3.833473e+01	-8.137430e+01
8.000000e-08	-5.416736e-06	-1.208687e-09	-3.831155e+01	-8.112110e+01
9.000000e-08	-5.412966e-06	-1.149682e-09	-3.828489e+01	-8.086861e+01
1.000000e-07	-5.408859e-06	-1.149075e-09	-3.825584e+01	-8.062322e+01
1.100000e-07	-5.404524e-06	-1.245350e-09	-3.822518e+01	-8.039159e+01
1.200000e-07	-5.400046e-06	-1.215064e-09	-3.819351e+01	-8.018040e+01
1.300000e-07	-5.395304e-06	-1.160563e-09	-3.815997e+01	-7.999608e+01
1.400000e-07	-5.390088e-06	-1.153127e-09	-3.812308e+01	-7.984453e+01
1.500000e-07	-5.384541e-06	-1.269413e-09	-3.808384e+01	-7.973084e+01
1.600000e-07	-5.378675e-06	-1.246917e-09	-3.804236e+01	-7.965911e+01
1.700000e-07	-5.372401e-06	-1.115281e-09	-3.799798e+01	-7.963220e+01
1.800000e-07	-5.365631e-06	-1.118269e-09	-3.795010e+01	-7.965161e+01
1.900000e-07	-5.358480e-06	-1.207435e-09	-3.789952e+01	-7.971738e+01
2.000000e-07	-5.351135e-06	-1.201097e-09	-3.784757e+01	-7.982805e+01
2.100000e-07	-5.343641e-06	-1.131185e-09	-3.779457e+01	-7.998066e+01
2.200000e-07	-5.335909e-06	-1.203013e-09	-3.773988e+01	-8.017088e+01
2.300000e-07	-5.327851e-06	-1.275246e-09	-3.768289e+01	-8.039313e+01
2.400000e-07	-5.319314e-06	-1.229889e-09	-3.762250e+01	-8.064076e+01
2.500000e-07	-5.310045e-06	-1.192329e-09	-3.755695e+01	-8.090634e+01
2.600000e-07	-5.300086e-06	-1.291612e-09	-3.748651e+01	-8.118188e+01
2.700000e-07	-5.289560e-06	-1.295253e-09	-3.741206e+01	-8.145915e+01
2.800000e-07	-5.278577e-06	-1.230093e-09	-3.733438e+01	-8.172999e+01
2.900000e-07	-5.267170e-06	-1.246430e-09	-3.725370e+01	-8.198657e+01
3.000000e-07	-5.255336e-06	-1.318271e-09	-3.717000e+01	-8.222174e+01
3.100000e-07	-5.243032e-06	-1.269418e-09	-3.708298e+01	-8.242917e+01
3.200000e-07	-5.230372e-06	-1.244469e-09	-3.699343e+01	-8.260366e+01
3.300000e-07	-5.217428e-06	-1.286759e-09	-3.690189e+01	-8.274123e+01
3.400000e-07	-5.204149e-06	-1.294181e-09	-3.680796e+01	-8.283923e+01
3.500000e-07	-5.190501e-06	-1.247246e-09	-3.671144e+01	-8.289638e+01
3.600000e-07	-5.176479e-06	-1.291266e-09	-3.661226e+01	-8.291276e+01
3.700000e-07	-5.162048e-06	-1.288246e-09	-3.651019e+01	-8.288970e+01
3.800000e-07	-5.146952e-06	-1.226160e-09	-3.640342e+01	-8.282968e+01
3.900000e-07	-5.131112e-06	-1.223806e-09	-3.629139e+01	-8.273612e+01
4.000000e-07	-5.114835e-06	-1.280314e-09	-3.617627e+01	-8.261321e+01
4.100000e-07	-5.098165e-06	-1.248511e-09	-3.605836e+01	-8.246562e+01
4.200000e-07	-5.081130e-06	-1.216448e-09	-3.593788e+01	-8.229831e+01
4.300000e-07	-5.063822e-06	-1.270332e-09	-3.581546e+01	-8.211625e+01
4.400000e-07	-5.046255e-06	-1.285743e-09	-3.569121e+01	-8.192419e+01
4.500000e-07	-5.028460e-06	-1.247480e-09	-3.556535e+01	-8.172646e+01
4.600000e-07	-5.010325e-06	-1.234358e-09	-3.543709e+01	-8.152681e+01
4.700000e-07	-4.991787e-06	-1.241883e-09	-3.530597e+01	-8.132824e+01
4.800000e-07	-4.972846e-06	-1.217676e-09	-3.517200e+01	-8.113295e+01
4.900000e-07	-4.953527e-06	-1.226237e-09	-3.503536e+01	-8.094229e+01
5.000000e-07	-4.933955e-06	-1.229642e-09	-3.489693e+01	-8.075676e+01
5.100000e-07	-4.914200e-06	-1.223961e-09	-3.475721e+01	-8.057608e+01
5.200000e-07	-4.894175e-06	-1.231111e-09	-3.461558e+01	-8.039929e+01
5.300000e-07	-4.873823e-06	-1.256542e-09	-3.447163e+01	-8.022488e+01
5.400000e-07	-4.853107e-06	-1.230561e-09	-3.432511e+01	-8.005094e+01
5.500000e-07	-4.832001e-06	-1.213102e-09	-3.417583e+01	-7.987534e+01
5.600000e-07	-4.810603e-06	-1.217461e-09	-3.402449e+01	-7.969590e+01
5.700000e-07	-4.788942e-06	-1.224192e-09	-3.387129e+01	-7.951057e+01
5.800000e-07	-4.766993e-06	-1.202578e-09	-3.371604e+01	-7.931759e+01
5.900000e-07	-4.744763e-06	-1.194246e-09	-3.355881e+01	-7.911560e+01
6.000000e-07	-4.722117e-06	-1.192907e-09	-3.339864e+01	-7.890378e+01
6.100000e-07	-4.699074e-06	-1.209724e-09	-3.323566e+01	-7.868188e+01
6.200000e-07	-4.675733e-06	-1.212129e-09	-3.307058e+01	-7.845027e+01
6.300000e-07	-4.652109e-06	-1.201811e-09	-3.290349e+01	-7.820991e+01
6.400000e-07	-4.628282e-06	-1.195252e-09	-3.273497e+01	-7.796232e+01
6.500000e-07	-4.604315e-06	-1.204512e-09	-3.256545e+01	-7.770949e+01
6.600000e-07	-4.580072e-06	-1.196177e-09	-3.239398e+01	-7.745373e+01
6.700000e-07	-4.555420e-06	-1.178315e-09	-3.221963e+01	-7.719762e+01
6.800000e-07	-4.530327e-06	-1.169006e-09	-3.204215e+01	-7.694378e+01
6.900000e-07	-4.504677e-06	-1.174255e-09	-3.186073e+01	-7.669475e+01
7.000000e-07	-4.478506e-06	-1.181205e-09	-3.167563e+01	-7.645285e+01
7.100000e-07	-4.451894e-06	-1.178236e-09	-3.148741e+01	-7.622006e+01
7.200000e-07	-4.424736e-06	-1.169901e-09	-3.129533e+01	-7.599786e+01
7.300000e-07	-4.397185e-06	-1.168992e-09	-3.110046e+01	-7.578719e+01
7.400000e-07	-4.369549e-06	-1.175064e-09	-3.090499e+01	-7.558837e+01
7.500000e-07	-4.341811e-06	-1.167163e-09	-3.070881e+01	-7.540111e+01
7.600000e-07	-4.313866e-06	-1.157213e-09	-3.051116e+01	-7.522448e+01
7.700000e-07	-4.285646e-06	-1.151581e-09	-3.031157e+01	-7.505700e+01
7.800000e-07	-4.257036e-06	-1.155089e-09	-3.010921e+01	-7.489669e+01
7.900000e-07	-4.228077e-06	-1.153428e-09	-2.990439e+01	-7.474120e+01
8.000000e-07	-4.198815e-06	-1.149415e-09	-2.969742e+01	-7.458790e+01
8.100000e-07	-4.169301e-06	-1.142864e-09	-2.948868e+01	-7.443407e+01
8.200000e-07	-4.139611e-06	-1.146688e-09	-2.927869e+01	-7.427697e+01
8.300000e-07	-4.109696e-06	-1.144806e-09	-2.906711e+01	-7.411403e+01
8.400000e-07	-4.079390e-06	-1.137779e-09	-2.885276e+01	-7.394298e+01
8.500000e-07	-4.048639e-06	-1.127023e-09	-2.863526e+01	-7.376190e+01
8.600000e-07	-4.017707e-06	-1.127093e-09	-2.841649e+01	-7.356938e+01
8.700000e-07	-3.986619e-06	-1.127067e-09	-2.819661e+01	-7.336451e+01
8.800000e-07	-3.955282e-06	-1.124650e-09	-2.797496e+01	-7.314696e+01
8.900000e-07	-3.923679e-06	-1.115333e-09	-2.775144e+01	-7.291694e+01
9.000000e-07	-3.891907e-06	-1.110844e-09	-2.752672e+01	-7.267518e+01
9.100000e-07	-3.860062e-06	-1.106601e-09	-2.730149e+01	-7.242288e+01
9.200000e-07	-3.828060e-06	-1.103954e-09	-2.707515e+01	-7.216161e+01
9.300000e-07	-3.795719e-06	-1.098552e-09	-2.684641e+01	-7.189322e+01
9.400000e-07	-3.763001e-06	-1.100188e-09	-2.661500e+01	-7.161972e+01
9.500000e-07	-3.729953e-06	-1.103679e-09	-2.638126e+01	-7.134316e+01
9.600000e-07	-3.696512e-06	-1.103449e-09	-2.614473e+01	-7.106553e+01
9.700000e-07	-3.662529e-06	-1.092823e-09	-2.590438e+01	-7.078863e+01
9.800000e-07	-3.628037e-06	-1.081241e-09	-2.566042e+01	-7.051400e+01
9.900000e-07	-3.593223e-06	-1.072559e-09	-2.541419e+01	-7.024283e+01
1.000000e-06	-3.558217e-06	-1.067792e-09	-2.516660e+01	-6.997593e+01
1.010000e-06	-3.523037e-06	-1.064652e-09	-2.491778e+01	-6.971368e+01
1.020000e-06	-3.487536e-06	-1.062951e-09	-2.466669e+01	-6.945604e+01
1.030000e-06	-3.451783e-06	-1.065404e-09	-2.441381e+01	-6.920258e+01
1.040000e-06	-3.415876e-06	-1.065403e-09	-2.415985e+01	-6.895252e+01
1.050000e-06	-3.379839e-06	-1.060386e-09	-2.390496e+01	-6.870480e+01
1.060000e-06	-3.343657e-06	-1.049108e-09	-2.364906e+01	-6.845816e+01
1.070000e-06	-3.307250e-06	-1.038722e-09	-2.339155e+01	-6.821121e+01
1.080000e-06	-3.270511e-06	-1.032879e-09	-2.313171e+01	-6.796257e+01
1.090000e-06	-3.233554e-06	-1.034338e-09	-2.287032e+01	-6.771091e+01
1.100000e-06	-3.196435e-06	-1.031359e-09	-2.260778e+01	-6.745503e+01
1.110000e-06	-3.159024e-06	-1.027585e-09	-2.234318e+01	-6.719399e+01
1.120000e-06	-3.121396e-06	-1.026758e-09	-2.207704e+01	-6.692708e+01
1.130000e-06	-3.083580e-06	-1.025847e-09	-2.180958e+01	-6.665393e+01
1.140000e-06	-3.045609e-06	-1.018446e-09	-2.154102e+01	-6.637447e+01
1.150000e-06	-3.007374e-06	-1.010754e-09	-2.127059e+01	-6.608894e+01
1.160000e-06	-2.968958e-06	-1.004610e-09	-2.099888e+01	-6.579787e+01
1.170000e-06	-2.930451e-06	-1.002442e-09	-2.072653e+01	-6.550203e+01
1.180000e-06	-2.891629e-06	-9.968526e-10	-2.045195e+01	-6.520235e+01
1.190000e-06	-2.852533e-06	-9.899928e-10	-2.017543e+01	-6.489988e+01
1.200000e-06	-2.813271e-06	-9.846578e-10	-1.989773e+01	-6.459572e+01
1.210000e-06	-2.773801e-06	-9.860198e-10	-1.961857e+01	-6.429091e+01
1.220000e-06	-2.734166e-06	-9.870668e-10	-1.933824e+01	-6.398638e+01
1.230000e-06	-2.694455e-06	-9.845581e-10	-1.905737e+01	-6.368291e+01
1.240000e-06	-2.654659e-06	-9.766316e-10	-1.877590e+01	-6.338104e+01
1.250000e-06	-2.614789e-06	-9.704795e-10	-1.849391e+01	-6.308104e+01
1.260000e-06	-2.574822e-06	-9.666196e-10	-1.821123e+01	-6.278295e+01
1.270000e-06	-2.534692e-06	-9.609155e-10	-1.792740e+01	-6.248649e+01
1.280000e-06	-2.494438e-06	-9.544195e-10	-1.764269e+01	-6.219115e+01
1.290000e-06	-2.454092e-06	-9.512420e-10	-1.735733e+01	-6.189619e+01
1.300000e-06	-2.413582e-06	-9.470890e-10	-1.707081e+01	-6.160071e+01
1.310000e-06	-2.372777e-06	-9.404521e-10	-1.678220e+01	-6.130367e+01
1.320000e-06	-2.331570e-06	-9.342255e-10	-1.649076e+01	-6.100400e+01
1.330000e-06	-2.290033e-06	-9.275835e-10	-1.619698e+01	-6.070062e+01
1.340000e-06	-2.248143e-06	-9.254251e-10	-1.590069e+01	-6.039253e+01
1.350000e-06	-2.205962e-06	-9.250064e-10	-1.560235e+01	-6.007888e+01
1.360000e-06	-2.163570e-06	-9.232487e-10	-1.530252e+01	-5.975896e+01
1.370000e-06	-2.120992e-06	-9.182547e-10	-1.500137e+01	-5.943229e+01
1.380000e-06	-2.078303e-06	-9.102749e-10	-1.469945e+01	-5.909862e+01
1.390000e-06	-2.035256e-06	-9.005663e-10	-1.439498e+01	-5.875791e+01
1.400000e-06	-1.991890e-06	-8.909240e-10	-1.408826e+01	-5.841037e+01
1.410000e-06	-1.948450e-06	-8.819060e-10	-1.378102e+01	-5.805636e+01
1.420000e-06	-1.904911e-06	-8.795790e-10	-1.347308e+01	-5.769641e+01
1.430000e-06	-1.861270e-06	-8.820718e-10	-1.316441e+01	-5.733114e+01
1.440000e-06	-1.817538e-06	-8.857160e-10	-1.285510e+01	-5.696119e+01
1.450000e-06	-1.773782e-06	-8.814450e-10	-1.254563e+01	-5.658720e+01
1.460000e-06	-1.729966e-06	-8.719598e-10	-1.223572e+01	-5.620971e+01
1.470000e-06	-1.686023e-06	-8.625774e-10	-1.192493e+01	-5.582914e+01
1.480000e-06	-1.641965e-06	-8.543271e-10	-1.161331e+01	-5.544571e+01
1.490000e-06	-1.597839e-06	-8.448234e-10	-1.130121e+01	-5.505944e+01
1.500000e-06	-1.553660e-06	-8.368929e-10	-1.098874e+01	-5.467011e+01
1.510000e-06	-1.509400e-06	-8.345674e-10	-1.067570e+01	-5.427727e+01
1.520000e-06	-1.465071e-06	-8.349666e-10	-1.036217e+01	-5.388022e+01
1.530000e-06	-1.420741e-06	-8.293924e-10	-1.004864e+01	-5.347809e+01
1.540000e-06	-1.376280e-06	-8.203463e-10	-9.734171e+00	-5.306982e+01
1.550000e-06	-1.331721e-06	-8.096361e-10	-9.419010e+00	-5.265426e+01
1.560000e-06	-1.287074e-06	-7.986461e-10	-9.103229e+00	-5.223019e+01
1.570000e-06	-1.242311e-06	-7.906828e-10	-8.786631e+00	-5.179640e+01
1.580000e-06	-1.197527e-06	-7.831066e-10	-8.469886e+00	-5.135175e+01
1.590000e-06	-1.152536e-06	-7.771334e-10	-8.151672e+00	-5.089521e+01
1.600000e-06	-1.107370e-06	-7.725477e-10	-7.832219e+00	-5.042593e+01
1.610000e-06	-1.062116e-06	-7.648169e-10	-7.512144e+00	-4.994325e+01
1.620000e-06	-1.016802e-06	-7.551340e-10	-7.191649e+00	-4.944676e+01
1.630000e-06	-9.714825e-07	-7.434040e-10	-6.871112e+00	-4.893624e+01
1.640000e-06	-9.261544e-07	-7.321498e-10	-6.550515e+00	-4.841175e+01
1.650000e-06	-8.807665e-07	-7.240981e-10	-6.229496e+00	-4.787349e+01
1.660000e-06	-8.352682e-07	-7.156700e-10	-5.907695e+00	-4.732188e+01
1.670000e-06	-7.896481e-07	-7.105407e-10	-5.585032e+00	-4.675739e+01
1.680000e-06	-7.439347e-07	-7.054829e-10	-5.261710e+00	-4.618058e+01
1.690000e-06	-6.982210e-07	-6.981228e-10	-4.938386e+00	-4.559196e+01
1.700000e-06	-6.525015e-07	-6.879778e-10	-4.615020e+00	-4.499196e+01
1.710000e-06	-6.067609e-07	-6.767315e-10	-4.291505e+00	-4.438086e+01
1.720000e-06	-5.610048e-07	-6.662291e-10	-3.967881e+00	-4.375873e+01
1.730000e-06	-5.152232e-07	-6.564114e-10	-3.644076e+00	-4.312535e+01
1.740000e-06	-4.693966e-07	-6.446329e-10	-3.319954e+00	-4.248024e+01
1.750000e-06	-4.234838e-07	-6.368670e-10	-2.995221e+00	-4.182257e+01
1.760000e-06	-3.775346e-07	-6.318234e-10	-2.670231e+00	-4.115122e+01
1.770000e-06	-3.315458e-07	-6.234731e-10	-2.344961e+00	-4.046475e+01
1.780000e-06	-2.855222e-07	-6.121057e-10	-2.019445e+00	-3.976145e+01
1.790000e-06	-2.395436e-07	-6.010972e-10	-1.694247e+00	-3.903940e+01
1.800000e-06	-1.935527e-07	-5.877825e-10	-1.368962e+00	-3.829651e+01
1.810000e-06	-1.475686e-07	-5.715460e-10	-1.043725e+00	-3.753061e+01
1.820000e-06	-1.015881e-07	-5.560132e-10	-7.185134e-01	-3.673952e+01
1.830000e-06	-5.559930e-08	-5.415789e-10	-3.932434e-01	-3.592113e+01
1.840000e-06	-9.668295e-09	-5.279386e-10	-6.838203e-02	-3.507348e+01
1.850000e-06	3.628191e-08	-5.174899e-10	2.566151e-01	-3.419483e+01
1.860000e-06	8.231130e-08	-5.073937e-10	5.821723e-01	-3.328369e+01
1.870000e-06	1.283283e-07	-4.968642e-10	9.076416e-01	-3.233893e+01
1.880000e-06	1.742964e-07	-4.862739e-10	1.232765e+00	-3.135974e+01
1.890000e-06	2.202662e-07	-4.707151e-10	1.557901e+00	-3.034571e+01
1.900000e-06	2.662030e-07	-4.494259e-10	1.882803e+00	-2.929677e+01
1.910000e-06	3.121773e-07	-4.285226e-10	2.207971e+00	-2.821319e+01
1.920000e-06	3.581591e-07	-4.099728e-10	2.533192e+00	-2.709555e+01
1.930000e-06	4.040300e-07	-3.909662e-10	2.857628e+00	-2.594469e+01
1.940000e-06	4.498859e-07	-3.701355e-10	3.181958e+00	-2.476162e+01
1.950000e-06	4.957428e-07	-3.508986e-10	3.506295e+00	-2.354752e+01
1.960000e-06	5.415427e-07	-3.370953e-10	3.830230e+00	-2.230360e+01
1.970000e-06	5.872473e-07	-3.227612e-10	4.153490e+00	-2.103107e+01
1.980000e-06	6.328907e-07	-3.033610e-10	4.476317e+00	-1.973110e+01
1.990000e-06	6.785775e-07	-2.806215e-10	4.799451e+00	-1.840471e+01
2.000000e-06	7.242359e-07	-2.589574e-10	5.122384e+00	-1.705280e+01
2.010000e-06	7.698034e-07	-2.361698e-10	5.444675e+00	-1.567609e+01
2.020000e-06	8.153430e-07	-2.095453e-10	5.766767e+00	-1.427510e+01
2.030000e-06	8.608513e-07	-1.820910e-10	6.088639e+00	-1.285018e+01
2.040000e-06	9.063200e-07	-1.602574e-10	6.410230e+00	-1.140154e+01
2.050000e-06	9.516808e-07	-1.427460e-10	6.731059e+00	-9.929242e+00
2.060000e-06	9.969761e-07	-1.239550e-10	7.051424e+00	-8.433294e+00
2.070000e-06	1.042182e-06	-9.985438e-11	7.371158e+00	-6.913674e+00
2.080000e-06	1.087258e-06	-7.538916e-11	7.689972e+00	-5.370396e+00
2.090000e-06	1.132319e-06	-5.290740e-11	8.008676e+00	-3.803569e+00
2.100000e-06	1.177280e-06	-2.826828e-11	8.326682e+00	-2.213451e+00
2.110000e-06	1.222038e-06	2.862681e-12	8.643245e+00	-6.004992e-01
2.120000e-06	1.266744e-06	3.521559e-11	8.959442e+00	1.034592e+00
2.130000e-06	1.311457e-06	6.191048e-11	9.275691e+00	2.690863e+00
2.140000e-06	1.356015e-06	8.454346e-11	9.590836e+00	4.367073e+00
2.150000e-06	1.400461e-06	1.071197e-10	9.905196e+00	6.061703e+00
2.160000e-06	1.444792e-06	1.307912e-10	1.021874e+01	7.772965e+00
2.170000e-06	1.489009e-06	1.528669e-10	1.053148e+01	9.498834e+00
2.180000e-06	1.533205e-06	1.751398e-10	1.084407e+01	1.123708e+01
2.190000e-06	1.577367e-06	2.024555e-10	1.115642e+01	1.298533e+01
2.200000e-06	1.621422e-06	2.355879e-10	1.146801e+01	1.474110e+01
2.210000e-06	1.665395e-06	2.674124e-10	1.177902e+01	1.650185e+01
2.220000e-06	1.709341e-06	2.950921e-10	1.208985e+01	1.826509e+01
2.230000e-06	1.753206e-06	3.228093e-10	1.240009e+01	2.002834e+01
2.240000e-06	1.796937e-06	3.534813e-10	1.270940e+01	2.178928e+01
2.250000e-06	1.840580e-06	3.809368e-10	1.301807e+01	2.354569e+01
2.260000e-06	1.884219e-06	4.049931e-10	1.332673e+01	2.529556e+01
2.270000e-06	1.927759e-06	4.291803e-10	1.363468e+01	2.703702e+01
2.280000e-06	1.971180e-06	4.561767e-10	1.394179e+01	2.876841e+01
2.290000e-06	2.014483e-06	4.842801e-10	1.424806e+01	3.048823e+01
2.300000e-06	2.057618e-06	5.093150e-10	1.455315e+01	3.219514e+01
2.310000e-06	2.100583e-06	5.329736e-10	1.485703e+01	3.388790e+01
2.320000e-06	2.143298e-06	5.615409e-10	1.515914e+01	3.556537e+01
2.330000e-06	2.185742e-06	5.916702e-10	1.545934e+01	3.722645e+01
2.340000e-06	2.227822e-06	6.145362e-10	1.575697e+01	3.887003e+01
2.350000e-06	2.269527e-06	6.328913e-10	1.605194e+01	4.049498e+01
2.360000e-06	2.311007e-06	6.541162e-10	1.634532e+01	4.210009e+01
2.370000e-06	2.352292e-06	6.801174e-10	1.663732e+01	4.368406e+01
2.380000e-06	2.393231e-06	7.065776e-10	1.692687e+01	4.524550e+01
2.390000e-06	2.433896e-06	7.293589e-10	1.721449e+01	4.678290e+01
2.400000e-06	2.474372e-06	7.511843e-10	1.750076e+01	4.829465e+01
2.410000e-06	2.514644e-06	7.744160e-10	1.778560e+01	4.977908e+01
2.420000e-06	2.554797e-06	7.979915e-10	1.806960e+01	5.123446e+01
2.430000e-06	2.594889e-06	8.213608e-10	1.835316e+01	5.265905e+01
2.440000e-06	2.634914e-06	8.431702e-10	1.863625e+01	5.405118e+01
2.450000e-06	2.674758e-06	8.637773e-10	1.891806e+01	5.540923e+01
2.460000e-06	2.714484e-06	8.851116e-10	1.919904e+01	5.673173e+01
2.470000e-06	2.754121e-06	9.022665e-10	1.947938e+01	5.801743e+01
2.480000e-06	2.793530e-06	9.173690e-10	1.975811e+01	5.926528e+01
2.490000e-06	2.832720e-06	9.361537e-10	2.003530e+01	6.047449e+01
2.500000e-06	2.871762e-06	9.553821e-10	2.031143e+01	6.164459e+01
2.510000e-06	2.910654e-06	9.757787e-10	2.058651e+01	6.277539e+01
2.520000e-06	2.949336e-06	9.963905e-10	2.086010e+01	6.386702e+01
2.530000e-06	2.987767e-06	1.018142e-09	2.113192e+01	6.491990e+01
2.540000e-06	3.025924e-06	1.034196e-09	2.140179e+01	6.593470e+01
2.550000e-06	3.063870e-06	1.042591e-09	2.167017e+01	6.691235e+01
2.560000e-06	3.101668e-06	1.046918e-09	2.193751e+01	6.785396e+01
2.570000e-06	3.139327e-06	1.055670e-09	2.220387e+01	6.876080e+01
2.580000e-06	3.176776e-06	1.072434e-09	2.246874e+01	6.963419e+01
2.590000e-06	3.213922e-06	1.090512e-09	2.273147e+01	7.047553e+01
2.600000e-06	3.250795e-06	1.108278e-09	2.299226e+01	7.128618e+01
2.610000e-06	3.287523e-06	1.125797e-09	2.325203e+01	7.206745e+01
2.620000e-06	3.324018e-06	1.139527e-09	2.351015e+01	7.282054e+01
2.630000e-06	3.360298e-06	1.144871e-09	2.376675e+01	7.354655e+01
2.640000e-06	3.396422e-06	1.144941e-09	2.402226e+01	7.424640e+01
2.650000e-06	3.432346e-06	1.149521e-09	2.427634e+01	7.492087e+01
2.660000e-06	3.468119e-06	1.160010e-09	2.452935e+01	7.557061e+01
2.670000e-06	3.503720e-06	1.170920e-09	2.478115e+01	7.619610e+01
2.680000e-06	3.539177e-06	1.180689e-09	2.503193e+01	7.679773e+01
2.690000e-06	3.574339e-06	1.191157e-09	2.528062e+01	7.737577e+01
2.700000e-06	3.609202e-06	1.203380e-09	2.552721e+01	7.793047e+01
2.710000e-06	3.643669e-06	1.213517e-09	2.577098e+01	7.846204e+01
2.720000e-06	3.677689e-06	1.218448e-09	2.601160e+01	7.897070e+01
2.730000e-06	3.711328e-06	1.222680e-09	2.624952e+01	7.945671e+01
2.740000e-06	3.744432e-06	1.230123e-09	2.648366e+01	7.992039e+01
2.750000e-06	3.777148e-06	1.237760e-09	2.671506e+01	8.036216e+01
2.760000e-06	3.809605e-06	1.243759e-09	2.694462e+01	8.078249e+01
2.770000e-06	3.841815e-06	1.247694e-09	2.717243e+01	8.118197e+01
2.780000e-06	3.873796e-06	1.254467e-09	2.739863e+01	8.156126e+01
2.790000e-06	3.905585e-06	1.262139e-09	2.762346e+01	8.192107e+01
2.800000e-06	3.937248e-06	1.264578e-09	2.784741e+01	8.226216e+01
2.810000e-06	3.968760e-06	1.263108e-09	2.807029e+01	8.258529e+01
2.820000e-06	3.999970e-06	1.265475e-09	2.829104e+01	8.289122e+01
2.830000e-06	4.030873e-06	1.274003e-09	2.850961e+01	8.318063e+01
2.840000e-06	4.061546e-06	1.280488e-09	2.872655e+01	8.345415e+01
2.850000e-06	4.091888e-06	1.282788e-09	2.894115e+01	8.371230e+01
2.860000e-06	4.121909e-06	1.285523e-09	2.915349e+01	8.395550e+01
2.870000e-06	4.151676e-06	1.288705e-09	2.936402e+01	8.418403e+01
2.880000e-06	4.181207e-06	1.290774e-09	2.957289e+01	8.439808e+01
2.890000e-06	4.210441e-06	1.289100e-09	2.977966e+01	8.459771e+01
2.900000e-06	4.239376e-06	1.288138e-09	2.998431e+01	8.478294e+01
