# Temperatura_=_18.1
# Concentracion g/m^3_=_4090.0
# C_Vs_to_Am_M_A/Vsm_=_65563218390.804596
# pendiente_HvsI_1/m_=_3716.3
# ordenada_HvsI_A/m_=_1297.0
# frecuencia_Hz_=_135084.56629772633

Tiempo_(s)	Campo_(V.s)	Magnetizacion_(V.s)	Campo_(kA/m)	Magnetizacion_(A/m)
0.000000e+00	-5.405561e-06	-1.194090e-09	-3.839115e+01	-8.251725e+01
1.000000e-08	-5.405704e-06	-1.189051e-09	-3.839216e+01	-8.233707e+01
2.000000e-08	-5.405601e-06	-1.183853e-09	-3.839143e+01	-8.213656e+01
3.000000e-08	-5.405260e-06	-1.179100e-09	-3.838901e+01	-8.191682e+01
4.000000e-08	-5.404523e-06	-1.176612e-09	-3.838378e+01	-8.168004e+01
5.000000e-08	-5.403229e-06	-1.177387e-09	-3.837459e+01	-8.142951e+01
6.000000e-08	-5.401276e-06	-1.183119e-09	-3.836072e+01	-8.116961e+01
7.000000e-08	-5.398619e-06	-1.202252e-09	-3.834185e+01	-8.090567e+01
8.000000e-08	-5.395411e-06	-1.197475e-09	-3.831906e+01	-8.064383e+01
9.000000e-08	-5.391806e-06	-1.133434e-09	-3.829346e+01	-8.039086e+01
1.000000e-07	-5.387846e-06	-1.137004e-09	-3.826533e+01	-8.015390e+01
1.100000e-07	-5.383621e-06	-1.259800e-09	-3.823533e+01	-7.994020e+01
1.200000e-07	-5.379229e-06	-1.249025e-09	-3.820414e+01	-7.975685e+01
1.300000e-07	-5.374508e-06	-1.116153e-09	-3.817061e+01	-7.961044e+01
1.400000e-07	-5.369304e-06	-1.104521e-09	-3.813365e+01	-7.950682e+01
1.500000e-07	-5.363721e-06	-1.273854e-09	-3.809400e+01	-7.945081e+01
1.600000e-07	-5.357778e-06	-1.292468e-09	-3.805179e+01	-7.944598e+01
1.700000e-07	-5.351552e-06	-1.070759e-09	-3.800757e+01	-7.949445e+01
1.800000e-07	-5.344967e-06	-1.078189e-09	-3.796080e+01	-7.959676e+01
1.900000e-07	-5.337984e-06	-1.254106e-09	-3.791121e+01	-7.975179e+01
2.000000e-07	-5.330677e-06	-1.308881e-09	-3.785931e+01	-7.995679e+01
2.100000e-07	-5.323077e-06	-1.153474e-09	-3.780534e+01	-8.020739e+01
2.200000e-07	-5.315322e-06	-1.213064e-09	-3.775026e+01	-8.049776e+01
2.300000e-07	-5.307282e-06	-1.336769e-09	-3.769316e+01	-8.082081e+01
2.400000e-07	-5.298783e-06	-1.299480e-09	-3.763279e+01	-8.116841e+01
2.500000e-07	-5.289631e-06	-1.219666e-09	-3.756780e+01	-8.153167e+01
2.600000e-07	-5.279834e-06	-1.327677e-09	-3.749822e+01	-8.190129e+01
2.700000e-07	-5.269426e-06	-1.381328e-09	-3.742430e+01	-8.226786e+01
2.800000e-07	-5.258507e-06	-1.263297e-09	-3.734675e+01	-8.262219e+01
2.900000e-07	-5.247316e-06	-1.258627e-09	-3.726727e+01	-8.295565e+01
3.000000e-07	-5.235667e-06	-1.380964e-09	-3.718453e+01	-8.326049e+01
3.100000e-07	-5.223518e-06	-1.345359e-09	-3.709826e+01	-8.353001e+01
3.200000e-07	-5.211013e-06	-1.232037e-09	-3.700944e+01	-8.375884e+01
3.300000e-07	-5.198043e-06	-1.325776e-09	-3.691733e+01	-8.394307e+01
3.400000e-07	-5.184682e-06	-1.390485e-09	-3.682243e+01	-8.408029e+01
3.500000e-07	-5.171028e-06	-1.312105e-09	-3.672546e+01	-8.416964e+01
3.600000e-07	-5.157034e-06	-1.282022e-09	-3.662608e+01	-8.421176e+01
3.700000e-07	-5.142451e-06	-1.353714e-09	-3.652250e+01	-8.420866e+01
3.800000e-07	-5.127333e-06	-1.298714e-09	-3.641513e+01	-8.416353e+01
3.900000e-07	-5.111718e-06	-1.269714e-09	-3.630423e+01	-8.408059e+01
4.000000e-07	-5.095576e-06	-1.319711e-09	-3.618959e+01	-8.396479e+01
4.100000e-07	-5.078997e-06	-1.321511e-09	-3.607184e+01	-8.382156e+01
4.200000e-07	-5.062057e-06	-1.262678e-09	-3.595153e+01	-8.365653e+01
4.300000e-07	-5.044887e-06	-1.328843e-09	-3.582959e+01	-8.347528e+01
4.400000e-07	-5.027409e-06	-1.355804e-09	-3.570546e+01	-8.328307e+01
4.500000e-07	-5.009617e-06	-1.290430e-09	-3.557909e+01	-8.308462e+01
4.600000e-07	-4.991505e-06	-1.258903e-09	-3.545046e+01	-8.288396e+01
4.700000e-07	-4.973023e-06	-1.312865e-09	-3.531920e+01	-8.268427e+01
4.800000e-07	-4.954193e-06	-1.293385e-09	-3.518546e+01	-8.248781e+01
4.900000e-07	-4.935014e-06	-1.268748e-09	-3.504925e+01	-8.229591e+01
5.000000e-07	-4.915446e-06	-1.274509e-09	-3.491028e+01	-8.210897e+01
5.100000e-07	-4.895632e-06	-1.287398e-09	-3.476955e+01	-8.192655e+01
5.200000e-07	-4.875640e-06	-1.289013e-09	-3.462757e+01	-8.174749e+01
5.300000e-07	-4.855403e-06	-1.297407e-09	-3.448384e+01	-8.157006e+01
5.400000e-07	-4.834860e-06	-1.268062e-09	-3.433794e+01	-8.139214e+01
5.500000e-07	-4.813981e-06	-1.250444e-09	-3.418965e+01	-8.121139e+01
5.600000e-07	-4.792660e-06	-1.268925e-09	-3.403823e+01	-8.102545e+01
5.700000e-07	-4.770962e-06	-1.267968e-09	-3.388413e+01	-8.083216e+01
5.800000e-07	-4.749026e-06	-1.237466e-09	-3.372833e+01	-8.062964e+01
5.900000e-07	-4.726800e-06	-1.231245e-09	-3.357048e+01	-8.041651e+01
6.000000e-07	-4.704267e-06	-1.249684e-09	-3.341045e+01	-8.019194e+01
6.100000e-07	-4.681300e-06	-1.258430e-09	-3.324733e+01	-7.995573e+01
6.200000e-07	-4.657912e-06	-1.253098e-09	-3.308123e+01	-7.970830e+01
6.300000e-07	-4.634395e-06	-1.229672e-09	-3.291421e+01	-7.945073e+01
6.400000e-07	-4.610699e-06	-1.232475e-09	-3.274592e+01	-7.918463e+01
6.500000e-07	-4.586781e-06	-1.246806e-09	-3.257605e+01	-7.891210e+01
6.600000e-07	-4.562637e-06	-1.241749e-09	-3.240457e+01	-7.863559e+01
6.700000e-07	-4.538158e-06	-1.209353e-09	-3.223072e+01	-7.835775e+01
6.800000e-07	-4.513304e-06	-1.208116e-09	-3.205420e+01	-7.808127e+01
6.900000e-07	-4.487967e-06	-1.216815e-09	-3.187426e+01	-7.780876e+01
7.000000e-07	-4.462033e-06	-1.221577e-09	-3.169006e+01	-7.754260e+01
7.100000e-07	-4.435485e-06	-1.204339e-09	-3.150152e+01	-7.728476e+01
7.200000e-07	-4.408421e-06	-1.202565e-09	-3.130930e+01	-7.703678e+01
7.300000e-07	-4.380965e-06	-1.212310e-09	-3.111431e+01	-7.679960e+01
7.400000e-07	-4.353360e-06	-1.226948e-09	-3.091825e+01	-7.657360e+01
7.500000e-07	-4.325675e-06	-1.209423e-09	-3.072163e+01	-7.635852e+01
7.600000e-07	-4.297782e-06	-1.196388e-09	-3.052353e+01	-7.615354e+01
7.700000e-07	-4.269678e-06	-1.196987e-09	-3.032393e+01	-7.595730e+01
7.800000e-07	-4.241270e-06	-1.204703e-09	-3.012217e+01	-7.576801e+01
7.900000e-07	-4.212493e-06	-1.191368e-09	-2.991779e+01	-7.558355e+01
8.000000e-07	-4.183441e-06	-1.181058e-09	-2.971146e+01	-7.540158e+01
8.100000e-07	-4.154087e-06	-1.182211e-09	-2.950298e+01	-7.521970e+01
8.200000e-07	-4.124439e-06	-1.196818e-09	-2.929242e+01	-7.503555e+01
8.300000e-07	-4.094536e-06	-1.198797e-09	-2.908004e+01	-7.484696e+01
8.400000e-07	-4.064417e-06	-1.187194e-09	-2.886613e+01	-7.465206e+01
8.500000e-07	-4.034020e-06	-1.178920e-09	-2.865025e+01	-7.444936e+01
8.600000e-07	-4.003331e-06	-1.182725e-09	-2.843229e+01	-7.423781e+01
8.700000e-07	-3.972369e-06	-1.181271e-09	-2.821239e+01	-7.401685e+01
8.800000e-07	-3.941146e-06	-1.165623e-09	-2.799064e+01	-7.378641e+01
8.900000e-07	-3.909728e-06	-1.153944e-09	-2.776751e+01	-7.354688e+01
9.000000e-07	-3.878106e-06	-1.155696e-09	-2.754292e+01	-7.329910e+01
9.100000e-07	-3.846294e-06	-1.163247e-09	-2.731699e+01	-7.304421e+01
9.200000e-07	-3.814257e-06	-1.157334e-09	-2.708945e+01	-7.278364e+01
9.300000e-07	-3.782041e-06	-1.149981e-09	-2.686066e+01	-7.251898e+01
9.400000e-07	-3.749624e-06	-1.151956e-09	-2.663042e+01	-7.225183e+01
9.500000e-07	-3.716839e-06	-1.159981e-09	-2.639758e+01	-7.198376e+01
9.600000e-07	-3.683673e-06	-1.154803e-09	-2.616203e+01	-7.171617e+01
9.700000e-07	-3.650139e-06	-1.140923e-09	-2.592387e+01	-7.145021e+01
9.800000e-07	-3.616282e-06	-1.127970e-09	-2.568341e+01	-7.118674e+01
9.900000e-07	-3.581944e-06	-1.127814e-09	-2.543953e+01	-7.092622e+01
1.000000e-06	-3.546988e-06	-1.123570e-09	-2.519127e+01	-7.066879e+01
1.010000e-06	-3.511664e-06	-1.119463e-09	-2.494039e+01	-7.041417e+01
1.020000e-06	-3.476192e-06	-1.115536e-09	-2.468847e+01	-7.016178e+01
1.030000e-06	-3.440547e-06	-1.119557e-09	-2.443531e+01	-6.991073e+01
1.040000e-06	-3.404702e-06	-1.117034e-09	-2.418073e+01	-6.965990e+01
1.050000e-06	-3.368783e-06	-1.108864e-09	-2.392563e+01	-6.940806e+01
1.060000e-06	-3.332720e-06	-1.095574e-09	-2.366951e+01	-6.915391e+01
1.070000e-06	-3.296487e-06	-1.090502e-09	-2.341217e+01	-6.889622e+01
1.080000e-06	-3.260020e-06	-1.086421e-09	-2.315318e+01	-6.863387e+01
1.090000e-06	-3.223306e-06	-1.082059e-09	-2.289243e+01	-6.836596e+01
1.100000e-06	-3.186380e-06	-1.075747e-09	-2.263018e+01	-6.809186e+01
1.110000e-06	-3.149224e-06	-1.075101e-09	-2.236629e+01	-6.781127e+01
1.120000e-06	-3.111823e-06	-1.075214e-09	-2.210066e+01	-6.752422e+01
1.130000e-06	-3.074115e-06	-1.069185e-09	-2.183285e+01	-6.723108e+01
1.140000e-06	-3.036243e-06	-1.056679e-09	-2.156388e+01	-6.693255e+01
1.150000e-06	-2.998196e-06	-1.049645e-09	-2.129366e+01	-6.662959e+01
1.160000e-06	-2.959917e-06	-1.048259e-09	-2.102180e+01	-6.632340e+01
1.170000e-06	-2.921502e-06	-1.045121e-09	-2.074897e+01	-6.601530e+01
1.180000e-06	-2.882923e-06	-1.037259e-09	-2.047497e+01	-6.570668e+01
1.190000e-06	-2.844088e-06	-1.027776e-09	-2.019916e+01	-6.539889e+01
1.200000e-06	-2.805002e-06	-1.025098e-09	-1.992157e+01	-6.509317e+01
1.210000e-06	-2.765723e-06	-1.025851e-09	-1.964260e+01	-6.479056e+01
1.220000e-06	-2.726276e-06	-1.023896e-09	-1.936245e+01	-6.449184e+01
1.230000e-06	-2.686680e-06	-1.019178e-09	-1.908122e+01	-6.419745e+01
1.240000e-06	-2.646957e-06	-1.015640e-09	-1.879911e+01	-6.390753e+01
1.250000e-06	-2.607122e-06	-1.008449e-09	-1.851619e+01	-6.362181e+01
1.260000e-06	-2.567204e-06	-1.001753e-09	-1.823269e+01	-6.333970e+01
1.270000e-06	-2.527222e-06	-9.923027e-10	-1.794873e+01	-6.306029e+01
1.280000e-06	-2.487131e-06	-9.879129e-10	-1.766400e+01	-6.278241e+01
1.290000e-06	-2.446872e-06	-9.872135e-10	-1.737807e+01	-6.250467e+01
1.300000e-06	-2.406433e-06	-9.855896e-10	-1.709087e+01	-6.222557e+01
1.310000e-06	-2.365811e-06	-9.782294e-10	-1.680237e+01	-6.194356e+01
1.320000e-06	-2.325054e-06	-9.728107e-10	-1.651290e+01	-6.165713e+01
1.330000e-06	-2.284087e-06	-9.676466e-10	-1.622195e+01	-6.136492e+01
1.340000e-06	-2.242817e-06	-9.613907e-10	-1.592884e+01	-6.106572e+01
1.350000e-06	-2.201320e-06	-9.546266e-10	-1.563412e+01	-6.075861e+01
1.360000e-06	-2.159528e-06	-9.529521e-10	-1.533731e+01	-6.044294e+01
1.370000e-06	-2.117303e-06	-9.527386e-10	-1.503742e+01	-6.011839e+01
1.380000e-06	-2.074696e-06	-9.502242e-10	-1.473482e+01	-5.978494e+01
1.390000e-06	-2.031848e-06	-9.432292e-10	-1.443050e+01	-5.944288e+01
1.400000e-06	-1.988838e-06	-9.360541e-10	-1.412504e+01	-5.909275e+01
1.410000e-06	-1.945697e-06	-9.292916e-10	-1.381865e+01	-5.873528e+01
1.420000e-06	-1.902372e-06	-9.249634e-10	-1.351095e+01	-5.837135e+01
1.430000e-06	-1.858857e-06	-9.233229e-10	-1.320189e+01	-5.800191e+01
1.440000e-06	-1.815266e-06	-9.234681e-10	-1.289231e+01	-5.762786e+01
1.450000e-06	-1.771655e-06	-9.220324e-10	-1.258257e+01	-5.725001e+01
1.460000e-06	-1.727948e-06	-9.167965e-10	-1.227216e+01	-5.686902e+01
1.470000e-06	-1.684130e-06	-9.092808e-10	-1.196096e+01	-5.648530e+01
1.480000e-06	-1.640245e-06	-9.012233e-10	-1.164928e+01	-5.609898e+01
1.490000e-06	-1.596305e-06	-8.935437e-10	-1.133721e+01	-5.570990e+01
1.500000e-06	-1.552305e-06	-8.863014e-10	-1.102472e+01	-5.531759e+01
1.510000e-06	-1.508215e-06	-8.823601e-10	-1.071158e+01	-5.492128e+01
1.520000e-06	-1.464052e-06	-8.798827e-10	-1.039793e+01	-5.451993e+01
1.530000e-06	-1.419813e-06	-8.764562e-10	-1.008373e+01	-5.411231e+01
1.540000e-06	-1.375483e-06	-8.685681e-10	-9.768897e+00	-5.369700e+01
1.550000e-06	-1.331143e-06	-8.572377e-10	-9.453985e+00	-5.327255e+01
1.560000e-06	-1.286717e-06	-8.443322e-10	-9.138467e+00	-5.283748e+01
1.570000e-06	-1.242095e-06	-8.350708e-10	-8.821553e+00	-5.239043e+01
1.580000e-06	-1.197400e-06	-8.292366e-10	-8.504121e+00	-5.193016e+01
1.590000e-06	-1.152603e-06	-8.257920e-10	-8.185972e+00	-5.145571e+01
1.600000e-06	-1.107703e-06	-8.208879e-10	-7.867085e+00	-5.096636e+01
1.610000e-06	-1.062704e-06	-8.151709e-10	-7.547489e+00	-5.046173e+01
1.620000e-06	-1.017632e-06	-8.076429e-10	-7.227383e+00	-4.994177e+01
1.630000e-06	-9.725503e-07	-7.967759e-10	-6.907206e+00	-4.940675e+01
1.640000e-06	-9.273882e-07	-7.830687e-10	-6.586458e+00	-4.885725e+01
1.650000e-06	-8.821684e-07	-7.704393e-10	-6.265300e+00	-4.829409e+01
1.660000e-06	-8.368579e-07	-7.593830e-10	-5.943497e+00	-4.771828e+01
1.670000e-06	-7.914704e-07	-7.525084e-10	-5.621148e+00	-4.713093e+01
1.680000e-06	-7.460637e-07	-7.470008e-10	-5.298663e+00	-4.653319e+01
1.690000e-06	-7.006166e-07	-7.392574e-10	-4.975890e+00	-4.592612e+01
1.700000e-06	-6.551511e-07	-7.286242e-10	-4.652987e+00	-4.531062e+01
1.710000e-06	-6.096483e-07	-7.184599e-10	-4.329819e+00	-4.468734e+01
1.720000e-06	-5.640977e-07	-7.088573e-10	-4.006312e+00	-4.405661e+01
1.730000e-06	-5.185123e-07	-6.991318e-10	-3.682557e+00	-4.341836e+01
1.740000e-06	-4.728468e-07	-6.878483e-10	-3.358233e+00	-4.277214e+01
1.750000e-06	-4.271416e-07	-6.766820e-10	-3.033627e+00	-4.211703e+01
1.760000e-06	-3.813804e-07	-6.660823e-10	-2.708624e+00	-4.145169e+01
1.770000e-06	-3.356061e-07	-6.535076e-10	-2.383528e+00	-4.077440e+01
1.780000e-06	-2.898954e-07	-6.401410e-10	-2.058883e+00	-4.008307e+01
1.790000e-06	-2.441136e-07	-6.286914e-10	-1.733734e+00	-3.937534e+01
1.800000e-06	-1.982405e-07	-6.174550e-10	-1.407935e+00	-3.864865e+01
1.810000e-06	-1.523421e-07	-6.039610e-10	-1.081957e+00	-3.790037e+01
1.820000e-06	-1.065665e-07	-5.928200e-10	-7.568520e-01	-3.712784e+01
1.830000e-06	-6.093625e-08	-5.813649e-10	-4.327789e-01	-3.632851e+01
1.840000e-06	-1.519146e-08	-5.670992e-10	-1.078921e-01	-3.550006e+01
1.850000e-06	3.070314e-08	-5.519309e-10	2.180586e-01	-3.464040e+01
1.860000e-06	7.662754e-08	-5.379345e-10	5.442210e-01	-3.374784e+01
1.870000e-06	1.224938e-07	-5.238018e-10	8.699704e-01	-3.282107e+01
1.880000e-06	1.683628e-07	-5.113246e-10	1.195739e+00	-3.185922e+01
1.890000e-06	2.141923e-07	-4.985452e-10	1.521228e+00	-3.086185e+01
1.900000e-06	2.599668e-07	-4.826754e-10	1.846325e+00	-2.982898e+01
1.910000e-06	3.058266e-07	-4.659542e-10	2.172029e+00	-2.876099e+01
1.920000e-06	3.516218e-07	-4.488966e-10	2.497274e+00	-2.765863e+01
1.930000e-06	3.973368e-07	-4.283776e-10	2.821949e+00	-2.652292e+01
1.940000e-06	4.430156e-07	-4.078832e-10	3.146367e+00	-2.535508e+01
1.950000e-06	4.886911e-07	-3.879686e-10	3.470762e+00	-2.415644e+01
1.960000e-06	5.344121e-07	-3.713923e-10	3.795479e+00	-2.292839e+01
1.970000e-06	5.800887e-07	-3.561518e-10	4.119882e+00	-2.167225e+01
1.980000e-06	6.256904e-07	-3.380710e-10	4.443753e+00	-2.038924e+01
1.990000e-06	6.711989e-07	-3.157447e-10	4.766961e+00	-1.908043e+01
2.000000e-06	7.166441e-07	-2.907952e-10	5.089720e+00	-1.774668e+01
2.010000e-06	7.620153e-07	-2.672548e-10	5.411954e+00	-1.638859e+01
2.020000e-06	8.073705e-07	-2.462399e-10	5.734073e+00	-1.500658e+01
2.030000e-06	8.527083e-07	-2.243681e-10	6.056069e+00	-1.360082e+01
2.040000e-06	8.978975e-07	-2.022582e-10	6.377010e+00	-1.217132e+01
2.050000e-06	9.429642e-07	-1.834538e-10	6.697081e+00	-1.071794e+01
2.060000e-06	9.880085e-07	-1.651566e-10	7.016993e+00	-9.240494e+00
2.070000e-06	1.033067e-06	-1.415826e-10	7.337004e+00	-7.738775e+00
2.080000e-06	1.077907e-06	-1.127824e-10	7.655467e+00	-6.212650e+00
2.090000e-06	1.122602e-06	-8.484930e-11	7.972898e+00	-4.662125e+00
2.100000e-06	1.167355e-06	-6.002278e-11	8.290742e+00	-3.087405e+00
2.110000e-06	1.211998e-06	-3.650664e-11	8.607799e+00	-1.488957e+00
2.120000e-06	1.256439e-06	-1.199630e-11	8.923425e+00	1.324569e-01
2.130000e-06	1.300800e-06	1.013231e-11	9.238484e+00	1.775748e+00
2.140000e-06	1.345114e-06	2.988709e-11	9.553215e+00	3.439493e+00
2.150000e-06	1.389360e-06	5.268570e-11	9.867456e+00	5.121942e+00
2.160000e-06	1.433502e-06	7.983345e-11	1.018096e+01	6.821045e+00
2.170000e-06	1.477536e-06	1.100086e-10	1.049370e+01	8.534487e+00
2.180000e-06	1.521583e-06	1.385539e-10	1.080652e+01	1.025975e+01
2.190000e-06	1.565619e-06	1.641351e-10	1.111928e+01	1.199415e+01
2.200000e-06	1.609578e-06	1.912931e-10	1.143148e+01	1.373495e+01
2.210000e-06	1.653454e-06	2.187514e-10	1.174309e+01	1.547938e+01
2.220000e-06	1.697293e-06	2.440626e-10	1.205444e+01	1.722474e+01
2.230000e-06	1.741090e-06	2.683022e-10	1.236550e+01	1.896844e+01
2.240000e-06	1.784781e-06	2.968845e-10	1.267580e+01	2.070804e+01
2.250000e-06	1.828396e-06	3.273849e-10	1.298556e+01	2.244132e+01
2.260000e-06	1.871984e-06	3.576288e-10	1.329513e+01	2.416630e+01
2.270000e-06	1.915429e-06	3.850577e-10	1.360368e+01	2.588120e+01
2.280000e-06	1.958645e-06	4.107117e-10	1.391061e+01	2.758452e+01
2.290000e-06	2.001764e-06	4.386322e-10	1.421684e+01	2.927492e+01
2.300000e-06	2.044733e-06	4.647210e-10	1.452202e+01	3.095129e+01
2.310000e-06	2.087455e-06	4.871911e-10	1.482543e+01	3.261261e+01
2.320000e-06	2.130001e-06	5.111078e-10	1.512760e+01	3.425800e+01
2.330000e-06	2.172210e-06	5.384286e-10	1.542738e+01	3.588658e+01
2.340000e-06	2.214012e-06	5.659345e-10	1.572427e+01	3.749750e+01
2.350000e-06	2.255545e-06	5.897014e-10	1.601923e+01	3.908984e+01
2.360000e-06	2.296738e-06	6.112225e-10	1.631179e+01	4.066262e+01
2.370000e-06	2.337619e-06	6.375103e-10	1.660214e+01	4.221472e+01
2.380000e-06	2.378344e-06	6.669319e-10	1.689138e+01	4.374493e+01
2.390000e-06	2.418840e-06	6.923947e-10	1.717898e+01	4.525191e+01
2.400000e-06	2.459053e-06	7.132913e-10	1.746459e+01	4.673423e+01
2.410000e-06	2.499139e-06	7.348590e-10	1.774928e+01	4.819035e+01
2.420000e-06	2.539139e-06	7.621661e-10	1.803336e+01	4.961873e+01
2.430000e-06	2.579038e-06	7.910589e-10	1.831674e+01	5.101783e+01
2.440000e-06	2.618847e-06	8.146474e-10	1.859947e+01	5.238616e+01
2.450000e-06	2.658568e-06	8.336205e-10	1.888157e+01	5.372236e+01
2.460000e-06	2.698195e-06	8.541631e-10	1.916301e+01	5.502522e+01
2.470000e-06	2.737711e-06	8.751852e-10	1.944366e+01	5.629378e+01
2.480000e-06	2.777090e-06	8.902076e-10	1.972333e+01	5.752730e+01
2.490000e-06	2.816226e-06	9.037608e-10	2.000128e+01	5.872533e+01
2.500000e-06	2.855198e-06	9.219631e-10	2.027807e+01	5.988774e+01
2.510000e-06	2.893890e-06	9.451187e-10	2.055287e+01	6.101466e+01
2.520000e-06	2.932259e-06	9.688197e-10	2.082537e+01	6.210652e+01
2.530000e-06	2.970450e-06	9.894356e-10	2.109661e+01	6.316400e+01
2.540000e-06	3.008511e-06	1.009733e-09	2.136692e+01	6.418799e+01
2.550000e-06	3.046401e-06	1.026347e-09	2.163602e+01	6.517952e+01
2.560000e-06	3.084081e-06	1.035191e-09	2.190363e+01	6.613974e+01
2.570000e-06	3.121523e-06	1.042539e-09	2.216955e+01	6.706982e+01
2.580000e-06	3.158738e-06	1.054012e-09	2.243386e+01	6.797090e+01
2.590000e-06	3.195746e-06	1.070230e-09	2.269669e+01	6.884404e+01
2.600000e-06	3.232531e-06	1.088024e-09	2.295795e+01	6.969015e+01
2.610000e-06	3.269068e-06	1.106452e-09	2.321744e+01	7.050996e+01
2.620000e-06	3.305352e-06	1.122960e-09	2.347513e+01	7.130399e+01
2.630000e-06	3.341505e-06	1.137252e-09	2.373190e+01	7.207256e+01
2.640000e-06	3.377485e-06	1.145704e-09	2.398743e+01	7.281574e+01
2.650000e-06	3.413333e-06	1.149091e-09	2.424203e+01	7.353342e+01
2.660000e-06	3.449071e-06	1.150561e-09	2.449585e+01	7.422531e+01
2.670000e-06	3.484599e-06	1.153066e-09	2.474817e+01	7.489100e+01
2.680000e-06	3.519942e-06	1.158969e-09	2.499918e+01	7.553002e+01
2.690000e-06	3.555153e-06	1.167121e-09	2.524926e+01	7.614189e+01
2.700000e-06	3.590065e-06	1.181420e-09	2.549721e+01	7.672616e+01
2.710000e-06	3.624477e-06	1.200624e-09	2.574161e+01	7.728253e+01
2.720000e-06	3.658373e-06	1.216816e-09	2.598234e+01	7.781085e+01
2.730000e-06	3.691794e-06	1.225840e-09	2.621970e+01	7.831119e+01
2.740000e-06	3.724734e-06	1.228378e-09	2.645365e+01	7.878387e+01
2.750000e-06	3.757373e-06	1.228157e-09	2.668546e+01	7.922948e+01
2.760000e-06	3.789709e-06	1.228928e-09	2.691511e+01	7.964887e+01
2.770000e-06	3.821695e-06	1.229389e-09	2.714229e+01	8.004319e+01
2.780000e-06	3.853534e-06	1.233307e-09	2.736841e+01	8.041378e+01
2.790000e-06	3.885314e-06	1.243958e-09	2.759412e+01	8.076219e+01
2.800000e-06	3.916958e-06	1.255198e-09	2.781885e+01	8.109012e+01
2.810000e-06	3.948403e-06	1.259605e-09	2.804219e+01	8.139933e+01
2.820000e-06	3.979600e-06	1.260623e-09	2.826375e+01	8.169160e+01
2.830000e-06	4.010387e-06	1.261762e-09	2.848241e+01	8.196866e+01
2.840000e-06	4.040855e-06	1.263224e-09	2.869879e+01	8.223213e+01
2.850000e-06	4.071054e-06	1.262537e-09	2.891327e+01	8.248343e+01
2.860000e-06	4.101001e-06	1.260596e-09	2.912596e+01	8.272378e+01
2.870000e-06	4.130690e-06	1.263191e-09	2.933682e+01	8.295416e+01
2.880000e-06	4.160077e-06	1.271970e-09	2.954553e+01	8.317526e+01
2.890000e-06	4.189219e-06	1.278144e-09	2.975250e+01	8.338752e+01
2.900000e-06	4.218120e-06	1.279441e-09	2.995776e+01	8.359111e+01
