# Temperatura_=_15.03
# Concentracion g/m^3_=_4090.0
# C_Vs_to_Am_M_A/Vsm_=_65563218390.804596
# pendiente_HvsI_1/m_=_3716.3
# ordenada_HvsI_A/m_=_1297.0
# frecuencia_Hz_=_135086.39724868166

Tiempo_(s)	Campo_(V.s)	Magnetizacion_(V.s)	Campo_(kA/m)	Magnetizacion_(A/m)
0.000000e+00	-5.407213e-06	-1.296999e-09	-3.838407e+01	-8.528178e+01
1.000000e-08	-5.407462e-06	-1.291164e-09	-3.838585e+01	-8.512091e+01
2.000000e-08	-5.407573e-06	-1.287829e-09	-3.838664e+01	-8.494206e+01
3.000000e-08	-5.407441e-06	-1.284605e-09	-3.838570e+01	-8.474607e+01
4.000000e-08	-5.406879e-06	-1.281342e-09	-3.838171e+01	-8.453462e+01
5.000000e-08	-5.405896e-06	-1.279283e-09	-3.837473e+01	-8.431026e+01
6.000000e-08	-5.404411e-06	-1.276786e-09	-3.836418e+01	-8.407639e+01
7.000000e-08	-5.402268e-06	-1.273723e-09	-3.834897e+01	-8.383714e+01
8.000000e-08	-5.399505e-06	-1.292594e-09	-3.832936e+01	-8.359728e+01
9.000000e-08	-5.396094e-06	-1.301784e-09	-3.830515e+01	-8.336203e+01
1.000000e-07	-5.392129e-06	-1.271505e-09	-3.827700e+01	-8.313689e+01
1.100000e-07	-5.387919e-06	-1.236202e-09	-3.824712e+01	-8.292742e+01
1.200000e-07	-5.383603e-06	-1.294475e-09	-3.821648e+01	-8.273903e+01
1.300000e-07	-5.379059e-06	-1.300960e-09	-3.818423e+01	-8.257673e+01
1.400000e-07	-5.374068e-06	-1.266455e-09	-3.814879e+01	-8.244493e+01
1.500000e-07	-5.368602e-06	-1.229308e-09	-3.810999e+01	-8.234723e+01
1.600000e-07	-5.362874e-06	-1.302003e-09	-3.806933e+01	-8.228625e+01
1.700000e-07	-5.356883e-06	-1.291444e-09	-3.802680e+01	-8.226348e+01
1.800000e-07	-5.350434e-06	-1.213630e-09	-3.798102e+01	-8.227921e+01
1.900000e-07	-5.343465e-06	-1.199472e-09	-3.793155e+01	-8.233247e+01
2.000000e-07	-5.336181e-06	-1.295232e-09	-3.787985e+01	-8.242103e+01
2.100000e-07	-5.328706e-06	-1.292506e-09	-3.782678e+01	-8.254151e+01
2.200000e-07	-5.320923e-06	-1.210755e-09	-3.777153e+01	-8.268939e+01
2.300000e-07	-5.312862e-06	-1.238303e-09	-3.771431e+01	-8.285927e+01
2.400000e-07	-5.304591e-06	-1.321580e-09	-3.765559e+01	-8.304501e+01
2.500000e-07	-5.295788e-06	-1.311442e-09	-3.759311e+01	-8.323996e+01
2.600000e-07	-5.286257e-06	-1.248446e-09	-3.752545e+01	-8.343722e+01
2.700000e-07	-5.276123e-06	-1.311456e-09	-3.745351e+01	-8.362987e+01
2.800000e-07	-5.265440e-06	-1.342206e-09	-3.737768e+01	-8.381125e+01
2.900000e-07	-5.254364e-06	-1.263403e-09	-3.729905e+01	-8.397520e+01
3.000000e-07	-5.242896e-06	-1.221601e-09	-3.721764e+01	-8.411624e+01
3.100000e-07	-5.230891e-06	-1.309070e-09	-3.713242e+01	-8.422980e+01
3.200000e-07	-5.218397e-06	-1.292430e-09	-3.704374e+01	-8.431234e+01
3.300000e-07	-5.205730e-06	-1.257314e-09	-3.695382e+01	-8.436143e+01
3.400000e-07	-5.192737e-06	-1.282200e-09	-3.686158e+01	-8.437583e+01
3.500000e-07	-5.179233e-06	-1.327182e-09	-3.676572e+01	-8.435545e+01
3.600000e-07	-5.165453e-06	-1.270184e-09	-3.666790e+01	-8.430132e+01
3.700000e-07	-5.151364e-06	-1.279526e-09	-3.656789e+01	-8.421546e+01
3.800000e-07	-5.136640e-06	-1.284530e-09	-3.646336e+01	-8.410078e+01
3.900000e-07	-5.121360e-06	-1.246945e-09	-3.635490e+01	-8.396086e+01
4.000000e-07	-5.105489e-06	-1.231269e-09	-3.624224e+01	-8.379978e+01
4.100000e-07	-5.088967e-06	-1.284809e-09	-3.612495e+01	-8.362190e+01
4.200000e-07	-5.072129e-06	-1.264609e-09	-3.600542e+01	-8.343166e+01
4.300000e-07	-5.055039e-06	-1.230576e-09	-3.588411e+01	-8.323334e+01
4.400000e-07	-5.037701e-06	-1.264338e-09	-3.576103e+01	-8.303094e+01
4.500000e-07	-5.020105e-06	-1.281914e-09	-3.563613e+01	-8.282793e+01
4.600000e-07	-5.002096e-06	-1.234862e-09	-3.550828e+01	-8.262721e+01
4.700000e-07	-4.983714e-06	-1.222061e-09	-3.537779e+01	-8.243094e+01
4.800000e-07	-4.964998e-06	-1.235872e-09	-3.524494e+01	-8.224056e+01
4.900000e-07	-4.945872e-06	-1.224953e-09	-3.510917e+01	-8.205673e+01
5.000000e-07	-4.926396e-06	-1.226826e-09	-3.497091e+01	-8.187939e+01
5.100000e-07	-4.906673e-06	-1.223096e-09	-3.483091e+01	-8.170780e+01
5.200000e-07	-4.886758e-06	-1.209047e-09	-3.468953e+01	-8.154069e+01
5.300000e-07	-4.866583e-06	-1.217388e-09	-3.454632e+01	-8.137632e+01
5.400000e-07	-4.846111e-06	-1.237249e-09	-3.440100e+01	-8.121268e+01
5.500000e-07	-4.825292e-06	-1.206945e-09	-3.425320e+01	-8.104761e+01
5.600000e-07	-4.804123e-06	-1.194633e-09	-3.410294e+01	-8.087894e+01
5.700000e-07	-4.782591e-06	-1.209812e-09	-3.395009e+01	-8.070467e+01
5.800000e-07	-4.760759e-06	-1.210863e-09	-3.379511e+01	-8.052306e+01
5.900000e-07	-4.738752e-06	-1.184618e-09	-3.363889e+01	-8.033276e+01
6.000000e-07	-4.716412e-06	-1.184131e-09	-3.348030e+01	-8.013285e+01
6.100000e-07	-4.693685e-06	-1.184057e-09	-3.331897e+01	-7.992296e+01
6.200000e-07	-4.670660e-06	-1.193204e-09	-3.315552e+01	-7.970321e+01
6.300000e-07	-4.647322e-06	-1.190436e-09	-3.298985e+01	-7.947424e+01
6.400000e-07	-4.623670e-06	-1.181027e-09	-3.282196e+01	-7.923714e+01
6.500000e-07	-4.599768e-06	-1.172933e-09	-3.265228e+01	-7.899341e+01
6.600000e-07	-4.575713e-06	-1.188540e-09	-3.248153e+01	-7.874485e+01
6.700000e-07	-4.551396e-06	-1.182191e-09	-3.230891e+01	-7.849346e+01
6.800000e-07	-4.526651e-06	-1.164728e-09	-3.213325e+01	-7.824132e+01
6.900000e-07	-4.501467e-06	-1.156511e-09	-3.195447e+01	-7.799049e+01
7.000000e-07	-4.475843e-06	-1.164585e-09	-3.177258e+01	-7.774290e+01
7.100000e-07	-4.449710e-06	-1.161874e-09	-3.158707e+01	-7.750023e+01
7.200000e-07	-4.423046e-06	-1.156694e-09	-3.139779e+01	-7.726385e+01
7.300000e-07	-4.396101e-06	-1.150072e-09	-3.120651e+01	-7.703473e+01
7.400000e-07	-4.368848e-06	-1.156282e-09	-3.101306e+01	-7.681344e+01
7.500000e-07	-4.341184e-06	-1.160948e-09	-3.081668e+01	-7.660011e+01
7.600000e-07	-4.313308e-06	-1.151774e-09	-3.061880e+01	-7.639442e+01
7.700000e-07	-4.285255e-06	-1.138619e-09	-3.041966e+01	-7.619567e+01
7.800000e-07	-4.256918e-06	-1.137849e-09	-3.021850e+01	-7.600280e+01
7.900000e-07	-4.228316e-06	-1.139109e-09	-3.001547e+01	-7.581448e+01
8.000000e-07	-4.199541e-06	-1.131509e-09	-2.981120e+01	-7.562916e+01
8.100000e-07	-4.170477e-06	-1.124994e-09	-2.960488e+01	-7.544519e+01
8.200000e-07	-4.141009e-06	-1.122010e-09	-2.939570e+01	-7.526086e+01
8.300000e-07	-4.111243e-06	-1.127119e-09	-2.918440e+01	-7.507453e+01
8.400000e-07	-4.081247e-06	-1.127852e-09	-2.897147e+01	-7.488470e+01
8.500000e-07	-4.050845e-06	-1.124659e-09	-2.875566e+01	-7.469002e+01
8.600000e-07	-4.020186e-06	-1.118042e-09	-2.853801e+01	-7.448942e+01
8.700000e-07	-3.989289e-06	-1.118934e-09	-2.831869e+01	-7.428207e+01
8.800000e-07	-3.958169e-06	-1.114077e-09	-2.809778e+01	-7.406746e+01
8.900000e-07	-3.926822e-06	-1.106354e-09	-2.787526e+01	-7.384535e+01
9.000000e-07	-3.895130e-06	-1.095391e-09	-2.765028e+01	-7.361576e+01
9.100000e-07	-3.863305e-06	-1.094396e-09	-2.742437e+01	-7.337897e+01
9.200000e-07	-3.831372e-06	-1.095243e-09	-2.719769e+01	-7.313545e+01
9.300000e-07	-3.799242e-06	-1.099086e-09	-2.696960e+01	-7.288582e+01
9.400000e-07	-3.766815e-06	-1.100056e-09	-2.673941e+01	-7.263080e+01
9.500000e-07	-3.734143e-06	-1.106024e-09	-2.650749e+01	-7.237115e+01
9.600000e-07	-3.701232e-06	-1.105725e-09	-2.627386e+01	-7.210765e+01
9.700000e-07	-3.667969e-06	-1.096657e-09	-2.603774e+01	-7.184102e+01
9.800000e-07	-3.634304e-06	-1.076479e-09	-2.579876e+01	-7.157192e+01
9.900000e-07	-3.600114e-06	-1.061387e-09	-2.555606e+01	-7.130090e+01
1.000000e-06	-3.565567e-06	-1.055548e-09	-2.531082e+01	-7.102841e+01
1.010000e-06	-3.530668e-06	-1.059570e-09	-2.506309e+01	-7.075480e+01
1.020000e-06	-3.495389e-06	-1.062521e-09	-2.481265e+01	-7.048030e+01
1.030000e-06	-3.459914e-06	-1.065190e-09	-2.456082e+01	-7.020508e+01
1.040000e-06	-3.424184e-06	-1.065826e-09	-2.430719e+01	-6.992923e+01
1.050000e-06	-3.388271e-06	-1.063036e-09	-2.405225e+01	-6.965284e+01
1.060000e-06	-3.352209e-06	-1.051547e-09	-2.379626e+01	-6.937595e+01
1.070000e-06	-3.315946e-06	-1.033346e-09	-2.353884e+01	-6.909866e+01
1.080000e-06	-3.279426e-06	-1.018275e-09	-2.327959e+01	-6.882108e+01
1.090000e-06	-3.242763e-06	-1.013378e-09	-2.301934e+01	-6.854338e+01
1.100000e-06	-3.205956e-06	-1.016134e-09	-2.275806e+01	-6.826580e+01
1.110000e-06	-3.168850e-06	-1.018683e-09	-2.249465e+01	-6.798860e+01
1.120000e-06	-3.131486e-06	-1.020864e-09	-2.222942e+01	-6.771211e+01
1.130000e-06	-3.093894e-06	-1.020150e-09	-2.196257e+01	-6.743664e+01
1.140000e-06	-3.056087e-06	-1.017570e-09	-2.169419e+01	-6.716252e+01
1.150000e-06	-3.018124e-06	-1.008156e-09	-2.142469e+01	-6.689001e+01
1.160000e-06	-2.979942e-06	-9.955996e-10	-2.115366e+01	-6.661929e+01
1.170000e-06	-2.941489e-06	-9.852218e-10	-2.088069e+01	-6.635043e+01
1.180000e-06	-2.902791e-06	-9.841593e-10	-2.060598e+01	-6.608334e+01
1.190000e-06	-2.863954e-06	-9.824393e-10	-2.033030e+01	-6.581778e+01
1.200000e-06	-2.824943e-06	-9.799891e-10	-2.005337e+01	-6.555329e+01
1.210000e-06	-2.785620e-06	-9.771671e-10	-1.977423e+01	-6.528925e+01
1.220000e-06	-2.746177e-06	-9.787245e-10	-1.949423e+01	-6.502483e+01
1.230000e-06	-2.706571e-06	-9.778915e-10	-1.921308e+01	-6.475906e+01
1.240000e-06	-2.666741e-06	-9.714342e-10	-1.893034e+01	-6.449083e+01
1.250000e-06	-2.626872e-06	-9.604499e-10	-1.864732e+01	-6.421895e+01
1.260000e-06	-2.586939e-06	-9.554476e-10	-1.836385e+01	-6.394219e+01
1.270000e-06	-2.546877e-06	-9.545118e-10	-1.807947e+01	-6.365935e+01
1.280000e-06	-2.506690e-06	-9.499516e-10	-1.779419e+01	-6.336932e+01
1.290000e-06	-2.466403e-06	-9.410438e-10	-1.750820e+01	-6.307116e+01
1.300000e-06	-2.425962e-06	-9.351050e-10	-1.722113e+01	-6.276411e+01
1.310000e-06	-2.385319e-06	-9.326925e-10	-1.693262e+01	-6.244767e+01
1.320000e-06	-2.344492e-06	-9.295330e-10	-1.664280e+01	-6.212164e+01
1.330000e-06	-2.303444e-06	-9.213787e-10	-1.635142e+01	-6.178611e+01
1.340000e-06	-2.262217e-06	-9.150029e-10	-1.605876e+01	-6.144151e+01
1.350000e-06	-2.220790e-06	-9.125707e-10	-1.576468e+01	-6.108855e+01
1.360000e-06	-2.179074e-06	-9.108245e-10	-1.546855e+01	-6.072823e+01
1.370000e-06	-2.136978e-06	-9.038760e-10	-1.516972e+01	-6.036174e+01
1.380000e-06	-2.094620e-06	-8.954812e-10	-1.486904e+01	-5.999048e+01
1.390000e-06	-2.052049e-06	-8.929008e-10	-1.456684e+01	-5.961588e+01
1.400000e-06	-2.009124e-06	-8.926736e-10	-1.426213e+01	-5.923943e+01
1.410000e-06	-1.966067e-06	-8.887041e-10	-1.395648e+01	-5.886251e+01
1.420000e-06	-1.922927e-06	-8.805525e-10	-1.365025e+01	-5.848634e+01
1.430000e-06	-1.879617e-06	-8.763397e-10	-1.334280e+01	-5.811192e+01
1.440000e-06	-1.836219e-06	-8.747160e-10	-1.303473e+01	-5.773994e+01
1.450000e-06	-1.792672e-06	-8.694360e-10	-1.272561e+01	-5.737071e+01
1.460000e-06	-1.748966e-06	-8.592847e-10	-1.241535e+01	-5.700418e+01
1.470000e-06	-1.705150e-06	-8.531530e-10	-1.210432e+01	-5.663988e+01
1.480000e-06	-1.661244e-06	-8.509571e-10	-1.179264e+01	-5.627696e+01
1.490000e-06	-1.617230e-06	-8.485984e-10	-1.148020e+01	-5.591417e+01
1.500000e-06	-1.573080e-06	-8.419578e-10	-1.116679e+01	-5.554996e+01
1.510000e-06	-1.528875e-06	-8.370381e-10	-1.085300e+01	-5.518253e+01
1.520000e-06	-1.484621e-06	-8.350871e-10	-1.053885e+01	-5.480990e+01
1.530000e-06	-1.440304e-06	-8.301522e-10	-1.022425e+01	-5.443001e+01
1.540000e-06	-1.395889e-06	-8.188207e-10	-9.908971e+00	-5.404080e+01
1.550000e-06	-1.351381e-06	-8.092328e-10	-9.593021e+00	-5.364034e+01
1.560000e-06	-1.306800e-06	-8.058480e-10	-9.276559e+00	-5.322688e+01
1.570000e-06	-1.262195e-06	-8.068421e-10	-8.959922e+00	-5.279897e+01
1.580000e-06	-1.217619e-06	-8.050241e-10	-8.643488e+00	-5.235547e+01
1.590000e-06	-1.172925e-06	-8.001309e-10	-8.326223e+00	-5.189566e+01
1.600000e-06	-1.128140e-06	-7.950417e-10	-8.008305e+00	-5.141921e+01
1.610000e-06	-1.083277e-06	-7.881485e-10	-7.689838e+00	-5.092622e+01
1.620000e-06	-1.038226e-06	-7.760975e-10	-7.370033e+00	-5.041716e+01
1.630000e-06	-9.930307e-07	-7.596616e-10	-7.049208e+00	-4.989285e+01
1.640000e-06	-9.477937e-07	-7.456592e-10	-6.728085e+00	-4.935440e+01
1.650000e-06	-9.025590e-07	-7.354498e-10	-6.406978e+00	-4.880311e+01
1.660000e-06	-8.573237e-07	-7.281912e-10	-6.085867e+00	-4.824037e+01
1.670000e-06	-8.120379e-07	-7.208313e-10	-5.764398e+00	-4.766760e+01
1.680000e-06	-7.667315e-07	-7.136723e-10	-5.442782e+00	-4.708609e+01
1.690000e-06	-7.214019e-07	-7.074351e-10	-5.121002e+00	-4.649697e+01
1.700000e-06	-6.759222e-07	-6.979435e-10	-4.798156e+00	-4.590104e+01
1.710000e-06	-6.303582e-07	-6.868875e-10	-4.474712e+00	-4.529877e+01
1.720000e-06	-5.847602e-07	-6.760822e-10	-4.151026e+00	-4.469021e+01
1.730000e-06	-5.391020e-07	-6.670433e-10	-3.826913e+00	-4.407495e+01
1.740000e-06	-4.934840e-07	-6.567000e-10	-3.503085e+00	-4.345214e+01
1.750000e-06	-4.478401e-07	-6.439086e-10	-3.179074e+00	-4.282045e+01
1.760000e-06	-4.020367e-07	-6.321320e-10	-2.853930e+00	-4.217817e+01
1.770000e-06	-3.561605e-07	-6.214925e-10	-2.528269e+00	-4.152324e+01
1.780000e-06	-3.102743e-07	-6.125236e-10	-2.202538e+00	-4.085330e+01
1.790000e-06	-2.643294e-07	-6.032230e-10	-1.876390e+00	-4.016583e+01
1.800000e-06	-2.184419e-07	-5.933974e-10	-1.550649e+00	-3.945820e+01
1.810000e-06	-1.726912e-07	-5.831751e-10	-1.225880e+00	-3.872782e+01
1.820000e-06	-1.269560e-07	-5.691815e-10	-9.012200e-01	-3.797219e+01
1.830000e-06	-8.117885e-08	-5.510334e-10	-5.762627e-01	-3.718905e+01
1.840000e-06	-3.536817e-08	-5.335348e-10	-2.510674e-01	-3.637639e+01
1.850000e-06	1.047266e-08	-5.191748e-10	7.434205e-02	-3.553258e+01
1.860000e-06	5.642221e-08	-5.070742e-10	4.005233e-01	-3.465638e+01
1.870000e-06	1.023559e-07	-4.965030e-10	7.265918e-01	-3.374696e+01
1.880000e-06	1.482018e-07	-4.887458e-10	1.052037e+00	-3.280393e+01
1.890000e-06	1.940585e-07	-4.811910e-10	1.377559e+00	-3.182728e+01
1.900000e-06	2.398615e-07	-4.680261e-10	1.702700e+00	-3.081737e+01
1.910000e-06	2.856385e-07	-4.446353e-10	2.027657e+00	-2.977487e+01
1.920000e-06	3.314250e-07	-4.189487e-10	2.352680e+00	-2.870066e+01
1.930000e-06	3.771426e-07	-3.972202e-10	2.677215e+00	-2.759580e+01
1.940000e-06	4.228421e-07	-3.773423e-10	3.001621e+00	-2.646140e+01
1.950000e-06	4.685760e-07	-3.585402e-10	3.326271e+00	-2.529856e+01
1.960000e-06	5.142634e-07	-3.425521e-10	3.650592e+00	-2.410832e+01
1.970000e-06	5.599201e-07	-3.288897e-10	3.974694e+00	-2.289155e+01
1.980000e-06	6.055037e-07	-3.157017e-10	4.298277e+00	-2.164892e+01
1.990000e-06	6.510142e-07	-2.972620e-10	4.621342e+00	-2.038089e+01
2.000000e-06	6.965870e-07	-2.728605e-10	4.944849e+00	-1.908766e+01
2.010000e-06	7.420679e-07	-2.482355e-10	5.267703e+00	-1.776921e+01
2.020000e-06	7.874284e-07	-2.272747e-10	5.589703e+00	-1.642530e+01
2.030000e-06	8.327551e-07	-2.072126e-10	5.911463e+00	-1.505554e+01
2.040000e-06	8.780151e-07	-1.853700e-10	6.232749e+00	-1.365942e+01
2.050000e-06	9.231784e-07	-1.632918e-10	6.553349e+00	-1.223638e+01
2.060000e-06	9.682050e-07	-1.427997e-10	6.872978e+00	-1.078591e+01
2.070000e-06	1.013163e-06	-1.217724e-10	7.192118e+00	-9.307606e+00
2.080000e-06	1.058088e-06	-9.720725e-11	7.511029e+00	-7.801225e+00
2.090000e-06	1.102949e-06	-7.030461e-11	7.829479e+00	-6.266782e+00
2.100000e-06	1.147640e-06	-4.593639e-11	8.146727e+00	-4.704584e+00
2.110000e-06	1.192232e-06	-2.463421e-11	8.463275e+00	-3.115271e+00
2.120000e-06	1.236841e-06	1.916941e-13	8.779936e+00	-1.499836e+00
2.130000e-06	1.281430e-06	2.767988e-11	9.096463e+00	1.403671e-01
2.140000e-06	1.325922e-06	5.227704e-11	9.412300e+00	1.803648e+00
2.150000e-06	1.370349e-06	7.527031e-11	9.727672e+00	3.488004e+00
2.160000e-06	1.414724e-06	1.021932e-10	1.004268e+01	5.191177e+00
2.170000e-06	1.458982e-06	1.298595e-10	1.035685e+01	6.910705e+00
2.180000e-06	1.503159e-06	1.525834e-10	1.067044e+01	8.643998e+00
2.190000e-06	1.547325e-06	1.711795e-10	1.098397e+01	1.038841e+01
2.200000e-06	1.591463e-06	1.937950e-10	1.129729e+01	1.214131e+01
2.210000e-06	1.635523e-06	2.216644e-10	1.161006e+01	1.390014e+01
2.220000e-06	1.679510e-06	2.492617e-10	1.192231e+01	1.566252e+01
2.230000e-06	1.723433e-06	2.753621e-10	1.223410e+01	1.742622e+01
2.240000e-06	1.767334e-06	3.039694e-10	1.254574e+01	1.918927e+01
2.250000e-06	1.811178e-06	3.350643e-10	1.285698e+01	2.094993e+01
2.260000e-06	1.854880e-06	3.644370e-10	1.316720e+01	2.270669e+01
2.270000e-06	1.898423e-06	3.905810e-10	1.347630e+01	2.445829e+01
2.280000e-06	1.941779e-06	4.163687e-10	1.378407e+01	2.620363e+01
2.290000e-06	1.984939e-06	4.441207e-10	1.409045e+01	2.794177e+01
2.300000e-06	2.027899e-06	4.709615e-10	1.439540e+01	2.967187e+01
2.310000e-06	2.070665e-06	4.949324e-10	1.469899e+01	3.139308e+01
2.320000e-06	2.113165e-06	5.190214e-10	1.500068e+01	3.310455e+01
2.330000e-06	2.155394e-06	5.461609e-10	1.530045e+01	3.480531e+01
2.340000e-06	2.197373e-06	5.735171e-10	1.559845e+01	3.649423e+01
2.350000e-06	2.238975e-06	5.990108e-10	1.589377e+01	3.817001e+01
2.360000e-06	2.280232e-06	6.214947e-10	1.618664e+01	3.983109e+01
2.370000e-06	2.321116e-06	6.444632e-10	1.647686e+01	4.147570e+01
2.380000e-06	2.361791e-06	6.709500e-10	1.676560e+01	4.310181e+01
2.390000e-06	2.402374e-06	6.970472e-10	1.705369e+01	4.470720e+01
2.400000e-06	2.442760e-06	7.198256e-10	1.734037e+01	4.628946e+01
2.410000e-06	2.483063e-06	7.413975e-10	1.762647e+01	4.784609e+01
2.420000e-06	2.523281e-06	7.662969e-10	1.791197e+01	4.937450e+01
2.430000e-06	2.563369e-06	7.943326e-10	1.819654e+01	5.087216e+01
2.440000e-06	2.603368e-06	8.220110e-10	1.848048e+01	5.233663e+01
2.450000e-06	2.643231e-06	8.450942e-10	1.876345e+01	5.376567e+01
2.460000e-06	2.683022e-06	8.650359e-10	1.904592e+01	5.515731e+01
2.470000e-06	2.722680e-06	8.871625e-10	1.932744e+01	5.650989e+01
2.480000e-06	2.762083e-06	9.061608e-10	1.960714e+01	5.782216e+01
2.490000e-06	2.801307e-06	9.203637e-10	1.988558e+01	5.909329e+01
2.500000e-06	2.840337e-06	9.369110e-10	2.016264e+01	6.032290e+01
2.510000e-06	2.879130e-06	9.601127e-10	2.043802e+01	6.151105e+01
2.520000e-06	2.917711e-06	9.861524e-10	2.071190e+01	6.265827e+01
2.530000e-06	2.956089e-06	1.009410e-09	2.098433e+01	6.376544e+01
2.540000e-06	2.994197e-06	1.028230e-09	2.125485e+01	6.483383e+01
2.550000e-06	3.032092e-06	1.042456e-09	2.152385e+01	6.586495e+01
2.560000e-06	3.069931e-06	1.054242e-09	2.179246e+01	6.686054e+01
2.570000e-06	3.107640e-06	1.065855e-09	2.206015e+01	6.782244e+01
2.580000e-06	3.145115e-06	1.077310e-09	2.232617e+01	6.875254e+01
2.590000e-06	3.182295e-06	1.090854e-09	2.259009e+01	6.965268e+01
2.600000e-06	3.219163e-06	1.107559e-09	2.285181e+01	7.052458e+01
2.610000e-06	3.255779e-06	1.126025e-09	2.311173e+01	7.136977e+01
2.620000e-06	3.292199e-06	1.144411e-09	2.337027e+01	7.218955e+01
2.630000e-06	3.328455e-06	1.158691e-09	2.362764e+01	7.298495e+01
2.640000e-06	3.364575e-06	1.166954e-09	2.388404e+01	7.375674e+01
2.650000e-06	3.400596e-06	1.172982e-09	2.413975e+01	7.450537e+01
2.660000e-06	3.436486e-06	1.179371e-09	2.439452e+01	7.523105e+01
2.670000e-06	3.472260e-06	1.186453e-09	2.464847e+01	7.593377e+01
2.680000e-06	3.507884e-06	1.193952e-09	2.490135e+01	7.661331e+01
2.690000e-06	3.543107e-06	1.203415e-09	2.515139e+01	7.726934e+01
2.700000e-06	3.577815e-06	1.213038e-09	2.539777e+01	7.790146e+01
2.710000e-06	3.612324e-06	1.222265e-09	2.564273e+01	7.850924e+01
2.720000e-06	3.646537e-06	1.233071e-09	2.588560e+01	7.909233e+01
2.730000e-06	3.680147e-06	1.242954e-09	2.612419e+01	7.965045e+01
2.740000e-06	3.713189e-06	1.254109e-09	2.635875e+01	8.018349e+01
2.750000e-06	3.745844e-06	1.264925e-09	2.659055e+01	8.069151e+01
2.760000e-06	3.778287e-06	1.272522e-09	2.682085e+01	8.117478e+01
2.770000e-06	3.810529e-06	1.276158e-09	2.704973e+01	8.163373e+01
2.780000e-06	3.842613e-06	1.279377e-09	2.727748e+01	8.206903e+01
2.790000e-06	3.874591e-06	1.284075e-09	2.750449e+01	8.248148e+01
2.800000e-06	3.906386e-06	1.287303e-09	2.773019e+01	8.287205e+01
2.810000e-06	3.937958e-06	1.287566e-09	2.795431e+01	8.324178e+01
2.820000e-06	3.969212e-06	1.287823e-09	2.817617e+01	8.359176e+01
2.830000e-06	4.000211e-06	1.293273e-09	2.839622e+01	8.392310e+01
2.840000e-06	4.030890e-06	1.301223e-09	2.861400e+01	8.423683e+01
2.850000e-06	4.061184e-06	1.306763e-09	2.882905e+01	8.453393e+01
2.860000e-06	4.091286e-06	1.310398e-09	2.904273e+01	8.481523e+01
2.870000e-06	4.121220e-06	1.313923e-09	2.925523e+01	8.508142e+01
2.880000e-06	4.150885e-06	1.314893e-09	2.946581e+01	8.533305e+01
2.890000e-06	4.180295e-06	1.310813e-09	2.967458e+01	8.557048e+01
2.900000e-06	4.209401e-06	1.305832e-09	2.988119e+01	8.579395e+01
