# Temperatura_=_-1.5
# Concentracion g/m^3_=_4090.0
# C_Vs_to_Am_M_A/Vsm_=_65563218390.804596
# pendiente_HvsI_1/m_=_3716.3
# ordenada_HvsI_A/m_=_1297.0
# frecuencia_Hz_=_135074.86016490066

Tiempo_(s)	Campo_(V.s)	Magnetizacion_(V.s)	Campo_(kA/m)	Magnetizacion_(A/m)
0.000000e+00	-5.398954e-06	-2.079654e-09	-3.838823e+01	-1.389233e+02
1.000000e-08	-5.399117e-06	-2.079030e-09	-3.838939e+01	-1.387969e+02
2.000000e-08	-5.399104e-06	-2.074105e-09	-3.838930e+01	-1.386519e+02
3.000000e-08	-5.398867e-06	-2.065960e-09	-3.838761e+01	-1.384888e+02
4.000000e-08	-5.398297e-06	-2.058402e-09	-3.838355e+01	-1.383093e+02
5.000000e-08	-5.397271e-06	-2.056720e-09	-3.837626e+01	-1.381159e+02
6.000000e-08	-5.395673e-06	-2.061293e-09	-3.836490e+01	-1.379122e+02
7.000000e-08	-5.393496e-06	-2.073134e-09	-3.834942e+01	-1.377027e+02
8.000000e-08	-5.390810e-06	-2.081547e-09	-3.833032e+01	-1.374925e+02
9.000000e-08	-5.387469e-06	-2.077960e-09	-3.830656e+01	-1.372875e+02
1.000000e-07	-5.383577e-06	-2.052388e-09	-3.827889e+01	-1.370939e+02
1.100000e-07	-5.379391e-06	-2.061306e-09	-3.824913e+01	-1.369181e+02
1.200000e-07	-5.375109e-06	-2.087188e-09	-3.821868e+01	-1.367663e+02
1.300000e-07	-5.370669e-06	-2.078705e-09	-3.818711e+01	-1.366445e+02
1.400000e-07	-5.365768e-06	-2.009688e-09	-3.815226e+01	-1.365579e+02
1.500000e-07	-5.360365e-06	-2.046393e-09	-3.811385e+01	-1.365109e+02
1.600000e-07	-5.354600e-06	-2.104172e-09	-3.807286e+01	-1.365069e+02
1.700000e-07	-5.348572e-06	-2.124279e-09	-3.803000e+01	-1.365480e+02
1.800000e-07	-5.342010e-06	-2.009910e-09	-3.798334e+01	-1.366347e+02
1.900000e-07	-5.334934e-06	-2.036970e-09	-3.793303e+01	-1.367663e+02
2.000000e-07	-5.327704e-06	-2.115870e-09	-3.788161e+01	-1.369406e+02
2.100000e-07	-5.320343e-06	-2.141036e-09	-3.782928e+01	-1.371539e+02
2.200000e-07	-5.312690e-06	-2.065275e-09	-3.777486e+01	-1.374010e+02
2.300000e-07	-5.304773e-06	-2.101635e-09	-3.771857e+01	-1.376756e+02
2.400000e-07	-5.296522e-06	-2.187792e-09	-3.765990e+01	-1.379707e+02
2.500000e-07	-5.287752e-06	-2.176346e-09	-3.759755e+01	-1.382780e+02
2.600000e-07	-5.278306e-06	-2.163806e-09	-3.753038e+01	-1.385893e+02
2.700000e-07	-5.268255e-06	-2.213085e-09	-3.745892e+01	-1.388958e+02
2.800000e-07	-5.257752e-06	-2.249273e-09	-3.738424e+01	-1.391890e+02
2.900000e-07	-5.246706e-06	-2.157849e-09	-3.730570e+01	-1.394608e+02
3.000000e-07	-5.235143e-06	-2.146354e-09	-3.722348e+01	-1.397037e+02
3.100000e-07	-5.223247e-06	-2.189407e-09	-3.713890e+01	-1.399113e+02
3.200000e-07	-5.211006e-06	-2.197269e-09	-3.705186e+01	-1.400782e+02
3.300000e-07	-5.198276e-06	-2.127022e-09	-3.696135e+01	-1.402003e+02
3.400000e-07	-5.185209e-06	-2.181820e-09	-3.686843e+01	-1.402749e+02
3.500000e-07	-5.171802e-06	-2.211020e-09	-3.677311e+01	-1.403006e+02
3.600000e-07	-5.158046e-06	-2.196599e-09	-3.667530e+01	-1.402777e+02
3.700000e-07	-5.143959e-06	-2.153958e-09	-3.657514e+01	-1.402077e+02
3.800000e-07	-5.129341e-06	-2.187027e-09	-3.647120e+01	-1.400931e+02
3.900000e-07	-5.114032e-06	-2.143404e-09	-3.636234e+01	-1.399378e+02
4.000000e-07	-5.098086e-06	-2.136971e-09	-3.624897e+01	-1.397464e+02
4.100000e-07	-5.081615e-06	-2.157419e-09	-3.613185e+01	-1.395241e+02
4.200000e-07	-5.064849e-06	-2.168820e-09	-3.601264e+01	-1.392766e+02
4.300000e-07	-5.047780e-06	-2.128170e-09	-3.589127e+01	-1.390095e+02
4.400000e-07	-5.030383e-06	-2.157698e-09	-3.576757e+01	-1.387286e+02
4.500000e-07	-5.012752e-06	-2.174399e-09	-3.564221e+01	-1.384393e+02
4.600000e-07	-4.994814e-06	-2.134718e-09	-3.551467e+01	-1.381464e+02
4.700000e-07	-4.976520e-06	-2.108908e-09	-3.538460e+01	-1.378541e+02
4.800000e-07	-4.957824e-06	-2.132221e-09	-3.525165e+01	-1.375657e+02
4.900000e-07	-4.938766e-06	-2.127706e-09	-3.511615e+01	-1.372840e+02
5.000000e-07	-4.919434e-06	-2.104354e-09	-3.497869e+01	-1.370106e+02
5.100000e-07	-4.899821e-06	-2.103913e-09	-3.483924e+01	-1.367463e+02
5.200000e-07	-4.879925e-06	-2.098122e-09	-3.469777e+01	-1.364912e+02
5.300000e-07	-4.859827e-06	-2.103865e-09	-3.455487e+01	-1.362447e+02
5.400000e-07	-4.839507e-06	-2.106367e-09	-3.441038e+01	-1.360053e+02
5.500000e-07	-4.818899e-06	-2.097413e-09	-3.426386e+01	-1.357715e+02
5.600000e-07	-4.797928e-06	-2.079450e-09	-3.411475e+01	-1.355412e+02
5.700000e-07	-4.776548e-06	-2.099269e-09	-3.396273e+01	-1.353122e+02
5.800000e-07	-4.754766e-06	-2.090845e-09	-3.380785e+01	-1.350823e+02
5.900000e-07	-4.732670e-06	-2.069224e-09	-3.365075e+01	-1.348496e+02
6.000000e-07	-4.710347e-06	-2.053927e-09	-3.349202e+01	-1.346122e+02
6.100000e-07	-4.687699e-06	-2.067390e-09	-3.333099e+01	-1.343688e+02
6.200000e-07	-4.664744e-06	-2.063725e-09	-3.316777e+01	-1.341184e+02
6.300000e-07	-4.641419e-06	-2.066775e-09	-3.300192e+01	-1.338604e+02
6.400000e-07	-4.617762e-06	-2.053061e-09	-3.283371e+01	-1.335949e+02
6.500000e-07	-4.593924e-06	-2.058472e-09	-3.266421e+01	-1.333221e+02
6.600000e-07	-4.569905e-06	-2.061643e-09	-3.249343e+01	-1.330428e+02
6.700000e-07	-4.545702e-06	-2.059028e-09	-3.232134e+01	-1.327582e+02
6.800000e-07	-4.521132e-06	-2.030394e-09	-3.214664e+01	-1.324696e+02
6.900000e-07	-4.496126e-06	-2.027422e-09	-3.196884e+01	-1.321784e+02
7.000000e-07	-4.470673e-06	-2.028142e-09	-3.178786e+01	-1.318863e+02
7.100000e-07	-4.444721e-06	-2.026483e-09	-3.160334e+01	-1.315946e+02
7.200000e-07	-4.418213e-06	-2.014688e-09	-3.141486e+01	-1.313046e+02
7.300000e-07	-4.391145e-06	-2.018181e-09	-3.122239e+01	-1.310175e+02
7.400000e-07	-4.363707e-06	-2.022651e-09	-3.102730e+01	-1.307340e+02
7.500000e-07	-4.336078e-06	-2.028396e-09	-3.083085e+01	-1.304546e+02
7.600000e-07	-4.308248e-06	-2.017418e-09	-3.063297e+01	-1.301795e+02
7.700000e-07	-4.280256e-06	-2.004105e-09	-3.043394e+01	-1.299084e+02
7.800000e-07	-4.252060e-06	-2.000410e-09	-3.023346e+01	-1.296408e+02
7.900000e-07	-4.223588e-06	-1.998755e-09	-3.003101e+01	-1.293758e+02
8.000000e-07	-4.194807e-06	-1.987804e-09	-2.982637e+01	-1.291125e+02
8.100000e-07	-4.165669e-06	-1.976587e-09	-2.961919e+01	-1.288497e+02
8.200000e-07	-4.136243e-06	-1.977489e-09	-2.940996e+01	-1.285861e+02
8.300000e-07	-4.106555e-06	-1.977775e-09	-2.919887e+01	-1.283204e+02
8.400000e-07	-4.076621e-06	-1.973643e-09	-2.898603e+01	-1.280515e+02
8.500000e-07	-4.046444e-06	-1.961627e-09	-2.877146e+01	-1.277783e+02
8.600000e-07	-4.015939e-06	-1.959598e-09	-2.855457e+01	-1.274999e+02
8.700000e-07	-3.985087e-06	-1.959903e-09	-2.833520e+01	-1.272158e+02
8.800000e-07	-3.953970e-06	-1.960820e-09	-2.811395e+01	-1.269255e+02
8.900000e-07	-3.922711e-06	-1.945286e-09	-2.789168e+01	-1.266290e+02
9.000000e-07	-3.891291e-06	-1.932962e-09	-2.766828e+01	-1.263263e+02
9.100000e-07	-3.859650e-06	-1.924231e-09	-2.744330e+01	-1.260178e+02
9.200000e-07	-3.827800e-06	-1.926628e-09	-2.721684e+01	-1.257041e+02
9.300000e-07	-3.795705e-06	-1.921719e-09	-2.698863e+01	-1.253859e+02
9.400000e-07	-3.763349e-06	-1.921833e-09	-2.675857e+01	-1.250639e+02
9.500000e-07	-3.730793e-06	-1.923246e-09	-2.652709e+01	-1.247390e+02
9.600000e-07	-3.697932e-06	-1.931151e-09	-2.629344e+01	-1.244118e+02
9.700000e-07	-3.664580e-06	-1.925876e-09	-2.605629e+01	-1.240832e+02
9.800000e-07	-3.630797e-06	-1.911735e-09	-2.581609e+01	-1.237535e+02
9.900000e-07	-3.596654e-06	-1.891551e-09	-2.557332e+01	-1.234231e+02
1.000000e-06	-3.562091e-06	-1.882194e-09	-2.532757e+01	-1.230923e+02
1.010000e-06	-3.527166e-06	-1.877806e-09	-2.507924e+01	-1.227610e+02
1.020000e-06	-3.492006e-06	-1.877687e-09	-2.482924e+01	-1.224289e+02
1.030000e-06	-3.456592e-06	-1.876293e-09	-2.457744e+01	-1.220956e+02
1.040000e-06	-3.420915e-06	-1.880266e-09	-2.432376e+01	-1.217605e+02
1.050000e-06	-3.385014e-06	-1.880344e-09	-2.406849e+01	-1.214229e+02
1.060000e-06	-3.348952e-06	-1.869883e-09	-2.381208e+01	-1.210820e+02
1.070000e-06	-3.312802e-06	-1.850642e-09	-2.355504e+01	-1.207370e+02
1.080000e-06	-3.276513e-06	-1.834705e-09	-2.329702e+01	-1.203871e+02
1.090000e-06	-3.239988e-06	-1.826093e-09	-2.303731e+01	-1.200317e+02
1.100000e-06	-3.203151e-06	-1.822266e-09	-2.277539e+01	-1.196701e+02
1.110000e-06	-3.166010e-06	-1.820765e-09	-2.251130e+01	-1.193018e+02
1.120000e-06	-3.128655e-06	-1.818677e-09	-2.224570e+01	-1.189267e+02
1.130000e-06	-3.091147e-06	-1.818457e-09	-2.197901e+01	-1.185447e+02
1.140000e-06	-3.053419e-06	-1.813430e-09	-2.171075e+01	-1.181557e+02
1.150000e-06	-3.015449e-06	-1.803705e-09	-2.144077e+01	-1.177602e+02
1.160000e-06	-2.977362e-06	-1.790098e-09	-2.116996e+01	-1.173586e+02
1.170000e-06	-2.939117e-06	-1.781408e-09	-2.089803e+01	-1.169514e+02
1.180000e-06	-2.900547e-06	-1.776543e-09	-2.062379e+01	-1.165393e+02
1.190000e-06	-2.861736e-06	-1.772824e-09	-2.034783e+01	-1.161229e+02
1.200000e-06	-2.822737e-06	-1.763357e-09	-2.007053e+01	-1.157029e+02
1.210000e-06	-2.783574e-06	-1.758208e-09	-1.979207e+01	-1.152799e+02
1.220000e-06	-2.744302e-06	-1.753939e-09	-1.951284e+01	-1.148546e+02
1.230000e-06	-2.704809e-06	-1.751319e-09	-1.923203e+01	-1.144271e+02
1.240000e-06	-2.665164e-06	-1.742036e-09	-1.895014e+01	-1.139980e+02
1.250000e-06	-2.625426e-06	-1.734957e-09	-1.866759e+01	-1.135671e+02
1.260000e-06	-2.585520e-06	-1.728776e-09	-1.838385e+01	-1.131344e+02
1.270000e-06	-2.545485e-06	-1.724455e-09	-1.809918e+01	-1.126996e+02
1.280000e-06	-2.505384e-06	-1.715838e-09	-1.781405e+01	-1.122623e+02
1.290000e-06	-2.465214e-06	-1.706379e-09	-1.752843e+01	-1.118221e+02
1.300000e-06	-2.424934e-06	-1.697580e-09	-1.724203e+01	-1.113781e+02
1.310000e-06	-2.384428e-06	-1.691304e-09	-1.695402e+01	-1.109297e+02
1.320000e-06	-2.343705e-06	-1.683777e-09	-1.666446e+01	-1.104762e+02
1.330000e-06	-2.302791e-06	-1.678037e-09	-1.637355e+01	-1.100168e+02
1.340000e-06	-2.261626e-06	-1.677155e-09	-1.608086e+01	-1.095509e+02
1.350000e-06	-2.220204e-06	-1.679395e-09	-1.578633e+01	-1.090777e+02
1.360000e-06	-2.178527e-06	-1.676087e-09	-1.549000e+01	-1.085969e+02
1.370000e-06	-2.136517e-06	-1.666186e-09	-1.519130e+01	-1.081081e+02
1.380000e-06	-2.094232e-06	-1.652859e-09	-1.489063e+01	-1.076109e+02
1.390000e-06	-2.051800e-06	-1.641787e-09	-1.458893e+01	-1.071054e+02
1.400000e-06	-2.009080e-06	-1.632480e-09	-1.428518e+01	-1.065913e+02
1.410000e-06	-1.966070e-06	-1.622054e-09	-1.397936e+01	-1.060689e+02
1.420000e-06	-1.922943e-06	-1.615181e-09	-1.367272e+01	-1.055384e+02
1.430000e-06	-1.879654e-06	-1.612901e-09	-1.336492e+01	-1.049998e+02
1.440000e-06	-1.836161e-06	-1.612613e-09	-1.305567e+01	-1.044534e+02
1.450000e-06	-1.792559e-06	-1.605650e-09	-1.274565e+01	-1.038994e+02
1.460000e-06	-1.748870e-06	-1.594825e-09	-1.243500e+01	-1.033379e+02
1.470000e-06	-1.705070e-06	-1.583145e-09	-1.212358e+01	-1.027691e+02
1.480000e-06	-1.661187e-06	-1.572393e-09	-1.181155e+01	-1.021927e+02
1.490000e-06	-1.617210e-06	-1.561024e-09	-1.149886e+01	-1.016087e+02
1.500000e-06	-1.573144e-06	-1.553711e-09	-1.118554e+01	-1.010168e+02
1.510000e-06	-1.529017e-06	-1.548221e-09	-1.087178e+01	-1.004165e+02
1.520000e-06	-1.484874e-06	-1.543976e-09	-1.055791e+01	-9.980742e+01
1.530000e-06	-1.440752e-06	-1.536039e-09	-1.024419e+01	-9.918894e+01
1.540000e-06	-1.396520e-06	-1.521743e-09	-9.929689e+00	-9.856042e+01
1.550000e-06	-1.352088e-06	-1.503824e-09	-9.613763e+00	-9.792120e+01
1.560000e-06	-1.307658e-06	-1.489619e-09	-9.297855e+00	-9.727062e+01
1.570000e-06	-1.263304e-06	-1.476829e-09	-8.982481e+00	-9.660809e+01
1.580000e-06	-1.218765e-06	-1.466727e-09	-8.665794e+00	-9.593304e+01
1.590000e-06	-1.174120e-06	-1.457724e-09	-8.348353e+00	-9.524505e+01
1.600000e-06	-1.129448e-06	-1.451030e-09	-8.030720e+00	-9.454379e+01
1.610000e-06	-1.084649e-06	-1.442654e-09	-7.712188e+00	-9.382905e+01
1.620000e-06	-1.039724e-06	-1.428740e-09	-7.392761e+00	-9.310077e+01
1.630000e-06	-9.947373e-07	-1.410285e-09	-7.072889e+00	-9.235901e+01
1.640000e-06	-9.497300e-07	-1.393658e-09	-6.752873e+00	-9.160390e+01
1.650000e-06	-9.046051e-07	-1.380300e-09	-6.432021e+00	-9.083568e+01
1.660000e-06	-8.593869e-07	-1.369694e-09	-6.110506e+00	-9.005463e+01
1.670000e-06	-8.141363e-07	-1.359880e-09	-5.788760e+00	-8.926102e+01
1.680000e-06	-7.687771e-07	-1.351543e-09	-5.466242e+00	-8.845507e+01
1.690000e-06	-7.233191e-07	-1.342851e-09	-5.143022e+00	-8.763695e+01
1.700000e-06	-6.778343e-07	-1.329136e-09	-4.819611e+00	-8.680666e+01
1.710000e-06	-6.323050e-07	-1.310969e-09	-4.495884e+00	-8.596405e+01
1.720000e-06	-5.867743e-07	-1.293477e-09	-4.172146e+00	-8.510879e+01
1.730000e-06	-5.412709e-07	-1.279604e-09	-3.848603e+00	-8.424030e+01
1.740000e-06	-4.956629e-07	-1.266775e-09	-3.524316e+00	-8.335778e+01
1.750000e-06	-4.499704e-07	-1.254184e-09	-3.199428e+00	-8.246017e+01
1.760000e-06	-4.042392e-07	-1.241445e-09	-2.874265e+00	-8.154621e+01
1.770000e-06	-3.584379e-07	-1.227376e-09	-2.548604e+00	-8.061442e+01
1.780000e-06	-3.126989e-07	-1.208717e-09	-2.223386e+00	-7.966312e+01
1.790000e-06	-2.669881e-07	-1.189609e-09	-1.898367e+00	-7.869053e+01
1.800000e-06	-2.212056e-07	-1.172598e-09	-1.572840e+00	-7.769475e+01
1.810000e-06	-1.753705e-07	-1.157642e-09	-1.246938e+00	-7.667383e+01
1.820000e-06	-1.296068e-07	-1.140364e-09	-9.215440e-01	-7.562587e+01
1.830000e-06	-8.393064e-08	-1.122708e-09	-5.967727e-01	-7.454898e+01
1.840000e-06	-3.824710e-08	-1.106161e-09	-2.719487e-01	-7.344141e+01
1.850000e-06	7.498110e-09	-1.091373e-09	5.331387e-02	-7.230157e+01
1.860000e-06	5.327612e-08	-1.075447e-09	3.788097e-01	-7.112801e+01
1.870000e-06	9.902581e-08	-1.058416e-09	7.041040e-01	-6.991954e+01
1.880000e-06	1.448139e-07	-1.041990e-09	1.029672e+00	-6.867514e+01
1.890000e-06	1.906311e-07	-1.025833e-09	1.355446e+00	-6.739405e+01
1.900000e-06	2.364065e-07	-1.005794e-09	1.680923e+00	-6.607569e+01
1.910000e-06	2.821841e-07	-9.820705e-10	2.006416e+00	-6.471969e+01
1.920000e-06	3.279521e-07	-9.574911e-10	2.331841e+00	-6.332583e+01
1.930000e-06	3.736928e-07	-9.341977e-10	2.657071e+00	-6.189402e+01
1.940000e-06	4.194009e-07	-9.102366e-10	2.982070e+00	-6.042423e+01
1.950000e-06	4.650457e-07	-8.852786e-10	3.306618e+00	-5.891650e+01
1.960000e-06	5.106364e-07	-8.617482e-10	3.630782e+00	-5.737086e+01
1.970000e-06	5.561541e-07	-8.413530e-10	3.954427e+00	-5.578726e+01
1.980000e-06	6.016374e-07	-8.186897e-10	4.277827e+00	-5.416563e+01
1.990000e-06	6.470923e-07	-7.917776e-10	4.601026e+00	-5.250573e+01
2.000000e-06	6.924682e-07	-7.638315e-10	4.923662e+00	-5.080723e+01
2.010000e-06	7.377862e-07	-7.361881e-10	5.245887e+00	-4.906966e+01
2.020000e-06	7.830771e-07	-7.092935e-10	5.567920e+00	-4.729241e+01
2.030000e-06	8.283601e-07	-6.807194e-10	5.889895e+00	-4.547474e+01
2.040000e-06	8.736029e-07	-6.511177e-10	6.211586e+00	-4.361580e+01
2.050000e-06	9.187581e-07	-6.231899e-10	6.532654e+00	-4.171469e+01
2.060000e-06	9.638095e-07	-5.954414e-10	6.852983e+00	-3.977044e+01
2.070000e-06	1.008696e-06	-5.652313e-10	7.172139e+00	-3.778209e+01
2.080000e-06	1.053480e-06	-5.336061e-10	7.490566e+00	-3.574873e+01
2.090000e-06	1.098292e-06	-5.021548e-10	7.809195e+00	-3.366953e+01
2.100000e-06	1.143038e-06	-4.696475e-10	8.127350e+00	-3.154379e+01
2.110000e-06	1.187639e-06	-4.337838e-10	8.444477e+00	-2.937097e+01
2.120000e-06	1.232131e-06	-3.974013e-10	8.760831e+00	-2.715073e+01
2.130000e-06	1.276576e-06	-3.627863e-10	9.076848e+00	-2.488297e+01
2.140000e-06	1.320968e-06	-3.298768e-10	9.392488e+00	-2.256782e+01
2.150000e-06	1.365295e-06	-2.944760e-10	9.707668e+00	-2.020565e+01
2.160000e-06	1.409570e-06	-2.582532e-10	1.002248e+01	-1.779713e+01
2.170000e-06	1.453788e-06	-2.231181e-10	1.033688e+01	-1.534316e+01
2.180000e-06	1.497956e-06	-1.890286e-10	1.065093e+01	-1.284488e+01
2.190000e-06	1.542035e-06	-1.514819e-10	1.096435e+01	-1.030370e+01
2.200000e-06	1.586063e-06	-1.098019e-10	1.127739e+01	-7.721203e+00
2.210000e-06	1.630045e-06	-6.944286e-11	1.159012e+01	-5.099207e+00
2.220000e-06	1.673990e-06	-3.053109e-11	1.190259e+01	-2.439692e+00
2.230000e-06	1.717896e-06	9.652090e-12	1.221477e+01	2.551941e-01
2.240000e-06	1.761725e-06	5.250374e-11	1.252641e+01	2.983159e+00
2.250000e-06	1.805483e-06	9.402019e-11	1.283754e+01	5.741775e+00
2.260000e-06	1.849132e-06	1.331903e-10	1.314790e+01	8.528487e+00
2.270000e-06	1.892586e-06	1.744789e-10	1.345687e+01	1.134062e+01
2.280000e-06	1.935872e-06	2.204808e-10	1.376465e+01	1.417538e+01
2.290000e-06	1.978946e-06	2.683620e-10	1.407092e+01	1.702985e+01
2.300000e-06	2.021695e-06	3.131877e-10	1.437487e+01	1.990098e+01
2.310000e-06	2.064194e-06	3.541164e-10	1.467706e+01	2.278561e+01
2.320000e-06	2.106587e-06	3.937737e-10	1.497849e+01	2.568042e+01
2.330000e-06	2.148802e-06	4.342257e-10	1.527864e+01	2.858197e+01
2.340000e-06	2.190684e-06	4.750551e-10	1.557644e+01	3.148670e+01
2.350000e-06	2.232252e-06	5.151149e-10	1.587200e+01	3.439088e+01
2.360000e-06	2.273468e-06	5.573027e-10	1.616506e+01	3.729071e+01
2.370000e-06	2.314457e-06	6.023185e-10	1.645650e+01	4.018226e+01
2.380000e-06	2.355323e-06	6.497042e-10	1.674708e+01	4.306153e+01
2.390000e-06	2.395918e-06	6.951826e-10	1.703572e+01	4.592450e+01
2.400000e-06	2.436342e-06	7.366618e-10	1.732314e+01	4.876712e+01
2.410000e-06	2.476635e-06	7.764822e-10	1.760964e+01	5.158536e+01
2.420000e-06	2.516752e-06	8.157614e-10	1.789488e+01	5.437528e+01
2.430000e-06	2.556764e-06	8.546537e-10	1.817938e+01	5.713307e+01
2.440000e-06	2.596675e-06	8.939372e-10	1.846316e+01	5.985506e+01
2.450000e-06	2.636511e-06	9.352200e-10	1.874641e+01	6.253779e+01
2.460000e-06	2.676230e-06	9.765917e-10	1.902882e+01	6.517807e+01
2.470000e-06	2.715774e-06	1.019915e-09	1.930999e+01	6.777295e+01
2.480000e-06	2.755140e-06	1.059664e-09	1.958990e+01	7.031981e+01
2.490000e-06	2.794308e-06	1.094058e-09	1.986839e+01	7.281635e+01
2.500000e-06	2.833191e-06	1.125265e-09	2.014486e+01	7.526059e+01
2.510000e-06	2.871862e-06	1.157450e-09	2.041982e+01	7.765091e+01
2.520000e-06	2.910356e-06	1.192669e-09	2.069353e+01	7.998600e+01
2.530000e-06	2.948676e-06	1.232953e-09	2.096599e+01	8.226485e+01
2.540000e-06	2.986817e-06	1.275341e-09	2.123719e+01	8.448677e+01
2.550000e-06	3.024692e-06	1.313819e-09	2.150649e+01	8.665131e+01
2.560000e-06	3.062422e-06	1.346059e-09	2.177476e+01	8.875827e+01
2.570000e-06	3.100007e-06	1.372452e-09	2.204201e+01	9.080764e+01
2.580000e-06	3.137413e-06	1.395320e-09	2.230798e+01	9.279956e+01
2.590000e-06	3.174551e-06	1.417184e-09	2.257203e+01	9.473434e+01
2.600000e-06	3.211474e-06	1.442674e-09	2.283457e+01	9.661236e+01
2.610000e-06	3.248195e-06	1.475573e-09	2.309567e+01	9.843410e+01
2.620000e-06	3.284565e-06	1.511270e-09	2.335427e+01	1.002001e+02
2.630000e-06	3.320705e-06	1.542776e-09	2.361124e+01	1.019109e+02
2.640000e-06	3.356730e-06	1.569428e-09	2.386738e+01	1.035671e+02
2.650000e-06	3.392673e-06	1.589651e-09	2.412295e+01	1.051694e+02
2.660000e-06	3.428537e-06	1.603929e-09	2.437795e+01	1.067185e+02
2.670000e-06	3.464229e-06	1.614735e-09	2.463174e+01	1.082150e+02
2.680000e-06	3.499623e-06	1.629403e-09	2.488340e+01	1.096597e+02
2.690000e-06	3.534762e-06	1.651321e-09	2.513324e+01	1.110534e+02
2.700000e-06	3.569539e-06	1.678669e-09	2.538052e+01	1.123971e+02
2.710000e-06	3.603814e-06	1.707165e-09	2.562423e+01	1.136915e+02
2.720000e-06	3.637712e-06	1.733108e-09	2.586526e+01	1.149378e+02
2.730000e-06	3.671271e-06	1.753484e-09	2.610387e+01	1.161370e+02
2.740000e-06	3.704419e-06	1.770613e-09	2.633956e+01	1.172902e+02
2.750000e-06	3.737190e-06	1.784101e-09	2.657258e+01	1.183987e+02
2.760000e-06	3.769649e-06	1.794945e-09	2.680337e+01	1.194637e+02
2.770000e-06	3.801884e-06	1.804638e-09	2.703257e+01	1.204866e+02
2.780000e-06	3.833963e-06	1.817881e-09	2.726066e+01	1.214685e+02
2.790000e-06	3.865854e-06	1.837564e-09	2.748741e+01	1.224108e+02
2.800000e-06	3.897549e-06	1.858062e-09	2.771277e+01	1.233149e+02
2.810000e-06	3.929049e-06	1.871917e-09	2.793675e+01	1.241818e+02
2.820000e-06	3.960323e-06	1.879984e-09	2.815912e+01	1.250129e+02
2.830000e-06	3.991315e-06	1.888731e-09	2.837948e+01	1.258091e+02
2.840000e-06	4.022004e-06	1.899537e-09	2.859769e+01	1.265717e+02
2.850000e-06	4.052390e-06	1.908316e-09	2.881374e+01	1.273014e+02
2.860000e-06	4.082497e-06	1.915536e-09	2.902781e+01	1.279992e+02
2.870000e-06	4.112347e-06	1.925439e-09	2.924005e+01	1.286660e+02
2.880000e-06	4.141880e-06	1.938896e-09	2.945004e+01	1.293025e+02
2.890000e-06	4.171165e-06	1.950896e-09	2.965827e+01	1.299096e+02
2.900000e-06	4.200231e-06	1.956649e-09	2.986494e+01	1.304880e+02
