# Temperatura_=_-1.0
# Concentracion g/m^3_=_4090.0
# C_Vs_to_Am_M_A/Vsm_=_65563218390.804596
# pendiente_HvsI_1/m_=_3716.3
# ordenada_HvsI_A/m_=_1297.0
# frecuencia_Hz_=_135074.67065455232

Tiempo_(s)	Campo_(V.s)	Magnetizacion_(V.s)	Campo_(kA/m)	Magnetizacion_(A/m)
0.000000e+00	-5.398682e-06	-2.102240e-09	-3.838654e+01	-1.377481e+02
1.000000e-08	-5.398692e-06	-2.099323e-09	-3.838661e+01	-1.375910e+02
2.000000e-08	-5.398557e-06	-2.095556e-09	-3.838565e+01	-1.374186e+02
3.000000e-08	-5.398121e-06	-2.092571e-09	-3.838255e+01	-1.372328e+02
4.000000e-08	-5.397173e-06	-2.093016e-09	-3.837581e+01	-1.370363e+02
5.000000e-08	-5.395610e-06	-2.098214e-09	-3.836470e+01	-1.368326e+02
6.000000e-08	-5.393390e-06	-2.112384e-09	-3.834891e+01	-1.366260e+02
7.000000e-08	-5.390536e-06	-2.110612e-09	-3.832861e+01	-1.364213e+02
8.000000e-08	-5.387167e-06	-2.078150e-09	-3.830466e+01	-1.362237e+02
9.000000e-08	-5.383357e-06	-2.050039e-09	-3.827757e+01	-1.360385e+02
1.000000e-07	-5.379166e-06	-2.103603e-09	-3.824777e+01	-1.358713e+02
1.100000e-07	-5.374787e-06	-2.127638e-09	-3.821664e+01	-1.357270e+02
1.200000e-07	-5.370221e-06	-2.102119e-09	-3.818417e+01	-1.356105e+02
1.300000e-07	-5.365318e-06	-2.032364e-09	-3.814931e+01	-1.355257e+02
1.400000e-07	-5.360036e-06	-2.115454e-09	-3.811175e+01	-1.354760e+02
1.500000e-07	-5.354382e-06	-2.158121e-09	-3.807155e+01	-1.354635e+02
1.600000e-07	-5.348434e-06	-2.108602e-09	-3.802926e+01	-1.354892e+02
1.700000e-07	-5.342088e-06	-1.997813e-09	-3.798413e+01	-1.355531e+02
1.800000e-07	-5.335327e-06	-2.069827e-09	-3.793606e+01	-1.356537e+02
1.900000e-07	-5.328169e-06	-2.157731e-09	-3.788517e+01	-1.357885e+02
2.000000e-07	-5.320678e-06	-2.133614e-09	-3.783190e+01	-1.359537e+02
2.100000e-07	-5.312997e-06	-2.077867e-09	-3.777729e+01	-1.361444e+02
2.200000e-07	-5.305119e-06	-2.128036e-09	-3.772127e+01	-1.363551e+02
2.300000e-07	-5.296907e-06	-2.185491e-09	-3.766288e+01	-1.365794e+02
2.400000e-07	-5.288198e-06	-2.129835e-09	-3.760096e+01	-1.368104e+02
2.500000e-07	-5.278840e-06	-2.135051e-09	-3.753442e+01	-1.370411e+02
2.600000e-07	-5.268810e-06	-2.177362e-09	-3.746310e+01	-1.372644e+02
2.700000e-07	-5.258263e-06	-2.193072e-09	-3.738811e+01	-1.374735e+02
2.800000e-07	-5.247199e-06	-2.121456e-09	-3.730944e+01	-1.376622e+02
2.900000e-07	-5.235683e-06	-2.136819e-09	-3.722756e+01	-1.378249e+02
3.000000e-07	-5.223833e-06	-2.143744e-09	-3.714330e+01	-1.379569e+02
3.100000e-07	-5.211595e-06	-2.127877e-09	-3.705628e+01	-1.380544e+02
3.200000e-07	-5.198888e-06	-2.087358e-09	-3.696593e+01	-1.381148e+02
3.300000e-07	-5.185846e-06	-2.144779e-09	-3.687319e+01	-1.381368e+02
3.400000e-07	-5.172487e-06	-2.145874e-09	-3.677821e+01	-1.381199e+02
3.500000e-07	-5.158788e-06	-2.144473e-09	-3.668080e+01	-1.380651e+02
3.600000e-07	-5.144590e-06	-2.122418e-09	-3.657985e+01	-1.379741e+02
3.700000e-07	-5.129909e-06	-2.135355e-09	-3.647547e+01	-1.378496e+02
3.800000e-07	-5.114716e-06	-2.089830e-09	-3.636744e+01	-1.376950e+02
3.900000e-07	-5.098929e-06	-2.092533e-09	-3.625518e+01	-1.375143e+02
4.000000e-07	-5.082742e-06	-2.099690e-09	-3.614009e+01	-1.373117e+02
4.100000e-07	-5.066182e-06	-2.103263e-09	-3.602234e+01	-1.370918e+02
4.200000e-07	-5.049227e-06	-2.092252e-09	-3.590179e+01	-1.368589e+02
4.300000e-07	-5.031948e-06	-2.117576e-09	-3.577893e+01	-1.366173e+02
4.400000e-07	-5.014393e-06	-2.121677e-09	-3.565411e+01	-1.363706e+02
4.500000e-07	-4.996511e-06	-2.087836e-09	-3.552696e+01	-1.361223e+02
4.600000e-07	-4.978305e-06	-2.066775e-09	-3.539751e+01	-1.358748e+02
4.700000e-07	-4.959724e-06	-2.069957e-09	-3.526539e+01	-1.356304e+02
4.800000e-07	-4.940701e-06	-2.073524e-09	-3.513013e+01	-1.353902e+02
4.900000e-07	-4.921314e-06	-2.054871e-09	-3.499228e+01	-1.351548e+02
5.000000e-07	-4.901726e-06	-2.056749e-09	-3.485300e+01	-1.349244e+02
5.100000e-07	-4.881915e-06	-2.059710e-09	-3.471214e+01	-1.346982e+02
5.200000e-07	-4.861810e-06	-2.071395e-09	-3.456919e+01	-1.344752e+02
5.300000e-07	-4.841511e-06	-2.053594e-09	-3.442485e+01	-1.342541e+02
5.400000e-07	-4.820936e-06	-2.045943e-09	-3.427856e+01	-1.340332e+02
5.500000e-07	-4.799954e-06	-2.034312e-09	-3.412937e+01	-1.338109e+02
5.600000e-07	-4.778614e-06	-2.043804e-09	-3.397764e+01	-1.335853e+02
5.700000e-07	-4.756945e-06	-2.026112e-09	-3.382356e+01	-1.333552e+02
5.800000e-07	-4.734967e-06	-2.014199e-09	-3.366729e+01	-1.331191e+02
5.900000e-07	-4.712715e-06	-2.002289e-09	-3.350907e+01	-1.328760e+02
6.000000e-07	-4.690147e-06	-2.018177e-09	-3.334860e+01	-1.326256e+02
6.100000e-07	-4.667173e-06	-2.018482e-09	-3.318525e+01	-1.323675e+02
6.200000e-07	-4.643860e-06	-2.015824e-09	-3.301949e+01	-1.321021e+02
6.300000e-07	-4.620329e-06	-1.997972e-09	-3.285217e+01	-1.318299e+02
6.400000e-07	-4.596597e-06	-2.005547e-09	-3.268343e+01	-1.315519e+02
6.500000e-07	-4.572532e-06	-2.004921e-09	-3.251232e+01	-1.312694e+02
6.600000e-07	-4.548159e-06	-1.997441e-09	-3.233902e+01	-1.309837e+02
6.700000e-07	-4.523526e-06	-1.978273e-09	-3.216387e+01	-1.306965e+02
6.800000e-07	-4.498446e-06	-1.983067e-09	-3.198554e+01	-1.304093e+02
6.900000e-07	-4.472905e-06	-1.986108e-09	-3.180394e+01	-1.301235e+02
7.000000e-07	-4.446874e-06	-1.983206e-09	-3.161884e+01	-1.298404e+02
7.100000e-07	-4.420231e-06	-1.970693e-09	-3.142941e+01	-1.295612e+02
7.200000e-07	-4.393223e-06	-1.968370e-09	-3.123737e+01	-1.292865e+02
7.300000e-07	-4.365955e-06	-1.970116e-09	-3.104349e+01	-1.290170e+02
7.400000e-07	-4.338356e-06	-1.968595e-09	-3.084725e+01	-1.287526e+02
7.500000e-07	-4.310562e-06	-1.959600e-09	-3.064962e+01	-1.284931e+02
7.600000e-07	-4.282595e-06	-1.952035e-09	-3.045077e+01	-1.282381e+02
7.700000e-07	-4.254377e-06	-1.954364e-09	-3.025013e+01	-1.279866e+02
7.800000e-07	-4.225879e-06	-1.952612e-09	-3.004749e+01	-1.277375e+02
7.900000e-07	-4.197111e-06	-1.944363e-09	-2.984294e+01	-1.274897e+02
8.000000e-07	-4.168021e-06	-1.931870e-09	-2.963611e+01	-1.272417e+02
8.100000e-07	-4.138611e-06	-1.929785e-09	-2.942699e+01	-1.269921e+02
8.200000e-07	-4.108976e-06	-1.924904e-09	-2.921627e+01	-1.267396e+02
8.300000e-07	-4.079143e-06	-1.923593e-09	-2.900415e+01	-1.264828e+02
8.400000e-07	-4.049026e-06	-1.915792e-09	-2.879000e+01	-1.262208e+02
8.500000e-07	-4.018535e-06	-1.920464e-09	-2.857320e+01	-1.259525e+02
8.600000e-07	-3.987677e-06	-1.924390e-09	-2.835379e+01	-1.256773e+02
8.700000e-07	-3.956547e-06	-1.926956e-09	-2.813245e+01	-1.253948e+02
8.800000e-07	-3.925291e-06	-1.912367e-09	-2.791020e+01	-1.251047e+02
8.900000e-07	-3.893879e-06	-1.901053e-09	-2.768685e+01	-1.248073e+02
9.000000e-07	-3.862241e-06	-1.890471e-09	-2.746190e+01	-1.245026e+02
9.100000e-07	-3.830384e-06	-1.886216e-09	-2.723538e+01	-1.241912e+02
9.200000e-07	-3.798280e-06	-1.877338e-09	-2.700712e+01	-1.238737e+02
9.300000e-07	-3.765945e-06	-1.880141e-09	-2.677720e+01	-1.235508e+02
9.400000e-07	-3.733364e-06	-1.886810e-09	-2.654554e+01	-1.232231e+02
9.500000e-07	-3.700589e-06	-1.893993e-09	-2.631250e+01	-1.228914e+02
9.600000e-07	-3.667420e-06	-1.884598e-09	-2.607665e+01	-1.225565e+02
9.700000e-07	-3.633625e-06	-1.869192e-09	-2.583636e+01	-1.222188e+02
9.800000e-07	-3.599404e-06	-1.853047e-09	-2.559304e+01	-1.218789e+02
9.900000e-07	-3.564839e-06	-1.843276e-09	-2.534727e+01	-1.215372e+02
1.000000e-06	-3.529928e-06	-1.835195e-09	-2.509903e+01	-1.211939e+02
1.010000e-06	-3.494702e-06	-1.834120e-09	-2.484857e+01	-1.208492e+02
1.020000e-06	-3.459267e-06	-1.837356e-09	-2.459661e+01	-1.205031e+02
1.030000e-06	-3.423700e-06	-1.841907e-09	-2.434371e+01	-1.201555e+02
1.040000e-06	-3.387961e-06	-1.838640e-09	-2.408960e+01	-1.198063e+02
1.050000e-06	-3.352063e-06	-1.825846e-09	-2.383435e+01	-1.194554e+02
1.060000e-06	-3.315964e-06	-1.811637e-09	-2.357767e+01	-1.191026e+02
1.070000e-06	-3.279627e-06	-1.799562e-09	-2.331931e+01	-1.187478e+02
1.080000e-06	-3.243087e-06	-1.791749e-09	-2.305949e+01	-1.183911e+02
1.090000e-06	-3.206342e-06	-1.784881e-09	-2.279823e+01	-1.180323e+02
1.100000e-06	-3.169336e-06	-1.783544e-09	-2.253510e+01	-1.176716e+02
1.110000e-06	-3.132114e-06	-1.782785e-09	-2.227044e+01	-1.173092e+02
1.120000e-06	-3.094689e-06	-1.782042e-09	-2.200434e+01	-1.169453e+02
1.130000e-06	-3.057021e-06	-1.772534e-09	-2.173650e+01	-1.165802e+02
1.140000e-06	-3.019162e-06	-1.762504e-09	-2.146731e+01	-1.162143e+02
1.150000e-06	-2.981128e-06	-1.751998e-09	-2.119687e+01	-1.158480e+02
1.160000e-06	-2.942946e-06	-1.747731e-09	-2.092538e+01	-1.154815e+02
1.170000e-06	-2.904576e-06	-1.741937e-09	-2.065256e+01	-1.151152e+02
1.180000e-06	-2.865985e-06	-1.737060e-09	-2.037816e+01	-1.147491e+02
1.190000e-06	-2.827225e-06	-1.730003e-09	-2.010257e+01	-1.143834e+02
1.200000e-06	-2.788182e-06	-1.726790e-09	-1.982496e+01	-1.140178e+02
1.210000e-06	-2.748882e-06	-1.720507e-09	-1.954553e+01	-1.136522e+02
1.220000e-06	-2.709486e-06	-1.712195e-09	-1.926540e+01	-1.132859e+02
1.230000e-06	-2.669897e-06	-1.701672e-09	-1.898391e+01	-1.129184e+02
1.240000e-06	-2.630146e-06	-1.694505e-09	-1.870127e+01	-1.125489e+02
1.250000e-06	-2.590316e-06	-1.690087e-09	-1.841806e+01	-1.121763e+02
1.260000e-06	-2.550387e-06	-1.687755e-09	-1.813415e+01	-1.117996e+02
1.270000e-06	-2.510358e-06	-1.682423e-09	-1.784953e+01	-1.114177e+02
1.280000e-06	-2.470210e-06	-1.676822e-09	-1.756406e+01	-1.110293e+02
1.290000e-06	-2.429912e-06	-1.669851e-09	-1.727753e+01	-1.106334e+02
1.300000e-06	-2.389458e-06	-1.661331e-09	-1.698989e+01	-1.102287e+02
1.310000e-06	-2.348856e-06	-1.649737e-09	-1.670120e+01	-1.098144e+02
1.320000e-06	-2.308000e-06	-1.639295e-09	-1.641070e+01	-1.093896e+02
1.330000e-06	-2.266941e-06	-1.634278e-09	-1.611875e+01	-1.089537e+02
1.340000e-06	-2.225619e-06	-1.633899e-09	-1.582494e+01	-1.085063e+02
1.350000e-06	-2.183852e-06	-1.633725e-09	-1.552796e+01	-1.080472e+02
1.360000e-06	-2.141802e-06	-1.627254e-09	-1.522897e+01	-1.075765e+02
1.370000e-06	-2.099547e-06	-1.616044e-09	-1.492852e+01	-1.070944e+02
1.380000e-06	-2.057024e-06	-1.602837e-09	-1.462616e+01	-1.066015e+02
1.390000e-06	-2.014304e-06	-1.591161e-09	-1.432241e+01	-1.060982e+02
1.400000e-06	-1.971383e-06	-1.580028e-09	-1.401723e+01	-1.055856e+02
1.410000e-06	-1.928235e-06	-1.573726e-09	-1.371043e+01	-1.050643e+02
1.420000e-06	-1.884900e-06	-1.571334e-09	-1.340230e+01	-1.045352e+02
1.430000e-06	-1.841462e-06	-1.571055e-09	-1.309344e+01	-1.039993e+02
1.440000e-06	-1.797892e-06	-1.565268e-09	-1.278365e+01	-1.034573e+02
1.450000e-06	-1.754192e-06	-1.554481e-09	-1.247293e+01	-1.029098e+02
1.460000e-06	-1.710451e-06	-1.543223e-09	-1.216191e+01	-1.023574e+02
1.470000e-06	-1.666672e-06	-1.534444e-09	-1.185063e+01	-1.018003e+02
1.480000e-06	-1.622851e-06	-1.524588e-09	-1.153904e+01	-1.012387e+02
1.490000e-06	-1.578951e-06	-1.518484e-09	-1.122690e+01	-1.006724e+02
1.500000e-06	-1.534930e-06	-1.515137e-09	-1.091390e+01	-1.001011e+02
1.510000e-06	-1.490839e-06	-1.512371e-09	-1.060039e+01	-9.952429e+01
1.520000e-06	-1.446721e-06	-1.502690e-09	-1.028670e+01	-9.894113e+01
1.530000e-06	-1.402505e-06	-1.486221e-09	-9.972306e+00	-9.835080e+01
1.540000e-06	-1.358220e-06	-1.469294e-09	-9.657425e+00	-9.775234e+01
1.550000e-06	-1.313822e-06	-1.456680e-09	-9.341739e+00	-9.714469e+01
1.560000e-06	-1.269250e-06	-1.448093e-09	-9.024814e+00	-9.652682e+01
1.570000e-06	-1.224587e-06	-1.443333e-09	-8.707249e+00	-9.589770e+01
1.580000e-06	-1.179866e-06	-1.439363e-09	-8.389264e+00	-9.525638e+01
1.590000e-06	-1.135084e-06	-1.434278e-09	-8.070851e+00	-9.460202e+01
1.600000e-06	-1.090296e-06	-1.424473e-09	-7.752391e+00	-9.393390e+01
1.610000e-06	-1.045382e-06	-1.409204e-09	-7.433037e+00	-9.325145e+01
1.620000e-06	-1.000342e-06	-1.391028e-09	-7.112786e+00	-9.255427e+01
1.630000e-06	-9.553171e-07	-1.376855e-09	-6.792642e+00	-9.184208e+01
1.640000e-06	-9.102237e-07	-1.366772e-09	-6.472012e+00	-9.111476e+01
1.650000e-06	-8.650405e-07	-1.358038e-09	-6.150743e+00	-9.037226e+01
1.660000e-06	-8.198448e-07	-1.350223e-09	-5.829386e+00	-8.961463e+01
1.670000e-06	-7.745983e-07	-1.343838e-09	-5.507668e+00	-8.884194e+01
1.680000e-06	-7.292562e-07	-1.335284e-09	-5.185269e+00	-8.805426e+01
1.690000e-06	-6.838852e-07	-1.318505e-09	-4.862666e+00	-8.725160e+01
1.700000e-06	-6.384204e-07	-1.297350e-09	-4.539395e+00	-8.643385e+01
1.710000e-06	-5.928328e-07	-1.280045e-09	-4.215251e+00	-8.560081e+01
1.720000e-06	-5.471946e-07	-1.268524e-09	-3.890747e+00	-8.475207e+01
1.730000e-06	-5.015321e-07	-1.256625e-09	-3.566070e+00	-8.388704e+01
1.740000e-06	-4.558526e-07	-1.244533e-09	-3.241273e+00	-8.300492e+01
1.750000e-06	-4.101711e-07	-1.233672e-09	-2.916461e+00	-8.210472e+01
1.760000e-06	-3.644816e-07	-1.224243e-09	-2.591593e+00	-8.118521e+01
1.770000e-06	-3.187323e-07	-1.207574e-09	-2.266300e+00	-8.024499e+01
1.780000e-06	-2.729517e-07	-1.184751e-09	-1.940783e+00	-7.928250e+01
1.790000e-06	-2.272170e-07	-1.164518e-09	-1.615593e+00	-7.829606e+01
1.800000e-06	-1.814556e-07	-1.149268e-09	-1.290213e+00	-7.728388e+01
1.810000e-06	-1.356797e-07	-1.131858e-09	-9.647304e-01	-7.624416e+01
1.820000e-06	-8.990097e-08	-1.111794e-09	-6.392277e-01	-7.517509e+01
1.830000e-06	-4.409079e-08	-1.093243e-09	-3.135011e-01	-7.407493e+01
1.840000e-06	1.784646e-09	-1.079776e-09	1.268946e-02	-7.294203e+01
1.850000e-06	4.767389e-08	-1.066161e-09	3.389782e-01	-7.177488e+01
1.860000e-06	9.345819e-08	-1.046281e-09	6.645208e-01	-7.057214e+01
1.870000e-06	1.391963e-07	-1.025006e-09	9.897346e-01	-6.933268e+01
1.880000e-06	1.849427e-07	-1.008323e-09	1.315008e+00	-6.805556e+01
1.890000e-06	2.306922e-07	-9.891472e-10	1.640303e+00	-6.674006e+01
1.900000e-06	2.763958e-07	-9.630975e-10	1.965272e+00	-6.538568e+01
1.910000e-06	3.221127e-07	-9.360776e-10	2.290335e+00	-6.399209e+01
1.920000e-06	3.678178e-07	-9.152961e-10	2.615315e+00	-6.255914e+01
1.930000e-06	4.134457e-07	-8.977437e-10	2.939745e+00	-6.108684e+01
1.940000e-06	4.590666e-07	-8.763531e-10	3.264126e+00	-5.957527e+01
1.950000e-06	5.046980e-07	-8.506398e-10	3.588581e+00	-5.802460e+01
1.960000e-06	5.502884e-07	-8.262292e-10	3.912745e+00	-5.643503e+01
1.970000e-06	5.958106e-07	-8.031103e-10	4.236424e+00	-5.480673e+01
1.980000e-06	6.412685e-07	-7.764660e-10	4.559646e+00	-5.313984e+01
1.990000e-06	6.866611e-07	-7.460280e-10	4.882403e+00	-5.143443e+01
2.000000e-06	7.319637e-07	-7.163892e-10	5.204521e+00	-4.969044e+01
2.010000e-06	7.772066e-07	-6.918070e-10	5.526214e+00	-4.790774e+01
2.020000e-06	8.224786e-07	-6.673144e-10	5.848114e+00	-4.608602e+01
2.030000e-06	8.677070e-07	-6.384505e-10	6.169703e+00	-4.422488e+01
2.040000e-06	9.128746e-07	-6.097946e-10	6.490861e+00	-4.232379e+01
2.050000e-06	9.579512e-07	-5.845003e-10	6.811371e+00	-4.038210e+01
2.060000e-06	1.002997e-06	-5.569324e-10	7.131660e+00	-3.839908e+01
2.070000e-06	1.048023e-06	-5.223231e-10	7.451815e+00	-3.637396e+01
2.080000e-06	1.092864e-06	-4.853756e-10	7.770646e+00	-3.430592e+01
2.090000e-06	1.137523e-06	-4.535334e-10	8.088191e+00	-3.219416e+01
2.100000e-06	1.182082e-06	-4.235054e-10	8.405023e+00	-3.003793e+01
2.110000e-06	1.226585e-06	-3.894342e-10	8.721455e+00	-2.783655e+01
2.120000e-06	1.271004e-06	-3.534732e-10	9.037290e+00	-2.558947e+01
2.130000e-06	1.315313e-06	-3.243254e-10	9.352338e+00	-2.329630e+01
2.140000e-06	1.359556e-06	-2.962726e-10	9.666921e+00	-2.095681e+01
2.150000e-06	1.403792e-06	-2.618596e-10	9.981455e+00	-1.857102e+01
2.160000e-06	1.447976e-06	-2.212047e-10	1.029562e+01	-1.613917e+01
2.170000e-06	1.492052e-06	-1.795995e-10	1.060902e+01	-1.366176e+01
2.180000e-06	1.536060e-06	-1.412645e-10	1.092193e+01	-1.113957e+01
2.190000e-06	1.580025e-06	-1.030482e-10	1.123454e+01	-8.573661e+00
2.200000e-06	1.623924e-06	-6.340077e-11	1.154667e+01	-5.965399e+00
2.210000e-06	1.667783e-06	-2.679990e-11	1.185853e+01	-3.316434e+00
2.220000e-06	1.711588e-06	7.750833e-12	1.217000e+01	-6.287103e-01
2.230000e-06	1.755336e-06	4.696525e-11	1.248106e+01	2.095537e+00
2.240000e-06	1.798985e-06	9.406050e-11	1.279142e+01	4.853795e+00
2.250000e-06	1.842482e-06	1.422316e-10	1.310070e+01	7.643283e+00
2.260000e-06	1.885894e-06	1.874477e-10	1.340937e+01	1.046097e+01
2.270000e-06	1.929137e-06	2.312278e-10	1.371684e+01	1.330359e+01
2.280000e-06	1.972231e-06	2.746697e-10	1.402326e+01	1.616767e+01
2.290000e-06	2.015331e-06	3.169166e-10	1.432972e+01	1.904954e+01
2.300000e-06	2.058247e-06	3.540200e-10	1.463487e+01	2.194538e+01
2.310000e-06	2.100805e-06	3.911073e-10	1.493747e+01	2.485124e+01
2.320000e-06	2.143079e-06	4.353791e-10	1.523805e+01	2.776306e+01
2.330000e-06	2.184984e-06	4.837634e-10	1.553601e+01	3.067673e+01
2.340000e-06	2.226508e-06	5.287230e-10	1.583126e+01	3.358809e+01
2.350000e-06	2.267730e-06	5.698731e-10	1.612436e+01	3.649301e+01
2.360000e-06	2.308691e-06	6.124494e-10	1.641561e+01	3.938739e+01
2.370000e-06	2.349497e-06	6.580935e-10	1.670576e+01	4.226721e+01
2.380000e-06	2.390117e-06	7.017760e-10	1.699458e+01	4.512857e+01
2.390000e-06	2.430491e-06	7.414922e-10	1.728165e+01	4.796771e+01
2.400000e-06	2.470680e-06	7.822267e-10	1.756741e+01	5.078106e+01
2.410000e-06	2.510761e-06	8.262801e-10	1.785240e+01	5.356523e+01
2.420000e-06	2.550743e-06	8.715940e-10	1.813668e+01	5.631708e+01
2.430000e-06	2.590658e-06	9.160253e-10	1.842049e+01	5.903366e+01
2.440000e-06	2.630491e-06	9.578144e-10	1.870372e+01	6.171230e+01
2.450000e-06	2.670167e-06	9.966288e-10	1.898583e+01	6.435057e+01
2.460000e-06	2.709761e-06	1.032949e-09	1.926736e+01	6.694626e+01
2.470000e-06	2.749219e-06	1.067687e-09	1.954792e+01	6.949741e+01
2.480000e-06	2.788473e-06	1.101803e-09	1.982703e+01	7.200226e+01
2.490000e-06	2.827525e-06	1.137393e-09	2.010470e+01	7.445927e+01
2.500000e-06	2.866354e-06	1.176050e-09	2.038079e+01	7.686705e+01
2.510000e-06	2.904959e-06	1.215718e-09	2.065528e+01	7.922437e+01
2.520000e-06	2.943262e-06	1.255911e-09	2.092763e+01	8.153014e+01
2.530000e-06	2.981359e-06	1.295550e-09	2.119851e+01	8.378335e+01
2.540000e-06	3.019303e-06	1.329575e-09	2.146831e+01	8.598312e+01
2.550000e-06	3.057027e-06	1.356862e-09	2.173655e+01	8.812858e+01
2.560000e-06	3.094529e-06	1.382233e-09	2.200320e+01	9.021899e+01
2.570000e-06	3.131825e-06	1.409865e-09	2.226839e+01	9.225360e+01
2.580000e-06	3.168923e-06	1.439141e-09	2.253217e+01	9.423177e+01
2.590000e-06	3.205811e-06	1.470560e-09	2.279445e+01	9.615289e+01
2.600000e-06	3.242405e-06	1.504019e-09	2.305465e+01	9.801644e+01
2.610000e-06	3.278733e-06	1.538278e-09	2.331295e+01	9.982199e+01
2.620000e-06	3.314922e-06	1.568461e-09	2.357027e+01	1.015692e+02
2.630000e-06	3.350990e-06	1.590812e-09	2.382672e+01	1.032579e+02
2.640000e-06	3.386937e-06	1.608205e-09	2.408232e+01	1.048882e+02
2.650000e-06	3.422764e-06	1.625406e-09	2.433707e+01	1.064600e+02
2.660000e-06	3.458456e-06	1.642376e-09	2.459084e+01	1.079739e+02
2.670000e-06	3.493970e-06	1.658940e-09	2.484336e+01	1.094304e+02
2.680000e-06	3.529240e-06	1.678318e-09	2.509414e+01	1.108303e+02
2.690000e-06	3.564196e-06	1.703614e-09	2.534269e+01	1.121746e+02
2.700000e-06	3.598841e-06	1.732301e-09	2.558903e+01	1.134646e+02
2.710000e-06	3.633111e-06	1.757212e-09	2.583270e+01	1.147018e+02
2.720000e-06	3.666849e-06	1.774521e-09	2.607259e+01	1.158878e+02
2.730000e-06	3.700081e-06	1.789067e-09	2.630888e+01	1.170244e+02
2.740000e-06	3.732950e-06	1.802722e-09	2.654260e+01	1.181136e+02
2.750000e-06	3.765425e-06	1.814265e-09	2.677351e+01	1.191572e+02
2.760000e-06	3.797565e-06	1.825250e-09	2.700203e+01	1.201575e+02
2.770000e-06	3.829590e-06	1.839187e-09	2.722973e+01	1.211164e+02
2.780000e-06	3.861507e-06	1.858198e-09	2.745668e+01	1.220358e+02
2.790000e-06	3.893230e-06	1.877840e-09	2.768224e+01	1.229177e+02
2.800000e-06	3.924813e-06	1.891990e-09	2.790681e+01	1.237638e+02
2.810000e-06	3.956175e-06	1.899444e-09	2.812980e+01	1.245757e+02
2.820000e-06	3.987054e-06	1.907117e-09	2.834936e+01	1.253548e+02
2.830000e-06	4.017566e-06	1.917256e-09	2.856632e+01	1.261023e+02
2.840000e-06	4.047901e-06	1.926357e-09	2.878201e+01	1.268194e+02
2.850000e-06	4.078030e-06	1.936701e-09	2.899624e+01	1.275069e+02
2.860000e-06	4.107916e-06	1.951571e-09	2.920874e+01	1.281655e+02
2.870000e-06	4.137535e-06	1.966558e-09	2.941934e+01	1.287959e+02
2.880000e-06	4.166845e-06	1.975879e-09	2.962774e+01	1.293986e+02
2.890000e-06	4.195800e-06	1.980071e-09	2.983362e+01	1.299740e+02
2.900000e-06	4.224516e-06	1.984953e-09	3.003780e+01	1.305227e+02
