# Temperatura_=_-0.85
# Concentracion g/m^3_=_4090.0
# C_Vs_to_Am_M_A/Vsm_=_65563218390.804596
# pendiente_HvsI_1/m_=_3716.3
# ordenada_HvsI_A/m_=_1297.0
# frecuencia_Hz_=_135076.127397492

Tiempo_(s)	Campo_(V.s)	Magnetizacion_(V.s)	Campo_(kA/m)	Magnetizacion_(A/m)
0.000000e+00	-5.395019e-06	-2.117388e-09	-3.839641e+01	-1.398155e+02
1.000000e-08	-5.395179e-06	-2.115570e-09	-3.839756e+01	-1.396608e+02
2.000000e-08	-5.395119e-06	-2.109434e-09	-3.839712e+01	-1.394919e+02
3.000000e-08	-5.394739e-06	-2.100633e-09	-3.839442e+01	-1.393112e+02
4.000000e-08	-5.393925e-06	-2.097881e-09	-3.838863e+01	-1.391218e+02
5.000000e-08	-5.392518e-06	-2.109662e-09	-3.837861e+01	-1.389276e+02
6.000000e-08	-5.390425e-06	-2.126541e-09	-3.836372e+01	-1.387329e+02
7.000000e-08	-5.387757e-06	-2.118492e-09	-3.834473e+01	-1.385425e+02
8.000000e-08	-5.384591e-06	-2.059748e-09	-3.832220e+01	-1.383612e+02
9.000000e-08	-5.380940e-06	-2.024036e-09	-3.829621e+01	-1.381940e+02
1.000000e-07	-5.376912e-06	-2.077305e-09	-3.826755e+01	-1.380456e+02
1.100000e-07	-5.372597e-06	-2.157624e-09	-3.823684e+01	-1.379202e+02
1.200000e-07	-5.368061e-06	-2.102818e-09	-3.820455e+01	-1.378216e+02
1.300000e-07	-5.363320e-06	-2.044850e-09	-3.817081e+01	-1.377525e+02
1.400000e-07	-5.358126e-06	-2.089315e-09	-3.813385e+01	-1.377150e+02
1.500000e-07	-5.352487e-06	-2.204859e-09	-3.809372e+01	-1.377097e+02
1.600000e-07	-5.346460e-06	-2.139530e-09	-3.805082e+01	-1.377365e+02
1.700000e-07	-5.340058e-06	-2.010080e-09	-3.800526e+01	-1.377940e+02
1.800000e-07	-5.333251e-06	-2.021007e-09	-3.795681e+01	-1.378795e+02
1.900000e-07	-5.326053e-06	-2.134094e-09	-3.790558e+01	-1.379896e+02
2.000000e-07	-5.318702e-06	-2.154015e-09	-3.785327e+01	-1.381196e+02
2.100000e-07	-5.311185e-06	-2.096428e-09	-3.779977e+01	-1.382645e+02
2.200000e-07	-5.303337e-06	-2.133241e-09	-3.774392e+01	-1.384182e+02
2.300000e-07	-5.295168e-06	-2.170406e-09	-3.768577e+01	-1.385747e+02
2.400000e-07	-5.286647e-06	-2.140231e-09	-3.762513e+01	-1.387276e+02
2.500000e-07	-5.277652e-06	-2.101393e-09	-3.756111e+01	-1.388707e+02
2.600000e-07	-5.268004e-06	-2.149365e-09	-3.749245e+01	-1.389981e+02
2.700000e-07	-5.257654e-06	-2.140782e-09	-3.741879e+01	-1.391045e+02
2.800000e-07	-5.246780e-06	-2.099057e-09	-3.734139e+01	-1.391853e+02
2.900000e-07	-5.235408e-06	-2.106596e-09	-3.726046e+01	-1.392367e+02
3.000000e-07	-5.223601e-06	-2.148010e-09	-3.717643e+01	-1.392560e+02
3.100000e-07	-5.211473e-06	-2.094645e-09	-3.709012e+01	-1.392415e+02
3.200000e-07	-5.198960e-06	-2.067657e-09	-3.700106e+01	-1.391926e+02
3.300000e-07	-5.186004e-06	-2.098818e-09	-3.690886e+01	-1.391098e+02
3.400000e-07	-5.172707e-06	-2.127700e-09	-3.681422e+01	-1.389943e+02
3.500000e-07	-5.159039e-06	-2.103818e-09	-3.671694e+01	-1.388487e+02
3.600000e-07	-5.145005e-06	-2.115046e-09	-3.661706e+01	-1.386757e+02
3.700000e-07	-5.130532e-06	-2.106712e-09	-3.651406e+01	-1.384792e+02
3.800000e-07	-5.115562e-06	-2.077622e-09	-3.640752e+01	-1.382629e+02
3.900000e-07	-5.099972e-06	-2.068967e-09	-3.629656e+01	-1.380311e+02
4.000000e-07	-5.083743e-06	-2.082638e-09	-3.618106e+01	-1.377880e+02
4.100000e-07	-5.067068e-06	-2.063284e-09	-3.606238e+01	-1.375374e+02
4.200000e-07	-5.050053e-06	-2.056686e-09	-3.594129e+01	-1.372831e+02
4.300000e-07	-5.032809e-06	-2.092915e-09	-3.581856e+01	-1.370283e+02
4.400000e-07	-5.015327e-06	-2.099690e-09	-3.569414e+01	-1.367756e+02
4.500000e-07	-4.997591e-06	-2.066975e-09	-3.556791e+01	-1.365269e+02
4.600000e-07	-4.979481e-06	-2.046654e-09	-3.543902e+01	-1.362836e+02
4.700000e-07	-4.960933e-06	-2.055326e-09	-3.530702e+01	-1.360464e+02
4.800000e-07	-4.942010e-06	-2.044673e-09	-3.517235e+01	-1.358153e+02
4.900000e-07	-4.922748e-06	-2.032978e-09	-3.503525e+01	-1.355897e+02
5.000000e-07	-4.903190e-06	-2.026262e-09	-3.489606e+01	-1.353686e+02
5.100000e-07	-4.883370e-06	-2.042754e-09	-3.475500e+01	-1.351508e+02
5.200000e-07	-4.863349e-06	-2.051130e-09	-3.461252e+01	-1.349346e+02
5.300000e-07	-4.843092e-06	-2.049768e-09	-3.446834e+01	-1.347183e+02
5.400000e-07	-4.822497e-06	-2.025566e-09	-3.432177e+01	-1.345002e+02
5.500000e-07	-4.801493e-06	-2.019810e-09	-3.417228e+01	-1.342789e+02
5.600000e-07	-4.780139e-06	-2.018962e-09	-3.402031e+01	-1.340529e+02
5.700000e-07	-4.758507e-06	-2.019455e-09	-3.386635e+01	-1.338211e+02
5.800000e-07	-4.736594e-06	-2.000022e-09	-3.371039e+01	-1.335830e+02
5.900000e-07	-4.714424e-06	-1.992101e-09	-3.355261e+01	-1.333380e+02
6.000000e-07	-4.691925e-06	-1.999501e-09	-3.339249e+01	-1.330863e+02
6.100000e-07	-4.669001e-06	-2.014725e-09	-3.322934e+01	-1.328283e+02
6.200000e-07	-4.645776e-06	-1.999554e-09	-3.306405e+01	-1.325646e+02
6.300000e-07	-4.622325e-06	-1.982108e-09	-3.289714e+01	-1.322962e+02
6.400000e-07	-4.598624e-06	-1.986540e-09	-3.272846e+01	-1.320242e+02
6.500000e-07	-4.574726e-06	-2.000059e-09	-3.255838e+01	-1.317497e+02
6.600000e-07	-4.550616e-06	-1.988695e-09	-3.238679e+01	-1.314740e+02
6.700000e-07	-4.526201e-06	-1.974402e-09	-3.221303e+01	-1.311982e+02
6.800000e-07	-4.501317e-06	-1.971138e-09	-3.203593e+01	-1.309232e+02
6.900000e-07	-4.475950e-06	-1.972797e-09	-3.185539e+01	-1.306499e+02
7.000000e-07	-4.450000e-06	-1.965633e-09	-3.167070e+01	-1.303788e+02
7.100000e-07	-4.423529e-06	-1.949849e-09	-3.148231e+01	-1.301100e+02
7.200000e-07	-4.396685e-06	-1.941208e-09	-3.129126e+01	-1.298436e+02
7.300000e-07	-4.369441e-06	-1.951633e-09	-3.109737e+01	-1.295793e+02
7.400000e-07	-4.341933e-06	-1.963359e-09	-3.090159e+01	-1.293166e+02
7.500000e-07	-4.314196e-06	-1.958420e-09	-3.070418e+01	-1.290546e+02
7.600000e-07	-4.286241e-06	-1.950899e-09	-3.050523e+01	-1.287925e+02
7.700000e-07	-4.258127e-06	-1.947977e-09	-3.030514e+01	-1.285294e+02
7.800000e-07	-4.229801e-06	-1.943413e-09	-3.010354e+01	-1.282643e+02
7.900000e-07	-4.201166e-06	-1.922758e-09	-2.989975e+01	-1.279963e+02
8.000000e-07	-4.172161e-06	-1.906442e-09	-2.969332e+01	-1.277246e+02
8.100000e-07	-4.142784e-06	-1.901530e-09	-2.948424e+01	-1.274486e+02
8.200000e-07	-4.113113e-06	-1.911941e-09	-2.927307e+01	-1.271678e+02
8.300000e-07	-4.083143e-06	-1.917020e-09	-2.905978e+01	-1.268820e+02
8.400000e-07	-4.052867e-06	-1.916744e-09	-2.884431e+01	-1.265913e+02
8.500000e-07	-4.022410e-06	-1.915325e-09	-2.862754e+01	-1.262957e+02
8.600000e-07	-3.991709e-06	-1.916389e-09	-2.840904e+01	-1.259958e+02
8.700000e-07	-3.960767e-06	-1.902824e-09	-2.818883e+01	-1.256920e+02
8.800000e-07	-3.929617e-06	-1.881663e-09	-2.796713e+01	-1.253851e+02
8.900000e-07	-3.898167e-06	-1.862711e-09	-2.774330e+01	-1.250757e+02
9.000000e-07	-3.866469e-06	-1.859076e-09	-2.751770e+01	-1.247645e+02
9.100000e-07	-3.834632e-06	-1.860512e-09	-2.729112e+01	-1.244521e+02
9.200000e-07	-3.802683e-06	-1.865922e-09	-2.706374e+01	-1.241390e+02
9.300000e-07	-3.770538e-06	-1.872637e-09	-2.683496e+01	-1.238255e+02
9.400000e-07	-3.738165e-06	-1.880769e-09	-2.660456e+01	-1.235118e+02
9.500000e-07	-3.705490e-06	-1.878606e-09	-2.637202e+01	-1.231978e+02
9.600000e-07	-3.672394e-06	-1.864730e-09	-2.613647e+01	-1.228832e+02
9.700000e-07	-3.638813e-06	-1.845574e-09	-2.589747e+01	-1.225675e+02
9.800000e-07	-3.604711e-06	-1.835168e-09	-2.565477e+01	-1.222501e+02
9.900000e-07	-3.570242e-06	-1.833600e-09	-2.540946e+01	-1.219301e+02
1.000000e-06	-3.535451e-06	-1.836811e-09	-2.516185e+01	-1.216068e+02
1.010000e-06	-3.500279e-06	-1.838997e-09	-2.491153e+01	-1.212791e+02
1.020000e-06	-3.464799e-06	-1.839845e-09	-2.465902e+01	-1.209462e+02
1.030000e-06	-3.429152e-06	-1.836696e-09	-2.440532e+01	-1.206075e+02
1.040000e-06	-3.393394e-06	-1.825925e-09	-2.415083e+01	-1.202621e+02
1.050000e-06	-3.357524e-06	-1.813380e-09	-2.389554e+01	-1.199098e+02
1.060000e-06	-3.321546e-06	-1.804625e-09	-2.363948e+01	-1.195504e+02
1.070000e-06	-3.285281e-06	-1.800447e-09	-2.338139e+01	-1.191838e+02
1.080000e-06	-3.248751e-06	-1.795972e-09	-2.312140e+01	-1.188104e+02
1.090000e-06	-3.212044e-06	-1.792257e-09	-2.286016e+01	-1.184308e+02
1.100000e-06	-3.175040e-06	-1.786674e-09	-2.259679e+01	-1.180456e+02
1.110000e-06	-3.137767e-06	-1.780372e-09	-2.233153e+01	-1.176559e+02
1.120000e-06	-3.100339e-06	-1.771498e-09	-2.206515e+01	-1.172627e+02
1.130000e-06	-3.062751e-06	-1.762740e-09	-2.179763e+01	-1.168670e+02
1.140000e-06	-3.024996e-06	-1.753720e-09	-2.152893e+01	-1.164699e+02
1.150000e-06	-2.987079e-06	-1.750890e-09	-2.125907e+01	-1.160725e+02
1.160000e-06	-2.948976e-06	-1.749702e-09	-2.098789e+01	-1.156754e+02
1.170000e-06	-2.910652e-06	-1.747844e-09	-2.071515e+01	-1.152794e+02
1.180000e-06	-2.872047e-06	-1.739949e-09	-2.044040e+01	-1.148847e+02
1.190000e-06	-2.833164e-06	-1.728941e-09	-2.016367e+01	-1.144915e+02
1.200000e-06	-2.794082e-06	-1.719149e-09	-1.988552e+01	-1.140994e+02
1.210000e-06	-2.754873e-06	-1.713962e-09	-1.960646e+01	-1.137079e+02
1.220000e-06	-2.715505e-06	-1.709249e-09	-1.932628e+01	-1.133161e+02
1.230000e-06	-2.675967e-06	-1.706538e-09	-1.904489e+01	-1.129229e+02
1.240000e-06	-2.636302e-06	-1.703686e-09	-1.876259e+01	-1.125270e+02
1.250000e-06	-2.596568e-06	-1.702176e-09	-1.847980e+01	-1.121270e+02
1.260000e-06	-2.556725e-06	-1.697599e-09	-1.819624e+01	-1.117212e+02
1.270000e-06	-2.516744e-06	-1.686745e-09	-1.791170e+01	-1.113083e+02
1.280000e-06	-2.476687e-06	-1.672802e-09	-1.762661e+01	-1.108868e+02
1.290000e-06	-2.436484e-06	-1.660245e-09	-1.734048e+01	-1.104554e+02
1.300000e-06	-2.396108e-06	-1.651325e-09	-1.705313e+01	-1.100132e+02
1.310000e-06	-2.355623e-06	-1.644058e-09	-1.676500e+01	-1.095595e+02
1.320000e-06	-2.314952e-06	-1.639639e-09	-1.647554e+01	-1.090939e+02
1.330000e-06	-2.273988e-06	-1.636777e-09	-1.618400e+01	-1.086164e+02
1.340000e-06	-2.232713e-06	-1.634382e-09	-1.589025e+01	-1.081272e+02
1.350000e-06	-2.191130e-06	-1.629123e-09	-1.559430e+01	-1.076271e+02
1.360000e-06	-2.149304e-06	-1.618030e-09	-1.529662e+01	-1.071170e+02
1.370000e-06	-2.107203e-06	-1.604241e-09	-1.499699e+01	-1.065979e+02
1.380000e-06	-2.064816e-06	-1.593140e-09	-1.469532e+01	-1.060714e+02
1.390000e-06	-2.022153e-06	-1.584777e-09	-1.439169e+01	-1.055387e+02
1.400000e-06	-1.979237e-06	-1.577401e-09	-1.408625e+01	-1.050014e+02
1.410000e-06	-1.936103e-06	-1.570361e-09	-1.377927e+01	-1.044607e+02
1.420000e-06	-1.892762e-06	-1.565109e-09	-1.347081e+01	-1.039179e+02
1.430000e-06	-1.849265e-06	-1.559682e-09	-1.316124e+01	-1.033738e+02
1.440000e-06	-1.805650e-06	-1.551861e-09	-1.285083e+01	-1.028292e+02
1.450000e-06	-1.761972e-06	-1.540650e-09	-1.253997e+01	-1.022842e+02
1.460000e-06	-1.718240e-06	-1.531315e-09	-1.222873e+01	-1.017390e+02
1.470000e-06	-1.674459e-06	-1.523958e-09	-1.191715e+01	-1.011929e+02
1.480000e-06	-1.630625e-06	-1.516136e-09	-1.160518e+01	-1.006451e+02
1.490000e-06	-1.586714e-06	-1.507367e-09	-1.129266e+01	-1.000946e+02
1.500000e-06	-1.542751e-06	-1.500807e-09	-1.097978e+01	-9.953983e+01
1.510000e-06	-1.498766e-06	-1.497645e-09	-1.066674e+01	-9.897917e+01
1.520000e-06	-1.454695e-06	-1.492115e-09	-1.035308e+01	-9.841079e+01
1.530000e-06	-1.410504e-06	-1.478844e-09	-1.003858e+01	-9.783281e+01
1.540000e-06	-1.366259e-06	-1.464374e-09	-9.723680e+00	-9.724337e+01
1.550000e-06	-1.321937e-06	-1.454871e-09	-9.408239e+00	-9.664069e+01
1.560000e-06	-1.277543e-06	-1.446671e-09	-9.092292e+00	-9.602317e+01
1.570000e-06	-1.233115e-06	-1.436905e-09	-8.776094e+00	-9.538944e+01
1.580000e-06	-1.188559e-06	-1.428002e-09	-8.458992e+00	-9.473841e+01
1.590000e-06	-1.143889e-06	-1.421136e-09	-8.141070e+00	-9.406931e+01
1.600000e-06	-1.099081e-06	-1.413829e-09	-7.822170e+00	-9.338167e+01
1.610000e-06	-1.054197e-06	-1.400686e-09	-7.502730e+00	-9.267537e+01
1.620000e-06	-1.009335e-06	-1.383052e-09	-7.183449e+00	-9.195057e+01
1.630000e-06	-9.644180e-07	-1.368440e-09	-6.863775e+00	-9.120769e+01
1.640000e-06	-9.193927e-07	-1.359724e-09	-6.543329e+00	-9.044735e+01
1.650000e-06	-8.743093e-07	-1.352043e-09	-6.222470e+00	-8.967030e+01
1.660000e-06	-8.290963e-07	-1.340146e-09	-5.900688e+00	-8.887736e+01
1.670000e-06	-7.837798e-07	-1.329426e-09	-5.578170e+00	-8.806934e+01
1.680000e-06	-7.384543e-07	-1.321441e-09	-5.255588e+00	-8.724696e+01
1.690000e-06	-6.930699e-07	-1.310959e-09	-4.932587e+00	-8.641079e+01
1.700000e-06	-6.475909e-07	-1.295212e-09	-4.608912e+00	-8.556117e+01
1.710000e-06	-6.020522e-07	-1.278045e-09	-4.284813e+00	-8.469822e+01
1.720000e-06	-5.565483e-07	-1.264005e-09	-3.960961e+00	-8.382173e+01
1.730000e-06	-5.110377e-07	-1.251051e-09	-3.637061e+00	-8.293119e+01
1.740000e-06	-4.655047e-07	-1.237629e-09	-3.313002e+00	-8.202580e+01
1.750000e-06	-4.199550e-07	-1.225649e-09	-2.988825e+00	-8.110444e+01
1.760000e-06	-3.743918e-07	-1.215712e-09	-2.664551e+00	-8.016576e+01
1.770000e-06	-3.287707e-07	-1.203082e-09	-2.339865e+00	-7.920817e+01
1.780000e-06	-2.830510e-07	-1.186213e-09	-2.014477e+00	-7.822991e+01
1.790000e-06	-2.373141e-07	-1.167285e-09	-1.688968e+00	-7.722916e+01
1.800000e-06	-1.915553e-07	-1.147117e-09	-1.363301e+00	-7.620399e+01
1.810000e-06	-1.458057e-07	-1.126217e-09	-1.037701e+00	-7.515256e+01
1.820000e-06	-1.001262e-07	-1.105635e-09	-7.125992e-01	-7.407304e+01
1.830000e-06	-5.448365e-08	-1.089139e-09	-3.877608e-01	-7.296379e+01
1.840000e-06	-8.805974e-09	-1.076382e-09	-6.267222e-02	-7.182327e+01
1.850000e-06	3.692797e-08	-1.064365e-09	2.628168e-01	-7.065019e+01
1.860000e-06	8.270764e-08	-1.049942e-09	5.886313e-01	-6.944342e+01
1.870000e-06	1.285242e-07	-1.034045e-09	9.147083e-01	-6.820207e+01
1.880000e-06	1.743212e-07	-1.015528e-09	1.240646e+00	-6.692543e+01
1.890000e-06	2.200800e-07	-9.897506e-10	1.566312e+00	-6.561296e+01
1.900000e-06	2.657651e-07	-9.542148e-10	1.891454e+00	-6.426429e+01
1.910000e-06	3.114314e-07	-9.206343e-10	2.216461e+00	-6.287910e+01
1.920000e-06	3.570750e-07	-8.961914e-10	2.541307e+00	-6.145718e+01
1.930000e-06	4.026810e-07	-8.809762e-10	2.865885e+00	-5.999831e+01
1.940000e-06	4.482458e-07	-8.676441e-10	3.190171e+00	-5.850225e+01
1.950000e-06	4.937194e-07	-8.517686e-10	3.513807e+00	-5.696869e+01
1.960000e-06	5.391944e-07	-8.334035e-10	3.837453e+00	-5.539724e+01
1.970000e-06	5.846602e-07	-8.056852e-10	4.161034e+00	-5.378740e+01
1.980000e-06	6.300946e-07	-7.671127e-10	4.484391e+00	-5.213855e+01
1.990000e-06	6.754760e-07	-7.259285e-10	4.807371e+00	-5.044995e+01
2.000000e-06	7.207784e-07	-6.940237e-10	5.129789e+00	-4.872078e+01
2.010000e-06	7.660803e-07	-6.718120e-10	5.452203e+00	-4.695012e+01
2.020000e-06	8.114254e-07	-6.531166e-10	5.774924e+00	-4.513702e+01
2.030000e-06	8.567042e-07	-6.325189e-10	6.097174e+00	-4.328052e+01
2.040000e-06	9.018520e-07	-6.096763e-10	6.418491e+00	-4.137972e+01
2.050000e-06	9.468787e-07	-5.827694e-10	6.738947e+00	-3.943378e+01
2.060000e-06	9.917739e-07	-5.460716e-10	7.058467e+00	-3.744200e+01
2.070000e-06	1.036610e-06	-5.023294e-10	7.377565e+00	-3.540385e+01
2.080000e-06	1.081345e-06	-4.629945e-10	7.695945e+00	-3.331899e+01
2.090000e-06	1.126001e-06	-4.319691e-10	8.013765e+00	-3.118733e+01
2.100000e-06	1.170669e-06	-4.050404e-10	8.331664e+00	-2.900899e+01
2.110000e-06	1.215234e-06	-3.750998e-10	8.648832e+00	-2.678436e+01
2.120000e-06	1.259620e-06	-3.447383e-10	8.964733e+00	-2.451407e+01
2.130000e-06	1.303972e-06	-3.152861e-10	9.280383e+00	-2.219896e+01
2.140000e-06	1.348255e-06	-2.831551e-10	9.595549e+00	-1.984009e+01
2.150000e-06	1.392481e-06	-2.442065e-10	9.910304e+00	-1.743870e+01
2.160000e-06	1.436703e-06	-2.022831e-10	1.022503e+01	-1.499616e+01
2.170000e-06	1.480834e-06	-1.632942e-10	1.053911e+01	-1.251396e+01
2.180000e-06	1.524877e-06	-1.279370e-10	1.085257e+01	-9.993665e+00
2.190000e-06	1.568803e-06	-9.137563e-11	1.116519e+01	-7.436877e+00
2.200000e-06	1.612688e-06	-5.404631e-11	1.147752e+01	-4.845227e+00
2.210000e-06	1.656602e-06	-1.913601e-11	1.179006e+01	-2.220347e+00
2.220000e-06	1.700397e-06	1.707589e-11	1.210174e+01	4.361340e-01
2.230000e-06	1.744025e-06	5.968670e-11	1.241225e+01	3.122589e+00
2.240000e-06	1.787619e-06	1.075839e-10	1.272251e+01	5.837383e+00
2.250000e-06	1.831183e-06	1.519103e-10	1.303255e+01	8.578854e+00
2.260000e-06	1.874632e-06	1.917680e-10	1.334178e+01	1.134528e+01
2.270000e-06	1.917874e-06	2.336038e-10	1.364953e+01	1.413486e+01
2.280000e-06	1.960884e-06	2.772410e-10	1.395563e+01	1.694567e+01
2.290000e-06	2.003755e-06	3.181450e-10	1.426075e+01	1.977559e+01
2.300000e-06	2.046434e-06	3.555507e-10	1.456449e+01	2.262236e+01
2.310000e-06	2.088877e-06	3.935920e-10	1.486656e+01	2.548344e+01
2.320000e-06	2.131109e-06	4.376765e-10	1.516713e+01	2.835606e+01
2.330000e-06	2.173053e-06	4.833228e-10	1.546564e+01	3.123717e+01
2.340000e-06	2.214709e-06	5.265046e-10	1.576211e+01	3.412348e+01
2.350000e-06	2.256085e-06	5.669983e-10	1.605658e+01	3.701139e+01
2.360000e-06	2.297122e-06	6.072406e-10	1.634864e+01	3.989709e+01
2.370000e-06	2.337886e-06	6.490993e-10	1.663876e+01	4.277655e+01
2.380000e-06	2.378543e-06	6.903907e-10	1.692812e+01	4.564555e+01
2.390000e-06	2.419025e-06	7.316688e-10	1.721623e+01	4.849978e+01
2.400000e-06	2.459236e-06	7.751154e-10	1.750241e+01	5.133486e+01
2.410000e-06	2.499296e-06	8.185348e-10	1.778752e+01	5.414642e+01
2.420000e-06	2.539290e-06	8.631457e-10	1.807216e+01	5.693016e+01
2.430000e-06	2.579165e-06	9.089724e-10	1.835595e+01	5.968192e+01
2.440000e-06	2.618925e-06	9.538408e-10	1.863892e+01	6.239773e+01
2.450000e-06	2.658600e-06	9.949488e-10	1.892129e+01	6.507387e+01
2.460000e-06	2.698101e-06	1.032435e-09	1.920242e+01	6.770694e+01
2.470000e-06	2.737458e-06	1.067622e-09	1.948252e+01	7.029384e+01
2.480000e-06	2.776643e-06	1.102067e-09	1.976140e+01	7.283184e+01
2.490000e-06	2.815656e-06	1.135980e-09	2.003905e+01	7.531857e+01
2.500000e-06	2.854520e-06	1.169717e-09	2.031565e+01	7.775203e+01
2.510000e-06	2.893110e-06	1.206292e-09	2.059030e+01	8.013057e+01
2.520000e-06	2.931471e-06	1.250322e-09	2.086331e+01	8.245287e+01
2.530000e-06	2.969590e-06	1.297230e-09	2.113461e+01	8.471791e+01
2.540000e-06	3.007493e-06	1.336537e-09	2.140436e+01	8.692493e+01
2.550000e-06	3.045271e-06	1.364755e-09	2.167323e+01	8.907342e+01
2.560000e-06	3.082885e-06	1.389258e-09	2.194093e+01	9.116306e+01
2.570000e-06	3.120285e-06	1.414889e-09	2.220711e+01	9.319366e+01
2.580000e-06	3.157419e-06	1.437947e-09	2.247139e+01	9.516519e+01
2.590000e-06	3.194277e-06	1.461429e-09	2.273371e+01	9.707770e+01
2.600000e-06	3.230968e-06	1.492937e-09	2.299484e+01	9.893134e+01
2.610000e-06	3.267486e-06	1.532959e-09	2.325474e+01	1.007263e+02
2.620000e-06	3.303775e-06	1.570756e-09	2.351300e+01	1.024629e+02
2.630000e-06	3.339870e-06	1.599132e-09	2.376990e+01	1.041415e+02
2.640000e-06	3.375821e-06	1.621174e-09	2.402576e+01	1.057625e+02
2.650000e-06	3.411630e-06	1.641559e-09	2.428061e+01	1.073265e+02
2.660000e-06	3.447249e-06	1.657784e-09	2.453411e+01	1.088340e+02
2.670000e-06	3.482663e-06	1.668319e-09	2.478615e+01	1.102859e+02
2.680000e-06	3.517832e-06	1.678653e-09	2.503645e+01	1.116832e+02
2.690000e-06	3.552736e-06	1.698046e-09	2.528486e+01	1.130268e+02
2.700000e-06	3.587280e-06	1.726797e-09	2.553072e+01	1.143180e+02
2.710000e-06	3.621447e-06	1.758812e-09	2.577388e+01	1.155583e+02
2.720000e-06	3.655174e-06	1.782907e-09	2.601392e+01	1.167492e+02
2.730000e-06	3.688432e-06	1.798877e-09	2.625061e+01	1.178925e+02
2.740000e-06	3.721356e-06	1.812717e-09	2.648494e+01	1.189898e+02
2.750000e-06	3.753903e-06	1.823216e-09	2.671657e+01	1.200433e+02
2.760000e-06	3.786128e-06	1.829262e-09	2.694592e+01	1.210547e+02
2.770000e-06	3.818172e-06	1.836074e-09	2.717398e+01	1.220261e+02
2.780000e-06	3.850065e-06	1.850688e-09	2.740096e+01	1.229594e+02
2.790000e-06	3.881794e-06	1.870203e-09	2.762678e+01	1.238564e+02
2.800000e-06	3.913290e-06	1.886713e-09	2.785093e+01	1.247190e+02
2.810000e-06	3.944516e-06	1.898409e-09	2.807317e+01	1.255486e+02
2.820000e-06	3.975471e-06	1.908958e-09	2.829347e+01	1.263467e+02
2.830000e-06	4.006148e-06	1.919560e-09	2.851180e+01	1.271145e+02
2.840000e-06	4.036520e-06	1.927552e-09	2.872796e+01	1.278531e+02
2.850000e-06	4.066639e-06	1.934107e-09	2.894232e+01	1.285633e+02
2.860000e-06	4.096553e-06	1.943079e-09	2.915522e+01	1.292457e+02
2.870000e-06	4.126291e-06	1.953805e-09	2.936687e+01	1.299009e+02
2.880000e-06	4.155764e-06	1.964439e-09	2.957662e+01	1.305293e+02
2.890000e-06	4.184836e-06	1.971560e-09	2.978353e+01	1.311311e+02
2.900000e-06	4.213596e-06	1.978415e-09	2.998821e+01	1.317066e+02
