# Temperatura_=_15.8
# Concentracion g/m^3_=_4090.0
# C_Vs_to_Am_M_A/Vsm_=_65563218390.804596
# pendiente_HvsI_1/m_=_3716.3
# ordenada_HvsI_A/m_=_1297.0
# frecuencia_Hz_=_135083.80662308083

Tiempo_(s)	Campo_(V.s)	Magnetizacion_(V.s)	Campo_(kA/m)	Magnetizacion_(A/m)
0.000000e+00	-5.397599e-06	-1.256410e-09	-3.838855e+01	-8.372733e+01
1.000000e-08	-5.397765e-06	-1.254033e-09	-3.838973e+01	-8.353580e+01
2.000000e-08	-5.397753e-06	-1.247059e-09	-3.838965e+01	-8.331685e+01
3.000000e-08	-5.397507e-06	-1.239008e-09	-3.838790e+01	-8.307262e+01
4.000000e-08	-5.396914e-06	-1.235559e-09	-3.838368e+01	-8.280676e+01
5.000000e-08	-5.395810e-06	-1.236338e-09	-3.837583e+01	-8.252435e+01
6.000000e-08	-5.394191e-06	-1.244964e-09	-3.836431e+01	-8.223180e+01
7.000000e-08	-5.391990e-06	-1.264293e-09	-3.834866e+01	-8.193666e+01
8.000000e-08	-5.389096e-06	-1.264083e-09	-3.832808e+01	-8.164737e+01
9.000000e-08	-5.385647e-06	-1.223120e-09	-3.830355e+01	-8.137299e+01
1.000000e-07	-5.381743e-06	-1.214345e-09	-3.827578e+01	-8.112278e+01
1.100000e-07	-5.377532e-06	-1.234183e-09	-3.824583e+01	-8.090591e+01
1.200000e-07	-5.373150e-06	-1.244885e-09	-3.821467e+01	-8.073103e+01
1.300000e-07	-5.368637e-06	-1.192199e-09	-3.818257e+01	-8.060591e+01
1.400000e-07	-5.363736e-06	-1.201469e-09	-3.814771e+01	-8.053709e+01
1.500000e-07	-5.358248e-06	-1.288221e-09	-3.810868e+01	-8.052956e+01
1.600000e-07	-5.352464e-06	-1.307362e-09	-3.806754e+01	-8.058653e+01
1.700000e-07	-5.346400e-06	-1.211724e-09	-3.802442e+01	-8.070921e+01
1.800000e-07	-5.339811e-06	-1.183451e-09	-3.797755e+01	-8.089673e+01
1.900000e-07	-5.332764e-06	-1.257404e-09	-3.792743e+01	-8.114614e+01
2.000000e-07	-5.325500e-06	-1.272652e-09	-3.787577e+01	-8.145242e+01
2.100000e-07	-5.318099e-06	-1.215844e-09	-3.782313e+01	-8.180868e+01
2.200000e-07	-5.310462e-06	-1.234360e-09	-3.776882e+01	-8.220637e+01
2.300000e-07	-5.302503e-06	-1.344161e-09	-3.771221e+01	-8.263559e+01
2.400000e-07	-5.294189e-06	-1.355626e-09	-3.765308e+01	-8.308543e+01
2.500000e-07	-5.285406e-06	-1.329432e-09	-3.759062e+01	-8.354437e+01
2.600000e-07	-5.275994e-06	-1.340450e-09	-3.752368e+01	-8.400073e+01
2.700000e-07	-5.265934e-06	-1.385470e-09	-3.745213e+01	-8.444305e+01
2.800000e-07	-5.255359e-06	-1.343455e-09	-3.737692e+01	-8.486050e+01
2.900000e-07	-5.244369e-06	-1.315212e-09	-3.729876e+01	-8.524328e+01
3.000000e-07	-5.232952e-06	-1.337799e-09	-3.721756e+01	-8.558295e+01
3.100000e-07	-5.221104e-06	-1.348073e-09	-3.713329e+01	-8.587267e+01
3.200000e-07	-5.208824e-06	-1.312233e-09	-3.704596e+01	-8.610738e+01
3.300000e-07	-5.196113e-06	-1.329636e-09	-3.695555e+01	-8.628397e+01
3.400000e-07	-5.183026e-06	-1.352738e-09	-3.686248e+01	-8.640122e+01
3.500000e-07	-5.169549e-06	-1.326291e-09	-3.676663e+01	-8.645981e+01
3.600000e-07	-5.155676e-06	-1.299660e-09	-3.666796e+01	-8.646218e+01
3.700000e-07	-5.141292e-06	-1.328327e-09	-3.656566e+01	-8.641229e+01
3.800000e-07	-5.126478e-06	-1.328998e-09	-3.646030e+01	-8.631539e+01
3.900000e-07	-5.111206e-06	-1.299101e-09	-3.635168e+01	-8.617770e+01
4.000000e-07	-5.095300e-06	-1.302605e-09	-3.623855e+01	-8.600610e+01
4.100000e-07	-5.078887e-06	-1.314633e-09	-3.612182e+01	-8.580777e+01
4.200000e-07	-5.062088e-06	-1.303132e-09	-3.600235e+01	-8.558986e+01
4.300000e-07	-5.045034e-06	-1.292823e-09	-3.588106e+01	-8.535916e+01
4.400000e-07	-5.027725e-06	-1.307663e-09	-3.575795e+01	-8.512188e+01
4.500000e-07	-5.010106e-06	-1.301438e-09	-3.563265e+01	-8.488334e+01
4.600000e-07	-4.992142e-06	-1.293824e-09	-3.550488e+01	-8.464788e+01
4.700000e-07	-4.973782e-06	-1.295015e-09	-3.537430e+01	-8.441869e+01
4.800000e-07	-4.955067e-06	-1.299754e-09	-3.524120e+01	-8.419782e+01
4.900000e-07	-4.935945e-06	-1.278224e-09	-3.510520e+01	-8.398618e+01
5.000000e-07	-4.916477e-06	-1.272828e-09	-3.496674e+01	-8.378361e+01
5.100000e-07	-4.896772e-06	-1.270539e-09	-3.482659e+01	-8.358905e+01
5.200000e-07	-4.876872e-06	-1.275261e-09	-3.468506e+01	-8.340070e+01
5.300000e-07	-4.856786e-06	-1.267394e-09	-3.454221e+01	-8.321623e+01
5.400000e-07	-4.836453e-06	-1.272905e-09	-3.439760e+01	-8.303303e+01
5.500000e-07	-4.815750e-06	-1.272181e-09	-3.425035e+01	-8.284838e+01
5.600000e-07	-4.794657e-06	-1.275721e-09	-3.410034e+01	-8.265974e+01
5.700000e-07	-4.773192e-06	-1.265918e-09	-3.394767e+01	-8.246491e+01
5.800000e-07	-4.751396e-06	-1.257743e-09	-3.379266e+01	-8.226217e+01
5.900000e-07	-4.729352e-06	-1.241427e-09	-3.363588e+01	-8.205045e+01
6.000000e-07	-4.706949e-06	-1.238178e-09	-3.347655e+01	-8.182937e+01
6.100000e-07	-4.684156e-06	-1.240976e-09	-3.331443e+01	-8.159928e+01
6.200000e-07	-4.661031e-06	-1.246793e-09	-3.314997e+01	-8.136123e+01
6.300000e-07	-4.637686e-06	-1.242177e-09	-3.298394e+01	-8.111688e+01
6.400000e-07	-4.614102e-06	-1.246918e-09	-3.281621e+01	-8.086842e+01
6.500000e-07	-4.590288e-06	-1.253647e-09	-3.264683e+01	-8.061838e+01
6.600000e-07	-4.566280e-06	-1.248323e-09	-3.247609e+01	-8.036951e+01
6.700000e-07	-4.542029e-06	-1.232681e-09	-3.230360e+01	-8.012457e+01
6.800000e-07	-4.517504e-06	-1.224245e-09	-3.212918e+01	-7.988616e+01
6.900000e-07	-4.492517e-06	-1.224184e-09	-3.195147e+01	-7.965653e+01
7.000000e-07	-4.466939e-06	-1.221723e-09	-3.176956e+01	-7.943746e+01
7.100000e-07	-4.440741e-06	-1.218862e-09	-3.158323e+01	-7.923011e+01
7.200000e-07	-4.414046e-06	-1.218716e-09	-3.139338e+01	-7.903497e+01
7.300000e-07	-4.386945e-06	-1.225682e-09	-3.120062e+01	-7.885180e+01
7.400000e-07	-4.359510e-06	-1.227568e-09	-3.100551e+01	-7.867961e+01
7.500000e-07	-4.331861e-06	-1.224916e-09	-3.080886e+01	-7.851675e+01
7.600000e-07	-4.304032e-06	-1.214377e-09	-3.061094e+01	-7.836097e+01
7.700000e-07	-4.276034e-06	-1.210880e-09	-3.041181e+01	-7.820953e+01
7.800000e-07	-4.247861e-06	-1.207357e-09	-3.021144e+01	-7.805935e+01
7.900000e-07	-4.219439e-06	-1.205028e-09	-3.000930e+01	-7.790721e+01
8.000000e-07	-4.190606e-06	-1.198107e-09	-2.980423e+01	-7.774988e+01
8.100000e-07	-4.161375e-06	-1.198463e-09	-2.959634e+01	-7.758430e+01
8.200000e-07	-4.131824e-06	-1.197044e-09	-2.938617e+01	-7.740777e+01
8.300000e-07	-4.101980e-06	-1.195953e-09	-2.917391e+01	-7.721806e+01
8.400000e-07	-4.071858e-06	-1.186624e-09	-2.895968e+01	-7.701354e+01
8.500000e-07	-4.041589e-06	-1.181651e-09	-2.874440e+01	-7.679327e+01
8.600000e-07	-4.011143e-06	-1.177818e-09	-2.852787e+01	-7.655700e+01
8.700000e-07	-3.980446e-06	-1.176516e-09	-2.830954e+01	-7.630524e+01
8.800000e-07	-3.949486e-06	-1.168465e-09	-2.808935e+01	-7.603915e+01
8.900000e-07	-3.918261e-06	-1.162465e-09	-2.786728e+01	-7.576052e+01
9.000000e-07	-3.886768e-06	-1.158115e-09	-2.764329e+01	-7.547165e+01
9.100000e-07	-3.855009e-06	-1.156657e-09	-2.741742e+01	-7.517522e+01
9.200000e-07	-3.823103e-06	-1.150249e-09	-2.719050e+01	-7.487413e+01
9.300000e-07	-3.791095e-06	-1.146138e-09	-2.696285e+01	-7.457136e+01
9.400000e-07	-3.758918e-06	-1.146460e-09	-2.673400e+01	-7.426982e+01
9.500000e-07	-3.726380e-06	-1.148409e-09	-2.650259e+01	-7.397219e+01
9.600000e-07	-3.693408e-06	-1.146241e-09	-2.626809e+01	-7.368078e+01
9.700000e-07	-3.660117e-06	-1.140362e-09	-2.603131e+01	-7.339747e+01
9.800000e-07	-3.626416e-06	-1.134293e-09	-2.579163e+01	-7.312357e+01
9.900000e-07	-3.592245e-06	-1.127246e-09	-2.554860e+01	-7.285983e+01
1.000000e-06	-3.557748e-06	-1.118178e-09	-2.530325e+01	-7.260641e+01
1.010000e-06	-3.522824e-06	-1.112051e-09	-2.505487e+01	-7.236288e+01
1.020000e-06	-3.487456e-06	-1.113758e-09	-2.480332e+01	-7.212832e+01
1.030000e-06	-3.451872e-06	-1.115815e-09	-2.455024e+01	-7.190134e+01
1.040000e-06	-3.416154e-06	-1.114799e-09	-2.429621e+01	-7.168026e+01
1.050000e-06	-3.380308e-06	-1.108459e-09	-2.404127e+01	-7.146314e+01
1.060000e-06	-3.344285e-06	-1.100071e-09	-2.378507e+01	-7.124797e+01
1.070000e-06	-3.308121e-06	-1.088857e-09	-2.352787e+01	-7.103275e+01
1.080000e-06	-3.271806e-06	-1.080263e-09	-2.326958e+01	-7.081562e+01
1.090000e-06	-3.235241e-06	-1.073892e-09	-2.300953e+01	-7.059498e+01
1.100000e-06	-3.198401e-06	-1.074920e-09	-2.274752e+01	-7.036951e+01
1.110000e-06	-3.161261e-06	-1.077323e-09	-2.248338e+01	-7.013827e+01
1.120000e-06	-3.123940e-06	-1.079440e-09	-2.221794e+01	-6.990075e+01
1.130000e-06	-3.086439e-06	-1.073525e-09	-2.195123e+01	-6.965680e+01
1.140000e-06	-3.048690e-06	-1.063594e-09	-2.168275e+01	-6.940665e+01
1.150000e-06	-3.010777e-06	-1.055659e-09	-2.141311e+01	-6.915085e+01
1.160000e-06	-2.972722e-06	-1.053646e-09	-2.114246e+01	-6.889022e+01
1.170000e-06	-2.934445e-06	-1.049847e-09	-2.087022e+01	-6.862572e+01
1.180000e-06	-2.895953e-06	-1.045579e-09	-2.059646e+01	-6.835838e+01
1.190000e-06	-2.857190e-06	-1.042744e-09	-2.032077e+01	-6.808921e+01
1.200000e-06	-2.818295e-06	-1.042890e-09	-2.004415e+01	-6.781910e+01
1.210000e-06	-2.779322e-06	-1.041330e-09	-1.976696e+01	-6.754873e+01
1.220000e-06	-2.740050e-06	-1.037377e-09	-1.948765e+01	-6.727852e+01
1.230000e-06	-2.700588e-06	-1.032155e-09	-1.920700e+01	-6.700855e+01
1.240000e-06	-2.660955e-06	-1.028895e-09	-1.892512e+01	-6.673859e+01
1.250000e-06	-2.621137e-06	-1.023851e-09	-1.864193e+01	-6.646802e+01
1.260000e-06	-2.581230e-06	-1.018696e-09	-1.835810e+01	-6.619593e+01
1.270000e-06	-2.541217e-06	-1.016271e-09	-1.807352e+01	-6.592113e+01
1.280000e-06	-2.501135e-06	-1.016015e-09	-1.778846e+01	-6.564220e+01
1.290000e-06	-2.460963e-06	-1.015798e-09	-1.750275e+01	-6.535761e+01
1.300000e-06	-2.420600e-06	-1.007970e-09	-1.721568e+01	-6.506576e+01
1.310000e-06	-2.380161e-06	-9.964019e-10	-1.692807e+01	-6.476513e+01
1.320000e-06	-2.339641e-06	-9.895038e-10	-1.663989e+01	-6.445430e+01
1.330000e-06	-2.298859e-06	-9.911702e-10	-1.634983e+01	-6.413212e+01
1.340000e-06	-2.257678e-06	-9.941019e-10	-1.605696e+01	-6.379771e+01
1.350000e-06	-2.216264e-06	-9.929980e-10	-1.576241e+01	-6.345055e+01
1.360000e-06	-2.174718e-06	-9.889952e-10	-1.546693e+01	-6.309050e+01
1.370000e-06	-2.132945e-06	-9.822702e-10	-1.516983e+01	-6.271782e+01
1.380000e-06	-2.090886e-06	-9.705363e-10	-1.487070e+01	-6.233317e+01
1.390000e-06	-2.048413e-06	-9.565554e-10	-1.456863e+01	-6.193754e+01
1.400000e-06	-2.005750e-06	-9.475968e-10	-1.426520e+01	-6.153223e+01
1.410000e-06	-1.962853e-06	-9.472559e-10	-1.396011e+01	-6.111877e+01
1.420000e-06	-1.919638e-06	-9.498323e-10	-1.365276e+01	-6.069882e+01
1.430000e-06	-1.876307e-06	-9.507366e-10	-1.334459e+01	-6.027409e+01
1.440000e-06	-1.832794e-06	-9.464133e-10	-1.303511e+01	-5.984628e+01
1.450000e-06	-1.789112e-06	-9.392361e-10	-1.272444e+01	-5.941692e+01
1.460000e-06	-1.745369e-06	-9.280351e-10	-1.241333e+01	-5.898735e+01
1.470000e-06	-1.701570e-06	-9.133318e-10	-1.210183e+01	-5.855863e+01
1.480000e-06	-1.657661e-06	-8.991186e-10	-1.178954e+01	-5.813149e+01
1.490000e-06	-1.613643e-06	-8.924106e-10	-1.147647e+01	-5.770629e+01
1.500000e-06	-1.569638e-06	-8.929482e-10	-1.116351e+01	-5.728304e+01
1.510000e-06	-1.525641e-06	-8.945571e-10	-1.085059e+01	-5.686136e+01
1.520000e-06	-1.481536e-06	-8.920301e-10	-1.053691e+01	-5.644057e+01
1.530000e-06	-1.437301e-06	-8.829403e-10	-1.022230e+01	-5.601970e+01
1.540000e-06	-1.392961e-06	-8.679493e-10	-9.906950e+00	-5.559754e+01
1.550000e-06	-1.348546e-06	-8.497923e-10	-9.591070e+00	-5.517277e+01
1.560000e-06	-1.304123e-06	-8.333376e-10	-9.275121e+00	-5.474395e+01
1.570000e-06	-1.259696e-06	-8.233710e-10	-8.959152e+00	-5.430967e+01
1.580000e-06	-1.215166e-06	-8.222941e-10	-8.642445e+00	-5.386858e+01
1.590000e-06	-1.170534e-06	-8.262630e-10	-8.325020e+00	-5.341947e+01
1.600000e-06	-1.125882e-06	-8.273391e-10	-8.007445e+00	-5.296128e+01
1.610000e-06	-1.081105e-06	-8.198761e-10	-7.688982e+00	-5.249319e+01
1.620000e-06	-1.036189e-06	-8.057830e-10	-7.369535e+00	-5.201456e+01
1.630000e-06	-9.911894e-07	-7.907220e-10	-7.049491e+00	-5.152499e+01
1.640000e-06	-9.461226e-07	-7.785898e-10	-6.728969e+00	-5.102427e+01
1.650000e-06	-9.009876e-07	-7.689689e-10	-6.407962e+00	-5.051231e+01
1.660000e-06	-8.557769e-07	-7.630922e-10	-6.086417e+00	-4.998915e+01
1.670000e-06	-8.105056e-07	-7.604341e-10	-5.764440e+00	-4.945484e+01
1.680000e-06	-7.651868e-07	-7.589602e-10	-5.442126e+00	-4.890942e+01
1.690000e-06	-7.197884e-07	-7.528230e-10	-5.119245e+00	-4.835283e+01
1.700000e-06	-6.742944e-07	-7.383052e-10	-4.795685e+00	-4.778486e+01
1.710000e-06	-6.287542e-07	-7.212838e-10	-4.471796e+00	-4.720508e+01
1.720000e-06	-5.831794e-07	-7.066658e-10	-4.147661e+00	-4.661286e+01
1.730000e-06	-5.376005e-07	-6.953303e-10	-3.823498e+00	-4.600726e+01
1.740000e-06	-4.920402e-07	-6.871046e-10	-3.499466e+00	-4.538713e+01
1.750000e-06	-4.464532e-07	-6.821859e-10	-3.175244e+00	-4.475103e+01
1.760000e-06	-4.007928e-07	-6.786718e-10	-2.850500e+00	-4.409733e+01
1.770000e-06	-3.551722e-07	-6.701719e-10	-2.526040e+00	-4.342424e+01
1.780000e-06	-3.094807e-07	-6.546535e-10	-2.201074e+00	-4.272986e+01
1.790000e-06	-2.636685e-07	-6.370077e-10	-1.875251e+00	-4.201228e+01
1.800000e-06	-2.178735e-07	-6.226732e-10	-1.549550e+00	-4.126964e+01
1.810000e-06	-1.720763e-07	-6.105126e-10	-1.223833e+00	-4.050023e+01
1.820000e-06	-1.262863e-07	-5.973025e-10	-8.981677e-01	-3.970253e+01
1.830000e-06	-8.055305e-08	-5.877077e-10	-5.729057e-01	-3.887533e+01
1.840000e-06	-3.473989e-08	-5.804888e-10	-2.470754e-01	-3.801775e+01
1.850000e-06	1.109443e-08	-5.710607e-10	7.890532e-02	-3.712927e+01
1.860000e-06	5.687144e-08	-5.562775e-10	4.044785e-01	-3.620976e+01
1.870000e-06	1.027665e-07	-5.391217e-10	7.308909e-01	-3.525951e+01
1.880000e-06	1.486933e-07	-5.246513e-10	1.057529e+00	-3.427914e+01
1.890000e-06	1.945791e-07	-5.109492e-10	1.383877e+00	-3.326960e+01
1.900000e-06	2.404840e-07	-4.933449e-10	1.710359e+00	-3.223210e+01
1.910000e-06	2.863085e-07	-4.718739e-10	2.036270e+00	-3.116804e+01
1.920000e-06	3.320075e-07	-4.514187e-10	2.361289e+00	-3.007890e+01
1.930000e-06	3.776773e-07	-4.337786e-10	2.686099e+00	-2.896618e+01
1.940000e-06	4.233164e-07	-4.166549e-10	3.010691e+00	-2.783129e+01
1.950000e-06	4.689628e-07	-3.979466e-10	3.335335e+00	-2.667547e+01
1.960000e-06	5.145850e-07	-3.804971e-10	3.659808e+00	-2.549971e+01
1.970000e-06	5.601418e-07	-3.658959e-10	3.983814e+00	-2.430471e+01
1.980000e-06	6.056180e-07	-3.505836e-10	4.307248e+00	-2.309080e+01
1.990000e-06	6.510185e-07	-3.311776e-10	4.630144e+00	-2.185797e+01
2.000000e-06	6.963835e-07	-3.097196e-10	4.952787e+00	-2.060581e+01
2.010000e-06	7.417135e-07	-2.903697e-10	5.275180e+00	-1.933359e+01
2.020000e-06	7.869960e-07	-2.714812e-10	5.597237e+00	-1.804026e+01
2.030000e-06	8.322460e-07	-2.505830e-10	5.919061e+00	-1.672454e+01
2.040000e-06	8.774074e-07	-2.284529e-10	6.240257e+00	-1.538499e+01
2.050000e-06	9.224703e-07	-2.084160e-10	6.560750e+00	-1.402010e+01
2.060000e-06	9.675379e-07	-1.895132e-10	6.881278e+00	-1.262837e+01
2.070000e-06	1.012506e-06	-1.672388e-10	7.201096e+00	-1.120841e+01
2.080000e-06	1.057281e-06	-1.405060e-10	7.519542e+00	-9.759055e+00
2.090000e-06	1.102017e-06	-1.125402e-10	7.837712e+00	-8.279416e+00
2.100000e-06	1.146707e-06	-8.816050e-11	8.155554e+00	-6.768960e+00
2.110000e-06	1.191282e-06	-6.449126e-11	8.472580e+00	-5.227564e+00
2.120000e-06	1.235817e-06	-3.952693e-11	8.789319e+00	-3.655541e+00
2.130000e-06	1.280238e-06	-1.575865e-11	9.105247e+00	-2.053658e+00
2.140000e-06	1.324509e-06	3.886170e-12	9.420113e+00	-4.231256e-01
2.150000e-06	1.368714e-06	2.446736e-11	9.734503e+00	1.234430e+00
2.160000e-06	1.412955e-06	5.281073e-11	1.004916e+01	2.917011e+00
2.170000e-06	1.457145e-06	8.451730e-11	1.036344e+01	4.622303e+00
2.180000e-06	1.501259e-06	1.136473e-10	1.067719e+01	6.347747e+00
2.190000e-06	1.545343e-06	1.410319e-10	1.099072e+01	8.090609e+00
2.200000e-06	1.589327e-06	1.689505e-10	1.130353e+01	9.848060e+00
2.210000e-06	1.633273e-06	1.964701e-10	1.161609e+01	1.161724e+01
2.220000e-06	1.677204e-06	2.200284e-10	1.192853e+01	1.339533e+01
2.230000e-06	1.721049e-06	2.417782e-10	1.224037e+01	1.517960e+01
2.240000e-06	1.764798e-06	2.680403e-10	1.255151e+01	1.696746e+01
2.250000e-06	1.808539e-06	3.002586e-10	1.286261e+01	1.875644e+01
2.260000e-06	1.852200e-06	3.328888e-10	1.317313e+01	2.054430e+01
2.270000e-06	1.895611e-06	3.623509e-10	1.348187e+01	2.232889e+01
2.280000e-06	1.938822e-06	3.903940e-10	1.378920e+01	2.410826e+01
2.290000e-06	1.981861e-06	4.202718e-10	1.409530e+01	2.588054e+01
2.300000e-06	2.024779e-06	4.491932e-10	1.440054e+01	2.764394e+01
2.310000e-06	2.067566e-06	4.727044e-10	1.470485e+01	2.939672e+01
2.320000e-06	2.109962e-06	4.947193e-10	1.500637e+01	3.113712e+01
2.330000e-06	2.151931e-06	5.222281e-10	1.530486e+01	3.286332e+01
2.340000e-06	2.193659e-06	5.517347e-10	1.560164e+01	3.457344e+01
2.350000e-06	2.235190e-06	5.760828e-10	1.589702e+01	3.626550e+01
2.360000e-06	2.276423e-06	5.992835e-10	1.619027e+01	3.793740e+01
2.370000e-06	2.317368e-06	6.267520e-10	1.648148e+01	3.958694e+01
2.380000e-06	2.358107e-06	6.571370e-10	1.677122e+01	4.121185e+01
2.390000e-06	2.398607e-06	6.839983e-10	1.705926e+01	4.280979e+01
2.400000e-06	2.438886e-06	7.051214e-10	1.734573e+01	4.437843e+01
2.410000e-06	2.478998e-06	7.229486e-10	1.763101e+01	4.591548e+01
2.420000e-06	2.519063e-06	7.424362e-10	1.791596e+01	4.741879e+01
2.430000e-06	2.559113e-06	7.650445e-10	1.820081e+01	4.888637e+01
2.440000e-06	2.599009e-06	7.887790e-10	1.848455e+01	5.031648e+01
2.450000e-06	2.638804e-06	8.149155e-10	1.876758e+01	5.170769e+01
2.460000e-06	2.678512e-06	8.415815e-10	1.904999e+01	5.305894e+01
2.470000e-06	2.718022e-06	8.654208e-10	1.933099e+01	5.436955e+01
2.480000e-06	2.757402e-06	8.849329e-10	1.961107e+01	5.563927e+01
2.490000e-06	2.796632e-06	9.000522e-10	1.989008e+01	5.686826e+01
2.500000e-06	2.835570e-06	9.119754e-10	2.016701e+01	5.805710e+01
2.510000e-06	2.874183e-06	9.240219e-10	2.044163e+01	5.920677e+01
2.520000e-06	2.912615e-06	9.417877e-10	2.071497e+01	6.031858e+01
2.530000e-06	2.950920e-06	9.672785e-10	2.098740e+01	6.139408e+01
2.540000e-06	2.989031e-06	9.947790e-10	2.125845e+01	6.243508e+01
2.550000e-06	3.026944e-06	1.017042e-09	2.152809e+01	6.344347e+01
2.560000e-06	3.064643e-06	1.032354e-09	2.179621e+01	6.442119e+01
2.570000e-06	3.102155e-06	1.042130e-09	2.206300e+01	6.537014e+01
2.580000e-06	3.139465e-06	1.047487e-09	2.232836e+01	6.629210e+01
2.590000e-06	3.176550e-06	1.052087e-09	2.259211e+01	6.718865e+01
2.600000e-06	3.213423e-06	1.063134e-09	2.285436e+01	6.806115e+01
2.610000e-06	3.250085e-06	1.081375e-09	2.311510e+01	6.891065e+01
2.620000e-06	3.286496e-06	1.102982e-09	2.337407e+01	6.973790e+01
2.630000e-06	3.322687e-06	1.122530e-09	2.363146e+01	7.054334e+01
2.640000e-06	3.358782e-06	1.134729e-09	2.388817e+01	7.132714e+01
2.650000e-06	3.394775e-06	1.140743e-09	2.414416e+01	7.208916e+01
2.660000e-06	3.430611e-06	1.143886e-09	2.439904e+01	7.282906e+01
2.670000e-06	3.466343e-06	1.146643e-09	2.465316e+01	7.354634e+01
2.680000e-06	3.501861e-06	1.150894e-09	2.490577e+01	7.424038e+01
2.690000e-06	3.537031e-06	1.160488e-09	2.515590e+01	7.491051e+01
2.700000e-06	3.571778e-06	1.176982e-09	2.540303e+01	7.555612e+01
2.710000e-06	3.606013e-06	1.195070e-09	2.564652e+01	7.617664e+01
2.720000e-06	3.639809e-06	1.208683e-09	2.588688e+01	7.677166e+01
2.730000e-06	3.673265e-06	1.215048e-09	2.612482e+01	7.734093e+01
2.740000e-06	3.706350e-06	1.216867e-09	2.636013e+01	7.788441e+01
2.750000e-06	3.739037e-06	1.219106e-09	2.659261e+01	7.840226e+01
2.760000e-06	3.771439e-06	1.223384e-09	2.682305e+01	7.889487e+01
2.770000e-06	3.803645e-06	1.228831e-09	2.705211e+01	7.936280e+01
2.780000e-06	3.835737e-06	1.238577e-09	2.728035e+01	7.980677e+01
2.790000e-06	3.867720e-06	1.251539e-09	2.750782e+01	8.022766e+01
2.800000e-06	3.899457e-06	1.260460e-09	2.773354e+01	8.062641e+01
2.810000e-06	3.930872e-06	1.262676e-09	2.795696e+01	8.100398e+01
2.820000e-06	3.962127e-06	1.261786e-09	2.817925e+01	8.136135e+01
2.830000e-06	3.993182e-06	1.263607e-09	2.840013e+01	8.169944e+01
2.840000e-06	4.023840e-06	1.269779e-09	2.861817e+01	8.201907e+01
2.850000e-06	4.054191e-06	1.276706e-09	2.883403e+01	8.232096e+01
2.860000e-06	4.084319e-06	1.282761e-09	2.904830e+01	8.260572e+01
2.870000e-06	4.114220e-06	1.289472e-09	2.926096e+01	8.287382e+01
2.880000e-06	4.143800e-06	1.294164e-09	2.947134e+01	8.312566e+01
2.890000e-06	4.173025e-06	1.293282e-09	2.967919e+01	8.336151e+01
2.900000e-06	4.201971e-06	1.291010e-09	2.988506e+01	8.358165e+01
