# Temperatura_=_-2.6
# Concentracion g/m^3_=_4090.0
# C_Vs_to_Am_M_A/Vsm_=_65563218390.804596
# pendiente_HvsI_1/m_=_3716.3
# ordenada_HvsI_A/m_=_1297.0
# frecuencia_Hz_=_135068.40050008363

Tiempo_(s)	Campo_(V.s)	Magnetizacion_(V.s)	Campo_(kA/m)	Magnetizacion_(A/m)
0.000000e+00	-5.433299e-06	-1.741332e-09	-3.839575e+01	-1.175569e+02
1.000000e-08	-5.433360e-06	-1.736370e-09	-3.839618e+01	-1.174551e+02
2.000000e-08	-5.433137e-06	-1.731806e-09	-3.839460e+01	-1.173365e+02
3.000000e-08	-5.432528e-06	-1.728472e-09	-3.839030e+01	-1.172008e+02
4.000000e-08	-5.431486e-06	-1.728301e-09	-3.838294e+01	-1.170487e+02
5.000000e-08	-5.429905e-06	-1.731737e-09	-3.837177e+01	-1.168815e+02
6.000000e-08	-5.427723e-06	-1.745488e-09	-3.835635e+01	-1.167013e+02
7.000000e-08	-5.424972e-06	-1.749503e-09	-3.833690e+01	-1.165109e+02
8.000000e-08	-5.421578e-06	-1.704714e-09	-3.831292e+01	-1.163138e+02
9.000000e-08	-5.417615e-06	-1.674678e-09	-3.828492e+01	-1.161141e+02
1.000000e-07	-5.413356e-06	-1.768200e-09	-3.825482e+01	-1.159161e+02
1.100000e-07	-5.408937e-06	-1.808460e-09	-3.822359e+01	-1.157247e+02
1.200000e-07	-5.404378e-06	-1.698440e-09	-3.819137e+01	-1.155446e+02
1.300000e-07	-5.399560e-06	-1.645739e-09	-3.815733e+01	-1.153807e+02
1.400000e-07	-5.394270e-06	-1.768395e-09	-3.811995e+01	-1.152372e+02
1.500000e-07	-5.388489e-06	-1.849892e-09	-3.807909e+01	-1.151181e+02
1.600000e-07	-5.382368e-06	-1.676186e-09	-3.803584e+01	-1.150267e+02
1.700000e-07	-5.375877e-06	-1.578152e-09	-3.798996e+01	-1.149655e+02
1.800000e-07	-5.368984e-06	-1.730095e-09	-3.794125e+01	-1.149359e+02
1.900000e-07	-5.361785e-06	-1.815898e-09	-3.789038e+01	-1.149384e+02
2.000000e-07	-5.354324e-06	-1.703776e-09	-3.783766e+01	-1.149725e+02
2.100000e-07	-5.346679e-06	-1.660012e-09	-3.778363e+01	-1.150365e+02
2.200000e-07	-5.338785e-06	-1.794584e-09	-3.772784e+01	-1.151275e+02
2.300000e-07	-5.330514e-06	-1.797514e-09	-3.766939e+01	-1.152420e+02
2.400000e-07	-5.321816e-06	-1.702846e-09	-3.760793e+01	-1.153754e+02
2.500000e-07	-5.312542e-06	-1.750217e-09	-3.754239e+01	-1.155224e+02
2.600000e-07	-5.302468e-06	-1.850211e-09	-3.747120e+01	-1.156773e+02
2.700000e-07	-5.291656e-06	-1.781605e-09	-3.739479e+01	-1.158341e+02
2.800000e-07	-5.280419e-06	-1.731704e-09	-3.731539e+01	-1.159865e+02
2.900000e-07	-5.268870e-06	-1.823411e-09	-3.723378e+01	-1.161286e+02
3.000000e-07	-5.256987e-06	-1.829881e-09	-3.714980e+01	-1.162548e+02
3.100000e-07	-5.244725e-06	-1.720414e-09	-3.706315e+01	-1.163597e+02
3.200000e-07	-5.232012e-06	-1.751469e-09	-3.697331e+01	-1.164391e+02
3.300000e-07	-5.218877e-06	-1.845855e-09	-3.688049e+01	-1.164892e+02
3.400000e-07	-5.205354e-06	-1.787160e-09	-3.678492e+01	-1.165073e+02
3.500000e-07	-5.191373e-06	-1.747804e-09	-3.668612e+01	-1.164919e+02
3.600000e-07	-5.176940e-06	-1.817172e-09	-3.658413e+01	-1.164421e+02
3.700000e-07	-5.162007e-06	-1.809872e-09	-3.647860e+01	-1.163584e+02
3.800000e-07	-5.146621e-06	-1.735091e-09	-3.636987e+01	-1.162420e+02
3.900000e-07	-5.130716e-06	-1.764198e-09	-3.625748e+01	-1.160951e+02
4.000000e-07	-5.114224e-06	-1.782401e-09	-3.614093e+01	-1.159203e+02
4.100000e-07	-5.097402e-06	-1.729868e-09	-3.602205e+01	-1.157212e+02
4.200000e-07	-5.080352e-06	-1.747086e-09	-3.590156e+01	-1.155014e+02
4.300000e-07	-5.063018e-06	-1.804352e-09	-3.577907e+01	-1.152650e+02
4.400000e-07	-5.045354e-06	-1.764280e-09	-3.565424e+01	-1.150160e+02
4.500000e-07	-5.027333e-06	-1.729598e-09	-3.552689e+01	-1.147584e+02
4.600000e-07	-5.008946e-06	-1.758196e-09	-3.539696e+01	-1.144958e+02
4.700000e-07	-4.990115e-06	-1.752909e-09	-3.526388e+01	-1.142315e+02
4.800000e-07	-4.970809e-06	-1.713262e-09	-3.512745e+01	-1.139682e+02
4.900000e-07	-4.951209e-06	-1.718826e-09	-3.498894e+01	-1.137082e+02
5.000000e-07	-4.931446e-06	-1.720632e-09	-3.484928e+01	-1.134531e+02
5.100000e-07	-4.911532e-06	-1.717536e-09	-3.470856e+01	-1.132039e+02
5.200000e-07	-4.891413e-06	-1.729688e-09	-3.456638e+01	-1.129609e+02
5.300000e-07	-4.871023e-06	-1.723273e-09	-3.442229e+01	-1.127241e+02
5.400000e-07	-4.850296e-06	-1.701805e-09	-3.427581e+01	-1.124929e+02
5.500000e-07	-4.829142e-06	-1.717514e-09	-3.412633e+01	-1.122662e+02
5.600000e-07	-4.807645e-06	-1.723855e-09	-3.397441e+01	-1.120429e+02
5.700000e-07	-4.785877e-06	-1.696866e-09	-3.382058e+01	-1.118214e+02
5.800000e-07	-4.763721e-06	-1.681932e-09	-3.366401e+01	-1.116003e+02
5.900000e-07	-4.741177e-06	-1.689494e-09	-3.350470e+01	-1.113782e+02
6.000000e-07	-4.718336e-06	-1.693534e-09	-3.334329e+01	-1.111537e+02
6.100000e-07	-4.695144e-06	-1.694799e-09	-3.317939e+01	-1.109257e+02
6.200000e-07	-4.671627e-06	-1.688992e-09	-3.301321e+01	-1.106932e+02
6.300000e-07	-4.647936e-06	-1.686297e-09	-3.284579e+01	-1.104558e+02
6.400000e-07	-4.624069e-06	-1.703422e-09	-3.267712e+01	-1.102130e+02
6.500000e-07	-4.599979e-06	-1.707412e-09	-3.250689e+01	-1.099650e+02
6.600000e-07	-4.575541e-06	-1.682760e-09	-3.233419e+01	-1.097118e+02
6.700000e-07	-4.550624e-06	-1.667950e-09	-3.215811e+01	-1.094541e+02
6.800000e-07	-4.525267e-06	-1.674413e-09	-3.197892e+01	-1.091924e+02
6.900000e-07	-4.499463e-06	-1.670647e-09	-3.179657e+01	-1.089276e+02
7.000000e-07	-4.473102e-06	-1.658629e-09	-3.161028e+01	-1.086603e+02
7.100000e-07	-4.446252e-06	-1.653810e-09	-3.142054e+01	-1.083914e+02
7.200000e-07	-4.419068e-06	-1.664646e-09	-3.122844e+01	-1.081215e+02
7.300000e-07	-4.391593e-06	-1.674192e-09	-3.103428e+01	-1.078513e+02
7.400000e-07	-4.363841e-06	-1.668088e-09	-3.083816e+01	-1.075810e+02
7.500000e-07	-4.335866e-06	-1.650291e-09	-3.064047e+01	-1.073110e+02
7.600000e-07	-4.307735e-06	-1.647782e-09	-3.044168e+01	-1.070411e+02
7.700000e-07	-4.279404e-06	-1.651560e-09	-3.024146e+01	-1.067713e+02
7.800000e-07	-4.250742e-06	-1.643957e-09	-3.003892e+01	-1.065011e+02
7.900000e-07	-4.221707e-06	-1.628533e-09	-2.983373e+01	-1.062300e+02
8.000000e-07	-4.192401e-06	-1.626111e-09	-2.962664e+01	-1.059573e+02
8.100000e-07	-4.162857e-06	-1.631113e-09	-2.941786e+01	-1.056824e+02
8.200000e-07	-4.132997e-06	-1.634580e-09	-2.920685e+01	-1.054047e+02
8.300000e-07	-4.102854e-06	-1.626745e-09	-2.899383e+01	-1.051234e+02
8.400000e-07	-4.072461e-06	-1.618464e-09	-2.877905e+01	-1.048380e+02
8.500000e-07	-4.041845e-06	-1.618683e-09	-2.856270e+01	-1.045480e+02
8.600000e-07	-4.010953e-06	-1.619701e-09	-2.834439e+01	-1.042533e+02
8.700000e-07	-3.979724e-06	-1.609109e-09	-2.812370e+01	-1.039537e+02
8.800000e-07	-3.948160e-06	-1.597677e-09	-2.790065e+01	-1.036493e+02
8.900000e-07	-3.916409e-06	-1.595835e-09	-2.767627e+01	-1.033404e+02
9.000000e-07	-3.884600e-06	-1.597981e-09	-2.745148e+01	-1.030275e+02
9.100000e-07	-3.852620e-06	-1.593023e-09	-2.722549e+01	-1.027111e+02
9.200000e-07	-3.820427e-06	-1.584275e-09	-2.699799e+01	-1.023919e+02
9.300000e-07	-3.787943e-06	-1.584738e-09	-2.676843e+01	-1.020706e+02
9.400000e-07	-3.755073e-06	-1.590778e-09	-2.653615e+01	-1.017478e+02
9.500000e-07	-3.721823e-06	-1.588541e-09	-2.630118e+01	-1.014244e+02
9.600000e-07	-3.688221e-06	-1.575747e-09	-2.606372e+01	-1.011007e+02
9.700000e-07	-3.654150e-06	-1.565579e-09	-2.582295e+01	-1.007773e+02
9.800000e-07	-3.619574e-06	-1.561025e-09	-2.557862e+01	-1.004544e+02
9.900000e-07	-3.584605e-06	-1.554536e-09	-2.533150e+01	-1.001320e+02
1.000000e-06	-3.549318e-06	-1.544905e-09	-2.508214e+01	-9.981005e+01
1.010000e-06	-3.513846e-06	-1.540495e-09	-2.483146e+01	-9.948819e+01
1.020000e-06	-3.478193e-06	-1.542224e-09	-2.457951e+01	-9.916591e+01
1.030000e-06	-3.442370e-06	-1.543193e-09	-2.432636e+01	-9.884254e+01
1.040000e-06	-3.406419e-06	-1.533762e-09	-2.407230e+01	-9.851727e+01
1.050000e-06	-3.370312e-06	-1.521080e-09	-2.381715e+01	-9.818924e+01
1.060000e-06	-3.334038e-06	-1.512272e-09	-2.356080e+01	-9.785754e+01
1.070000e-06	-3.297550e-06	-1.507663e-09	-2.330295e+01	-9.752127e+01
1.080000e-06	-3.260810e-06	-1.498915e-09	-2.304332e+01	-9.717959e+01
1.090000e-06	-3.223797e-06	-1.490708e-09	-2.278176e+01	-9.683178e+01
1.100000e-06	-3.186523e-06	-1.489450e-09	-2.251835e+01	-9.647723e+01
1.110000e-06	-3.149032e-06	-1.491943e-09	-2.225341e+01	-9.611553e+01
1.120000e-06	-3.111376e-06	-1.487032e-09	-2.198731e+01	-9.574642e+01
1.130000e-06	-3.073600e-06	-1.475970e-09	-2.172036e+01	-9.536984e+01
1.140000e-06	-3.035571e-06	-1.467063e-09	-2.145161e+01	-9.498592e+01
1.150000e-06	-2.997262e-06	-1.464093e-09	-2.118089e+01	-9.459492e+01
1.160000e-06	-2.958812e-06	-1.458471e-09	-2.090918e+01	-9.419729e+01
1.170000e-06	-2.920156e-06	-1.446812e-09	-2.063601e+01	-9.379352e+01
1.180000e-06	-2.881144e-06	-1.434756e-09	-2.036032e+01	-9.338422e+01
1.190000e-06	-2.841872e-06	-1.428773e-09	-2.008279e+01	-9.296999e+01
1.200000e-06	-2.802465e-06	-1.427135e-09	-1.980431e+01	-9.255141e+01
1.210000e-06	-2.762913e-06	-1.424240e-09	-1.952481e+01	-9.212899e+01
1.220000e-06	-2.723271e-06	-1.420317e-09	-1.924467e+01	-9.170317e+01
1.230000e-06	-2.683537e-06	-1.417620e-09	-1.896388e+01	-9.127424e+01
1.240000e-06	-2.643713e-06	-1.413687e-09	-1.868245e+01	-9.084236e+01
1.250000e-06	-2.603775e-06	-1.405901e-09	-1.840022e+01	-9.040752e+01
1.260000e-06	-2.563652e-06	-1.395647e-09	-1.811668e+01	-8.996958e+01
1.270000e-06	-2.523405e-06	-1.385487e-09	-1.783227e+01	-8.952826e+01
1.280000e-06	-2.483100e-06	-1.379683e-09	-1.754744e+01	-8.908315e+01
1.290000e-06	-2.442635e-06	-1.373685e-09	-1.726148e+01	-8.863376e+01
1.300000e-06	-2.401900e-06	-1.364023e-09	-1.697362e+01	-8.817954e+01
1.310000e-06	-2.360865e-06	-1.353765e-09	-1.668364e+01	-8.771995e+01
1.320000e-06	-2.319651e-06	-1.348798e-09	-1.639238e+01	-8.725445e+01
1.330000e-06	-2.278196e-06	-1.344126e-09	-1.609944e+01	-8.678257e+01
1.340000e-06	-2.236327e-06	-1.337096e-09	-1.580356e+01	-8.630393e+01
1.350000e-06	-2.194205e-06	-1.326902e-09	-1.550589e+01	-8.581828e+01
1.360000e-06	-2.151786e-06	-1.319239e-09	-1.520613e+01	-8.532549e+01
1.370000e-06	-2.108965e-06	-1.312725e-09	-1.490352e+01	-8.482558e+01
1.380000e-06	-2.065875e-06	-1.305559e-09	-1.459902e+01	-8.431872e+01
1.390000e-06	-2.022665e-06	-1.296952e-09	-1.429366e+01	-8.380521e+01
1.400000e-06	-1.979364e-06	-1.288065e-09	-1.398766e+01	-8.328545e+01
1.410000e-06	-1.935896e-06	-1.280686e-09	-1.368049e+01	-8.275990e+01
1.420000e-06	-1.892310e-06	-1.272505e-09	-1.337247e+01	-8.222910e+01
1.430000e-06	-1.848667e-06	-1.262887e-09	-1.306406e+01	-8.169355e+01
1.440000e-06	-1.804938e-06	-1.252899e-09	-1.275504e+01	-8.115372e+01
1.450000e-06	-1.761110e-06	-1.245482e-09	-1.244532e+01	-8.061000e+01
1.460000e-06	-1.717250e-06	-1.241188e-09	-1.213537e+01	-8.006266e+01
1.470000e-06	-1.673340e-06	-1.234891e-09	-1.182507e+01	-7.951181e+01
1.480000e-06	-1.629350e-06	-1.226561e-09	-1.151421e+01	-7.895740e+01
1.490000e-06	-1.585318e-06	-1.218342e-09	-1.120304e+01	-7.839917e+01
1.500000e-06	-1.541223e-06	-1.208610e-09	-1.089144e+01	-7.783670e+01
1.510000e-06	-1.496982e-06	-1.196569e-09	-1.057879e+01	-7.726938e+01
1.520000e-06	-1.452546e-06	-1.181589e-09	-1.026477e+01	-7.669645e+01
1.530000e-06	-1.407997e-06	-1.170508e-09	-9.949962e+00	-7.611700e+01
1.540000e-06	-1.363382e-06	-1.164891e-09	-9.634676e+00	-7.553006e+01
1.550000e-06	-1.318716e-06	-1.159438e-09	-9.319029e+00	-7.493460e+01
1.560000e-06	-1.274004e-06	-1.151473e-09	-9.003068e+00	-7.432960e+01
1.570000e-06	-1.229222e-06	-1.143724e-09	-8.686604e+00	-7.371405e+01
1.580000e-06	-1.184346e-06	-1.135252e-09	-8.369477e+00	-7.308708e+01
1.590000e-06	-1.139309e-06	-1.123279e-09	-8.051212e+00	-7.244791e+01
1.600000e-06	-1.094211e-06	-1.107705e-09	-7.732514e+00	-7.179593e+01
1.610000e-06	-1.049020e-06	-1.092951e-09	-7.413156e+00	-7.113071e+01
1.620000e-06	-1.003639e-06	-1.080167e-09	-7.092465e+00	-7.045200e+01
1.630000e-06	-9.581762e-07	-1.067940e-09	-6.771189e+00	-6.975975e+01
1.640000e-06	-9.127132e-07	-1.055419e-09	-6.449913e+00	-6.905406e+01
1.650000e-06	-8.672620e-07	-1.045321e-09	-6.128721e+00	-6.833520e+01
1.660000e-06	-8.217521e-07	-1.036816e-09	-5.807114e+00	-6.760353e+01
1.670000e-06	-7.761556e-07	-1.028749e-09	-5.484895e+00	-6.685949e+01
1.680000e-06	-7.304790e-07	-1.018130e-09	-5.162111e+00	-6.610356e+01
1.690000e-06	-6.847731e-07	-1.003868e-09	-4.839118e+00	-6.533616e+01
1.700000e-06	-6.390912e-07	-9.878744e-10	-4.516296e+00	-6.455765e+01
1.710000e-06	-5.933525e-07	-9.723911e-10	-4.193072e+00	-6.376827e+01
1.720000e-06	-5.474779e-07	-9.585711e-10	-3.868888e+00	-6.296810e+01
1.730000e-06	-5.015237e-07	-9.461761e-10	-3.544141e+00	-6.215702e+01
1.740000e-06	-4.555671e-07	-9.339533e-10	-3.219377e+00	-6.133469e+01
1.750000e-06	-4.096214e-07	-9.214289e-10	-2.894691e+00	-6.050056e+01
1.760000e-06	-3.636355e-07	-9.080591e-10	-2.569720e+00	-5.965387e+01
1.770000e-06	-3.175728e-07	-8.920030e-10	-2.244207e+00	-5.879362e+01
1.780000e-06	-2.715793e-07	-8.762125e-10	-1.919182e+00	-5.791868e+01
1.790000e-06	-2.257119e-07	-8.613032e-10	-1.595049e+00	-5.702775e+01
1.800000e-06	-1.797552e-07	-8.453840e-10	-1.270285e+00	-5.611945e+01
1.810000e-06	-1.337701e-07	-8.270148e-10	-9.453196e-01	-5.519235e+01
1.820000e-06	-8.785165e-08	-8.109375e-10	-6.208254e-01	-5.424504e+01
1.830000e-06	-4.190211e-08	-7.978590e-10	-2.961116e-01	-5.327614e+01
1.840000e-06	4.027470e-09	-7.831128e-10	2.846111e-02	-5.228442e+01
1.850000e-06	4.999778e-08	-7.667777e-10	3.533217e-01	-5.126876e+01
1.860000e-06	9.606808e-08	-7.528800e-10	6.788888e-01	-5.022825e+01
1.870000e-06	1.420965e-07	-7.422289e-10	1.004160e+00	-4.916216e+01
1.880000e-06	1.880730e-07	-7.288624e-10	1.329065e+00	-4.806999e+01
1.890000e-06	2.341107e-07	-7.071163e-10	1.654401e+00	-4.695146e+01
1.900000e-06	2.801363e-07	-6.831818e-10	1.979652e+00	-4.580647e+01
1.910000e-06	3.260833e-07	-6.629431e-10	2.304348e+00	-4.463512e+01
1.920000e-06	3.720269e-07	-6.455359e-10	2.629020e+00	-4.343763e+01
1.930000e-06	4.179746e-07	-6.282636e-10	2.953721e+00	-4.221435e+01
1.940000e-06	4.638993e-07	-6.087608e-10	3.278259e+00	-4.096568e+01
1.950000e-06	5.098115e-07	-5.893141e-10	3.602709e+00	-3.969203e+01
1.960000e-06	5.556312e-07	-5.712145e-10	3.926506e+00	-3.839379e+01
1.970000e-06	6.013682e-07	-5.502551e-10	4.249717e+00	-3.707128e+01
1.980000e-06	6.470809e-07	-5.242654e-10	4.572757e+00	-3.572470e+01
1.990000e-06	6.927590e-07	-4.981592e-10	4.895553e+00	-3.435414e+01
2.000000e-06	7.384131e-07	-4.788170e-10	5.218179e+00	-3.295955e+01
2.010000e-06	7.840086e-07	-4.629697e-10	5.540391e+00	-3.154072e+01
2.020000e-06	8.295236e-07	-4.430958e-10	5.862034e+00	-3.009732e+01
2.030000e-06	8.749708e-07	-4.198602e-10	6.183197e+00	-2.862890e+01
2.040000e-06	9.203969e-07	-3.967449e-10	6.504212e+00	-2.713490e+01
2.050000e-06	9.657802e-07	-3.739570e-10	6.824924e+00	-2.561475e+01
2.060000e-06	1.011049e-06	-3.488139e-10	7.144829e+00	-2.406784e+01
2.070000e-06	1.056194e-06	-3.211880e-10	7.463858e+00	-2.249364e+01
2.080000e-06	1.101213e-06	-2.955032e-10	7.781997e+00	-2.089166e+01
2.090000e-06	1.146096e-06	-2.742907e-10	8.099173e+00	-1.926158e+01
2.100000e-06	1.190910e-06	-2.523664e-10	8.415858e+00	-1.760326e+01
2.110000e-06	1.235689e-06	-2.249533e-10	8.732304e+00	-1.591673e+01
2.120000e-06	1.280304e-06	-1.941312e-10	9.047583e+00	-1.420228e+01
2.130000e-06	1.324789e-06	-1.651968e-10	9.361948e+00	-1.246043e+01
2.140000e-06	1.369319e-06	-1.383927e-10	9.676632e+00	-1.069194e+01
2.150000e-06	1.413803e-06	-1.121419e-10	9.990989e+00	-8.897812e+00
2.160000e-06	1.458149e-06	-8.750420e-11	1.030437e+01	-7.079246e+00
2.170000e-06	1.502379e-06	-6.496884e-11	1.061693e+01	-5.237622e+00
2.180000e-06	1.546544e-06	-4.342726e-11	1.092903e+01	-3.374460e+00
2.190000e-06	1.590647e-06	-1.648743e-11	1.124070e+01	-1.491375e+00
2.200000e-06	1.634661e-06	1.772052e-11	1.155174e+01	4.099705e-01
2.210000e-06	1.678624e-06	5.293629e-11	1.186241e+01	2.327911e+00
2.220000e-06	1.722548e-06	8.583898e-11	1.217281e+01	4.260822e+00
2.230000e-06	1.766406e-06	1.166637e-10	1.248274e+01	6.207157e+00
2.240000e-06	1.810182e-06	1.445625e-10	1.279210e+01	8.165474e+00
2.250000e-06	1.853891e-06	1.678431e-10	1.310098e+01	1.013446e+01
2.260000e-06	1.897538e-06	1.912610e-10	1.340942e+01	1.211294e+01
2.270000e-06	1.941077e-06	2.202125e-10	1.371710e+01	1.409986e+01
2.280000e-06	1.984541e-06	2.540830e-10	1.402425e+01	1.609429e+01
2.290000e-06	2.027943e-06	2.893255e-10	1.433096e+01	1.809541e+01
2.300000e-06	2.071157e-06	3.228720e-10	1.463635e+01	2.010243e+01
2.310000e-06	2.114168e-06	3.546749e-10	1.494029e+01	2.211460e+01
2.320000e-06	2.156945e-06	3.849483e-10	1.524259e+01	2.413117e+01
2.330000e-06	2.199384e-06	4.114938e-10	1.554249e+01	2.615129e+01
2.340000e-06	2.241515e-06	4.342495e-10	1.584022e+01	2.817402e+01
2.350000e-06	2.283327e-06	4.593692e-10	1.613570e+01	3.019829e+01
2.360000e-06	2.324769e-06	4.919636e-10	1.642855e+01	3.222283e+01
2.370000e-06	2.365988e-06	5.303234e-10	1.671984e+01	3.424620e+01
2.380000e-06	2.406902e-06	5.658808e-10	1.700897e+01	3.626674e+01
2.390000e-06	2.447441e-06	5.961166e-10	1.729545e+01	3.828259e+01
2.400000e-06	2.487769e-06	6.249640e-10	1.758043e+01	4.029171e+01
2.410000e-06	2.527962e-06	6.542435e-10	1.786447e+01	4.229187e+01
2.420000e-06	2.568042e-06	6.851146e-10	1.814770e+01	4.428074e+01
2.430000e-06	2.608045e-06	7.156551e-10	1.843040e+01	4.625588e+01
2.440000e-06	2.647989e-06	7.440287e-10	1.871267e+01	4.821484e+01
2.450000e-06	2.687869e-06	7.730808e-10	1.899449e+01	5.015518e+01
2.460000e-06	2.727622e-06	8.043437e-10	1.927541e+01	5.207451e+01
2.470000e-06	2.767200e-06	8.329249e-10	1.955510e+01	5.397061e+01
2.480000e-06	2.806676e-06	8.605274e-10	1.983407e+01	5.584141e+01
2.490000e-06	2.845972e-06	8.892639e-10	2.011176e+01	5.768506e+01
2.500000e-06	2.885050e-06	9.192494e-10	2.038792e+01	5.949997e+01
2.510000e-06	2.923869e-06	9.497725e-10	2.066224e+01	6.128481e+01
2.520000e-06	2.962431e-06	9.790434e-10	2.093475e+01	6.303853e+01
2.530000e-06	3.000819e-06	1.009042e-09	2.120603e+01	6.476035e+01
2.540000e-06	3.038985e-06	1.037764e-09	2.147574e+01	6.644975e+01
2.550000e-06	3.076898e-06	1.060391e-09	2.174366e+01	6.810644e+01
2.560000e-06	3.114675e-06	1.078635e-09	2.201062e+01	6.973032e+01
2.570000e-06	3.152312e-06	1.097619e-09	2.227659e+01	7.132144e+01
2.580000e-06	3.189742e-06	1.119104e-09	2.254110e+01	7.287998e+01
2.590000e-06	3.227023e-06	1.144031e-09	2.280456e+01	7.440616e+01
2.600000e-06	3.264055e-06	1.171438e-09	2.306625e+01	7.590022e+01
2.610000e-06	3.300756e-06	1.198652e-09	2.332561e+01	7.736236e+01
2.620000e-06	3.337144e-06	1.224666e-09	2.358275e+01	7.879273e+01
2.630000e-06	3.373236e-06	1.247141e-09	2.383781e+01	8.019139e+01
2.640000e-06	3.409179e-06	1.263345e-09	2.409181e+01	8.155831e+01
2.650000e-06	3.445077e-06	1.274545e-09	2.434549e+01	8.289331e+01
2.660000e-06	3.480895e-06	1.284301e-09	2.459861e+01	8.419613e+01
2.670000e-06	3.516544e-06	1.297754e-09	2.485053e+01	8.546642e+01
2.680000e-06	3.551969e-06	1.317535e-09	2.510086e+01	8.670375e+01
2.690000e-06	3.587155e-06	1.341367e-09	2.534952e+01	8.790766e+01
2.700000e-06	3.622033e-06	1.367071e-09	2.559599e+01	8.907769e+01
2.710000e-06	3.656532e-06	1.391419e-09	2.583979e+01	9.021342e+01
2.720000e-06	3.690533e-06	1.409455e-09	2.608006e+01	9.131452e+01
2.730000e-06	3.724016e-06	1.423473e-09	2.631668e+01	9.238074e+01
2.740000e-06	3.757085e-06	1.433613e-09	2.655037e+01	9.341202e+01
2.750000e-06	3.789765e-06	1.439807e-09	2.678131e+01	9.440846e+01
2.760000e-06	3.822128e-06	1.446615e-09	2.701001e+01	9.537034e+01
2.770000e-06	3.854271e-06	1.459655e-09	2.723716e+01	9.629815e+01
2.780000e-06	3.886247e-06	1.480499e-09	2.746312e+01	9.719258e+01
2.790000e-06	3.918108e-06	1.501170e-09	2.768828e+01	9.805450e+01
2.800000e-06	3.949792e-06	1.514862e-09	2.791218e+01	9.888494e+01
2.810000e-06	3.981260e-06	1.524059e-09	2.813456e+01	9.968507e+01
2.820000e-06	4.012507e-06	1.533159e-09	2.835537e+01	1.004561e+02
2.830000e-06	4.043381e-06	1.540663e-09	2.857355e+01	1.011995e+02
2.840000e-06	4.073881e-06	1.545274e-09	2.878909e+01	1.019165e+02
2.850000e-06	4.104045e-06	1.551565e-09	2.900225e+01	1.026084e+02
2.860000e-06	4.133965e-06	1.562743e-09	2.921369e+01	1.032766e+02
2.870000e-06	4.163730e-06	1.578592e-09	2.942403e+01	1.039221e+02
2.880000e-06	4.193241e-06	1.593677e-09	2.963258e+01	1.045461e+02
2.890000e-06	4.222448e-06	1.607030e-09	2.983897e+01	1.051494e+02
2.900000e-06	4.251286e-06	1.619848e-09	3.004276e+01	1.057328e+02
