# Temperatura_=_9.73
# Concentracion g/m^3_=_4090.0
# C_Vs_to_Am_M_A/Vsm_=_65563218390.804596
# pendiente_HvsI_1/m_=_3716.3
# ordenada_HvsI_A/m_=_1297.0
# frecuencia_Hz_=_135087.4725508336

Tiempo_(s)	Campo_(V.s)	Magnetizacion_(V.s)	Campo_(kA/m)	Magnetizacion_(A/m)
0.000000e+00	-5.386286e-06	-1.286132e-09	-3.838811e+01	-8.799898e+01
1.000000e-08	-5.386370e-06	-1.284460e-09	-3.838871e+01	-8.783038e+01
2.000000e-08	-5.386276e-06	-1.281099e-09	-3.838804e+01	-8.764371e+01
3.000000e-08	-5.385811e-06	-1.276665e-09	-3.838472e+01	-8.744085e+01
4.000000e-08	-5.384889e-06	-1.275691e-09	-3.837815e+01	-8.722471e+01
5.000000e-08	-5.383336e-06	-1.280302e-09	-3.836708e+01	-8.699922e+01
6.000000e-08	-5.381177e-06	-1.296045e-09	-3.835170e+01	-8.676925e+01
7.000000e-08	-5.378474e-06	-1.294558e-09	-3.833243e+01	-8.654047e+01
8.000000e-08	-5.375134e-06	-1.246853e-09	-3.830863e+01	-8.631917e+01
9.000000e-08	-5.371341e-06	-1.226365e-09	-3.828160e+01	-8.611206e+01
1.000000e-07	-5.367209e-06	-1.332305e-09	-3.825214e+01	-8.592603e+01
1.100000e-07	-5.362840e-06	-1.356062e-09	-3.822101e+01	-8.576784e+01
1.200000e-07	-5.358402e-06	-1.231262e-09	-3.818938e+01	-8.564387e+01
1.300000e-07	-5.353720e-06	-1.189467e-09	-3.815601e+01	-8.555984e+01
1.400000e-07	-5.348491e-06	-1.325035e-09	-3.811874e+01	-8.552054e+01
1.500000e-07	-5.342820e-06	-1.398315e-09	-3.807833e+01	-8.552961e+01
1.600000e-07	-5.336899e-06	-1.237242e-09	-3.803613e+01	-8.558931e+01
1.700000e-07	-5.330735e-06	-1.155316e-09	-3.799220e+01	-8.570040e+01
1.800000e-07	-5.324083e-06	-1.303958e-09	-3.794479e+01	-8.586204e+01
1.900000e-07	-5.316889e-06	-1.385374e-09	-3.789352e+01	-8.607179e+01
2.000000e-07	-5.309455e-06	-1.279649e-09	-3.784054e+01	-8.632558e+01
2.100000e-07	-5.301954e-06	-1.255563e-09	-3.778707e+01	-8.661790e+01
2.200000e-07	-5.294200e-06	-1.378675e-09	-3.773181e+01	-8.694189e+01
2.300000e-07	-5.285945e-06	-1.389607e-09	-3.767298e+01	-8.728961e+01
2.400000e-07	-5.277357e-06	-1.304379e-09	-3.761177e+01	-8.765228e+01
2.500000e-07	-5.268278e-06	-1.373264e-09	-3.754707e+01	-8.802060e+01
2.600000e-07	-5.258304e-06	-1.479583e-09	-3.747598e+01	-8.838508e+01
2.700000e-07	-5.247646e-06	-1.404791e-09	-3.740002e+01	-8.873632e+01
2.800000e-07	-5.236620e-06	-1.352462e-09	-3.732144e+01	-8.906544e+01
2.900000e-07	-5.225251e-06	-1.443675e-09	-3.724041e+01	-8.936428e+01
3.000000e-07	-5.213473e-06	-1.433312e-09	-3.715647e+01	-8.962576e+01
3.100000e-07	-5.201259e-06	-1.321648e-09	-3.706942e+01	-8.984406e+01
3.200000e-07	-5.188678e-06	-1.361630e-09	-3.697976e+01	-9.001484e+01
3.300000e-07	-5.175695e-06	-1.457242e-09	-3.688723e+01	-9.013530e+01
3.400000e-07	-5.162271e-06	-1.398948e-09	-3.679156e+01	-9.020427e+01
3.500000e-07	-5.148494e-06	-1.359869e-09	-3.669336e+01	-9.022220e+01
3.600000e-07	-5.134304e-06	-1.426107e-09	-3.659223e+01	-9.019103e+01
3.700000e-07	-5.119685e-06	-1.416627e-09	-3.648804e+01	-9.011408e+01
3.800000e-07	-5.104630e-06	-1.345776e-09	-3.638074e+01	-8.999585e+01
3.900000e-07	-5.089033e-06	-1.363305e-09	-3.626958e+01	-8.984179e+01
4.000000e-07	-5.072904e-06	-1.384322e-09	-3.615463e+01	-8.965798e+01
4.100000e-07	-5.056328e-06	-1.341754e-09	-3.603649e+01	-8.945092e+01
4.200000e-07	-5.039427e-06	-1.357790e-09	-3.591604e+01	-8.922718e+01
4.300000e-07	-5.022140e-06	-1.402208e-09	-3.579284e+01	-8.899314e+01
4.400000e-07	-5.004652e-06	-1.368074e-09	-3.566820e+01	-8.875472e+01
4.500000e-07	-4.987017e-06	-1.342197e-09	-3.554251e+01	-8.851718e+01
4.600000e-07	-4.968971e-06	-1.367743e-09	-3.541390e+01	-8.828489e+01
4.700000e-07	-4.950461e-06	-1.361527e-09	-3.528198e+01	-8.806125e+01
4.800000e-07	-4.931581e-06	-1.329679e-09	-3.514742e+01	-8.784859e+01
4.900000e-07	-4.912381e-06	-1.330307e-09	-3.501059e+01	-8.764812e+01
5.000000e-07	-4.892894e-06	-1.332780e-09	-3.487170e+01	-8.746002e+01
5.100000e-07	-4.873152e-06	-1.333444e-09	-3.473100e+01	-8.728346e+01
5.200000e-07	-4.853165e-06	-1.342436e-09	-3.458855e+01	-8.711680e+01
5.300000e-07	-4.832958e-06	-1.331569e-09	-3.444454e+01	-8.695768e+01
5.400000e-07	-4.812441e-06	-1.321462e-09	-3.429831e+01	-8.680329e+01
5.500000e-07	-4.791492e-06	-1.338849e-09	-3.414901e+01	-8.665049e+01
5.600000e-07	-4.770204e-06	-1.338253e-09	-3.399729e+01	-8.649610e+01
5.700000e-07	-4.748693e-06	-1.315298e-09	-3.384398e+01	-8.633705e+01
5.800000e-07	-4.726809e-06	-1.309293e-09	-3.368801e+01	-8.617059e+01
5.900000e-07	-4.704552e-06	-1.308043e-09	-3.352939e+01	-8.599445e+01
6.000000e-07	-4.681910e-06	-1.303347e-09	-3.336801e+01	-8.580694e+01
6.100000e-07	-4.658950e-06	-1.309657e-09	-3.320438e+01	-8.560706e+01
6.200000e-07	-4.635727e-06	-1.305569e-09	-3.303887e+01	-8.539452e+01
6.300000e-07	-4.612272e-06	-1.297058e-09	-3.287170e+01	-8.516976e+01
6.400000e-07	-4.588636e-06	-1.316051e-09	-3.270325e+01	-8.493389e+01
6.500000e-07	-4.564744e-06	-1.322602e-09	-3.253297e+01	-8.468859e+01
6.600000e-07	-4.540628e-06	-1.296172e-09	-3.236109e+01	-8.443604e+01
6.700000e-07	-4.516183e-06	-1.283236e-09	-3.218687e+01	-8.417876e+01
6.800000e-07	-4.491318e-06	-1.292195e-09	-3.200966e+01	-8.391944e+01
6.900000e-07	-4.465986e-06	-1.289531e-09	-3.182912e+01	-8.366081e+01
7.000000e-07	-4.440228e-06	-1.280089e-09	-3.164555e+01	-8.340544e+01
7.100000e-07	-4.414001e-06	-1.277781e-09	-3.145863e+01	-8.315565e+01
7.200000e-07	-4.387100e-06	-1.286657e-09	-3.126690e+01	-8.291333e+01
7.300000e-07	-4.359705e-06	-1.297989e-09	-3.107166e+01	-8.267989e+01
7.400000e-07	-4.332088e-06	-1.295673e-09	-3.087483e+01	-8.245613e+01
7.500000e-07	-4.304277e-06	-1.280023e-09	-3.067662e+01	-8.224227e+01
7.600000e-07	-4.276303e-06	-1.274933e-09	-3.047725e+01	-8.203788e+01
7.700000e-07	-4.248197e-06	-1.278670e-09	-3.027694e+01	-8.184198e+01
7.800000e-07	-4.219869e-06	-1.273392e-09	-3.007504e+01	-8.165308e+01
7.900000e-07	-4.191262e-06	-1.261205e-09	-2.987116e+01	-8.146924e+01
8.000000e-07	-4.162328e-06	-1.258380e-09	-2.966495e+01	-8.128824e+01
8.100000e-07	-4.133087e-06	-1.262226e-09	-2.945655e+01	-8.110767e+01
8.200000e-07	-4.103563e-06	-1.265517e-09	-2.924613e+01	-8.092509e+01
8.300000e-07	-4.073749e-06	-1.259929e-09	-2.903365e+01	-8.073812e+01
8.400000e-07	-4.043590e-06	-1.249418e-09	-2.881870e+01	-8.054464e+01
8.500000e-07	-4.013184e-06	-1.248653e-09	-2.860200e+01	-8.034282e+01
8.600000e-07	-3.982608e-06	-1.250235e-09	-2.838409e+01	-8.013126e+01
8.700000e-07	-3.951757e-06	-1.242855e-09	-2.816421e+01	-7.990905e+01
8.800000e-07	-3.920573e-06	-1.229974e-09	-2.794196e+01	-7.967578e+01
8.900000e-07	-3.889109e-06	-1.225717e-09	-2.771771e+01	-7.943157e+01
9.000000e-07	-3.857539e-06	-1.227472e-09	-2.749271e+01	-7.917704e+01
9.100000e-07	-3.825776e-06	-1.226907e-09	-2.726634e+01	-7.891326e+01
9.200000e-07	-3.793832e-06	-1.221729e-09	-2.703867e+01	-7.864168e+01
9.300000e-07	-3.761748e-06	-1.220177e-09	-2.681001e+01	-7.836404e+01
9.400000e-07	-3.729373e-06	-1.223391e-09	-2.657928e+01	-7.808224e+01
9.500000e-07	-3.696549e-06	-1.220405e-09	-2.634534e+01	-7.779829e+01
9.600000e-07	-3.663385e-06	-1.210425e-09	-2.610898e+01	-7.751412e+01
9.700000e-07	-3.629820e-06	-1.201450e-09	-2.586976e+01	-7.723155e+01
9.800000e-07	-3.595737e-06	-1.198398e-09	-2.562685e+01	-7.695214e+01
9.900000e-07	-3.561337e-06	-1.197694e-09	-2.538168e+01	-7.667714e+01
1.000000e-06	-3.526637e-06	-1.192443e-09	-2.513437e+01	-7.640743e+01
1.010000e-06	-3.491553e-06	-1.187201e-09	-2.488433e+01	-7.614347e+01
1.020000e-06	-3.456148e-06	-1.185000e-09	-2.463200e+01	-7.588533e+01
1.030000e-06	-3.420542e-06	-1.182726e-09	-2.437823e+01	-7.563263e+01
1.040000e-06	-3.384792e-06	-1.175692e-09	-2.412344e+01	-7.538467e+01
1.050000e-06	-3.348910e-06	-1.166641e-09	-2.386771e+01	-7.514039e+01
1.060000e-06	-3.312892e-06	-1.160248e-09	-2.361101e+01	-7.489853e+01
1.070000e-06	-3.276754e-06	-1.157653e-09	-2.335346e+01	-7.465761e+01
1.080000e-06	-3.240378e-06	-1.152806e-09	-2.309420e+01	-7.441612e+01
1.090000e-06	-3.203747e-06	-1.145149e-09	-2.283313e+01	-7.417252e+01
1.100000e-06	-3.166918e-06	-1.138658e-09	-2.257066e+01	-7.392538e+01
1.110000e-06	-3.129795e-06	-1.133543e-09	-2.230608e+01	-7.367342e+01
1.120000e-06	-3.092462e-06	-1.127274e-09	-2.204001e+01	-7.341559e+01
1.130000e-06	-3.054963e-06	-1.118742e-09	-2.177275e+01	-7.315111e+01
1.140000e-06	-3.017224e-06	-1.114393e-09	-2.150378e+01	-7.287950e+01
1.150000e-06	-2.979304e-06	-1.115759e-09	-2.123352e+01	-7.260057e+01
1.160000e-06	-2.941166e-06	-1.117022e-09	-2.096172e+01	-7.231442e+01
1.170000e-06	-2.902820e-06	-1.112732e-09	-2.068843e+01	-7.202145e+01
1.180000e-06	-2.864295e-06	-1.104655e-09	-2.041386e+01	-7.172227e+01
1.190000e-06	-2.825504e-06	-1.097208e-09	-2.013740e+01	-7.141766e+01
1.200000e-06	-2.786511e-06	-1.092049e-09	-1.985949e+01	-7.110853e+01
1.210000e-06	-2.747330e-06	-1.087237e-09	-1.958024e+01	-7.079585e+01
1.220000e-06	-2.707924e-06	-1.083803e-09	-1.929940e+01	-7.048057e+01
1.230000e-06	-2.668368e-06	-1.081131e-09	-1.901749e+01	-7.016357e+01
1.240000e-06	-2.628720e-06	-1.078596e-09	-1.873491e+01	-6.984563e+01
1.250000e-06	-2.589025e-06	-1.074997e-09	-1.845201e+01	-6.952735e+01
1.260000e-06	-2.549212e-06	-1.068326e-09	-1.816826e+01	-6.920916e+01
1.270000e-06	-2.509239e-06	-1.059674e-09	-1.788337e+01	-6.889127e+01
1.280000e-06	-2.469173e-06	-1.053218e-09	-1.759782e+01	-6.857369e+01
1.290000e-06	-2.429050e-06	-1.047625e-09	-1.731186e+01	-6.825624e+01
1.300000e-06	-2.388776e-06	-1.040908e-09	-1.702483e+01	-6.793857e+01
1.310000e-06	-2.348232e-06	-1.032607e-09	-1.673587e+01	-6.762016e+01
1.320000e-06	-2.307452e-06	-1.027205e-09	-1.644523e+01	-6.730042e+01
1.330000e-06	-2.266434e-06	-1.025110e-09	-1.615289e+01	-6.697869e+01
1.340000e-06	-2.225170e-06	-1.024698e-09	-1.585881e+01	-6.665430e+01
1.350000e-06	-2.183746e-06	-1.022237e-09	-1.556358e+01	-6.632660e+01
1.360000e-06	-2.141954e-06	-1.017997e-09	-1.526573e+01	-6.599500e+01
1.370000e-06	-2.099818e-06	-1.012768e-09	-1.496542e+01	-6.565901e+01
1.380000e-06	-2.057474e-06	-1.007151e-09	-1.466363e+01	-6.531826e+01
1.390000e-06	-2.014829e-06	-1.003324e-09	-1.435970e+01	-6.497247e+01
1.400000e-06	-1.971951e-06	-9.992561e-10	-1.405411e+01	-6.462152e+01
1.410000e-06	-1.928806e-06	-9.950589e-10	-1.374662e+01	-6.426538e+01
1.420000e-06	-1.885405e-06	-9.920563e-10	-1.343730e+01	-6.390413e+01
1.430000e-06	-1.841963e-06	-9.891492e-10	-1.312769e+01	-6.353789e+01
1.440000e-06	-1.798520e-06	-9.858723e-10	-1.281807e+01	-6.316686e+01
1.450000e-06	-1.755013e-06	-9.804147e-10	-1.250799e+01	-6.279120e+01
1.460000e-06	-1.711478e-06	-9.735350e-10	-1.219772e+01	-6.241107e+01
1.470000e-06	-1.667835e-06	-9.687818e-10	-1.188667e+01	-6.202656e+01
1.480000e-06	-1.624025e-06	-9.642898e-10	-1.157444e+01	-6.163767e+01
1.490000e-06	-1.580097e-06	-9.613256e-10	-1.126137e+01	-6.124431e+01
1.500000e-06	-1.536100e-06	-9.581335e-10	-1.094780e+01	-6.084627e+01
1.510000e-06	-1.492077e-06	-9.541450e-10	-1.063405e+01	-6.044323e+01
1.520000e-06	-1.448009e-06	-9.452348e-10	-1.031997e+01	-6.003475e+01
1.530000e-06	-1.403852e-06	-9.321219e-10	-1.000527e+01	-5.962032e+01
1.540000e-06	-1.359658e-06	-9.201546e-10	-9.690297e+00	-5.919933e+01
1.550000e-06	-1.315387e-06	-9.121965e-10	-9.374777e+00	-5.877118e+01
1.560000e-06	-1.270994e-06	-9.056355e-10	-9.058384e+00	-5.833522e+01
1.570000e-06	-1.226555e-06	-9.015678e-10	-8.741667e+00	-5.789085e+01
1.580000e-06	-1.182058e-06	-8.987764e-10	-8.424539e+00	-5.743752e+01
1.590000e-06	-1.137568e-06	-8.936117e-10	-8.107455e+00	-5.697478e+01
1.600000e-06	-1.092988e-06	-8.851367e-10	-7.789732e+00	-5.650227e+01
1.610000e-06	-1.048263e-06	-8.718965e-10	-7.470978e+00	-5.601976e+01
1.620000e-06	-1.003446e-06	-8.587915e-10	-7.151568e+00	-5.552713e+01
1.630000e-06	-9.585630e-07	-8.476861e-10	-6.831687e+00	-5.502440e+01
1.640000e-06	-9.136130e-07	-8.379220e-10	-6.511328e+00	-5.451165e+01
1.650000e-06	-8.684945e-07	-8.298152e-10	-6.189768e+00	-5.398907e+01
1.660000e-06	-8.233061e-07	-8.233071e-10	-5.867710e+00	-5.345686e+01
1.670000e-06	-7.780913e-07	-8.200106e-10	-5.545464e+00	-5.291521e+01
1.680000e-06	-7.327573e-07	-8.167541e-10	-5.222368e+00	-5.236427e+01
1.690000e-06	-6.873614e-07	-8.078944e-10	-4.898831e+00	-5.180408e+01
1.700000e-06	-6.419461e-07	-7.945831e-10	-4.575155e+00	-5.123454e+01
1.710000e-06	-5.965151e-07	-7.822954e-10	-4.251369e+00	-5.065538e+01
1.720000e-06	-5.510623e-07	-7.710258e-10	-3.927426e+00	-5.006610e+01
1.730000e-06	-5.055326e-07	-7.584170e-10	-3.602935e+00	-4.946597e+01
1.740000e-06	-4.599508e-07	-7.460597e-10	-3.278073e+00	-4.885401e+01
1.750000e-06	-4.143392e-07	-7.365362e-10	-2.952999e+00	-4.822900e+01
1.760000e-06	-3.686856e-07	-7.278551e-10	-2.627626e+00	-4.758948e+01
1.770000e-06	-3.230040e-07	-7.167997e-10	-2.302053e+00	-4.693382e+01
1.780000e-06	-2.773215e-07	-7.034673e-10	-1.976473e+00	-4.626021e+01
1.790000e-06	-2.315907e-07	-6.904434e-10	-1.650549e+00	-4.556674e+01
1.800000e-06	-1.858603e-07	-6.784086e-10	-1.324628e+00	-4.485144e+01
1.810000e-06	-1.401982e-07	-6.652291e-10	-9.991937e-01	-4.411236e+01
1.820000e-06	-9.454841e-08	-6.510416e-10	-6.738474e-01	-4.334765e+01
1.830000e-06	-4.889381e-08	-6.372911e-10	-3.484666e-01	-4.255557e+01
1.840000e-06	-3.237141e-09	-6.234565e-10	-2.307113e-02	-4.173459e+01
1.850000e-06	4.249242e-08	-6.111363e-10	3.028439e-01	-4.088341e+01
1.860000e-06	8.832614e-08	-6.002417e-10	6.295012e-01	-4.000104e+01
1.870000e-06	1.340995e-07	-5.900241e-10	9.557284e-01	-3.908676e+01
1.880000e-06	1.798520e-07	-5.796482e-10	1.281807e+00	-3.814020e+01
1.890000e-06	2.255449e-07	-5.650098e-10	1.607461e+00	-3.716127e+01
1.900000e-06	2.711728e-07	-5.457346e-10	1.932651e+00	-3.615019e+01
1.910000e-06	3.167871e-07	-5.248780e-10	2.257744e+00	-3.510745e+01
1.920000e-06	3.623194e-07	-5.045080e-10	2.582253e+00	-3.403372e+01
1.930000e-06	4.078379e-07	-4.837413e-10	2.906664e+00	-3.292988e+01
1.940000e-06	4.533424e-07	-4.634637e-10	3.230975e+00	-3.179689e+01
1.950000e-06	4.988319e-07	-4.470319e-10	3.555180e+00	-3.063575e+01
1.960000e-06	5.443234e-07	-4.364341e-10	3.879398e+00	-2.944746e+01
1.970000e-06	5.898325e-07	-4.239256e-10	4.203742e+00	-2.823294e+01
1.980000e-06	6.352080e-07	-4.064351e-10	4.527133e+00	-2.699299e+01
1.990000e-06	6.805007e-07	-3.875173e-10	4.849934e+00	-2.572826e+01
2.000000e-06	7.257901e-07	-3.670115e-10	5.172712e+00	-2.443920e+01
2.010000e-06	7.710093e-07	-3.429820e-10	5.494990e+00	-2.312605e+01
2.020000e-06	8.160842e-07	-3.174171e-10	5.816239e+00	-2.178887e+01
2.030000e-06	8.610565e-07	-2.957399e-10	6.136758e+00	-2.042750e+01
2.040000e-06	9.060802e-07	-2.779183e-10	6.457642e+00	-1.904165e+01
2.050000e-06	9.511274e-07	-2.636531e-10	6.778694e+00	-1.763087e+01
2.060000e-06	9.960741e-07	-2.482852e-10	7.099029e+00	-1.619463e+01
2.070000e-06	1.040859e-06	-2.263559e-10	7.418211e+00	-1.473239e+01
2.080000e-06	1.085582e-06	-1.997752e-10	7.736954e+00	-1.324359e+01
2.090000e-06	1.130224e-06	-1.728732e-10	8.055116e+00	-1.172778e+01
2.100000e-06	1.174797e-06	-1.468222e-10	8.372787e+00	-1.018463e+01
2.110000e-06	1.219327e-06	-1.206037e-10	8.690152e+00	-8.613984e+00
2.120000e-06	1.263685e-06	-9.684284e-11	9.006294e+00	-7.015898e+00
2.130000e-06	1.307941e-06	-7.631738e-11	9.321704e+00	-5.390677e+00
2.140000e-06	1.352162e-06	-5.670505e-11	9.636868e+00	-3.738888e+00
2.150000e-06	1.396309e-06	-3.407987e-11	9.951504e+00	-2.061372e+00
2.160000e-06	1.440379e-06	-8.841388e-12	1.026560e+01	-3.592381e-01
2.170000e-06	1.484340e-06	1.755208e-11	1.057890e+01	1.366150e+00
2.180000e-06	1.528244e-06	4.528691e-11	1.089181e+01	3.113193e+00
2.190000e-06	1.572133e-06	7.347980e-11	1.120461e+01	4.880092e+00
2.200000e-06	1.615983e-06	1.023996e-10	1.151712e+01	6.664876e+00
2.210000e-06	1.659796e-06	1.304332e-10	1.182938e+01	8.465446e+00
2.220000e-06	1.703538e-06	1.573010e-10	1.214113e+01	1.027961e+01
2.230000e-06	1.747148e-06	1.855038e-10	1.245194e+01	1.210512e+01
2.240000e-06	1.790727e-06	2.171784e-10	1.276253e+01	1.393969e+01
2.250000e-06	1.834264e-06	2.475933e-10	1.307281e+01	1.578108e+01
2.260000e-06	1.877669e-06	2.740962e-10	1.338217e+01	1.762701e+01
2.270000e-06	1.920895e-06	3.004110e-10	1.369023e+01	1.947530e+01
2.280000e-06	1.963913e-06	3.279723e-10	1.399682e+01	2.132378e+01
2.290000e-06	2.006651e-06	3.560785e-10	1.430142e+01	2.317033e+01
2.300000e-06	2.049167e-06	3.821916e-10	1.460443e+01	2.501287e+01
2.310000e-06	2.091496e-06	4.090563e-10	1.490611e+01	2.684934e+01
2.320000e-06	2.133595e-06	4.406760e-10	1.520615e+01	2.867771e+01
2.330000e-06	2.175438e-06	4.715972e-10	1.550437e+01	3.049594e+01
2.340000e-06	2.216940e-06	4.964685e-10	1.580015e+01	3.230198e+01
2.350000e-06	2.258087e-06	5.200551e-10	1.609341e+01	3.409376e+01
2.360000e-06	2.298942e-06	5.476521e-10	1.638458e+01	3.586919e+01
2.370000e-06	2.339583e-06	5.790264e-10	1.667423e+01	3.762615e+01
2.380000e-06	2.380015e-06	6.072596e-10	1.696239e+01	3.936250e+01
2.390000e-06	2.420294e-06	6.307632e-10	1.724946e+01	4.107611e+01
2.400000e-06	2.460454e-06	6.555676e-10	1.753568e+01	4.276484e+01
2.410000e-06	2.500501e-06	6.809143e-10	1.782109e+01	4.442662e+01
2.420000e-06	2.540464e-06	7.080168e-10	1.810591e+01	4.605944e+01
2.430000e-06	2.580362e-06	7.377038e-10	1.839026e+01	4.766141e+01
2.440000e-06	2.620154e-06	7.655226e-10	1.867386e+01	4.923077e+01
2.450000e-06	2.659823e-06	7.908154e-10	1.895658e+01	5.076595e+01
2.460000e-06	2.699377e-06	8.141425e-10	1.923848e+01	5.226558e+01
2.470000e-06	2.738773e-06	8.319169e-10	1.951926e+01	5.372854e+01
2.480000e-06	2.777925e-06	8.473590e-10	1.979830e+01	5.515394e+01
2.490000e-06	2.816874e-06	8.647850e-10	2.007589e+01	5.654118e+01
2.500000e-06	2.855574e-06	8.863866e-10	2.035170e+01	5.788990e+01
2.510000e-06	2.894014e-06	9.127568e-10	2.062567e+01	5.920003e+01
2.520000e-06	2.932271e-06	9.411405e-10	2.089832e+01	6.047171e+01
2.530000e-06	2.970305e-06	9.690776e-10	2.116939e+01	6.170533e+01
2.540000e-06	3.008167e-06	9.935803e-10	2.143923e+01	6.290145e+01
2.550000e-06	3.045910e-06	1.009812e-09	2.170823e+01	6.406075e+01
2.560000e-06	3.083509e-06	1.017396e-09	2.197620e+01	6.518407e+01
2.570000e-06	3.120859e-06	1.024382e-09	2.224239e+01	6.627225e+01
2.580000e-06	3.157906e-06	1.035498e-09	2.250642e+01	6.732620e+01
2.590000e-06	3.194666e-06	1.053035e-09	2.276841e+01	6.834678e+01
2.600000e-06	3.231220e-06	1.077862e-09	2.302893e+01	6.933479e+01
2.610000e-06	3.267605e-06	1.103712e-09	2.328825e+01	7.029098e+01
2.620000e-06	3.303770e-06	1.123259e-09	2.354600e+01	7.121598e+01
2.630000e-06	3.339771e-06	1.134574e-09	2.380257e+01	7.211030e+01
2.640000e-06	3.375640e-06	1.140092e-09	2.405822e+01	7.297436e+01
2.650000e-06	3.411370e-06	1.142740e-09	2.431287e+01	7.380847e+01
2.660000e-06	3.446905e-06	1.144248e-09	2.456612e+01	7.461286e+01
2.670000e-06	3.482277e-06	1.150099e-09	2.481822e+01	7.538770e+01
2.680000e-06	3.517478e-06	1.161970e-09	2.506910e+01	7.613313e+01
2.690000e-06	3.552395e-06	1.178252e-09	2.531795e+01	7.684928e+01
2.700000e-06	3.587007e-06	1.194825e-09	2.556463e+01	7.753634e+01
2.710000e-06	3.621127e-06	1.206567e-09	2.580780e+01	7.819453e+01
2.720000e-06	3.654596e-06	1.213798e-09	2.604634e+01	7.882417e+01
2.730000e-06	3.687653e-06	1.220712e-09	2.628193e+01	7.942570e+01
2.740000e-06	3.720379e-06	1.225978e-09	2.651518e+01	7.999967e+01
2.750000e-06	3.752745e-06	1.228251e-09	2.674585e+01	8.054677e+01
2.760000e-06	3.784864e-06	1.231906e-09	2.697476e+01	8.106780e+01
2.770000e-06	3.816764e-06	1.239591e-09	2.720211e+01	8.156370e+01
2.780000e-06	3.848568e-06	1.250370e-09	2.742878e+01	8.203549e+01
2.790000e-06	3.880257e-06	1.258688e-09	2.765463e+01	8.248427e+01
2.800000e-06	3.911745e-06	1.260890e-09	2.787904e+01	8.291118e+01
2.810000e-06	3.942957e-06	1.261882e-09	2.810149e+01	8.331738e+01
2.820000e-06	3.973843e-06	1.263740e-09	2.832162e+01	8.370402e+01
2.830000e-06	4.004478e-06	1.267353e-09	2.853995e+01	8.407218e+01
2.840000e-06	4.034833e-06	1.272629e-09	2.875629e+01	8.442288e+01
2.850000e-06	4.064851e-06	1.278083e-09	2.897023e+01	8.475704e+01
2.860000e-06	4.094606e-06	1.284630e-09	2.918229e+01	8.507547e+01
2.870000e-06	4.124169e-06	1.289074e-09	2.939299e+01	8.537885e+01
2.880000e-06	4.153483e-06	1.288231e-09	2.960191e+01	8.566777e+01
2.890000e-06	4.182466e-06	1.285477e-09	2.980848e+01	8.594268e+01
2.900000e-06	4.211082e-06	1.286052e-09	3.001242e+01	8.620397e+01
