# Temperatura_=_17.4
# Concentracion g/m^3_=_4090.0
# C_Vs_to_Am_M_A/Vsm_=_65563218390.804596
# pendiente_HvsI_1/m_=_3716.3
# ordenada_HvsI_A/m_=_1297.0
# frecuencia_Hz_=_135085.7145655932

Tiempo_(s)	Campo_(V.s)	Magnetizacion_(V.s)	Campo_(kA/m)	Magnetizacion_(A/m)
0.000000e+00	-5.375959e-06	-1.211373e-09	-3.838687e+01	-8.302534e+01
1.000000e-08	-5.376158e-06	-1.207283e-09	-3.838829e+01	-8.286829e+01
2.000000e-08	-5.376085e-06	-1.202284e-09	-3.838776e+01	-8.269489e+01
3.000000e-08	-5.375641e-06	-1.197915e-09	-3.838459e+01	-8.250692e+01
4.000000e-08	-5.374780e-06	-1.197581e-09	-3.837844e+01	-8.230711e+01
5.000000e-08	-5.373418e-06	-1.201092e-09	-3.836872e+01	-8.209914e+01
6.000000e-08	-5.371392e-06	-1.204598e-09	-3.835426e+01	-8.188755e+01
7.000000e-08	-5.368698e-06	-1.221512e-09	-3.833502e+01	-8.167760e+01
8.000000e-08	-5.365492e-06	-1.238833e-09	-3.831213e+01	-8.147513e+01
9.000000e-08	-5.361832e-06	-1.194703e-09	-3.828599e+01	-8.128630e+01
1.000000e-07	-5.357732e-06	-1.128779e-09	-3.825671e+01	-8.111739e+01
1.100000e-07	-5.353484e-06	-1.167713e-09	-3.822638e+01	-8.097455e+01
1.200000e-07	-5.349202e-06	-1.293324e-09	-3.819581e+01	-8.086351e+01
1.300000e-07	-5.344525e-06	-1.214529e-09	-3.816241e+01	-8.078935e+01
1.400000e-07	-5.339333e-06	-1.128270e-09	-3.812534e+01	-8.075624e+01
1.500000e-07	-5.333881e-06	-1.173359e-09	-3.808640e+01	-8.076727e+01
1.600000e-07	-5.328134e-06	-1.322272e-09	-3.804537e+01	-8.082422e+01
1.700000e-07	-5.321746e-06	-1.223769e-09	-3.799976e+01	-8.092750e+01
1.800000e-07	-5.314884e-06	-1.072120e-09	-3.795076e+01	-8.107605e+01
1.900000e-07	-5.307785e-06	-1.170750e-09	-3.790007e+01	-8.126734e+01
2.000000e-07	-5.300468e-06	-1.306255e-09	-3.784782e+01	-8.149743e+01
2.100000e-07	-5.292898e-06	-1.256640e-09	-3.779377e+01	-8.176106e+01
2.200000e-07	-5.285087e-06	-1.167262e-09	-3.773800e+01	-8.205185e+01
2.300000e-07	-5.277130e-06	-1.317795e-09	-3.768118e+01	-8.236249e+01
2.400000e-07	-5.268752e-06	-1.380230e-09	-3.762136e+01	-8.268502e+01
2.500000e-07	-5.259731e-06	-1.305938e-09	-3.755694e+01	-8.301106e+01
2.600000e-07	-5.250090e-06	-1.273023e-09	-3.748810e+01	-8.333219e+01
2.700000e-07	-5.239897e-06	-1.404995e-09	-3.741532e+01	-8.364018e+01
2.800000e-07	-5.229027e-06	-1.356423e-09	-3.733770e+01	-8.392729e+01
2.900000e-07	-5.217656e-06	-1.242073e-09	-3.725650e+01	-8.418657e+01
3.000000e-07	-5.205984e-06	-1.304316e-09	-3.717316e+01	-8.441207e+01
3.100000e-07	-5.193894e-06	-1.422341e-09	-3.708683e+01	-8.459903e+01
3.200000e-07	-5.181312e-06	-1.320518e-09	-3.699699e+01	-8.474400e+01
3.300000e-07	-5.168401e-06	-1.260275e-09	-3.690480e+01	-8.484494e+01
3.400000e-07	-5.155180e-06	-1.358549e-09	-3.681040e+01	-8.490124e+01
3.500000e-07	-5.141604e-06	-1.391431e-09	-3.671346e+01	-8.491365e+01
3.600000e-07	-5.127718e-06	-1.306615e-09	-3.661431e+01	-8.488420e+01
3.700000e-07	-5.113322e-06	-1.315736e-09	-3.651151e+01	-8.481606e+01
3.800000e-07	-5.098218e-06	-1.331396e-09	-3.640366e+01	-8.471333e+01
3.900000e-07	-5.082522e-06	-1.297739e-09	-3.629159e+01	-8.458082e+01
4.000000e-07	-5.066430e-06	-1.312846e-09	-3.617668e+01	-8.442383e+01
4.100000e-07	-5.050003e-06	-1.346179e-09	-3.605939e+01	-8.424787e+01
4.200000e-07	-5.033170e-06	-1.295674e-09	-3.593919e+01	-8.405841e+01
4.300000e-07	-5.015983e-06	-1.284270e-09	-3.581647e+01	-8.386068e+01
4.400000e-07	-4.998634e-06	-1.364387e-09	-3.569259e+01	-8.365939e+01
4.500000e-07	-4.980923e-06	-1.343444e-09	-3.556612e+01	-8.345863e+01
4.600000e-07	-4.962835e-06	-1.273635e-09	-3.543697e+01	-8.326168e+01
4.700000e-07	-4.944460e-06	-1.276585e-09	-3.530576e+01	-8.307096e+01
4.800000e-07	-4.925667e-06	-1.325066e-09	-3.517157e+01	-8.288795e+01
4.900000e-07	-4.906419e-06	-1.296713e-09	-3.503413e+01	-8.271323e+01
5.000000e-07	-4.886876e-06	-1.278022e-09	-3.489458e+01	-8.254649e+01
5.100000e-07	-4.867121e-06	-1.264812e-09	-3.475352e+01	-8.238670e+01
5.200000e-07	-4.847165e-06	-1.288428e-09	-3.461103e+01	-8.223214e+01
5.300000e-07	-4.827004e-06	-1.307257e-09	-3.446707e+01	-8.208064e+01
5.400000e-07	-4.806543e-06	-1.305528e-09	-3.432097e+01	-8.192967e+01
5.500000e-07	-4.785732e-06	-1.259170e-09	-3.417236e+01	-8.177660e+01
5.600000e-07	-4.764620e-06	-1.277254e-09	-3.402161e+01	-8.161880e+01
5.700000e-07	-4.743192e-06	-1.297356e-09	-3.386862e+01	-8.145384e+01
5.800000e-07	-4.721401e-06	-1.273273e-09	-3.371301e+01	-8.127964e+01
5.900000e-07	-4.699317e-06	-1.234122e-09	-3.355532e+01	-8.109455e+01
6.000000e-07	-4.676897e-06	-1.249382e-09	-3.339523e+01	-8.089747e+01
6.100000e-07	-4.654012e-06	-1.264957e-09	-3.323183e+01	-8.068788e+01
6.200000e-07	-4.630804e-06	-1.276641e-09	-3.306611e+01	-8.046584e+01
6.300000e-07	-4.607328e-06	-1.264557e-09	-3.289848e+01	-8.023201e+01
6.400000e-07	-4.583535e-06	-1.252987e-09	-3.272859e+01	-7.998756e+01
6.500000e-07	-4.559553e-06	-1.261952e-09	-3.255734e+01	-7.973410e+01
6.600000e-07	-4.535424e-06	-1.276005e-09	-3.238505e+01	-7.947359e+01
6.700000e-07	-4.511038e-06	-1.245631e-09	-3.221093e+01	-7.920821e+01
6.800000e-07	-4.486281e-06	-1.212220e-09	-3.203415e+01	-7.894023e+01
6.900000e-07	-4.461030e-06	-1.221553e-09	-3.185384e+01	-7.867189e+01
7.000000e-07	-4.435184e-06	-1.239489e-09	-3.166929e+01	-7.840528e+01
7.100000e-07	-4.408900e-06	-1.235139e-09	-3.148161e+01	-7.814226e+01
7.200000e-07	-4.382242e-06	-1.222681e-09	-3.129126e+01	-7.788432e+01
7.300000e-07	-4.355154e-06	-1.228503e-09	-3.109784e+01	-7.763257e+01
7.400000e-07	-4.327700e-06	-1.239286e-09	-3.090180e+01	-7.738768e+01
7.500000e-07	-4.299992e-06	-1.240454e-09	-3.070396e+01	-7.714984e+01
7.600000e-07	-4.272152e-06	-1.211589e-09	-3.050516e+01	-7.691883e+01
7.700000e-07	-4.244100e-06	-1.196068e-09	-3.030486e+01	-7.669401e+01
7.800000e-07	-4.215842e-06	-1.197016e-09	-3.010308e+01	-7.647442e+01
7.900000e-07	-4.187330e-06	-1.201690e-09	-2.989949e+01	-7.625880e+01
8.000000e-07	-4.158387e-06	-1.186659e-09	-2.969283e+01	-7.604574e+01
8.100000e-07	-4.129159e-06	-1.184866e-09	-2.948413e+01	-7.583373e+01
8.200000e-07	-4.099685e-06	-1.192118e-09	-2.927367e+01	-7.562125e+01
8.300000e-07	-4.069904e-06	-1.206114e-09	-2.906102e+01	-7.540687e+01
8.400000e-07	-4.039869e-06	-1.197208e-09	-2.884656e+01	-7.518935e+01
8.500000e-07	-4.009563e-06	-1.181906e-09	-2.863015e+01	-7.496764e+01
8.600000e-07	-3.978937e-06	-1.170273e-09	-2.841147e+01	-7.474099e+01
8.700000e-07	-3.948040e-06	-1.178152e-09	-2.819085e+01	-7.450894e+01
8.800000e-07	-3.916963e-06	-1.174516e-09	-2.796895e+01	-7.427133e+01
8.900000e-07	-3.885550e-06	-1.163262e-09	-2.774465e+01	-7.402829e+01
9.000000e-07	-3.853864e-06	-1.153729e-09	-2.751840e+01	-7.378021e+01
9.100000e-07	-3.822132e-06	-1.161602e-09	-2.729181e+01	-7.352773e+01
9.200000e-07	-3.790289e-06	-1.164025e-09	-2.706444e+01	-7.327161e+01
9.300000e-07	-3.758194e-06	-1.157468e-09	-2.683526e+01	-7.301275e+01
9.400000e-07	-3.725880e-06	-1.150235e-09	-2.660453e+01	-7.275208e+01
9.500000e-07	-3.693291e-06	-1.155313e-09	-2.637182e+01	-7.249050e+01
9.600000e-07	-3.660294e-06	-1.162438e-09	-2.613622e+01	-7.222885e+01
9.700000e-07	-3.626948e-06	-1.153329e-09	-2.589811e+01	-7.196782e+01
9.800000e-07	-3.593118e-06	-1.136124e-09	-2.565654e+01	-7.170795e+01
9.900000e-07	-3.558782e-06	-1.127109e-09	-2.541137e+01	-7.144960e+01
1.000000e-06	-3.524103e-06	-1.127490e-09	-2.516375e+01	-7.119292e+01
1.010000e-06	-3.489122e-06	-1.127309e-09	-2.491397e+01	-7.093786e+01
1.020000e-06	-3.453904e-06	-1.124207e-09	-2.466249e+01	-7.068422e+01
1.030000e-06	-3.418479e-06	-1.124363e-09	-2.440954e+01	-7.043161e+01
1.040000e-06	-3.382812e-06	-1.129451e-09	-2.415486e+01	-7.017956e+01
1.050000e-06	-3.347001e-06	-1.126313e-09	-2.389916e+01	-6.992749e+01
1.060000e-06	-3.311085e-06	-1.111939e-09	-2.364270e+01	-6.967481e+01
1.070000e-06	-3.274974e-06	-1.091071e-09	-2.338484e+01	-6.942093e+01
1.080000e-06	-3.238663e-06	-1.082986e-09	-2.312557e+01	-6.916530e+01
1.090000e-06	-3.202063e-06	-1.080706e-09	-2.286423e+01	-6.890745e+01
1.100000e-06	-3.165187e-06	-1.081342e-09	-2.260092e+01	-6.864700e+01
1.110000e-06	-3.128116e-06	-1.079138e-09	-2.233621e+01	-6.838367e+01
1.120000e-06	-3.090801e-06	-1.083262e-09	-2.206976e+01	-6.811732e+01
1.130000e-06	-3.053309e-06	-1.084563e-09	-2.180206e+01	-6.784788e+01
1.140000e-06	-3.015645e-06	-1.081436e-09	-2.153312e+01	-6.757538e+01
1.150000e-06	-2.977789e-06	-1.067435e-09	-2.126280e+01	-6.729991e+01
1.160000e-06	-2.939781e-06	-1.054487e-09	-2.099141e+01	-6.702158e+01
1.170000e-06	-2.901541e-06	-1.046664e-09	-2.071836e+01	-6.674053e+01
1.180000e-06	-2.863029e-06	-1.043188e-09	-2.044337e+01	-6.645685e+01
1.190000e-06	-2.824286e-06	-1.036264e-09	-2.016672e+01	-6.617056e+01
1.200000e-06	-2.785222e-06	-1.034037e-09	-1.988779e+01	-6.588164e+01
1.210000e-06	-2.746028e-06	-1.037079e-09	-1.960792e+01	-6.558996e+01
1.220000e-06	-2.706736e-06	-1.040444e-09	-1.932737e+01	-6.529528e+01
1.230000e-06	-2.667210e-06	-1.035097e-09	-1.904513e+01	-6.499730e+01
1.240000e-06	-2.627593e-06	-1.024217e-09	-1.876225e+01	-6.469563e+01
1.250000e-06	-2.587944e-06	-1.012960e-09	-1.847913e+01	-6.438983e+01
1.260000e-06	-2.548220e-06	-1.004601e-09	-1.819548e+01	-6.407945e+01
1.270000e-06	-2.508347e-06	-9.963893e-10	-1.791077e+01	-6.376404e+01
1.280000e-06	-2.468371e-06	-9.900327e-10	-1.762532e+01	-6.344325e+01
1.290000e-06	-2.428294e-06	-9.885257e-10	-1.733915e+01	-6.311679e+01
1.300000e-06	-2.388094e-06	-9.876281e-10	-1.705211e+01	-6.278453e+01
1.310000e-06	-2.347785e-06	-9.830584e-10	-1.676428e+01	-6.244648e+01
1.320000e-06	-2.307239e-06	-9.760082e-10	-1.647476e+01	-6.210286e+01
1.330000e-06	-2.266382e-06	-9.696386e-10	-1.618303e+01	-6.175406e+01
1.340000e-06	-2.225277e-06	-9.649297e-10	-1.588952e+01	-6.140067e+01
1.350000e-06	-2.183881e-06	-9.608608e-10	-1.559394e+01	-6.104347e+01
1.360000e-06	-2.142285e-06	-9.540059e-10	-1.529692e+01	-6.068334e+01
1.370000e-06	-2.100501e-06	-9.492619e-10	-1.499856e+01	-6.032129e+01
1.380000e-06	-2.058281e-06	-9.446391e-10	-1.469709e+01	-5.995836e+01
1.390000e-06	-2.015779e-06	-9.379958e-10	-1.439361e+01	-5.959559e+01
1.400000e-06	-1.973096e-06	-9.285365e-10	-1.408883e+01	-5.923392e+01
1.410000e-06	-1.930167e-06	-9.215690e-10	-1.378230e+01	-5.887414e+01
1.420000e-06	-1.886959e-06	-9.190477e-10	-1.347377e+01	-5.851686e+01
1.430000e-06	-1.843511e-06	-9.214240e-10	-1.316353e+01	-5.816241e+01
1.440000e-06	-1.800087e-06	-9.196297e-10	-1.285347e+01	-5.781080e+01
1.450000e-06	-1.756582e-06	-9.116318e-10	-1.254282e+01	-5.746173e+01
1.460000e-06	-1.712884e-06	-9.019505e-10	-1.223079e+01	-5.711453e+01
1.470000e-06	-1.669112e-06	-8.957390e-10	-1.191824e+01	-5.676822e+01
1.480000e-06	-1.625290e-06	-8.870832e-10	-1.160533e+01	-5.642145e+01
1.490000e-06	-1.581411e-06	-8.812973e-10	-1.129201e+01	-5.607263e+01
1.500000e-06	-1.537459e-06	-8.804010e-10	-1.097818e+01	-5.571993e+01
1.510000e-06	-1.493386e-06	-8.820009e-10	-1.066348e+01	-5.536138e+01
1.520000e-06	-1.449266e-06	-8.785992e-10	-1.034844e+01	-5.499491e+01
1.530000e-06	-1.405175e-06	-8.697956e-10	-1.003361e+01	-5.461850e+01
1.540000e-06	-1.361050e-06	-8.591649e-10	-9.718536e+00	-5.423020e+01
1.550000e-06	-1.316889e-06	-8.505060e-10	-9.403203e+00	-5.382826e+01
1.560000e-06	-1.272751e-06	-8.408571e-10	-9.088042e+00	-5.341118e+01
1.570000e-06	-1.228493e-06	-8.339347e-10	-8.772018e+00	-5.297779e+01
1.580000e-06	-1.184056e-06	-8.319924e-10	-8.454717e+00	-5.252728e+01
1.590000e-06	-1.139588e-06	-8.318318e-10	-8.137195e+00	-5.205924e+01
1.600000e-06	-1.095024e-06	-8.277398e-10	-7.818982e+00	-5.157365e+01
1.610000e-06	-1.050290e-06	-8.175262e-10	-7.499560e+00	-5.107089e+01
1.620000e-06	-1.005488e-06	-8.041794e-10	-7.179657e+00	-5.055169e+01
1.630000e-06	-9.607165e-07	-7.933593e-10	-6.859966e+00	-5.001707e+01
1.640000e-06	-9.157927e-07	-7.831928e-10	-6.539189e+00	-4.946828e+01
1.650000e-06	-8.706422e-07	-7.711753e-10	-6.216793e+00	-4.890670e+01
1.660000e-06	-8.254994e-07	-7.594104e-10	-5.894453e+00	-4.833376e+01
1.670000e-06	-7.803400e-07	-7.534400e-10	-5.571993e+00	-4.775084e+01
1.680000e-06	-7.350452e-07	-7.520239e-10	-5.248567e+00	-4.715917e+01
1.690000e-06	-6.897090e-07	-7.462088e-10	-4.924845e+00	-4.655974e+01
1.700000e-06	-6.443184e-07	-7.381922e-10	-4.600735e+00	-4.595326e+01
1.710000e-06	-5.989392e-07	-7.270190e-10	-4.276706e+00	-4.534002e+01
1.720000e-06	-5.536170e-07	-7.150577e-10	-3.953085e+00	-4.471994e+01
1.730000e-06	-5.082553e-07	-6.989172e-10	-3.629181e+00	-4.409247e+01
1.740000e-06	-4.628683e-07	-6.822191e-10	-3.305096e+00	-4.345665e+01
1.750000e-06	-4.174170e-07	-6.697480e-10	-2.980552e+00	-4.281110e+01
1.760000e-06	-3.718433e-07	-6.627795e-10	-2.655136e+00	-4.215407e+01
1.770000e-06	-3.262564e-07	-6.560321e-10	-2.329624e+00	-4.148351e+01
1.780000e-06	-2.807306e-07	-6.492304e-10	-2.004548e+00	-4.079713e+01
1.790000e-06	-2.351515e-07	-6.388120e-10	-1.679092e+00	-4.009252e+01
1.800000e-06	-1.895299e-07	-6.249926e-10	-1.353332e+00	-3.936721e+01
1.810000e-06	-1.439319e-07	-6.039767e-10	-1.027741e+00	-3.861876e+01
1.820000e-06	-9.830773e-08	-5.829197e-10	-7.019632e-01	-3.784489e+01
1.830000e-06	-5.268755e-08	-5.665894e-10	-3.762138e-01	-3.704354e+01
1.840000e-06	-7.096559e-09	-5.549624e-10	-5.067276e-02	-3.621290e+01
1.850000e-06	3.845847e-08	-5.459252e-10	2.746115e-01	-3.535152e+01
1.860000e-06	8.405845e-08	-5.382665e-10	6.002167e-01	-3.445832e+01
1.870000e-06	1.296758e-07	-5.311284e-10	9.259461e-01	-3.353260e+01
1.880000e-06	1.752554e-07	-5.212006e-10	1.251406e+00	-3.257401e+01
1.890000e-06	2.207822e-07	-5.023260e-10	1.576488e+00	-3.158260e+01
1.900000e-06	2.662789e-07	-4.754837e-10	1.901356e+00	-3.055867e+01
1.910000e-06	3.118241e-07	-4.507579e-10	2.226570e+00	-2.950282e+01
1.920000e-06	3.573991e-07	-4.323657e-10	2.551997e+00	-2.841580e+01
1.930000e-06	4.030465e-07	-4.166487e-10	2.877940e+00	-2.729849e+01
1.940000e-06	4.486575e-07	-3.991800e-10	3.203625e+00	-2.615183e+01
1.950000e-06	4.941209e-07	-3.837034e-10	3.528255e+00	-2.497671e+01
1.960000e-06	5.395561e-07	-3.703478e-10	3.852683e+00	-2.377395e+01
1.970000e-06	5.849390e-07	-3.544133e-10	4.176739e+00	-2.254424e+01
1.980000e-06	6.301691e-07	-3.329460e-10	4.499703e+00	-2.128808e+01
1.990000e-06	6.754477e-07	-3.095582e-10	4.823013e+00	-2.000581e+01
2.000000e-06	7.207387e-07	-2.883471e-10	5.146412e+00	-1.869756e+01
2.010000e-06	7.659438e-07	-2.706041e-10	5.469197e+00	-1.736329e+01
2.020000e-06	8.110919e-07	-2.491401e-10	5.791576e+00	-1.600283e+01
2.030000e-06	8.561378e-07	-2.233168e-10	6.113224e+00	-1.461587e+01
2.040000e-06	9.011005e-07	-1.987712e-10	6.434279e+00	-1.320211e+01
2.050000e-06	9.459343e-07	-1.795684e-10	6.754414e+00	-1.176120e+01
2.060000e-06	9.907256e-07	-1.626759e-10	7.074245e+00	-1.029293e+01
2.070000e-06	1.035462e-06	-1.420735e-10	7.393685e+00	-8.797169e+00
2.080000e-06	1.080118e-06	-1.168669e-10	7.712549e+00	-7.274030e+00
2.090000e-06	1.124698e-06	-9.224837e-11	8.030873e+00	-5.723852e+00
2.100000e-06	1.169145e-06	-6.640646e-11	8.348240e+00	-4.147261e+00
2.110000e-06	1.213514e-06	-3.887891e-11	8.665057e+00	-2.545188e+00
2.120000e-06	1.257723e-06	-1.037553e-11	8.980732e+00	-9.188809e-01
2.130000e-06	1.301829e-06	1.467455e-11	9.295665e+00	7.301093e-01
2.140000e-06	1.345952e-06	3.369765e-11	9.610726e+00	2.399947e+00
2.150000e-06	1.390051e-06	5.217886e-11	9.925617e+00	4.088553e+00
2.160000e-06	1.434132e-06	7.336816e-11	1.024037e+01	5.793647e+00
2.170000e-06	1.478151e-06	9.664734e-11	1.055469e+01	7.512811e+00
2.180000e-06	1.522095e-06	1.225913e-10	1.086847e+01	9.243546e+00
2.190000e-06	1.565982e-06	1.514626e-10	1.118184e+01	1.098333e+01
2.200000e-06	1.609821e-06	1.802227e-10	1.149487e+01	1.272970e+01
2.210000e-06	1.653578e-06	2.055661e-10	1.180732e+01	1.448026e+01
2.220000e-06	1.697241e-06	2.313822e-10	1.211909e+01	1.623277e+01
2.230000e-06	1.740847e-06	2.577354e-10	1.243046e+01	1.798515e+01
2.240000e-06	1.784406e-06	2.851928e-10	1.274149e+01	1.973552e+01
2.250000e-06	1.827856e-06	3.139521e-10	1.305175e+01	2.148218e+01
2.260000e-06	1.871158e-06	3.423394e-10	1.336094e+01	2.322360e+01
2.270000e-06	1.914301e-06	3.711815e-10	1.366901e+01	2.495843e+01
2.280000e-06	1.957282e-06	3.989976e-10	1.397591e+01	2.668541e+01
2.290000e-06	2.000151e-06	4.266157e-10	1.428201e+01	2.840339e+01
2.300000e-06	2.042742e-06	4.526253e-10	1.458614e+01	3.011123e+01
2.310000e-06	2.084930e-06	4.772095e-10	1.488738e+01	3.180777e+01
2.320000e-06	2.126804e-06	5.032598e-10	1.518637e+01	3.349179e+01
2.330000e-06	2.168379e-06	5.312652e-10	1.548324e+01	3.516194e+01
2.340000e-06	2.209610e-06	5.566825e-10	1.577765e+01	3.681677e+01
2.350000e-06	2.250497e-06	5.784482e-10	1.606960e+01	3.845462e+01
2.360000e-06	2.291240e-06	6.009360e-10	1.636053e+01	4.007369e+01
2.370000e-06	2.331834e-06	6.284353e-10	1.665039e+01	4.167202e+01
2.380000e-06	2.372173e-06	6.561002e-10	1.693842e+01	4.324750e+01
2.390000e-06	2.412326e-06	6.802505e-10	1.722514e+01	4.479792e+01
2.400000e-06	2.452348e-06	7.010793e-10	1.751091e+01	4.632101e+01
2.410000e-06	2.492307e-06	7.204480e-10	1.779624e+01	4.781454e+01
2.420000e-06	2.532198e-06	7.420078e-10	1.808108e+01	4.927630e+01
2.430000e-06	2.572000e-06	7.656746e-10	1.836528e+01	5.070427e+01
2.440000e-06	2.611691e-06	7.880262e-10	1.864870e+01	5.209661e+01
2.450000e-06	2.651285e-06	8.088602e-10	1.893142e+01	5.345176e+01
2.460000e-06	2.690765e-06	8.333007e-10	1.921332e+01	5.476847e+01
2.470000e-06	2.730077e-06	8.575747e-10	1.949403e+01	5.604588e+01
2.480000e-06	2.769149e-06	8.760718e-10	1.977302e+01	5.728348e+01
2.490000e-06	2.807982e-06	8.912205e-10	2.005030e+01	5.848121e+01
2.500000e-06	2.846664e-06	9.083909e-10	2.032652e+01	5.963935e+01
2.510000e-06	2.885138e-06	9.288120e-10	2.060123e+01	6.075859e+01
2.520000e-06	2.923321e-06	9.517383e-10	2.087388e+01	6.183993e+01
2.530000e-06	2.961344e-06	9.742292e-10	2.114538e+01	6.288464e+01
2.540000e-06	2.999252e-06	9.922587e-10	2.141607e+01	6.389419e+01
2.550000e-06	3.036905e-06	1.005384e-09	2.168493e+01	6.487021e+01
2.560000e-06	3.074392e-06	1.017406e-09	2.195259e+01	6.581436e+01
2.570000e-06	3.111664e-06	1.030168e-09	2.221874e+01	6.672830e+01
2.580000e-06	3.148667e-06	1.041496e-09	2.248296e+01	6.761359e+01
2.590000e-06	3.185492e-06	1.053128e-09	2.274590e+01	6.847164e+01
2.600000e-06	3.222090e-06	1.069081e-09	2.300723e+01	6.930365e+01
2.610000e-06	3.258471e-06	1.087762e-09	2.326701e+01	7.011059e+01
2.620000e-06	3.294623e-06	1.102254e-09	2.352515e+01	7.089318e+01
2.630000e-06	3.330661e-06	1.112260e-09	2.378248e+01	7.165185e+01
2.640000e-06	3.366596e-06	1.121247e-09	2.403907e+01	7.238679e+01
2.650000e-06	3.402394e-06	1.128009e-09	2.429469e+01	7.309797e+01
2.660000e-06	3.438096e-06	1.132243e-09	2.454962e+01	7.378520e+01
2.670000e-06	3.473541e-06	1.136455e-09	2.480271e+01	7.444813e+01
2.680000e-06	3.508704e-06	1.143303e-09	2.505379e+01	7.508635e+01
2.690000e-06	3.543591e-06	1.154227e-09	2.530290e+01	7.569947e+01
2.700000e-06	3.577990e-06	1.169522e-09	2.554852e+01	7.628713e+01
2.710000e-06	3.611898e-06	1.185085e-09	2.579064e+01	7.684909e+01
2.720000e-06	3.645351e-06	1.194777e-09	2.602951e+01	7.738529e+01
2.730000e-06	3.678365e-06	1.201107e-09	2.626525e+01	7.789584e+01
2.740000e-06	3.711065e-06	1.205259e-09	2.649874e+01	7.838110e+01
2.750000e-06	3.743487e-06	1.207467e-09	2.673025e+01	7.884167e+01
2.760000e-06	3.775688e-06	1.209916e-09	2.696018e+01	7.927836e+01
2.770000e-06	3.807704e-06	1.214700e-09	2.718879e+01	7.969221e+01
2.780000e-06	3.839531e-06	1.222898e-09	2.741605e+01	8.008442e+01
2.790000e-06	3.871120e-06	1.232177e-09	2.764161e+01	8.045634e+01
2.800000e-06	3.902478e-06	1.238214e-09	2.786552e+01	8.080940e+01
2.810000e-06	3.933633e-06	1.239987e-09	2.808798e+01	8.114503e+01
2.820000e-06	3.964507e-06	1.239837e-09	2.830844e+01	8.146464e+01
2.830000e-06	3.995066e-06	1.241257e-09	2.852664e+01	8.176956e+01
2.840000e-06	4.025270e-06	1.243538e-09	2.874231e+01	8.206097e+01
2.850000e-06	4.055238e-06	1.245517e-09	2.895630e+01	8.233985e+01
2.860000e-06	4.085065e-06	1.247579e-09	2.916928e+01	8.260699e+01
2.870000e-06	4.114622e-06	1.250007e-09	2.938033e+01	8.286295e+01
2.880000e-06	4.143908e-06	1.253075e-09	2.958944e+01	8.310805e+01
2.890000e-06	4.172871e-06	1.254090e-09	2.979625e+01	8.334240e+01
2.900000e-06	4.201504e-06	1.254834e-09	3.000071e+01	8.356591e+01
