# Temperatura_=_-2.66
# Concentracion g/m^3_=_4090.0
# C_Vs_to_Am_M_A/Vsm_=_65563218390.804596
# pendiente_HvsI_1/m_=_3716.3
# ordenada_HvsI_A/m_=_1297.0
# frecuencia_Hz_=_135068.48040608864

Tiempo_(s)	Campo_(V.s)	Magnetizacion_(V.s)	Campo_(kA/m)	Magnetizacion_(A/m)
0.000000e+00	-5.403331e-06	-1.793025e-09	-3.838992e+01	-1.201370e+02
1.000000e-08	-5.403298e-06	-1.789352e-09	-3.838968e+01	-1.199900e+02
2.000000e-08	-5.403096e-06	-1.784709e-09	-3.838825e+01	-1.198205e+02
3.000000e-08	-5.402652e-06	-1.779683e-09	-3.838509e+01	-1.196305e+02
4.000000e-08	-5.401771e-06	-1.776955e-09	-3.837883e+01	-1.194227e+02
5.000000e-08	-5.400415e-06	-1.777676e-09	-3.836919e+01	-1.192011e+02
6.000000e-08	-5.398444e-06	-1.790623e-09	-3.835519e+01	-1.189708e+02
7.000000e-08	-5.395750e-06	-1.793497e-09	-3.833606e+01	-1.187374e+02
8.000000e-08	-5.392484e-06	-1.757604e-09	-3.831285e+01	-1.185074e+02
9.000000e-08	-5.388780e-06	-1.739251e-09	-3.828653e+01	-1.182875e+02
1.000000e-07	-5.384715e-06	-1.811943e-09	-3.825765e+01	-1.180844e+02
1.100000e-07	-5.380423e-06	-1.825066e-09	-3.822716e+01	-1.179050e+02
1.200000e-07	-5.375942e-06	-1.752832e-09	-3.819532e+01	-1.177551e+02
1.300000e-07	-5.371113e-06	-1.695400e-09	-3.816101e+01	-1.176403e+02
1.400000e-07	-5.365838e-06	-1.796355e-09	-3.812354e+01	-1.175649e+02
1.500000e-07	-5.360091e-06	-1.845842e-09	-3.808270e+01	-1.175319e+02
1.600000e-07	-5.354020e-06	-1.737771e-09	-3.803957e+01	-1.175429e+02
1.700000e-07	-5.347647e-06	-1.661560e-09	-3.799429e+01	-1.175983e+02
1.800000e-07	-5.340844e-06	-1.758495e-09	-3.794595e+01	-1.176963e+02
1.900000e-07	-5.333686e-06	-1.824730e-09	-3.789509e+01	-1.178342e+02
2.000000e-07	-5.326295e-06	-1.752345e-09	-3.784258e+01	-1.180074e+02
2.100000e-07	-5.318661e-06	-1.725403e-09	-3.778835e+01	-1.182101e+02
2.200000e-07	-5.310690e-06	-1.794545e-09	-3.773171e+01	-1.184353e+02
2.300000e-07	-5.302409e-06	-1.816108e-09	-3.767288e+01	-1.186754e+02
2.400000e-07	-5.293833e-06	-1.764597e-09	-3.761195e+01	-1.189219e+02
2.500000e-07	-5.284657e-06	-1.808937e-09	-3.754675e+01	-1.191663e+02
2.600000e-07	-5.274737e-06	-1.859682e-09	-3.747627e+01	-1.194000e+02
2.700000e-07	-5.264284e-06	-1.825260e-09	-3.740201e+01	-1.196148e+02
2.800000e-07	-5.253346e-06	-1.781952e-09	-3.732429e+01	-1.198033e+02
2.900000e-07	-5.241988e-06	-1.830450e-09	-3.724359e+01	-1.199591e+02
3.000000e-07	-5.230186e-06	-1.818982e-09	-3.715974e+01	-1.200767e+02
3.100000e-07	-5.217979e-06	-1.762166e-09	-3.707301e+01	-1.201523e+02
3.200000e-07	-5.205457e-06	-1.777860e-09	-3.698405e+01	-1.201833e+02
3.300000e-07	-5.192590e-06	-1.838944e-09	-3.689263e+01	-1.201689e+02
3.400000e-07	-5.179324e-06	-1.801136e-09	-3.679838e+01	-1.201094e+02
3.500000e-07	-5.165632e-06	-1.783562e-09	-3.670109e+01	-1.200068e+02
3.600000e-07	-5.151552e-06	-1.814572e-09	-3.660106e+01	-1.198643e+02
3.700000e-07	-5.137077e-06	-1.807718e-09	-3.649822e+01	-1.196862e+02
3.800000e-07	-5.121914e-06	-1.754736e-09	-3.639049e+01	-1.194774e+02
3.900000e-07	-5.105971e-06	-1.770090e-09	-3.627721e+01	-1.192435e+02
4.000000e-07	-5.089594e-06	-1.783098e-09	-3.616086e+01	-1.189907e+02
4.100000e-07	-5.072845e-06	-1.759840e-09	-3.604186e+01	-1.187247e+02
4.200000e-07	-5.055765e-06	-1.772423e-09	-3.592051e+01	-1.184512e+02
4.300000e-07	-5.038455e-06	-1.805400e-09	-3.579752e+01	-1.181756e+02
4.400000e-07	-5.020879e-06	-1.786876e-09	-3.567265e+01	-1.179022e+02
4.500000e-07	-5.003032e-06	-1.761987e-09	-3.554585e+01	-1.176349e+02
4.600000e-07	-4.984800e-06	-1.774139e-09	-3.541631e+01	-1.173763e+02
4.700000e-07	-4.966167e-06	-1.761211e-09	-3.528393e+01	-1.171281e+02
4.800000e-07	-4.947167e-06	-1.739011e-09	-3.514893e+01	-1.168909e+02
4.900000e-07	-4.927791e-06	-1.737231e-09	-3.501127e+01	-1.166646e+02
5.000000e-07	-4.908122e-06	-1.742958e-09	-3.487152e+01	-1.164478e+02
5.100000e-07	-4.888243e-06	-1.737400e-09	-3.473029e+01	-1.162387e+02
5.200000e-07	-4.868223e-06	-1.753093e-09	-3.458805e+01	-1.160347e+02
5.300000e-07	-4.847964e-06	-1.751629e-09	-3.444411e+01	-1.158330e+02
5.400000e-07	-4.827326e-06	-1.741875e-09	-3.429748e+01	-1.156305e+02
5.500000e-07	-4.806247e-06	-1.740097e-09	-3.414772e+01	-1.154240e+02
5.600000e-07	-4.784838e-06	-1.742094e-09	-3.399561e+01	-1.152106e+02
5.700000e-07	-4.763191e-06	-1.718036e-09	-3.384181e+01	-1.149878e+02
5.800000e-07	-4.741279e-06	-1.702559e-09	-3.368613e+01	-1.147536e+02
5.900000e-07	-4.719063e-06	-1.699998e-09	-3.352828e+01	-1.145063e+02
6.000000e-07	-4.696432e-06	-1.709418e-09	-3.336750e+01	-1.142452e+02
6.100000e-07	-4.673481e-06	-1.711782e-09	-3.320443e+01	-1.139700e+02
6.200000e-07	-4.650244e-06	-1.711218e-09	-3.303934e+01	-1.136814e+02
6.300000e-07	-4.626679e-06	-1.705891e-09	-3.287191e+01	-1.133802e+02
6.400000e-07	-4.602904e-06	-1.711718e-09	-3.270299e+01	-1.130682e+02
6.500000e-07	-4.578952e-06	-1.706128e-09	-3.253282e+01	-1.127473e+02
6.600000e-07	-4.554721e-06	-1.688539e-09	-3.236066e+01	-1.124196e+02
6.700000e-07	-4.530158e-06	-1.673414e-09	-3.218614e+01	-1.120876e+02
6.800000e-07	-4.505168e-06	-1.674506e-09	-3.200859e+01	-1.117536e+02
6.900000e-07	-4.479620e-06	-1.675389e-09	-3.182708e+01	-1.114197e+02
7.000000e-07	-4.453611e-06	-1.668489e-09	-3.164229e+01	-1.110878e+02
7.100000e-07	-4.427102e-06	-1.662256e-09	-3.145395e+01	-1.107594e+02
7.200000e-07	-4.400012e-06	-1.664888e-09	-3.126147e+01	-1.104354e+02
7.300000e-07	-4.372519e-06	-1.671441e-09	-3.106614e+01	-1.101165e+02
7.400000e-07	-4.344813e-06	-1.667259e-09	-3.086929e+01	-1.098027e+02
7.500000e-07	-4.316938e-06	-1.654855e-09	-3.067124e+01	-1.094935e+02
7.600000e-07	-4.288862e-06	-1.644894e-09	-3.047177e+01	-1.091880e+02
7.700000e-07	-4.260575e-06	-1.641497e-09	-3.027079e+01	-1.088850e+02
7.800000e-07	-4.232035e-06	-1.632188e-09	-3.006802e+01	-1.085828e+02
7.900000e-07	-4.203284e-06	-1.621160e-09	-2.986375e+01	-1.082798e+02
8.000000e-07	-4.174255e-06	-1.615972e-09	-2.965750e+01	-1.079743e+02
8.100000e-07	-4.144872e-06	-1.621759e-09	-2.944874e+01	-1.076644e+02
8.200000e-07	-4.115198e-06	-1.624524e-09	-2.923791e+01	-1.073488e+02
8.300000e-07	-4.085270e-06	-1.619059e-09	-2.902527e+01	-1.070260e+02
8.400000e-07	-4.055057e-06	-1.605395e-09	-2.881062e+01	-1.066953e+02
8.500000e-07	-4.024590e-06	-1.597694e-09	-2.859415e+01	-1.063559e+02
8.600000e-07	-3.993889e-06	-1.589066e-09	-2.837603e+01	-1.060078e+02
8.700000e-07	-3.962980e-06	-1.579736e-09	-2.815642e+01	-1.056512e+02
8.800000e-07	-3.931814e-06	-1.568655e-09	-2.793499e+01	-1.052868e+02
8.900000e-07	-3.900310e-06	-1.564523e-09	-2.771116e+01	-1.049155e+02
9.000000e-07	-3.868635e-06	-1.562701e-09	-2.748612e+01	-1.045387e+02
9.100000e-07	-3.836810e-06	-1.561187e-09	-2.726000e+01	-1.041576e+02
9.200000e-07	-3.804712e-06	-1.553800e-09	-2.703195e+01	-1.037740e+02
9.300000e-07	-3.772389e-06	-1.550413e-09	-2.680230e+01	-1.033892e+02
9.400000e-07	-3.739901e-06	-1.549862e-09	-2.657147e+01	-1.030047e+02
9.500000e-07	-3.707101e-06	-1.548434e-09	-2.633844e+01	-1.026217e+02
9.600000e-07	-3.673931e-06	-1.540399e-09	-2.610277e+01	-1.022413e+02
9.700000e-07	-3.640367e-06	-1.529328e-09	-2.586430e+01	-1.018640e+02
9.800000e-07	-3.606285e-06	-1.520127e-09	-2.562215e+01	-1.014901e+02
9.900000e-07	-3.571715e-06	-1.512791e-09	-2.537654e+01	-1.011197e+02
1.000000e-06	-3.536844e-06	-1.506570e-09	-2.512879e+01	-1.007522e+02
1.010000e-06	-3.501661e-06	-1.504636e-09	-2.487881e+01	-1.003869e+02
1.020000e-06	-3.466167e-06	-1.506473e-09	-2.462664e+01	-1.000228e+02
1.030000e-06	-3.430463e-06	-1.508579e-09	-2.437296e+01	-9.965851e+01
1.040000e-06	-3.394567e-06	-1.505980e-09	-2.411793e+01	-9.929273e+01
1.050000e-06	-3.358525e-06	-1.497169e-09	-2.386186e+01	-9.892395e+01
1.060000e-06	-3.322340e-06	-1.487552e-09	-2.360477e+01	-9.855072e+01
1.070000e-06	-3.286044e-06	-1.477158e-09	-2.334689e+01	-9.817168e+01
1.080000e-06	-3.249523e-06	-1.465902e-09	-2.308741e+01	-9.778567e+01
1.090000e-06	-3.212684e-06	-1.456404e-09	-2.282568e+01	-9.739173e+01
1.100000e-06	-3.175626e-06	-1.454044e-09	-2.256238e+01	-9.698920e+01
1.110000e-06	-3.138322e-06	-1.454052e-09	-2.229734e+01	-9.657772e+01
1.120000e-06	-3.100740e-06	-1.453046e-09	-2.203033e+01	-9.615725e+01
1.130000e-06	-3.063001e-06	-1.447285e-09	-2.176219e+01	-9.572802e+01
1.140000e-06	-3.025131e-06	-1.440189e-09	-2.149313e+01	-9.529056e+01
1.150000e-06	-2.987051e-06	-1.432559e-09	-2.122258e+01	-9.484561e+01
1.160000e-06	-2.948699e-06	-1.425404e-09	-2.095010e+01	-9.439408e+01
1.170000e-06	-2.910134e-06	-1.415155e-09	-2.067610e+01	-9.393699e+01
1.180000e-06	-2.871427e-06	-1.404930e-09	-2.040109e+01	-9.347536e+01
1.190000e-06	-2.832484e-06	-1.398103e-09	-2.012441e+01	-9.301022e+01
1.200000e-06	-2.793331e-06	-1.397184e-09	-1.984623e+01	-9.254246e+01
1.210000e-06	-2.753990e-06	-1.395024e-09	-1.956672e+01	-9.207281e+01
1.220000e-06	-2.714431e-06	-1.390075e-09	-1.928565e+01	-9.160182e+01
1.230000e-06	-2.674773e-06	-1.382740e-09	-1.900389e+01	-9.112978e+01
1.240000e-06	-2.635018e-06	-1.374936e-09	-1.872144e+01	-9.065675e+01
1.250000e-06	-2.595141e-06	-1.366074e-09	-1.843812e+01	-9.018252e+01
1.260000e-06	-2.555174e-06	-1.355398e-09	-1.815415e+01	-8.970668e+01
1.270000e-06	-2.515107e-06	-1.344776e-09	-1.786949e+01	-8.922859e+01
1.280000e-06	-2.474985e-06	-1.339678e-09	-1.758443e+01	-8.874747e+01
1.290000e-06	-2.434817e-06	-1.335685e-09	-1.729904e+01	-8.826244e+01
1.300000e-06	-2.394493e-06	-1.329580e-09	-1.701254e+01	-8.777259e+01
1.310000e-06	-2.353921e-06	-1.321779e-09	-1.672428e+01	-8.727698e+01
1.320000e-06	-2.313060e-06	-1.314797e-09	-1.643397e+01	-8.677480e+01
1.330000e-06	-2.271925e-06	-1.307557e-09	-1.614171e+01	-8.626531e+01
1.340000e-06	-2.230581e-06	-1.297840e-09	-1.584797e+01	-8.574796e+01
1.350000e-06	-2.188955e-06	-1.287132e-09	-1.555222e+01	-8.522239e+01
1.360000e-06	-2.146930e-06	-1.276885e-09	-1.525364e+01	-8.468844e+01
1.370000e-06	-2.104668e-06	-1.268955e-09	-1.495337e+01	-8.414614e+01
1.380000e-06	-2.062205e-06	-1.260698e-09	-1.465168e+01	-8.359573e+01
1.390000e-06	-2.019425e-06	-1.252634e-09	-1.434773e+01	-8.303762e+01
1.400000e-06	-1.976441e-06	-1.245513e-09	-1.404234e+01	-8.247234e+01
1.410000e-06	-1.933311e-06	-1.239730e-09	-1.373591e+01	-8.190048e+01
1.420000e-06	-1.890018e-06	-1.232834e-09	-1.342832e+01	-8.132268e+01
1.430000e-06	-1.846533e-06	-1.223615e-09	-1.311936e+01	-8.073954e+01
1.440000e-06	-1.802860e-06	-1.212151e-09	-1.280907e+01	-8.015158e+01
1.450000e-06	-1.759090e-06	-1.200029e-09	-1.249809e+01	-7.955919e+01
1.460000e-06	-1.715264e-06	-1.188237e-09	-1.218671e+01	-7.896258e+01
1.470000e-06	-1.671405e-06	-1.177604e-09	-1.187510e+01	-7.836177e+01
1.480000e-06	-1.627510e-06	-1.168755e-09	-1.156323e+01	-7.775656e+01
1.490000e-06	-1.583551e-06	-1.163908e-09	-1.125091e+01	-7.714653e+01
1.500000e-06	-1.539517e-06	-1.162116e-09	-1.093806e+01	-7.653102e+01
1.510000e-06	-1.495388e-06	-1.161788e-09	-1.062452e+01	-7.590924e+01
1.520000e-06	-1.451199e-06	-1.154992e-09	-1.031057e+01	-7.528019e+01
1.530000e-06	-1.406993e-06	-1.139618e-09	-9.996491e+00	-7.464280e+01
1.540000e-06	-1.362695e-06	-1.120207e-09	-9.681759e+00	-7.399593e+01
1.550000e-06	-1.318320e-06	-1.101392e-09	-9.366481e+00	-7.333845e+01
1.560000e-06	-1.273914e-06	-1.085216e-09	-9.050983e+00	-7.266927e+01
1.570000e-06	-1.229382e-06	-1.076798e-09	-8.734588e+00	-7.198742e+01
1.580000e-06	-1.184722e-06	-1.074223e-09	-8.417287e+00	-7.129208e+01
1.590000e-06	-1.140025e-06	-1.071578e-09	-8.099716e+00	-7.058262e+01
1.600000e-06	-1.095219e-06	-1.064504e-09	-7.781381e+00	-6.985862e+01
1.610000e-06	-1.050250e-06	-1.051160e-09	-7.461882e+00	-6.911989e+01
1.620000e-06	-1.005249e-06	-1.033407e-09	-7.142157e+00	-6.836646e+01
1.630000e-06	-9.601751e-07	-1.014407e-09	-6.821910e+00	-6.759857e+01
1.640000e-06	-9.149933e-07	-9.964454e-10	-6.500900e+00	-6.681666e+01
1.650000e-06	-8.697074e-07	-9.837132e-10	-6.179150e+00	-6.602128e+01
1.660000e-06	-8.243477e-07	-9.757630e-10	-5.856876e+00	-6.521312e+01
1.670000e-06	-7.789299e-07	-9.735229e-10	-5.534189e+00	-6.439288e+01
1.680000e-06	-7.334609e-07	-9.704657e-10	-5.211137e+00	-6.356129e+01
1.690000e-06	-6.879769e-07	-9.599442e-10	-4.887981e+00	-6.271899e+01
1.700000e-06	-6.424458e-07	-9.436810e-10	-4.564488e+00	-6.186656e+01
1.710000e-06	-5.969174e-07	-9.254558e-10	-4.241015e+00	-6.100438e+01
1.720000e-06	-5.514290e-07	-9.102445e-10	-3.917826e+00	-6.013270e+01
1.730000e-06	-5.059009e-07	-8.970648e-10	-3.594355e+00	-5.925154e+01
1.740000e-06	-4.602867e-07	-8.867672e-10	-3.270273e+00	-5.836074e+01
1.750000e-06	-4.145860e-07	-8.785192e-10	-2.945576e+00	-5.745992e+01
1.760000e-06	-3.688279e-07	-8.711094e-10	-2.620471e+00	-5.654850e+01
1.770000e-06	-3.230108e-07	-8.573498e-10	-2.294947e+00	-5.562575e+01
1.780000e-06	-2.771344e-07	-8.394000e-10	-1.969001e+00	-5.469082e+01
1.790000e-06	-2.313034e-07	-8.202487e-10	-1.643378e+00	-5.374275e+01
1.800000e-06	-1.854849e-07	-8.022949e-10	-1.317844e+00	-5.278053e+01
1.810000e-06	-1.396643e-07	-7.857693e-10	-9.922952e-01	-5.180315e+01
1.820000e-06	-9.386878e-08	-7.710139e-10	-6.669246e-01	-5.080964e+01
1.830000e-06	-4.812305e-08	-7.573341e-10	-3.419076e-01	-4.979909e+01
1.840000e-06	-2.383202e-09	-7.457133e-10	-1.693232e-02	-4.877069e+01
1.850000e-06	4.342777e-08	-7.347882e-10	3.085483e-01	-4.772376e+01
1.860000e-06	8.931159e-08	-7.216658e-10	6.345464e-01	-4.665772e+01
1.870000e-06	1.351669e-07	-7.048366e-10	9.603420e-01	-4.557213e+01
1.880000e-06	1.809785e-07	-6.867509e-10	1.285827e+00	-4.446669e+01
1.890000e-06	2.268009e-07	-6.685071e-10	1.611389e+00	-4.334114e+01
1.900000e-06	2.725727e-07	-6.494365e-10	1.936591e+00	-4.219535e+01
1.910000e-06	3.182857e-07	-6.296221e-10	2.261376e+00	-4.102918e+01
1.920000e-06	3.640268e-07	-6.101374e-10	2.586360e+00	-3.984253e+01
1.930000e-06	4.097512e-07	-5.924189e-10	2.911226e+00	-3.863523e+01
1.940000e-06	4.554112e-07	-5.730442e-10	3.235634e+00	-3.740708e+01
1.950000e-06	5.010670e-07	-5.517762e-10	3.560011e+00	-3.615778e+01
1.960000e-06	5.466795e-07	-5.323584e-10	3.884082e+00	-3.488693e+01
1.970000e-06	5.922371e-07	-5.128270e-10	4.207762e+00	-3.359402e+01
1.980000e-06	6.378183e-07	-4.914120e-10	4.531610e+00	-3.227843e+01
1.990000e-06	6.833216e-07	-4.702077e-10	4.854905e+00	-3.093941e+01
2.000000e-06	7.287686e-07	-4.491136e-10	5.177800e+00	-2.957619e+01
2.010000e-06	7.741891e-07	-4.297907e-10	5.500506e+00	-2.818791e+01
2.020000e-06	8.194573e-07	-4.085690e-10	5.822130e+00	-2.677372e+01
2.030000e-06	8.646862e-07	-3.863641e-10	6.143476e+00	-2.533283e+01
2.040000e-06	9.099250e-07	-3.623962e-10	6.464890e+00	-2.386449e+01
2.050000e-06	9.550067e-07	-3.365319e-10	6.785190e+00	-2.236813e+01
2.060000e-06	9.999712e-07	-3.107291e-10	7.104656e+00	-2.084333e+01
2.070000e-06	1.044902e-06	-2.862858e-10	7.423885e+00	-1.928988e+01
2.080000e-06	1.089730e-06	-2.611696e-10	7.742382e+00	-1.770783e+01
2.090000e-06	1.134539e-06	-2.386767e-10	8.060741e+00	-1.609747e+01
2.100000e-06	1.179265e-06	-2.163869e-10	8.378513e+00	-1.445936e+01
2.110000e-06	1.223822e-06	-1.882066e-10	8.695085e+00	-1.279431e+01
2.120000e-06	1.268249e-06	-1.561532e-10	9.010732e+00	-1.110339e+01
2.130000e-06	1.312527e-06	-1.287472e-10	9.325321e+00	-9.387852e+00
2.140000e-06	1.356745e-06	-1.050278e-10	9.639488e+00	-7.649136e+00
2.150000e-06	1.400971e-06	-7.951706e-11	9.953702e+00	-5.888793e+00
2.160000e-06	1.445137e-06	-5.101340e-11	1.026750e+01	-4.108445e+00
2.170000e-06	1.489250e-06	-2.359252e-11	1.058091e+01	-2.309731e+00
2.180000e-06	1.533308e-06	-1.168037e-12	1.089394e+01	-4.942480e-01
2.190000e-06	1.577292e-06	2.375676e-11	1.120644e+01	1.336488e+00
2.200000e-06	1.621245e-06	5.480240e-11	1.151872e+01	3.181090e+00
2.210000e-06	1.665156e-06	8.488793e-11	1.183070e+01	5.038327e+00
2.220000e-06	1.708971e-06	1.106471e-10	1.214200e+01	6.907141e+00
2.230000e-06	1.752736e-06	1.372866e-10	1.245294e+01	8.786659e+00
2.240000e-06	1.796442e-06	1.689297e-10	1.276347e+01	1.067618e+01
2.250000e-06	1.840038e-06	2.015286e-10	1.307321e+01	1.257516e+01
2.260000e-06	1.883553e-06	2.295815e-10	1.338238e+01	1.448317e+01
2.270000e-06	1.926940e-06	2.550522e-10	1.369064e+01	1.639987e+01
2.280000e-06	1.970121e-06	2.828271e-10	1.399744e+01	1.832495e+01
2.290000e-06	2.013117e-06	3.158563e-10	1.430292e+01	2.025810e+01
2.300000e-06	2.055863e-06	3.458171e-10	1.460662e+01	2.219890e+01
2.310000e-06	2.098377e-06	3.723191e-10	1.490868e+01	2.414685e+01
2.320000e-06	2.140718e-06	4.013452e-10	1.520950e+01	2.610125e+01
2.330000e-06	2.182794e-06	4.319037e-10	1.550845e+01	2.806123e+01
2.340000e-06	2.224544e-06	4.591199e-10	1.580508e+01	3.002566e+01
2.350000e-06	2.265970e-06	4.840470e-10	1.609940e+01	3.199319e+01
2.360000e-06	2.307051e-06	5.123694e-10	1.639128e+01	3.396221e+01
2.370000e-06	2.347855e-06	5.480973e-10	1.668119e+01	3.593091e+01
2.380000e-06	2.388418e-06	5.825293e-10	1.696938e+01	3.789726e+01
2.390000e-06	2.428797e-06	6.097770e-10	1.725626e+01	3.985905e+01
2.400000e-06	2.469092e-06	6.344630e-10	1.754255e+01	4.181399e+01
2.410000e-06	2.509247e-06	6.625147e-10	1.782785e+01	4.375969e+01
2.420000e-06	2.549253e-06	6.926867e-10	1.811209e+01	4.569377e+01
2.430000e-06	2.589119e-06	7.220246e-10	1.839533e+01	4.761389e+01
2.440000e-06	2.628897e-06	7.515522e-10	1.867795e+01	4.951782e+01
2.450000e-06	2.668604e-06	7.829331e-10	1.896006e+01	5.140347e+01
2.460000e-06	2.708195e-06	8.155224e-10	1.924135e+01	5.326894e+01
2.470000e-06	2.747605e-06	8.414422e-10	1.952135e+01	5.511256e+01
2.480000e-06	2.786845e-06	8.631142e-10	1.980014e+01	5.693286e+01
2.490000e-06	2.825923e-06	8.872248e-10	2.007779e+01	5.872864e+01
2.500000e-06	2.864797e-06	9.155892e-10	2.035399e+01	6.049890e+01
2.510000e-06	2.903438e-06	9.455368e-10	2.062852e+01	6.224286e+01
2.520000e-06	2.941818e-06	9.777817e-10	2.090121e+01	6.395991e+01
2.530000e-06	2.979979e-06	1.010863e-09	2.117234e+01	6.564961e+01
2.540000e-06	3.017981e-06	1.040027e-09	2.144234e+01	6.731157e+01
2.550000e-06	3.055779e-06	1.061765e-09	2.171088e+01	6.894551e+01
2.560000e-06	3.093367e-06	1.079423e-09	2.197794e+01	7.055112e+01
2.570000e-06	3.130790e-06	1.099782e-09	2.224383e+01	7.212811e+01
2.580000e-06	3.167969e-06	1.123218e-09	2.250798e+01	7.367612e+01
2.590000e-06	3.204959e-06	1.147122e-09	2.277079e+01	7.519473e+01
2.600000e-06	3.241783e-06	1.173841e-09	2.303241e+01	7.668344e+01
2.610000e-06	3.278347e-06	1.203982e-09	2.329220e+01	7.814167e+01
2.620000e-06	3.314641e-06	1.231849e-09	2.355007e+01	7.956879e+01
2.630000e-06	3.350768e-06	1.251027e-09	2.380674e+01	8.096413e+01
2.640000e-06	3.386782e-06	1.263090e-09	2.406261e+01	8.232701e+01
2.650000e-06	3.422700e-06	1.276518e-09	2.431781e+01	8.365678e+01
2.660000e-06	3.458474e-06	1.294050e-09	2.457198e+01	8.495289e+01
2.670000e-06	3.494051e-06	1.312285e-09	2.482474e+01	8.621488e+01
2.680000e-06	3.529429e-06	1.330369e-09	2.507610e+01	8.744249e+01
2.690000e-06	3.564515e-06	1.351838e-09	2.532538e+01	8.863562e+01
2.700000e-06	3.599140e-06	1.377222e-09	2.557139e+01	8.979441e+01
2.710000e-06	3.633208e-06	1.401935e-09	2.581344e+01	9.091927e+01
2.720000e-06	3.666761e-06	1.417402e-09	2.605183e+01	9.201083e+01
2.730000e-06	3.699951e-06	1.428617e-09	2.628764e+01	9.306995e+01
2.740000e-06	3.732795e-06	1.442635e-09	2.652099e+01	9.409773e+01
2.750000e-06	3.765231e-06	1.457474e-09	2.675144e+01	9.509545e+01
2.760000e-06	3.797431e-06	1.469762e-09	2.698022e+01	9.606452e+01
2.770000e-06	3.829493e-06	1.481312e-09	2.720802e+01	9.700645e+01
2.780000e-06	3.861433e-06	1.497723e-09	2.743494e+01	9.792276e+01
2.790000e-06	3.893250e-06	1.516740e-09	2.766100e+01	9.881495e+01
2.800000e-06	3.924839e-06	1.529848e-09	2.788543e+01	9.968442e+01
2.810000e-06	3.956228e-06	1.535270e-09	2.810845e+01	1.005324e+02
2.820000e-06	3.987378e-06	1.541050e-09	2.832977e+01	1.013601e+02
2.830000e-06	4.018165e-06	1.553375e-09	2.854850e+01	1.021681e+02
2.840000e-06	4.048609e-06	1.566808e-09	2.876480e+01	1.029573e+02
2.850000e-06	4.078703e-06	1.576999e-09	2.897862e+01	1.037277e+02
2.860000e-06	4.108508e-06	1.588069e-09	2.919038e+01	1.044797e+02
2.870000e-06	4.138120e-06	1.602984e-09	2.940077e+01	1.052130e+02
2.880000e-06	4.167514e-06	1.615577e-09	2.960961e+01	1.059273e+02
2.890000e-06	4.196626e-06	1.620884e-09	2.981645e+01	1.066222e+02
2.900000e-06	4.225459e-06	1.625647e-09	3.002130e+01	1.072970e+02
