# Temperatura_=_-4.33
# Concentracion g/m^3_=_4090.0
# C_Vs_to_Am_M_A/Vsm_=_65563218390.804596
# pendiente_HvsI_1/m_=_3716.3
# ordenada_HvsI_A/m_=_1297.0
# frecuencia_Hz_=_135072.97887112037

Tiempo_(s)	Campo_(V.s)	Magnetizacion_(V.s)	Campo_(kA/m)	Magnetizacion_(A/m)
0.000000e+00	-5.417002e-06	-1.379759e-09	-3.839853e+01	-9.252113e+01
1.000000e-08	-5.417152e-06	-1.373796e-09	-3.839960e+01	-9.244013e+01
2.000000e-08	-5.417029e-06	-1.365611e-09	-3.839873e+01	-9.233860e+01
3.000000e-08	-5.416591e-06	-1.359770e-09	-3.839562e+01	-9.221686e+01
4.000000e-08	-5.415749e-06	-1.361988e-09	-3.838966e+01	-9.207628e+01
5.000000e-08	-5.414291e-06	-1.375096e-09	-3.837932e+01	-9.191931e+01
6.000000e-08	-5.412188e-06	-1.392738e-09	-3.836441e+01	-9.174940e+01
7.000000e-08	-5.409628e-06	-1.386948e-09	-3.834626e+01	-9.157096e+01
8.000000e-08	-5.406540e-06	-1.343356e-09	-3.832438e+01	-9.138917e+01
9.000000e-08	-5.402859e-06	-1.313427e-09	-3.829828e+01	-9.120988e+01
1.000000e-07	-5.398655e-06	-1.359623e-09	-3.826848e+01	-9.103931e+01
1.100000e-07	-5.394182e-06	-1.419991e-09	-3.823677e+01	-9.088383e+01
1.200000e-07	-5.389623e-06	-1.369903e-09	-3.820446e+01	-9.074972e+01
1.300000e-07	-5.384798e-06	-1.294578e-09	-3.817026e+01	-9.064287e+01
1.400000e-07	-5.379491e-06	-1.378758e-09	-3.813264e+01	-9.056853e+01
1.500000e-07	-5.373802e-06	-1.468860e-09	-3.809231e+01	-9.053106e+01
1.600000e-07	-5.367871e-06	-1.410528e-09	-3.805027e+01	-9.053371e+01
1.700000e-07	-5.361589e-06	-1.256287e-09	-3.800574e+01	-9.057845e+01
1.800000e-07	-5.354813e-06	-1.324999e-09	-3.795770e+01	-9.066587e+01
1.900000e-07	-5.347628e-06	-1.431232e-09	-3.790678e+01	-9.079508e+01
2.000000e-07	-5.340314e-06	-1.422252e-09	-3.785493e+01	-9.096374e+01
2.100000e-07	-5.332732e-06	-1.343174e-09	-3.780118e+01	-9.116809e+01
2.200000e-07	-5.324772e-06	-1.416966e-09	-3.774476e+01	-9.140309e+01
2.300000e-07	-5.316571e-06	-1.483830e-09	-3.768663e+01	-9.166255e+01
2.400000e-07	-5.307984e-06	-1.440778e-09	-3.762576e+01	-9.193941e+01
2.500000e-07	-5.298770e-06	-1.424497e-09	-3.756045e+01	-9.222596e+01
2.600000e-07	-5.288861e-06	-1.485163e-09	-3.749021e+01	-9.251411e+01
2.700000e-07	-5.278320e-06	-1.502483e-09	-3.741549e+01	-9.279574e+01
2.800000e-07	-5.267253e-06	-1.438263e-09	-3.733703e+01	-9.306293e+01
2.900000e-07	-5.255784e-06	-1.463644e-09	-3.725574e+01	-9.330830e+01
3.000000e-07	-5.243989e-06	-1.504799e-09	-3.717212e+01	-9.352526e+01
3.100000e-07	-5.231784e-06	-1.467407e-09	-3.708562e+01	-9.370819e+01
3.200000e-07	-5.219193e-06	-1.417257e-09	-3.699636e+01	-9.385269e+01
3.300000e-07	-5.206315e-06	-1.486286e-09	-3.690508e+01	-9.395563e+01
3.400000e-07	-5.193004e-06	-1.494474e-09	-3.681072e+01	-9.401528e+01
3.500000e-07	-5.179204e-06	-1.456495e-09	-3.671290e+01	-9.403129e+01
3.600000e-07	-5.165019e-06	-1.447398e-09	-3.661235e+01	-9.400461e+01
3.700000e-07	-5.150497e-06	-1.487028e-09	-3.650941e+01	-9.393744e+01
3.800000e-07	-5.135349e-06	-1.440906e-09	-3.640203e+01	-9.383303e+01
3.900000e-07	-5.119409e-06	-1.432799e-09	-3.628904e+01	-9.369553e+01
4.000000e-07	-5.102934e-06	-1.448467e-09	-3.617226e+01	-9.352972e+01
4.100000e-07	-5.086206e-06	-1.445768e-09	-3.605368e+01	-9.334080e+01
4.200000e-07	-5.069153e-06	-1.419394e-09	-3.593280e+01	-9.313414e+01
4.300000e-07	-5.051741e-06	-1.462160e-09	-3.580937e+01	-9.291501e+01
4.400000e-07	-5.034153e-06	-1.470093e-09	-3.568470e+01	-9.268839e+01
4.500000e-07	-5.016322e-06	-1.429757e-09	-3.555831e+01	-9.245876e+01
4.600000e-07	-4.998101e-06	-1.412085e-09	-3.542914e+01	-9.222994e+01
4.700000e-07	-4.979491e-06	-1.433162e-09	-3.529723e+01	-9.200495e+01
4.800000e-07	-4.960475e-06	-1.414839e-09	-3.516243e+01	-9.178595e+01
4.900000e-07	-4.941099e-06	-1.393305e-09	-3.502508e+01	-9.157422e+01
5.000000e-07	-4.921467e-06	-1.401855e-09	-3.488592e+01	-9.137017e+01
5.100000e-07	-4.901658e-06	-1.413441e-09	-3.474550e+01	-9.117338e+01
5.200000e-07	-4.881688e-06	-1.414723e-09	-3.460395e+01	-9.098275e+01
5.300000e-07	-4.861464e-06	-1.409516e-09	-3.446059e+01	-9.079659e+01
5.400000e-07	-4.840859e-06	-1.398850e-09	-3.431454e+01	-9.061278e+01
5.500000e-07	-4.819914e-06	-1.389035e-09	-3.416606e+01	-9.042896e+01
5.600000e-07	-4.798688e-06	-1.397935e-09	-3.401560e+01	-9.024265e+01
5.700000e-07	-4.777152e-06	-1.391294e-09	-3.386295e+01	-9.005148e+01
5.800000e-07	-4.755315e-06	-1.374863e-09	-3.370815e+01	-8.985331e+01
5.900000e-07	-4.733096e-06	-1.365903e-09	-3.355065e+01	-8.964633e+01
6.000000e-07	-4.710473e-06	-1.382397e-09	-3.339029e+01	-8.942923e+01
6.100000e-07	-4.687442e-06	-1.384121e-09	-3.322703e+01	-8.920119e+01
6.200000e-07	-4.664044e-06	-1.375846e-09	-3.306118e+01	-8.896199e+01
6.300000e-07	-4.640467e-06	-1.361922e-09	-3.289405e+01	-8.871195e+01
6.400000e-07	-4.616707e-06	-1.371019e-09	-3.272563e+01	-8.845193e+01
6.500000e-07	-4.592717e-06	-1.371514e-09	-3.255557e+01	-8.818327e+01
6.600000e-07	-4.568537e-06	-1.361184e-09	-3.238417e+01	-8.790769e+01
6.700000e-07	-4.544006e-06	-1.340644e-09	-3.221028e+01	-8.762717e+01
6.800000e-07	-4.519007e-06	-1.343168e-09	-3.203307e+01	-8.734387e+01
6.900000e-07	-4.493430e-06	-1.344345e-09	-3.185177e+01	-8.705998e+01
7.000000e-07	-4.467282e-06	-1.341744e-09	-3.166642e+01	-8.677759e+01
7.100000e-07	-4.440543e-06	-1.327757e-09	-3.147689e+01	-8.649861e+01
7.200000e-07	-4.413337e-06	-1.330690e-09	-3.128403e+01	-8.622467e+01
7.300000e-07	-4.385866e-06	-1.337022e-09	-3.108930e+01	-8.595701e+01
7.400000e-07	-4.358226e-06	-1.337698e-09	-3.089338e+01	-8.569647e+01
7.500000e-07	-4.330436e-06	-1.320643e-09	-3.069639e+01	-8.544344e+01
7.600000e-07	-4.302424e-06	-1.311212e-09	-3.049783e+01	-8.519786e+01
7.700000e-07	-4.274202e-06	-1.310243e-09	-3.029777e+01	-8.495926e+01
7.800000e-07	-4.245728e-06	-1.307733e-09	-3.009594e+01	-8.472679e+01
7.900000e-07	-4.216970e-06	-1.297088e-09	-2.989208e+01	-8.449928e+01
8.000000e-07	-4.187873e-06	-1.292456e-09	-2.968583e+01	-8.427534e+01
8.100000e-07	-4.158475e-06	-1.295696e-09	-2.947744e+01	-8.405343e+01
8.200000e-07	-4.128789e-06	-1.300071e-09	-2.926701e+01	-8.383196e+01
8.300000e-07	-4.098839e-06	-1.297565e-09	-2.905471e+01	-8.360936e+01
8.400000e-07	-4.068712e-06	-1.288119e-09	-2.884115e+01	-8.338417e+01
8.500000e-07	-4.038305e-06	-1.284774e-09	-2.862561e+01	-8.315511e+01
8.600000e-07	-4.007450e-06	-1.282672e-09	-2.840690e+01	-8.292111e+01
8.700000e-07	-3.976299e-06	-1.277688e-09	-2.818608e+01	-8.268139e+01
8.800000e-07	-3.944924e-06	-1.265996e-09	-2.796368e+01	-8.243540e+01
8.900000e-07	-3.913346e-06	-1.263026e-09	-2.773983e+01	-8.218290e+01
9.000000e-07	-3.881648e-06	-1.265250e-09	-2.751515e+01	-8.192387e+01
9.100000e-07	-3.849783e-06	-1.267456e-09	-2.728927e+01	-8.165852e+01
9.200000e-07	-3.817740e-06	-1.258818e-09	-2.706213e+01	-8.138721e+01
9.300000e-07	-3.785407e-06	-1.256644e-09	-2.683294e+01	-8.111041e+01
9.400000e-07	-3.752721e-06	-1.258121e-09	-2.660124e+01	-8.082863e+01
9.500000e-07	-3.719720e-06	-1.259172e-09	-2.636732e+01	-8.054238e+01
9.600000e-07	-3.686315e-06	-1.248355e-09	-2.613052e+01	-8.025212e+01
9.700000e-07	-3.652418e-06	-1.236922e-09	-2.589024e+01	-7.995817e+01
9.800000e-07	-3.618104e-06	-1.229256e-09	-2.564700e+01	-7.966072e+01
9.900000e-07	-3.583394e-06	-1.229132e-09	-2.540096e+01	-7.935983e+01
1.000000e-06	-3.548355e-06	-1.223733e-09	-2.515259e+01	-7.905537e+01
1.010000e-06	-3.513051e-06	-1.220051e-09	-2.490234e+01	-7.874705e+01
1.020000e-06	-3.477523e-06	-1.220441e-09	-2.465050e+01	-7.843449e+01
1.030000e-06	-3.441856e-06	-1.223195e-09	-2.439767e+01	-7.811719e+01
1.040000e-06	-3.406060e-06	-1.216598e-09	-2.414393e+01	-7.779463e+01
1.050000e-06	-3.370101e-06	-1.204897e-09	-2.388903e+01	-7.746628e+01
1.060000e-06	-3.333983e-06	-1.191765e-09	-2.363301e+01	-7.713168e+01
1.070000e-06	-3.297628e-06	-1.182941e-09	-2.337530e+01	-7.679049e+01
1.080000e-06	-3.260952e-06	-1.175277e-09	-2.311533e+01	-7.644252e+01
1.090000e-06	-3.224077e-06	-1.169231e-09	-2.285394e+01	-7.608777e+01
1.100000e-06	-3.186979e-06	-1.166412e-09	-2.259097e+01	-7.572648e+01
1.110000e-06	-3.149599e-06	-1.166888e-09	-2.232600e+01	-7.535908e+01
1.120000e-06	-3.112021e-06	-1.162941e-09	-2.205962e+01	-7.498625e+01
1.130000e-06	-3.074226e-06	-1.151351e-09	-2.179172e+01	-7.460887e+01
1.140000e-06	-3.036232e-06	-1.138920e-09	-2.152240e+01	-7.422796e+01
1.150000e-06	-2.998088e-06	-1.129590e-09	-2.125201e+01	-7.384466e+01
1.160000e-06	-2.959776e-06	-1.122858e-09	-2.098044e+01	-7.346019e+01
1.170000e-06	-2.921335e-06	-1.115320e-09	-2.070795e+01	-7.307573e+01
1.180000e-06	-2.882588e-06	-1.109434e-09	-2.043328e+01	-7.269240e+01
1.190000e-06	-2.843440e-06	-1.104745e-09	-2.015579e+01	-7.231117e+01
1.200000e-06	-2.804156e-06	-1.104433e-09	-1.987732e+01	-7.193281e+01
1.210000e-06	-2.764745e-06	-1.102683e-09	-1.959795e+01	-7.155781e+01
1.220000e-06	-2.725183e-06	-1.098961e-09	-1.931752e+01	-7.118640e+01
1.230000e-06	-2.685575e-06	-1.092524e-09	-1.903676e+01	-7.081846e+01
1.240000e-06	-2.645903e-06	-1.086809e-09	-1.875554e+01	-7.045355e+01
1.250000e-06	-2.606127e-06	-1.078977e-09	-1.847358e+01	-7.009090e+01
1.260000e-06	-2.566183e-06	-1.070292e-09	-1.819044e+01	-6.972945e+01
1.270000e-06	-2.526027e-06	-1.058367e-09	-1.790580e+01	-6.936789e+01
1.280000e-06	-2.485742e-06	-1.051105e-09	-1.762024e+01	-6.900470e+01
1.290000e-06	-2.445377e-06	-1.045690e-09	-1.733411e+01	-6.863823e+01
1.300000e-06	-2.404815e-06	-1.042548e-09	-1.704658e+01	-6.826676e+01
1.310000e-06	-2.363993e-06	-1.037031e-09	-1.675722e+01	-6.788861e+01
1.320000e-06	-2.323011e-06	-1.030528e-09	-1.646671e+01	-6.750216e+01
1.330000e-06	-2.281879e-06	-1.023316e-09	-1.617515e+01	-6.710595e+01
1.340000e-06	-2.240422e-06	-1.016566e-09	-1.588128e+01	-6.669874e+01
1.350000e-06	-2.198558e-06	-1.011161e-09	-1.558452e+01	-6.627957e+01
1.360000e-06	-2.156357e-06	-1.004656e-09	-1.528538e+01	-6.584775e+01
1.370000e-06	-2.113897e-06	-9.960270e-10	-1.498440e+01	-6.540292e+01
1.380000e-06	-2.071146e-06	-9.880519e-10	-1.468137e+01	-6.494504e+01
1.390000e-06	-2.028178e-06	-9.811594e-10	-1.437679e+01	-6.447438e+01
1.400000e-06	-1.985069e-06	-9.741119e-10	-1.407120e+01	-6.399145e+01
1.410000e-06	-1.941718e-06	-9.658742e-10	-1.376391e+01	-6.349704e+01
1.420000e-06	-1.898150e-06	-9.576701e-10	-1.345508e+01	-6.299207e+01
1.430000e-06	-1.854549e-06	-9.508853e-10	-1.314601e+01	-6.247761e+01
1.440000e-06	-1.810920e-06	-9.459509e-10	-1.283674e+01	-6.195478e+01
1.450000e-06	-1.767185e-06	-9.403011e-10	-1.252673e+01	-6.142468e+01
1.460000e-06	-1.723360e-06	-9.342466e-10	-1.221608e+01	-6.088835e+01
1.470000e-06	-1.679464e-06	-9.304420e-10	-1.190491e+01	-6.034675e+01
1.480000e-06	-1.635487e-06	-9.265650e-10	-1.159319e+01	-5.980064e+01
1.490000e-06	-1.591458e-06	-9.219079e-10	-1.128109e+01	-5.925064e+01
1.500000e-06	-1.547402e-06	-9.134295e-10	-1.096880e+01	-5.869714e+01
1.510000e-06	-1.503313e-06	-9.029455e-10	-1.065626e+01	-5.814037e+01
1.520000e-06	-1.459192e-06	-8.908210e-10	-1.034352e+01	-5.758033e+01
1.530000e-06	-1.414988e-06	-8.786737e-10	-1.003018e+01	-5.701690e+01
1.540000e-06	-1.370645e-06	-8.674538e-10	-9.715845e+00	-5.644981e+01
1.550000e-06	-1.326199e-06	-8.595281e-10	-9.400787e+00	-5.587870e+01
1.560000e-06	-1.281600e-06	-8.541019e-10	-9.084647e+00	-5.530316e+01
1.570000e-06	-1.236842e-06	-8.500099e-10	-8.767379e+00	-5.472277e+01
1.580000e-06	-1.191994e-06	-8.434969e-10	-8.449478e+00	-5.413714e+01
1.590000e-06	-1.147069e-06	-8.336779e-10	-8.131020e+00	-5.354597e+01
1.600000e-06	-1.102048e-06	-8.217944e-10	-7.811892e+00	-5.294903e+01
1.610000e-06	-1.056918e-06	-8.103833e-10	-7.491987e+00	-5.234621e+01
1.620000e-06	-1.011702e-06	-7.990412e-10	-7.171472e+00	-5.173749e+01
1.630000e-06	-9.664529e-07	-7.891144e-10	-6.850722e+00	-5.112299e+01
1.640000e-06	-9.211472e-07	-7.805623e-10	-6.529571e+00	-5.050290e+01
1.650000e-06	-8.757744e-07	-7.737715e-10	-6.207946e+00	-4.987747e+01
1.660000e-06	-8.303808e-07	-7.655634e-10	-5.886172e+00	-4.924699e+01
1.670000e-06	-7.849404e-07	-7.573859e-10	-5.564067e+00	-4.861172e+01
1.680000e-06	-7.394798e-07	-7.478963e-10	-5.241818e+00	-4.797186e+01
1.690000e-06	-6.939772e-07	-7.363891e-10	-4.919272e+00	-4.732750e+01
1.700000e-06	-6.484365e-07	-7.242814e-10	-4.596456e+00	-4.667862e+01
1.710000e-06	-6.027988e-07	-7.140983e-10	-4.272952e+00	-4.602500e+01
1.720000e-06	-5.571151e-07	-7.043131e-10	-3.949123e+00	-4.536621e+01
1.730000e-06	-5.113433e-07	-6.946229e-10	-3.624668e+00	-4.470164e+01
1.740000e-06	-4.655446e-07	-6.864672e-10	-3.300023e+00	-4.403045e+01
1.750000e-06	-4.198213e-07	-6.776590e-10	-2.975912e+00	-4.335160e+01
1.760000e-06	-3.740462e-07	-6.663056e-10	-2.651434e+00	-4.266391e+01
1.770000e-06	-3.282224e-07	-6.520840e-10	-2.326612e+00	-4.196603e+01
1.780000e-06	-2.823249e-07	-6.397971e-10	-2.001266e+00	-4.125656e+01
1.790000e-06	-2.363353e-07	-6.273529e-10	-1.675268e+00	-4.053404e+01
1.800000e-06	-1.903410e-07	-6.122451e-10	-1.349236e+00	-3.979707e+01
1.810000e-06	-1.444180e-07	-5.956002e-10	-1.023710e+00	-3.904432e+01
1.820000e-06	-9.848576e-08	-5.821817e-10	-6.981184e-01	-3.827463e+01
1.830000e-06	-5.256860e-08	-5.711291e-10	-3.726336e-01	-3.748701e+01
1.840000e-06	-6.756848e-09	-5.608086e-10	-4.789606e-02	-3.668076e+01
1.850000e-06	3.907755e-08	-5.495721e-10	2.770020e-01	-3.585540e+01
1.860000e-06	8.493885e-08	-5.403802e-10	6.020908e-01	-3.501079e+01
1.870000e-06	1.307443e-07	-5.326814e-10	9.267840e-01	-3.414706e+01
1.880000e-06	1.766155e-07	-5.221446e-10	1.251942e+00	-3.326463e+01
1.890000e-06	2.225044e-07	-5.033334e-10	1.577227e+00	-3.236416e+01
1.900000e-06	2.683195e-07	-4.800496e-10	1.901988e+00	-3.144655e+01
1.910000e-06	3.141230e-07	-4.585977e-10	2.226668e+00	-3.051285e+01
1.920000e-06	3.598966e-07	-4.420179e-10	2.551135e+00	-2.956422e+01
1.930000e-06	4.056587e-07	-4.289287e-10	2.875520e+00	-2.860187e+01
1.940000e-06	4.514537e-07	-4.171413e-10	3.200139e+00	-2.762697e+01
1.950000e-06	4.972101e-07	-4.071261e-10	3.524485e+00	-2.664063e+01
1.960000e-06	5.429575e-07	-3.978069e-10	3.848766e+00	-2.564378e+01
1.970000e-06	5.886464e-07	-3.824726e-10	4.172633e+00	-2.463721e+01
1.980000e-06	6.342225e-07	-3.592253e-10	4.495699e+00	-2.362146e+01
1.990000e-06	6.797776e-07	-3.341415e-10	4.818618e+00	-2.259682e+01
2.000000e-06	7.252871e-07	-3.151200e-10	5.141213e+00	-2.156334e+01
2.010000e-06	7.708330e-07	-3.019544e-10	5.464066e+00	-2.052081e+01
2.020000e-06	8.162933e-07	-2.897638e-10	5.786312e+00	-1.946883e+01
2.030000e-06	8.616245e-07	-2.776383e-10	6.107644e+00	-1.840676e+01
2.040000e-06	9.069801e-07	-2.655352e-10	6.429148e+00	-1.733387e+01
2.050000e-06	9.522276e-07	-2.504040e-10	6.749886e+00	-1.624932e+01
2.060000e-06	9.973504e-07	-2.290295e-10	7.069739e+00	-1.515224e+01
2.070000e-06	1.042445e-06	-2.061345e-10	7.389390e+00	-1.404178e+01
2.080000e-06	1.087457e-06	-1.860582e-10	7.708466e+00	-1.291721e+01
2.090000e-06	1.132375e-06	-1.707721e-10	8.026865e+00	-1.177792e+01
2.100000e-06	1.177165e-06	-1.566113e-10	8.344358e+00	-1.062349e+01
2.110000e-06	1.221802e-06	-1.410721e-10	8.660769e+00	-9.453701e+00
2.120000e-06	1.266345e-06	-1.233633e-10	8.976515e+00	-8.268599e+00
2.130000e-06	1.310788e-06	-1.048983e-10	9.291546e+00	-7.068453e+00
2.140000e-06	1.355139e-06	-8.461873e-11	9.605929e+00	-5.853773e+00
2.150000e-06	1.399457e-06	-6.302489e-11	9.920078e+00	-4.625282e+00
2.160000e-06	1.443710e-06	-4.553992e-11	1.023377e+01	-3.383885e+00
2.170000e-06	1.487844e-06	-2.919874e-11	1.054662e+01	-2.130630e+00
2.180000e-06	1.531904e-06	-1.230252e-11	1.085894e+01	-8.666536e-01
2.190000e-06	1.575910e-06	3.319419e-12	1.117087e+01	4.068643e-01
2.200000e-06	1.619845e-06	1.951516e-11	1.148230e+01	1.688757e+00
2.210000e-06	1.663723e-06	3.827987e-11	1.179334e+01	2.977917e+00
2.220000e-06	1.707572e-06	6.177734e-11	1.210416e+01	4.273344e+00
2.230000e-06	1.751356e-06	8.706463e-11	1.241453e+01	5.574174e+00
2.240000e-06	1.795077e-06	1.113367e-10	1.272444e+01	6.879708e+00
2.250000e-06	1.838736e-06	1.298844e-10	1.303392e+01	8.189420e+00
2.260000e-06	1.882342e-06	1.455515e-10	1.334302e+01	9.502962e+00
2.270000e-06	1.925860e-06	1.651114e-10	1.365150e+01	1.082015e+01
2.280000e-06	1.969218e-06	1.866908e-10	1.395885e+01	1.214093e+01
2.290000e-06	2.012363e-06	2.061744e-10	1.426468e+01	1.346537e+01
2.300000e-06	2.055257e-06	2.247950e-10	1.456873e+01	1.479358e+01
2.310000e-06	2.097978e-06	2.472103e-10	1.487156e+01	1.612570e+01
2.320000e-06	2.140529e-06	2.726883e-10	1.517318e+01	1.746185e+01
2.330000e-06	2.182780e-06	2.944188e-10	1.547269e+01	1.880205e+01
2.340000e-06	2.224784e-06	3.101331e-10	1.577043e+01	2.014622e+01
2.350000e-06	2.266569e-06	3.254963e-10	1.606662e+01	2.149412e+01
2.360000e-06	2.307960e-06	3.463486e-10	1.636003e+01	2.284533e+01
2.370000e-06	2.348992e-06	3.706755e-10	1.665088e+01	2.419922e+01
2.380000e-06	2.389739e-06	3.939158e-10	1.693972e+01	2.555498e+01
2.390000e-06	2.430307e-06	4.168858e-10	1.722728e+01	2.691159e+01
2.400000e-06	2.470685e-06	4.400259e-10	1.751351e+01	2.826785e+01
2.410000e-06	2.510886e-06	4.599197e-10	1.779847e+01	2.962244e+01
2.420000e-06	2.550991e-06	4.795027e-10	1.808276e+01	3.097390e+01
2.430000e-06	2.590970e-06	5.002096e-10	1.836615e+01	3.232074e+01
2.440000e-06	2.630823e-06	5.231041e-10	1.864864e+01	3.366143e+01
2.450000e-06	2.670581e-06	5.459364e-10	1.893047e+01	3.499446e+01
2.460000e-06	2.710311e-06	5.696452e-10	1.921210e+01	3.631843e+01
2.470000e-06	2.749916e-06	5.915921e-10	1.949284e+01	3.763203e+01
2.480000e-06	2.789272e-06	6.095613e-10	1.977182e+01	3.893411e+01
2.490000e-06	2.828414e-06	6.260034e-10	2.004927e+01	4.022369e+01
2.500000e-06	2.867390e-06	6.447697e-10	2.032555e+01	4.150000e+01
2.510000e-06	2.906113e-06	6.690993e-10	2.060004e+01	4.276244e+01
2.520000e-06	2.944625e-06	6.968023e-10	2.087304e+01	4.401062e+01
2.530000e-06	2.982986e-06	7.237824e-10	2.114496e+01	4.524429e+01
2.540000e-06	3.021112e-06	7.453661e-10	2.141522e+01	4.646337e+01
2.550000e-06	3.059028e-06	7.606718e-10	2.168398e+01	4.766789e+01
2.560000e-06	3.096717e-06	7.725109e-10	2.195114e+01	4.885795e+01
2.570000e-06	3.134200e-06	7.838651e-10	2.221685e+01	5.003371e+01
2.580000e-06	3.171517e-06	7.963714e-10	2.248137e+01	5.119530e+01
2.590000e-06	3.208564e-06	8.153826e-10	2.274398e+01	5.234284e+01
2.600000e-06	3.245378e-06	8.418692e-10	2.300493e+01	5.347640e+01
2.610000e-06	3.281955e-06	8.710147e-10	2.326421e+01	5.459594e+01
2.620000e-06	3.318284e-06	8.951188e-10	2.352173e+01	5.570134e+01
2.630000e-06	3.354450e-06	9.122157e-10	2.377809e+01	5.679238e+01
2.640000e-06	3.390468e-06	9.221981e-10	2.403340e+01	5.786874e+01
2.650000e-06	3.426362e-06	9.283582e-10	2.428784e+01	5.893002e+01
2.660000e-06	3.462086e-06	9.340405e-10	2.454107e+01	5.997575e+01
2.670000e-06	3.497677e-06	9.461230e-10	2.479336e+01	6.100542e+01
2.680000e-06	3.533080e-06	9.647061e-10	2.504432e+01	6.201850e+01
2.690000e-06	3.568251e-06	9.878274e-10	2.529362e+01	6.301449e+01
2.700000e-06	3.603129e-06	1.011601e-09	2.554086e+01	6.399292e+01
2.710000e-06	3.637524e-06	1.031706e-09	2.578467e+01	6.495340e+01
2.720000e-06	3.671437e-06	1.044484e-09	2.602506e+01	6.589562e+01
2.730000e-06	3.704919e-06	1.053157e-09	2.626239e+01	6.681936e+01
2.740000e-06	3.737977e-06	1.060362e-09	2.649673e+01	6.772452e+01
2.750000e-06	3.770617e-06	1.069529e-09	2.672810e+01	6.861109e+01
2.760000e-06	3.802887e-06	1.081229e-09	2.695685e+01	6.947913e+01
2.770000e-06	3.834922e-06	1.094573e-09	2.718393e+01	7.032879e+01
2.780000e-06	3.866854e-06	1.110519e-09	2.741028e+01	7.116024e+01
2.790000e-06	3.898683e-06	1.124759e-09	2.763590e+01	7.197368e+01
2.800000e-06	3.930358e-06	1.132911e-09	2.786043e+01	7.276928e+01
2.810000e-06	3.961849e-06	1.135834e-09	2.808365e+01	7.354715e+01
2.820000e-06	3.993069e-06	1.142856e-09	2.830496e+01	7.430733e+01
2.830000e-06	4.023921e-06	1.156352e-09	2.852365e+01	7.504975e+01
2.840000e-06	4.054397e-06	1.172446e-09	2.873968e+01	7.577424e+01
2.850000e-06	4.084575e-06	1.187244e-09	2.895360e+01	7.648049e+01
2.860000e-06	4.114512e-06	1.199701e-09	2.916581e+01	7.716810e+01
2.870000e-06	4.144179e-06	1.208767e-09	2.937610e+01	7.783655e+01
2.880000e-06	4.173624e-06	1.213085e-09	2.958482e+01	7.848524e+01
2.890000e-06	4.202814e-06	1.212170e-09	2.979174e+01	7.911356e+01
2.900000e-06	4.231741e-06	1.215736e-09	2.999679e+01	7.972086e+01
