# Temperatura_=_13.6
# Concentracion g/m^3_=_4090.0
# C_Vs_to_Am_M_A/Vsm_=_65563218390.804596
# pendiente_HvsI_1/m_=_3716.3
# ordenada_HvsI_A/m_=_1297.0
# frecuencia_Hz_=_135087.82820019164

Tiempo_(s)	Campo_(V.s)	Magnetizacion_(V.s)	Campo_(kA/m)	Magnetizacion_(A/m)
0.000000e+00	-5.403510e-06	-1.311356e-09	-3.837569e+01	-8.711442e+01
1.000000e-08	-5.403627e-06	-1.302456e-09	-3.837652e+01	-8.697634e+01
2.000000e-08	-5.403492e-06	-1.294893e-09	-3.837556e+01	-8.681764e+01
3.000000e-08	-5.403071e-06	-1.293548e-09	-3.837257e+01	-8.663950e+01
4.000000e-08	-5.402225e-06	-1.300587e-09	-3.836657e+01	-8.644422e+01
5.000000e-08	-5.400819e-06	-1.310486e-09	-3.835658e+01	-8.623518e+01
6.000000e-08	-5.398803e-06	-1.328971e-09	-3.834226e+01	-8.601682e+01
7.000000e-08	-5.396185e-06	-1.334253e-09	-3.832367e+01	-8.579444e+01
8.000000e-08	-5.393071e-06	-1.290709e-09	-3.830155e+01	-8.557405e+01
9.000000e-08	-5.389363e-06	-1.220690e-09	-3.827522e+01	-8.536214e+01
1.000000e-07	-5.385251e-06	-1.294455e-09	-3.824602e+01	-8.516540e+01
1.100000e-07	-5.380875e-06	-1.379676e-09	-3.821494e+01	-8.499045e+01
1.200000e-07	-5.376321e-06	-1.313543e-09	-3.818259e+01	-8.484354e+01
1.300000e-07	-5.371636e-06	-1.194716e-09	-3.814932e+01	-8.473024e+01
1.400000e-07	-5.366569e-06	-1.298343e-09	-3.811334e+01	-8.465522e+01
1.500000e-07	-5.361044e-06	-1.430794e-09	-3.807410e+01	-8.462195e+01
1.600000e-07	-5.355106e-06	-1.334858e-09	-3.803193e+01	-8.463256e+01
1.700000e-07	-5.348749e-06	-1.109700e-09	-3.798678e+01	-8.468768e+01
1.800000e-07	-5.341962e-06	-1.229915e-09	-3.793858e+01	-8.478639e+01
1.900000e-07	-5.334857e-06	-1.373343e-09	-3.788812e+01	-8.492617e+01
2.000000e-07	-5.327500e-06	-1.328131e-09	-3.783587e+01	-8.510303e+01
2.100000e-07	-5.319881e-06	-1.204736e-09	-3.778176e+01	-8.531157e+01
2.200000e-07	-5.312086e-06	-1.335569e-09	-3.772640e+01	-8.554525e+01
2.300000e-07	-5.303917e-06	-1.416689e-09	-3.766838e+01	-8.579657e+01
2.400000e-07	-5.295327e-06	-1.312340e-09	-3.760738e+01	-8.605739e+01
2.500000e-07	-5.286280e-06	-1.307368e-09	-3.754313e+01	-8.631926e+01
2.600000e-07	-5.276505e-06	-1.416908e-09	-3.747370e+01	-8.657369e+01
2.700000e-07	-5.266062e-06	-1.394975e-09	-3.739954e+01	-8.681258e+01
2.800000e-07	-5.255125e-06	-1.276638e-09	-3.732186e+01	-8.702842e+01
2.900000e-07	-5.243741e-06	-1.350721e-09	-3.724101e+01	-8.721466e+01
3.000000e-07	-5.231958e-06	-1.407355e-09	-3.715733e+01	-8.736588e+01
3.100000e-07	-5.219826e-06	-1.323775e-09	-3.707117e+01	-8.747801e+01
3.200000e-07	-5.207323e-06	-1.265203e-09	-3.698237e+01	-8.754844e+01
3.300000e-07	-5.194441e-06	-1.406673e-09	-3.689089e+01	-8.757607e+01
3.400000e-07	-5.181182e-06	-1.386421e-09	-3.679672e+01	-8.756127e+01
3.500000e-07	-5.167543e-06	-1.319514e-09	-3.669986e+01	-8.750583e+01
3.600000e-07	-5.153460e-06	-1.322014e-09	-3.659984e+01	-8.741281e+01
3.700000e-07	-5.138875e-06	-1.382233e-09	-3.649625e+01	-8.728630e+01
3.800000e-07	-5.123708e-06	-1.292936e-09	-3.638854e+01	-8.713123e+01
3.900000e-07	-5.107978e-06	-1.300466e-09	-3.627682e+01	-8.695308e+01
4.000000e-07	-5.091691e-06	-1.337897e-09	-3.616116e+01	-8.675760e+01
4.100000e-07	-5.075030e-06	-1.323774e-09	-3.604283e+01	-8.655052e+01
4.200000e-07	-5.058159e-06	-1.291892e-09	-3.592301e+01	-8.633728e+01
4.300000e-07	-5.041014e-06	-1.360098e-09	-3.580125e+01	-8.612282e+01
4.400000e-07	-5.023536e-06	-1.342019e-09	-3.567712e+01	-8.591130e+01
4.500000e-07	-5.005875e-06	-1.283093e-09	-3.555169e+01	-8.570604e+01
4.600000e-07	-4.987863e-06	-1.284202e-09	-3.542377e+01	-8.550932e+01
4.700000e-07	-4.969417e-06	-1.322623e-09	-3.529277e+01	-8.532243e+01
4.800000e-07	-4.950562e-06	-1.294373e-09	-3.515886e+01	-8.514560e+01
4.900000e-07	-4.931214e-06	-1.281703e-09	-3.502145e+01	-8.497811e+01
5.000000e-07	-4.911571e-06	-1.297853e-09	-3.488194e+01	-8.481839e+01
5.100000e-07	-4.891746e-06	-1.297622e-09	-3.474115e+01	-8.466422e+01
5.200000e-07	-4.871825e-06	-1.295848e-09	-3.459967e+01	-8.451285e+01
5.300000e-07	-4.851670e-06	-1.285419e-09	-3.445653e+01	-8.436126e+01
5.400000e-07	-4.831112e-06	-1.272328e-09	-3.431052e+01	-8.420635e+01
5.500000e-07	-4.810213e-06	-1.276805e-09	-3.416210e+01	-8.404517e+01
5.600000e-07	-4.788952e-06	-1.303274e-09	-3.401110e+01	-8.387510e+01
5.700000e-07	-4.767310e-06	-1.287042e-09	-3.385740e+01	-8.369404e+01
5.800000e-07	-4.745423e-06	-1.266498e-09	-3.370196e+01	-8.350049e+01
5.900000e-07	-4.723250e-06	-1.258049e-09	-3.354449e+01	-8.329369e+01
6.000000e-07	-4.700759e-06	-1.267055e-09	-3.338476e+01	-8.307363e+01
6.100000e-07	-4.677949e-06	-1.255782e-09	-3.322277e+01	-8.284108e+01
6.200000e-07	-4.654802e-06	-1.252771e-09	-3.305837e+01	-8.259749e+01
6.300000e-07	-4.631311e-06	-1.240343e-09	-3.289154e+01	-8.234494e+01
6.400000e-07	-4.607507e-06	-1.266277e-09	-3.272249e+01	-8.208598e+01
6.500000e-07	-4.583524e-06	-1.275337e-09	-3.255216e+01	-8.182352e+01
6.600000e-07	-4.559260e-06	-1.261963e-09	-3.237983e+01	-8.156060e+01
6.700000e-07	-4.534632e-06	-1.229318e-09	-3.220493e+01	-8.130025e+01
6.800000e-07	-4.509704e-06	-1.235515e-09	-3.202789e+01	-8.104532e+01
6.900000e-07	-4.484316e-06	-1.231723e-09	-3.184758e+01	-8.079829e+01
7.000000e-07	-4.458426e-06	-1.225589e-09	-3.166371e+01	-8.056115e+01
7.100000e-07	-4.431995e-06	-1.212565e-09	-3.147600e+01	-8.033530e+01
7.200000e-07	-4.405033e-06	-1.226098e-09	-3.128452e+01	-8.012144e+01
7.300000e-07	-4.377694e-06	-1.236855e-09	-3.109035e+01	-7.991960e+01
7.400000e-07	-4.350066e-06	-1.241393e-09	-3.089414e+01	-7.972908e+01
7.500000e-07	-4.322240e-06	-1.221885e-09	-3.069652e+01	-7.954855e+01
7.600000e-07	-4.294251e-06	-1.214662e-09	-3.049774e+01	-7.937611e+01
7.700000e-07	-4.266056e-06	-1.216151e-09	-3.029750e+01	-7.920939e+01
7.800000e-07	-4.237601e-06	-1.214529e-09	-3.009541e+01	-7.904572e+01
7.900000e-07	-4.208842e-06	-1.199498e-09	-2.989117e+01	-7.888224e+01
8.000000e-07	-4.179747e-06	-1.192864e-09	-2.968453e+01	-7.871611e+01
8.100000e-07	-4.150358e-06	-1.199041e-09	-2.947582e+01	-7.854459e+01
8.200000e-07	-4.120720e-06	-1.204036e-09	-2.926532e+01	-7.836525e+01
8.300000e-07	-4.090764e-06	-1.197627e-09	-2.905258e+01	-7.817606e+01
8.400000e-07	-4.060497e-06	-1.183214e-09	-2.883762e+01	-7.797548e+01
8.500000e-07	-4.030049e-06	-1.183396e-09	-2.862138e+01	-7.776253e+01
8.600000e-07	-3.999329e-06	-1.187843e-09	-2.840321e+01	-7.753684e+01
8.700000e-07	-3.968333e-06	-1.186670e-09	-2.818308e+01	-7.729862e+01
8.800000e-07	-3.937032e-06	-1.171091e-09	-2.796077e+01	-7.704861e+01
8.900000e-07	-3.905511e-06	-1.166415e-09	-2.773691e+01	-7.678805e+01
9.000000e-07	-3.873870e-06	-1.163625e-09	-2.751220e+01	-7.651859e+01
9.100000e-07	-3.842022e-06	-1.165248e-09	-2.728602e+01	-7.624212e+01
9.200000e-07	-3.809985e-06	-1.155564e-09	-2.705849e+01	-7.596071e+01
9.300000e-07	-3.777771e-06	-1.158727e-09	-2.682970e+01	-7.567645e+01
9.400000e-07	-3.745265e-06	-1.168809e-09	-2.659885e+01	-7.539132e+01
9.500000e-07	-3.712284e-06	-1.179217e-09	-2.636461e+01	-7.510711e+01
9.600000e-07	-3.678909e-06	-1.167554e-09	-2.612758e+01	-7.482528e+01
9.700000e-07	-3.645208e-06	-1.152075e-09	-2.588824e+01	-7.454694e+01
9.800000e-07	-3.611184e-06	-1.136878e-09	-2.564661e+01	-7.427276e+01
9.900000e-07	-3.576737e-06	-1.132016e-09	-2.540196e+01	-7.400296e+01
1.000000e-06	-3.541821e-06	-1.122992e-09	-2.515399e+01	-7.373734e+01
1.010000e-06	-3.506646e-06	-1.122540e-09	-2.490418e+01	-7.347529e+01
1.020000e-06	-3.471251e-06	-1.127701e-09	-2.465280e+01	-7.321590e+01
1.030000e-06	-3.435599e-06	-1.137850e-09	-2.439960e+01	-7.295796e+01
1.040000e-06	-3.399792e-06	-1.135135e-09	-2.414530e+01	-7.270015e+01
1.050000e-06	-3.363847e-06	-1.122754e-09	-2.389002e+01	-7.244107e+01
1.060000e-06	-3.327655e-06	-1.107592e-09	-2.363298e+01	-7.217935e+01
1.070000e-06	-3.291285e-06	-1.098006e-09	-2.337468e+01	-7.191380e+01
1.080000e-06	-3.254776e-06	-1.090146e-09	-2.311540e+01	-7.164341e+01
1.090000e-06	-3.217988e-06	-1.086222e-09	-2.285413e+01	-7.136749e+01
1.100000e-06	-3.180962e-06	-1.085575e-09	-2.259117e+01	-7.108567e+01
1.110000e-06	-3.143771e-06	-1.089548e-09	-2.232704e+01	-7.079794e+01
1.120000e-06	-3.106432e-06	-1.093289e-09	-2.206186e+01	-7.050463e+01
1.130000e-06	-3.068871e-06	-1.087423e-09	-2.179510e+01	-7.020638e+01
1.140000e-06	-3.031045e-06	-1.076794e-09	-2.152646e+01	-6.990412e+01
1.150000e-06	-2.992993e-06	-1.068415e-09	-2.125621e+01	-6.959897e+01
1.160000e-06	-2.954756e-06	-1.064499e-09	-2.098466e+01	-6.929215e+01
1.170000e-06	-2.916357e-06	-1.057300e-09	-2.071194e+01	-6.898492e+01
1.180000e-06	-2.877697e-06	-1.048145e-09	-2.043738e+01	-6.867846e+01
1.190000e-06	-2.838796e-06	-1.038242e-09	-2.016111e+01	-6.837379e+01
1.200000e-06	-2.799672e-06	-1.039316e-09	-1.988325e+01	-6.807169e+01
1.210000e-06	-2.760237e-06	-1.040314e-09	-1.960319e+01	-6.777266e+01
1.220000e-06	-2.720686e-06	-1.038082e-09	-1.932230e+01	-6.747680e+01
1.230000e-06	-2.680976e-06	-1.030965e-09	-1.904027e+01	-6.718390e+01
1.240000e-06	-2.641091e-06	-1.027564e-09	-1.875701e+01	-6.689333e+01
1.250000e-06	-2.601218e-06	-1.022683e-09	-1.847383e+01	-6.660413e+01
1.260000e-06	-2.561269e-06	-1.015536e-09	-1.819012e+01	-6.631507e+01
1.270000e-06	-2.521264e-06	-1.004042e-09	-1.790600e+01	-6.602464e+01
1.280000e-06	-2.481142e-06	-1.000059e-09	-1.762105e+01	-6.573122e+01
1.290000e-06	-2.440802e-06	-9.979871e-10	-1.733456e+01	-6.543312e+01
1.300000e-06	-2.400323e-06	-9.944224e-10	-1.704708e+01	-6.512868e+01
1.310000e-06	-2.359658e-06	-9.846852e-10	-1.675827e+01	-6.481639e+01
1.320000e-06	-2.318680e-06	-9.803509e-10	-1.646725e+01	-6.449496e+01
1.330000e-06	-2.277447e-06	-9.790458e-10	-1.617442e+01	-6.416339e+01
1.340000e-06	-2.235943e-06	-9.783400e-10	-1.587965e+01	-6.382105e+01
1.350000e-06	-2.194177e-06	-9.744952e-10	-1.558303e+01	-6.346768e+01
1.360000e-06	-2.152259e-06	-9.696537e-10	-1.528533e+01	-6.310345e+01
1.370000e-06	-2.110077e-06	-9.617421e-10	-1.498575e+01	-6.272890e+01
1.380000e-06	-2.067549e-06	-9.519841e-10	-1.468372e+01	-6.234494e+01
1.390000e-06	-2.024764e-06	-9.428947e-10	-1.437986e+01	-6.195280e+01
1.400000e-06	-1.981812e-06	-9.359190e-10	-1.407481e+01	-6.155391e+01
1.410000e-06	-1.938725e-06	-9.313705e-10	-1.376881e+01	-6.114986e+01
1.420000e-06	-1.895432e-06	-9.294294e-10	-1.346135e+01	-6.074227e+01
1.430000e-06	-1.851938e-06	-9.281821e-10	-1.315245e+01	-6.033272e+01
1.440000e-06	-1.808384e-06	-9.218909e-10	-1.284313e+01	-5.992263e+01
1.450000e-06	-1.764745e-06	-9.110986e-10	-1.253321e+01	-5.951318e+01
1.460000e-06	-1.720999e-06	-9.005791e-10	-1.222252e+01	-5.910524e+01
1.470000e-06	-1.677201e-06	-8.937421e-10	-1.191147e+01	-5.869931e+01
1.480000e-06	-1.633300e-06	-8.879353e-10	-1.159968e+01	-5.829550e+01
1.490000e-06	-1.589328e-06	-8.852119e-10	-1.128739e+01	-5.789349e+01
1.500000e-06	-1.545249e-06	-8.826514e-10	-1.097435e+01	-5.749259e+01
1.510000e-06	-1.501083e-06	-8.803592e-10	-1.066068e+01	-5.709171e+01
1.520000e-06	-1.456882e-06	-8.730218e-10	-1.034676e+01	-5.668949e+01
1.530000e-06	-1.412611e-06	-8.628404e-10	-1.003235e+01	-5.628431e+01
1.540000e-06	-1.368248e-06	-8.498667e-10	-9.717289e+00	-5.587442e+01
1.550000e-06	-1.323782e-06	-8.419220e-10	-9.401489e+00	-5.545801e+01
1.560000e-06	-1.279289e-06	-8.365823e-10	-9.085498e+00	-5.503329e+01
1.570000e-06	-1.234725e-06	-8.326322e-10	-8.769008e+00	-5.459860e+01
1.580000e-06	-1.190031e-06	-8.285704e-10	-8.451592e+00	-5.415251e+01
1.590000e-06	-1.145225e-06	-8.257811e-10	-8.133382e+00	-5.369381e+01
1.600000e-06	-1.100320e-06	-8.212832e-10	-7.814464e+00	-5.322164e+01
1.610000e-06	-1.055342e-06	-8.133596e-10	-7.495033e+00	-5.273546e+01
1.620000e-06	-1.010301e-06	-7.975543e-10	-7.175153e+00	-5.223507e+01
1.630000e-06	-9.652147e-07	-7.819843e-10	-6.854948e+00	-5.172058e+01
1.640000e-06	-9.200960e-07	-7.740384e-10	-6.534515e+00	-5.119240e+01
1.650000e-06	-8.747917e-07	-7.717719e-10	-6.212765e+00	-5.065113e+01
1.660000e-06	-8.294016e-07	-7.661205e-10	-5.890404e+00	-5.009755e+01
1.670000e-06	-7.840868e-07	-7.593215e-10	-5.568579e+00	-4.953246e+01
1.680000e-06	-7.387128e-07	-7.521990e-10	-5.246333e+00	-4.895665e+01
1.690000e-06	-6.932536e-07	-7.434354e-10	-4.923483e+00	-4.837081e+01
1.700000e-06	-6.477694e-07	-7.304702e-10	-4.600454e+00	-4.777540e+01
1.710000e-06	-6.021656e-07	-7.167686e-10	-4.276576e+00	-4.717063e+01
1.720000e-06	-5.565208e-07	-7.079110e-10	-3.952407e+00	-4.655640e+01
1.730000e-06	-5.109295e-07	-7.027196e-10	-3.628618e+00	-4.593222e+01
1.740000e-06	-4.652788e-07	-6.959654e-10	-3.304407e+00	-4.529724e+01
1.750000e-06	-4.195848e-07	-6.847968e-10	-2.979889e+00	-4.465025e+01
1.760000e-06	-3.739056e-07	-6.738070e-10	-2.655475e+00	-4.398968e+01
1.770000e-06	-3.281794e-07	-6.607572e-10	-2.330728e+00	-4.331368e+01
1.780000e-06	-2.824187e-07	-6.470230e-10	-2.005736e+00	-4.262018e+01
1.790000e-06	-2.366922e-07	-6.333956e-10	-1.680986e+00	-4.190695e+01
1.800000e-06	-1.909113e-07	-6.210661e-10	-1.355851e+00	-4.117169e+01
1.810000e-06	-1.451239e-07	-6.074784e-10	-1.030669e+00	-4.041215e+01
1.820000e-06	-9.934645e-08	-5.958598e-10	-7.055578e-01	-3.962619e+01
1.830000e-06	-5.357171e-08	-5.839522e-10	-3.804659e-01	-3.881186e+01
1.840000e-06	-7.742559e-09	-5.704791e-10	-5.498760e-02	-3.796749e+01
1.850000e-06	3.815778e-08	-5.582174e-10	2.709963e-01	-3.709175e+01
1.860000e-06	8.400502e-08	-5.480342e-10	5.966031e-01	-3.618365e+01
1.870000e-06	1.298281e-07	-5.357746e-10	9.220381e-01	-3.524261e+01
1.880000e-06	1.756009e-07	-5.226197e-10	1.247116e+00	-3.426841e+01
1.890000e-06	2.213604e-07	-5.059715e-10	1.572100e+00	-3.326120e+01
1.900000e-06	2.671728e-07	-4.866637e-10	1.897459e+00	-3.222146e+01
1.910000e-06	3.129795e-07	-4.650976e-10	2.222778e+00	-3.114993e+01
1.920000e-06	3.588022e-07	-4.434873e-10	2.548211e+00	-3.004753e+01
1.930000e-06	4.046058e-07	-4.243735e-10	2.873507e+00	-2.891533e+01
1.940000e-06	4.503668e-07	-4.088693e-10	3.198502e+00	-2.775445e+01
1.950000e-06	4.960391e-07	-3.929553e-10	3.522866e+00	-2.656598e+01
1.960000e-06	5.416652e-07	-3.753698e-10	3.846902e+00	-2.535092e+01
1.970000e-06	5.871809e-07	-3.571236e-10	4.170155e+00	-2.411012e+01
1.980000e-06	6.326238e-07	-3.378728e-10	4.492890e+00	-2.284425e+01
1.990000e-06	6.781342e-07	-3.157767e-10	4.816105e+00	-2.155377e+01
2.000000e-06	7.235973e-07	-2.912893e-10	5.138983e+00	-2.023892e+01
2.010000e-06	7.690313e-07	-2.669129e-10	5.461655e+00	-1.889972e+01
2.020000e-06	8.144406e-07	-2.450514e-10	5.784151e+00	-1.753600e+01
2.030000e-06	8.598723e-07	-2.250023e-10	6.106807e+00	-1.614744e+01
2.040000e-06	9.052060e-07	-2.025300e-10	6.428767e+00	-1.473365e+01
2.050000e-06	9.504427e-07	-1.804415e-10	6.750038e+00	-1.329417e+01
2.060000e-06	9.955157e-07	-1.600083e-10	7.070146e+00	-1.182859e+01
2.070000e-06	1.040346e-06	-1.376505e-10	7.388527e+00	-1.033658e+01
2.080000e-06	1.085187e-06	-1.111211e-10	7.706989e+00	-8.817952e+00
2.090000e-06	1.130010e-06	-8.540434e-11	8.025321e+00	-7.272732e+00
2.100000e-06	1.174723e-06	-6.116740e-11	8.342875e+00	-5.701178e+00
2.110000e-06	1.219319e-06	-3.647288e-11	8.659596e+00	-4.103815e+00
2.120000e-06	1.263806e-06	-9.382833e-12	8.975539e+00	-2.481445e+00
2.130000e-06	1.308236e-06	1.459061e-11	9.291083e+00	-8.351473e-01
2.140000e-06	1.352586e-06	3.358707e-11	9.606055e+00	8.337423e-01
2.150000e-06	1.396853e-06	5.379931e-11	9.920443e+00	2.523661e+00
2.160000e-06	1.441057e-06	7.908972e-11	1.023438e+01	4.232859e+00
2.170000e-06	1.485172e-06	1.075252e-10	1.054768e+01	5.959447e+00
2.180000e-06	1.529217e-06	1.357584e-10	1.086049e+01	7.701452e+00
2.190000e-06	1.573205e-06	1.619915e-10	1.117289e+01	9.456862e+00
2.200000e-06	1.617111e-06	1.889385e-10	1.148471e+01	1.122368e+01
2.210000e-06	1.660942e-06	2.164829e-10	1.179600e+01	1.299996e+01
2.220000e-06	1.704750e-06	2.431720e-10	1.210712e+01	1.478384e+01
2.230000e-06	1.748554e-06	2.680219e-10	1.241822e+01	1.657357e+01
2.240000e-06	1.792319e-06	2.941508e-10	1.272903e+01	1.836750e+01
2.250000e-06	1.836021e-06	3.231358e-10	1.303941e+01	2.016408e+01
2.260000e-06	1.879629e-06	3.527305e-10	1.334911e+01	2.196185e+01
2.270000e-06	1.923021e-06	3.824016e-10	1.365728e+01	2.375939e+01
2.280000e-06	1.966231e-06	4.119172e-10	1.396416e+01	2.555529e+01
2.290000e-06	2.009307e-06	4.399942e-10	1.427008e+01	2.734811e+01
2.300000e-06	2.052224e-06	4.652620e-10	1.457488e+01	2.913631e+01
2.310000e-06	2.094925e-06	4.878480e-10	1.487814e+01	3.091826e+01
2.320000e-06	2.137248e-06	5.121130e-10	1.517872e+01	3.269212e+01
2.330000e-06	2.179271e-06	5.398614e-10	1.547717e+01	3.445588e+01
2.340000e-06	2.220913e-06	5.672868e-10	1.577291e+01	3.620732e+01
2.350000e-06	2.262062e-06	5.933387e-10	1.606515e+01	3.794401e+01
2.360000e-06	2.302973e-06	6.182451e-10	1.635570e+01	3.966331e+01
2.370000e-06	2.343771e-06	6.459983e-10	1.664545e+01	4.136243e+01
2.380000e-06	2.384399e-06	6.742498e-10	1.693399e+01	4.303847e+01
2.390000e-06	2.424778e-06	6.983214e-10	1.722076e+01	4.468847e+01
2.400000e-06	2.465065e-06	7.176902e-10	1.750687e+01	4.630950e+01
2.410000e-06	2.505250e-06	7.401638e-10	1.779227e+01	4.789872e+01
2.420000e-06	2.545219e-06	7.686937e-10	1.807613e+01	4.945349e+01
2.430000e-06	2.585065e-06	7.958770e-10	1.835912e+01	5.097142e+01
2.440000e-06	2.624888e-06	8.177916e-10	1.864194e+01	5.245048e+01
2.450000e-06	2.664680e-06	8.374069e-10	1.892454e+01	5.388903e+01
2.460000e-06	2.704306e-06	8.611122e-10	1.920597e+01	5.528591e+01
2.470000e-06	2.743708e-06	8.838744e-10	1.948580e+01	5.664043e+01
2.480000e-06	2.782919e-06	9.011696e-10	1.976427e+01	5.795241e+01
2.490000e-06	2.822018e-06	9.176233e-10	2.004196e+01	5.922216e+01
2.500000e-06	2.860927e-06	9.379665e-10	2.031829e+01	6.045045e+01
2.510000e-06	2.899541e-06	9.620040e-10	2.059252e+01	6.163847e+01
2.520000e-06	2.937906e-06	9.856641e-10	2.086499e+01	6.278774e+01
2.530000e-06	2.976136e-06	1.007148e-09	2.113650e+01	6.390005e+01
2.540000e-06	3.014175e-06	1.027222e-09	2.140665e+01	6.497734e+01
2.550000e-06	3.051980e-06	1.043476e-09	2.167514e+01	6.602163e+01
2.560000e-06	3.089655e-06	1.055055e-09	2.194271e+01	6.703492e+01
2.570000e-06	3.127211e-06	1.063840e-09	2.220943e+01	6.801908e+01
2.580000e-06	3.164564e-06	1.073427e-09	2.247471e+01	6.897577e+01
2.590000e-06	3.201635e-06	1.089301e-09	2.273799e+01	6.990639e+01
2.600000e-06	3.238378e-06	1.110201e-09	2.299894e+01	7.081202e+01
2.610000e-06	3.274811e-06	1.131020e-09	2.325769e+01	7.169340e+01
2.620000e-06	3.311054e-06	1.147961e-09	2.351509e+01	7.255092e+01
2.630000e-06	3.347138e-06	1.159255e-09	2.377135e+01	7.338461e+01
2.640000e-06	3.383053e-06	1.168114e-09	2.402642e+01	7.419421e+01
2.650000e-06	3.418855e-06	1.173941e-09	2.428068e+01	7.497922e+01
2.660000e-06	3.454576e-06	1.176260e-09	2.453437e+01	7.573895e+01
2.670000e-06	3.490197e-06	1.181783e-09	2.478735e+01	7.647260e+01
2.680000e-06	3.525587e-06	1.194622e-09	2.503870e+01	7.717934e+01
2.690000e-06	3.560701e-06	1.211639e-09	2.528808e+01	7.785843e+01
2.700000e-06	3.595484e-06	1.227131e-09	2.553510e+01	7.850922e+01
2.710000e-06	3.629855e-06	1.240456e-09	2.577920e+01	7.913131e+01
2.720000e-06	3.663713e-06	1.249976e-09	2.601967e+01	7.972452e+01
2.730000e-06	3.697098e-06	1.256776e-09	2.625677e+01	8.028898e+01
2.740000e-06	3.730115e-06	1.259288e-09	2.649125e+01	8.082512e+01
2.750000e-06	3.762729e-06	1.262723e-09	2.672287e+01	8.133367e+01
2.760000e-06	3.794935e-06	1.269402e-09	2.695160e+01	8.181565e+01
2.770000e-06	3.826899e-06	1.276442e-09	2.717861e+01	8.227232e+01
2.780000e-06	3.858785e-06	1.286482e-09	2.740506e+01	8.270513e+01
2.790000e-06	3.890551e-06	1.296536e-09	2.763066e+01	8.311565e+01
2.800000e-06	3.922154e-06	1.300918e-09	2.785511e+01	8.350548e+01
2.810000e-06	3.953482e-06	1.300439e-09	2.807760e+01	8.387621e+01
2.820000e-06	3.984535e-06	1.299069e-09	2.829814e+01	8.422931e+01
2.830000e-06	4.015300e-06	1.299710e-09	2.851663e+01	8.456609e+01
2.840000e-06	4.045836e-06	1.304568e-09	2.873350e+01	8.488766e+01
2.850000e-06	4.076062e-06	1.309792e-09	2.894816e+01	8.519484e+01
2.860000e-06	4.105909e-06	1.312519e-09	2.916014e+01	8.548821e+01
2.870000e-06	4.135551e-06	1.315296e-09	2.937066e+01	8.576804e+01
2.880000e-06	4.165053e-06	1.319396e-09	2.958017e+01	8.603438e+01
2.890000e-06	4.194306e-06	1.320888e-09	2.978793e+01	8.628703e+01
2.900000e-06	4.223113e-06	1.319009e-09	2.999252e+01	8.652564e+01
