# Temperatura_=_8.59
# Concentracion g/m^3_=_4090.0
# C_Vs_to_Am_M_A/Vsm_=_65563218390.804596
# pendiente_HvsI_1/m_=_3716.3
# ordenada_HvsI_A/m_=_1297.0
# frecuencia_Hz_=_135088.21681598353

Tiempo_(s)	Campo_(V.s)	Magnetizacion_(V.s)	Campo_(kA/m)	Magnetizacion_(A/m)
0.000000e+00	-5.403801e-06	-1.335432e-09	-3.838911e+01	-8.831615e+01
1.000000e-08	-5.403857e-06	-1.333320e-09	-3.838950e+01	-8.812946e+01
2.000000e-08	-5.403708e-06	-1.327132e-09	-3.838845e+01	-8.792544e+01
3.000000e-08	-5.403216e-06	-1.320601e-09	-3.838495e+01	-8.770657e+01
4.000000e-08	-5.402300e-06	-1.316037e-09	-3.837845e+01	-8.747619e+01
5.000000e-08	-5.400831e-06	-1.315809e-09	-3.836801e+01	-8.723844e+01
6.000000e-08	-5.398728e-06	-1.329162e-09	-3.835307e+01	-8.699813e+01
7.000000e-08	-5.396063e-06	-1.356276e-09	-3.833414e+01	-8.676055e+01
8.000000e-08	-5.392899e-06	-1.317812e-09	-3.831166e+01	-8.653135e+01
9.000000e-08	-5.389249e-06	-1.221673e-09	-3.828573e+01	-8.631625e+01
1.000000e-07	-5.385228e-06	-1.278539e-09	-3.825717e+01	-8.612087e+01
1.100000e-07	-5.380967e-06	-1.436045e-09	-3.822689e+01	-8.595046e+01
1.200000e-07	-5.376451e-06	-1.383220e-09	-3.819481e+01	-8.580973e+01
1.300000e-07	-5.371678e-06	-1.179574e-09	-3.816090e+01	-8.570255e+01
1.400000e-07	-5.366527e-06	-1.243400e-09	-3.812431e+01	-8.563188e+01
1.500000e-07	-5.360937e-06	-1.471883e-09	-3.808460e+01	-8.559954e+01
1.600000e-07	-5.354987e-06	-1.402213e-09	-3.804233e+01	-8.560612e+01
1.700000e-07	-5.348634e-06	-1.124334e-09	-3.799720e+01	-8.565096e+01
1.800000e-07	-5.341846e-06	-1.169589e-09	-3.794898e+01	-8.573212e+01
1.900000e-07	-5.334688e-06	-1.415575e-09	-3.789812e+01	-8.584642e+01
2.000000e-07	-5.327311e-06	-1.385373e-09	-3.784572e+01	-8.598954e+01
2.100000e-07	-5.319742e-06	-1.224280e-09	-3.779195e+01	-8.615618e+01
2.200000e-07	-5.312016e-06	-1.318314e-09	-3.773706e+01	-8.634023e+01
2.300000e-07	-5.303967e-06	-1.456196e-09	-3.767988e+01	-8.653500e+01
2.400000e-07	-5.295386e-06	-1.335940e-09	-3.761892e+01	-8.673345e+01
2.500000e-07	-5.286261e-06	-1.257263e-09	-3.755410e+01	-8.692844e+01
2.600000e-07	-5.276419e-06	-1.398622e-09	-3.748417e+01	-8.711302e+01
2.700000e-07	-5.265846e-06	-1.427820e-09	-3.740906e+01	-8.728061e+01
2.800000e-07	-5.254906e-06	-1.267432e-09	-3.733135e+01	-8.742532e+01
2.900000e-07	-5.243607e-06	-1.322800e-09	-3.725107e+01	-8.754206e+01
3.000000e-07	-5.231797e-06	-1.469584e-09	-3.716717e+01	-8.762676e+01
3.100000e-07	-5.219547e-06	-1.354299e-09	-3.708015e+01	-8.767644e+01
3.200000e-07	-5.207013e-06	-1.231077e-09	-3.699111e+01	-8.768933e+01
3.300000e-07	-5.194232e-06	-1.363321e-09	-3.690031e+01	-8.766483e+01
3.400000e-07	-5.181024e-06	-1.413041e-09	-3.680648e+01	-8.760352e+01
3.500000e-07	-5.167362e-06	-1.303679e-09	-3.670942e+01	-8.750706e+01
3.600000e-07	-5.153260e-06	-1.323782e-09	-3.660924e+01	-8.737807e+01
3.700000e-07	-5.138685e-06	-1.404326e-09	-3.650570e+01	-8.721997e+01
3.800000e-07	-5.123580e-06	-1.330239e-09	-3.639839e+01	-8.703681e+01
3.900000e-07	-5.107894e-06	-1.308214e-09	-3.628696e+01	-8.683307e+01
4.000000e-07	-5.091618e-06	-1.362768e-09	-3.617133e+01	-8.661340e+01
4.100000e-07	-5.075026e-06	-1.313564e-09	-3.605346e+01	-8.638249e+01
4.200000e-07	-5.058195e-06	-1.264735e-09	-3.593389e+01	-8.614481e+01
4.300000e-07	-5.040969e-06	-1.354294e-09	-3.581151e+01	-8.590448e+01
4.400000e-07	-5.023432e-06	-1.379583e-09	-3.568693e+01	-8.566509e+01
4.500000e-07	-5.005619e-06	-1.291863e-09	-3.556039e+01	-8.542960e+01
4.600000e-07	-4.987466e-06	-1.296382e-09	-3.543142e+01	-8.520028e+01
4.700000e-07	-4.968913e-06	-1.344950e-09	-3.529962e+01	-8.497863e+01
4.800000e-07	-4.950030e-06	-1.313937e-09	-3.516548e+01	-8.476545e+01
4.900000e-07	-4.930816e-06	-1.270673e-09	-3.502898e+01	-8.456081e+01
5.000000e-07	-4.911252e-06	-1.277312e-09	-3.489000e+01	-8.436416e+01
5.100000e-07	-4.891416e-06	-1.284693e-09	-3.474908e+01	-8.417445e+01
5.200000e-07	-4.871411e-06	-1.310247e-09	-3.460696e+01	-8.399020e+01
5.300000e-07	-4.851186e-06	-1.309950e-09	-3.446328e+01	-8.380967e+01
5.400000e-07	-4.830639e-06	-1.274201e-09	-3.431731e+01	-8.363099e+01
5.500000e-07	-4.809709e-06	-1.269218e-09	-3.416863e+01	-8.345231e+01
5.600000e-07	-4.788403e-06	-1.305209e-09	-3.401726e+01	-8.327188e+01
5.700000e-07	-4.766795e-06	-1.285019e-09	-3.386376e+01	-8.308822e+01
5.800000e-07	-4.744861e-06	-1.247057e-09	-3.370794e+01	-8.290017e+01
5.900000e-07	-4.722659e-06	-1.246581e-09	-3.355021e+01	-8.270697e+01
6.000000e-07	-4.700126e-06	-1.269863e-09	-3.339014e+01	-8.250826e+01
6.100000e-07	-4.677189e-06	-1.278377e-09	-3.322719e+01	-8.230413e+01
6.200000e-07	-4.653947e-06	-1.267493e-09	-3.306207e+01	-8.209508e+01
6.300000e-07	-4.630350e-06	-1.241629e-09	-3.289444e+01	-8.188195e+01
6.400000e-07	-4.606530e-06	-1.252632e-09	-3.272522e+01	-8.166586e+01
6.500000e-07	-4.582568e-06	-1.278043e-09	-3.255499e+01	-8.144816e+01
6.600000e-07	-4.558395e-06	-1.258438e-09	-3.238326e+01	-8.123028e+01
6.700000e-07	-4.533924e-06	-1.223254e-09	-3.220942e+01	-8.101368e+01
6.800000e-07	-4.508949e-06	-1.232395e-09	-3.203200e+01	-8.079970e+01
6.900000e-07	-4.483364e-06	-1.250940e-09	-3.185024e+01	-8.058953e+01
7.000000e-07	-4.457280e-06	-1.239516e-09	-3.166493e+01	-8.038407e+01
7.100000e-07	-4.430793e-06	-1.216439e-09	-3.147677e+01	-8.018392e+01
7.200000e-07	-4.403865e-06	-1.215124e-09	-3.128547e+01	-7.998932e+01
7.300000e-07	-4.376624e-06	-1.235403e-09	-3.109195e+01	-7.980014e+01
7.400000e-07	-4.349078e-06	-1.240050e-09	-3.089625e+01	-7.961589e+01
7.500000e-07	-4.321278e-06	-1.218705e-09	-3.069876e+01	-7.943574e+01
7.600000e-07	-4.293283e-06	-1.204022e-09	-3.049989e+01	-7.925855e+01
7.700000e-07	-4.265039e-06	-1.222414e-09	-3.029923e+01	-7.908300e+01
7.800000e-07	-4.236647e-06	-1.230065e-09	-3.009753e+01	-7.890759e+01
7.900000e-07	-4.207906e-06	-1.211957e-09	-2.989336e+01	-7.873078e+01
8.000000e-07	-4.178781e-06	-1.192618e-09	-2.968645e+01	-7.855104e+01
8.100000e-07	-4.149429e-06	-1.194309e-09	-2.947793e+01	-7.836697e+01
8.200000e-07	-4.119749e-06	-1.200746e-09	-2.926708e+01	-7.817735e+01
8.300000e-07	-4.089797e-06	-1.193884e-09	-2.905430e+01	-7.798122e+01
8.400000e-07	-4.059599e-06	-1.178044e-09	-2.883977e+01	-7.777790e+01
8.500000e-07	-4.029096e-06	-1.183800e-09	-2.862307e+01	-7.756708e+01
8.600000e-07	-3.998327e-06	-1.201394e-09	-2.840449e+01	-7.734876e+01
8.700000e-07	-3.967354e-06	-1.202183e-09	-2.818446e+01	-7.712330e+01
8.800000e-07	-3.936096e-06	-1.176765e-09	-2.796239e+01	-7.689138e+01
8.900000e-07	-3.904597e-06	-1.160215e-09	-2.773862e+01	-7.665391e+01
9.000000e-07	-3.872932e-06	-1.159975e-09	-2.751367e+01	-7.641205e+01
9.100000e-07	-3.841111e-06	-1.159358e-09	-2.728761e+01	-7.616708e+01
9.200000e-07	-3.809099e-06	-1.146149e-09	-2.706020e+01	-7.592037e+01
9.300000e-07	-3.776806e-06	-1.143702e-09	-2.683078e+01	-7.567326e+01
9.400000e-07	-3.744252e-06	-1.162986e-09	-2.659952e+01	-7.542703e+01
9.500000e-07	-3.711355e-06	-1.179419e-09	-2.636582e+01	-7.518281e+01
9.600000e-07	-3.678039e-06	-1.171110e-09	-2.612914e+01	-7.494153e+01
9.700000e-07	-3.644268e-06	-1.149349e-09	-2.588922e+01	-7.470388e+01
9.800000e-07	-3.610176e-06	-1.136549e-09	-2.564703e+01	-7.447027e+01
9.900000e-07	-3.575752e-06	-1.130453e-09	-2.540248e+01	-7.424084e+01
1.000000e-06	-3.540794e-06	-1.120374e-09	-2.515413e+01	-7.401545e+01
1.010000e-06	-3.505578e-06	-1.114905e-09	-2.490395e+01	-7.379370e+01
1.020000e-06	-3.470230e-06	-1.125521e-09	-2.465284e+01	-7.357496e+01
1.030000e-06	-3.434620e-06	-1.141204e-09	-2.439986e+01	-7.335843e+01
1.040000e-06	-3.398748e-06	-1.145243e-09	-2.414503e+01	-7.314318e+01
1.050000e-06	-3.362723e-06	-1.133844e-09	-2.388910e+01	-7.292819e+01
1.060000e-06	-3.326552e-06	-1.121111e-09	-2.363214e+01	-7.271246e+01
1.070000e-06	-3.290242e-06	-1.113378e-09	-2.337419e+01	-7.249499e+01
1.080000e-06	-3.253768e-06	-1.105547e-09	-2.311508e+01	-7.227490e+01
1.090000e-06	-3.217019e-06	-1.093340e-09	-2.285400e+01	-7.205142e+01
1.100000e-06	-3.180026e-06	-1.089570e-09	-2.259120e+01	-7.182394e+01
1.110000e-06	-3.142723e-06	-1.098208e-09	-2.232620e+01	-7.159204e+01
1.120000e-06	-3.105277e-06	-1.108401e-09	-2.206018e+01	-7.135547e+01
1.130000e-06	-3.067687e-06	-1.106562e-09	-2.179313e+01	-7.111413e+01
1.140000e-06	-3.029773e-06	-1.100839e-09	-2.152379e+01	-7.086811e+01
1.150000e-06	-2.991624e-06	-1.095234e-09	-2.125278e+01	-7.061759e+01
1.160000e-06	-2.953320e-06	-1.088286e-09	-2.098066e+01	-7.036288e+01
1.170000e-06	-2.914853e-06	-1.076269e-09	-2.070739e+01	-7.010431e+01
1.180000e-06	-2.876112e-06	-1.065600e-09	-2.043217e+01	-6.984222e+01
1.190000e-06	-2.837169e-06	-1.062086e-09	-2.015551e+01	-6.957694e+01
1.200000e-06	-2.797987e-06	-1.067236e-09	-1.987716e+01	-6.930871e+01
1.210000e-06	-2.758561e-06	-1.072513e-09	-1.959707e+01	-6.903769e+01
1.220000e-06	-2.719063e-06	-1.072133e-09	-1.931648e+01	-6.876393e+01
1.230000e-06	-2.679445e-06	-1.069207e-09	-1.903503e+01	-6.848735e+01
1.240000e-06	-2.639740e-06	-1.066098e-09	-1.875296e+01	-6.820774e+01
1.250000e-06	-2.599971e-06	-1.059819e-09	-1.847044e+01	-6.792478e+01
1.260000e-06	-2.560048e-06	-1.048896e-09	-1.818682e+01	-6.763806e+01
1.270000e-06	-2.519996e-06	-1.036769e-09	-1.790229e+01	-6.734711e+01
1.280000e-06	-2.479848e-06	-1.031393e-09	-1.761707e+01	-6.705140e+01
1.290000e-06	-2.439526e-06	-1.030640e-09	-1.733062e+01	-6.675043e+01
1.300000e-06	-2.399068e-06	-1.027379e-09	-1.704320e+01	-6.644371e+01
1.310000e-06	-2.358482e-06	-1.019335e-09	-1.675487e+01	-6.613087e+01
1.320000e-06	-2.317663e-06	-1.014356e-09	-1.646490e+01	-6.581159e+01
1.330000e-06	-2.276618e-06	-1.012850e-09	-1.617331e+01	-6.548573e+01
1.340000e-06	-2.235214e-06	-1.008853e-09	-1.587917e+01	-6.515327e+01
1.350000e-06	-2.193411e-06	-1.001145e-09	-1.558219e+01	-6.481433e+01
1.360000e-06	-2.151282e-06	-9.925403e-10	-1.528291e+01	-6.446921e+01
1.370000e-06	-2.108875e-06	-9.882818e-10	-1.498164e+01	-6.411831e+01
1.380000e-06	-2.066295e-06	-9.838614e-10	-1.467916e+01	-6.376214e+01
1.390000e-06	-2.023566e-06	-9.770419e-10	-1.437560e+01	-6.340131e+01
1.400000e-06	-1.980674e-06	-9.681150e-10	-1.407089e+01	-6.303643e+01
1.410000e-06	-1.937673e-06	-9.627737e-10	-1.376541e+01	-6.266813e+01
1.420000e-06	-1.894421e-06	-9.626654e-10	-1.345814e+01	-6.229696e+01
1.430000e-06	-1.850911e-06	-9.611064e-10	-1.314905e+01	-6.192341e+01
1.440000e-06	-1.807321e-06	-9.545096e-10	-1.283938e+01	-6.154781e+01
1.450000e-06	-1.763656e-06	-9.479818e-10	-1.252918e+01	-6.117035e+01
1.460000e-06	-1.719910e-06	-9.428178e-10	-1.221840e+01	-6.079103e+01
1.470000e-06	-1.676070e-06	-9.374329e-10	-1.190696e+01	-6.040965e+01
1.480000e-06	-1.632192e-06	-9.262121e-10	-1.159524e+01	-6.002584e+01
1.490000e-06	-1.588279e-06	-9.154306e-10	-1.128328e+01	-5.963901e+01
1.500000e-06	-1.544262e-06	-9.099088e-10	-1.097058e+01	-5.924846e+01
1.510000e-06	-1.500164e-06	-9.115618e-10	-1.065730e+01	-5.885332e+01
1.520000e-06	-1.455973e-06	-9.118030e-10	-1.034337e+01	-5.845266e+01
1.530000e-06	-1.411601e-06	-9.017917e-10	-1.002815e+01	-5.804550e+01
1.540000e-06	-1.367245e-06	-8.867961e-10	-9.713038e+00	-5.763087e+01
1.550000e-06	-1.322950e-06	-8.743011e-10	-9.398362e+00	-5.720784e+01
1.560000e-06	-1.278470e-06	-8.655507e-10	-9.082373e+00	-5.677561e+01
1.570000e-06	-1.233846e-06	-8.591279e-10	-8.765355e+00	-5.633349e+01
1.580000e-06	-1.189124e-06	-8.541827e-10	-8.447645e+00	-5.588096e+01
1.590000e-06	-1.144291e-06	-8.527046e-10	-8.129150e+00	-5.541769e+01
1.600000e-06	-1.099427e-06	-8.508227e-10	-7.810432e+00	-5.494357e+01
1.610000e-06	-1.054511e-06	-8.422468e-10	-7.491346e+00	-5.445863e+01
1.620000e-06	-1.009478e-06	-8.271415e-10	-7.171423e+00	-5.396311e+01
1.630000e-06	-9.644497e-07	-8.146660e-10	-6.851541e+00	-5.345737e+01
1.640000e-06	-9.193263e-07	-8.064878e-10	-6.530980e+00	-5.294189e+01
1.650000e-06	-8.740650e-07	-7.997503e-10	-6.209440e+00	-5.241719e+01
1.660000e-06	-8.286776e-07	-7.925757e-10	-5.887003e+00	-5.188379e+01
1.670000e-06	-7.831732e-07	-7.847040e-10	-5.563736e+00	-5.134217e+01
1.680000e-06	-7.377265e-07	-7.794336e-10	-5.240878e+00	-5.079269e+01
1.690000e-06	-6.922024e-07	-7.720668e-10	-4.917471e+00	-5.023555e+01
1.700000e-06	-6.466350e-07	-7.577516e-10	-4.593755e+00	-4.967074e+01
1.710000e-06	-6.010820e-07	-7.455895e-10	-4.270142e+00	-4.909802e+01
1.720000e-06	-5.554629e-07	-7.392730e-10	-3.946060e+00	-4.851689e+01
1.730000e-06	-5.098241e-07	-7.354828e-10	-3.621838e+00	-4.792656e+01
1.740000e-06	-4.641852e-07	-7.275273e-10	-3.297615e+00	-4.732597e+01
1.750000e-06	-4.184962e-07	-7.164037e-10	-2.973037e+00	-4.671381e+01
1.760000e-06	-3.728032e-07	-7.073170e-10	-2.648429e+00	-4.608855e+01
1.770000e-06	-3.270347e-07	-6.965735e-10	-2.323285e+00	-4.544847e+01
1.780000e-06	-2.811515e-07	-6.840662e-10	-1.997327e+00	-4.479171e+01
1.790000e-06	-2.353307e-07	-6.703055e-10	-1.671811e+00	-4.411635e+01
1.800000e-06	-1.895807e-07	-6.607103e-10	-1.346799e+00	-4.342043e+01
1.810000e-06	-1.437435e-07	-6.517138e-10	-1.021167e+00	-4.270206e+01
1.820000e-06	-9.783173e-08	-6.385593e-10	-6.950058e-01	-4.195943e+01
1.830000e-06	-5.198351e-08	-6.234459e-10	-3.692957e-01	-4.119091e+01
1.840000e-06	-6.138613e-09	-6.079107e-10	-4.360928e-02	-4.039507e+01
1.850000e-06	3.967571e-08	-5.958403e-10	2.818600e-01	-3.957071e+01
1.860000e-06	8.549447e-08	-5.866557e-10	6.073607e-01	-3.871689e+01
1.870000e-06	1.313570e-07	-5.748750e-10	9.331724e-01	-3.783297e+01
1.880000e-06	1.772047e-07	-5.650701e-10	1.258879e+00	-3.691854e+01
1.890000e-06	2.230646e-07	-5.540452e-10	1.584672e+00	-3.597349e+01
1.900000e-06	2.689287e-07	-5.373596e-10	1.910495e+00	-3.499790e+01
1.910000e-06	3.147341e-07	-5.147245e-10	2.235900e+00	-3.399207e+01
1.920000e-06	3.605243e-07	-4.939874e-10	2.561198e+00	-3.295645e+01
1.930000e-06	4.062839e-07	-4.764959e-10	2.886279e+00	-3.189156e+01
1.940000e-06	4.519945e-07	-4.618222e-10	3.211011e+00	-3.079801e+01
1.950000e-06	4.976749e-07	-4.469658e-10	3.535529e+00	-2.967639e+01
1.960000e-06	5.432577e-07	-4.326911e-10	3.859354e+00	-2.852725e+01
1.970000e-06	5.887766e-07	-4.173172e-10	4.182724e+00	-2.735106e+01
1.980000e-06	6.342668e-07	-3.984181e-10	4.505891e+00	-2.614815e+01
1.990000e-06	6.797749e-07	-3.748925e-10	4.829185e+00	-2.491874e+01
2.000000e-06	7.252393e-07	-3.478948e-10	5.152168e+00	-2.366288e+01
2.010000e-06	7.706238e-07	-3.255049e-10	5.474584e+00	-2.238045e+01
2.020000e-06	8.159217e-07	-3.051777e-10	5.796384e+00	-2.107121e+01
2.030000e-06	8.610862e-07	-2.835092e-10	6.117237e+00	-1.973476e+01
2.040000e-06	9.062353e-07	-2.631040e-10	6.437980e+00	-1.837063e+01
2.050000e-06	9.514470e-07	-2.457716e-10	6.759169e+00	-1.697825e+01
2.060000e-06	9.965828e-07	-2.316106e-10	7.079817e+00	-1.555704e+01
2.070000e-06	1.041687e-06	-2.144209e-10	7.400239e+00	-1.410641e+01
2.080000e-06	1.086645e-06	-1.882085e-10	7.719627e+00	-1.262584e+01
2.090000e-06	1.131365e-06	-1.564900e-10	8.037322e+00	-1.111490e+01
2.100000e-06	1.176006e-06	-1.266516e-10	8.354460e+00	-9.573291e+00
2.110000e-06	1.220598e-06	-9.743938e-11	8.671243e+00	-8.000867e+00
2.120000e-06	1.265052e-06	-6.761902e-11	8.987050e+00	-6.397683e+00
2.130000e-06	1.309421e-06	-4.350409e-11	9.302251e+00	-4.764003e+00
2.140000e-06	1.353761e-06	-2.753576e-11	9.617247e+00	-3.100316e+00
2.150000e-06	1.398001e-06	-1.313650e-11	9.931528e+00	-1.407342e+00
2.160000e-06	1.442162e-06	8.266584e-12	1.024525e+01	3.139662e-01
2.170000e-06	1.486212e-06	3.749100e-11	1.055819e+01	2.062429e+00
2.180000e-06	1.530175e-06	7.090020e-11	1.087050e+01	3.836650e+00
2.190000e-06	1.574100e-06	1.039785e-10	1.118255e+01	5.635025e+00
2.200000e-06	1.618036e-06	1.379621e-10	1.149468e+01	7.455763e+00
2.210000e-06	1.661923e-06	1.707726e-10	1.180645e+01	9.296897e+00
2.220000e-06	1.705748e-06	1.962839e-10	1.211779e+01	1.115630e+01
2.230000e-06	1.749564e-06	2.176704e-10	1.242906e+01	1.303172e+01
2.240000e-06	1.793346e-06	2.419888e-10	1.274010e+01	1.492074e+01
2.250000e-06	1.837047e-06	2.699784e-10	1.305055e+01	1.682087e+01
2.260000e-06	1.880633e-06	3.007564e-10	1.336019e+01	1.872949e+01
2.270000e-06	1.924051e-06	3.324001e-10	1.366864e+01	2.064388e+01
2.280000e-06	1.967294e-06	3.648421e-10	1.397584e+01	2.256127e+01
2.290000e-06	2.010363e-06	3.977288e-10	1.428181e+01	2.447878e+01
2.300000e-06	2.053103e-06	4.283902e-10	1.458544e+01	2.639348e+01
2.310000e-06	2.095540e-06	4.541822e-10	1.488691e+01	2.830241e+01
2.320000e-06	2.137840e-06	4.794211e-10	1.518741e+01	3.020254e+01
2.330000e-06	2.179950e-06	5.082819e-10	1.548657e+01	3.209086e+01
2.340000e-06	2.221748e-06	5.361059e-10	1.578350e+01	3.396436e+01
2.350000e-06	2.263232e-06	5.611720e-10	1.607821e+01	3.582006e+01
2.360000e-06	2.304507e-06	5.884997e-10	1.637143e+01	3.765504e+01
2.370000e-06	2.345446e-06	6.197642e-10	1.666227e+01	3.946650e+01
2.380000e-06	2.386119e-06	6.519918e-10	1.695121e+01	4.125177e+01
2.390000e-06	2.426670e-06	6.803183e-10	1.723929e+01	4.300835e+01
2.400000e-06	2.467028e-06	7.052684e-10	1.752600e+01	4.473392e+01
2.410000e-06	2.507225e-06	7.295922e-10	1.781156e+01	4.642643e+01
2.420000e-06	2.547234e-06	7.571478e-10	1.809579e+01	4.808408e+01
2.430000e-06	2.587139e-06	7.850769e-10	1.837927e+01	4.970536e+01
2.440000e-06	2.626968e-06	8.075378e-10	1.866222e+01	5.128907e+01
2.450000e-06	2.666692e-06	8.265003e-10	1.894443e+01	5.283430e+01
2.460000e-06	2.706340e-06	8.500949e-10	1.922609e+01	5.434046e+01
2.470000e-06	2.745828e-06	8.769521e-10	1.950662e+01	5.580725e+01
2.480000e-06	2.785100e-06	8.998617e-10	1.978561e+01	5.723468e+01
2.490000e-06	2.824149e-06	9.194311e-10	2.006302e+01	5.862296e+01
2.500000e-06	2.862994e-06	9.414591e-10	2.033897e+01	5.997254e+01
2.510000e-06	2.901589e-06	9.655449e-10	2.061316e+01	6.128405e+01
2.520000e-06	2.939964e-06	9.881233e-10	2.088578e+01	6.255822e+01
2.530000e-06	2.978201e-06	1.007146e-09	2.115742e+01	6.379589e+01
2.540000e-06	3.016248e-06	1.024161e-09	2.142771e+01	6.499791e+01
2.550000e-06	3.054064e-06	1.040711e-09	2.169635e+01	6.616513e+01
2.560000e-06	3.091713e-06	1.053934e-09	2.196382e+01	6.729835e+01
2.570000e-06	3.129171e-06	1.065110e-09	2.222992e+01	6.839829e+01
2.580000e-06	3.166313e-06	1.079052e-09	2.249379e+01	6.946556e+01
2.590000e-06	3.203236e-06	1.099554e-09	2.275609e+01	7.050064e+01
2.600000e-06	3.240001e-06	1.123781e-09	2.301727e+01	7.150391e+01
2.610000e-06	3.276553e-06	1.146101e-09	2.327694e+01	7.247561e+01
2.620000e-06	3.312849e-06	1.161367e-09	2.353479e+01	7.341588e+01
2.630000e-06	3.348937e-06	1.170545e-09	2.379116e+01	7.432477e+01
2.640000e-06	3.384911e-06	1.178038e-09	2.404672e+01	7.520229e+01
2.650000e-06	3.420770e-06	1.184580e-09	2.430147e+01	7.604843e+01
2.660000e-06	3.456465e-06	1.190346e-09	2.455505e+01	7.686316e+01
2.670000e-06	3.492016e-06	1.199830e-09	2.480761e+01	7.764655e+01
2.680000e-06	3.527396e-06	1.212107e-09	2.505895e+01	7.839871e+01
2.690000e-06	3.562484e-06	1.226357e-09	2.530822e+01	7.911989e+01
2.700000e-06	3.597130e-06	1.242464e-09	2.555435e+01	7.981047e+01
2.710000e-06	3.631263e-06	1.257632e-09	2.579683e+01	8.047096e+01
2.720000e-06	3.665044e-06	1.267830e-09	2.603682e+01	8.110205e+01
2.730000e-06	3.698411e-06	1.276245e-09	2.627386e+01	8.170456e+01
2.740000e-06	3.731252e-06	1.283675e-09	2.650716e+01	8.227945e+01
2.750000e-06	3.763769e-06	1.289479e-09	2.673817e+01	8.282780e+01
2.760000e-06	3.796010e-06	1.296148e-09	2.696721e+01	8.335076e+01
2.770000e-06	3.828031e-06	1.303750e-09	2.719469e+01	8.384956e+01
2.780000e-06	3.859925e-06	1.313892e-09	2.742127e+01	8.432542e+01
2.790000e-06	3.891604e-06	1.326366e-09	2.764632e+01	8.477955e+01
2.800000e-06	3.923142e-06	1.335115e-09	2.787037e+01	8.521307e+01
2.810000e-06	3.954506e-06	1.336527e-09	2.809318e+01	8.562705e+01
2.820000e-06	3.985628e-06	1.335702e-09	2.831428e+01	8.602241e+01
2.830000e-06	4.016347e-06	1.337636e-09	2.853251e+01	8.639994e+01
2.840000e-06	4.046690e-06	1.342073e-09	2.874806e+01	8.676029e+01
2.850000e-06	4.076830e-06	1.345799e-09	2.896218e+01	8.710394e+01
2.860000e-06	4.106732e-06	1.349297e-09	2.917461e+01	8.743127e+01
2.870000e-06	4.136457e-06	1.354933e-09	2.938578e+01	8.774250e+01
2.880000e-06	4.165844e-06	1.362870e-09	2.959455e+01	8.803778e+01
2.890000e-06	4.194901e-06	1.367181e-09	2.980097e+01	8.831719e+01
2.900000e-06	4.223789e-06	1.368148e-09	3.000620e+01	8.858080e+01
