# Temperatura_=_9.21
# Concentracion g/m^3_=_4090.0
# C_Vs_to_Am_M_A/Vsm_=_65563218390.804596
# pendiente_HvsI_1/m_=_3716.3
# ordenada_HvsI_A/m_=_1297.0
# frecuencia_Hz_=_135086.0167070795

Tiempo_(s)	Campo_(V.s)	Magnetizacion_(V.s)	Campo_(kA/m)	Magnetizacion_(A/m)
0.000000e+00	-5.414338e-06	-1.279553e-09	-3.839331e+01	-8.740968e+01
1.000000e-08	-5.414549e-06	-1.272561e-09	-3.839481e+01	-8.726185e+01
2.000000e-08	-5.414544e-06	-1.268645e-09	-3.839478e+01	-8.709360e+01
3.000000e-08	-5.414269e-06	-1.264345e-09	-3.839282e+01	-8.690567e+01
4.000000e-08	-5.413527e-06	-1.263142e-09	-3.838756e+01	-8.669993e+01
5.000000e-08	-5.412263e-06	-1.266908e-09	-3.837860e+01	-8.647935e+01
6.000000e-08	-5.410422e-06	-1.273402e-09	-3.836555e+01	-8.624798e+01
7.000000e-08	-5.407940e-06	-1.281598e-09	-3.834795e+01	-8.601085e+01
8.000000e-08	-5.404812e-06	-1.265381e-09	-3.832577e+01	-8.577385e+01
9.000000e-08	-5.401160e-06	-1.235736e-09	-3.829987e+01	-8.554350e+01
1.000000e-07	-5.397098e-06	-1.256860e-09	-3.827107e+01	-8.532674e+01
1.100000e-07	-5.392730e-06	-1.312678e-09	-3.824009e+01	-8.513066e+01
1.200000e-07	-5.388299e-06	-1.285798e-09	-3.820867e+01	-8.496220e+01
1.300000e-07	-5.383684e-06	-1.219997e-09	-3.817595e+01	-8.482791e+01
1.400000e-07	-5.378595e-06	-1.231052e-09	-3.813986e+01	-8.473359e+01
1.500000e-07	-5.373143e-06	-1.318752e-09	-3.810120e+01	-8.468408e+01
1.600000e-07	-5.367333e-06	-1.293543e-09	-3.806000e+01	-8.468300e+01
1.700000e-07	-5.361079e-06	-1.212508e-09	-3.801565e+01	-8.473258e+01
1.800000e-07	-5.354401e-06	-1.209021e-09	-3.796830e+01	-8.483349e+01
1.900000e-07	-5.347298e-06	-1.319224e-09	-3.791793e+01	-8.498478e+01
2.000000e-07	-5.340016e-06	-1.335767e-09	-3.786629e+01	-8.518389e+01
2.100000e-07	-5.332622e-06	-1.297125e-09	-3.781386e+01	-8.542667e+01
2.200000e-07	-5.324919e-06	-1.315158e-09	-3.775924e+01	-8.570752e+01
2.300000e-07	-5.316819e-06	-1.381845e-09	-3.770180e+01	-8.601956e+01
2.400000e-07	-5.308319e-06	-1.368876e-09	-3.764153e+01	-8.635489e+01
2.500000e-07	-5.299402e-06	-1.349945e-09	-3.757830e+01	-8.670482e+01
2.600000e-07	-5.289768e-06	-1.405584e-09	-3.750999e+01	-8.706022e+01
2.700000e-07	-5.279389e-06	-1.427646e-09	-3.743639e+01	-8.741185e+01
2.800000e-07	-5.268503e-06	-1.385279e-09	-3.735919e+01	-8.775064e+01
2.900000e-07	-5.257188e-06	-1.370031e-09	-3.727896e+01	-8.806805e+01
3.000000e-07	-5.245463e-06	-1.411284e-09	-3.719581e+01	-8.835635e+01
3.100000e-07	-5.233322e-06	-1.381037e-09	-3.710972e+01	-8.860889e+01
3.200000e-07	-5.220806e-06	-1.350664e-09	-3.702097e+01	-8.882027e+01
3.300000e-07	-5.207831e-06	-1.370169e-09	-3.692897e+01	-8.898652e+01
3.400000e-07	-5.194487e-06	-1.401046e-09	-3.683434e+01	-8.910519e+01
3.500000e-07	-5.180820e-06	-1.368624e-09	-3.673743e+01	-8.917535e+01
3.600000e-07	-5.166775e-06	-1.382769e-09	-3.663783e+01	-8.919756e+01
3.700000e-07	-5.152402e-06	-1.393251e-09	-3.653592e+01	-8.917378e+01
3.800000e-07	-5.137574e-06	-1.373861e-09	-3.643077e+01	-8.910719e+01
3.900000e-07	-5.122057e-06	-1.346781e-09	-3.632074e+01	-8.900200e+01
4.000000e-07	-5.105912e-06	-1.370389e-09	-3.620625e+01	-8.886321e+01
4.100000e-07	-5.089437e-06	-1.362076e-09	-3.608943e+01	-8.869637e+01
4.200000e-07	-5.072595e-06	-1.349310e-09	-3.597000e+01	-8.850727e+01
4.300000e-07	-5.055415e-06	-1.363654e-09	-3.584818e+01	-8.830170e+01
4.400000e-07	-5.038005e-06	-1.386008e-09	-3.572472e+01	-8.808521e+01
4.500000e-07	-5.020268e-06	-1.365305e-09	-3.559895e+01	-8.786286e+01
4.600000e-07	-5.002220e-06	-1.353043e-09	-3.547097e+01	-8.763904e+01
4.700000e-07	-4.983773e-06	-1.356731e-09	-3.534016e+01	-8.741736e+01
4.800000e-07	-4.964931e-06	-1.352424e-09	-3.520655e+01	-8.720049e+01
4.900000e-07	-4.945708e-06	-1.337324e-09	-3.507024e+01	-8.699020e+01
5.000000e-07	-4.926131e-06	-1.334811e-09	-3.493142e+01	-8.678732e+01
5.100000e-07	-4.906318e-06	-1.338093e-09	-3.479092e+01	-8.659177e+01
5.200000e-07	-4.886268e-06	-1.343288e-09	-3.464875e+01	-8.640274e+01
5.300000e-07	-4.865972e-06	-1.347141e-09	-3.450482e+01	-8.621876e+01
5.400000e-07	-4.845486e-06	-1.338542e-09	-3.435956e+01	-8.603788e+01
5.500000e-07	-4.824640e-06	-1.330100e-09	-3.421174e+01	-8.585784e+01
5.600000e-07	-4.803358e-06	-1.328356e-09	-3.406083e+01	-8.567629e+01
5.700000e-07	-4.781696e-06	-1.325545e-09	-3.390722e+01	-8.549090e+01
5.800000e-07	-4.759781e-06	-1.309389e-09	-3.375182e+01	-8.529959e+01
5.900000e-07	-4.737534e-06	-1.301373e-09	-3.359406e+01	-8.510063e+01
6.000000e-07	-4.714940e-06	-1.300926e-09	-3.343385e+01	-8.489277e+01
6.100000e-07	-4.692059e-06	-1.310199e-09	-3.327160e+01	-8.467529e+01
6.200000e-07	-4.668757e-06	-1.305431e-09	-3.310636e+01	-8.444810e+01
6.300000e-07	-4.645223e-06	-1.296619e-09	-3.293949e+01	-8.421166e+01
6.400000e-07	-4.621484e-06	-1.295088e-09	-3.277115e+01	-8.396699e+01
6.500000e-07	-4.597550e-06	-1.305157e-09	-3.260143e+01	-8.371560e+01
6.600000e-07	-4.573342e-06	-1.295207e-09	-3.242977e+01	-8.345938e+01
6.700000e-07	-4.548733e-06	-1.282092e-09	-3.225527e+01	-8.320050e+01
6.800000e-07	-4.523749e-06	-1.273742e-09	-3.207811e+01	-8.294126e+01
6.900000e-07	-4.498345e-06	-1.276094e-09	-3.189797e+01	-8.268393e+01
7.000000e-07	-4.472381e-06	-1.270328e-09	-3.171385e+01	-8.243070e+01
7.100000e-07	-4.445774e-06	-1.264300e-09	-3.152518e+01	-8.218347e+01
7.200000e-07	-4.418732e-06	-1.258656e-09	-3.133343e+01	-8.194377e+01
7.300000e-07	-4.391422e-06	-1.264125e-09	-3.113977e+01	-8.171271e+01
7.400000e-07	-4.363840e-06	-1.265115e-09	-3.094418e+01	-8.149090e+01
7.500000e-07	-4.336092e-06	-1.257895e-09	-3.074742e+01	-8.127843e+01
7.600000e-07	-4.308181e-06	-1.246589e-09	-3.054951e+01	-8.107486e+01
7.700000e-07	-4.279968e-06	-1.245765e-09	-3.034945e+01	-8.087929e+01
7.800000e-07	-4.251436e-06	-1.244817e-09	-3.014712e+01	-8.069041e+01
7.900000e-07	-4.222626e-06	-1.237163e-09	-2.994283e+01	-8.050654e+01
8.000000e-07	-4.193572e-06	-1.227317e-09	-2.973681e+01	-8.032581e+01
8.100000e-07	-4.164211e-06	-1.225774e-09	-2.952861e+01	-8.014619e+01
8.200000e-07	-4.134510e-06	-1.229545e-09	-2.931800e+01	-7.996566e+01
8.300000e-07	-4.104583e-06	-1.229865e-09	-2.910579e+01	-7.978227e+01
8.400000e-07	-4.074431e-06	-1.223152e-09	-2.889197e+01	-7.959429e+01
8.500000e-07	-4.044033e-06	-1.217834e-09	-2.867642e+01	-7.940026e+01
8.600000e-07	-4.013310e-06	-1.220634e-09	-2.845856e+01	-7.919905e+01
8.700000e-07	-3.982305e-06	-1.221462e-09	-2.823871e+01	-7.898992e+01
8.800000e-07	-3.951101e-06	-1.215119e-09	-2.801743e+01	-7.877253e+01
8.900000e-07	-3.919629e-06	-1.205619e-09	-2.779427e+01	-7.854694e+01
9.000000e-07	-3.887931e-06	-1.202018e-09	-2.756950e+01	-7.831356e+01
9.100000e-07	-3.856053e-06	-1.200657e-09	-2.734345e+01	-7.807311e+01
9.200000e-07	-3.824004e-06	-1.198715e-09	-2.711619e+01	-7.782657e+01
9.300000e-07	-3.791749e-06	-1.193499e-09	-2.688746e+01	-7.757505e+01
9.400000e-07	-3.759193e-06	-1.196492e-09	-2.665661e+01	-7.731978e+01
9.500000e-07	-3.726203e-06	-1.200174e-09	-2.642267e+01	-7.706195e+01
9.600000e-07	-3.692839e-06	-1.204781e-09	-2.618609e+01	-7.680268e+01
9.700000e-07	-3.659098e-06	-1.196547e-09	-2.594683e+01	-7.654293e+01
9.800000e-07	-3.624875e-06	-1.189486e-09	-2.570415e+01	-7.628344e+01
9.900000e-07	-3.590235e-06	-1.182956e-09	-2.545852e+01	-7.602470e+01
1.000000e-06	-3.555231e-06	-1.179256e-09	-2.521030e+01	-7.576690e+01
1.010000e-06	-3.519988e-06	-1.173448e-09	-2.496039e+01	-7.550999e+01
1.020000e-06	-3.484577e-06	-1.167860e-09	-2.470929e+01	-7.525364e+01
1.030000e-06	-3.449010e-06	-1.164331e-09	-2.445708e+01	-7.499730e+01
1.040000e-06	-3.413267e-06	-1.166191e-09	-2.420363e+01	-7.474027e+01
1.050000e-06	-3.377278e-06	-1.168227e-09	-2.394843e+01	-7.448172e+01
1.060000e-06	-3.341103e-06	-1.167808e-09	-2.369191e+01	-7.422081e+01
1.070000e-06	-3.304763e-06	-1.161982e-09	-2.343422e+01	-7.395672e+01
1.080000e-06	-3.268185e-06	-1.152417e-09	-2.317485e+01	-7.368874e+01
1.090000e-06	-3.231383e-06	-1.141544e-09	-2.291388e+01	-7.341634e+01
1.100000e-06	-3.194364e-06	-1.131677e-09	-2.265138e+01	-7.313919e+01
1.110000e-06	-3.157108e-06	-1.123484e-09	-2.238720e+01	-7.285721e+01
1.120000e-06	-3.119671e-06	-1.119315e-09	-2.212173e+01	-7.257061e+01
1.130000e-06	-3.082031e-06	-1.119016e-09	-2.185482e+01	-7.227984e+01
1.140000e-06	-3.044104e-06	-1.120957e-09	-2.158588e+01	-7.198561e+01
1.150000e-06	-3.005983e-06	-1.121661e-09	-2.131556e+01	-7.168883e+01
1.160000e-06	-2.967767e-06	-1.116572e-09	-2.104457e+01	-7.139059e+01
1.170000e-06	-2.929372e-06	-1.108634e-09	-2.077231e+01	-7.109206e+01
1.180000e-06	-2.890759e-06	-1.097077e-09	-2.049850e+01	-7.079442e+01
1.190000e-06	-2.851947e-06	-1.085285e-09	-2.022329e+01	-7.049881e+01
1.200000e-06	-2.812874e-06	-1.075979e-09	-1.994622e+01	-7.020626e+01
1.210000e-06	-2.773621e-06	-1.075503e-09	-1.966787e+01	-6.991758e+01
1.220000e-06	-2.734195e-06	-1.078673e-09	-1.938830e+01	-6.963334e+01
1.230000e-06	-2.694558e-06	-1.081877e-09	-1.910723e+01	-6.935383e+01
1.240000e-06	-2.654794e-06	-1.076963e-09	-1.882527e+01	-6.907900e+01
1.250000e-06	-2.614939e-06	-1.069827e-09	-1.854265e+01	-6.880848e+01
1.260000e-06	-2.575069e-06	-1.059304e-09	-1.825993e+01	-6.854157e+01
1.270000e-06	-2.535065e-06	-1.046474e-09	-1.797626e+01	-6.827728e+01
1.280000e-06	-2.494861e-06	-1.036664e-09	-1.769117e+01	-6.801436e+01
1.290000e-06	-2.454529e-06	-1.035388e-09	-1.740517e+01	-6.775138e+01
1.300000e-06	-2.414036e-06	-1.034401e-09	-1.711804e+01	-6.748677e+01
1.310000e-06	-2.373313e-06	-1.029931e-09	-1.682927e+01	-6.721893e+01
1.320000e-06	-2.332322e-06	-1.024835e-09	-1.653860e+01	-6.694625e+01
1.330000e-06	-2.291119e-06	-1.021529e-09	-1.624643e+01	-6.666724e+01
1.340000e-06	-2.249609e-06	-1.017378e-09	-1.595208e+01	-6.638059e+01
1.350000e-06	-2.207688e-06	-1.009323e-09	-1.565481e+01	-6.608517e+01
1.360000e-06	-2.165459e-06	-9.977976e-10	-1.535536e+01	-6.578016e+01
1.370000e-06	-2.122999e-06	-9.894808e-10	-1.505428e+01	-6.546501e+01
1.380000e-06	-2.080294e-06	-9.865382e-10	-1.475146e+01	-6.513948e+01
1.390000e-06	-2.037355e-06	-9.838724e-10	-1.444698e+01	-6.480364e+01
1.400000e-06	-1.994331e-06	-9.776049e-10	-1.414189e+01	-6.445780e+01
1.410000e-06	-1.951217e-06	-9.709556e-10	-1.383617e+01	-6.410255e+01
1.420000e-06	-1.907907e-06	-9.649270e-10	-1.352906e+01	-6.373862e+01
1.430000e-06	-1.864394e-06	-9.580409e-10	-1.322050e+01	-6.336690e+01
1.440000e-06	-1.820734e-06	-9.504546e-10	-1.291090e+01	-6.298832e+01
1.450000e-06	-1.776983e-06	-9.420064e-10	-1.260067e+01	-6.260382e+01
1.460000e-06	-1.733195e-06	-9.367430e-10	-1.229017e+01	-6.221425e+01
1.470000e-06	-1.689378e-06	-9.312716e-10	-1.197945e+01	-6.182034e+01
1.480000e-06	-1.645456e-06	-9.240391e-10	-1.166800e+01	-6.142267e+01
1.490000e-06	-1.601414e-06	-9.197825e-10	-1.135570e+01	-6.102159e+01
1.500000e-06	-1.557317e-06	-9.173421e-10	-1.104300e+01	-6.061725e+01
1.510000e-06	-1.513205e-06	-9.130221e-10	-1.073021e+01	-6.020954e+01
1.520000e-06	-1.468948e-06	-9.055301e-10	-1.041638e+01	-5.979815e+01
1.530000e-06	-1.424692e-06	-8.955369e-10	-1.010255e+01	-5.938260e+01
1.540000e-06	-1.380400e-06	-8.870123e-10	-9.788481e+00	-5.896222e+01
1.550000e-06	-1.335822e-06	-8.786079e-10	-9.472372e+00	-5.853625e+01
1.560000e-06	-1.291115e-06	-8.693770e-10	-9.155352e+00	-5.810385e+01
1.570000e-06	-1.246502e-06	-8.618139e-10	-8.838999e+00	-5.766421e+01
1.580000e-06	-1.201831e-06	-8.593716e-10	-8.522239e+00	-5.721652e+01
1.590000e-06	-1.157023e-06	-8.551492e-10	-8.204506e+00	-5.676011e+01
1.600000e-06	-1.112185e-06	-8.450350e-10	-7.886554e+00	-5.629439e+01
1.610000e-06	-1.067222e-06	-8.317965e-10	-7.567721e+00	-5.581897e+01
1.620000e-06	-1.022097e-06	-8.215928e-10	-7.247739e+00	-5.533360e+01
1.630000e-06	-9.768330e-07	-8.157133e-10	-6.926767e+00	-5.483820e+01
1.640000e-06	-9.315425e-07	-8.092281e-10	-6.605610e+00	-5.433285e+01
1.650000e-06	-8.863058e-07	-8.011729e-10	-6.284835e+00	-5.381775e+01
1.660000e-06	-8.410239e-07	-7.953162e-10	-5.963739e+00	-5.329316e+01
1.670000e-06	-7.956311e-07	-7.927201e-10	-5.641856e+00	-5.275941e+01
1.680000e-06	-7.501569e-07	-7.908062e-10	-5.319397e+00	-5.221676e+01
1.690000e-06	-7.045952e-07	-7.821227e-10	-4.996316e+00	-5.166543e+01
1.700000e-06	-6.590018e-07	-7.691102e-10	-4.673011e+00	-5.110545e+01
1.710000e-06	-6.133601e-07	-7.569324e-10	-4.349364e+00	-5.053669e+01
1.720000e-06	-5.677284e-07	-7.457483e-10	-4.025788e+00	-4.995878e+01
1.730000e-06	-5.220702e-07	-7.337788e-10	-3.702023e+00	-4.937105e+01
1.740000e-06	-4.762902e-07	-7.227672e-10	-3.377395e+00	-4.877258e+01
1.750000e-06	-4.305520e-07	-7.168574e-10	-3.053064e+00	-4.816214e+01
1.760000e-06	-3.847180e-07	-7.132266e-10	-2.728053e+00	-4.753822e+01
1.770000e-06	-3.388177e-07	-7.033231e-10	-2.402572e+00	-4.689907e+01
1.780000e-06	-2.929742e-07	-6.888507e-10	-2.077493e+00	-4.624274e+01
1.790000e-06	-2.471049e-07	-6.767096e-10	-1.752232e+00	-4.556712e+01
1.800000e-06	-2.012503e-07	-6.642711e-10	-1.427075e+00	-4.487006e+01
1.810000e-06	-1.553766e-07	-6.469450e-10	-1.101782e+00	-4.414937e+01
1.820000e-06	-1.095026e-07	-6.281643e-10	-7.764882e-01	-4.340295e+01
1.830000e-06	-6.360914e-08	-6.154082e-10	-4.510553e-01	-4.262884e+01
1.840000e-06	-1.773657e-08	-6.074999e-10	-1.257708e-01	-4.182530e+01
1.850000e-06	2.802318e-08	-5.990301e-10	1.987137e-01	-4.099087e+01
1.860000e-06	7.381283e-08	-5.873397e-10	5.234101e-01	-4.012438e+01
1.870000e-06	1.197139e-07	-5.757185e-10	8.488966e-01	-3.922505e+01
1.880000e-06	1.656774e-07	-5.638509e-10	1.174826e+00	-3.829243e+01
1.890000e-06	2.115999e-07	-5.473963e-10	1.500464e+00	-3.732646e+01
1.900000e-06	2.574253e-07	-5.241067e-10	1.825414e+00	-3.632741e+01
1.910000e-06	3.033015e-07	-5.019610e-10	2.150725e+00	-3.529587e+01
1.920000e-06	3.491914e-07	-4.852565e-10	2.476132e+00	-3.423265e+01
1.930000e-06	3.950272e-07	-4.692296e-10	2.801156e+00	-3.313882e+01
1.940000e-06	4.407888e-07	-4.505080e-10	3.125653e+00	-3.201552e+01
1.950000e-06	4.864854e-07	-4.330341e-10	3.449690e+00	-3.086398e+01
1.960000e-06	5.321873e-07	-4.197082e-10	3.773764e+00	-2.968542e+01
1.970000e-06	5.778622e-07	-4.042518e-10	4.097647e+00	-2.848098e+01
1.980000e-06	6.234801e-07	-3.812024e-10	4.421126e+00	-2.725163e+01
1.990000e-06	6.690113e-07	-3.539046e-10	4.743990e+00	-2.599820e+01
2.000000e-06	7.145301e-07	-3.301412e-10	5.066765e+00	-2.472127e+01
2.010000e-06	7.600139e-07	-3.133891e-10	5.389293e+00	-2.342116e+01
2.020000e-06	8.054315e-07	-2.957946e-10	5.711351e+00	-2.209798e+01
2.030000e-06	8.508348e-07	-2.733522e-10	6.033308e+00	-2.075155e+01
2.040000e-06	8.961271e-07	-2.507108e-10	6.354477e+00	-1.938151e+01
2.050000e-06	9.412553e-07	-2.303585e-10	6.674484e+00	-1.798730e+01
2.060000e-06	9.863389e-07	-2.078833e-10	6.994173e+00	-1.656823e+01
2.070000e-06	1.031397e-06	-1.807311e-10	7.313683e+00	-1.512354e+01
2.080000e-06	1.076442e-06	-1.548306e-10	7.633100e+00	-1.365243e+01
2.090000e-06	1.121463e-06	-1.334131e-10	7.952346e+00	-1.215415e+01
2.100000e-06	1.166291e-06	-1.125434e-10	8.270221e+00	-1.062806e+01
2.110000e-06	1.210925e-06	-8.707881e-11	8.586721e+00	-9.073652e+00
2.120000e-06	1.255517e-06	-5.994812e-11	8.902930e+00	-7.490630e+00
2.130000e-06	1.300015e-06	-3.714215e-11	9.218468e+00	-5.878925e+00
2.140000e-06	1.344349e-06	-1.696349e-11	9.532838e+00	-4.238728e+00
2.150000e-06	1.388645e-06	5.155283e-12	9.846943e+00	-2.570507e+00
2.160000e-06	1.432900e-06	2.855897e-11	1.016076e+01	-8.750059e-01
2.170000e-06	1.477119e-06	5.190996e-11	1.047432e+01	8.467617e-01
2.180000e-06	1.521246e-06	7.573746e-11	1.078722e+01	2.593526e+00
2.190000e-06	1.565213e-06	1.032778e-10	1.109900e+01	4.363788e+00
2.200000e-06	1.609140e-06	1.329617e-10	1.141049e+01	6.155843e+00
2.210000e-06	1.653052e-06	1.600247e-10	1.172187e+01	7.967816e+00
2.220000e-06	1.696925e-06	1.862006e-10	1.203297e+01	9.797693e+00
2.230000e-06	1.740737e-06	2.161442e-10	1.234364e+01	1.164335e+01
2.240000e-06	1.784517e-06	2.489525e-10	1.265409e+01	1.350257e+01
2.250000e-06	1.828291e-06	2.776064e-10	1.296450e+01	1.537308e+01
2.260000e-06	1.871991e-06	3.023672e-10	1.327437e+01	1.725257e+01
2.270000e-06	1.915564e-06	3.294186e-10	1.358335e+01	1.913868e+01
2.280000e-06	1.958935e-06	3.591703e-10	1.389090e+01	2.102901e+01
2.290000e-06	2.002083e-06	3.884054e-10	1.419686e+01	2.292115e+01
2.300000e-06	2.045126e-06	4.135757e-10	1.450208e+01	2.481263e+01
2.310000e-06	2.087962e-06	4.385285e-10	1.480583e+01	2.670095e+01
2.320000e-06	2.130467e-06	4.670684e-10	1.510724e+01	2.858354e+01
2.330000e-06	2.172671e-06	4.979363e-10	1.540651e+01	3.045780e+01
2.340000e-06	2.214505e-06	5.261199e-10	1.570316e+01	3.232104e+01
2.350000e-06	2.256084e-06	5.505503e-10	1.599799e+01	3.417053e+01
2.360000e-06	2.297432e-06	5.764403e-10	1.629119e+01	3.600350e+01
2.370000e-06	2.338474e-06	6.053333e-10	1.658223e+01	3.781714e+01
2.380000e-06	2.379376e-06	6.353238e-10	1.687226e+01	3.960864e+01
2.390000e-06	2.420081e-06	6.622891e-10	1.716090e+01	4.137522e+01
2.400000e-06	2.460502e-06	6.857870e-10	1.744753e+01	4.311415e+01
2.410000e-06	2.500749e-06	7.087092e-10	1.773292e+01	4.482282e+01
2.420000e-06	2.540869e-06	7.333393e-10	1.801742e+01	4.649877e+01
2.430000e-06	2.580845e-06	7.596402e-10	1.830089e+01	4.813974e+01
2.440000e-06	2.620740e-06	7.869473e-10	1.858379e+01	4.974370e+01
2.450000e-06	2.660602e-06	8.127336e-10	1.886645e+01	5.130892e+01
2.460000e-06	2.700335e-06	8.385847e-10	1.914820e+01	5.283396e+01
2.470000e-06	2.739921e-06	8.627450e-10	1.942890e+01	5.431774e+01
2.480000e-06	2.779412e-06	8.808165e-10	1.970894e+01	5.575953e+01
2.490000e-06	2.818708e-06	8.970518e-10	1.998759e+01	5.715893e+01
2.500000e-06	2.857619e-06	9.159592e-10	2.026351e+01	5.851593e+01
2.510000e-06	2.896396e-06	9.382844e-10	2.053848e+01	5.983080e+01
2.520000e-06	2.934996e-06	9.640710e-10	2.081219e+01	6.110413e+01
2.530000e-06	2.973243e-06	9.903654e-10	2.108340e+01	6.233675e+01
2.540000e-06	3.011285e-06	1.013213e-09	2.135315e+01	6.352969e+01
2.550000e-06	3.049142e-06	1.031951e-09	2.162160e+01	6.468411e+01
2.560000e-06	3.086882e-06	1.045452e-09	2.188922e+01	6.580128e+01
2.570000e-06	3.124396e-06	1.055744e-09	2.215523e+01	6.688251e+01
2.580000e-06	3.161709e-06	1.067253e-09	2.241982e+01	6.792905e+01
2.590000e-06	3.198851e-06	1.080402e-09	2.268320e+01	6.894213e+01
2.600000e-06	3.235721e-06	1.100190e-09	2.294465e+01	6.992285e+01
2.610000e-06	3.272354e-06	1.122629e-09	2.320441e+01	7.087218e+01
2.620000e-06	3.308725e-06	1.143079e-09	2.346232e+01	7.179097e+01
2.630000e-06	3.344859e-06	1.156316e-09	2.371855e+01	7.267990e+01
2.640000e-06	3.380849e-06	1.161663e-09	2.397375e+01	7.353951e+01
2.650000e-06	3.416726e-06	1.165753e-09	2.422816e+01	7.437021e+01
2.660000e-06	3.452539e-06	1.173343e-09	2.448211e+01	7.517234e+01
2.670000e-06	3.488236e-06	1.188515e-09	2.473524e+01	7.594616e+01
2.680000e-06	3.523727e-06	1.205371e-09	2.498690e+01	7.669190e+01
2.690000e-06	3.558933e-06	1.219563e-09	2.523655e+01	7.740980e+01
2.700000e-06	3.593743e-06	1.230089e-09	2.548340e+01	7.810017e+01
2.710000e-06	3.628174e-06	1.239269e-09	2.572754e+01	7.876337e+01
2.720000e-06	3.662180e-06	1.242712e-09	2.596868e+01	7.939989e+01
2.730000e-06	3.695701e-06	1.243865e-09	2.620638e+01	8.001032e+01
2.740000e-06	3.728721e-06	1.251707e-09	2.644053e+01	8.059537e+01
2.750000e-06	3.761302e-06	1.263656e-09	2.667156e+01	8.115588e+01
2.760000e-06	3.793620e-06	1.275719e-09	2.690073e+01	8.169279e+01
2.770000e-06	3.825749e-06	1.285915e-09	2.712856e+01	8.220711e+01
2.780000e-06	3.857707e-06	1.294329e-09	2.735518e+01	8.269987e+01
2.790000e-06	3.889499e-06	1.300197e-09	2.758061e+01	8.317213e+01
2.800000e-06	3.921154e-06	1.298505e-09	2.780508e+01	8.362489e+01
2.810000e-06	3.952675e-06	1.292916e-09	2.802859e+01	8.405907e+01
2.820000e-06	3.984042e-06	1.294860e-09	2.825102e+01	8.447546e+01
2.830000e-06	4.015073e-06	1.305639e-09	2.847106e+01	8.487469e+01
2.840000e-06	4.045620e-06	1.313233e-09	2.868767e+01	8.525721e+01
2.850000e-06	4.075863e-06	1.315505e-09	2.890213e+01	8.562327e+01
2.860000e-06	4.105836e-06	1.321312e-09	2.911467e+01	8.597293e+01
2.870000e-06	4.135578e-06	1.332510e-09	2.932557e+01	8.630606e+01
2.880000e-06	4.165100e-06	1.337756e-09	2.953491e+01	8.662237e+01
2.890000e-06	4.194378e-06	1.331470e-09	2.974253e+01	8.692145e+01
2.900000e-06	4.223452e-06	1.324669e-09	2.994869e+01	8.720283e+01
