# Temperatura_=_4.06
# Concentracion g/m^3_=_4090.0
# C_Vs_to_Am_M_A/Vsm_=_65563218390.804596
# pendiente_HvsI_1/m_=_3716.3
# ordenada_HvsI_A/m_=_1297.0
# frecuencia_Hz_=_135081.70114678078

Tiempo_(s)	Campo_(V.s)	Magnetizacion_(V.s)	Campo_(kA/m)	Magnetizacion_(A/m)
0.000000e+00	-5.426026e-06	-1.438595e-09	-3.839379e+01	-9.703705e+01
1.000000e-08	-5.426299e-06	-1.432585e-09	-3.839572e+01	-9.688193e+01
2.000000e-08	-5.426332e-06	-1.422217e-09	-3.839596e+01	-9.670204e+01
3.000000e-08	-5.426048e-06	-1.412697e-09	-3.839395e+01	-9.649850e+01
4.000000e-08	-5.425404e-06	-1.407853e-09	-3.838939e+01	-9.627377e+01
5.000000e-08	-5.424192e-06	-1.411131e-09	-3.838082e+01	-9.603173e+01
6.000000e-08	-5.422365e-06	-1.425593e-09	-3.836789e+01	-9.577756e+01
7.000000e-08	-5.419978e-06	-1.432152e-09	-3.835100e+01	-9.551765e+01
8.000000e-08	-5.416982e-06	-1.409444e-09	-3.832980e+01	-9.525939e+01
9.000000e-08	-5.413425e-06	-1.379852e-09	-3.830463e+01	-9.501094e+01
1.000000e-07	-5.409483e-06	-1.442961e-09	-3.827674e+01	-9.478092e+01
1.100000e-07	-5.405309e-06	-1.509674e-09	-3.824720e+01	-9.457805e+01
1.200000e-07	-5.400872e-06	-1.439115e-09	-3.821581e+01	-9.441085e+01
1.300000e-07	-5.396221e-06	-1.338595e-09	-3.818290e+01	-9.428724e+01
1.400000e-07	-5.391243e-06	-1.401101e-09	-3.814767e+01	-9.421419e+01
1.500000e-07	-5.385704e-06	-1.521653e-09	-3.810848e+01	-9.419741e+01
1.600000e-07	-5.379663e-06	-1.467256e-09	-3.806574e+01	-9.424107e+01
1.700000e-07	-5.373290e-06	-1.315498e-09	-3.802064e+01	-9.434755e+01
1.800000e-07	-5.366687e-06	-1.399477e-09	-3.797392e+01	-9.451733e+01
1.900000e-07	-5.359540e-06	-1.520831e-09	-3.792335e+01	-9.474887e+01
2.000000e-07	-5.351899e-06	-1.500477e-09	-3.786928e+01	-9.503863e+01
2.100000e-07	-5.344212e-06	-1.412616e-09	-3.781489e+01	-9.538118e+01
2.200000e-07	-5.336417e-06	-1.506015e-09	-3.775974e+01	-9.576934e+01
2.300000e-07	-5.328314e-06	-1.564953e-09	-3.770240e+01	-9.619441e+01
2.400000e-07	-5.319896e-06	-1.506464e-09	-3.764284e+01	-9.664652e+01
2.500000e-07	-5.311005e-06	-1.511620e-09	-3.757992e+01	-9.711492e+01
2.600000e-07	-5.301464e-06	-1.621623e-09	-3.751241e+01	-9.758842e+01
2.700000e-07	-5.291154e-06	-1.626785e-09	-3.743946e+01	-9.805577e+01
2.800000e-07	-5.280221e-06	-1.552799e-09	-3.736210e+01	-9.850605e+01
2.900000e-07	-5.268922e-06	-1.585046e-09	-3.728215e+01	-9.892910e+01
3.000000e-07	-5.257238e-06	-1.614633e-09	-3.719947e+01	-9.931580e+01
3.100000e-07	-5.245180e-06	-1.542913e-09	-3.711415e+01	-9.965844e+01
3.200000e-07	-5.232704e-06	-1.499749e-09	-3.702588e+01	-9.995088e+01
3.300000e-07	-5.219804e-06	-1.599072e-09	-3.693459e+01	-1.001888e+02
3.400000e-07	-5.206618e-06	-1.600733e-09	-3.684130e+01	-1.003697e+02
3.500000e-07	-5.193100e-06	-1.550390e-09	-3.674565e+01	-1.004929e+02
3.600000e-07	-5.179081e-06	-1.557648e-09	-3.664644e+01	-1.005595e+02
3.700000e-07	-5.164736e-06	-1.601261e-09	-3.654495e+01	-1.005724e+02
3.800000e-07	-5.149869e-06	-1.538358e-09	-3.643975e+01	-1.005358e+02
3.900000e-07	-5.134233e-06	-1.520162e-09	-3.632911e+01	-1.004550e+02
4.000000e-07	-5.117988e-06	-1.543062e-09	-3.621416e+01	-1.003362e+02
4.100000e-07	-5.101367e-06	-1.537461e-09	-3.609655e+01	-1.001862e+02
4.200000e-07	-5.084486e-06	-1.522834e-09	-3.597710e+01	-1.000120e+02
4.300000e-07	-5.067316e-06	-1.573310e-09	-3.585562e+01	-9.982043e+01
4.400000e-07	-5.049834e-06	-1.564729e-09	-3.573192e+01	-9.961798e+01
4.500000e-07	-5.032029e-06	-1.523346e-09	-3.560593e+01	-9.941046e+01
4.600000e-07	-5.014005e-06	-1.521261e-09	-3.547839e+01	-9.920280e+01
4.700000e-07	-4.995666e-06	-1.543084e-09	-3.534863e+01	-9.899892e+01
4.800000e-07	-4.976831e-06	-1.509925e-09	-3.521535e+01	-9.880166e+01
4.900000e-07	-4.957562e-06	-1.500822e-09	-3.507901e+01	-9.861269e+01
5.000000e-07	-4.937998e-06	-1.518404e-09	-3.494058e+01	-9.843262e+01
5.100000e-07	-4.918165e-06	-1.523556e-09	-3.480025e+01	-9.826103e+01
5.200000e-07	-4.898093e-06	-1.516065e-09	-3.465821e+01	-9.809665e+01
5.300000e-07	-4.877785e-06	-1.515769e-09	-3.451452e+01	-9.793750e+01
5.400000e-07	-4.857220e-06	-1.501381e-09	-3.436900e+01	-9.778113e+01
5.500000e-07	-4.836416e-06	-1.498135e-09	-3.422180e+01	-9.762479e+01
5.600000e-07	-4.815180e-06	-1.509846e-09	-3.407153e+01	-9.746572e+01
5.700000e-07	-4.793519e-06	-1.497652e-09	-3.391826e+01	-9.730125e+01
5.800000e-07	-4.771625e-06	-1.477849e-09	-3.376335e+01	-9.712909e+01
5.900000e-07	-4.749468e-06	-1.481112e-09	-3.360657e+01	-9.694739e+01
6.000000e-07	-4.726996e-06	-1.489984e-09	-3.344756e+01	-9.675492e+01
6.100000e-07	-4.704149e-06	-1.478621e-09	-3.328590e+01	-9.655107e+01
6.200000e-07	-4.680893e-06	-1.472758e-09	-3.312134e+01	-9.633592e+01
6.300000e-07	-4.657316e-06	-1.471614e-09	-3.295451e+01	-9.611021e+01
6.400000e-07	-4.633551e-06	-1.485897e-09	-3.278635e+01	-9.587524e+01
6.500000e-07	-4.609566e-06	-1.488918e-09	-3.261664e+01	-9.563278e+01
6.600000e-07	-4.585324e-06	-1.478683e-09	-3.244511e+01	-9.538497e+01
6.700000e-07	-4.560862e-06	-1.458149e-09	-3.227202e+01	-9.513413e+01
6.800000e-07	-4.536095e-06	-1.460046e-09	-3.209677e+01	-9.488262e+01
6.900000e-07	-4.510824e-06	-1.456823e-09	-3.191796e+01	-9.463268e+01
7.000000e-07	-4.484964e-06	-1.448552e-09	-3.173497e+01	-9.438628e+01
7.100000e-07	-4.458628e-06	-1.436898e-09	-3.154862e+01	-9.414500e+01
7.200000e-07	-4.431822e-06	-1.448731e-09	-3.135895e+01	-9.390995e+01
7.300000e-07	-4.404603e-06	-1.458383e-09	-3.116635e+01	-9.368166e+01
7.400000e-07	-4.377114e-06	-1.459248e-09	-3.097184e+01	-9.346009e+01
7.500000e-07	-4.349368e-06	-1.442057e-09	-3.077551e+01	-9.324464e+01
7.600000e-07	-4.321446e-06	-1.436839e-09	-3.057794e+01	-9.303418e+01
7.700000e-07	-4.293319e-06	-1.437902e-09	-3.037892e+01	-9.282713e+01
7.800000e-07	-4.264932e-06	-1.436826e-09	-3.017806e+01	-9.262157e+01
7.900000e-07	-4.236243e-06	-1.423691e-09	-2.997506e+01	-9.241538e+01
8.000000e-07	-4.207179e-06	-1.422371e-09	-2.976941e+01	-9.220634e+01
8.100000e-07	-4.177705e-06	-1.430135e-09	-2.956085e+01	-9.199233e+01
8.200000e-07	-4.147949e-06	-1.433268e-09	-2.935030e+01	-9.177141e+01
8.300000e-07	-4.118088e-06	-1.422040e-09	-2.913901e+01	-9.154197e+01
8.400000e-07	-4.087999e-06	-1.410612e-09	-2.892611e+01	-9.130285e+01
8.500000e-07	-4.057588e-06	-1.407623e-09	-2.871092e+01	-9.105335e+01
8.600000e-07	-4.026873e-06	-1.407945e-09	-2.849358e+01	-9.079337e+01
8.700000e-07	-3.995888e-06	-1.401859e-09	-2.827434e+01	-9.052330e+01
8.800000e-07	-3.964651e-06	-1.390728e-09	-2.805331e+01	-9.024412e+01
8.900000e-07	-3.933191e-06	-1.388900e-09	-2.783071e+01	-8.995725e+01
9.000000e-07	-3.901500e-06	-1.387698e-09	-2.760647e+01	-8.966451e+01
9.100000e-07	-3.869578e-06	-1.381518e-09	-2.738059e+01	-8.936799e+01
9.200000e-07	-3.837479e-06	-1.369841e-09	-2.715346e+01	-8.906995e+01
9.300000e-07	-3.805209e-06	-1.369609e-09	-2.692512e+01	-8.877266e+01
9.400000e-07	-3.772696e-06	-1.376827e-09	-2.669506e+01	-8.847830e+01
9.500000e-07	-3.739761e-06	-1.381604e-09	-2.646202e+01	-8.818880e+01
9.600000e-07	-3.706391e-06	-1.372221e-09	-2.622590e+01	-8.790575e+01
9.700000e-07	-3.672724e-06	-1.362023e-09	-2.598768e+01	-8.763032e+01
9.800000e-07	-3.638654e-06	-1.354264e-09	-2.574661e+01	-8.736316e+01
9.900000e-07	-3.604149e-06	-1.350530e-09	-2.550245e+01	-8.710441e+01
1.000000e-06	-3.569298e-06	-1.338518e-09	-2.525585e+01	-8.685367e+01
1.010000e-06	-3.534029e-06	-1.333167e-09	-2.500629e+01	-8.661004e+01
1.020000e-06	-3.498482e-06	-1.335078e-09	-2.475477e+01	-8.637217e+01
1.030000e-06	-3.462819e-06	-1.342454e-09	-2.450242e+01	-8.613837e+01
1.040000e-06	-3.427004e-06	-1.340892e-09	-2.424900e+01	-8.590667e+01
1.050000e-06	-3.390985e-06	-1.332066e-09	-2.399413e+01	-8.567495e+01
1.060000e-06	-3.354841e-06	-1.319975e-09	-2.373838e+01	-8.544109e+01
1.070000e-06	-3.318571e-06	-1.312097e-09	-2.348174e+01	-8.520306e+01
1.080000e-06	-3.282024e-06	-1.301988e-09	-2.322314e+01	-8.495905e+01
1.090000e-06	-3.245163e-06	-1.292055e-09	-2.296231e+01	-8.470753e+01
1.100000e-06	-3.208061e-06	-1.287909e-09	-2.269978e+01	-8.444739e+01
1.110000e-06	-3.170717e-06	-1.290066e-09	-2.243555e+01	-8.417794e+01
1.120000e-06	-3.133133e-06	-1.289814e-09	-2.216961e+01	-8.389896e+01
1.130000e-06	-3.095369e-06	-1.282930e-09	-2.190240e+01	-8.361068e+01
1.140000e-06	-3.057441e-06	-1.271875e-09	-2.163402e+01	-8.331377e+01
1.150000e-06	-3.019341e-06	-1.261578e-09	-2.136443e+01	-8.300926e+01
1.160000e-06	-2.981025e-06	-1.253474e-09	-2.109331e+01	-8.269849e+01
1.170000e-06	-2.942483e-06	-1.245489e-09	-2.082059e+01	-8.238298e+01
1.180000e-06	-2.903707e-06	-1.238976e-09	-2.054622e+01	-8.206438e+01
1.190000e-06	-2.864691e-06	-1.235678e-09	-2.027015e+01	-8.174428e+01
1.200000e-06	-2.825436e-06	-1.235810e-09	-1.999239e+01	-8.142420e+01
1.210000e-06	-2.786043e-06	-1.234795e-09	-1.971365e+01	-8.110542e+01
1.220000e-06	-2.746568e-06	-1.230802e-09	-1.943433e+01	-8.078895e+01
1.230000e-06	-2.706943e-06	-1.223184e-09	-1.915395e+01	-8.047542e+01
1.240000e-06	-2.667165e-06	-1.219047e-09	-1.887248e+01	-8.016509e+01
1.250000e-06	-2.627206e-06	-1.215298e-09	-1.858974e+01	-7.985781e+01
1.260000e-06	-2.587127e-06	-1.211571e-09	-1.830615e+01	-7.955303e+01
1.270000e-06	-2.547002e-06	-1.204949e-09	-1.802223e+01	-7.924984e+01
1.280000e-06	-2.506831e-06	-1.199395e-09	-1.773799e+01	-7.894704e+01
1.290000e-06	-2.466578e-06	-1.195247e-09	-1.745316e+01	-7.864321e+01
1.300000e-06	-2.426158e-06	-1.192201e-09	-1.716715e+01	-7.833676e+01
1.310000e-06	-2.385479e-06	-1.183844e-09	-1.687931e+01	-7.802609e+01
1.320000e-06	-2.344614e-06	-1.175060e-09	-1.659016e+01	-7.770962e+01
1.330000e-06	-2.303553e-06	-1.169048e-09	-1.629962e+01	-7.738592e+01
1.340000e-06	-2.262131e-06	-1.166757e-09	-1.600652e+01	-7.705378e+01
1.350000e-06	-2.220389e-06	-1.162892e-09	-1.571116e+01	-7.671227e+01
1.360000e-06	-2.178306e-06	-1.156296e-09	-1.541339e+01	-7.636077e+01
1.370000e-06	-2.135845e-06	-1.149947e-09	-1.511294e+01	-7.599902e+01
1.380000e-06	-2.093151e-06	-1.146157e-09	-1.481084e+01	-7.562710e+01
1.390000e-06	-2.050285e-06	-1.141339e-09	-1.450753e+01	-7.524542e+01
1.400000e-06	-2.007172e-06	-1.132032e-09	-1.420246e+01	-7.485467e+01
1.410000e-06	-1.963904e-06	-1.119415e-09	-1.389631e+01	-7.445577e+01
1.420000e-06	-1.920533e-06	-1.111549e-09	-1.358942e+01	-7.404978e+01
1.430000e-06	-1.877006e-06	-1.110596e-09	-1.328143e+01	-7.363783e+01
1.440000e-06	-1.833290e-06	-1.111766e-09	-1.297210e+01	-7.322103e+01
1.450000e-06	-1.789465e-06	-1.109382e-09	-1.266201e+01	-7.280040e+01
1.460000e-06	-1.745668e-06	-1.104811e-09	-1.235210e+01	-7.237676e+01
1.470000e-06	-1.701831e-06	-1.099375e-09	-1.204192e+01	-7.195072e+01
1.480000e-06	-1.657895e-06	-1.091090e-09	-1.173103e+01	-7.152259e+01
1.490000e-06	-1.613835e-06	-1.080624e-09	-1.141927e+01	-7.109237e+01
1.500000e-06	-1.569672e-06	-1.070229e-09	-1.110678e+01	-7.065974e+01
1.510000e-06	-1.525512e-06	-1.064967e-09	-1.079431e+01	-7.022406e+01
1.520000e-06	-1.481311e-06	-1.063543e-09	-1.048155e+01	-6.978443e+01
1.530000e-06	-1.436948e-06	-1.059592e-09	-1.016764e+01	-6.933973e+01
1.540000e-06	-1.392503e-06	-1.051761e-09	-9.853157e+00	-6.888867e+01
1.550000e-06	-1.348050e-06	-1.039434e-09	-9.538614e+00	-6.842988e+01
1.560000e-06	-1.303482e-06	-1.026559e-09	-9.223254e+00	-6.796197e+01
1.570000e-06	-1.258720e-06	-1.018931e-09	-8.906523e+00	-6.748364e+01
1.580000e-06	-1.213858e-06	-1.013679e-09	-8.589091e+00	-6.699371e+01
1.590000e-06	-1.169018e-06	-1.010935e-09	-8.271809e+00	-6.649122e+01
1.600000e-06	-1.124031e-06	-1.006813e-09	-7.953488e+00	-6.597545e+01
1.610000e-06	-1.078820e-06	-1.000791e-09	-7.633576e+00	-6.544596e+01
1.620000e-06	-1.033641e-06	-9.909796e-10	-7.313900e+00	-6.490259e+01
1.630000e-06	-9.884576e-07	-9.784717e-10	-6.994187e+00	-6.434547e+01
1.640000e-06	-9.430429e-07	-9.657183e-10	-6.672839e+00	-6.377496e+01
1.650000e-06	-8.975026e-07	-9.528387e-10	-6.350602e+00	-6.319163e+01
1.660000e-06	-8.519937e-07	-9.420803e-10	-6.028587e+00	-6.259617e+01
1.670000e-06	-8.064561e-07	-9.394884e-10	-5.706370e+00	-6.198935e+01
1.680000e-06	-7.608935e-07	-9.400735e-10	-5.383975e+00	-6.137192e+01
1.690000e-06	-7.153065e-07	-9.352186e-10	-5.061408e+00	-6.074450e+01
1.700000e-06	-6.696512e-07	-9.198402e-10	-4.738358e+00	-6.010756e+01
1.710000e-06	-6.239185e-07	-9.023919e-10	-4.414759e+00	-5.946133e+01
1.720000e-06	-5.781201e-07	-8.895114e-10	-4.090697e+00	-5.880573e+01
1.730000e-06	-5.323087e-07	-8.786582e-10	-3.766541e+00	-5.814035e+01
1.740000e-06	-4.864795e-07	-8.655511e-10	-3.442261e+00	-5.746443e+01
1.750000e-06	-4.405945e-07	-8.548668e-10	-3.117585e+00	-5.677686e+01
1.760000e-06	-3.947260e-07	-8.485550e-10	-2.793026e+00	-5.607621e+01
1.770000e-06	-3.489693e-07	-8.392606e-10	-2.469257e+00	-5.536077e+01
1.780000e-06	-3.031462e-07	-8.228799e-10	-2.145020e+00	-5.462863e+01
1.790000e-06	-2.571479e-07	-8.085647e-10	-1.819542e+00	-5.387771e+01
1.800000e-06	-2.111093e-07	-7.989896e-10	-1.493780e+00	-5.310589e+01
1.810000e-06	-1.650669e-07	-7.861535e-10	-1.167990e+00	-5.231108e+01
1.820000e-06	-1.190834e-07	-7.692154e-10	-8.426170e-01	-5.149130e+01
1.830000e-06	-7.315260e-08	-7.517529e-10	-5.176175e-01	-5.064476e+01
1.840000e-06	-2.715424e-08	-7.385909e-10	-1.921396e-01	-4.976995e+01
1.850000e-06	1.885744e-08	-7.273684e-10	1.334326e-01	-4.886565e+01
1.860000e-06	6.482555e-08	-7.121906e-10	4.586965e-01	-4.793104e+01
1.870000e-06	1.107515e-07	-6.958744e-10	7.836619e-01	-4.696561e+01
1.880000e-06	1.567083e-07	-6.851509e-10	1.108846e+00	-4.596925e+01
1.890000e-06	2.027436e-07	-6.745244e-10	1.434585e+00	-4.494217e+01
1.900000e-06	2.487398e-07	-6.577589e-10	1.760048e+00	-4.388485e+01
1.910000e-06	2.946912e-07	-6.336081e-10	2.085193e+00	-4.279802e+01
1.920000e-06	3.406326e-07	-6.116351e-10	2.410268e+00	-4.168252e+01
1.930000e-06	3.865562e-07	-5.947072e-10	2.735217e+00	-4.053928e+01
1.940000e-06	4.324346e-07	-5.801017e-10	3.059846e+00	-3.936920e+01
1.950000e-06	4.782318e-07	-5.625479e-10	3.383901e+00	-3.817308e+01
1.960000e-06	5.239489e-07	-5.455695e-10	3.707389e+00	-3.695154e+01
1.970000e-06	5.696019e-07	-5.298470e-10	4.030423e+00	-3.570498e+01
1.980000e-06	6.153546e-07	-5.089796e-10	4.354162e+00	-3.443350e+01
1.990000e-06	6.611110e-07	-4.826423e-10	4.677929e+00	-3.313690e+01
2.000000e-06	7.066796e-07	-4.567225e-10	5.000365e+00	-3.181469e+01
2.010000e-06	7.522011e-07	-4.386594e-10	5.322469e+00	-3.046607e+01
2.020000e-06	7.977182e-07	-4.250701e-10	5.644542e+00	-2.908999e+01
2.030000e-06	8.431061e-07	-4.076532e-10	5.965700e+00	-2.768522e+01
2.040000e-06	8.884606e-07	-3.863123e-10	6.286622e+00	-2.625040e+01
2.050000e-06	9.338045e-07	-3.645161e-10	6.607469e+00	-2.478410e+01
2.060000e-06	9.791019e-07	-3.409004e-10	6.927987e+00	-2.328497e+01
2.070000e-06	1.024426e-06	-3.128859e-10	7.248691e+00	-2.175176e+01
2.080000e-06	1.069607e-06	-2.831506e-10	7.568391e+00	-2.018344e+01
2.090000e-06	1.114571e-06	-2.577540e-10	7.886551e+00	-1.857928e+01
2.100000e-06	1.159476e-06	-2.377319e-10	8.204289e+00	-1.693886e+01
2.110000e-06	1.204347e-06	-2.183851e-10	8.521787e+00	-1.526217e+01
2.120000e-06	1.249105e-06	-1.943921e-10	8.838491e+00	-1.354959e+01
2.130000e-06	1.293762e-06	-1.688058e-10	9.154475e+00	-1.180190e+01
2.140000e-06	1.338283e-06	-1.418962e-10	9.469502e+00	-1.002030e+01
2.150000e-06	1.382721e-06	-1.126629e-10	9.783942e+00	-8.206286e+00
2.160000e-06	1.427069e-06	-8.043298e-11	1.009774e+01	-6.361695e+00
2.170000e-06	1.471302e-06	-4.998089e-11	1.041073e+01	-4.488570e+00
2.180000e-06	1.515493e-06	-2.343990e-11	1.072341e+01	-2.589114e+00
2.190000e-06	1.559586e-06	4.844949e-13	1.103541e+01	-6.656047e-01
2.200000e-06	1.603612e-06	2.643737e-11	1.134693e+01	1.279677e+00
2.210000e-06	1.647640e-06	5.318720e-11	1.165847e+01	3.244517e+00
2.220000e-06	1.691616e-06	8.069807e-11	1.196964e+01	5.226826e+00
2.230000e-06	1.735504e-06	1.136306e-10	1.228018e+01	7.224677e+00
2.240000e-06	1.779315e-06	1.514233e-10	1.259019e+01	9.236334e+00
2.250000e-06	1.823066e-06	1.896596e-10	1.289976e+01	1.126025e+01
2.260000e-06	1.866725e-06	2.229740e-10	1.320868e+01	1.329506e+01
2.270000e-06	1.910296e-06	2.523718e-10	1.351699e+01	1.533955e+01
2.280000e-06	1.953779e-06	2.796290e-10	1.382466e+01	1.739257e+01
2.290000e-06	1.997144e-06	3.065940e-10	1.413151e+01	1.945302e+01
2.300000e-06	2.040304e-06	3.342797e-10	1.443691e+01	2.151976e+01
2.310000e-06	2.083288e-06	3.641168e-10	1.474105e+01	2.359153e+01
2.320000e-06	2.126121e-06	3.988097e-10	1.504413e+01	2.566687e+01
2.330000e-06	2.168573e-06	4.382611e-10	1.534452e+01	2.774406e+01
2.340000e-06	2.210747e-06	4.747505e-10	1.564294e+01	2.982107e+01
2.350000e-06	2.252753e-06	5.046540e-10	1.594016e+01	3.189551e+01
2.360000e-06	2.294368e-06	5.299910e-10	1.623462e+01	3.396464e+01
2.370000e-06	2.335517e-06	5.570420e-10	1.652579e+01	3.602531e+01
2.380000e-06	2.376358e-06	5.861051e-10	1.681478e+01	3.807408e+01
2.390000e-06	2.417035e-06	6.156884e-10	1.710260e+01	4.010717e+01
2.400000e-06	2.457549e-06	6.465543e-10	1.738927e+01	4.212060e+01
2.410000e-06	2.497817e-06	6.807065e-10	1.767420e+01	4.411026e+01
2.420000e-06	2.537945e-06	7.172752e-10	1.795814e+01	4.607200e+01
2.430000e-06	2.577999e-06	7.506406e-10	1.824156e+01	4.800174e+01
2.440000e-06	2.617956e-06	7.795110e-10	1.852429e+01	4.989560e+01
2.450000e-06	2.657883e-06	8.051860e-10	1.880681e+01	5.175001e+01
2.460000e-06	2.697705e-06	8.303371e-10	1.908858e+01	5.356179e+01
2.470000e-06	2.737355e-06	8.552042e-10	1.936914e+01	5.532827e+01
2.480000e-06	2.776899e-06	8.784564e-10	1.964895e+01	5.704732e+01
2.490000e-06	2.816312e-06	9.022676e-10	1.992783e+01	5.871744e+01
2.500000e-06	2.855499e-06	9.284030e-10	2.020511e+01	6.033774e+01
2.510000e-06	2.894390e-06	9.583722e-10	2.048030e+01	6.190797e+01
2.520000e-06	2.933022e-06	9.884723e-10	2.075365e+01	6.342846e+01
2.530000e-06	2.971477e-06	1.014258e-09	2.102575e+01	6.490008e+01
2.540000e-06	3.009713e-06	1.036218e-09	2.129630e+01	6.632417e+01
2.550000e-06	3.047769e-06	1.055694e-09	2.156559e+01	6.770241e+01
2.560000e-06	3.085677e-06	1.073027e-09	2.183381e+01	6.903676e+01
2.570000e-06	3.123413e-06	1.088684e-09	2.210083e+01	7.032933e+01
2.580000e-06	3.160924e-06	1.104061e-09	2.236625e+01	7.158224e+01
2.590000e-06	3.198192e-06	1.122800e-09	2.262996e+01	7.279756e+01
2.600000e-06	3.235163e-06	1.147356e-09	2.289156e+01	7.397719e+01
2.610000e-06	3.271824e-06	1.172924e-09	2.315097e+01	7.512276e+01
2.620000e-06	3.308325e-06	1.194878e-09	2.340924e+01	7.623561e+01
2.630000e-06	3.344688e-06	1.211133e-09	2.366654e+01	7.731673e+01
2.640000e-06	3.380842e-06	1.222784e-09	2.392236e+01	7.836673e+01
2.650000e-06	3.416826e-06	1.231385e-09	2.417698e+01	7.938588e+01
2.660000e-06	3.452739e-06	1.237537e-09	2.443109e+01	8.037413e+01
2.670000e-06	3.488567e-06	1.244923e-09	2.468461e+01	8.133114e+01
2.680000e-06	3.524221e-06	1.256432e-09	2.493689e+01	8.225637e+01
2.690000e-06	3.559587e-06	1.272012e-09	2.518714e+01	8.314914e+01
2.700000e-06	3.594615e-06	1.290317e-09	2.543499e+01	8.400874e+01
2.710000e-06	3.629274e-06	1.308782e-09	2.568023e+01	8.483446e+01
2.720000e-06	3.663482e-06	1.324186e-09	2.592228e+01	8.562573e+01
2.730000e-06	3.697173e-06	1.336075e-09	2.616068e+01	8.638215e+01
2.740000e-06	3.730489e-06	1.345108e-09	2.639642e+01	8.710356e+01
2.750000e-06	3.763423e-06	1.350511e-09	2.662945e+01	8.779007e+01
2.760000e-06	3.795857e-06	1.353852e-09	2.685895e+01	8.844211e+01
2.770000e-06	3.828026e-06	1.358529e-09	2.708657e+01	8.906038e+01
2.780000e-06	3.860051e-06	1.369149e-09	2.731317e+01	8.964591e+01
2.790000e-06	3.891947e-06	1.381924e-09	2.753887e+01	9.019995e+01
2.800000e-06	3.923739e-06	1.393387e-09	2.776383e+01	9.072397e+01
2.810000e-06	3.955334e-06	1.400731e-09	2.798738e+01	9.121960e+01
2.820000e-06	3.986696e-06	1.405758e-09	2.820930e+01	9.168855e+01
2.830000e-06	4.017800e-06	1.410104e-09	2.842939e+01	9.213255e+01
2.840000e-06	4.048587e-06	1.411952e-09	2.864723e+01	9.255328e+01
2.850000e-06	4.078965e-06	1.411479e-09	2.886218e+01	9.295234e+01
2.860000e-06	4.109055e-06	1.412906e-09	2.907509e+01	9.333116e+01
2.870000e-06	4.138948e-06	1.420165e-09	2.928662e+01	9.369100e+01
2.880000e-06	4.168580e-06	1.429815e-09	2.949629e+01	9.403291e+01
2.890000e-06	4.197923e-06	1.436852e-09	2.970391e+01	9.435772e+01
2.900000e-06	4.226955e-06	1.440960e-09	2.990934e+01	9.466610e+01
