# Temperatura_=_-1.3
# Concentracion g/m^3_=_4090.0
# C_Vs_to_Am_M_A/Vsm_=_65563218390.804596
# pendiente_HvsI_1/m_=_3716.3
# ordenada_HvsI_A/m_=_1297.0
# frecuencia_Hz_=_135072.4150231048

Tiempo_(s)	Campo_(V.s)	Magnetizacion_(V.s)	Campo_(kA/m)	Magnetizacion_(A/m)
0.000000e+00	-5.406742e-06	-2.196797e-09	-3.837896e+01	-1.459709e+02
1.000000e-08	-5.406833e-06	-2.193223e-09	-3.837961e+01	-1.458342e+02
2.000000e-08	-5.406747e-06	-2.188214e-09	-3.837900e+01	-1.456805e+02
3.000000e-08	-5.406504e-06	-2.182326e-09	-3.837727e+01	-1.455106e+02
4.000000e-08	-5.405936e-06	-2.180645e-09	-3.837324e+01	-1.453260e+02
5.000000e-08	-5.404792e-06	-2.184811e-09	-3.836512e+01	-1.451290e+02
6.000000e-08	-5.402952e-06	-2.182592e-09	-3.835206e+01	-1.449229e+02
7.000000e-08	-5.400439e-06	-2.163960e-09	-3.833422e+01	-1.447116e+02
8.000000e-08	-5.397384e-06	-2.168952e-09	-3.831254e+01	-1.444995e+02
9.000000e-08	-5.393878e-06	-2.224166e-09	-3.828765e+01	-1.442918e+02
1.000000e-07	-5.389912e-06	-2.258574e-09	-3.825950e+01	-1.440937e+02
1.100000e-07	-5.385639e-06	-2.182985e-09	-3.822917e+01	-1.439107e+02
1.200000e-07	-5.381280e-06	-2.134533e-09	-3.819823e+01	-1.437479e+02
1.300000e-07	-5.376739e-06	-2.164631e-09	-3.816599e+01	-1.436104e+02
1.400000e-07	-5.371727e-06	-2.243820e-09	-3.813042e+01	-1.435025e+02
1.500000e-07	-5.366187e-06	-2.172436e-09	-3.809109e+01	-1.434279e+02
1.600000e-07	-5.360326e-06	-2.120640e-09	-3.804949e+01	-1.433891e+02
1.700000e-07	-5.354203e-06	-2.170912e-09	-3.800603e+01	-1.433879e+02
1.800000e-07	-5.347626e-06	-2.247430e-09	-3.795934e+01	-1.434245e+02
1.900000e-07	-5.340550e-06	-2.204051e-09	-3.790911e+01	-1.434982e+02
2.000000e-07	-5.333218e-06	-2.156673e-09	-3.785707e+01	-1.436069e+02
2.100000e-07	-5.325775e-06	-2.186112e-09	-3.780423e+01	-1.437472e+02
2.200000e-07	-5.318022e-06	-2.188508e-09	-3.774920e+01	-1.439150e+02
2.300000e-07	-5.309930e-06	-2.174694e-09	-3.769176e+01	-1.441048e+02
2.400000e-07	-5.301642e-06	-2.203076e-09	-3.763292e+01	-1.443106e+02
2.500000e-07	-5.292872e-06	-2.272497e-09	-3.757067e+01	-1.445258e+02
2.600000e-07	-5.283320e-06	-2.254433e-09	-3.750287e+01	-1.447435e+02
2.700000e-07	-5.273051e-06	-2.254141e-09	-3.742998e+01	-1.449567e+02
2.800000e-07	-5.262265e-06	-2.278519e-09	-3.735341e+01	-1.451588e+02
2.900000e-07	-5.251037e-06	-2.274272e-09	-3.727371e+01	-1.453433e+02
3.000000e-07	-5.239411e-06	-2.197561e-09	-3.719119e+01	-1.455046e+02
3.100000e-07	-5.227404e-06	-2.219004e-09	-3.710596e+01	-1.456379e+02
3.200000e-07	-5.214997e-06	-2.283402e-09	-3.701789e+01	-1.457393e+02
3.300000e-07	-5.202260e-06	-2.295599e-09	-3.692748e+01	-1.458062e+02
3.400000e-07	-5.189216e-06	-2.239490e-09	-3.683489e+01	-1.458369e+02
3.500000e-07	-5.175756e-06	-2.254971e-09	-3.673934e+01	-1.458310e+02
3.600000e-07	-5.161833e-06	-2.259993e-09	-3.664051e+01	-1.457891e+02
3.700000e-07	-5.147517e-06	-2.247742e-09	-3.653889e+01	-1.457129e+02
3.800000e-07	-5.132715e-06	-2.224124e-09	-3.643382e+01	-1.456049e+02
3.900000e-07	-5.117303e-06	-2.229597e-09	-3.632443e+01	-1.454683e+02
4.000000e-07	-5.101296e-06	-2.222361e-09	-3.621080e+01	-1.453070e+02
4.100000e-07	-5.084798e-06	-2.250169e-09	-3.609369e+01	-1.451248e+02
4.200000e-07	-5.067915e-06	-2.268085e-09	-3.597385e+01	-1.449261e+02
4.300000e-07	-5.050714e-06	-2.237412e-09	-3.585175e+01	-1.447148e+02
4.400000e-07	-5.033255e-06	-2.210670e-09	-3.572782e+01	-1.444947e+02
4.500000e-07	-5.015535e-06	-2.228786e-09	-3.560204e+01	-1.442692e+02
4.600000e-07	-4.997542e-06	-2.238278e-09	-3.547431e+01	-1.440410e+02
4.700000e-07	-4.979246e-06	-2.206382e-09	-3.534445e+01	-1.438124e+02
4.800000e-07	-4.960601e-06	-2.200250e-09	-3.521210e+01	-1.435847e+02
4.900000e-07	-4.941479e-06	-2.209921e-09	-3.507637e+01	-1.433588e+02
5.000000e-07	-4.921851e-06	-2.219986e-09	-3.493704e+01	-1.431347e+02
5.100000e-07	-4.901963e-06	-2.204813e-09	-3.479586e+01	-1.429119e+02
5.200000e-07	-4.881935e-06	-2.192193e-09	-3.465370e+01	-1.426894e+02
5.300000e-07	-4.861733e-06	-2.178569e-09	-3.451029e+01	-1.424658e+02
5.400000e-07	-4.841266e-06	-2.198871e-09	-3.436502e+01	-1.422396e+02
5.500000e-07	-4.820455e-06	-2.203687e-09	-3.421729e+01	-1.420089e+02
5.600000e-07	-4.799269e-06	-2.192284e-09	-3.406690e+01	-1.417722e+02
5.700000e-07	-4.777687e-06	-2.170909e-09	-3.391371e+01	-1.415279e+02
5.800000e-07	-4.755867e-06	-2.178449e-09	-3.375882e+01	-1.412749e+02
5.900000e-07	-4.733866e-06	-2.172449e-09	-3.360266e+01	-1.410124e+02
6.000000e-07	-4.711527e-06	-2.159004e-09	-3.344408e+01	-1.407400e+02
6.100000e-07	-4.688836e-06	-2.141505e-09	-3.328301e+01	-1.404580e+02
6.200000e-07	-4.665765e-06	-2.153338e-09	-3.311925e+01	-1.401669e+02
6.300000e-07	-4.642294e-06	-2.165255e-09	-3.295264e+01	-1.398677e+02
6.400000e-07	-4.618576e-06	-2.167054e-09	-3.278428e+01	-1.395621e+02
6.500000e-07	-4.594681e-06	-2.148953e-09	-3.261467e+01	-1.392518e+02
6.600000e-07	-4.570594e-06	-2.140782e-09	-3.244369e+01	-1.389387e+02
6.700000e-07	-4.546333e-06	-2.137258e-09	-3.227148e+01	-1.386249e+02
6.800000e-07	-4.521719e-06	-2.133296e-09	-3.209676e+01	-1.383125e+02
6.900000e-07	-4.496587e-06	-2.116361e-09	-3.191836e+01	-1.380033e+02
7.000000e-07	-4.470873e-06	-2.107023e-09	-3.173584e+01	-1.376991e+02
7.100000e-07	-4.444557e-06	-2.114071e-09	-3.154904e+01	-1.374010e+02
7.200000e-07	-4.417713e-06	-2.123926e-09	-3.135849e+01	-1.371100e+02
7.300000e-07	-4.390422e-06	-2.116340e-09	-3.116476e+01	-1.368265e+02
7.400000e-07	-4.362837e-06	-2.100140e-09	-3.096896e+01	-1.365503e+02
7.500000e-07	-4.335079e-06	-2.096580e-09	-3.077192e+01	-1.362808e+02
7.600000e-07	-4.307172e-06	-2.096084e-09	-3.057383e+01	-1.360171e+02
7.700000e-07	-4.279082e-06	-2.090795e-09	-3.037443e+01	-1.357577e+02
7.800000e-07	-4.250798e-06	-2.079267e-09	-3.017367e+01	-1.355009e+02
7.900000e-07	-4.222240e-06	-2.080546e-09	-2.997095e+01	-1.352447e+02
8.000000e-07	-4.193281e-06	-2.086084e-09	-2.976539e+01	-1.349871e+02
8.100000e-07	-4.163944e-06	-2.084963e-09	-2.955714e+01	-1.347259e+02
8.200000e-07	-4.134364e-06	-2.068502e-09	-2.934717e+01	-1.344592e+02
8.300000e-07	-4.104544e-06	-2.060968e-09	-2.913551e+01	-1.341852e+02
8.400000e-07	-4.074431e-06	-2.060202e-09	-2.892175e+01	-1.339024e+02
8.500000e-07	-4.044107e-06	-2.060354e-09	-2.870650e+01	-1.336096e+02
8.600000e-07	-4.013524e-06	-2.044945e-09	-2.848941e+01	-1.333060e+02
8.700000e-07	-3.982603e-06	-2.033981e-09	-2.826992e+01	-1.329914e+02
8.800000e-07	-3.951344e-06	-2.030967e-09	-2.804804e+01	-1.326655e+02
8.900000e-07	-3.919822e-06	-2.033210e-09	-2.782428e+01	-1.323290e+02
9.000000e-07	-3.888137e-06	-2.021857e-09	-2.759937e+01	-1.319824e+02
9.100000e-07	-3.856310e-06	-2.009994e-09	-2.737345e+01	-1.316268e+02
9.200000e-07	-3.824317e-06	-2.005633e-09	-2.714635e+01	-1.312634e+02
9.300000e-07	-3.792126e-06	-2.013680e-09	-2.691785e+01	-1.308934e+02
9.400000e-07	-3.759729e-06	-2.012884e-09	-2.668789e+01	-1.305182e+02
9.500000e-07	-3.727055e-06	-2.003444e-09	-2.645595e+01	-1.301390e+02
9.600000e-07	-3.694053e-06	-1.993848e-09	-2.622169e+01	-1.297571e+02
9.700000e-07	-3.660687e-06	-1.992923e-09	-2.598485e+01	-1.293733e+02
9.800000e-07	-3.626937e-06	-1.986998e-09	-2.574528e+01	-1.289884e+02
9.900000e-07	-3.592623e-06	-1.971941e-09	-2.550171e+01	-1.286030e+02
1.000000e-06	-3.557825e-06	-1.959483e-09	-2.525470e+01	-1.282172e+02
1.010000e-06	-3.522863e-06	-1.959836e-09	-2.500653e+01	-1.278311e+02
1.020000e-06	-3.487560e-06	-1.962497e-09	-2.475593e+01	-1.274445e+02
1.030000e-06	-3.451919e-06	-1.956133e-09	-2.450294e+01	-1.270570e+02
1.040000e-06	-3.416200e-06	-1.944787e-09	-2.424940e+01	-1.266680e+02
1.050000e-06	-3.380365e-06	-1.937496e-09	-2.399503e+01	-1.262771e+02
1.060000e-06	-3.344378e-06	-1.932261e-09	-2.373958e+01	-1.258837e+02
1.070000e-06	-3.308226e-06	-1.918861e-09	-2.348296e+01	-1.254874e+02
1.080000e-06	-3.271866e-06	-1.903444e-09	-2.322486e+01	-1.250877e+02
1.090000e-06	-3.235261e-06	-1.896689e-09	-2.296502e+01	-1.246845e+02
1.100000e-06	-3.198400e-06	-1.900868e-09	-2.270337e+01	-1.242777e+02
1.110000e-06	-3.161186e-06	-1.897681e-09	-2.243921e+01	-1.238676e+02
1.120000e-06	-3.123683e-06	-1.888145e-09	-2.217301e+01	-1.234546e+02
1.130000e-06	-3.085978e-06	-1.877826e-09	-2.190536e+01	-1.230392e+02
1.140000e-06	-3.048092e-06	-1.872195e-09	-2.163643e+01	-1.226220e+02
1.150000e-06	-3.010114e-06	-1.863119e-09	-2.136685e+01	-1.222040e+02
1.160000e-06	-2.971960e-06	-1.851651e-09	-2.109602e+01	-1.217858e+02
1.170000e-06	-2.933600e-06	-1.840883e-09	-2.082373e+01	-1.213683e+02
1.180000e-06	-2.895029e-06	-1.839648e-09	-2.054994e+01	-1.209520e+02
1.190000e-06	-2.856107e-06	-1.835298e-09	-2.027366e+01	-1.205374e+02
1.200000e-06	-2.816946e-06	-1.825906e-09	-1.999568e+01	-1.201247e+02
1.210000e-06	-2.777642e-06	-1.817160e-09	-1.971668e+01	-1.197138e+02
1.220000e-06	-2.738092e-06	-1.815830e-09	-1.943594e+01	-1.193044e+02
1.230000e-06	-2.698405e-06	-1.811449e-09	-1.915423e+01	-1.188958e+02
1.240000e-06	-2.658654e-06	-1.802253e-09	-1.887207e+01	-1.184868e+02
1.250000e-06	-2.618784e-06	-1.793868e-09	-1.858906e+01	-1.180762e+02
1.260000e-06	-2.578835e-06	-1.790413e-09	-1.830548e+01	-1.176624e+02
1.270000e-06	-2.538827e-06	-1.786022e-09	-1.802149e+01	-1.172437e+02
1.280000e-06	-2.498728e-06	-1.778647e-09	-1.773686e+01	-1.168181e+02
1.290000e-06	-2.458504e-06	-1.769973e-09	-1.745133e+01	-1.163838e+02
1.300000e-06	-2.418104e-06	-1.762031e-09	-1.716455e+01	-1.159389e+02
1.310000e-06	-2.377472e-06	-1.753299e-09	-1.687614e+01	-1.154818e+02
1.320000e-06	-2.336651e-06	-1.739678e-09	-1.658637e+01	-1.150109e+02
1.330000e-06	-2.295676e-06	-1.727308e-09	-1.629552e+01	-1.145253e+02
1.340000e-06	-2.254445e-06	-1.720717e-09	-1.600284e+01	-1.140240e+02
1.350000e-06	-2.212884e-06	-1.720295e-09	-1.570783e+01	-1.135067e+02
1.360000e-06	-2.170974e-06	-1.716601e-09	-1.541034e+01	-1.129734e+02
1.370000e-06	-2.128764e-06	-1.707511e-09	-1.511072e+01	-1.124247e+02
1.380000e-06	-2.086308e-06	-1.699247e-09	-1.480935e+01	-1.118612e+02
1.390000e-06	-2.043641e-06	-1.693551e-09	-1.450649e+01	-1.112842e+02
1.400000e-06	-2.000784e-06	-1.682707e-09	-1.420227e+01	-1.106952e+02
1.410000e-06	-1.957670e-06	-1.667233e-09	-1.389623e+01	-1.100957e+02
1.420000e-06	-1.914376e-06	-1.651760e-09	-1.358892e+01	-1.094877e+02
1.430000e-06	-1.871013e-06	-1.642829e-09	-1.328111e+01	-1.088727e+02
1.440000e-06	-1.827466e-06	-1.637193e-09	-1.297200e+01	-1.082526e+02
1.450000e-06	-1.783770e-06	-1.629258e-09	-1.266183e+01	-1.076288e+02
1.460000e-06	-1.739990e-06	-1.621870e-09	-1.235106e+01	-1.070026e+02
1.470000e-06	-1.696108e-06	-1.619069e-09	-1.203957e+01	-1.063749e+02
1.480000e-06	-1.652175e-06	-1.614678e-09	-1.172772e+01	-1.057462e+02
1.490000e-06	-1.608187e-06	-1.605375e-09	-1.141548e+01	-1.051169e+02
1.500000e-06	-1.564117e-06	-1.591213e-09	-1.110265e+01	-1.044865e+02
1.510000e-06	-1.519986e-06	-1.577274e-09	-1.078940e+01	-1.038546e+02
1.520000e-06	-1.475745e-06	-1.563419e-09	-1.047536e+01	-1.032202e+02
1.530000e-06	-1.431432e-06	-1.549467e-09	-1.016081e+01	-1.025819e+02
1.540000e-06	-1.387115e-06	-1.537174e-09	-9.846235e+00	-1.019384e+02
1.550000e-06	-1.342678e-06	-1.530350e-09	-9.530800e+00	-1.012880e+02
1.560000e-06	-1.298193e-06	-1.527645e-09	-9.215031e+00	-1.006291e+02
1.570000e-06	-1.253705e-06	-1.522253e-09	-8.899237e+00	-9.995992e+01
1.580000e-06	-1.209170e-06	-1.512070e-09	-8.583112e+00	-9.927900e+01
1.590000e-06	-1.164600e-06	-1.496868e-09	-8.266743e+00	-9.858496e+01
1.600000e-06	-1.119872e-06	-1.479395e-09	-7.949247e+00	-9.787665e+01
1.610000e-06	-1.074974e-06	-1.463683e-09	-7.630541e+00	-9.715319e+01
1.620000e-06	-1.029980e-06	-1.450149e-09	-7.311163e+00	-9.641399e+01
1.630000e-06	-9.849185e-07	-1.441768e-09	-6.991299e+00	-9.565876e+01
1.640000e-06	-9.397698e-07	-1.436691e-09	-6.670818e+00	-9.488745e+01
1.650000e-06	-8.945178e-07	-1.431160e-09	-6.349603e+00	-9.410025e+01
1.660000e-06	-8.492343e-07	-1.421145e-09	-6.028165e+00	-9.329752e+01
1.670000e-06	-8.039272e-07	-1.406394e-09	-5.706559e+00	-9.247970e+01
1.680000e-06	-7.584965e-07	-1.390289e-09	-5.384076e+00	-9.164726e+01
1.690000e-06	-7.128770e-07	-1.372073e-09	-5.060252e+00	-9.080062e+01
1.700000e-06	-6.672102e-07	-1.353286e-09	-4.736094e+00	-8.994006e+01
1.710000e-06	-6.215631e-07	-1.339381e-09	-4.412074e+00	-8.906563e+01
1.720000e-06	-5.759265e-07	-1.329907e-09	-4.088129e+00	-8.817714e+01
1.730000e-06	-5.302686e-07	-1.321786e-09	-3.764034e+00	-8.727406e+01
1.740000e-06	-4.844873e-07	-1.310992e-09	-3.439062e+00	-8.635553e+01
1.750000e-06	-4.386730e-07	-1.294300e-09	-3.113856e+00	-8.542033e+01
1.760000e-06	-3.927830e-07	-1.276354e-09	-2.788112e+00	-8.446690e+01
1.770000e-06	-3.468673e-07	-1.257638e-09	-2.462187e+00	-8.349337e+01
1.780000e-06	-3.010151e-07	-1.237862e-09	-2.136712e+00	-8.249763e+01
1.790000e-06	-2.551233e-07	-1.219805e-09	-1.810955e+00	-8.147736e+01
1.800000e-06	-2.091899e-07	-1.205635e-09	-1.484903e+00	-8.043014e+01
1.810000e-06	-1.632699e-07	-1.190868e-09	-1.158947e+00	-7.935352e+01
1.820000e-06	-1.174106e-07	-1.172193e-09	-8.334219e-01	-7.824513e+01
1.830000e-06	-7.156648e-08	-1.151088e-09	-5.080041e-01	-7.710272e+01
1.840000e-06	-2.570399e-08	-1.133935e-09	-1.824560e-01	-7.592428e+01
1.850000e-06	2.010452e-08	-1.119058e-09	1.427090e-01	-7.470812e+01
1.860000e-06	6.584005e-08	-1.102600e-09	4.673559e-01	-7.345285e+01
1.870000e-06	1.116808e-07	-1.085366e-09	7.927497e-01	-7.215750e+01
1.880000e-06	1.576290e-07	-1.070635e-09	1.118906e+00	-7.082148e+01
1.890000e-06	2.034989e-07	-1.051954e-09	1.444507e+00	-6.944456e+01
1.900000e-06	2.493490e-07	-1.023739e-09	1.769967e+00	-6.802691e+01
1.910000e-06	2.951587e-07	-9.920108e-10	2.095141e+00	-6.656898e+01
1.920000e-06	3.409194e-07	-9.630674e-10	2.419966e+00	-6.507147e+01
1.930000e-06	3.867109e-07	-9.396955e-10	2.745011e+00	-6.353527e+01
1.940000e-06	4.324040e-07	-9.168579e-10	3.069356e+00	-6.196136e+01
1.950000e-06	4.779959e-07	-8.925615e-10	3.392984e+00	-6.035072e+01
1.960000e-06	5.236357e-07	-8.710226e-10	3.716951e+00	-5.870425e+01
1.970000e-06	5.692554e-07	-8.502786e-10	4.040776e+00	-5.702271e+01
1.980000e-06	6.148208e-07	-8.239986e-10	4.364215e+00	-5.530663e+01
1.990000e-06	6.603576e-07	-7.919681e-10	4.687451e+00	-5.355629e+01
2.000000e-06	7.057745e-07	-7.600091e-10	5.009836e+00	-5.177165e+01
2.010000e-06	7.511173e-07	-7.308565e-10	5.331695e+00	-4.995233e+01
2.020000e-06	7.964762e-07	-7.026520e-10	5.653669e+00	-4.809765e+01
2.030000e-06	8.418212e-07	-6.714162e-10	5.975544e+00	-4.620665e+01
2.040000e-06	8.871105e-07	-6.411448e-10	6.297024e+00	-4.427805e+01
2.050000e-06	9.323175e-07	-6.170774e-10	6.617919e+00	-4.231043e+01
2.060000e-06	9.774266e-07	-5.942778e-10	6.938119e+00	-4.030218e+01
2.070000e-06	1.022482e-06	-5.638264e-10	7.257936e+00	-3.825163e+01
2.080000e-06	1.067461e-06	-5.271623e-10	7.577217e+00	-3.615714e+01
2.090000e-06	1.112377e-06	-4.916547e-10	7.896048e+00	-3.401711e+01
2.100000e-06	1.157227e-06	-4.595579e-10	8.214408e+00	-3.183014e+01
2.110000e-06	1.201963e-06	-4.255655e-10	8.531958e+00	-2.959501e+01
2.120000e-06	1.246522e-06	-3.881403e-10	8.848253e+00	-2.731079e+01
2.130000e-06	1.290942e-06	-3.536332e-10	9.163559e+00	-2.497687e+01
2.140000e-06	1.335349e-06	-3.251944e-10	9.478781e+00	-2.259296e+01
2.150000e-06	1.379683e-06	-2.957436e-10	9.793477e+00	-2.015913e+01
2.160000e-06	1.423911e-06	-2.589985e-10	1.010742e+01	-1.767581e+01
2.170000e-06	1.468111e-06	-2.181909e-10	1.042117e+01	-1.514375e+01
2.180000e-06	1.512272e-06	-1.781320e-10	1.073464e+01	-1.256400e+01
2.190000e-06	1.556365e-06	-1.403993e-10	1.104763e+01	-9.937921e+00
2.200000e-06	1.600397e-06	-1.000921e-10	1.136018e+01	-7.267088e+00
2.210000e-06	1.644347e-06	-5.718349e-11	1.167215e+01	-4.553295e+00
2.220000e-06	1.688231e-06	-1.756242e-11	1.198366e+01	-1.798502e+00
2.230000e-06	1.732095e-06	2.025680e-11	1.229502e+01	9.951871e-01
2.240000e-06	1.775918e-06	6.338144e-11	1.260609e+01	3.825552e+00
2.250000e-06	1.819590e-06	1.106295e-10	1.291609e+01	6.690267e+00
2.260000e-06	1.863139e-06	1.556034e-10	1.322521e+01	9.586905e+00
2.270000e-06	1.906626e-06	1.972932e-10	1.353391e+01	1.251293e+01
2.280000e-06	1.949973e-06	2.398852e-10	1.384160e+01	1.546569e+01
2.290000e-06	1.993071e-06	2.846166e-10	1.414752e+01	1.844238e+01
2.300000e-06	2.035902e-06	3.282522e-10	1.445155e+01	2.144003e+01
2.310000e-06	2.078543e-06	3.683201e-10	1.475423e+01	2.445546e+01
2.320000e-06	2.120950e-06	4.110184e-10	1.505525e+01	2.748527e+01
2.330000e-06	2.163074e-06	4.583164e-10	1.535426e+01	3.052579e+01
2.340000e-06	2.204949e-06	5.049907e-10	1.565151e+01	3.357309e+01
2.350000e-06	2.246573e-06	5.475311e-10	1.594697e+01	3.662295e+01
2.360000e-06	2.287955e-06	5.901263e-10	1.624071e+01	3.967090e+01
2.370000e-06	2.329042e-06	6.375109e-10	1.653236e+01	4.271219e+01
2.380000e-06	2.369719e-06	6.863309e-10	1.682110e+01	4.574189e+01
2.390000e-06	2.410128e-06	7.305597e-10	1.710794e+01	4.875487e+01
2.400000e-06	2.450483e-06	7.713754e-10	1.739439e+01	5.174593e+01
2.410000e-06	2.490747e-06	8.127554e-10	1.768020e+01	5.470984e+01
2.420000e-06	2.530881e-06	8.573181e-10	1.796509e+01	5.764141e+01
2.430000e-06	2.570922e-06	9.045195e-10	1.824931e+01	6.053565e+01
2.440000e-06	2.610895e-06	9.493021e-10	1.853305e+01	6.338779e+01
2.450000e-06	2.650824e-06	9.918161e-10	1.881648e+01	6.619339e+01
2.460000e-06	2.690598e-06	1.033178e-09	1.909881e+01	6.894846e+01
2.470000e-06	2.730098e-06	1.072904e-09	1.937920e+01	7.164947e+01
2.480000e-06	2.769453e-06	1.108800e-09	1.965855e+01	7.429345e+01
2.490000e-06	2.808722e-06	1.143800e-09	1.993730e+01	7.687801e+01
2.500000e-06	2.847796e-06	1.181494e-09	2.021466e+01	7.940138e+01
2.510000e-06	2.886522e-06	1.219070e-09	2.048955e+01	8.186238e+01
2.520000e-06	2.924935e-06	1.258322e-09	2.076222e+01	8.426040e+01
2.530000e-06	2.963147e-06	1.298806e-09	2.103346e+01	8.659538e+01
2.540000e-06	3.001199e-06	1.338584e-09	2.130357e+01	8.886775e+01
2.550000e-06	3.039137e-06	1.372917e-09	2.157287e+01	9.107830e+01
2.560000e-06	3.076971e-06	1.400721e-09	2.184142e+01	9.322820e+01
2.570000e-06	3.114647e-06	1.427971e-09	2.210887e+01	9.531878e+01
2.580000e-06	3.152032e-06	1.458464e-09	2.237424e+01	9.735157e+01
2.590000e-06	3.189133e-06	1.489512e-09	2.263759e+01	9.932811e+01
2.600000e-06	3.225968e-06	1.519950e-09	2.289906e+01	1.012499e+02
2.610000e-06	3.262518e-06	1.553252e-09	2.315851e+01	1.031184e+02
2.620000e-06	3.298845e-06	1.586769e-09	2.341636e+01	1.049347e+02
2.630000e-06	3.334986e-06	1.615070e-09	2.367291e+01	1.067001e+02
2.640000e-06	3.371041e-06	1.637042e-09	2.392884e+01	1.084152e+02
2.650000e-06	3.407054e-06	1.656349e-09	2.418447e+01	1.100806e+02
2.660000e-06	3.442972e-06	1.676356e-09	2.443943e+01	1.116968e+02
2.670000e-06	3.478707e-06	1.696625e-09	2.469309e+01	1.132639e+02
2.680000e-06	3.514195e-06	1.717552e-09	2.494500e+01	1.147819e+02
2.690000e-06	3.549475e-06	1.741791e-09	2.519543e+01	1.162509e+02
2.700000e-06	3.584377e-06	1.770637e-09	2.544318e+01	1.176707e+02
2.710000e-06	3.618811e-06	1.798937e-09	2.568760e+01	1.190413e+02
2.720000e-06	3.652747e-06	1.823271e-09	2.592849e+01	1.203628e+02
2.730000e-06	3.686197e-06	1.841798e-09	2.616593e+01	1.216353e+02
2.740000e-06	3.719316e-06	1.856367e-09	2.640102e+01	1.228592e+02
2.750000e-06	3.752086e-06	1.869275e-09	2.663363e+01	1.240351e+02
2.760000e-06	3.784555e-06	1.881137e-09	2.686411e+01	1.251637e+02
2.770000e-06	3.816766e-06	1.895096e-09	2.709275e+01	1.262462e+02
2.780000e-06	3.848773e-06	1.914162e-09	2.731995e+01	1.272836e+02
2.790000e-06	3.880672e-06	1.939818e-09	2.754638e+01	1.282775e+02
2.800000e-06	3.912474e-06	1.963062e-09	2.777212e+01	1.292295e+02
2.810000e-06	3.944060e-06	1.976575e-09	2.799633e+01	1.301412e+02
2.820000e-06	3.975320e-06	1.983208e-09	2.821823e+01	1.310144e+02
2.830000e-06	4.006268e-06	1.990194e-09	2.843791e+01	1.318507e+02
2.840000e-06	4.036862e-06	1.997973e-09	2.865507e+01	1.326520e+02
2.850000e-06	4.067061e-06	2.006070e-09	2.886944e+01	1.334196e+02
2.860000e-06	4.096963e-06	2.016631e-09	2.908169e+01	1.341552e+02
2.870000e-06	4.126738e-06	2.033566e-09	2.929304e+01	1.348599e+02
2.880000e-06	4.156345e-06	2.053115e-09	2.950321e+01	1.355347e+02
2.890000e-06	4.185746e-06	2.067656e-09	2.971190e+01	1.361807e+02
2.900000e-06	4.214888e-06	2.073231e-09	2.991876e+01	1.367983e+02
