# Temperatura_=_-6.2
# Concentracion g/m^3_=_4090.0
# C_Vs_to_Am_M_A/Vsm_=_65563218390.804596
# pendiente_HvsI_1/m_=_3716.3
# ordenada_HvsI_A/m_=_1297.0
# frecuencia_Hz_=_135075.04730615905

Tiempo_(s)	Campo_(V.s)	Magnetizacion_(V.s)	Campo_(kA/m)	Magnetizacion_(A/m)
0.000000e+00	-5.414220e-06	-1.409252e-09	-3.839230e+01	-9.338634e+01
1.000000e-08	-5.414362e-06	-1.409382e-09	-3.839331e+01	-9.336157e+01
2.000000e-08	-5.414312e-06	-1.406738e-09	-3.839296e+01	-9.332590e+01
3.000000e-08	-5.413984e-06	-1.403413e-09	-3.839063e+01	-9.328045e+01
4.000000e-08	-5.413222e-06	-1.402239e-09	-3.838523e+01	-9.322679e+01
5.000000e-08	-5.411950e-06	-1.403721e-09	-3.837621e+01	-9.316693e+01
6.000000e-08	-5.410158e-06	-1.406923e-09	-3.836350e+01	-9.310319e+01
7.000000e-08	-5.407725e-06	-1.410293e-09	-3.834625e+01	-9.303819e+01
8.000000e-08	-5.404568e-06	-1.416549e-09	-3.832386e+01	-9.297468e+01
9.000000e-08	-5.400815e-06	-1.390586e-09	-3.829725e+01	-9.291547e+01
1.000000e-07	-5.396680e-06	-1.363231e-09	-3.826793e+01	-9.286327e+01
1.100000e-07	-5.392437e-06	-1.391158e-09	-3.823784e+01	-9.282060e+01
1.200000e-07	-5.388071e-06	-1.433680e-09	-3.820688e+01	-9.278966e+01
1.300000e-07	-5.383354e-06	-1.369217e-09	-3.817343e+01	-9.277222e+01
1.400000e-07	-5.378180e-06	-1.363113e-09	-3.813674e+01	-9.276954e+01
1.500000e-07	-5.372542e-06	-1.408144e-09	-3.809677e+01	-9.278230e+01
1.600000e-07	-5.366693e-06	-1.498309e-09	-3.805529e+01	-9.281057e+01
1.700000e-07	-5.360463e-06	-1.377291e-09	-3.801111e+01	-9.285377e+01
1.800000e-07	-5.353644e-06	-1.334713e-09	-3.796276e+01	-9.291068e+01
1.900000e-07	-5.346487e-06	-1.398797e-09	-3.791201e+01	-9.297953e+01
2.000000e-07	-5.339144e-06	-1.462564e-09	-3.785994e+01	-9.305799e+01
2.100000e-07	-5.331485e-06	-1.359894e-09	-3.780563e+01	-9.314332e+01
2.200000e-07	-5.323564e-06	-1.328485e-09	-3.774946e+01	-9.323245e+01
2.300000e-07	-5.315467e-06	-1.434781e-09	-3.769205e+01	-9.332210e+01
2.400000e-07	-5.307037e-06	-1.451714e-09	-3.763227e+01	-9.340892e+01
2.500000e-07	-5.297952e-06	-1.397726e-09	-3.756784e+01	-9.348962e+01
2.600000e-07	-5.288141e-06	-1.404024e-09	-3.749828e+01	-9.356110e+01
2.700000e-07	-5.277685e-06	-1.488085e-09	-3.742413e+01	-9.362055e+01
2.800000e-07	-5.266639e-06	-1.421867e-09	-3.734580e+01	-9.366560e+01
2.900000e-07	-5.255260e-06	-1.370878e-09	-3.726512e+01	-9.369435e+01
3.000000e-07	-5.243492e-06	-1.411385e-09	-3.718167e+01	-9.370548e+01
3.100000e-07	-5.231281e-06	-1.459794e-09	-3.709508e+01	-9.369826e+01
3.200000e-07	-5.218678e-06	-1.368862e-09	-3.700572e+01	-9.367256e+01
3.300000e-07	-5.205758e-06	-1.398212e-09	-3.691410e+01	-9.362884e+01
3.400000e-07	-5.192452e-06	-1.445340e-09	-3.681975e+01	-9.356811e+01
3.500000e-07	-5.178718e-06	-1.435892e-09	-3.672236e+01	-9.349187e+01
3.600000e-07	-5.164626e-06	-1.373173e-09	-3.662243e+01	-9.340201e+01
3.700000e-07	-5.150164e-06	-1.427977e-09	-3.651988e+01	-9.330072e+01
3.800000e-07	-5.135077e-06	-1.402416e-09	-3.641290e+01	-9.319037e+01
3.900000e-07	-5.119304e-06	-1.375651e-09	-3.630105e+01	-9.307342e+01
4.000000e-07	-5.103091e-06	-1.395676e-09	-3.618608e+01	-9.295230e+01
4.100000e-07	-5.086430e-06	-1.431055e-09	-3.606794e+01	-9.282927e+01
4.200000e-07	-5.069319e-06	-1.375626e-09	-3.594661e+01	-9.270639e+01
4.300000e-07	-5.051924e-06	-1.391941e-09	-3.582326e+01	-9.258538e+01
4.400000e-07	-5.034355e-06	-1.435048e-09	-3.569867e+01	-9.246759e+01
4.500000e-07	-5.016528e-06	-1.407713e-09	-3.557226e+01	-9.235397e+01
4.600000e-07	-4.998268e-06	-1.368099e-09	-3.544278e+01	-9.224500e+01
4.700000e-07	-4.979699e-06	-1.391169e-09	-3.531111e+01	-9.214078e+01
4.800000e-07	-4.960797e-06	-1.393335e-09	-3.517707e+01	-9.204095e+01
4.900000e-07	-4.941419e-06	-1.361698e-09	-3.503967e+01	-9.194482e+01
5.000000e-07	-4.921752e-06	-1.367068e-09	-3.490020e+01	-9.185139e+01
5.100000e-07	-4.901875e-06	-1.367445e-09	-3.475926e+01	-9.175940e+01
5.200000e-07	-4.881758e-06	-1.371796e-09	-3.461661e+01	-9.166746e+01
5.300000e-07	-4.861462e-06	-1.383470e-09	-3.447269e+01	-9.157408e+01
5.400000e-07	-4.840939e-06	-1.388884e-09	-3.432716e+01	-9.147778e+01
5.500000e-07	-4.820052e-06	-1.361165e-09	-3.417905e+01	-9.137714e+01
5.600000e-07	-4.798790e-06	-1.376129e-09	-3.402828e+01	-9.127091e+01
5.700000e-07	-4.777150e-06	-1.375968e-09	-3.387483e+01	-9.115801e+01
5.800000e-07	-4.755225e-06	-1.353518e-09	-3.371936e+01	-9.103760e+01
5.900000e-07	-4.733062e-06	-1.326402e-09	-3.356220e+01	-9.090912e+01
6.000000e-07	-4.710502e-06	-1.342879e-09	-3.340223e+01	-9.077226e+01
6.100000e-07	-4.687570e-06	-1.347642e-09	-3.323962e+01	-9.062700e+01
6.200000e-07	-4.664405e-06	-1.361004e-09	-3.307535e+01	-9.047355e+01
6.300000e-07	-4.640950e-06	-1.351910e-09	-3.290904e+01	-9.031234e+01
6.400000e-07	-4.617204e-06	-1.353643e-09	-3.274065e+01	-9.014398e+01
6.500000e-07	-4.593229e-06	-1.352662e-09	-3.257065e+01	-8.996922e+01
6.600000e-07	-4.569053e-06	-1.353443e-09	-3.239922e+01	-8.978887e+01
6.700000e-07	-4.544598e-06	-1.323480e-09	-3.222580e+01	-8.960377e+01
6.800000e-07	-4.519728e-06	-1.316078e-09	-3.204945e+01	-8.941476e+01
6.900000e-07	-4.494372e-06	-1.322311e-09	-3.186965e+01	-8.922257e+01
7.000000e-07	-4.468506e-06	-1.336221e-09	-3.168624e+01	-8.902789e+01
7.100000e-07	-4.442158e-06	-1.331099e-09	-3.149940e+01	-8.883122e+01
7.200000e-07	-4.415314e-06	-1.330019e-09	-3.130905e+01	-8.863295e+01
7.300000e-07	-4.388031e-06	-1.330006e-09	-3.111558e+01	-8.843331e+01
7.400000e-07	-4.360448e-06	-1.334211e-09	-3.091999e+01	-8.823240e+01
7.500000e-07	-4.332675e-06	-1.322682e-09	-3.072305e+01	-8.803015e+01
7.600000e-07	-4.304735e-06	-1.305800e-09	-3.052493e+01	-8.782640e+01
7.700000e-07	-4.276559e-06	-1.303280e-09	-3.032513e+01	-8.762089e+01
7.800000e-07	-4.248119e-06	-1.311858e-09	-3.012347e+01	-8.741332e+01
7.900000e-07	-4.219346e-06	-1.313210e-09	-2.991944e+01	-8.720335e+01
8.000000e-07	-4.190240e-06	-1.305163e-09	-2.971305e+01	-8.699064e+01
8.100000e-07	-4.160854e-06	-1.302810e-09	-2.950467e+01	-8.677489e+01
8.200000e-07	-4.131156e-06	-1.302061e-09	-2.929408e+01	-8.655585e+01
8.300000e-07	-4.101155e-06	-1.301872e-09	-2.908134e+01	-8.633334e+01
8.400000e-07	-4.070937e-06	-1.289756e-09	-2.886707e+01	-8.610726e+01
8.500000e-07	-4.040500e-06	-1.286166e-09	-2.865124e+01	-8.587760e+01
8.600000e-07	-4.009730e-06	-1.285757e-09	-2.843305e+01	-8.564441e+01
8.700000e-07	-3.978754e-06	-1.291915e-09	-2.821340e+01	-8.540783e+01
8.800000e-07	-3.947640e-06	-1.284041e-09	-2.799277e+01	-8.516803e+01
8.900000e-07	-3.916273e-06	-1.276776e-09	-2.777034e+01	-8.492521e+01
9.000000e-07	-3.884605e-06	-1.269303e-09	-2.754579e+01	-8.467960e+01
9.100000e-07	-3.852719e-06	-1.272938e-09	-2.731968e+01	-8.443138e+01
9.200000e-07	-3.820712e-06	-1.268482e-09	-2.709272e+01	-8.418071e+01
9.300000e-07	-3.788475e-06	-1.269312e-09	-2.686412e+01	-8.392768e+01
9.400000e-07	-3.755947e-06	-1.271590e-09	-2.663347e+01	-8.367234e+01
9.500000e-07	-3.723104e-06	-1.280908e-09	-2.640058e+01	-8.341461e+01
9.600000e-07	-3.689937e-06	-1.277157e-09	-2.616539e+01	-8.315437e+01
9.700000e-07	-3.656355e-06	-1.267264e-09	-2.592726e+01	-8.289140e+01
9.800000e-07	-3.622258e-06	-1.251636e-09	-2.568548e+01	-8.262544e+01
9.900000e-07	-3.587714e-06	-1.244759e-09	-2.544053e+01	-8.235615e+01
1.000000e-06	-3.552784e-06	-1.240179e-09	-2.519284e+01	-8.208318e+01
1.010000e-06	-3.517538e-06	-1.241177e-09	-2.494291e+01	-8.180619e+01
1.020000e-06	-3.482071e-06	-1.242154e-09	-2.469141e+01	-8.152484e+01
1.030000e-06	-3.446393e-06	-1.245460e-09	-2.443842e+01	-8.123886e+01
1.040000e-06	-3.410595e-06	-1.244254e-09	-2.418457e+01	-8.094804e+01
1.050000e-06	-3.374709e-06	-1.237641e-09	-2.393011e+01	-8.065228e+01
1.060000e-06	-3.338603e-06	-1.224755e-09	-2.367407e+01	-8.035158e+01
1.070000e-06	-3.302214e-06	-1.211441e-09	-2.341604e+01	-8.004605e+01
1.080000e-06	-3.265645e-06	-1.203277e-09	-2.315673e+01	-7.973592e+01
1.090000e-06	-3.228951e-06	-1.199350e-09	-2.289653e+01	-7.942154e+01
1.100000e-06	-3.191975e-06	-1.198848e-09	-2.263433e+01	-7.910333e+01
1.110000e-06	-3.154657e-06	-1.199527e-09	-2.236972e+01	-7.878181e+01
1.120000e-06	-3.117091e-06	-1.200969e-09	-2.210333e+01	-7.845753e+01
1.130000e-06	-3.079347e-06	-1.195944e-09	-2.183569e+01	-7.813106e+01
1.140000e-06	-3.041389e-06	-1.188443e-09	-2.156653e+01	-7.780293e+01
1.150000e-06	-3.003241e-06	-1.177091e-09	-2.129602e+01	-7.747366e+01
1.160000e-06	-2.964882e-06	-1.169708e-09	-2.102402e+01	-7.714366e+01
1.170000e-06	-2.926310e-06	-1.163091e-09	-2.075050e+01	-7.681321e+01
1.180000e-06	-2.887588e-06	-1.159610e-09	-2.047592e+01	-7.648250e+01
1.190000e-06	-2.848764e-06	-1.152982e-09	-2.020062e+01	-7.615153e+01
1.200000e-06	-2.809804e-06	-1.152247e-09	-1.992436e+01	-7.582016e+01
1.210000e-06	-2.770573e-06	-1.152677e-09	-1.964617e+01	-7.548809e+01
1.220000e-06	-2.731071e-06	-1.152402e-09	-1.936606e+01	-7.515486e+01
1.230000e-06	-2.691369e-06	-1.143696e-09	-1.908453e+01	-7.481990e+01
1.240000e-06	-2.651529e-06	-1.134949e-09	-1.880203e+01	-7.448252e+01
1.250000e-06	-2.611605e-06	-1.126398e-09	-1.851893e+01	-7.414196e+01
1.260000e-06	-2.571597e-06	-1.121843e-09	-1.823523e+01	-7.379742e+01
1.270000e-06	-2.531535e-06	-1.115588e-09	-1.795115e+01	-7.344809e+01
1.280000e-06	-2.491333e-06	-1.110191e-09	-1.766608e+01	-7.309322e+01
1.290000e-06	-2.450980e-06	-1.104115e-09	-1.737993e+01	-7.273209e+01
1.300000e-06	-2.410548e-06	-1.099811e-09	-1.709323e+01	-7.236413e+01
1.310000e-06	-2.369876e-06	-1.093103e-09	-1.680482e+01	-7.198885e+01
1.320000e-06	-2.329005e-06	-1.084797e-09	-1.651500e+01	-7.160593e+01
1.330000e-06	-2.287958e-06	-1.077033e-09	-1.622394e+01	-7.121519e+01
1.340000e-06	-2.246572e-06	-1.072798e-09	-1.593047e+01	-7.081662e+01
1.350000e-06	-2.204800e-06	-1.071104e-09	-1.563427e+01	-7.041034e+01
1.360000e-06	-2.162652e-06	-1.068262e-09	-1.533539e+01	-6.999659e+01
1.370000e-06	-2.120177e-06	-1.061070e-09	-1.503420e+01	-6.957571e+01
1.380000e-06	-2.077537e-06	-1.051262e-09	-1.473184e+01	-6.914811e+01
1.390000e-06	-2.034744e-06	-1.042683e-09	-1.442839e+01	-6.871424e+01
1.400000e-06	-1.991621e-06	-1.036004e-09	-1.412261e+01	-6.827453e+01
1.410000e-06	-1.948333e-06	-1.028971e-09	-1.381566e+01	-6.782939e+01
1.420000e-06	-1.904970e-06	-1.021682e-09	-1.350817e+01	-6.737911e+01
1.430000e-06	-1.861492e-06	-1.018411e-09	-1.319987e+01	-6.692392e+01
1.440000e-06	-1.817899e-06	-1.016758e-09	-1.289074e+01	-6.646389e+01
1.450000e-06	-1.774130e-06	-1.013129e-09	-1.258038e+01	-6.599895e+01
1.460000e-06	-1.730290e-06	-1.003973e-09	-1.226951e+01	-6.552886e+01
1.470000e-06	-1.686443e-06	-9.957225e-10	-1.195859e+01	-6.505326e+01
1.480000e-06	-1.642532e-06	-9.894189e-10	-1.164722e+01	-6.457164e+01
1.490000e-06	-1.598533e-06	-9.859243e-10	-1.133522e+01	-6.408334e+01
1.500000e-06	-1.554455e-06	-9.796449e-10	-1.102266e+01	-6.358767e+01
1.510000e-06	-1.510261e-06	-9.735900e-10	-1.070928e+01	-6.308383e+01
1.520000e-06	-1.465996e-06	-9.674886e-10	-1.039540e+01	-6.257105e+01
1.530000e-06	-1.421695e-06	-9.602208e-10	-1.008126e+01	-6.204855e+01
1.540000e-06	-1.377323e-06	-9.508403e-10	-9.766617e+00	-6.151565e+01
1.550000e-06	-1.332852e-06	-9.433510e-10	-9.451272e+00	-6.097175e+01
1.560000e-06	-1.288268e-06	-9.361708e-10	-9.135124e+00	-6.041640e+01
1.570000e-06	-1.243566e-06	-9.321006e-10	-8.818139e+00	-5.984931e+01
1.580000e-06	-1.198831e-06	-9.267307e-10	-8.500929e+00	-5.927039e+01
1.590000e-06	-1.154013e-06	-9.180312e-10	-8.183125e+00	-5.867972e+01
1.600000e-06	-1.109094e-06	-9.068434e-10	-7.864598e+00	-5.807758e+01
1.610000e-06	-1.064153e-06	-8.980880e-10	-7.545925e+00	-5.746440e+01
1.620000e-06	-1.019136e-06	-8.889456e-10	-7.226707e+00	-5.684081e+01
1.630000e-06	-9.739748e-07	-8.791847e-10	-6.906468e+00	-5.620753e+01
1.640000e-06	-9.286905e-07	-8.710216e-10	-6.585356e+00	-5.556537e+01
1.650000e-06	-8.833575e-07	-8.654934e-10	-6.263899e+00	-5.491520e+01
1.660000e-06	-8.379711e-07	-8.582459e-10	-5.942064e+00	-5.425787e+01
1.670000e-06	-7.925448e-07	-8.481100e-10	-5.619945e+00	-5.359419e+01
1.680000e-06	-7.470792e-07	-8.357727e-10	-5.297548e+00	-5.292489e+01
1.690000e-06	-7.015779e-07	-8.220730e-10	-4.974898e+00	-5.225056e+01
1.700000e-06	-6.560269e-07	-8.088199e-10	-4.651895e+00	-5.157161e+01
1.710000e-06	-6.104636e-07	-7.971955e-10	-4.328805e+00	-5.088829e+01
1.720000e-06	-5.649369e-07	-7.892722e-10	-4.005975e+00	-5.020063e+01
1.730000e-06	-5.193556e-07	-7.824506e-10	-3.682757e+00	-4.950844e+01
1.740000e-06	-4.736826e-07	-7.740727e-10	-3.358889e+00	-4.881133e+01
1.750000e-06	-4.278781e-07	-7.624198e-10	-3.034089e+00	-4.810872e+01
1.760000e-06	-3.819558e-07	-7.495282e-10	-2.708453e+00	-4.739984e+01
1.770000e-06	-3.360274e-07	-7.334072e-10	-2.382774e+00	-4.668378e+01
1.780000e-06	-2.901699e-07	-7.177608e-10	-2.057599e+00	-4.595954e+01
1.790000e-06	-2.443738e-07	-7.038021e-10	-1.732858e+00	-4.522602e+01
1.800000e-06	-1.985732e-07	-6.934663e-10	-1.408085e+00	-4.448211e+01
1.810000e-06	-1.526766e-07	-6.850967e-10	-1.082632e+00	-4.372674e+01
1.820000e-06	-1.066999e-07	-6.780882e-10	-7.566101e-01	-4.295884e+01
1.830000e-06	-6.077602e-08	-6.680683e-10	-4.309635e-01	-4.217748e+01
1.840000e-06	-1.489812e-08	-6.543629e-10	-1.056428e-01	-4.138181e+01
1.850000e-06	3.094988e-08	-6.385691e-10	2.194660e-01	-4.057117e+01
1.860000e-06	7.683606e-08	-6.229176e-10	5.448455e-01	-3.974501e+01
1.870000e-06	1.227758e-07	-6.086070e-10	8.706045e-01	-3.890296e+01
1.880000e-06	1.686756e-07	-5.959138e-10	1.196081e+00	-3.804482e+01
1.890000e-06	2.145575e-07	-5.820998e-10	1.521430e+00	-3.717055e+01
1.900000e-06	2.604616e-07	-5.657064e-10	1.846937e+00	-3.628021e+01
1.910000e-06	3.062828e-07	-5.478881e-10	2.171855e+00	-3.537402e+01
1.920000e-06	3.520169e-07	-5.312261e-10	2.496156e+00	-3.445228e+01
1.930000e-06	3.977700e-07	-5.141393e-10	2.820592e+00	-3.351534e+01
1.940000e-06	4.435483e-07	-4.976987e-10	3.145207e+00	-3.256361e+01
1.950000e-06	4.893238e-07	-4.826084e-10	3.469801e+00	-3.159751e+01
1.960000e-06	5.350421e-07	-4.694543e-10	3.793991e+00	-3.061744e+01
1.970000e-06	5.806807e-07	-4.538426e-10	4.117614e+00	-2.962379e+01
1.980000e-06	6.262612e-07	-4.358084e-10	4.440826e+00	-2.861689e+01
1.990000e-06	6.718019e-07	-4.203591e-10	4.763756e+00	-2.759705e+01
2.000000e-06	7.172842e-07	-4.065105e-10	5.086271e+00	-2.656450e+01
2.010000e-06	7.626758e-07	-3.918968e-10	5.408144e+00	-2.551943e+01
2.020000e-06	8.080752e-07	-3.761572e-10	5.730071e+00	-2.446200e+01
2.030000e-06	8.535095e-07	-3.615447e-10	6.052247e+00	-2.339233e+01
2.040000e-06	8.988443e-07	-3.435754e-10	6.373716e+00	-2.231053e+01
2.050000e-06	9.440637e-07	-3.233565e-10	6.694368e+00	-2.121673e+01
2.060000e-06	9.891711e-07	-3.040103e-10	7.014225e+00	-2.011106e+01
2.070000e-06	1.034182e-06	-2.869306e-10	7.333400e+00	-1.899370e+01
2.080000e-06	1.079114e-06	-2.722266e-10	7.652009e+00	-1.786488e+01
2.090000e-06	1.123920e-06	-2.565270e-10	7.969728e+00	-1.672491e+01
2.100000e-06	1.168595e-06	-2.410894e-10	8.286519e+00	-1.557415e+01
2.110000e-06	1.213242e-06	-2.245281e-10	8.603111e+00	-1.441307e+01
2.120000e-06	1.257866e-06	-2.024105e-10	8.919543e+00	-1.324219e+01
2.130000e-06	1.302380e-06	-1.806983e-10	9.235195e+00	-1.206210e+01
2.140000e-06	1.346827e-06	-1.619050e-10	9.550365e+00	-1.087347e+01
2.150000e-06	1.391263e-06	-1.470115e-10	9.865465e+00	-9.676989e+00
2.160000e-06	1.435641e-06	-1.340013e-10	1.018015e+01	-8.473386e+00
2.170000e-06	1.479899e-06	-1.197808e-10	1.049398e+01	-7.263395e+00
2.180000e-06	1.524101e-06	-1.036569e-10	1.080742e+01	-6.047736e+00
2.190000e-06	1.568197e-06	-8.636171e-11	1.112011e+01	-4.827100e+00
2.200000e-06	1.612169e-06	-6.513105e-11	1.143191e+01	-3.602125e+00
2.210000e-06	1.656121e-06	-4.150711e-11	1.174358e+01	-2.373385e+00
2.220000e-06	1.700054e-06	-2.087074e-11	1.205511e+01	-1.141378e+00
2.230000e-06	1.743923e-06	-3.174435e-12	1.236618e+01	9.348156e-02
2.240000e-06	1.787723e-06	1.324765e-11	1.267677e+01	1.330866e+00
2.250000e-06	1.831442e-06	2.865669e-11	1.298678e+01	2.570534e+00
2.260000e-06	1.875065e-06	4.771042e-11	1.329611e+01	3.812319e+00
2.270000e-06	1.918578e-06	7.148413e-11	1.360466e+01	5.056127e+00
2.280000e-06	1.961931e-06	9.556344e-11	1.391207e+01	6.301916e+00
2.290000e-06	2.005155e-06	1.179107e-10	1.421858e+01	7.549684e+00
2.300000e-06	2.048212e-06	1.359106e-10	1.452390e+01	8.799451e+00
2.310000e-06	2.090995e-06	1.513990e-10	1.482727e+01	1.005124e+01
2.320000e-06	2.133469e-06	1.682773e-10	1.512845e+01	1.130506e+01
2.330000e-06	2.175605e-06	1.870261e-10	1.542724e+01	1.256089e+01
2.340000e-06	2.217358e-06	2.059409e-10	1.572331e+01	1.381867e+01
2.350000e-06	2.258751e-06	2.255823e-10	1.601683e+01	1.507828e+01
2.360000e-06	2.299900e-06	2.470405e-10	1.630862e+01	1.633954e+01
2.370000e-06	2.340878e-06	2.707723e-10	1.659920e+01	1.760221e+01
2.380000e-06	2.381680e-06	2.926166e-10	1.688852e+01	1.886598e+01
2.390000e-06	2.422308e-06	3.110355e-10	1.717662e+01	2.013048e+01
2.400000e-06	2.462736e-06	3.282322e-10	1.746329e+01	2.139528e+01
2.410000e-06	2.502973e-06	3.460342e-10	1.774861e+01	2.265990e+01
2.420000e-06	2.543124e-06	3.653069e-10	1.803333e+01	2.392383e+01
2.430000e-06	2.583141e-06	3.874792e-10	1.831709e+01	2.518651e+01
2.440000e-06	2.622998e-06	4.103544e-10	1.859971e+01	2.644739e+01
2.450000e-06	2.662790e-06	4.306753e-10	1.888188e+01	2.770588e+01
2.460000e-06	2.702536e-06	4.522282e-10	1.916371e+01	2.896141e+01
2.470000e-06	2.742212e-06	4.740793e-10	1.944506e+01	3.021340e+01
2.480000e-06	2.781727e-06	4.936464e-10	1.972526e+01	3.146128e+01
2.490000e-06	2.820960e-06	5.127346e-10	2.000346e+01	3.270451e+01
2.500000e-06	2.859871e-06	5.334133e-10	2.027938e+01	3.394253e+01
2.510000e-06	2.898526e-06	5.569735e-10	2.055348e+01	3.517481e+01
2.520000e-06	2.936992e-06	5.827954e-10	2.082625e+01	3.640082e+01
2.530000e-06	2.975224e-06	6.078454e-10	2.109735e+01	3.762003e+01
2.540000e-06	3.013255e-06	6.290623e-10	2.136703e+01	3.883192e+01
2.550000e-06	3.051142e-06	6.454796e-10	2.163568e+01	4.003596e+01
2.560000e-06	3.088857e-06	6.598384e-10	2.190313e+01	4.123160e+01
2.570000e-06	3.126338e-06	6.747547e-10	2.216890e+01	4.241830e+01
2.580000e-06	3.163563e-06	6.902055e-10	2.243287e+01	4.359549e+01
2.590000e-06	3.200621e-06	7.092599e-10	2.269564e+01	4.476261e+01
2.600000e-06	3.237485e-06	7.343140e-10	2.295704e+01	4.591909e+01
2.610000e-06	3.274060e-06	7.603317e-10	2.321640e+01	4.706435e+01
2.620000e-06	3.310383e-06	7.811004e-10	2.347397e+01	4.819784e+01
2.630000e-06	3.346531e-06	7.957709e-10	2.373029e+01	4.931901e+01
2.640000e-06	3.382530e-06	8.068531e-10	2.398556e+01	5.042733e+01
2.650000e-06	3.418420e-06	8.178316e-10	2.424006e+01	5.152232e+01
2.660000e-06	3.454222e-06	8.300341e-10	2.449393e+01	5.260351e+01
2.670000e-06	3.489882e-06	8.435879e-10	2.474680e+01	5.367051e+01
2.680000e-06	3.525373e-06	8.593417e-10	2.499847e+01	5.472294e+01
2.690000e-06	3.560669e-06	8.793388e-10	2.524875e+01	5.576048e+01
2.700000e-06	3.595520e-06	9.016116e-10	2.549588e+01	5.678285e+01
2.710000e-06	3.629856e-06	9.206493e-10	2.573935e+01	5.778983e+01
2.720000e-06	3.663773e-06	9.340260e-10	2.597986e+01	5.878119e+01
2.730000e-06	3.697171e-06	9.466301e-10	2.621669e+01	5.975675e+01
2.740000e-06	3.730098e-06	9.621564e-10	2.645017e+01	6.071634e+01
2.750000e-06	3.762711e-06	9.778392e-10	2.668143e+01	6.165978e+01
2.760000e-06	3.795042e-06	9.906774e-10	2.691069e+01	6.258687e+01
2.770000e-06	3.827148e-06	1.001437e-09	2.713836e+01	6.349739e+01
2.780000e-06	3.859157e-06	1.015230e-09	2.736533e+01	6.439110e+01
2.790000e-06	3.891105e-06	1.031398e-09	2.759188e+01	6.526771e+01
2.800000e-06	3.922889e-06	1.041478e-09	2.781726e+01	6.612688e+01
2.810000e-06	3.954463e-06	1.045139e-09	2.804115e+01	6.696825e+01
2.820000e-06	3.985763e-06	1.051233e-09	2.826310e+01	6.779143e+01
2.830000e-06	4.016638e-06	1.065863e-09	2.848203e+01	6.859599e+01
2.840000e-06	4.047132e-06	1.083116e-09	2.869826e+01	6.938151e+01
2.850000e-06	4.077320e-06	1.097601e-09	2.891233e+01	7.014759e+01
2.860000e-06	4.107260e-06	1.109188e-09	2.912463e+01	7.089386e+01
2.870000e-06	4.137029e-06	1.116898e-09	2.933573e+01	7.162001e+01
2.880000e-06	4.166651e-06	1.120435e-09	2.954577e+01	7.232581e+01
2.890000e-06	4.196055e-06	1.122251e-09	2.975428e+01	7.301113e+01
2.900000e-06	4.225063e-06	1.129189e-09	2.995998e+01	7.367599e+01
