# Temperatura_=_18.8
# Concentracion g/m^3_=_4090.0
# C_Vs_to_Am_M_A/Vsm_=_65563218390.804596
# pendiente_HvsI_1/m_=_3716.3
# ordenada_HvsI_A/m_=_1297.0
# frecuencia_Hz_=_135083.3719979591

Tiempo_(s)	Campo_(V.s)	Magnetizacion_(V.s)	Campo_(kA/m)	Magnetizacion_(A/m)
0.000000e+00	-5.417991e-06	-1.255866e-09	-3.839159e+01	-8.598732e+01
1.000000e-08	-5.418199e-06	-1.255265e-09	-3.839306e+01	-8.586733e+01
2.000000e-08	-5.418205e-06	-1.252045e-09	-3.839311e+01	-8.572478e+01
3.000000e-08	-5.417950e-06	-1.245834e-09	-3.839130e+01	-8.555854e+01
4.000000e-08	-5.417350e-06	-1.237907e-09	-3.838705e+01	-8.536863e+01
5.000000e-08	-5.416110e-06	-1.236947e-09	-3.837826e+01	-8.515638e+01
6.000000e-08	-5.414224e-06	-1.249668e-09	-3.836490e+01	-8.492442e+01
7.000000e-08	-5.411894e-06	-1.264060e-09	-3.834839e+01	-8.467665e+01
8.000000e-08	-5.408996e-06	-1.252995e-09	-3.832786e+01	-8.441820e+01
9.000000e-08	-5.405503e-06	-1.233102e-09	-3.830310e+01	-8.415525e+01
1.000000e-07	-5.401509e-06	-1.247562e-09	-3.827480e+01	-8.389480e+01
1.100000e-07	-5.397203e-06	-1.220931e-09	-3.824429e+01	-8.364444e+01
1.200000e-07	-5.392773e-06	-1.235286e-09	-3.821290e+01	-8.341204e+01
1.300000e-07	-5.388211e-06	-1.229514e-09	-3.818057e+01	-8.320539e+01
1.400000e-07	-5.383218e-06	-1.272572e-09	-3.814519e+01	-8.303192e+01
1.500000e-07	-5.377669e-06	-1.231148e-09	-3.810588e+01	-8.289829e+01
1.600000e-07	-5.371901e-06	-1.231944e-09	-3.806500e+01	-8.281015e+01
1.700000e-07	-5.365931e-06	-1.268614e-09	-3.802270e+01	-8.277180e+01
1.800000e-07	-5.359385e-06	-1.239637e-09	-3.797632e+01	-8.278598e+01
1.900000e-07	-5.352232e-06	-1.184831e-09	-3.792563e+01	-8.285371e+01
2.000000e-07	-5.344911e-06	-1.174458e-09	-3.787375e+01	-8.297422e+01
2.100000e-07	-5.337446e-06	-1.285526e-09	-3.782086e+01	-8.314485e+01
2.200000e-07	-5.329659e-06	-1.269360e-09	-3.776568e+01	-8.336120e+01
2.300000e-07	-5.321512e-06	-1.254108e-09	-3.770794e+01	-8.361722e+01
2.400000e-07	-5.313019e-06	-1.277533e-09	-3.764776e+01	-8.390542e+01
2.500000e-07	-5.304071e-06	-1.363959e-09	-3.758436e+01	-8.421714e+01
2.600000e-07	-5.294337e-06	-1.313684e-09	-3.751539e+01	-8.454291e+01
2.700000e-07	-5.283988e-06	-1.306605e-09	-3.744206e+01	-8.487276e+01
2.800000e-07	-5.273252e-06	-1.346250e-09	-3.736598e+01	-8.519663e+01
2.900000e-07	-5.262003e-06	-1.375080e-09	-3.728627e+01	-8.550474e+01
3.000000e-07	-5.250304e-06	-1.303480e-09	-3.720337e+01	-8.578796e+01
3.100000e-07	-5.238291e-06	-1.330232e-09	-3.711825e+01	-8.603814e+01
3.200000e-07	-5.225854e-06	-1.400694e-09	-3.703012e+01	-8.624843e+01
3.300000e-07	-5.213025e-06	-1.366285e-09	-3.693921e+01	-8.641347e+01
3.400000e-07	-5.199982e-06	-1.291223e-09	-3.684679e+01	-8.652956e+01
3.500000e-07	-5.186650e-06	-1.340095e-09	-3.675232e+01	-8.659478e+01
3.600000e-07	-5.172741e-06	-1.390350e-09	-3.665376e+01	-8.660896e+01
3.700000e-07	-5.158365e-06	-1.344155e-09	-3.655189e+01	-8.657363e+01
3.800000e-07	-5.143646e-06	-1.317236e-09	-3.644760e+01	-8.649186e+01
3.900000e-07	-5.128274e-06	-1.344317e-09	-3.633867e+01	-8.636808e+01
4.000000e-07	-5.112177e-06	-1.339274e-09	-3.622461e+01	-8.620782e+01
4.100000e-07	-5.095674e-06	-1.323730e-09	-3.610767e+01	-8.601737e+01
4.200000e-07	-5.078897e-06	-1.339821e-09	-3.598879e+01	-8.580352e+01
4.300000e-07	-5.061818e-06	-1.314700e-09	-3.586777e+01	-8.557318e+01
4.400000e-07	-5.044472e-06	-1.317165e-09	-3.574486e+01	-8.533309e+01
4.500000e-07	-5.026869e-06	-1.341784e-09	-3.562012e+01	-8.508950e+01
4.600000e-07	-5.008931e-06	-1.349349e-09	-3.549302e+01	-8.484791e+01
4.700000e-07	-4.990576e-06	-1.289000e-09	-3.536295e+01	-8.461290e+01
4.800000e-07	-4.971882e-06	-1.301625e-09	-3.523049e+01	-8.438790e+01
4.900000e-07	-4.952802e-06	-1.316330e-09	-3.509529e+01	-8.417518e+01
5.000000e-07	-4.933283e-06	-1.315377e-09	-3.495698e+01	-8.397574e+01
5.100000e-07	-4.913469e-06	-1.276738e-09	-3.481658e+01	-8.378945e+01
5.200000e-07	-4.893444e-06	-1.287787e-09	-3.467468e+01	-8.361504e+01
5.300000e-07	-4.873203e-06	-1.291912e-09	-3.453125e+01	-8.345034e+01
5.400000e-07	-4.852786e-06	-1.316195e-09	-3.438658e+01	-8.329242e+01
5.500000e-07	-4.832030e-06	-1.296173e-09	-3.423950e+01	-8.313784e+01
5.600000e-07	-4.810792e-06	-1.284292e-09	-3.408901e+01	-8.298287e+01
5.700000e-07	-4.789185e-06	-1.284181e-09	-3.393591e+01	-8.282376e+01
5.800000e-07	-4.767332e-06	-1.302217e-09	-3.378106e+01	-8.265695e+01
5.900000e-07	-4.745166e-06	-1.270635e-09	-3.362399e+01	-8.247930e+01
6.000000e-07	-4.722648e-06	-1.251147e-09	-3.346443e+01	-8.228826e+01
6.100000e-07	-4.699760e-06	-1.257050e-09	-3.330225e+01	-8.208200e+01
6.200000e-07	-4.676495e-06	-1.275599e-09	-3.313739e+01	-8.185953e+01
6.300000e-07	-4.652999e-06	-1.273028e-09	-3.297090e+01	-8.162072e+01
6.400000e-07	-4.629269e-06	-1.265207e-09	-3.280275e+01	-8.136627e+01
6.500000e-07	-4.605257e-06	-1.257456e-09	-3.263261e+01	-8.109768e+01
6.600000e-07	-4.581071e-06	-1.263128e-09	-3.246123e+01	-8.081715e+01
6.700000e-07	-4.556639e-06	-1.267723e-09	-3.228810e+01	-8.052740e+01
6.800000e-07	-4.531856e-06	-1.246498e-09	-3.211249e+01	-8.023153e+01
6.900000e-07	-4.506625e-06	-1.229521e-09	-3.193370e+01	-7.993284e+01
7.000000e-07	-4.480901e-06	-1.232253e-09	-3.175142e+01	-7.963464e+01
7.100000e-07	-4.454634e-06	-1.244675e-09	-3.156529e+01	-7.934003e+01
7.200000e-07	-4.427861e-06	-1.234738e-09	-3.137558e+01	-7.905179e+01
7.300000e-07	-4.400669e-06	-1.231500e-09	-3.118290e+01	-7.877221e+01
7.400000e-07	-4.373132e-06	-1.229839e-09	-3.098778e+01	-7.850296e+01
7.500000e-07	-4.345406e-06	-1.240639e-09	-3.079131e+01	-7.824504e+01
7.600000e-07	-4.317482e-06	-1.228336e-09	-3.059345e+01	-7.799877e+01
7.700000e-07	-4.289369e-06	-1.217393e-09	-3.039424e+01	-7.776375e+01
7.800000e-07	-4.261035e-06	-1.205688e-09	-3.019346e+01	-7.753895e+01
7.900000e-07	-4.232361e-06	-1.214327e-09	-2.999028e+01	-7.732278e+01
8.000000e-07	-4.203358e-06	-1.208633e-09	-2.978477e+01	-7.711322e+01
8.100000e-07	-4.174118e-06	-1.204509e-09	-2.957758e+01	-7.690792e+01
8.200000e-07	-4.144569e-06	-1.195462e-09	-2.936820e+01	-7.670439e+01
8.300000e-07	-4.114710e-06	-1.201625e-09	-2.915661e+01	-7.650013e+01
8.400000e-07	-4.084482e-06	-1.196654e-09	-2.894242e+01	-7.629280e+01
8.500000e-07	-4.053971e-06	-1.191745e-09	-2.872622e+01	-7.608032e+01
8.600000e-07	-4.023287e-06	-1.179612e-09	-2.850880e+01	-7.586101e+01
8.700000e-07	-3.992322e-06	-1.179833e-09	-2.828938e+01	-7.563367e+01
8.800000e-07	-3.961032e-06	-1.177348e-09	-2.806766e+01	-7.539762e+01
8.900000e-07	-3.929528e-06	-1.173945e-09	-2.784443e+01	-7.515274e+01
9.000000e-07	-3.897899e-06	-1.162022e-09	-2.762030e+01	-7.489943e+01
9.100000e-07	-3.866098e-06	-1.158663e-09	-2.739496e+01	-7.463857e+01
9.200000e-07	-3.834136e-06	-1.159841e-09	-2.716848e+01	-7.437147e+01
9.300000e-07	-3.801945e-06	-1.161871e-09	-2.694038e+01	-7.409973e+01
9.400000e-07	-3.769476e-06	-1.158929e-09	-2.671031e+01	-7.382513e+01
9.500000e-07	-3.736728e-06	-1.157901e-09	-2.647825e+01	-7.354952e+01
9.600000e-07	-3.703648e-06	-1.161579e-09	-2.624385e+01	-7.327468e+01
9.700000e-07	-3.670167e-06	-1.158343e-09	-2.600661e+01	-7.300223e+01
9.800000e-07	-3.636282e-06	-1.146397e-09	-2.576649e+01	-7.273346e+01
9.900000e-07	-3.601925e-06	-1.131282e-09	-2.552305e+01	-7.246931e+01
1.000000e-06	-3.567182e-06	-1.126714e-09	-2.527686e+01	-7.221026e+01
1.010000e-06	-3.532145e-06	-1.125534e-09	-2.502859e+01	-7.195634e+01
1.020000e-06	-3.496702e-06	-1.126660e-09	-2.477744e+01	-7.170710e+01
1.030000e-06	-3.461039e-06	-1.122314e-09	-2.452473e+01	-7.146162e+01
1.040000e-06	-3.425305e-06	-1.122254e-09	-2.427152e+01	-7.121863e+01
1.050000e-06	-3.389386e-06	-1.118240e-09	-2.401701e+01	-7.097650e+01
1.060000e-06	-3.353261e-06	-1.112268e-09	-2.376103e+01	-7.073343e+01
1.070000e-06	-3.316906e-06	-1.096861e-09	-2.350342e+01	-7.048748e+01
1.080000e-06	-3.280330e-06	-1.086819e-09	-2.324424e+01	-7.023674e+01
1.090000e-06	-3.243618e-06	-1.078143e-09	-2.298410e+01	-6.997941e+01
1.100000e-06	-3.206741e-06	-1.078867e-09	-2.272279e+01	-6.971394e+01
1.110000e-06	-3.169572e-06	-1.074604e-09	-2.245941e+01	-6.943907e+01
1.120000e-06	-3.132177e-06	-1.072760e-09	-2.219444e+01	-6.915398e+01
1.130000e-06	-3.094641e-06	-1.068493e-09	-2.192846e+01	-6.885826e+01
1.140000e-06	-3.056869e-06	-1.067647e-09	-2.166081e+01	-6.855196e+01
1.150000e-06	-3.018781e-06	-1.060440e-09	-2.139092e+01	-6.823560e+01
1.160000e-06	-2.980448e-06	-1.051492e-09	-2.111929e+01	-6.791013e+01
1.170000e-06	-2.941990e-06	-1.042030e-09	-2.084678e+01	-6.757685e+01
1.180000e-06	-2.903398e-06	-1.037944e-09	-2.057333e+01	-6.723736e+01
1.190000e-06	-2.864535e-06	-1.033074e-09	-2.029794e+01	-6.689346e+01
1.200000e-06	-2.825376e-06	-1.028437e-09	-2.002046e+01	-6.654703e+01
1.210000e-06	-2.786028e-06	-1.023163e-09	-1.974164e+01	-6.619993e+01
1.220000e-06	-2.746480e-06	-1.022394e-09	-1.946141e+01	-6.585393e+01
1.230000e-06	-2.706800e-06	-1.018963e-09	-1.918024e+01	-6.551054e+01
1.240000e-06	-2.667010e-06	-1.010697e-09	-1.889829e+01	-6.517101e+01
1.250000e-06	-2.627069e-06	-1.002435e-09	-1.861527e+01	-6.483619e+01
1.260000e-06	-2.587032e-06	-9.944995e-10	-1.833157e+01	-6.450654e+01
1.270000e-06	-2.546910e-06	-9.919988e-10	-1.804727e+01	-6.418209e+01
1.280000e-06	-2.506719e-06	-9.891269e-10	-1.776247e+01	-6.386247e+01
1.290000e-06	-2.466452e-06	-9.874026e-10	-1.747715e+01	-6.354689e+01
1.300000e-06	-2.425961e-06	-9.830587e-10	-1.719023e+01	-6.323424e+01
1.310000e-06	-2.385282e-06	-9.798733e-10	-1.690198e+01	-6.292312e+01
1.320000e-06	-2.344491e-06	-9.725265e-10	-1.661294e+01	-6.261198e+01
1.330000e-06	-2.303410e-06	-9.619285e-10	-1.632184e+01	-6.229912e+01
1.340000e-06	-2.261995e-06	-9.518440e-10	-1.602837e+01	-6.198286e+01
1.350000e-06	-2.220387e-06	-9.502972e-10	-1.573354e+01	-6.166160e+01
1.360000e-06	-2.178451e-06	-9.515310e-10	-1.543638e+01	-6.133389e+01
1.370000e-06	-2.136118e-06	-9.519434e-10	-1.513642e+01	-6.099851e+01
1.380000e-06	-2.093460e-06	-9.464286e-10	-1.483414e+01	-6.065453e+01
1.390000e-06	-2.050596e-06	-9.410805e-10	-1.453042e+01	-6.030132e+01
1.400000e-06	-2.007691e-06	-9.342863e-10	-1.422639e+01	-5.993858e+01
1.410000e-06	-1.964573e-06	-9.254018e-10	-1.392086e+01	-5.956631e+01
1.420000e-06	-1.921293e-06	-9.144769e-10	-1.361418e+01	-5.918482e+01
1.430000e-06	-1.877989e-06	-9.106390e-10	-1.330733e+01	-5.879464e+01
1.440000e-06	-1.834495e-06	-9.127547e-10	-1.299913e+01	-5.839649e+01
1.450000e-06	-1.790740e-06	-9.154223e-10	-1.268909e+01	-5.799121e+01
1.460000e-06	-1.746861e-06	-9.104042e-10	-1.237816e+01	-5.757968e+01
1.470000e-06	-1.702963e-06	-9.001975e-10	-1.206711e+01	-5.716274e+01
1.480000e-06	-1.659005e-06	-8.906504e-10	-1.175562e+01	-5.674113e+01
1.490000e-06	-1.614905e-06	-8.832810e-10	-1.144313e+01	-5.631545e+01
1.500000e-06	-1.570696e-06	-8.737762e-10	-1.112987e+01	-5.588608e+01
1.510000e-06	-1.526405e-06	-8.648592e-10	-1.081603e+01	-5.545317e+01
1.520000e-06	-1.482072e-06	-8.625083e-10	-1.050188e+01	-5.501659e+01
1.530000e-06	-1.437739e-06	-8.627633e-10	-1.018774e+01	-5.457599e+01
1.540000e-06	-1.393309e-06	-8.570285e-10	-9.872915e+00	-5.413077e+01
1.550000e-06	-1.348792e-06	-8.454745e-10	-9.557467e+00	-5.368013e+01
1.560000e-06	-1.304315e-06	-8.353529e-10	-9.242306e+00	-5.322312e+01
1.570000e-06	-1.259784e-06	-8.273930e-10	-8.926763e+00	-5.275866e+01
1.580000e-06	-1.215090e-06	-8.206133e-10	-8.610061e+00	-5.228568e+01
1.590000e-06	-1.170267e-06	-8.121566e-10	-8.292450e+00	-5.180307e+01
1.600000e-06	-1.125405e-06	-8.059488e-10	-7.974562e+00	-5.130982e+01
1.610000e-06	-1.080483e-06	-8.026475e-10	-7.656247e+00	-5.080504e+01
1.620000e-06	-1.035421e-06	-7.973098e-10	-7.336940e+00	-5.028801e+01
1.630000e-06	-9.902760e-07	-7.841779e-10	-7.017042e+00	-4.975817e+01
1.640000e-06	-9.450049e-07	-7.681919e-10	-6.696254e+00	-4.921519e+01
1.650000e-06	-8.996217e-07	-7.566027e-10	-6.374671e+00	-4.865891e+01
1.660000e-06	-8.542100e-07	-7.481250e-10	-6.052886e+00	-4.808933e+01
1.670000e-06	-8.087189e-07	-7.376023e-10	-5.730538e+00	-4.750663e+01
1.680000e-06	-7.631382e-07	-7.293142e-10	-5.407556e+00	-4.691104e+01
1.690000e-06	-7.175949e-07	-7.244897e-10	-5.084838e+00	-4.630285e+01
1.700000e-06	-6.719944e-07	-7.185122e-10	-4.761716e+00	-4.568233e+01
1.710000e-06	-6.263346e-07	-7.068228e-10	-4.438173e+00	-4.504966e+01
1.720000e-06	-5.807021e-07	-6.924293e-10	-4.114824e+00	-4.440488e+01
1.730000e-06	-5.349944e-07	-6.804792e-10	-3.790941e+00	-4.374785e+01
1.740000e-06	-4.892473e-07	-6.720188e-10	-3.466780e+00	-4.307821e+01
1.750000e-06	-4.434824e-07	-6.595160e-10	-3.142493e+00	-4.239533e+01
1.760000e-06	-3.976531e-07	-6.446956e-10	-2.817749e+00	-4.169833e+01
1.770000e-06	-3.517948e-07	-6.312038e-10	-2.492799e+00	-4.098605e+01
1.780000e-06	-3.059038e-07	-6.215546e-10	-2.167618e+00	-4.025711e+01
1.790000e-06	-2.598922e-07	-6.117965e-10	-1.841582e+00	-3.950990e+01
1.800000e-06	-2.139163e-07	-5.995855e-10	-1.515799e+00	-3.874269e+01
1.810000e-06	-1.680629e-07	-5.857622e-10	-1.190885e+00	-3.795362e+01
1.820000e-06	-1.222543e-07	-5.735225e-10	-8.662872e-01	-3.714081e+01
1.830000e-06	-7.646726e-08	-5.623387e-10	-5.418429e-01	-3.630240e+01
1.840000e-06	-3.054020e-08	-5.468328e-10	-2.164062e-01	-3.543666e+01
1.850000e-06	1.543281e-08	-5.298760e-10	1.093560e-01	-3.454201e+01
1.860000e-06	6.137484e-08	-5.170762e-10	4.348988e-01	-3.361708e+01
1.870000e-06	1.073394e-07	-5.078281e-10	7.606012e-01	-3.266077e+01
1.880000e-06	1.533179e-07	-4.980379e-10	1.086403e+00	-3.167229e+01
1.890000e-06	1.992811e-07	-4.833651e-10	1.412095e+00	-3.065112e+01
1.900000e-06	2.452249e-07	-4.639061e-10	1.737651e+00	-2.959707e+01
1.910000e-06	2.911779e-07	-4.449246e-10	2.063271e+00	-2.851022e+01
1.920000e-06	3.370799e-07	-4.254476e-10	2.388530e+00	-2.739092e+01
1.930000e-06	3.829366e-07	-4.044405e-10	2.713468e+00	-2.623970e+01
1.940000e-06	4.287290e-07	-3.834484e-10	3.037951e+00	-2.505729e+01
1.950000e-06	4.744966e-07	-3.641902e-10	3.362257e+00	-2.384450e+01
1.960000e-06	5.202059e-07	-3.478960e-10	3.686151e+00	-2.260219e+01
1.970000e-06	5.658441e-07	-3.325557e-10	4.009541e+00	-2.133123e+01
1.980000e-06	6.114826e-07	-3.137986e-10	4.332933e+00	-2.003240e+01
1.990000e-06	6.570299e-07	-2.922288e-10	4.655678e+00	-1.870642e+01
2.000000e-06	7.025171e-07	-2.697204e-10	4.977999e+00	-1.735387e+01
2.010000e-06	7.480749e-07	-2.479441e-10	5.300819e+00	-1.597520e+01
2.020000e-06	7.935960e-07	-2.249283e-10	5.623379e+00	-1.457073e+01
2.030000e-06	8.389892e-07	-2.013410e-10	5.945032e+00	-1.314066e+01
2.040000e-06	8.843425e-07	-1.786599e-10	6.266403e+00	-1.168509e+01
2.050000e-06	9.296130e-07	-1.594990e-10	6.587187e+00	-1.020408e+01
2.060000e-06	9.747772e-07	-1.407063e-10	6.907219e+00	-8.697679e+00
2.070000e-06	1.019938e-06	-1.185569e-10	7.227224e+00	-7.165998e+00
2.080000e-06	1.064987e-06	-9.312282e-11	7.546440e+00	-5.609247e+00
2.090000e-06	1.109894e-06	-6.721534e-11	7.864650e+00	-4.027799e+00
2.100000e-06	1.154706e-06	-4.315934e-11	8.182188e+00	-2.422234e+00
2.110000e-06	1.199433e-06	-1.785083e-11	8.499121e+00	-7.933795e-01
2.120000e-06	1.244057e-06	1.109078e-11	8.815318e+00	8.576629e-01
2.130000e-06	1.288572e-06	3.745279e-11	9.130755e+00	2.529505e+00
2.140000e-06	1.333010e-06	5.897054e-11	9.445636e+00	4.220472e+00
2.150000e-06	1.377321e-06	8.141929e-11	9.759624e+00	5.928618e+00
2.160000e-06	1.421608e-06	1.054886e-10	1.007344e+01	7.651760e+00
2.170000e-06	1.465875e-06	1.294893e-10	1.038711e+01	9.387516e+00
2.180000e-06	1.510090e-06	1.536807e-10	1.070041e+01	1.113336e+01
2.190000e-06	1.554245e-06	1.801359e-10	1.101329e+01	1.288669e+01
2.200000e-06	1.598319e-06	2.101796e-10	1.132560e+01	1.464487e+01
2.210000e-06	1.642325e-06	2.402364e-10	1.163742e+01	1.640533e+01
2.220000e-06	1.686290e-06	2.662102e-10	1.194896e+01	1.816558e+01
2.230000e-06	1.730245e-06	2.911856e-10	1.226042e+01	1.992329e+01
2.240000e-06	1.774089e-06	3.190467e-10	1.257110e+01	2.167635e+01
2.250000e-06	1.817793e-06	3.485804e-10	1.288078e+01	2.342284e+01
2.260000e-06	1.861395e-06	3.760529e-10	1.318975e+01	2.516111e+01
2.270000e-06	1.904864e-06	4.017612e-10	1.349776e+01	2.688973e+01
2.280000e-06	1.948197e-06	4.288165e-10	1.380482e+01	2.860750e+01
2.290000e-06	1.991398e-06	4.585749e-10	1.411094e+01	3.031342e+01
2.300000e-06	2.034431e-06	4.862786e-10	1.441587e+01	3.200663e+01
2.310000e-06	2.077264e-06	5.091867e-10	1.471938e+01	3.368639e+01
2.320000e-06	2.119852e-06	5.320404e-10	1.502116e+01	3.535200e+01
2.330000e-06	2.162134e-06	5.596171e-10	1.532077e+01	3.700278e+01
2.340000e-06	2.204164e-06	5.856789e-10	1.561859e+01	3.863797e+01
2.350000e-06	2.245959e-06	6.063156e-10	1.591475e+01	4.025672e+01
2.360000e-06	2.287445e-06	6.266115e-10	1.620871e+01	4.185803e+01
2.370000e-06	2.328701e-06	6.524938e-10	1.650105e+01	4.344077e+01
2.380000e-06	2.369610e-06	6.819871e-10	1.679093e+01	4.500360e+01
2.390000e-06	2.410264e-06	7.064298e-10	1.707900e+01	4.654502e+01
2.400000e-06	2.450908e-06	7.258625e-10	1.736700e+01	4.806340e+01
2.410000e-06	2.491353e-06	7.476211e-10	1.765359e+01	4.955696e+01
2.420000e-06	2.531562e-06	7.739717e-10	1.793851e+01	5.102387e+01
2.430000e-06	2.571637e-06	7.991046e-10	1.822248e+01	5.246228e+01
2.440000e-06	2.611607e-06	8.207566e-10	1.850571e+01	5.387036e+01
2.450000e-06	2.651511e-06	8.410025e-10	1.878846e+01	5.524642e+01
2.460000e-06	2.691291e-06	8.629760e-10	1.907034e+01	5.658891e+01
2.470000e-06	2.730891e-06	8.855090e-10	1.935095e+01	5.789653e+01
2.480000e-06	2.770314e-06	9.019408e-10	1.963029e+01	5.916822e+01
2.490000e-06	2.809571e-06	9.164626e-10	1.990847e+01	6.040327e+01
2.500000e-06	2.848704e-06	9.361080e-10	2.018577e+01	6.160126e+01
2.510000e-06	2.887585e-06	9.596984e-10	2.046127e+01	6.276214e+01
2.520000e-06	2.926163e-06	9.817606e-10	2.073463e+01	6.388616e+01
2.530000e-06	2.964595e-06	1.001885e-09	2.100696e+01	6.497389e+01
2.540000e-06	3.002865e-06	1.021879e-09	2.127814e+01	6.602616e+01
2.550000e-06	3.040897e-06	1.039058e-09	2.154763e+01	6.704399e+01
2.560000e-06	3.078687e-06	1.050658e-09	2.181541e+01	6.802856e+01
2.570000e-06	3.116252e-06	1.058407e-09	2.208159e+01	6.898114e+01
2.580000e-06	3.153664e-06	1.066970e-09	2.234669e+01	6.990299e+01
2.590000e-06	3.190894e-06	1.078768e-09	2.261050e+01	7.079534e+01
2.600000e-06	3.227851e-06	1.094954e-09	2.287238e+01	7.165930e+01
2.610000e-06	3.264577e-06	1.116212e-09	2.313262e+01	7.249584e+01
2.620000e-06	3.301093e-06	1.136657e-09	2.339136e+01	7.330570e+01
2.630000e-06	3.337397e-06	1.150862e-09	2.364862e+01	7.408945e+01
2.640000e-06	3.373552e-06	1.157288e-09	2.390480e+01	7.484742e+01
2.650000e-06	3.409584e-06	1.160308e-09	2.416013e+01	7.557973e+01
2.660000e-06	3.445491e-06	1.165998e-09	2.441456e+01	7.628635e+01
2.670000e-06	3.481234e-06	1.170696e-09	2.466784e+01	7.696710e+01
2.680000e-06	3.516773e-06	1.175808e-09	2.491966e+01	7.762169e+01
2.690000e-06	3.552061e-06	1.186162e-09	2.516971e+01	7.824984e+01
2.700000e-06	3.586985e-06	1.201224e-09	2.541718e+01	7.885127e+01
2.710000e-06	3.621472e-06	1.215519e-09	2.566156e+01	7.942582e+01
2.720000e-06	3.655483e-06	1.224779e-09	2.590256e+01	7.997345e+01
2.730000e-06	3.689083e-06	1.228378e-09	2.614065e+01	8.049433e+01
2.740000e-06	3.722383e-06	1.232245e-09	2.637661e+01	8.098885e+01
2.750000e-06	3.755351e-06	1.239277e-09	2.661021e+01	8.145763e+01
2.760000e-06	3.787964e-06	1.244093e-09	2.684131e+01	8.190156e+01
2.770000e-06	3.820297e-06	1.245446e-09	2.707042e+01	8.232176e+01
2.780000e-06	3.852424e-06	1.249246e-09	2.729807e+01	8.271954e+01
2.790000e-06	3.884330e-06	1.260224e-09	2.752415e+01	8.309641e+01
2.800000e-06	3.916046e-06	1.272241e-09	2.774889e+01	8.345396e+01
2.810000e-06	3.947608e-06	1.276388e-09	2.797254e+01	8.379383e+01
2.820000e-06	3.978908e-06	1.275522e-09	2.819433e+01	8.411766e+01
2.830000e-06	4.009938e-06	1.277944e-09	2.841420e+01	8.442699e+01
2.840000e-06	4.040635e-06	1.283065e-09	2.863172e+01	8.472321e+01
2.850000e-06	4.070969e-06	1.283358e-09	2.884667e+01	8.500750e+01
2.860000e-06	4.101059e-06	1.281533e-09	2.905989e+01	8.528082e+01
2.870000e-06	4.130909e-06	1.286264e-09	2.927140e+01	8.554381e+01
2.880000e-06	4.160470e-06	1.294939e-09	2.948087e+01	8.579685e+01
2.890000e-06	4.189712e-06	1.299474e-09	2.968808e+01	8.604002e+01
2.900000e-06	4.218738e-06	1.298791e-09	2.989375e+01	8.627315e+01
