# Temperatura_=_19.42
# Concentracion g/m^3_=_4090.0
# C_Vs_to_Am_M_A/Vsm_=_65563218390.804596
# pendiente_HvsI_1/m_=_3716.3
# ordenada_HvsI_A/m_=_1297.0
# frecuencia_Hz_=_135081.7401141576

Tiempo_(s)	Campo_(V.s)	Magnetizacion_(V.s)	Campo_(kA/m)	Magnetizacion_(A/m)
0.000000e+00	-5.417051e-06	-1.205744e-09	-3.839043e+01	-8.513795e+01
1.000000e-08	-5.417052e-06	-1.201093e-09	-3.839044e+01	-8.499384e+01
2.000000e-08	-5.416811e-06	-1.198562e-09	-3.838873e+01	-8.483111e+01
3.000000e-08	-5.416380e-06	-1.196954e-09	-3.838568e+01	-8.465110e+01
4.000000e-08	-5.415606e-06	-1.194076e-09	-3.838019e+01	-8.445614e+01
5.000000e-08	-5.414291e-06	-1.191166e-09	-3.837087e+01	-8.424950e+01
6.000000e-08	-5.412367e-06	-1.197274e-09	-3.835723e+01	-8.403531e+01
7.000000e-08	-5.409752e-06	-1.198968e-09	-3.833871e+01	-8.381847e+01
8.000000e-08	-5.406382e-06	-1.169341e-09	-3.831482e+01	-8.360446e+01
9.000000e-08	-5.402530e-06	-1.174153e-09	-3.828753e+01	-8.339920e+01
1.000000e-07	-5.398384e-06	-1.271785e-09	-3.825814e+01	-8.320878e+01
1.100000e-07	-5.393989e-06	-1.261461e-09	-3.822700e+01	-8.303928e+01
1.200000e-07	-5.389520e-06	-1.169937e-09	-3.819532e+01	-8.289650e+01
1.300000e-07	-5.384878e-06	-1.116825e-09	-3.816243e+01	-8.278572e+01
1.400000e-07	-5.379752e-06	-1.246338e-09	-3.812610e+01	-8.271148e+01
1.500000e-07	-5.374086e-06	-1.280028e-09	-3.808594e+01	-8.267737e+01
1.600000e-07	-5.368049e-06	-1.143263e-09	-3.804316e+01	-8.268587e+01
1.700000e-07	-5.361636e-06	-1.114271e-09	-3.799771e+01	-8.273822e+01
1.800000e-07	-5.354726e-06	-1.236036e-09	-3.794874e+01	-8.283431e+01
1.900000e-07	-5.347404e-06	-1.317923e-09	-3.789685e+01	-8.297269e+01
2.000000e-07	-5.339958e-06	-1.221566e-09	-3.784408e+01	-8.315053e+01
2.100000e-07	-5.332351e-06	-1.225596e-09	-3.779017e+01	-8.336376e+01
2.200000e-07	-5.324438e-06	-1.294257e-09	-3.773409e+01	-8.360716e+01
2.300000e-07	-5.316226e-06	-1.324780e-09	-3.767589e+01	-8.387451e+01
2.400000e-07	-5.307629e-06	-1.280299e-09	-3.761496e+01	-8.415886e+01
2.500000e-07	-5.298600e-06	-1.351326e-09	-3.755097e+01	-8.445268e+01
2.600000e-07	-5.288775e-06	-1.397553e-09	-3.748134e+01	-8.474821e+01
2.700000e-07	-5.278298e-06	-1.372248e-09	-3.740710e+01	-8.503765e+01
2.800000e-07	-5.267331e-06	-1.356957e-09	-3.732938e+01	-8.531347e+01
2.900000e-07	-5.255790e-06	-1.412440e-09	-3.724758e+01	-8.556864e+01
3.000000e-07	-5.243912e-06	-1.376624e-09	-3.716341e+01	-8.579687e+01
3.100000e-07	-5.231725e-06	-1.312955e-09	-3.707704e+01	-8.599280e+01
3.200000e-07	-5.219205e-06	-1.375998e-09	-3.698831e+01	-8.615215e+01
3.300000e-07	-5.206353e-06	-1.435775e-09	-3.689723e+01	-8.627182e+01
3.400000e-07	-5.193022e-06	-1.374996e-09	-3.680275e+01	-8.634998e+01
3.500000e-07	-5.179202e-06	-1.347035e-09	-3.670481e+01	-8.638602e+01
3.600000e-07	-5.165032e-06	-1.398650e-09	-3.660439e+01	-8.638058e+01
3.700000e-07	-5.150514e-06	-1.382570e-09	-3.650150e+01	-8.633540e+01
3.800000e-07	-5.135544e-06	-1.327797e-09	-3.639540e+01	-8.625323e+01
3.900000e-07	-5.119975e-06	-1.341324e-09	-3.628507e+01	-8.613764e+01
4.000000e-07	-5.103795e-06	-1.361128e-09	-3.617040e+01	-8.599285e+01
4.100000e-07	-5.087221e-06	-1.346034e-09	-3.605294e+01	-8.582350e+01
4.200000e-07	-5.070379e-06	-1.369230e-09	-3.593358e+01	-8.563446e+01
4.300000e-07	-5.053108e-06	-1.370261e-09	-3.581118e+01	-8.543062e+01
4.400000e-07	-5.035556e-06	-1.344423e-09	-3.568679e+01	-8.521667e+01
4.500000e-07	-5.017862e-06	-1.333332e-09	-3.556140e+01	-8.499694e+01
4.600000e-07	-4.999796e-06	-1.360495e-09	-3.543336e+01	-8.477527e+01
4.700000e-07	-4.981241e-06	-1.335180e-09	-3.530186e+01	-8.455486e+01
4.800000e-07	-4.962322e-06	-1.324395e-09	-3.516779e+01	-8.433821e+01
4.900000e-07	-4.943014e-06	-1.326892e-09	-3.503095e+01	-8.412707e+01
5.000000e-07	-4.923312e-06	-1.337475e-09	-3.489133e+01	-8.392245e+01
5.100000e-07	-4.903407e-06	-1.324708e-09	-3.475026e+01	-8.372465e+01
5.200000e-07	-4.883345e-06	-1.326538e-09	-3.460808e+01	-8.353332e+01
5.300000e-07	-4.863061e-06	-1.305977e-09	-3.446433e+01	-8.334756e+01
5.400000e-07	-4.842489e-06	-1.313939e-09	-3.431854e+01	-8.316605e+01
5.500000e-07	-4.821471e-06	-1.326760e-09	-3.416958e+01	-8.298713e+01
5.600000e-07	-4.800021e-06	-1.323969e-09	-3.401756e+01	-8.280898e+01
5.700000e-07	-4.778275e-06	-1.301312e-09	-3.386345e+01	-8.262974e+01
5.800000e-07	-4.756257e-06	-1.304241e-09	-3.370741e+01	-8.244761e+01
5.900000e-07	-4.733939e-06	-1.292883e-09	-3.354925e+01	-8.226101e+01
6.000000e-07	-4.711266e-06	-1.279374e-09	-3.338856e+01	-8.206862e+01
6.100000e-07	-4.688234e-06	-1.277337e-09	-3.322534e+01	-8.186948e+01
6.200000e-07	-4.664854e-06	-1.279807e-09	-3.305964e+01	-8.166300e+01
6.300000e-07	-4.641195e-06	-1.280022e-09	-3.289197e+01	-8.144903e+01
6.400000e-07	-4.617372e-06	-1.295619e-09	-3.272314e+01	-8.122778e+01
6.500000e-07	-4.593378e-06	-1.298157e-09	-3.255309e+01	-8.099987e+01
6.600000e-07	-4.569078e-06	-1.278865e-09	-3.238088e+01	-8.076619e+01
6.700000e-07	-4.544491e-06	-1.275922e-09	-3.220663e+01	-8.052789e+01
6.800000e-07	-4.519481e-06	-1.277393e-09	-3.202939e+01	-8.028629e+01
6.900000e-07	-4.494003e-06	-1.265193e-09	-3.184883e+01	-8.004277e+01
7.000000e-07	-4.468129e-06	-1.246975e-09	-3.166546e+01	-7.979871e+01
7.100000e-07	-4.441785e-06	-1.246924e-09	-3.147876e+01	-7.955539e+01
7.200000e-07	-4.414883e-06	-1.249126e-09	-3.128811e+01	-7.931394e+01
7.300000e-07	-4.387498e-06	-1.257265e-09	-3.109403e+01	-7.907525e+01
7.400000e-07	-4.359843e-06	-1.252064e-09	-3.089804e+01	-7.883994e+01
7.500000e-07	-4.331975e-06	-1.249337e-09	-3.070054e+01	-7.860836e+01
7.600000e-07	-4.303958e-06	-1.246388e-09	-3.050199e+01	-7.838052e+01
7.700000e-07	-4.275712e-06	-1.247107e-09	-3.030181e+01	-7.815619e+01
7.800000e-07	-4.247230e-06	-1.228461e-09	-3.009996e+01	-7.793482e+01
7.900000e-07	-4.218486e-06	-1.215181e-09	-2.989625e+01	-7.771570e+01
8.000000e-07	-4.189367e-06	-1.209419e-09	-2.968988e+01	-7.749790e+01
8.100000e-07	-4.159916e-06	-1.215016e-09	-2.948116e+01	-7.728042e+01
8.200000e-07	-4.130194e-06	-1.210837e-09	-2.927053e+01	-7.706220e+01
8.300000e-07	-4.100239e-06	-1.210502e-09	-2.905823e+01	-7.684219e+01
8.400000e-07	-4.070127e-06	-1.209236e-09	-2.884483e+01	-7.661945e+01
8.500000e-07	-4.039774e-06	-1.214643e-09	-2.862973e+01	-7.639314e+01
8.600000e-07	-4.009018e-06	-1.209751e-09	-2.841176e+01	-7.616259e+01
8.700000e-07	-3.977924e-06	-1.198371e-09	-2.819139e+01	-7.592734e+01
8.800000e-07	-3.946610e-06	-1.183438e-09	-2.796948e+01	-7.568712e+01
8.900000e-07	-3.915078e-06	-1.179001e-09	-2.774601e+01	-7.544191e+01
9.000000e-07	-3.883319e-06	-1.175182e-09	-2.752093e+01	-7.519183e+01
9.100000e-07	-3.851437e-06	-1.170939e-09	-2.729499e+01	-7.493722e+01
9.200000e-07	-3.819405e-06	-1.168153e-09	-2.706798e+01	-7.467854e+01
9.300000e-07	-3.787141e-06	-1.173414e-09	-2.683932e+01	-7.441632e+01
9.400000e-07	-3.754574e-06	-1.181885e-09	-2.660852e+01	-7.415118e+01
9.500000e-07	-3.721622e-06	-1.181530e-09	-2.637499e+01	-7.388372e+01
9.600000e-07	-3.688269e-06	-1.173047e-09	-2.613862e+01	-7.361450e+01
9.700000e-07	-3.654523e-06	-1.161369e-09	-2.589947e+01	-7.334400e+01
9.800000e-07	-3.620316e-06	-1.152963e-09	-2.565704e+01	-7.307258e+01
9.900000e-07	-3.585624e-06	-1.140281e-09	-2.541118e+01	-7.280047e+01
1.000000e-06	-3.550636e-06	-1.130835e-09	-2.516322e+01	-7.252775e+01
1.010000e-06	-3.515393e-06	-1.130072e-09	-2.491346e+01	-7.225436e+01
1.020000e-06	-3.479920e-06	-1.139388e-09	-2.466206e+01	-7.198009e+01
1.030000e-06	-3.444238e-06	-1.142652e-09	-2.440918e+01	-7.170463e+01
1.040000e-06	-3.408368e-06	-1.141523e-09	-2.415498e+01	-7.142756e+01
1.050000e-06	-3.372385e-06	-1.135502e-09	-2.389996e+01	-7.114842e+01
1.060000e-06	-3.336236e-06	-1.128768e-09	-2.364378e+01	-7.086674e+01
1.070000e-06	-3.299951e-06	-1.113349e-09	-2.338663e+01	-7.058207e+01
1.080000e-06	-3.263508e-06	-1.100169e-09	-2.312836e+01	-7.029400e+01
1.090000e-06	-3.226744e-06	-1.093195e-09	-2.286781e+01	-7.000227e+01
1.100000e-06	-3.189671e-06	-1.097612e-09	-2.260508e+01	-6.970668e+01
1.110000e-06	-3.152395e-06	-1.098304e-09	-2.234090e+01	-6.940721e+01
1.120000e-06	-3.114858e-06	-1.094896e-09	-2.207488e+01	-6.910400e+01
1.130000e-06	-3.077110e-06	-1.085974e-09	-2.180736e+01	-6.879730e+01
1.140000e-06	-3.039169e-06	-1.081406e-09	-2.153847e+01	-6.848753e+01
1.150000e-06	-3.001038e-06	-1.077623e-09	-2.126824e+01	-6.817521e+01
1.160000e-06	-2.962815e-06	-1.070996e-09	-2.099736e+01	-6.786096e+01
1.170000e-06	-2.924329e-06	-1.061792e-09	-2.072461e+01	-6.754546e+01
1.180000e-06	-2.885576e-06	-1.056346e-09	-2.044997e+01	-6.722936e+01
1.190000e-06	-2.846590e-06	-1.052846e-09	-2.017367e+01	-6.691334e+01
1.200000e-06	-2.807364e-06	-1.048792e-09	-1.989568e+01	-6.659796e+01
1.210000e-06	-2.768026e-06	-1.042227e-09	-1.961689e+01	-6.628371e+01
1.220000e-06	-2.728487e-06	-1.038292e-09	-1.933668e+01	-6.597091e+01
1.230000e-06	-2.688757e-06	-1.038068e-09	-1.905512e+01	-6.565974e+01
1.240000e-06	-2.648982e-06	-1.036542e-09	-1.877323e+01	-6.535019e+01
1.250000e-06	-2.609134e-06	-1.033861e-09	-1.849083e+01	-6.504207e+01
1.260000e-06	-2.569192e-06	-1.027250e-09	-1.820777e+01	-6.473501e+01
1.270000e-06	-2.529132e-06	-1.018466e-09	-1.792386e+01	-6.442847e+01
1.280000e-06	-2.488975e-06	-1.009150e-09	-1.763927e+01	-6.412178e+01
1.290000e-06	-2.448673e-06	-1.000320e-09	-1.735365e+01	-6.381415e+01
1.300000e-06	-2.408092e-06	-9.919985e-10	-1.706606e+01	-6.350471e+01
1.310000e-06	-2.367220e-06	-9.844941e-10	-1.677640e+01	-6.319255e+01
1.320000e-06	-2.326076e-06	-9.805042e-10	-1.648481e+01	-6.287678e+01
1.330000e-06	-2.284736e-06	-9.826690e-10	-1.619183e+01	-6.255653e+01
1.340000e-06	-2.242997e-06	-9.846749e-10	-1.589604e+01	-6.223103e+01
1.350000e-06	-2.200960e-06	-9.814087e-10	-1.559812e+01	-6.189958e+01
1.360000e-06	-2.158806e-06	-9.710624e-10	-1.529937e+01	-6.156163e+01
1.370000e-06	-2.116444e-06	-9.595474e-10	-1.499916e+01	-6.121677e+01
1.380000e-06	-2.073748e-06	-9.478075e-10	-1.469657e+01	-6.086473e+01
1.390000e-06	-2.030768e-06	-9.392555e-10	-1.439197e+01	-6.050538e+01
1.400000e-06	-1.987614e-06	-9.327664e-10	-1.408614e+01	-6.013871e+01
1.410000e-06	-1.944318e-06	-9.318561e-10	-1.377931e+01	-5.976481e+01
1.420000e-06	-1.900924e-06	-9.342201e-10	-1.347178e+01	-5.938386e+01
1.430000e-06	-1.857326e-06	-9.382250e-10	-1.316280e+01	-5.899610e+01
1.440000e-06	-1.813664e-06	-9.360996e-10	-1.285337e+01	-5.860177e+01
1.450000e-06	-1.769981e-06	-9.256436e-10	-1.254379e+01	-5.820109e+01
1.460000e-06	-1.726197e-06	-9.113980e-10	-1.223349e+01	-5.779426e+01
1.470000e-06	-1.682311e-06	-9.000917e-10	-1.192247e+01	-5.738140e+01
1.480000e-06	-1.638339e-06	-8.923792e-10	-1.161085e+01	-5.696254e+01
1.490000e-06	-1.594305e-06	-8.909061e-10	-1.129878e+01	-5.653760e+01
1.500000e-06	-1.550180e-06	-8.914120e-10	-1.098606e+01	-5.610644e+01
1.510000e-06	-1.505997e-06	-8.921024e-10	-1.067294e+01	-5.566878e+01
1.520000e-06	-1.461749e-06	-8.879252e-10	-1.035936e+01	-5.522426e+01
1.530000e-06	-1.417413e-06	-8.758299e-10	-1.004515e+01	-5.477247e+01
1.540000e-06	-1.373006e-06	-8.571647e-10	-9.730440e+00	-5.431295e+01
1.550000e-06	-1.328556e-06	-8.398605e-10	-9.415428e+00	-5.384519e+01
1.560000e-06	-1.283945e-06	-8.299788e-10	-9.099270e+00	-5.336872e+01
1.570000e-06	-1.239150e-06	-8.282026e-10	-8.781812e+00	-5.288309e+01
1.580000e-06	-1.194388e-06	-8.297175e-10	-8.464581e+00	-5.238793e+01
1.590000e-06	-1.149538e-06	-8.274204e-10	-8.146734e+00	-5.188291e+01
1.600000e-06	-1.104612e-06	-8.227824e-10	-7.828343e+00	-5.136782e+01
1.610000e-06	-1.059597e-06	-8.152133e-10	-7.509325e+00	-5.084255e+01
1.620000e-06	-1.014440e-06	-8.037784e-10	-7.189300e+00	-5.030705e+01
1.630000e-06	-9.692150e-07	-7.887812e-10	-6.868790e+00	-4.976138e+01
1.640000e-06	-9.238821e-07	-7.757074e-10	-6.547517e+00	-4.920566e+01
1.650000e-06	-8.784920e-07	-7.669996e-10	-6.225839e+00	-4.864001e+01
1.660000e-06	-8.330273e-07	-7.600393e-10	-5.903632e+00	-4.806459e+01
1.670000e-06	-7.875145e-07	-7.528596e-10	-5.581085e+00	-4.747948e+01
1.680000e-06	-7.419267e-07	-7.441550e-10	-5.258006e+00	-4.688470e+01
1.690000e-06	-6.962614e-07	-7.318223e-10	-4.934378e+00	-4.628014e+01
1.700000e-06	-6.506170e-07	-7.184832e-10	-4.610898e+00	-4.566554e+01
1.710000e-06	-6.049606e-07	-7.072034e-10	-4.287333e+00	-4.504043e+01
1.720000e-06	-5.592847e-07	-7.010343e-10	-3.963629e+00	-4.440415e+01
1.730000e-06	-5.136076e-07	-6.940853e-10	-3.639917e+00	-4.375578e+01
1.740000e-06	-4.678521e-07	-6.838747e-10	-3.315650e+00	-4.309418e+01
1.750000e-06	-4.220184e-07	-6.709861e-10	-2.990828e+00	-4.241797e+01
1.760000e-06	-3.761651e-07	-6.580450e-10	-2.665868e+00	-4.172558e+01
1.770000e-06	-3.302611e-07	-6.435849e-10	-2.340548e+00	-4.101523e+01
1.780000e-06	-2.843802e-07	-6.305615e-10	-2.015392e+00	-4.028501e+01
1.790000e-06	-2.385039e-07	-6.210981e-10	-1.690268e+00	-3.953293e+01
1.800000e-06	-1.925424e-07	-6.130172e-10	-1.364540e+00	-3.875695e+01
1.810000e-06	-1.465137e-07	-6.017668e-10	-1.038337e+00	-3.795504e+01
1.820000e-06	-1.004627e-07	-5.886687e-10	-7.119754e-01	-3.712528e+01
1.830000e-06	-5.450054e-08	-5.726572e-10	-3.862432e-01	-3.626586e+01
1.840000e-06	-8.548804e-09	-5.543590e-10	-6.058505e-02	-3.537518e+01
1.850000e-06	3.744161e-08	-5.381495e-10	2.653473e-01	-3.445190e+01
1.860000e-06	8.338068e-08	-5.251462e-10	5.909157e-01	-3.349492e+01
1.870000e-06	1.292609e-07	-5.143820e-10	9.160668e-01	-3.250350e+01
1.880000e-06	1.751491e-07	-5.028376e-10	1.241275e+00	-3.147719e+01
1.890000e-06	2.210298e-07	-4.866445e-10	1.566429e+00	-3.041589e+01
1.900000e-06	2.669054e-07	-4.639213e-10	1.891548e+00	-2.931981e+01
1.910000e-06	3.128044e-07	-4.383881e-10	2.216833e+00	-2.818946e+01
1.920000e-06	3.586898e-07	-4.150277e-10	2.542021e+00	-2.702562e+01
1.930000e-06	4.045492e-07	-3.955554e-10	2.867025e+00	-2.582929e+01
1.940000e-06	4.503442e-07	-3.778968e-10	3.191572e+00	-2.460164e+01
1.950000e-06	4.960133e-07	-3.625437e-10	3.515227e+00	-2.334397e+01
1.960000e-06	5.416475e-07	-3.500159e-10	3.838635e+00	-2.205765e+01
1.970000e-06	5.873696e-07	-3.353163e-10	4.162666e+00	-2.074405e+01
1.980000e-06	6.330790e-07	-3.132930e-10	4.486606e+00	-1.940450e+01
1.990000e-06	6.786535e-07	-2.869549e-10	4.809591e+00	-1.804026e+01
2.000000e-06	7.241357e-07	-2.610231e-10	5.131922e+00	-1.665244e+01
2.010000e-06	7.696197e-07	-2.373787e-10	5.454265e+00	-1.524203e+01
2.020000e-06	8.150399e-07	-2.153654e-10	5.776157e+00	-1.380985e+01
2.030000e-06	8.604233e-07	-1.946118e-10	6.097787e+00	-1.235652e+01
2.040000e-06	9.057285e-07	-1.751376e-10	6.418863e+00	-1.088253e+01
2.050000e-06	9.509590e-07	-1.573286e-10	6.739410e+00	-9.388184e+00
2.060000e-06	9.961952e-07	-1.336259e-10	7.059997e+00	-7.873682e+00
2.070000e-06	1.041304e-06	-1.062189e-10	7.379684e+00	-6.339119e+00
2.080000e-06	1.086290e-06	-7.857976e-11	7.698498e+00	-4.784538e+00
2.090000e-06	1.131165e-06	-5.117562e-11	8.016521e+00	-3.209971e+00
2.100000e-06	1.175927e-06	-2.372531e-11	8.333752e+00	-1.615481e+00
2.110000e-06	1.220596e-06	2.819060e-12	8.650317e+00	-1.208945e-03
2.120000e-06	1.265099e-06	2.621500e-11	8.965707e+00	1.632583e+00
2.130000e-06	1.309547e-06	4.614202e-11	9.280708e+00	3.285477e+00
2.140000e-06	1.354042e-06	6.737242e-11	9.596044e+00	4.956865e+00
2.150000e-06	1.398481e-06	9.213398e-11	9.910981e+00	6.645925e+00
2.160000e-06	1.442750e-06	1.184682e-10	1.022471e+01	8.351601e+00
2.170000e-06	1.486885e-06	1.460006e-10	1.053750e+01	1.007260e+01
2.180000e-06	1.531008e-06	1.740738e-10	1.085020e+01	1.180740e+01
2.190000e-06	1.575041e-06	2.018526e-10	1.116226e+01	1.355422e+01
2.200000e-06	1.618956e-06	2.264167e-10	1.147348e+01	1.531109e+01
2.210000e-06	1.662889e-06	2.493425e-10	1.178483e+01	1.707584e+01
2.220000e-06	1.706848e-06	2.735269e-10	1.209637e+01	1.884613e+01
2.230000e-06	1.750751e-06	3.015864e-10	1.240750e+01	2.061949e+01
2.240000e-06	1.794573e-06	3.328938e-10	1.271807e+01	2.239335e+01
2.250000e-06	1.838314e-06	3.622396e-10	1.302806e+01	2.416508e+01
2.260000e-06	1.881984e-06	3.897846e-10	1.333755e+01	2.593201e+01
2.270000e-06	1.925472e-06	4.186960e-10	1.364575e+01	2.769150e+01
2.280000e-06	1.968809e-06	4.468886e-10	1.395288e+01	2.944093e+01
2.290000e-06	2.012120e-06	4.734286e-10	1.425982e+01	3.117775e+01
2.300000e-06	2.055331e-06	4.966659e-10	1.456606e+01	3.289953e+01
2.310000e-06	2.098301e-06	5.203724e-10	1.487058e+01	3.460394e+01
2.320000e-06	2.140915e-06	5.486780e-10	1.517258e+01	3.628878e+01
2.330000e-06	2.183177e-06	5.777161e-10	1.547209e+01	3.795202e+01
2.340000e-06	2.225167e-06	6.018336e-10	1.576967e+01	3.959180e+01
2.350000e-06	2.266909e-06	6.239180e-10	1.606550e+01	4.120641e+01
2.360000e-06	2.308255e-06	6.474895e-10	1.635851e+01	4.279433e+01
2.370000e-06	2.349189e-06	6.726851e-10	1.664862e+01	4.435422e+01
2.380000e-06	2.389890e-06	6.965840e-10	1.693706e+01	4.588490e+01
2.390000e-06	2.430400e-06	7.200481e-10	1.722415e+01	4.738538e+01
2.400000e-06	2.470722e-06	7.440427e-10	1.750991e+01	4.885482e+01
2.410000e-06	2.510924e-06	7.676576e-10	1.779482e+01	5.029254e+01
2.420000e-06	2.551007e-06	7.905898e-10	1.807889e+01	5.169801e+01
2.430000e-06	2.591011e-06	8.129915e-10	1.836240e+01	5.307084e+01
2.440000e-06	2.630923e-06	8.359548e-10	1.864525e+01	5.441075e+01
2.450000e-06	2.670685e-06	8.556567e-10	1.892704e+01	5.571759e+01
2.460000e-06	2.710400e-06	8.756282e-10	1.920850e+01	5.699128e+01
2.470000e-06	2.749995e-06	8.949479e-10	1.948911e+01	5.823184e+01
2.480000e-06	2.789412e-06	9.122939e-10	1.976845e+01	5.943934e+01
2.490000e-06	2.828593e-06	9.288114e-10	2.004613e+01	6.061391e+01
2.500000e-06	2.867532e-06	9.467722e-10	2.032209e+01	6.175573e+01
2.510000e-06	2.906318e-06	9.675076e-10	2.059696e+01	6.286496e+01
2.520000e-06	2.944860e-06	9.896432e-10	2.087011e+01	6.394181e+01
2.530000e-06	2.983096e-06	1.010058e-09	2.114108e+01	6.498649e+01
2.540000e-06	3.021132e-06	1.026260e-09	2.141065e+01	6.599917e+01
2.550000e-06	3.059056e-06	1.039337e-09	2.167941e+01	6.698005e+01
2.560000e-06	3.096810e-06	1.050954e-09	2.194697e+01	6.792931e+01
2.570000e-06	3.134338e-06	1.062678e-09	2.221294e+01	6.884711e+01
2.580000e-06	3.171638e-06	1.075528e-09	2.247728e+01	6.973363e+01
2.590000e-06	3.208764e-06	1.091406e-09	2.274039e+01	7.058905e+01
2.600000e-06	3.245552e-06	1.110710e-09	2.300110e+01	7.141358e+01
2.610000e-06	3.281968e-06	1.130282e-09	2.325918e+01	7.220747e+01
2.620000e-06	3.318176e-06	1.144800e-09	2.351579e+01	7.297103e+01
2.630000e-06	3.354307e-06	1.153790e-09	2.377184e+01	7.370462e+01
2.640000e-06	3.390351e-06	1.158725e-09	2.402729e+01	7.440870e+01
2.650000e-06	3.426237e-06	1.162906e-09	2.428161e+01	7.508385e+01
2.660000e-06	3.462000e-06	1.168524e-09	2.453506e+01	7.573074e+01
2.670000e-06	3.497696e-06	1.176125e-09	2.478804e+01	7.635016e+01
2.680000e-06	3.533258e-06	1.184064e-09	2.504007e+01	7.694303e+01
2.690000e-06	3.568337e-06	1.192958e-09	2.528867e+01	7.751037e+01
2.700000e-06	3.602934e-06	1.204659e-09	2.553386e+01	7.805332e+01
2.710000e-06	3.637357e-06	1.216555e-09	2.577781e+01	7.857311e+01
2.720000e-06	3.671402e-06	1.224551e-09	2.601909e+01	7.907103e+01
2.730000e-06	3.704848e-06	1.231106e-09	2.625612e+01	7.954841e+01
2.740000e-06	3.737842e-06	1.234798e-09	2.648994e+01	8.000659e+01
2.750000e-06	3.770447e-06	1.236167e-09	2.672101e+01	8.044690e+01
2.760000e-06	3.802686e-06	1.239265e-09	2.694949e+01	8.087058e+01
2.770000e-06	3.834743e-06	1.243216e-09	2.717668e+01	8.127879e+01
2.780000e-06	3.866740e-06	1.250131e-09	2.740344e+01	8.167258e+01
2.790000e-06	3.898629e-06	1.260863e-09	2.762943e+01	8.205281e+01
2.800000e-06	3.930332e-06	1.270968e-09	2.785411e+01	8.242017e+01
2.810000e-06	3.961822e-06	1.276850e-09	2.807728e+01	8.277517e+01
2.820000e-06	3.993044e-06	1.279399e-09	2.829855e+01	8.311811e+01
2.830000e-06	4.023885e-06	1.279425e-09	2.851712e+01	8.344908e+01
2.840000e-06	4.054389e-06	1.278750e-09	2.873330e+01	8.376798e+01
2.850000e-06	4.084610e-06	1.279695e-09	2.894747e+01	8.407457e+01
2.860000e-06	4.114575e-06	1.283510e-09	2.915983e+01	8.436843e+01
2.870000e-06	4.144349e-06	1.290224e-09	2.937084e+01	8.464908e+01
2.880000e-06	4.173859e-06	1.297704e-09	2.957998e+01	8.491595e+01
2.890000e-06	4.203105e-06	1.301341e-09	2.978725e+01	8.516847e+01
2.900000e-06	4.232059e-06	1.302724e-09	2.999244e+01	8.540611e+01
