# Temperatura_=_18.9
# Concentracion g/m^3_=_4090.0
# C_Vs_to_Am_M_A/Vsm_=_65563218390.804596
# pendiente_HvsI_1/m_=_3716.3
# ordenada_HvsI_A/m_=_1297.0
# frecuencia_Hz_=_135083.40353323004

Tiempo_(s)	Campo_(V.s)	Magnetizacion_(V.s)	Campo_(kA/m)	Magnetizacion_(A/m)
0.000000e+00	-5.407385e-06	-1.199497e-09	-3.837994e+01	-8.138648e+01
1.000000e-08	-5.407520e-06	-1.198392e-09	-3.838090e+01	-8.123096e+01
2.000000e-08	-5.407357e-06	-1.196039e-09	-3.837974e+01	-8.104454e+01
3.000000e-08	-5.406879e-06	-1.193321e-09	-3.837635e+01	-8.082871e+01
4.000000e-08	-5.406130e-06	-1.193092e-09	-3.837104e+01	-8.058678e+01
5.000000e-08	-5.405024e-06	-1.200221e-09	-3.836318e+01	-8.032390e+01
6.000000e-08	-5.403282e-06	-1.213518e-09	-3.835082e+01	-8.004690e+01
7.000000e-08	-5.400880e-06	-1.206745e-09	-3.833377e+01	-7.976415e+01
8.000000e-08	-5.397870e-06	-1.160400e-09	-3.831241e+01	-7.948524e+01
9.000000e-08	-5.394273e-06	-1.135627e-09	-3.828687e+01	-7.922071e+01
1.000000e-07	-5.390304e-06	-1.181103e-09	-3.825870e+01	-7.898157e+01
1.100000e-07	-5.386061e-06	-1.251535e-09	-3.822859e+01	-7.877887e+01
1.200000e-07	-5.381515e-06	-1.214031e-09	-3.819633e+01	-7.862327e+01
1.300000e-07	-5.376783e-06	-1.135654e-09	-3.816274e+01	-7.852449e+01
1.400000e-07	-5.371772e-06	-1.196539e-09	-3.812717e+01	-7.849093e+01
1.500000e-07	-5.366336e-06	-1.290757e-09	-3.808859e+01	-7.852923e+01
1.600000e-07	-5.360516e-06	-1.249458e-09	-3.804728e+01	-7.864390e+01
1.700000e-07	-5.354278e-06	-1.085531e-09	-3.800300e+01	-7.883710e+01
1.800000e-07	-5.347660e-06	-1.104511e-09	-3.795603e+01	-7.910845e+01
1.900000e-07	-5.340660e-06	-1.229465e-09	-3.790635e+01	-7.945494e+01
2.000000e-07	-5.333320e-06	-1.251330e-09	-3.785425e+01	-7.987103e+01
2.100000e-07	-5.325779e-06	-1.193385e-09	-3.780073e+01	-8.034872e+01
2.200000e-07	-5.318022e-06	-1.230024e-09	-3.774567e+01	-8.087789e+01
2.300000e-07	-5.309981e-06	-1.304766e-09	-3.768860e+01	-8.144658e+01
2.400000e-07	-5.301626e-06	-1.283945e-09	-3.762929e+01	-8.204147e+01
2.500000e-07	-5.292704e-06	-1.270586e-09	-3.756597e+01	-8.264832e+01
2.600000e-07	-5.283046e-06	-1.320881e-09	-3.749742e+01	-8.325252e+01
2.700000e-07	-5.272765e-06	-1.348482e-09	-3.742445e+01	-8.383961e+01
2.800000e-07	-5.261861e-06	-1.303796e-09	-3.734706e+01	-8.439582e+01
2.900000e-07	-5.250401e-06	-1.306647e-09	-3.726572e+01	-8.490857e+01
3.000000e-07	-5.238650e-06	-1.338153e-09	-3.718232e+01	-8.536689e+01
3.100000e-07	-5.226572e-06	-1.313357e-09	-3.709658e+01	-8.576180e+01
3.200000e-07	-5.214061e-06	-1.274165e-09	-3.700779e+01	-8.608660e+01
3.300000e-07	-5.201167e-06	-1.322904e-09	-3.691627e+01	-8.633700e+01
3.400000e-07	-5.187862e-06	-1.349756e-09	-3.682184e+01	-8.651125e+01
3.500000e-07	-5.174113e-06	-1.313250e-09	-3.672425e+01	-8.661006e+01
3.600000e-07	-5.159983e-06	-1.300296e-09	-3.662396e+01	-8.663647e+01
3.700000e-07	-5.145538e-06	-1.324869e-09	-3.652143e+01	-8.659562e+01
3.800000e-07	-5.130670e-06	-1.294333e-09	-3.641591e+01	-8.649442e+01
3.900000e-07	-5.115229e-06	-1.266132e-09	-3.630631e+01	-8.634118e+01
4.000000e-07	-5.099182e-06	-1.284022e-09	-3.619241e+01	-8.614518e+01
4.100000e-07	-5.082724e-06	-1.295739e-09	-3.607560e+01	-8.591622e+01
4.200000e-07	-5.065879e-06	-1.280798e-09	-3.595604e+01	-8.566415e+01
4.300000e-07	-5.048681e-06	-1.304392e-09	-3.583397e+01	-8.539848e+01
4.400000e-07	-5.031225e-06	-1.317603e-09	-3.571008e+01	-8.512795e+01
4.500000e-07	-5.013472e-06	-1.282281e-09	-3.558407e+01	-8.486020e+01
4.600000e-07	-4.995449e-06	-1.260587e-09	-3.545615e+01	-8.460152e+01
4.700000e-07	-4.977065e-06	-1.272639e-09	-3.532567e+01	-8.435668e+01
4.800000e-07	-4.958198e-06	-1.261131e-09	-3.519175e+01	-8.412877e+01
4.900000e-07	-4.938890e-06	-1.245934e-09	-3.505471e+01	-8.391929e+01
5.000000e-07	-4.919286e-06	-1.259696e-09	-3.491556e+01	-8.372814e+01
5.100000e-07	-4.899486e-06	-1.268836e-09	-3.477503e+01	-8.355380e+01
5.200000e-07	-4.879474e-06	-1.266607e-09	-3.463299e+01	-8.339357e+01
5.300000e-07	-4.859223e-06	-1.263832e-09	-3.448926e+01	-8.324379e+01
5.400000e-07	-4.838696e-06	-1.251852e-09	-3.434356e+01	-8.310021e+01
5.500000e-07	-4.817895e-06	-1.237955e-09	-3.419592e+01	-8.295821e+01
5.600000e-07	-4.796763e-06	-1.246710e-09	-3.404594e+01	-8.281321e+01
5.700000e-07	-4.775223e-06	-1.245797e-09	-3.389305e+01	-8.266092e+01
5.800000e-07	-4.753352e-06	-1.227076e-09	-3.373782e+01	-8.249760e+01
5.900000e-07	-4.731134e-06	-1.221649e-09	-3.358012e+01	-8.232029e+01
6.000000e-07	-4.708490e-06	-1.235670e-09	-3.341940e+01	-8.212698e+01
6.100000e-07	-4.685559e-06	-1.233057e-09	-3.325664e+01	-8.191666e+01
6.200000e-07	-4.662296e-06	-1.224703e-09	-3.309153e+01	-8.168941e+01
6.300000e-07	-4.638764e-06	-1.220996e-09	-3.292451e+01	-8.144631e+01
6.400000e-07	-4.615116e-06	-1.227215e-09	-3.275666e+01	-8.118939e+01
6.500000e-07	-4.591164e-06	-1.232452e-09	-3.258666e+01	-8.092143e+01
6.600000e-07	-4.566945e-06	-1.227743e-09	-3.241476e+01	-8.064584e+01
6.700000e-07	-4.542494e-06	-1.206323e-09	-3.224121e+01	-8.036636e+01
6.800000e-07	-4.517609e-06	-1.199167e-09	-3.206459e+01	-8.008690e+01
6.900000e-07	-4.492217e-06	-1.204882e-09	-3.188437e+01	-7.981124e+01
7.000000e-07	-4.466280e-06	-1.204366e-09	-3.170027e+01	-7.954286e+01
7.100000e-07	-4.439742e-06	-1.194909e-09	-3.151191e+01	-7.928473e+01
7.200000e-07	-4.412832e-06	-1.197662e-09	-3.132091e+01	-7.903912e+01
7.300000e-07	-4.385570e-06	-1.206907e-09	-3.112741e+01	-7.880752e+01
7.400000e-07	-4.357938e-06	-1.208794e-09	-3.093129e+01	-7.859055e+01
7.500000e-07	-4.330093e-06	-1.195869e-09	-3.073366e+01	-7.838798e+01
7.600000e-07	-4.302106e-06	-1.183433e-09	-3.053502e+01	-7.819870e+01
7.700000e-07	-4.273959e-06	-1.181703e-09	-3.033524e+01	-7.802090e+01
7.800000e-07	-4.245578e-06	-1.182458e-09	-3.013380e+01	-7.785210e+01
7.900000e-07	-4.216942e-06	-1.175970e-09	-2.993055e+01	-7.768938e+01
8.000000e-07	-4.187906e-06	-1.169853e-09	-2.972446e+01	-7.752954e+01
8.100000e-07	-4.158490e-06	-1.172921e-09	-2.951567e+01	-7.736925e+01
8.200000e-07	-4.128843e-06	-1.176348e-09	-2.930525e+01	-7.720532e+01
8.300000e-07	-4.098937e-06	-1.169756e-09	-2.909298e+01	-7.703483e+01
8.400000e-07	-4.068744e-06	-1.155737e-09	-2.887868e+01	-7.685526e+01
8.500000e-07	-4.038249e-06	-1.150450e-09	-2.866224e+01	-7.666469e+01
8.600000e-07	-4.007468e-06	-1.152942e-09	-2.844376e+01	-7.646184e+01
8.700000e-07	-3.976516e-06	-1.153626e-09	-2.822408e+01	-7.624611e+01
8.800000e-07	-3.945317e-06	-1.144117e-09	-2.800264e+01	-7.601762e+01
8.900000e-07	-3.913808e-06	-1.136128e-09	-2.777900e+01	-7.577714e+01
9.000000e-07	-3.882103e-06	-1.132491e-09	-2.755396e+01	-7.552602e+01
9.100000e-07	-3.850289e-06	-1.128895e-09	-2.732816e+01	-7.526611e+01
9.200000e-07	-3.818304e-06	-1.120061e-09	-2.710113e+01	-7.499959e+01
9.300000e-07	-3.786087e-06	-1.115094e-09	-2.687247e+01	-7.472883e+01
9.400000e-07	-3.753691e-06	-1.119910e-09	-2.664253e+01	-7.445623e+01
9.500000e-07	-3.721048e-06	-1.127383e-09	-2.641085e+01	-7.418410e+01
9.600000e-07	-3.688106e-06	-1.124731e-09	-2.617703e+01	-7.391447e+01
9.700000e-07	-3.654634e-06	-1.115998e-09	-2.593946e+01	-7.364901e+01
9.800000e-07	-3.620473e-06	-1.106673e-09	-2.569699e+01	-7.338891e+01
9.900000e-07	-3.585801e-06	-1.098568e-09	-2.545090e+01	-7.313485e+01
1.000000e-06	-3.550840e-06	-1.088217e-09	-2.520276e+01	-7.288695e+01
1.010000e-06	-3.515662e-06	-1.081957e-09	-2.495308e+01	-7.264479e+01
1.020000e-06	-3.480179e-06	-1.082797e-09	-2.470123e+01	-7.240746e+01
1.030000e-06	-3.444422e-06	-1.088004e-09	-2.444744e+01	-7.217365e+01
1.040000e-06	-3.408592e-06	-1.087951e-09	-2.419313e+01	-7.194172e+01
1.050000e-06	-3.372708e-06	-1.081770e-09	-2.393843e+01	-7.170984e+01
1.060000e-06	-3.336621e-06	-1.070834e-09	-2.368230e+01	-7.147612e+01
1.070000e-06	-3.300309e-06	-1.060784e-09	-2.342457e+01	-7.123874e+01
1.080000e-06	-3.263870e-06	-1.051560e-09	-2.316593e+01	-7.099605e+01
1.090000e-06	-3.227253e-06	-1.044590e-09	-2.290604e+01	-7.074672e+01
1.100000e-06	-3.190363e-06	-1.044332e-09	-2.264421e+01	-7.048979e+01
1.110000e-06	-3.153218e-06	-1.049715e-09	-2.238056e+01	-7.022473e+01
1.120000e-06	-3.115794e-06	-1.053384e-09	-2.211494e+01	-6.995152e+01
1.130000e-06	-3.078161e-06	-1.045504e-09	-2.184783e+01	-6.967059e+01
1.140000e-06	-3.040365e-06	-1.032675e-09	-2.157957e+01	-6.938280e+01
1.150000e-06	-3.002373e-06	-1.023607e-09	-2.130991e+01	-6.908940e+01
1.160000e-06	-2.964178e-06	-1.021116e-09	-2.103881e+01	-6.879193e+01
1.170000e-06	-2.925734e-06	-1.017465e-09	-2.076595e+01	-6.849213e+01
1.180000e-06	-2.887050e-06	-1.014031e-09	-2.049138e+01	-6.819178e+01
1.190000e-06	-2.848269e-06	-1.013604e-09	-2.021613e+01	-6.789264e+01
1.200000e-06	-2.809305e-06	-1.014789e-09	-1.993957e+01	-6.759630e+01
1.210000e-06	-2.770065e-06	-1.012063e-09	-1.966106e+01	-6.730406e+01
1.220000e-06	-2.730632e-06	-1.003315e-09	-1.938118e+01	-6.701688e+01
1.230000e-06	-2.691043e-06	-9.936960e-10	-1.910019e+01	-6.673528e+01
1.240000e-06	-2.651302e-06	-9.886129e-10	-1.881812e+01	-6.645932e+01
1.250000e-06	-2.611438e-06	-9.898003e-10	-1.853518e+01	-6.618859e+01
1.260000e-06	-2.571529e-06	-9.955077e-10	-1.825191e+01	-6.592222e+01
1.270000e-06	-2.531530e-06	-9.977919e-10	-1.796801e+01	-6.565892e+01
1.280000e-06	-2.491365e-06	-9.945557e-10	-1.768293e+01	-6.539710e+01
1.290000e-06	-2.451074e-06	-9.868427e-10	-1.739696e+01	-6.513491e+01
1.300000e-06	-2.410709e-06	-9.761058e-10	-1.711046e+01	-6.487035e+01
1.310000e-06	-2.370087e-06	-9.627558e-10	-1.682214e+01	-6.460143e+01
1.320000e-06	-2.329232e-06	-9.533255e-10	-1.653217e+01	-6.432625e+01
1.330000e-06	-2.288184e-06	-9.530787e-10	-1.624082e+01	-6.404312e+01
1.340000e-06	-2.246757e-06	-9.606886e-10	-1.594678e+01	-6.375063e+01
1.350000e-06	-2.205026e-06	-9.682205e-10	-1.565059e+01	-6.344777e+01
1.360000e-06	-2.163080e-06	-9.673985e-10	-1.535287e+01	-6.313396e+01
1.370000e-06	-2.120894e-06	-9.559882e-10	-1.505345e+01	-6.280904e+01
1.380000e-06	-2.078321e-06	-9.440384e-10	-1.475128e+01	-6.247333e+01
1.390000e-06	-2.035495e-06	-9.361135e-10	-1.444731e+01	-6.212754e+01
1.400000e-06	-1.992503e-06	-9.305094e-10	-1.414217e+01	-6.177276e+01
1.410000e-06	-1.949306e-06	-9.242608e-10	-1.383557e+01	-6.141034e+01
1.420000e-06	-1.905990e-06	-9.226295e-10	-1.352813e+01	-6.104179e+01
1.430000e-06	-1.862501e-06	-9.262729e-10	-1.321945e+01	-6.066872e+01
1.440000e-06	-1.818863e-06	-9.251774e-10	-1.290973e+01	-6.029268e+01
1.450000e-06	-1.775173e-06	-9.150972e-10	-1.259963e+01	-5.991506e+01
1.460000e-06	-1.731442e-06	-9.010561e-10	-1.228924e+01	-5.953699e+01
1.470000e-06	-1.687574e-06	-8.920320e-10	-1.197788e+01	-5.915927e+01
1.480000e-06	-1.643577e-06	-8.865962e-10	-1.166560e+01	-5.878228e+01
1.490000e-06	-1.599531e-06	-8.834522e-10	-1.135297e+01	-5.840598e+01
1.500000e-06	-1.555435e-06	-8.823446e-10	-1.104000e+01	-5.802983e+01
1.510000e-06	-1.511282e-06	-8.830146e-10	-1.072661e+01	-5.765289e+01
1.520000e-06	-1.467139e-06	-8.803940e-10	-1.041330e+01	-5.727379e+01
1.530000e-06	-1.423001e-06	-8.684125e-10	-1.010002e+01	-5.689085e+01
1.540000e-06	-1.378744e-06	-8.504717e-10	-9.785900e+00	-5.650213e+01
1.550000e-06	-1.334332e-06	-8.363657e-10	-9.470675e+00	-5.610555e+01
1.560000e-06	-1.289845e-06	-8.294245e-10	-9.154918e+00	-5.569898e+01
1.570000e-06	-1.245240e-06	-8.278810e-10	-8.838327e+00	-5.528038e+01
1.580000e-06	-1.200520e-06	-8.262093e-10	-8.520919e+00	-5.484790e+01
1.590000e-06	-1.155729e-06	-8.226242e-10	-8.203004e+00	-5.439994e+01
1.600000e-06	-1.110879e-06	-8.160505e-10	-7.884676e+00	-5.393526e+01
1.610000e-06	-1.065951e-06	-8.041813e-10	-7.565788e+00	-5.345303e+01
1.620000e-06	-1.020931e-06	-7.865091e-10	-7.246250e+00	-5.295287e+01
1.630000e-06	-9.759134e-07	-7.698162e-10	-6.926731e+00	-5.243480e+01
1.640000e-06	-9.307774e-07	-7.585255e-10	-6.606370e+00	-5.189928e+01
1.650000e-06	-8.854809e-07	-7.554148e-10	-6.284869e+00	-5.134712e+01
1.660000e-06	-8.401548e-07	-7.538396e-10	-5.963158e+00	-5.077942e+01
1.670000e-06	-7.948159e-07	-7.508837e-10	-5.641357e+00	-5.019744e+01
1.680000e-06	-7.494224e-07	-7.461391e-10	-5.319168e+00	-4.960257e+01
1.690000e-06	-7.040361e-07	-7.339909e-10	-4.997030e+00	-4.899615e+01
1.700000e-06	-6.586068e-07	-7.148892e-10	-4.674587e+00	-4.837936e+01
1.710000e-06	-6.130613e-07	-6.963809e-10	-4.351319e+00	-4.775315e+01
1.720000e-06	-5.674733e-07	-6.858983e-10	-4.027750e+00	-4.711814e+01
1.730000e-06	-5.218271e-07	-6.816382e-10	-3.703767e+00	-4.647451e+01
1.740000e-06	-4.761239e-07	-6.778073e-10	-3.379380e+00	-4.582199e+01
1.750000e-06	-4.304124e-07	-6.712139e-10	-3.054934e+00	-4.515980e+01
1.760000e-06	-3.846195e-07	-6.613437e-10	-2.729910e+00	-4.448668e+01
1.770000e-06	-3.387656e-07	-6.464992e-10	-2.404453e+00	-4.380088e+01
1.780000e-06	-2.928974e-07	-6.296996e-10	-2.078895e+00	-4.310028e+01
1.790000e-06	-2.469851e-07	-6.131620e-10	-1.753024e+00	-4.238240e+01
1.800000e-06	-2.011113e-07	-6.001803e-10	-1.427426e+00	-4.164451e+01
1.810000e-06	-1.552713e-07	-5.904730e-10	-1.102067e+00	-4.088379e+01
1.820000e-06	-1.094280e-07	-5.816062e-10	-7.766857e-01	-4.009738e+01
1.830000e-06	-6.358759e-08	-5.715042e-10	-4.513250e-01	-3.928254e+01
1.840000e-06	-1.765086e-08	-5.574841e-10	-1.252803e-01	-3.843672e+01
1.850000e-06	2.828358e-08	-5.424291e-10	2.007481e-01	-3.755771e+01
1.860000e-06	7.411600e-08	-5.284272e-10	5.260524e-01	-3.664369e+01
1.870000e-06	1.199526e-07	-5.149268e-10	8.513864e-01	-3.569331e+01
1.880000e-06	1.658008e-07	-5.017062e-10	1.176803e+00	-3.470570e+01
1.890000e-06	2.116779e-07	-4.886730e-10	1.502424e+00	-3.368052e+01
1.900000e-06	2.575425e-07	-4.741412e-10	1.827957e+00	-3.261793e+01
1.910000e-06	3.033310e-07	-4.559850e-10	2.152949e+00	-3.151854e+01
1.920000e-06	3.491025e-07	-4.349832e-10	2.477822e+00	-3.038339e+01
1.930000e-06	3.948831e-07	-4.139492e-10	2.802758e+00	-2.921385e+01
1.940000e-06	4.406914e-07	-3.966288e-10	3.127891e+00	-2.801153e+01
1.950000e-06	4.864997e-07	-3.805687e-10	3.453024e+00	-2.677823e+01
1.960000e-06	5.322422e-07	-3.657372e-10	3.777690e+00	-2.551577e+01
1.970000e-06	5.779089e-07	-3.503324e-10	4.101818e+00	-2.422598e+01
1.980000e-06	6.234317e-07	-3.304149e-10	4.424925e+00	-2.291055e+01
1.990000e-06	6.688889e-07	-3.069363e-10	4.747566e+00	-2.157102e+01
2.000000e-06	7.143634e-07	-2.831494e-10	5.070330e+00	-2.020867e+01
2.010000e-06	7.597241e-07	-2.610392e-10	5.392286e+00	-1.882454e+01
2.020000e-06	8.049997e-07	-2.415119e-10	5.713638e+00	-1.741937e+01
2.030000e-06	8.502665e-07	-2.220030e-10	6.034928e+00	-1.599365e+01
2.040000e-06	8.954616e-07	-2.007745e-10	6.355708e+00	-1.454761e+01
2.050000e-06	9.406212e-07	-1.791567e-10	6.676238e+00	-1.308126e+01
2.060000e-06	9.857393e-07	-1.559386e-10	6.996472e+00	-1.159449e+01
2.070000e-06	1.030785e-06	-1.321525e-10	7.316196e+00	-1.008708e+01
2.080000e-06	1.075738e-06	-1.065190e-10	7.635258e+00	-8.558796e+00
2.090000e-06	1.120535e-06	-7.962266e-11	7.953213e+00	-7.009458e+00
2.100000e-06	1.165230e-06	-5.467634e-11	8.270439e+00	-5.438996e+00
2.110000e-06	1.209786e-06	-3.024319e-11	8.586688e+00	-3.847512e+00
2.120000e-06	1.254218e-06	-5.071596e-12	8.902048e+00	-2.235326e+00
2.130000e-06	1.298648e-06	1.733429e-11	9.217399e+00	-6.030108e-01
2.140000e-06	1.343049e-06	3.708432e-11	9.532543e+00	1.048590e+00
2.150000e-06	1.387407e-06	6.011044e-11	9.847385e+00	2.718358e+00
2.160000e-06	1.431711e-06	8.751511e-11	1.016184e+01	4.404910e+00
2.170000e-06	1.475976e-06	1.169563e-10	1.047602e+01	6.106622e+00
2.180000e-06	1.520224e-06	1.436113e-10	1.079008e+01	7.821660e+00
2.190000e-06	1.564348e-06	1.690385e-10	1.110325e+01	9.548025e+00
2.200000e-06	1.608349e-06	1.969199e-10	1.141556e+01	1.128360e+01
2.210000e-06	1.652364e-06	2.239004e-10	1.172797e+01	1.302619e+01
2.220000e-06	1.696334e-06	2.501656e-10	1.204005e+01	1.477357e+01
2.230000e-06	1.740221e-06	2.764742e-10	1.235155e+01	1.652354e+01
2.240000e-06	1.784093e-06	3.068489e-10	1.266294e+01	1.827393e+01
2.250000e-06	1.827827e-06	3.394554e-10	1.297335e+01	2.002265e+01
2.260000e-06	1.871363e-06	3.704044e-10	1.328235e+01	2.176770e+01
2.270000e-06	1.914735e-06	3.985001e-10	1.359020e+01	2.350714e+01
2.280000e-06	1.957945e-06	4.247056e-10	1.389688e+01	2.523915e+01
2.290000e-06	2.000995e-06	4.517393e-10	1.420244e+01	2.696194e+01
2.300000e-06	2.043835e-06	4.778186e-10	1.450651e+01	2.867381e+01
2.310000e-06	2.086515e-06	5.010269e-10	1.480944e+01	3.037306e+01
2.320000e-06	2.129124e-06	5.257275e-10	1.511186e+01	3.205801e+01
2.330000e-06	2.171509e-06	5.542977e-10	1.541270e+01	3.372695e+01
2.340000e-06	2.213507e-06	5.809557e-10	1.571078e+01	3.537814e+01
2.350000e-06	2.255091e-06	6.037555e-10	1.600593e+01	3.700982e+01
2.360000e-06	2.296281e-06	6.258890e-10	1.629829e+01	3.862016e+01
2.370000e-06	2.337243e-06	6.515798e-10	1.658902e+01	4.020731e+01
2.380000e-06	2.378027e-06	6.788069e-10	1.687850e+01	4.176940e+01
2.390000e-06	2.418518e-06	7.022411e-10	1.716589e+01	4.330457e+01
2.400000e-06	2.458788e-06	7.233848e-10	1.745171e+01	4.481102e+01
2.410000e-06	2.498966e-06	7.457585e-10	1.773689e+01	4.628702e+01
2.420000e-06	2.539075e-06	7.710185e-10	1.802156e+01	4.773100e+01
2.430000e-06	2.579060e-06	7.954744e-10	1.830537e+01	4.914154e+01
2.440000e-06	2.618855e-06	8.169564e-10	1.858782e+01	5.051746e+01
2.450000e-06	2.658547e-06	8.369838e-10	1.886954e+01	5.185783e+01
2.460000e-06	2.698138e-06	8.567581e-10	1.915055e+01	5.316200e+01
2.470000e-06	2.737561e-06	8.744183e-10	1.943036e+01	5.442962e+01
2.480000e-06	2.776828e-06	8.891198e-10	1.970907e+01	5.566063e+01
2.490000e-06	2.815922e-06	9.041208e-10	1.998654e+01	5.685527e+01
2.500000e-06	2.854821e-06	9.221755e-10	2.026263e+01	5.801405e+01
2.510000e-06	2.893498e-06	9.429756e-10	2.053715e+01	5.913770e+01
2.520000e-06	2.931992e-06	9.649786e-10	2.081037e+01	6.022711e+01
2.530000e-06	2.970256e-06	9.864861e-10	2.108196e+01	6.128331e+01
2.540000e-06	3.008227e-06	1.004395e-09	2.135146e+01	6.230740e+01
2.550000e-06	3.045985e-06	1.017765e-09	2.161946e+01	6.330046e+01
2.560000e-06	3.083602e-06	1.026583e-09	2.188645e+01	6.426350e+01
2.570000e-06	3.121077e-06	1.034966e-09	2.215243e+01	6.519743e+01
2.580000e-06	3.158319e-06	1.046321e-09	2.241677e+01	6.610297e+01
2.590000e-06	3.195334e-06	1.061252e-09	2.267949e+01	6.698068e+01
2.600000e-06	3.232179e-06	1.078115e-09	2.294100e+01	6.783088e+01
2.610000e-06	3.268761e-06	1.093958e-09	2.320065e+01	6.865369e+01
2.620000e-06	3.305165e-06	1.107961e-09	2.345904e+01	6.944900e+01
2.630000e-06	3.341468e-06	1.120688e-09	2.371671e+01	7.021659e+01
2.640000e-06	3.377562e-06	1.127868e-09	2.397289e+01	7.095606e+01
2.650000e-06	3.413465e-06	1.129883e-09	2.422772e+01	7.166696e+01
2.660000e-06	3.449232e-06	1.132704e-09	2.448158e+01	7.234886e+01
2.670000e-06	3.484844e-06	1.139732e-09	2.473434e+01	7.300136e+01
2.680000e-06	3.520203e-06	1.149138e-09	2.498531e+01	7.362419e+01
2.690000e-06	3.555367e-06	1.157395e-09	2.523489e+01	7.421728e+01
2.700000e-06	3.590325e-06	1.166625e-09	2.548301e+01	7.478079e+01
2.710000e-06	3.624716e-06	1.178804e-09	2.572711e+01	7.531514e+01
2.720000e-06	3.658519e-06	1.188837e-09	2.596704e+01	7.582107e+01
2.730000e-06	3.691985e-06	1.194950e-09	2.620456e+01	7.629959e+01
2.740000e-06	3.725049e-06	1.198513e-09	2.643924e+01	7.675200e+01
2.750000e-06	3.757781e-06	1.201499e-09	2.667156e+01	7.717983e+01
2.760000e-06	3.790197e-06	1.205992e-09	2.690164e+01	7.758484e+01
2.770000e-06	3.822257e-06	1.210814e-09	2.712919e+01	7.796887e+01
2.780000e-06	3.854120e-06	1.216923e-09	2.735535e+01	7.833384e+01
2.790000e-06	3.885882e-06	1.224325e-09	2.758078e+01	7.868163e+01
2.800000e-06	3.917491e-06	1.230135e-09	2.780513e+01	7.901402e+01
2.810000e-06	3.948863e-06	1.233031e-09	2.802780e+01	7.933259e+01
2.820000e-06	3.980037e-06	1.233894e-09	2.824907e+01	7.963867e+01
2.830000e-06	4.010975e-06	1.235394e-09	2.846866e+01	7.993326e+01
2.840000e-06	4.041620e-06	1.240272e-09	2.868617e+01	8.021704e+01
2.850000e-06	4.071921e-06	1.245700e-09	2.890123e+01	8.049032e+01
2.860000e-06	4.101876e-06	1.249598e-09	2.911385e+01	8.075305e+01
2.870000e-06	4.131565e-06	1.254230e-09	2.932456e+01	8.100485e+01
2.880000e-06	4.161086e-06	1.259659e-09	2.953409e+01	8.124508e+01
2.890000e-06	4.190332e-06	1.261189e-09	2.974168e+01	8.147287e+01
2.900000e-06	4.219223e-06	1.260157e-09	2.994674e+01	8.168725e+01
