# Temperatura_=_-1.9
# Concentracion g/m^3_=_4090.0
# C_Vs_to_Am_M_A/Vsm_=_65563218390.804596
# pendiente_HvsI_1/m_=_3716.3
# ordenada_HvsI_A/m_=_1297.0
# frecuencia_Hz_=_135068.5920339399

Tiempo_(s)	Campo_(V.s)	Magnetizacion_(V.s)	Campo_(kA/m)	Magnetizacion_(A/m)
0.000000e+00	-5.414611e-06	-2.027236e-09	-3.840347e+01	-1.342302e+02
1.000000e-08	-5.414927e-06	-2.026683e-09	-3.840572e+01	-1.341158e+02
2.000000e-08	-5.414991e-06	-2.024044e-09	-3.840617e+01	-1.339779e+02
3.000000e-08	-5.414701e-06	-2.020139e-09	-3.840411e+01	-1.338168e+02
4.000000e-08	-5.413968e-06	-2.017301e-09	-3.839891e+01	-1.336344e+02
5.000000e-08	-5.412725e-06	-2.019158e-09	-3.839010e+01	-1.334334e+02
6.000000e-08	-5.410862e-06	-2.027356e-09	-3.837689e+01	-1.332178e+02
7.000000e-08	-5.408406e-06	-2.044270e-09	-3.835946e+01	-1.329927e+02
8.000000e-08	-5.405399e-06	-2.042082e-09	-3.833814e+01	-1.327640e+02
9.000000e-08	-5.401801e-06	-1.979388e-09	-3.831262e+01	-1.325383e+02
1.000000e-07	-5.397790e-06	-1.957371e-09	-3.828417e+01	-1.323224e+02
1.100000e-07	-5.393560e-06	-2.049369e-09	-3.825417e+01	-1.321236e+02
1.200000e-07	-5.389114e-06	-2.105819e-09	-3.822264e+01	-1.319486e+02
1.300000e-07	-5.384448e-06	-1.986741e-09	-3.818954e+01	-1.318040e+02
1.400000e-07	-5.379501e-06	-1.933119e-09	-3.815446e+01	-1.316955e+02
1.500000e-07	-5.374246e-06	-2.054822e-09	-3.811718e+01	-1.316276e+02
1.600000e-07	-5.368587e-06	-2.152673e-09	-3.807704e+01	-1.316039e+02
1.700000e-07	-5.362427e-06	-1.989989e-09	-3.803335e+01	-1.316262e+02
1.800000e-07	-5.355878e-06	-1.893585e-09	-3.798690e+01	-1.316951e+02
1.900000e-07	-5.348905e-06	-2.012543e-09	-3.793745e+01	-1.318092e+02
2.000000e-07	-5.341494e-06	-2.118592e-09	-3.788489e+01	-1.319657e+02
2.100000e-07	-5.333841e-06	-2.017630e-09	-3.783061e+01	-1.321604e+02
2.200000e-07	-5.326083e-06	-1.989937e-09	-3.777558e+01	-1.323875e+02
2.300000e-07	-5.318159e-06	-2.103659e-09	-3.771939e+01	-1.326400e+02
2.400000e-07	-5.309806e-06	-2.114192e-09	-3.766014e+01	-1.329102e+02
2.500000e-07	-5.300817e-06	-2.031449e-09	-3.759638e+01	-1.331896e+02
2.600000e-07	-5.291288e-06	-2.066021e-09	-3.752880e+01	-1.334694e+02
2.700000e-07	-5.281117e-06	-2.161425e-09	-3.745666e+01	-1.337410e+02
2.800000e-07	-5.270241e-06	-2.090216e-09	-3.737952e+01	-1.339959e+02
2.900000e-07	-5.259003e-06	-2.035242e-09	-3.729982e+01	-1.342264e+02
3.000000e-07	-5.247461e-06	-2.118782e-09	-3.721795e+01	-1.344258e+02
3.100000e-07	-5.235511e-06	-2.149891e-09	-3.713320e+01	-1.345883e+02
3.200000e-07	-5.223173e-06	-2.034460e-09	-3.704569e+01	-1.347098e+02
3.300000e-07	-5.210452e-06	-2.052489e-09	-3.695546e+01	-1.347874e+02
3.400000e-07	-5.197325e-06	-2.131094e-09	-3.686236e+01	-1.348198e+02
3.500000e-07	-5.183806e-06	-2.109409e-09	-3.676647e+01	-1.348071e+02
3.600000e-07	-5.169860e-06	-2.048717e-09	-3.666756e+01	-1.347510e+02
3.700000e-07	-5.155503e-06	-2.102300e-09	-3.656573e+01	-1.346542e+02
3.800000e-07	-5.140682e-06	-2.090457e-09	-3.646061e+01	-1.345206e+02
3.900000e-07	-5.125400e-06	-2.050909e-09	-3.635223e+01	-1.343550e+02
4.000000e-07	-5.109589e-06	-2.062474e-09	-3.624009e+01	-1.341627e+02
4.100000e-07	-5.093195e-06	-2.080430e-09	-3.612381e+01	-1.339492e+02
4.200000e-07	-5.076446e-06	-2.030567e-09	-3.600501e+01	-1.337202e+02
4.300000e-07	-5.059443e-06	-2.050554e-09	-3.588442e+01	-1.334810e+02
4.400000e-07	-5.042087e-06	-2.095967e-09	-3.576132e+01	-1.332364e+02
4.500000e-07	-5.024484e-06	-2.065393e-09	-3.563648e+01	-1.329907e+02
4.600000e-07	-5.006656e-06	-2.021033e-09	-3.551003e+01	-1.327473e+02
4.700000e-07	-4.988368e-06	-2.042901e-09	-3.538032e+01	-1.325085e+02
4.800000e-07	-4.969612e-06	-2.051970e-09	-3.524729e+01	-1.322759e+02
4.900000e-07	-4.950480e-06	-2.022938e-09	-3.511160e+01	-1.320498e+02
5.000000e-07	-4.931072e-06	-2.006700e-09	-3.497394e+01	-1.318298e+02
5.100000e-07	-4.911441e-06	-2.006357e-09	-3.483471e+01	-1.316146e+02
5.200000e-07	-4.891571e-06	-2.024347e-09	-3.469378e+01	-1.314023e+02
5.300000e-07	-4.871426e-06	-2.034749e-09	-3.455090e+01	-1.311905e+02
5.400000e-07	-4.850939e-06	-2.015476e-09	-3.440559e+01	-1.309764e+02
5.500000e-07	-4.830069e-06	-1.993127e-09	-3.425757e+01	-1.307572e+02
5.600000e-07	-4.808875e-06	-2.017007e-09	-3.410725e+01	-1.305303e+02
5.700000e-07	-4.787383e-06	-2.017829e-09	-3.395482e+01	-1.302931e+02
5.800000e-07	-4.765561e-06	-1.989097e-09	-3.380004e+01	-1.300437e+02
5.900000e-07	-4.743440e-06	-1.967571e-09	-3.364315e+01	-1.297808e+02
6.000000e-07	-4.721040e-06	-1.975805e-09	-3.348428e+01	-1.295037e+02
6.100000e-07	-4.698309e-06	-1.980981e-09	-3.332306e+01	-1.292123e+02
6.200000e-07	-4.675185e-06	-1.986881e-09	-3.315905e+01	-1.289073e+02
6.300000e-07	-4.651708e-06	-1.965806e-09	-3.299254e+01	-1.285902e+02
6.400000e-07	-4.628062e-06	-1.957042e-09	-3.282482e+01	-1.282628e+02
6.500000e-07	-4.604233e-06	-1.972759e-09	-3.265581e+01	-1.279277e+02
6.600000e-07	-4.580115e-06	-1.981593e-09	-3.248476e+01	-1.275876e+02
6.700000e-07	-4.555685e-06	-1.949667e-09	-3.231149e+01	-1.272454e+02
6.800000e-07	-4.530845e-06	-1.936683e-09	-3.213531e+01	-1.269040e+02
6.900000e-07	-4.505444e-06	-1.945221e-09	-3.195515e+01	-1.265663e+02
7.000000e-07	-4.479539e-06	-1.950252e-09	-3.177142e+01	-1.262347e+02
7.100000e-07	-4.453131e-06	-1.935640e-09	-3.158412e+01	-1.259112e+02
7.200000e-07	-4.426263e-06	-1.927350e-09	-3.139355e+01	-1.255972e+02
7.300000e-07	-4.399043e-06	-1.931087e-09	-3.120049e+01	-1.252936e+02
7.400000e-07	-4.371544e-06	-1.943766e-09	-3.100545e+01	-1.250007e+02
7.500000e-07	-4.343906e-06	-1.938059e-09	-3.080943e+01	-1.247179e+02
7.600000e-07	-4.316106e-06	-1.921375e-09	-3.061226e+01	-1.244441e+02
7.700000e-07	-4.288049e-06	-1.918207e-09	-3.041326e+01	-1.241778e+02
7.800000e-07	-4.259714e-06	-1.924555e-09	-3.021229e+01	-1.239169e+02
7.900000e-07	-4.231141e-06	-1.917716e-09	-3.000963e+01	-1.236590e+02
8.000000e-07	-4.202339e-06	-1.901083e-09	-2.980536e+01	-1.234016e+02
8.100000e-07	-4.173188e-06	-1.894361e-09	-2.959860e+01	-1.231422e+02
8.200000e-07	-4.143679e-06	-1.898096e-09	-2.938931e+01	-1.228784e+02
8.300000e-07	-4.113917e-06	-1.902617e-09	-2.917822e+01	-1.226078e+02
8.400000e-07	-4.083818e-06	-1.892680e-09	-2.896474e+01	-1.223288e+02
8.500000e-07	-4.053363e-06	-1.881346e-09	-2.874873e+01	-1.220400e+02
8.600000e-07	-4.022589e-06	-1.880003e-09	-2.853047e+01	-1.217406e+02
8.700000e-07	-3.991632e-06	-1.885352e-09	-2.831091e+01	-1.214302e+02
8.800000e-07	-3.960540e-06	-1.874143e-09	-2.809038e+01	-1.211093e+02
8.900000e-07	-3.929203e-06	-1.858730e-09	-2.786812e+01	-1.207785e+02
9.000000e-07	-3.897646e-06	-1.850345e-09	-2.764430e+01	-1.204392e+02
9.100000e-07	-3.865918e-06	-1.852465e-09	-2.741927e+01	-1.200931e+02
9.200000e-07	-3.833976e-06	-1.846553e-09	-2.719272e+01	-1.197419e+02
9.300000e-07	-3.801805e-06	-1.836825e-09	-2.696454e+01	-1.193878e+02
9.400000e-07	-3.769302e-06	-1.832044e-09	-2.673401e+01	-1.190328e+02
9.500000e-07	-3.736386e-06	-1.840020e-09	-2.650056e+01	-1.186789e+02
9.600000e-07	-3.703072e-06	-1.842063e-09	-2.626427e+01	-1.183277e+02
9.700000e-07	-3.669326e-06	-1.835739e-09	-2.602493e+01	-1.179807e+02
9.800000e-07	-3.635145e-06	-1.822067e-09	-2.578250e+01	-1.176389e+02
9.900000e-07	-3.600564e-06	-1.814609e-09	-2.553723e+01	-1.173026e+02
1.000000e-06	-3.565657e-06	-1.805081e-09	-2.528965e+01	-1.169721e+02
1.010000e-06	-3.530494e-06	-1.792137e-09	-2.504025e+01	-1.166468e+02
1.020000e-06	-3.495159e-06	-1.780769e-09	-2.478964e+01	-1.163259e+02
1.030000e-06	-3.459681e-06	-1.781546e-09	-2.453801e+01	-1.160080e+02
1.040000e-06	-3.424013e-06	-1.788355e-09	-2.428503e+01	-1.156915e+02
1.050000e-06	-3.388164e-06	-1.789006e-09	-2.403077e+01	-1.153746e+02
1.060000e-06	-3.352134e-06	-1.779509e-09	-2.377522e+01	-1.150552e+02
1.070000e-06	-3.315915e-06	-1.767201e-09	-2.351834e+01	-1.147314e+02
1.080000e-06	-3.279503e-06	-1.754311e-09	-2.326009e+01	-1.144013e+02
1.090000e-06	-3.242842e-06	-1.739106e-09	-2.300006e+01	-1.140631e+02
1.100000e-06	-3.205883e-06	-1.724805e-09	-2.273793e+01	-1.137155e+02
1.110000e-06	-3.168696e-06	-1.717831e-09	-2.247418e+01	-1.133573e+02
1.120000e-06	-3.131355e-06	-1.720387e-09	-2.220934e+01	-1.129878e+02
1.130000e-06	-3.093835e-06	-1.722948e-09	-2.194322e+01	-1.126067e+02
1.140000e-06	-3.056066e-06	-1.719709e-09	-2.167534e+01	-1.122141e+02
1.150000e-06	-3.018023e-06	-1.711490e-09	-2.140552e+01	-1.118105e+02
1.160000e-06	-2.979799e-06	-1.703848e-09	-2.113441e+01	-1.113967e+02
1.170000e-06	-2.941401e-06	-1.691947e-09	-2.086207e+01	-1.109737e+02
1.180000e-06	-2.902718e-06	-1.676990e-09	-2.058771e+01	-1.105428e+02
1.190000e-06	-2.863813e-06	-1.661734e-09	-2.031178e+01	-1.101053e+02
1.200000e-06	-2.824761e-06	-1.656528e-09	-2.003480e+01	-1.096626e+02
1.210000e-06	-2.785504e-06	-1.659162e-09	-1.975637e+01	-1.092160e+02
1.220000e-06	-2.746092e-06	-1.661728e-09	-1.947683e+01	-1.087665e+02
1.230000e-06	-2.706585e-06	-1.656380e-09	-1.919662e+01	-1.083151e+02
1.240000e-06	-2.666990e-06	-1.649228e-09	-1.891580e+01	-1.078622e+02
1.250000e-06	-2.627242e-06	-1.641331e-09	-1.863388e+01	-1.074083e+02
1.260000e-06	-2.587328e-06	-1.631863e-09	-1.835079e+01	-1.069531e+02
1.270000e-06	-2.547342e-06	-1.616912e-09	-1.806718e+01	-1.064965e+02
1.280000e-06	-2.507271e-06	-1.605528e-09	-1.778298e+01	-1.060377e+02
1.290000e-06	-2.467113e-06	-1.602401e-09	-1.749816e+01	-1.055759e+02
1.300000e-06	-2.426834e-06	-1.601741e-09	-1.721248e+01	-1.051100e+02
1.310000e-06	-2.386303e-06	-1.594208e-09	-1.692500e+01	-1.046388e+02
1.320000e-06	-2.345420e-06	-1.585664e-09	-1.663504e+01	-1.041612e+02
1.330000e-06	-2.304268e-06	-1.583525e-09	-1.634317e+01	-1.036759e+02
1.340000e-06	-2.262808e-06	-1.582816e-09	-1.604911e+01	-1.031820e+02
1.350000e-06	-2.221026e-06	-1.576534e-09	-1.575277e+01	-1.026785e+02
1.360000e-06	-2.179019e-06	-1.565990e-09	-1.545483e+01	-1.021649e+02
1.370000e-06	-2.136691e-06	-1.555310e-09	-1.515462e+01	-1.016408e+02
1.380000e-06	-2.094090e-06	-1.546770e-09	-1.485246e+01	-1.011060e+02
1.390000e-06	-2.051307e-06	-1.537654e-09	-1.454903e+01	-1.005608e+02
1.400000e-06	-2.008320e-06	-1.527468e-09	-1.424414e+01	-1.000057e+02
1.410000e-06	-1.965145e-06	-1.519675e-09	-1.393792e+01	-9.944137e+01
1.420000e-06	-1.921790e-06	-1.515406e-09	-1.363042e+01	-9.886871e+01
1.430000e-06	-1.878308e-06	-1.511626e-09	-1.332202e+01	-9.828874e+01
1.440000e-06	-1.834792e-06	-1.504665e-09	-1.301338e+01	-9.770258e+01
1.450000e-06	-1.791190e-06	-1.495856e-09	-1.270413e+01	-9.711130e+01
1.460000e-06	-1.747465e-06	-1.485730e-09	-1.239400e+01	-9.651593e+01
1.470000e-06	-1.703643e-06	-1.474189e-09	-1.208320e+01	-9.591736e+01
1.480000e-06	-1.659784e-06	-1.459564e-09	-1.177212e+01	-9.531629e+01
1.490000e-06	-1.615909e-06	-1.446581e-09	-1.146094e+01	-9.471319e+01
1.500000e-06	-1.571965e-06	-1.439242e-09	-1.114926e+01	-9.410827e+01
1.510000e-06	-1.527847e-06	-1.436075e-09	-1.083635e+01	-9.350148e+01
1.520000e-06	-1.483664e-06	-1.430624e-09	-1.052298e+01	-9.289249e+01
1.530000e-06	-1.439498e-06	-1.421407e-09	-1.020973e+01	-9.228072e+01
1.540000e-06	-1.395212e-06	-1.410225e-09	-9.895627e+00	-9.166537e+01
1.550000e-06	-1.350780e-06	-1.397836e-09	-9.580495e+00	-9.104545e+01
1.560000e-06	-1.306226e-06	-1.383361e-09	-9.264489e+00	-9.041986e+01
1.570000e-06	-1.261643e-06	-1.371043e-09	-8.948283e+00	-8.978739e+01
1.580000e-06	-1.216970e-06	-1.362441e-09	-8.631436e+00	-8.914682e+01
1.590000e-06	-1.172150e-06	-1.355306e-09	-8.313551e+00	-8.849695e+01
1.600000e-06	-1.127224e-06	-1.345224e-09	-7.994907e+00	-8.783666e+01
1.610000e-06	-1.082233e-06	-1.333942e-09	-7.675807e+00	-8.716492e+01
1.620000e-06	-1.037248e-06	-1.322200e-09	-7.356751e+00	-8.648084e+01
1.630000e-06	-9.921571e-07	-1.310961e-09	-7.036937e+00	-8.578367e+01
1.640000e-06	-9.469166e-07	-1.297992e-09	-6.716066e+00	-8.507282e+01
1.650000e-06	-9.016045e-07	-1.283498e-09	-6.394687e+00	-8.434781e+01
1.660000e-06	-8.562749e-07	-1.268509e-09	-6.073185e+00	-8.360830e+01
1.670000e-06	-8.108630e-07	-1.256153e-09	-5.751097e+00	-8.285401e+01
1.680000e-06	-7.653879e-07	-1.247382e-09	-5.428562e+00	-8.208470e+01
1.690000e-06	-7.198586e-07	-1.236926e-09	-5.105643e+00	-8.130014e+01
1.700000e-06	-6.742378e-07	-1.224904e-09	-4.782074e+00	-8.050004e+01
1.710000e-06	-6.285884e-07	-1.213069e-09	-4.458303e+00	-7.968404e+01
1.720000e-06	-5.829036e-07	-1.200411e-09	-4.134281e+00	-7.885165e+01
1.730000e-06	-5.372165e-07	-1.185404e-09	-3.810243e+00	-7.800224e+01
1.740000e-06	-4.915098e-07	-1.168506e-09	-3.486065e+00	-7.713500e+01
1.750000e-06	-4.457429e-07	-1.152644e-09	-3.161460e+00	-7.624898e+01
1.760000e-06	-3.999818e-07	-1.140303e-09	-2.836897e+00	-7.534304e+01
1.770000e-06	-3.542135e-07	-1.126351e-09	-2.512282e+00	-7.441593e+01
1.780000e-06	-3.083715e-07	-1.109441e-09	-2.187145e+00	-7.346626e+01
1.790000e-06	-2.624675e-07	-1.093991e-09	-1.861567e+00	-7.249260e+01
1.800000e-06	-2.165931e-07	-1.080984e-09	-1.536200e+00	-7.149347e+01
1.810000e-06	-1.707495e-07	-1.063628e-09	-1.211052e+00	-7.046742e+01
1.820000e-06	-1.249189e-07	-1.041086e-09	-8.859951e-01	-6.941309e+01
1.830000e-06	-7.907982e-08	-1.020469e-09	-5.608787e-01	-6.832922e+01
1.840000e-06	-3.322260e-08	-1.005687e-09	-2.356334e-01	-6.721475e+01
1.850000e-06	1.259840e-08	-9.921753e-10	8.935499e-02	-6.606877e+01
1.860000e-06	5.845785e-08	-9.756397e-10	4.146160e-01	-6.489063e+01
1.870000e-06	1.043120e-07	-9.582321e-10	7.398397e-01	-6.367988e+01
1.880000e-06	1.501344e-07	-9.438734e-10	1.064838e+00	-6.243633e+01
1.890000e-06	1.960474e-07	-9.273317e-10	1.390479e+00	-6.115997e+01
1.900000e-06	2.420162e-07	-9.019323e-10	1.716515e+00	-5.985100e+01
1.910000e-06	2.879363e-07	-8.731763e-10	2.042207e+00	-5.850974e+01
1.920000e-06	3.337311e-07	-8.505506e-10	2.367009e+00	-5.713664e+01
1.930000e-06	3.794936e-07	-8.321926e-10	2.691583e+00	-5.573216e+01
1.940000e-06	4.253183e-07	-8.109015e-10	3.016597e+00	-5.429677e+01
1.950000e-06	4.711018e-07	-7.869213e-10	3.341320e+00	-5.283088e+01
1.960000e-06	5.168712e-07	-7.654283e-10	3.665942e+00	-5.133477e+01
1.970000e-06	5.626501e-07	-7.466215e-10	3.990632e+00	-4.980860e+01
1.980000e-06	6.083128e-07	-7.243253e-10	4.314497e+00	-4.825229e+01
1.990000e-06	6.538695e-07	-6.969266e-10	4.637611e+00	-4.666561e+01
2.000000e-06	6.994435e-07	-6.702991e-10	4.960848e+00	-4.504807e+01
2.010000e-06	7.449900e-07	-6.463148e-10	5.283889e+00	-4.339900e+01
2.020000e-06	7.903992e-07	-6.215489e-10	5.605957e+00	-4.171753e+01
2.030000e-06	8.357480e-07	-5.941007e-10	5.927596e+00	-4.000263e+01
2.040000e-06	8.810945e-07	-5.669391e-10	6.249219e+00	-3.825317e+01
2.050000e-06	9.263842e-07	-5.417817e-10	6.570439e+00	-3.646795e+01
2.060000e-06	9.716146e-07	-5.169684e-10	6.891239e+00	-3.464576e+01
2.070000e-06	1.016871e-06	-4.892880e-10	7.212219e+00	-3.278545e+01
2.080000e-06	1.062016e-06	-4.588304e-10	7.532419e+00	-3.088597e+01
2.090000e-06	1.107023e-06	-4.275893e-10	7.851630e+00	-2.894646e+01
2.100000e-06	1.151901e-06	-3.961534e-10	8.169931e+00	-2.696622e+01
2.110000e-06	1.196576e-06	-3.629018e-10	8.486790e+00	-2.494485e+01
2.120000e-06	1.241210e-06	-3.285105e-10	8.803361e+00	-2.288217e+01
2.130000e-06	1.285778e-06	-2.987240e-10	9.119463e+00	-2.077832e+01
2.140000e-06	1.330186e-06	-2.724565e-10	9.434431e+00	-1.863371e+01
2.150000e-06	1.374464e-06	-2.424637e-10	9.748476e+00	-1.644902e+01
2.160000e-06	1.418655e-06	-2.058300e-10	1.006190e+01	-1.422520e+01
2.170000e-06	1.462810e-06	-1.689011e-10	1.037508e+01	-1.196342e+01
2.180000e-06	1.506889e-06	-1.329506e-10	1.068770e+01	-9.665051e+00
2.190000e-06	1.550868e-06	-9.570830e-11	1.099963e+01	-7.331602e+00
2.200000e-06	1.594760e-06	-5.703646e-11	1.131094e+01	-4.964711e+00
2.210000e-06	1.638591e-06	-2.104305e-11	1.162181e+01	-2.566097e+00
2.220000e-06	1.682385e-06	1.062137e-11	1.193242e+01	-1.375261e-01
2.230000e-06	1.726116e-06	4.466741e-11	1.224259e+01	2.319207e+00
2.240000e-06	1.769811e-06	8.539464e-11	1.255250e+01	4.802297e+00
2.250000e-06	1.813451e-06	1.282104e-10	1.286201e+01	7.309930e+00
2.260000e-06	1.857002e-06	1.689666e-10	1.317091e+01	9.840285e+00
2.270000e-06	1.900505e-06	2.088729e-10	1.347945e+01	1.239151e+01
2.280000e-06	1.943929e-06	2.501357e-10	1.378744e+01	1.496173e+01
2.290000e-06	1.987165e-06	2.907680e-10	1.409409e+01	1.754895e+01
2.300000e-06	2.030239e-06	3.286430e-10	1.439960e+01	2.015112e+01
2.310000e-06	2.073150e-06	3.643723e-10	1.470395e+01	2.276603e+01
2.320000e-06	2.115741e-06	4.023167e-10	1.500602e+01	2.539130e+01
2.330000e-06	2.158148e-06	4.447778e-10	1.530680e+01	2.802435e+01
2.340000e-06	2.200385e-06	4.878441e-10	1.560637e+01	3.066241e+01
2.350000e-06	2.242260e-06	5.283851e-10	1.590337e+01	3.330247e+01
2.360000e-06	2.283767e-06	5.678077e-10	1.619777e+01	3.594129e+01
2.370000e-06	2.324998e-06	6.084199e-10	1.649019e+01	3.857546e+01
2.380000e-06	2.366027e-06	6.505111e-10	1.678120e+01	4.120135e+01
2.390000e-06	2.406815e-06	6.913014e-10	1.707049e+01	4.381520e+01
2.400000e-06	2.447366e-06	7.287955e-10	1.735810e+01	4.641319e+01
2.410000e-06	2.487680e-06	7.647342e-10	1.764403e+01	4.899141e+01
2.420000e-06	2.527730e-06	8.016717e-10	1.792809e+01	5.154603e+01
2.430000e-06	2.567649e-06	8.420864e-10	1.821122e+01	5.407330e+01
2.440000e-06	2.607502e-06	8.833033e-10	1.849387e+01	5.656962e+01
2.450000e-06	2.647243e-06	9.222647e-10	1.877574e+01	5.903165e+01
2.460000e-06	2.686905e-06	9.586758e-10	1.905705e+01	6.145630e+01
2.470000e-06	2.726493e-06	9.948522e-10	1.933783e+01	6.384084e+01
2.480000e-06	2.765991e-06	1.029353e-09	1.961796e+01	6.618291e+01
2.490000e-06	2.805316e-06	1.061200e-09	1.989688e+01	6.848053e+01
2.500000e-06	2.844405e-06	1.091659e-09	2.017412e+01	7.073212e+01
2.510000e-06	2.883324e-06	1.124841e-09	2.045016e+01	7.293650e+01
2.520000e-06	2.922001e-06	1.163638e-09	2.072448e+01	7.509285e+01
2.530000e-06	2.960335e-06	1.203976e-09	2.099636e+01	7.720071e+01
2.540000e-06	2.998447e-06	1.239407e-09	2.126667e+01	7.925991e+01
2.550000e-06	3.036398e-06	1.268790e-09	2.153584e+01	8.127050e+01
2.560000e-06	3.074166e-06	1.295739e-09	2.180372e+01	8.323274e+01
2.570000e-06	3.111715e-06	1.321097e-09	2.207004e+01	8.514702e+01
2.580000e-06	3.149026e-06	1.344308e-09	2.233467e+01	8.701380e+01
2.590000e-06	3.186196e-06	1.368401e-09	2.259830e+01	8.883357e+01
2.600000e-06	3.223218e-06	1.396349e-09	2.286088e+01	9.060679e+01
2.610000e-06	3.260035e-06	1.429846e-09	2.312200e+01	9.233388e+01
2.620000e-06	3.296598e-06	1.462698e-09	2.338133e+01	9.401518e+01
2.630000e-06	3.332781e-06	1.488008e-09	2.363797e+01	9.565095e+01
2.640000e-06	3.368692e-06	1.508997e-09	2.389266e+01	9.724137e+01
2.650000e-06	3.404529e-06	1.526844e-09	2.414684e+01	9.878656e+01
2.660000e-06	3.440289e-06	1.542840e-09	2.440047e+01	1.002866e+02
2.670000e-06	3.475882e-06	1.556767e-09	2.465291e+01	1.017414e+02
2.680000e-06	3.511346e-06	1.570961e-09	2.490444e+01	1.031512e+02
2.690000e-06	3.546665e-06	1.588885e-09	2.515495e+01	1.045160e+02
2.700000e-06	3.581684e-06	1.612376e-09	2.540332e+01	1.058361e+02
2.710000e-06	3.616395e-06	1.637855e-09	2.564952e+01	1.071117e+02
2.720000e-06	3.650741e-06	1.660890e-09	2.589311e+01	1.083432e+02
2.730000e-06	3.684642e-06	1.680166e-09	2.613356e+01	1.095314e+02
2.740000e-06	3.718080e-06	1.694991e-09	2.637072e+01	1.106768e+02
2.750000e-06	3.751104e-06	1.705884e-09	2.660494e+01	1.117805e+02
2.760000e-06	3.783711e-06	1.714123e-09	2.683621e+01	1.128434e+02
2.770000e-06	3.815928e-06	1.724105e-09	2.706471e+01	1.138667e+02
2.780000e-06	3.847882e-06	1.740166e-09	2.729135e+01	1.148517e+02
2.790000e-06	3.879688e-06	1.760860e-09	2.751693e+01	1.157995e+02
2.800000e-06	3.911389e-06	1.781559e-09	2.774177e+01	1.167114e+02
2.810000e-06	3.942852e-06	1.797795e-09	2.796493e+01	1.175886e+02
2.820000e-06	3.974089e-06	1.808438e-09	2.818648e+01	1.184322e+02
2.830000e-06	4.005126e-06	1.816249e-09	2.840661e+01	1.192433e+02
2.840000e-06	4.035937e-06	1.822926e-09	2.862514e+01	1.200226e+02
2.850000e-06	4.066427e-06	1.830612e-09	2.884139e+01	1.207709e+02
2.860000e-06	4.096564e-06	1.839987e-09	2.905514e+01	1.214888e+02
2.870000e-06	4.126419e-06	1.852640e-09	2.926689e+01	1.221766e+02
2.880000e-06	4.156004e-06	1.867440e-09	2.947672e+01	1.228347e+02
2.890000e-06	4.185379e-06	1.880687e-09	2.968507e+01	1.234632e+02
2.900000e-06	4.214458e-06	1.889732e-09	2.989131e+01	1.240624e+02
