# Temperatura_=_-1.5
# Concentracion g/m^3_=_4090.0
# C_Vs_to_Am_M_A/Vsm_=_65563218390.804596
# pendiente_HvsI_1/m_=_3716.3
# ordenada_HvsI_A/m_=_1297.0
# frecuencia_Hz_=_135072.06324420325

Tiempo_(s)	Campo_(V.s)	Magnetizacion_(V.s)	Campo_(kA/m)	Magnetizacion_(A/m)
0.000000e+00	-5.401182e-06	-2.128936e-09	-3.839012e+01	-1.409216e+02
1.000000e-08	-5.401288e-06	-2.132500e-09	-3.839087e+01	-1.407974e+02
2.000000e-08	-5.401146e-06	-2.133565e-09	-3.838986e+01	-1.406555e+02
3.000000e-08	-5.400769e-06	-2.130183e-09	-3.838718e+01	-1.404977e+02
4.000000e-08	-5.400089e-06	-2.124648e-09	-3.838235e+01	-1.403265e+02
5.000000e-08	-5.398866e-06	-2.119041e-09	-3.837365e+01	-1.401455e+02
6.000000e-08	-5.397045e-06	-2.115159e-09	-3.836071e+01	-1.399593e+02
7.000000e-08	-5.394591e-06	-2.129292e-09	-3.834327e+01	-1.397728e+02
8.000000e-08	-5.391487e-06	-2.150184e-09	-3.832120e+01	-1.395919e+02
9.000000e-08	-5.387900e-06	-2.098696e-09	-3.829571e+01	-1.394224e+02
1.000000e-07	-5.383861e-06	-2.033895e-09	-3.826700e+01	-1.392705e+02
1.100000e-07	-5.379592e-06	-2.135540e-09	-3.823666e+01	-1.391420e+02
1.200000e-07	-5.375188e-06	-2.224873e-09	-3.820535e+01	-1.390424e+02
1.300000e-07	-5.370334e-06	-2.115444e-09	-3.817085e+01	-1.389765e+02
1.400000e-07	-5.365008e-06	-2.004830e-09	-3.813300e+01	-1.389481e+02
1.500000e-07	-5.359406e-06	-2.109310e-09	-3.809318e+01	-1.389600e+02
1.600000e-07	-5.353542e-06	-2.267623e-09	-3.805150e+01	-1.390137e+02
1.700000e-07	-5.347207e-06	-2.084234e-09	-3.800647e+01	-1.391094e+02
1.800000e-07	-5.340458e-06	-1.956759e-09	-3.795851e+01	-1.392458e+02
1.900000e-07	-5.333495e-06	-2.106073e-09	-3.790901e+01	-1.394203e+02
2.000000e-07	-5.326224e-06	-2.256616e-09	-3.785733e+01	-1.396287e+02
2.100000e-07	-5.318500e-06	-2.110647e-09	-3.780243e+01	-1.398661e+02
2.200000e-07	-5.310557e-06	-2.055802e-09	-3.774598e+01	-1.401260e+02
2.300000e-07	-5.302478e-06	-2.237109e-09	-3.768855e+01	-1.404015e+02
2.400000e-07	-5.293976e-06	-2.276623e-09	-3.762812e+01	-1.406848e+02
2.500000e-07	-5.284815e-06	-2.141010e-09	-3.756301e+01	-1.409682e+02
2.600000e-07	-5.275058e-06	-2.174594e-09	-3.749366e+01	-1.412435e+02
2.700000e-07	-5.264723e-06	-2.323953e-09	-3.742020e+01	-1.415033e+02
2.800000e-07	-5.253805e-06	-2.220409e-09	-3.734260e+01	-1.417402e+02
2.900000e-07	-5.242625e-06	-2.099309e-09	-3.726313e+01	-1.419481e+02
3.000000e-07	-5.231015e-06	-2.217678e-09	-3.718062e+01	-1.421214e+02
3.100000e-07	-5.218853e-06	-2.297706e-09	-3.709417e+01	-1.422561e+02
3.200000e-07	-5.206313e-06	-2.138210e-09	-3.700504e+01	-1.423492e+02
3.300000e-07	-5.193430e-06	-2.133075e-09	-3.691347e+01	-1.423990e+02
3.400000e-07	-5.180230e-06	-2.260572e-09	-3.681965e+01	-1.424053e+02
3.500000e-07	-5.166655e-06	-2.237180e-09	-3.672316e+01	-1.423689e+02
3.600000e-07	-5.152718e-06	-2.139110e-09	-3.662410e+01	-1.422922e+02
3.700000e-07	-5.138380e-06	-2.202151e-09	-3.652219e+01	-1.421781e+02
3.800000e-07	-5.123341e-06	-2.203370e-09	-3.641530e+01	-1.420307e+02
3.900000e-07	-5.107679e-06	-2.141593e-09	-3.630397e+01	-1.418546e+02
4.000000e-07	-5.091531e-06	-2.173209e-09	-3.618920e+01	-1.416548e+02
4.100000e-07	-5.074950e-06	-2.215975e-09	-3.607135e+01	-1.414364e+02
4.200000e-07	-5.057958e-06	-2.131265e-09	-3.595057e+01	-1.412046e+02
4.300000e-07	-5.040689e-06	-2.143167e-09	-3.582783e+01	-1.409642e+02
4.400000e-07	-5.023251e-06	-2.225488e-09	-3.570389e+01	-1.407197e+02
4.500000e-07	-5.005503e-06	-2.184068e-09	-3.557774e+01	-1.404748e+02
4.600000e-07	-4.987456e-06	-2.102812e-09	-3.544947e+01	-1.402326e+02
4.700000e-07	-4.969027e-06	-2.143601e-09	-3.531847e+01	-1.399954e+02
4.800000e-07	-4.950205e-06	-2.175740e-09	-3.518470e+01	-1.397648e+02
4.900000e-07	-4.930964e-06	-2.138044e-09	-3.504793e+01	-1.395414e+02
5.000000e-07	-4.911409e-06	-2.119923e-09	-3.490894e+01	-1.393253e+02
5.100000e-07	-4.891605e-06	-2.123130e-09	-3.476818e+01	-1.391156e+02
5.200000e-07	-4.871557e-06	-2.133143e-09	-3.462569e+01	-1.389112e+02
5.300000e-07	-4.851370e-06	-2.150391e-09	-3.448220e+01	-1.387104e+02
5.400000e-07	-4.830835e-06	-2.132056e-09	-3.433624e+01	-1.385113e+02
5.500000e-07	-4.809897e-06	-2.090932e-09	-3.418742e+01	-1.383117e+02
5.600000e-07	-4.788715e-06	-2.112426e-09	-3.403687e+01	-1.381095e+02
5.700000e-07	-4.767196e-06	-2.131016e-09	-3.388391e+01	-1.379029e+02
5.800000e-07	-4.745324e-06	-2.102146e-09	-3.372846e+01	-1.376901e+02
5.900000e-07	-4.723160e-06	-2.074419e-09	-3.357092e+01	-1.374697e+02
6.000000e-07	-4.700624e-06	-2.090271e-09	-3.341074e+01	-1.372408e+02
6.100000e-07	-4.677740e-06	-2.104023e-09	-3.324809e+01	-1.370027e+02
6.200000e-07	-4.654525e-06	-2.110895e-09	-3.308308e+01	-1.367553e+02
6.300000e-07	-4.631020e-06	-2.085554e-09	-3.291601e+01	-1.364989e+02
6.400000e-07	-4.607256e-06	-2.068446e-09	-3.274710e+01	-1.362340e+02
6.500000e-07	-4.583272e-06	-2.085161e-09	-3.257664e+01	-1.359615e+02
6.600000e-07	-4.559118e-06	-2.098765e-09	-3.240496e+01	-1.356825e+02
6.700000e-07	-4.534685e-06	-2.062350e-09	-3.223129e+01	-1.353982e+02
6.800000e-07	-4.509831e-06	-2.045031e-09	-3.205464e+01	-1.351099e+02
6.900000e-07	-4.484470e-06	-2.059844e-09	-3.187437e+01	-1.348186e+02
7.000000e-07	-4.458536e-06	-2.071189e-09	-3.169005e+01	-1.345255e+02
7.100000e-07	-4.432065e-06	-2.051042e-09	-3.150189e+01	-1.342315e+02
7.200000e-07	-4.405190e-06	-2.034714e-09	-3.131088e+01	-1.339372e+02
7.300000e-07	-4.377995e-06	-2.035544e-09	-3.111758e+01	-1.336429e+02
7.400000e-07	-4.350508e-06	-2.052393e-09	-3.092221e+01	-1.333489e+02
7.500000e-07	-4.322774e-06	-2.047093e-09	-3.072508e+01	-1.330550e+02
7.600000e-07	-4.294863e-06	-2.023272e-09	-3.052670e+01	-1.327608e+02
7.700000e-07	-4.266762e-06	-2.014706e-09	-3.032697e+01	-1.324659e+02
7.800000e-07	-4.238418e-06	-2.022611e-09	-3.012551e+01	-1.321696e+02
7.900000e-07	-4.209735e-06	-2.015751e-09	-2.992164e+01	-1.318711e+02
8.000000e-07	-4.180711e-06	-1.999112e-09	-2.971534e+01	-1.315698e+02
8.100000e-07	-4.151420e-06	-1.996001e-09	-2.950715e+01	-1.312651e+02
8.200000e-07	-4.121845e-06	-2.007489e-09	-2.929694e+01	-1.309564e+02
8.300000e-07	-4.091979e-06	-2.014926e-09	-2.908466e+01	-1.306433e+02
8.400000e-07	-4.061822e-06	-1.998693e-09	-2.887031e+01	-1.303257e+02
8.500000e-07	-4.031407e-06	-1.976364e-09	-2.865413e+01	-1.300037e+02
8.600000e-07	-4.000886e-06	-1.967297e-09	-2.843720e+01	-1.296774e+02
8.700000e-07	-3.970101e-06	-1.970973e-09	-2.821838e+01	-1.293473e+02
8.800000e-07	-3.938861e-06	-1.962601e-09	-2.799634e+01	-1.290139e+02
8.900000e-07	-3.907343e-06	-1.952415e-09	-2.777232e+01	-1.286781e+02
9.000000e-07	-3.875659e-06	-1.953462e-09	-2.754712e+01	-1.283406e+02
9.100000e-07	-3.843819e-06	-1.967041e-09	-2.732081e+01	-1.280022e+02
9.200000e-07	-3.811793e-06	-1.962831e-09	-2.709317e+01	-1.276636e+02
9.300000e-07	-3.779568e-06	-1.945181e-09	-2.686413e+01	-1.273255e+02
9.400000e-07	-3.747106e-06	-1.933501e-09	-2.663340e+01	-1.269884e+02
9.500000e-07	-3.714426e-06	-1.938674e-09	-2.640111e+01	-1.266527e+02
9.600000e-07	-3.681414e-06	-1.937244e-09	-2.616647e+01	-1.263184e+02
9.700000e-07	-3.647857e-06	-1.926704e-09	-2.592796e+01	-1.259854e+02
9.800000e-07	-3.613923e-06	-1.917618e-09	-2.568677e+01	-1.256534e+02
9.900000e-07	-3.579713e-06	-1.922237e-09	-2.544361e+01	-1.253218e+02
1.000000e-06	-3.545094e-06	-1.922732e-09	-2.519755e+01	-1.249899e+02
1.010000e-06	-3.510008e-06	-1.912490e-09	-2.494817e+01	-1.246567e+02
1.020000e-06	-3.474557e-06	-1.899068e-09	-2.469619e+01	-1.243213e+02
1.030000e-06	-3.438909e-06	-1.896395e-09	-2.444282e+01	-1.239826e+02
1.040000e-06	-3.403080e-06	-1.896793e-09	-2.418816e+01	-1.236396e+02
1.050000e-06	-3.367069e-06	-1.892132e-09	-2.393220e+01	-1.232913e+02
1.060000e-06	-3.330893e-06	-1.880628e-09	-2.367507e+01	-1.229369e+02
1.070000e-06	-3.294554e-06	-1.870973e-09	-2.341678e+01	-1.225757e+02
1.080000e-06	-3.258089e-06	-1.864067e-09	-2.315760e+01	-1.222073e+02
1.090000e-06	-3.221466e-06	-1.855619e-09	-2.289729e+01	-1.218314e+02
1.100000e-06	-3.184595e-06	-1.847532e-09	-2.263523e+01	-1.214479e+02
1.110000e-06	-3.147448e-06	-1.844591e-09	-2.237120e+01	-1.210570e+02
1.120000e-06	-3.110121e-06	-1.845194e-09	-2.210589e+01	-1.206590e+02
1.130000e-06	-3.072551e-06	-1.839881e-09	-2.183885e+01	-1.202546e+02
1.140000e-06	-3.034699e-06	-1.827316e-09	-2.156980e+01	-1.198443e+02
1.150000e-06	-2.996632e-06	-1.813588e-09	-2.129923e+01	-1.194288e+02
1.160000e-06	-2.958379e-06	-1.805300e-09	-2.102734e+01	-1.190088e+02
1.170000e-06	-2.919959e-06	-1.797858e-09	-2.075426e+01	-1.185851e+02
1.180000e-06	-2.881329e-06	-1.790511e-09	-2.047970e+01	-1.181583e+02
1.190000e-06	-2.842496e-06	-1.784700e-09	-2.020368e+01	-1.177287e+02
1.200000e-06	-2.803414e-06	-1.786890e-09	-1.992590e+01	-1.172967e+02
1.210000e-06	-2.764105e-06	-1.787853e-09	-1.964650e+01	-1.168624e+02
1.220000e-06	-2.724641e-06	-1.781281e-09	-1.936600e+01	-1.164258e+02
1.230000e-06	-2.684932e-06	-1.767063e-09	-1.908376e+01	-1.159867e+02
1.240000e-06	-2.645105e-06	-1.755177e-09	-1.880068e+01	-1.155445e+02
1.250000e-06	-2.605224e-06	-1.744951e-09	-1.851722e+01	-1.150988e+02
1.260000e-06	-2.565221e-06	-1.737465e-09	-1.823289e+01	-1.146488e+02
1.270000e-06	-2.525160e-06	-1.730048e-09	-1.794814e+01	-1.141940e+02
1.280000e-06	-2.484967e-06	-1.726017e-09	-1.766246e+01	-1.137335e+02
1.290000e-06	-2.444683e-06	-1.722432e-09	-1.737613e+01	-1.132667e+02
1.300000e-06	-2.404334e-06	-1.717818e-09	-1.708934e+01	-1.127930e+02
1.310000e-06	-2.363799e-06	-1.708175e-09	-1.680123e+01	-1.123120e+02
1.320000e-06	-2.323000e-06	-1.697994e-09	-1.651124e+01	-1.118232e+02
1.330000e-06	-2.281940e-06	-1.689948e-09	-1.621940e+01	-1.113266e+02
1.340000e-06	-2.240622e-06	-1.683927e-09	-1.592572e+01	-1.108223e+02
1.350000e-06	-2.199037e-06	-1.678169e-09	-1.563015e+01	-1.103103e+02
1.360000e-06	-2.157153e-06	-1.672136e-09	-1.533245e+01	-1.097911e+02
1.370000e-06	-2.114987e-06	-1.664962e-09	-1.503274e+01	-1.092652e+02
1.380000e-06	-2.072592e-06	-1.656213e-09	-1.473141e+01	-1.087330e+02
1.390000e-06	-2.029957e-06	-1.645439e-09	-1.442838e+01	-1.081952e+02
1.400000e-06	-1.987059e-06	-1.633674e-09	-1.412347e+01	-1.076523e+02
1.410000e-06	-1.943980e-06	-1.622642e-09	-1.381727e+01	-1.071048e+02
1.420000e-06	-1.900716e-06	-1.612964e-09	-1.350977e+01	-1.065531e+02
1.430000e-06	-1.857207e-06	-1.606558e-09	-1.320052e+01	-1.059972e+02
1.440000e-06	-1.813535e-06	-1.602540e-09	-1.289011e+01	-1.054372e+02
1.450000e-06	-1.769795e-06	-1.598411e-09	-1.257921e+01	-1.048728e+02
1.460000e-06	-1.725975e-06	-1.591746e-09	-1.226776e+01	-1.043034e+02
1.470000e-06	-1.682077e-06	-1.583926e-09	-1.195574e+01	-1.037284e+02
1.480000e-06	-1.638064e-06	-1.574065e-09	-1.164291e+01	-1.031468e+02
1.490000e-06	-1.593983e-06	-1.564042e-09	-1.132959e+01	-1.025575e+02
1.500000e-06	-1.549895e-06	-1.553291e-09	-1.101622e+01	-1.019592e+02
1.510000e-06	-1.505718e-06	-1.545196e-09	-1.070223e+01	-1.013507e+02
1.520000e-06	-1.461449e-06	-1.537989e-09	-1.038757e+01	-1.007307e+02
1.530000e-06	-1.417099e-06	-1.527666e-09	-1.007235e+01	-1.000979e+02
1.540000e-06	-1.372673e-06	-1.513305e-09	-9.756581e+00	-9.945126e+01
1.550000e-06	-1.328192e-06	-1.499688e-09	-9.440422e+00	-9.878990e+01
1.560000e-06	-1.283689e-06	-1.487730e-09	-9.124106e+00	-9.811315e+01
1.570000e-06	-1.239182e-06	-1.480484e-09	-8.807767e+00	-9.742061e+01
1.580000e-06	-1.194618e-06	-1.472975e-09	-8.491018e+00	-9.671221e+01
1.590000e-06	-1.149883e-06	-1.463387e-09	-8.173052e+00	-9.598816e+01
1.600000e-06	-1.105052e-06	-1.453864e-09	-7.854403e+00	-9.524895e+01
1.610000e-06	-1.060165e-06	-1.442233e-09	-7.535359e+00	-9.449532e+01
1.620000e-06	-1.015142e-06	-1.426022e-09	-7.215353e+00	-9.372824e+01
1.630000e-06	-9.700151e-07	-1.408546e-09	-6.894600e+00	-9.294877e+01
1.640000e-06	-9.248305e-07	-1.395493e-09	-6.573441e+00	-9.215807e+01
1.650000e-06	-8.796024e-07	-1.389442e-09	-6.251972e+00	-9.135726e+01
1.660000e-06	-8.343292e-07	-1.383464e-09	-5.930182e+00	-9.054738e+01
1.670000e-06	-7.889739e-07	-1.376103e-09	-5.607809e+00	-8.972926e+01
1.680000e-06	-7.435315e-07	-1.365505e-09	-5.284817e+00	-8.890347e+01
1.690000e-06	-6.980152e-07	-1.352197e-09	-4.961300e+00	-8.807027e+01
1.700000e-06	-6.525076e-07	-1.334883e-09	-4.637844e+00	-8.722954e+01
1.710000e-06	-6.070183e-07	-1.313646e-09	-4.314519e+00	-8.638074e+01
1.720000e-06	-5.614348e-07	-1.295825e-09	-3.990524e+00	-8.552290e+01
1.730000e-06	-5.158084e-07	-1.283538e-09	-3.666224e+00	-8.465467e+01
1.740000e-06	-4.701294e-07	-1.274232e-09	-3.341551e+00	-8.377427e+01
1.750000e-06	-4.244120e-07	-1.265695e-09	-3.016604e+00	-8.287959e+01
1.760000e-06	-3.787177e-07	-1.256861e-09	-2.691821e+00	-8.196824e+01
1.770000e-06	-3.330201e-07	-1.242930e-09	-2.367015e+00	-8.103764e+01
1.780000e-06	-2.873209e-07	-1.222390e-09	-2.042198e+00	-8.008506e+01
1.790000e-06	-2.416225e-07	-1.197936e-09	-1.717386e+00	-7.910777e+01
1.800000e-06	-1.958276e-07	-1.175503e-09	-1.391889e+00	-7.810309e+01
1.810000e-06	-1.499435e-07	-1.156749e-09	-1.065757e+00	-7.706849e+01
1.820000e-06	-1.041031e-07	-1.142645e-09	-7.399363e-01	-7.600167e+01
1.830000e-06	-5.828480e-08	-1.129657e-09	-4.142723e-01	-7.490062e+01
1.840000e-06	-1.247980e-08	-1.117605e-09	-8.870300e-02	-7.376369e+01
1.850000e-06	3.334353e-08	-1.104995e-09	2.369966e-01	-7.258958e+01
1.860000e-06	7.919404e-08	-1.088498e-09	5.628895e-01	-7.137740e+01
1.870000e-06	1.250304e-07	-1.066596e-09	8.886818e-01	-7.012661e+01
1.880000e-06	1.708692e-07	-1.042941e-09	1.214491e+00	-6.883705e+01
1.890000e-06	2.167723e-07	-1.019877e-09	1.540757e+00	-6.750885e+01
1.900000e-06	2.627042e-07	-9.980076e-10	1.867229e+00	-6.614241e+01
1.910000e-06	3.085174e-07	-9.760520e-10	2.192857e+00	-6.473829e+01
1.920000e-06	3.542410e-07	-9.541940e-10	2.517848e+00	-6.329718e+01
1.930000e-06	4.000061e-07	-9.333671e-10	2.843133e+00	-6.181980e+01
1.940000e-06	4.457693e-07	-9.120864e-10	3.168406e+00	-6.030683e+01
1.950000e-06	4.914116e-07	-8.885175e-10	3.492818e+00	-5.875884e+01
1.960000e-06	5.369907e-07	-8.637535e-10	3.816782e+00	-5.717623e+01
1.970000e-06	5.825609e-07	-8.370523e-10	4.140683e+00	-5.555921e+01
1.980000e-06	6.280595e-07	-8.087143e-10	4.464074e+00	-5.390775e+01
1.990000e-06	6.735103e-07	-7.781571e-10	4.787126e+00	-5.222155e+01
2.000000e-06	7.188075e-07	-7.470791e-10	5.109086e+00	-5.050007e+01
2.010000e-06	7.639761e-07	-7.195008e-10	5.430132e+00	-4.874256e+01
2.020000e-06	8.091860e-07	-6.959821e-10	5.751471e+00	-4.694806e+01
2.030000e-06	8.543661e-07	-6.716965e-10	6.072599e+00	-4.511546e+01
2.040000e-06	8.994848e-07	-6.446392e-10	6.393290e+00	-4.324357e+01
2.050000e-06	9.445799e-07	-6.172743e-10	6.713814e+00	-4.133114e+01
2.060000e-06	9.896988e-07	-5.882680e-10	7.034506e+00	-3.937697e+01
2.070000e-06	1.034686e-06	-5.558980e-10	7.354263e+00	-3.737995e+01
2.080000e-06	1.079538e-06	-5.199810e-10	7.673060e+00	-3.533908e+01
2.090000e-06	1.124298e-06	-4.854832e-10	7.991201e+00	-3.325359e+01
2.100000e-06	1.168900e-06	-4.534841e-10	8.308218e+00	-3.112291e+01
2.110000e-06	1.213475e-06	-4.211915e-10	8.625043e+00	-2.894673e+01
2.120000e-06	1.258018e-06	-3.871416e-10	8.941648e+00	-2.672499e+01
2.130000e-06	1.302433e-06	-3.537383e-10	9.257338e+00	-2.445792e+01
2.140000e-06	1.346736e-06	-3.215907e-10	9.572231e+00	-2.214599e+01
2.150000e-06	1.391012e-06	-2.891342e-10	9.886928e+00	-1.978991e+01
2.160000e-06	1.435243e-06	-2.535723e-10	1.020131e+01	-1.739060e+01
2.170000e-06	1.479429e-06	-2.149486e-10	1.051538e+01	-1.494916e+01
2.180000e-06	1.523580e-06	-1.780400e-10	1.082919e+01	-1.246683e+01
2.190000e-06	1.567683e-06	-1.421926e-10	1.114266e+01	-9.944974e+00
2.200000e-06	1.611755e-06	-1.048040e-10	1.145591e+01	-7.385054e+00
2.210000e-06	1.655749e-06	-6.619608e-11	1.176861e+01	-4.788590e+00
2.220000e-06	1.699643e-06	-2.597157e-11	1.208059e+01	-2.157170e+00
2.230000e-06	1.743448e-06	1.484778e-11	1.239195e+01	5.075613e-01
2.240000e-06	1.787225e-06	5.769667e-11	1.270310e+01	3.203892e+00
2.250000e-06	1.830912e-06	1.003917e-10	1.301362e+01	5.930023e+00
2.260000e-06	1.874390e-06	1.410910e-10	1.332265e+01	8.684044e+00
2.270000e-06	1.917710e-06	1.798106e-10	1.363055e+01	1.146390e+01
2.280000e-06	1.960918e-06	2.203290e-10	1.393766e+01	1.426735e+01
2.290000e-06	2.003963e-06	2.645292e-10	1.424362e+01	1.709194e+01
2.300000e-06	2.046754e-06	3.088185e-10	1.454776e+01	1.993496e+01
2.310000e-06	2.089308e-06	3.518850e-10	1.485023e+01	2.279341e+01
2.320000e-06	2.131554e-06	3.952101e-10	1.515050e+01	2.566400e+01
2.330000e-06	2.173473e-06	4.388380e-10	1.544845e+01	2.854312e+01
2.340000e-06	2.215128e-06	4.793566e-10	1.574452e+01	3.142683e+01
2.350000e-06	2.256475e-06	5.179759e-10	1.603840e+01	3.431092e+01
2.360000e-06	2.297565e-06	5.571473e-10	1.633046e+01	3.719093e+01
2.370000e-06	2.338401e-06	6.002999e-10	1.662071e+01	4.006217e+01
2.380000e-06	2.378996e-06	6.459572e-10	1.690925e+01	4.291981e+01
2.390000e-06	2.419435e-06	6.905021e-10	1.719668e+01	4.575896e+01
2.400000e-06	2.459729e-06	7.338117e-10	1.748308e+01	4.857472e+01
2.410000e-06	2.499900e-06	7.769292e-10	1.776860e+01	5.136231e+01
2.420000e-06	2.540006e-06	8.205769e-10	1.805366e+01	5.411711e+01
2.430000e-06	2.580019e-06	8.636109e-10	1.833806e+01	5.683480e+01
2.440000e-06	2.619938e-06	9.035927e-10	1.862179e+01	5.951140e+01
2.450000e-06	2.659756e-06	9.403396e-10	1.890482e+01	6.214335e+01
2.460000e-06	2.699370e-06	9.792053e-10	1.918638e+01	6.472758e+01
2.470000e-06	2.738759e-06	1.018858e-09	1.946634e+01	6.726153e+01
2.480000e-06	2.777946e-06	1.055798e-09	1.974488e+01	6.974317e+01
2.490000e-06	2.816968e-06	1.091682e-09	2.002223e+01	7.217102e+01
2.500000e-06	2.855799e-06	1.129267e-09	2.029823e+01	7.454412e+01
2.510000e-06	2.894381e-06	1.168302e-09	2.057246e+01	7.686200e+01
2.520000e-06	2.932769e-06	1.206601e-09	2.084531e+01	7.912463e+01
2.530000e-06	2.971034e-06	1.241445e-09	2.111729e+01	8.133235e+01
2.540000e-06	3.009140e-06	1.274856e-09	2.138814e+01	8.348581e+01
2.550000e-06	3.047007e-06	1.307916e-09	2.165729e+01	8.558586e+01
2.560000e-06	3.084675e-06	1.337438e-09	2.192502e+01	8.763353e+01
2.570000e-06	3.122172e-06	1.363613e-09	2.219154e+01	8.962989e+01
2.580000e-06	3.159414e-06	1.390283e-09	2.245625e+01	9.157601e+01
2.590000e-06	3.196380e-06	1.420734e-09	2.271899e+01	9.347290e+01
2.600000e-06	3.233092e-06	1.454541e-09	2.297993e+01	9.532144e+01
2.610000e-06	3.269630e-06	1.487904e-09	2.323963e+01	9.712237e+01
2.620000e-06	3.305996e-06	1.517030e-09	2.349811e+01	9.887625e+01
2.630000e-06	3.342186e-06	1.542969e-09	2.375534e+01	1.005835e+02
2.640000e-06	3.378267e-06	1.565804e-09	2.401179e+01	1.022442e+02
2.650000e-06	3.414222e-06	1.585007e-09	2.426735e+01	1.038586e+02
2.660000e-06	3.450017e-06	1.602215e-09	2.452177e+01	1.054265e+02
2.670000e-06	3.485641e-06	1.621975e-09	2.477498e+01	1.069479e+02
2.680000e-06	3.520940e-06	1.644229e-09	2.502587e+01	1.084226e+02
2.690000e-06	3.555893e-06	1.667509e-09	2.527431e+01	1.098505e+02
2.700000e-06	3.590529e-06	1.692642e-09	2.552049e+01	1.112316e+02
2.710000e-06	3.624719e-06	1.718577e-09	2.576351e+01	1.125659e+02
2.720000e-06	3.658439e-06	1.740514e-09	2.600318e+01	1.138537e+02
2.730000e-06	3.691768e-06	1.758052e-09	2.624007e+01	1.150952e+02
2.740000e-06	3.724714e-06	1.772726e-09	2.647424e+01	1.162911e+02
2.750000e-06	3.757240e-06	1.786398e-09	2.670543e+01	1.174421e+02
2.760000e-06	3.789508e-06	1.799588e-09	2.693478e+01	1.185490e+02
2.770000e-06	3.821610e-06	1.812323e-09	2.716295e+01	1.196130e+02
2.780000e-06	3.853569e-06	1.828971e-09	2.739011e+01	1.206352e+02
2.790000e-06	3.885421e-06	1.848726e-09	2.761650e+01	1.216168e+02
2.800000e-06	3.917105e-06	1.866186e-09	2.784171e+01	1.225591e+02
2.810000e-06	3.948483e-06	1.877261e-09	2.806473e+01	1.234634e+02
2.820000e-06	3.979504e-06	1.883890e-09	2.828522e+01	1.243311e+02
2.830000e-06	4.010281e-06	1.893321e-09	2.850397e+01	1.251634e+02
2.840000e-06	4.040727e-06	1.905553e-09	2.872037e+01	1.259613e+02
2.850000e-06	4.070793e-06	1.915678e-09	2.893407e+01	1.267261e+02
2.860000e-06	4.100647e-06	1.923366e-09	2.914627e+01	1.274586e+02
2.870000e-06	4.130299e-06	1.933875e-09	2.935702e+01	1.281596e+02
2.880000e-06	4.159768e-06	1.947109e-09	2.956648e+01	1.288301e+02
2.890000e-06	4.189049e-06	1.955930e-09	2.977461e+01	1.294707e+02
2.900000e-06	4.218052e-06	1.961037e-09	2.998075e+01	1.300821e+02
