# Temperatura_=_10.47
# Concentracion g/m^3_=_4090.0
# C_Vs_to_Am_M_A/Vsm_=_65563218390.804596
# pendiente_HvsI_1/m_=_3716.3
# ordenada_HvsI_A/m_=_1297.0
# frecuencia_Hz_=_135086.26907090345

Tiempo_(s)	Campo_(V.s)	Magnetizacion_(V.s)	Campo_(kA/m)	Magnetizacion_(A/m)
0.000000e+00	-5.388805e-06	-1.439426e-09	-3.839018e+01	-9.310345e+01
1.000000e-08	-5.388804e-06	-1.435670e-09	-3.839017e+01	-9.298238e+01
2.000000e-08	-5.388566e-06	-1.428821e-09	-3.838847e+01	-9.284940e+01
3.000000e-08	-5.388037e-06	-1.421487e-09	-3.838471e+01	-9.270469e+01
4.000000e-08	-5.387134e-06	-1.419190e-09	-3.837828e+01	-9.254884e+01
5.000000e-08	-5.385660e-06	-1.422096e-09	-3.836777e+01	-9.238296e+01
6.000000e-08	-5.383420e-06	-1.434349e-09	-3.835182e+01	-9.220865e+01
7.000000e-08	-5.380600e-06	-1.438275e-09	-3.833172e+01	-9.202800e+01
8.000000e-08	-5.377274e-06	-1.398823e-09	-3.830803e+01	-9.184355e+01
9.000000e-08	-5.373410e-06	-1.376178e-09	-3.828050e+01	-9.165819e+01
1.000000e-07	-5.369249e-06	-1.469543e-09	-3.825086e+01	-9.147514e+01
1.100000e-07	-5.364846e-06	-1.490093e-09	-3.821949e+01	-9.129778e+01
1.200000e-07	-5.360241e-06	-1.374552e-09	-3.818668e+01	-9.112955e+01
1.300000e-07	-5.355392e-06	-1.316597e-09	-3.815214e+01	-9.097385e+01
1.400000e-07	-5.350140e-06	-1.443164e-09	-3.811473e+01	-9.083381e+01
1.500000e-07	-5.344451e-06	-1.516001e-09	-3.807420e+01	-9.071226e+01
1.600000e-07	-5.338432e-06	-1.353627e-09	-3.803132e+01	-9.061152e+01
1.700000e-07	-5.332156e-06	-1.274821e-09	-3.798661e+01	-9.053332e+01
1.800000e-07	-5.325438e-06	-1.412917e-09	-3.793875e+01	-9.047872e+01
1.900000e-07	-5.318201e-06	-1.498864e-09	-3.788719e+01	-9.044800e+01
2.000000e-07	-5.310698e-06	-1.374926e-09	-3.783374e+01	-9.044065e+01
2.100000e-07	-5.302999e-06	-1.331069e-09	-3.777889e+01	-9.045534e+01
2.200000e-07	-5.295085e-06	-1.434917e-09	-3.772251e+01	-9.049000e+01
2.300000e-07	-5.286884e-06	-1.445248e-09	-3.766409e+01	-9.054178e+01
2.400000e-07	-5.278248e-06	-1.349224e-09	-3.760256e+01	-9.060726e+01
2.500000e-07	-5.268982e-06	-1.393968e-09	-3.753655e+01	-9.068247e+01
2.600000e-07	-5.258987e-06	-1.480466e-09	-3.746535e+01	-9.076306e+01
2.700000e-07	-5.248461e-06	-1.408087e-09	-3.739036e+01	-9.084449e+01
2.800000e-07	-5.237482e-06	-1.347808e-09	-3.731214e+01	-9.092214e+01
2.900000e-07	-5.226094e-06	-1.439693e-09	-3.723101e+01	-9.099153e+01
3.000000e-07	-5.214245e-06	-1.445797e-09	-3.714661e+01	-9.104844e+01
3.100000e-07	-5.202015e-06	-1.334951e-09	-3.705947e+01	-9.108909e+01
3.200000e-07	-5.189463e-06	-1.366284e-09	-3.697005e+01	-9.111026e+01
3.300000e-07	-5.176534e-06	-1.462024e-09	-3.687795e+01	-9.110939e+01
3.400000e-07	-5.163243e-06	-1.413750e-09	-3.678326e+01	-9.108468e+01
3.500000e-07	-5.149564e-06	-1.369328e-09	-3.668581e+01	-9.103512e+01
3.600000e-07	-5.135464e-06	-1.432319e-09	-3.658536e+01	-9.096047e+01
3.700000e-07	-5.120877e-06	-1.422133e-09	-3.648145e+01	-9.086130e+01
3.800000e-07	-5.105765e-06	-1.358419e-09	-3.637378e+01	-9.073888e+01
3.900000e-07	-5.089900e-06	-1.383987e-09	-3.626076e+01	-9.059512e+01
4.000000e-07	-5.073510e-06	-1.406828e-09	-3.614400e+01	-9.043243e+01
4.100000e-07	-5.056886e-06	-1.362758e-09	-3.602557e+01	-9.025363e+01
4.200000e-07	-5.039879e-06	-1.387021e-09	-3.590441e+01	-9.006178e+01
4.300000e-07	-5.022578e-06	-1.432667e-09	-3.578115e+01	-8.986002e+01
4.400000e-07	-5.005085e-06	-1.392952e-09	-3.565654e+01	-8.965147e+01
4.500000e-07	-4.987338e-06	-1.355408e-09	-3.553011e+01	-8.943905e+01
4.600000e-07	-4.969242e-06	-1.386842e-09	-3.540119e+01	-8.922536e+01
4.700000e-07	-4.950720e-06	-1.379340e-09	-3.526923e+01	-8.901260e+01
4.800000e-07	-4.931791e-06	-1.350974e-09	-3.513438e+01	-8.880249e+01
4.900000e-07	-4.912507e-06	-1.355088e-09	-3.499700e+01	-8.859619e+01
5.000000e-07	-4.892853e-06	-1.360425e-09	-3.485699e+01	-8.839434e+01
5.100000e-07	-4.872967e-06	-1.358181e-09	-3.471531e+01	-8.819700e+01
5.200000e-07	-4.852931e-06	-1.373769e-09	-3.457258e+01	-8.800374e+01
5.300000e-07	-4.832660e-06	-1.357092e-09	-3.442817e+01	-8.781368e+01
5.400000e-07	-4.812060e-06	-1.335886e-09	-3.428141e+01	-8.762559e+01
5.500000e-07	-4.791091e-06	-1.353605e-09	-3.413203e+01	-8.743798e+01
5.600000e-07	-4.769815e-06	-1.360249e-09	-3.398045e+01	-8.724917e+01
5.700000e-07	-4.748196e-06	-1.331465e-09	-3.382644e+01	-8.705749e+01
5.800000e-07	-4.726227e-06	-1.323595e-09	-3.366993e+01	-8.686130e+01
5.900000e-07	-4.703918e-06	-1.329706e-09	-3.351100e+01	-8.665915e+01
6.000000e-07	-4.681333e-06	-1.327031e-09	-3.335010e+01	-8.644982e+01
6.100000e-07	-4.658407e-06	-1.327151e-09	-3.318678e+01	-8.623244e+01
6.200000e-07	-4.635152e-06	-1.322940e-09	-3.302111e+01	-8.600650e+01
6.300000e-07	-4.611655e-06	-1.315483e-09	-3.285371e+01	-8.577188e+01
6.400000e-07	-4.587887e-06	-1.327708e-09	-3.268439e+01	-8.552889e+01
6.500000e-07	-4.563935e-06	-1.332239e-09	-3.251376e+01	-8.527817e+01
6.600000e-07	-4.539728e-06	-1.308447e-09	-3.234130e+01	-8.502074e+01
6.700000e-07	-4.515204e-06	-1.297970e-09	-3.216659e+01	-8.475786e+01
6.800000e-07	-4.490263e-06	-1.307616e-09	-3.198891e+01	-8.449101e+01
6.900000e-07	-4.464729e-06	-1.306850e-09	-3.180700e+01	-8.422178e+01
7.000000e-07	-4.438609e-06	-1.291572e-09	-3.162092e+01	-8.395178e+01
7.100000e-07	-4.411971e-06	-1.287258e-09	-3.143115e+01	-8.368257e+01
7.200000e-07	-4.384870e-06	-1.293814e-09	-3.123809e+01	-8.341557e+01
7.300000e-07	-4.357420e-06	-1.301281e-09	-3.104252e+01	-8.315199e+01
7.400000e-07	-4.329780e-06	-1.292878e-09	-3.084562e+01	-8.289278e+01
7.500000e-07	-4.301979e-06	-1.279642e-09	-3.064756e+01	-8.263855e+01
7.600000e-07	-4.274042e-06	-1.276288e-09	-3.044854e+01	-8.238962e+01
7.700000e-07	-4.245963e-06	-1.280718e-09	-3.024850e+01	-8.214596e+01
7.800000e-07	-4.217594e-06	-1.271951e-09	-3.004640e+01	-8.190720e+01
7.900000e-07	-4.188867e-06	-1.261249e-09	-2.984174e+01	-8.167274e+01
8.000000e-07	-4.159801e-06	-1.260173e-09	-2.963468e+01	-8.144169e+01
8.100000e-07	-4.130427e-06	-1.265907e-09	-2.942542e+01	-8.121302e+01
8.200000e-07	-4.100746e-06	-1.263014e-09	-2.921397e+01	-8.098558e+01
8.300000e-07	-4.070818e-06	-1.252722e-09	-2.900076e+01	-8.075819e+01
8.400000e-07	-4.040651e-06	-1.243565e-09	-2.878585e+01	-8.052968e+01
8.500000e-07	-4.010135e-06	-1.244986e-09	-2.856845e+01	-8.029901e+01
8.600000e-07	-3.979287e-06	-1.246962e-09	-2.834868e+01	-8.006528e+01
8.700000e-07	-3.948026e-06	-1.239955e-09	-2.812598e+01	-7.982778e+01
8.800000e-07	-3.916718e-06	-1.231133e-09	-2.790294e+01	-7.958603e+01
8.900000e-07	-3.885424e-06	-1.230504e-09	-2.768000e+01	-7.933983e+01
9.000000e-07	-3.853818e-06	-1.229818e-09	-2.745483e+01	-7.908918e+01
9.100000e-07	-3.822040e-06	-1.221411e-09	-2.722845e+01	-7.883434e+01
9.200000e-07	-3.790056e-06	-1.211115e-09	-2.700059e+01	-7.857577e+01
9.300000e-07	-3.757820e-06	-1.213042e-09	-2.677094e+01	-7.831408e+01
9.400000e-07	-3.725371e-06	-1.222205e-09	-2.653977e+01	-7.805000e+01
9.500000e-07	-3.692579e-06	-1.222975e-09	-2.630616e+01	-7.778432e+01
9.600000e-07	-3.659290e-06	-1.215816e-09	-2.606901e+01	-7.751783e+01
9.700000e-07	-3.625638e-06	-1.206064e-09	-2.582927e+01	-7.725126e+01
9.800000e-07	-3.591563e-06	-1.198509e-09	-2.558652e+01	-7.698523e+01
9.900000e-07	-3.556999e-06	-1.188619e-09	-2.534028e+01	-7.672023e+01
1.000000e-06	-3.522089e-06	-1.178213e-09	-2.509158e+01	-7.645655e+01
1.010000e-06	-3.486845e-06	-1.173060e-09	-2.484050e+01	-7.619429e+01
1.020000e-06	-3.451341e-06	-1.176746e-09	-2.458757e+01	-7.593335e+01
1.030000e-06	-3.415683e-06	-1.180714e-09	-2.433354e+01	-7.567342e+01
1.040000e-06	-3.379887e-06	-1.178159e-09	-2.407852e+01	-7.541400e+01
1.050000e-06	-3.343962e-06	-1.170070e-09	-2.382259e+01	-7.515444e+01
1.060000e-06	-3.307899e-06	-1.160756e-09	-2.356567e+01	-7.489400e+01
1.070000e-06	-3.271725e-06	-1.149492e-09	-2.330797e+01	-7.463184e+01
1.080000e-06	-3.235346e-06	-1.139486e-09	-2.304880e+01	-7.436711e+01
1.090000e-06	-3.198712e-06	-1.134053e-09	-2.278782e+01	-7.409899e+01
1.100000e-06	-3.161828e-06	-1.134124e-09	-2.252506e+01	-7.382673e+01
1.110000e-06	-3.124584e-06	-1.134770e-09	-2.225973e+01	-7.354969e+01
1.120000e-06	-3.087050e-06	-1.134366e-09	-2.199234e+01	-7.326738e+01
1.130000e-06	-3.049308e-06	-1.129351e-09	-2.172346e+01	-7.297947e+01
1.140000e-06	-3.011433e-06	-1.122815e-09	-2.145363e+01	-7.268582e+01
1.150000e-06	-2.973445e-06	-1.116186e-09	-2.118300e+01	-7.238645e+01
1.160000e-06	-2.935267e-06	-1.108995e-09	-2.091102e+01	-7.208155e+01
1.170000e-06	-2.896881e-06	-1.100622e-09	-2.063756e+01	-7.177147e+01
1.180000e-06	-2.858283e-06	-1.092185e-09	-2.036258e+01	-7.145666e+01
1.190000e-06	-2.819443e-06	-1.085545e-09	-2.008588e+01	-7.113764e+01
1.200000e-06	-2.780373e-06	-1.082643e-09	-1.980755e+01	-7.081497e+01
1.210000e-06	-2.741086e-06	-1.081653e-09	-1.952767e+01	-7.048922e+01
1.220000e-06	-2.701609e-06	-1.080723e-09	-1.924643e+01	-7.016089e+01
1.230000e-06	-2.661996e-06	-1.078782e-09	-1.896422e+01	-6.983040e+01
1.240000e-06	-2.622279e-06	-1.076180e-09	-1.868127e+01	-6.949806e+01
1.250000e-06	-2.582412e-06	-1.071899e-09	-1.839727e+01	-6.916403e+01
1.260000e-06	-2.542441e-06	-1.063536e-09	-1.811250e+01	-6.882833e+01
1.270000e-06	-2.502493e-06	-1.052207e-09	-1.782792e+01	-6.849082e+01
1.280000e-06	-2.462513e-06	-1.040980e-09	-1.754310e+01	-6.815123e+01
1.290000e-06	-2.422409e-06	-1.033069e-09	-1.725739e+01	-6.780913e+01
1.300000e-06	-2.382139e-06	-1.028787e-09	-1.697050e+01	-6.746402e+01
1.310000e-06	-2.341642e-06	-1.025510e-09	-1.668200e+01	-6.711531e+01
1.320000e-06	-2.300900e-06	-1.024002e-09	-1.639176e+01	-6.676239e+01
1.330000e-06	-2.259822e-06	-1.023040e-09	-1.609911e+01	-6.640464e+01
1.340000e-06	-2.218497e-06	-1.020490e-09	-1.580471e+01	-6.604148e+01
1.350000e-06	-2.177062e-06	-1.014565e-09	-1.550953e+01	-6.567243e+01
1.360000e-06	-2.135360e-06	-1.002392e-09	-1.521244e+01	-6.529710e+01
1.370000e-06	-2.093291e-06	-9.887569e-10	-1.491273e+01	-6.491523e+01
1.380000e-06	-2.050978e-06	-9.799200e-10	-1.461129e+01	-6.452670e+01
1.390000e-06	-2.008480e-06	-9.772755e-10	-1.430853e+01	-6.413152e+01
1.400000e-06	-1.965764e-06	-9.743264e-10	-1.400422e+01	-6.372986e+01
1.410000e-06	-1.922810e-06	-9.707138e-10	-1.369822e+01	-6.332198e+01
1.420000e-06	-1.879605e-06	-9.692733e-10	-1.339042e+01	-6.290826e+01
1.430000e-06	-1.836206e-06	-9.668937e-10	-1.308125e+01	-6.248913e+01
1.440000e-06	-1.792715e-06	-9.574420e-10	-1.277141e+01	-6.206503e+01
1.450000e-06	-1.749165e-06	-9.429908e-10	-1.246116e+01	-6.163641e+01
1.460000e-06	-1.705480e-06	-9.298974e-10	-1.214994e+01	-6.120365e+01
1.470000e-06	-1.661732e-06	-9.228409e-10	-1.183828e+01	-6.076703e+01
1.480000e-06	-1.617915e-06	-9.206676e-10	-1.152612e+01	-6.032674e+01
1.490000e-06	-1.573986e-06	-9.189820e-10	-1.121317e+01	-5.988280e+01
1.500000e-06	-1.530047e-06	-9.162644e-10	-1.090015e+01	-5.943508e+01
1.510000e-06	-1.486038e-06	-9.145334e-10	-1.058663e+01	-5.898326e+01
1.520000e-06	-1.441925e-06	-9.053570e-10	-1.027237e+01	-5.852690e+01
1.530000e-06	-1.397759e-06	-8.879191e-10	-9.957719e+00	-5.806538e+01
1.540000e-06	-1.353516e-06	-8.709203e-10	-9.642533e+00	-5.759797e+01
1.550000e-06	-1.309215e-06	-8.595785e-10	-9.326927e+00	-5.712385e+01
1.560000e-06	-1.264897e-06	-8.542213e-10	-9.011201e+00	-5.664214e+01
1.570000e-06	-1.220468e-06	-8.525004e-10	-8.694690e+00	-5.615195e+01
1.580000e-06	-1.175891e-06	-8.536623e-10	-8.377118e+00	-5.565243e+01
1.590000e-06	-1.131242e-06	-8.499532e-10	-8.059038e+00	-5.514277e+01
1.600000e-06	-1.086497e-06	-8.397442e-10	-7.740268e+00	-5.462230e+01
1.610000e-06	-1.041723e-06	-8.233175e-10	-7.421297e+00	-5.409046e+01
1.620000e-06	-9.968835e-07	-8.062787e-10	-7.101860e+00	-5.354683e+01
1.630000e-06	-9.518148e-07	-7.918834e-10	-6.780787e+00	-5.299117e+01
1.640000e-06	-9.067020e-07	-7.822048e-10	-6.459401e+00	-5.242339e+01
1.650000e-06	-8.616416e-07	-7.793541e-10	-6.138387e+00	-5.184354e+01
1.660000e-06	-8.164867e-07	-7.783809e-10	-5.816702e+00	-5.125178e+01
1.670000e-06	-7.712160e-07	-7.766200e-10	-5.494190e+00	-5.064839e+01
1.680000e-06	-7.258761e-07	-7.679966e-10	-5.171186e+00	-5.003365e+01
1.690000e-06	-6.804331e-07	-7.487225e-10	-4.847447e+00	-4.940786e+01
1.700000e-06	-6.349698e-07	-7.263509e-10	-4.523564e+00	-4.877128e+01
1.710000e-06	-5.895037e-07	-7.112386e-10	-4.199660e+00	-4.812406e+01
1.720000e-06	-5.439622e-07	-7.048064e-10	-3.875220e+00	-4.746621e+01
1.730000e-06	-4.984153e-07	-7.002127e-10	-3.550742e+00	-4.679755e+01
1.740000e-06	-4.529141e-07	-6.955908e-10	-3.226588e+00	-4.611770e+01
1.750000e-06	-4.073908e-07	-6.914134e-10	-2.902277e+00	-4.542604e+01
1.760000e-06	-3.618188e-07	-6.814975e-10	-2.577619e+00	-4.472171e+01
1.770000e-06	-3.162147e-07	-6.623526e-10	-2.252733e+00	-4.400364e+01
1.780000e-06	-2.704693e-07	-6.407750e-10	-1.926840e+00	-4.327050e+01
1.790000e-06	-2.246917e-07	-6.227317e-10	-1.600718e+00	-4.252082e+01
1.800000e-06	-1.789520e-07	-6.102021e-10	-1.274865e+00	-4.175296e+01
1.810000e-06	-1.332197e-07	-6.022641e-10	-9.490654e-01	-4.096518e+01
1.820000e-06	-8.747104e-08	-5.932032e-10	-6.231491e-01	-4.015572e+01
1.830000e-06	-4.174091e-08	-5.830036e-10	-2.973648e-01	-3.932282e+01
1.840000e-06	3.948599e-09	-5.708085e-10	2.813007e-02	-3.846481e+01
1.850000e-06	4.964310e-08	-5.558210e-10	3.536605e-01	-3.758014e+01
1.860000e-06	9.534114e-08	-5.381120e-10	6.792161e-01	-3.666745e+01
1.870000e-06	1.410205e-07	-5.209474e-10	1.004639e+00	-3.572559e+01
1.880000e-06	1.867022e-07	-5.063705e-10	1.330078e+00	-3.475368e+01
1.890000e-06	2.323529e-07	-4.923584e-10	1.655296e+00	-3.375110e+01
1.900000e-06	2.779910e-07	-4.751238e-10	1.980425e+00	-3.271750e+01
1.910000e-06	3.237305e-07	-4.576909e-10	2.306276e+00	-3.165280e+01
1.920000e-06	3.694642e-07	-4.429310e-10	2.632086e+00	-3.055717e+01
1.930000e-06	4.150981e-07	-4.284153e-10	2.957185e+00	-2.943099e+01
1.940000e-06	4.606441e-07	-4.090921e-10	3.281657e+00	-2.827480e+01
1.950000e-06	5.060957e-07	-3.878764e-10	3.605457e+00	-2.708927e+01
1.960000e-06	5.514991e-07	-3.705197e-10	3.928914e+00	-2.587515e+01
1.970000e-06	5.969247e-07	-3.553406e-10	4.252528e+00	-2.463320e+01
1.980000e-06	6.422764e-07	-3.374901e-10	4.575616e+00	-2.336414e+01
1.990000e-06	6.876118e-07	-3.160115e-10	4.898589e+00	-2.206863e+01
2.000000e-06	7.330120e-07	-2.948420e-10	5.222022e+00	-2.074719e+01
2.010000e-06	7.783174e-07	-2.751534e-10	5.544781e+00	-1.940023e+01
2.020000e-06	8.235389e-07	-2.545958e-10	5.866941e+00	-1.802797e+01
2.030000e-06	8.687113e-07	-2.324898e-10	6.188753e+00	-1.663049e+01
2.040000e-06	9.137893e-07	-2.120118e-10	6.509891e+00	-1.520772e+01
2.050000e-06	9.587778e-07	-1.920068e-10	6.830392e+00	-1.375944e+01
2.060000e-06	1.003677e-06	-1.698044e-10	7.150259e+00	-1.228535e+01
2.070000e-06	1.048556e-06	-1.440834e-10	7.469980e+00	-1.078508e+01
2.080000e-06	1.093346e-06	-1.181749e-10	7.789067e+00	-9.258245e+00
2.090000e-06	1.138057e-06	-9.472097e-11	8.107585e+00	-7.704522e+00
2.100000e-06	1.182688e-06	-7.271810e-11	8.425540e+00	-6.123665e+00
2.110000e-06	1.227141e-06	-5.020799e-11	8.742230e+00	-4.515578e+00
2.120000e-06	1.271476e-06	-2.655836e-11	9.058077e+00	-2.880352e+00
2.130000e-06	1.315745e-06	-2.791534e-12	9.373446e+00	-1.218314e+00
2.140000e-06	1.359985e-06	2.114436e-11	9.688618e+00	4.699536e-01
2.150000e-06	1.404169e-06	4.914622e-11	1.000339e+01	2.183585e+00
2.160000e-06	1.448210e-06	7.761875e-11	1.031714e+01	3.921427e+00
2.170000e-06	1.492164e-06	1.050335e-10	1.063027e+01	5.682038e+00
2.180000e-06	1.536108e-06	1.279434e-10	1.094333e+01	7.463708e+00
2.190000e-06	1.580013e-06	1.489671e-10	1.125611e+01	9.264476e+00
2.200000e-06	1.623882e-06	1.742124e-10	1.156864e+01	1.108217e+01
2.210000e-06	1.667708e-06	2.027942e-10	1.188085e+01	1.291443e+01
2.220000e-06	1.711500e-06	2.332933e-10	1.219283e+01	1.475878e+01
2.230000e-06	1.755220e-06	2.654954e-10	1.250430e+01	1.661265e+01
2.240000e-06	1.798888e-06	2.998080e-10	1.281539e+01	1.847341e+01
2.250000e-06	1.842498e-06	3.319320e-10	1.312607e+01	2.033847e+01
2.260000e-06	1.885991e-06	3.592403e-10	1.343592e+01	2.220523e+01
2.270000e-06	1.929340e-06	3.832265e-10	1.374474e+01	2.407117e+01
2.280000e-06	1.972551e-06	4.060898e-10	1.405258e+01	2.593388e+01
2.290000e-06	2.015573e-06	4.302161e-10	1.435906e+01	2.779102e+01
2.300000e-06	2.058257e-06	4.562923e-10	1.466315e+01	2.964039e+01
2.310000e-06	2.100638e-06	4.854774e-10	1.496508e+01	3.147986e+01
2.320000e-06	2.142699e-06	5.199076e-10	1.526472e+01	3.330743e+01
2.330000e-06	2.184415e-06	5.548089e-10	1.556191e+01	3.512117e+01
2.340000e-06	2.225841e-06	5.841964e-10	1.585703e+01	3.691923e+01
2.350000e-06	2.267017e-06	6.078149e-10	1.615037e+01	3.869981e+01
2.360000e-06	2.307867e-06	6.290664e-10	1.644139e+01	4.046113e+01
2.370000e-06	2.348411e-06	6.524989e-10	1.673023e+01	4.220145e+01
2.380000e-06	2.388767e-06	6.783530e-10	1.701772e+01	4.391903e+01
2.390000e-06	2.428965e-06	7.037511e-10	1.730409e+01	4.561213e+01
2.400000e-06	2.469091e-06	7.310397e-10	1.758996e+01	4.727903e+01
2.410000e-06	2.509177e-06	7.605412e-10	1.787553e+01	4.891801e+01
2.420000e-06	2.549170e-06	7.912588e-10	1.816045e+01	5.052740e+01
2.430000e-06	2.589081e-06	8.191093e-10	1.844477e+01	5.210555e+01
2.440000e-06	2.628877e-06	8.417991e-10	1.872828e+01	5.365093e+01
2.450000e-06	2.668500e-06	8.613276e-10	1.901056e+01	5.516209e+01
2.460000e-06	2.707999e-06	8.807055e-10	1.929195e+01	5.663774e+01
2.470000e-06	2.747299e-06	8.995374e-10	1.957193e+01	5.807675e+01
2.480000e-06	2.786342e-06	9.165571e-10	1.985007e+01	5.947822e+01
2.490000e-06	2.825290e-06	9.349688e-10	2.012754e+01	6.084144e+01
2.500000e-06	2.864035e-06	9.606985e-10	2.040356e+01	6.216599e+01
2.510000e-06	2.902438e-06	9.885998e-10	2.067715e+01	6.345170e+01
2.520000e-06	2.940675e-06	1.016006e-09	2.094955e+01	6.469867e+01
2.530000e-06	2.978786e-06	1.039431e-09	2.122105e+01	6.590723e+01
2.540000e-06	3.016756e-06	1.056285e-09	2.149156e+01	6.707800e+01
2.550000e-06	3.054530e-06	1.066232e-09	2.176066e+01	6.821178e+01
2.560000e-06	3.092096e-06	1.071691e-09	2.202828e+01	6.930958e+01
2.570000e-06	3.129431e-06	1.078032e-09	2.229426e+01	7.037254e+01
2.580000e-06	3.166492e-06	1.090103e-09	2.255828e+01	7.140191e+01
2.590000e-06	3.203295e-06	1.111833e-09	2.282047e+01	7.239899e+01
2.600000e-06	3.239842e-06	1.137994e-09	2.308084e+01	7.336507e+01
2.610000e-06	3.276183e-06	1.163439e-09	2.333973e+01	7.430142e+01
2.620000e-06	3.312300e-06	1.184289e-09	2.359703e+01	7.520923e+01
2.630000e-06	3.348253e-06	1.196699e-09	2.385316e+01	7.608955e+01
2.640000e-06	3.384137e-06	1.201487e-09	2.410880e+01	7.694330e+01
2.650000e-06	3.419922e-06	1.202566e-09	2.436374e+01	7.777125e+01
2.660000e-06	3.455594e-06	1.203874e-09	2.461787e+01	7.857397e+01
2.670000e-06	3.491077e-06	1.209697e-09	2.487065e+01	7.935188e+01
2.680000e-06	3.526195e-06	1.220890e-09	2.512083e+01	8.010524e+01
2.690000e-06	3.560961e-06	1.237941e-09	2.536851e+01	8.083415e+01
2.700000e-06	3.595450e-06	1.258797e-09	2.561420e+01	8.153863e+01
2.710000e-06	3.629460e-06	1.280182e-09	2.585650e+01	8.221859e+01
2.720000e-06	3.662883e-06	1.294219e-09	2.609461e+01	8.287392e+01
2.730000e-06	3.695850e-06	1.301761e-09	2.632946e+01	8.350449e+01
2.740000e-06	3.728502e-06	1.302165e-09	2.656208e+01	8.411020e+01
2.750000e-06	3.760859e-06	1.298530e-09	2.679259e+01	8.469100e+01
2.760000e-06	3.792968e-06	1.296566e-09	2.702134e+01	8.524696e+01
2.770000e-06	3.824931e-06	1.300340e-09	2.724905e+01	8.577823e+01
2.780000e-06	3.856808e-06	1.311676e-09	2.747614e+01	8.628512e+01
2.790000e-06	3.888510e-06	1.328129e-09	2.770198e+01	8.676803e+01
2.800000e-06	3.919998e-06	1.342202e-09	2.792631e+01	8.722754e+01
2.810000e-06	3.951235e-06	1.349760e-09	2.814884e+01	8.766432e+01
2.820000e-06	3.982107e-06	1.353969e-09	2.836878e+01	8.807917e+01
2.830000e-06	4.012570e-06	1.355112e-09	2.858580e+01	8.847297e+01
2.840000e-06	4.042739e-06	1.353195e-09	2.880072e+01	8.884665e+01
2.850000e-06	4.072717e-06	1.352819e-09	2.901428e+01	8.920120e+01
2.860000e-06	4.102423e-06	1.357320e-09	2.922591e+01	8.953761e+01
2.870000e-06	4.131921e-06	1.364203e-09	2.943606e+01	8.985686e+01
2.880000e-06	4.161171e-06	1.370894e-09	2.964444e+01	9.015988e+01
2.890000e-06	4.190134e-06	1.375185e-09	2.985077e+01	9.044756e+01
2.900000e-06	4.218845e-06	1.380244e-09	3.005531e+01	9.072070e+01
