# Temperatura_=_19.3
# Concentracion g/m^3_=_4090.0
# C_Vs_to_Am_M_A/Vsm_=_65563218390.804596
# pendiente_HvsI_1/m_=_3716.3
# ordenada_HvsI_A/m_=_1297.0
# frecuencia_Hz_=_135085.8790952169

Tiempo_(s)	Campo_(V.s)	Magnetizacion_(V.s)	Campo_(kA/m)	Magnetizacion_(A/m)
0.000000e+00	-5.407299e-06	-1.255364e-09	-3.838514e+01	-8.496027e+01
1.000000e-08	-5.407322e-06	-1.251569e-09	-3.838531e+01	-8.482588e+01
2.000000e-08	-5.407150e-06	-1.244919e-09	-3.838408e+01	-8.466146e+01
3.000000e-08	-5.406745e-06	-1.238163e-09	-3.838121e+01	-8.446734e+01
4.000000e-08	-5.405878e-06	-1.234343e-09	-3.837505e+01	-8.424551e+01
5.000000e-08	-5.404476e-06	-1.234539e-09	-3.836510e+01	-8.399962e+01
6.000000e-08	-5.402530e-06	-1.243415e-09	-3.835129e+01	-8.373490e+01
7.000000e-08	-5.399864e-06	-1.239913e-09	-3.833236e+01	-8.345806e+01
8.000000e-08	-5.396562e-06	-1.228617e-09	-3.830892e+01	-8.317703e+01
9.000000e-08	-5.392789e-06	-1.217037e-09	-3.828214e+01	-8.290068e+01
1.000000e-07	-5.388640e-06	-1.259001e-09	-3.825268e+01	-8.263849e+01
1.100000e-07	-5.384338e-06	-1.254697e-09	-3.822215e+01	-8.240015e+01
1.200000e-07	-5.379914e-06	-1.261375e-09	-3.819074e+01	-8.219514e+01
1.300000e-07	-5.375186e-06	-1.175986e-09	-3.815718e+01	-8.203233e+01
1.400000e-07	-5.370057e-06	-1.240875e-09	-3.812077e+01	-8.191956e+01
1.500000e-07	-5.364512e-06	-1.242746e-09	-3.808141e+01	-8.186329e+01
1.600000e-07	-5.358627e-06	-1.247808e-09	-3.803963e+01	-8.186826e+01
1.700000e-07	-5.352277e-06	-1.138621e-09	-3.799455e+01	-8.193727e+01
1.800000e-07	-5.345510e-06	-1.180325e-09	-3.794652e+01	-8.207095e+01
1.900000e-07	-5.338403e-06	-1.251939e-09	-3.789606e+01	-8.226778e+01
2.000000e-07	-5.331063e-06	-1.275854e-09	-3.784396e+01	-8.252401e+01
2.100000e-07	-5.323496e-06	-1.233001e-09	-3.779024e+01	-8.283380e+01
2.200000e-07	-5.315626e-06	-1.240382e-09	-3.773438e+01	-8.318945e+01
2.300000e-07	-5.307363e-06	-1.319557e-09	-3.767572e+01	-8.358162e+01
2.400000e-07	-5.298759e-06	-1.303190e-09	-3.761464e+01	-8.399974e+01
2.500000e-07	-5.289616e-06	-1.317500e-09	-3.754974e+01	-8.443234e+01
2.600000e-07	-5.279658e-06	-1.328740e-09	-3.747904e+01	-8.486755e+01
2.700000e-07	-5.269220e-06	-1.402073e-09	-3.740495e+01	-8.529352e+01
2.800000e-07	-5.258373e-06	-1.355481e-09	-3.732795e+01	-8.569885e+01
2.900000e-07	-5.247051e-06	-1.355083e-09	-3.724758e+01	-8.607302e+01
3.000000e-07	-5.235258e-06	-1.349408e-09	-3.716386e+01	-8.640679e+01
3.100000e-07	-5.223141e-06	-1.387820e-09	-3.707785e+01	-8.669247e+01
3.200000e-07	-5.210583e-06	-1.327673e-09	-3.698870e+01	-8.692417e+01
3.300000e-07	-5.197551e-06	-1.365836e-09	-3.689619e+01	-8.709797e+01
3.400000e-07	-5.184172e-06	-1.365052e-09	-3.680121e+01	-8.721198e+01
3.500000e-07	-5.170455e-06	-1.388957e-09	-3.670384e+01	-8.726630e+01
3.600000e-07	-5.156357e-06	-1.340767e-09	-3.660376e+01	-8.726296e+01
3.700000e-07	-5.141899e-06	-1.381301e-09	-3.650113e+01	-8.720566e+01
3.800000e-07	-5.126860e-06	-1.345618e-09	-3.639437e+01	-8.709959e+01
3.900000e-07	-5.111188e-06	-1.341557e-09	-3.628312e+01	-8.695106e+01
4.000000e-07	-5.095042e-06	-1.335979e-09	-3.616850e+01	-8.676720e+01
4.100000e-07	-5.078393e-06	-1.363183e-09	-3.605032e+01	-8.655560e+01
4.200000e-07	-5.061408e-06	-1.336209e-09	-3.592974e+01	-8.632390e+01
4.300000e-07	-5.044231e-06	-1.340102e-09	-3.580781e+01	-8.607949e+01
4.400000e-07	-5.026830e-06	-1.360236e-09	-3.568428e+01	-8.582916e+01
4.500000e-07	-5.009109e-06	-1.348775e-09	-3.555848e+01	-8.557889e+01
4.600000e-07	-4.990976e-06	-1.328226e-09	-3.542976e+01	-8.533356e+01
4.700000e-07	-4.972492e-06	-1.325840e-09	-3.529855e+01	-8.509689e+01
4.800000e-07	-4.953539e-06	-1.336167e-09	-3.516400e+01	-8.487130e+01
4.900000e-07	-4.934117e-06	-1.314088e-09	-3.502613e+01	-8.465795e+01
5.000000e-07	-4.914513e-06	-1.318104e-09	-3.488697e+01	-8.445681e+01
5.100000e-07	-4.894698e-06	-1.305409e-09	-3.474631e+01	-8.426674e+01
5.200000e-07	-4.874582e-06	-1.319963e-09	-3.460351e+01	-8.408570e+01
5.300000e-07	-4.854223e-06	-1.310901e-09	-3.445899e+01	-8.391098e+01
5.400000e-07	-4.833730e-06	-1.318373e-09	-3.431351e+01	-8.373938e+01
5.500000e-07	-4.812929e-06	-1.297470e-09	-3.416585e+01	-8.356751e+01
5.600000e-07	-4.791682e-06	-1.318765e-09	-3.401502e+01	-8.339204e+01
5.700000e-07	-4.770087e-06	-1.306378e-09	-3.386172e+01	-8.320987e+01
5.800000e-07	-4.748188e-06	-1.300308e-09	-3.370627e+01	-8.301840e+01
5.900000e-07	-4.725907e-06	-1.274868e-09	-3.354810e+01	-8.281563e+01
6.000000e-07	-4.703280e-06	-1.286516e-09	-3.338748e+01	-8.260030e+01
6.100000e-07	-4.680367e-06	-1.275595e-09	-3.322482e+01	-8.237196e+01
6.200000e-07	-4.657100e-06	-1.288026e-09	-3.305966e+01	-8.213096e+01
6.300000e-07	-4.633528e-06	-1.275209e-09	-3.289233e+01	-8.187841e+01
6.400000e-07	-4.609747e-06	-1.283133e-09	-3.272350e+01	-8.161610e+01
6.500000e-07	-4.585714e-06	-1.280924e-09	-3.255290e+01	-8.134636e+01
6.600000e-07	-4.561501e-06	-1.286437e-09	-3.238102e+01	-8.107194e+01
6.700000e-07	-4.537046e-06	-1.259908e-09	-3.220742e+01	-8.079579e+01
6.800000e-07	-4.512083e-06	-1.255857e-09	-3.203021e+01	-8.052089e+01
6.900000e-07	-4.486515e-06	-1.254738e-09	-3.184871e+01	-8.025009e+01
7.000000e-07	-4.460429e-06	-1.254767e-09	-3.166354e+01	-7.998592e+01
7.100000e-07	-4.433881e-06	-1.243782e-09	-3.147508e+01	-7.973046e+01
7.200000e-07	-4.406932e-06	-1.246430e-09	-3.128377e+01	-7.948523e+01
7.300000e-07	-4.379603e-06	-1.249402e-09	-3.108977e+01	-7.925110e+01
7.400000e-07	-4.351977e-06	-1.250116e-09	-3.089366e+01	-7.902828e+01
7.500000e-07	-4.324163e-06	-1.244162e-09	-3.069622e+01	-7.881630e+01
7.600000e-07	-4.296168e-06	-1.232089e-09	-3.049748e+01	-7.861409e+01
7.700000e-07	-4.267929e-06	-1.231162e-09	-3.029702e+01	-7.842001e+01
7.800000e-07	-4.239478e-06	-1.227258e-09	-3.009506e+01	-7.823204e+01
7.900000e-07	-4.210766e-06	-1.220975e-09	-2.989124e+01	-7.804781e+01
8.000000e-07	-4.181671e-06	-1.207804e-09	-2.968469e+01	-7.786483e+01
8.100000e-07	-4.152197e-06	-1.210662e-09	-2.947547e+01	-7.768061e+01
8.200000e-07	-4.122432e-06	-1.206434e-09	-2.926417e+01	-7.749280e+01
8.300000e-07	-4.092465e-06	-1.205788e-09	-2.905144e+01	-7.729930e+01
8.400000e-07	-4.062260e-06	-1.191838e-09	-2.883703e+01	-7.709843e+01
8.500000e-07	-4.031749e-06	-1.194403e-09	-2.862044e+01	-7.688893e+01
8.600000e-07	-4.000983e-06	-1.194549e-09	-2.840203e+01	-7.667009e+01
8.700000e-07	-3.969989e-06	-1.201537e-09	-2.818201e+01	-7.644170e+01
8.800000e-07	-3.938684e-06	-1.185718e-09	-2.795979e+01	-7.620407e+01
8.900000e-07	-3.907103e-06	-1.177190e-09	-2.773560e+01	-7.595800e+01
9.000000e-07	-3.875379e-06	-1.164645e-09	-2.751040e+01	-7.570464e+01
9.100000e-07	-3.843551e-06	-1.166192e-09	-2.728446e+01	-7.544545e+01
9.200000e-07	-3.811580e-06	-1.157493e-09	-2.705751e+01	-7.518209e+01
9.300000e-07	-3.779341e-06	-1.161934e-09	-2.682865e+01	-7.491625e+01
9.400000e-07	-3.746748e-06	-1.168416e-09	-2.659728e+01	-7.464959e+01
9.500000e-07	-3.713902e-06	-1.182192e-09	-2.636412e+01	-7.438360e+01
9.600000e-07	-3.680710e-06	-1.177406e-09	-2.612849e+01	-7.411951e+01
9.700000e-07	-3.647031e-06	-1.163008e-09	-2.588942e+01	-7.385820e+01
9.800000e-07	-3.612906e-06	-1.143136e-09	-2.564716e+01	-7.360018e+01
9.900000e-07	-3.578374e-06	-1.136558e-09	-2.540203e+01	-7.334553e+01
1.000000e-06	-3.543482e-06	-1.131817e-09	-2.515435e+01	-7.309396e+01
1.010000e-06	-3.508288e-06	-1.130099e-09	-2.490451e+01	-7.284477e+01
1.020000e-06	-3.472757e-06	-1.132380e-09	-2.465228e+01	-7.259696e+01
1.030000e-06	-3.437006e-06	-1.140557e-09	-2.439850e+01	-7.234929e+01
1.040000e-06	-3.401146e-06	-1.144337e-09	-2.414393e+01	-7.210036e+01
1.050000e-06	-3.365147e-06	-1.135623e-09	-2.388839e+01	-7.184872e+01
1.060000e-06	-3.329037e-06	-1.121219e-09	-2.363205e+01	-7.159298e+01
1.070000e-06	-3.292771e-06	-1.108707e-09	-2.337461e+01	-7.133189e+01
1.080000e-06	-3.256246e-06	-1.102879e-09	-2.311532e+01	-7.106442e+01
1.090000e-06	-3.219448e-06	-1.096113e-09	-2.285410e+01	-7.078986e+01
1.100000e-06	-3.182381e-06	-1.096884e-09	-2.259097e+01	-7.050782e+01
1.110000e-06	-3.145072e-06	-1.097994e-09	-2.232612e+01	-7.021829e+01
1.120000e-06	-3.107509e-06	-1.101198e-09	-2.205948e+01	-6.992164e+01
1.130000e-06	-3.069739e-06	-1.091592e-09	-2.179136e+01	-6.961853e+01
1.140000e-06	-3.031857e-06	-1.081879e-09	-2.152244e+01	-6.930997e+01
1.150000e-06	-2.993786e-06	-1.071731e-09	-2.125218e+01	-6.899713e+01
1.160000e-06	-2.955541e-06	-1.069975e-09	-2.098069e+01	-6.868135e+01
1.170000e-06	-2.917112e-06	-1.065054e-09	-2.070789e+01	-6.836401e+01
1.180000e-06	-2.878437e-06	-1.060744e-09	-2.043335e+01	-6.804643e+01
1.190000e-06	-2.839504e-06	-1.051408e-09	-2.015697e+01	-6.772977e+01
1.200000e-06	-2.800329e-06	-1.051412e-09	-1.987888e+01	-6.741498e+01
1.210000e-06	-2.760971e-06	-1.049842e-09	-1.959948e+01	-6.710271e+01
1.220000e-06	-2.721411e-06	-1.047669e-09	-1.931865e+01	-6.679326e+01
1.230000e-06	-2.681751e-06	-1.038522e-09	-1.903712e+01	-6.648657e+01
1.240000e-06	-2.642056e-06	-1.034136e-09	-1.875533e+01	-6.618219e+01
1.250000e-06	-2.602258e-06	-1.031264e-09	-1.847282e+01	-6.587934e+01
1.260000e-06	-2.562300e-06	-1.030200e-09	-1.818917e+01	-6.557692e+01
1.270000e-06	-2.522211e-06	-1.022590e-09	-1.790458e+01	-6.527359e+01
1.280000e-06	-2.482110e-06	-1.014969e-09	-1.761991e+01	-6.496785e+01
1.290000e-06	-2.441952e-06	-1.008051e-09	-1.733484e+01	-6.465814e+01
1.300000e-06	-2.401563e-06	-1.001016e-09	-1.704813e+01	-6.434293e+01
1.310000e-06	-2.360944e-06	-9.913330e-10	-1.675978e+01	-6.402080e+01
1.320000e-06	-2.319997e-06	-9.845591e-10	-1.646911e+01	-6.369054e+01
1.330000e-06	-2.278759e-06	-9.824318e-10	-1.617638e+01	-6.335124e+01
1.340000e-06	-2.237335e-06	-9.817284e-10	-1.588231e+01	-6.300232e+01
1.350000e-06	-2.195560e-06	-9.801926e-10	-1.558576e+01	-6.264355e+01
1.360000e-06	-2.153492e-06	-9.740528e-10	-1.528713e+01	-6.227513e+01
1.370000e-06	-2.111179e-06	-9.637194e-10	-1.498676e+01	-6.189760e+01
1.380000e-06	-2.068614e-06	-9.506807e-10	-1.468460e+01	-6.151183e+01
1.390000e-06	-2.025837e-06	-9.406238e-10	-1.438094e+01	-6.111897e+01
1.400000e-06	-1.982781e-06	-9.322129e-10	-1.407529e+01	-6.072037e+01
1.410000e-06	-1.939516e-06	-9.282372e-10	-1.376817e+01	-6.031747e+01
1.420000e-06	-1.896097e-06	-9.253241e-10	-1.345994e+01	-5.991173e+01
1.430000e-06	-1.852498e-06	-9.256190e-10	-1.315045e+01	-5.950448e+01
1.440000e-06	-1.808783e-06	-9.236765e-10	-1.284013e+01	-5.909691e+01
1.450000e-06	-1.764961e-06	-9.181395e-10	-1.252904e+01	-5.868988e+01
1.460000e-06	-1.721094e-06	-9.061391e-10	-1.221764e+01	-5.828394e+01
1.470000e-06	-1.677156e-06	-8.954867e-10	-1.190573e+01	-5.787922e+01
1.480000e-06	-1.633151e-06	-8.851051e-10	-1.159336e+01	-5.747544e+01
1.490000e-06	-1.589131e-06	-8.798574e-10	-1.128087e+01	-5.707190e+01
1.500000e-06	-1.545034e-06	-8.766013e-10	-1.096783e+01	-5.666750e+01
1.510000e-06	-1.500807e-06	-8.777986e-10	-1.065388e+01	-5.626079e+01
1.520000e-06	-1.456519e-06	-8.762796e-10	-1.033949e+01	-5.585003e+01
1.530000e-06	-1.412161e-06	-8.689627e-10	-1.002460e+01	-5.543330e+01
1.540000e-06	-1.367718e-06	-8.559075e-10	-9.709106e+00	-5.500858e+01
1.550000e-06	-1.323260e-06	-8.414565e-10	-9.393511e+00	-5.457385e+01
1.560000e-06	-1.278739e-06	-8.275634e-10	-9.077468e+00	-5.412722e+01
1.570000e-06	-1.234092e-06	-8.212562e-10	-8.760528e+00	-5.366699e+01
1.580000e-06	-1.189286e-06	-8.165861e-10	-8.442458e+00	-5.319174e+01
1.590000e-06	-1.144387e-06	-8.103272e-10	-8.123735e+00	-5.270041e+01
1.600000e-06	-1.099428e-06	-8.037986e-10	-7.804583e+00	-5.219236e+01
1.610000e-06	-1.054396e-06	-7.996176e-10	-7.484906e+00	-5.166733e+01
1.620000e-06	-1.009234e-06	-7.945253e-10	-7.164313e+00	-5.112549e+01
1.630000e-06	-9.640089e-07	-7.865504e-10	-6.843272e+00	-5.056737e+01
1.640000e-06	-9.188058e-07	-7.749023e-10	-6.522386e+00	-4.999384e+01
1.650000e-06	-8.735233e-07	-7.639207e-10	-6.200936e+00	-4.940599e+01
1.660000e-06	-8.281965e-07	-7.519107e-10	-5.879172e+00	-4.880508e+01
1.670000e-06	-7.827819e-07	-7.387045e-10	-5.556784e+00	-4.819241e+01
1.680000e-06	-7.373290e-07	-7.266602e-10	-5.234124e+00	-4.756921e+01
1.690000e-06	-6.918319e-07	-7.171015e-10	-4.911151e+00	-4.693656e+01
1.700000e-06	-6.462255e-07	-7.103077e-10	-4.587402e+00	-4.629528e+01
1.710000e-06	-6.005427e-07	-7.038646e-10	-4.263111e+00	-4.564584e+01
1.720000e-06	-5.547909e-07	-6.989556e-10	-3.938330e+00	-4.498829e+01
1.730000e-06	-5.090132e-07	-6.919190e-10	-3.613365e+00	-4.432225e+01
1.740000e-06	-4.632026e-07	-6.817342e-10	-3.288166e+00	-4.364688e+01
1.750000e-06	-4.175027e-07	-6.643657e-10	-2.963753e+00	-4.296087e+01
1.760000e-06	-3.717725e-07	-6.467685e-10	-2.639125e+00	-4.226250e+01
1.770000e-06	-3.258755e-07	-6.291917e-10	-2.313314e+00	-4.154968e+01
1.780000e-06	-2.799471e-07	-6.149971e-10	-1.987278e+00	-4.082008e+01
1.790000e-06	-2.340713e-07	-6.047305e-10	-1.661617e+00	-4.007113e+01
1.800000e-06	-1.882182e-07	-5.971681e-10	-1.336117e+00	-3.930021e+01
1.810000e-06	-1.423866e-07	-5.871414e-10	-1.010769e+00	-3.850475e+01
1.820000e-06	-9.652057e-08	-5.770981e-10	-6.851768e-01	-3.768227e+01
1.830000e-06	-5.057925e-08	-5.628177e-10	-3.590501e-01	-3.683057e+01
1.840000e-06	-4.671528e-09	-5.447521e-10	-3.316208e-02	-3.594774e+01
1.850000e-06	4.120802e-08	-5.270051e-10	2.925260e-01	-3.503227e+01
1.860000e-06	8.714210e-08	-5.136336e-10	6.186012e-01	-3.408309e+01
1.870000e-06	1.329973e-07	-5.043549e-10	9.441165e-01	-3.309958e+01
1.880000e-06	1.787764e-07	-4.968056e-10	1.269091e+00	-3.208157e+01
1.890000e-06	2.246296e-07	-4.835406e-10	1.594593e+00	-3.102934e+01
1.900000e-06	2.704432e-07	-4.648758e-10	1.919812e+00	-2.994353e+01
1.910000e-06	3.162180e-07	-4.435123e-10	2.244757e+00	-2.882511e+01
1.920000e-06	3.620320e-07	-4.222094e-10	2.569980e+00	-2.767528e+01
1.930000e-06	4.078605e-07	-4.005289e-10	2.895305e+00	-2.649540e+01
1.940000e-06	4.537363e-07	-3.794200e-10	3.220967e+00	-2.528688e+01
1.950000e-06	4.995375e-07	-3.615646e-10	3.546099e+00	-2.405111e+01
1.960000e-06	5.451287e-07	-3.483466e-10	3.869740e+00	-2.278937e+01
1.970000e-06	5.907437e-07	-3.340837e-10	4.193550e+00	-2.150275e+01
1.980000e-06	6.363729e-07	-3.132384e-10	4.517461e+00	-2.019213e+01
1.990000e-06	6.818975e-07	-2.882661e-10	4.840630e+00	-1.885811e+01
2.000000e-06	7.274208e-07	-2.627688e-10	5.163789e+00	-1.750105e+01
2.010000e-06	7.728987e-07	-2.391789e-10	5.486626e+00	-1.612101e+01
2.020000e-06	8.182837e-07	-2.162568e-10	5.808803e+00	-1.471785e+01
2.030000e-06	8.636346e-07	-1.951349e-10	6.130739e+00	-1.329123e+01
2.040000e-06	9.089142e-07	-1.738860e-10	6.452167e+00	-1.184069e+01
2.050000e-06	9.540912e-07	-1.533913e-10	6.772868e+00	-1.036573e+01
2.060000e-06	9.991812e-07	-1.301748e-10	7.092952e+00	-8.865863e+00
2.070000e-06	1.044145e-06	-1.038597e-10	7.412136e+00	-7.340725e+00
2.080000e-06	1.089044e-06	-7.636737e-11	7.730867e+00	-5.790126e+00
2.090000e-06	1.133912e-06	-5.068963e-11	8.049372e+00	-4.214123e+00
2.100000e-06	1.178637e-06	-2.571457e-11	8.366869e+00	-2.613068e+00
2.110000e-06	1.223310e-06	-1.041837e-12	8.683993e+00	-9.876465e-01
2.120000e-06	1.267846e-06	2.475023e-11	9.000141e+00	6.611066e-01
2.130000e-06	1.312279e-06	4.925951e-11	9.315562e+00	2.331809e+00
2.140000e-06	1.356722e-06	7.213029e-11	9.631048e+00	4.022752e+00
2.150000e-06	1.401006e-06	9.602691e-11	9.945411e+00	5.731935e+00
2.160000e-06	1.445223e-06	1.224534e-10	1.025930e+01	7.457118e+00
2.170000e-06	1.489400e-06	1.493236e-10	1.057290e+01	9.195886e+00
2.180000e-06	1.533472e-06	1.748974e-10	1.088576e+01	1.094571e+01
2.190000e-06	1.577528e-06	1.987193e-10	1.119850e+01	1.270403e+01
2.200000e-06	1.621549e-06	2.255192e-10	1.151099e+01	1.446832e+01
2.210000e-06	1.665499e-06	2.544644e-10	1.182299e+01	1.623612e+01
2.220000e-06	1.709426e-06	2.837876e-10	1.213481e+01	1.800513e+01
2.230000e-06	1.753297e-06	3.129684e-10	1.244624e+01	1.977324e+01
2.240000e-06	1.797078e-06	3.424978e-10	1.275703e+01	2.153852e+01
2.250000e-06	1.840727e-06	3.710788e-10	1.306689e+01	2.329926e+01
2.260000e-06	1.884279e-06	3.984190e-10	1.337605e+01	2.505393e+01
2.270000e-06	1.927707e-06	4.246601e-10	1.368434e+01	2.680117e+01
2.280000e-06	1.970957e-06	4.495916e-10	1.399136e+01	2.853977e+01
2.290000e-06	2.014067e-06	4.770096e-10	1.429739e+01	3.026856e+01
2.300000e-06	2.056935e-06	5.049160e-10	1.460169e+01	3.198644e+01
2.310000e-06	2.099563e-06	5.325908e-10	1.490430e+01	3.369225e+01
2.320000e-06	2.141931e-06	5.620109e-10	1.520506e+01	3.538476e+01
2.330000e-06	2.184015e-06	5.903508e-10	1.550381e+01	3.706260e+01
2.340000e-06	2.225913e-06	6.139383e-10	1.580123e+01	3.872425e+01
2.350000e-06	2.267563e-06	6.341535e-10	1.609689e+01	4.036800e+01
2.360000e-06	2.308811e-06	6.540077e-10	1.638970e+01	4.199197e+01
2.370000e-06	2.349662e-06	6.771978e-10	1.667970e+01	4.359407e+01
2.380000e-06	2.390328e-06	7.026220e-10	1.696837e+01	4.517210e+01
2.390000e-06	2.430797e-06	7.292495e-10	1.725566e+01	4.672373e+01
2.400000e-06	2.471107e-06	7.552597e-10	1.754181e+01	4.824660e+01
2.410000e-06	2.511297e-06	7.801614e-10	1.782710e+01	4.973840e+01
2.420000e-06	2.551333e-06	8.044940e-10	1.811131e+01	5.119688e+01
2.430000e-06	2.591306e-06	8.276280e-10	1.839507e+01	5.262000e+01
2.440000e-06	2.631203e-06	8.473736e-10	1.867829e+01	5.400594e+01
2.450000e-06	2.670993e-06	8.657286e-10	1.896075e+01	5.535324e+01
2.460000e-06	2.710727e-06	8.870114e-10	1.924282e+01	5.666077e+01
2.470000e-06	2.750350e-06	9.096583e-10	1.952409e+01	5.792783e+01
2.480000e-06	2.789735e-06	9.277370e-10	1.980367e+01	5.915415e+01
2.490000e-06	2.828963e-06	9.426875e-10	2.008214e+01	6.033987e+01
2.500000e-06	2.867890e-06	9.611213e-10	2.035848e+01	6.148558e+01
2.510000e-06	2.906504e-06	9.842213e-10	2.063259e+01	6.259220e+01
2.520000e-06	2.944921e-06	1.005725e-09	2.090530e+01	6.366100e+01
2.530000e-06	2.983038e-06	1.023619e-09	2.117589e+01	6.469348e+01
2.540000e-06	3.020957e-06	1.041019e-09	2.144506e+01	6.569133e+01
2.550000e-06	3.058724e-06	1.057596e-09	2.171316e+01	6.665630e+01
2.560000e-06	3.096417e-06	1.070267e-09	2.198073e+01	6.759016e+01
2.570000e-06	3.134009e-06	1.079067e-09	2.224759e+01	6.849459e+01
2.580000e-06	3.171335e-06	1.088133e-09	2.251256e+01	6.937111e+01
2.590000e-06	3.208324e-06	1.100498e-09	2.277514e+01	7.022103e+01
2.600000e-06	3.245016e-06	1.116741e-09	2.303561e+01	7.104541e+01
2.610000e-06	3.281421e-06	1.131307e-09	2.329404e+01	7.184502e+01
2.620000e-06	3.317606e-06	1.143100e-09	2.355090e+01	7.262033e+01
2.630000e-06	3.353739e-06	1.156848e-09	2.380740e+01	7.337155e+01
2.640000e-06	3.389755e-06	1.170667e-09	2.406307e+01	7.409865e+01
2.650000e-06	3.425647e-06	1.179198e-09	2.431786e+01	7.480140e+01
2.660000e-06	3.461438e-06	1.181664e-09	2.457193e+01	7.547945e+01
2.670000e-06	3.497104e-06	1.184545e-09	2.482512e+01	7.613236e+01
2.680000e-06	3.532490e-06	1.190660e-09	2.507632e+01	7.675973e+01
2.690000e-06	3.567483e-06	1.198952e-09	2.532472e+01	7.736121e+01
2.700000e-06	3.602102e-06	1.210162e-09	2.557047e+01	7.793661e+01
2.710000e-06	3.636297e-06	1.224717e-09	2.581321e+01	7.848594e+01
2.720000e-06	3.670039e-06	1.238510e-09	2.605274e+01	7.900942e+01
2.730000e-06	3.703372e-06	1.250422e-09	2.628936e+01	7.950755e+01
2.740000e-06	3.736352e-06	1.257870e-09	2.652348e+01	7.998108e+01
2.750000e-06	3.768863e-06	1.260249e-09	2.675427e+01	8.043101e+01
2.760000e-06	3.801086e-06	1.261908e-09	2.698301e+01	8.085855e+01
2.770000e-06	3.833230e-06	1.263541e-09	2.721119e+01	8.126509e+01
2.780000e-06	3.865228e-06	1.268039e-09	2.743834e+01	8.165208e+01
2.790000e-06	3.897023e-06	1.275597e-09	2.766405e+01	8.202106e+01
2.800000e-06	3.928602e-06	1.281585e-09	2.788822e+01	8.237349e+01
2.810000e-06	3.959965e-06	1.285039e-09	2.811086e+01	8.271074e+01
2.820000e-06	3.991064e-06	1.287997e-09	2.833162e+01	8.303400e+01
2.830000e-06	4.021834e-06	1.290501e-09	2.855005e+01	8.334424e+01
2.840000e-06	4.052248e-06	1.292557e-09	2.876595e+01	8.364213e+01
2.850000e-06	4.082354e-06	1.295345e-09	2.897967e+01	8.392809e+01
2.860000e-06	4.112242e-06	1.298436e-09	2.919183e+01	8.420221e+01
2.870000e-06	4.141911e-06	1.302540e-09	2.940245e+01	8.446434e+01
2.880000e-06	4.171386e-06	1.307538e-09	2.961168e+01	8.471406e+01
2.890000e-06	4.200558e-06	1.307169e-09	2.981877e+01	8.495078e+01
2.900000e-06	4.229336e-06	1.304972e-09	3.002306e+01	8.517380e+01
