# Temperatura_=_16.1
# Concentracion g/m^3_=_4090.0
# C_Vs_to_Am_M_A/Vsm_=_65563218390.804596
# pendiente_HvsI_1/m_=_3716.3
# ordenada_HvsI_A/m_=_1297.0
# frecuencia_Hz_=_135087.34349707165

Tiempo_(s)	Campo_(V.s)	Magnetizacion_(V.s)	Campo_(kA/m)	Magnetizacion_(A/m)
0.000000e+00	-5.407474e-06	-1.343068e-09	-3.839152e+01	-8.853551e+01
1.000000e-08	-5.407383e-06	-1.338598e-09	-3.839088e+01	-8.838340e+01
2.000000e-08	-5.407050e-06	-1.334123e-09	-3.838852e+01	-8.821734e+01
3.000000e-08	-5.406439e-06	-1.331569e-09	-3.838418e+01	-8.803784e+01
4.000000e-08	-5.405486e-06	-1.332424e-09	-3.837741e+01	-8.784612e+01
5.000000e-08	-5.404049e-06	-1.345370e-09	-3.836721e+01	-8.764412e+01
6.000000e-08	-5.402014e-06	-1.368860e-09	-3.835276e+01	-8.743448e+01
7.000000e-08	-5.399272e-06	-1.346353e-09	-3.833330e+01	-8.722045e+01
8.000000e-08	-5.395862e-06	-1.275679e-09	-3.830908e+01	-8.700584e+01
9.000000e-08	-5.392016e-06	-1.270868e-09	-3.828178e+01	-8.679490e+01
1.000000e-07	-5.387831e-06	-1.383400e-09	-3.825206e+01	-8.659212e+01
1.100000e-07	-5.383396e-06	-1.380330e-09	-3.822058e+01	-8.640209e+01
1.200000e-07	-5.378780e-06	-1.265307e-09	-3.818780e+01	-8.622932e+01
1.300000e-07	-5.373937e-06	-1.255375e-09	-3.815342e+01	-8.607802e+01
1.400000e-07	-5.368639e-06	-1.397420e-09	-3.811581e+01	-8.595191e+01
1.500000e-07	-5.362893e-06	-1.421537e-09	-3.807501e+01	-8.585405e+01
1.600000e-07	-5.356809e-06	-1.267621e-09	-3.803182e+01	-8.578670e+01
1.700000e-07	-5.350294e-06	-1.176949e-09	-3.798556e+01	-8.575116e+01
1.800000e-07	-5.343433e-06	-1.325835e-09	-3.793685e+01	-8.574767e+01
1.900000e-07	-5.336166e-06	-1.362810e-09	-3.788526e+01	-8.577542e+01
2.000000e-07	-5.328565e-06	-1.284997e-09	-3.783129e+01	-8.583247e+01
2.100000e-07	-5.320743e-06	-1.259023e-09	-3.777576e+01	-8.591585e+01
2.200000e-07	-5.312673e-06	-1.376260e-09	-3.771846e+01	-8.602159e+01
2.300000e-07	-5.304344e-06	-1.354545e-09	-3.765933e+01	-8.614492e+01
2.400000e-07	-5.295599e-06	-1.279976e-09	-3.759725e+01	-8.628035e+01
2.500000e-07	-5.286252e-06	-1.337389e-09	-3.753088e+01	-8.642195e+01
2.600000e-07	-5.276275e-06	-1.377227e-09	-3.746005e+01	-8.656351e+01
2.700000e-07	-5.265719e-06	-1.287476e-09	-3.738511e+01	-8.669880e+01
2.800000e-07	-5.254681e-06	-1.270626e-09	-3.730674e+01	-8.682177e+01
2.900000e-07	-5.243211e-06	-1.359995e-09	-3.722531e+01	-8.692680e+01
3.000000e-07	-5.231303e-06	-1.323764e-09	-3.714076e+01	-8.700892e+01
3.100000e-07	-5.219006e-06	-1.270266e-09	-3.705346e+01	-8.706392e+01
3.200000e-07	-5.206330e-06	-1.304363e-09	-3.696346e+01	-8.708858e+01
3.300000e-07	-5.193264e-06	-1.372327e-09	-3.687069e+01	-8.708067e+01
3.400000e-07	-5.179856e-06	-1.310573e-09	-3.677550e+01	-8.703911e+01
3.500000e-07	-5.166044e-06	-1.318874e-09	-3.667744e+01	-8.696388e+01
3.600000e-07	-5.151804e-06	-1.331272e-09	-3.657634e+01	-8.685603e+01
3.700000e-07	-5.137071e-06	-1.315619e-09	-3.647174e+01	-8.671761e+01
3.800000e-07	-5.121885e-06	-1.275851e-09	-3.636393e+01	-8.655148e+01
3.900000e-07	-5.106130e-06	-1.309175e-09	-3.625207e+01	-8.636122e+01
4.000000e-07	-5.089626e-06	-1.298753e-09	-3.613490e+01	-8.615091e+01
4.100000e-07	-5.072775e-06	-1.285288e-09	-3.601526e+01	-8.592493e+01
4.200000e-07	-5.055718e-06	-1.306385e-09	-3.589415e+01	-8.568779e+01
4.300000e-07	-5.038385e-06	-1.336766e-09	-3.577110e+01	-8.544389e+01
4.400000e-07	-5.020718e-06	-1.300611e-09	-3.564567e+01	-8.519734e+01
4.500000e-07	-5.002718e-06	-1.287764e-09	-3.551787e+01	-8.495183e+01
4.600000e-07	-4.984478e-06	-1.288316e-09	-3.538838e+01	-8.471044e+01
4.700000e-07	-4.965953e-06	-1.289126e-09	-3.525685e+01	-8.447558e+01
4.800000e-07	-4.947051e-06	-1.273221e-09	-3.512265e+01	-8.424894e+01
4.900000e-07	-4.927740e-06	-1.267452e-09	-3.498555e+01	-8.403141e+01
5.000000e-07	-4.908004e-06	-1.265689e-09	-3.484543e+01	-8.382315e+01
5.100000e-07	-4.888003e-06	-1.280716e-09	-3.470343e+01	-8.362363e+01
5.200000e-07	-4.867877e-06	-1.280442e-09	-3.456054e+01	-8.343173e+01
5.300000e-07	-4.847473e-06	-1.262943e-09	-3.441567e+01	-8.324582e+01
5.400000e-07	-4.826706e-06	-1.262314e-09	-3.426823e+01	-8.306392e+01
5.500000e-07	-4.805641e-06	-1.273585e-09	-3.411868e+01	-8.288387e+01
5.600000e-07	-4.784282e-06	-1.269087e-09	-3.396704e+01	-8.270343e+01
5.700000e-07	-4.762542e-06	-1.253503e-09	-3.381269e+01	-8.252047e+01
5.800000e-07	-4.740436e-06	-1.247503e-09	-3.365575e+01	-8.233305e+01
5.900000e-07	-4.718050e-06	-1.240779e-09	-3.349681e+01	-8.213959e+01
6.000000e-07	-4.695345e-06	-1.252371e-09	-3.333561e+01	-8.193893e+01
6.100000e-07	-4.672289e-06	-1.254904e-09	-3.317192e+01	-8.173039e+01
6.200000e-07	-4.648951e-06	-1.244770e-09	-3.300623e+01	-8.151377e+01
6.300000e-07	-4.625362e-06	-1.239415e-09	-3.283875e+01	-8.128941e+01
6.400000e-07	-4.601513e-06	-1.261180e-09	-3.266943e+01	-8.105810e+01
6.500000e-07	-4.577400e-06	-1.252763e-09	-3.249824e+01	-8.082101e+01
6.600000e-07	-4.553061e-06	-1.233691e-09	-3.232544e+01	-8.057967e+01
6.700000e-07	-4.528468e-06	-1.221811e-09	-3.215083e+01	-8.033580e+01
6.800000e-07	-4.503461e-06	-1.232346e-09	-3.197329e+01	-8.009121e+01
6.900000e-07	-4.477985e-06	-1.226179e-09	-3.179242e+01	-7.984774e+01
7.000000e-07	-4.451885e-06	-1.218324e-09	-3.160712e+01	-7.960705e+01
7.100000e-07	-4.425167e-06	-1.205875e-09	-3.141743e+01	-7.937060e+01
7.200000e-07	-4.398038e-06	-1.215962e-09	-3.122482e+01	-7.913953e+01
7.300000e-07	-4.370626e-06	-1.221842e-09	-3.103020e+01	-7.891458e+01
7.400000e-07	-4.342991e-06	-1.216253e-09	-3.083400e+01	-7.869605e+01
7.500000e-07	-4.315035e-06	-1.197548e-09	-3.063552e+01	-7.848382e+01
7.600000e-07	-4.286876e-06	-1.197194e-09	-3.043559e+01	-7.827732e+01
7.700000e-07	-4.258624e-06	-1.198119e-09	-3.023501e+01	-7.807557e+01
7.800000e-07	-4.230188e-06	-1.192125e-09	-3.003313e+01	-7.787725e+01
7.900000e-07	-4.201440e-06	-1.179272e-09	-2.982903e+01	-7.768076e+01
8.000000e-07	-4.172252e-06	-1.178403e-09	-2.962180e+01	-7.748433e+01
8.100000e-07	-4.142708e-06	-1.184255e-09	-2.941205e+01	-7.728613e+01
8.200000e-07	-4.112957e-06	-1.184394e-09	-2.920082e+01	-7.708433e+01
8.300000e-07	-4.082982e-06	-1.172156e-09	-2.898801e+01	-7.687723e+01
8.400000e-07	-4.052697e-06	-1.161991e-09	-2.877299e+01	-7.666335e+01
8.500000e-07	-4.022150e-06	-1.164610e-09	-2.855612e+01	-7.644151e+01
8.600000e-07	-3.991329e-06	-1.166559e-09	-2.833730e+01	-7.621087e+01
8.700000e-07	-3.960222e-06	-1.159255e-09	-2.811645e+01	-7.597097e+01
8.800000e-07	-3.929013e-06	-1.147064e-09	-2.789487e+01	-7.572178e+01
8.900000e-07	-3.897520e-06	-1.144739e-09	-2.767128e+01	-7.546365e+01
9.000000e-07	-3.865648e-06	-1.142107e-09	-2.744500e+01	-7.519728e+01
9.100000e-07	-3.833621e-06	-1.135155e-09	-2.721762e+01	-7.492373e+01
9.200000e-07	-3.801472e-06	-1.125390e-09	-2.698937e+01	-7.464426e+01
9.300000e-07	-3.769059e-06	-1.132429e-09	-2.675924e+01	-7.436033e+01
9.400000e-07	-3.736359e-06	-1.140760e-09	-2.652708e+01	-7.407347e+01
9.500000e-07	-3.703328e-06	-1.142044e-09	-2.629257e+01	-7.378522e+01
9.600000e-07	-3.669902e-06	-1.129002e-09	-2.605526e+01	-7.349700e+01
9.700000e-07	-3.636043e-06	-1.118302e-09	-2.581487e+01	-7.321010e+01
9.800000e-07	-3.601677e-06	-1.107367e-09	-2.557088e+01	-7.292556e+01
9.900000e-07	-3.567076e-06	-1.099095e-09	-2.532522e+01	-7.264413e+01
1.000000e-06	-3.532130e-06	-1.089498e-09	-2.507712e+01	-7.236626e+01
1.010000e-06	-3.496773e-06	-1.092218e-09	-2.482609e+01	-7.209206e+01
1.020000e-06	-3.461216e-06	-1.099288e-09	-2.457365e+01	-7.182133e+01
1.030000e-06	-3.425474e-06	-1.103683e-09	-2.431989e+01	-7.155358e+01
1.040000e-06	-3.389583e-06	-1.096064e-09	-2.406507e+01	-7.128808e+01
1.050000e-06	-3.353512e-06	-1.087946e-09	-2.380898e+01	-7.102387e+01
1.060000e-06	-3.317227e-06	-1.080202e-09	-2.355137e+01	-7.075989e+01
1.070000e-06	-3.280766e-06	-1.072177e-09	-2.329251e+01	-7.049503e+01
1.080000e-06	-3.244142e-06	-1.061140e-09	-2.303249e+01	-7.022817e+01
1.090000e-06	-3.207346e-06	-1.056972e-09	-2.277124e+01	-6.995827e+01
1.100000e-06	-3.170334e-06	-1.060351e-09	-2.250847e+01	-6.968446e+01
1.110000e-06	-3.133064e-06	-1.064653e-09	-2.224386e+01	-6.940602e+01
1.120000e-06	-3.095541e-06	-1.059328e-09	-2.197746e+01	-6.912249e+01
1.130000e-06	-3.057739e-06	-1.049430e-09	-2.170908e+01	-6.883363e+01
1.140000e-06	-3.019770e-06	-1.043243e-09	-2.143951e+01	-6.853945e+01
1.150000e-06	-2.981677e-06	-1.037143e-09	-2.116906e+01	-6.824020e+01
1.160000e-06	-2.943325e-06	-1.028090e-09	-2.089677e+01	-6.793633e+01
1.170000e-06	-2.904673e-06	-1.019741e-09	-2.062235e+01	-6.762844e+01
1.180000e-06	-2.865821e-06	-1.017926e-09	-2.034651e+01	-6.731726e+01
1.190000e-06	-2.826815e-06	-1.019414e-09	-2.006958e+01	-6.700355e+01
1.200000e-06	-2.787726e-06	-1.019988e-09	-1.979206e+01	-6.668809e+01
1.210000e-06	-2.748449e-06	-1.013325e-09	-1.951321e+01	-6.637155e+01
1.220000e-06	-2.708872e-06	-1.007735e-09	-1.923222e+01	-6.605453e+01
1.230000e-06	-2.669144e-06	-1.001759e-09	-1.895016e+01	-6.573742e+01
1.240000e-06	-2.629271e-06	-9.963309e-10	-1.866708e+01	-6.542044e+01
1.250000e-06	-2.589305e-06	-9.891814e-10	-1.838333e+01	-6.510358e+01
1.260000e-06	-2.549316e-06	-9.854000e-10	-1.809942e+01	-6.478662e+01
1.270000e-06	-2.509207e-06	-9.840775e-10	-1.781465e+01	-6.446913e+01
1.280000e-06	-2.468968e-06	-9.836493e-10	-1.752897e+01	-6.415046e+01
1.290000e-06	-2.428631e-06	-9.754776e-10	-1.724259e+01	-6.382986e+01
1.300000e-06	-2.388174e-06	-9.643768e-10	-1.695536e+01	-6.350644e+01
1.310000e-06	-2.347490e-06	-9.541248e-10	-1.666651e+01	-6.317928e+01
1.320000e-06	-2.306536e-06	-9.485006e-10	-1.637574e+01	-6.284745e+01
1.330000e-06	-2.265322e-06	-9.433753e-10	-1.608314e+01	-6.251011e+01
1.340000e-06	-2.223749e-06	-9.400085e-10	-1.578798e+01	-6.216653e+01
1.350000e-06	-2.181898e-06	-9.387051e-10	-1.549085e+01	-6.181612e+01
1.360000e-06	-2.139855e-06	-9.361498e-10	-1.519236e+01	-6.145853e+01
1.370000e-06	-2.097518e-06	-9.279682e-10	-1.489178e+01	-6.109360e+01
1.380000e-06	-2.054996e-06	-9.182463e-10	-1.458989e+01	-6.072141e+01
1.390000e-06	-2.012198e-06	-9.082025e-10	-1.428604e+01	-6.034226e+01
1.400000e-06	-1.969193e-06	-8.984385e-10	-1.398071e+01	-5.995664e+01
1.410000e-06	-1.926061e-06	-8.903619e-10	-1.367448e+01	-5.956524e+01
1.420000e-06	-1.882693e-06	-8.852732e-10	-1.336658e+01	-5.916882e+01
1.430000e-06	-1.839265e-06	-8.828747e-10	-1.305825e+01	-5.876824e+01
1.440000e-06	-1.795719e-06	-8.803315e-10	-1.274910e+01	-5.836435e+01
1.450000e-06	-1.751983e-06	-8.752097e-10	-1.243858e+01	-5.795794e+01
1.460000e-06	-1.708124e-06	-8.672625e-10	-1.212719e+01	-5.754968e+01
1.470000e-06	-1.664274e-06	-8.573833e-10	-1.181587e+01	-5.714010e+01
1.480000e-06	-1.620375e-06	-8.470086e-10	-1.150420e+01	-5.672946e+01
1.490000e-06	-1.576337e-06	-8.370864e-10	-1.119154e+01	-5.631782e+01
1.500000e-06	-1.532222e-06	-8.284501e-10	-1.087834e+01	-5.590493e+01
1.510000e-06	-1.487986e-06	-8.244940e-10	-1.056428e+01	-5.549030e+01
1.520000e-06	-1.443711e-06	-8.212504e-10	-1.024993e+01	-5.507315e+01
1.530000e-06	-1.399409e-06	-8.166415e-10	-9.935405e+00	-5.465248e+01
1.540000e-06	-1.354993e-06	-8.097665e-10	-9.620065e+00	-5.422708e+01
1.550000e-06	-1.310510e-06	-8.001126e-10	-9.304247e+00	-5.379559e+01
1.560000e-06	-1.265950e-06	-7.917648e-10	-8.987886e+00	-5.335656e+01
1.570000e-06	-1.221277e-06	-7.868770e-10	-8.670718e+00	-5.290850e+01
1.580000e-06	-1.176452e-06	-7.776351e-10	-8.352471e+00	-5.244996e+01
1.590000e-06	-1.131504e-06	-7.673146e-10	-8.033354e+00	-5.197957e+01
1.600000e-06	-1.086544e-06	-7.564952e-10	-7.714153e+00	-5.149611e+01
1.610000e-06	-1.041588e-06	-7.473675e-10	-7.394975e+00	-5.099854e+01
1.620000e-06	-9.965023e-07	-7.363068e-10	-7.074882e+00	-5.048606e+01
1.630000e-06	-9.512827e-07	-7.270400e-10	-6.753836e+00	-4.995807e+01
1.640000e-06	-9.060053e-07	-7.219269e-10	-6.432380e+00	-4.941426e+01
1.650000e-06	-8.607705e-07	-7.176460e-10	-6.111225e+00	-4.885450e+01
1.660000e-06	-8.154392e-07	-7.085111e-10	-5.789386e+00	-4.827891e+01
1.670000e-06	-7.699136e-07	-6.978700e-10	-5.466167e+00	-4.768775e+01
1.680000e-06	-7.244544e-07	-6.875024e-10	-5.143420e+00	-4.708139e+01
1.690000e-06	-6.789430e-07	-6.770905e-10	-4.820302e+00	-4.646028e+01
1.700000e-06	-6.333240e-07	-6.667621e-10	-4.496420e+00	-4.582488e+01
1.710000e-06	-5.876659e-07	-6.558821e-10	-4.172260e+00	-4.517556e+01
1.720000e-06	-5.420772e-07	-6.473707e-10	-3.848593e+00	-4.451261e+01
1.730000e-06	-4.965792e-07	-6.410892e-10	-3.525571e+00	-4.383614e+01
1.740000e-06	-4.509518e-07	-6.330799e-10	-3.201629e+00	-4.314604e+01
1.750000e-06	-4.052126e-07	-6.217043e-10	-2.876894e+00	-4.244198e+01
1.760000e-06	-3.594219e-07	-6.092466e-10	-2.551793e+00	-4.172340e+01
1.770000e-06	-3.136364e-07	-5.955948e-10	-2.226729e+00	-4.098945e+01
1.780000e-06	-2.677870e-07	-5.805168e-10	-1.901211e+00	-4.023907e+01
1.790000e-06	-2.218326e-07	-5.634996e-10	-1.574949e+00	-3.947098e+01
1.800000e-06	-1.759033e-07	-5.479094e-10	-1.248864e+00	-3.868373e+01
1.810000e-06	-1.299687e-07	-5.368367e-10	-9.227405e-01	-3.787576e+01
1.820000e-06	-8.401515e-08	-5.297719e-10	-5.964836e-01	-3.704543e+01
1.830000e-06	-3.809334e-08	-5.207724e-10	-2.704519e-01	-3.619111e+01
1.840000e-06	7.769031e-09	-5.114345e-10	5.515791e-02	-3.531120e+01
1.850000e-06	5.358820e-08	-5.006791e-10	3.804610e-01	-3.440425e+01
1.860000e-06	9.947673e-08	-4.870899e-10	7.062564e-01	-3.346894e+01
1.870000e-06	1.454235e-07	-4.696277e-10	1.032466e+00	-3.250416e+01
1.880000e-06	1.912870e-07	-4.510927e-10	1.358083e+00	-3.150907e+01
1.890000e-06	2.371224e-07	-4.319111e-10	1.683501e+00	-3.048305e+01
1.900000e-06	2.829212e-07	-4.108176e-10	2.008660e+00	-2.942575e+01
1.910000e-06	3.287103e-07	-3.907100e-10	2.333749e+00	-2.833709e+01
1.920000e-06	3.744375e-07	-3.732234e-10	2.658400e+00	-2.721722e+01
1.930000e-06	4.201223e-07	-3.582232e-10	2.982748e+00	-2.606650e+01
1.940000e-06	4.658657e-07	-3.436903e-10	3.307514e+00	-2.488545e+01
1.950000e-06	5.116070e-07	-3.246857e-10	3.632264e+00	-2.367471e+01
1.960000e-06	5.572709e-07	-3.027177e-10	3.956464e+00	-2.243502e+01
1.970000e-06	6.028650e-07	-2.804039e-10	4.280170e+00	-2.116714e+01
1.980000e-06	6.484155e-07	-2.605965e-10	4.603565e+00	-1.987182e+01
1.990000e-06	6.939099e-07	-2.396512e-10	4.926562e+00	-1.854975e+01
2.000000e-06	7.393872e-07	-2.169975e-10	5.249439e+00	-1.720154e+01
2.010000e-06	7.848389e-07	-1.981967e-10	5.572133e+00	-1.582771e+01
2.020000e-06	8.302630e-07	-1.824853e-10	5.894630e+00	-1.442867e+01
2.030000e-06	8.755784e-07	-1.637795e-10	6.216357e+00	-1.300472e+01
2.040000e-06	9.208147e-07	-1.392565e-10	6.537522e+00	-1.155604e+01
2.050000e-06	9.659787e-07	-1.134824e-10	6.858174e+00	-1.008278e+01
2.060000e-06	1.010994e-06	-9.062427e-11	7.177773e+00	-8.585012e+00
2.070000e-06	1.055970e-06	-6.751198e-11	7.497085e+00	-7.062826e+00
2.080000e-06	1.100930e-06	-3.952804e-11	7.816288e+00	-5.516342e+00
2.090000e-06	1.145694e-06	-1.200003e-11	8.134104e+00	-3.945765e+00
2.100000e-06	1.190299e-06	1.001276e-11	8.450783e+00	-2.351421e+00
2.110000e-06	1.234846e-06	2.904206e-11	8.767057e+00	-7.337971e-01
2.120000e-06	1.279317e-06	5.070212e-11	9.082786e+00	9.064259e-01
2.130000e-06	1.323767e-06	7.635923e-11	9.398369e+00	2.568353e+00
2.140000e-06	1.368154e-06	1.055413e-10	9.713505e+00	4.250859e+00
2.150000e-06	1.412421e-06	1.326778e-10	1.002778e+01	5.952587e+00
2.160000e-06	1.456643e-06	1.567665e-10	1.034175e+01	7.671952e+00
2.170000e-06	1.500792e-06	1.845298e-10	1.065519e+01	9.407161e+00
2.180000e-06	1.544839e-06	2.130315e-10	1.096791e+01	1.115624e+01
2.190000e-06	1.588858e-06	2.371390e-10	1.128044e+01	1.291704e+01
2.200000e-06	1.632856e-06	2.586227e-10	1.159281e+01	1.468734e+01
2.210000e-06	1.676769e-06	2.819769e-10	1.190458e+01	1.646482e+01
2.220000e-06	1.720625e-06	3.110184e-10	1.221594e+01	1.824711e+01
2.230000e-06	1.764420e-06	3.428861e-10	1.252688e+01	2.003187e+01
2.240000e-06	1.808183e-06	3.722333e-10	1.283758e+01	2.181680e+01
2.250000e-06	1.851852e-06	3.978892e-10	1.314762e+01	2.359967e+01
2.260000e-06	1.895308e-06	4.254188e-10	1.345615e+01	2.537832e+01
2.270000e-06	1.938633e-06	4.541789e-10	1.376374e+01	2.715073e+01
2.280000e-06	1.981835e-06	4.821920e-10	1.407047e+01	2.891497e+01
2.290000e-06	2.024841e-06	5.087815e-10	1.437579e+01	3.066925e+01
2.300000e-06	2.067635e-06	5.328795e-10	1.467962e+01	3.241184e+01
2.310000e-06	2.110164e-06	5.563443e-10	1.498157e+01	3.414114e+01
2.320000e-06	2.152371e-06	5.813813e-10	1.528122e+01	3.585560e+01
2.330000e-06	2.194271e-06	6.078677e-10	1.557870e+01	3.755372e+01
2.340000e-06	2.235948e-06	6.328557e-10	1.587459e+01	3.923403e+01
2.350000e-06	2.277343e-06	6.557492e-10	1.616849e+01	4.089507e+01
2.360000e-06	2.318393e-06	6.790375e-10	1.645993e+01	4.253538e+01
2.370000e-06	2.359196e-06	7.039086e-10	1.674962e+01	4.415346e+01
2.380000e-06	2.399848e-06	7.283633e-10	1.703824e+01	4.574781e+01
2.390000e-06	2.440316e-06	7.503035e-10	1.732555e+01	4.731689e+01
2.400000e-06	2.480601e-06	7.701331e-10	1.761156e+01	4.885918e+01
2.410000e-06	2.520765e-06	7.931942e-10	1.789671e+01	5.037314e+01
2.420000e-06	2.560801e-06	8.206099e-10	1.818096e+01	5.185727e+01
2.430000e-06	2.600706e-06	8.463449e-10	1.846427e+01	5.331016e+01
2.440000e-06	2.640494e-06	8.677775e-10	1.874675e+01	5.473045e+01
2.450000e-06	2.680176e-06	8.863485e-10	1.902848e+01	5.611694e+01
2.460000e-06	2.719773e-06	9.053942e-10	1.930962e+01	5.746857e+01
2.470000e-06	2.759207e-06	9.220192e-10	1.958958e+01	5.878447e+01
2.480000e-06	2.798367e-06	9.376464e-10	1.986761e+01	6.006400e+01
2.490000e-06	2.837321e-06	9.543839e-10	2.014417e+01	6.130672e+01
2.500000e-06	2.876047e-06	9.741234e-10	2.041911e+01	6.251244e+01
2.510000e-06	2.914605e-06	9.978881e-10	2.069286e+01	6.368122e+01
2.520000e-06	2.953018e-06	1.022601e-09	2.096559e+01	6.481334e+01
2.530000e-06	2.991217e-06	1.042704e-09	2.123679e+01	6.590929e+01
2.540000e-06	3.029239e-06	1.056261e-09	2.150673e+01	6.696973e+01
2.550000e-06	3.067121e-06	1.066471e-09	2.177569e+01	6.799551e+01
2.560000e-06	3.104729e-06	1.075992e-09	2.204269e+01	6.898756e+01
2.570000e-06	3.142100e-06	1.087529e-09	2.230802e+01	6.994691e+01
2.580000e-06	3.179289e-06	1.100163e-09	2.257205e+01	7.087459e+01
2.590000e-06	3.216248e-06	1.115959e-09	2.283444e+01	7.177164e+01
2.600000e-06	3.253007e-06	1.135751e-09	2.309542e+01	7.263907e+01
2.610000e-06	3.289456e-06	1.155717e-09	2.335420e+01	7.347778e+01
2.620000e-06	3.325628e-06	1.172992e-09	2.361101e+01	7.428859e+01
2.630000e-06	3.361680e-06	1.184782e-09	2.386697e+01	7.507221e+01
2.640000e-06	3.397680e-06	1.191475e-09	2.412256e+01	7.582922e+01
2.650000e-06	3.433597e-06	1.194901e-09	2.437756e+01	7.656008e+01
2.660000e-06	3.469443e-06	1.196765e-09	2.463206e+01	7.726515e+01
2.670000e-06	3.505117e-06	1.201912e-09	2.488533e+01	7.794470e+01
2.680000e-06	3.540493e-06	1.209879e-09	2.513649e+01	7.859897e+01
2.690000e-06	3.575532e-06	1.222737e-09	2.538526e+01	7.922812e+01
2.700000e-06	3.610032e-06	1.239852e-09	2.563020e+01	7.983235e+01
2.710000e-06	3.643910e-06	1.255072e-09	2.587072e+01	8.041189e+01
2.720000e-06	3.677465e-06	1.264847e-09	2.610895e+01	8.096703e+01
2.730000e-06	3.710592e-06	1.271653e-09	2.634415e+01	8.149816e+01
2.740000e-06	3.743253e-06	1.276384e-09	2.657603e+01	8.200576e+01
2.750000e-06	3.775637e-06	1.279227e-09	2.680595e+01	8.249045e+01
2.760000e-06	3.807764e-06	1.281656e-09	2.703404e+01	8.295298e+01
2.770000e-06	3.839810e-06	1.286112e-09	2.726156e+01	8.339419e+01
2.780000e-06	3.871767e-06	1.295609e-09	2.748844e+01	8.381506e+01
2.790000e-06	3.903554e-06	1.306101e-09	2.771412e+01	8.421662e+01
2.800000e-06	3.935122e-06	1.312306e-09	2.793825e+01	8.459996e+01
2.810000e-06	3.966450e-06	1.316401e-09	2.816067e+01	8.496622e+01
2.820000e-06	3.997618e-06	1.320471e-09	2.838195e+01	8.531650e+01
2.830000e-06	4.028434e-06	1.323891e-09	2.860073e+01	8.565186e+01
2.840000e-06	4.058763e-06	1.325598e-09	2.881606e+01	8.597327e+01
2.850000e-06	4.088827e-06	1.326557e-09	2.902951e+01	8.628162e+01
2.860000e-06	4.118659e-06	1.330863e-09	2.924131e+01	8.657764e+01
2.870000e-06	4.148307e-06	1.337951e-09	2.945180e+01	8.686193e+01
2.880000e-06	4.177780e-06	1.342459e-09	2.966105e+01	8.713495e+01
2.890000e-06	4.206888e-06	1.344066e-09	2.986771e+01	8.739700e+01
2.900000e-06	4.235577e-06	1.346400e-09	3.007139e+01	8.764825e+01
