# Temperatura_=_-1.3
# Concentracion g/m^3_=_4090.0
# C_Vs_to_Am_M_A/Vsm_=_65563218390.804596
# pendiente_HvsI_1/m_=_3716.3
# ordenada_HvsI_A/m_=_1297.0
# frecuencia_Hz_=_135072.2150025473

Tiempo_(s)	Campo_(V.s)	Magnetizacion_(V.s)	Campo_(kA/m)	Magnetizacion_(A/m)
0.000000e+00	-5.412082e-06	-2.132654e-09	-3.839081e+01	-1.420545e+02
1.000000e-08	-5.412257e-06	-2.134718e-09	-3.839205e+01	-1.419053e+02
2.000000e-08	-5.412182e-06	-2.132745e-09	-3.839152e+01	-1.417411e+02
3.000000e-08	-5.411856e-06	-2.125870e-09	-3.838921e+01	-1.415635e+02
4.000000e-08	-5.411150e-06	-2.123928e-09	-3.838420e+01	-1.413748e+02
5.000000e-08	-5.409962e-06	-2.128660e-09	-3.837578e+01	-1.411781e+02
6.000000e-08	-5.408193e-06	-2.131740e-09	-3.836323e+01	-1.409773e+02
7.000000e-08	-5.405783e-06	-2.134278e-09	-3.834613e+01	-1.407768e+02
8.000000e-08	-5.402779e-06	-2.123466e-09	-3.832483e+01	-1.405818e+02
9.000000e-08	-5.399075e-06	-2.093020e-09	-3.829855e+01	-1.403975e+02
1.000000e-07	-5.394877e-06	-2.100267e-09	-3.826877e+01	-1.402293e+02
1.100000e-07	-5.390574e-06	-2.170632e-09	-3.823825e+01	-1.400825e+02
1.200000e-07	-5.386146e-06	-2.164798e-09	-3.820684e+01	-1.399621e+02
1.300000e-07	-5.381381e-06	-2.069254e-09	-3.817303e+01	-1.398724e+02
1.400000e-07	-5.376226e-06	-2.067103e-09	-3.813646e+01	-1.398170e+02
1.500000e-07	-5.370680e-06	-2.165395e-09	-3.809713e+01	-1.397985e+02
1.600000e-07	-5.364729e-06	-2.180785e-09	-3.805491e+01	-1.398184e+02
1.700000e-07	-5.358336e-06	-2.042804e-09	-3.800956e+01	-1.398768e+02
1.800000e-07	-5.351634e-06	-2.032237e-09	-3.796202e+01	-1.399729e+02
1.900000e-07	-5.344675e-06	-2.168941e-09	-3.791266e+01	-1.401041e+02
2.000000e-07	-5.337392e-06	-2.189951e-09	-3.786099e+01	-1.402671e+02
2.100000e-07	-5.329794e-06	-2.078531e-09	-3.780710e+01	-1.404571e+02
2.200000e-07	-5.321941e-06	-2.086354e-09	-3.775139e+01	-1.406683e+02
2.300000e-07	-5.313883e-06	-2.202381e-09	-3.769424e+01	-1.408944e+02
2.400000e-07	-5.305435e-06	-2.184301e-09	-3.763431e+01	-1.411283e+02
2.500000e-07	-5.296420e-06	-2.121178e-09	-3.757036e+01	-1.413627e+02
2.600000e-07	-5.286755e-06	-2.186905e-09	-3.750180e+01	-1.415902e+02
2.700000e-07	-5.276414e-06	-2.259556e-09	-3.742845e+01	-1.418037e+02
2.800000e-07	-5.265458e-06	-2.181887e-09	-3.735073e+01	-1.419965e+02
2.900000e-07	-5.254047e-06	-2.150396e-09	-3.726979e+01	-1.421627e+02
3.000000e-07	-5.242280e-06	-2.216931e-09	-3.718632e+01	-1.422973e+02
3.100000e-07	-5.230121e-06	-2.199148e-09	-3.710007e+01	-1.423963e+02
3.200000e-07	-5.217578e-06	-2.125947e-09	-3.701109e+01	-1.424570e+02
3.300000e-07	-5.204681e-06	-2.171359e-09	-3.691961e+01	-1.424780e+02
3.400000e-07	-5.191400e-06	-2.222406e-09	-3.682540e+01	-1.424591e+02
3.500000e-07	-5.177706e-06	-2.172576e-09	-3.672826e+01	-1.424011e+02
3.600000e-07	-5.163657e-06	-2.156579e-09	-3.662860e+01	-1.423063e+02
3.700000e-07	-5.149226e-06	-2.196220e-09	-3.652623e+01	-1.421777e+02
3.800000e-07	-5.134241e-06	-2.161936e-09	-3.641994e+01	-1.420192e+02
3.900000e-07	-5.118753e-06	-2.128575e-09	-3.631007e+01	-1.418353e+02
4.000000e-07	-5.102774e-06	-2.166853e-09	-3.619673e+01	-1.416306e+02
4.100000e-07	-5.086223e-06	-2.172927e-09	-3.607932e+01	-1.414103e+02
4.200000e-07	-5.069369e-06	-2.133101e-09	-3.595977e+01	-1.411791e+02
4.300000e-07	-5.052234e-06	-2.160096e-09	-3.583822e+01	-1.409415e+02
4.400000e-07	-5.034713e-06	-2.192234e-09	-3.571393e+01	-1.407017e+02
4.500000e-07	-5.016902e-06	-2.148153e-09	-3.558759e+01	-1.404629e+02
4.600000e-07	-4.998823e-06	-2.123357e-09	-3.545934e+01	-1.402280e+02
4.700000e-07	-4.980461e-06	-2.144270e-09	-3.532909e+01	-1.399986e+02
4.800000e-07	-4.961674e-06	-2.141706e-09	-3.519583e+01	-1.397758e+02
4.900000e-07	-4.942459e-06	-2.122097e-09	-3.505952e+01	-1.395599e+02
5.000000e-07	-4.922914e-06	-2.127988e-09	-3.492088e+01	-1.393502e+02
5.100000e-07	-4.903086e-06	-2.127071e-09	-3.478023e+01	-1.391455e+02
5.200000e-07	-4.883032e-06	-2.127086e-09	-3.463798e+01	-1.389441e+02
5.300000e-07	-4.862741e-06	-2.128288e-09	-3.449404e+01	-1.387439e+02
5.400000e-07	-4.842186e-06	-2.117144e-09	-3.434823e+01	-1.385427e+02
5.500000e-07	-4.821225e-06	-2.103399e-09	-3.419955e+01	-1.383381e+02
5.600000e-07	-4.799930e-06	-2.115467e-09	-3.404849e+01	-1.381278e+02
5.700000e-07	-4.778380e-06	-2.116643e-09	-3.389563e+01	-1.379100e+02
5.800000e-07	-4.756530e-06	-2.100923e-09	-3.374063e+01	-1.376832e+02
5.900000e-07	-4.734409e-06	-2.087007e-09	-3.358372e+01	-1.374462e+02
6.000000e-07	-4.711886e-06	-2.087397e-09	-3.342395e+01	-1.371985e+02
6.100000e-07	-4.688969e-06	-2.089764e-09	-3.326138e+01	-1.369402e+02
6.200000e-07	-4.665714e-06	-2.088114e-09	-3.309642e+01	-1.366719e+02
6.300000e-07	-4.642152e-06	-2.076566e-09	-3.292929e+01	-1.363948e+02
6.400000e-07	-4.618389e-06	-2.077090e-09	-3.276072e+01	-1.361103e+02
6.500000e-07	-4.594404e-06	-2.086157e-09	-3.259058e+01	-1.358204e+02
6.600000e-07	-4.570208e-06	-2.080051e-09	-3.241894e+01	-1.355272e+02
6.700000e-07	-4.545733e-06	-2.060355e-09	-3.224533e+01	-1.352329e+02
6.800000e-07	-4.520856e-06	-2.054120e-09	-3.206887e+01	-1.349397e+02
6.900000e-07	-4.495547e-06	-2.055672e-09	-3.188934e+01	-1.346495e+02
7.000000e-07	-4.469668e-06	-2.050687e-09	-3.170576e+01	-1.343641e+02
7.100000e-07	-4.443181e-06	-2.041255e-09	-3.151788e+01	-1.340849e+02
7.200000e-07	-4.416334e-06	-2.036225e-09	-3.132744e+01	-1.338126e+02
7.300000e-07	-4.389144e-06	-2.040689e-09	-3.113456e+01	-1.335477e+02
7.400000e-07	-4.361598e-06	-2.043545e-09	-3.093916e+01	-1.332900e+02
7.500000e-07	-4.333827e-06	-2.033559e-09	-3.074217e+01	-1.330389e+02
7.600000e-07	-4.305820e-06	-2.018879e-09	-3.054350e+01	-1.327932e+02
7.700000e-07	-4.277642e-06	-2.017880e-09	-3.034362e+01	-1.325514e+02
7.800000e-07	-4.249232e-06	-2.017817e-09	-3.014209e+01	-1.323118e+02
7.900000e-07	-4.220506e-06	-2.010374e-09	-2.993832e+01	-1.320723e+02
8.000000e-07	-4.191433e-06	-2.002167e-09	-2.973209e+01	-1.318309e+02
8.100000e-07	-4.162017e-06	-2.002386e-09	-2.952343e+01	-1.315854e+02
8.200000e-07	-4.132329e-06	-2.003616e-09	-2.931284e+01	-1.313340e+02
8.300000e-07	-4.102389e-06	-2.000759e-09	-2.910046e+01	-1.310750e+02
8.400000e-07	-4.072189e-06	-1.989089e-09	-2.888623e+01	-1.308071e+02
8.500000e-07	-4.041736e-06	-1.979956e-09	-2.867021e+01	-1.305294e+02
8.600000e-07	-4.010987e-06	-1.978052e-09	-2.845209e+01	-1.302413e+02
8.700000e-07	-3.979979e-06	-1.977287e-09	-2.823214e+01	-1.299430e+02
8.800000e-07	-3.948818e-06	-1.969651e-09	-2.801110e+01	-1.296347e+02
8.900000e-07	-3.917396e-06	-1.963203e-09	-2.778820e+01	-1.293174e+02
9.000000e-07	-3.885756e-06	-1.959735e-09	-2.756376e+01	-1.289921e+02
9.100000e-07	-3.853919e-06	-1.959496e-09	-2.733792e+01	-1.286605e+02
9.200000e-07	-3.821848e-06	-1.952868e-09	-2.711043e+01	-1.283239e+02
9.300000e-07	-3.789604e-06	-1.946325e-09	-2.688171e+01	-1.279843e+02
9.400000e-07	-3.757138e-06	-1.945261e-09	-2.665141e+01	-1.276432e+02
9.500000e-07	-3.724369e-06	-1.948081e-09	-2.641896e+01	-1.273021e+02
9.600000e-07	-3.691241e-06	-1.946239e-09	-2.618396e+01	-1.269624e+02
9.700000e-07	-3.657698e-06	-1.936169e-09	-2.594602e+01	-1.266251e+02
9.800000e-07	-3.623677e-06	-1.925167e-09	-2.570469e+01	-1.262909e+02
9.900000e-07	-3.589279e-06	-1.917622e-09	-2.546069e+01	-1.259600e+02
1.000000e-06	-3.554510e-06	-1.911784e-09	-2.521406e+01	-1.256323e+02
1.010000e-06	-3.519320e-06	-1.906634e-09	-2.496443e+01	-1.253073e+02
1.020000e-06	-3.483835e-06	-1.903886e-09	-2.471272e+01	-1.249840e+02
1.030000e-06	-3.448137e-06	-1.904021e-09	-2.445949e+01	-1.246613e+02
1.040000e-06	-3.412304e-06	-1.903806e-09	-2.420531e+01	-1.243378e+02
1.050000e-06	-3.376337e-06	-1.898111e-09	-2.395018e+01	-1.240119e+02
1.060000e-06	-3.340209e-06	-1.887118e-09	-2.369390e+01	-1.236818e+02
1.070000e-06	-3.303918e-06	-1.875449e-09	-2.343647e+01	-1.233461e+02
1.080000e-06	-3.267389e-06	-1.867496e-09	-2.317735e+01	-1.230031e+02
1.090000e-06	-3.230638e-06	-1.861918e-09	-2.291666e+01	-1.226516e+02
1.100000e-06	-3.193635e-06	-1.858707e-09	-2.265417e+01	-1.222905e+02
1.110000e-06	-3.156377e-06	-1.855964e-09	-2.238988e+01	-1.219190e+02
1.120000e-06	-3.118879e-06	-1.854387e-09	-2.212389e+01	-1.215368e+02
1.130000e-06	-3.081131e-06	-1.850357e-09	-2.185612e+01	-1.211439e+02
1.140000e-06	-3.043213e-06	-1.841579e-09	-2.158715e+01	-1.207405e+02
1.150000e-06	-3.005178e-06	-1.830083e-09	-2.131735e+01	-1.203273e+02
1.160000e-06	-2.967034e-06	-1.822377e-09	-2.104677e+01	-1.199053e+02
1.170000e-06	-2.928711e-06	-1.815540e-09	-2.077493e+01	-1.194757e+02
1.180000e-06	-2.890070e-06	-1.806754e-09	-2.050082e+01	-1.190396e+02
1.190000e-06	-2.851173e-06	-1.797035e-09	-2.022491e+01	-1.185986e+02
1.200000e-06	-2.812058e-06	-1.794369e-09	-1.994744e+01	-1.181540e+02
1.210000e-06	-2.772708e-06	-1.795947e-09	-1.966831e+01	-1.177072e+02
1.220000e-06	-2.733213e-06	-1.793499e-09	-1.938815e+01	-1.172593e+02
1.230000e-06	-2.693584e-06	-1.785060e-09	-1.910705e+01	-1.168113e+02
1.240000e-06	-2.653818e-06	-1.775930e-09	-1.882496e+01	-1.163640e+02
1.250000e-06	-2.613962e-06	-1.769688e-09	-1.854224e+01	-1.159179e+02
1.260000e-06	-2.574012e-06	-1.763429e-09	-1.825885e+01	-1.154731e+02
1.270000e-06	-2.533864e-06	-1.750639e-09	-1.797407e+01	-1.150297e+02
1.280000e-06	-2.493539e-06	-1.737731e-09	-1.768802e+01	-1.145872e+02
1.290000e-06	-2.453096e-06	-1.730099e-09	-1.740113e+01	-1.141450e+02
1.300000e-06	-2.412587e-06	-1.724276e-09	-1.711378e+01	-1.137026e+02
1.310000e-06	-2.371979e-06	-1.714892e-09	-1.682572e+01	-1.132590e+02
1.320000e-06	-2.331098e-06	-1.706213e-09	-1.653573e+01	-1.128132e+02
1.330000e-06	-2.289899e-06	-1.701848e-09	-1.624349e+01	-1.123645e+02
1.340000e-06	-2.248474e-06	-1.698744e-09	-1.594964e+01	-1.119119e+02
1.350000e-06	-2.206819e-06	-1.692679e-09	-1.565416e+01	-1.114546e+02
1.360000e-06	-2.164857e-06	-1.681732e-09	-1.535650e+01	-1.109920e+02
1.370000e-06	-2.122615e-06	-1.671392e-09	-1.505685e+01	-1.105235e+02
1.380000e-06	-2.080153e-06	-1.662604e-09	-1.475565e+01	-1.100490e+02
1.390000e-06	-2.037425e-06	-1.651734e-09	-1.445255e+01	-1.095681e+02
1.400000e-06	-1.994451e-06	-1.640220e-09	-1.414771e+01	-1.090810e+02
1.410000e-06	-1.951232e-06	-1.633509e-09	-1.384114e+01	-1.085877e+02
1.420000e-06	-1.907735e-06	-1.631771e-09	-1.353259e+01	-1.080885e+02
1.430000e-06	-1.864156e-06	-1.631285e-09	-1.322346e+01	-1.075836e+02
1.440000e-06	-1.820504e-06	-1.624491e-09	-1.291382e+01	-1.070732e+02
1.450000e-06	-1.776738e-06	-1.613022e-09	-1.260336e+01	-1.065576e+02
1.460000e-06	-1.732917e-06	-1.602011e-09	-1.229252e+01	-1.060367e+02
1.470000e-06	-1.689025e-06	-1.589998e-09	-1.198117e+01	-1.055107e+02
1.480000e-06	-1.645056e-06	-1.574407e-09	-1.166927e+01	-1.049792e+02
1.490000e-06	-1.601012e-06	-1.562447e-09	-1.135684e+01	-1.044417e+02
1.500000e-06	-1.556922e-06	-1.557404e-09	-1.104409e+01	-1.038976e+02
1.510000e-06	-1.512703e-06	-1.555987e-09	-1.073042e+01	-1.033461e+02
1.520000e-06	-1.468377e-06	-1.551317e-09	-1.041599e+01	-1.027860e+02
1.530000e-06	-1.424065e-06	-1.543538e-09	-1.010166e+01	-1.022161e+02
1.540000e-06	-1.379759e-06	-1.536011e-09	-9.787376e+00	-1.016351e+02
1.550000e-06	-1.335444e-06	-1.525480e-09	-9.473020e+00	-1.010414e+02
1.560000e-06	-1.291016e-06	-1.507987e-09	-9.157872e+00	-1.004337e+02
1.570000e-06	-1.246391e-06	-1.490960e-09	-8.841324e+00	-9.981042e+01
1.580000e-06	-1.201646e-06	-1.482434e-09	-8.523919e+00	-9.917026e+01
1.590000e-06	-1.156873e-06	-1.479381e-09	-8.206326e+00	-9.851199e+01
1.600000e-06	-1.112124e-06	-1.473097e-09	-7.888895e+00	-9.783457e+01
1.610000e-06	-1.067261e-06	-1.462249e-09	-7.570660e+00	-9.713716e+01
1.620000e-06	-1.022224e-06	-1.452402e-09	-7.251185e+00	-9.641920e+01
1.630000e-06	-9.771063e-07	-1.443651e-09	-6.931142e+00	-9.568036e+01
1.640000e-06	-9.319440e-07	-1.429457e-09	-6.610781e+00	-9.492055e+01
1.650000e-06	-8.866931e-07	-1.410962e-09	-6.289792e+00	-9.413992e+01
1.660000e-06	-8.413535e-07	-1.395910e-09	-5.968174e+00	-9.333882e+01
1.670000e-06	-7.959916e-07	-1.387186e-09	-5.646397e+00	-9.251776e+01
1.680000e-06	-7.505270e-07	-1.378319e-09	-5.323893e+00	-9.167736e+01
1.690000e-06	-7.049759e-07	-1.366050e-09	-5.000774e+00	-9.081829e+01
1.700000e-06	-6.594416e-07	-1.354351e-09	-4.677775e+00	-8.994121e+01
1.710000e-06	-6.139327e-07	-1.346782e-09	-4.354955e+00	-8.904674e+01
1.720000e-06	-5.683054e-07	-1.337798e-09	-4.031297e+00	-8.813534e+01
1.730000e-06	-5.225748e-07	-1.320732e-09	-3.706905e+00	-8.720734e+01
1.740000e-06	-4.768726e-07	-1.299820e-09	-3.382714e+00	-8.626283e+01
1.750000e-06	-4.311586e-07	-1.281441e-09	-3.058441e+00	-8.530168e+01
1.760000e-06	-3.852984e-07	-1.266272e-09	-2.733129e+00	-8.432349e+01
1.770000e-06	-3.393324e-07	-1.248973e-09	-2.407068e+00	-8.332760e+01
1.780000e-06	-2.933855e-07	-1.231998e-09	-2.081142e+00	-8.231308e+01
1.790000e-06	-2.473726e-07	-1.220275e-09	-1.754747e+00	-8.127878e+01
1.800000e-06	-2.013576e-07	-1.209726e-09	-1.428338e+00	-8.022332e+01
1.810000e-06	-1.554017e-07	-1.190717e-09	-1.102348e+00	-7.914515e+01
1.820000e-06	-1.094514e-07	-1.165624e-09	-7.763975e-01	-7.804262e+01
1.830000e-06	-6.349257e-08	-1.143380e-09	-4.503870e-01	-7.691397e+01
1.840000e-06	-1.753614e-08	-1.125685e-09	-1.243933e-01	-7.575741e+01
1.850000e-06	2.837238e-08	-1.107966e-09	2.012606e-01	-7.457119e+01
1.860000e-06	7.423394e-08	-1.090377e-09	5.265813e-01	-7.335360e+01
1.870000e-06	1.201540e-07	-1.076098e-09	8.523174e-01	-7.210305e+01
1.880000e-06	1.661060e-07	-1.064524e-09	1.178279e+00	-7.081805e+01
1.890000e-06	2.119753e-07	-1.046728e-09	1.503655e+00	-6.949731e+01
1.900000e-06	2.577893e-07	-1.019618e-09	1.828639e+00	-6.813966e+01
1.910000e-06	3.036328e-07	-9.910536e-10	2.153831e+00	-6.674412e+01
1.920000e-06	3.494612e-07	-9.672086e-10	2.478916e+00	-6.530989e+01
1.930000e-06	3.952149e-07	-9.444345e-10	2.803472e+00	-6.383629e+01
1.940000e-06	4.409801e-07	-9.184874e-10	3.128109e+00	-6.232280e+01
1.950000e-06	4.867028e-07	-8.945653e-10	3.452445e+00	-6.076899e+01
1.960000e-06	5.323626e-07	-8.765923e-10	3.776335e+00	-5.917452e+01
1.970000e-06	5.780627e-07	-8.563550e-10	4.100510e+00	-5.753911e+01
1.980000e-06	6.237402e-07	-8.266668e-10	4.424525e+00	-5.586251e+01
1.990000e-06	6.693229e-07	-7.921877e-10	4.747868e+00	-5.414447e+01
2.000000e-06	7.148587e-07	-7.620051e-10	5.070878e+00	-5.238472e+01
2.010000e-06	7.602920e-07	-7.356447e-10	5.393160e+00	-5.058299e+01
2.020000e-06	8.056655e-07	-7.070517e-10	5.715019e+00	-4.873895e+01
2.030000e-06	8.510168e-07	-6.759649e-10	6.036720e+00	-4.685224e+01
2.040000e-06	8.962851e-07	-6.477756e-10	6.357833e+00	-4.492247e+01
2.050000e-06	9.414740e-07	-6.227358e-10	6.678382e+00	-4.294922e+01
2.060000e-06	9.865305e-07	-5.909752e-10	6.997992e+00	-4.093209e+01
2.070000e-06	1.031560e-06	-5.524521e-10	7.317412e+00	-3.887064e+01
2.080000e-06	1.076618e-06	-5.165490e-10	7.637029e+00	-3.676451e+01
2.090000e-06	1.121613e-06	-4.867132e-10	7.956202e+00	-3.461334e+01
2.100000e-06	1.166512e-06	-4.570555e-10	8.274698e+00	-3.241688e+01
2.110000e-06	1.211259e-06	-4.227828e-10	8.592113e+00	-3.017494e+01
2.120000e-06	1.255795e-06	-3.868383e-10	8.908033e+00	-2.788747e+01
2.130000e-06	1.300218e-06	-3.531399e-10	9.223145e+00	-2.555452e+01
2.140000e-06	1.344645e-06	-3.177734e-10	9.538290e+00	-2.317627e+01
2.150000e-06	1.389031e-06	-2.780504e-10	9.853142e+00	-2.075307e+01
2.160000e-06	1.433381e-06	-2.391155e-10	1.016774e+01	-1.828541e+01
2.170000e-06	1.477644e-06	-2.053803e-10	1.048172e+01	-1.577392e+01
2.180000e-06	1.521817e-06	-1.732999e-10	1.079507e+01	-1.321942e+01
2.190000e-06	1.565961e-06	-1.362915e-10	1.110820e+01	-1.062289e+01
2.200000e-06	1.609985e-06	-9.601957e-11	1.142049e+01	-7.985448e+00
2.210000e-06	1.653965e-06	-5.793617e-11	1.173247e+01	-5.308417e+00
2.220000e-06	1.697967e-06	-1.916339e-11	1.204460e+01	-2.593277e+00
2.230000e-06	1.741920e-06	2.480827e-11	1.235638e+01	1.583056e-01
2.240000e-06	1.785780e-06	7.277985e-11	1.266750e+01	2.944473e+00
2.250000e-06	1.829487e-06	1.178901e-10	1.297754e+01	5.763167e+00
2.260000e-06	1.873051e-06	1.588202e-10	1.328656e+01	8.612120e+00
2.270000e-06	1.916551e-06	2.008671e-10	1.359513e+01	1.148884e+01
2.280000e-06	1.959985e-06	2.452069e-10	1.390323e+01	1.439060e+01
2.290000e-06	2.003268e-06	2.889826e-10	1.421026e+01	1.731445e+01
2.300000e-06	2.046237e-06	3.289931e-10	1.451506e+01	2.025717e+01
2.310000e-06	2.088883e-06	3.688114e-10	1.481757e+01	2.321530e+01
2.320000e-06	2.131222e-06	4.153676e-10	1.511791e+01	2.618516e+01
2.330000e-06	2.173138e-06	4.629424e-10	1.541524e+01	2.916284e+01
2.340000e-06	2.214820e-06	5.041886e-10	1.571091e+01	3.214420e+01
2.350000e-06	2.256422e-06	5.435483e-10	1.600602e+01	3.512495e+01
2.360000e-06	2.297791e-06	5.858846e-10	1.629947e+01	3.810065e+01
2.370000e-06	2.338813e-06	6.312522e-10	1.659046e+01	4.106676e+01
2.380000e-06	2.379509e-06	6.762206e-10	1.687914e+01	4.401871e+01
2.390000e-06	2.420072e-06	7.205341e-10	1.716687e+01	4.695191e+01
2.400000e-06	2.460452e-06	7.646342e-10	1.745331e+01	4.986185e+01
2.410000e-06	2.500593e-06	8.069802e-10	1.773805e+01	5.274415e+01
2.420000e-06	2.540684e-06	8.474432e-10	1.802244e+01	5.559461e+01
2.430000e-06	2.580750e-06	8.890688e-10	1.830665e+01	5.840925e+01
2.440000e-06	2.620732e-06	9.325649e-10	1.859027e+01	6.118441e+01
2.450000e-06	2.660569e-06	9.740617e-10	1.887285e+01	6.391672e+01
2.460000e-06	2.700280e-06	1.013049e-09	1.915454e+01	6.660318e+01
2.470000e-06	2.739891e-06	1.049868e-09	1.943552e+01	6.924118e+01
2.480000e-06	2.779384e-06	1.087521e-09	1.971567e+01	7.182848e+01
2.490000e-06	2.818629e-06	1.124680e-09	1.999405e+01	7.436324e+01
2.500000e-06	2.857546e-06	1.160485e-09	2.027011e+01	7.684399e+01
2.510000e-06	2.896215e-06	1.197510e-09	2.054441e+01	7.926959e+01
2.520000e-06	2.934678e-06	1.237136e-09	2.081725e+01	8.163923e+01
2.530000e-06	2.972984e-06	1.277773e-09	2.108898e+01	8.395237e+01
2.540000e-06	3.011098e-06	1.314849e-09	2.135934e+01	8.620872e+01
2.550000e-06	3.049031e-06	1.347053e-09	2.162842e+01	8.840813e+01
2.560000e-06	3.086809e-06	1.376939e-09	2.189640e+01	9.055063e+01
2.570000e-06	3.124396e-06	1.406785e-09	2.216303e+01	9.263633e+01
2.580000e-06	3.161769e-06	1.434065e-09	2.242813e+01	9.466538e+01
2.590000e-06	3.198901e-06	1.460902e-09	2.269153e+01	9.663796e+01
2.600000e-06	3.235791e-06	1.492673e-09	2.295321e+01	9.855427e+01
2.610000e-06	3.272435e-06	1.528999e-09	2.321315e+01	1.004145e+02
2.620000e-06	3.308842e-06	1.562815e-09	2.347140e+01	1.022187e+02
2.630000e-06	3.345077e-06	1.591056e-09	2.372843e+01	1.039672e+02
2.640000e-06	3.381211e-06	1.615100e-09	2.398475e+01	1.056600e+02
2.650000e-06	3.417208e-06	1.636435e-09	2.424009e+01	1.072973e+02
2.660000e-06	3.453076e-06	1.654863e-09	2.449453e+01	1.088794e+02
2.670000e-06	3.488792e-06	1.670667e-09	2.474788e+01	1.104065e+02
2.680000e-06	3.524258e-06	1.689266e-09	2.499946e+01	1.118790e+02
2.690000e-06	3.559441e-06	1.714843e-09	2.524904e+01	1.132974e+02
2.700000e-06	3.594222e-06	1.744090e-09	2.549576e+01	1.146625e+02
2.710000e-06	3.628550e-06	1.771132e-09	2.573926e+01	1.159752e+02
2.720000e-06	3.662368e-06	1.793000e-09	2.597915e+01	1.172364e+02
2.730000e-06	3.695649e-06	1.810603e-09	2.621523e+01	1.184474e+02
2.740000e-06	3.728559e-06	1.824365e-09	2.644868e+01	1.196096e+02
2.750000e-06	3.761186e-06	1.835209e-09	2.668012e+01	1.207246e+02
2.760000e-06	3.793552e-06	1.848182e-09	2.690971e+01	1.217940e+02
2.770000e-06	3.825724e-06	1.865176e-09	2.713792e+01	1.228197e+02
2.780000e-06	3.857754e-06	1.884551e-09	2.736513e+01	1.238034e+02
2.790000e-06	3.889660e-06	1.904820e-09	2.759145e+01	1.247471e+02
2.800000e-06	3.921415e-06	1.922050e-09	2.781671e+01	1.256524e+02
2.810000e-06	3.952908e-06	1.933724e-09	2.804011e+01	1.265213e+02
2.820000e-06	3.984075e-06	1.941081e-09	2.826119e+01	1.273554e+02
2.830000e-06	4.014898e-06	1.947490e-09	2.847983e+01	1.281560e+02
2.840000e-06	4.045424e-06	1.954803e-09	2.869637e+01	1.289247e+02
2.850000e-06	4.075695e-06	1.964410e-09	2.891110e+01	1.296626e+02
2.860000e-06	4.105634e-06	1.976083e-09	2.912347e+01	1.303706e+02
2.870000e-06	4.135356e-06	1.987449e-09	2.933431e+01	1.310498e+02
2.880000e-06	4.164966e-06	2.000405e-09	2.954434e+01	1.317007e+02
2.890000e-06	4.194299e-06	2.013014e-09	2.975242e+01	1.323239e+02
2.900000e-06	4.223273e-06	2.021438e-09	2.995795e+01	1.329202e+02
