# Temperatura_=_15.91
# Concentracion g/m^3_=_4090.0
# C_Vs_to_Am_M_A/Vsm_=_65563218390.804596
# pendiente_HvsI_1/m_=_3716.3
# ordenada_HvsI_A/m_=_1297.0
# frecuencia_Hz_=_135086.79971720133

Tiempo_(s)	Campo_(V.s)	Magnetizacion_(V.s)	Campo_(kA/m)	Magnetizacion_(A/m)
0.000000e+00	-5.408377e-06	-1.262301e-09	-3.838222e+01	-8.530601e+01
1.000000e-08	-5.408489e-06	-1.255499e-09	-3.838301e+01	-8.512593e+01
2.000000e-08	-5.408425e-06	-1.246736e-09	-3.838256e+01	-8.493095e+01
3.000000e-08	-5.408168e-06	-1.236783e-09	-3.838073e+01	-8.472170e+01
4.000000e-08	-5.407558e-06	-1.231714e-09	-3.837640e+01	-8.449951e+01
5.000000e-08	-5.406450e-06	-1.234558e-09	-3.836854e+01	-8.426638e+01
6.000000e-08	-5.404740e-06	-1.239714e-09	-3.835640e+01	-8.402503e+01
7.000000e-08	-5.402278e-06	-1.245916e-09	-3.833893e+01	-8.377885e+01
8.000000e-08	-5.399190e-06	-1.271731e-09	-3.831702e+01	-8.353182e+01
9.000000e-08	-5.395652e-06	-1.255835e-09	-3.829191e+01	-8.328845e+01
1.000000e-07	-5.391650e-06	-1.199223e-09	-3.826351e+01	-8.305358e+01
1.100000e-07	-5.387467e-06	-1.214028e-09	-3.823383e+01	-8.283226e+01
1.200000e-07	-5.383158e-06	-1.251131e-09	-3.820325e+01	-8.262957e+01
1.300000e-07	-5.378528e-06	-1.234310e-09	-3.817038e+01	-8.245042e+01
1.400000e-07	-5.373463e-06	-1.182197e-09	-3.813444e+01	-8.229934e+01
1.500000e-07	-5.367944e-06	-1.199317e-09	-3.809527e+01	-8.218030e+01
1.600000e-07	-5.362183e-06	-1.322131e-09	-3.805439e+01	-8.209652e+01
1.700000e-07	-5.356064e-06	-1.231176e-09	-3.801096e+01	-8.205029e+01
1.800000e-07	-5.349471e-06	-1.177043e-09	-3.796417e+01	-8.204290e+01
1.900000e-07	-5.342534e-06	-1.181117e-09	-3.791494e+01	-8.207449e+01
2.000000e-07	-5.335351e-06	-1.307333e-09	-3.786397e+01	-8.214401e+01
2.100000e-07	-5.327880e-06	-1.230361e-09	-3.781095e+01	-8.224926e+01
2.200000e-07	-5.320094e-06	-1.207186e-09	-3.775569e+01	-8.238688e+01
2.300000e-07	-5.311986e-06	-1.261161e-09	-3.769815e+01	-8.255248e+01
2.400000e-07	-5.303653e-06	-1.322240e-09	-3.763901e+01	-8.274075e+01
2.500000e-07	-5.294745e-06	-1.263854e-09	-3.757579e+01	-8.294565e+01
2.600000e-07	-5.285038e-06	-1.267077e-09	-3.750691e+01	-8.316059e+01
2.700000e-07	-5.274795e-06	-1.345848e-09	-3.743421e+01	-8.337870e+01
2.800000e-07	-5.264150e-06	-1.320848e-09	-3.735867e+01	-8.359303e+01
2.900000e-07	-5.252996e-06	-1.256671e-09	-3.727950e+01	-8.379679e+01
3.000000e-07	-5.241291e-06	-1.281607e-09	-3.719644e+01	-8.398362e+01
3.100000e-07	-5.229167e-06	-1.352797e-09	-3.711040e+01	-8.414775e+01
3.200000e-07	-5.216658e-06	-1.272927e-09	-3.702163e+01	-8.428425e+01
3.300000e-07	-5.203881e-06	-1.277564e-09	-3.693095e+01	-8.438911e+01
3.400000e-07	-5.190724e-06	-1.309302e-09	-3.683758e+01	-8.445943e+01
3.500000e-07	-5.177152e-06	-1.335316e-09	-3.674126e+01	-8.449341e+01
3.600000e-07	-5.163093e-06	-1.274295e-09	-3.664148e+01	-8.449040e+01
3.700000e-07	-5.148655e-06	-1.323163e-09	-3.653902e+01	-8.445086e+01
3.800000e-07	-5.133793e-06	-1.289464e-09	-3.643355e+01	-8.437629e+01
3.900000e-07	-5.118301e-06	-1.266295e-09	-3.632360e+01	-8.426909e+01
4.000000e-07	-5.102218e-06	-1.268663e-09	-3.620947e+01	-8.413245e+01
4.100000e-07	-5.085728e-06	-1.319116e-09	-3.609244e+01	-8.397012e+01
4.200000e-07	-5.068881e-06	-1.258634e-09	-3.597288e+01	-8.378625e+01
4.300000e-07	-5.051686e-06	-1.267670e-09	-3.585085e+01	-8.358516e+01
4.400000e-07	-5.034206e-06	-1.299207e-09	-3.572680e+01	-8.337118e+01
4.500000e-07	-5.016480e-06	-1.310458e-09	-3.560100e+01	-8.314845e+01
4.600000e-07	-4.998498e-06	-1.258575e-09	-3.547338e+01	-8.292070e+01
4.700000e-07	-4.980145e-06	-1.271206e-09	-3.534314e+01	-8.269122e+01
4.800000e-07	-4.961412e-06	-1.266097e-09	-3.521019e+01	-8.246266e+01
4.900000e-07	-4.942321e-06	-1.266563e-09	-3.507471e+01	-8.223701e+01
5.000000e-07	-4.922822e-06	-1.259855e-09	-3.493633e+01	-8.201555e+01
5.100000e-07	-4.903061e-06	-1.253896e-09	-3.479609e+01	-8.179889e+01
5.200000e-07	-4.883125e-06	-1.246030e-09	-3.465461e+01	-8.158698e+01
5.300000e-07	-4.862956e-06	-1.267559e-09	-3.451147e+01	-8.137923e+01
5.400000e-07	-4.842523e-06	-1.268031e-09	-3.436646e+01	-8.117458e+01
5.500000e-07	-4.821737e-06	-1.244209e-09	-3.421894e+01	-8.097162e+01
5.600000e-07	-4.800502e-06	-1.244371e-09	-3.406824e+01	-8.076876e+01
5.700000e-07	-4.778945e-06	-1.250270e-09	-3.391526e+01	-8.056433e+01
5.800000e-07	-4.757148e-06	-1.244471e-09	-3.376057e+01	-8.035673e+01
5.900000e-07	-4.734994e-06	-1.224529e-09	-3.360335e+01	-8.014454e+01
6.000000e-07	-4.712533e-06	-1.220371e-09	-3.344394e+01	-7.992663e+01
6.100000e-07	-4.689772e-06	-1.215975e-09	-3.328242e+01	-7.970224e+01
6.200000e-07	-4.666673e-06	-1.237351e-09	-3.311848e+01	-7.947100e+01
6.300000e-07	-4.643261e-06	-1.223465e-09	-3.295233e+01	-7.923300e+01
6.400000e-07	-4.619522e-06	-1.211667e-09	-3.278387e+01	-7.898874e+01
6.500000e-07	-4.595521e-06	-1.207975e-09	-3.261353e+01	-7.873912e+01
6.600000e-07	-4.571368e-06	-1.228815e-09	-3.244213e+01	-7.848534e+01
6.700000e-07	-4.546967e-06	-1.207613e-09	-3.226896e+01	-7.822889e+01
6.800000e-07	-4.522224e-06	-1.198194e-09	-3.209336e+01	-7.797140e+01
6.900000e-07	-4.497026e-06	-1.185599e-09	-3.191453e+01	-7.771454e+01
7.000000e-07	-4.471324e-06	-1.197486e-09	-3.173213e+01	-7.745994e+01
7.100000e-07	-4.445122e-06	-1.191956e-09	-3.154618e+01	-7.720910e+01
7.200000e-07	-4.418359e-06	-1.191720e-09	-3.135625e+01	-7.696327e+01
7.300000e-07	-4.391065e-06	-1.178412e-09	-3.116255e+01	-7.672338e+01
7.400000e-07	-4.363483e-06	-1.190602e-09	-3.096680e+01	-7.649003e+01
7.500000e-07	-4.335736e-06	-1.185982e-09	-3.076989e+01	-7.626340e+01
7.600000e-07	-4.307782e-06	-1.178377e-09	-3.057150e+01	-7.604331e+01
7.700000e-07	-4.279671e-06	-1.163801e-09	-3.037200e+01	-7.582918e+01
7.800000e-07	-4.251305e-06	-1.172802e-09	-3.017070e+01	-7.562012e+01
7.900000e-07	-4.222661e-06	-1.174896e-09	-2.996742e+01	-7.541494e+01
8.000000e-07	-4.193723e-06	-1.174937e-09	-2.976205e+01	-7.521226e+01
8.100000e-07	-4.164467e-06	-1.162832e-09	-2.955442e+01	-7.501060e+01
8.200000e-07	-4.134888e-06	-1.154663e-09	-2.934451e+01	-7.480843e+01
8.300000e-07	-4.105040e-06	-1.150521e-09	-2.913269e+01	-7.460428e+01
8.400000e-07	-4.074971e-06	-1.144495e-09	-2.891929e+01	-7.439685e+01
8.500000e-07	-4.044616e-06	-1.136687e-09	-2.870387e+01	-7.418502e+01
8.600000e-07	-4.014046e-06	-1.136109e-09	-2.848692e+01	-7.396796e+01
8.700000e-07	-3.983200e-06	-1.147885e-09	-2.826801e+01	-7.374513e+01
8.800000e-07	-3.951955e-06	-1.149723e-09	-2.804627e+01	-7.351633e+01
8.900000e-07	-3.920412e-06	-1.141324e-09	-2.782241e+01	-7.328166e+01
9.000000e-07	-3.888717e-06	-1.123383e-09	-2.759748e+01	-7.304152e+01
9.100000e-07	-3.856883e-06	-1.118370e-09	-2.737156e+01	-7.279657e+01
9.200000e-07	-3.824908e-06	-1.109842e-09	-2.714464e+01	-7.254767e+01
9.300000e-07	-3.792781e-06	-1.105496e-09	-2.691664e+01	-7.229581e+01
9.400000e-07	-3.760415e-06	-1.102557e-09	-2.668695e+01	-7.204201e+01
9.500000e-07	-3.727733e-06	-1.116021e-09	-2.645501e+01	-7.178731e+01
9.600000e-07	-3.694650e-06	-1.121712e-09	-2.622022e+01	-7.153265e+01
9.700000e-07	-3.661111e-06	-1.120315e-09	-2.598221e+01	-7.127880e+01
9.800000e-07	-3.627136e-06	-1.101616e-09	-2.574109e+01	-7.102636e+01
9.900000e-07	-3.592775e-06	-1.091267e-09	-2.549724e+01	-7.077564e+01
1.000000e-06	-3.558093e-06	-1.078951e-09	-2.525110e+01	-7.052675e+01
1.010000e-06	-3.523002e-06	-1.077880e-09	-2.500207e+01	-7.027950e+01
1.020000e-06	-3.487533e-06	-1.073061e-09	-2.475035e+01	-7.003347e+01
1.030000e-06	-3.451897e-06	-1.078748e-09	-2.449745e+01	-6.978804e+01
1.040000e-06	-3.416150e-06	-1.080843e-09	-2.424376e+01	-6.954242e+01
1.050000e-06	-3.380227e-06	-1.080967e-09	-2.398883e+01	-6.929573e+01
1.060000e-06	-3.344143e-06	-1.068986e-09	-2.373274e+01	-6.904706e+01
1.070000e-06	-3.307937e-06	-1.058010e-09	-2.347580e+01	-6.879553e+01
1.080000e-06	-3.271486e-06	-1.045457e-09	-2.321711e+01	-6.854036e+01
1.090000e-06	-3.234713e-06	-1.041001e-09	-2.295614e+01	-6.828095e+01
1.100000e-06	-3.197689e-06	-1.038420e-09	-2.269339e+01	-6.801691e+01
1.110000e-06	-3.160462e-06	-1.038671e-09	-2.242919e+01	-6.774809e+01
1.120000e-06	-3.123092e-06	-1.039487e-09	-2.216399e+01	-6.747460e+01
1.130000e-06	-3.085519e-06	-1.037848e-09	-2.189734e+01	-6.719685e+01
1.140000e-06	-3.047705e-06	-1.033258e-09	-2.162898e+01	-6.691547e+01
1.150000e-06	-3.009627e-06	-1.026410e-09	-2.135875e+01	-6.663133e+01
1.160000e-06	-2.971268e-06	-1.020193e-09	-2.108652e+01	-6.634545e+01
1.170000e-06	-2.932747e-06	-1.014242e-09	-2.081315e+01	-6.605897e+01
1.180000e-06	-2.894104e-06	-1.009648e-09	-2.053891e+01	-6.577306e+01
1.190000e-06	-2.855262e-06	-1.002550e-09	-2.026325e+01	-6.548883e+01
1.200000e-06	-2.816128e-06	-1.000119e-09	-1.998552e+01	-6.520731e+01
1.210000e-06	-2.776777e-06	-9.992261e-10	-1.970626e+01	-6.492933e+01
1.220000e-06	-2.737306e-06	-1.000523e-09	-1.942614e+01	-6.465546e+01
1.230000e-06	-2.697654e-06	-9.954493e-10	-1.914474e+01	-6.438600e+01
1.240000e-06	-2.657815e-06	-9.919643e-10	-1.886200e+01	-6.412093e+01
1.250000e-06	-2.617852e-06	-9.863337e-10	-1.857839e+01	-6.385987e+01
1.260000e-06	-2.577797e-06	-9.838469e-10	-1.829413e+01	-6.360214e+01
1.270000e-06	-2.537734e-06	-9.769598e-10	-1.800981e+01	-6.334674e+01
1.280000e-06	-2.497582e-06	-9.716638e-10	-1.772486e+01	-6.309242e+01
1.290000e-06	-2.457299e-06	-9.664796e-10	-1.743898e+01	-6.283772e+01
1.300000e-06	-2.416871e-06	-9.656626e-10	-1.715207e+01	-6.258104e+01
1.310000e-06	-2.376282e-06	-9.608372e-10	-1.686402e+01	-6.232075e+01
1.320000e-06	-2.335503e-06	-9.556840e-10	-1.657462e+01	-6.205520e+01
1.330000e-06	-2.294505e-06	-9.512016e-10	-1.628366e+01	-6.178288e+01
1.340000e-06	-2.253316e-06	-9.525839e-10	-1.599135e+01	-6.150244e+01
1.350000e-06	-2.211871e-06	-9.534810e-10	-1.569722e+01	-6.121276e+01
1.360000e-06	-2.170073e-06	-9.512568e-10	-1.540059e+01	-6.091300e+01
1.370000e-06	-2.127880e-06	-9.424616e-10	-1.510116e+01	-6.060265e+01
1.380000e-06	-2.085561e-06	-9.345044e-10	-1.480083e+01	-6.028150e+01
1.390000e-06	-2.043121e-06	-9.261919e-10	-1.449964e+01	-5.994968e+01
1.400000e-06	-2.000318e-06	-9.191193e-10	-1.419587e+01	-5.960760e+01
1.410000e-06	-1.957216e-06	-9.115816e-10	-1.388999e+01	-5.925591e+01
1.420000e-06	-1.913947e-06	-9.066255e-10	-1.358292e+01	-5.889548e+01
1.430000e-06	-1.870513e-06	-9.048087e-10	-1.327467e+01	-5.852726e+01
1.440000e-06	-1.826889e-06	-9.039423e-10	-1.296508e+01	-5.815229e+01
1.450000e-06	-1.783144e-06	-9.002120e-10	-1.265464e+01	-5.777158e+01
1.460000e-06	-1.739288e-06	-8.920763e-10	-1.234340e+01	-5.738602e+01
1.470000e-06	-1.695364e-06	-8.850650e-10	-1.203167e+01	-5.699635e+01
1.480000e-06	-1.651432e-06	-8.787260e-10	-1.171990e+01	-5.660309e+01
1.490000e-06	-1.607428e-06	-8.736783e-10	-1.140761e+01	-5.620652e+01
1.500000e-06	-1.563371e-06	-8.682024e-10	-1.109495e+01	-5.580660e+01
1.510000e-06	-1.519206e-06	-8.644312e-10	-1.078151e+01	-5.540303e+01
1.520000e-06	-1.474972e-06	-8.606089e-10	-1.046760e+01	-5.499522e+01
1.530000e-06	-1.430741e-06	-8.538160e-10	-1.015369e+01	-5.458237e+01
1.540000e-06	-1.386446e-06	-8.438427e-10	-9.839342e+00	-5.416343e+01
1.550000e-06	-1.342022e-06	-8.347073e-10	-9.524072e+00	-5.373725e+01
1.560000e-06	-1.297496e-06	-8.257922e-10	-9.208080e+00	-5.330258e+01
1.570000e-06	-1.252952e-06	-8.209407e-10	-8.891961e+00	-5.285819e+01
1.580000e-06	-1.208336e-06	-8.158609e-10	-8.575333e+00	-5.240289e+01
1.590000e-06	-1.163605e-06	-8.105040e-10	-8.257881e+00	-5.193564e+01
1.600000e-06	-1.118707e-06	-8.032343e-10	-7.939250e+00	-5.145556e+01
1.610000e-06	-1.073727e-06	-7.960859e-10	-7.620035e+00	-5.096203e+01
1.620000e-06	-1.028711e-06	-7.863571e-10	-7.300564e+00	-5.045467e+01
1.630000e-06	-9.836115e-07	-7.760213e-10	-6.980502e+00	-4.993335e+01
1.640000e-06	-9.384453e-07	-7.649476e-10	-6.659967e+00	-4.939821e+01
1.650000e-06	-8.931367e-07	-7.570712e-10	-6.338420e+00	-4.884960e+01
1.660000e-06	-8.478259e-07	-7.485653e-10	-6.016858e+00	-4.828808e+01
1.670000e-06	-8.024780e-07	-7.413587e-10	-5.695033e+00	-4.771430e+01
1.680000e-06	-7.570596e-07	-7.347280e-10	-5.372707e+00	-4.712898e+01
1.690000e-06	-7.116602e-07	-7.270780e-10	-5.050516e+00	-4.653281e+01
1.700000e-06	-6.661867e-07	-7.174308e-10	-4.727799e+00	-4.592638e+01
1.710000e-06	-6.206229e-07	-7.076148e-10	-4.404442e+00	-4.531012e+01
1.720000e-06	-5.749745e-07	-6.973330e-10	-4.080484e+00	-4.468419e+01
1.730000e-06	-5.292582e-07	-6.862660e-10	-3.756045e+00	-4.404849e+01
1.740000e-06	-4.835138e-07	-6.754948e-10	-3.431405e+00	-4.340254e+01
1.750000e-06	-4.376902e-07	-6.677207e-10	-3.106204e+00	-4.274554e+01
1.760000e-06	-3.918204e-07	-6.602436e-10	-2.780674e+00	-4.207633e+01
1.770000e-06	-3.459692e-07	-6.496702e-10	-2.455277e+00	-4.139340e+01
1.780000e-06	-3.000767e-07	-6.374401e-10	-2.129587e+00	-4.069494e+01
1.790000e-06	-2.541142e-07	-6.266404e-10	-1.803400e+00	-3.997891e+01
1.800000e-06	-2.081641e-07	-6.172840e-10	-1.477301e+00	-3.924311e+01
1.810000e-06	-1.623054e-07	-6.029170e-10	-1.151850e+00	-3.848524e+01
1.820000e-06	-1.164399e-07	-5.879117e-10	-8.263517e-01	-3.770303e+01
1.830000e-06	-7.053041e-08	-5.752262e-10	-5.005408e-01	-3.689428e+01
1.840000e-06	-2.466854e-08	-5.618087e-10	-1.750679e-01	-3.605699e+01
1.850000e-06	2.116431e-08	-5.467026e-10	1.501991e-01	-3.518943e+01
1.860000e-06	6.705180e-08	-5.339297e-10	4.758538e-01	-3.429021e+01
1.870000e-06	1.129620e-07	-5.253991e-10	8.016697e-01	-3.335831e+01
1.880000e-06	1.588267e-07	-5.186501e-10	1.127163e+00	-3.239313e+01
1.890000e-06	2.046724e-07	-5.035419e-10	1.452521e+00	-3.139449e+01
1.900000e-06	2.505143e-07	-4.826743e-10	1.777852e+00	-3.036262e+01
1.910000e-06	2.963578e-07	-4.597183e-10	2.103195e+00	-2.929815e+01
1.920000e-06	3.422235e-07	-4.385597e-10	2.428695e+00	-2.820201e+01
1.930000e-06	3.880451e-07	-4.194271e-10	2.753882e+00	-2.707540e+01
1.940000e-06	4.338730e-07	-3.990589e-10	3.079114e+00	-2.591970e+01
1.950000e-06	4.796397e-07	-3.803905e-10	3.403911e+00	-2.473639e+01
1.960000e-06	5.253186e-07	-3.670802e-10	3.728086e+00	-2.352696e+01
1.970000e-06	5.710261e-07	-3.554025e-10	4.052463e+00	-2.229280e+01
1.980000e-06	6.166258e-07	-3.383254e-10	4.376076e+00	-2.103515e+01
1.990000e-06	6.621325e-07	-3.163860e-10	4.699028e+00	-1.975504e+01
2.000000e-06	7.076279e-07	-2.915733e-10	5.021900e+00	-1.845322e+01
2.010000e-06	7.530612e-07	-2.640680e-10	5.344331e+00	-1.713013e+01
2.020000e-06	7.984478e-07	-2.382412e-10	5.666432e+00	-1.578590e+01
2.030000e-06	8.437631e-07	-2.144439e-10	5.988026e+00	-1.442037e+01
2.040000e-06	8.890187e-07	-1.948661e-10	6.309196e+00	-1.303311e+01
2.050000e-06	9.342913e-07	-1.814485e-10	6.630487e+00	-1.162347e+01
2.060000e-06	9.795588e-07	-1.682824e-10	6.951742e+00	-1.019063e+01
2.070000e-06	1.024709e-06	-1.478276e-10	7.272161e+00	-8.733723e+00
2.080000e-06	1.069679e-06	-1.191541e-10	7.591305e+00	-7.251883e+00
2.090000e-06	1.114556e-06	-8.738749e-11	7.909791e+00	-5.744340e+00
2.100000e-06	1.159354e-06	-5.677823e-11	8.227714e+00	-4.210505e+00
2.110000e-06	1.204039e-06	-2.803055e-11	8.544838e+00	-2.650050e+00
2.120000e-06	1.248682e-06	-1.115147e-12	8.861657e+00	-1.062972e+00
2.130000e-06	1.293194e-06	2.107298e-11	9.177552e+00	5.503594e-01
2.140000e-06	1.337491e-06	3.951622e-11	9.491919e+00	2.189167e+00
2.150000e-06	1.381721e-06	6.044471e-11	9.805807e+00	3.852255e+00
2.160000e-06	1.425964e-06	8.576975e-11	1.011979e+01	5.538016e+00
2.170000e-06	1.470169e-06	1.149656e-10	1.043351e+01	7.244457e+00
2.180000e-06	1.514355e-06	1.453735e-10	1.074709e+01	8.969245e+00
2.190000e-06	1.558504e-06	1.745971e-10	1.106040e+01	1.070977e+01
2.200000e-06	1.602568e-06	2.014141e-10	1.137312e+01	1.246319e+01
2.210000e-06	1.646557e-06	2.267560e-10	1.168530e+01	1.422656e+01
2.220000e-06	1.690453e-06	2.506855e-10	1.199682e+01	1.599685e+01
2.230000e-06	1.734347e-06	2.750624e-10	1.230833e+01	1.777106e+01
2.240000e-06	1.778206e-06	3.034028e-10	1.261959e+01	1.954630e+01
2.250000e-06	1.821967e-06	3.343178e-10	1.293015e+01	2.131981e+01
2.260000e-06	1.865617e-06	3.655770e-10	1.323993e+01	2.308903e+01
2.270000e-06	1.909074e-06	3.962215e-10	1.354833e+01	2.485166e+01
2.280000e-06	1.952331e-06	4.245383e-10	1.385532e+01	2.660562e+01
2.290000e-06	1.995425e-06	4.493348e-10	1.416115e+01	2.834910e+01
2.300000e-06	2.038367e-06	4.724040e-10	1.446590e+01	3.008051e+01
2.310000e-06	2.081075e-06	4.948677e-10	1.476899e+01	3.179847e+01
2.320000e-06	2.123564e-06	5.219499e-10	1.507053e+01	3.350176e+01
2.330000e-06	2.165739e-06	5.508451e-10	1.536983e+01	3.518926e+01
2.340000e-06	2.207409e-06	5.740052e-10	1.566556e+01	3.685994e+01
2.350000e-06	2.248747e-06	5.960445e-10	1.595893e+01	3.851274e+01
2.360000e-06	2.289898e-06	6.235574e-10	1.625097e+01	4.014659e+01
2.370000e-06	2.330822e-06	6.526144e-10	1.654140e+01	4.176032e+01
2.380000e-06	2.371566e-06	6.786665e-10	1.683055e+01	4.335265e+01
2.390000e-06	2.412109e-06	7.016931e-10	1.711828e+01	4.492218e+01
2.400000e-06	2.452513e-06	7.239266e-10	1.740502e+01	4.646739e+01
2.410000e-06	2.492804e-06	7.457895e-10	1.769095e+01	4.798661e+01
2.420000e-06	2.532946e-06	7.677917e-10	1.797583e+01	4.947813e+01
2.430000e-06	2.573011e-06	7.897400e-10	1.826016e+01	5.094015e+01
2.440000e-06	2.613003e-06	8.137175e-10	1.854398e+01	5.237091e+01
2.450000e-06	2.652888e-06	8.392953e-10	1.882704e+01	5.376869e+01
2.460000e-06	2.692661e-06	8.626833e-10	1.910930e+01	5.513191e+01
2.470000e-06	2.732316e-06	8.834907e-10	1.939072e+01	5.645917e+01
2.480000e-06	2.771715e-06	9.011293e-10	1.967033e+01	5.774933e+01
2.490000e-06	2.810869e-06	9.164161e-10	1.994820e+01	5.900153e+01
2.500000e-06	2.849815e-06	9.317446e-10	2.022459e+01	6.021527e+01
2.510000e-06	2.888490e-06	9.499154e-10	2.049906e+01	6.139038e+01
2.520000e-06	2.926927e-06	9.713907e-10	2.077184e+01	6.252709e+01
2.530000e-06	2.965152e-06	9.944525e-10	2.104312e+01	6.362594e+01
2.540000e-06	3.003256e-06	1.017783e-09	2.131354e+01	6.468786e+01
2.550000e-06	3.041231e-06	1.035951e-09	2.158304e+01	6.571402e+01
2.560000e-06	3.079039e-06	1.048038e-09	2.185135e+01	6.670584e+01
2.570000e-06	3.116639e-06	1.059806e-09	2.211819e+01	6.766493e+01
2.580000e-06	3.153887e-06	1.071884e-09	2.238253e+01	6.859295e+01
2.590000e-06	3.190863e-06	1.085098e-09	2.264494e+01	6.949161e+01
2.600000e-06	3.227684e-06	1.100137e-09	2.290625e+01	7.036253e+01
2.610000e-06	3.264343e-06	1.118055e-09	2.316642e+01	7.120723e+01
2.620000e-06	3.300786e-06	1.137471e-09	2.342505e+01	7.202701e+01
2.630000e-06	3.336997e-06	1.152770e-09	2.368203e+01	7.282294e+01
2.640000e-06	3.373119e-06	1.161434e-09	2.393838e+01	7.359581e+01
2.650000e-06	3.409089e-06	1.167886e-09	2.419365e+01	7.434613e+01
2.660000e-06	3.444927e-06	1.173555e-09	2.444799e+01	7.507411e+01
2.670000e-06	3.480691e-06	1.179100e-09	2.470180e+01	7.577968e+01
2.680000e-06	3.516293e-06	1.184914e-09	2.495446e+01	7.646255e+01
2.690000e-06	3.551656e-06	1.195153e-09	2.520542e+01	7.712223e+01
2.700000e-06	3.586570e-06	1.212187e-09	2.545320e+01	7.775812e+01
2.710000e-06	3.620962e-06	1.230249e-09	2.569728e+01	7.836954e+01
2.720000e-06	3.654847e-06	1.242072e-09	2.593775e+01	7.895584e+01
2.730000e-06	3.688236e-06	1.248725e-09	2.617471e+01	7.951643e+01
2.740000e-06	3.721246e-06	1.253491e-09	2.640897e+01	8.005088e+01
2.750000e-06	3.753898e-06	1.256282e-09	2.664069e+01	8.055893e+01
2.760000e-06	3.786225e-06	1.257923e-09	2.687011e+01	8.104061e+01
2.770000e-06	3.818365e-06	1.260172e-09	2.709821e+01	8.149616e+01
2.780000e-06	3.850382e-06	1.269286e-09	2.732543e+01	8.192613e+01
2.790000e-06	3.882260e-06	1.283621e-09	2.755165e+01	8.233135e+01
2.800000e-06	3.913952e-06	1.294520e-09	2.777657e+01	8.271288e+01
2.810000e-06	3.945408e-06	1.296718e-09	2.799980e+01	8.307201e+01
2.820000e-06	3.976628e-06	1.296863e-09	2.822137e+01	8.341017e+01
2.830000e-06	4.007474e-06	1.301312e-09	2.844028e+01	8.372893e+01
2.840000e-06	4.038033e-06	1.305979e-09	2.865715e+01	8.402989e+01
2.850000e-06	4.068384e-06	1.306565e-09	2.887254e+01	8.431461e+01
2.860000e-06	4.098439e-06	1.306983e-09	2.908584e+01	8.458459e+01
2.870000e-06	4.128232e-06	1.311978e-09	2.929727e+01	8.484118e+01
2.880000e-06	4.157762e-06	1.318878e-09	2.950684e+01	8.508552e+01
2.890000e-06	4.187042e-06	1.319591e-09	2.971464e+01	8.531855e+01
2.900000e-06	4.216028e-06	1.315416e-09	2.992034e+01	8.554096e+01
