# Temperatura_=_4.71
# Concentracion g/m^3_=_4090.0
# C_Vs_to_Am_M_A/Vsm_=_65563218390.804596
# pendiente_HvsI_1/m_=_3716.3
# ordenada_HvsI_A/m_=_1297.0
# frecuencia_Hz_=_135087.0825997674

Tiempo_(s)	Campo_(V.s)	Magnetizacion_(V.s)	Campo_(kA/m)	Magnetizacion_(A/m)
0.000000e+00	-5.407802e-06	-1.476496e-09	-3.838574e+01	-9.583081e+01
1.000000e-08	-5.407884e-06	-1.469394e-09	-3.838632e+01	-9.570572e+01
2.000000e-08	-5.407735e-06	-1.462305e-09	-3.838526e+01	-9.556551e+01
3.000000e-08	-5.407244e-06	-1.457758e-09	-3.838178e+01	-9.540958e+01
4.000000e-08	-5.406306e-06	-1.458674e-09	-3.837512e+01	-9.523813e+01
5.000000e-08	-5.404935e-06	-1.464825e-09	-3.836539e+01	-9.505221e+01
6.000000e-08	-5.403011e-06	-1.481835e-09	-3.835173e+01	-9.485379e+01
7.000000e-08	-5.400483e-06	-1.498895e-09	-3.833379e+01	-9.464569e+01
8.000000e-08	-5.397349e-06	-1.455438e-09	-3.831154e+01	-9.443160e+01
9.000000e-08	-5.393645e-06	-1.356871e-09	-3.828525e+01	-9.421593e+01
1.000000e-07	-5.389500e-06	-1.398620e-09	-3.825583e+01	-9.400370e+01
1.100000e-07	-5.385146e-06	-1.589927e-09	-3.822492e+01	-9.380034e+01
1.200000e-07	-5.380650e-06	-1.536659e-09	-3.819301e+01	-9.361151e+01
1.300000e-07	-5.375947e-06	-1.313311e-09	-3.815963e+01	-9.344284e+01
1.400000e-07	-5.370863e-06	-1.370991e-09	-3.812353e+01	-9.329972e+01
1.500000e-07	-5.365343e-06	-1.619652e-09	-3.808436e+01	-9.318704e+01
1.600000e-07	-5.359447e-06	-1.599332e-09	-3.804250e+01	-9.310898e+01
1.700000e-07	-5.353167e-06	-1.233656e-09	-3.799793e+01	-9.306876e+01
1.800000e-07	-5.346413e-06	-1.297188e-09	-3.794999e+01	-9.306854e+01
1.900000e-07	-5.339258e-06	-1.555677e-09	-3.789920e+01	-9.310922e+01
2.000000e-07	-5.331887e-06	-1.574331e-09	-3.784688e+01	-9.319039e+01
2.100000e-07	-5.324245e-06	-1.323818e-09	-3.779263e+01	-9.331031e+01
2.200000e-07	-5.316389e-06	-1.405129e-09	-3.773687e+01	-9.346590e+01
2.300000e-07	-5.308280e-06	-1.558279e-09	-3.767931e+01	-9.365287e+01
2.400000e-07	-5.299789e-06	-1.456091e-09	-3.761904e+01	-9.386580e+01
2.500000e-07	-5.290738e-06	-1.343159e-09	-3.755480e+01	-9.409838e+01
2.600000e-07	-5.281070e-06	-1.495306e-09	-3.748617e+01	-9.434357e+01
2.700000e-07	-5.270588e-06	-1.554433e-09	-3.741176e+01	-9.459391e+01
2.800000e-07	-5.259476e-06	-1.378616e-09	-3.733289e+01	-9.484172e+01
2.900000e-07	-5.248127e-06	-1.420221e-09	-3.725233e+01	-9.507945e+01
3.000000e-07	-5.236435e-06	-1.583251e-09	-3.716934e+01	-9.529987e+01
3.100000e-07	-5.224303e-06	-1.477561e-09	-3.708322e+01	-9.549640e+01
3.200000e-07	-5.211792e-06	-1.301367e-09	-3.699442e+01	-9.566325e+01
3.300000e-07	-5.198839e-06	-1.483940e-09	-3.690247e+01	-9.579568e+01
3.400000e-07	-5.185494e-06	-1.561821e-09	-3.680775e+01	-9.589008e+01
3.500000e-07	-5.171859e-06	-1.438962e-09	-3.671096e+01	-9.594410e+01
3.600000e-07	-5.157823e-06	-1.409224e-09	-3.661133e+01	-9.595666e+01
3.700000e-07	-5.143317e-06	-1.538375e-09	-3.650837e+01	-9.592792e+01
3.800000e-07	-5.128131e-06	-1.441119e-09	-3.640057e+01	-9.585926e+01
3.900000e-07	-5.112419e-06	-1.404258e-09	-3.628904e+01	-9.575310e+01
4.000000e-07	-5.096249e-06	-1.460258e-09	-3.617427e+01	-9.561278e+01
4.100000e-07	-5.079616e-06	-1.447973e-09	-3.605620e+01	-9.544237e+01
4.200000e-07	-5.062630e-06	-1.370332e-09	-3.593563e+01	-9.524646e+01
4.300000e-07	-5.045407e-06	-1.486528e-09	-3.581338e+01	-9.502992e+01
4.400000e-07	-5.027885e-06	-1.511427e-09	-3.568901e+01	-9.479771e+01
4.500000e-07	-5.010103e-06	-1.412330e-09	-3.556278e+01	-9.455464e+01
4.600000e-07	-4.991988e-06	-1.399419e-09	-3.543420e+01	-9.430523e+01
4.700000e-07	-4.973442e-06	-1.483920e-09	-3.530256e+01	-9.405350e+01
4.800000e-07	-4.954563e-06	-1.436355e-09	-3.516855e+01	-9.380287e+01
4.900000e-07	-4.935339e-06	-1.391194e-09	-3.503209e+01	-9.355607e+01
5.000000e-07	-4.915807e-06	-1.408569e-09	-3.489345e+01	-9.331510e+01
5.100000e-07	-4.896016e-06	-1.421420e-09	-3.475297e+01	-9.308123e+01
5.200000e-07	-4.876010e-06	-1.428759e-09	-3.461096e+01	-9.285500e+01
5.300000e-07	-4.855837e-06	-1.441099e-09	-3.446777e+01	-9.263635e+01
5.400000e-07	-4.835355e-06	-1.405226e-09	-3.432239e+01	-9.242465e+01
5.500000e-07	-4.814466e-06	-1.392681e-09	-3.417411e+01	-9.221888e+01
5.600000e-07	-4.793292e-06	-1.442857e-09	-3.402381e+01	-9.201772e+01
5.700000e-07	-4.771782e-06	-1.427104e-09	-3.387113e+01	-9.181972e+01
5.800000e-07	-4.749844e-06	-1.374569e-09	-3.371541e+01	-9.162341e+01
5.900000e-07	-4.727585e-06	-1.370348e-09	-3.355741e+01	-9.142742e+01
6.000000e-07	-4.705037e-06	-1.402691e-09	-3.339736e+01	-9.123060e+01
6.100000e-07	-4.682193e-06	-1.400038e-09	-3.323521e+01	-9.103212e+01
6.200000e-07	-4.658963e-06	-1.396613e-09	-3.307032e+01	-9.083147e+01
6.300000e-07	-4.635366e-06	-1.373497e-09	-3.290282e+01	-9.062854e+01
6.400000e-07	-4.611604e-06	-1.390611e-09	-3.273416e+01	-9.042357e+01
6.500000e-07	-4.587689e-06	-1.411476e-09	-3.256440e+01	-9.021718e+01
6.600000e-07	-4.563587e-06	-1.402845e-09	-3.239332e+01	-9.001022e+01
6.700000e-07	-4.539146e-06	-1.353599e-09	-3.221983e+01	-8.980381e+01
6.800000e-07	-4.514257e-06	-1.364843e-09	-3.204317e+01	-8.959915e+01
6.900000e-07	-4.488829e-06	-1.382687e-09	-3.186267e+01	-8.939748e+01
7.000000e-07	-4.462815e-06	-1.377935e-09	-3.167802e+01	-8.919994e+01
7.100000e-07	-4.436282e-06	-1.347834e-09	-3.148968e+01	-8.900752e+01
7.200000e-07	-4.409269e-06	-1.356452e-09	-3.129794e+01	-8.882095e+01
7.300000e-07	-4.381867e-06	-1.373934e-09	-3.110343e+01	-8.864063e+01
7.400000e-07	-4.354255e-06	-1.387583e-09	-3.090743e+01	-8.846660e+01
7.500000e-07	-4.326499e-06	-1.360674e-09	-3.071042e+01	-8.829851e+01
7.600000e-07	-4.298635e-06	-1.347352e-09	-3.051263e+01	-8.813562e+01
7.700000e-07	-4.270580e-06	-1.353975e-09	-3.031349e+01	-8.797682e+01
7.800000e-07	-4.242259e-06	-1.363127e-09	-3.011247e+01	-8.782069e+01
7.900000e-07	-4.213709e-06	-1.340279e-09	-2.990981e+01	-8.766558e+01
8.000000e-07	-4.184785e-06	-1.326653e-09	-2.970450e+01	-8.750965e+01
8.100000e-07	-4.155453e-06	-1.334899e-09	-2.949630e+01	-8.735102e+01
8.200000e-07	-4.125871e-06	-1.349471e-09	-2.928632e+01	-8.718780e+01
8.300000e-07	-4.096080e-06	-1.346632e-09	-2.907485e+01	-8.701824e+01
8.400000e-07	-4.066031e-06	-1.327694e-09	-2.886156e+01	-8.684080e+01
8.500000e-07	-4.035646e-06	-1.321983e-09	-2.864588e+01	-8.665422e+01
8.600000e-07	-4.005003e-06	-1.330697e-09	-2.842837e+01	-8.645756e+01
8.700000e-07	-3.974054e-06	-1.330617e-09	-2.820869e+01	-8.625029e+01
8.800000e-07	-3.942811e-06	-1.306099e-09	-2.798692e+01	-8.603227e+01
8.900000e-07	-3.911386e-06	-1.294486e-09	-2.776385e+01	-8.580373e+01
9.000000e-07	-3.879744e-06	-1.300002e-09	-2.753926e+01	-8.556531e+01
9.100000e-07	-3.847919e-06	-1.309575e-09	-2.731336e+01	-8.531792e+01
9.200000e-07	-3.815949e-06	-1.296545e-09	-2.708643e+01	-8.506278e+01
9.300000e-07	-3.783757e-06	-1.290394e-09	-2.685792e+01	-8.480125e+01
9.400000e-07	-3.751255e-06	-1.298943e-09	-2.662721e+01	-8.453481e+01
9.500000e-07	-3.718506e-06	-1.312065e-09	-2.639475e+01	-8.426497e+01
9.600000e-07	-3.685273e-06	-1.296318e-09	-2.615886e+01	-8.399315e+01
9.700000e-07	-3.651555e-06	-1.274612e-09	-2.591952e+01	-8.372064e+01
9.800000e-07	-3.617378e-06	-1.264588e-09	-2.567692e+01	-8.344854e+01
9.900000e-07	-3.582703e-06	-1.272119e-09	-2.543079e+01	-8.317768e+01
1.000000e-06	-3.547781e-06	-1.265454e-09	-2.518291e+01	-8.290861e+01
1.010000e-06	-3.512573e-06	-1.259020e-09	-2.493300e+01	-8.264159e+01
1.020000e-06	-3.477141e-06	-1.256728e-09	-2.468149e+01	-8.237659e+01
1.030000e-06	-3.441517e-06	-1.267816e-09	-2.442863e+01	-8.211332e+01
1.040000e-06	-3.405711e-06	-1.265053e-09	-2.417446e+01	-8.185128e+01
1.050000e-06	-3.369797e-06	-1.251130e-09	-2.391954e+01	-8.158977e+01
1.060000e-06	-3.333743e-06	-1.235856e-09	-2.366363e+01	-8.132800e+01
1.070000e-06	-3.297477e-06	-1.233197e-09	-2.340620e+01	-8.106514e+01
1.080000e-06	-3.260955e-06	-1.228647e-09	-2.314695e+01	-8.080039e+01
1.090000e-06	-3.224229e-06	-1.222075e-09	-2.288627e+01	-8.053302e+01
1.100000e-06	-3.187236e-06	-1.217836e-09	-2.262368e+01	-8.026245e+01
1.110000e-06	-3.150018e-06	-1.223002e-09	-2.235950e+01	-7.998827e+01
1.120000e-06	-3.112605e-06	-1.227291e-09	-2.209394e+01	-7.971029e+01
1.130000e-06	-3.074971e-06	-1.219077e-09	-2.182680e+01	-7.942853e+01
1.140000e-06	-3.037118e-06	-1.206026e-09	-2.155811e+01	-7.914321e+01
1.150000e-06	-2.999052e-06	-1.200585e-09	-2.128791e+01	-7.885475e+01
1.160000e-06	-2.960797e-06	-1.200239e-09	-2.101637e+01	-7.856373e+01
1.170000e-06	-2.922268e-06	-1.191500e-09	-2.074288e+01	-7.827081e+01
1.180000e-06	-2.883562e-06	-1.180075e-09	-2.046814e+01	-7.797673e+01
1.190000e-06	-2.844709e-06	-1.172843e-09	-2.019236e+01	-7.768217e+01
1.200000e-06	-2.805603e-06	-1.173045e-09	-1.991477e+01	-7.738776e+01
1.210000e-06	-2.766252e-06	-1.171026e-09	-1.963545e+01	-7.709401e+01
1.220000e-06	-2.726763e-06	-1.166793e-09	-1.935515e+01	-7.680120e+01
1.230000e-06	-2.687211e-06	-1.160242e-09	-1.907440e+01	-7.650942e+01
1.240000e-06	-2.647529e-06	-1.158550e-09	-1.879273e+01	-7.621850e+01
1.250000e-06	-2.607696e-06	-1.152824e-09	-1.850998e+01	-7.592799e+01
1.260000e-06	-2.567745e-06	-1.145727e-09	-1.822640e+01	-7.563722e+01
1.270000e-06	-2.527746e-06	-1.133834e-09	-1.794248e+01	-7.534525e+01
1.280000e-06	-2.487651e-06	-1.128087e-09	-1.765788e+01	-7.505098e+01
1.290000e-06	-2.447420e-06	-1.125469e-09	-1.737231e+01	-7.475316e+01
1.300000e-06	-2.407001e-06	-1.121717e-09	-1.708541e+01	-7.445046e+01
1.310000e-06	-2.366372e-06	-1.112463e-09	-1.679702e+01	-7.414154e+01
1.320000e-06	-2.325540e-06	-1.108458e-09	-1.650718e+01	-7.382511e+01
1.330000e-06	-2.284417e-06	-1.106432e-09	-1.621528e+01	-7.350003e+01
1.340000e-06	-2.242926e-06	-1.103764e-09	-1.592077e+01	-7.316535e+01
1.350000e-06	-2.201197e-06	-1.099992e-09	-1.562457e+01	-7.282033e+01
1.360000e-06	-2.159308e-06	-1.097490e-09	-1.532723e+01	-7.246457e+01
1.370000e-06	-2.117099e-06	-1.090021e-09	-1.502762e+01	-7.209791e+01
1.380000e-06	-2.074606e-06	-1.079608e-09	-1.472600e+01	-7.172056e+01
1.390000e-06	-2.031823e-06	-1.069225e-09	-1.442231e+01	-7.133298e+01
1.400000e-06	-1.988811e-06	-1.064372e-09	-1.411701e+01	-7.093593e+01
1.410000e-06	-1.945742e-06	-1.060298e-09	-1.381130e+01	-7.053039e+01
1.420000e-06	-1.902498e-06	-1.055827e-09	-1.350434e+01	-7.011749e+01
1.430000e-06	-1.859084e-06	-1.052041e-09	-1.319618e+01	-6.969849e+01
1.440000e-06	-1.815560e-06	-1.049003e-09	-1.288723e+01	-6.927464e+01
1.450000e-06	-1.771912e-06	-1.042069e-09	-1.257741e+01	-6.884716e+01
1.460000e-06	-1.728156e-06	-1.029560e-09	-1.226682e+01	-6.841716e+01
1.470000e-06	-1.684301e-06	-1.019769e-09	-1.195553e+01	-6.798552e+01
1.480000e-06	-1.640411e-06	-1.013065e-09	-1.164399e+01	-6.755293e+01
1.490000e-06	-1.596500e-06	-1.010066e-09	-1.133230e+01	-6.711975e+01
1.500000e-06	-1.552512e-06	-1.005708e-09	-1.102006e+01	-6.668606e+01
1.510000e-06	-1.508396e-06	-1.001639e-09	-1.070692e+01	-6.625161e+01
1.520000e-06	-1.464125e-06	-9.974666e-10	-1.039267e+01	-6.581583e+01
1.530000e-06	-1.419820e-06	-9.908239e-10	-1.007819e+01	-6.537789e+01
1.540000e-06	-1.375509e-06	-9.800094e-10	-9.763656e+00	-6.493670e+01
1.550000e-06	-1.331141e-06	-9.672184e-10	-9.448727e+00	-6.449099e+01
1.560000e-06	-1.286639e-06	-9.546369e-10	-9.132838e+00	-6.403936e+01
1.570000e-06	-1.241988e-06	-9.469639e-10	-8.815894e+00	-6.358035e+01
1.580000e-06	-1.197339e-06	-9.403414e-10	-8.498972e+00	-6.311252e+01
1.590000e-06	-1.152640e-06	-9.345865e-10	-8.181687e+00	-6.263449e+01
1.600000e-06	-1.107801e-06	-9.276402e-10	-7.863412e+00	-6.214503e+01
1.610000e-06	-1.062880e-06	-9.196418e-10	-7.544551e+00	-6.164311e+01
1.620000e-06	-1.017928e-06	-9.087580e-10	-7.225468e+00	-6.112789e+01
1.630000e-06	-9.728120e-07	-8.993931e-10	-6.905228e+00	-6.059881e+01
1.640000e-06	-9.275686e-07	-8.891362e-10	-6.584081e+00	-6.005553e+01
1.650000e-06	-8.823284e-07	-8.806744e-10	-6.262956e+00	-5.949796e+01
1.660000e-06	-8.370368e-07	-8.731997e-10	-5.941467e+00	-5.892623e+01
1.670000e-06	-7.915658e-07	-8.665106e-10	-5.618704e+00	-5.834064e+01
1.680000e-06	-7.460196e-07	-8.597455e-10	-5.295407e+00	-5.774160e+01
1.690000e-06	-7.004897e-07	-8.506272e-10	-4.972226e+00	-5.712958e+01
1.700000e-06	-6.549452e-07	-8.372552e-10	-4.648941e+00	-5.650509e+01
1.710000e-06	-6.093194e-07	-8.238476e-10	-4.325080e+00	-5.586852e+01
1.720000e-06	-5.636175e-07	-8.140031e-10	-4.000678e+00	-5.522020e+01
1.730000e-06	-5.179409e-07	-8.080363e-10	-3.676455e+00	-5.456023e+01
1.740000e-06	-4.722836e-07	-8.008844e-10	-3.352371e+00	-5.388855e+01
1.750000e-06	-4.265585e-07	-7.916152e-10	-3.027804e+00	-5.320481e+01
1.760000e-06	-3.806948e-07	-7.811393e-10	-2.702253e+00	-5.250844e+01
1.770000e-06	-3.347863e-07	-7.684852e-10	-2.376385e+00	-5.179861e+01
1.780000e-06	-2.889095e-07	-7.548935e-10	-2.050741e+00	-5.107422e+01
1.790000e-06	-2.429955e-07	-7.406331e-10	-1.724834e+00	-5.033400e+01
1.800000e-06	-1.971629e-07	-7.286314e-10	-1.399505e+00	-4.957648e+01
1.810000e-06	-1.513890e-07	-7.181351e-10	-1.074591e+00	-4.880008e+01
1.820000e-06	-1.055858e-07	-7.093756e-10	-7.494708e-01	-4.800317e+01
1.830000e-06	-5.981366e-08	-6.999887e-10	-4.245702e-01	-4.718409e+01
1.840000e-06	-1.401422e-08	-6.864468e-10	-9.947596e-02	-4.634126e+01
1.850000e-06	3.178439e-08	-6.713624e-10	2.256124e-01	-4.547320e+01
1.860000e-06	7.766107e-08	-6.573088e-10	5.512549e-01	-4.457858e+01
1.870000e-06	1.235522e-07	-6.422892e-10	8.769999e-01	-4.365626e+01
1.880000e-06	1.693943e-07	-6.271156e-10	1.202397e+00	-4.270533e+01
1.890000e-06	2.152378e-07	-6.121073e-10	1.527804e+00	-4.172508e+01
1.900000e-06	2.610851e-07	-5.994728e-10	1.853238e+00	-4.071506e+01
1.910000e-06	3.068799e-07	-5.844315e-10	2.178299e+00	-3.967499e+01
1.920000e-06	3.527238e-07	-5.677376e-10	2.503709e+00	-3.860481e+01
1.930000e-06	3.985432e-07	-5.485113e-10	2.828945e+00	-3.750457e+01
1.940000e-06	4.442526e-07	-5.287912e-10	3.153400e+00	-3.637443e+01
1.950000e-06	4.899347e-07	-5.110162e-10	3.477662e+00	-3.521463e+01
1.960000e-06	5.356192e-07	-4.968880e-10	3.801940e+00	-3.402537e+01
1.970000e-06	5.813163e-07	-4.821904e-10	4.126308e+00	-3.280685e+01
1.980000e-06	6.269032e-07	-4.635814e-10	4.449893e+00	-3.155915e+01
1.990000e-06	6.723594e-07	-4.429802e-10	4.772551e+00	-3.028226e+01
2.000000e-06	7.177416e-07	-4.217109e-10	5.094684e+00	-2.897602e+01
2.010000e-06	7.631576e-07	-3.976183e-10	5.417056e+00	-2.764015e+01
2.020000e-06	8.084457e-07	-3.753547e-10	5.738521e+00	-2.627418e+01
2.030000e-06	8.535589e-07	-3.554170e-10	6.058744e+00	-2.487755e+01
2.040000e-06	8.987070e-07	-3.384508e-10	6.379215e+00	-2.344958e+01
2.050000e-06	9.438421e-07	-3.204848e-10	6.699594e+00	-2.198953e+01
2.060000e-06	9.889063e-07	-2.979892e-10	7.019469e+00	-2.049663e+01
2.070000e-06	1.033953e-06	-2.704225e-10	7.339217e+00	-1.897015e+01
2.080000e-06	1.078888e-06	-2.386397e-10	7.658179e+00	-1.740943e+01
2.090000e-06	1.123787e-06	-2.067858e-10	7.976882e+00	-1.581394e+01
2.100000e-06	1.168604e-06	-1.777818e-10	8.295000e+00	-1.418333e+01
2.110000e-06	1.213250e-06	-1.516135e-10	8.611911e+00	-1.251748e+01
2.120000e-06	1.257818e-06	-1.281532e-10	8.928261e+00	-1.081650e+01
2.130000e-06	1.302302e-06	-1.082601e-10	9.244017e+00	-9.080791e+00
2.140000e-06	1.346746e-06	-8.813992e-11	9.559488e+00	-7.311030e+00
2.150000e-06	1.391064e-06	-6.243707e-11	9.874067e+00	-5.508184e+00
2.160000e-06	1.435267e-06	-3.152677e-11	1.018783e+01	-3.673492e+00
2.170000e-06	1.479433e-06	1.162979e-12	1.050134e+01	-1.808447e+00
2.180000e-06	1.523538e-06	3.493216e-11	1.081440e+01	8.523168e-02
2.190000e-06	1.567589e-06	6.632944e-11	1.112708e+01	2.005637e+00
2.200000e-06	1.611579e-06	9.655002e-11	1.143933e+01	3.950706e+00
2.210000e-06	1.655498e-06	1.245060e-10	1.175108e+01	5.918264e+00
2.220000e-06	1.699396e-06	1.508590e-10	1.206267e+01	7.906057e+00
2.230000e-06	1.743251e-06	1.774043e-10	1.237397e+01	9.911785e+00
2.240000e-06	1.787057e-06	2.093266e-10	1.268491e+01	1.193313e+01
2.250000e-06	1.830787e-06	2.446222e-10	1.299532e+01	1.396777e+01
2.260000e-06	1.874360e-06	2.809381e-10	1.330461e+01	1.601339e+01
2.270000e-06	1.917810e-06	3.144546e-10	1.361303e+01	1.806769e+01
2.280000e-06	1.961089e-06	3.450454e-10	1.392023e+01	2.012837e+01
2.290000e-06	2.004157e-06	3.751493e-10	1.422594e+01	2.219313e+01
2.300000e-06	2.047089e-06	4.038141e-10	1.453068e+01	2.425962e+01
2.310000e-06	2.089814e-06	4.305696e-10	1.483395e+01	2.632547e+01
2.320000e-06	2.132284e-06	4.605406e-10	1.513541e+01	2.838822e+01
2.330000e-06	2.174544e-06	4.950681e-10	1.543538e+01	3.044532e+01
2.340000e-06	2.216364e-06	5.301557e-10	1.573223e+01	3.249413e+01
2.350000e-06	2.257812e-06	5.610087e-10	1.602643e+01	3.453188e+01
2.360000e-06	2.299111e-06	5.894432e-10	1.631958e+01	3.655571e+01
2.370000e-06	2.340185e-06	6.195462e-10	1.661113e+01	3.856266e+01
2.380000e-06	2.380988e-06	6.500411e-10	1.690076e+01	4.054968e+01
2.390000e-06	2.421528e-06	6.786636e-10	1.718852e+01	4.251369e+01
2.400000e-06	2.461836e-06	7.069539e-10	1.747464e+01	4.445161e+01
2.410000e-06	2.501994e-06	7.377398e-10	1.775969e+01	4.636042e+01
2.420000e-06	2.542054e-06	7.707646e-10	1.804404e+01	4.823720e+01
2.430000e-06	2.581997e-06	8.034840e-10	1.832757e+01	5.007922e+01
2.440000e-06	2.621834e-06	8.304595e-10	1.861034e+01	5.188394e+01
2.450000e-06	2.661533e-06	8.518689e-10	1.889213e+01	5.364915e+01
2.460000e-06	2.701168e-06	8.755661e-10	1.917347e+01	5.537296e+01
2.470000e-06	2.740686e-06	9.019291e-10	1.945397e+01	5.705385e+01
2.480000e-06	2.779955e-06	9.246206e-10	1.973272e+01	5.869071e+01
2.490000e-06	2.819102e-06	9.465630e-10	2.001059e+01	6.028285e+01
2.500000e-06	2.858106e-06	9.724074e-10	2.028745e+01	6.182998e+01
2.510000e-06	2.896824e-06	1.000435e-09	2.056228e+01	6.333223e+01
2.520000e-06	2.935234e-06	1.026763e-09	2.083492e+01	6.479009e+01
2.530000e-06	2.973407e-06	1.052405e-09	2.110588e+01	6.620434e+01
2.540000e-06	3.011456e-06	1.076022e-09	2.137596e+01	6.757604e+01
2.550000e-06	3.049445e-06	1.095192e-09	2.164562e+01	6.890643e+01
2.560000e-06	3.087227e-06	1.109739e-09	2.191380e+01	7.019687e+01
2.570000e-06	3.124779e-06	1.123352e-09	2.218035e+01	7.144876e+01
2.580000e-06	3.162091e-06	1.138611e-09	2.244520e+01	7.266345e+01
2.590000e-06	3.199103e-06	1.159431e-09	2.270792e+01	7.384221e+01
2.600000e-06	3.235853e-06	1.184389e-09	2.296878e+01	7.498615e+01
2.610000e-06	3.272332e-06	1.208347e-09	2.322771e+01	7.609617e+01
2.620000e-06	3.308640e-06	1.226531e-09	2.348544e+01	7.717294e+01
2.630000e-06	3.344797e-06	1.240022e-09	2.374209e+01	7.821692e+01
2.640000e-06	3.380786e-06	1.250793e-09	2.399754e+01	7.922828e+01
2.650000e-06	3.416592e-06	1.258361e-09	2.425170e+01	8.020702e+01
2.660000e-06	3.452244e-06	1.266535e-09	2.450477e+01	8.115295e+01
2.670000e-06	3.487752e-06	1.279733e-09	2.475681e+01	8.206572e+01
2.680000e-06	3.523082e-06	1.297543e-09	2.500759e+01	8.294494e+01
2.690000e-06	3.558109e-06	1.316446e-09	2.525622e+01	8.379020e+01
2.700000e-06	3.592782e-06	1.335054e-09	2.550234e+01	8.460112e+01
2.710000e-06	3.627194e-06	1.351280e-09	2.574660e+01	8.537748e+01
2.720000e-06	3.661151e-06	1.361261e-09	2.598764e+01	8.611919e+01
2.730000e-06	3.694504e-06	1.367503e-09	2.622438e+01	8.682640e+01
2.740000e-06	3.727509e-06	1.373903e-09	2.645865e+01	8.749952e+01
2.750000e-06	3.760180e-06	1.380272e-09	2.669056e+01	8.813922e+01
2.760000e-06	3.792494e-06	1.388528e-09	2.691994e+01	8.874645e+01
2.770000e-06	3.824593e-06	1.396900e-09	2.714778e+01	8.932243e+01
2.780000e-06	3.856495e-06	1.407017e-09	2.737423e+01	8.986861e+01
2.790000e-06	3.888248e-06	1.419419e-09	2.759962e+01	9.038662e+01
2.800000e-06	3.919887e-06	1.427805e-09	2.782420e+01	9.087823e+01
2.810000e-06	3.951338e-06	1.429316e-09	2.804744e+01	9.134530e+01
2.820000e-06	3.982474e-06	1.430694e-09	2.826845e+01	9.178967e+01
2.830000e-06	4.013255e-06	1.437563e-09	2.848694e+01	9.221314e+01
2.840000e-06	4.043781e-06	1.444459e-09	2.870363e+01	9.261739e+01
2.850000e-06	4.074080e-06	1.447555e-09	2.891869e+01	9.300390e+01
2.860000e-06	4.104060e-06	1.452373e-09	2.913150e+01	9.337396e+01
2.870000e-06	4.133782e-06	1.461066e-09	2.934247e+01	9.372857e+01
2.880000e-06	4.163288e-06	1.468768e-09	2.955191e+01	9.406848e+01
2.890000e-06	4.192464e-06	1.468230e-09	2.975901e+01	9.439420e+01
2.900000e-06	4.221371e-06	1.466585e-09	2.996419e+01	9.470595e+01
