# Temperatura_=_18.6
# Concentracion g/m^3_=_4090.0
# C_Vs_to_Am_M_A/Vsm_=_65563218390.804596
# pendiente_HvsI_1/m_=_3716.3
# ordenada_HvsI_A/m_=_1297.0
# frecuencia_Hz_=_135085.47521699494

Tiempo_(s)	Campo_(V.s)	Magnetizacion_(V.s)	Campo_(kA/m)	Magnetizacion_(A/m)
0.000000e+00	-5.401766e-06	-1.248799e-09	-3.837840e+01	-8.585454e+01
1.000000e-08	-5.401789e-06	-1.238450e-09	-3.837856e+01	-8.570039e+01
2.000000e-08	-5.401620e-06	-1.228152e-09	-3.837736e+01	-8.552370e+01
3.000000e-08	-5.401211e-06	-1.221459e-09	-3.837446e+01	-8.532508e+01
4.000000e-08	-5.400519e-06	-1.220471e-09	-3.836954e+01	-8.510632e+01
5.000000e-08	-5.399230e-06	-1.222270e-09	-3.836038e+01	-8.487043e+01
6.000000e-08	-5.397286e-06	-1.226234e-09	-3.834657e+01	-8.462160e+01
7.000000e-08	-5.394814e-06	-1.241858e-09	-3.832901e+01	-8.436512e+01
8.000000e-08	-5.391761e-06	-1.251510e-09	-3.830731e+01	-8.410720e+01
9.000000e-08	-5.388025e-06	-1.225849e-09	-3.828077e+01	-8.385483e+01
1.000000e-07	-5.383829e-06	-1.219727e-09	-3.825096e+01	-8.361547e+01
1.100000e-07	-5.379481e-06	-1.263300e-09	-3.822007e+01	-8.339680e+01
1.200000e-07	-5.374990e-06	-1.242473e-09	-3.818816e+01	-8.320638e+01
1.300000e-07	-5.370177e-06	-1.189288e-09	-3.815397e+01	-8.305137e+01
1.400000e-07	-5.364891e-06	-1.198794e-09	-3.811641e+01	-8.293821e+01
1.500000e-07	-5.359284e-06	-1.287108e-09	-3.807657e+01	-8.287230e+01
1.600000e-07	-5.353354e-06	-1.283278e-09	-3.803444e+01	-8.285775e+01
1.700000e-07	-5.346966e-06	-1.165565e-09	-3.798906e+01	-8.289717e+01
1.800000e-07	-5.340073e-06	-1.187913e-09	-3.794008e+01	-8.299152e+01
1.900000e-07	-5.332756e-06	-1.284476e-09	-3.788810e+01	-8.313999e+01
2.000000e-07	-5.325293e-06	-1.293260e-09	-3.783508e+01	-8.333999e+01
2.100000e-07	-5.317609e-06	-1.194375e-09	-3.778048e+01	-8.358722e+01
2.200000e-07	-5.309607e-06	-1.248601e-09	-3.772363e+01	-8.387576e+01
2.300000e-07	-5.301421e-06	-1.343744e-09	-3.766547e+01	-8.419830e+01
2.400000e-07	-5.292964e-06	-1.328414e-09	-3.760538e+01	-8.454632e+01
2.500000e-07	-5.283904e-06	-1.290687e-09	-3.754102e+01	-8.491048e+01
2.600000e-07	-5.274047e-06	-1.370690e-09	-3.747098e+01	-8.528089e+01
2.700000e-07	-5.263550e-06	-1.410911e-09	-3.739641e+01	-8.564747e+01
2.800000e-07	-5.252497e-06	-1.333840e-09	-3.731787e+01	-8.600036e+01
2.900000e-07	-5.241068e-06	-1.312485e-09	-3.723667e+01	-8.633021e+01
3.000000e-07	-5.229350e-06	-1.375029e-09	-3.715342e+01	-8.662853e+01
3.100000e-07	-5.217143e-06	-1.362646e-09	-3.706669e+01	-8.688798e+01
3.200000e-07	-5.204536e-06	-1.312574e-09	-3.697712e+01	-8.710261e+01
3.300000e-07	-5.191619e-06	-1.361904e-09	-3.688535e+01	-8.726801e+01
3.400000e-07	-5.178295e-06	-1.388068e-09	-3.679069e+01	-8.738142e+01
3.500000e-07	-5.164604e-06	-1.346381e-09	-3.669341e+01	-8.744179e+01
3.600000e-07	-5.150570e-06	-1.340563e-09	-3.659370e+01	-8.744969e+01
3.700000e-07	-5.136147e-06	-1.369695e-09	-3.649123e+01	-8.740724e+01
3.800000e-07	-5.121128e-06	-1.316897e-09	-3.638452e+01	-8.731796e+01
3.900000e-07	-5.105497e-06	-1.298180e-09	-3.627347e+01	-8.718649e+01
4.000000e-07	-5.089393e-06	-1.344897e-09	-3.615905e+01	-8.701840e+01
4.100000e-07	-5.072697e-06	-1.349160e-09	-3.604043e+01	-8.681986e+01
4.200000e-07	-5.055542e-06	-1.301138e-09	-3.591855e+01	-8.659734e+01
4.300000e-07	-5.038186e-06	-1.335000e-09	-3.579524e+01	-8.635738e+01
4.400000e-07	-5.020640e-06	-1.361481e-09	-3.567058e+01	-8.610622e+01
4.500000e-07	-5.002854e-06	-1.327359e-09	-3.554422e+01	-8.584961e+01
4.600000e-07	-4.984796e-06	-1.299944e-09	-3.541592e+01	-8.559260e+01
4.700000e-07	-4.966339e-06	-1.322049e-09	-3.528479e+01	-8.533935e+01
4.800000e-07	-4.947438e-06	-1.312342e-09	-3.515049e+01	-8.509303e+01
4.900000e-07	-4.928062e-06	-1.300356e-09	-3.501283e+01	-8.485579e+01
5.000000e-07	-4.908348e-06	-1.296720e-09	-3.487277e+01	-8.462872e+01
5.100000e-07	-4.888426e-06	-1.294843e-09	-3.473123e+01	-8.441198e+01
5.200000e-07	-4.868254e-06	-1.295582e-09	-3.458791e+01	-8.420480e+01
5.300000e-07	-4.847868e-06	-1.313923e-09	-3.444307e+01	-8.400573e+01
5.400000e-07	-4.827253e-06	-1.304132e-09	-3.429660e+01	-8.381274e+01
5.500000e-07	-4.806320e-06	-1.289144e-09	-3.414788e+01	-8.362344e+01
5.600000e-07	-4.784969e-06	-1.295692e-09	-3.399619e+01	-8.343529e+01
5.700000e-07	-4.763347e-06	-1.296527e-09	-3.384257e+01	-8.324577e+01
5.800000e-07	-4.741513e-06	-1.272642e-09	-3.368744e+01	-8.305255e+01
5.900000e-07	-4.719317e-06	-1.256134e-09	-3.352975e+01	-8.285369e+01
6.000000e-07	-4.696733e-06	-1.263241e-09	-3.336929e+01	-8.264770e+01
6.100000e-07	-4.673758e-06	-1.278212e-09	-3.320605e+01	-8.243369e+01
6.200000e-07	-4.650447e-06	-1.284859e-09	-3.304044e+01	-8.221136e+01
6.300000e-07	-4.626884e-06	-1.274127e-09	-3.287303e+01	-8.198100e+01
6.400000e-07	-4.603035e-06	-1.273958e-09	-3.270359e+01	-8.174351e+01
6.500000e-07	-4.578986e-06	-1.281101e-09	-3.253272e+01	-8.150025e+01
6.600000e-07	-4.554768e-06	-1.273534e-09	-3.236066e+01	-8.125300e+01
6.700000e-07	-4.530264e-06	-1.247923e-09	-3.218657e+01	-8.100378e+01
6.800000e-07	-4.505397e-06	-1.240892e-09	-3.200989e+01	-8.075473e+01
6.900000e-07	-4.480049e-06	-1.244761e-09	-3.182980e+01	-8.050800e+01
7.000000e-07	-4.454117e-06	-1.253014e-09	-3.164556e+01	-8.026553e+01
7.100000e-07	-4.427714e-06	-1.246566e-09	-3.145796e+01	-8.002901e+01
7.200000e-07	-4.400932e-06	-1.244687e-09	-3.126768e+01	-7.979970e+01
7.300000e-07	-4.373686e-06	-1.246110e-09	-3.107411e+01	-7.957840e+01
7.400000e-07	-4.346075e-06	-1.251358e-09	-3.087794e+01	-7.936537e+01
7.500000e-07	-4.318204e-06	-1.240701e-09	-3.067992e+01	-7.916032e+01
7.600000e-07	-4.290147e-06	-1.229986e-09	-3.048059e+01	-7.896244e+01
7.700000e-07	-4.261877e-06	-1.229490e-09	-3.027973e+01	-7.877044e+01
7.800000e-07	-4.233327e-06	-1.234139e-09	-3.007689e+01	-7.858262e+01
7.900000e-07	-4.204620e-06	-1.226297e-09	-2.987293e+01	-7.839697e+01
8.000000e-07	-4.175684e-06	-1.217443e-09	-2.966735e+01	-7.821131e+01
8.100000e-07	-4.146385e-06	-1.210901e-09	-2.945918e+01	-7.802338e+01
8.200000e-07	-4.116709e-06	-1.212939e-09	-2.924834e+01	-7.783100e+01
8.300000e-07	-4.086777e-06	-1.211429e-09	-2.903568e+01	-7.763216e+01
8.400000e-07	-4.056633e-06	-1.206615e-09	-2.882151e+01	-7.742515e+01
8.500000e-07	-4.026263e-06	-1.204457e-09	-2.860574e+01	-7.720865e+01
8.600000e-07	-3.995567e-06	-1.206808e-09	-2.838766e+01	-7.698176e+01
8.700000e-07	-3.964505e-06	-1.204802e-09	-2.816696e+01	-7.674408e+01
8.800000e-07	-3.933050e-06	-1.195132e-09	-2.794348e+01	-7.649567e+01
8.900000e-07	-3.901301e-06	-1.182265e-09	-2.771792e+01	-7.623709e+01
9.000000e-07	-3.869522e-06	-1.171430e-09	-2.749213e+01	-7.596928e+01
9.100000e-07	-3.837616e-06	-1.167566e-09	-2.726545e+01	-7.569355e+01
9.200000e-07	-3.805551e-06	-1.168154e-09	-2.703763e+01	-7.541143e+01
9.300000e-07	-3.773360e-06	-1.174903e-09	-2.680892e+01	-7.512463e+01
9.400000e-07	-3.740921e-06	-1.182276e-09	-2.657845e+01	-7.483489e+01
9.500000e-07	-3.708179e-06	-1.182903e-09	-2.634582e+01	-7.454387e+01
9.600000e-07	-3.675100e-06	-1.172131e-09	-2.611081e+01	-7.425308e+01
9.700000e-07	-3.641592e-06	-1.155183e-09	-2.587274e+01	-7.396377e+01
9.800000e-07	-3.607653e-06	-1.137553e-09	-2.563161e+01	-7.367687e+01
9.900000e-07	-3.573282e-06	-1.129679e-09	-2.538741e+01	-7.339295e+01
1.000000e-06	-3.538477e-06	-1.125820e-09	-2.514013e+01	-7.311217e+01
1.010000e-06	-3.503280e-06	-1.131189e-09	-2.489006e+01	-7.283432e+01
1.020000e-06	-3.467835e-06	-1.139674e-09	-2.463823e+01	-7.255884e+01
1.030000e-06	-3.432147e-06	-1.149229e-09	-2.438468e+01	-7.228484e+01
1.040000e-06	-3.396201e-06	-1.146677e-09	-2.412929e+01	-7.201123e+01
1.050000e-06	-3.360154e-06	-1.135740e-09	-2.387318e+01	-7.173672e+01
1.060000e-06	-3.324019e-06	-1.120201e-09	-2.361645e+01	-7.146000e+01
1.070000e-06	-3.287741e-06	-1.105209e-09	-2.335870e+01	-7.117977e+01
1.080000e-06	-3.251348e-06	-1.091238e-09	-2.310014e+01	-7.089485e+01
1.090000e-06	-3.214787e-06	-1.082871e-09	-2.284038e+01	-7.060427e+01
1.100000e-06	-3.177843e-06	-1.083143e-09	-2.257790e+01	-7.030731e+01
1.110000e-06	-3.140594e-06	-1.088909e-09	-2.231325e+01	-7.000357e+01
1.120000e-06	-3.103134e-06	-1.091262e-09	-2.204711e+01	-6.969301e+01
1.130000e-06	-3.065509e-06	-1.088983e-09	-2.177979e+01	-6.937589e+01
1.140000e-06	-3.027708e-06	-1.080514e-09	-2.151122e+01	-6.905282e+01
1.150000e-06	-2.989728e-06	-1.071030e-09	-2.124138e+01	-6.872470e+01
1.160000e-06	-2.951593e-06	-1.061077e-09	-2.097044e+01	-6.839263e+01
1.170000e-06	-2.913282e-06	-1.050523e-09	-2.069825e+01	-6.805787e+01
1.180000e-06	-2.874704e-06	-1.044313e-09	-2.042416e+01	-6.772174e+01
1.190000e-06	-2.835876e-06	-1.041533e-09	-2.014830e+01	-6.738554e+01
1.200000e-06	-2.796875e-06	-1.043212e-09	-1.987120e+01	-6.705047e+01
1.210000e-06	-2.757547e-06	-1.046181e-09	-1.959179e+01	-6.671752e+01
1.220000e-06	-2.717911e-06	-1.045639e-09	-1.931018e+01	-6.638743e+01
1.230000e-06	-2.678171e-06	-1.040237e-09	-1.902783e+01	-6.606064e+01
1.240000e-06	-2.638353e-06	-1.031900e-09	-1.874494e+01	-6.573724e+01
1.250000e-06	-2.598389e-06	-1.020286e-09	-1.846100e+01	-6.541696e+01
1.260000e-06	-2.558375e-06	-1.011628e-09	-1.817671e+01	-6.509920e+01
1.270000e-06	-2.518284e-06	-1.003248e-09	-1.789188e+01	-6.478302e+01
1.280000e-06	-2.478073e-06	-1.000931e-09	-1.760618e+01	-6.446724e+01
1.290000e-06	-2.437788e-06	-1.001953e-09	-1.731996e+01	-6.415049e+01
1.300000e-06	-2.397432e-06	-1.002190e-09	-1.703324e+01	-6.383127e+01
1.310000e-06	-2.356901e-06	-9.976117e-10	-1.674528e+01	-6.350805e+01
1.320000e-06	-2.316141e-06	-9.918299e-10	-1.645569e+01	-6.317936e+01
1.330000e-06	-2.275095e-06	-9.842167e-10	-1.616406e+01	-6.284387e+01
1.340000e-06	-2.233748e-06	-9.768445e-10	-1.587031e+01	-6.250046e+01
1.350000e-06	-2.192221e-06	-9.706493e-10	-1.557526e+01	-6.214831e+01
1.360000e-06	-2.150354e-06	-9.660814e-10	-1.527781e+01	-6.178689e+01
1.370000e-06	-2.108091e-06	-9.600453e-10	-1.497754e+01	-6.141602e+01
1.380000e-06	-2.065658e-06	-9.532284e-10	-1.467606e+01	-6.103589e+01
1.390000e-06	-2.023113e-06	-9.484052e-10	-1.437379e+01	-6.064699e+01
1.400000e-06	-1.980357e-06	-9.442906e-10	-1.407002e+01	-6.025011e+01
1.410000e-06	-1.937320e-06	-9.368246e-10	-1.376425e+01	-5.984628e+01
1.420000e-06	-1.894062e-06	-9.282802e-10	-1.345691e+01	-5.943668e+01
1.430000e-06	-1.850578e-06	-9.224990e-10	-1.314796e+01	-5.902257e+01
1.440000e-06	-1.806885e-06	-9.185768e-10	-1.283754e+01	-5.860521e+01
1.450000e-06	-1.763102e-06	-9.134501e-10	-1.252646e+01	-5.818576e+01
1.460000e-06	-1.719294e-06	-9.071852e-10	-1.221522e+01	-5.776519e+01
1.470000e-06	-1.675444e-06	-9.026815e-10	-1.190368e+01	-5.734426e+01
1.480000e-06	-1.631451e-06	-8.972706e-10	-1.159111e+01	-5.692341e+01
1.490000e-06	-1.587318e-06	-8.920928e-10	-1.127756e+01	-5.650273e+01
1.500000e-06	-1.543151e-06	-8.851124e-10	-1.096376e+01	-5.608196e+01
1.510000e-06	-1.498946e-06	-8.792723e-10	-1.064969e+01	-5.566051e+01
1.520000e-06	-1.454679e-06	-8.735899e-10	-1.033519e+01	-5.523741e+01
1.530000e-06	-1.410333e-06	-8.645867e-10	-1.002012e+01	-5.481145e+01
1.540000e-06	-1.365924e-06	-8.538955e-10	-9.704603e+00	-5.438116e+01
1.550000e-06	-1.321495e-06	-8.440362e-10	-9.388944e+00	-5.394491e+01
1.560000e-06	-1.277023e-06	-8.344240e-10	-9.072979e+00	-5.350102e+01
1.570000e-06	-1.232414e-06	-8.282238e-10	-8.756039e+00	-5.304777e+01
1.580000e-06	-1.187740e-06	-8.240195e-10	-8.438640e+00	-5.258357e+01
1.590000e-06	-1.142970e-06	-8.198698e-10	-8.120560e+00	-5.210695e+01
1.600000e-06	-1.098143e-06	-8.124233e-10	-7.802070e+00	-5.161668e+01
1.610000e-06	-1.053278e-06	-8.031199e-10	-7.483318e+00	-5.111182e+01
1.620000e-06	-1.008221e-06	-7.912135e-10	-7.163197e+00	-5.059168e+01
1.630000e-06	-9.631684e-07	-7.785284e-10	-6.843107e+00	-5.005593e+01
1.640000e-06	-9.180991e-07	-7.678177e-10	-6.522899e+00	-4.950450e+01
1.650000e-06	-8.728627e-07	-7.581139e-10	-6.201504e+00	-4.893763e+01
1.660000e-06	-8.275145e-07	-7.481920e-10	-5.879314e+00	-4.835576e+01
1.670000e-06	-7.821697e-07	-7.411898e-10	-5.557149e+00	-4.775949e+01
1.680000e-06	-7.367547e-07	-7.362270e-10	-5.234486e+00	-4.714952e+01
1.690000e-06	-6.911536e-07	-7.296841e-10	-4.910499e+00	-4.652655e+01
1.700000e-06	-6.455430e-07	-7.182070e-10	-4.586446e+00	-4.589124e+01
1.710000e-06	-6.000019e-07	-7.044977e-10	-4.262886e+00	-4.524409e+01
1.720000e-06	-5.544119e-07	-6.931267e-10	-3.938979e+00	-4.458537e+01
1.730000e-06	-5.087754e-07	-6.821061e-10	-3.614741e+00	-4.391511e+01
1.740000e-06	-4.630737e-07	-6.717763e-10	-3.290040e+00	-4.323303e+01
1.750000e-06	-4.173006e-07	-6.610502e-10	-2.964832e+00	-4.253852e+01
1.760000e-06	-3.715136e-07	-6.499398e-10	-2.639525e+00	-4.183064e+01
1.770000e-06	-3.257125e-07	-6.386715e-10	-2.314118e+00	-4.110814e+01
1.780000e-06	-2.798450e-07	-6.286732e-10	-1.988239e+00	-4.036952e+01
1.790000e-06	-2.339328e-07	-6.187498e-10	-1.662043e+00	-3.961304e+01
1.800000e-06	-1.880967e-07	-6.073856e-10	-1.336387e+00	-3.883682e+01
1.810000e-06	-1.423090e-07	-5.927594e-10	-1.011075e+00	-3.803889e+01
1.820000e-06	-9.652009e-08	-5.773356e-10	-6.857547e-01	-3.721732e+01
1.830000e-06	-5.068846e-08	-5.647396e-10	-3.601307e-01	-3.637025e+01
1.840000e-06	-4.833812e-09	-5.548052e-10	-3.434320e-02	-3.549598e+01
1.850000e-06	4.096545e-08	-5.444513e-10	2.910508e-01	-3.459308e+01
1.860000e-06	8.672728e-08	-5.325305e-10	6.161789e-01	-3.366036e+01
1.870000e-06	1.325118e-07	-5.197999e-10	9.414680e-01	-3.269700e+01
1.880000e-06	1.782776e-07	-5.068647e-10	1.266625e+00	-3.170252e+01
1.890000e-06	2.240311e-07	-4.899504e-10	1.591693e+00	-3.067677e+01
1.900000e-06	2.697912e-07	-4.675181e-10	1.916809e+00	-2.961996e+01
1.910000e-06	3.155415e-07	-4.442916e-10	2.241855e+00	-2.853259e+01
1.920000e-06	3.612567e-07	-4.254732e-10	2.566652e+00	-2.741541e+01
1.930000e-06	4.069132e-07	-4.111688e-10	2.891032e+00	-2.626934e+01
1.940000e-06	4.526152e-07	-3.958693e-10	3.215735e+00	-2.509545e+01
1.950000e-06	4.983910e-07	-3.782336e-10	3.540962e+00	-2.389483e+01
1.960000e-06	5.440721e-07	-3.634143e-10	3.865517e+00	-2.266854e+01
1.970000e-06	5.896032e-07	-3.486085e-10	4.189005e+00	-2.141755e+01
1.980000e-06	6.350274e-07	-3.289022e-10	4.511735e+00	-2.014267e+01
1.990000e-06	6.804700e-07	-3.035243e-10	4.834595e+00	-1.884454e+01
2.000000e-06	7.259727e-07	-2.779878e-10	5.157882e+00	-1.752353e+01
2.010000e-06	7.713934e-07	-2.573441e-10	5.480586e+00	-1.617980e+01
2.020000e-06	8.167875e-07	-2.387316e-10	5.803102e+00	-1.481329e+01
2.030000e-06	8.620951e-07	-2.184452e-10	6.125003e+00	-1.342370e+01
2.040000e-06	9.072501e-07	-1.963876e-10	6.445819e+00	-1.201061e+01
2.050000e-06	9.523059e-07	-1.738768e-10	6.765931e+00	-1.057345e+01
2.060000e-06	9.972523e-07	-1.501036e-10	7.085266e+00	-9.111644e+00
2.070000e-06	1.042129e-06	-1.244339e-10	7.404108e+00	-7.624612e+00
2.080000e-06	1.086936e-06	-9.780947e-11	7.722450e+00	-6.111895e+00
2.090000e-06	1.131627e-06	-7.172603e-11	8.039966e+00	-4.573198e+00
2.100000e-06	1.176235e-06	-4.830813e-11	8.356899e+00	-3.008466e+00
2.110000e-06	1.220798e-06	-2.528807e-11	8.673512e+00	-1.417935e+00
2.120000e-06	1.265310e-06	9.821318e-13	8.989761e+00	1.978231e-01
2.130000e-06	1.309769e-06	2.551987e-11	9.305632e+00	1.837880e+00
2.140000e-06	1.354155e-06	4.891142e-11	9.620981e+00	3.500938e+00
2.150000e-06	1.398537e-06	7.355199e-11	9.936310e+00	5.185336e+00
2.160000e-06	1.442838e-06	9.941871e-11	1.025106e+01	6.889080e+00
2.170000e-06	1.487023e-06	1.277866e-10	1.056498e+01	8.609878e+00
2.180000e-06	1.531172e-06	1.559998e-10	1.087865e+01	1.034519e+01
2.190000e-06	1.575249e-06	1.831068e-10	1.119181e+01	1.209230e+01
2.200000e-06	1.619256e-06	2.105217e-10	1.150447e+01	1.384837e+01
2.210000e-06	1.663222e-06	2.370490e-10	1.181684e+01	1.561050e+01
2.220000e-06	1.707184e-06	2.628228e-10	1.212918e+01	1.737583e+01
2.230000e-06	1.751106e-06	2.903024e-10	1.244124e+01	1.914157e+01
2.240000e-06	1.794843e-06	3.212771e-10	1.275198e+01	2.090506e+01
2.250000e-06	1.838434e-06	3.511635e-10	1.306168e+01	2.266379e+01
2.260000e-06	1.881889e-06	3.774976e-10	1.337042e+01	2.441548e+01
2.270000e-06	1.925154e-06	4.025994e-10	1.367781e+01	2.615804e+01
2.280000e-06	1.968205e-06	4.303535e-10	1.398368e+01	2.788960e+01
2.290000e-06	2.011030e-06	4.585265e-10	1.428794e+01	2.960849e+01
2.300000e-06	2.053679e-06	4.828203e-10	1.459095e+01	3.131320e+01
2.310000e-06	2.096184e-06	5.065140e-10	1.489294e+01	3.300238e+01
2.320000e-06	2.138459e-06	5.355411e-10	1.519330e+01	3.467478e+01
2.330000e-06	2.180364e-06	5.661578e-10	1.549102e+01	3.632921e+01
2.340000e-06	2.221909e-06	5.902135e-10	1.578619e+01	3.796452e+01
2.350000e-06	2.263179e-06	6.103825e-10	1.607941e+01	3.957954e+01
2.360000e-06	2.304252e-06	6.348515e-10	1.637122e+01	4.117308e+01
2.370000e-06	2.345134e-06	6.635222e-10	1.666168e+01	4.274389e+01
2.380000e-06	2.385856e-06	6.895850e-10	1.695100e+01	4.429066e+01
2.390000e-06	2.426366e-06	7.110940e-10	1.723882e+01	4.581203e+01
2.400000e-06	2.466687e-06	7.306067e-10	1.752529e+01	4.730662e+01
2.410000e-06	2.506898e-06	7.517333e-10	1.781098e+01	4.877302e+01
2.420000e-06	2.546953e-06	7.753615e-10	1.809556e+01	5.020984e+01
2.430000e-06	2.586916e-06	7.995255e-10	1.837949e+01	5.161579e+01
2.440000e-06	2.626873e-06	8.222758e-10	1.866338e+01	5.298964e+01
2.450000e-06	2.666737e-06	8.438523e-10	1.894660e+01	5.433038e+01
2.460000e-06	2.706383e-06	8.658963e-10	1.922828e+01	5.563714e+01
2.470000e-06	2.745773e-06	8.856315e-10	1.950814e+01	5.690933e+01
2.480000e-06	2.784988e-06	9.010581e-10	1.978675e+01	5.814659e+01
2.490000e-06	2.824031e-06	9.161995e-10	2.006414e+01	5.934885e+01
2.500000e-06	2.862836e-06	9.329628e-10	2.033984e+01	6.051631e+01
2.510000e-06	2.901418e-06	9.500930e-10	2.061396e+01	6.164946e+01
2.520000e-06	2.939866e-06	9.705888e-10	2.088713e+01	6.274900e+01
2.530000e-06	2.978097e-06	9.925523e-10	2.115874e+01	6.381584e+01
2.540000e-06	3.016089e-06	1.011979e-09	2.142867e+01	6.485107e+01
2.550000e-06	3.053842e-06	1.026867e-09	2.169690e+01	6.585586e+01
2.560000e-06	3.091402e-06	1.038441e-09	2.196375e+01	6.683142e+01
2.570000e-06	3.128828e-06	1.049579e-09	2.222966e+01	6.777893e+01
2.580000e-06	3.166009e-06	1.060674e-09	2.249382e+01	6.869951e+01
2.590000e-06	3.202951e-06	1.074164e-09	2.275629e+01	6.959411e+01
2.600000e-06	3.239669e-06	1.089590e-09	2.301716e+01	7.046353e+01
2.610000e-06	3.276173e-06	1.108276e-09	2.327651e+01	7.130834e+01
2.620000e-06	3.312477e-06	1.127129e-09	2.353445e+01	7.212886e+01
2.630000e-06	3.348609e-06	1.140682e-09	2.379116e+01	7.292521e+01
2.640000e-06	3.384625e-06	1.149198e-09	2.404704e+01	7.369724e+01
2.650000e-06	3.420602e-06	1.155127e-09	2.430265e+01	7.444465e+01
2.660000e-06	3.456465e-06	1.159634e-09	2.455745e+01	7.516693e+01
2.670000e-06	3.492094e-06	1.164847e-09	2.481059e+01	7.586351e+01
2.680000e-06	3.527448e-06	1.173525e-09	2.506177e+01	7.653375e+01
2.690000e-06	3.562434e-06	1.187156e-09	2.531033e+01	7.717703e+01
2.700000e-06	3.596941e-06	1.201845e-09	2.555550e+01	7.779281e+01
2.710000e-06	3.631064e-06	1.214489e-09	2.579794e+01	7.838070e+01
2.720000e-06	3.664786e-06	1.223023e-09	2.603753e+01	7.894049e+01
2.730000e-06	3.698002e-06	1.230807e-09	2.627352e+01	7.947222e+01
2.740000e-06	3.730855e-06	1.237811e-09	2.650693e+01	7.997620e+01
2.750000e-06	3.763473e-06	1.242703e-09	2.673868e+01	8.045302e+01
2.760000e-06	3.795893e-06	1.245786e-09	2.696902e+01	8.090355e+01
2.770000e-06	3.828085e-06	1.249419e-09	2.719773e+01	8.132893e+01
2.780000e-06	3.860100e-06	1.258185e-09	2.742519e+01	8.173053e+01
2.790000e-06	3.891955e-06	1.269285e-09	2.765151e+01	8.210989e+01
2.800000e-06	3.923565e-06	1.275242e-09	2.787610e+01	8.246871e+01
2.810000e-06	3.954864e-06	1.273482e-09	2.809847e+01	8.280875e+01
2.820000e-06	3.985917e-06	1.273371e-09	2.831909e+01	8.313175e+01
2.830000e-06	4.016750e-06	1.279507e-09	2.853815e+01	8.343941e+01
2.840000e-06	4.047264e-06	1.285348e-09	2.875495e+01	8.373330e+01
2.850000e-06	4.077465e-06	1.288871e-09	2.896952e+01	8.401481e+01
2.860000e-06	4.107432e-06	1.294186e-09	2.918243e+01	8.428511e+01
2.870000e-06	4.137222e-06	1.300230e-09	2.939408e+01	8.454514e+01
2.880000e-06	4.166743e-06	1.303458e-09	2.960382e+01	8.479557e+01
2.890000e-06	4.195930e-06	1.300806e-09	2.981119e+01	8.503680e+01
2.900000e-06	4.224696e-06	1.299389e-09	3.001557e+01	8.526904e+01
