# Temperatura_=_-1.1
# Concentracion g/m^3_=_4090.0
# C_Vs_to_Am_M_A/Vsm_=_65563218390.804596
# pendiente_HvsI_1/m_=_3716.3
# ordenada_HvsI_A/m_=_1297.0
# frecuencia_Hz_=_135075.69623122827

Tiempo_(s)	Campo_(V.s)	Magnetizacion_(V.s)	Campo_(kA/m)	Magnetizacion_(A/m)
0.000000e+00	-5.403042e-06	-2.131283e-09	-3.839356e+01	-1.390792e+02
1.000000e-08	-5.403136e-06	-2.126972e-09	-3.839422e+01	-1.389362e+02
2.000000e-08	-5.402992e-06	-2.117365e-09	-3.839320e+01	-1.387749e+02
3.000000e-08	-5.402552e-06	-2.109726e-09	-3.839007e+01	-1.385962e+02
4.000000e-08	-5.401803e-06	-2.110201e-09	-3.838475e+01	-1.384017e+02
5.000000e-08	-5.400666e-06	-2.116245e-09	-3.837667e+01	-1.381943e+02
6.000000e-08	-5.398951e-06	-2.137148e-09	-3.836448e+01	-1.379776e+02
7.000000e-08	-5.396512e-06	-2.150637e-09	-3.834715e+01	-1.377561e+02
8.000000e-08	-5.393324e-06	-2.084933e-09	-3.832450e+01	-1.375349e+02
9.000000e-08	-5.389504e-06	-2.011075e-09	-3.829736e+01	-1.373196e+02
1.000000e-07	-5.385376e-06	-2.108813e-09	-3.826802e+01	-1.371159e+02
1.100000e-07	-5.381073e-06	-2.197024e-09	-3.823745e+01	-1.369298e+02
1.200000e-07	-5.376545e-06	-2.110577e-09	-3.820527e+01	-1.367669e+02
1.300000e-07	-5.371848e-06	-1.983996e-09	-3.817189e+01	-1.366323e+02
1.400000e-07	-5.366897e-06	-2.104368e-09	-3.813671e+01	-1.365305e+02
1.500000e-07	-5.361463e-06	-2.276623e-09	-3.809810e+01	-1.364651e+02
1.600000e-07	-5.355543e-06	-2.130977e-09	-3.805603e+01	-1.364383e+02
1.700000e-07	-5.349321e-06	-1.945808e-09	-3.801182e+01	-1.364514e+02
1.800000e-07	-5.342747e-06	-2.017615e-09	-3.796510e+01	-1.365042e+02
1.900000e-07	-5.335754e-06	-2.188222e-09	-3.791541e+01	-1.365953e+02
2.000000e-07	-5.328422e-06	-2.100159e-09	-3.786331e+01	-1.367216e+02
2.100000e-07	-5.320905e-06	-2.035628e-09	-3.780990e+01	-1.368792e+02
2.200000e-07	-5.313092e-06	-2.135171e-09	-3.775438e+01	-1.370626e+02
2.300000e-07	-5.304899e-06	-2.196201e-09	-3.769616e+01	-1.372658e+02
2.400000e-07	-5.296375e-06	-2.083739e-09	-3.763559e+01	-1.374817e+02
2.500000e-07	-5.287446e-06	-2.096071e-09	-3.757214e+01	-1.377030e+02
2.600000e-07	-5.277881e-06	-2.194978e-09	-3.750417e+01	-1.379220e+02
2.700000e-07	-5.267622e-06	-2.141547e-09	-3.743127e+01	-1.381314e+02
2.800000e-07	-5.256783e-06	-2.053296e-09	-3.735425e+01	-1.383239e+02
2.900000e-07	-5.245423e-06	-2.138036e-09	-3.727353e+01	-1.384931e+02
3.000000e-07	-5.233616e-06	-2.193345e-09	-3.718963e+01	-1.386334e+02
3.100000e-07	-5.221419e-06	-2.077663e-09	-3.710296e+01	-1.387402e+02
3.200000e-07	-5.208900e-06	-2.061229e-09	-3.701400e+01	-1.388102e+02
3.300000e-07	-5.195929e-06	-2.162440e-09	-3.692183e+01	-1.388412e+02
3.400000e-07	-5.182563e-06	-2.162420e-09	-3.682685e+01	-1.388326e+02
3.500000e-07	-5.168998e-06	-2.091110e-09	-3.673046e+01	-1.387849e+02
3.600000e-07	-5.155109e-06	-2.128736e-09	-3.663176e+01	-1.386998e+02
3.700000e-07	-5.140664e-06	-2.135059e-09	-3.652912e+01	-1.385803e+02
3.800000e-07	-5.125760e-06	-2.086740e-09	-3.642322e+01	-1.384301e+02
3.900000e-07	-5.110389e-06	-2.086029e-09	-3.631398e+01	-1.382536e+02
4.000000e-07	-5.094500e-06	-2.116574e-09	-3.620108e+01	-1.380559e+02
4.100000e-07	-5.078135e-06	-2.069683e-09	-3.608480e+01	-1.378420e+02
4.200000e-07	-5.061345e-06	-2.082328e-09	-3.596549e+01	-1.376172e+02
4.300000e-07	-5.044079e-06	-2.136816e-09	-3.584280e+01	-1.373864e+02
4.400000e-07	-5.026533e-06	-2.123354e-09	-3.571811e+01	-1.371539e+02
4.500000e-07	-5.008853e-06	-2.058282e-09	-3.559248e+01	-1.369237e+02
4.600000e-07	-4.990837e-06	-2.074694e-09	-3.546446e+01	-1.366987e+02
4.700000e-07	-4.972348e-06	-2.090667e-09	-3.533308e+01	-1.364812e+02
4.800000e-07	-4.953371e-06	-2.071931e-09	-3.519823e+01	-1.362724e+02
4.900000e-07	-4.934044e-06	-2.053505e-09	-3.506090e+01	-1.360726e+02
5.000000e-07	-4.914429e-06	-2.068463e-09	-3.492152e+01	-1.358814e+02
5.100000e-07	-4.894542e-06	-2.078500e-09	-3.478019e+01	-1.356975e+02
5.200000e-07	-4.874448e-06	-2.085678e-09	-3.463741e+01	-1.355190e+02
5.300000e-07	-4.854192e-06	-2.063505e-09	-3.449348e+01	-1.353434e+02
5.400000e-07	-4.833756e-06	-2.038847e-09	-3.434825e+01	-1.351682e+02
5.500000e-07	-4.812941e-06	-2.047502e-09	-3.420035e+01	-1.349903e+02
5.600000e-07	-4.791727e-06	-2.066730e-09	-3.404960e+01	-1.348072e+02
5.700000e-07	-4.770148e-06	-2.057539e-09	-3.389626e+01	-1.346161e+02
5.800000e-07	-4.748270e-06	-2.040034e-09	-3.374080e+01	-1.344150e+02
5.900000e-07	-4.726155e-06	-2.038415e-09	-3.358365e+01	-1.342020e+02
6.000000e-07	-4.703711e-06	-2.046399e-09	-3.342417e+01	-1.339761e+02
6.100000e-07	-4.680924e-06	-2.047798e-09	-3.326225e+01	-1.337366e+02
6.200000e-07	-4.657751e-06	-2.025886e-09	-3.309758e+01	-1.334838e+02
6.300000e-07	-4.634294e-06	-2.017267e-09	-3.293090e+01	-1.332185e+02
6.400000e-07	-4.610615e-06	-2.038192e-09	-3.276264e+01	-1.329418e+02
6.500000e-07	-4.586682e-06	-2.055510e-09	-3.259257e+01	-1.326555e+02
6.600000e-07	-4.562521e-06	-2.033003e-09	-3.242088e+01	-1.323619e+02
6.700000e-07	-4.538031e-06	-2.014196e-09	-3.224686e+01	-1.320632e+02
6.800000e-07	-4.513103e-06	-2.012422e-09	-3.206973e+01	-1.317620e+02
6.900000e-07	-4.487742e-06	-2.017554e-09	-3.188951e+01	-1.314606e+02
7.000000e-07	-4.461879e-06	-2.001195e-09	-3.170573e+01	-1.311613e+02
7.100000e-07	-4.435556e-06	-1.987640e-09	-3.151868e+01	-1.308660e+02
7.200000e-07	-4.408803e-06	-1.989964e-09	-3.132858e+01	-1.305763e+02
7.300000e-07	-4.381611e-06	-2.012665e-09	-3.113535e+01	-1.302933e+02
7.400000e-07	-4.354094e-06	-2.014541e-09	-3.093982e+01	-1.300175e+02
7.500000e-07	-4.326273e-06	-1.997878e-09	-3.074213e+01	-1.297491e+02
7.600000e-07	-4.298252e-06	-1.980664e-09	-3.054301e+01	-1.294876e+02
7.700000e-07	-4.270115e-06	-1.980311e-09	-3.034307e+01	-1.292321e+02
7.800000e-07	-4.241734e-06	-1.969984e-09	-3.014140e+01	-1.289815e+02
7.900000e-07	-4.213030e-06	-1.951497e-09	-2.993743e+01	-1.287340e+02
8.000000e-07	-4.184027e-06	-1.941152e-09	-2.973134e+01	-1.284881e+02
8.100000e-07	-4.154715e-06	-1.954231e-09	-2.952305e+01	-1.282418e+02
8.200000e-07	-4.125061e-06	-1.968031e-09	-2.931234e+01	-1.279933e+02
8.300000e-07	-4.095113e-06	-1.964137e-09	-2.909952e+01	-1.277410e+02
8.400000e-07	-4.064821e-06	-1.947241e-09	-2.888427e+01	-1.274833e+02
8.500000e-07	-4.034276e-06	-1.938411e-09	-2.866722e+01	-1.272190e+02
8.600000e-07	-4.003587e-06	-1.935028e-09	-2.844915e+01	-1.269474e+02
8.700000e-07	-3.972653e-06	-1.924409e-09	-2.822933e+01	-1.266679e+02
8.800000e-07	-3.941410e-06	-1.908138e-09	-2.800732e+01	-1.263804e+02
8.900000e-07	-3.909947e-06	-1.904097e-09	-2.778375e+01	-1.260853e+02
9.000000e-07	-3.878264e-06	-1.911687e-09	-2.755862e+01	-1.257830e+02
9.100000e-07	-3.846362e-06	-1.914807e-09	-2.733192e+01	-1.254744e+02
9.200000e-07	-3.814294e-06	-1.907005e-09	-2.710405e+01	-1.251606e+02
9.300000e-07	-3.781983e-06	-1.897007e-09	-2.687445e+01	-1.248427e+02
9.400000e-07	-3.749466e-06	-1.896755e-09	-2.664338e+01	-1.245219e+02
9.500000e-07	-3.716766e-06	-1.891746e-09	-2.641103e+01	-1.241993e+02
9.600000e-07	-3.683732e-06	-1.879527e-09	-2.617628e+01	-1.238758e+02
9.700000e-07	-3.650236e-06	-1.864474e-09	-2.593826e+01	-1.235524e+02
9.800000e-07	-3.616225e-06	-1.859256e-09	-2.569658e+01	-1.232295e+02
9.900000e-07	-3.581698e-06	-1.857377e-09	-2.545124e+01	-1.229073e+02
1.000000e-06	-3.546772e-06	-1.855145e-09	-2.520306e+01	-1.225859e+02
1.010000e-06	-3.511575e-06	-1.849218e-09	-2.495295e+01	-1.222650e+02
1.020000e-06	-3.476119e-06	-1.848302e-09	-2.470100e+01	-1.219440e+02
1.030000e-06	-3.440474e-06	-1.847172e-09	-2.444771e+01	-1.216221e+02
1.040000e-06	-3.404699e-06	-1.841692e-09	-2.419350e+01	-1.212984e+02
1.050000e-06	-3.368719e-06	-1.827353e-09	-2.393783e+01	-1.209719e+02
1.060000e-06	-3.332564e-06	-1.816176e-09	-2.368092e+01	-1.206415e+02
1.070000e-06	-3.296273e-06	-1.809920e-09	-2.342303e+01	-1.203062e+02
1.080000e-06	-3.259848e-06	-1.806057e-09	-2.316420e+01	-1.199652e+02
1.090000e-06	-3.223208e-06	-1.800144e-09	-2.290384e+01	-1.196178e+02
1.100000e-06	-3.186324e-06	-1.797693e-09	-2.264174e+01	-1.192634e+02
1.110000e-06	-3.149191e-06	-1.795877e-09	-2.237788e+01	-1.189019e+02
1.120000e-06	-3.111767e-06	-1.793529e-09	-2.211195e+01	-1.185333e+02
1.130000e-06	-3.074127e-06	-1.783426e-09	-2.184448e+01	-1.181579e+02
1.140000e-06	-3.036340e-06	-1.770154e-09	-2.157597e+01	-1.177762e+02
1.150000e-06	-2.998348e-06	-1.760358e-09	-2.130600e+01	-1.173889e+02
1.160000e-06	-2.960098e-06	-1.755670e-09	-2.103421e+01	-1.169969e+02
1.170000e-06	-2.921670e-06	-1.750058e-09	-2.076113e+01	-1.166012e+02
1.180000e-06	-2.883138e-06	-1.743128e-09	-2.048733e+01	-1.162028e+02
1.190000e-06	-2.844349e-06	-1.739337e-09	-2.021170e+01	-1.158025e+02
1.200000e-06	-2.805199e-06	-1.739653e-09	-1.993350e+01	-1.154013e+02
1.210000e-06	-2.765848e-06	-1.738776e-09	-1.965388e+01	-1.149998e+02
1.220000e-06	-2.726375e-06	-1.731564e-09	-1.937339e+01	-1.145983e+02
1.230000e-06	-2.686804e-06	-1.723546e-09	-1.909220e+01	-1.141973e+02
1.240000e-06	-2.647089e-06	-1.716406e-09	-1.880999e+01	-1.137964e+02
1.250000e-06	-2.607213e-06	-1.711389e-09	-1.852663e+01	-1.133956e+02
1.260000e-06	-2.567213e-06	-1.704794e-09	-1.824239e+01	-1.129940e+02
1.270000e-06	-2.527108e-06	-1.698508e-09	-1.795741e+01	-1.125911e+02
1.280000e-06	-2.486904e-06	-1.694484e-09	-1.767173e+01	-1.121858e+02
1.290000e-06	-2.446589e-06	-1.691452e-09	-1.738525e+01	-1.117770e+02
1.300000e-06	-2.406152e-06	-1.681789e-09	-1.709791e+01	-1.113636e+02
1.310000e-06	-2.365590e-06	-1.668515e-09	-1.680968e+01	-1.109446e+02
1.320000e-06	-2.324804e-06	-1.659722e-09	-1.651986e+01	-1.105189e+02
1.330000e-06	-2.283719e-06	-1.657512e-09	-1.622791e+01	-1.100857e+02
1.340000e-06	-2.242414e-06	-1.654024e-09	-1.593440e+01	-1.096443e+02
1.350000e-06	-2.200839e-06	-1.647756e-09	-1.563897e+01	-1.091942e+02
1.360000e-06	-2.159018e-06	-1.641190e-09	-1.534180e+01	-1.087352e+02
1.370000e-06	-2.116967e-06	-1.635668e-09	-1.504298e+01	-1.082674e+02
1.380000e-06	-2.074632e-06	-1.626895e-09	-1.474216e+01	-1.077912e+02
1.390000e-06	-2.031998e-06	-1.616583e-09	-1.443920e+01	-1.073070e+02
1.400000e-06	-1.989199e-06	-1.605716e-09	-1.413508e+01	-1.068156e+02
1.410000e-06	-1.946178e-06	-1.597948e-09	-1.382937e+01	-1.063178e+02
1.420000e-06	-1.902844e-06	-1.593088e-09	-1.352145e+01	-1.058145e+02
1.430000e-06	-1.859325e-06	-1.589547e-09	-1.321220e+01	-1.053066e+02
1.440000e-06	-1.815698e-06	-1.584286e-09	-1.290219e+01	-1.047948e+02
1.450000e-06	-1.771977e-06	-1.577294e-09	-1.259152e+01	-1.042798e+02
1.460000e-06	-1.728156e-06	-1.569588e-09	-1.228013e+01	-1.037621e+02
1.470000e-06	-1.684236e-06	-1.559618e-09	-1.196804e+01	-1.032418e+02
1.480000e-06	-1.640185e-06	-1.547705e-09	-1.165502e+01	-1.027188e+02
1.490000e-06	-1.596093e-06	-1.535616e-09	-1.134170e+01	-1.021927e+02
1.500000e-06	-1.551969e-06	-1.526160e-09	-1.102816e+01	-1.016629e+02
1.510000e-06	-1.507774e-06	-1.521303e-09	-1.071412e+01	-1.011282e+02
1.520000e-06	-1.463527e-06	-1.515369e-09	-1.039970e+01	-1.005875e+02
1.530000e-06	-1.419260e-06	-1.505669e-09	-1.008514e+01	-1.000391e+02
1.540000e-06	-1.374943e-06	-1.495046e-09	-9.770228e+00	-9.948166e+01
1.550000e-06	-1.330521e-06	-1.483810e-09	-9.454567e+00	-9.891328e+01
1.560000e-06	-1.286053e-06	-1.471194e-09	-9.138586e+00	-9.833229e+01
1.570000e-06	-1.241498e-06	-1.460092e-09	-8.821977e+00	-9.773705e+01
1.580000e-06	-1.196842e-06	-1.453095e-09	-8.504655e+00	-9.712603e+01
1.590000e-06	-1.152174e-06	-1.448000e-09	-8.187248e+00	-9.649788e+01
1.600000e-06	-1.107429e-06	-1.440016e-09	-7.869297e+00	-9.585151e+01
1.610000e-06	-1.062516e-06	-1.425559e-09	-7.550151e+00	-9.518608e+01
1.620000e-06	-1.017550e-06	-1.408900e-09	-7.230620e+00	-9.450103e+01
1.630000e-06	-9.726010e-07	-1.393055e-09	-6.911220e+00	-9.379611e+01
1.640000e-06	-9.274636e-07	-1.379151e-09	-6.590477e+00	-9.307130e+01
1.650000e-06	-8.822605e-07	-1.366363e-09	-6.269268e+00	-9.232683e+01
1.660000e-06	-8.369843e-07	-1.355262e-09	-5.947539e+00	-9.156309e+01
1.670000e-06	-7.915418e-07	-1.346659e-09	-5.624629e+00	-9.078062e+01
1.680000e-06	-7.461517e-07	-1.337079e-09	-5.302090e+00	-8.997999e+01
1.690000e-06	-7.007799e-07	-1.320349e-09	-4.979682e+00	-8.916176e+01
1.700000e-06	-6.553050e-07	-1.301348e-09	-4.656541e+00	-8.832642e+01
1.710000e-06	-6.098309e-07	-1.285319e-09	-4.333406e+00	-8.747429e+01
1.720000e-06	-5.643915e-07	-1.274224e-09	-4.010518e+00	-8.660549e+01
1.730000e-06	-5.188605e-07	-1.265121e-09	-3.686978e+00	-8.571991e+01
1.740000e-06	-4.731995e-07	-1.255520e-09	-3.362515e+00	-8.481714e+01
1.750000e-06	-4.275217e-07	-1.245183e-09	-3.037932e+00	-8.389649e+01
1.760000e-06	-3.818202e-07	-1.233408e-09	-2.713182e+00	-8.295698e+01
1.770000e-06	-3.360974e-07	-1.215082e-09	-2.388280e+00	-8.199737e+01
1.780000e-06	-2.904080e-07	-1.192547e-09	-2.063615e+00	-8.101617e+01
1.790000e-06	-2.446137e-07	-1.171959e-09	-1.738204e+00	-8.001172e+01
1.800000e-06	-1.987661e-07	-1.154457e-09	-1.412415e+00	-7.898222e+01
1.810000e-06	-1.529106e-07	-1.138834e-09	-1.086570e+00	-7.792580e+01
1.820000e-06	-1.069682e-07	-1.124065e-09	-7.601068e-01	-7.684060e+01
1.830000e-06	-6.098786e-08	-1.110704e-09	-4.333746e-01	-7.572481e+01
1.840000e-06	-1.507681e-08	-1.096358e-09	-1.071345e-01	-7.457677e+01
1.850000e-06	3.068812e-08	-1.079048e-09	2.180672e-01	-7.339496e+01
1.860000e-06	7.642512e-08	-1.058775e-09	5.430704e-01	-7.217809e+01
1.870000e-06	1.221474e-07	-1.038279e-09	8.679689e-01	-7.092510e+01
1.880000e-06	1.678494e-07	-1.018703e-09	1.192724e+00	-6.963518e+01
1.890000e-06	2.136369e-07	-9.984074e-10	1.518086e+00	-6.830777e+01
1.900000e-06	2.594583e-07	-9.754575e-10	1.843689e+00	-6.694253e+01
1.910000e-06	3.052728e-07	-9.541301e-10	2.169243e+00	-6.553933e+01
1.920000e-06	3.510066e-07	-9.358202e-10	2.494223e+00	-6.409815e+01
1.930000e-06	3.967406e-07	-9.171046e-10	2.819205e+00	-6.261913e+01
1.940000e-06	4.424987e-07	-8.942762e-10	3.144358e+00	-6.110242e+01
1.950000e-06	4.882249e-07	-8.695201e-10	3.469285e+00	-5.954817e+01
1.960000e-06	5.338976e-07	-8.466193e-10	3.793831e+00	-5.795649e+01
1.970000e-06	5.794271e-07	-8.240262e-10	4.117360e+00	-5.632738e+01
1.980000e-06	6.249118e-07	-7.993880e-10	4.440570e+00	-5.466068e+01
1.990000e-06	6.704155e-07	-7.729135e-10	4.763915e+00	-5.295610e+01
2.000000e-06	7.158180e-07	-7.467974e-10	5.086542e+00	-5.121314e+01
2.010000e-06	7.611541e-07	-7.200571e-10	5.408696e+00	-4.943116e+01
2.020000e-06	8.064837e-07	-6.894648e-10	5.730805e+00	-4.760933e+01
2.030000e-06	8.517584e-07	-6.559171e-10	6.052522e+00	-4.574670e+01
2.040000e-06	8.970101e-07	-6.243708e-10	6.374078e+00	-4.384223e+01
2.050000e-06	9.421821e-07	-5.964870e-10	6.695066e+00	-4.189482e+01
2.060000e-06	9.871653e-07	-5.678086e-10	7.014712e+00	-3.990338e+01
2.070000e-06	1.032025e-06	-5.356306e-10	7.333482e+00	-3.786689e+01
2.080000e-06	1.076878e-06	-5.001299e-10	7.652201e+00	-3.578442e+01
2.090000e-06	1.121701e-06	-4.653482e-10	7.970710e+00	-3.365522e+01
2.100000e-06	1.166408e-06	-4.322846e-10	8.288396e+00	-3.147875e+01
2.110000e-06	1.210985e-06	-3.981227e-10	8.605158e+00	-2.925467e+01
2.120000e-06	1.255499e-06	-3.632375e-10	8.921468e+00	-2.698295e+01
2.130000e-06	1.299911e-06	-3.301468e-10	9.237055e+00	-2.466379e+01
2.140000e-06	1.344211e-06	-2.999712e-10	9.551849e+00	-2.229767e+01
2.150000e-06	1.388449e-06	-2.672905e-10	9.866200e+00	-1.988534e+01
2.160000e-06	1.432653e-06	-2.306621e-10	1.018031e+01	-1.742776e+01
2.170000e-06	1.476824e-06	-1.902876e-10	1.049419e+01	-1.492612e+01
2.180000e-06	1.520961e-06	-1.504228e-10	1.080782e+01	-1.238175e+01
2.190000e-06	1.565060e-06	-1.115274e-10	1.112118e+01	-9.796142e+00
2.200000e-06	1.609110e-06	-7.120689e-11	1.143420e+01	-7.170866e+00
2.210000e-06	1.653148e-06	-2.968641e-11	1.174713e+01	-4.507574e+00
2.220000e-06	1.697099e-06	1.079254e-11	1.205944e+01	-1.807957e+00
2.230000e-06	1.740905e-06	4.981821e-11	1.237073e+01	9.262573e-01
2.240000e-06	1.784658e-06	9.174447e-11	1.268163e+01	3.693316e+00
2.250000e-06	1.828334e-06	1.358497e-10	1.299198e+01	6.491427e+00
2.260000e-06	1.871750e-06	1.801242e-10	1.330049e+01	9.318743e+00
2.270000e-06	1.914964e-06	2.235677e-10	1.360757e+01	1.217333e+01
2.280000e-06	1.958087e-06	2.667734e-10	1.391400e+01	1.505313e+01
2.290000e-06	2.001001e-06	3.124764e-10	1.421894e+01	1.795592e+01
2.300000e-06	2.043743e-06	3.563142e-10	1.452267e+01	2.087924e+01
2.310000e-06	2.086281e-06	3.962680e-10	1.482494e+01	2.382040e+01
2.320000e-06	2.128455e-06	4.388466e-10	1.512462e+01	2.677638e+01
2.330000e-06	2.170400e-06	4.842357e-10	1.542267e+01	2.974384e+01
2.340000e-06	2.212049e-06	5.277980e-10	1.571863e+01	3.271906e+01
2.350000e-06	2.253428e-06	5.676589e-10	1.601267e+01	3.569796e+01
2.360000e-06	2.294656e-06	6.095974e-10	1.630563e+01	3.867611e+01
2.370000e-06	2.335618e-06	6.562918e-10	1.659670e+01	4.164874e+01
2.380000e-06	2.376353e-06	7.038607e-10	1.688616e+01	4.461079e+01
2.390000e-06	2.416930e-06	7.480271e-10	1.717450e+01	4.755698e+01
2.400000e-06	2.457343e-06	7.904733e-10	1.746167e+01	5.048188e+01
2.410000e-06	2.497527e-06	8.323769e-10	1.774721e+01	5.338000e+01
2.420000e-06	2.537556e-06	8.745581e-10	1.803166e+01	5.624590e+01
2.430000e-06	2.577496e-06	9.176175e-10	1.831547e+01	5.907429e+01
2.440000e-06	2.617371e-06	9.599047e-10	1.859882e+01	6.186014e+01
2.450000e-06	2.657197e-06	1.000435e-09	1.888182e+01	6.459877e+01
2.460000e-06	2.696938e-06	1.042208e-09	1.916421e+01	6.728597e+01
2.470000e-06	2.736477e-06	1.082338e-09	1.944517e+01	6.991804e+01
2.480000e-06	2.775813e-06	1.119843e-09	1.972469e+01	7.249189e+01
2.490000e-06	2.814971e-06	1.154206e-09	2.000294e+01	7.500507e+01
2.500000e-06	2.853883e-06	1.186932e-09	2.027945e+01	7.745578e+01
2.510000e-06	2.892497e-06	1.219637e-09	2.055384e+01	7.984287e+01
2.520000e-06	2.930830e-06	1.253361e-09	2.082623e+01	8.216586e+01
2.530000e-06	2.969008e-06	1.289602e-09	2.109752e+01	8.442479e+01
2.540000e-06	3.007065e-06	1.326546e-09	2.136795e+01	8.662028e+01
2.550000e-06	3.044982e-06	1.362213e-09	2.163738e+01	8.875333e+01
2.560000e-06	3.082645e-06	1.394212e-09	2.190501e+01	9.082533e+01
2.570000e-06	3.120082e-06	1.423481e-09	2.217104e+01	9.283786e+01
2.580000e-06	3.157334e-06	1.448518e-09	2.243574e+01	9.479267e+01
2.590000e-06	3.194327e-06	1.471128e-09	2.269862e+01	9.669155e+01
2.600000e-06	3.231149e-06	1.495224e-09	2.296027e+01	9.853619e+01
2.610000e-06	3.267816e-06	1.523459e-09	2.322082e+01	1.003282e+02
2.620000e-06	3.304231e-06	1.554295e-09	2.347959e+01	1.020689e+02
2.630000e-06	3.340419e-06	1.586348e-09	2.373673e+01	1.037596e+02
2.640000e-06	3.376435e-06	1.614909e-09	2.399266e+01	1.054009e+02
2.650000e-06	3.412278e-06	1.636272e-09	2.424736e+01	1.069936e+02
2.660000e-06	3.448021e-06	1.651216e-09	2.450134e+01	1.085379e+02
2.670000e-06	3.483613e-06	1.666239e-09	2.475425e+01	1.100339e+02
2.680000e-06	3.518909e-06	1.682867e-09	2.500506e+01	1.114815e+02
2.690000e-06	3.553971e-06	1.704730e-09	2.525421e+01	1.128804e+02
2.700000e-06	3.588712e-06	1.731326e-09	2.550108e+01	1.142304e+02
2.710000e-06	3.622946e-06	1.758784e-09	2.574434e+01	1.155311e+02
2.720000e-06	3.656744e-06	1.781994e-09	2.598451e+01	1.167822e+02
2.730000e-06	3.690170e-06	1.800499e-09	2.622203e+01	1.179837e+02
2.740000e-06	3.723170e-06	1.814847e-09	2.645653e+01	1.191356e+02
2.750000e-06	3.755826e-06	1.826873e-09	2.668858e+01	1.202384e+02
2.760000e-06	3.788232e-06	1.838936e-09	2.691886e+01	1.212925e+02
2.770000e-06	3.820357e-06	1.850641e-09	2.714713e+01	1.222989e+02
2.780000e-06	3.852294e-06	1.868872e-09	2.737407e+01	1.232588e+02
2.790000e-06	3.884081e-06	1.891140e-09	2.759995e+01	1.241735e+02
2.800000e-06	3.915700e-06	1.908726e-09	2.782463e+01	1.250447e+02
2.810000e-06	3.947190e-06	1.918158e-09	2.804840e+01	1.258744e+02
2.820000e-06	3.978434e-06	1.924421e-09	2.827041e+01	1.266645e+02
2.830000e-06	4.009381e-06	1.933014e-09	2.849032e+01	1.274171e+02
2.840000e-06	4.039999e-06	1.943460e-09	2.870789e+01	1.281343e+02
2.850000e-06	4.070277e-06	1.953486e-09	2.892304e+01	1.288183e+02
2.860000e-06	4.100212e-06	1.964389e-09	2.913575e+01	1.294711e+02
2.870000e-06	4.129842e-06	1.975880e-09	2.934631e+01	1.300946e+02
2.880000e-06	4.159294e-06	1.986853e-09	2.955559e+01	1.306905e+02
2.890000e-06	4.188479e-06	1.993207e-09	2.976297e+01	1.312604e+02
2.900000e-06	4.217304e-06	1.997862e-09	2.996780e+01	1.318057e+02
