# Temperatura_=_15.76
# Concentracion g/m^3_=_4090.0
# C_Vs_to_Am_M_A/Vsm_=_65563218390.804596
# pendiente_HvsI_1/m_=_3716.3
# ordenada_HvsI_A/m_=_1297.0
# frecuencia_Hz_=_135086.75641239694

Tiempo_(s)	Campo_(V.s)	Magnetizacion_(V.s)	Campo_(kA/m)	Magnetizacion_(A/m)
0.000000e+00	-5.406024e-06	-1.286446e-09	-3.837542e+01	-8.547149e+01
1.000000e-08	-5.406067e-06	-1.280989e-09	-3.837573e+01	-8.534164e+01
2.000000e-08	-5.405928e-06	-1.272801e-09	-3.837474e+01	-8.519019e+01
3.000000e-08	-5.405572e-06	-1.266326e-09	-3.837221e+01	-8.501730e+01
4.000000e-08	-5.404867e-06	-1.267681e-09	-3.836721e+01	-8.482408e+01
5.000000e-08	-5.403682e-06	-1.283446e-09	-3.835880e+01	-8.461267e+01
6.000000e-08	-5.402000e-06	-1.297329e-09	-3.834685e+01	-8.438612e+01
7.000000e-08	-5.399795e-06	-1.282716e-09	-3.833120e+01	-8.414839e+01
8.000000e-08	-5.396908e-06	-1.244965e-09	-3.831071e+01	-8.390418e+01
9.000000e-08	-5.393363e-06	-1.231378e-09	-3.828555e+01	-8.365879e+01
1.000000e-07	-5.389396e-06	-1.260171e-09	-3.825739e+01	-8.341793e+01
1.100000e-07	-5.385102e-06	-1.313718e-09	-3.822690e+01	-8.318747e+01
1.200000e-07	-5.380605e-06	-1.266243e-09	-3.819498e+01	-8.297322e+01
1.300000e-07	-5.375916e-06	-1.219198e-09	-3.816170e+01	-8.278072e+01
1.400000e-07	-5.370809e-06	-1.243467e-09	-3.812544e+01	-8.261496e+01
1.500000e-07	-5.365254e-06	-1.333561e-09	-3.808601e+01	-8.248016e+01
1.600000e-07	-5.359346e-06	-1.319075e-09	-3.804407e+01	-8.237965e+01
1.700000e-07	-5.353163e-06	-1.179317e-09	-3.800018e+01	-8.231562e+01
1.800000e-07	-5.346551e-06	-1.144032e-09	-3.795324e+01	-8.228910e+01
1.900000e-07	-5.339363e-06	-1.241333e-09	-3.790222e+01	-8.229986e+01
2.000000e-07	-5.331883e-06	-1.294910e-09	-3.784912e+01	-8.234639e+01
2.100000e-07	-5.324274e-06	-1.219044e-09	-3.779511e+01	-8.242601e+01
2.200000e-07	-5.316360e-06	-1.210971e-09	-3.773893e+01	-8.253491e+01
2.300000e-07	-5.308135e-06	-1.284872e-09	-3.768055e+01	-8.266832e+01
2.400000e-07	-5.299624e-06	-1.293074e-09	-3.762013e+01	-8.282073e+01
2.500000e-07	-5.290622e-06	-1.241321e-09	-3.755623e+01	-8.298606e+01
2.600000e-07	-5.281021e-06	-1.262307e-09	-3.748807e+01	-8.315792e+01
2.700000e-07	-5.270904e-06	-1.291347e-09	-3.741626e+01	-8.332986e+01
2.800000e-07	-5.260151e-06	-1.270067e-09	-3.733992e+01	-8.349564e+01
2.900000e-07	-5.248773e-06	-1.241408e-09	-3.725915e+01	-8.364941e+01
3.000000e-07	-5.237041e-06	-1.274296e-09	-3.717588e+01	-8.378598e+01
3.100000e-07	-5.224914e-06	-1.266381e-09	-3.708979e+01	-8.390096e+01
3.200000e-07	-5.212380e-06	-1.223354e-09	-3.700081e+01	-8.399092e+01
3.300000e-07	-5.199585e-06	-1.240398e-09	-3.690999e+01	-8.405343e+01
3.400000e-07	-5.186441e-06	-1.297245e-09	-3.681668e+01	-8.408717e+01
3.500000e-07	-5.172900e-06	-1.281311e-09	-3.672056e+01	-8.409186e+01
3.600000e-07	-5.158950e-06	-1.259107e-09	-3.662153e+01	-8.406824e+01
3.700000e-07	-5.144520e-06	-1.276800e-09	-3.651910e+01	-8.401794e+01
3.800000e-07	-5.129618e-06	-1.270949e-09	-3.641332e+01	-8.394335e+01
3.900000e-07	-5.114136e-06	-1.233091e-09	-3.630341e+01	-8.384744e+01
4.000000e-07	-5.098163e-06	-1.247562e-09	-3.619003e+01	-8.373358e+01
4.100000e-07	-5.081696e-06	-1.264207e-09	-3.607313e+01	-8.360534e+01
4.200000e-07	-5.064719e-06	-1.242563e-09	-3.595262e+01	-8.346628e+01
4.300000e-07	-5.047531e-06	-1.258462e-09	-3.583061e+01	-8.331977e+01
4.400000e-07	-5.030125e-06	-1.291056e-09	-3.570705e+01	-8.316882e+01
4.500000e-07	-5.012357e-06	-1.264983e-09	-3.558092e+01	-8.301594e+01
4.600000e-07	-4.994241e-06	-1.225507e-09	-3.545232e+01	-8.286301e+01
4.700000e-07	-4.975815e-06	-1.246784e-09	-3.532153e+01	-8.271128e+01
4.800000e-07	-4.957123e-06	-1.247763e-09	-3.518883e+01	-8.256128e+01
4.900000e-07	-4.937977e-06	-1.224519e-09	-3.505292e+01	-8.241286e+01
5.000000e-07	-4.918335e-06	-1.226261e-09	-3.491349e+01	-8.226525e+01
5.100000e-07	-4.898435e-06	-1.244761e-09	-3.477223e+01	-8.211716e+01
5.200000e-07	-4.878330e-06	-1.238496e-09	-3.462951e+01	-8.196688e+01
5.300000e-07	-4.858047e-06	-1.240638e-09	-3.448553e+01	-8.181243e+01
5.400000e-07	-4.837561e-06	-1.235317e-09	-3.434011e+01	-8.165171e+01
5.500000e-07	-4.816667e-06	-1.224328e-09	-3.419179e+01	-8.148264e+01
5.600000e-07	-4.795422e-06	-1.228139e-09	-3.404098e+01	-8.130334e+01
5.700000e-07	-4.773854e-06	-1.241962e-09	-3.388788e+01	-8.111224e+01
5.800000e-07	-4.751936e-06	-1.218699e-09	-3.373228e+01	-8.090822e+01
5.900000e-07	-4.729808e-06	-1.198628e-09	-3.357521e+01	-8.069066e+01
6.000000e-07	-4.707431e-06	-1.203423e-09	-3.341636e+01	-8.045952e+01
6.100000e-07	-4.684701e-06	-1.211271e-09	-3.325501e+01	-8.021536e+01
6.200000e-07	-4.661594e-06	-1.201344e-09	-3.309098e+01	-7.995932e+01
6.300000e-07	-4.638041e-06	-1.196637e-09	-3.292378e+01	-7.969306e+01
6.400000e-07	-4.614139e-06	-1.204412e-09	-3.275412e+01	-7.941871e+01
6.500000e-07	-4.590121e-06	-1.217196e-09	-3.258362e+01	-7.913874e+01
6.600000e-07	-4.565926e-06	-1.211254e-09	-3.241187e+01	-7.885585e+01
6.700000e-07	-4.541473e-06	-1.189319e-09	-3.223828e+01	-7.857284e+01
6.800000e-07	-4.516670e-06	-1.174604e-09	-3.206222e+01	-7.829247e+01
6.900000e-07	-4.491526e-06	-1.175137e-09	-3.188373e+01	-7.801731e+01
7.000000e-07	-4.465988e-06	-1.175218e-09	-3.170245e+01	-7.774963e+01
7.100000e-07	-4.439896e-06	-1.166966e-09	-3.151723e+01	-7.749130e+01
7.200000e-07	-4.413194e-06	-1.165496e-09	-3.132768e+01	-7.724369e+01
7.300000e-07	-4.385968e-06	-1.174629e-09	-3.113441e+01	-7.700764e+01
7.400000e-07	-4.358391e-06	-1.182737e-09	-3.093865e+01	-7.678341e+01
7.500000e-07	-4.330565e-06	-1.172969e-09	-3.074113e+01	-7.657066e+01
7.600000e-07	-4.302538e-06	-1.160273e-09	-3.054217e+01	-7.636857e+01
7.700000e-07	-4.274352e-06	-1.155540e-09	-3.034209e+01	-7.617578e+01
7.800000e-07	-4.246030e-06	-1.157390e-09	-3.014104e+01	-7.599059e+01
7.900000e-07	-4.217468e-06	-1.148602e-09	-2.993829e+01	-7.581098e+01
8.000000e-07	-4.188524e-06	-1.140862e-09	-2.973283e+01	-7.563474e+01
8.100000e-07	-4.159222e-06	-1.140806e-09	-2.952482e+01	-7.545960e+01
8.200000e-07	-4.129622e-06	-1.145503e-09	-2.931470e+01	-7.528335e+01
8.300000e-07	-4.099716e-06	-1.142165e-09	-2.910241e+01	-7.510393e+01
8.400000e-07	-4.069575e-06	-1.132733e-09	-2.888845e+01	-7.491951e+01
8.500000e-07	-4.039164e-06	-1.125399e-09	-2.867257e+01	-7.472861e+01
8.600000e-07	-4.008300e-06	-1.129682e-09	-2.845348e+01	-7.453013e+01
8.700000e-07	-3.977241e-06	-1.131270e-09	-2.823300e+01	-7.432336e+01
8.800000e-07	-3.946069e-06	-1.124145e-09	-2.801173e+01	-7.410803e+01
8.900000e-07	-3.914592e-06	-1.114131e-09	-2.778828e+01	-7.388423e+01
9.000000e-07	-3.882898e-06	-1.110129e-09	-2.756330e+01	-7.365245e+01
9.100000e-07	-3.850971e-06	-1.107068e-09	-2.733666e+01	-7.341346e+01
9.200000e-07	-3.818803e-06	-1.101465e-09	-2.710831e+01	-7.316824e+01
9.300000e-07	-3.786511e-06	-1.095650e-09	-2.687908e+01	-7.291794e+01
9.400000e-07	-3.754057e-06	-1.100421e-09	-2.664870e+01	-7.266376e+01
9.500000e-07	-3.721307e-06	-1.107270e-09	-2.641622e+01	-7.240686e+01
9.600000e-07	-3.688211e-06	-1.105967e-09	-2.618128e+01	-7.214832e+01
9.700000e-07	-3.654695e-06	-1.091857e-09	-2.594337e+01	-7.188904e+01
9.800000e-07	-3.620786e-06	-1.077314e-09	-2.570266e+01	-7.162971e+01
9.900000e-07	-3.586493e-06	-1.068651e-09	-2.545922e+01	-7.137075e+01
1.000000e-06	-3.551727e-06	-1.062436e-09	-2.521243e+01	-7.111233e+01
1.010000e-06	-3.516511e-06	-1.060249e-09	-2.496245e+01	-7.085435e+01
1.020000e-06	-3.481002e-06	-1.063473e-09	-2.471038e+01	-7.059649e+01
1.030000e-06	-3.445298e-06	-1.069892e-09	-2.445693e+01	-7.033820e+01
1.040000e-06	-3.409385e-06	-1.069478e-09	-2.420200e+01	-7.007882e+01
1.050000e-06	-3.373337e-06	-1.059341e-09	-2.394610e+01	-6.981758e+01
1.060000e-06	-3.337187e-06	-1.044746e-09	-2.368949e+01	-6.955372e+01
1.070000e-06	-3.300859e-06	-1.032870e-09	-2.343161e+01	-6.928651e+01
1.080000e-06	-3.264398e-06	-1.022088e-09	-2.317279e+01	-6.901535e+01
1.090000e-06	-3.227823e-06	-1.015775e-09	-2.291315e+01	-6.873980e+01
1.100000e-06	-3.190988e-06	-1.017732e-09	-2.265168e+01	-6.845964e+01
1.110000e-06	-3.153885e-06	-1.025309e-09	-2.238830e+01	-6.817488e+01
1.120000e-06	-3.116460e-06	-1.026203e-09	-2.212263e+01	-6.788579e+01
1.130000e-06	-3.078735e-06	-1.018478e-09	-2.185483e+01	-6.759288e+01
1.140000e-06	-3.040831e-06	-1.007416e-09	-2.158577e+01	-6.729686e+01
1.150000e-06	-3.002748e-06	-9.998980e-10	-2.131543e+01	-6.699865e+01
1.160000e-06	-2.964481e-06	-9.931881e-10	-2.104379e+01	-6.669927e+01
1.170000e-06	-2.926026e-06	-9.875553e-10	-2.077081e+01	-6.639981e+01
1.180000e-06	-2.887349e-06	-9.829650e-10	-2.049625e+01	-6.610138e+01
1.190000e-06	-2.848387e-06	-9.827104e-10	-2.021968e+01	-6.580497e+01
1.200000e-06	-2.809247e-06	-9.847119e-10	-1.994183e+01	-6.551146e+01
1.210000e-06	-2.769896e-06	-9.856684e-10	-1.966249e+01	-6.522152e+01
1.220000e-06	-2.730270e-06	-9.816706e-10	-1.938120e+01	-6.493556e+01
1.230000e-06	-2.690559e-06	-9.746055e-10	-1.909931e+01	-6.465371e+01
1.240000e-06	-2.650770e-06	-9.667104e-10	-1.881686e+01	-6.437577e+01
1.250000e-06	-2.610825e-06	-9.614573e-10	-1.853331e+01	-6.410126e+01
1.260000e-06	-2.570782e-06	-9.588566e-10	-1.824906e+01	-6.382936e+01
1.270000e-06	-2.530631e-06	-9.593405e-10	-1.796404e+01	-6.355901e+01
1.280000e-06	-2.490410e-06	-9.613631e-10	-1.767852e+01	-6.328893e+01
1.290000e-06	-2.450156e-06	-9.611537e-10	-1.739277e+01	-6.301764e+01
1.300000e-06	-2.409796e-06	-9.571569e-10	-1.710627e+01	-6.274360e+01
1.310000e-06	-2.369228e-06	-9.491666e-10	-1.681830e+01	-6.246522e+01
1.320000e-06	-2.328438e-06	-9.401517e-10	-1.652874e+01	-6.218098e+01
1.330000e-06	-2.287430e-06	-9.332224e-10	-1.623764e+01	-6.188947e+01
1.340000e-06	-2.246252e-06	-9.291979e-10	-1.594534e+01	-6.158945e+01
1.350000e-06	-2.204726e-06	-9.271547e-10	-1.565056e+01	-6.127993e+01
1.360000e-06	-2.162870e-06	-9.237045e-10	-1.535344e+01	-6.096018e+01
1.370000e-06	-2.120816e-06	-9.169300e-10	-1.505491e+01	-6.062978e+01
1.380000e-06	-2.078412e-06	-9.120888e-10	-1.475390e+01	-6.028860e+01
1.390000e-06	-2.035733e-06	-9.098763e-10	-1.445094e+01	-5.993683e+01
1.400000e-06	-1.992895e-06	-9.070525e-10	-1.414684e+01	-5.957490e+01
1.410000e-06	-1.949926e-06	-9.002329e-10	-1.384183e+01	-5.920350e+01
1.420000e-06	-1.906729e-06	-8.931114e-10	-1.353518e+01	-5.882348e+01
1.430000e-06	-1.863259e-06	-8.883927e-10	-1.322660e+01	-5.843583e+01
1.440000e-06	-1.819604e-06	-8.846178e-10	-1.291672e+01	-5.804159e+01
1.450000e-06	-1.775849e-06	-8.767055e-10	-1.260612e+01	-5.764181e+01
1.460000e-06	-1.732022e-06	-8.665424e-10	-1.229500e+01	-5.723745e+01
1.470000e-06	-1.688098e-06	-8.589147e-10	-1.198320e+01	-5.682936e+01
1.480000e-06	-1.644114e-06	-8.570213e-10	-1.167097e+01	-5.641824e+01
1.490000e-06	-1.600086e-06	-8.569340e-10	-1.135844e+01	-5.600456e+01
1.500000e-06	-1.555996e-06	-8.554651e-10	-1.104546e+01	-5.558859e+01
1.510000e-06	-1.511836e-06	-8.524706e-10	-1.073198e+01	-5.517034e+01
1.520000e-06	-1.467555e-06	-8.457331e-10	-1.041765e+01	-5.474961e+01
1.530000e-06	-1.423184e-06	-8.320629e-10	-1.010267e+01	-5.432600e+01
1.540000e-06	-1.378731e-06	-8.165167e-10	-9.787120e+00	-5.389892e+01
1.550000e-06	-1.334219e-06	-8.020058e-10	-9.471138e+00	-5.346764e+01
1.560000e-06	-1.289703e-06	-7.907106e-10	-9.155136e+00	-5.303134e+01
1.570000e-06	-1.245180e-06	-7.861437e-10	-8.839084e+00	-5.258914e+01
1.580000e-06	-1.200556e-06	-7.876281e-10	-8.522315e+00	-5.214018e+01
1.590000e-06	-1.155836e-06	-7.909851e-10	-8.204868e+00	-5.168361e+01
1.600000e-06	-1.110990e-06	-7.899915e-10	-7.886516e+00	-5.121869e+01
1.610000e-06	-1.066058e-06	-7.798428e-10	-7.567566e+00	-5.074476e+01
1.620000e-06	-1.021029e-06	-7.625091e-10	-7.247919e+00	-5.026129e+01
1.630000e-06	-9.758497e-07	-7.431183e-10	-6.927207e+00	-4.976789e+01
1.640000e-06	-9.306371e-07	-7.296381e-10	-6.606258e+00	-4.926427e+01
1.650000e-06	-8.853610e-07	-7.211790e-10	-6.284860e+00	-4.875026e+01
1.660000e-06	-8.399615e-07	-7.135687e-10	-5.962585e+00	-4.822577e+01
1.670000e-06	-7.945350e-07	-7.129684e-10	-5.640119e+00	-4.769074e+01
1.680000e-06	-7.491438e-07	-7.165604e-10	-5.317903e+00	-4.714512e+01
1.690000e-06	-7.036713e-07	-7.163657e-10	-4.995110e+00	-4.658882e+01
1.700000e-06	-6.581617e-07	-7.081626e-10	-4.672053e+00	-4.602166e+01
1.710000e-06	-6.125908e-07	-6.950982e-10	-4.348562e+00	-4.544333e+01
1.720000e-06	-5.668226e-07	-6.810653e-10	-4.023670e+00	-4.485340e+01
1.730000e-06	-5.210718e-07	-6.684181e-10	-3.698901e+00	-4.425121e+01
1.740000e-06	-4.753636e-07	-6.548182e-10	-3.374436e+00	-4.363593e+01
1.750000e-06	-4.295200e-07	-6.442382e-10	-3.049009e+00	-4.300652e+01
1.760000e-06	-3.836955e-07	-6.397837e-10	-2.723717e+00	-4.236177e+01
1.770000e-06	-3.380354e-07	-6.352113e-10	-2.399592e+00	-4.170027e+01
1.780000e-06	-2.923491e-07	-6.252193e-10	-2.075281e+00	-4.102049e+01
1.790000e-06	-2.465197e-07	-6.145747e-10	-1.749955e+00	-4.032078e+01
1.800000e-06	-2.006566e-07	-6.030620e-10	-1.424389e+00	-3.959947e+01
1.810000e-06	-1.547259e-07	-5.887518e-10	-1.098344e+00	-3.885485e+01
1.820000e-06	-1.087923e-07	-5.721949e-10	-7.722774e-01	-3.808529e+01
1.830000e-06	-6.296098e-08	-5.567929e-10	-4.469373e-01	-3.728924e+01
1.840000e-06	-1.713528e-08	-5.446958e-10	-1.216372e-01	-3.646532e+01
1.850000e-06	2.872277e-08	-5.366915e-10	2.038926e-01	-3.561234e+01
1.860000e-06	7.459558e-08	-5.263025e-10	5.295272e-01	-3.472931e+01
1.870000e-06	1.204956e-07	-5.125548e-10	8.553552e-01	-3.381549e+01
1.880000e-06	1.664700e-07	-5.009103e-10	1.181711e+00	-3.287042e+01
1.890000e-06	2.123940e-07	-4.904952e-10	1.507709e+00	-3.189384e+01
1.900000e-06	2.582010e-07	-4.750591e-10	1.832876e+00	-3.088577e+01
1.910000e-06	3.039859e-07	-4.541132e-10	2.157887e+00	-2.984643e+01
1.920000e-06	3.497477e-07	-4.350170e-10	2.482733e+00	-2.877620e+01
1.930000e-06	3.955572e-07	-4.195732e-10	2.807918e+00	-2.767563e+01
1.940000e-06	4.413302e-07	-4.031484e-10	3.132844e+00	-2.654535e+01
1.950000e-06	4.870656e-07	-3.816979e-10	3.457504e+00	-2.538606e+01
1.960000e-06	5.326347e-07	-3.630872e-10	3.780982e+00	-2.419848e+01
1.970000e-06	5.781139e-07	-3.487127e-10	4.103823e+00	-2.298329e+01
1.980000e-06	6.237374e-07	-3.342123e-10	4.427688e+00	-2.174112e+01
1.990000e-06	6.692485e-07	-3.145421e-10	4.750754e+00	-2.047253e+01
2.000000e-06	7.146483e-07	-2.930552e-10	5.073032e+00	-1.917800e+01
2.010000e-06	7.600829e-07	-2.763287e-10	5.395555e+00	-1.785788e+01
2.020000e-06	8.054647e-07	-2.603807e-10	5.717704e+00	-1.651245e+01
2.030000e-06	8.507638e-07	-2.365599e-10	6.039267e+00	-1.514192e+01
2.040000e-06	8.960648e-07	-2.070063e-10	6.360842e+00	-1.374643e+01
2.050000e-06	9.412462e-07	-1.819738e-10	6.681568e+00	-1.232608e+01
2.060000e-06	9.862792e-07	-1.630876e-10	7.001242e+00	-1.088100e+01
2.070000e-06	1.031267e-06	-1.423299e-10	7.320593e+00	-9.411346e+00
2.080000e-06	1.076210e-06	-1.202432e-10	7.639625e+00	-7.917339e+00
2.090000e-06	1.121092e-06	-1.014234e-10	7.958231e+00	-6.399309e+00
2.100000e-06	1.165770e-06	-8.408633e-11	8.275380e+00	-4.857713e+00
2.110000e-06	1.210380e-06	-5.973666e-11	8.592052e+00	-3.293157e+00
2.120000e-06	1.254983e-06	-2.973453e-11	8.908674e+00	-1.706410e+00
2.130000e-06	1.299503e-06	-1.645982e-12	9.224703e+00	-9.840756e-02
2.140000e-06	1.343992e-06	2.341166e-11	9.540519e+00	1.529751e+00
2.150000e-06	1.388361e-06	5.025864e-11	9.855478e+00	3.176810e+00
2.160000e-06	1.432593e-06	7.646721e-11	1.016946e+01	4.841378e+00
2.170000e-06	1.476807e-06	9.791117e-11	1.048332e+01	6.521946e+00
2.180000e-06	1.521002e-06	1.175653e-10	1.079704e+01	8.216914e+00
2.190000e-06	1.565104e-06	1.409405e-10	1.111011e+01	9.924617e+00
2.200000e-06	1.609174e-06	1.687830e-10	1.142295e+01	1.164335e+01
2.210000e-06	1.653192e-06	1.965408e-10	1.173542e+01	1.337140e+01
2.220000e-06	1.697096e-06	2.236490e-10	1.204707e+01	1.510704e+01
2.230000e-06	1.740981e-06	2.539213e-10	1.235860e+01	1.684857e+01
2.240000e-06	1.784737e-06	2.863047e-10	1.266921e+01	1.859432e+01
2.250000e-06	1.828290e-06	3.148718e-10	1.297837e+01	2.034263e+01
2.260000e-06	1.871873e-06	3.371232e-10	1.328775e+01	2.209186e+01
2.270000e-06	1.915454e-06	3.578647e-10	1.359712e+01	2.384038e+01
2.280000e-06	1.958764e-06	3.855882e-10	1.390456e+01	2.558654e+01
2.290000e-06	2.001747e-06	4.185722e-10	1.420968e+01	2.732865e+01
2.300000e-06	2.044497e-06	4.471646e-10	1.451315e+01	2.906499e+01
2.310000e-06	2.087004e-06	4.702567e-10	1.481489e+01	3.079375e+01
2.320000e-06	2.129238e-06	4.956086e-10	1.511469e+01	3.251301e+01
2.330000e-06	2.171157e-06	5.231352e-10	1.541226e+01	3.422076e+01
2.340000e-06	2.212691e-06	5.492811e-10	1.570710e+01	3.591490e+01
2.350000e-06	2.254058e-06	5.724468e-10	1.600075e+01	3.759319e+01
2.360000e-06	2.295291e-06	5.975714e-10	1.629345e+01	3.925330e+01
2.370000e-06	2.336273e-06	6.279076e-10	1.658436e+01	4.089286e+01
2.380000e-06	2.376931e-06	6.576211e-10	1.687298e+01	4.250940e+01
2.390000e-06	2.417349e-06	6.802628e-10	1.715989e+01	4.410051e+01
2.400000e-06	2.457745e-06	6.992735e-10	1.744665e+01	4.566378e+01
2.410000e-06	2.498007e-06	7.187025e-10	1.773246e+01	4.719690e+01
2.420000e-06	2.538152e-06	7.426360e-10	1.801743e+01	4.869773e+01
2.430000e-06	2.578217e-06	7.694328e-10	1.830184e+01	5.016430e+01
2.440000e-06	2.618172e-06	7.961242e-10	1.858546e+01	5.159490e+01
2.450000e-06	2.658026e-06	8.204213e-10	1.886837e+01	5.298811e+01
2.460000e-06	2.697730e-06	8.432080e-10	1.915022e+01	5.434285e+01
2.470000e-06	2.737280e-06	8.630830e-10	1.943097e+01	5.565837e+01
2.480000e-06	2.776648e-06	8.773441e-10	1.971043e+01	5.693430e+01
2.490000e-06	2.815784e-06	8.885667e-10	1.998824e+01	5.817063e+01
2.500000e-06	2.854673e-06	9.038230e-10	2.026430e+01	5.936768e+01
2.510000e-06	2.893358e-06	9.271281e-10	2.053891e+01	6.052612e+01
2.520000e-06	2.931848e-06	9.555952e-10	2.081213e+01	6.164689e+01
2.530000e-06	2.970108e-06	9.825692e-10	2.108373e+01	6.273116e+01
2.540000e-06	3.008197e-06	1.003765e-09	2.135411e+01	6.378029e+01
2.550000e-06	3.046115e-06	1.016321e-09	2.162327e+01	6.479574e+01
2.560000e-06	3.083730e-06	1.020555e-09	2.189029e+01	6.577906e+01
2.570000e-06	3.121085e-06	1.023764e-09	2.215546e+01	6.673176e+01
2.580000e-06	3.158284e-06	1.030745e-09	2.241953e+01	6.765530e+01
2.590000e-06	3.195293e-06	1.045292e-09	2.268223e+01	6.855103e+01
2.600000e-06	3.232063e-06	1.067893e-09	2.294325e+01	6.942016e+01
2.610000e-06	3.268592e-06	1.092666e-09	2.320256e+01	7.026368e+01
2.620000e-06	3.304977e-06	1.112217e-09	2.346084e+01	7.108242e+01
2.630000e-06	3.341225e-06	1.125046e-09	2.371816e+01	7.187699e+01
2.640000e-06	3.377331e-06	1.130364e-09	2.397446e+01	7.264779e+01
2.650000e-06	3.413312e-06	1.132266e-09	2.422987e+01	7.339507e+01
2.660000e-06	3.449145e-06	1.131393e-09	2.448424e+01	7.411891e+01
2.670000e-06	3.484841e-06	1.133066e-09	2.473764e+01	7.481928e+01
2.680000e-06	3.520256e-06	1.142843e-09	2.498904e+01	7.549607e+01
2.690000e-06	3.555242e-06	1.158789e-09	2.523739e+01	7.614914e+01
2.700000e-06	3.589834e-06	1.176441e-09	2.548294e+01	7.677837e+01
2.710000e-06	3.623990e-06	1.192530e-09	2.572540e+01	7.738365e+01
2.720000e-06	3.657687e-06	1.202209e-09	2.596460e+01	7.796497e+01
2.730000e-06	3.691033e-06	1.207313e-09	2.620132e+01	7.852243e+01
2.740000e-06	3.724054e-06	1.212073e-09	2.643572e+01	7.905621e+01
2.750000e-06	3.756713e-06	1.215606e-09	2.666755e+01	7.956663e+01
2.760000e-06	3.789100e-06	1.220542e-09	2.689746e+01	8.005411e+01
2.770000e-06	3.821307e-06	1.226819e-09	2.712609e+01	8.051918e+01
2.780000e-06	3.853420e-06	1.235783e-09	2.735404e+01	8.096245e+01
2.790000e-06	3.885435e-06	1.246714e-09	2.758131e+01	8.138456e+01
2.800000e-06	3.917153e-06	1.252109e-09	2.780646e+01	8.178618e+01
2.810000e-06	3.948585e-06	1.253549e-09	2.802959e+01	8.216799e+01
2.820000e-06	3.979760e-06	1.256201e-09	2.825089e+01	8.253059e+01
2.830000e-06	4.010595e-06	1.260268e-09	2.846978e+01	8.287454e+01
2.840000e-06	4.041228e-06	1.264024e-09	2.868723e+01	8.320032e+01
2.850000e-06	4.071594e-06	1.267614e-09	2.890279e+01	8.350831e+01
2.860000e-06	4.101694e-06	1.272390e-09	2.911646e+01	8.379878e+01
2.870000e-06	4.131613e-06	1.277763e-09	2.932884e+01	8.407193e+01
2.880000e-06	4.161182e-06	1.284047e-09	2.953873e+01	8.432789e+01
2.890000e-06	4.190397e-06	1.286761e-09	2.974612e+01	8.456675e+01
2.900000e-06	4.219347e-06	1.287900e-09	2.995163e+01	8.478859e+01
