# Temperatura_=_17.88
# Concentracion g/m^3_=_4090.0
# C_Vs_to_Am_M_A/Vsm_=_65563218390.804596
# pendiente_HvsI_1/m_=_3716.3
# ordenada_HvsI_A/m_=_1297.0
# frecuencia_Hz_=_135084.81431862447

Tiempo_(s)	Campo_(V.s)	Magnetizacion_(V.s)	Campo_(kA/m)	Magnetizacion_(A/m)
0.000000e+00	-5.403277e-06	-1.281943e-09	-3.838129e+01	-8.628865e+01
1.000000e-08	-5.403202e-06	-1.275397e-09	-3.838076e+01	-8.614792e+01
2.000000e-08	-5.402966e-06	-1.269878e-09	-3.837908e+01	-8.598806e+01
3.000000e-08	-5.402532e-06	-1.267057e-09	-3.837600e+01	-8.580918e+01
4.000000e-08	-5.401659e-06	-1.269648e-09	-3.836980e+01	-8.561236e+01
5.000000e-08	-5.400287e-06	-1.275051e-09	-3.836006e+01	-8.539976e+01
6.000000e-08	-5.398375e-06	-1.283058e-09	-3.834647e+01	-8.517453e+01
7.000000e-08	-5.395675e-06	-1.302181e-09	-3.832730e+01	-8.494082e+01
8.000000e-08	-5.392210e-06	-1.287838e-09	-3.830268e+01	-8.470364e+01
9.000000e-08	-5.388257e-06	-1.229563e-09	-3.827460e+01	-8.446870e+01
1.000000e-07	-5.384060e-06	-1.253922e-09	-3.824479e+01	-8.424222e+01
1.100000e-07	-5.379706e-06	-1.342217e-09	-3.821386e+01	-8.403067e+01
1.200000e-07	-5.375087e-06	-1.282525e-09	-3.818105e+01	-8.384056e+01
1.300000e-07	-5.370115e-06	-1.203213e-09	-3.814574e+01	-8.367808e+01
1.400000e-07	-5.364796e-06	-1.236750e-09	-3.810795e+01	-8.354891e+01
1.500000e-07	-5.359187e-06	-1.388470e-09	-3.806811e+01	-8.345788e+01
1.600000e-07	-5.353116e-06	-1.300175e-09	-3.802498e+01	-8.340879e+01
1.700000e-07	-5.346590e-06	-1.130091e-09	-3.797863e+01	-8.340418e+01
1.800000e-07	-5.339743e-06	-1.215456e-09	-3.792999e+01	-8.344518e+01
1.900000e-07	-5.332629e-06	-1.346856e-09	-3.787946e+01	-8.353143e+01
2.000000e-07	-5.325222e-06	-1.287176e-09	-3.782684e+01	-8.366101e+01
2.100000e-07	-5.317482e-06	-1.158244e-09	-3.777186e+01	-8.383051e+01
2.200000e-07	-5.309532e-06	-1.289506e-09	-3.771539e+01	-8.403510e+01
2.300000e-07	-5.301301e-06	-1.358030e-09	-3.765692e+01	-8.426869e+01
2.400000e-07	-5.292553e-06	-1.280507e-09	-3.759479e+01	-8.452416e+01
2.500000e-07	-5.283238e-06	-1.252004e-09	-3.752861e+01	-8.479357e+01
2.600000e-07	-5.273298e-06	-1.393426e-09	-3.745801e+01	-8.506849e+01
2.700000e-07	-5.262738e-06	-1.384558e-09	-3.738300e+01	-8.534031e+01
2.800000e-07	-5.251728e-06	-1.275459e-09	-3.730479e+01	-8.560054e+01
2.900000e-07	-5.240273e-06	-1.310523e-09	-3.722342e+01	-8.584112e+01
3.000000e-07	-5.228401e-06	-1.406974e-09	-3.713909e+01	-8.605472e+01
3.100000e-07	-5.216055e-06	-1.321476e-09	-3.705139e+01	-8.623501e+01
3.200000e-07	-5.203322e-06	-1.270699e-09	-3.696095e+01	-8.637684e+01
3.300000e-07	-5.190285e-06	-1.370070e-09	-3.686834e+01	-8.647640e+01
3.400000e-07	-5.176813e-06	-1.386309e-09	-3.677264e+01	-8.653136e+01
3.500000e-07	-5.162950e-06	-1.308611e-09	-3.667417e+01	-8.654084e+01
3.600000e-07	-5.148697e-06	-1.336143e-09	-3.657292e+01	-8.650541e+01
3.700000e-07	-5.134007e-06	-1.369264e-09	-3.646858e+01	-8.642702e+01
3.800000e-07	-5.118779e-06	-1.294138e-09	-3.636041e+01	-8.630880e+01
3.900000e-07	-5.103007e-06	-1.293744e-09	-3.624838e+01	-8.615490e+01
4.000000e-07	-5.086801e-06	-1.342686e-09	-3.613326e+01	-8.597025e+01
4.100000e-07	-5.070012e-06	-1.302921e-09	-3.601400e+01	-8.576030e+01
4.200000e-07	-5.052898e-06	-1.272510e-09	-3.589243e+01	-8.553078e+01
4.300000e-07	-5.035601e-06	-1.352154e-09	-3.576957e+01	-8.528739e+01
4.400000e-07	-5.017957e-06	-1.350341e-09	-3.564424e+01	-8.503557e+01
4.500000e-07	-5.000075e-06	-1.289427e-09	-3.551722e+01	-8.478028e+01
4.600000e-07	-4.981995e-06	-1.285875e-09	-3.538879e+01	-8.452581e+01
4.700000e-07	-4.963469e-06	-1.313790e-09	-3.525719e+01	-8.427564e+01
4.800000e-07	-4.944383e-06	-1.272545e-09	-3.512162e+01	-8.403232e+01
4.900000e-07	-4.924955e-06	-1.262961e-09	-3.498361e+01	-8.379745e+01
5.000000e-07	-4.905251e-06	-1.264441e-09	-3.484364e+01	-8.357167e+01
5.100000e-07	-4.885303e-06	-1.270880e-09	-3.470195e+01	-8.335475e+01
5.200000e-07	-4.865186e-06	-1.284226e-09	-3.455905e+01	-8.314565e+01
5.300000e-07	-4.844843e-06	-1.301323e-09	-3.441455e+01	-8.294268e+01
5.400000e-07	-4.824178e-06	-1.265855e-09	-3.426776e+01	-8.274366e+01
5.500000e-07	-4.803138e-06	-1.263902e-09	-3.411831e+01	-8.254612e+01
5.600000e-07	-4.781654e-06	-1.274308e-09	-3.396569e+01	-8.234745e+01
5.700000e-07	-4.759822e-06	-1.253881e-09	-3.381061e+01	-8.214510e+01
5.800000e-07	-4.737755e-06	-1.218903e-09	-3.365387e+01	-8.193679e+01
5.900000e-07	-4.715451e-06	-1.227082e-09	-3.349543e+01	-8.172058e+01
6.000000e-07	-4.692765e-06	-1.240473e-09	-3.333429e+01	-8.149505e+01
6.100000e-07	-4.669653e-06	-1.252912e-09	-3.317011e+01	-8.125935e+01
6.200000e-07	-4.646293e-06	-1.250461e-09	-3.300418e+01	-8.101326e+01
6.300000e-07	-4.622684e-06	-1.235925e-09	-3.283648e+01	-8.075716e+01
6.400000e-07	-4.598850e-06	-1.237009e-09	-3.266718e+01	-8.049204e+01
6.500000e-07	-4.574841e-06	-1.247198e-09	-3.249663e+01	-8.021937e+01
6.600000e-07	-4.550604e-06	-1.227434e-09	-3.232447e+01	-7.994104e+01
6.700000e-07	-4.526138e-06	-1.200730e-09	-3.215068e+01	-7.965925e+01
6.800000e-07	-4.501118e-06	-1.209308e-09	-3.197295e+01	-7.937633e+01
6.900000e-07	-4.475428e-06	-1.221244e-09	-3.179047e+01	-7.909461e+01
7.000000e-07	-4.449249e-06	-1.216675e-09	-3.160451e+01	-7.881631e+01
7.100000e-07	-4.422565e-06	-1.203172e-09	-3.141497e+01	-7.854338e+01
7.200000e-07	-4.395469e-06	-1.207539e-09	-3.122250e+01	-7.827739e+01
7.300000e-07	-4.368030e-06	-1.214100e-09	-3.102759e+01	-7.801947e+01
7.400000e-07	-4.340267e-06	-1.214516e-09	-3.083037e+01	-7.777022e+01
7.500000e-07	-4.312317e-06	-1.193415e-09	-3.063184e+01	-7.752971e+01
7.600000e-07	-4.284262e-06	-1.187137e-09	-3.043255e+01	-7.729749e+01
7.700000e-07	-4.256036e-06	-1.192698e-09	-3.023206e+01	-7.707258e+01
7.800000e-07	-4.227606e-06	-1.195493e-09	-3.003011e+01	-7.685361e+01
7.900000e-07	-4.198883e-06	-1.177423e-09	-2.982608e+01	-7.663883e+01
8.000000e-07	-4.169793e-06	-1.170541e-09	-2.961944e+01	-7.642630e+01
8.100000e-07	-4.140286e-06	-1.171544e-09	-2.940984e+01	-7.621390e+01
8.200000e-07	-4.110535e-06	-1.179170e-09	-2.919851e+01	-7.599956e+01
8.300000e-07	-4.080594e-06	-1.170959e-09	-2.898584e+01	-7.578131e+01
8.400000e-07	-4.050271e-06	-1.162020e-09	-2.877043e+01	-7.555738e+01
8.500000e-07	-4.019644e-06	-1.159865e-09	-2.855289e+01	-7.532633e+01
8.600000e-07	-3.988885e-06	-1.167451e-09	-2.833439e+01	-7.508711e+01
8.700000e-07	-3.957830e-06	-1.159343e-09	-2.811380e+01	-7.483908e+01
8.800000e-07	-3.926427e-06	-1.143136e-09	-2.789073e+01	-7.458204e+01
8.900000e-07	-3.894832e-06	-1.133770e-09	-2.766630e+01	-7.431624e+01
9.000000e-07	-3.863062e-06	-1.138225e-09	-2.744063e+01	-7.404232e+01
9.100000e-07	-3.831073e-06	-1.139686e-09	-2.721340e+01	-7.376128e+01
9.200000e-07	-3.798819e-06	-1.134476e-09	-2.698429e+01	-7.347437e+01
9.300000e-07	-3.766368e-06	-1.131775e-09	-2.675378e+01	-7.318307e+01
9.400000e-07	-3.733733e-06	-1.137338e-09	-2.652196e+01	-7.288891e+01
9.500000e-07	-3.700819e-06	-1.135526e-09	-2.628816e+01	-7.259346e+01
9.600000e-07	-3.667473e-06	-1.119007e-09	-2.605130e+01	-7.229816e+01
9.700000e-07	-3.633629e-06	-1.102640e-09	-2.581089e+01	-7.200430e+01
9.800000e-07	-3.599371e-06	-1.095595e-09	-2.556754e+01	-7.171292e+01
9.900000e-07	-3.564689e-06	-1.094123e-09	-2.532119e+01	-7.142478e+01
1.000000e-06	-3.529570e-06	-1.087178e-09	-2.507173e+01	-7.114030e+01
1.010000e-06	-3.494155e-06	-1.083671e-09	-2.482016e+01	-7.085960e+01
1.020000e-06	-3.458507e-06	-1.085304e-09	-2.456694e+01	-7.058244e+01
1.030000e-06	-3.422693e-06	-1.087985e-09	-2.431254e+01	-7.030835e+01
1.040000e-06	-3.386798e-06	-1.081005e-09	-2.405757e+01	-7.003659e+01
1.050000e-06	-3.350788e-06	-1.070546e-09	-2.380177e+01	-6.976626e+01
1.060000e-06	-3.314629e-06	-1.059432e-09	-2.354493e+01	-6.949636e+01
1.070000e-06	-3.278325e-06	-1.054588e-09	-2.328705e+01	-6.922586e+01
1.080000e-06	-3.241809e-06	-1.047217e-09	-2.302766e+01	-6.895376e+01
1.090000e-06	-3.205050e-06	-1.042370e-09	-2.276655e+01	-6.867918e+01
1.100000e-06	-3.168051e-06	-1.039184e-09	-2.250373e+01	-6.840142e+01
1.110000e-06	-3.130739e-06	-1.040950e-09	-2.223869e+01	-6.811995e+01
1.120000e-06	-3.093153e-06	-1.037395e-09	-2.197170e+01	-6.783449e+01
1.130000e-06	-3.055379e-06	-1.029037e-09	-2.170338e+01	-6.754501e+01
1.140000e-06	-3.017468e-06	-1.017776e-09	-2.143409e+01	-6.725169e+01
1.150000e-06	-2.979408e-06	-1.012037e-09	-2.116374e+01	-6.695491e+01
1.160000e-06	-2.941129e-06	-1.005796e-09	-2.089183e+01	-6.665522e+01
1.170000e-06	-2.902662e-06	-9.998848e-10	-2.061859e+01	-6.635326e+01
1.180000e-06	-2.864029e-06	-9.917648e-10	-2.034416e+01	-6.604975e+01
1.190000e-06	-2.825148e-06	-9.891200e-10	-2.006797e+01	-6.574537e+01
1.200000e-06	-2.785945e-06	-9.902977e-10	-1.978951e+01	-6.544071e+01
1.210000e-06	-2.746530e-06	-9.898744e-10	-1.950953e+01	-6.513626e+01
1.220000e-06	-2.706970e-06	-9.848921e-10	-1.922852e+01	-6.483229e+01
1.230000e-06	-2.667349e-06	-9.800643e-10	-1.894708e+01	-6.452888e+01
1.240000e-06	-2.627595e-06	-9.755115e-10	-1.866469e+01	-6.422587e+01
1.250000e-06	-2.587620e-06	-9.690128e-10	-1.838073e+01	-6.392285e+01
1.260000e-06	-2.547515e-06	-9.630381e-10	-1.809586e+01	-6.361918e+01
1.270000e-06	-2.507363e-06	-9.574551e-10	-1.781064e+01	-6.331405e+01
1.280000e-06	-2.467183e-06	-9.552670e-10	-1.752523e+01	-6.300645e+01
1.290000e-06	-2.426840e-06	-9.520027e-10	-1.723866e+01	-6.269532e+01
1.300000e-06	-2.386284e-06	-9.471561e-10	-1.695058e+01	-6.237954e+01
1.310000e-06	-2.345589e-06	-9.409448e-10	-1.666151e+01	-6.205801e+01
1.320000e-06	-2.304748e-06	-9.371335e-10	-1.637140e+01	-6.172973e+01
1.330000e-06	-2.263638e-06	-9.331987e-10	-1.607938e+01	-6.139388e+01
1.340000e-06	-2.222296e-06	-9.299688e-10	-1.578572e+01	-6.104981e+01
1.350000e-06	-2.180670e-06	-9.264009e-10	-1.549003e+01	-6.069714e+01
1.360000e-06	-2.138653e-06	-9.216985e-10	-1.519157e+01	-6.033576e+01
1.370000e-06	-2.096296e-06	-9.142780e-10	-1.489070e+01	-5.996581e+01
1.380000e-06	-2.053681e-06	-9.082805e-10	-1.458799e+01	-5.958774e+01
1.390000e-06	-2.010884e-06	-9.023514e-10	-1.428399e+01	-5.920222e+01
1.400000e-06	-1.967943e-06	-8.975430e-10	-1.397896e+01	-5.881010e+01
1.410000e-06	-1.924872e-06	-8.921514e-10	-1.367302e+01	-5.841242e+01
1.420000e-06	-1.881620e-06	-8.895151e-10	-1.336578e+01	-5.801026e+01
1.430000e-06	-1.838151e-06	-8.882254e-10	-1.305701e+01	-5.760473e+01
1.440000e-06	-1.794487e-06	-8.868062e-10	-1.274685e+01	-5.719688e+01
1.450000e-06	-1.750714e-06	-8.806449e-10	-1.243591e+01	-5.678762e+01
1.460000e-06	-1.706912e-06	-8.729590e-10	-1.212477e+01	-5.637768e+01
1.470000e-06	-1.663035e-06	-8.672241e-10	-1.181310e+01	-5.596753e+01
1.480000e-06	-1.619037e-06	-8.626822e-10	-1.150057e+01	-5.555738e+01
1.490000e-06	-1.574982e-06	-8.585106e-10	-1.118762e+01	-5.514712e+01
1.500000e-06	-1.530844e-06	-8.548944e-10	-1.087410e+01	-5.473634e+01
1.510000e-06	-1.486602e-06	-8.499655e-10	-1.055983e+01	-5.432436e+01
1.520000e-06	-1.442328e-06	-8.424263e-10	-1.024534e+01	-5.391021e+01
1.530000e-06	-1.398021e-06	-8.340517e-10	-9.930614e+00	-5.349272e+01
1.540000e-06	-1.353620e-06	-8.261235e-10	-9.615218e+00	-5.307055e+01
1.550000e-06	-1.309133e-06	-8.174169e-10	-9.299215e+00	-5.264227e+01
1.560000e-06	-1.264644e-06	-8.108060e-10	-8.983193e+00	-5.220642e+01
1.570000e-06	-1.220168e-06	-8.066654e-10	-8.667266e+00	-5.176158e+01
1.580000e-06	-1.175610e-06	-8.016750e-10	-8.350753e+00	-5.130644e+01
1.590000e-06	-1.130958e-06	-7.954390e-10	-8.033578e+00	-5.083982e+01
1.600000e-06	-1.086104e-06	-7.877900e-10	-7.714959e+00	-5.036077e+01
1.610000e-06	-1.041109e-06	-7.776006e-10	-7.395350e+00	-4.986856e+01
1.620000e-06	-9.961641e-07	-7.644633e-10	-7.076088e+00	-4.936268e+01
1.630000e-06	-9.512005e-07	-7.527201e-10	-6.756697e+00	-4.884288e+01
1.640000e-06	-9.060835e-07	-7.428263e-10	-6.436216e+00	-4.830911e+01
1.650000e-06	-8.608601e-07	-7.337491e-10	-6.114979e+00	-4.776148e+01
1.660000e-06	-8.156510e-07	-7.242430e-10	-5.793843e+00	-4.720024e+01
1.670000e-06	-7.703540e-07	-7.185128e-10	-5.472084e+00	-4.662570e+01
1.680000e-06	-7.250238e-07	-7.141476e-10	-5.150088e+00	-4.603817e+01
1.690000e-06	-6.795980e-07	-7.055313e-10	-4.827413e+00	-4.543790e+01
1.700000e-06	-6.340319e-07	-6.915228e-10	-4.503742e+00	-4.482499e+01
1.710000e-06	-5.884515e-07	-6.787065e-10	-4.179969e+00	-4.419936e+01
1.720000e-06	-5.428768e-07	-6.684399e-10	-3.856236e+00	-4.356072e+01
1.730000e-06	-4.973515e-07	-6.575968e-10	-3.532855e+00	-4.290850e+01
1.740000e-06	-4.518081e-07	-6.434390e-10	-3.209345e+00	-4.224184e+01
1.750000e-06	-4.061439e-07	-6.306131e-10	-2.884977e+00	-4.155964e+01
1.760000e-06	-3.604136e-07	-6.206821e-10	-2.560139e+00	-4.086051e+01
1.770000e-06	-3.146432e-07	-6.115864e-10	-2.235017e+00	-4.014287e+01
1.780000e-06	-2.687684e-07	-6.017267e-10	-1.909153e+00	-3.940496e+01
1.790000e-06	-2.229118e-07	-5.908064e-10	-1.583418e+00	-3.864493e+01
1.800000e-06	-1.771258e-07	-5.783173e-10	-1.258184e+00	-3.786090e+01
1.810000e-06	-1.313614e-07	-5.634175e-10	-9.331044e-01	-3.705104e+01
1.820000e-06	-8.550962e-08	-5.456293e-10	-6.074036e-01	-3.621363e+01
1.830000e-06	-3.960083e-08	-5.264736e-10	-2.812980e-01	-3.534715e+01
1.840000e-06	6.269630e-09	-5.090366e-10	4.453529e-02	-3.445036e+01
1.850000e-06	5.205632e-08	-4.944426e-10	3.697736e-01	-3.352228e+01
1.860000e-06	9.794370e-08	-4.818459e-10	6.957270e-01	-3.256230e+01
1.870000e-06	1.438889e-07	-4.730332e-10	1.022091e+00	-3.157016e+01
1.880000e-06	1.896846e-07	-4.657804e-10	1.347394e+00	-3.054593e+01
1.890000e-06	2.355271e-07	-4.562860e-10	1.673028e+00	-2.949003e+01
1.900000e-06	2.813824e-07	-4.394896e-10	1.998754e+00	-2.840315e+01
1.910000e-06	3.272292e-07	-4.142076e-10	2.324419e+00	-2.728621e+01
1.920000e-06	3.730085e-07	-3.891740e-10	2.649605e+00	-2.614033e+01
1.930000e-06	4.187038e-07	-3.659486e-10	2.974194e+00	-2.496669e+01
1.940000e-06	4.644239e-07	-3.435142e-10	3.298959e+00	-2.376650e+01
1.950000e-06	5.101000e-07	-3.239436e-10	3.623412e+00	-2.254093e+01
1.960000e-06	5.557318e-07	-3.119334e-10	3.947550e+00	-2.129101e+01
1.970000e-06	6.013584e-07	-3.015883e-10	4.271651e+00	-2.001758e+01
1.980000e-06	6.468583e-07	-2.875226e-10	4.594852e+00	-1.872128e+01
1.990000e-06	6.923237e-07	-2.694744e-10	4.917808e+00	-1.740247e+01
2.000000e-06	7.377620e-07	-2.492382e-10	5.240572e+00	-1.606124e+01
2.010000e-06	7.830980e-07	-2.261597e-10	5.562608e+00	-1.469744e+01
2.020000e-06	8.284595e-07	-2.004905e-10	5.884827e+00	-1.331067e+01
2.030000e-06	8.737681e-07	-1.716605e-10	6.206668e+00	-1.190034e+01
2.040000e-06	9.189517e-07	-1.449228e-10	6.527623e+00	-1.046576e+01
2.050000e-06	9.640156e-07	-1.253742e-10	6.847727e+00	-9.006138e+00
2.060000e-06	1.008955e-06	-1.085967e-10	7.166949e+00	-7.520718e+00
2.070000e-06	1.053901e-06	-9.030820e-11	7.486216e+00	-6.008836e+00
2.080000e-06	1.098854e-06	-6.921661e-11	7.805526e+00	-4.469995e+00
2.090000e-06	1.143631e-06	-4.644606e-11	8.123595e+00	-2.903942e+00
2.100000e-06	1.188210e-06	-2.311694e-11	8.440253e+00	-1.310722e+00
2.110000e-06	1.232635e-06	5.762517e-12	8.755824e+00	3.092692e-01
2.120000e-06	1.277021e-06	3.978980e-11	9.071107e+00	1.955259e+00
2.130000e-06	1.321376e-06	6.856693e-11	9.386180e+00	3.626085e+00
2.140000e-06	1.365710e-06	9.070200e-11	9.701095e+00	5.320200e+00
2.150000e-06	1.410040e-06	1.113127e-10	1.001599e+01	7.035694e+00
2.160000e-06	1.454283e-06	1.316928e-10	1.033026e+01	8.770340e+00
2.170000e-06	1.498411e-06	1.546227e-10	1.064372e+01	1.052164e+01
2.180000e-06	1.542525e-06	1.799187e-10	1.095707e+01	1.228689e+01
2.190000e-06	1.586642e-06	2.061318e-10	1.127045e+01	1.406327e+01
2.200000e-06	1.630669e-06	2.348879e-10	1.158319e+01	1.584786e+01
2.210000e-06	1.674587e-06	2.640575e-10	1.189516e+01	1.763779e+01
2.220000e-06	1.718428e-06	2.929544e-10	1.220657e+01	1.943025e+01
2.230000e-06	1.762242e-06	3.221967e-10	1.251780e+01	2.122255e+01
2.240000e-06	1.805933e-06	3.526132e-10	1.282815e+01	2.301219e+01
2.250000e-06	1.849466e-06	3.813886e-10	1.313738e+01	2.479685e+01
2.260000e-06	1.892866e-06	4.084657e-10	1.344566e+01	2.657445e+01
2.270000e-06	1.936127e-06	4.331920e-10	1.375296e+01	2.834311e+01
2.280000e-06	1.979228e-06	4.585321e-10	1.405912e+01	3.010116e+01
2.290000e-06	2.022149e-06	4.865457e-10	1.436400e+01	3.184708e+01
2.300000e-06	2.064935e-06	5.139580e-10	1.466792e+01	3.357951e+01
2.310000e-06	2.107491e-06	5.421151e-10	1.497022e+01	3.529716e+01
2.320000e-06	2.149799e-06	5.736262e-10	1.527075e+01	3.699878e+01
2.330000e-06	2.191732e-06	6.035650e-10	1.556861e+01	3.868312e+01
2.340000e-06	2.233209e-06	6.287200e-10	1.586323e+01	4.034888e+01
2.350000e-06	2.274490e-06	6.499503e-10	1.615647e+01	4.199469e+01
2.360000e-06	2.315604e-06	6.710936e-10	1.644851e+01	4.361905e+01
2.370000e-06	2.356472e-06	6.942037e-10	1.673881e+01	4.522038e+01
2.380000e-06	2.397119e-06	7.189156e-10	1.702755e+01	4.679696e+01
2.390000e-06	2.437560e-06	7.452038e-10	1.731481e+01	4.834701e+01
2.400000e-06	2.477847e-06	7.743315e-10	1.760098e+01	4.986867e+01
2.410000e-06	2.518000e-06	8.029072e-10	1.788620e+01	5.136008e+01
2.420000e-06	2.558043e-06	8.294629e-10	1.817064e+01	5.281940e+01
2.430000e-06	2.597992e-06	8.525876e-10	1.845441e+01	5.424493e+01
2.440000e-06	2.637849e-06	8.704456e-10	1.873753e+01	5.563509e+01
2.450000e-06	2.677615e-06	8.868632e-10	1.902000e+01	5.698854e+01
2.460000e-06	2.717249e-06	9.051035e-10	1.930154e+01	5.830422e+01
2.470000e-06	2.756669e-06	9.253042e-10	1.958155e+01	5.958139e+01
2.480000e-06	2.795901e-06	9.467379e-10	1.986023e+01	6.081965e+01
2.490000e-06	2.834971e-06	9.716571e-10	2.013775e+01	6.201898e+01
2.500000e-06	2.873734e-06	9.968505e-10	2.041310e+01	6.317973e+01
2.510000e-06	2.912250e-06	1.016049e-09	2.068669e+01	6.430261e+01
2.520000e-06	2.950561e-06	1.032711e-09	2.095883e+01	6.538863e+01
2.530000e-06	2.988685e-06	1.049083e-09	2.122964e+01	6.643909e+01
2.540000e-06	3.026648e-06	1.063776e-09	2.149930e+01	6.745550e+01
2.550000e-06	3.064407e-06	1.075493e-09	2.176751e+01	6.843950e+01
2.560000e-06	3.102003e-06	1.083685e-09	2.203457e+01	6.939280e+01
2.570000e-06	3.139397e-06	1.094162e-09	2.230019e+01	7.031709e+01
2.580000e-06	3.176511e-06	1.107087e-09	2.256382e+01	7.121396e+01
2.590000e-06	3.213403e-06	1.123323e-09	2.282589e+01	7.208485e+01
2.600000e-06	3.250177e-06	1.141073e-09	2.308710e+01	7.293099e+01
2.610000e-06	3.286780e-06	1.161313e-09	2.334711e+01	7.375332e+01
2.620000e-06	3.323174e-06	1.177544e-09	2.360562e+01	7.455250e+01
2.630000e-06	3.359358e-06	1.186589e-09	2.386265e+01	7.532890e+01
2.640000e-06	3.395344e-06	1.188995e-09	2.411827e+01	7.608258e+01
2.650000e-06	3.431191e-06	1.189048e-09	2.437290e+01	7.681334e+01
2.660000e-06	3.466876e-06	1.191289e-09	2.462638e+01	7.752075e+01
2.670000e-06	3.502331e-06	1.197316e-09	2.487824e+01	7.820421e+01
2.680000e-06	3.537474e-06	1.206900e-09	2.512787e+01	7.886301e+01
2.690000e-06	3.572355e-06	1.222837e-09	2.537564e+01	7.949640e+01
2.700000e-06	3.606929e-06	1.241464e-09	2.562123e+01	8.010365e+01
2.710000e-06	3.640894e-06	1.254832e-09	2.586249e+01	8.068415e+01
2.720000e-06	3.674332e-06	1.260426e-09	2.610001e+01	8.123743e+01
2.730000e-06	3.707516e-06	1.260768e-09	2.633573e+01	8.176323e+01
2.740000e-06	3.740314e-06	1.261465e-09	2.656871e+01	8.226155e+01
2.750000e-06	3.772754e-06	1.262495e-09	2.679914e+01	8.273265e+01
2.760000e-06	3.805004e-06	1.264677e-09	2.702823e+01	8.317705e+01
2.770000e-06	3.837048e-06	1.271466e-09	2.725584e+01	8.359553e+01
2.780000e-06	3.868965e-06	1.283640e-09	2.748256e+01	8.398911e+01
2.790000e-06	3.900750e-06	1.294572e-09	2.770834e+01	8.435899e+01
2.800000e-06	3.932314e-06	1.295449e-09	2.793255e+01	8.470651e+01
2.810000e-06	3.963590e-06	1.289530e-09	2.815471e+01	8.503309e+01
2.820000e-06	3.994618e-06	1.286303e-09	2.837512e+01	8.534015e+01
2.830000e-06	4.025349e-06	1.289616e-09	2.859341e+01	8.562909e+01
2.840000e-06	4.055717e-06	1.295336e-09	2.880912e+01	8.590119e+01
2.850000e-06	4.085775e-06	1.299414e-09	2.902263e+01	8.615759e+01
2.860000e-06	4.115605e-06	1.305549e-09	2.923452e+01	8.639926e+01
2.870000e-06	4.145229e-06	1.312006e-09	2.944495e+01	8.662696e+01
2.880000e-06	4.174552e-06	1.314305e-09	2.965325e+01	8.684125e+01
2.890000e-06	4.203592e-06	1.309673e-09	2.985952e+01	8.704248e+01
2.900000e-06	4.232323e-06	1.307425e-09	3.006361e+01	8.723087e+01
