# Temperatura_=_-2.42
# Concentracion g/m^3_=_4090.0
# C_Vs_to_Am_M_A/Vsm_=_65563218390.804596
# pendiente_HvsI_1/m_=_3716.3
# ordenada_HvsI_A/m_=_1297.0
# frecuencia_Hz_=_135066.45472509344

Tiempo_(s)	Campo_(V.s)	Magnetizacion_(V.s)	Campo_(kA/m)	Magnetizacion_(A/m)
0.000000e+00	-5.417019e-06	-1.842092e-09	-3.839348e+01	-1.239891e+02
1.000000e-08	-5.417076e-06	-1.838562e-09	-3.839388e+01	-1.238280e+02
2.000000e-08	-5.416915e-06	-1.837960e-09	-3.839275e+01	-1.236534e+02
3.000000e-08	-5.416449e-06	-1.838359e-09	-3.838944e+01	-1.234665e+02
4.000000e-08	-5.415661e-06	-1.840610e-09	-3.838386e+01	-1.232692e+02
5.000000e-08	-5.414236e-06	-1.847646e-09	-3.837376e+01	-1.230640e+02
6.000000e-08	-5.412018e-06	-1.855877e-09	-3.835803e+01	-1.228536e+02
7.000000e-08	-5.409208e-06	-1.852824e-09	-3.833812e+01	-1.226413e+02
8.000000e-08	-5.405937e-06	-1.801799e-09	-3.831494e+01	-1.224303e+02
9.000000e-08	-5.402138e-06	-1.757904e-09	-3.828801e+01	-1.222245e+02
1.000000e-07	-5.397886e-06	-1.826053e-09	-3.825787e+01	-1.220273e+02
1.100000e-07	-5.393447e-06	-1.939258e-09	-3.822642e+01	-1.218425e+02
1.200000e-07	-5.388840e-06	-1.841694e-09	-3.819376e+01	-1.216732e+02
1.300000e-07	-5.383951e-06	-1.747258e-09	-3.815911e+01	-1.215226e+02
1.400000e-07	-5.378651e-06	-1.818914e-09	-3.812154e+01	-1.213931e+02
1.500000e-07	-5.372976e-06	-1.965608e-09	-3.808133e+01	-1.212866e+02
1.600000e-07	-5.366947e-06	-1.842076e-09	-3.803859e+01	-1.212043e+02
1.700000e-07	-5.360526e-06	-1.658813e-09	-3.799308e+01	-1.211469e+02
1.800000e-07	-5.353652e-06	-1.775734e-09	-3.794437e+01	-1.211140e+02
1.900000e-07	-5.346349e-06	-1.935512e-09	-3.789260e+01	-1.211046e+02
2.000000e-07	-5.338788e-06	-1.875755e-09	-3.783901e+01	-1.211168e+02
2.100000e-07	-5.331046e-06	-1.748536e-09	-3.778414e+01	-1.211483e+02
2.200000e-07	-5.323103e-06	-1.873790e-09	-3.772785e+01	-1.211958e+02
2.300000e-07	-5.314804e-06	-1.933158e-09	-3.766902e+01	-1.212557e+02
2.400000e-07	-5.306038e-06	-1.838389e-09	-3.760690e+01	-1.213239e+02
2.500000e-07	-5.296739e-06	-1.804773e-09	-3.754099e+01	-1.213962e+02
2.600000e-07	-5.286874e-06	-1.949595e-09	-3.747107e+01	-1.214681e+02
2.700000e-07	-5.276368e-06	-1.939845e-09	-3.739661e+01	-1.215352e+02
2.800000e-07	-5.265278e-06	-1.842964e-09	-3.731801e+01	-1.215933e+02
2.900000e-07	-5.253685e-06	-1.893182e-09	-3.723584e+01	-1.216386e+02
3.000000e-07	-5.241699e-06	-1.979674e-09	-3.715089e+01	-1.216677e+02
3.100000e-07	-5.229414e-06	-1.868308e-09	-3.706382e+01	-1.216775e+02
3.200000e-07	-5.216796e-06	-1.815354e-09	-3.697438e+01	-1.216659e+02
3.300000e-07	-5.203780e-06	-1.921580e-09	-3.688214e+01	-1.216312e+02
3.400000e-07	-5.190348e-06	-1.941837e-09	-3.678694e+01	-1.215726e+02
3.500000e-07	-5.176535e-06	-1.861179e-09	-3.668904e+01	-1.214898e+02
3.600000e-07	-5.162303e-06	-1.888887e-09	-3.658816e+01	-1.213833e+02
3.700000e-07	-5.147475e-06	-1.919620e-09	-3.648307e+01	-1.212541e+02
3.800000e-07	-5.132101e-06	-1.851616e-09	-3.637411e+01	-1.211037e+02
3.900000e-07	-5.116277e-06	-1.852629e-09	-3.626195e+01	-1.209339e+02
4.000000e-07	-5.099845e-06	-1.901791e-09	-3.614549e+01	-1.207471e+02
4.100000e-07	-5.082980e-06	-1.872575e-09	-3.602596e+01	-1.205457e+02
4.200000e-07	-5.065941e-06	-1.850858e-09	-3.590520e+01	-1.203320e+02
4.300000e-07	-5.048610e-06	-1.923655e-09	-3.578236e+01	-1.201086e+02
4.400000e-07	-5.030959e-06	-1.904321e-09	-3.565726e+01	-1.198776e+02
4.500000e-07	-5.013020e-06	-1.830322e-09	-3.553011e+01	-1.196412e+02
4.600000e-07	-4.994705e-06	-1.826217e-09	-3.540030e+01	-1.194010e+02
4.700000e-07	-4.975995e-06	-1.868060e-09	-3.526770e+01	-1.191585e+02
4.800000e-07	-4.956882e-06	-1.840424e-09	-3.513223e+01	-1.189146e+02
4.900000e-07	-4.937393e-06	-1.836264e-09	-3.499410e+01	-1.186700e+02
5.000000e-07	-4.917600e-06	-1.844831e-09	-3.485381e+01	-1.184248e+02
5.100000e-07	-4.897665e-06	-1.857851e-09	-3.471253e+01	-1.181792e+02
5.200000e-07	-4.877567e-06	-1.855100e-09	-3.457008e+01	-1.179328e+02
5.300000e-07	-4.857171e-06	-1.843335e-09	-3.442552e+01	-1.176849e+02
5.400000e-07	-4.836464e-06	-1.798827e-09	-3.427876e+01	-1.174351e+02
5.500000e-07	-4.815431e-06	-1.805367e-09	-3.412969e+01	-1.171825e+02
5.600000e-07	-4.794004e-06	-1.827283e-09	-3.397782e+01	-1.169265e+02
5.700000e-07	-4.772178e-06	-1.817956e-09	-3.382313e+01	-1.166664e+02
5.800000e-07	-4.750006e-06	-1.794812e-09	-3.366598e+01	-1.164018e+02
5.900000e-07	-4.727534e-06	-1.809075e-09	-3.350671e+01	-1.161324e+02
6.000000e-07	-4.704766e-06	-1.818617e-09	-3.334534e+01	-1.158582e+02
6.100000e-07	-4.681683e-06	-1.813826e-09	-3.318174e+01	-1.155792e+02
6.200000e-07	-4.658292e-06	-1.789587e-09	-3.301595e+01	-1.152958e+02
6.300000e-07	-4.634670e-06	-1.766917e-09	-3.284853e+01	-1.150088e+02
6.400000e-07	-4.610842e-06	-1.775769e-09	-3.267965e+01	-1.147187e+02
6.500000e-07	-4.586765e-06	-1.793648e-09	-3.250900e+01	-1.144265e+02
6.600000e-07	-4.562474e-06	-1.776808e-09	-3.233684e+01	-1.141331e+02
6.700000e-07	-4.537850e-06	-1.756536e-09	-3.216232e+01	-1.138395e+02
6.800000e-07	-4.512690e-06	-1.772287e-09	-3.198399e+01	-1.135467e+02
6.900000e-07	-4.486936e-06	-1.781457e-09	-3.180146e+01	-1.132553e+02
7.000000e-07	-4.460617e-06	-1.765393e-09	-3.161492e+01	-1.129662e+02
7.100000e-07	-4.433883e-06	-1.742137e-09	-3.142544e+01	-1.126796e+02
7.200000e-07	-4.406814e-06	-1.741044e-09	-3.123359e+01	-1.123958e+02
7.300000e-07	-4.379342e-06	-1.746374e-09	-3.103888e+01	-1.121148e+02
7.400000e-07	-4.351554e-06	-1.746700e-09	-3.084193e+01	-1.118362e+02
7.500000e-07	-4.323600e-06	-1.727088e-09	-3.064380e+01	-1.115595e+02
7.600000e-07	-4.295464e-06	-1.726207e-09	-3.044438e+01	-1.112839e+02
7.700000e-07	-4.267105e-06	-1.738586e-09	-3.024339e+01	-1.110085e+02
7.800000e-07	-4.238492e-06	-1.743774e-09	-3.004060e+01	-1.107322e+02
7.900000e-07	-4.209575e-06	-1.722080e-09	-2.983564e+01	-1.104538e+02
8.000000e-07	-4.180372e-06	-1.711321e-09	-2.962867e+01	-1.101723e+02
8.100000e-07	-4.150900e-06	-1.707909e-09	-2.941978e+01	-1.098864e+02
8.200000e-07	-4.121166e-06	-1.709379e-09	-2.920904e+01	-1.095951e+02
8.300000e-07	-4.091121e-06	-1.696415e-09	-2.899609e+01	-1.092976e+02
8.400000e-07	-4.060783e-06	-1.685858e-09	-2.878107e+01	-1.089933e+02
8.500000e-07	-4.030181e-06	-1.685880e-09	-2.856418e+01	-1.086816e+02
8.600000e-07	-3.999310e-06	-1.696851e-09	-2.834538e+01	-1.083624e+02
8.700000e-07	-3.968218e-06	-1.690963e-09	-2.812501e+01	-1.080357e+02
8.800000e-07	-3.936830e-06	-1.675185e-09	-2.790255e+01	-1.077018e+02
8.900000e-07	-3.905165e-06	-1.663983e-09	-2.767812e+01	-1.073613e+02
9.000000e-07	-3.873370e-06	-1.661523e-09	-2.745277e+01	-1.070147e+02
9.100000e-07	-3.841455e-06	-1.651564e-09	-2.722657e+01	-1.066630e+02
9.200000e-07	-3.809275e-06	-1.637988e-09	-2.699849e+01	-1.063070e+02
9.300000e-07	-3.776858e-06	-1.635460e-09	-2.676873e+01	-1.059478e+02
9.400000e-07	-3.744200e-06	-1.646210e-09	-2.653726e+01	-1.055861e+02
9.500000e-07	-3.711161e-06	-1.650903e-09	-2.630310e+01	-1.052229e+02
9.600000e-07	-3.677740e-06	-1.639064e-09	-2.606623e+01	-1.048590e+02
9.700000e-07	-3.643841e-06	-1.624332e-09	-2.582597e+01	-1.044948e+02
9.800000e-07	-3.609392e-06	-1.615577e-09	-2.558180e+01	-1.041309e+02
9.900000e-07	-3.574553e-06	-1.609582e-09	-2.533488e+01	-1.037675e+02
1.000000e-06	-3.539381e-06	-1.598674e-09	-2.508560e+01	-1.034045e+02
1.010000e-06	-3.503946e-06	-1.592464e-09	-2.483445e+01	-1.030418e+02
1.020000e-06	-3.468385e-06	-1.592892e-09	-2.458241e+01	-1.026791e+02
1.030000e-06	-3.432643e-06	-1.595864e-09	-2.432909e+01	-1.023160e+02
1.040000e-06	-3.396736e-06	-1.586624e-09	-2.407459e+01	-1.019518e+02
1.050000e-06	-3.360727e-06	-1.574405e-09	-2.381937e+01	-1.015859e+02
1.060000e-06	-3.324550e-06	-1.563062e-09	-2.356297e+01	-1.012176e+02
1.070000e-06	-3.288157e-06	-1.557670e-09	-2.330503e+01	-1.008464e+02
1.080000e-06	-3.251527e-06	-1.549995e-09	-2.304542e+01	-1.004718e+02
1.090000e-06	-3.214636e-06	-1.544686e-09	-2.278395e+01	-1.000931e+02
1.100000e-06	-3.177472e-06	-1.540364e-09	-2.252054e+01	-9.971016e+01
1.110000e-06	-3.140093e-06	-1.541843e-09	-2.225562e+01	-9.932274e+01
1.120000e-06	-3.102549e-06	-1.536954e-09	-2.198952e+01	-9.893080e+01
1.130000e-06	-3.064833e-06	-1.525427e-09	-2.172221e+01	-9.853444e+01
1.140000e-06	-3.026865e-06	-1.512171e-09	-2.145311e+01	-9.813389e+01
1.150000e-06	-2.988674e-06	-1.506583e-09	-2.118243e+01	-9.772945e+01
1.160000e-06	-2.950293e-06	-1.501328e-09	-2.091040e+01	-9.732153e+01
1.170000e-06	-2.911582e-06	-1.495095e-09	-2.063603e+01	-9.691054e+01
1.180000e-06	-2.872637e-06	-1.487034e-09	-2.036001e+01	-9.649686e+01
1.190000e-06	-2.833488e-06	-1.482309e-09	-2.008253e+01	-9.608086e+01
1.200000e-06	-2.794153e-06	-1.479875e-09	-1.980375e+01	-9.566277e+01
1.210000e-06	-2.754644e-06	-1.475749e-09	-1.952372e+01	-9.524271e+01
1.220000e-06	-2.714953e-06	-1.467183e-09	-1.924241e+01	-9.482064e+01
1.230000e-06	-2.675173e-06	-1.458491e-09	-1.896047e+01	-9.439635e+01
1.240000e-06	-2.635274e-06	-1.451143e-09	-1.867768e+01	-9.396945e+01
1.250000e-06	-2.595302e-06	-1.443658e-09	-1.839438e+01	-9.353938e+01
1.260000e-06	-2.555228e-06	-1.437136e-09	-1.811035e+01	-9.310540e+01
1.270000e-06	-2.515045e-06	-1.430978e-09	-1.782555e+01	-9.266665e+01
1.280000e-06	-2.474822e-06	-1.429928e-09	-1.754046e+01	-9.222219e+01
1.290000e-06	-2.434519e-06	-1.427299e-09	-1.725481e+01	-9.177098e+01
1.300000e-06	-2.394020e-06	-1.417630e-09	-1.696777e+01	-9.131203e+01
1.310000e-06	-2.353294e-06	-1.400922e-09	-1.667912e+01	-9.084434e+01
1.320000e-06	-2.312332e-06	-1.389768e-09	-1.638881e+01	-9.036703e+01
1.330000e-06	-2.271029e-06	-1.384521e-09	-1.609607e+01	-8.987935e+01
1.340000e-06	-2.229426e-06	-1.381246e-09	-1.580120e+01	-8.938071e+01
1.350000e-06	-2.187578e-06	-1.376513e-09	-1.550460e+01	-8.887074e+01
1.360000e-06	-2.145380e-06	-1.371199e-09	-1.520553e+01	-8.834929e+01
1.370000e-06	-2.102851e-06	-1.363189e-09	-1.490410e+01	-8.781644e+01
1.380000e-06	-2.060142e-06	-1.352361e-09	-1.460139e+01	-8.727250e+01
1.390000e-06	-2.017252e-06	-1.337704e-09	-1.429741e+01	-8.671798e+01
1.400000e-06	-1.974082e-06	-1.324789e-09	-1.399144e+01	-8.615359e+01
1.410000e-06	-1.930672e-06	-1.316033e-09	-1.368376e+01	-8.558018e+01
1.420000e-06	-1.887161e-06	-1.312883e-09	-1.337538e+01	-8.499870e+01
1.430000e-06	-1.843565e-06	-1.310948e-09	-1.306639e+01	-8.441015e+01
1.440000e-06	-1.799815e-06	-1.306756e-09	-1.275631e+01	-8.381555e+01
1.450000e-06	-1.756002e-06	-1.297662e-09	-1.244578e+01	-8.321582e+01
1.460000e-06	-1.712161e-06	-1.287342e-09	-1.213505e+01	-8.261182e+01
1.470000e-06	-1.668241e-06	-1.276228e-09	-1.182377e+01	-8.200424e+01
1.480000e-06	-1.624259e-06	-1.265090e-09	-1.151205e+01	-8.139358e+01
1.490000e-06	-1.580175e-06	-1.254734e-09	-1.119959e+01	-8.078016e+01
1.500000e-06	-1.535955e-06	-1.245753e-09	-1.088619e+01	-8.016404e+01
1.510000e-06	-1.491666e-06	-1.239765e-09	-1.057228e+01	-7.954507e+01
1.520000e-06	-1.447358e-06	-1.233747e-09	-1.025825e+01	-7.892287e+01
1.530000e-06	-1.403064e-06	-1.223318e-09	-9.944306e+00	-7.829689e+01
1.540000e-06	-1.358711e-06	-1.208960e-09	-9.629951e+00	-7.766637e+01
1.550000e-06	-1.314221e-06	-1.194028e-09	-9.314630e+00	-7.703044e+01
1.560000e-06	-1.269655e-06	-1.183013e-09	-8.998764e+00	-7.638815e+01
1.570000e-06	-1.225005e-06	-1.176370e-09	-8.682301e+00	-7.573848e+01
1.580000e-06	-1.180263e-06	-1.170554e-09	-8.365190e+00	-7.508043e+01
1.590000e-06	-1.135458e-06	-1.163519e-09	-8.047636e+00	-7.441304e+01
1.600000e-06	-1.090583e-06	-1.153773e-09	-7.729579e+00	-7.373544e+01
1.610000e-06	-1.045594e-06	-1.140897e-09	-7.410720e+00	-7.304685e+01
1.620000e-06	-1.000512e-06	-1.125870e-09	-7.091194e+00	-7.234665e+01
1.630000e-06	-9.553296e-07	-1.110749e-09	-6.770962e+00	-7.163436e+01
1.640000e-06	-9.100415e-07	-1.095572e-09	-6.449979e+00	-7.090964e+01
1.650000e-06	-8.647143e-07	-1.084142e-09	-6.128720e+00	-7.017230e+01
1.660000e-06	-8.193231e-07	-1.077014e-09	-5.807007e+00	-6.942225e+01
1.670000e-06	-7.738198e-07	-1.070778e-09	-5.484499e+00	-6.865950e+01
1.680000e-06	-7.281888e-07	-1.060185e-09	-5.161086e+00	-6.788414e+01
1.690000e-06	-6.825445e-07	-1.045654e-09	-4.837579e+00	-6.709624e+01
1.700000e-06	-6.368683e-07	-1.029443e-09	-4.513846e+00	-6.629587e+01
1.710000e-06	-5.911262e-07	-1.014443e-09	-4.189646e+00	-6.548304e+01
1.720000e-06	-5.453924e-07	-9.997643e-10	-3.865505e+00	-6.465767e+01
1.730000e-06	-4.996837e-07	-9.862090e-10	-3.541541e+00	-6.381954e+01
1.740000e-06	-4.539970e-07	-9.747444e-10	-3.217734e+00	-6.296829e+01
1.750000e-06	-4.081752e-07	-9.666664e-10	-2.892969e+00	-6.210338e+01
1.760000e-06	-3.622500e-07	-9.552854e-10	-2.567471e+00	-6.122415e+01
1.770000e-06	-3.163545e-07	-9.379130e-10	-2.242183e+00	-6.032973e+01
1.780000e-06	-2.704167e-07	-9.202488e-10	-1.916597e+00	-5.941913e+01
1.790000e-06	-2.244399e-07	-9.060387e-10	-1.590733e+00	-5.849127e+01
1.800000e-06	-1.785293e-07	-8.909049e-10	-1.265338e+00	-5.754494e+01
1.810000e-06	-1.326686e-07	-8.732187e-10	-9.402975e-01	-5.657893e+01
1.820000e-06	-8.679762e-08	-8.560955e-10	-6.151839e-01	-5.559201e+01
1.830000e-06	-4.091525e-08	-8.417695e-10	-2.899896e-01	-5.458300e+01
1.840000e-06	4.974611e-09	-8.261483e-10	3.525788e-02	-5.355083e+01
1.850000e-06	5.088778e-08	-8.086761e-10	3.606705e-01	-5.249451e+01
1.860000e-06	9.683365e-08	-7.923650e-10	6.863150e-01	-5.141325e+01
1.870000e-06	1.427597e-07	-7.789006e-10	1.011819e+00	-5.030641e+01
1.880000e-06	1.886115e-07	-7.659278e-10	1.336797e+00	-4.917358e+01
1.890000e-06	2.344625e-07	-7.454397e-10	1.661769e+00	-4.801450e+01
1.900000e-06	2.803168e-07	-7.209543e-10	1.986764e+00	-4.682914e+01
1.910000e-06	3.261441e-07	-6.992661e-10	2.311568e+00	-4.561762e+01
1.920000e-06	3.720418e-07	-6.814286e-10	2.636871e+00	-4.438018e+01
1.930000e-06	4.179586e-07	-6.614251e-10	2.962309e+00	-4.311720e+01
1.940000e-06	4.637718e-07	-6.396786e-10	3.287014e+00	-4.182911e+01
1.950000e-06	5.094979e-07	-6.190801e-10	3.611100e+00	-4.051633e+01
1.960000e-06	5.551829e-07	-5.996367e-10	3.934895e+00	-3.917928e+01
1.970000e-06	6.007899e-07	-5.759029e-10	4.258139e+00	-3.781829e+01
1.980000e-06	6.463197e-07	-5.484659e-10	4.580834e+00	-3.643357e+01
1.990000e-06	6.917760e-07	-5.246410e-10	4.903008e+00	-3.502518e+01
2.000000e-06	7.372476e-07	-5.063623e-10	5.225291e+00	-3.359300e+01
2.010000e-06	7.827372e-07	-4.883585e-10	5.547702e+00	-3.213671e+01
2.020000e-06	8.281146e-07	-4.673439e-10	5.869317e+00	-3.065581e+01
2.030000e-06	8.734195e-07	-4.436806e-10	6.190419e+00	-2.914961e+01
2.040000e-06	9.187318e-07	-4.210896e-10	6.511573e+00	-2.761725e+01
2.050000e-06	9.639825e-07	-3.982394e-10	6.832290e+00	-2.605771e+01
2.060000e-06	1.009135e-06	-3.704962e-10	7.152314e+00	-2.446990e+01
2.070000e-06	1.054175e-06	-3.406384e-10	7.471536e+00	-2.285268e+01
2.080000e-06	1.099108e-06	-3.164550e-10	7.790002e+00	-2.120489e+01
2.090000e-06	1.143971e-06	-2.972485e-10	8.107968e+00	-1.952546e+01
2.100000e-06	1.188697e-06	-2.738815e-10	8.424966e+00	-1.781340e+01
2.110000e-06	1.233315e-06	-2.429769e-10	8.741200e+00	-1.606792e+01
2.120000e-06	1.277838e-06	-2.108156e-10	9.056759e+00	-1.428842e+01
2.130000e-06	1.322265e-06	-1.832362e-10	9.371638e+00	-1.247456e+01
2.140000e-06	1.366641e-06	-1.566180e-10	9.686159e+00	-1.062629e+01
2.150000e-06	1.410986e-06	-1.290268e-10	1.000045e+01	-8.743878e+00
2.160000e-06	1.455328e-06	-1.041210e-10	1.031473e+01	-6.827901e+00
2.170000e-06	1.499597e-06	-8.167643e-11	1.062849e+01	-4.879257e+00
2.180000e-06	1.543726e-06	-5.742290e-11	1.094126e+01	-2.899154e+00
2.190000e-06	1.587773e-06	-2.806631e-11	1.125345e+01	-8.890851e-01
2.200000e-06	1.631794e-06	6.541394e-12	1.156545e+01	1.149199e+00
2.210000e-06	1.675802e-06	4.081440e-11	1.187736e+01	3.213727e+00
2.220000e-06	1.719730e-06	7.362518e-11	1.218870e+01	5.302346e+00
2.230000e-06	1.763578e-06	1.084018e-10	1.249947e+01	7.412771e+00
2.240000e-06	1.807354e-06	1.438661e-10	1.280974e+01	9.542621e+00
2.250000e-06	1.851026e-06	1.732344e-10	1.311927e+01	1.168947e+01
2.260000e-06	1.894610e-06	1.995889e-10	1.342817e+01	1.385088e+01
2.270000e-06	1.938095e-06	2.302437e-10	1.373638e+01	1.602443e+01
2.280000e-06	1.981498e-06	2.672542e-10	1.404400e+01	1.820776e+01
2.290000e-06	2.024698e-06	3.046576e-10	1.435018e+01	2.039858e+01
2.300000e-06	2.067606e-06	3.382898e-10	1.465429e+01	2.259467e+01
2.310000e-06	2.110323e-06	3.720733e-10	1.495705e+01	2.479392e+01
2.320000e-06	2.152745e-06	4.083589e-10	1.525773e+01	2.699430e+01
2.330000e-06	2.194833e-06	4.423442e-10	1.555603e+01	2.919385e+01
2.340000e-06	2.236646e-06	4.713817e-10	1.585238e+01	3.139069e+01
2.350000e-06	2.278099e-06	5.002005e-10	1.614618e+01	3.358299e+01
2.360000e-06	2.319214e-06	5.328015e-10	1.643758e+01	3.576896e+01
2.370000e-06	2.360083e-06	5.667401e-10	1.672724e+01	3.794682e+01
2.380000e-06	2.400770e-06	5.971371e-10	1.701562e+01	4.011481e+01
2.390000e-06	2.441266e-06	6.272785e-10	1.730263e+01	4.227115e+01
2.400000e-06	2.481617e-06	6.609393e-10	1.758863e+01	4.441404e+01
2.410000e-06	2.521878e-06	6.966298e-10	1.787398e+01	4.654167e+01
2.420000e-06	2.562017e-06	7.329821e-10	1.815846e+01	4.865218e+01
2.430000e-06	2.602022e-06	7.689092e-10	1.844201e+01	5.074373e+01
2.440000e-06	2.641916e-06	8.014569e-10	1.872475e+01	5.281444e+01
2.450000e-06	2.681745e-06	8.295543e-10	1.900705e+01	5.486247e+01
2.460000e-06	2.721438e-06	8.551550e-10	1.928837e+01	5.688599e+01
2.470000e-06	2.760917e-06	8.791542e-10	1.956818e+01	5.888321e+01
2.480000e-06	2.800253e-06	9.063847e-10	1.984698e+01	6.085244e+01
2.490000e-06	2.839403e-06	9.375097e-10	2.012446e+01	6.279206e+01
2.500000e-06	2.878271e-06	9.702952e-10	2.039994e+01	6.470057e+01
2.510000e-06	2.916863e-06	1.004832e-09	2.067346e+01	6.657663e+01
2.520000e-06	2.955236e-06	1.040018e-09	2.094543e+01	6.841902e+01
2.530000e-06	2.993461e-06	1.071032e-09	2.121635e+01	7.022670e+01
2.540000e-06	3.031527e-06	1.094245e-09	2.148615e+01	7.199882e+01
2.550000e-06	3.069414e-06	1.111982e-09	2.175467e+01	7.373467e+01
2.560000e-06	3.107106e-06	1.129605e-09	2.202182e+01	7.543374e+01
2.570000e-06	3.144579e-06	1.152422e-09	2.228742e+01	7.709568e+01
2.580000e-06	3.181860e-06	1.178794e-09	2.255164e+01	7.872031e+01
2.590000e-06	3.218885e-06	1.207458e-09	2.281406e+01	8.030756e+01
2.600000e-06	3.255615e-06	1.238649e-09	2.307439e+01	8.185753e+01
2.610000e-06	3.292124e-06	1.271523e-09	2.333315e+01	8.337039e+01
2.620000e-06	3.328459e-06	1.299033e-09	2.359068e+01	8.484642e+01
2.630000e-06	3.364644e-06	1.318104e-09	2.384714e+01	8.628597e+01
2.640000e-06	3.400697e-06	1.333189e-09	2.410266e+01	8.768942e+01
2.650000e-06	3.436592e-06	1.346675e-09	2.435707e+01	8.905722e+01
2.660000e-06	3.472282e-06	1.360936e-09	2.461003e+01	9.038981e+01
2.670000e-06	3.507778e-06	1.377911e-09	2.486161e+01	9.168764e+01
2.680000e-06	3.543042e-06	1.399286e-09	2.511154e+01	9.295118e+01
2.690000e-06	3.577931e-06	1.423702e-09	2.535882e+01	9.418086e+01
2.700000e-06	3.612501e-06	1.449869e-09	2.560384e+01	9.537713e+01
2.710000e-06	3.646764e-06	1.472936e-09	2.584668e+01	9.654039e+01
2.720000e-06	3.680549e-06	1.491792e-09	2.608613e+01	9.767105e+01
2.730000e-06	3.713875e-06	1.507661e-09	2.632234e+01	9.876949e+01
2.740000e-06	3.746805e-06	1.517214e-09	2.655573e+01	9.983609e+01
2.750000e-06	3.779350e-06	1.523301e-09	2.678640e+01	1.008712e+02
2.760000e-06	3.811639e-06	1.532162e-09	2.701525e+01	1.018752e+02
2.770000e-06	3.843761e-06	1.547564e-09	2.724291e+01	1.028484e+02
2.780000e-06	3.875741e-06	1.568458e-09	2.746958e+01	1.037912e+02
2.790000e-06	3.907609e-06	1.587500e-09	2.769544e+01	1.047040e+02
2.800000e-06	3.939357e-06	1.600538e-09	2.792045e+01	1.055870e+02
2.810000e-06	3.970861e-06	1.609604e-09	2.814374e+01	1.064406e+02
2.820000e-06	4.002026e-06	1.617961e-09	2.836462e+01	1.072652e+02
2.830000e-06	4.032885e-06	1.626230e-09	2.858334e+01	1.080612e+02
2.840000e-06	4.063333e-06	1.633342e-09	2.879915e+01	1.088289e+02
2.850000e-06	4.093462e-06	1.642788e-09	2.901269e+01	1.095688e+02
2.860000e-06	4.123425e-06	1.656699e-09	2.922505e+01	1.102811e+02
2.870000e-06	4.153144e-06	1.672640e-09	2.943568e+01	1.109664e+02
2.880000e-06	4.182514e-06	1.686719e-09	2.964384e+01	1.116251e+02
2.890000e-06	4.211562e-06	1.695500e-09	2.984973e+01	1.122577e+02
2.900000e-06	4.240328e-06	1.700797e-09	3.005361e+01	1.128647e+02
