# Temperatura_=_12.55
# Concentracion g/m^3_=_4090.0
# C_Vs_to_Am_M_A/Vsm_=_65563218390.804596
# pendiente_HvsI_1/m_=_3716.3
# ordenada_HvsI_A/m_=_1297.0
# frecuencia_Hz_=_135086.32126517667

Tiempo_(s)	Campo_(V.s)	Magnetizacion_(V.s)	Campo_(kA/m)	Magnetizacion_(A/m)
0.000000e+00	-5.411037e-06	-1.180578e-09	-3.838540e+01	-8.229994e+01
1.000000e-08	-5.411287e-06	-1.181022e-09	-3.838717e+01	-8.215246e+01
2.000000e-08	-5.411336e-06	-1.183119e-09	-3.838752e+01	-8.199111e+01
3.000000e-08	-5.411226e-06	-1.181703e-09	-3.838674e+01	-8.181713e+01
4.000000e-08	-5.410774e-06	-1.177154e-09	-3.838353e+01	-8.163241e+01
5.000000e-08	-5.409815e-06	-1.171433e-09	-3.837673e+01	-8.143952e+01
6.000000e-08	-5.408330e-06	-1.164777e-09	-3.836619e+01	-8.124161e+01
7.000000e-08	-5.406214e-06	-1.161863e-09	-3.835118e+01	-8.104240e+01
8.000000e-08	-5.403416e-06	-1.166834e-09	-3.833133e+01	-8.084602e+01
9.000000e-08	-5.399965e-06	-1.167211e-09	-3.830685e+01	-8.065695e+01
1.000000e-07	-5.395979e-06	-1.175749e-09	-3.827858e+01	-8.047981e+01
1.100000e-07	-5.391647e-06	-1.232089e-09	-3.824785e+01	-8.031923e+01
1.200000e-07	-5.387167e-06	-1.193139e-09	-3.821606e+01	-8.017969e+01
1.300000e-07	-5.382594e-06	-1.165627e-09	-3.818362e+01	-8.006532e+01
1.400000e-07	-5.377637e-06	-1.137864e-09	-3.814846e+01	-7.997971e+01
1.500000e-07	-5.372207e-06	-1.210343e-09	-3.810994e+01	-7.992581e+01
1.600000e-07	-5.366419e-06	-1.208793e-09	-3.806888e+01	-7.990574e+01
1.700000e-07	-5.360294e-06	-1.128055e-09	-3.802543e+01	-7.992070e+01
1.800000e-07	-5.353681e-06	-1.138600e-09	-3.797852e+01	-7.997091e+01
1.900000e-07	-5.346678e-06	-1.225576e-09	-3.792884e+01	-8.005552e+01
2.000000e-07	-5.339375e-06	-1.266666e-09	-3.787703e+01	-8.017267e+01
2.100000e-07	-5.331854e-06	-1.194267e-09	-3.782368e+01	-8.031948e+01
2.200000e-07	-5.324142e-06	-1.211681e-09	-3.776897e+01	-8.049217e+01
2.300000e-07	-5.316115e-06	-1.257742e-09	-3.771203e+01	-8.068613e+01
2.400000e-07	-5.307851e-06	-1.268001e-09	-3.765341e+01	-8.089613e+01
2.500000e-07	-5.299165e-06	-1.229846e-09	-3.759178e+01	-8.111645e+01
2.600000e-07	-5.289839e-06	-1.290240e-09	-3.752563e+01	-8.134109e+01
2.700000e-07	-5.279806e-06	-1.307529e-09	-3.745445e+01	-8.156398e+01
2.800000e-07	-5.269269e-06	-1.286420e-09	-3.737970e+01	-8.177919e+01
2.900000e-07	-5.258272e-06	-1.266034e-09	-3.730170e+01	-8.198114e+01
3.000000e-07	-5.246775e-06	-1.294619e-09	-3.722014e+01	-8.216475e+01
3.100000e-07	-5.234893e-06	-1.271784e-09	-3.713585e+01	-8.232564e+01
3.200000e-07	-5.222636e-06	-1.254459e-09	-3.704890e+01	-8.246026e+01
3.300000e-07	-5.209997e-06	-1.289699e-09	-3.695923e+01	-8.256596e+01
3.400000e-07	-5.196839e-06	-1.323742e-09	-3.686590e+01	-8.264105e+01
3.500000e-07	-5.183235e-06	-1.284561e-09	-3.676939e+01	-8.268483e+01
3.600000e-07	-5.169422e-06	-1.284121e-09	-3.667140e+01	-8.269754e+01
3.700000e-07	-5.155211e-06	-1.303706e-09	-3.657059e+01	-8.268032e+01
3.800000e-07	-5.140494e-06	-1.285699e-09	-3.646619e+01	-8.263506e+01
3.900000e-07	-5.125148e-06	-1.242458e-09	-3.635732e+01	-8.256432e+01
4.000000e-07	-5.109038e-06	-1.267713e-09	-3.624305e+01	-8.247113e+01
4.100000e-07	-5.092509e-06	-1.289079e-09	-3.612578e+01	-8.235884e+01
4.200000e-07	-5.075686e-06	-1.273153e-09	-3.600645e+01	-8.223096e+01
4.300000e-07	-5.058548e-06	-1.285364e-09	-3.588487e+01	-8.209093e+01
4.400000e-07	-5.041136e-06	-1.296221e-09	-3.576136e+01	-8.194204e+01
4.500000e-07	-5.023549e-06	-1.279538e-09	-3.563659e+01	-8.178720e+01
4.600000e-07	-5.005727e-06	-1.248248e-09	-3.551017e+01	-8.162889e+01
4.700000e-07	-4.987551e-06	-1.263183e-09	-3.538122e+01	-8.146903e+01
4.800000e-07	-4.968991e-06	-1.254380e-09	-3.524956e+01	-8.130897e+01
4.900000e-07	-4.949973e-06	-1.250129e-09	-3.511465e+01	-8.114942e+01
5.000000e-07	-4.930519e-06	-1.250779e-09	-3.497664e+01	-8.099052e+01
5.100000e-07	-4.910796e-06	-1.269858e-09	-3.483673e+01	-8.083185e+01
5.200000e-07	-4.890889e-06	-1.251800e-09	-3.469551e+01	-8.067254e+01
5.300000e-07	-4.870833e-06	-1.249876e-09	-3.455324e+01	-8.051136e+01
5.400000e-07	-4.850520e-06	-1.243155e-09	-3.440914e+01	-8.034687e+01
5.500000e-07	-4.829782e-06	-1.247661e-09	-3.426203e+01	-8.017749e+01
5.600000e-07	-4.808609e-06	-1.236114e-09	-3.411183e+01	-8.000172e+01
5.700000e-07	-4.787032e-06	-1.244540e-09	-3.395876e+01	-7.981819e+01
5.800000e-07	-4.765225e-06	-1.236876e-09	-3.380407e+01	-7.962582e+01
5.900000e-07	-4.743240e-06	-1.228290e-09	-3.364810e+01	-7.942392e+01
6.000000e-07	-4.720926e-06	-1.215086e-09	-3.348981e+01	-7.921223e+01
6.100000e-07	-4.698219e-06	-1.220026e-09	-3.332873e+01	-7.899100e+01
6.200000e-07	-4.675106e-06	-1.212119e-09	-3.316477e+01	-7.876098e+01
6.300000e-07	-4.651639e-06	-1.206830e-09	-3.299829e+01	-7.852339e+01
6.400000e-07	-4.627906e-06	-1.210365e-09	-3.282993e+01	-7.827991e+01
6.500000e-07	-4.604036e-06	-1.219490e-09	-3.266061e+01	-7.803258e+01
6.600000e-07	-4.580023e-06	-1.211933e-09	-3.249026e+01	-7.778370e+01
6.700000e-07	-4.555748e-06	-1.204179e-09	-3.231805e+01	-7.753573e+01
6.800000e-07	-4.531139e-06	-1.200778e-09	-3.214348e+01	-7.729114e+01
6.900000e-07	-4.505998e-06	-1.193419e-09	-3.196513e+01	-7.705231e+01
7.000000e-07	-4.480231e-06	-1.184678e-09	-3.178234e+01	-7.682140e+01
7.100000e-07	-4.453948e-06	-1.176001e-09	-3.159589e+01	-7.660022e+01
7.200000e-07	-4.427183e-06	-1.174664e-09	-3.140603e+01	-7.639015e+01
7.300000e-07	-4.400032e-06	-1.174324e-09	-3.121342e+01	-7.619205e+01
7.400000e-07	-4.372571e-06	-1.179651e-09	-3.101861e+01	-7.600623e+01
7.500000e-07	-4.344869e-06	-1.172392e-09	-3.082210e+01	-7.583240e+01
7.600000e-07	-4.317015e-06	-1.168957e-09	-3.062450e+01	-7.566972e+01
7.700000e-07	-4.288966e-06	-1.165877e-09	-3.042553e+01	-7.551680e+01
7.800000e-07	-4.260691e-06	-1.170087e-09	-3.022494e+01	-7.537179e+01
7.900000e-07	-4.232111e-06	-1.162733e-09	-3.002221e+01	-7.523245e+01
8.000000e-07	-4.203199e-06	-1.160274e-09	-2.981711e+01	-7.509629e+01
8.100000e-07	-4.173992e-06	-1.154356e-09	-2.960991e+01	-7.496063e+01
8.200000e-07	-4.144522e-06	-1.156406e-09	-2.940086e+01	-7.482278e+01
8.300000e-07	-4.114757e-06	-1.151413e-09	-2.918971e+01	-7.468015e+01
8.400000e-07	-4.084749e-06	-1.147691e-09	-2.897683e+01	-7.453033e+01
8.500000e-07	-4.054546e-06	-1.141772e-09	-2.876258e+01	-7.437127e+01
8.600000e-07	-4.023984e-06	-1.147292e-09	-2.854577e+01	-7.420129e+01
8.700000e-07	-3.992995e-06	-1.146857e-09	-2.832594e+01	-7.401921e+01
8.800000e-07	-3.961737e-06	-1.144214e-09	-2.810420e+01	-7.382433e+01
8.900000e-07	-3.930350e-06	-1.135314e-09	-2.788154e+01	-7.361649e+01
9.000000e-07	-3.898803e-06	-1.130967e-09	-2.765775e+01	-7.339606e+01
9.100000e-07	-3.867072e-06	-1.124988e-09	-2.743265e+01	-7.316384e+01
9.200000e-07	-3.835193e-06	-1.120974e-09	-2.720650e+01	-7.292110e+01
9.300000e-07	-3.803062e-06	-1.116128e-09	-2.697857e+01	-7.266940e+01
9.400000e-07	-3.770681e-06	-1.120028e-09	-2.674886e+01	-7.241056e+01
9.500000e-07	-3.737966e-06	-1.126236e-09	-2.651678e+01	-7.214655e+01
9.600000e-07	-3.704835e-06	-1.127879e-09	-2.628176e+01	-7.187937e+01
9.700000e-07	-3.671424e-06	-1.121550e-09	-2.604474e+01	-7.161096e+01
9.800000e-07	-3.637588e-06	-1.111362e-09	-2.580471e+01	-7.134310e+01
9.900000e-07	-3.603294e-06	-1.103097e-09	-2.556143e+01	-7.107733e+01
1.000000e-06	-3.568596e-06	-1.095741e-09	-2.531529e+01	-7.081490e+01
1.010000e-06	-3.533447e-06	-1.092218e-09	-2.506595e+01	-7.055668e+01
1.020000e-06	-3.498016e-06	-1.092727e-09	-2.481460e+01	-7.030320e+01
1.030000e-06	-3.462387e-06	-1.098593e-09	-2.456185e+01	-7.005459e+01
1.040000e-06	-3.426659e-06	-1.100914e-09	-2.430840e+01	-6.981063e+01
1.050000e-06	-3.390880e-06	-1.098301e-09	-2.405459e+01	-6.957078e+01
1.060000e-06	-3.354896e-06	-1.088451e-09	-2.379932e+01	-6.933421e+01
1.070000e-06	-3.318721e-06	-1.078752e-09	-2.354270e+01	-6.909989e+01
1.080000e-06	-3.282424e-06	-1.064755e-09	-2.328521e+01	-6.886667e+01
1.090000e-06	-3.245876e-06	-1.055267e-09	-2.302594e+01	-6.863332e+01
1.100000e-06	-3.209044e-06	-1.051619e-09	-2.276466e+01	-6.839861e+01
1.110000e-06	-3.171978e-06	-1.057458e-09	-2.250171e+01	-6.816143e+01
1.120000e-06	-3.134585e-06	-1.060067e-09	-2.223646e+01	-6.792080e+01
1.130000e-06	-3.096995e-06	-1.060278e-09	-2.196979e+01	-6.767592e+01
1.140000e-06	-3.059221e-06	-1.053325e-09	-2.170183e+01	-6.742624e+01
1.150000e-06	-3.021203e-06	-1.047323e-09	-2.143214e+01	-6.717144e+01
1.160000e-06	-2.983063e-06	-1.040152e-09	-2.116157e+01	-6.691147e+01
1.170000e-06	-2.944705e-06	-1.034111e-09	-2.088946e+01	-6.664650e+01
1.180000e-06	-2.906095e-06	-1.027370e-09	-2.061557e+01	-6.637693e+01
1.190000e-06	-2.867267e-06	-1.025183e-09	-2.034013e+01	-6.610331e+01
1.200000e-06	-2.828149e-06	-1.025135e-09	-2.006263e+01	-6.582635e+01
1.210000e-06	-2.788705e-06	-1.027097e-09	-1.978281e+01	-6.554681e+01
1.220000e-06	-2.749150e-06	-1.024929e-09	-1.950222e+01	-6.526548e+01
1.230000e-06	-2.709567e-06	-1.020927e-09	-1.922142e+01	-6.498312e+01
1.240000e-06	-2.669832e-06	-1.015373e-09	-1.893954e+01	-6.470042e+01
1.250000e-06	-2.630002e-06	-1.007059e-09	-1.865699e+01	-6.441792e+01
1.260000e-06	-2.590110e-06	-9.968352e-10	-1.837400e+01	-6.413604e+01
1.270000e-06	-2.550131e-06	-9.876526e-10	-1.809039e+01	-6.385500e+01
1.280000e-06	-2.510020e-06	-9.819689e-10	-1.780585e+01	-6.357485e+01
1.290000e-06	-2.469830e-06	-9.799956e-10	-1.752074e+01	-6.329545e+01
1.300000e-06	-2.429503e-06	-9.783669e-10	-1.723467e+01	-6.301651e+01
1.310000e-06	-2.388969e-06	-9.742746e-10	-1.694713e+01	-6.273758e+01
1.320000e-06	-2.348318e-06	-9.697493e-10	-1.665875e+01	-6.245809e+01
1.330000e-06	-2.307300e-06	-9.656270e-10	-1.636777e+01	-6.217742e+01
1.340000e-06	-2.265864e-06	-9.636920e-10	-1.607383e+01	-6.189488e+01
1.350000e-06	-2.224121e-06	-9.586899e-10	-1.577771e+01	-6.160980e+01
1.360000e-06	-2.182141e-06	-9.526225e-10	-1.547991e+01	-6.132151e+01
1.370000e-06	-2.140059e-06	-9.448313e-10	-1.518138e+01	-6.102943e+01
1.380000e-06	-2.097723e-06	-9.386285e-10	-1.488105e+01	-6.073307e+01
1.390000e-06	-2.055075e-06	-9.326104e-10	-1.457851e+01	-6.043200e+01
1.400000e-06	-2.012090e-06	-9.319378e-10	-1.427358e+01	-6.012594e+01
1.410000e-06	-1.968876e-06	-9.342681e-10	-1.396702e+01	-5.981468e+01
1.420000e-06	-1.925577e-06	-9.341812e-10	-1.365987e+01	-5.949813e+01
1.430000e-06	-1.882188e-06	-9.269029e-10	-1.335207e+01	-5.917625e+01
1.440000e-06	-1.838659e-06	-9.175199e-10	-1.304328e+01	-5.884909e+01
1.450000e-06	-1.795025e-06	-9.082927e-10	-1.273374e+01	-5.851668e+01
1.460000e-06	-1.751324e-06	-9.011025e-10	-1.242373e+01	-5.817910e+01
1.470000e-06	-1.707494e-06	-8.966724e-10	-1.211280e+01	-5.783637e+01
1.480000e-06	-1.663575e-06	-8.955574e-10	-1.180125e+01	-5.748848e+01
1.490000e-06	-1.619594e-06	-8.978683e-10	-1.148925e+01	-5.713537e+01
1.500000e-06	-1.575591e-06	-9.012767e-10	-1.117710e+01	-5.677688e+01
1.510000e-06	-1.531519e-06	-8.979245e-10	-1.086445e+01	-5.641280e+01
1.520000e-06	-1.487327e-06	-8.913800e-10	-1.055096e+01	-5.604282e+01
1.530000e-06	-1.443028e-06	-8.797221e-10	-1.023670e+01	-5.566658e+01
1.540000e-06	-1.398653e-06	-8.668253e-10	-9.921916e+00	-5.528369e+01
1.550000e-06	-1.354187e-06	-8.583416e-10	-9.606480e+00	-5.489371e+01
1.560000e-06	-1.309579e-06	-8.534102e-10	-9.290030e+00	-5.449623e+01
1.570000e-06	-1.264912e-06	-8.507520e-10	-8.973170e+00	-5.409083e+01
1.580000e-06	-1.220260e-06	-8.472177e-10	-8.656410e+00	-5.367719e+01
1.590000e-06	-1.175552e-06	-8.468758e-10	-8.339254e+00	-5.325503e+01
1.600000e-06	-1.130705e-06	-8.457308e-10	-8.021116e+00	-5.282415e+01
1.610000e-06	-1.085770e-06	-8.407379e-10	-7.702354e+00	-5.238448e+01
1.620000e-06	-1.040666e-06	-8.300943e-10	-7.382386e+00	-5.193601e+01
1.630000e-06	-9.954523e-07	-8.150195e-10	-7.061646e+00	-5.147883e+01
1.640000e-06	-9.502214e-07	-8.035023e-10	-6.740783e+00	-5.101309e+01
1.650000e-06	-9.048748e-07	-7.940378e-10	-6.419098e+00	-5.053898e+01
1.660000e-06	-8.595240e-07	-7.879048e-10	-6.097383e+00	-5.005668e+01
1.670000e-06	-8.141553e-07	-7.832468e-10	-5.775542e+00	-4.956634e+01
1.680000e-06	-7.687313e-07	-7.796003e-10	-5.453308e+00	-4.906801e+01
1.690000e-06	-7.233619e-07	-7.756065e-10	-5.131462e+00	-4.856161e+01
1.700000e-06	-6.778809e-07	-7.649755e-10	-4.808824e+00	-4.804689e+01
1.710000e-06	-6.322592e-07	-7.538332e-10	-4.485188e+00	-4.752340e+01
1.720000e-06	-5.866514e-07	-7.430502e-10	-4.161650e+00	-4.699044e+01
1.730000e-06	-5.409900e-07	-7.400255e-10	-3.837733e+00	-4.644704e+01
1.740000e-06	-4.952636e-07	-7.381302e-10	-3.513354e+00	-4.589198e+01
1.750000e-06	-4.495119e-07	-7.330424e-10	-3.188796e+00	-4.532380e+01
1.760000e-06	-4.037120e-07	-7.217517e-10	-2.863896e+00	-4.474079e+01
1.770000e-06	-3.578907e-07	-7.048019e-10	-2.538844e+00	-4.414102e+01
1.780000e-06	-3.120015e-07	-6.870338e-10	-2.213310e+00	-4.352245e+01
1.790000e-06	-2.660964e-07	-6.726707e-10	-1.887663e+00	-4.288292e+01
1.800000e-06	-2.202109e-07	-6.634876e-10	-1.562156e+00	-4.222026e+01
1.810000e-06	-1.743502e-07	-6.573934e-10	-1.236824e+00	-4.153233e+01
1.820000e-06	-1.285414e-07	-6.508946e-10	-9.118605e-01	-4.081711e+01
1.830000e-06	-8.266730e-08	-6.423677e-10	-5.864342e-01	-4.007276e+01
1.840000e-06	-3.674330e-08	-6.260646e-10	-2.606535e-01	-3.929770e+01
1.850000e-06	9.194113e-09	-6.055955e-10	6.522218e-02	-3.849063e+01
1.860000e-06	5.507203e-08	-5.864696e-10	3.906759e-01	-3.765061e+01
1.870000e-06	1.009124e-07	-5.711352e-10	7.158630e-01	-3.677704e+01
1.880000e-06	1.468451e-07	-5.592447e-10	1.041705e+00	-3.586971e+01
1.890000e-06	1.927456e-07	-5.484772e-10	1.367319e+00	-3.492876e+01
1.900000e-06	2.385393e-07	-5.365690e-10	1.692176e+00	-3.395468e+01
1.910000e-06	2.843322e-07	-5.204843e-10	2.017026e+00	-3.294825e+01
1.920000e-06	3.301213e-07	-5.023672e-10	2.341850e+00	-3.191047e+01
1.930000e-06	3.759805e-07	-4.820690e-10	2.667171e+00	-3.084254e+01
1.940000e-06	4.218434e-07	-4.605243e-10	2.992518e+00	-2.974573e+01
1.950000e-06	4.676297e-07	-4.391855e-10	3.317322e+00	-2.862136e+01
1.960000e-06	5.133676e-07	-4.195211e-10	3.641782e+00	-2.747067e+01
1.970000e-06	5.590321e-07	-4.003221e-10	3.965722e+00	-2.629479e+01
1.980000e-06	6.046681e-07	-3.851979e-10	4.289460e+00	-2.509465e+01
1.990000e-06	6.502270e-07	-3.713997e-10	4.612650e+00	-2.387095e+01
2.000000e-06	6.957606e-07	-3.561101e-10	4.935661e+00	-2.262410e+01
2.010000e-06	7.412941e-07	-3.363641e-10	5.258672e+00	-2.135424e+01
2.020000e-06	7.867038e-07	-3.134866e-10	5.580804e+00	-2.006121e+01
2.030000e-06	8.320426e-07	-2.899791e-10	5.902433e+00	-1.874460e+01
2.040000e-06	8.773401e-07	-2.677995e-10	6.223769e+00	-1.740373e+01
2.050000e-06	9.225264e-07	-2.442297e-10	6.544317e+00	-1.603778e+01
2.060000e-06	9.677060e-07	-2.230512e-10	6.864817e+00	-1.464580e+01
2.070000e-06	1.012784e-06	-2.041576e-10	7.184596e+00	-1.322681e+01
2.080000e-06	1.057695e-06	-1.852913e-10	7.503192e+00	-1.177987e+01
2.090000e-06	1.102571e-06	-1.633435e-10	7.821534e+00	-1.030418e+01
2.100000e-06	1.147418e-06	-1.389502e-10	8.139678e+00	-8.799123e+00
2.110000e-06	1.192117e-06	-1.149862e-10	8.456765e+00	-7.264384e+00
2.120000e-06	1.236662e-06	-9.102936e-11	8.772763e+00	-5.699975e+00
2.130000e-06	1.281128e-06	-6.580450e-11	9.088201e+00	-4.106295e+00
2.140000e-06	1.325506e-06	-4.115895e-11	9.403019e+00	-2.484158e+00
2.150000e-06	1.369792e-06	-1.796446e-11	9.717177e+00	-8.348072e-01
2.160000e-06	1.414050e-06	6.648858e-12	1.003114e+01	8.400953e-01
2.170000e-06	1.458257e-06	3.166895e-11	1.034474e+01	2.538491e+00
2.180000e-06	1.502372e-06	5.742532e-11	1.065769e+01	4.257968e+00
2.190000e-06	1.546447e-06	8.225746e-11	1.097035e+01	5.995814e+00
2.200000e-06	1.590490e-06	1.060498e-10	1.128279e+01	7.749085e+00
2.210000e-06	1.634451e-06	1.301092e-10	1.159465e+01	9.514680e+00
2.220000e-06	1.678297e-06	1.549883e-10	1.190568e+01	1.128942e+01
2.230000e-06	1.722118e-06	1.824007e-10	1.221655e+01	1.307011e+01
2.240000e-06	1.765922e-06	2.143661e-10	1.252729e+01	1.485365e+01
2.250000e-06	1.809649e-06	2.484745e-10	1.283748e+01	1.663705e+01
2.260000e-06	1.853279e-06	2.806716e-10	1.314699e+01	1.841752e+01
2.270000e-06	1.896780e-06	3.083077e-10	1.345559e+01	2.019251e+01
2.280000e-06	1.940184e-06	3.334553e-10	1.376349e+01	2.195971e+01
2.290000e-06	1.983504e-06	3.572379e-10	1.407080e+01	2.371709e+01
2.300000e-06	2.026682e-06	3.816601e-10	1.437709e+01	2.546287e+01
2.310000e-06	2.069643e-06	4.071209e-10	1.468186e+01	2.719551e+01
2.320000e-06	2.112274e-06	4.329347e-10	1.498427e+01	2.891370e+01
2.330000e-06	2.154671e-06	4.606458e-10	1.528504e+01	3.061628e+01
2.340000e-06	2.196817e-06	4.883353e-10	1.558402e+01	3.230222e+01
2.350000e-06	2.238669e-06	5.114976e-10	1.588091e+01	3.397056e+01
2.360000e-06	2.280151e-06	5.339485e-10	1.617518e+01	3.562037e+01
2.370000e-06	2.321204e-06	5.589346e-10	1.646641e+01	3.725070e+01
2.380000e-06	2.361987e-06	5.856383e-10	1.675572e+01	3.886053e+01
2.390000e-06	2.402555e-06	6.113645e-10	1.704350e+01	4.044875e+01
2.400000e-06	2.442926e-06	6.342756e-10	1.732989e+01	4.201416e+01
2.410000e-06	2.483157e-06	6.545801e-10	1.761529e+01	4.355541e+01
2.420000e-06	2.523318e-06	6.776693e-10	1.790018e+01	4.507110e+01
2.430000e-06	2.563356e-06	7.068176e-10	1.818421e+01	4.655970e+01
2.440000e-06	2.603301e-06	7.373339e-10	1.846757e+01	4.801966e+01
2.450000e-06	2.643155e-06	7.632157e-10	1.875030e+01	4.944941e+01
2.460000e-06	2.682881e-06	7.853203e-10	1.903211e+01	5.084741e+01
2.470000e-06	2.722481e-06	8.060781e-10	1.931303e+01	5.221223e+01
2.480000e-06	2.761995e-06	8.227056e-10	1.959334e+01	5.354256e+01
2.490000e-06	2.801384e-06	8.388347e-10	1.987276e+01	5.483730e+01
2.500000e-06	2.840555e-06	8.573203e-10	2.015064e+01	5.609557e+01
2.510000e-06	2.879466e-06	8.779570e-10	2.042666e+01	5.731678e+01
2.520000e-06	2.918189e-06	9.016277e-10	2.070136e+01	5.850062e+01
2.530000e-06	2.956716e-06	9.274797e-10	2.097467e+01	5.964708e+01
2.540000e-06	2.994872e-06	9.516037e-10	2.124535e+01	6.075647e+01
2.550000e-06	3.032830e-06	9.710150e-10	2.151461e+01	6.182936e+01
2.560000e-06	3.070708e-06	9.844141e-10	2.178332e+01	6.286661e+01
2.570000e-06	3.108412e-06	9.937147e-10	2.205079e+01	6.386926e+01
2.580000e-06	3.145876e-06	1.002742e-09	2.231655e+01	6.483857e+01
2.590000e-06	3.183072e-06	1.014487e-09	2.258042e+01	6.577586e+01
2.600000e-06	3.220061e-06	1.030749e-09	2.284281e+01	6.668254e+01
2.610000e-06	3.256825e-06	1.052087e-09	2.310361e+01	6.756000e+01
2.620000e-06	3.293252e-06	1.073404e-09	2.336203e+01	6.840957e+01
2.630000e-06	3.329432e-06	1.089544e-09	2.361868e+01	6.923247e+01
2.640000e-06	3.365495e-06	1.100211e-09	2.387451e+01	7.002975e+01
2.650000e-06	3.401476e-06	1.107596e-09	2.412976e+01	7.080229e+01
2.660000e-06	3.437370e-06	1.113130e-09	2.438438e+01	7.155074e+01
2.670000e-06	3.473133e-06	1.116723e-09	2.463808e+01	7.227553e+01
2.680000e-06	3.508749e-06	1.121006e-09	2.489074e+01	7.297690e+01
2.690000e-06	3.544124e-06	1.129441e-09	2.514169e+01	7.365488e+01
2.700000e-06	3.579140e-06	1.144115e-09	2.539009e+01	7.430932e+01
2.710000e-06	3.613727e-06	1.161435e-09	2.563545e+01	7.493995e+01
2.720000e-06	3.647886e-06	1.175069e-09	2.587777e+01	7.554641e+01
2.730000e-06	3.681573e-06	1.184476e-09	2.611674e+01	7.612833e+01
2.740000e-06	3.714800e-06	1.191713e-09	2.635245e+01	7.668529e+01
2.750000e-06	3.747653e-06	1.195720e-09	2.658551e+01	7.721699e+01
2.760000e-06	3.780151e-06	1.197712e-09	2.681604e+01	7.772319e+01
2.770000e-06	3.812363e-06	1.200414e-09	2.704455e+01	7.820380e+01
2.780000e-06	3.844391e-06	1.207831e-09	2.727175e+01	7.865891e+01
2.790000e-06	3.876273e-06	1.219325e-09	2.749792e+01	7.908875e+01
2.800000e-06	3.907960e-06	1.227430e-09	2.772271e+01	7.949379e+01
2.810000e-06	3.939460e-06	1.229935e-09	2.794616e+01	7.987465e+01
2.820000e-06	3.970817e-06	1.231447e-09	2.816861e+01	8.023214e+01
2.830000e-06	4.001929e-06	1.234326e-09	2.838931e+01	8.056721e+01
2.840000e-06	4.032661e-06	1.236100e-09	2.860732e+01	8.088094e+01
2.850000e-06	4.063041e-06	1.237331e-09	2.882283e+01	8.117448e+01
2.860000e-06	4.093156e-06	1.241154e-09	2.903647e+01	8.144905e+01
2.870000e-06	4.122986e-06	1.246570e-09	2.924808e+01	8.170586e+01
2.880000e-06	4.152518e-06	1.253338e-09	2.945758e+01	8.194611e+01
2.890000e-06	4.181824e-06	1.257957e-09	2.966547e+01	8.217092e+01
2.900000e-06	4.210878e-06	1.257772e-09	2.987158e+01	8.238133e+01
