# Temperatura_=_-3.33
# Concentracion g/m^3_=_4090.0
# C_Vs_to_Am_M_A/Vsm_=_65563218390.804596
# pendiente_HvsI_1/m_=_3716.3
# ordenada_HvsI_A/m_=_1297.0
# frecuencia_Hz_=_135069.75820862813

Tiempo_(s)	Campo_(V.s)	Magnetizacion_(V.s)	Campo_(kA/m)	Magnetizacion_(A/m)
0.000000e+00	-5.383263e-06	-1.587998e-09	-3.839375e+01	-1.064414e+02
1.000000e-08	-5.383423e-06	-1.585042e-09	-3.839490e+01	-1.063245e+02
2.000000e-08	-5.383422e-06	-1.583130e-09	-3.839489e+01	-1.061932e+02
3.000000e-08	-5.383250e-06	-1.580897e-09	-3.839367e+01	-1.060487e+02
4.000000e-08	-5.382739e-06	-1.578872e-09	-3.839002e+01	-1.058930e+02
5.000000e-08	-5.381746e-06	-1.578190e-09	-3.838293e+01	-1.057287e+02
6.000000e-08	-5.380219e-06	-1.578318e-09	-3.837205e+01	-1.055593e+02
7.000000e-08	-5.378130e-06	-1.579589e-09	-3.835715e+01	-1.053884e+02
8.000000e-08	-5.375356e-06	-1.576317e-09	-3.833736e+01	-1.052203e+02
9.000000e-08	-5.371873e-06	-1.569186e-09	-3.831252e+01	-1.050594e+02
1.000000e-07	-5.367905e-06	-1.581665e-09	-3.828422e+01	-1.049103e+02
1.100000e-07	-5.363624e-06	-1.606565e-09	-3.825369e+01	-1.047775e+02
1.200000e-07	-5.359215e-06	-1.589280e-09	-3.822225e+01	-1.046650e+02
1.300000e-07	-5.354647e-06	-1.545078e-09	-3.818966e+01	-1.045766e+02
1.400000e-07	-5.349737e-06	-1.556663e-09	-3.815465e+01	-1.045153e+02
1.500000e-07	-5.344384e-06	-1.599176e-09	-3.811647e+01	-1.044833e+02
1.600000e-07	-5.338618e-06	-1.589557e-09	-3.807534e+01	-1.044821e+02
1.700000e-07	-5.332530e-06	-1.537698e-09	-3.803192e+01	-1.045119e+02
1.800000e-07	-5.326057e-06	-1.562686e-09	-3.798576e+01	-1.045721e+02
1.900000e-07	-5.319102e-06	-1.636506e-09	-3.793615e+01	-1.046609e+02
2.000000e-07	-5.311787e-06	-1.626409e-09	-3.788399e+01	-1.047756e+02
2.100000e-07	-5.304238e-06	-1.573382e-09	-3.783015e+01	-1.049126e+02
2.200000e-07	-5.296480e-06	-1.578539e-09	-3.777481e+01	-1.050672e+02
2.300000e-07	-5.288499e-06	-1.630554e-09	-3.771789e+01	-1.052344e+02
2.400000e-07	-5.280278e-06	-1.618887e-09	-3.765926e+01	-1.054086e+02
2.500000e-07	-5.271619e-06	-1.608384e-09	-3.759750e+01	-1.055838e+02
2.600000e-07	-5.262248e-06	-1.649118e-09	-3.753067e+01	-1.057541e+02
2.700000e-07	-5.252200e-06	-1.684568e-09	-3.745901e+01	-1.059137e+02
2.800000e-07	-5.241632e-06	-1.658275e-09	-3.738364e+01	-1.060571e+02
2.900000e-07	-5.230594e-06	-1.643824e-09	-3.730491e+01	-1.061793e+02
3.000000e-07	-5.219067e-06	-1.648694e-09	-3.722270e+01	-1.062763e+02
3.100000e-07	-5.207178e-06	-1.624930e-09	-3.713791e+01	-1.063445e+02
3.200000e-07	-5.194918e-06	-1.613641e-09	-3.705047e+01	-1.063817e+02
3.300000e-07	-5.182207e-06	-1.651603e-09	-3.695982e+01	-1.063863e+02
3.400000e-07	-5.169138e-06	-1.666640e-09	-3.686660e+01	-1.063579e+02
3.500000e-07	-5.155728e-06	-1.632764e-09	-3.677097e+01	-1.062973e+02
3.600000e-07	-5.141914e-06	-1.633070e-09	-3.667244e+01	-1.062057e+02
3.700000e-07	-5.127709e-06	-1.653579e-09	-3.657113e+01	-1.060856e+02
3.800000e-07	-5.113005e-06	-1.627821e-09	-3.646626e+01	-1.059399e+02
3.900000e-07	-5.097731e-06	-1.596672e-09	-3.635733e+01	-1.057720e+02
4.000000e-07	-5.081919e-06	-1.618340e-09	-3.624456e+01	-1.055859e+02
4.100000e-07	-5.065678e-06	-1.630993e-09	-3.612872e+01	-1.053855e+02
4.200000e-07	-5.048956e-06	-1.621770e-09	-3.600946e+01	-1.051747e+02
4.300000e-07	-5.031786e-06	-1.625980e-09	-3.588700e+01	-1.049574e+02
4.400000e-07	-5.014448e-06	-1.633952e-09	-3.576334e+01	-1.047369e+02
4.500000e-07	-4.996883e-06	-1.614725e-09	-3.563807e+01	-1.045162e+02
4.600000e-07	-4.979020e-06	-1.610005e-09	-3.551067e+01	-1.042976e+02
4.700000e-07	-4.960813e-06	-1.613980e-09	-3.538082e+01	-1.040829e+02
4.800000e-07	-4.942213e-06	-1.603649e-09	-3.524816e+01	-1.038731e+02
4.900000e-07	-4.923260e-06	-1.590718e-09	-3.511298e+01	-1.036686e+02
5.000000e-07	-4.903894e-06	-1.596318e-09	-3.497487e+01	-1.034692e+02
5.100000e-07	-4.884162e-06	-1.591230e-09	-3.483414e+01	-1.032740e+02
5.200000e-07	-4.864293e-06	-1.581426e-09	-3.469243e+01	-1.030816e+02
5.300000e-07	-4.844297e-06	-1.579070e-09	-3.454982e+01	-1.028906e+02
5.400000e-07	-4.824027e-06	-1.581697e-09	-3.440525e+01	-1.026989e+02
5.500000e-07	-4.803403e-06	-1.578754e-09	-3.425816e+01	-1.025046e+02
5.600000e-07	-4.782329e-06	-1.579771e-09	-3.410786e+01	-1.023056e+02
5.700000e-07	-4.760923e-06	-1.572998e-09	-3.395519e+01	-1.021002e+02
5.800000e-07	-4.739313e-06	-1.561929e-09	-3.380107e+01	-1.018868e+02
5.900000e-07	-4.717385e-06	-1.554650e-09	-3.364467e+01	-1.016641e+02
6.000000e-07	-4.695127e-06	-1.550004e-09	-3.348593e+01	-1.014314e+02
6.100000e-07	-4.672579e-06	-1.545700e-09	-3.332511e+01	-1.011882e+02
6.200000e-07	-4.649566e-06	-1.546634e-09	-3.316099e+01	-1.009346e+02
6.300000e-07	-4.626161e-06	-1.547988e-09	-3.299406e+01	-1.006712e+02
6.400000e-07	-4.602588e-06	-1.549245e-09	-3.282594e+01	-1.003988e+02
6.500000e-07	-4.578840e-06	-1.550885e-09	-3.265656e+01	-1.001189e+02
6.600000e-07	-4.554901e-06	-1.542580e-09	-3.248583e+01	-9.983285e+01
6.700000e-07	-4.530789e-06	-1.529475e-09	-3.231386e+01	-9.954249e+01
6.800000e-07	-4.506397e-06	-1.521570e-09	-3.213990e+01	-9.924962e+01
6.900000e-07	-4.481503e-06	-1.517770e-09	-3.196235e+01	-9.895601e+01
7.000000e-07	-4.456044e-06	-1.509979e-09	-3.178078e+01	-9.866336e+01
7.100000e-07	-4.430013e-06	-1.505866e-09	-3.159512e+01	-9.837314e+01
7.200000e-07	-4.403409e-06	-1.505437e-09	-3.140538e+01	-9.808656e+01
7.300000e-07	-4.376388e-06	-1.509572e-09	-3.121266e+01	-9.780450e+01
7.400000e-07	-4.349079e-06	-1.510071e-09	-3.101789e+01	-9.752747e+01
7.500000e-07	-4.321492e-06	-1.505236e-09	-3.082114e+01	-9.725561e+01
7.600000e-07	-4.293697e-06	-1.494993e-09	-3.062291e+01	-9.698870e+01
7.700000e-07	-4.265738e-06	-1.489293e-09	-3.042350e+01	-9.672615e+01
7.800000e-07	-4.237628e-06	-1.483445e-09	-3.022302e+01	-9.646709e+01
7.900000e-07	-4.209283e-06	-1.475810e-09	-3.002086e+01	-9.621041e+01
8.000000e-07	-4.180546e-06	-1.467980e-09	-2.981591e+01	-9.595480e+01
8.100000e-07	-4.151478e-06	-1.466901e-09	-2.960859e+01	-9.569889e+01
8.200000e-07	-4.122130e-06	-1.466595e-09	-2.939928e+01	-9.544127e+01
8.300000e-07	-4.092450e-06	-1.464996e-09	-2.918760e+01	-9.518059e+01
8.400000e-07	-4.062513e-06	-1.459393e-09	-2.897409e+01	-9.491564e+01
8.500000e-07	-4.032399e-06	-1.455536e-09	-2.875932e+01	-9.464538e+01
8.600000e-07	-4.001959e-06	-1.453037e-09	-2.854221e+01	-9.436901e+01
8.700000e-07	-3.971266e-06	-1.448211e-09	-2.832331e+01	-9.408598e+01
8.800000e-07	-3.940399e-06	-1.440002e-09	-2.810316e+01	-9.379603e+01
8.900000e-07	-3.909162e-06	-1.431614e-09	-2.788038e+01	-9.349915e+01
9.000000e-07	-3.877648e-06	-1.424290e-09	-2.765562e+01	-9.319561e+01
9.100000e-07	-3.845923e-06	-1.418513e-09	-2.742935e+01	-9.288587e+01
9.200000e-07	-3.814020e-06	-1.413831e-09	-2.720182e+01	-9.257058e+01
9.300000e-07	-3.781995e-06	-1.412891e-09	-2.697341e+01	-9.225052e+01
9.400000e-07	-3.749738e-06	-1.416979e-09	-2.674336e+01	-9.192650e+01
9.500000e-07	-3.717243e-06	-1.418901e-09	-2.651160e+01	-9.159937e+01
9.600000e-07	-3.684500e-06	-1.413541e-09	-2.627808e+01	-9.126989e+01
9.700000e-07	-3.651326e-06	-1.401124e-09	-2.604148e+01	-9.093875e+01
9.800000e-07	-3.617632e-06	-1.387959e-09	-2.580117e+01	-9.060646e+01
9.900000e-07	-3.583495e-06	-1.377504e-09	-2.555770e+01	-9.027335e+01
1.000000e-06	-3.548973e-06	-1.370213e-09	-2.531149e+01	-8.993954e+01
1.010000e-06	-3.514140e-06	-1.367689e-09	-2.506306e+01	-8.960496e+01
1.020000e-06	-3.478989e-06	-1.370664e-09	-2.481236e+01	-8.926931e+01
1.030000e-06	-3.443551e-06	-1.373992e-09	-2.455961e+01	-8.893210e+01
1.040000e-06	-3.407888e-06	-1.374194e-09	-2.430526e+01	-8.859270e+01
1.050000e-06	-3.372058e-06	-1.367454e-09	-2.404972e+01	-8.825033e+01
1.060000e-06	-3.336107e-06	-1.356893e-09	-2.379331e+01	-8.790418e+01
1.070000e-06	-3.299999e-06	-1.343701e-09	-2.353579e+01	-8.755336e+01
1.080000e-06	-3.263748e-06	-1.333076e-09	-2.327725e+01	-8.719706e+01
1.090000e-06	-3.227297e-06	-1.326049e-09	-2.301728e+01	-8.683450e+01
1.100000e-06	-3.190606e-06	-1.324138e-09	-2.275559e+01	-8.646506e+01
1.110000e-06	-3.153673e-06	-1.324754e-09	-2.249219e+01	-8.608824e+01
1.120000e-06	-3.116525e-06	-1.324808e-09	-2.222725e+01	-8.570374e+01
1.130000e-06	-3.079156e-06	-1.319748e-09	-2.196073e+01	-8.531145e+01
1.140000e-06	-3.041587e-06	-1.311886e-09	-2.169278e+01	-8.491149e+01
1.150000e-06	-3.003831e-06	-1.303151e-09	-2.142350e+01	-8.450415e+01
1.160000e-06	-2.965865e-06	-1.294275e-09	-2.115273e+01	-8.408993e+01
1.170000e-06	-2.927700e-06	-1.284492e-09	-2.088053e+01	-8.366947e+01
1.180000e-06	-2.889281e-06	-1.275441e-09	-2.060653e+01	-8.324355e+01
1.190000e-06	-2.850568e-06	-1.267633e-09	-2.033043e+01	-8.281305e+01
1.200000e-06	-2.811689e-06	-1.262052e-09	-2.005313e+01	-8.237886e+01
1.210000e-06	-2.772675e-06	-1.259374e-09	-1.977489e+01	-8.194190e+01
1.220000e-06	-2.733404e-06	-1.255806e-09	-1.949480e+01	-8.150305e+01
1.230000e-06	-2.693912e-06	-1.251450e-09	-1.921314e+01	-8.106309e+01
1.240000e-06	-2.654286e-06	-1.246504e-09	-1.893052e+01	-8.062271e+01
1.250000e-06	-2.614570e-06	-1.237098e-09	-1.864727e+01	-8.018242e+01
1.260000e-06	-2.574750e-06	-1.225218e-09	-1.836327e+01	-7.974259e+01
1.270000e-06	-2.534815e-06	-1.215361e-09	-1.807845e+01	-7.930342e+01
1.280000e-06	-2.494819e-06	-1.207810e-09	-1.779320e+01	-7.886489e+01
1.290000e-06	-2.454752e-06	-1.201169e-09	-1.750744e+01	-7.842684e+01
1.300000e-06	-2.414597e-06	-1.192756e-09	-1.722106e+01	-7.798892e+01
1.310000e-06	-2.374331e-06	-1.185653e-09	-1.693387e+01	-7.755064e+01
1.320000e-06	-2.333844e-06	-1.181424e-09	-1.664512e+01	-7.711136e+01
1.330000e-06	-2.293074e-06	-1.178707e-09	-1.635434e+01	-7.667036e+01
1.340000e-06	-2.252105e-06	-1.172499e-09	-1.606215e+01	-7.622682e+01
1.350000e-06	-2.210919e-06	-1.163456e-09	-1.576841e+01	-7.577988e+01
1.360000e-06	-2.169392e-06	-1.155355e-09	-1.547223e+01	-7.532866e+01
1.370000e-06	-2.127564e-06	-1.148308e-09	-1.517392e+01	-7.487226e+01
1.380000e-06	-2.085559e-06	-1.137659e-09	-1.487433e+01	-7.440982e+01
1.390000e-06	-2.043341e-06	-1.126007e-09	-1.457323e+01	-7.394051e+01
1.400000e-06	-2.000799e-06	-1.117801e-09	-1.426982e+01	-7.346356e+01
1.410000e-06	-1.957960e-06	-1.112324e-09	-1.396429e+01	-7.297824e+01
1.420000e-06	-1.914844e-06	-1.106946e-09	-1.365678e+01	-7.248393e+01
1.430000e-06	-1.871563e-06	-1.100825e-09	-1.334810e+01	-7.198004e+01
1.440000e-06	-1.828180e-06	-1.094153e-09	-1.303869e+01	-7.146610e+01
1.450000e-06	-1.784664e-06	-1.087446e-09	-1.272833e+01	-7.094168e+01
1.460000e-06	-1.741052e-06	-1.079561e-09	-1.241729e+01	-7.040645e+01
1.470000e-06	-1.697355e-06	-1.069033e-09	-1.210564e+01	-6.986015e+01
1.480000e-06	-1.653577e-06	-1.057031e-09	-1.179341e+01	-6.930259e+01
1.490000e-06	-1.609721e-06	-1.046552e-09	-1.148063e+01	-6.873365e+01
1.500000e-06	-1.565773e-06	-1.038285e-09	-1.116719e+01	-6.815330e+01
1.510000e-06	-1.521794e-06	-1.034711e-09	-1.085353e+01	-6.756158e+01
1.520000e-06	-1.477799e-06	-1.033803e-09	-1.053975e+01	-6.695859e+01
1.530000e-06	-1.433717e-06	-1.027547e-09	-1.022535e+01	-6.634452e+01
1.540000e-06	-1.389573e-06	-1.014474e-09	-9.910522e+00	-6.571964e+01
1.550000e-06	-1.345348e-06	-9.990140e-10	-9.595107e+00	-6.508429e+01
1.560000e-06	-1.301024e-06	-9.830651e-10	-9.278981e+00	-6.443888e+01
1.570000e-06	-1.256698e-06	-9.683634e-10	-8.962848e+00	-6.378387e+01
1.580000e-06	-1.212373e-06	-9.554386e-10	-8.646715e+00	-6.311980e+01
1.590000e-06	-1.167969e-06	-9.449502e-10	-8.330026e+00	-6.244722e+01
1.600000e-06	-1.123405e-06	-9.387824e-10	-8.012190e+00	-6.176672e+01
1.610000e-06	-1.078631e-06	-9.341830e-10	-7.692858e+00	-6.107891e+01
1.620000e-06	-1.033715e-06	-9.291945e-10	-7.372520e+00	-6.038433e+01
1.630000e-06	-9.887520e-07	-9.202284e-10	-7.051839e+00	-5.968353e+01
1.640000e-06	-9.437610e-07	-9.083252e-10	-6.730960e+00	-5.897695e+01
1.650000e-06	-8.987641e-07	-8.941254e-10	-6.410040e+00	-5.826495e+01
1.660000e-06	-8.538060e-07	-8.780612e-10	-6.089396e+00	-5.754778e+01
1.670000e-06	-8.087478e-07	-8.621636e-10	-5.768038e+00	-5.682554e+01
1.680000e-06	-7.636168e-07	-8.500807e-10	-5.446161e+00	-5.609816e+01
1.690000e-06	-7.184203e-07	-8.407259e-10	-5.123817e+00	-5.536544e+01
1.700000e-06	-6.730985e-07	-8.307292e-10	-4.800579e+00	-5.462697e+01
1.710000e-06	-6.277144e-07	-8.208418e-10	-4.476897e+00	-5.388220e+01
1.720000e-06	-5.822856e-07	-8.128284e-10	-4.152896e+00	-5.313041e+01
1.730000e-06	-5.369267e-07	-8.063259e-10	-3.829394e+00	-5.237075e+01
1.740000e-06	-4.915478e-07	-7.976751e-10	-3.505749e+00	-5.160225e+01
1.750000e-06	-4.460263e-07	-7.827648e-10	-3.181086e+00	-5.082384e+01
1.760000e-06	-4.004874e-07	-7.649299e-10	-2.856300e+00	-5.003442e+01
1.770000e-06	-3.550226e-07	-7.467338e-10	-2.532042e+00	-4.923287e+01
1.780000e-06	-3.094791e-07	-7.277725e-10	-2.207224e+00	-4.841808e+01
1.790000e-06	-2.638234e-07	-7.105771e-10	-1.881605e+00	-4.758902e+01
1.800000e-06	-2.181823e-07	-6.972049e-10	-1.556089e+00	-4.674473e+01
1.810000e-06	-1.724833e-07	-6.878176e-10	-1.230161e+00	-4.588439e+01
1.820000e-06	-1.267580e-07	-6.787192e-10	-9.040459e-01	-4.500733e+01
1.830000e-06	-8.110831e-08	-6.691143e-10	-5.784694e-01	-4.411302e+01
1.840000e-06	-3.547429e-08	-6.560590e-10	-2.530048e-01	-4.320113e+01
1.850000e-06	1.015170e-08	-6.400067e-10	7.240254e-02	-4.227147e+01
1.860000e-06	5.576226e-08	-6.220925e-10	3.976998e-01	-4.132400e+01
1.870000e-06	1.013637e-07	-6.019858e-10	7.229322e-01	-4.035885e+01
1.880000e-06	1.469936e-07	-5.830341e-10	1.048368e+00	-3.937622e+01
1.890000e-06	1.926465e-07	-5.694549e-10	1.373966e+00	-3.837640e+01
1.900000e-06	2.383205e-07	-5.597983e-10	1.699716e+00	-3.735972e+01
1.910000e-06	2.840124e-07	-5.499055e-10	2.025594e+00	-3.632652e+01
1.920000e-06	3.296509e-07	-5.356081e-10	2.351090e+00	-3.527707e+01
1.930000e-06	3.752392e-07	-5.153344e-10	2.676228e+00	-3.421161e+01
1.940000e-06	4.208362e-07	-4.914408e-10	3.001429e+00	-3.313026e+01
1.950000e-06	4.664904e-07	-4.687654e-10	3.327038e+00	-3.203301e+01
1.960000e-06	5.121425e-07	-4.489004e-10	3.652631e+00	-3.091972e+01
1.970000e-06	5.576879e-07	-4.319033e-10	3.977464e+00	-2.979013e+01
1.980000e-06	6.030827e-07	-4.162332e-10	4.301223e+00	-2.864381e+01
1.990000e-06	6.483354e-07	-4.015862e-10	4.623967e+00	-2.748022e+01
2.000000e-06	6.935593e-07	-3.904167e-10	4.946507e+00	-2.629876e+01
2.010000e-06	7.388247e-07	-3.770207e-10	5.269342e+00	-2.509872e+01
2.020000e-06	7.840271e-07	-3.588288e-10	5.591729e+00	-2.387940e+01
2.030000e-06	8.291507e-07	-3.367974e-10	5.913553e+00	-2.264011e+01
2.040000e-06	8.742524e-07	-3.130417e-10	6.235221e+00	-2.138023e+01
2.050000e-06	9.192472e-07	-2.916989e-10	6.556127e+00	-2.009926e+01
2.060000e-06	9.641762e-07	-2.715245e-10	6.876563e+00	-1.879683e+01
2.070000e-06	1.009113e-06	-2.502831e-10	7.197054e+00	-1.747279e+01
2.080000e-06	1.053902e-06	-2.291589e-10	7.516491e+00	-1.612717e+01
2.090000e-06	1.098480e-06	-2.089010e-10	7.834424e+00	-1.476027e+01
2.100000e-06	1.142979e-06	-1.872332e-10	8.151799e+00	-1.337258e+01
2.110000e-06	1.187418e-06	-1.636313e-10	8.468737e+00	-1.196486e+01
2.120000e-06	1.231753e-06	-1.400692e-10	8.784939e+00	-1.053806e+01
2.130000e-06	1.276068e-06	-1.177936e-10	9.100996e+00	-9.093339e+00
2.140000e-06	1.320360e-06	-9.753268e-11	9.416887e+00	-7.631983e+00
2.150000e-06	1.364528e-06	-7.846607e-11	9.731898e+00	-6.155391e+00
2.160000e-06	1.408611e-06	-6.049366e-11	1.004630e+01	-4.665013e+00
2.170000e-06	1.452677e-06	-4.067566e-11	1.036058e+01	-3.162299e+00
2.180000e-06	1.496692e-06	-1.691901e-11	1.067450e+01	-1.648645e+00
2.190000e-06	1.540621e-06	6.409344e-12	1.098780e+01	-1.253484e-01
2.200000e-06	1.584502e-06	2.927614e-11	1.130076e+01	1.406443e+00
2.210000e-06	1.628363e-06	5.215949e-11	1.161358e+01	2.945758e+00
2.220000e-06	1.672197e-06	7.351055e-11	1.192621e+01	4.491832e+00
2.230000e-06	1.716012e-06	9.577149e-11	1.223870e+01	6.044116e+00
2.240000e-06	1.759745e-06	1.200045e-10	1.255061e+01	7.602279e+00
2.250000e-06	1.803342e-06	1.460893e-10	1.286154e+01	9.166191e+00
2.260000e-06	1.846794e-06	1.731795e-10	1.317145e+01	1.073590e+01
2.270000e-06	1.890080e-06	1.999350e-10	1.348016e+01	1.231160e+01
2.280000e-06	1.933202e-06	2.249650e-10	1.378771e+01	1.389357e+01
2.290000e-06	1.976046e-06	2.483073e-10	1.409328e+01	1.548215e+01
2.300000e-06	2.018586e-06	2.696370e-10	1.439668e+01	1.707764e+01
2.310000e-06	2.060853e-06	2.887398e-10	1.469813e+01	1.868030e+01
2.320000e-06	2.102849e-06	3.083616e-10	1.499765e+01	2.029024e+01
2.330000e-06	2.144524e-06	3.321336e-10	1.529487e+01	2.190740e+01
2.340000e-06	2.185898e-06	3.584493e-10	1.558995e+01	2.353151e+01
2.350000e-06	2.227126e-06	3.844044e-10	1.588400e+01	2.516203e+01
2.360000e-06	2.268112e-06	4.099238e-10	1.617632e+01	2.679816e+01
2.370000e-06	2.308831e-06	4.352582e-10	1.646672e+01	2.843881e+01
2.380000e-06	2.349369e-06	4.608180e-10	1.675584e+01	3.008262e+01
2.390000e-06	2.389743e-06	4.849818e-10	1.704379e+01	3.172798e+01
2.400000e-06	2.429962e-06	5.070234e-10	1.733063e+01	3.337303e+01
2.410000e-06	2.470024e-06	5.289601e-10	1.761636e+01	3.501573e+01
2.420000e-06	2.509977e-06	5.541612e-10	1.790131e+01	3.665391e+01
2.430000e-06	2.549926e-06	5.844920e-10	1.818623e+01	3.828531e+01
2.440000e-06	2.589839e-06	6.149384e-10	1.847089e+01	3.990766e+01
2.450000e-06	2.629602e-06	6.393014e-10	1.875448e+01	4.151871e+01
2.460000e-06	2.669217e-06	6.607888e-10	1.903701e+01	4.311630e+01
2.470000e-06	2.708702e-06	6.845088e-10	1.931862e+01	4.469842e+01
2.480000e-06	2.748000e-06	7.054635e-10	1.959890e+01	4.626326e+01
2.490000e-06	2.787048e-06	7.234359e-10	1.987740e+01	4.780921e+01
2.500000e-06	2.825837e-06	7.454413e-10	2.015404e+01	4.933493e+01
2.510000e-06	2.864395e-06	7.747129e-10	2.042904e+01	5.083931e+01
2.520000e-06	2.902798e-06	8.063665e-10	2.070293e+01	5.232154e+01
2.530000e-06	2.941058e-06	8.346162e-10	2.097580e+01	5.378104e+01
2.540000e-06	2.979104e-06	8.584260e-10	2.124715e+01	5.521747e+01
2.550000e-06	3.016928e-06	8.772563e-10	2.151691e+01	5.663069e+01
2.560000e-06	3.054615e-06	8.926210e-10	2.178570e+01	5.802076e+01
2.570000e-06	3.092187e-06	9.064732e-10	2.205367e+01	5.938784e+01
2.580000e-06	3.129483e-06	9.232264e-10	2.231966e+01	6.073223e+01
2.590000e-06	3.166430e-06	9.471253e-10	2.258317e+01	6.205425e+01
2.600000e-06	3.203088e-06	9.753625e-10	2.284462e+01	6.335426e+01
2.610000e-06	3.239549e-06	1.002652e-09	2.310466e+01	6.463261e+01
2.620000e-06	3.275835e-06	1.024083e-09	2.336345e+01	6.588961e+01
2.630000e-06	3.311927e-06	1.040618e-09	2.362086e+01	6.712551e+01
2.640000e-06	3.347873e-06	1.056190e-09	2.387723e+01	6.834049e+01
2.650000e-06	3.383739e-06	1.069729e-09	2.413303e+01	6.953467e+01
2.660000e-06	3.419517e-06	1.081581e-09	2.438820e+01	7.070805e+01
2.670000e-06	3.455142e-06	1.093944e-09	2.464228e+01	7.186062e+01
2.680000e-06	3.490532e-06	1.109553e-09	2.489468e+01	7.299226e+01
2.690000e-06	3.525617e-06	1.127736e-09	2.514491e+01	7.410286e+01
2.700000e-06	3.560271e-06	1.146177e-09	2.539207e+01	7.519224e+01
2.710000e-06	3.594461e-06	1.164813e-09	2.563591e+01	7.626024e+01
2.720000e-06	3.628274e-06	1.184482e-09	2.587707e+01	7.730670e+01
2.730000e-06	3.661627e-06	1.201568e-09	2.611494e+01	7.833151e+01
2.740000e-06	3.694441e-06	1.215005e-09	2.634898e+01	7.933455e+01
2.750000e-06	3.726898e-06	1.226899e-09	2.658046e+01	8.031577e+01
2.760000e-06	3.759150e-06	1.239001e-09	2.681048e+01	8.127516e+01
2.770000e-06	3.791205e-06	1.251351e-09	2.703911e+01	8.221274e+01
2.780000e-06	3.823122e-06	1.262877e-09	2.726674e+01	8.312858e+01
2.790000e-06	3.854924e-06	1.277408e-09	2.749355e+01	8.402274e+01
2.800000e-06	3.886575e-06	1.296174e-09	2.771929e+01	8.489533e+01
2.810000e-06	3.918018e-06	1.311149e-09	2.794354e+01	8.574642e+01
2.820000e-06	3.949177e-06	1.319081e-09	2.816577e+01	8.657610e+01
2.830000e-06	3.979975e-06	1.325150e-09	2.838542e+01	8.738440e+01
2.840000e-06	4.010418e-06	1.333814e-09	2.860254e+01	8.817134e+01
2.850000e-06	4.040515e-06	1.343196e-09	2.881720e+01	8.893689e+01
2.860000e-06	4.070374e-06	1.350930e-09	2.903015e+01	8.968099e+01
2.870000e-06	4.100093e-06	1.360817e-09	2.924211e+01	9.040355e+01
2.880000e-06	4.129647e-06	1.376306e-09	2.945289e+01	9.110445e+01
2.890000e-06	4.158879e-06	1.391753e-09	2.966138e+01	9.178357e+01
2.900000e-06	4.187710e-06	1.399795e-09	2.986700e+01	9.244081e+01
