# Temperatura_=_9.53
# Concentracion g/m^3_=_4090.0
# C_Vs_to_Am_M_A/Vsm_=_65563218390.804596
# pendiente_HvsI_1/m_=_3716.3
# ordenada_HvsI_A/m_=_1297.0
# frecuencia_Hz_=_135087.97872468387

Tiempo_(s)	Campo_(V.s)	Magnetizacion_(V.s)	Campo_(kA/m)	Magnetizacion_(A/m)
0.000000e+00	-5.390582e-06	-1.289055e-09	-3.838153e+01	-8.595100e+01
1.000000e-08	-5.390570e-06	-1.286257e-09	-3.838144e+01	-8.578366e+01
2.000000e-08	-5.390283e-06	-1.283113e-09	-3.837940e+01	-8.559984e+01
3.000000e-08	-5.389698e-06	-1.277294e-09	-3.837523e+01	-8.540139e+01
4.000000e-08	-5.388661e-06	-1.271011e-09	-3.836785e+01	-8.519104e+01
5.000000e-08	-5.387056e-06	-1.269948e-09	-3.835642e+01	-8.497237e+01
6.000000e-08	-5.384868e-06	-1.277122e-09	-3.834084e+01	-8.474974e+01
7.000000e-08	-5.382151e-06	-1.289759e-09	-3.832150e+01	-8.452812e+01
8.000000e-08	-5.378861e-06	-1.270254e-09	-3.829808e+01	-8.431296e+01
9.000000e-08	-5.374975e-06	-1.243359e-09	-3.827040e+01	-8.411000e+01
1.000000e-07	-5.370784e-06	-1.263045e-09	-3.824057e+01	-8.392500e+01
1.100000e-07	-5.366428e-06	-1.349187e-09	-3.820955e+01	-8.376360e+01
1.200000e-07	-5.361825e-06	-1.260470e-09	-3.817677e+01	-8.363100e+01
1.300000e-07	-5.357020e-06	-1.217104e-09	-3.814256e+01	-8.353178e+01
1.400000e-07	-5.351835e-06	-1.258427e-09	-3.810564e+01	-8.346969e+01
1.500000e-07	-5.346173e-06	-1.370575e-09	-3.806533e+01	-8.344749e+01
1.600000e-07	-5.340069e-06	-1.277275e-09	-3.802187e+01	-8.346675e+01
1.700000e-07	-5.333625e-06	-1.163313e-09	-3.797599e+01	-8.352782e+01
1.800000e-07	-5.326705e-06	-1.241717e-09	-3.792671e+01	-8.362973e+01
1.900000e-07	-5.319418e-06	-1.337018e-09	-3.787483e+01	-8.377021e+01
2.000000e-07	-5.312004e-06	-1.298049e-09	-3.782205e+01	-8.394574e+01
2.100000e-07	-5.304371e-06	-1.218715e-09	-3.776770e+01	-8.415166e+01
2.200000e-07	-5.296544e-06	-1.316747e-09	-3.771197e+01	-8.438231e+01
2.300000e-07	-5.288488e-06	-1.349483e-09	-3.765461e+01	-8.463123e+01
2.400000e-07	-5.279883e-06	-1.304846e-09	-3.759334e+01	-8.489137e+01
2.500000e-07	-5.270608e-06	-1.283229e-09	-3.752730e+01	-8.515535e+01
2.600000e-07	-5.260740e-06	-1.402203e-09	-3.745704e+01	-8.541570e+01
2.700000e-07	-5.250218e-06	-1.374007e-09	-3.738212e+01	-8.566513e+01
2.800000e-07	-5.239173e-06	-1.299535e-09	-3.730348e+01	-8.589678e+01
2.900000e-07	-5.227739e-06	-1.322130e-09	-3.722207e+01	-8.610446e+01
3.000000e-07	-5.215948e-06	-1.392211e-09	-3.713811e+01	-8.628282e+01
3.100000e-07	-5.203716e-06	-1.304467e-09	-3.705102e+01	-8.642752e+01
3.200000e-07	-5.191136e-06	-1.289203e-09	-3.696145e+01	-8.653536e+01
3.300000e-07	-5.178143e-06	-1.368197e-09	-3.686894e+01	-8.660435e+01
3.400000e-07	-5.164761e-06	-1.380124e-09	-3.677366e+01	-8.663372e+01
3.500000e-07	-5.151069e-06	-1.298784e-09	-3.667617e+01	-8.662387e+01
3.600000e-07	-5.136946e-06	-1.340484e-09	-3.657561e+01	-8.657634e+01
3.700000e-07	-5.122336e-06	-1.354138e-09	-3.647159e+01	-8.649364e+01
3.800000e-07	-5.107263e-06	-1.296446e-09	-3.636427e+01	-8.637914e+01
3.900000e-07	-5.091572e-06	-1.292351e-09	-3.625255e+01	-8.623685e+01
4.000000e-07	-5.075332e-06	-1.347399e-09	-3.613691e+01	-8.607123e+01
4.100000e-07	-5.058638e-06	-1.317822e-09	-3.601805e+01	-8.588701e+01
4.200000e-07	-5.041564e-06	-1.292573e-09	-3.589648e+01	-8.568894e+01
4.300000e-07	-5.024316e-06	-1.349804e-09	-3.577368e+01	-8.548161e+01
4.400000e-07	-5.006830e-06	-1.336482e-09	-3.564917e+01	-8.526928e+01
4.500000e-07	-4.989028e-06	-1.284635e-09	-3.552242e+01	-8.505572e+01
4.600000e-07	-4.970840e-06	-1.286439e-09	-3.539292e+01	-8.484408e+01
4.700000e-07	-4.952279e-06	-1.319900e-09	-3.526076e+01	-8.463683e+01
4.800000e-07	-4.933352e-06	-1.283810e-09	-3.512600e+01	-8.443571e+01
4.900000e-07	-4.914042e-06	-1.285920e-09	-3.498851e+01	-8.424170e+01
5.000000e-07	-4.894344e-06	-1.288904e-09	-3.484826e+01	-8.405507e+01
5.100000e-07	-4.874446e-06	-1.292480e-09	-3.470659e+01	-8.387544e+01
5.200000e-07	-4.854409e-06	-1.282876e-09	-3.456392e+01	-8.370187e+01
5.300000e-07	-4.834154e-06	-1.296761e-09	-3.441970e+01	-8.353299e+01
5.400000e-07	-4.813528e-06	-1.267313e-09	-3.427284e+01	-8.336707e+01
5.500000e-07	-4.792503e-06	-1.272514e-09	-3.412314e+01	-8.320224e+01
5.600000e-07	-4.771178e-06	-1.281938e-09	-3.397130e+01	-8.303655e+01
5.700000e-07	-4.749573e-06	-1.280593e-09	-3.381748e+01	-8.286813e+01
5.800000e-07	-4.727684e-06	-1.251776e-09	-3.366162e+01	-8.269532e+01
5.900000e-07	-4.705400e-06	-1.258968e-09	-3.350296e+01	-8.251673e+01
6.000000e-07	-4.682686e-06	-1.259186e-09	-3.334123e+01	-8.233134e+01
6.100000e-07	-4.659617e-06	-1.263476e-09	-3.317698e+01	-8.213854e+01
6.200000e-07	-4.636287e-06	-1.253614e-09	-3.301087e+01	-8.193815e+01
6.300000e-07	-4.612748e-06	-1.252511e-09	-3.284326e+01	-8.173040e+01
6.400000e-07	-4.588953e-06	-1.258805e-09	-3.267385e+01	-8.151593e+01
6.500000e-07	-4.564976e-06	-1.271047e-09	-3.250312e+01	-8.129572e+01
6.600000e-07	-4.540846e-06	-1.254709e-09	-3.233132e+01	-8.107103e+01
6.700000e-07	-4.516400e-06	-1.236703e-09	-3.215726e+01	-8.084330e+01
6.800000e-07	-4.491459e-06	-1.236694e-09	-3.197967e+01	-8.061410e+01
6.900000e-07	-4.466009e-06	-1.239077e-09	-3.179847e+01	-8.038500e+01
7.000000e-07	-4.439983e-06	-1.233626e-09	-3.161316e+01	-8.015751e+01
7.100000e-07	-4.413382e-06	-1.227492e-09	-3.142376e+01	-7.993298e+01
7.200000e-07	-4.386366e-06	-1.233511e-09	-3.123140e+01	-7.971255e+01
7.300000e-07	-4.358994e-06	-1.241361e-09	-3.103651e+01	-7.949709e+01
7.400000e-07	-4.331378e-06	-1.245159e-09	-3.083988e+01	-7.928718e+01
7.500000e-07	-4.303579e-06	-1.228262e-09	-3.064195e+01	-7.908306e+01
7.600000e-07	-4.275565e-06	-1.218716e-09	-3.044248e+01	-7.888467e+01
7.700000e-07	-4.247410e-06	-1.213801e-09	-3.024202e+01	-7.869164e+01
7.800000e-07	-4.219029e-06	-1.215023e-09	-3.003995e+01	-7.850333e+01
7.900000e-07	-4.190287e-06	-1.202034e-09	-2.983530e+01	-7.831890e+01
8.000000e-07	-4.161247e-06	-1.201745e-09	-2.962853e+01	-7.813733e+01
8.100000e-07	-4.131891e-06	-1.202046e-09	-2.941951e+01	-7.795749e+01
8.200000e-07	-4.102228e-06	-1.208075e-09	-2.920831e+01	-7.777821e+01
8.300000e-07	-4.072238e-06	-1.199594e-09	-2.899478e+01	-7.759833e+01
8.400000e-07	-4.042011e-06	-1.193635e-09	-2.877955e+01	-7.741675e+01
8.500000e-07	-4.011513e-06	-1.183927e-09	-2.856240e+01	-7.723250e+01
8.600000e-07	-3.980727e-06	-1.185658e-09	-2.834321e+01	-7.704474e+01
8.700000e-07	-3.949729e-06	-1.176245e-09	-2.812250e+01	-7.685278e+01
8.800000e-07	-3.918496e-06	-1.168527e-09	-2.790011e+01	-7.665614e+01
8.900000e-07	-3.887044e-06	-1.161603e-09	-2.767617e+01	-7.645450e+01
9.000000e-07	-3.855397e-06	-1.165802e-09	-2.745084e+01	-7.624771e+01
9.100000e-07	-3.823606e-06	-1.165124e-09	-2.722449e+01	-7.603576e+01
9.200000e-07	-3.791587e-06	-1.165029e-09	-2.699651e+01	-7.581876e+01
9.300000e-07	-3.759321e-06	-1.162307e-09	-2.676677e+01	-7.559692e+01
9.400000e-07	-3.726831e-06	-1.164010e-09	-2.653544e+01	-7.537048e+01
9.500000e-07	-3.694008e-06	-1.158665e-09	-2.630174e+01	-7.513973e+01
9.600000e-07	-3.660863e-06	-1.144216e-09	-2.606574e+01	-7.490493e+01
9.700000e-07	-3.627341e-06	-1.127926e-09	-2.582706e+01	-7.466634e+01
9.800000e-07	-3.593293e-06	-1.120117e-09	-2.558464e+01	-7.442415e+01
9.900000e-07	-3.558712e-06	-1.122982e-09	-2.533841e+01	-7.417851e+01
1.000000e-06	-3.523802e-06	-1.127443e-09	-2.508985e+01	-7.392950e+01
1.010000e-06	-3.488730e-06	-1.132205e-09	-2.484013e+01	-7.367718e+01
1.020000e-06	-3.453303e-06	-1.134044e-09	-2.458789e+01	-7.342155e+01
1.030000e-06	-3.417591e-06	-1.131989e-09	-2.433362e+01	-7.316261e+01
1.040000e-06	-3.381826e-06	-1.119283e-09	-2.407896e+01	-7.290035e+01
1.050000e-06	-3.345943e-06	-1.101309e-09	-2.382348e+01	-7.263481e+01
1.060000e-06	-3.309854e-06	-1.082388e-09	-2.356652e+01	-7.236606e+01
1.070000e-06	-3.273576e-06	-1.075940e-09	-2.330822e+01	-7.209425e+01
1.080000e-06	-3.237113e-06	-1.077887e-09	-2.304859e+01	-7.181961e+01
1.090000e-06	-3.200477e-06	-1.088291e-09	-2.278775e+01	-7.154247e+01
1.100000e-06	-3.163560e-06	-1.094668e-09	-2.252489e+01	-7.126325e+01
1.110000e-06	-3.126334e-06	-1.098750e-09	-2.225983e+01	-7.098244e+01
1.120000e-06	-3.088875e-06	-1.089330e-09	-2.199312e+01	-7.070061e+01
1.130000e-06	-3.051222e-06	-1.074848e-09	-2.172503e+01	-7.041840e+01
1.140000e-06	-3.013425e-06	-1.057534e-09	-2.145591e+01	-7.013642e+01
1.150000e-06	-2.975469e-06	-1.046917e-09	-2.118566e+01	-6.985530e+01
1.160000e-06	-2.937327e-06	-1.039787e-09	-2.091409e+01	-6.957562e+01
1.170000e-06	-2.898875e-06	-1.042169e-09	-2.064030e+01	-6.929787e+01
1.180000e-06	-2.860110e-06	-1.048808e-09	-2.036429e+01	-6.902241e+01
1.190000e-06	-2.821181e-06	-1.055897e-09	-2.008711e+01	-6.874946e+01
1.200000e-06	-2.782169e-06	-1.056982e-09	-1.980934e+01	-6.847909e+01
1.210000e-06	-2.743026e-06	-1.051923e-09	-1.953065e+01	-6.821117e+01
1.220000e-06	-2.703640e-06	-1.041881e-09	-1.925021e+01	-6.794537e+01
1.230000e-06	-2.664045e-06	-1.030649e-09	-1.896829e+01	-6.768120e+01
1.240000e-06	-2.624296e-06	-1.019819e-09	-1.868527e+01	-6.741798e+01
1.250000e-06	-2.584451e-06	-1.017683e-09	-1.840157e+01	-6.715492e+01
1.260000e-06	-2.544556e-06	-1.023156e-09	-1.811752e+01	-6.689107e+01
1.270000e-06	-2.504562e-06	-1.026432e-09	-1.783275e+01	-6.662544e+01
1.280000e-06	-2.464477e-06	-1.025893e-09	-1.754734e+01	-6.635701e+01
1.290000e-06	-2.424233e-06	-1.020396e-09	-1.726080e+01	-6.608474e+01
1.300000e-06	-2.383842e-06	-1.009484e-09	-1.697321e+01	-6.580770e+01
1.310000e-06	-2.343299e-06	-9.939494e-10	-1.668454e+01	-6.552502e+01
1.320000e-06	-2.302526e-06	-9.831876e-10	-1.639423e+01	-6.523599e+01
1.330000e-06	-2.261493e-06	-9.825119e-10	-1.610208e+01	-6.494005e+01
1.340000e-06	-2.220205e-06	-9.885487e-10	-1.580810e+01	-6.463683e+01
1.350000e-06	-2.178673e-06	-9.922139e-10	-1.551238e+01	-6.432616e+01
1.360000e-06	-2.136837e-06	-9.907008e-10	-1.521451e+01	-6.400805e+01
1.370000e-06	-2.094762e-06	-9.835664e-10	-1.491493e+01	-6.368270e+01
1.380000e-06	-2.052392e-06	-9.730871e-10	-1.461326e+01	-6.335048e+01
1.390000e-06	-2.009758e-06	-9.604330e-10	-1.430970e+01	-6.301186e+01
1.400000e-06	-1.966909e-06	-9.522206e-10	-1.400461e+01	-6.266741e+01
1.410000e-06	-1.923778e-06	-9.496394e-10	-1.369751e+01	-6.231777e+01
1.420000e-06	-1.880480e-06	-9.514185e-10	-1.338922e+01	-6.196357e+01
1.430000e-06	-1.836972e-06	-9.517080e-10	-1.307944e+01	-6.160540e+01
1.440000e-06	-1.793288e-06	-9.475658e-10	-1.276840e+01	-6.124377e+01
1.450000e-06	-1.749608e-06	-9.390379e-10	-1.245740e+01	-6.087911e+01
1.460000e-06	-1.705905e-06	-9.307553e-10	-1.214623e+01	-6.051166e+01
1.470000e-06	-1.662084e-06	-9.209167e-10	-1.183421e+01	-6.014154e+01
1.480000e-06	-1.618120e-06	-9.097117e-10	-1.152119e+01	-5.976871e+01
1.490000e-06	-1.574094e-06	-9.031113e-10	-1.120772e+01	-5.939293e+01
1.500000e-06	-1.530042e-06	-9.020937e-10	-1.089407e+01	-5.901383e+01
1.510000e-06	-1.485987e-06	-9.009066e-10	-1.058039e+01	-5.863090e+01
1.520000e-06	-1.441874e-06	-8.958132e-10	-1.026630e+01	-5.824353e+01
1.530000e-06	-1.397691e-06	-8.857129e-10	-9.951712e+00	-5.785103e+01
1.540000e-06	-1.353484e-06	-8.736081e-10	-9.636952e+00	-5.745265e+01
1.550000e-06	-1.309156e-06	-8.615128e-10	-9.321330e+00	-5.704768e+01
1.560000e-06	-1.264766e-06	-8.501648e-10	-9.005272e+00	-5.663542e+01
1.570000e-06	-1.220325e-06	-8.441419e-10	-8.688844e+00	-5.621522e+01
1.580000e-06	-1.175853e-06	-8.425758e-10	-8.372198e+00	-5.578655e+01
1.590000e-06	-1.131282e-06	-8.419954e-10	-8.054854e+00	-5.534897e+01
1.600000e-06	-1.086524e-06	-8.398961e-10	-7.736168e+00	-5.490216e+01
1.610000e-06	-1.041663e-06	-8.314050e-10	-7.416750e+00	-5.444593e+01
1.620000e-06	-9.966749e-07	-8.191220e-10	-7.096433e+00	-5.398020e+01
1.630000e-06	-9.517184e-07	-8.053829e-10	-6.776338e+00	-5.350494e+01
1.640000e-06	-9.067864e-07	-7.940779e-10	-6.456418e+00	-5.302024e+01
1.650000e-06	-8.617003e-07	-7.865446e-10	-6.135399e+00	-5.252619e+01
1.660000e-06	-8.165121e-07	-7.799720e-10	-5.813655e+00	-5.202286e+01
1.670000e-06	-7.711805e-07	-7.754182e-10	-5.490889e+00	-5.151031e+01
1.680000e-06	-7.258190e-07	-7.708352e-10	-5.167910e+00	-5.098849e+01
1.690000e-06	-6.804935e-07	-7.616763e-10	-4.845187e+00	-5.045725e+01
1.700000e-06	-6.351067e-07	-7.493144e-10	-4.522028e+00	-4.991627e+01
1.710000e-06	-5.897058e-07	-7.396039e-10	-4.198769e+00	-4.936509e+01
1.720000e-06	-5.442147e-07	-7.331217e-10	-3.874867e+00	-4.880303e+01
1.730000e-06	-4.985871e-07	-7.253632e-10	-3.549994e+00	-4.822924e+01
1.740000e-06	-4.529692e-07	-7.149897e-10	-3.225190e+00	-4.764268e+01
1.750000e-06	-4.073467e-07	-7.071224e-10	-2.900353e+00	-4.704214e+01
1.760000e-06	-3.616839e-07	-6.982593e-10	-2.575229e+00	-4.642627e+01
1.770000e-06	-3.159589e-07	-6.874262e-10	-2.249662e+00	-4.579360e+01
1.780000e-06	-2.701720e-07	-6.751777e-10	-1.923654e+00	-4.514259e+01
1.790000e-06	-2.243651e-07	-6.643767e-10	-1.597504e+00	-4.447167e+01
1.800000e-06	-1.786135e-07	-6.545031e-10	-1.271747e+00	-4.377928e+01
1.810000e-06	-1.329088e-07	-6.443909e-10	-9.463250e-01	-4.306392e+01
1.820000e-06	-8.716175e-08	-6.328718e-10	-6.206011e-01	-4.232420e+01
1.830000e-06	-4.140930e-08	-6.199220e-10	-2.948387e-01	-4.155886e+01
1.840000e-06	4.366766e-09	-6.076158e-10	3.109185e-02	-4.076679e+01
1.850000e-06	5.011251e-08	-5.970851e-10	3.568065e-01	-3.994710e+01
1.860000e-06	9.583784e-08	-5.838272e-10	6.823758e-01	-3.909906e+01
1.870000e-06	1.415444e-07	-5.707034e-10	1.007812e+00	-3.822218e+01
1.880000e-06	1.872314e-07	-5.608939e-10	1.333108e+00	-3.731614e+01
1.890000e-06	2.329559e-07	-5.491066e-10	1.658671e+00	-3.638080e+01
1.900000e-06	2.787139e-07	-5.311306e-10	1.984473e+00	-3.541618e+01
1.910000e-06	3.244711e-07	-5.104913e-10	2.310270e+00	-3.442242e+01
1.920000e-06	3.701494e-07	-4.935308e-10	2.635504e+00	-3.339976e+01
1.930000e-06	4.157725e-07	-4.802710e-10	2.960345e+00	-3.234848e+01
1.940000e-06	4.614343e-07	-4.660276e-10	3.285462e+00	-3.126890e+01
1.950000e-06	5.070761e-07	-4.490377e-10	3.610437e+00	-3.016131e+01
1.960000e-06	5.526727e-07	-4.339036e-10	3.935090e+00	-2.902598e+01
1.970000e-06	5.981591e-07	-4.198418e-10	4.258957e+00	-2.786311e+01
1.980000e-06	6.434579e-07	-4.024628e-10	4.581490e+00	-2.667282e+01
1.990000e-06	6.888600e-07	-3.803079e-10	4.904758e+00	-2.545515e+01
2.000000e-06	7.342744e-07	-3.590889e-10	5.228114e+00	-2.421005e+01
2.010000e-06	7.793987e-07	-3.399376e-10	5.549403e+00	-2.293742e+01
2.020000e-06	8.244999e-07	-3.200768e-10	5.870529e+00	-2.163707e+01
2.030000e-06	8.697022e-07	-2.997741e-10	6.192374e+00	-2.030879e+01
2.040000e-06	9.148414e-07	-2.803493e-10	6.513770e+00	-1.895235e+01
2.050000e-06	9.597915e-07	-2.619706e-10	6.833820e+00	-1.756756e+01
2.060000e-06	1.004640e-06	-2.426328e-10	7.153147e+00	-1.615423e+01
2.070000e-06	1.049522e-06	-2.166867e-10	7.472709e+00	-1.471230e+01
2.080000e-06	1.094269e-06	-1.875248e-10	7.791313e+00	-1.324176e+01
2.090000e-06	1.138883e-06	-1.620498e-10	8.108969e+00	-1.174276e+01
2.100000e-06	1.183450e-06	-1.403122e-10	8.426292e+00	-1.021557e+01
2.110000e-06	1.227919e-06	-1.159653e-10	8.742920e+00	-8.660614e+00
2.120000e-06	1.272286e-06	-8.982679e-11	9.058813e+00	-7.078467e+00
2.130000e-06	1.316536e-06	-6.740412e-11	9.373882e+00	-5.469864e+00
2.140000e-06	1.360700e-06	-4.689828e-11	9.688335e+00	-3.835685e+00
2.150000e-06	1.404863e-06	-2.313263e-11	1.000278e+01	-2.176946e+00
2.160000e-06	1.449013e-06	3.807684e-12	1.031713e+01	-4.947858e-01
2.170000e-06	1.493083e-06	3.186083e-11	1.063091e+01	1.209552e+00
2.180000e-06	1.537075e-06	5.838340e-11	1.094414e+01	2.934733e+00
2.190000e-06	1.581039e-06	8.288014e-11	1.125717e+01	4.679352e+00
2.200000e-06	1.624974e-06	1.082740e-10	1.156999e+01	6.441943e+00
2.210000e-06	1.668846e-06	1.332712e-10	1.188236e+01	8.220989e+00
2.220000e-06	1.712656e-06	1.589531e-10	1.219429e+01	1.001493e+01
2.230000e-06	1.756385e-06	1.884370e-10	1.250565e+01	1.182217e+01
2.240000e-06	1.799942e-06	2.209738e-10	1.281578e+01	1.364105e+01
2.250000e-06	1.843326e-06	2.534474e-10	1.312468e+01	1.546988e+01
2.260000e-06	1.886696e-06	2.849517e-10	1.343348e+01	1.730688e+01
2.270000e-06	1.929984e-06	3.144967e-10	1.374169e+01	1.915023e+01
2.280000e-06	1.972937e-06	3.425834e-10	1.404752e+01	2.099798e+01
2.290000e-06	2.015568e-06	3.691680e-10	1.435107e+01	2.284810e+01
2.300000e-06	2.058061e-06	3.936736e-10	1.465362e+01	2.469844e+01
2.310000e-06	2.100282e-06	4.204062e-10	1.495424e+01	2.654673e+01
2.320000e-06	2.142274e-06	4.525603e-10	1.525322e+01	2.839056e+01
2.330000e-06	2.184062e-06	4.845953e-10	1.555076e+01	3.022743e+01
2.340000e-06	2.225513e-06	5.107293e-10	1.584590e+01	3.205471e+01
2.350000e-06	2.266723e-06	5.354607e-10	1.613931e+01	3.386969e+01
2.360000e-06	2.307658e-06	5.645964e-10	1.643077e+01	3.566960e+01
2.370000e-06	2.348276e-06	5.950966e-10	1.671998e+01	3.745164e+01
2.380000e-06	2.388693e-06	6.214575e-10	1.700775e+01	3.921303e+01
2.390000e-06	2.428982e-06	6.443285e-10	1.729461e+01	4.095104e+01
2.400000e-06	2.469150e-06	6.687712e-10	1.758061e+01	4.266303e+01
2.410000e-06	2.509274e-06	6.941318e-10	1.786630e+01	4.434651e+01
2.420000e-06	2.549236e-06	7.193807e-10	1.815084e+01	4.599920e+01
2.430000e-06	2.589089e-06	7.458362e-10	1.843459e+01	4.761902e+01
2.440000e-06	2.628896e-06	7.723204e-10	1.871803e+01	4.920416e+01
2.450000e-06	2.668539e-06	7.973964e-10	1.900028e+01	5.075310e+01
2.460000e-06	2.707995e-06	8.232103e-10	1.928122e+01	5.226463e+01
2.470000e-06	2.747403e-06	8.456413e-10	1.956181e+01	5.373783e+01
2.480000e-06	2.786711e-06	8.642218e-10	1.984169e+01	5.517210e+01
2.490000e-06	2.825725e-06	8.816877e-10	2.011947e+01	5.656711e+01
2.500000e-06	2.864411e-06	9.009071e-10	2.039492e+01	5.792282e+01
2.510000e-06	2.902948e-06	9.230693e-10	2.066930e+01	5.923942e+01
2.520000e-06	2.941351e-06	9.465150e-10	2.094274e+01	6.051726e+01
2.530000e-06	2.979478e-06	9.720174e-10	2.121420e+01	6.175690e+01
2.540000e-06	3.017427e-06	9.936369e-10	2.148441e+01	6.295895e+01
2.550000e-06	3.055189e-06	1.010483e-09	2.175328e+01	6.412412e+01
2.560000e-06	3.092719e-06	1.020277e-09	2.202049e+01	6.525313e+01
2.570000e-06	3.130043e-06	1.028279e-09	2.228624e+01	6.634669e+01
2.580000e-06	3.167150e-06	1.040232e-09	2.255045e+01	6.740546e+01
2.590000e-06	3.203994e-06	1.057596e-09	2.281279e+01	6.843005e+01
2.600000e-06	3.240641e-06	1.078339e-09	2.307372e+01	6.942096e+01
2.610000e-06	3.276978e-06	1.099392e-09	2.333244e+01	7.037865e+01
2.620000e-06	3.313063e-06	1.116878e-09	2.358937e+01	7.130348e+01
2.630000e-06	3.349108e-06	1.125096e-09	2.384601e+01	7.219577e+01
2.640000e-06	3.385043e-06	1.128114e-09	2.410187e+01	7.305577e+01
2.650000e-06	3.420802e-06	1.131993e-09	2.435648e+01	7.388376e+01
2.660000e-06	3.456333e-06	1.137644e-09	2.460946e+01	7.468000e+01
2.670000e-06	3.491680e-06	1.147960e-09	2.486114e+01	7.544482e+01
2.680000e-06	3.526768e-06	1.163263e-09	2.511097e+01	7.617862e+01
2.690000e-06	3.561497e-06	1.181417e-09	2.535824e+01	7.688189e+01
2.700000e-06	3.595829e-06	1.198554e-09	2.560269e+01	7.755523e+01
2.710000e-06	3.629731e-06	1.207290e-09	2.584408e+01	7.819940e+01
2.720000e-06	3.663210e-06	1.210842e-09	2.608245e+01	7.881524e+01
2.730000e-06	3.696200e-06	1.215619e-09	2.631734e+01	7.940376e+01
2.740000e-06	3.728853e-06	1.223846e-09	2.654984e+01	7.996603e+01
2.750000e-06	3.761321e-06	1.230274e-09	2.678101e+01	8.050324e+01
2.760000e-06	3.793497e-06	1.235683e-09	2.701011e+01	8.101660e+01
2.770000e-06	3.825481e-06	1.243805e-09	2.723784e+01	8.150736e+01
2.780000e-06	3.857351e-06	1.257558e-09	2.746476e+01	8.197673e+01
2.790000e-06	3.888989e-06	1.268158e-09	2.769003e+01	8.242587e+01
2.800000e-06	3.920450e-06	1.270334e-09	2.791403e+01	8.285584e+01
2.810000e-06	3.951750e-06	1.272084e-09	2.813689e+01	8.326756e+01
2.820000e-06	3.982662e-06	1.276488e-09	2.835698e+01	8.366181e+01
2.830000e-06	4.013224e-06	1.280168e-09	2.857459e+01	8.403920e+01
2.840000e-06	4.043585e-06	1.281442e-09	2.879076e+01	8.440014e+01
2.850000e-06	4.073589e-06	1.282821e-09	2.900440e+01	8.474491e+01
2.860000e-06	4.103388e-06	1.288587e-09	2.921657e+01	8.507358e+01
2.870000e-06	4.133004e-06	1.298728e-09	2.942744e+01	8.538613e+01
2.880000e-06	4.162338e-06	1.305646e-09	2.963630e+01	8.568243e+01
2.890000e-06	4.191432e-06	1.307776e-09	2.984345e+01	8.596227e+01
2.900000e-06	4.220217e-06	1.312247e-09	3.004840e+01	8.622547e+01
