# Temperatura_=_-1.31
# Concentracion g/m^3_=_4090.0
# C_Vs_to_Am_M_A/Vsm_=_65563218390.804596
# pendiente_HvsI_1/m_=_3716.3
# ordenada_HvsI_A/m_=_1297.0
# frecuencia_Hz_=_135074.2308944909

Tiempo_(s)	Campo_(V.s)	Magnetizacion_(V.s)	Campo_(kA/m)	Magnetizacion_(A/m)
0.000000e+00	-5.374092e-06	-2.197975e-09	-3.838997e+01	-1.461750e+02
1.000000e-08	-5.374259e-06	-2.191912e-09	-3.839117e+01	-1.460462e+02
2.000000e-08	-5.374235e-06	-2.188436e-09	-3.839099e+01	-1.458983e+02
3.000000e-08	-5.373997e-06	-2.186429e-09	-3.838930e+01	-1.457335e+02
4.000000e-08	-5.373436e-06	-2.184831e-09	-3.838529e+01	-1.455547e+02
5.000000e-08	-5.372428e-06	-2.184608e-09	-3.837809e+01	-1.453661e+02
6.000000e-08	-5.370893e-06	-2.183799e-09	-3.836712e+01	-1.451724e+02
7.000000e-08	-5.368733e-06	-2.188712e-09	-3.835169e+01	-1.449791e+02
8.000000e-08	-5.365851e-06	-2.203865e-09	-3.833111e+01	-1.447924e+02
9.000000e-08	-5.362273e-06	-2.198390e-09	-3.830555e+01	-1.446184e+02
1.000000e-07	-5.358237e-06	-2.162102e-09	-3.827672e+01	-1.444634e+02
1.100000e-07	-5.353998e-06	-2.170145e-09	-3.824643e+01	-1.443333e+02
1.200000e-07	-5.349623e-06	-2.185415e-09	-3.821518e+01	-1.442337e+02
1.300000e-07	-5.344991e-06	-2.206973e-09	-3.818209e+01	-1.441691e+02
1.400000e-07	-5.339925e-06	-2.155305e-09	-3.814590e+01	-1.441431e+02
1.500000e-07	-5.334540e-06	-2.152884e-09	-3.810743e+01	-1.441580e+02
1.600000e-07	-5.328842e-06	-2.209697e-09	-3.806673e+01	-1.442148e+02
1.700000e-07	-5.322637e-06	-2.214444e-09	-3.802240e+01	-1.443130e+02
1.800000e-07	-5.315978e-06	-2.186398e-09	-3.797484e+01	-1.444507e+02
1.900000e-07	-5.308998e-06	-2.165290e-09	-3.792497e+01	-1.446244e+02
2.000000e-07	-5.301784e-06	-2.238741e-09	-3.787344e+01	-1.448291e+02
2.100000e-07	-5.294292e-06	-2.239325e-09	-3.781992e+01	-1.450589e+02
2.200000e-07	-5.286520e-06	-2.233760e-09	-3.776440e+01	-1.453067e+02
2.300000e-07	-5.278503e-06	-2.245145e-09	-3.770713e+01	-1.455646e+02
2.400000e-07	-5.270191e-06	-2.305015e-09	-3.764775e+01	-1.458243e+02
2.500000e-07	-5.261251e-06	-2.291338e-09	-3.758389e+01	-1.460775e+02
2.600000e-07	-5.251653e-06	-2.275485e-09	-3.751533e+01	-1.463157e+02
2.700000e-07	-5.241549e-06	-2.290204e-09	-3.744315e+01	-1.465312e+02
2.800000e-07	-5.230897e-06	-2.299222e-09	-3.736706e+01	-1.467168e+02
2.900000e-07	-5.219752e-06	-2.250237e-09	-3.728744e+01	-1.468665e+02
3.000000e-07	-5.208140e-06	-2.231275e-09	-3.720449e+01	-1.469754e+02
3.100000e-07	-5.196116e-06	-2.271125e-09	-3.711860e+01	-1.470400e+02
3.200000e-07	-5.183836e-06	-2.281920e-09	-3.703087e+01	-1.470583e+02
3.300000e-07	-5.171196e-06	-2.250821e-09	-3.694058e+01	-1.470299e+02
3.400000e-07	-5.158108e-06	-2.237287e-09	-3.684709e+01	-1.469555e+02
3.500000e-07	-5.144574e-06	-2.266357e-09	-3.675040e+01	-1.468377e+02
3.600000e-07	-5.130607e-06	-2.269513e-09	-3.665063e+01	-1.466798e+02
3.700000e-07	-5.116336e-06	-2.249825e-09	-3.654868e+01	-1.464865e+02
3.800000e-07	-5.101558e-06	-2.228389e-09	-3.644312e+01	-1.462631e+02
3.900000e-07	-5.086013e-06	-2.229714e-09	-3.633207e+01	-1.460154e+02
4.000000e-07	-5.069904e-06	-2.233945e-09	-3.621699e+01	-1.457496e+02
4.100000e-07	-5.053444e-06	-2.244719e-09	-3.609941e+01	-1.454717e+02
4.200000e-07	-5.036654e-06	-2.227454e-09	-3.597947e+01	-1.451874e+02
4.300000e-07	-5.019607e-06	-2.218723e-09	-3.585770e+01	-1.449019e+02
4.400000e-07	-5.002217e-06	-2.223031e-09	-3.573347e+01	-1.446197e+02
4.500000e-07	-4.984526e-06	-2.245277e-09	-3.560710e+01	-1.443444e+02
4.600000e-07	-4.966537e-06	-2.219751e-09	-3.547860e+01	-1.440784e+02
4.700000e-07	-4.948192e-06	-2.197819e-09	-3.534755e+01	-1.438234e+02
4.800000e-07	-4.929474e-06	-2.199341e-09	-3.521383e+01	-1.435796e+02
4.900000e-07	-4.910411e-06	-2.223167e-09	-3.507766e+01	-1.433466e+02
5.000000e-07	-4.891033e-06	-2.204063e-09	-3.493923e+01	-1.431228e+02
5.100000e-07	-4.871382e-06	-2.186054e-09	-3.479885e+01	-1.429062e+02
5.200000e-07	-4.851532e-06	-2.188412e-09	-3.465705e+01	-1.426938e+02
5.300000e-07	-4.831482e-06	-2.212165e-09	-3.451382e+01	-1.424825e+02
5.400000e-07	-4.811171e-06	-2.208885e-09	-3.436873e+01	-1.422691e+02
5.500000e-07	-4.790462e-06	-2.195887e-09	-3.422079e+01	-1.420501e+02
5.600000e-07	-4.769308e-06	-2.182397e-09	-3.406968e+01	-1.418225e+02
5.700000e-07	-4.747817e-06	-2.186861e-09	-3.391616e+01	-1.415837e+02
5.800000e-07	-4.726130e-06	-2.182931e-09	-3.376124e+01	-1.413315e+02
5.900000e-07	-4.704250e-06	-2.164879e-09	-3.360494e+01	-1.410645e+02
6.000000e-07	-4.682120e-06	-2.145832e-09	-3.344685e+01	-1.407819e+02
6.100000e-07	-4.659608e-06	-2.151432e-09	-3.328604e+01	-1.404837e+02
6.200000e-07	-4.636594e-06	-2.166874e-09	-3.312164e+01	-1.401706e+02
6.300000e-07	-4.613205e-06	-2.162711e-09	-3.295456e+01	-1.398441e+02
6.400000e-07	-4.589562e-06	-2.147716e-09	-3.278566e+01	-1.395061e+02
6.500000e-07	-4.565693e-06	-2.142803e-09	-3.261515e+01	-1.391590e+02
6.600000e-07	-4.541623e-06	-2.143828e-09	-3.244321e+01	-1.388055e+02
6.700000e-07	-4.517313e-06	-2.129749e-09	-3.226955e+01	-1.384485e+02
6.800000e-07	-4.492664e-06	-2.114465e-09	-3.209347e+01	-1.380910e+02
6.900000e-07	-4.467584e-06	-2.107380e-09	-3.191431e+01	-1.377356e+02
7.000000e-07	-4.442028e-06	-2.118372e-09	-3.173175e+01	-1.373848e+02
7.100000e-07	-4.415934e-06	-2.120136e-09	-3.154534e+01	-1.370406e+02
7.200000e-07	-4.389300e-06	-2.113332e-09	-3.135509e+01	-1.367047e+02
7.300000e-07	-4.362257e-06	-2.099895e-09	-3.116190e+01	-1.363780e+02
7.400000e-07	-4.334884e-06	-2.099923e-09	-3.096636e+01	-1.360610e+02
7.500000e-07	-4.307219e-06	-2.093277e-09	-3.076874e+01	-1.357535e+02
7.600000e-07	-4.279351e-06	-2.082678e-09	-3.056966e+01	-1.354549e+02
7.700000e-07	-4.251296e-06	-2.070690e-09	-3.036925e+01	-1.351641e+02
7.800000e-07	-4.223072e-06	-2.075065e-09	-3.016763e+01	-1.348795e+02
7.900000e-07	-4.194578e-06	-2.075999e-09	-2.996408e+01	-1.345994e+02
8.000000e-07	-4.165755e-06	-2.071138e-09	-2.975819e+01	-1.343218e+02
8.100000e-07	-4.136648e-06	-2.056813e-09	-2.955026e+01	-1.340447e+02
8.200000e-07	-4.107248e-06	-2.051765e-09	-2.934024e+01	-1.337663e+02
8.300000e-07	-4.077587e-06	-2.047966e-09	-2.912835e+01	-1.334847e+02
8.400000e-07	-4.047637e-06	-2.042765e-09	-2.891440e+01	-1.331984e+02
8.500000e-07	-4.017423e-06	-2.030694e-09	-2.869857e+01	-1.329062e+02
8.600000e-07	-3.986976e-06	-2.026291e-09	-2.848107e+01	-1.326073e+02
8.700000e-07	-3.956208e-06	-2.027380e-09	-2.826128e+01	-1.323013e+02
8.800000e-07	-3.925174e-06	-2.026945e-09	-2.803959e+01	-1.319881e+02
8.900000e-07	-3.893941e-06	-2.017618e-09	-2.781647e+01	-1.316680e+02
9.000000e-07	-3.862415e-06	-2.007537e-09	-2.759127e+01	-1.313414e+02
9.100000e-07	-3.830687e-06	-2.002306e-09	-2.736462e+01	-1.310094e+02
9.200000e-07	-3.798862e-06	-1.999088e-09	-2.713727e+01	-1.306728e+02
9.300000e-07	-3.766859e-06	-1.993820e-09	-2.690866e+01	-1.303327e+02
9.400000e-07	-3.734555e-06	-1.988073e-09	-2.667790e+01	-1.299901e+02
9.500000e-07	-3.701947e-06	-1.987604e-09	-2.644496e+01	-1.296461e+02
9.600000e-07	-3.669145e-06	-1.986989e-09	-2.621064e+01	-1.293015e+02
9.700000e-07	-3.636015e-06	-1.982986e-09	-2.597397e+01	-1.289569e+02
9.800000e-07	-3.602452e-06	-1.972210e-09	-2.573421e+01	-1.286127e+02
9.900000e-07	-3.568489e-06	-1.963516e-09	-2.549160e+01	-1.282691e+02
1.000000e-06	-3.534028e-06	-1.955804e-09	-2.524542e+01	-1.279259e+02
1.010000e-06	-3.499133e-06	-1.952520e-09	-2.499615e+01	-1.275829e+02
1.020000e-06	-3.463903e-06	-1.950444e-09	-2.474448e+01	-1.272394e+02
1.030000e-06	-3.428406e-06	-1.951044e-09	-2.449091e+01	-1.268947e+02
1.040000e-06	-3.392748e-06	-1.947255e-09	-2.423618e+01	-1.265479e+02
1.050000e-06	-3.356963e-06	-1.943050e-09	-2.398055e+01	-1.261982e+02
1.060000e-06	-3.321057e-06	-1.933601e-09	-2.372406e+01	-1.258446e+02
1.070000e-06	-3.284946e-06	-1.923770e-09	-2.346610e+01	-1.254863e+02
1.080000e-06	-3.248708e-06	-1.911101e-09	-2.320723e+01	-1.251227e+02
1.090000e-06	-3.212365e-06	-1.901296e-09	-2.294761e+01	-1.247530e+02
1.100000e-06	-3.175689e-06	-1.896752e-09	-2.268562e+01	-1.243771e+02
1.110000e-06	-3.138673e-06	-1.899447e-09	-2.242119e+01	-1.239948e+02
1.120000e-06	-3.101446e-06	-1.897950e-09	-2.215526e+01	-1.236061e+02
1.130000e-06	-3.064007e-06	-1.892199e-09	-2.188782e+01	-1.232113e+02
1.140000e-06	-3.026378e-06	-1.884069e-09	-2.161902e+01	-1.228107e+02
1.150000e-06	-2.988617e-06	-1.877950e-09	-2.134927e+01	-1.224050e+02
1.160000e-06	-2.950706e-06	-1.869895e-09	-2.107845e+01	-1.219948e+02
1.170000e-06	-2.912597e-06	-1.861640e-09	-2.080622e+01	-1.215807e+02
1.180000e-06	-2.874243e-06	-1.854336e-09	-2.053223e+01	-1.211633e+02
1.190000e-06	-2.835674e-06	-1.849233e-09	-2.025671e+01	-1.207433e+02
1.200000e-06	-2.796931e-06	-1.845225e-09	-1.997995e+01	-1.203210e+02
1.210000e-06	-2.757990e-06	-1.841084e-09	-1.970177e+01	-1.198968e+02
1.220000e-06	-2.718805e-06	-1.835906e-09	-1.942186e+01	-1.194707e+02
1.230000e-06	-2.679433e-06	-1.829962e-09	-1.914060e+01	-1.190428e+02
1.240000e-06	-2.639889e-06	-1.823245e-09	-1.885812e+01	-1.186127e+02
1.250000e-06	-2.600124e-06	-1.814528e-09	-1.857406e+01	-1.181801e+02
1.260000e-06	-2.560228e-06	-1.807645e-09	-1.828906e+01	-1.177444e+02
1.270000e-06	-2.520347e-06	-1.802025e-09	-1.800417e+01	-1.173050e+02
1.280000e-06	-2.480420e-06	-1.796983e-09	-1.771895e+01	-1.168612e+02
1.290000e-06	-2.440331e-06	-1.788026e-09	-1.743257e+01	-1.164121e+02
1.300000e-06	-2.400141e-06	-1.778044e-09	-1.714547e+01	-1.159573e+02
1.310000e-06	-2.359856e-06	-1.768486e-09	-1.685770e+01	-1.154959e+02
1.320000e-06	-2.319309e-06	-1.761018e-09	-1.656805e+01	-1.150277e+02
1.330000e-06	-2.278541e-06	-1.751668e-09	-1.627682e+01	-1.145522e+02
1.340000e-06	-2.237590e-06	-1.743118e-09	-1.598428e+01	-1.140692e+02
1.350000e-06	-2.196443e-06	-1.739712e-09	-1.569035e+01	-1.135788e+02
1.360000e-06	-2.155110e-06	-1.740046e-09	-1.539508e+01	-1.130810e+02
1.370000e-06	-2.113479e-06	-1.733378e-09	-1.509769e+01	-1.125762e+02
1.380000e-06	-2.071494e-06	-1.720868e-09	-1.479777e+01	-1.120646e+02
1.390000e-06	-2.029196e-06	-1.707063e-09	-1.449562e+01	-1.115468e+02
1.400000e-06	-1.986619e-06	-1.694749e-09	-1.419147e+01	-1.110231e+02
1.410000e-06	-1.943815e-06	-1.681255e-09	-1.388569e+01	-1.104940e+02
1.420000e-06	-1.900826e-06	-1.669506e-09	-1.357860e+01	-1.099596e+02
1.430000e-06	-1.857656e-06	-1.664843e-09	-1.327022e+01	-1.094201e+02
1.440000e-06	-1.814337e-06	-1.666086e-09	-1.296076e+01	-1.088755e+02
1.450000e-06	-1.770783e-06	-1.662199e-09	-1.264964e+01	-1.083254e+02
1.460000e-06	-1.727091e-06	-1.649864e-09	-1.233752e+01	-1.077694e+02
1.470000e-06	-1.683396e-06	-1.635466e-09	-1.202539e+01	-1.072066e+02
1.480000e-06	-1.639615e-06	-1.624212e-09	-1.171264e+01	-1.066361e+02
1.490000e-06	-1.595705e-06	-1.613322e-09	-1.139896e+01	-1.060567e+02
1.500000e-06	-1.551729e-06	-1.600185e-09	-1.108482e+01	-1.054671e+02
1.510000e-06	-1.507727e-06	-1.589552e-09	-1.077049e+01	-1.048659e+02
1.520000e-06	-1.463703e-06	-1.584780e-09	-1.045600e+01	-1.042515e+02
1.530000e-06	-1.419673e-06	-1.579260e-09	-1.014147e+01	-1.036227e+02
1.540000e-06	-1.375595e-06	-1.565127e-09	-9.826603e+00	-1.029781e+02
1.550000e-06	-1.331419e-06	-1.546038e-09	-9.511027e+00	-1.023164e+02
1.560000e-06	-1.287228e-06	-1.532176e-09	-9.195351e+00	-1.016369e+02
1.570000e-06	-1.243017e-06	-1.523947e-09	-8.879523e+00	-1.009388e+02
1.580000e-06	-1.198684e-06	-1.514328e-09	-8.562832e+00	-1.002219e+02
1.590000e-06	-1.154264e-06	-1.503256e-09	-8.245518e+00	-9.948598e+01
1.600000e-06	-1.109820e-06	-1.493808e-09	-7.928030e+00	-9.873147e+01
1.610000e-06	-1.065289e-06	-1.484555e-09	-7.609921e+00	-9.795891e+01
1.620000e-06	-1.020596e-06	-1.469197e-09	-7.290654e+00	-9.716915e+01
1.630000e-06	-9.757586e-07	-1.451176e-09	-6.970358e+00	-9.636322e+01
1.640000e-06	-9.308315e-07	-1.437051e-09	-6.649420e+00	-9.554230e+01
1.650000e-06	-8.858783e-07	-1.427644e-09	-6.328296e+00	-9.470761e+01
1.660000e-06	-8.408933e-07	-1.417617e-09	-6.006944e+00	-9.386037e+01
1.670000e-06	-7.958781e-07	-1.406275e-09	-5.685377e+00	-9.300167e+01
1.680000e-06	-7.507786e-07	-1.395805e-09	-5.363207e+00	-9.213240e+01
1.690000e-06	-7.055432e-07	-1.386229e-09	-5.040067e+00	-9.125321e+01
1.700000e-06	-6.602810e-07	-1.373350e-09	-4.716735e+00	-9.036443e+01
1.710000e-06	-6.150450e-07	-1.356666e-09	-4.393590e+00	-8.946601e+01
1.720000e-06	-5.697156e-07	-1.339497e-09	-4.069779e+00	-8.855752e+01
1.730000e-06	-5.243017e-07	-1.325830e-09	-3.745363e+00	-8.763813e+01
1.740000e-06	-4.788239e-07	-1.312090e-09	-3.420492e+00	-8.670664e+01
1.750000e-06	-4.332950e-07	-1.296506e-09	-3.095255e+00	-8.576148e+01
1.760000e-06	-3.877451e-07	-1.282518e-09	-2.769868e+00	-8.480080e+01
1.770000e-06	-3.421412e-07	-1.270519e-09	-2.444095e+00	-8.382249e+01
1.780000e-06	-2.965760e-07	-1.255648e-09	-2.118599e+00	-8.282429e+01
1.790000e-06	-2.510314e-07	-1.237147e-09	-1.793249e+00	-8.180384e+01
1.800000e-06	-2.054143e-07	-1.218507e-09	-1.467383e+00	-8.075880e+01
1.810000e-06	-1.597810e-07	-1.201760e-09	-1.141400e+00	-7.968689e+01
1.820000e-06	-1.142567e-07	-1.183922e-09	-8.161960e-01	-7.858596e+01
1.830000e-06	-6.865202e-08	-1.163469e-09	-4.904176e-01	-7.745411e+01
1.840000e-06	-2.294977e-08	-1.144749e-09	-1.639423e-01	-7.628964e+01
1.850000e-06	2.272401e-08	-1.130624e-09	1.623296e-01	-7.509118e+01
1.860000e-06	6.843488e-08	-1.117949e-09	4.888664e-01	-7.385762e+01
1.870000e-06	1.141778e-07	-1.101778e-09	8.156325e-01	-7.258817e+01
1.880000e-06	1.598656e-07	-1.083100e-09	1.142004e+00	-7.128227e+01
1.890000e-06	2.054386e-07	-1.063396e-09	1.467557e+00	-6.993962e+01
1.900000e-06	2.509990e-07	-1.042430e-09	1.793019e+00	-6.856008e+01
1.910000e-06	2.965630e-07	-1.015234e-09	2.118506e+00	-6.714364e+01
1.920000e-06	3.420636e-07	-9.858178e-10	2.443541e+00	-6.569035e+01
1.930000e-06	3.875669e-07	-9.621972e-10	2.768595e+00	-6.420024e+01
1.940000e-06	4.331312e-07	-9.441075e-10	3.094085e+00	-6.267330e+01
1.950000e-06	4.787282e-07	-9.240911e-10	3.419808e+00	-6.110938e+01
1.960000e-06	5.242470e-07	-8.996125e-10	3.744972e+00	-5.950820e+01
1.970000e-06	5.696481e-07	-8.747338e-10	4.069297e+00	-5.786928e+01
1.980000e-06	6.149163e-07	-8.526427e-10	4.392671e+00	-5.619195e+01
1.990000e-06	6.601192e-07	-8.272171e-10	4.715580e+00	-5.447537e+01
2.000000e-06	7.053898e-07	-7.916729e-10	5.038971e+00	-5.271852e+01
2.010000e-06	7.505965e-07	-7.517927e-10	5.361907e+00	-5.092025e+01
2.020000e-06	7.956656e-07	-7.188455e-10	5.683859e+00	-4.907935e+01
2.030000e-06	8.406118e-07	-6.936655e-10	6.004934e+00	-4.719456e+01
2.040000e-06	8.855223e-07	-6.686067e-10	6.325753e+00	-4.526468e+01
2.050000e-06	9.304502e-07	-6.449738e-10	6.646696e+00	-4.328860e+01
2.060000e-06	9.752994e-07	-6.223803e-10	6.967078e+00	-4.126537e+01
2.070000e-06	1.020000e-06	-5.953939e-10	7.286395e+00	-3.919427e+01
2.080000e-06	1.064582e-06	-5.570660e-10	7.604870e+00	-3.707485e+01
2.090000e-06	1.109086e-06	-5.091308e-10	7.922784e+00	-3.490692e+01
2.100000e-06	1.153521e-06	-4.618381e-10	8.240209e+00	-3.269063e+01
2.110000e-06	1.197924e-06	-4.215169e-10	8.557402e+00	-3.042644e+01
2.120000e-06	1.242185e-06	-3.876076e-10	8.873583e+00	-2.811510e+01
2.130000e-06	1.286388e-06	-3.591020e-10	9.189346e+00	-2.575763e+01
2.140000e-06	1.330612e-06	-3.352706e-10	9.505266e+00	-2.335528e+01
2.150000e-06	1.374761e-06	-3.097022e-10	9.820641e+00	-2.090949e+01
2.160000e-06	1.418850e-06	-2.743081e-10	1.013559e+01	-1.842179e+01
2.170000e-06	1.462877e-06	-2.271361e-10	1.045010e+01	-1.589381e+01
2.180000e-06	1.506855e-06	-1.761111e-10	1.076426e+01	-1.332717e+01
2.190000e-06	1.550800e-06	-1.283405e-10	1.107818e+01	-1.072346e+01
2.200000e-06	1.594713e-06	-8.476190e-11	1.139187e+01	-8.084184e+00
2.210000e-06	1.638580e-06	-4.785380e-11	1.170524e+01	-5.410752e+00
2.220000e-06	1.682410e-06	-1.724908e-11	1.201834e+01	-2.704455e+00
2.230000e-06	1.726182e-06	1.269687e-11	1.233103e+01	3.351999e-02
2.240000e-06	1.769821e-06	4.879258e-11	1.264277e+01	2.802065e+00
2.250000e-06	1.813271e-06	9.487070e-11	1.295315e+01	5.600114e+00
2.260000e-06	1.856545e-06	1.470946e-10	1.326228e+01	8.426587e+00
2.270000e-06	1.899709e-06	1.999699e-10	1.357062e+01	1.128032e+01
2.280000e-06	1.942671e-06	2.496482e-10	1.387753e+01	1.416001e+01
2.290000e-06	1.985353e-06	2.949814e-10	1.418242e+01	1.706412e+01
2.300000e-06	2.027828e-06	3.334381e-10	1.448584e+01	1.999082e+01
2.310000e-06	2.070037e-06	3.674720e-10	1.478737e+01	2.293790e+01
2.320000e-06	2.111933e-06	4.032610e-10	1.508665e+01	2.590277e+01
2.330000e-06	2.153602e-06	4.449271e-10	1.538432e+01	2.888237e+01
2.340000e-06	2.195053e-06	4.912179e-10	1.568042e+01	3.187316e+01
2.350000e-06	2.236154e-06	5.383276e-10	1.597403e+01	3.487115e+01
2.360000e-06	2.276873e-06	5.853410e-10	1.626491e+01	3.787191e+01
2.370000e-06	2.317448e-06	6.350069e-10	1.655475e+01	4.087063e+01
2.380000e-06	2.357859e-06	6.821547e-10	1.684343e+01	4.386216e+01
2.390000e-06	2.398113e-06	7.225882e-10	1.713099e+01	4.684114e+01
2.400000e-06	2.438300e-06	7.574788e-10	1.741806e+01	4.980207e+01
2.410000e-06	2.478366e-06	7.941659e-10	1.770427e+01	5.273944e+01
2.420000e-06	2.518337e-06	8.397142e-10	1.798981e+01	5.564785e+01
2.430000e-06	2.558231e-06	8.890796e-10	1.827479e+01	5.852212e+01
2.440000e-06	2.598053e-06	9.355378e-10	1.855926e+01	6.135738e+01
2.450000e-06	2.637800e-06	9.785797e-10	1.884319e+01	6.414921e+01
2.460000e-06	2.677394e-06	1.021952e-09	1.912603e+01	6.689371e+01
2.470000e-06	2.716770e-06	1.062584e-09	1.940732e+01	6.958750e+01
2.480000e-06	2.755976e-06	1.096483e-09	1.968739e+01	7.222787e+01
2.490000e-06	2.794985e-06	1.127892e-09	1.996605e+01	7.481269e+01
2.500000e-06	2.833694e-06	1.164886e-09	2.024257e+01	7.734043e+01
2.510000e-06	2.872156e-06	1.208005e-09	2.051732e+01	7.981017e+01
2.520000e-06	2.910430e-06	1.250298e-09	2.079074e+01	8.222145e+01
2.530000e-06	2.948534e-06	1.288530e-09	2.106294e+01	8.457430e+01
2.540000e-06	2.986501e-06	1.326699e-09	2.133415e+01	8.686904e+01
2.550000e-06	3.024240e-06	1.364755e-09	2.160374e+01	8.910628e+01
2.560000e-06	3.061730e-06	1.397010e-09	2.187155e+01	9.128676e+01
2.570000e-06	3.099035e-06	1.421983e-09	2.213804e+01	9.341129e+01
2.580000e-06	3.136164e-06	1.446474e-09	2.240327e+01	9.548062e+01
2.590000e-06	3.173021e-06	1.476151e-09	2.266656e+01	9.749541e+01
2.600000e-06	3.209600e-06	1.510391e-09	2.292787e+01	9.945615e+01
2.610000e-06	3.245994e-06	1.544521e-09	2.318785e+01	1.013631e+02
2.620000e-06	3.282231e-06	1.577945e-09	2.344671e+01	1.032164e+02
2.630000e-06	3.318297e-06	1.610206e-09	2.370435e+01	1.050159e+02
2.640000e-06	3.354257e-06	1.638388e-09	2.396123e+01	1.067612e+02
2.650000e-06	3.390159e-06	1.659684e-09	2.421769e+01	1.084520e+02
2.660000e-06	3.425896e-06	1.676374e-09	2.447298e+01	1.100877e+02
2.670000e-06	3.461443e-06	1.692604e-09	2.472691e+01	1.116678e+02
2.680000e-06	3.496670e-06	1.710172e-09	2.497856e+01	1.131919e+02
2.690000e-06	3.531492e-06	1.731171e-09	2.522731e+01	1.146598e+02
2.700000e-06	3.565906e-06	1.759797e-09	2.547315e+01	1.160714e+02
2.710000e-06	3.599799e-06	1.792234e-09	2.571526e+01	1.174271e+02
2.720000e-06	3.633323e-06	1.817752e-09	2.595474e+01	1.187275e+02
2.730000e-06	3.666424e-06	1.836458e-09	2.619120e+01	1.199736e+02
2.740000e-06	3.699093e-06	1.852003e-09	2.642457e+01	1.211670e+02
2.750000e-06	3.731559e-06	1.867813e-09	2.665649e+01	1.223094e+02
2.760000e-06	3.763803e-06	1.882380e-09	2.688683e+01	1.234030e+02
2.770000e-06	3.795844e-06	1.893100e-09	2.711572e+01	1.244505e+02
2.780000e-06	3.827777e-06	1.906250e-09	2.734383e+01	1.254544e+02
2.790000e-06	3.859557e-06	1.924238e-09	2.757085e+01	1.264178e+02
2.800000e-06	3.891119e-06	1.941751e-09	2.779632e+01	1.273437e+02
2.810000e-06	3.922366e-06	1.955160e-09	2.801953e+01	1.282350e+02
2.820000e-06	3.953271e-06	1.968660e-09	2.824030e+01	1.290945e+02
2.830000e-06	3.983902e-06	1.986512e-09	2.845911e+01	1.299248e+02
2.840000e-06	4.014225e-06	2.003821e-09	2.867573e+01	1.307284e+02
2.850000e-06	4.044248e-06	2.014085e-09	2.889019e+01	1.315071e+02
2.860000e-06	4.074076e-06	2.018025e-09	2.910327e+01	1.322625e+02
2.870000e-06	4.103729e-06	2.023158e-09	2.931510e+01	1.329958e+02
2.880000e-06	4.133123e-06	2.032961e-09	2.952508e+01	1.337077e+02
2.890000e-06	4.162245e-06	2.042238e-09	2.973311e+01	1.343986e+02
2.900000e-06	4.191023e-06	2.053113e-09	2.993869e+01	1.350684e+02
