# Temperatura_=_7.79
# Concentracion g/m^3_=_4090.0
# C_Vs_to_Am_M_A/Vsm_=_65563218390.804596
# pendiente_HvsI_1/m_=_3716.3
# ordenada_HvsI_A/m_=_1297.0
# frecuencia_Hz_=_135088.63783615406

Tiempo_(s)	Campo_(V.s)	Magnetizacion_(V.s)	Campo_(kA/m)	Magnetizacion_(A/m)
0.000000e+00	-5.394657e-06	-1.368376e-09	-3.838392e+01	-9.032819e+01
1.000000e-08	-5.394719e-06	-1.364487e-09	-3.838436e+01	-9.019000e+01
2.000000e-08	-5.394607e-06	-1.360256e-09	-3.838356e+01	-9.003232e+01
3.000000e-08	-5.394233e-06	-1.356059e-09	-3.838090e+01	-8.985560e+01
4.000000e-08	-5.393406e-06	-1.354436e-09	-3.837501e+01	-8.966130e+01
5.000000e-08	-5.391930e-06	-1.356984e-09	-3.836452e+01	-8.945198e+01
6.000000e-08	-5.389901e-06	-1.366054e-09	-3.835008e+01	-8.923123e+01
7.000000e-08	-5.387348e-06	-1.379655e-09	-3.833191e+01	-8.900361e+01
8.000000e-08	-5.384129e-06	-1.359192e-09	-3.830901e+01	-8.877451e+01
9.000000e-08	-5.380379e-06	-1.308847e-09	-3.828233e+01	-8.854998e+01
1.000000e-07	-5.376289e-06	-1.328181e-09	-3.825323e+01	-8.833648e+01
1.100000e-07	-5.371977e-06	-1.391817e-09	-3.822254e+01	-8.814068e+01
1.200000e-07	-5.367482e-06	-1.411913e-09	-3.819056e+01	-8.796914e+01
1.300000e-07	-5.362670e-06	-1.297400e-09	-3.815632e+01	-8.782803e+01
1.400000e-07	-5.357479e-06	-1.322805e-09	-3.811939e+01	-8.772289e+01
1.500000e-07	-5.351939e-06	-1.415200e-09	-3.807997e+01	-8.765834e+01
1.600000e-07	-5.346045e-06	-1.424380e-09	-3.803804e+01	-8.763788e+01
1.700000e-07	-5.339738e-06	-1.295206e-09	-3.799316e+01	-8.766365e+01
1.800000e-07	-5.333011e-06	-1.268318e-09	-3.794530e+01	-8.773636e+01
1.900000e-07	-5.325950e-06	-1.402295e-09	-3.789505e+01	-8.785519e+01
2.000000e-07	-5.318596e-06	-1.407324e-09	-3.784273e+01	-8.801775e+01
2.100000e-07	-5.310976e-06	-1.347994e-09	-3.778852e+01	-8.822018e+01
2.200000e-07	-5.303155e-06	-1.344502e-09	-3.773287e+01	-8.845721e+01
2.300000e-07	-5.295047e-06	-1.454383e-09	-3.767518e+01	-8.872240e+01
2.400000e-07	-5.286431e-06	-1.421618e-09	-3.761387e+01	-8.900833e+01
2.500000e-07	-5.277310e-06	-1.397106e-09	-3.754898e+01	-8.930683e+01
2.600000e-07	-5.267582e-06	-1.433235e-09	-3.747975e+01	-8.960937e+01
2.700000e-07	-5.257190e-06	-1.487725e-09	-3.740582e+01	-8.990728e+01
2.800000e-07	-5.246239e-06	-1.411724e-09	-3.732790e+01	-9.019214e+01
2.900000e-07	-5.234875e-06	-1.394387e-09	-3.724704e+01	-9.045603e+01
3.000000e-07	-5.223109e-06	-1.452383e-09	-3.716332e+01	-9.069182e+01
3.100000e-07	-5.210875e-06	-1.449921e-09	-3.707628e+01	-9.089345e+01
3.200000e-07	-5.198290e-06	-1.387516e-09	-3.698673e+01	-9.105606e+01
3.300000e-07	-5.185438e-06	-1.421477e-09	-3.689529e+01	-9.117618e+01
3.400000e-07	-5.172245e-06	-1.471836e-09	-3.680142e+01	-9.125179e+01
3.500000e-07	-5.158639e-06	-1.441515e-09	-3.670461e+01	-9.128229e+01
3.600000e-07	-5.144520e-06	-1.413579e-09	-3.660415e+01	-9.126851e+01
3.700000e-07	-5.129925e-06	-1.430332e-09	-3.650031e+01	-9.121260e+01
3.800000e-07	-5.114929e-06	-1.405835e-09	-3.639360e+01	-9.111780e+01
3.900000e-07	-5.099237e-06	-1.386378e-09	-3.628195e+01	-9.098831e+01
4.000000e-07	-5.082939e-06	-1.414382e-09	-3.616599e+01	-9.082903e+01
4.100000e-07	-5.066294e-06	-1.411159e-09	-3.604756e+01	-9.064530e+01
4.200000e-07	-5.049304e-06	-1.388257e-09	-3.592667e+01	-9.044265e+01
4.300000e-07	-5.032143e-06	-1.409896e-09	-3.580457e+01	-9.022654e+01
4.400000e-07	-5.014741e-06	-1.445868e-09	-3.568075e+01	-9.000212e+01
4.500000e-07	-4.996942e-06	-1.394801e-09	-3.555411e+01	-8.977403e+01
4.600000e-07	-4.978839e-06	-1.368622e-09	-3.542530e+01	-8.954624e+01
4.700000e-07	-4.960346e-06	-1.379294e-09	-3.529372e+01	-8.932192e+01
4.800000e-07	-4.941369e-06	-1.394214e-09	-3.515870e+01	-8.910333e+01
4.900000e-07	-4.921991e-06	-1.362349e-09	-3.502082e+01	-8.889188e+01
5.000000e-07	-4.902354e-06	-1.364787e-09	-3.488110e+01	-8.868808e+01
5.100000e-07	-4.882534e-06	-1.363293e-09	-3.474008e+01	-8.849162e+01
5.200000e-07	-4.862537e-06	-1.384903e-09	-3.459779e+01	-8.830152e+01
5.300000e-07	-4.842301e-06	-1.381920e-09	-3.445381e+01	-8.811625e+01
5.400000e-07	-4.821737e-06	-1.372333e-09	-3.430749e+01	-8.793387e+01
5.500000e-07	-4.800807e-06	-1.348843e-09	-3.415857e+01	-8.775225e+01
5.600000e-07	-4.779578e-06	-1.368046e-09	-3.400753e+01	-8.756919e+01
5.700000e-07	-4.758063e-06	-1.364751e-09	-3.385444e+01	-8.738264e+01
5.800000e-07	-4.736246e-06	-1.342563e-09	-3.369921e+01	-8.719083e+01
5.900000e-07	-4.714043e-06	-1.323192e-09	-3.354123e+01	-8.699235e+01
6.000000e-07	-4.691537e-06	-1.340638e-09	-3.338109e+01	-8.678631e+01
6.100000e-07	-4.668715e-06	-1.356499e-09	-3.321871e+01	-8.657232e+01
6.200000e-07	-4.645480e-06	-1.358998e-09	-3.305340e+01	-8.635059e+01
6.300000e-07	-4.622009e-06	-1.342387e-09	-3.288640e+01	-8.612179e+01
6.400000e-07	-4.598360e-06	-1.340653e-09	-3.271812e+01	-8.588712e+01
6.500000e-07	-4.574446e-06	-1.345148e-09	-3.254797e+01	-8.564812e+01
6.600000e-07	-4.550280e-06	-1.331093e-09	-3.237603e+01	-8.540661e+01
6.700000e-07	-4.525851e-06	-1.302190e-09	-3.220221e+01	-8.516456e+01
6.800000e-07	-4.501001e-06	-1.292709e-09	-3.202540e+01	-8.492394e+01
6.900000e-07	-4.475532e-06	-1.310540e-09	-3.184418e+01	-8.468660e+01
7.000000e-07	-4.449539e-06	-1.319216e-09	-3.165924e+01	-8.445412e+01
7.100000e-07	-4.423077e-06	-1.317674e-09	-3.147096e+01	-8.422777e+01
7.200000e-07	-4.396170e-06	-1.313296e-09	-3.127951e+01	-8.400836e+01
7.300000e-07	-4.368901e-06	-1.323255e-09	-3.108549e+01	-8.379620e+01
7.400000e-07	-4.341293e-06	-1.319405e-09	-3.088905e+01	-8.359111e+01
7.500000e-07	-4.313531e-06	-1.304980e-09	-3.069152e+01	-8.339241e+01
7.600000e-07	-4.285587e-06	-1.281353e-09	-3.049269e+01	-8.319894e+01
7.700000e-07	-4.257471e-06	-1.284217e-09	-3.029264e+01	-8.300919e+01
7.800000e-07	-4.229099e-06	-1.287826e-09	-3.009077e+01	-8.282133e+01
7.900000e-07	-4.200381e-06	-1.288510e-09	-2.988644e+01	-8.263335e+01
8.000000e-07	-4.171292e-06	-1.280455e-09	-2.967946e+01	-8.244318e+01
8.100000e-07	-4.141802e-06	-1.286273e-09	-2.946964e+01	-8.224881e+01
8.200000e-07	-4.112067e-06	-1.287332e-09	-2.925807e+01	-8.204844e+01
8.300000e-07	-4.082035e-06	-1.285000e-09	-2.904438e+01	-8.184053e+01
8.400000e-07	-4.051818e-06	-1.266599e-09	-2.882939e+01	-8.162395e+01
8.500000e-07	-4.021390e-06	-1.259274e-09	-2.861288e+01	-8.139800e+01
8.600000e-07	-3.990625e-06	-1.258147e-09	-2.839399e+01	-8.116248e+01
8.700000e-07	-3.959646e-06	-1.261995e-09	-2.817356e+01	-8.091767e+01
8.800000e-07	-3.928413e-06	-1.253717e-09	-2.795134e+01	-8.066435e+01
8.900000e-07	-3.896993e-06	-1.249508e-09	-2.772778e+01	-8.040370e+01
9.000000e-07	-3.865388e-06	-1.247875e-09	-2.750290e+01	-8.013727e+01
9.100000e-07	-3.833545e-06	-1.248418e-09	-2.727634e+01	-7.986685e+01
9.200000e-07	-3.801504e-06	-1.241166e-09	-2.704836e+01	-7.959437e+01
9.300000e-07	-3.769321e-06	-1.232365e-09	-2.681937e+01	-7.932179e+01
9.400000e-07	-3.736966e-06	-1.231359e-09	-2.658916e+01	-7.905099e+01
9.500000e-07	-3.704238e-06	-1.235590e-09	-2.635629e+01	-7.878362e+01
9.600000e-07	-3.671154e-06	-1.231970e-09	-2.612089e+01	-7.852104e+01
9.700000e-07	-3.637728e-06	-1.218955e-09	-2.588307e+01	-7.826422e+01
9.800000e-07	-3.603730e-06	-1.211232e-09	-2.564116e+01	-7.801369e+01
9.900000e-07	-3.569232e-06	-1.208941e-09	-2.539570e+01	-7.776948e+01
1.000000e-06	-3.534370e-06	-1.209318e-09	-2.514766e+01	-7.753120e+01
1.010000e-06	-3.499224e-06	-1.204970e-09	-2.489758e+01	-7.729797e+01
1.020000e-06	-3.463782e-06	-1.203014e-09	-2.464541e+01	-7.706853e+01
1.030000e-06	-3.428059e-06	-1.202035e-09	-2.439123e+01	-7.684130e+01
1.040000e-06	-3.392265e-06	-1.201427e-09	-2.413655e+01	-7.661450e+01
1.050000e-06	-3.356413e-06	-1.189282e-09	-2.388146e+01	-7.638621e+01
1.060000e-06	-3.320429e-06	-1.176407e-09	-2.362543e+01	-7.615452e+01
1.070000e-06	-3.284252e-06	-1.165884e-09	-2.336802e+01	-7.591765e+01
1.080000e-06	-3.247870e-06	-1.162523e-09	-2.310916e+01	-7.567400e+01
1.090000e-06	-3.211281e-06	-1.158704e-09	-2.284882e+01	-7.542231e+01
1.100000e-06	-3.174373e-06	-1.159950e-09	-2.258621e+01	-7.516169e+01
1.110000e-06	-3.137093e-06	-1.160075e-09	-2.232096e+01	-7.489168e+01
1.120000e-06	-3.099561e-06	-1.160331e-09	-2.205391e+01	-7.461227e+01
1.130000e-06	-3.061898e-06	-1.151954e-09	-2.178593e+01	-7.432391e+01
1.140000e-06	-3.024023e-06	-1.140070e-09	-2.151645e+01	-7.402745e+01
1.150000e-06	-2.985907e-06	-1.126921e-09	-2.124524e+01	-7.372411e+01
1.160000e-06	-2.947715e-06	-1.119529e-09	-2.097350e+01	-7.341539e+01
1.170000e-06	-2.909403e-06	-1.114864e-09	-2.070091e+01	-7.310299e+01
1.180000e-06	-2.870883e-06	-1.110747e-09	-2.042683e+01	-7.278869e+01
1.190000e-06	-2.832135e-06	-1.105325e-09	-2.015113e+01	-7.247425e+01
1.200000e-06	-2.793101e-06	-1.106980e-09	-1.987340e+01	-7.216132e+01
1.210000e-06	-2.753921e-06	-1.110363e-09	-1.959462e+01	-7.185130e+01
1.220000e-06	-2.714529e-06	-1.109457e-09	-1.931434e+01	-7.154530e+01
1.230000e-06	-2.674944e-06	-1.101235e-09	-1.903269e+01	-7.124405e+01
1.240000e-06	-2.635328e-06	-1.092478e-09	-1.875082e+01	-7.094788e+01
1.250000e-06	-2.595551e-06	-1.083220e-09	-1.846780e+01	-7.065667e+01
1.260000e-06	-2.555657e-06	-1.071965e-09	-1.818394e+01	-7.036989e+01
1.270000e-06	-2.515713e-06	-1.062579e-09	-1.789974e+01	-7.008661e+01
1.280000e-06	-2.475610e-06	-1.057878e-09	-1.761439e+01	-6.980557e+01
1.290000e-06	-2.435409e-06	-1.059265e-09	-1.732836e+01	-6.952524e+01
1.300000e-06	-2.395045e-06	-1.062506e-09	-1.704116e+01	-6.924394e+01
1.310000e-06	-2.354427e-06	-1.061333e-09	-1.675216e+01	-6.895988e+01
1.320000e-06	-2.313602e-06	-1.055905e-09	-1.646168e+01	-6.867132e+01
1.330000e-06	-2.272512e-06	-1.051111e-09	-1.616931e+01	-6.837662e+01
1.340000e-06	-2.231101e-06	-1.045164e-09	-1.587467e+01	-6.807436e+01
1.350000e-06	-2.189363e-06	-1.036881e-09	-1.557770e+01	-6.776339e+01
1.360000e-06	-2.147328e-06	-1.025248e-09	-1.527861e+01	-6.744289e+01
1.370000e-06	-2.104981e-06	-1.016416e-09	-1.497730e+01	-6.711242e+01
1.380000e-06	-2.062418e-06	-1.012447e-09	-1.467446e+01	-6.677189e+01
1.390000e-06	-2.019660e-06	-1.014621e-09	-1.437023e+01	-6.642161e+01
1.400000e-06	-1.976610e-06	-1.015088e-09	-1.406392e+01	-6.606217e+01
1.410000e-06	-1.933353e-06	-1.012506e-09	-1.375614e+01	-6.569446e+01
1.420000e-06	-1.890040e-06	-1.007439e-09	-1.344796e+01	-6.531955e+01
1.430000e-06	-1.846593e-06	-1.002033e-09	-1.313883e+01	-6.493861e+01
1.440000e-06	-1.803001e-06	-9.924890e-10	-1.282866e+01	-6.455284e+01
1.450000e-06	-1.759343e-06	-9.814370e-10	-1.251803e+01	-6.416337e+01
1.460000e-06	-1.715558e-06	-9.731181e-10	-1.220649e+01	-6.377118e+01
1.470000e-06	-1.671656e-06	-9.707985e-10	-1.189412e+01	-6.337698e+01
1.480000e-06	-1.627741e-06	-9.687017e-10	-1.158166e+01	-6.298122e+01
1.490000e-06	-1.583832e-06	-9.647226e-10	-1.126924e+01	-6.258401e+01
1.500000e-06	-1.539802e-06	-9.587396e-10	-1.095596e+01	-6.218509e+01
1.510000e-06	-1.495680e-06	-9.559880e-10	-1.064202e+01	-6.178388e+01
1.520000e-06	-1.451552e-06	-9.508327e-10	-1.032805e+01	-6.137943e+01
1.530000e-06	-1.407362e-06	-9.382743e-10	-1.001362e+01	-6.097054e+01
1.540000e-06	-1.363123e-06	-9.229595e-10	-9.698853e+00	-6.055580e+01
1.550000e-06	-1.318861e-06	-9.130205e-10	-9.383921e+00	-6.013364e+01
1.560000e-06	-1.274503e-06	-9.068383e-10	-9.068307e+00	-5.970246e+01
1.570000e-06	-1.230088e-06	-9.019416e-10	-8.752288e+00	-5.926070e+01
1.580000e-06	-1.185658e-06	-8.961617e-10	-8.436158e+00	-5.880693e+01
1.590000e-06	-1.141063e-06	-8.919251e-10	-8.118862e+00	-5.833991e+01
1.600000e-06	-1.096283e-06	-8.896724e-10	-7.800240e+00	-5.785872e+01
1.610000e-06	-1.051382e-06	-8.835927e-10	-7.480763e+00	-5.736274e+01
1.620000e-06	-1.006493e-06	-8.722859e-10	-7.161373e+00	-5.685173e+01
1.630000e-06	-9.616019e-07	-8.590815e-10	-6.841964e+00	-5.632582e+01
1.640000e-06	-9.165378e-07	-8.471786e-10	-6.521325e+00	-5.578550e+01
1.650000e-06	-8.714330e-07	-8.366730e-10	-6.200397e+00	-5.523157e+01
1.660000e-06	-8.263661e-07	-8.251458e-10	-5.879738e+00	-5.466510e+01
1.670000e-06	-7.811529e-07	-8.165196e-10	-5.558038e+00	-5.408735e+01
1.680000e-06	-7.358414e-07	-8.125424e-10	-5.235638e+00	-5.349965e+01
1.690000e-06	-6.904585e-07	-8.054557e-10	-4.912732e+00	-5.290336e+01
1.700000e-06	-6.450056e-07	-7.941488e-10	-4.589326e+00	-5.229971e+01
1.710000e-06	-5.995880e-07	-7.813178e-10	-4.266172e+00	-5.168974e+01
1.720000e-06	-5.540686e-07	-7.701692e-10	-3.942294e+00	-5.107419e+01
1.730000e-06	-5.084522e-07	-7.584977e-10	-3.617725e+00	-5.045345e+01
1.740000e-06	-4.628782e-07	-7.440380e-10	-3.293458e+00	-4.982745e+01
1.750000e-06	-4.173324e-07	-7.288301e-10	-2.969392e+00	-4.919569e+01
1.760000e-06	-3.717003e-07	-7.199579e-10	-2.644712e+00	-4.855717e+01
1.770000e-06	-3.260018e-07	-7.119651e-10	-2.319559e+00	-4.791044e+01
1.780000e-06	-2.803367e-07	-7.020236e-10	-1.994644e+00	-4.725361e+01
1.790000e-06	-2.346802e-07	-6.915026e-10	-1.669790e+00	-4.658440e+01
1.800000e-06	-1.889795e-07	-6.821070e-10	-1.344622e+00	-4.590027e+01
1.810000e-06	-1.433142e-07	-6.697156e-10	-1.019705e+00	-4.519844e+01
1.820000e-06	-9.767923e-08	-6.541651e-10	-6.950046e-01	-4.447603e+01
1.830000e-06	-5.194412e-08	-6.380991e-10	-3.695914e-01	-4.373017e+01
1.840000e-06	-6.101705e-09	-6.257217e-10	-4.341468e-02	-4.295808e+01
1.850000e-06	3.973979e-08	-6.165400e-10	2.827555e-01	-4.215719e+01
1.860000e-06	8.549802e-08	-6.068873e-10	6.083332e-01	-4.132521e+01
1.870000e-06	1.312168e-07	-5.967021e-10	9.336303e-01	-4.046021e+01
1.880000e-06	1.770291e-07	-5.860102e-10	1.259593e+00	-3.956068e+01
1.890000e-06	2.228752e-07	-5.709610e-10	1.585796e+00	-3.862554e+01
1.900000e-06	2.686210e-07	-5.499066e-10	1.911285e+00	-3.765417e+01
1.910000e-06	3.142882e-07	-5.276909e-10	2.236215e+00	-3.664640e+01
1.920000e-06	3.598888e-07	-5.090744e-10	2.560671e+00	-3.560243e+01
1.930000e-06	4.054519e-07	-4.930678e-10	2.884860e+00	-3.452285e+01
1.940000e-06	4.509970e-07	-4.755244e-10	3.208922e+00	-3.340851e+01
1.950000e-06	4.966197e-07	-4.564049e-10	3.533535e+00	-3.226050e+01
1.960000e-06	5.422251e-07	-4.402684e-10	3.858025e+00	-3.108000e+01
1.970000e-06	5.877901e-07	-4.253088e-10	4.182228e+00	-2.986828e+01
1.980000e-06	6.332828e-07	-4.063861e-10	4.505916e+00	-2.862653e+01
1.990000e-06	6.786207e-07	-3.842638e-10	4.828504e+00	-2.735588e+01
2.000000e-06	7.239690e-07	-3.616719e-10	5.151165e+00	-2.605725e+01
2.010000e-06	7.693194e-07	-3.424376e-10	5.473841e+00	-2.473139e+01
2.020000e-06	8.145736e-07	-3.248526e-10	5.795832e+00	-2.337881e+01
2.030000e-06	8.597630e-07	-3.045348e-10	6.117362e+00	-2.199976e+01
2.040000e-06	9.048966e-07	-2.819631e-10	6.438496e+00	-2.059427e+01
2.050000e-06	9.499664e-07	-2.612346e-10	6.759175e+00	-1.916215e+01
2.060000e-06	9.949265e-07	-2.406900e-10	7.079074e+00	-1.770306e+01
2.070000e-06	1.039768e-06	-2.159807e-10	7.398126e+00	-1.621654e+01
2.080000e-06	1.084546e-06	-1.890807e-10	7.716729e+00	-1.470205e+01
2.090000e-06	1.129179e-06	-1.661958e-10	8.034306e+00	-1.315909e+01
2.100000e-06	1.173716e-06	-1.445146e-10	8.351192e+00	-1.158722e+01
2.110000e-06	1.218107e-06	-1.199095e-10	8.667043e+00	-9.986119e+00
2.120000e-06	1.262426e-06	-9.238121e-11	8.982382e+00	-8.355687e+00
2.130000e-06	1.306725e-06	-6.686600e-11	9.297576e+00	-6.696041e+00
2.140000e-06	1.350914e-06	-4.394190e-11	9.611988e+00	-5.007573e+00
2.150000e-06	1.395122e-06	-2.049981e-11	9.926535e+00	-3.290964e+00
2.160000e-06	1.439289e-06	3.319476e-12	1.024079e+01	-1.547195e+00
2.170000e-06	1.483342e-06	2.910779e-11	1.055423e+01	2.224615e-01
2.180000e-06	1.527347e-06	5.465161e-11	1.086734e+01	2.016461e+00
2.190000e-06	1.571330e-06	7.878032e-11	1.118028e+01	3.833014e+00
2.200000e-06	1.615204e-06	1.081539e-10	1.149245e+01	5.670121e+00
2.210000e-06	1.658979e-06	1.390142e-10	1.180392e+01	7.525618e+00
2.220000e-06	1.702795e-06	1.673170e-10	1.211568e+01	9.397219e+00
2.230000e-06	1.746551e-06	1.957720e-10	1.242701e+01	1.128256e+01
2.240000e-06	1.790153e-06	2.265267e-10	1.273725e+01	1.317924e+01
2.250000e-06	1.833712e-06	2.569463e-10	1.304718e+01	1.508485e+01
2.260000e-06	1.877127e-06	2.843930e-10	1.335608e+01	1.699701e+01
2.270000e-06	1.920309e-06	3.104289e-10	1.366333e+01	1.891339e+01
2.280000e-06	1.963354e-06	3.389882e-10	1.396960e+01	2.083171e+01
2.290000e-06	2.006231e-06	3.713741e-10	1.427468e+01	2.274974e+01
2.300000e-06	2.048903e-06	3.998805e-10	1.457830e+01	2.466533e+01
2.310000e-06	2.091320e-06	4.238575e-10	1.488010e+01	2.657632e+01
2.320000e-06	2.133450e-06	4.529331e-10	1.517987e+01	2.848064e+01
2.330000e-06	2.175253e-06	4.861630e-10	1.547730e+01	3.037618e+01
2.340000e-06	2.216840e-06	5.139823e-10	1.577320e+01	3.226083e+01
2.350000e-06	2.258294e-06	5.379131e-10	1.606815e+01	3.413249e+01
2.360000e-06	2.299442e-06	5.656375e-10	1.636093e+01	3.598900e+01
2.370000e-06	2.340245e-06	5.985469e-10	1.665125e+01	3.782816e+01
2.380000e-06	2.380767e-06	6.285614e-10	1.693957e+01	3.964777e+01
2.390000e-06	2.421170e-06	6.534517e-10	1.722705e+01	4.144559e+01
2.400000e-06	2.461417e-06	6.794315e-10	1.751340e+01	4.321941e+01
2.410000e-06	2.501474e-06	7.097730e-10	1.779842e+01	4.496702e+01
2.420000e-06	2.541454e-06	7.389403e-10	1.808288e+01	4.668632e+01
2.430000e-06	2.581375e-06	7.633450e-10	1.836693e+01	4.837527e+01
2.440000e-06	2.621230e-06	7.892830e-10	1.865050e+01	5.003201e+01
2.450000e-06	2.660936e-06	8.190134e-10	1.893302e+01	5.165486e+01
2.460000e-06	2.700443e-06	8.473368e-10	1.921412e+01	5.324233e+01
2.470000e-06	2.739776e-06	8.682588e-10	1.949398e+01	5.479322e+01
2.480000e-06	2.778975e-06	8.856636e-10	1.977289e+01	5.630656e+01
2.490000e-06	2.817879e-06	9.080303e-10	2.004970e+01	5.778170e+01
2.500000e-06	2.856606e-06	9.342326e-10	2.032525e+01	5.921823e+01
2.510000e-06	2.895227e-06	9.590989e-10	2.060004e+01	6.061604e+01
2.520000e-06	2.933582e-06	9.837632e-10	2.087295e+01	6.197526e+01
2.530000e-06	2.971806e-06	1.010064e-09	2.114491e+01	6.329623e+01
2.540000e-06	3.009882e-06	1.034375e-09	2.141583e+01	6.457948e+01
2.550000e-06	3.047684e-06	1.053867e-09	2.168480e+01	6.582566e+01
2.560000e-06	3.085224e-06	1.067199e-09	2.195191e+01	6.703550e+01
2.570000e-06	3.122672e-06	1.080209e-09	2.221835e+01	6.820974e+01
2.580000e-06	3.159816e-06	1.098547e-09	2.248264e+01	6.934913e+01
2.590000e-06	3.196507e-06	1.116901e-09	2.274370e+01	7.045432e+01
2.600000e-06	3.233158e-06	1.135924e-09	2.300448e+01	7.152589e+01
2.610000e-06	3.269747e-06	1.159085e-09	2.326482e+01	7.256425e+01
2.620000e-06	3.306070e-06	1.182870e-09	2.352326e+01	7.356970e+01
2.630000e-06	3.342180e-06	1.199022e-09	2.378019e+01	7.454238e+01
2.640000e-06	3.378097e-06	1.207858e-09	2.403574e+01	7.548228e+01
2.650000e-06	3.413909e-06	1.215445e-09	2.429055e+01	7.638930e+01
2.660000e-06	3.449626e-06	1.221973e-09	2.454469e+01	7.726324e+01
2.670000e-06	3.485182e-06	1.227819e-09	2.479767e+01	7.810386e+01
2.680000e-06	3.520573e-06	1.234584e-09	2.504948e+01	7.891093e+01
2.690000e-06	3.555600e-06	1.247752e-09	2.529871e+01	7.968427e+01
2.700000e-06	3.590172e-06	1.267082e-09	2.554469e+01	8.042378e+01
2.710000e-06	3.624305e-06	1.285298e-09	2.578756e+01	8.112954e+01
2.720000e-06	3.657860e-06	1.293893e-09	2.602631e+01	8.180179e+01
2.730000e-06	3.690964e-06	1.298582e-09	2.626184e+01	8.244097e+01
2.740000e-06	3.723776e-06	1.307037e-09	2.649531e+01	8.304777e+01
2.750000e-06	3.756250e-06	1.314311e-09	2.672637e+01	8.362309e+01
2.760000e-06	3.788446e-06	1.317218e-09	2.695545e+01	8.416803e+01
2.770000e-06	3.820449e-06	1.318727e-09	2.718315e+01	8.468393e+01
2.780000e-06	3.852308e-06	1.326333e-09	2.740983e+01	8.517225e+01
2.790000e-06	3.884057e-06	1.338685e-09	2.763574e+01	8.563459e+01
2.800000e-06	3.915679e-06	1.346064e-09	2.786073e+01	8.607258e+01
2.810000e-06	3.947050e-06	1.347116e-09	2.808394e+01	8.648790e+01
2.820000e-06	3.978159e-06	1.350208e-09	2.830529e+01	8.688214e+01
2.830000e-06	4.008994e-06	1.359559e-09	2.852469e+01	8.725684e+01
2.840000e-06	4.039491e-06	1.367636e-09	2.874167e+01	8.761334e+01
2.850000e-06	4.069665e-06	1.368642e-09	2.895637e+01	8.795283e+01
2.860000e-06	4.099544e-06	1.367151e-09	2.916896e+01	8.827627e+01
2.870000e-06	4.129230e-06	1.370552e-09	2.938019e+01	8.858441e+01
2.880000e-06	4.158671e-06	1.375699e-09	2.958966e+01	8.887777e+01
2.890000e-06	4.187833e-06	1.375188e-09	2.979716e+01	8.915666e+01
2.900000e-06	4.216692e-06	1.373632e-09	3.000249e+01	8.942122e+01
