# Temperatura_=_8.04
# Concentracion g/m^3_=_4090.0
# C_Vs_to_Am_M_A/Vsm_=_65563218390.804596
# pendiente_HvsI_1/m_=_3716.3
# ordenada_HvsI_A/m_=_1297.0
# frecuencia_Hz_=_135086.24835407437

Tiempo_(s)	Campo_(V.s)	Magnetizacion_(V.s)	Campo_(kA/m)	Magnetizacion_(A/m)
0.000000e+00	-5.419025e-06	-1.350819e-09	-3.837556e+01	-8.985406e+01
1.000000e-08	-5.419265e-06	-1.342646e-09	-3.837726e+01	-8.971457e+01
2.000000e-08	-5.419382e-06	-1.335279e-09	-3.837809e+01	-8.955890e+01
3.000000e-08	-5.419256e-06	-1.329538e-09	-3.837720e+01	-8.938721e+01
4.000000e-08	-5.418703e-06	-1.327983e-09	-3.837328e+01	-8.920045e+01
5.000000e-08	-5.417708e-06	-1.329914e-09	-3.836624e+01	-8.900040e+01
6.000000e-08	-5.416137e-06	-1.329193e-09	-3.835511e+01	-8.878972e+01
7.000000e-08	-5.413953e-06	-1.315021e-09	-3.833965e+01	-8.857182e+01
8.000000e-08	-5.411195e-06	-1.304501e-09	-3.832011e+01	-8.835085e+01
9.000000e-08	-5.407874e-06	-1.361844e-09	-3.829659e+01	-8.813153e+01
1.000000e-07	-5.404002e-06	-1.401367e-09	-3.826917e+01	-8.791901e+01
1.100000e-07	-5.399657e-06	-1.310446e-09	-3.823840e+01	-8.771867e+01
1.200000e-07	-5.395308e-06	-1.265476e-09	-3.820761e+01	-8.753590e+01
1.300000e-07	-5.390964e-06	-1.349618e-09	-3.817685e+01	-8.737590e+01
1.400000e-07	-5.386116e-06	-1.396162e-09	-3.814251e+01	-8.724343e+01
1.500000e-07	-5.380721e-06	-1.304244e-09	-3.810431e+01	-8.714261e+01
1.600000e-07	-5.374984e-06	-1.208470e-09	-3.806368e+01	-8.707671e+01
1.700000e-07	-5.368966e-06	-1.355374e-09	-3.802106e+01	-8.704798e+01
1.800000e-07	-5.362500e-06	-1.364266e-09	-3.797527e+01	-8.705755e+01
1.900000e-07	-5.355475e-06	-1.304422e-09	-3.792552e+01	-8.710529e+01
2.000000e-07	-5.348137e-06	-1.244276e-09	-3.787356e+01	-8.718982e+01
2.100000e-07	-5.340735e-06	-1.380108e-09	-3.782114e+01	-8.730851e+01
2.200000e-07	-5.333042e-06	-1.341255e-09	-3.776666e+01	-8.745756e+01
2.300000e-07	-5.325065e-06	-1.270199e-09	-3.771017e+01	-8.763208e+01
2.400000e-07	-5.316955e-06	-1.325071e-09	-3.765274e+01	-8.782631e+01
2.500000e-07	-5.308381e-06	-1.437472e-09	-3.759202e+01	-8.803379e+01
2.600000e-07	-5.298856e-06	-1.383596e-09	-3.752457e+01	-8.824761e+01
2.700000e-07	-5.288615e-06	-1.328905e-09	-3.745204e+01	-8.846064e+01
2.800000e-07	-5.277846e-06	-1.436614e-09	-3.737578e+01	-8.866582e+01
2.900000e-07	-5.266575e-06	-1.426013e-09	-3.729597e+01	-8.885639e+01
3.000000e-07	-5.254965e-06	-1.300809e-09	-3.721375e+01	-8.902615e+01
3.100000e-07	-5.242964e-06	-1.312591e-09	-3.712876e+01	-8.916967e+01
3.200000e-07	-5.230529e-06	-1.459614e-09	-3.704070e+01	-8.928248e+01
3.300000e-07	-5.217640e-06	-1.392034e-09	-3.694943e+01	-8.936120e+01
3.400000e-07	-5.204478e-06	-1.342296e-09	-3.685622e+01	-8.940361e+01
3.500000e-07	-5.191004e-06	-1.390003e-09	-3.676080e+01	-8.940873e+01
3.600000e-07	-5.177096e-06	-1.436497e-09	-3.666231e+01	-8.937677e+01
3.700000e-07	-5.162804e-06	-1.334643e-09	-3.656110e+01	-8.930909e+01
3.800000e-07	-5.148116e-06	-1.367722e-09	-3.645708e+01	-8.920806e+01
3.900000e-07	-5.132719e-06	-1.370157e-09	-3.634804e+01	-8.907693e+01
4.000000e-07	-5.116575e-06	-1.345257e-09	-3.623372e+01	-8.891964e+01
4.100000e-07	-5.100118e-06	-1.348476e-09	-3.611718e+01	-8.874060e+01
4.200000e-07	-5.083402e-06	-1.426652e-09	-3.599881e+01	-8.854450e+01
4.300000e-07	-5.066265e-06	-1.355126e-09	-3.587744e+01	-8.833606e+01
4.400000e-07	-5.048854e-06	-1.325376e-09	-3.575415e+01	-8.811983e+01
4.500000e-07	-5.031164e-06	-1.370930e-09	-3.562887e+01	-8.790001e+01
4.600000e-07	-5.013234e-06	-1.384754e-09	-3.550190e+01	-8.768028e+01
4.700000e-07	-4.994998e-06	-1.311847e-09	-3.537276e+01	-8.746366e+01
4.800000e-07	-4.976270e-06	-1.331664e-09	-3.524013e+01	-8.725245e+01
4.900000e-07	-4.957073e-06	-1.358708e-09	-3.510419e+01	-8.704813e+01
5.000000e-07	-4.937574e-06	-1.349939e-09	-3.496610e+01	-8.685143e+01
5.100000e-07	-4.917910e-06	-1.335276e-09	-3.482685e+01	-8.666232e+01
5.200000e-07	-4.898136e-06	-1.326406e-09	-3.468682e+01	-8.648008e+01
5.300000e-07	-4.878118e-06	-1.309428e-09	-3.454505e+01	-8.630344e+01
5.400000e-07	-4.857769e-06	-1.330733e-09	-3.440095e+01	-8.613070e+01
5.500000e-07	-4.837014e-06	-1.349735e-09	-3.425397e+01	-8.595985e+01
5.600000e-07	-4.815783e-06	-1.318677e-09	-3.410362e+01	-8.578876e+01
5.700000e-07	-4.794247e-06	-1.313918e-09	-3.395112e+01	-8.561534e+01
5.800000e-07	-4.772458e-06	-1.330297e-09	-3.379681e+01	-8.543763e+01
5.900000e-07	-4.750365e-06	-1.324371e-09	-3.364036e+01	-8.525398e+01
6.000000e-07	-4.727981e-06	-1.292423e-09	-3.348184e+01	-8.506316e+01
6.100000e-07	-4.705194e-06	-1.292410e-09	-3.332047e+01	-8.486436e+01
6.200000e-07	-4.682053e-06	-1.293050e-09	-3.315660e+01	-8.465731e+01
6.300000e-07	-4.658648e-06	-1.316192e-09	-3.299085e+01	-8.444225e+01
6.400000e-07	-4.635014e-06	-1.312910e-09	-3.282348e+01	-8.421993e+01
6.500000e-07	-4.611183e-06	-1.304114e-09	-3.265472e+01	-8.399150e+01
6.600000e-07	-4.587097e-06	-1.291082e-09	-3.248415e+01	-8.375852e+01
6.700000e-07	-4.562766e-06	-1.304646e-09	-3.231185e+01	-8.352276e+01
6.800000e-07	-4.538021e-06	-1.283827e-09	-3.213661e+01	-8.328617e+01
6.900000e-07	-4.512849e-06	-1.270115e-09	-3.195835e+01	-8.305071e+01
7.000000e-07	-4.487093e-06	-1.258399e-09	-3.177596e+01	-8.281825e+01
7.100000e-07	-4.460664e-06	-1.274682e-09	-3.158880e+01	-8.259045e+01
7.200000e-07	-4.433853e-06	-1.275516e-09	-3.139893e+01	-8.236867e+01
7.300000e-07	-4.406712e-06	-1.279350e-09	-3.120673e+01	-8.215388e+01
7.400000e-07	-4.379195e-06	-1.263860e-09	-3.101186e+01	-8.194662e+01
7.500000e-07	-4.351437e-06	-1.266347e-09	-3.081529e+01	-8.174695e+01
7.600000e-07	-4.323557e-06	-1.259483e-09	-3.061786e+01	-8.155449e+01
7.700000e-07	-4.295477e-06	-1.250757e-09	-3.041901e+01	-8.136837e+01
7.800000e-07	-4.267166e-06	-1.237809e-09	-3.021852e+01	-8.118739e+01
7.900000e-07	-4.238604e-06	-1.242536e-09	-3.001625e+01	-8.100998e+01
8.000000e-07	-4.209627e-06	-1.243993e-09	-2.981105e+01	-8.083436e+01
8.100000e-07	-4.180330e-06	-1.242684e-09	-2.960358e+01	-8.065864e+01
8.200000e-07	-4.150734e-06	-1.233706e-09	-2.939399e+01	-8.048086e+01
8.300000e-07	-4.120895e-06	-1.226835e-09	-2.918268e+01	-8.029917e+01
8.400000e-07	-4.090895e-06	-1.226633e-09	-2.897023e+01	-8.011190e+01
8.500000e-07	-4.060539e-06	-1.225596e-09	-2.875526e+01	-7.991762e+01
8.600000e-07	-4.029856e-06	-1.220504e-09	-2.853798e+01	-7.971525e+01
8.700000e-07	-3.998917e-06	-1.213830e-09	-2.831887e+01	-7.950407e+01
8.800000e-07	-3.967698e-06	-1.217446e-09	-2.809780e+01	-7.928376e+01
8.900000e-07	-3.936271e-06	-1.215637e-09	-2.787524e+01	-7.905444e+01
9.000000e-07	-3.904644e-06	-1.206436e-09	-2.765127e+01	-7.881658e+01
9.100000e-07	-3.872850e-06	-1.189294e-09	-2.742611e+01	-7.857100e+01
9.200000e-07	-3.840984e-06	-1.188568e-09	-2.720045e+01	-7.831882e+01
9.300000e-07	-3.808970e-06	-1.190219e-09	-2.697374e+01	-7.806137e+01
9.400000e-07	-3.776629e-06	-1.195804e-09	-2.674471e+01	-7.780009e+01
9.500000e-07	-3.743993e-06	-1.192608e-09	-2.651360e+01	-7.753650e+01
9.600000e-07	-3.711072e-06	-1.200780e-09	-2.628046e+01	-7.727204e+01
9.700000e-07	-3.677531e-06	-1.199715e-09	-2.604293e+01	-7.700808e+01
9.800000e-07	-3.643361e-06	-1.191405e-09	-2.580096e+01	-7.674577e+01
9.900000e-07	-3.608678e-06	-1.167782e-09	-2.555534e+01	-7.648603e+01
1.000000e-06	-3.573603e-06	-1.155967e-09	-2.530695e+01	-7.622951e+01
1.010000e-06	-3.538374e-06	-1.152091e-09	-2.505748e+01	-7.597654e+01
1.020000e-06	-3.502975e-06	-1.159685e-09	-2.480680e+01	-7.572720e+01
1.030000e-06	-3.467372e-06	-1.160931e-09	-2.455467e+01	-7.548124e+01
1.040000e-06	-3.431629e-06	-1.167902e-09	-2.430155e+01	-7.523820e+01
1.050000e-06	-3.395757e-06	-1.170771e-09	-2.404752e+01	-7.499742e+01
1.060000e-06	-3.359749e-06	-1.169330e-09	-2.379252e+01	-7.475809e+01
1.070000e-06	-3.323600e-06	-1.151634e-09	-2.353653e+01	-7.451934e+01
1.080000e-06	-3.287231e-06	-1.132799e-09	-2.327897e+01	-7.428028e+01
1.090000e-06	-3.250554e-06	-1.122046e-09	-2.301924e+01	-7.404009e+01
1.100000e-06	-3.213569e-06	-1.124967e-09	-2.275732e+01	-7.379803e+01
1.110000e-06	-3.176397e-06	-1.129258e-09	-2.249409e+01	-7.355356e+01
1.120000e-06	-3.139020e-06	-1.132673e-09	-2.222940e+01	-7.330629e+01
1.130000e-06	-3.101385e-06	-1.133984e-09	-2.196288e+01	-7.305605e+01
1.140000e-06	-3.063524e-06	-1.133446e-09	-2.169476e+01	-7.280290e+01
1.150000e-06	-3.025451e-06	-1.127830e-09	-2.142514e+01	-7.254708e+01
1.160000e-06	-2.987206e-06	-1.115244e-09	-2.115430e+01	-7.228900e+01
1.170000e-06	-2.948771e-06	-1.104205e-09	-2.088212e+01	-7.202924e+01
1.180000e-06	-2.910113e-06	-1.097269e-09	-2.060836e+01	-7.176841e+01
1.190000e-06	-2.871266e-06	-1.095861e-09	-2.033326e+01	-7.150720e+01
1.200000e-06	-2.832139e-06	-1.091999e-09	-2.005618e+01	-7.124626e+01
1.210000e-06	-2.792867e-06	-1.093443e-09	-1.977807e+01	-7.098615e+01
1.220000e-06	-2.753448e-06	-1.095833e-09	-1.949891e+01	-7.072732e+01
1.230000e-06	-2.713799e-06	-1.097321e-09	-1.921814e+01	-7.047004e+01
1.240000e-06	-2.674089e-06	-1.091483e-09	-1.893693e+01	-7.021436e+01
1.250000e-06	-2.634280e-06	-1.086479e-09	-1.865501e+01	-6.996015e+01
1.260000e-06	-2.594369e-06	-1.077767e-09	-1.837238e+01	-6.970700e+01
1.270000e-06	-2.554374e-06	-1.073995e-09	-1.808915e+01	-6.945434e+01
1.280000e-06	-2.514316e-06	-1.066164e-09	-1.780547e+01	-6.920138e+01
1.290000e-06	-2.474077e-06	-1.059990e-09	-1.752051e+01	-6.894717e+01
1.300000e-06	-2.433597e-06	-1.054581e-09	-1.723385e+01	-6.869065e+01
1.310000e-06	-2.393002e-06	-1.053018e-09	-1.694637e+01	-6.843072e+01
1.320000e-06	-2.352219e-06	-1.047946e-09	-1.665756e+01	-6.816627e+01
1.330000e-06	-2.311156e-06	-1.043627e-09	-1.636676e+01	-6.789622e+01
1.340000e-06	-2.269802e-06	-1.038438e-09	-1.607391e+01	-6.761961e+01
1.350000e-06	-2.228158e-06	-1.036955e-09	-1.577901e+01	-6.733564e+01
1.360000e-06	-2.186144e-06	-1.033319e-09	-1.548148e+01	-6.704367e+01
1.370000e-06	-2.143736e-06	-1.027080e-09	-1.518116e+01	-6.674329e+01
1.380000e-06	-2.101194e-06	-1.017590e-09	-1.487989e+01	-6.643430e+01
1.390000e-06	-2.058387e-06	-1.009840e-09	-1.457675e+01	-6.611669e+01
1.400000e-06	-2.015229e-06	-1.003136e-09	-1.427112e+01	-6.579070e+01
1.410000e-06	-1.971953e-06	-9.977544e-10	-1.396466e+01	-6.545670e+01
1.420000e-06	-1.928551e-06	-9.921011e-10	-1.365730e+01	-6.511522e+01
1.430000e-06	-1.885039e-06	-9.900517e-10	-1.334916e+01	-6.476685e+01
1.440000e-06	-1.841504e-06	-9.902638e-10	-1.304086e+01	-6.441223e+01
1.450000e-06	-1.797889e-06	-9.856220e-10	-1.273200e+01	-6.405198e+01
1.460000e-06	-1.754155e-06	-9.772298e-10	-1.242229e+01	-6.368666e+01
1.470000e-06	-1.710361e-06	-9.678199e-10	-1.211216e+01	-6.331670e+01
1.480000e-06	-1.666474e-06	-9.623499e-10	-1.180137e+01	-6.294239e+01
1.490000e-06	-1.622489e-06	-9.553098e-10	-1.148988e+01	-6.256384e+01
1.500000e-06	-1.578476e-06	-9.472482e-10	-1.117819e+01	-6.218094e+01
1.510000e-06	-1.534441e-06	-9.411988e-10	-1.086635e+01	-6.179342e+01
1.520000e-06	-1.490312e-06	-9.384607e-10	-1.055385e+01	-6.140078e+01
1.530000e-06	-1.445985e-06	-9.327827e-10	-1.023994e+01	-6.100238e+01
1.540000e-06	-1.401528e-06	-9.231987e-10	-9.925108e+00	-6.059744e+01
1.550000e-06	-1.357087e-06	-9.114501e-10	-9.610395e+00	-6.018506e+01
1.560000e-06	-1.312528e-06	-9.043269e-10	-9.294847e+00	-5.976432e+01
1.570000e-06	-1.267824e-06	-8.992968e-10	-8.978267e+00	-5.933428e+01
1.580000e-06	-1.223039e-06	-8.966583e-10	-8.661116e+00	-5.889405e+01
1.590000e-06	-1.178151e-06	-8.931851e-10	-8.343237e+00	-5.844283e+01
1.600000e-06	-1.133196e-06	-8.891934e-10	-8.024878e+00	-5.797997e+01
1.610000e-06	-1.088196e-06	-8.806623e-10	-7.706211e+00	-5.750494e+01
1.620000e-06	-1.043039e-06	-8.702281e-10	-7.386424e+00	-5.701741e+01
1.630000e-06	-9.977411e-07	-8.582864e-10	-7.065639e+00	-5.651723e+01
1.640000e-06	-9.524001e-07	-8.496300e-10	-6.744551e+00	-5.600440e+01
1.650000e-06	-9.070234e-07	-8.414817e-10	-6.423210e+00	-5.547910e+01
1.660000e-06	-8.616276e-07	-8.352426e-10	-6.101733e+00	-5.494160e+01
1.670000e-06	-8.161273e-07	-8.312524e-10	-5.779516e+00	-5.439228e+01
1.680000e-06	-7.705268e-07	-8.278080e-10	-5.456590e+00	-5.383152e+01
1.690000e-06	-7.249696e-07	-8.191933e-10	-5.133970e+00	-5.325971e+01
1.700000e-06	-6.793900e-07	-8.052745e-10	-4.811193e+00	-5.267714e+01
1.710000e-06	-6.336691e-07	-7.910726e-10	-4.487414e+00	-5.208399e+01
1.720000e-06	-5.879301e-07	-7.813149e-10	-4.163507e+00	-5.148028e+01
1.730000e-06	-5.421458e-07	-7.754460e-10	-3.839279e+00	-5.086580e+01
1.740000e-06	-4.963658e-07	-7.696270e-10	-3.515082e+00	-5.024013e+01
1.750000e-06	-4.506395e-07	-7.637269e-10	-3.191265e+00	-4.960260e+01
1.760000e-06	-4.048362e-07	-7.569606e-10	-2.866903e+00	-4.895229e+01
1.770000e-06	-3.589462e-07	-7.448697e-10	-2.541927e+00	-4.828807e+01
1.780000e-06	-3.130408e-07	-7.270735e-10	-2.216841e+00	-4.760857e+01
1.790000e-06	-2.670826e-07	-7.101427e-10	-1.891382e+00	-4.691228e+01
1.800000e-06	-2.210348e-07	-6.973860e-10	-1.565288e+00	-4.619754e+01
1.810000e-06	-1.750531e-07	-6.867726e-10	-1.239662e+00	-4.546265e+01
1.820000e-06	-1.290723e-07	-6.747524e-10	-9.140432e-01	-4.470586e+01
1.830000e-06	-8.309204e-08	-6.627227e-10	-5.884276e-01	-4.392549e+01
1.840000e-06	-3.719613e-08	-6.499846e-10	-2.634095e-01	-4.311995e+01
1.850000e-06	8.736404e-09	-6.383792e-10	6.186803e-02	-4.228779e+01
1.860000e-06	5.470047e-08	-6.257602e-10	3.873688e-01	-4.142774e+01
1.870000e-06	1.006500e-07	-6.135582e-10	7.127669e-01	-4.053876e+01
1.880000e-06	1.465846e-07	-6.007585e-10	1.038058e+00	-3.962001e+01
1.890000e-06	1.924999e-07	-5.871326e-10	1.363214e+00	-3.867093e+01
1.900000e-06	2.384628e-07	-5.703799e-10	1.688707e+00	-3.769116e+01
1.910000e-06	2.843656e-07	-5.523062e-10	2.013774e+00	-3.668057e+01
1.920000e-06	3.302176e-07	-5.334206e-10	2.338481e+00	-3.563918e+01
1.930000e-06	3.760624e-07	-5.159464e-10	2.663137e+00	-3.456720e+01
1.940000e-06	4.218321e-07	-4.995599e-10	2.987261e+00	-3.346490e+01
1.950000e-06	4.676259e-07	-4.834411e-10	3.311557e+00	-3.233264e+01
1.960000e-06	5.133706e-07	-4.671650e-10	3.635504e+00	-3.117078e+01
1.970000e-06	5.589898e-07	-4.494678e-10	3.958562e+00	-2.997964e+01
1.980000e-06	6.046043e-07	-4.283728e-10	4.281587e+00	-2.875949e+01
1.990000e-06	6.502322e-07	-4.059675e-10	4.604708e+00	-2.751049e+01
2.000000e-06	6.957514e-07	-3.838694e-10	4.927058e+00	-2.623270e+01
2.010000e-06	7.412423e-07	-3.617585e-10	5.249208e+00	-2.492607e+01
2.020000e-06	7.868209e-07	-3.392927e-10	5.571979e+00	-2.359040e+01
2.030000e-06	8.323718e-07	-3.182260e-10	5.894554e+00	-2.222542e+01
2.040000e-06	8.777426e-07	-2.992987e-10	6.215853e+00	-2.083077e+01
2.050000e-06	9.230548e-07	-2.805621e-10	6.536738e+00	-1.940605e+01
2.060000e-06	9.683393e-07	-2.616499e-10	6.857426e+00	-1.795086e+01
2.070000e-06	1.013540e-06	-2.391408e-10	7.177520e+00	-1.646484e+01
2.080000e-06	1.058668e-06	-2.124667e-10	7.497102e+00	-1.494770e+01
2.090000e-06	1.103721e-06	-1.855315e-10	7.816154e+00	-1.339930e+01
2.100000e-06	1.148654e-06	-1.561783e-10	8.134347e+00	-1.181964e+01
2.110000e-06	1.193438e-06	-1.276342e-10	8.451495e+00	-1.020895e+01
2.120000e-06	1.238228e-06	-1.010402e-10	8.768679e+00	-8.567652e+00
2.130000e-06	1.282941e-06	-8.050514e-11	9.085318e+00	-6.896422e+00
2.140000e-06	1.327422e-06	-6.248722e-11	9.400316e+00	-5.196178e+00
2.150000e-06	1.371737e-06	-4.190029e-11	9.714139e+00	-3.468073e+00
2.160000e-06	1.415987e-06	-1.579169e-11	1.002751e+01	-1.713487e+00
2.170000e-06	1.460203e-06	1.680063e-11	1.034063e+01	6.599778e-02
2.180000e-06	1.504343e-06	5.187479e-11	1.065321e+01	1.868627e+00
2.190000e-06	1.548409e-06	8.531548e-11	1.096527e+01	3.692504e+00
2.200000e-06	1.592409e-06	1.119952e-10	1.127686e+01	5.535625e+00
2.210000e-06	1.636328e-06	1.321918e-10	1.158788e+01	7.395915e+00
2.220000e-06	1.680193e-06	1.497910e-10	1.189851e+01	9.271258e+00
2.230000e-06	1.724025e-06	1.725918e-10	1.220891e+01	1.115952e+01
2.240000e-06	1.767812e-06	2.041433e-10	1.251900e+01	1.305859e+01
2.250000e-06	1.811565e-06	2.442371e-10	1.282884e+01	1.496635e+01
2.260000e-06	1.855316e-06	2.851163e-10	1.313868e+01	1.688073e+01
2.270000e-06	1.898933e-06	3.226490e-10	1.344755e+01	1.879968e+01
2.280000e-06	1.942329e-06	3.506829e-10	1.375487e+01	2.072115e+01
2.290000e-06	1.985683e-06	3.700647e-10	1.406188e+01	2.264310e+01
2.300000e-06	2.029011e-06	3.877624e-10	1.436872e+01	2.456347e+01
2.310000e-06	2.072114e-06	4.098722e-10	1.467395e+01	2.648017e+01
2.320000e-06	2.115010e-06	4.371397e-10	1.497773e+01	2.839101e+01
2.330000e-06	2.157563e-06	4.724319e-10	1.527907e+01	3.029377e+01
2.340000e-06	2.199763e-06	5.101134e-10	1.557792e+01	3.218609e+01
2.350000e-06	2.241755e-06	5.457721e-10	1.587529e+01	3.406555e+01
2.360000e-06	2.283551e-06	5.728106e-10	1.617128e+01	3.592962e+01
2.370000e-06	2.325030e-06	5.919346e-10	1.646501e+01	3.777568e+01
2.380000e-06	2.366073e-06	6.098300e-10	1.675567e+01	3.960106e+01
2.390000e-06	2.406790e-06	6.329326e-10	1.704401e+01	4.140305e+01
2.400000e-06	2.447271e-06	6.623151e-10	1.733068e+01	4.317897e+01
2.410000e-06	2.487528e-06	6.945306e-10	1.761577e+01	4.492619e+01
2.420000e-06	2.527661e-06	7.272595e-10	1.789998e+01	4.664218e+01
2.430000e-06	2.567700e-06	7.572474e-10	1.818352e+01	4.832460e+01
2.440000e-06	2.607581e-06	7.839069e-10	1.846594e+01	4.997131e+01
2.450000e-06	2.647386e-06	8.058333e-10	1.874782e+01	5.158046e+01
2.460000e-06	2.687132e-06	8.228106e-10	1.902929e+01	5.315049e+01
2.470000e-06	2.726795e-06	8.395463e-10	1.931017e+01	5.468021e+01
2.480000e-06	2.766344e-06	8.616758e-10	1.959024e+01	5.616880e+01
2.490000e-06	2.805769e-06	8.884761e-10	1.986943e+01	5.761580e+01
2.500000e-06	2.844989e-06	9.157615e-10	2.014717e+01	5.902116e+01
2.510000e-06	2.883925e-06	9.420751e-10	2.042291e+01	6.038515e+01
2.520000e-06	2.922693e-06	9.666164e-10	2.069745e+01	6.170840e+01
2.530000e-06	2.961232e-06	9.896066e-10	2.097037e+01	6.299180e+01
2.540000e-06	2.999462e-06	1.008742e-09	2.124110e+01	6.423647e+01
2.550000e-06	3.037529e-06	1.022744e-09	2.151068e+01	6.544369e+01
2.560000e-06	3.075410e-06	1.035901e-09	2.177894e+01	6.661484e+01
2.570000e-06	3.113115e-06	1.051006e-09	2.204594e+01	6.775134e+01
2.580000e-06	3.150609e-06	1.069309e-09	2.231147e+01	6.885455e+01
2.590000e-06	3.187881e-06	1.086419e-09	2.257541e+01	6.992576e+01
2.600000e-06	3.224966e-06	1.104536e-09	2.283803e+01	7.096608e+01
2.610000e-06	3.261797e-06	1.122775e-09	2.309886e+01	7.197647e+01
2.620000e-06	3.298371e-06	1.141937e-09	2.335786e+01	7.295765e+01
2.630000e-06	3.334630e-06	1.157254e-09	2.361464e+01	7.391015e+01
2.640000e-06	3.370660e-06	1.169231e-09	2.386978e+01	7.483426e+01
2.650000e-06	3.406555e-06	1.179786e-09	2.412399e+01	7.573007e+01
2.660000e-06	3.442335e-06	1.190796e-09	2.437736e+01	7.659750e+01
2.670000e-06	3.478076e-06	1.200561e-09	2.463047e+01	7.743635e+01
2.680000e-06	3.513698e-06	1.208806e-09	2.488273e+01	7.824633e+01
2.690000e-06	3.549116e-06	1.219725e-09	2.513355e+01	7.902713e+01
2.700000e-06	3.584283e-06	1.232817e-09	2.538259e+01	7.977845e+01
2.710000e-06	3.619006e-06	1.247211e-09	2.562848e+01	8.050008e+01
2.720000e-06	3.653141e-06	1.261290e-09	2.587021e+01	8.119193e+01
2.730000e-06	3.686863e-06	1.272807e-09	2.610902e+01	8.185408e+01
2.740000e-06	3.720187e-06	1.282725e-09	2.634501e+01	8.248678e+01
2.750000e-06	3.753109e-06	1.288579e-09	2.657815e+01	8.309051e+01
2.760000e-06	3.785591e-06	1.290928e-09	2.680818e+01	8.366592e+01
2.770000e-06	3.817701e-06	1.293916e-09	2.703557e+01	8.421388e+01
2.780000e-06	3.849750e-06	1.300101e-09	2.726253e+01	8.473542e+01
2.790000e-06	3.881679e-06	1.310507e-09	2.748864e+01	8.523168e+01
2.800000e-06	3.913421e-06	1.321390e-09	2.771342e+01	8.570392e+01
2.810000e-06	3.945077e-06	1.330570e-09	2.793760e+01	8.615342e+01
2.820000e-06	3.976497e-06	1.335628e-09	2.816010e+01	8.658146e+01
2.830000e-06	4.007524e-06	1.337595e-09	2.837983e+01	8.698923e+01
2.840000e-06	4.038157e-06	1.338773e-09	2.859676e+01	8.737785e+01
2.850000e-06	4.068542e-06	1.342345e-09	2.881193e+01	8.774827e+01
2.860000e-06	4.098741e-06	1.346408e-09	2.902579e+01	8.810126e+01
2.870000e-06	4.128675e-06	1.352150e-09	2.923778e+01	8.843741e+01
2.880000e-06	4.158386e-06	1.357811e-09	2.944817e+01	8.875712e+01
2.890000e-06	4.187787e-06	1.362740e-09	2.965638e+01	8.906060e+01
2.900000e-06	4.216874e-06	1.366058e-09	2.986237e+01	8.934791e+01
