# Temperatura_=_-1.52
# Concentracion g/m^3_=_4090.0
# C_Vs_to_Am_M_A/Vsm_=_65563218390.804596
# pendiente_HvsI_1/m_=_3716.3
# ordenada_HvsI_A/m_=_1297.0
# frecuencia_Hz_=_135071.08585910322

Tiempo_(s)	Campo_(V.s)	Magnetizacion_(V.s)	Campo_(kA/m)	Magnetizacion_(A/m)
0.000000e+00	-5.412081e-06	-2.069610e-09	-3.839421e+01	-1.383719e+02
1.000000e-08	-5.412252e-06	-2.065520e-09	-3.839542e+01	-1.382273e+02
2.000000e-08	-5.412222e-06	-2.062592e-09	-3.839520e+01	-1.380615e+02
3.000000e-08	-5.411948e-06	-2.061126e-09	-3.839326e+01	-1.378750e+02
4.000000e-08	-5.411273e-06	-2.062282e-09	-3.838847e+01	-1.376695e+02
5.000000e-08	-5.410147e-06	-2.064656e-09	-3.838049e+01	-1.374477e+02
6.000000e-08	-5.408472e-06	-2.064717e-09	-3.836860e+01	-1.372132e+02
7.000000e-08	-5.406241e-06	-2.061494e-09	-3.835278e+01	-1.369709e+02
8.000000e-08	-5.403392e-06	-2.067073e-09	-3.833256e+01	-1.367261e+02
9.000000e-08	-5.399901e-06	-2.066674e-09	-3.830780e+01	-1.364851e+02
1.000000e-07	-5.395939e-06	-2.057837e-09	-3.827969e+01	-1.362543e+02
1.100000e-07	-5.391635e-06	-2.055518e-09	-3.824916e+01	-1.360405e+02
1.200000e-07	-5.387168e-06	-2.088743e-09	-3.821746e+01	-1.358504e+02
1.300000e-07	-5.382465e-06	-2.061134e-09	-3.818410e+01	-1.356902e+02
1.400000e-07	-5.377316e-06	-2.037099e-09	-3.814757e+01	-1.355656e+02
1.500000e-07	-5.371790e-06	-2.043514e-09	-3.810837e+01	-1.354815e+02
1.600000e-07	-5.366047e-06	-2.087719e-09	-3.806763e+01	-1.354415e+02
1.700000e-07	-5.359972e-06	-2.051813e-09	-3.802453e+01	-1.354481e+02
1.800000e-07	-5.353403e-06	-2.001838e-09	-3.797793e+01	-1.355024e+02
1.900000e-07	-5.346347e-06	-2.026104e-09	-3.792788e+01	-1.356040e+02
2.000000e-07	-5.338967e-06	-2.082714e-09	-3.787552e+01	-1.357508e+02
2.100000e-07	-5.331418e-06	-2.074602e-09	-3.782197e+01	-1.359395e+02
2.200000e-07	-5.323667e-06	-2.037348e-09	-3.776698e+01	-1.361653e+02
2.300000e-07	-5.315584e-06	-2.083381e-09	-3.770964e+01	-1.364220e+02
2.400000e-07	-5.307194e-06	-2.131158e-09	-3.765012e+01	-1.367027e+02
2.500000e-07	-5.298338e-06	-2.128352e-09	-3.758729e+01	-1.369995e+02
2.600000e-07	-5.288803e-06	-2.112601e-09	-3.751965e+01	-1.373040e+02
2.700000e-07	-5.278654e-06	-2.163416e-09	-3.744765e+01	-1.376077e+02
2.800000e-07	-5.267989e-06	-2.164738e-09	-3.737199e+01	-1.379020e+02
2.900000e-07	-5.256894e-06	-2.110072e-09	-3.729328e+01	-1.381789e+02
3.000000e-07	-5.245369e-06	-2.098816e-09	-3.721152e+01	-1.384307e+02
3.100000e-07	-5.233430e-06	-2.144092e-09	-3.712682e+01	-1.386509e+02
3.200000e-07	-5.221044e-06	-2.120932e-09	-3.703896e+01	-1.388340e+02
3.300000e-07	-5.208349e-06	-2.107405e-09	-3.694889e+01	-1.389756e+02
3.400000e-07	-5.195390e-06	-2.135409e-09	-3.685696e+01	-1.390729e+02
3.500000e-07	-5.181959e-06	-2.150739e-09	-3.676168e+01	-1.391242e+02
3.600000e-07	-5.168044e-06	-2.114815e-09	-3.666297e+01	-1.391292e+02
3.700000e-07	-5.153728e-06	-2.128644e-09	-3.656141e+01	-1.390892e+02
3.800000e-07	-5.138942e-06	-2.126828e-09	-3.645651e+01	-1.390063e+02
3.900000e-07	-5.123544e-06	-2.094665e-09	-3.634727e+01	-1.388838e+02
4.000000e-07	-5.107559e-06	-2.093305e-09	-3.623387e+01	-1.387258e+02
4.100000e-07	-5.091053e-06	-2.123837e-09	-3.611678e+01	-1.385370e+02
4.200000e-07	-5.074118e-06	-2.103240e-09	-3.599664e+01	-1.383225e+02
4.300000e-07	-5.056912e-06	-2.082807e-09	-3.587458e+01	-1.380875e+02
4.400000e-07	-5.039476e-06	-2.113974e-09	-3.575088e+01	-1.378371e+02
4.500000e-07	-5.021741e-06	-2.122133e-09	-3.562507e+01	-1.375762e+02
4.600000e-07	-5.003748e-06	-2.091904e-09	-3.549742e+01	-1.373090e+02
4.700000e-07	-4.985476e-06	-2.087642e-09	-3.536780e+01	-1.370394e+02
4.800000e-07	-4.966777e-06	-2.098869e-09	-3.523515e+01	-1.367704e+02
4.900000e-07	-4.947639e-06	-2.081141e-09	-3.509937e+01	-1.365043e+02
5.000000e-07	-4.928115e-06	-2.070413e-09	-3.496087e+01	-1.362426e+02
5.100000e-07	-4.908357e-06	-2.064307e-09	-3.482070e+01	-1.359859e+02
5.200000e-07	-4.888451e-06	-2.060432e-09	-3.467948e+01	-1.357342e+02
5.300000e-07	-4.868347e-06	-2.066670e-09	-3.453686e+01	-1.354871e+02
5.400000e-07	-4.847921e-06	-2.084501e-09	-3.439196e+01	-1.352433e+02
5.500000e-07	-4.827081e-06	-2.072843e-09	-3.424411e+01	-1.350015e+02
5.600000e-07	-4.805873e-06	-2.065531e-09	-3.409366e+01	-1.347600e+02
5.700000e-07	-4.784257e-06	-2.067879e-09	-3.394031e+01	-1.345170e+02
5.800000e-07	-4.762327e-06	-2.061435e-09	-3.378474e+01	-1.342710e+02
5.900000e-07	-4.740207e-06	-2.034463e-09	-3.362782e+01	-1.340205e+02
6.000000e-07	-4.717754e-06	-2.027169e-09	-3.346853e+01	-1.337643e+02
6.100000e-07	-4.694933e-06	-2.031862e-09	-3.330664e+01	-1.335016e+02
6.200000e-07	-4.671790e-06	-2.042120e-09	-3.314245e+01	-1.332321e+02
6.300000e-07	-4.648402e-06	-2.039765e-09	-3.297653e+01	-1.329558e+02
6.400000e-07	-4.624777e-06	-2.037708e-09	-3.280894e+01	-1.326732e+02
6.500000e-07	-4.600889e-06	-2.036627e-09	-3.263947e+01	-1.323851e+02
6.600000e-07	-4.576780e-06	-2.038709e-09	-3.246844e+01	-1.320926e+02
6.700000e-07	-4.552451e-06	-2.028988e-09	-3.229585e+01	-1.317972e+02
6.800000e-07	-4.527741e-06	-2.018351e-09	-3.212055e+01	-1.315003e+02
6.900000e-07	-4.502533e-06	-2.013199e-09	-3.194172e+01	-1.312034e+02
7.000000e-07	-4.476750e-06	-2.013394e-09	-3.175881e+01	-1.309080e+02
7.100000e-07	-4.450473e-06	-2.008050e-09	-3.157240e+01	-1.306154e+02
7.200000e-07	-4.423835e-06	-2.000609e-09	-3.138342e+01	-1.303266e+02
7.300000e-07	-4.396716e-06	-1.996409e-09	-3.119103e+01	-1.300424e+02
7.400000e-07	-4.369183e-06	-1.998812e-09	-3.099572e+01	-1.297631e+02
7.500000e-07	-4.341436e-06	-1.997069e-09	-3.079887e+01	-1.294887e+02
7.600000e-07	-4.313514e-06	-1.986884e-09	-3.060079e+01	-1.292189e+02
7.700000e-07	-4.285423e-06	-1.980401e-09	-3.040150e+01	-1.289527e+02
7.800000e-07	-4.257112e-06	-1.978798e-09	-3.020066e+01	-1.286893e+02
7.900000e-07	-4.228511e-06	-1.975283e-09	-2.999776e+01	-1.284272e+02
8.000000e-07	-4.199565e-06	-1.962549e-09	-2.979242e+01	-1.281649e+02
8.100000e-07	-4.170297e-06	-1.951944e-09	-2.958478e+01	-1.279009e+02
8.200000e-07	-4.140757e-06	-1.946437e-09	-2.937522e+01	-1.276335e+02
8.300000e-07	-4.110922e-06	-1.948041e-09	-2.916356e+01	-1.273611e+02
8.400000e-07	-4.080823e-06	-1.944714e-09	-2.895004e+01	-1.270825e+02
8.500000e-07	-4.050417e-06	-1.940083e-09	-2.873434e+01	-1.267963e+02
8.600000e-07	-4.019693e-06	-1.936484e-09	-2.851637e+01	-1.265017e+02
8.700000e-07	-3.988764e-06	-1.938127e-09	-2.829696e+01	-1.261982e+02
8.800000e-07	-3.957649e-06	-1.930338e-09	-2.807622e+01	-1.258853e+02
8.900000e-07	-3.926273e-06	-1.914693e-09	-2.785364e+01	-1.255633e+02
9.000000e-07	-3.894629e-06	-1.897928e-09	-2.762915e+01	-1.252323e+02
9.100000e-07	-3.862789e-06	-1.892109e-09	-2.740327e+01	-1.248932e+02
9.200000e-07	-3.830776e-06	-1.891486e-09	-2.717616e+01	-1.245467e+02
9.300000e-07	-3.798602e-06	-1.892569e-09	-2.694792e+01	-1.241938e+02
9.400000e-07	-3.766259e-06	-1.891194e-09	-2.671847e+01	-1.238357e+02
9.500000e-07	-3.733616e-06	-1.894067e-09	-2.648689e+01	-1.234735e+02
9.600000e-07	-3.700625e-06	-1.891724e-09	-2.625285e+01	-1.231082e+02
9.700000e-07	-3.667293e-06	-1.879980e-09	-2.601639e+01	-1.227410e+02
9.800000e-07	-3.633496e-06	-1.860065e-09	-2.577663e+01	-1.223727e+02
9.900000e-07	-3.599142e-06	-1.844477e-09	-2.553291e+01	-1.220040e+02
1.000000e-06	-3.564424e-06	-1.837178e-09	-2.528662e+01	-1.216355e+02
1.010000e-06	-3.529440e-06	-1.834683e-09	-2.503844e+01	-1.212673e+02
1.020000e-06	-3.494127e-06	-1.832835e-09	-2.478792e+01	-1.208996e+02
1.030000e-06	-3.458494e-06	-1.832488e-09	-2.453513e+01	-1.205323e+02
1.040000e-06	-3.422636e-06	-1.832037e-09	-2.428075e+01	-1.201650e+02
1.050000e-06	-3.386670e-06	-1.828406e-09	-2.402560e+01	-1.197975e+02
1.060000e-06	-3.350565e-06	-1.820771e-09	-2.376947e+01	-1.194292e+02
1.070000e-06	-3.314308e-06	-1.809425e-09	-2.351225e+01	-1.190596e+02
1.080000e-06	-3.277903e-06	-1.797742e-09	-2.325399e+01	-1.186882e+02
1.090000e-06	-3.241301e-06	-1.787233e-09	-2.299433e+01	-1.183145e+02
1.100000e-06	-3.204356e-06	-1.781190e-09	-2.273224e+01	-1.179381e+02
1.110000e-06	-3.167114e-06	-1.776958e-09	-2.246803e+01	-1.175588e+02
1.120000e-06	-3.129711e-06	-1.776278e-09	-2.220269e+01	-1.171763e+02
1.130000e-06	-3.092052e-06	-1.774498e-09	-2.193553e+01	-1.167907e+02
1.140000e-06	-3.054120e-06	-1.770592e-09	-2.166643e+01	-1.164021e+02
1.150000e-06	-3.016008e-06	-1.764514e-09	-2.139606e+01	-1.160104e+02
1.160000e-06	-2.977782e-06	-1.758164e-09	-2.112488e+01	-1.156161e+02
1.170000e-06	-2.939417e-06	-1.749187e-09	-2.085272e+01	-1.152194e+02
1.180000e-06	-2.900808e-06	-1.740184e-09	-2.057882e+01	-1.148205e+02
1.190000e-06	-2.861939e-06	-1.730457e-09	-2.030307e+01	-1.144196e+02
1.200000e-06	-2.822788e-06	-1.724057e-09	-2.002533e+01	-1.140170e+02
1.210000e-06	-2.783431e-06	-1.722923e-09	-1.974613e+01	-1.136127e+02
1.220000e-06	-2.743971e-06	-1.725734e-09	-1.946619e+01	-1.132065e+02
1.230000e-06	-2.704319e-06	-1.724023e-09	-1.918489e+01	-1.127983e+02
1.240000e-06	-2.664529e-06	-1.717986e-09	-1.890262e+01	-1.123877e+02
1.250000e-06	-2.624667e-06	-1.706480e-09	-1.861983e+01	-1.119742e+02
1.260000e-06	-2.584706e-06	-1.694047e-09	-1.833633e+01	-1.115572e+02
1.270000e-06	-2.544662e-06	-1.682167e-09	-1.805226e+01	-1.111360e+02
1.280000e-06	-2.504511e-06	-1.672744e-09	-1.776742e+01	-1.107097e+02
1.290000e-06	-2.464221e-06	-1.670922e-09	-1.748159e+01	-1.102776e+02
1.300000e-06	-2.423853e-06	-1.672403e-09	-1.719521e+01	-1.098389e+02
1.310000e-06	-2.383315e-06	-1.670020e-09	-1.690763e+01	-1.093930e+02
1.320000e-06	-2.342464e-06	-1.661107e-09	-1.661783e+01	-1.089391e+02
1.330000e-06	-2.301375e-06	-1.649120e-09	-1.632634e+01	-1.084770e+02
1.340000e-06	-2.260029e-06	-1.637428e-09	-1.603302e+01	-1.080062e+02
1.350000e-06	-2.218298e-06	-1.625825e-09	-1.573698e+01	-1.075269e+02
1.360000e-06	-2.176301e-06	-1.617047e-09	-1.543904e+01	-1.070390e+02
1.370000e-06	-2.134175e-06	-1.613232e-09	-1.514019e+01	-1.065430e+02
1.380000e-06	-2.091743e-06	-1.612159e-09	-1.483917e+01	-1.060393e+02
1.390000e-06	-2.048992e-06	-1.608988e-09	-1.453589e+01	-1.055285e+02
1.400000e-06	-2.006063e-06	-1.600410e-09	-1.423135e+01	-1.050114e+02
1.410000e-06	-1.963001e-06	-1.588987e-09	-1.392586e+01	-1.044886e+02
1.420000e-06	-1.919715e-06	-1.575926e-09	-1.361877e+01	-1.039611e+02
1.430000e-06	-1.876172e-06	-1.563881e-09	-1.330987e+01	-1.034294e+02
1.440000e-06	-1.832545e-06	-1.554169e-09	-1.300038e+01	-1.028941e+02
1.450000e-06	-1.788841e-06	-1.547962e-09	-1.269034e+01	-1.023556e+02
1.460000e-06	-1.745005e-06	-1.543347e-09	-1.237936e+01	-1.018141e+02
1.470000e-06	-1.701054e-06	-1.541059e-09	-1.206756e+01	-1.012696e+02
1.480000e-06	-1.657098e-06	-1.537786e-09	-1.175573e+01	-1.007216e+02
1.490000e-06	-1.613104e-06	-1.530094e-09	-1.144363e+01	-1.001697e+02
1.500000e-06	-1.569031e-06	-1.517973e-09	-1.113097e+01	-9.961295e+01
1.510000e-06	-1.524920e-06	-1.505073e-09	-1.081804e+01	-9.905029e+01
1.520000e-06	-1.480729e-06	-1.494315e-09	-1.050454e+01	-9.848048e+01
1.530000e-06	-1.436466e-06	-1.484287e-09	-1.019053e+01	-9.790211e+01
1.540000e-06	-1.392127e-06	-1.474055e-09	-9.875980e+00	-9.731371e+01
1.550000e-06	-1.347680e-06	-1.464877e-09	-9.560665e+00	-9.671378e+01
1.560000e-06	-1.303148e-06	-1.456307e-09	-9.244746e+00	-9.610085e+01
1.570000e-06	-1.258615e-06	-1.446844e-09	-8.928823e+00	-9.547357e+01
1.580000e-06	-1.214004e-06	-1.437531e-09	-8.612345e+00	-9.483074e+01
1.590000e-06	-1.169232e-06	-1.428714e-09	-8.294723e+00	-9.417137e+01
1.600000e-06	-1.124323e-06	-1.416806e-09	-7.976134e+00	-9.349471e+01
1.610000e-06	-1.079392e-06	-1.403527e-09	-7.657384e+00	-9.280026e+01
1.620000e-06	-1.034446e-06	-1.390286e-09	-7.338531e+00	-9.208779e+01
1.630000e-06	-9.893337e-07	-1.379059e-09	-7.018498e+00	-9.135732e+01
1.640000e-06	-9.440185e-07	-1.368469e-09	-6.697024e+00	-9.060908e+01
1.650000e-06	-8.986041e-07	-1.355246e-09	-6.374847e+00	-8.984351e+01
1.660000e-06	-8.531799e-07	-1.340134e-09	-6.052600e+00	-8.906115e+01
1.670000e-06	-8.077146e-07	-1.325210e-09	-5.730062e+00	-8.826264e+01
1.680000e-06	-7.622412e-07	-1.313341e-09	-5.407466e+00	-8.744859e+01
1.690000e-06	-7.168065e-07	-1.303230e-09	-5.085144e+00	-8.661957e+01
1.700000e-06	-6.713150e-07	-1.290810e-09	-4.762420e+00	-8.577603e+01
1.710000e-06	-6.257025e-07	-1.275726e-09	-4.438837e+00	-8.491820e+01
1.720000e-06	-5.800592e-07	-1.262775e-09	-4.115036e+00	-8.404609e+01
1.730000e-06	-5.343767e-07	-1.250790e-09	-3.790957e+00	-8.315944e+01
1.740000e-06	-4.886893e-07	-1.236070e-09	-3.466844e+00	-8.225768e+01
1.750000e-06	-4.429876e-07	-1.219744e-09	-3.142628e+00	-8.133994e+01
1.760000e-06	-3.971790e-07	-1.205238e-09	-2.817654e+00	-8.040507e+01
1.770000e-06	-3.513412e-07	-1.191681e-09	-2.492473e+00	-7.945162e+01
1.780000e-06	-3.054505e-07	-1.177975e-09	-2.166917e+00	-7.847792e+01
1.790000e-06	-2.594920e-07	-1.164608e-09	-1.840880e+00	-7.748215e+01
1.800000e-06	-2.135658e-07	-1.148660e-09	-1.515071e+00	-7.646232e+01
1.810000e-06	-1.677117e-07	-1.131269e-09	-1.189775e+00	-7.541644e+01
1.820000e-06	-1.218970e-07	-1.113342e-09	-8.647573e-01	-7.434251e+01
1.830000e-06	-7.606932e-08	-1.095190e-09	-5.396484e-01	-7.323863e+01
1.840000e-06	-3.018709e-08	-1.077869e-09	-2.141523e-01	-7.210303e+01
1.850000e-06	1.573235e-08	-1.060454e-09	1.116079e-01	-7.093418e+01
1.860000e-06	6.167745e-08	-1.043677e-09	4.375501e-01	-6.973076e+01
1.870000e-06	1.076169e-07	-1.026533e-09	7.634520e-01	-6.849175e+01
1.880000e-06	1.534855e-07	-1.009108e-09	1.088852e+00	-6.721641e+01
1.890000e-06	1.992943e-07	-9.893156e-10	1.413827e+00	-6.590430e+01
1.900000e-06	2.451233e-07	-9.664623e-10	1.738946e+00	-6.455523e+01
1.910000e-06	2.909657e-07	-9.413121e-10	2.064159e+00	-6.316927e+01
1.920000e-06	3.368262e-07	-9.176873e-10	2.389501e+00	-6.174670e+01
1.930000e-06	3.827232e-07	-8.947512e-10	2.715102e+00	-6.028791e+01
1.940000e-06	4.286305e-07	-8.707119e-10	3.040776e+00	-5.879341e+01
1.950000e-06	4.744652e-07	-8.461796e-10	3.365935e+00	-5.726374e+01
1.960000e-06	5.201727e-07	-8.218627e-10	3.690191e+00	-5.569939e+01
1.970000e-06	5.658445e-07	-7.996809e-10	4.014195e+00	-5.410076e+01
1.980000e-06	6.115058e-07	-7.792627e-10	4.338124e+00	-5.246813e+01
1.990000e-06	6.570810e-07	-7.547163e-10	4.661442e+00	-5.080159e+01
2.000000e-06	7.025879e-07	-7.250181e-10	4.984275e+00	-4.910104e+01
2.010000e-06	7.481045e-07	-6.938541e-10	5.307178e+00	-4.736614e+01
2.020000e-06	7.935795e-07	-6.644815e-10	5.629785e+00	-4.559634e+01
2.030000e-06	8.390157e-07	-6.370471e-10	5.952117e+00	-4.379089e+01
2.040000e-06	8.843461e-07	-6.098054e-10	6.273698e+00	-4.194885e+01
2.050000e-06	9.295680e-07	-5.828762e-10	6.594510e+00	-4.006915e+01
2.060000e-06	9.746833e-07	-5.564534e-10	6.914565e+00	-3.815062e+01
2.070000e-06	1.019701e-06	-5.282971e-10	7.233931e+00	-3.619204e+01
2.080000e-06	1.064677e-06	-4.961122e-10	7.552998e+00	-3.419219e+01
2.090000e-06	1.109534e-06	-4.621543e-10	7.871220e+00	-3.214996e+01
2.100000e-06	1.154275e-06	-4.295060e-10	8.188620e+00	-3.006431e+01
2.110000e-06	1.199003e-06	-3.979143e-10	8.505924e+00	-2.793442e+01
2.120000e-06	1.243691e-06	-3.645420e-10	8.822954e+00	-2.575965e+01
2.130000e-06	1.288261e-06	-3.315539e-10	9.139141e+00	-2.353962e+01
2.140000e-06	1.332695e-06	-3.005301e-10	9.454358e+00	-2.127423e+01
2.150000e-06	1.377011e-06	-2.697140e-10	9.768743e+00	-1.896367e+01
2.160000e-06	1.421293e-06	-2.351045e-10	1.008289e+01	-1.660841e+01
2.170000e-06	1.465528e-06	-1.972730e-10	1.039670e+01	-1.420921e+01
2.180000e-06	1.509708e-06	-1.598255e-10	1.071012e+01	-1.176712e+01
2.190000e-06	1.553819e-06	-1.245608e-10	1.102305e+01	-9.283439e+00
2.200000e-06	1.597868e-06	-8.862107e-11	1.133554e+01	-6.759697e+00
2.210000e-06	1.641872e-06	-4.985893e-11	1.164771e+01	-4.197645e+00
2.220000e-06	1.685825e-06	-9.696175e-12	1.195952e+01	-1.599217e+00
2.230000e-06	1.729716e-06	2.989754e-11	1.227089e+01	1.033487e+00
2.240000e-06	1.773517e-06	7.077748e-11	1.258162e+01	3.698220e+00
2.250000e-06	1.817269e-06	1.137736e-10	1.289201e+01	6.392605e+00
2.260000e-06	1.860977e-06	1.563295e-10	1.320208e+01	9.114146e+00
2.270000e-06	1.904510e-06	1.985301e-10	1.351091e+01	1.186023e+01
2.280000e-06	1.947775e-06	2.400316e-10	1.381784e+01	1.462812e+01
2.290000e-06	1.990942e-06	2.808394e-10	1.412407e+01	1.741498e+01
2.300000e-06	2.034075e-06	3.224550e-10	1.443007e+01	2.021783e+01
2.310000e-06	2.076854e-06	3.631306e-10	1.473355e+01	2.303356e+01
2.320000e-06	2.119310e-06	4.052414e-10	1.503474e+01	2.585893e+01
2.330000e-06	2.161482e-06	4.496959e-10	1.533392e+01	2.869053e+01
2.340000e-06	2.203216e-06	4.915027e-10	1.562998e+01	3.152484e+01
2.350000e-06	2.244662e-06	5.296320e-10	1.592400e+01	3.435819e+01
2.360000e-06	2.285916e-06	5.684942e-10	1.621667e+01	3.718678e+01
2.370000e-06	2.326918e-06	6.115533e-10	1.650755e+01	4.000671e+01
2.380000e-06	2.367597e-06	6.558169e-10	1.679612e+01	4.281400e+01
2.390000e-06	2.408102e-06	6.969247e-10	1.708348e+01	4.560465e+01
2.400000e-06	2.448561e-06	7.360037e-10	1.737050e+01	4.837465e+01
2.410000e-06	2.488860e-06	7.777201e-10	1.765639e+01	5.112004e+01
2.420000e-06	2.528996e-06	8.205874e-10	1.794112e+01	5.383696e+01
2.430000e-06	2.569065e-06	8.615181e-10	1.822538e+01	5.652171e+01
2.440000e-06	2.609086e-06	9.008398e-10	1.850929e+01	5.917082e+01
2.450000e-06	2.649008e-06	9.385934e-10	1.879250e+01	6.178102e+01
2.460000e-06	2.688743e-06	9.764017e-10	1.907439e+01	6.434938e+01
2.470000e-06	2.728294e-06	1.014999e-09	1.935498e+01	6.687329e+01
2.480000e-06	2.767689e-06	1.051594e-09	1.963445e+01	6.935047e+01
2.490000e-06	2.806883e-06	1.087532e-09	1.991250e+01	7.177904e+01
2.500000e-06	2.845842e-06	1.124798e-09	2.018888e+01	7.415745e+01
2.510000e-06	2.884604e-06	1.162224e-09	2.046386e+01	7.648453e+01
2.520000e-06	2.923233e-06	1.199330e-09	2.073790e+01	7.875944e+01
2.530000e-06	2.961675e-06	1.235655e-09	2.101061e+01	8.098166e+01
2.540000e-06	2.999861e-06	1.269423e-09	2.128151e+01	8.315091e+01
2.550000e-06	3.037838e-06	1.300033e-09	2.155093e+01	8.526715e+01
2.560000e-06	3.075652e-06	1.327851e-09	2.181918e+01	8.733051e+01
2.570000e-06	3.113255e-06	1.354269e-09	2.208595e+01	8.934126e+01
2.580000e-06	3.150619e-06	1.380952e-09	2.235101e+01	9.129973e+01
2.590000e-06	3.187782e-06	1.408831e-09	2.261466e+01	9.320631e+01
2.600000e-06	3.224737e-06	1.437487e-09	2.287682e+01	9.506138e+01
2.610000e-06	3.261433e-06	1.468479e-09	2.313715e+01	9.686531e+01
2.620000e-06	3.297861e-06	1.499052e-09	2.339558e+01	9.861840e+01
2.630000e-06	3.334084e-06	1.525748e-09	2.365255e+01	1.003209e+02
2.640000e-06	3.370186e-06	1.547933e-09	2.390866e+01	1.019732e+02
2.650000e-06	3.406140e-06	1.565865e-09	2.416372e+01	1.035752e+02
2.660000e-06	3.441951e-06	1.582211e-09	2.441777e+01	1.051274e+02
2.670000e-06	3.477620e-06	1.599033e-09	2.467082e+01	1.066297e+02
2.680000e-06	3.513110e-06	1.617916e-09	2.492258e+01	1.080825e+02
2.690000e-06	3.548311e-06	1.639039e-09	2.517231e+01	1.094860e+02
2.700000e-06	3.583072e-06	1.663872e-09	2.541891e+01	1.108406e+02
2.710000e-06	3.617478e-06	1.690457e-09	2.566299e+01	1.121469e+02
2.720000e-06	3.651491e-06	1.712318e-09	2.590429e+01	1.134054e+02
2.730000e-06	3.684937e-06	1.729039e-09	2.614156e+01	1.146170e+02
2.740000e-06	3.717978e-06	1.744596e-09	2.637596e+01	1.157826e+02
2.750000e-06	3.750748e-06	1.759206e-09	2.660843e+01	1.169034e+02
2.760000e-06	3.783169e-06	1.772201e-09	2.683843e+01	1.179805e+02
2.770000e-06	3.815329e-06	1.784716e-09	2.706658e+01	1.190155e+02
2.780000e-06	3.847363e-06	1.801000e-09	2.729383e+01	1.200097e+02
2.790000e-06	3.879263e-06	1.820902e-09	2.752014e+01	1.209647e+02
2.800000e-06	3.911010e-06	1.837451e-09	2.774536e+01	1.218819e+02
2.810000e-06	3.942583e-06	1.845911e-09	2.796934e+01	1.227630e+02
2.820000e-06	3.973819e-06	1.851072e-09	2.819093e+01	1.236093e+02
2.830000e-06	4.004734e-06	1.861184e-09	2.841025e+01	1.244223e+02
2.840000e-06	4.035552e-06	1.875272e-09	2.862888e+01	1.252030e+02
2.850000e-06	4.066072e-06	1.887895e-09	2.884539e+01	1.259527e+02
2.860000e-06	4.096122e-06	1.899070e-09	2.905857e+01	1.266722e+02
2.870000e-06	4.126007e-06	1.911916e-09	2.927058e+01	1.273624e+02
2.880000e-06	4.155707e-06	1.926681e-09	2.948127e+01	1.280239e+02
2.890000e-06	4.185078e-06	1.936858e-09	2.968964e+01	1.286571e+02
2.900000e-06	4.214195e-06	1.941570e-09	2.989620e+01	1.292627e+02
