# Temperatura_=_17.26
# Concentracion g/m^3_=_4090.0
# C_Vs_to_Am_M_A/Vsm_=_65563218390.804596
# pendiente_HvsI_1/m_=_3716.3
# ordenada_HvsI_A/m_=_1297.0
# frecuencia_Hz_=_135088.37477274524

Tiempo_(s)	Campo_(V.s)	Magnetizacion_(V.s)	Campo_(kA/m)	Magnetizacion_(A/m)
0.000000e+00	-5.414891e-06	-1.269505e-09	-3.838560e+01	-8.548021e+01
1.000000e-08	-5.415083e-06	-1.267625e-09	-3.838696e+01	-8.535118e+01
2.000000e-08	-5.414946e-06	-1.260718e-09	-3.838599e+01	-8.520963e+01
3.000000e-08	-5.414533e-06	-1.253342e-09	-3.838306e+01	-8.505569e+01
4.000000e-08	-5.413794e-06	-1.249165e-09	-3.837783e+01	-8.489016e+01
5.000000e-08	-5.412550e-06	-1.246019e-09	-3.836901e+01	-8.471454e+01
6.000000e-08	-5.410655e-06	-1.252949e-09	-3.835557e+01	-8.453099e+01
7.000000e-08	-5.408190e-06	-1.286319e-09	-3.833810e+01	-8.434232e+01
8.000000e-08	-5.405159e-06	-1.277039e-09	-3.831661e+01	-8.415192e+01
9.000000e-08	-5.401554e-06	-1.171066e-09	-3.829105e+01	-8.396363e+01
1.000000e-07	-5.397532e-06	-1.155909e-09	-3.826254e+01	-8.378159e+01
1.100000e-07	-5.393242e-06	-1.321249e-09	-3.823213e+01	-8.361014e+01
1.200000e-07	-5.388740e-06	-1.374320e-09	-3.820022e+01	-8.345355e+01
1.300000e-07	-5.383944e-06	-1.171792e-09	-3.816622e+01	-8.331590e+01
1.400000e-07	-5.378849e-06	-1.111073e-09	-3.813010e+01	-8.320086e+01
1.500000e-07	-5.373423e-06	-1.342182e-09	-3.809164e+01	-8.311154e+01
1.600000e-07	-5.367592e-06	-1.431252e-09	-3.805030e+01	-8.305030e+01
1.700000e-07	-5.361367e-06	-1.149508e-09	-3.800618e+01	-8.301864e+01
1.800000e-07	-5.354686e-06	-1.039423e-09	-3.795882e+01	-8.301710e+01
1.900000e-07	-5.347587e-06	-1.288202e-09	-3.790849e+01	-8.304520e+01
2.000000e-07	-5.340172e-06	-1.388318e-09	-3.785593e+01	-8.310142e+01
2.100000e-07	-5.332505e-06	-1.199757e-09	-3.780158e+01	-8.318323e+01
2.200000e-07	-5.324668e-06	-1.194920e-09	-3.774602e+01	-8.328718e+01
2.300000e-07	-5.316553e-06	-1.378820e-09	-3.768849e+01	-8.340899e+01
2.400000e-07	-5.307993e-06	-1.334612e-09	-3.762781e+01	-8.354373e+01
2.500000e-07	-5.298939e-06	-1.193817e-09	-3.756363e+01	-8.368597e+01
2.600000e-07	-5.289339e-06	-1.287665e-09	-3.749557e+01	-8.383001e+01
2.700000e-07	-5.279116e-06	-1.402787e-09	-3.742310e+01	-8.397007e+01
2.800000e-07	-5.268216e-06	-1.260017e-09	-3.734584e+01	-8.410053e+01
2.900000e-07	-5.256964e-06	-1.215751e-09	-3.726607e+01	-8.421613e+01
3.000000e-07	-5.245418e-06	-1.383635e-09	-3.718422e+01	-8.431215e+01
3.100000e-07	-5.233367e-06	-1.371759e-09	-3.709880e+01	-8.438459e+01
3.200000e-07	-5.220909e-06	-1.196970e-09	-3.701048e+01	-8.443030e+01
3.300000e-07	-5.208055e-06	-1.261642e-09	-3.691936e+01	-8.444708e+01
3.400000e-07	-5.194712e-06	-1.385121e-09	-3.682477e+01	-8.443371e+01
3.500000e-07	-5.180995e-06	-1.311381e-09	-3.672753e+01	-8.438997e+01
3.600000e-07	-5.166950e-06	-1.253708e-09	-3.662797e+01	-8.431662e+01
3.700000e-07	-5.152464e-06	-1.334533e-09	-3.652528e+01	-8.421528e+01
3.800000e-07	-5.137399e-06	-1.305712e-09	-3.641849e+01	-8.408834e+01
3.900000e-07	-5.121931e-06	-1.255589e-09	-3.630884e+01	-8.393882e+01
4.000000e-07	-5.106020e-06	-1.302640e-09	-3.619604e+01	-8.377017e+01
4.100000e-07	-5.089488e-06	-1.299011e-09	-3.607885e+01	-8.358614e+01
4.200000e-07	-5.072396e-06	-1.232873e-09	-3.595769e+01	-8.339056e+01
4.300000e-07	-5.054996e-06	-1.291835e-09	-3.583434e+01	-8.318714e+01
4.400000e-07	-5.037503e-06	-1.353520e-09	-3.571034e+01	-8.297936e+01
4.500000e-07	-5.019751e-06	-1.276801e-09	-3.558450e+01	-8.277030e+01
4.600000e-07	-5.001819e-06	-1.235833e-09	-3.545737e+01	-8.256249e+01
4.700000e-07	-4.983512e-06	-1.286302e-09	-3.532760e+01	-8.235788e+01
4.800000e-07	-4.964634e-06	-1.290801e-09	-3.519378e+01	-8.215779e+01
4.900000e-07	-4.945353e-06	-1.253865e-09	-3.505710e+01	-8.196286e+01
5.000000e-07	-4.925827e-06	-1.248878e-09	-3.491867e+01	-8.177310e+01
5.100000e-07	-4.906044e-06	-1.247365e-09	-3.477844e+01	-8.158797e+01
5.200000e-07	-4.886032e-06	-1.274339e-09	-3.463657e+01	-8.140644e+01
5.300000e-07	-4.865756e-06	-1.287584e-09	-3.449284e+01	-8.122712e+01
5.400000e-07	-4.845195e-06	-1.246287e-09	-3.434709e+01	-8.104836e+01
5.500000e-07	-4.824329e-06	-1.221234e-09	-3.419916e+01	-8.086841e+01
5.600000e-07	-4.803042e-06	-1.270192e-09	-3.404827e+01	-8.068554e+01
5.700000e-07	-4.781428e-06	-1.273992e-09	-3.389505e+01	-8.049818e+01
5.800000e-07	-4.759510e-06	-1.231437e-09	-3.373967e+01	-8.030501e+01
5.900000e-07	-4.737270e-06	-1.221455e-09	-3.358201e+01	-8.010504e+01
6.000000e-07	-4.714781e-06	-1.242621e-09	-3.342260e+01	-7.989771e+01
6.100000e-07	-4.691982e-06	-1.248837e-09	-3.326098e+01	-7.968289e+01
6.200000e-07	-4.668768e-06	-1.244731e-09	-3.309641e+01	-7.946091e+01
6.300000e-07	-4.645292e-06	-1.214255e-09	-3.292999e+01	-7.923252e+01
6.400000e-07	-4.621605e-06	-1.206826e-09	-3.276208e+01	-7.899883e+01
6.500000e-07	-4.597668e-06	-1.238562e-09	-3.259239e+01	-7.876127e+01
6.600000e-07	-4.573471e-06	-1.243633e-09	-3.242086e+01	-7.852147e+01
6.700000e-07	-4.548996e-06	-1.201419e-09	-3.224736e+01	-7.828116e+01
6.800000e-07	-4.524160e-06	-1.193849e-09	-3.207130e+01	-7.804207e+01
6.900000e-07	-4.498700e-06	-1.220905e-09	-3.189082e+01	-7.780582e+01
7.000000e-07	-4.472759e-06	-1.222849e-09	-3.170692e+01	-7.757383e+01
7.100000e-07	-4.446324e-06	-1.197850e-09	-3.151953e+01	-7.734719e+01
7.200000e-07	-4.419382e-06	-1.185139e-09	-3.132854e+01	-7.712666e+01
7.300000e-07	-4.392113e-06	-1.197982e-09	-3.113523e+01	-7.691256e+01
7.400000e-07	-4.364567e-06	-1.215104e-09	-3.093997e+01	-7.670483e+01
7.500000e-07	-4.336788e-06	-1.202764e-09	-3.074304e+01	-7.650293e+01
7.600000e-07	-4.308814e-06	-1.178250e-09	-3.054474e+01	-7.630597e+01
7.700000e-07	-4.280653e-06	-1.183700e-09	-3.034511e+01	-7.611272e+01
7.800000e-07	-4.252243e-06	-1.197360e-09	-3.014371e+01	-7.592168e+01
7.900000e-07	-4.223528e-06	-1.187371e-09	-2.994015e+01	-7.573119e+01
8.000000e-07	-4.194468e-06	-1.164776e-09	-2.973415e+01	-7.553949e+01
8.100000e-07	-4.165133e-06	-1.162630e-09	-2.952620e+01	-7.534489e+01
8.200000e-07	-4.135563e-06	-1.172249e-09	-2.931658e+01	-7.514578e+01
8.300000e-07	-4.105736e-06	-1.172808e-09	-2.910514e+01	-7.494081e+01
8.400000e-07	-4.075586e-06	-1.154385e-09	-2.889141e+01	-7.472888e+01
8.500000e-07	-4.045110e-06	-1.145339e-09	-2.867537e+01	-7.450927e+01
8.600000e-07	-4.014377e-06	-1.154446e-09	-2.845750e+01	-7.428163e+01
8.700000e-07	-3.983359e-06	-1.164361e-09	-2.823762e+01	-7.404602e+01
8.800000e-07	-3.952055e-06	-1.147755e-09	-2.801570e+01	-7.380287e+01
8.900000e-07	-3.920530e-06	-1.129498e-09	-2.779223e+01	-7.355298e+01
9.000000e-07	-3.888853e-06	-1.127154e-09	-2.756767e+01	-7.329744e+01
9.100000e-07	-3.857055e-06	-1.134910e-09	-2.734227e+01	-7.303757e+01
9.200000e-07	-3.825046e-06	-1.128476e-09	-2.711536e+01	-7.277484e+01
9.300000e-07	-3.792806e-06	-1.114654e-09	-2.688680e+01	-7.251075e+01
9.400000e-07	-3.760354e-06	-1.115597e-09	-2.665676e+01	-7.224678e+01
9.500000e-07	-3.727559e-06	-1.128829e-09	-2.642428e+01	-7.198427e+01
9.600000e-07	-3.694204e-06	-1.129480e-09	-2.618783e+01	-7.172434e+01
9.700000e-07	-3.660360e-06	-1.113362e-09	-2.594791e+01	-7.146783e+01
9.800000e-07	-3.626159e-06	-1.100550e-09	-2.570546e+01	-7.121524e+01
9.900000e-07	-3.591628e-06	-1.100675e-09	-2.546068e+01	-7.096672e+01
1.000000e-06	-3.556839e-06	-1.095894e-09	-2.521406e+01	-7.072204e+01
1.010000e-06	-3.521676e-06	-1.084034e-09	-2.496480e+01	-7.048062e+01
1.020000e-06	-3.486157e-06	-1.077938e-09	-2.471300e+01	-7.024156e+01
1.030000e-06	-3.450438e-06	-1.084238e-09	-2.445979e+01	-7.000368e+01
1.040000e-06	-3.414537e-06	-1.094755e-09	-2.420530e+01	-6.976561e+01
1.050000e-06	-3.378492e-06	-1.090360e-09	-2.394978e+01	-6.952587e+01
1.060000e-06	-3.342275e-06	-1.080172e-09	-2.369304e+01	-6.928292e+01
1.070000e-06	-3.305878e-06	-1.072374e-09	-2.343502e+01	-6.903531e+01
1.080000e-06	-3.269284e-06	-1.066485e-09	-2.317562e+01	-6.878171e+01
1.090000e-06	-3.232465e-06	-1.055389e-09	-2.291461e+01	-6.852099e+01
1.100000e-06	-3.195554e-06	-1.043391e-09	-2.265295e+01	-6.825233e+01
1.110000e-06	-3.158384e-06	-1.040903e-09	-2.238946e+01	-6.797519e+01
1.120000e-06	-3.120822e-06	-1.047739e-09	-2.212318e+01	-6.768940e+01
1.130000e-06	-3.083126e-06	-1.049374e-09	-2.185596e+01	-6.739512e+01
1.140000e-06	-3.045315e-06	-1.041647e-09	-2.158792e+01	-6.709285e+01
1.150000e-06	-3.007291e-06	-1.030074e-09	-2.131837e+01	-6.678338e+01
1.160000e-06	-2.969073e-06	-1.025958e-09	-2.104745e+01	-6.646776e+01
1.170000e-06	-2.930581e-06	-1.020479e-09	-2.077458e+01	-6.614720e+01
1.180000e-06	-2.891804e-06	-1.007383e-09	-2.049970e+01	-6.582304e+01
1.190000e-06	-2.852816e-06	-9.947224e-10	-2.022332e+01	-6.549664e+01
1.200000e-06	-2.813714e-06	-9.932570e-10	-1.994612e+01	-6.516931e+01
1.210000e-06	-2.774538e-06	-9.977872e-10	-1.966841e+01	-6.484222e+01
1.220000e-06	-2.735148e-06	-9.987933e-10	-1.938918e+01	-6.451637e+01
1.230000e-06	-2.695505e-06	-9.941997e-10	-1.910816e+01	-6.419250e+01
1.240000e-06	-2.655722e-06	-9.886285e-10	-1.882614e+01	-6.387108e+01
1.250000e-06	-2.615874e-06	-9.830141e-10	-1.854366e+01	-6.355228e+01
1.260000e-06	-2.575943e-06	-9.754470e-10	-1.826060e+01	-6.323597e+01
1.270000e-06	-2.535894e-06	-9.631396e-10	-1.797669e+01	-6.292171e+01
1.280000e-06	-2.495703e-06	-9.522680e-10	-1.769178e+01	-6.260884e+01
1.290000e-06	-2.455435e-06	-9.492522e-10	-1.740632e+01	-6.229648e+01
1.300000e-06	-2.415069e-06	-9.487006e-10	-1.712018e+01	-6.198361e+01
1.310000e-06	-2.374309e-06	-9.424669e-10	-1.683123e+01	-6.166913e+01
1.320000e-06	-2.333215e-06	-9.352474e-10	-1.653992e+01	-6.135191e+01
1.330000e-06	-2.291997e-06	-9.332646e-10	-1.624773e+01	-6.103091e+01
1.340000e-06	-2.250585e-06	-9.324942e-10	-1.595416e+01	-6.070517e+01
1.350000e-06	-2.208842e-06	-9.305204e-10	-1.565825e+01	-6.037392e+01
1.360000e-06	-2.166733e-06	-9.219423e-10	-1.535974e+01	-6.003659e+01
1.370000e-06	-2.124377e-06	-9.108632e-10	-1.505949e+01	-5.969285e+01
1.380000e-06	-2.081751e-06	-9.004343e-10	-1.475732e+01	-5.934260e+01
1.390000e-06	-2.038855e-06	-8.920495e-10	-1.445323e+01	-5.898597e+01
1.400000e-06	-1.995763e-06	-8.857300e-10	-1.414776e+01	-5.862331e+01
1.410000e-06	-1.952467e-06	-8.840592e-10	-1.384083e+01	-5.825512e+01
1.420000e-06	-1.909023e-06	-8.865824e-10	-1.353287e+01	-5.788202e+01
1.430000e-06	-1.865524e-06	-8.882485e-10	-1.322451e+01	-5.750471e+01
1.440000e-06	-1.821890e-06	-8.861208e-10	-1.291519e+01	-5.712385e+01
1.450000e-06	-1.778130e-06	-8.774154e-10	-1.260498e+01	-5.674007e+01
1.460000e-06	-1.734320e-06	-8.632309e-10	-1.229442e+01	-5.635384e+01
1.470000e-06	-1.690409e-06	-8.509814e-10	-1.198313e+01	-5.596548e+01
1.480000e-06	-1.646459e-06	-8.423997e-10	-1.167158e+01	-5.557507e+01
1.490000e-06	-1.602477e-06	-8.415447e-10	-1.135979e+01	-5.518248e+01
1.500000e-06	-1.558335e-06	-8.419258e-10	-1.104688e+01	-5.478728e+01
1.510000e-06	-1.514143e-06	-8.420106e-10	-1.073360e+01	-5.438882e+01
1.520000e-06	-1.469919e-06	-8.382576e-10	-1.042010e+01	-5.398622e+01
1.530000e-06	-1.425569e-06	-8.281319e-10	-1.010571e+01	-5.357838e+01
1.540000e-06	-1.381160e-06	-8.128301e-10	-9.790902e+00	-5.316409e+01
1.550000e-06	-1.336686e-06	-7.961080e-10	-9.475631e+00	-5.274203e+01
1.560000e-06	-1.292155e-06	-7.850083e-10	-9.159953e+00	-5.231086e+01
1.570000e-06	-1.247556e-06	-7.825335e-10	-8.843795e+00	-5.186929e+01
1.580000e-06	-1.202827e-06	-7.830183e-10	-8.526715e+00	-5.141612e+01
1.590000e-06	-1.157990e-06	-7.814092e-10	-8.208869e+00	-5.095033e+01
1.600000e-06	-1.113089e-06	-7.776042e-10	-7.890573e+00	-5.047111e+01
1.610000e-06	-1.068089e-06	-7.690397e-10	-7.571572e+00	-4.997789e+01
1.620000e-06	-1.022976e-06	-7.556059e-10	-7.251774e+00	-4.947035e+01
1.630000e-06	-9.778032e-07	-7.398987e-10	-6.931545e+00	-4.894847e+01
1.640000e-06	-9.325130e-07	-7.267290e-10	-6.610488e+00	-4.841247e+01
1.650000e-06	-8.871745e-07	-7.198651e-10	-6.289088e+00	-4.786277e+01
1.660000e-06	-8.418795e-07	-7.167694e-10	-5.967996e+00	-4.729999e+01
1.670000e-06	-7.965992e-07	-7.132946e-10	-5.647009e+00	-4.672486e+01
1.680000e-06	-7.511808e-07	-7.093485e-10	-5.325043e+00	-4.613816e+01
1.690000e-06	-7.055741e-07	-7.010985e-10	-5.001742e+00	-4.554065e+01
1.700000e-06	-6.599933e-07	-6.897463e-10	-4.678624e+00	-4.493298e+01
1.710000e-06	-6.143641e-07	-6.773515e-10	-4.355163e+00	-4.431564e+01
1.720000e-06	-5.686928e-07	-6.662121e-10	-4.031405e+00	-4.368889e+01
1.730000e-06	-5.230568e-07	-6.562979e-10	-3.707896e+00	-4.305270e+01
1.740000e-06	-4.773646e-07	-6.478671e-10	-3.383988e+00	-4.240673e+01
1.750000e-06	-4.314927e-07	-6.386900e-10	-3.058807e+00	-4.175029e+01
1.760000e-06	-3.855400e-07	-6.293652e-10	-2.733053e+00	-4.108233e+01
1.770000e-06	-3.396411e-07	-6.178586e-10	-2.407680e+00	-4.040150e+01
1.780000e-06	-2.936910e-07	-6.057342e-10	-2.081945e+00	-3.970612e+01
1.790000e-06	-2.477930e-07	-5.937375e-10	-1.756579e+00	-3.899430e+01
1.800000e-06	-2.019538e-07	-5.810788e-10	-1.431630e+00	-3.826392e+01
1.810000e-06	-1.560730e-07	-5.689988e-10	-1.106385e+00	-3.751278e+01
1.820000e-06	-1.101422e-07	-5.580933e-10	-7.807869e-01	-3.673863e+01
1.830000e-06	-6.415888e-08	-5.465431e-10	-4.548156e-01	-3.593925e+01
1.840000e-06	-1.825080e-08	-5.323586e-10	-1.293780e-01	-3.511259e+01
1.850000e-06	2.765649e-08	-5.193209e-10	1.960540e-01	-3.425673e+01
1.860000e-06	7.357370e-08	-5.082477e-10	5.215563e-01	-3.337007e+01
1.870000e-06	1.194807e-07	-4.978677e-10	8.469866e-01	-3.245128e+01
1.880000e-06	1.654822e-07	-4.872562e-10	1.173086e+00	-3.149938e+01
1.890000e-06	2.113496e-07	-4.729290e-10	1.498235e+00	-3.051375e+01
1.900000e-06	2.570794e-07	-4.547783e-10	1.822409e+00	-2.949410e+01
1.910000e-06	3.029625e-07	-4.355151e-10	2.147669e+00	-2.844052e+01
1.920000e-06	3.488834e-07	-4.164480e-10	2.473198e+00	-2.735337e+01
1.930000e-06	3.946642e-07	-3.976226e-10	2.797734e+00	-2.623329e+01
1.940000e-06	4.404179e-07	-3.792364e-10	3.122077e+00	-2.508111e+01
1.950000e-06	4.861698e-07	-3.620882e-10	3.446407e+00	-2.389780e+01
1.960000e-06	5.318101e-07	-3.474674e-10	3.769947e+00	-2.268441e+01
1.970000e-06	5.774066e-07	-3.304843e-10	4.093176e+00	-2.144202e+01
1.980000e-06	6.229875e-07	-3.073970e-10	4.416294e+00	-2.017164e+01
1.990000e-06	6.685423e-07	-2.837379e-10	4.739227e+00	-1.887419e+01
2.000000e-06	7.141452e-07	-2.638648e-10	5.062502e+00	-1.755047e+01
2.010000e-06	7.597187e-07	-2.444747e-10	5.385567e+00	-1.620111e+01
2.020000e-06	8.050883e-07	-2.226994e-10	5.707188e+00	-1.482657e+01
2.030000e-06	8.503505e-07	-1.996097e-10	6.028046e+00	-1.342716e+01
2.040000e-06	8.956489e-07	-1.771476e-10	6.349162e+00	-1.200302e+01
2.050000e-06	9.410187e-07	-1.562205e-10	6.670784e+00	-1.055420e+01
2.060000e-06	9.863373e-07	-1.335134e-10	6.992043e+00	-9.080668e+00
2.070000e-06	1.031389e-06	-1.075696e-10	7.311410e+00	-7.582362e+00
2.080000e-06	1.076319e-06	-8.270952e-11	7.629916e+00	-6.059262e+00
2.090000e-06	1.121194e-06	-6.096538e-11	7.948030e+00	-4.511435e+00
2.100000e-06	1.165988e-06	-3.688816e-11	8.265568e+00	-2.939091e+00
2.110000e-06	1.210692e-06	-1.214398e-11	8.582471e+00	-1.342630e+00
2.120000e-06	1.255287e-06	1.210858e-11	8.898602e+00	2.773130e-01
2.130000e-06	1.299787e-06	3.512898e-11	9.214057e+00	1.919844e+00
2.140000e-06	1.344182e-06	5.779156e-11	9.528770e+00	3.583788e+00
2.150000e-06	1.388495e-06	8.461585e-11	9.842896e+00	5.267685e+00
2.160000e-06	1.432792e-06	1.125439e-10	1.015692e+01	6.969801e+00
2.170000e-06	1.477002e-06	1.376673e-10	1.047031e+01	8.688149e+00
2.180000e-06	1.521118e-06	1.603340e-10	1.078305e+01	1.042052e+01
2.190000e-06	1.565186e-06	1.852126e-10	1.109544e+01	1.216452e+01
2.200000e-06	1.609194e-06	2.128878e-10	1.140741e+01	1.391764e+01
2.210000e-06	1.653150e-06	2.392973e-10	1.171901e+01	1.567726e+01
2.220000e-06	1.697065e-06	2.627386e-10	1.203032e+01	1.744078e+01
2.230000e-06	1.740959e-06	2.865668e-10	1.234147e+01	1.920558e+01
2.240000e-06	1.784756e-06	3.162486e-10	1.265195e+01	2.096914e+01
2.250000e-06	1.828420e-06	3.466456e-10	1.296148e+01	2.272904e+01
2.260000e-06	1.872004e-06	3.735735e-10	1.327044e+01	2.448299e+01
2.270000e-06	1.915562e-06	4.004430e-10	1.357922e+01	2.622887e+01
2.280000e-06	1.959028e-06	4.290600e-10	1.388735e+01	2.796473e+01
2.290000e-06	2.002317e-06	4.576128e-10	1.419422e+01	2.968877e+01
2.300000e-06	2.045444e-06	4.811129e-10	1.449994e+01	3.139936e+01
2.310000e-06	2.088325e-06	5.016607e-10	1.480392e+01	3.309501e+01
2.320000e-06	2.130911e-06	5.245541e-10	1.510581e+01	3.477432e+01
2.330000e-06	2.173166e-06	5.505651e-10	1.540535e+01	3.643601e+01
2.340000e-06	2.215027e-06	5.760336e-10	1.570209e+01	3.807880e+01
2.350000e-06	2.256580e-06	5.979125e-10	1.599666e+01	3.970149e+01
2.360000e-06	2.297912e-06	6.208854e-10	1.628966e+01	4.130282e+01
2.370000e-06	2.338997e-06	6.488220e-10	1.658090e+01	4.288156e+01
2.380000e-06	2.379798e-06	6.757487e-10	1.687014e+01	4.443641e+01
2.390000e-06	2.420396e-06	6.959795e-10	1.715793e+01	4.596605e+01
2.400000e-06	2.460790e-06	7.127210e-10	1.744428e+01	4.746910e+01
2.410000e-06	2.501043e-06	7.321200e-10	1.772963e+01	4.894417e+01
2.420000e-06	2.541262e-06	7.551991e-10	1.801474e+01	5.038987e+01
2.430000e-06	2.581320e-06	7.806952e-10	1.829871e+01	5.180483e+01
2.440000e-06	2.621179e-06	8.070424e-10	1.858126e+01	5.318773e+01
2.450000e-06	2.660941e-06	8.309421e-10	1.886314e+01	5.453735e+01
2.460000e-06	2.700652e-06	8.530629e-10	1.914464e+01	5.585259e+01
2.470000e-06	2.740243e-06	8.718091e-10	1.942530e+01	5.713249e+01
2.480000e-06	2.779591e-06	8.864487e-10	1.970423e+01	5.837631e+01
2.490000e-06	2.818817e-06	9.007176e-10	1.998230e+01	5.958350e+01
2.500000e-06	2.857871e-06	9.171258e-10	2.025915e+01	6.075373e+01
2.510000e-06	2.896645e-06	9.371195e-10	2.053401e+01	6.188692e+01
2.520000e-06	2.935201e-06	9.579187e-10	2.080734e+01	6.298318e+01
2.530000e-06	2.973470e-06	9.794999e-10	2.107862e+01	6.404289e+01
2.540000e-06	3.011533e-06	1.000374e-09	2.134844e+01	6.506657e+01
2.550000e-06	3.049470e-06	1.014780e-09	2.161738e+01	6.605495e+01
2.560000e-06	3.087200e-06	1.023558e-09	2.188484e+01	6.700888e+01
2.570000e-06	3.124680e-06	1.031128e-09	2.215053e+01	6.792928e+01
2.580000e-06	3.162011e-06	1.042026e-09	2.241517e+01	6.881717e+01
2.590000e-06	3.199122e-06	1.057939e-09	2.267824e+01	6.967356e+01
2.600000e-06	3.235910e-06	1.076308e-09	2.293903e+01	7.049947e+01
2.610000e-06	3.272586e-06	1.093858e-09	2.319902e+01	7.129584e+01
2.620000e-06	3.309081e-06	1.108610e-09	2.345773e+01	7.206358e+01
2.630000e-06	3.345263e-06	1.120565e-09	2.371422e+01	7.280349e+01
2.640000e-06	3.381284e-06	1.129318e-09	2.396957e+01	7.351630e+01
2.650000e-06	3.417196e-06	1.135312e-09	2.422415e+01	7.420265e+01
2.660000e-06	3.452990e-06	1.140317e-09	2.447789e+01	7.486309e+01
2.670000e-06	3.488683e-06	1.147298e-09	2.473091e+01	7.549812e+01
2.680000e-06	3.524230e-06	1.158650e-09	2.498290e+01	7.610820e+01
2.690000e-06	3.559459e-06	1.171044e-09	2.523264e+01	7.669378e+01
2.700000e-06	3.594233e-06	1.184005e-09	2.547914e+01	7.725533e+01
2.710000e-06	3.628665e-06	1.197497e-09	2.572323e+01	7.779333e+01
2.720000e-06	3.662729e-06	1.208293e-09	2.596471e+01	7.830836e+01
2.730000e-06	3.696277e-06	1.215324e-09	2.620252e+01	7.880105e+01
2.740000e-06	3.729427e-06	1.218713e-09	2.643752e+01	7.927215e+01
2.750000e-06	3.762248e-06	1.221288e-09	2.667019e+01	7.972246e+01
2.760000e-06	3.794673e-06	1.226999e-09	2.690004e+01	8.015291e+01
2.770000e-06	3.826830e-06	1.234690e-09	2.712800e+01	8.056449e+01
2.780000e-06	3.858848e-06	1.244939e-09	2.735497e+01	8.095823e+01
2.790000e-06	3.890696e-06	1.254678e-09	2.758074e+01	8.133520e+01
2.800000e-06	3.922452e-06	1.258833e-09	2.780586e+01	8.169647e+01
2.810000e-06	3.954028e-06	1.259571e-09	2.802970e+01	8.204304e+01
2.820000e-06	3.985352e-06	1.260382e-09	2.825175e+01	8.237587e+01
2.830000e-06	4.016351e-06	1.264242e-09	2.847149e+01	8.269579e+01
2.840000e-06	4.046926e-06	1.269485e-09	2.868824e+01	8.300351e+01
2.850000e-06	4.077197e-06	1.273906e-09	2.890283e+01	8.329957e+01
2.860000e-06	4.107304e-06	1.277379e-09	2.911625e+01	8.358435e+01
2.870000e-06	4.137178e-06	1.281920e-09	2.932803e+01	8.385805e+01
2.880000e-06	4.166718e-06	1.287403e-09	2.953743e+01	8.412071e+01
2.890000e-06	4.195982e-06	1.287324e-09	2.974488e+01	8.437224e+01
2.900000e-06	4.224971e-06	1.285660e-09	2.995038e+01	8.461240e+01
