# Temperatura_=_-2.2
# Concentracion g/m^3_=_4090.0
# C_Vs_to_Am_M_A/Vsm_=_65563218390.804596
# pendiente_HvsI_1/m_=_3716.3
# ordenada_HvsI_A/m_=_1297.0
# frecuencia_Hz_=_135069.6527331728

Tiempo_(s)	Campo_(V.s)	Magnetizacion_(V.s)	Campo_(kA/m)	Magnetizacion_(A/m)
0.000000e+00	-5.438172e-06	-1.867216e-09	-3.839253e+01	-1.269270e+02
1.000000e-08	-5.438305e-06	-1.866780e-09	-3.839347e+01	-1.268032e+02
2.000000e-08	-5.438253e-06	-1.865454e-09	-3.839310e+01	-1.266666e+02
3.000000e-08	-5.438009e-06	-1.860772e-09	-3.839138e+01	-1.265164e+02
4.000000e-08	-5.437489e-06	-1.854268e-09	-3.838771e+01	-1.263523e+02
5.000000e-08	-5.436502e-06	-1.849113e-09	-3.838074e+01	-1.261749e+02
6.000000e-08	-5.434787e-06	-1.846980e-09	-3.836864e+01	-1.259855e+02
7.000000e-08	-5.432361e-06	-1.855655e-09	-3.835151e+01	-1.257864e+02
8.000000e-08	-5.429412e-06	-1.878216e-09	-3.833069e+01	-1.255803e+02
9.000000e-08	-5.425997e-06	-1.873116e-09	-3.830658e+01	-1.253708e+02
1.000000e-07	-5.422116e-06	-1.830878e-09	-3.827918e+01	-1.251619e+02
1.100000e-07	-5.417891e-06	-1.846279e-09	-3.824936e+01	-1.249581e+02
1.200000e-07	-5.413533e-06	-1.893704e-09	-3.821859e+01	-1.247641e+02
1.300000e-07	-5.408989e-06	-1.888815e-09	-3.818651e+01	-1.245846e+02
1.400000e-07	-5.403993e-06	-1.807360e-09	-3.815124e+01	-1.244242e+02
1.500000e-07	-5.398510e-06	-1.818556e-09	-3.811253e+01	-1.242870e+02
1.600000e-07	-5.392762e-06	-1.906370e-09	-3.807195e+01	-1.241766e+02
1.700000e-07	-5.386621e-06	-1.884722e-09	-3.802859e+01	-1.240958e+02
1.800000e-07	-5.379967e-06	-1.798078e-09	-3.798161e+01	-1.240464e+02
1.900000e-07	-5.372967e-06	-1.797613e-09	-3.793220e+01	-1.240294e+02
2.000000e-07	-5.365672e-06	-1.914529e-09	-3.788070e+01	-1.240445e+02
2.100000e-07	-5.358071e-06	-1.901868e-09	-3.782703e+01	-1.240904e+02
2.200000e-07	-5.350272e-06	-1.859216e-09	-3.777198e+01	-1.241646e+02
2.300000e-07	-5.342297e-06	-1.892042e-09	-3.771567e+01	-1.242637e+02
2.400000e-07	-5.333976e-06	-1.975052e-09	-3.765692e+01	-1.243833e+02
2.500000e-07	-5.325092e-06	-1.939332e-09	-3.759421e+01	-1.245183e+02
2.600000e-07	-5.315543e-06	-1.922275e-09	-3.752679e+01	-1.246630e+02
2.700000e-07	-5.305291e-06	-1.989002e-09	-3.745442e+01	-1.248114e+02
2.800000e-07	-5.294453e-06	-2.010687e-09	-3.737790e+01	-1.249575e+02
2.900000e-07	-5.283150e-06	-1.936059e-09	-3.729811e+01	-1.250952e+02
3.000000e-07	-5.271493e-06	-1.945031e-09	-3.721581e+01	-1.252188e+02
3.100000e-07	-5.259516e-06	-2.013113e-09	-3.713125e+01	-1.253234e+02
3.200000e-07	-5.247079e-06	-1.982487e-09	-3.704345e+01	-1.254045e+02
3.300000e-07	-5.234193e-06	-1.937770e-09	-3.695248e+01	-1.254586e+02
3.400000e-07	-5.220948e-06	-1.966134e-09	-3.685897e+01	-1.254833e+02
3.500000e-07	-5.207315e-06	-1.986868e-09	-3.676272e+01	-1.254770e+02
3.600000e-07	-5.193356e-06	-1.948705e-09	-3.666418e+01	-1.254394e+02
3.700000e-07	-5.179051e-06	-1.956237e-09	-3.656319e+01	-1.253710e+02
3.800000e-07	-5.164176e-06	-1.962532e-09	-3.645817e+01	-1.252733e+02
3.900000e-07	-5.148688e-06	-1.940844e-09	-3.634883e+01	-1.251487e+02
4.000000e-07	-5.132572e-06	-1.939369e-09	-3.623505e+01	-1.250002e+02
4.100000e-07	-5.115917e-06	-1.967554e-09	-3.611747e+01	-1.248312e+02
4.200000e-07	-5.098920e-06	-1.933506e-09	-3.599747e+01	-1.246456e+02
4.300000e-07	-5.081678e-06	-1.913133e-09	-3.587575e+01	-1.244470e+02
4.400000e-07	-5.064207e-06	-1.936907e-09	-3.575241e+01	-1.242394e+02
4.500000e-07	-5.046479e-06	-1.951722e-09	-3.562725e+01	-1.240263e+02
4.600000e-07	-5.028371e-06	-1.908839e-09	-3.549941e+01	-1.238107e+02
4.700000e-07	-5.009850e-06	-1.909100e-09	-3.536865e+01	-1.235952e+02
4.800000e-07	-4.990958e-06	-1.922722e-09	-3.523528e+01	-1.233817e+02
4.900000e-07	-4.971723e-06	-1.926709e-09	-3.509949e+01	-1.231715e+02
5.000000e-07	-4.952195e-06	-1.907392e-09	-3.496162e+01	-1.229651e+02
5.100000e-07	-4.932411e-06	-1.900657e-09	-3.482195e+01	-1.227624e+02
5.200000e-07	-4.912387e-06	-1.888704e-09	-3.468059e+01	-1.225627e+02
5.300000e-07	-4.892174e-06	-1.900014e-09	-3.453788e+01	-1.223648e+02
5.400000e-07	-4.871679e-06	-1.899228e-09	-3.439320e+01	-1.221671e+02
5.500000e-07	-4.850799e-06	-1.883972e-09	-3.424578e+01	-1.219677e+02
5.600000e-07	-4.829541e-06	-1.874775e-09	-3.409571e+01	-1.217645e+02
5.700000e-07	-4.807927e-06	-1.890959e-09	-3.394312e+01	-1.215556e+02
5.800000e-07	-4.786001e-06	-1.886617e-09	-3.378832e+01	-1.213391e+02
5.900000e-07	-4.763779e-06	-1.865662e-09	-3.363143e+01	-1.211134e+02
6.000000e-07	-4.741214e-06	-1.853323e-09	-3.347213e+01	-1.208774e+02
6.100000e-07	-4.718345e-06	-1.858439e-09	-3.331068e+01	-1.206302e+02
6.200000e-07	-4.695140e-06	-1.863105e-09	-3.314686e+01	-1.203715e+02
6.300000e-07	-4.671569e-06	-1.854380e-09	-3.298045e+01	-1.201016e+02
6.400000e-07	-4.647799e-06	-1.844452e-09	-3.281264e+01	-1.198211e+02
6.500000e-07	-4.623899e-06	-1.845361e-09	-3.264391e+01	-1.195312e+02
6.600000e-07	-4.599751e-06	-1.854935e-09	-3.247343e+01	-1.192334e+02
6.700000e-07	-4.575260e-06	-1.844451e-09	-3.230053e+01	-1.189293e+02
6.800000e-07	-4.550332e-06	-1.829880e-09	-3.212454e+01	-1.186211e+02
6.900000e-07	-4.524917e-06	-1.822477e-09	-3.194512e+01	-1.183106e+02
7.000000e-07	-4.499069e-06	-1.827825e-09	-3.176263e+01	-1.179999e+02
7.100000e-07	-4.472697e-06	-1.820797e-09	-3.157645e+01	-1.176908e+02
7.200000e-07	-4.445842e-06	-1.814366e-09	-3.138686e+01	-1.173848e+02
7.300000e-07	-4.418592e-06	-1.812233e-09	-3.119448e+01	-1.170832e+02
7.400000e-07	-4.390937e-06	-1.823832e-09	-3.099924e+01	-1.167868e+02
7.500000e-07	-4.363038e-06	-1.821842e-09	-3.080228e+01	-1.164962e+02
7.600000e-07	-4.335010e-06	-1.813036e-09	-3.060440e+01	-1.162114e+02
7.700000e-07	-4.306765e-06	-1.800971e-09	-3.040500e+01	-1.159320e+02
7.800000e-07	-4.278225e-06	-1.803640e-09	-3.020351e+01	-1.156571e+02
7.900000e-07	-4.249422e-06	-1.800723e-09	-3.000017e+01	-1.153859e+02
8.000000e-07	-4.220360e-06	-1.795599e-09	-2.979500e+01	-1.151170e+02
8.100000e-07	-4.191013e-06	-1.786373e-09	-2.958781e+01	-1.148488e+02
8.200000e-07	-4.161367e-06	-1.786319e-09	-2.937852e+01	-1.145799e+02
8.300000e-07	-4.131373e-06	-1.785156e-09	-2.916677e+01	-1.143088e+02
8.400000e-07	-4.101103e-06	-1.782351e-09	-2.895306e+01	-1.140339e+02
8.500000e-07	-4.070580e-06	-1.774263e-09	-2.873757e+01	-1.137542e+02
8.600000e-07	-4.039780e-06	-1.773285e-09	-2.852013e+01	-1.134685e+02
8.700000e-07	-4.008596e-06	-1.776390e-09	-2.829998e+01	-1.131761e+02
8.800000e-07	-3.977186e-06	-1.775319e-09	-2.807823e+01	-1.128767e+02
8.900000e-07	-3.945740e-06	-1.765199e-09	-2.785623e+01	-1.125700e+02
9.000000e-07	-3.914078e-06	-1.755655e-09	-2.763270e+01	-1.122563e+02
9.100000e-07	-3.882162e-06	-1.751529e-09	-2.740738e+01	-1.119360e+02
9.200000e-07	-3.850087e-06	-1.748892e-09	-2.718093e+01	-1.116098e+02
9.300000e-07	-3.817865e-06	-1.744137e-09	-2.695345e+01	-1.112784e+02
9.400000e-07	-3.785325e-06	-1.740693e-09	-2.672372e+01	-1.109428e+02
9.500000e-07	-3.752418e-06	-1.745040e-09	-2.649141e+01	-1.106039e+02
9.600000e-07	-3.719163e-06	-1.746695e-09	-2.625663e+01	-1.102626e+02
9.700000e-07	-3.685528e-06	-1.739452e-09	-2.601918e+01	-1.099196e+02
9.800000e-07	-3.651473e-06	-1.722317e-09	-2.577875e+01	-1.095757e+02
9.900000e-07	-3.616938e-06	-1.710235e-09	-2.553494e+01	-1.092312e+02
1.000000e-06	-3.582017e-06	-1.702225e-09	-2.528841e+01	-1.088864e+02
1.010000e-06	-3.546759e-06	-1.699225e-09	-2.503949e+01	-1.085414e+02
1.020000e-06	-3.511153e-06	-1.696715e-09	-2.478812e+01	-1.081958e+02
1.030000e-06	-3.475377e-06	-1.699613e-09	-2.453555e+01	-1.078492e+02
1.040000e-06	-3.439531e-06	-1.700594e-09	-2.428248e+01	-1.075013e+02
1.050000e-06	-3.403564e-06	-1.697729e-09	-2.402856e+01	-1.071511e+02
1.060000e-06	-3.367421e-06	-1.683497e-09	-2.377340e+01	-1.067981e+02
1.070000e-06	-3.331106e-06	-1.667213e-09	-2.351702e+01	-1.064415e+02
1.080000e-06	-3.294559e-06	-1.653670e-09	-2.325901e+01	-1.060805e+02
1.090000e-06	-3.257713e-06	-1.648081e-09	-2.299888e+01	-1.057146e+02
1.100000e-06	-3.220614e-06	-1.643298e-09	-2.273697e+01	-1.053434e+02
1.110000e-06	-3.183314e-06	-1.641363e-09	-2.247364e+01	-1.049664e+02
1.120000e-06	-3.145731e-06	-1.638392e-09	-2.220831e+01	-1.045838e+02
1.130000e-06	-3.107942e-06	-1.634831e-09	-2.194152e+01	-1.041954e+02
1.140000e-06	-3.070014e-06	-1.625904e-09	-2.167375e+01	-1.038016e+02
1.150000e-06	-3.031836e-06	-1.613578e-09	-2.140423e+01	-1.034029e+02
1.160000e-06	-2.993407e-06	-1.599980e-09	-2.113292e+01	-1.029998e+02
1.170000e-06	-2.954796e-06	-1.592160e-09	-2.086034e+01	-1.025929e+02
1.180000e-06	-2.916018e-06	-1.587959e-09	-2.058657e+01	-1.021830e+02
1.190000e-06	-2.877015e-06	-1.582494e-09	-2.031122e+01	-1.017707e+02
1.200000e-06	-2.837857e-06	-1.577368e-09	-2.003477e+01	-1.013565e+02
1.210000e-06	-2.798492e-06	-1.575494e-09	-1.975686e+01	-1.009409e+02
1.220000e-06	-2.758856e-06	-1.573472e-09	-1.947704e+01	-1.005242e+02
1.230000e-06	-2.719046e-06	-1.565927e-09	-1.919598e+01	-1.001065e+02
1.240000e-06	-2.679140e-06	-1.555123e-09	-1.891425e+01	-9.968770e+01
1.250000e-06	-2.639151e-06	-1.545351e-09	-1.863194e+01	-9.926735e+01
1.260000e-06	-2.599084e-06	-1.538976e-09	-1.834908e+01	-9.884493e+01
1.270000e-06	-2.558946e-06	-1.531969e-09	-1.806571e+01	-9.841966e+01
1.280000e-06	-2.518700e-06	-1.523341e-09	-1.778158e+01	-9.799062e+01
1.290000e-06	-2.478278e-06	-1.514286e-09	-1.749620e+01	-9.755677e+01
1.300000e-06	-2.437621e-06	-1.508298e-09	-1.720917e+01	-9.711704e+01
1.310000e-06	-2.396796e-06	-1.499769e-09	-1.692095e+01	-9.667033e+01
1.320000e-06	-2.355760e-06	-1.491493e-09	-1.663125e+01	-9.621562e+01
1.330000e-06	-2.314356e-06	-1.485235e-09	-1.633894e+01	-9.575199e+01
1.340000e-06	-2.272668e-06	-1.484901e-09	-1.604464e+01	-9.527871e+01
1.350000e-06	-2.230694e-06	-1.482040e-09	-1.574831e+01	-9.479524e+01
1.360000e-06	-2.188451e-06	-1.472988e-09	-1.545008e+01	-9.430129e+01
1.370000e-06	-2.145955e-06	-1.458269e-09	-1.515006e+01	-9.379681e+01
1.380000e-06	-2.103196e-06	-1.445656e-09	-1.484820e+01	-9.328202e+01
1.390000e-06	-2.060177e-06	-1.435776e-09	-1.454449e+01	-9.275736e+01
1.400000e-06	-2.016943e-06	-1.427524e-09	-1.423926e+01	-9.222350e+01
1.410000e-06	-1.973526e-06	-1.421550e-09	-1.393274e+01	-9.168127e+01
1.420000e-06	-1.929905e-06	-1.420484e-09	-1.362479e+01	-9.113160e+01
1.430000e-06	-1.886259e-06	-1.419861e-09	-1.331666e+01	-9.057552e+01
1.440000e-06	-1.842473e-06	-1.415951e-09	-1.300754e+01	-9.001402e+01
1.450000e-06	-1.798544e-06	-1.405172e-09	-1.269740e+01	-8.944804e+01
1.460000e-06	-1.754609e-06	-1.389669e-09	-1.238723e+01	-8.887841e+01
1.470000e-06	-1.710641e-06	-1.374653e-09	-1.207682e+01	-8.830578e+01
1.480000e-06	-1.666611e-06	-1.364955e-09	-1.176598e+01	-8.773058e+01
1.490000e-06	-1.622498e-06	-1.359307e-09	-1.145455e+01	-8.715301e+01
1.500000e-06	-1.578264e-06	-1.358687e-09	-1.114226e+01	-8.657301e+01
1.510000e-06	-1.533906e-06	-1.361004e-09	-1.082910e+01	-8.599026e+01
1.520000e-06	-1.489476e-06	-1.360927e-09	-1.051544e+01	-8.540420e+01
1.530000e-06	-1.445030e-06	-1.352399e-09	-1.020166e+01	-8.481405e+01
1.540000e-06	-1.400562e-06	-1.333643e-09	-9.887718e+00	-8.421887e+01
1.550000e-06	-1.355949e-06	-1.312811e-09	-9.572760e+00	-8.361758e+01
1.560000e-06	-1.311218e-06	-1.298130e-09	-9.256966e+00	-8.300904e+01
1.570000e-06	-1.266374e-06	-1.290718e-09	-8.940375e+00	-8.239206e+01
1.580000e-06	-1.221438e-06	-1.286316e-09	-8.623139e+00	-8.176551e+01
1.590000e-06	-1.176442e-06	-1.286114e-09	-8.305472e+00	-8.112836e+01
1.600000e-06	-1.131326e-06	-1.284703e-09	-7.986961e+00	-8.047968e+01
1.610000e-06	-1.086079e-06	-1.276229e-09	-7.667525e+00	-7.981871e+01
1.620000e-06	-1.040776e-06	-1.256433e-09	-7.347695e+00	-7.914489e+01
1.630000e-06	-9.954563e-07	-1.233075e-09	-7.027745e+00	-7.845782e+01
1.640000e-06	-9.500900e-07	-1.215253e-09	-6.707467e+00	-7.775730e+01
1.650000e-06	-9.045927e-07	-1.205088e-09	-6.386264e+00	-7.704329e+01
1.660000e-06	-8.589099e-07	-1.198115e-09	-6.063752e+00	-7.631585e+01
1.670000e-06	-8.131651e-07	-1.192907e-09	-5.740802e+00	-7.557517e+01
1.680000e-06	-7.674735e-07	-1.186260e-09	-5.418227e+00	-7.482145e+01
1.690000e-06	-7.218212e-07	-1.174828e-09	-5.095930e+00	-7.405486e+01
1.700000e-06	-6.761189e-07	-1.156050e-09	-4.773280e+00	-7.327553e+01
1.710000e-06	-6.303115e-07	-1.135552e-09	-4.449888e+00	-7.248344e+01
1.720000e-06	-5.844287e-07	-1.119213e-09	-4.125963e+00	-7.167842e+01
1.730000e-06	-5.385184e-07	-1.108831e-09	-3.801845e+00	-7.086010e+01
1.740000e-06	-4.926089e-07	-1.096949e-09	-3.477732e+00	-7.002786e+01
1.750000e-06	-4.466397e-07	-1.083771e-09	-3.153197e+00	-6.918086e+01
1.760000e-06	-4.005004e-07	-1.072506e-09	-2.827462e+00	-6.831802e+01
1.770000e-06	-3.543537e-07	-1.059929e-09	-2.501675e+00	-6.743803e+01
1.780000e-06	-3.082696e-07	-1.043408e-09	-2.176329e+00	-6.653940e+01
1.790000e-06	-2.621591e-07	-1.024514e-09	-1.850797e+00	-6.562047e+01
1.800000e-06	-2.160488e-07	-1.005057e-09	-1.525266e+00	-6.467949e+01
1.810000e-06	-1.699556e-07	-9.859593e-10	-1.199857e+00	-6.371466e+01
1.820000e-06	-1.239194e-07	-9.660722e-10	-8.748492e-01	-6.272418e+01
1.830000e-06	-7.791345e-08	-9.466430e-10	-5.500552e-01	-6.170632e+01
1.840000e-06	-3.189521e-08	-9.307026e-10	-2.251745e-01	-6.065949e+01
1.850000e-06	1.412399e-08	-9.179705e-10	9.971285e-02	-5.958224e+01
1.860000e-06	6.017006e-08	-9.063139e-10	4.247900e-01	-5.847334e+01
1.870000e-06	1.062536e-07	-8.922052e-10	7.501317e-01	-5.733182e+01
1.880000e-06	1.523553e-07	-8.765300e-10	1.075602e+00	-5.615693e+01
1.890000e-06	1.985037e-07	-8.584895e-10	1.401401e+00	-5.494818e+01
1.900000e-06	2.446267e-07	-8.354240e-10	1.727021e+00	-5.370533e+01
1.910000e-06	2.906910e-07	-8.082918e-10	2.052227e+00	-5.242834e+01
1.920000e-06	3.366907e-07	-7.812123e-10	2.376977e+00	-5.111738e+01
1.930000e-06	3.825977e-07	-7.573987e-10	2.701072e+00	-4.977275e+01
1.940000e-06	4.285588e-07	-7.370989e-10	3.025549e+00	-4.839483e+01
1.950000e-06	4.745843e-07	-7.169592e-10	3.350481e+00	-4.698409e+01
1.960000e-06	5.205996e-07	-6.991959e-10	3.675341e+00	-4.554098e+01
1.970000e-06	5.665470e-07	-6.833203e-10	3.999722e+00	-4.406589e+01
1.980000e-06	6.123584e-07	-6.629325e-10	4.323142e+00	-4.255917e+01
1.990000e-06	6.581152e-07	-6.332724e-10	4.646177e+00	-4.102105e+01
2.000000e-06	7.038054e-07	-6.011978e-10	4.968742e+00	-3.945162e+01
2.010000e-06	7.494852e-07	-5.738832e-10	5.291233e+00	-3.785087e+01
2.020000e-06	7.951814e-07	-5.503806e-10	5.613840e+00	-3.621866e+01
2.030000e-06	8.407957e-07	-5.273228e-10	5.935869e+00	-3.455473e+01
2.040000e-06	8.863403e-07	-5.046580e-10	6.257406e+00	-3.285874e+01
2.050000e-06	9.318053e-07	-4.838959e-10	6.578381e+00	-3.113032e+01
2.060000e-06	9.771807e-07	-4.625674e-10	6.898723e+00	-2.936907e+01
2.070000e-06	1.022423e-06	-4.340000e-10	7.218126e+00	-2.757463e+01
2.080000e-06	1.067560e-06	-4.000611e-10	7.536788e+00	-2.574671e+01
2.090000e-06	1.112666e-06	-3.683203e-10	7.855223e+00	-2.388514e+01
2.100000e-06	1.157750e-06	-3.400833e-10	8.173507e+00	-2.198987e+01
2.110000e-06	1.202688e-06	-3.113640e-10	8.490764e+00	-2.006102e+01
2.120000e-06	1.247471e-06	-2.808283e-10	8.806921e+00	-1.809892e+01
2.130000e-06	1.292177e-06	-2.515067e-10	9.122540e+00	-1.610405e+01
2.140000e-06	1.336759e-06	-2.256159e-10	9.437283e+00	-1.407709e+01
2.150000e-06	1.381287e-06	-1.990556e-10	9.751645e+00	-1.201889e+01
2.160000e-06	1.425775e-06	-1.684407e-10	1.006572e+01	-9.930459e+00
2.170000e-06	1.470130e-06	-1.347358e-10	1.037886e+01	-7.812901e+00
2.180000e-06	1.514409e-06	-1.017875e-10	1.069146e+01	-5.667423e+00
2.190000e-06	1.558660e-06	-7.145848e-11	1.100386e+01	-3.495282e+00
2.200000e-06	1.602846e-06	-3.985852e-11	1.131581e+01	-1.297751e+00
2.210000e-06	1.646977e-06	-7.446038e-12	1.162736e+01	9.239032e-01
2.220000e-06	1.691042e-06	2.445977e-11	1.193846e+01	3.168448e+00
2.230000e-06	1.735018e-06	5.832119e-11	1.224892e+01	5.434696e+00
2.240000e-06	1.778922e-06	9.575843e-11	1.255887e+01	7.721511e+00
2.250000e-06	1.822780e-06	1.356272e-10	1.286851e+01	1.002780e+01
2.260000e-06	1.866607e-06	1.732262e-10	1.317792e+01	1.235250e+01
2.270000e-06	1.910386e-06	2.068960e-10	1.348699e+01	1.469455e+01
2.280000e-06	1.954139e-06	2.406775e-10	1.379587e+01	1.705283e+01
2.290000e-06	1.997779e-06	2.768011e-10	1.410397e+01	1.942617e+01
2.300000e-06	2.041139e-06	3.145417e-10	1.441008e+01	2.181327e+01
2.310000e-06	2.084227e-06	3.508394e-10	1.471427e+01	2.421263e+01
2.320000e-06	2.127115e-06	3.857994e-10	1.501705e+01	2.662256e+01
2.330000e-06	2.169788e-06	4.218756e-10	1.531832e+01	2.904111e+01
2.340000e-06	2.212209e-06	4.585759e-10	1.561781e+01	3.146602e+01
2.350000e-06	2.254289e-06	4.938542e-10	1.591488e+01	3.389476e+01
2.360000e-06	2.295945e-06	5.275025e-10	1.620896e+01	3.632447e+01
2.370000e-06	2.337341e-06	5.624248e-10	1.650121e+01	3.875200e+01
2.380000e-06	2.378482e-06	6.027190e-10	1.679166e+01	4.117392e+01
2.390000e-06	2.419287e-06	6.431343e-10	1.707974e+01	4.358660e+01
2.400000e-06	2.459826e-06	6.790684e-10	1.736594e+01	4.598620e+01
2.410000e-06	2.500179e-06	7.122357e-10	1.765082e+01	4.836880e+01
2.420000e-06	2.540421e-06	7.472201e-10	1.793492e+01	5.073046e+01
2.430000e-06	2.580538e-06	7.881446e-10	1.821814e+01	5.306727e+01
2.440000e-06	2.620563e-06	8.280186e-10	1.850071e+01	5.537551e+01
2.450000e-06	2.660524e-06	8.626533e-10	1.878283e+01	5.765163e+01
2.460000e-06	2.700376e-06	8.950656e-10	1.906418e+01	5.989242e+01
2.470000e-06	2.740124e-06	9.285360e-10	1.934479e+01	6.209503e+01
2.480000e-06	2.779746e-06	9.607303e-10	1.962452e+01	6.425703e+01
2.490000e-06	2.819248e-06	9.900869e-10	1.990339e+01	6.637644e+01
2.500000e-06	2.858604e-06	1.021053e-09	2.018124e+01	6.845177e+01
2.510000e-06	2.897727e-06	1.056822e-09	2.045744e+01	7.048200e+01
2.520000e-06	2.936538e-06	1.095066e-09	2.073144e+01	7.246658e+01
2.530000e-06	2.975064e-06	1.130111e-09	2.100342e+01	7.440536e+01
2.540000e-06	3.013399e-06	1.160203e-09	2.127407e+01	7.629859e+01
2.550000e-06	3.051534e-06	1.185746e-09	2.154329e+01	7.814681e+01
2.560000e-06	3.089499e-06	1.209467e-09	2.181132e+01	7.995082e+01
2.570000e-06	3.127288e-06	1.232934e-09	2.207810e+01	8.171155e+01
2.580000e-06	3.164831e-06	1.255700e-09	2.234314e+01	8.343002e+01
2.590000e-06	3.202174e-06	1.279104e-09	2.260678e+01	8.510728e+01
2.600000e-06	3.239361e-06	1.306645e-09	2.286932e+01	8.674429e+01
2.610000e-06	3.276306e-06	1.338855e-09	2.313014e+01	8.834189e+01
2.620000e-06	3.312909e-06	1.369880e-09	2.338855e+01	8.990077e+01
2.630000e-06	3.349266e-06	1.394007e-09	2.364522e+01	9.142144e+01
2.640000e-06	3.385516e-06	1.412686e-09	2.390115e+01	9.290416e+01
2.650000e-06	3.421615e-06	1.429141e-09	2.415600e+01	9.434905e+01
2.660000e-06	3.457563e-06	1.443507e-09	2.440978e+01	9.575599e+01
2.670000e-06	3.493374e-06	1.455572e-09	2.466260e+01	9.712474e+01
2.680000e-06	3.529071e-06	1.470357e-09	2.491462e+01	9.845496e+01
2.690000e-06	3.564620e-06	1.491436e-09	2.516559e+01	9.974625e+01
2.700000e-06	3.599836e-06	1.517362e-09	2.541421e+01	1.009982e+02
2.710000e-06	3.634668e-06	1.542057e-09	2.566011e+01	1.022105e+02
2.720000e-06	3.669058e-06	1.561104e-09	2.590290e+01	1.033828e+02
2.730000e-06	3.702894e-06	1.575650e-09	2.614177e+01	1.045151e+02
2.740000e-06	3.736206e-06	1.588832e-09	2.637696e+01	1.056075e+02
2.750000e-06	3.769148e-06	1.599929e-09	2.660952e+01	1.066603e+02
2.760000e-06	3.801737e-06	1.608997e-09	2.683959e+01	1.076741e+02
2.770000e-06	3.834005e-06	1.619386e-09	2.706740e+01	1.086496e+02
2.780000e-06	3.866110e-06	1.635847e-09	2.729406e+01	1.095878e+02
2.790000e-06	3.898100e-06	1.657468e-09	2.751990e+01	1.104897e+02
2.800000e-06	3.929932e-06	1.673935e-09	2.774463e+01	1.113568e+02
2.810000e-06	3.961608e-06	1.681064e-09	2.796825e+01	1.121903e+02
2.820000e-06	3.993106e-06	1.684045e-09	2.819062e+01	1.129916e+02
2.830000e-06	4.024317e-06	1.690872e-09	2.841097e+01	1.137622e+02
2.840000e-06	4.055190e-06	1.700426e-09	2.862892e+01	1.145032e+02
2.850000e-06	4.085705e-06	1.708094e-09	2.884436e+01	1.152160e+02
2.860000e-06	4.115925e-06	1.717472e-09	2.905770e+01	1.159016e+02
2.870000e-06	4.145957e-06	1.732329e-09	2.926972e+01	1.165610e+02
2.880000e-06	4.175736e-06	1.747278e-09	2.947996e+01	1.171947e+02
2.890000e-06	4.205230e-06	1.754934e-09	2.968818e+01	1.178034e+02
2.900000e-06	4.234448e-06	1.756469e-09	2.989445e+01	1.183876e+02
