# Temperatura_=_13.7
# Concentracion g/m^3_=_4090.0
# C_Vs_to_Am_M_A/Vsm_=_65563218390.804596
# pendiente_HvsI_1/m_=_3716.3
# ordenada_HvsI_A/m_=_1297.0
# frecuencia_Hz_=_135085.87632583233

Tiempo_(s)	Campo_(V.s)	Magnetizacion_(V.s)	Campo_(kA/m)	Magnetizacion_(A/m)
0.000000e+00	-5.409693e-06	-1.279926e-09	-3.839014e+01	-8.482064e+01
1.000000e-08	-5.409855e-06	-1.273518e-09	-3.839129e+01	-8.469209e+01
2.000000e-08	-5.409772e-06	-1.267558e-09	-3.839071e+01	-8.454801e+01
3.000000e-08	-5.409461e-06	-1.261810e-09	-3.838850e+01	-8.438854e+01
4.000000e-08	-5.408876e-06	-1.259387e-09	-3.838435e+01	-8.421462e+01
5.000000e-08	-5.407767e-06	-1.261627e-09	-3.837648e+01	-8.402808e+01
6.000000e-08	-5.405931e-06	-1.266762e-09	-3.836345e+01	-8.383157e+01
7.000000e-08	-5.403604e-06	-1.274437e-09	-3.834693e+01	-8.362855e+01
8.000000e-08	-5.400749e-06	-1.275436e-09	-3.832667e+01	-8.342317e+01
9.000000e-08	-5.397219e-06	-1.246734e-09	-3.830162e+01	-8.322015e+01
1.000000e-07	-5.393218e-06	-1.247941e-09	-3.827323e+01	-8.302457e+01
1.100000e-07	-5.388963e-06	-1.289173e-09	-3.824304e+01	-8.284175e+01
1.200000e-07	-5.384574e-06	-1.277860e-09	-3.821188e+01	-8.267695e+01
1.300000e-07	-5.379976e-06	-1.221407e-09	-3.817926e+01	-8.253519e+01
1.400000e-07	-5.375061e-06	-1.223605e-09	-3.814437e+01	-8.242100e+01
1.500000e-07	-5.369703e-06	-1.300471e-09	-3.810635e+01	-8.233822e+01
1.600000e-07	-5.363894e-06	-1.318768e-09	-3.806513e+01	-8.228981e+01
1.700000e-07	-5.357790e-06	-1.196246e-09	-3.802181e+01	-8.227767e+01
1.800000e-07	-5.351351e-06	-1.193924e-09	-3.797612e+01	-8.230255e+01
1.900000e-07	-5.344391e-06	-1.259568e-09	-3.792672e+01	-8.236394e+01
2.000000e-07	-5.337075e-06	-1.317767e-09	-3.787481e+01	-8.246008e+01
2.100000e-07	-5.329529e-06	-1.231369e-09	-3.782126e+01	-8.258800e+01
2.200000e-07	-5.321790e-06	-1.237618e-09	-3.776633e+01	-8.274355e+01
2.300000e-07	-5.313781e-06	-1.280817e-09	-3.770950e+01	-8.292160e+01
2.400000e-07	-5.305426e-06	-1.301202e-09	-3.765021e+01	-8.311617e+01
2.500000e-07	-5.296570e-06	-1.276844e-09	-3.758736e+01	-8.332068e+01
2.600000e-07	-5.287074e-06	-1.309711e-09	-3.751997e+01	-8.352817e+01
2.700000e-07	-5.276787e-06	-1.334476e-09	-3.744697e+01	-8.373156e+01
2.800000e-07	-5.266020e-06	-1.296734e-09	-3.737056e+01	-8.392391e+01
2.900000e-07	-5.254974e-06	-1.287263e-09	-3.729217e+01	-8.409868e+01
3.000000e-07	-5.243419e-06	-1.307865e-09	-3.721017e+01	-8.424997e+01
3.100000e-07	-5.231472e-06	-1.293685e-09	-3.712539e+01	-8.437271e+01
3.200000e-07	-5.219162e-06	-1.248350e-09	-3.703803e+01	-8.446287e+01
3.300000e-07	-5.206394e-06	-1.304392e-09	-3.694743e+01	-8.451751e+01
3.400000e-07	-5.193088e-06	-1.317499e-09	-3.685299e+01	-8.453492e+01
3.500000e-07	-5.179410e-06	-1.303753e-09	-3.675593e+01	-8.451461e+01
3.600000e-07	-5.165400e-06	-1.292722e-09	-3.665651e+01	-8.445728e+01
3.700000e-07	-5.150971e-06	-1.332467e-09	-3.655411e+01	-8.436474e+01
3.800000e-07	-5.136104e-06	-1.276943e-09	-3.644861e+01	-8.423979e+01
3.900000e-07	-5.120749e-06	-1.256569e-09	-3.633964e+01	-8.408603e+01
4.000000e-07	-5.104850e-06	-1.270050e-09	-3.622681e+01	-8.390772e+01
4.100000e-07	-5.088477e-06	-1.284646e-09	-3.611062e+01	-8.370949e+01
4.200000e-07	-5.071632e-06	-1.254940e-09	-3.599108e+01	-8.349618e+01
4.300000e-07	-5.054423e-06	-1.291232e-09	-3.586895e+01	-8.327261e+01
4.400000e-07	-5.036954e-06	-1.305289e-09	-3.574498e+01	-8.304334e+01
4.500000e-07	-5.019166e-06	-1.294062e-09	-3.561875e+01	-8.281255e+01
4.600000e-07	-5.001123e-06	-1.269825e-09	-3.549071e+01	-8.258381e+01
4.700000e-07	-4.982871e-06	-1.274375e-09	-3.536118e+01	-8.236003e+01
4.800000e-07	-4.964190e-06	-1.248157e-09	-3.522861e+01	-8.214336e+01
4.900000e-07	-4.945026e-06	-1.239051e-09	-3.509261e+01	-8.193514e+01
5.000000e-07	-4.925524e-06	-1.236641e-09	-3.495421e+01	-8.173593e+01
5.100000e-07	-4.905744e-06	-1.238237e-09	-3.481385e+01	-8.154556e+01
5.200000e-07	-4.885756e-06	-1.243518e-09	-3.467200e+01	-8.136322e+01
5.300000e-07	-4.865559e-06	-1.256757e-09	-3.452867e+01	-8.118753e+01
5.400000e-07	-4.845148e-06	-1.250868e-09	-3.438382e+01	-8.101673e+01
5.500000e-07	-4.824469e-06	-1.242226e-09	-3.423707e+01	-8.084881e+01
5.600000e-07	-4.803410e-06	-1.243632e-09	-3.408763e+01	-8.068163e+01
5.700000e-07	-4.781994e-06	-1.234583e-09	-3.393565e+01	-8.051313e+01
5.800000e-07	-4.760188e-06	-1.220313e-09	-3.378090e+01	-8.034139e+01
5.900000e-07	-4.738080e-06	-1.207384e-09	-3.362401e+01	-8.016480e+01
6.000000e-07	-4.715711e-06	-1.205569e-09	-3.346527e+01	-7.998215e+01
6.100000e-07	-4.692980e-06	-1.209827e-09	-3.330396e+01	-7.979263e+01
6.200000e-07	-4.669950e-06	-1.222586e-09	-3.314052e+01	-7.959595e+01
6.300000e-07	-4.646685e-06	-1.213913e-09	-3.297542e+01	-7.939224e+01
6.400000e-07	-4.623061e-06	-1.218902e-09	-3.280778e+01	-7.918210e+01
6.500000e-07	-4.599080e-06	-1.223572e-09	-3.263759e+01	-7.896648e+01
6.600000e-07	-4.574972e-06	-1.223114e-09	-3.246650e+01	-7.874663e+01
6.700000e-07	-4.550748e-06	-1.201800e-09	-3.229460e+01	-7.852401e+01
6.800000e-07	-4.526157e-06	-1.197708e-09	-3.212009e+01	-7.830014e+01
6.900000e-07	-4.500917e-06	-1.188419e-09	-3.194097e+01	-7.807652e+01
7.000000e-07	-4.475022e-06	-1.188223e-09	-3.175721e+01	-7.785453e+01
7.100000e-07	-4.448686e-06	-1.181444e-09	-3.157031e+01	-7.763531e+01
7.200000e-07	-4.421898e-06	-1.187108e-09	-3.138021e+01	-7.741972e+01
7.300000e-07	-4.394633e-06	-1.187982e-09	-3.118672e+01	-7.720824e+01
7.400000e-07	-4.367040e-06	-1.197812e-09	-3.099091e+01	-7.700096e+01
7.500000e-07	-4.339228e-06	-1.190890e-09	-3.079354e+01	-7.679758e+01
7.600000e-07	-4.311305e-06	-1.185238e-09	-3.059538e+01	-7.659741e+01
7.700000e-07	-4.283217e-06	-1.175505e-09	-3.039605e+01	-7.639943e+01
7.800000e-07	-4.254946e-06	-1.169239e-09	-3.019543e+01	-7.620234e+01
7.900000e-07	-4.226377e-06	-1.157805e-09	-2.999269e+01	-7.600466e+01
8.000000e-07	-4.197411e-06	-1.155440e-09	-2.978712e+01	-7.580479e+01
8.100000e-07	-4.168051e-06	-1.154633e-09	-2.957877e+01	-7.560114e+01
8.200000e-07	-4.138352e-06	-1.157508e-09	-2.936801e+01	-7.539221e+01
8.300000e-07	-4.108483e-06	-1.157560e-09	-2.915605e+01	-7.517668e+01
8.400000e-07	-4.078389e-06	-1.155718e-09	-2.894248e+01	-7.495349e+01
8.500000e-07	-4.048018e-06	-1.152612e-09	-2.872695e+01	-7.472191e+01
8.600000e-07	-4.017395e-06	-1.148189e-09	-2.850964e+01	-7.448156e+01
8.700000e-07	-3.986467e-06	-1.142292e-09	-2.829015e+01	-7.423244e+01
8.800000e-07	-3.955325e-06	-1.131813e-09	-2.806915e+01	-7.397497e+01
8.900000e-07	-3.923914e-06	-1.126608e-09	-2.784624e+01	-7.370986e+01
9.000000e-07	-3.892213e-06	-1.121225e-09	-2.762127e+01	-7.343819e+01
9.100000e-07	-3.860361e-06	-1.118132e-09	-2.739524e+01	-7.316124e+01
9.200000e-07	-3.828378e-06	-1.110818e-09	-2.716827e+01	-7.288048e+01
9.300000e-07	-3.796204e-06	-1.112072e-09	-2.693994e+01	-7.259744e+01
9.400000e-07	-3.763759e-06	-1.116507e-09	-2.670970e+01	-7.231366e+01
9.500000e-07	-3.730991e-06	-1.123769e-09	-2.647716e+01	-7.203057e+01
9.600000e-07	-3.697947e-06	-1.119085e-09	-2.624265e+01	-7.174945e+01
9.700000e-07	-3.664646e-06	-1.112370e-09	-2.600633e+01	-7.147131e+01
9.800000e-07	-3.630794e-06	-1.100634e-09	-2.576610e+01	-7.119688e+01
9.900000e-07	-3.596369e-06	-1.092720e-09	-2.552180e+01	-7.092658e+01
1.000000e-06	-3.561668e-06	-1.080650e-09	-2.527555e+01	-7.066047e+01
1.010000e-06	-3.526705e-06	-1.078260e-09	-2.502743e+01	-7.039830e+01
1.020000e-06	-3.491251e-06	-1.081802e-09	-2.477583e+01	-7.013953e+01
1.030000e-06	-3.455484e-06	-1.091816e-09	-2.452201e+01	-6.988332e+01
1.040000e-06	-3.419681e-06	-1.093916e-09	-2.426793e+01	-6.962870e+01
1.050000e-06	-3.383694e-06	-1.089852e-09	-2.401255e+01	-6.937451e+01
1.060000e-06	-3.347565e-06	-1.076452e-09	-2.375615e+01	-6.911959e+01
1.070000e-06	-3.311335e-06	-1.063264e-09	-2.349904e+01	-6.886277e+01
1.080000e-06	-3.274872e-06	-1.050060e-09	-2.324029e+01	-6.860300e+01
1.090000e-06	-3.238167e-06	-1.042184e-09	-2.297980e+01	-6.833938e+01
1.100000e-06	-3.201243e-06	-1.040134e-09	-2.271778e+01	-6.807122e+01
1.110000e-06	-3.164166e-06	-1.045712e-09	-2.245465e+01	-6.779809e+01
1.120000e-06	-3.126911e-06	-1.050263e-09	-2.219027e+01	-6.751980e+01
1.130000e-06	-3.089371e-06	-1.047505e-09	-2.192387e+01	-6.723646e+01
1.140000e-06	-3.051557e-06	-1.037943e-09	-2.165552e+01	-6.694841e+01
1.150000e-06	-3.013521e-06	-1.026995e-09	-2.138559e+01	-6.665620e+01
1.160000e-06	-2.975269e-06	-1.018702e-09	-2.111414e+01	-6.636057e+01
1.170000e-06	-2.936889e-06	-1.009849e-09	-2.084178e+01	-6.606236e+01
1.180000e-06	-2.898321e-06	-1.002817e-09	-2.056807e+01	-6.576246e+01
1.190000e-06	-2.859499e-06	-9.975246e-10	-2.029257e+01	-6.546174e+01
1.200000e-06	-2.820483e-06	-9.966255e-10	-2.001569e+01	-6.516101e+01
1.210000e-06	-2.781268e-06	-9.957609e-10	-1.973740e+01	-6.486093e+01
1.220000e-06	-2.741795e-06	-9.933816e-10	-1.945728e+01	-6.456195e+01
1.230000e-06	-2.702151e-06	-9.870487e-10	-1.917595e+01	-6.426436e+01
1.240000e-06	-2.662407e-06	-9.824143e-10	-1.889390e+01	-6.396815e+01
1.250000e-06	-2.622508e-06	-9.777840e-10	-1.861075e+01	-6.367314e+01
1.260000e-06	-2.582479e-06	-9.751270e-10	-1.832668e+01	-6.337886e+01
1.270000e-06	-2.542405e-06	-9.668733e-10	-1.804230e+01	-6.308472e+01
1.280000e-06	-2.502243e-06	-9.596512e-10	-1.775728e+01	-6.278991e+01
1.290000e-06	-2.461970e-06	-9.545852e-10	-1.747149e+01	-6.249358e+01
1.300000e-06	-2.421595e-06	-9.525931e-10	-1.718497e+01	-6.219483e+01
1.310000e-06	-2.381046e-06	-9.471737e-10	-1.689720e+01	-6.189276e+01
1.320000e-06	-2.340234e-06	-9.408308e-10	-1.660758e+01	-6.158660e+01
1.330000e-06	-2.299207e-06	-9.360385e-10	-1.631643e+01	-6.127570e+01
1.340000e-06	-2.257961e-06	-9.353437e-10	-1.602373e+01	-6.095958e+01
1.350000e-06	-2.216376e-06	-9.342706e-10	-1.572862e+01	-6.063801e+01
1.360000e-06	-2.174514e-06	-9.298551e-10	-1.543154e+01	-6.031097e+01
1.370000e-06	-2.132433e-06	-9.211383e-10	-1.513291e+01	-5.997868e+01
1.380000e-06	-2.090148e-06	-9.140061e-10	-1.483284e+01	-5.964154e+01
1.390000e-06	-2.047597e-06	-9.060846e-10	-1.453087e+01	-5.930018e+01
1.400000e-06	-2.004624e-06	-8.959642e-10	-1.422591e+01	-5.895530e+01
1.410000e-06	-1.961361e-06	-8.852384e-10	-1.391889e+01	-5.860771e+01
1.420000e-06	-1.917997e-06	-8.782312e-10	-1.361116e+01	-5.825820e+01
1.430000e-06	-1.874519e-06	-8.787418e-10	-1.330261e+01	-5.790748e+01
1.440000e-06	-1.830945e-06	-8.809111e-10	-1.299339e+01	-5.755612e+01
1.450000e-06	-1.787336e-06	-8.768301e-10	-1.268391e+01	-5.720451e+01
1.460000e-06	-1.743633e-06	-8.698437e-10	-1.237378e+01	-5.685276e+01
1.470000e-06	-1.699805e-06	-8.636243e-10	-1.206274e+01	-5.650068e+01
1.480000e-06	-1.655852e-06	-8.562865e-10	-1.175083e+01	-5.614777e+01
1.490000e-06	-1.611769e-06	-8.483111e-10	-1.143799e+01	-5.579323e+01
1.500000e-06	-1.567651e-06	-8.411178e-10	-1.112491e+01	-5.543593e+01
1.510000e-06	-1.523480e-06	-8.401125e-10	-1.081145e+01	-5.507448e+01
1.520000e-06	-1.479267e-06	-8.403327e-10	-1.049769e+01	-5.470731e+01
1.530000e-06	-1.435001e-06	-8.364743e-10	-1.018355e+01	-5.433268e+01
1.540000e-06	-1.390668e-06	-8.283387e-10	-9.868940e+00	-5.394879e+01
1.550000e-06	-1.346206e-06	-8.186451e-10	-9.553414e+00	-5.355391e+01
1.560000e-06	-1.301672e-06	-8.081767e-10	-9.237378e+00	-5.314637e+01
1.570000e-06	-1.257112e-06	-7.992180e-10	-8.921155e+00	-5.272476e+01
1.580000e-06	-1.212527e-06	-7.920062e-10	-8.604755e+00	-5.228792e+01
1.590000e-06	-1.167814e-06	-7.876437e-10	-8.287447e+00	-5.183502e+01
1.600000e-06	-1.122907e-06	-7.829658e-10	-7.968761e+00	-5.136564e+01
1.610000e-06	-1.077960e-06	-7.766107e-10	-7.649792e+00	-5.087976e+01
1.620000e-06	-1.032961e-06	-7.675491e-10	-7.330455e+00	-5.037775e+01
1.630000e-06	-9.878726e-07	-7.579333e-10	-7.010485e+00	-4.986039e+01
1.640000e-06	-9.427862e-07	-7.494954e-10	-6.690527e+00	-4.932877e+01
1.650000e-06	-8.976300e-07	-7.428247e-10	-6.370074e+00	-4.878425e+01
1.660000e-06	-8.523301e-07	-7.343928e-10	-6.048601e+00	-4.822837e+01
1.670000e-06	-8.069858e-07	-7.254571e-10	-5.726813e+00	-4.766275e+01
1.680000e-06	-7.615626e-07	-7.166110e-10	-5.404465e+00	-4.708899e+01
1.690000e-06	-7.160786e-07	-7.084393e-10	-5.081686e+00	-4.650851e+01
1.700000e-06	-6.705544e-07	-6.996848e-10	-4.758621e+00	-4.592254e+01
1.710000e-06	-6.249461e-07	-6.929513e-10	-4.434960e+00	-4.533192e+01
1.720000e-06	-5.793194e-07	-6.892165e-10	-4.111167e+00	-4.473708e+01
1.730000e-06	-5.337252e-07	-6.847386e-10	-3.787606e+00	-4.413797e+01
1.740000e-06	-4.881074e-07	-6.784951e-10	-3.463877e+00	-4.353402e+01
1.750000e-06	-4.423810e-07	-6.687659e-10	-3.139378e+00	-4.292410e+01
1.760000e-06	-3.965766e-07	-6.556052e-10	-2.814325e+00	-4.230657e+01
1.770000e-06	-3.507798e-07	-6.402459e-10	-2.489326e+00	-4.167934e+01
1.780000e-06	-3.049502e-07	-6.242805e-10	-2.164093e+00	-4.103987e+01
1.790000e-06	-2.590484e-07	-6.122485e-10	-1.838349e+00	-4.038532e+01
1.800000e-06	-2.131525e-07	-6.044395e-10	-1.512647e+00	-3.971264e+01
1.810000e-06	-1.673004e-07	-5.961381e-10	-1.187255e+00	-3.901868e+01
1.820000e-06	-1.214195e-07	-5.853215e-10	-8.616594e-01	-3.830030e+01
1.830000e-06	-7.553836e-08	-5.720996e-10	-5.360616e-01	-3.755454e+01
1.840000e-06	-2.964549e-08	-5.580458e-10	-2.103807e-01	-3.677871e+01
1.850000e-06	1.630086e-08	-5.442520e-10	1.156798e-01	-3.597046e+01
1.860000e-06	6.221888e-08	-5.317604e-10	4.415392e-01	-3.512793e+01
1.870000e-06	1.081152e-07	-5.202263e-10	7.672445e-01	-3.424977e+01
1.880000e-06	1.540046e-07	-5.127047e-10	1.092901e+00	-3.333519e+01
1.890000e-06	1.999359e-07	-5.051490e-10	1.418855e+00	-3.238395e+01
1.900000e-06	2.458710e-07	-4.913356e-10	1.744835e+00	-3.139639e+01
1.910000e-06	2.916268e-07	-4.700281e-10	2.069543e+00	-3.037331e+01
1.920000e-06	3.373775e-07	-4.469479e-10	2.394215e+00	-2.931599e+01
1.930000e-06	3.832409e-07	-4.282499e-10	2.719687e+00	-2.822602e+01
1.940000e-06	4.290356e-07	-4.101776e-10	3.044671e+00	-2.710525e+01
1.950000e-06	4.747696e-07	-3.906672e-10	3.369225e+00	-2.595565e+01
1.960000e-06	5.204954e-07	-3.755858e-10	3.693721e+00	-2.477922e+01
1.970000e-06	5.662263e-07	-3.639524e-10	4.018252e+00	-2.357783e+01
1.980000e-06	6.119085e-07	-3.490413e-10	4.342438e+00	-2.235319e+01
1.990000e-06	6.574781e-07	-3.264914e-10	4.665824e+00	-2.110667e+01
2.000000e-06	7.030229e-07	-2.997247e-10	4.989035e+00	-1.983933e+01
2.010000e-06	7.484743e-07	-2.759329e-10	5.311584e+00	-1.855178e+01
2.020000e-06	7.937675e-07	-2.567606e-10	5.633009e+00	-1.724424e+01
2.030000e-06	8.390162e-07	-2.366262e-10	5.954118e+00	-1.591648e+01
2.040000e-06	8.842241e-07	-2.173973e-10	6.274938e+00	-1.456789e+01
2.050000e-06	9.293549e-07	-1.995738e-10	6.595211e+00	-1.319752e+01
2.060000e-06	9.744716e-07	-1.818526e-10	6.915384e+00	-1.180417e+01
2.070000e-06	1.019526e-06	-1.600101e-10	7.235111e+00	-1.038645e+01
2.080000e-06	1.064453e-06	-1.325509e-10	7.553942e+00	-8.942900e+00
2.090000e-06	1.109334e-06	-1.044912e-10	7.872442e+00	-7.472112e+00
2.100000e-06	1.154152e-06	-7.958700e-11	8.190494e+00	-5.972813e+00
2.110000e-06	1.198856e-06	-5.669346e-11	8.507741e+00	-4.443977e+00
2.120000e-06	1.243455e-06	-3.351910e-11	8.824240e+00	-2.884918e+00
2.130000e-06	1.287914e-06	-1.241684e-11	9.139746e+00	-1.295365e+00
2.140000e-06	1.332284e-06	6.670896e-12	9.454615e+00	3.244816e-01
2.150000e-06	1.376624e-06	2.845561e-11	9.769274e+00	1.973913e+00
2.160000e-06	1.420929e-06	5.607920e-11	1.008369e+01	3.651699e+00
2.170000e-06	1.465164e-06	8.585129e-11	1.039761e+01	5.356099e+00
2.180000e-06	1.509274e-06	1.152981e-10	1.071063e+01	7.084891e+00
2.190000e-06	1.553352e-06	1.445585e-10	1.102343e+01	8.835424e+00
2.200000e-06	1.597366e-06	1.722149e-10	1.133579e+01	1.060469e+01
2.210000e-06	1.641329e-06	1.959962e-10	1.164777e+01	1.238938e+01
2.220000e-06	1.685348e-06	2.177116e-10	1.196015e+01	1.418601e+01
2.230000e-06	1.729281e-06	2.418960e-10	1.227192e+01	1.599099e+01
2.240000e-06	1.773063e-06	2.732117e-10	1.258263e+01	1.780071e+01
2.250000e-06	1.816746e-06	3.060579e-10	1.289262e+01	1.961162e+01
2.260000e-06	1.860340e-06	3.386846e-10	1.320199e+01	2.142034e+01
2.270000e-06	1.903855e-06	3.693442e-10	1.351080e+01	2.322369e+01
2.280000e-06	1.947257e-06	3.962231e-10	1.381880e+01	2.501873e+01
2.290000e-06	1.990502e-06	4.199938e-10	1.412570e+01	2.680282e+01
2.300000e-06	2.033500e-06	4.437482e-10	1.443083e+01	2.857364e+01
2.310000e-06	2.076220e-06	4.669558e-10	1.473400e+01	3.032915e+01
2.320000e-06	2.118705e-06	4.918103e-10	1.503549e+01	3.206760e+01
2.330000e-06	2.160883e-06	5.220559e-10	1.533481e+01	3.378751e+01
2.340000e-06	2.202751e-06	5.523000e-10	1.563193e+01	3.548762e+01
2.350000e-06	2.244326e-06	5.772025e-10	1.592696e+01	3.716687e+01
2.360000e-06	2.285552e-06	6.005063e-10	1.621953e+01	3.882429e+01
2.370000e-06	2.326545e-06	6.266879e-10	1.651044e+01	4.045905e+01
2.380000e-06	2.367346e-06	6.529232e-10	1.679998e+01	4.207034e+01
2.390000e-06	2.407926e-06	6.770672e-10	1.708796e+01	4.365736e+01
2.400000e-06	2.448319e-06	6.996715e-10	1.737461e+01	4.521931e+01
2.410000e-06	2.488619e-06	7.225674e-10	1.766061e+01	4.675535e+01
2.420000e-06	2.528798e-06	7.471233e-10	1.794573e+01	4.826458e+01
2.430000e-06	2.568796e-06	7.745431e-10	1.822958e+01	4.974606e+01
2.440000e-06	2.608681e-06	8.011080e-10	1.851263e+01	5.119883e+01
2.450000e-06	2.648517e-06	8.231535e-10	1.879533e+01	5.262189e+01
2.460000e-06	2.688331e-06	8.435285e-10	1.907787e+01	5.401428e+01
2.470000e-06	2.727965e-06	8.655884e-10	1.935913e+01	5.537504e+01
2.480000e-06	2.767367e-06	8.877762e-10	1.963875e+01	5.670329e+01
2.490000e-06	2.806594e-06	9.059280e-10	1.991713e+01	5.799825e+01
2.500000e-06	2.845598e-06	9.193236e-10	2.019392e+01	5.925925e+01
2.510000e-06	2.884326e-06	9.355158e-10	2.046876e+01	6.048578e+01
2.520000e-06	2.922853e-06	9.595814e-10	2.074216e+01	6.167745e+01
2.530000e-06	2.961228e-06	9.862555e-10	2.101450e+01	6.283407e+01
2.540000e-06	2.999386e-06	1.009255e-09	2.128528e+01	6.395559e+01
2.550000e-06	3.037333e-06	1.028026e-09	2.155458e+01	6.504213e+01
2.560000e-06	3.075151e-06	1.041089e-09	2.182295e+01	6.609394e+01
2.570000e-06	3.112784e-06	1.049934e-09	2.209002e+01	6.711141e+01
2.580000e-06	3.150148e-06	1.058158e-09	2.235518e+01	6.809501e+01
2.590000e-06	3.187369e-06	1.069379e-09	2.261932e+01	6.904529e+01
2.600000e-06	3.224323e-06	1.086818e-09	2.288156e+01	6.996285e+01
2.610000e-06	3.260925e-06	1.110097e-09	2.314131e+01	7.084830e+01
2.620000e-06	3.297384e-06	1.134086e-09	2.340004e+01	7.170226e+01
2.630000e-06	3.333707e-06	1.153250e-09	2.365781e+01	7.252533e+01
2.640000e-06	3.369871e-06	1.165965e-09	2.391445e+01	7.331808e+01
2.650000e-06	3.405880e-06	1.170424e-09	2.416999e+01	7.408104e+01
2.660000e-06	3.441751e-06	1.168210e-09	2.442455e+01	7.481471e+01
2.670000e-06	3.477411e-06	1.167219e-09	2.467761e+01	7.551955e+01
2.680000e-06	3.512857e-06	1.173999e-09	2.492916e+01	7.619601e+01
2.690000e-06	3.548120e-06	1.186981e-09	2.517940e+01	7.684455e+01
2.700000e-06	3.583012e-06	1.202651e-09	2.542702e+01	7.746561e+01
2.710000e-06	3.617421e-06	1.218708e-09	2.567120e+01	7.805970e+01
2.720000e-06	3.651418e-06	1.232747e-09	2.591246e+01	7.862735e+01
2.730000e-06	3.684974e-06	1.243496e-09	2.615060e+01	7.916916e+01
2.740000e-06	3.718084e-06	1.250752e-09	2.638556e+01	7.968579e+01
2.750000e-06	3.750885e-06	1.251499e-09	2.661834e+01	8.017798e+01
2.760000e-06	3.783349e-06	1.251002e-09	2.684872e+01	8.064653e+01
2.770000e-06	3.815523e-06	1.256178e-09	2.707704e+01	8.109231e+01
2.780000e-06	3.847527e-06	1.264816e-09	2.730416e+01	8.151621e+01
2.790000e-06	3.879434e-06	1.274150e-09	2.753059e+01	8.191918e+01
2.800000e-06	3.911193e-06	1.281931e-09	2.775597e+01	8.230213e+01
2.810000e-06	3.942664e-06	1.288738e-09	2.797930e+01	8.266597e+01
2.820000e-06	3.973868e-06	1.293233e-09	2.820074e+01	8.301153e+01
2.830000e-06	4.004856e-06	1.294886e-09	2.842065e+01	8.333959e+01
2.840000e-06	4.035530e-06	1.296567e-09	2.863833e+01	8.365081e+01
2.850000e-06	4.065886e-06	1.298198e-09	2.885375e+01	8.394574e+01
2.860000e-06	4.096059e-06	1.299716e-09	2.906788e+01	8.422481e+01
2.870000e-06	4.126010e-06	1.303130e-09	2.928043e+01	8.448833e+01
2.880000e-06	4.155628e-06	1.307201e-09	2.949061e+01	8.473646e+01
2.890000e-06	4.184922e-06	1.309349e-09	2.969850e+01	8.496931e+01
2.900000e-06	4.213916e-06	1.311095e-09	2.990425e+01	8.518689e+01
