# Temperatura_=_-9.09
# Concentracion g/m^3_=_4090.0
# C_Vs_to_Am_M_A/Vsm_=_65563218390.804596
# pendiente_HvsI_1/m_=_3716.3
# ordenada_HvsI_A/m_=_1297.0
# frecuencia_Hz_=_135074.98341307635

Tiempo_(s)	Campo_(V.s)	Magnetizacion_(V.s)	Campo_(kA/m)	Magnetizacion_(A/m)
0.000000e+00	-5.398794e-06	-1.477026e-09	-3.837651e+01	-9.895790e+01
1.000000e-08	-5.399113e-06	-1.470977e-09	-3.837878e+01	-9.894234e+01
2.000000e-08	-5.399127e-06	-1.462613e-09	-3.837888e+01	-9.890902e+01
3.000000e-08	-5.398866e-06	-1.455159e-09	-3.837702e+01	-9.885888e+01
4.000000e-08	-5.398188e-06	-1.453078e-09	-3.837220e+01	-9.879353e+01
5.000000e-08	-5.396974e-06	-1.457925e-09	-3.836357e+01	-9.871515e+01
6.000000e-08	-5.395253e-06	-1.473525e-09	-3.835134e+01	-9.862653e+01
7.000000e-08	-5.392917e-06	-1.497905e-09	-3.833473e+01	-9.853086e+01
8.000000e-08	-5.390020e-06	-1.487633e-09	-3.831414e+01	-9.843173e+01
9.000000e-08	-5.386692e-06	-1.436811e-09	-3.829049e+01	-9.833288e+01
1.000000e-07	-5.382893e-06	-1.428507e-09	-3.826348e+01	-9.823814e+01
1.100000e-07	-5.378704e-06	-1.471401e-09	-3.823370e+01	-9.815120e+01
1.200000e-07	-5.374310e-06	-1.473792e-09	-3.820247e+01	-9.807551e+01
1.300000e-07	-5.369716e-06	-1.462940e-09	-3.816981e+01	-9.801405e+01
1.400000e-07	-5.364627e-06	-1.439178e-09	-3.813364e+01	-9.796928e+01
1.500000e-07	-5.359066e-06	-1.521841e-09	-3.809411e+01	-9.794294e+01
1.600000e-07	-5.353274e-06	-1.510761e-09	-3.805294e+01	-9.793604e+01
1.700000e-07	-5.347195e-06	-1.459527e-09	-3.800973e+01	-9.794873e+01
1.800000e-07	-5.340643e-06	-1.420406e-09	-3.796316e+01	-9.798033e+01
1.900000e-07	-5.333649e-06	-1.454108e-09	-3.791344e+01	-9.802934e+01
2.000000e-07	-5.326388e-06	-1.479332e-09	-3.786182e+01	-9.809349e+01
2.100000e-07	-5.318920e-06	-1.466467e-09	-3.780874e+01	-9.816981e+01
2.200000e-07	-5.311195e-06	-1.501464e-09	-3.775383e+01	-9.825477e+01
2.300000e-07	-5.303229e-06	-1.527418e-09	-3.769720e+01	-9.834445e+01
2.400000e-07	-5.294993e-06	-1.545944e-09	-3.763866e+01	-9.843463e+01
2.500000e-07	-5.286251e-06	-1.527631e-09	-3.757652e+01	-9.852106e+01
2.600000e-07	-5.276786e-06	-1.555547e-09	-3.750924e+01	-9.859955e+01
2.700000e-07	-5.266566e-06	-1.534329e-09	-3.743659e+01	-9.866618e+01
2.800000e-07	-5.255777e-06	-1.514717e-09	-3.735989e+01	-9.871747e+01
2.900000e-07	-5.244515e-06	-1.499426e-09	-3.727984e+01	-9.875049e+01
3.000000e-07	-5.232914e-06	-1.520371e-09	-3.719738e+01	-9.876297e+01
3.100000e-07	-5.221019e-06	-1.494429e-09	-3.711282e+01	-9.875338e+01
3.200000e-07	-5.208745e-06	-1.489760e-09	-3.702558e+01	-9.872098e+01
3.300000e-07	-5.196034e-06	-1.488002e-09	-3.693523e+01	-9.866581e+01
3.400000e-07	-5.182917e-06	-1.498282e-09	-3.684198e+01	-9.858865e+01
3.500000e-07	-5.169471e-06	-1.498176e-09	-3.674640e+01	-9.849097e+01
3.600000e-07	-5.155652e-06	-1.509692e-09	-3.664817e+01	-9.837482e+01
3.700000e-07	-5.141384e-06	-1.481843e-09	-3.654675e+01	-9.824270e+01
3.800000e-07	-5.126522e-06	-1.470600e-09	-3.644110e+01	-9.809744e+01
3.900000e-07	-5.111045e-06	-1.480828e-09	-3.633109e+01	-9.794204e+01
4.000000e-07	-5.095052e-06	-1.485919e-09	-3.621741e+01	-9.777950e+01
4.100000e-07	-5.078603e-06	-1.461484e-09	-3.610048e+01	-9.761270e+01
4.200000e-07	-5.061858e-06	-1.467661e-09	-3.598146e+01	-9.744426e+01
4.300000e-07	-5.044817e-06	-1.486220e-09	-3.586032e+01	-9.727637e+01
4.400000e-07	-5.027414e-06	-1.484155e-09	-3.573661e+01	-9.711079e+01
4.500000e-07	-5.009687e-06	-1.484190e-09	-3.561060e+01	-9.694871e+01
4.600000e-07	-4.991581e-06	-1.472636e-09	-3.548190e+01	-9.679075e+01
4.700000e-07	-4.973137e-06	-1.461051e-09	-3.535079e+01	-9.663698e+01
4.800000e-07	-4.954505e-06	-1.461660e-09	-3.521835e+01	-9.648689e+01
4.900000e-07	-4.935551e-06	-1.470813e-09	-3.508362e+01	-9.633952e+01
5.000000e-07	-4.916200e-06	-1.440224e-09	-3.494607e+01	-9.619350e+01
5.100000e-07	-4.896629e-06	-1.441727e-09	-3.480695e+01	-9.604718e+01
5.200000e-07	-4.876897e-06	-1.462229e-09	-3.466669e+01	-9.589870e+01
5.300000e-07	-4.856908e-06	-1.465972e-09	-3.452459e+01	-9.574619e+01
5.400000e-07	-4.836594e-06	-1.443063e-09	-3.438020e+01	-9.558780e+01
5.500000e-07	-4.815945e-06	-1.455922e-09	-3.423342e+01	-9.542190e+01
5.600000e-07	-4.794885e-06	-1.452620e-09	-3.408372e+01	-9.524712e+01
5.700000e-07	-4.773487e-06	-1.444167e-09	-3.393161e+01	-9.506244e+01
5.800000e-07	-4.751880e-06	-1.434434e-09	-3.377802e+01	-9.486727e+01
5.900000e-07	-4.729956e-06	-1.429986e-09	-3.362217e+01	-9.466147e+01
6.000000e-07	-4.707666e-06	-1.418911e-09	-3.346373e+01	-9.444535e+01
6.100000e-07	-4.685059e-06	-1.438840e-09	-3.330303e+01	-9.421966e+01
6.200000e-07	-4.662094e-06	-1.442928e-09	-3.313979e+01	-9.398552e+01
6.300000e-07	-4.638824e-06	-1.430260e-09	-3.297438e+01	-9.374439e+01
6.400000e-07	-4.615304e-06	-1.426242e-09	-3.280719e+01	-9.349794e+01
6.500000e-07	-4.591527e-06	-1.439180e-09	-3.263817e+01	-9.324798e+01
6.600000e-07	-4.567524e-06	-1.429486e-09	-3.246756e+01	-9.299636e+01
6.700000e-07	-4.543293e-06	-1.416319e-09	-3.229531e+01	-9.274486e+01
6.800000e-07	-4.518639e-06	-1.410002e-09	-3.212006e+01	-9.249507e+01
6.900000e-07	-4.493434e-06	-1.411094e-09	-3.194090e+01	-9.224835e+01
7.000000e-07	-4.467653e-06	-1.412243e-09	-3.175764e+01	-9.200573e+01
7.100000e-07	-4.441351e-06	-1.408887e-09	-3.157067e+01	-9.176783e+01
7.200000e-07	-4.414606e-06	-1.401577e-09	-3.138056e+01	-9.153491e+01
7.300000e-07	-4.387472e-06	-1.403460e-09	-3.118768e+01	-9.130679e+01
7.400000e-07	-4.360070e-06	-1.411519e-09	-3.099290e+01	-9.108290e+01
7.500000e-07	-4.332466e-06	-1.404145e-09	-3.079668e+01	-9.086232e+01
7.600000e-07	-4.304708e-06	-1.394913e-09	-3.059937e+01	-9.064384e+01
7.700000e-07	-4.276749e-06	-1.391273e-09	-3.040062e+01	-9.042603e+01
7.800000e-07	-4.248486e-06	-1.393698e-09	-3.019972e+01	-9.020729e+01
7.900000e-07	-4.219934e-06	-1.386656e-09	-2.999676e+01	-8.998603e+01
8.000000e-07	-4.191078e-06	-1.379561e-09	-2.979164e+01	-8.976064e+01
8.100000e-07	-4.161884e-06	-1.372442e-09	-2.958412e+01	-8.952970e+01
8.200000e-07	-4.132369e-06	-1.376785e-09	-2.937432e+01	-8.929195e+01
8.300000e-07	-4.102626e-06	-1.374104e-09	-2.916289e+01	-8.904641e+01
8.400000e-07	-4.072605e-06	-1.366210e-09	-2.894950e+01	-8.879242e+01
8.500000e-07	-4.042373e-06	-1.356070e-09	-2.873460e+01	-8.852965e+01
8.600000e-07	-4.011966e-06	-1.359999e-09	-2.851845e+01	-8.825813e+01
8.700000e-07	-3.981258e-06	-1.361285e-09	-2.830017e+01	-8.797820e+01
8.800000e-07	-3.950227e-06	-1.356305e-09	-2.807959e+01	-8.769052e+01
8.900000e-07	-3.918900e-06	-1.341893e-09	-2.785691e+01	-8.739597e+01
9.000000e-07	-3.887415e-06	-1.336993e-09	-2.763310e+01	-8.709563e+01
9.100000e-07	-3.855756e-06	-1.333280e-09	-2.740806e+01	-8.679072e+01
9.200000e-07	-3.823898e-06	-1.329157e-09	-2.718160e+01	-8.648245e+01
9.300000e-07	-3.791837e-06	-1.321958e-09	-2.695370e+01	-8.617203e+01
9.400000e-07	-3.759493e-06	-1.323053e-09	-2.672379e+01	-8.586053e+01
9.500000e-07	-3.726832e-06	-1.326824e-09	-2.649162e+01	-8.554888e+01
9.600000e-07	-3.693864e-06	-1.327686e-09	-2.625727e+01	-8.523776e+01
9.700000e-07	-3.660518e-06	-1.317962e-09	-2.602024e+01	-8.492757e+01
9.800000e-07	-3.626607e-06	-1.306036e-09	-2.577919e+01	-8.461847e+01
9.900000e-07	-3.592187e-06	-1.299765e-09	-2.553452e+01	-8.431028e+01
1.000000e-06	-3.557457e-06	-1.296757e-09	-2.528764e+01	-8.400258e+01
1.010000e-06	-3.522450e-06	-1.291037e-09	-2.503880e+01	-8.369470e+01
1.020000e-06	-3.487178e-06	-1.286184e-09	-2.478808e+01	-8.338574e+01
1.030000e-06	-3.451694e-06	-1.285560e-09	-2.453585e+01	-8.307468e+01
1.040000e-06	-3.416049e-06	-1.284673e-09	-2.428247e+01	-8.276040e+01
1.050000e-06	-3.380257e-06	-1.279591e-09	-2.402804e+01	-8.244173e+01
1.060000e-06	-3.344304e-06	-1.268442e-09	-2.377248e+01	-8.211757e+01
1.070000e-06	-3.308163e-06	-1.261244e-09	-2.351558e+01	-8.178691e+01
1.080000e-06	-3.271826e-06	-1.256241e-09	-2.325728e+01	-8.144888e+01
1.090000e-06	-3.235252e-06	-1.251339e-09	-2.299730e+01	-8.110280e+01
1.100000e-06	-3.198400e-06	-1.244507e-09	-2.273535e+01	-8.074822e+01
1.110000e-06	-3.161310e-06	-1.242031e-09	-2.247170e+01	-8.038491e+01
1.120000e-06	-3.123989e-06	-1.239385e-09	-2.220641e+01	-8.001288e+01
1.130000e-06	-3.086382e-06	-1.235658e-09	-2.193908e+01	-7.963237e+01
1.140000e-06	-3.048469e-06	-1.226443e-09	-2.166958e+01	-7.924382e+01
1.150000e-06	-3.010408e-06	-1.220967e-09	-2.139903e+01	-7.884780e+01
1.160000e-06	-2.972261e-06	-1.217049e-09	-2.112787e+01	-7.844503e+01
1.170000e-06	-2.934034e-06	-1.214310e-09	-2.085614e+01	-7.803628e+01
1.180000e-06	-2.895688e-06	-1.205812e-09	-2.058356e+01	-7.762234e+01
1.190000e-06	-2.857117e-06	-1.196548e-09	-2.030939e+01	-7.720396e+01
1.200000e-06	-2.818322e-06	-1.190107e-09	-2.003362e+01	-7.678183e+01
1.210000e-06	-2.779222e-06	-1.187623e-09	-1.975568e+01	-7.635650e+01
1.220000e-06	-2.739863e-06	-1.182693e-09	-1.947590e+01	-7.592841e+01
1.230000e-06	-2.700377e-06	-1.177052e-09	-1.919522e+01	-7.549781e+01
1.240000e-06	-2.660783e-06	-1.171054e-09	-1.891378e+01	-7.506481e+01
1.250000e-06	-2.621080e-06	-1.168017e-09	-1.863155e+01	-7.462935e+01
1.260000e-06	-2.581261e-06	-1.163918e-09	-1.834850e+01	-7.419124e+01
1.270000e-06	-2.541336e-06	-1.154668e-09	-1.806471e+01	-7.375018e+01
1.280000e-06	-2.501281e-06	-1.143921e-09	-1.777998e+01	-7.330577e+01
1.290000e-06	-2.460969e-06	-1.136707e-09	-1.749343e+01	-7.285758e+01
1.300000e-06	-2.420454e-06	-1.131924e-09	-1.720543e+01	-7.240518e+01
1.310000e-06	-2.379862e-06	-1.126314e-09	-1.691689e+01	-7.194817e+01
1.320000e-06	-2.339107e-06	-1.119023e-09	-1.662719e+01	-7.148621e+01
1.330000e-06	-2.298124e-06	-1.112863e-09	-1.633587e+01	-7.101906e+01
1.340000e-06	-2.256916e-06	-1.108641e-09	-1.604294e+01	-7.054661e+01
1.350000e-06	-2.215326e-06	-1.105128e-09	-1.574731e+01	-7.006885e+01
1.360000e-06	-2.173423e-06	-1.099148e-09	-1.544945e+01	-6.958592e+01
1.370000e-06	-2.131364e-06	-1.090241e-09	-1.515048e+01	-6.909805e+01
1.380000e-06	-2.088984e-06	-1.083765e-09	-1.484923e+01	-6.860558e+01
1.390000e-06	-2.046291e-06	-1.077582e-09	-1.454575e+01	-6.810890e+01
1.400000e-06	-2.003440e-06	-1.071297e-09	-1.424115e+01	-6.760845e+01
1.410000e-06	-1.960411e-06	-1.062871e-09	-1.393529e+01	-6.710464e+01
1.420000e-06	-1.917208e-06	-1.056043e-09	-1.362819e+01	-6.659786e+01
1.430000e-06	-1.873958e-06	-1.051380e-09	-1.332075e+01	-6.608838e+01
1.440000e-06	-1.830626e-06	-1.045666e-09	-1.301273e+01	-6.557639e+01
1.450000e-06	-1.787150e-06	-1.035918e-09	-1.270369e+01	-6.506190e+01
1.460000e-06	-1.743600e-06	-1.026138e-09	-1.239412e+01	-6.454479e+01
1.470000e-06	-1.699919e-06	-1.018107e-09	-1.208362e+01	-6.402475e+01
1.480000e-06	-1.656112e-06	-1.011095e-09	-1.177222e+01	-6.350131e+01
1.490000e-06	-1.612264e-06	-1.003078e-09	-1.146053e+01	-6.297386e+01
1.500000e-06	-1.568391e-06	-9.955547e-10	-1.114867e+01	-6.244165e+01
1.510000e-06	-1.524424e-06	-9.884561e-10	-1.083614e+01	-6.190385e+01
1.520000e-06	-1.480345e-06	-9.827834e-10	-1.052281e+01	-6.135957e+01
1.530000e-06	-1.436260e-06	-9.727459e-10	-1.020944e+01	-6.080793e+01
1.540000e-06	-1.392119e-06	-9.597064e-10	-9.895668e+00	-6.024809e+01
1.550000e-06	-1.347921e-06	-9.466274e-10	-9.581489e+00	-5.967930e+01
1.560000e-06	-1.303621e-06	-9.349050e-10	-9.266592e+00	-5.910093e+01
1.570000e-06	-1.259218e-06	-9.228788e-10	-8.950958e+00	-5.851253e+01
1.580000e-06	-1.214745e-06	-9.136118e-10	-8.634834e+00	-5.791385e+01
1.590000e-06	-1.170120e-06	-9.054120e-10	-8.317622e+00	-5.730483e+01
1.600000e-06	-1.125360e-06	-8.974431e-10	-7.999448e+00	-5.668562e+01
1.610000e-06	-1.080445e-06	-8.898517e-10	-7.680180e+00	-5.605659e+01
1.620000e-06	-1.035468e-06	-8.775916e-10	-7.360468e+00	-5.541828e+01
1.630000e-06	-9.905213e-07	-8.626988e-10	-7.040971e+00	-5.477135e+01
1.640000e-06	-9.455001e-07	-8.494375e-10	-6.720944e+00	-5.411658e+01
1.650000e-06	-9.003494e-07	-8.396155e-10	-6.399998e+00	-5.345481e+01
1.660000e-06	-8.551437e-07	-8.319226e-10	-6.078659e+00	-5.278686e+01
1.670000e-06	-8.099089e-07	-8.243908e-10	-5.757115e+00	-5.211348e+01
1.680000e-06	-7.645198e-07	-8.170224e-10	-5.434473e+00	-5.143532e+01
1.690000e-06	-7.190299e-07	-8.071431e-10	-5.111115e+00	-5.075288e+01
1.700000e-06	-6.735455e-07	-7.922491e-10	-4.787797e+00	-5.006643e+01
1.710000e-06	-6.279968e-07	-7.767306e-10	-4.464020e+00	-4.937605e+01
1.720000e-06	-5.824752e-07	-7.654594e-10	-4.140437e+00	-4.868153e+01
1.730000e-06	-5.369205e-07	-7.570592e-10	-3.816618e+00	-4.798245e+01
1.740000e-06	-4.913161e-07	-7.462068e-10	-3.492446e+00	-4.727813e+01
1.750000e-06	-4.457189e-07	-7.349946e-10	-3.168325e+00	-4.656769e+01
1.760000e-06	-4.000447e-07	-7.226809e-10	-2.843658e+00	-4.585007e+01
1.770000e-06	-3.542783e-07	-7.096889e-10	-2.518334e+00	-4.512407e+01
1.780000e-06	-3.085049e-07	-6.956807e-10	-2.192961e+00	-4.438843e+01
1.790000e-06	-2.628332e-07	-6.831905e-10	-1.868310e+00	-4.364187e+01
1.800000e-06	-2.171058e-07	-6.721029e-10	-1.543264e+00	-4.288313e+01
1.810000e-06	-1.712524e-07	-6.627945e-10	-1.217322e+00	-4.211108e+01
1.820000e-06	-1.254171e-07	-6.559765e-10	-8.915083e-01	-4.132471e+01
1.830000e-06	-7.960701e-08	-6.468270e-10	-5.658744e-01	-4.052321e+01
1.840000e-06	-3.383817e-08	-6.316378e-10	-2.405335e-01	-3.970600e+01
1.850000e-06	1.190907e-08	-6.154988e-10	8.465384e-02	-3.887274e+01
1.860000e-06	5.770575e-08	-6.031979e-10	4.101926e-01	-3.802334e+01
1.870000e-06	1.035616e-07	-5.931644e-10	7.361523e-01	-3.715796e+01
1.880000e-06	1.494259e-07	-5.821058e-10	1.062171e+00	-3.627695e+01
1.890000e-06	1.951641e-07	-5.701759e-10	1.387294e+00	-3.538090e+01
1.900000e-06	2.408161e-07	-5.568271e-10	1.711805e+00	-3.447052e+01
1.910000e-06	2.865454e-07	-5.399638e-10	2.036864e+00	-3.354661e+01
1.920000e-06	3.322854e-07	-5.221472e-10	2.362001e+00	-3.261006e+01
1.930000e-06	3.779521e-07	-5.060596e-10	2.686615e+00	-3.166173e+01
1.940000e-06	4.235752e-07	-4.907138e-10	3.010920e+00	-3.070241e+01
1.950000e-06	4.691646e-07	-4.754713e-10	3.334986e+00	-2.973284e+01
1.960000e-06	5.147949e-07	-4.602876e-10	3.659342e+00	-2.875360e+01
1.970000e-06	5.603916e-07	-4.468309e-10	3.983459e+00	-2.776509e+01
1.980000e-06	6.059073e-07	-4.327998e-10	4.307001e+00	-2.676758e+01
1.990000e-06	6.514442e-07	-4.170172e-10	4.630693e+00	-2.576113e+01
2.000000e-06	6.969303e-07	-3.993160e-10	4.954024e+00	-2.474565e+01
2.010000e-06	7.422921e-07	-3.801641e-10	5.276471e+00	-2.372090e+01
2.020000e-06	7.876409e-07	-3.663775e-10	5.598826e+00	-2.268652e+01
2.030000e-06	8.329680e-07	-3.550839e-10	5.921027e+00	-2.164210e+01
2.040000e-06	8.781997e-07	-3.402819e-10	6.242550e+00	-2.058718e+01
2.050000e-06	9.233791e-07	-3.210796e-10	6.563701e+00	-1.952131e+01
2.060000e-06	9.684972e-07	-3.012885e-10	6.884416e+00	-1.844413e+01
2.070000e-06	1.013443e-06	-2.829281e-10	7.203907e+00	-1.735535e+01
2.080000e-06	1.058302e-06	-2.650264e-10	7.522781e+00	-1.625485e+01
2.090000e-06	1.103124e-06	-2.459343e-10	7.841391e+00	-1.514263e+01
2.100000e-06	1.147866e-06	-2.286287e-10	8.159435e+00	-1.401890e+01
2.110000e-06	1.192546e-06	-2.146785e-10	8.477033e+00	-1.288403e+01
2.120000e-06	1.237120e-06	-1.998114e-10	8.793879e+00	-1.173855e+01
2.130000e-06	1.281605e-06	-1.810741e-10	9.110094e+00	-1.058317e+01
2.140000e-06	1.325956e-06	-1.606567e-10	9.425360e+00	-9.418660e+00
2.150000e-06	1.370209e-06	-1.406008e-10	9.739922e+00	-8.245906e+00
2.160000e-06	1.414404e-06	-1.204813e-10	1.005407e+01	-7.065803e+00
2.170000e-06	1.458522e-06	-1.016313e-10	1.036768e+01	-5.879225e+00
2.180000e-06	1.502540e-06	-8.347909e-11	1.068058e+01	-4.686978e+00
2.190000e-06	1.546429e-06	-6.631926e-11	1.099256e+01	-3.489752e+00
2.200000e-06	1.590279e-06	-4.956333e-11	1.130426e+01	-2.288087e+00
2.210000e-06	1.634087e-06	-3.094283e-11	1.161566e+01	-1.082337e+00
2.220000e-06	1.677863e-06	-1.083410e-11	1.192684e+01	1.273388e-01
2.230000e-06	1.721615e-06	9.800302e-12	1.223784e+01	1.340987e+00
2.240000e-06	1.765259e-06	3.148713e-11	1.254808e+01	2.558848e+00
2.250000e-06	1.808795e-06	5.479210e-11	1.285754e+01	3.781335e+00
2.260000e-06	1.852255e-06	7.689278e-11	1.316647e+01	5.008996e+00
2.270000e-06	1.895686e-06	9.557051e-11	1.347519e+01	6.242475e+00
2.280000e-06	1.939025e-06	1.130681e-10	1.378327e+01	7.482453e+00
2.290000e-06	1.982173e-06	1.333668e-10	1.408997e+01	8.729590e+00
2.300000e-06	2.025149e-06	1.551350e-10	1.439546e+01	9.984467e+00
2.310000e-06	2.067942e-06	1.732590e-10	1.469965e+01	1.124753e+01
2.320000e-06	2.110507e-06	1.897186e-10	1.500222e+01	1.251902e+01
2.330000e-06	2.152850e-06	2.101132e-10	1.530321e+01	1.379896e+01
2.340000e-06	2.194898e-06	2.346347e-10	1.560210e+01	1.508709e+01
2.350000e-06	2.236561e-06	2.567149e-10	1.589825e+01	1.638286e+01
2.360000e-06	2.277844e-06	2.741166e-10	1.619171e+01	1.768543e+01
2.370000e-06	2.318870e-06	2.922868e-10	1.648334e+01	1.899366e+01
2.380000e-06	2.359744e-06	3.148049e-10	1.677389e+01	2.030617e+01
2.390000e-06	2.400302e-06	3.368077e-10	1.706218e+01	2.162135e+01
2.400000e-06	2.440558e-06	3.539229e-10	1.734834e+01	2.293742e+01
2.410000e-06	2.480654e-06	3.696570e-10	1.763336e+01	2.425250e+01
2.420000e-06	2.520660e-06	3.897076e-10	1.791773e+01	2.556466e+01
2.430000e-06	2.560585e-06	4.150483e-10	1.820153e+01	2.687202e+01
2.440000e-06	2.600365e-06	4.386155e-10	1.848430e+01	2.817279e+01
2.450000e-06	2.640071e-06	4.572453e-10	1.876655e+01	2.946535e+01
2.460000e-06	2.679693e-06	4.768587e-10	1.904819e+01	3.074828e+01
2.470000e-06	2.719155e-06	5.002025e-10	1.932870e+01	3.202047e+01
2.480000e-06	2.758494e-06	5.211199e-10	1.960834e+01	3.328107e+01
2.490000e-06	2.797670e-06	5.362707e-10	1.988682e+01	3.452956e+01
2.500000e-06	2.836657e-06	5.513890e-10	2.016395e+01	3.576573e+01
2.510000e-06	2.875458e-06	5.722982e-10	2.043976e+01	3.698965e+01
2.520000e-06	2.913987e-06	5.965421e-10	2.071364e+01	3.820169e+01
2.530000e-06	2.952299e-06	6.214408e-10	2.098597e+01	3.940240e+01
2.540000e-06	2.990417e-06	6.463231e-10	2.125693e+01	4.059253e+01
2.550000e-06	3.028370e-06	6.671570e-10	2.152671e+01	4.177289e+01
2.560000e-06	3.066166e-06	6.815929e-10	2.179538e+01	4.294435e+01
2.570000e-06	3.103696e-06	6.908565e-10	2.206216e+01	4.410776e+01
2.580000e-06	3.141013e-06	6.996410e-10	2.232742e+01	4.526384e+01
2.590000e-06	3.178122e-06	7.129678e-10	2.259120e+01	4.641317e+01
2.600000e-06	3.214994e-06	7.328245e-10	2.285330e+01	4.755613e+01
2.610000e-06	3.251582e-06	7.567327e-10	2.311338e+01	4.869287e+01
2.620000e-06	3.287928e-06	7.821756e-10	2.337174e+01	4.982327e+01
2.630000e-06	3.324111e-06	8.068646e-10	2.362894e+01	5.094696e+01
2.640000e-06	3.360072e-06	8.242343e-10	2.388457e+01	5.206331e+01
2.650000e-06	3.395871e-06	8.326438e-10	2.413903e+01	5.317145e+01
2.660000e-06	3.431580e-06	8.375467e-10	2.439286e+01	5.427033e+01
2.670000e-06	3.467173e-06	8.440306e-10	2.464587e+01	5.535873e+01
2.680000e-06	3.502626e-06	8.578133e-10	2.489789e+01	5.643536e+01
2.690000e-06	3.537868e-06	8.776085e-10	2.514840e+01	5.749884e+01
2.700000e-06	3.572767e-06	9.008947e-10	2.539647e+01	5.854786e+01
2.710000e-06	3.607314e-06	9.255693e-10	2.564204e+01	5.958113e+01
2.720000e-06	3.641537e-06	9.486051e-10	2.588531e+01	6.059751e+01
2.730000e-06	3.675268e-06	9.659987e-10	2.612509e+01	6.159602e+01
2.740000e-06	3.708405e-06	9.768609e-10	2.636064e+01	6.257585e+01
2.750000e-06	3.741047e-06	9.861879e-10	2.659267e+01	6.353643e+01
2.760000e-06	3.773388e-06	9.968260e-10	2.682255e+01	6.447737e+01
2.770000e-06	3.805482e-06	1.009616e-09	2.705069e+01	6.539853e+01
2.780000e-06	3.837362e-06	1.024998e-09	2.727731e+01	6.629996e+01
2.790000e-06	3.869136e-06	1.042589e-09	2.750317e+01	6.718186e+01
2.800000e-06	3.900822e-06	1.058059e-09	2.772841e+01	6.804458e+01
2.810000e-06	3.932319e-06	1.070364e-09	2.795229e+01	6.888858e+01
2.820000e-06	3.963543e-06	1.079786e-09	2.817425e+01	6.971437e+01
2.830000e-06	3.994487e-06	1.088873e-09	2.839421e+01	7.052247e+01
2.840000e-06	4.025140e-06	1.099824e-09	2.861210e+01	7.131338e+01
2.850000e-06	4.055420e-06	1.111960e-09	2.882734e+01	7.208755e+01
2.860000e-06	4.085394e-06	1.123692e-09	2.904040e+01	7.284535e+01
2.870000e-06	4.115169e-06	1.134987e-09	2.925206e+01	7.358706e+01
2.880000e-06	4.144638e-06	1.146644e-09	2.946153e+01	7.431283e+01
2.890000e-06	4.173848e-06	1.157698e-09	2.966917e+01	7.502276e+01
2.900000e-06	4.202834e-06	1.166269e-09	2.987521e+01	7.571682e+01
