# Temperatura_=_6.87
# Concentracion g/m^3_=_4090.0
# C_Vs_to_Am_M_A/Vsm_=_65563218390.804596
# pendiente_HvsI_1/m_=_3716.3
# ordenada_HvsI_A/m_=_1297.0
# frecuencia_Hz_=_135087.11872177187

Tiempo_(s)	Campo_(V.s)	Magnetizacion_(V.s)	Campo_(kA/m)	Magnetizacion_(A/m)
0.000000e+00	-5.396451e-06	-1.280252e-09	-3.838430e+01	-8.781939e+01
1.000000e-08	-5.396661e-06	-1.277160e-09	-3.838579e+01	-8.768373e+01
2.000000e-08	-5.396604e-06	-1.268942e-09	-3.838539e+01	-8.752832e+01
3.000000e-08	-5.396198e-06	-1.257220e-09	-3.838250e+01	-8.735439e+01
4.000000e-08	-5.395305e-06	-1.250328e-09	-3.837615e+01	-8.716411e+01
5.000000e-08	-5.393876e-06	-1.255075e-09	-3.836598e+01	-8.696064e+01
6.000000e-08	-5.391875e-06	-1.279010e-09	-3.835175e+01	-8.674802e+01
7.000000e-08	-5.389265e-06	-1.304701e-09	-3.833319e+01	-8.653107e+01
8.000000e-08	-5.386066e-06	-1.263301e-09	-3.831043e+01	-8.631530e+01
9.000000e-08	-5.382341e-06	-1.162744e-09	-3.828394e+01	-8.610664e+01
1.000000e-07	-5.378252e-06	-1.199267e-09	-3.825485e+01	-8.591131e+01
1.100000e-07	-5.373964e-06	-1.373294e-09	-3.822435e+01	-8.573556e+01
1.200000e-07	-5.369474e-06	-1.318693e-09	-3.819241e+01	-8.558538e+01
1.300000e-07	-5.364667e-06	-1.121150e-09	-3.815823e+01	-8.546633e+01
1.400000e-07	-5.359474e-06	-1.174630e-09	-3.812129e+01	-8.538326e+01
1.500000e-07	-5.353825e-06	-1.428472e-09	-3.808110e+01	-8.534010e+01
1.600000e-07	-5.347757e-06	-1.402146e-09	-3.803795e+01	-8.533969e+01
1.700000e-07	-5.341340e-06	-1.084156e-09	-3.799230e+01	-8.538363e+01
1.800000e-07	-5.334643e-06	-1.144923e-09	-3.794466e+01	-8.547217e+01
1.900000e-07	-5.327655e-06	-1.385973e-09	-3.789496e+01	-8.560421e+01
2.000000e-07	-5.320200e-06	-1.393540e-09	-3.784194e+01	-8.577724e+01
2.100000e-07	-5.312486e-06	-1.188036e-09	-3.778706e+01	-8.598745e+01
2.200000e-07	-5.304703e-06	-1.302062e-09	-3.773171e+01	-8.622986e+01
2.300000e-07	-5.296569e-06	-1.464199e-09	-3.767385e+01	-8.649842e+01
2.400000e-07	-5.287978e-06	-1.370842e-09	-3.761274e+01	-8.678629e+01
2.500000e-07	-5.278940e-06	-1.275681e-09	-3.754846e+01	-8.708602e+01
2.600000e-07	-5.269320e-06	-1.425203e-09	-3.748003e+01	-8.738983e+01
2.700000e-07	-5.259016e-06	-1.466734e-09	-3.740674e+01	-8.768989e+01
2.800000e-07	-5.248257e-06	-1.294844e-09	-3.733022e+01	-8.797855e+01
2.900000e-07	-5.237161e-06	-1.330992e-09	-3.725129e+01	-8.824866e+01
3.000000e-07	-5.225554e-06	-1.492478e-09	-3.716873e+01	-8.849375e+01
3.100000e-07	-5.213413e-06	-1.403427e-09	-3.708237e+01	-8.870825e+01
3.200000e-07	-5.200879e-06	-1.255159e-09	-3.699322e+01	-8.888768e+01
3.300000e-07	-5.187956e-06	-1.401933e-09	-3.690130e+01	-8.902870e+01
3.400000e-07	-5.174688e-06	-1.470867e-09	-3.680693e+01	-8.912927e+01
3.500000e-07	-5.161073e-06	-1.360618e-09	-3.671009e+01	-8.918856e+01
3.600000e-07	-5.147058e-06	-1.341255e-09	-3.661040e+01	-8.920699e+01
3.700000e-07	-5.132653e-06	-1.440016e-09	-3.650793e+01	-8.918614e+01
3.800000e-07	-5.117772e-06	-1.363442e-09	-3.640209e+01	-8.912855e+01
3.900000e-07	-5.102370e-06	-1.336777e-09	-3.629254e+01	-8.903767e+01
4.000000e-07	-5.086313e-06	-1.392398e-09	-3.617833e+01	-8.891756e+01
4.100000e-07	-5.069707e-06	-1.368523e-09	-3.606021e+01	-8.877278e+01
4.200000e-07	-5.052832e-06	-1.300197e-09	-3.594017e+01	-8.860810e+01
4.300000e-07	-5.035658e-06	-1.401369e-09	-3.581802e+01	-8.842832e+01
4.400000e-07	-5.018159e-06	-1.428209e-09	-3.569355e+01	-8.823808e+01
4.500000e-07	-5.000402e-06	-1.335675e-09	-3.556725e+01	-8.804167e+01
4.600000e-07	-4.982330e-06	-1.317371e-09	-3.543871e+01	-8.784289e+01
4.700000e-07	-4.963881e-06	-1.393303e-09	-3.530748e+01	-8.764489e+01
4.800000e-07	-4.944976e-06	-1.364135e-09	-3.517301e+01	-8.745016e+01
4.900000e-07	-4.925793e-06	-1.318711e-09	-3.503657e+01	-8.726043e+01
5.000000e-07	-4.906309e-06	-1.324003e-09	-3.489798e+01	-8.707669e+01
5.100000e-07	-4.886463e-06	-1.340843e-09	-3.475682e+01	-8.689925e+01
5.200000e-07	-4.866454e-06	-1.353229e-09	-3.461450e+01	-8.672775e+01
5.300000e-07	-4.846269e-06	-1.356280e-09	-3.447092e+01	-8.656131e+01
5.400000e-07	-4.825763e-06	-1.319239e-09	-3.432506e+01	-8.639862e+01
5.500000e-07	-4.804935e-06	-1.313800e-09	-3.417692e+01	-8.623807e+01
5.600000e-07	-4.783813e-06	-1.357860e-09	-3.402668e+01	-8.607789e+01
5.700000e-07	-4.762320e-06	-1.351103e-09	-3.387380e+01	-8.591628e+01
5.800000e-07	-4.740509e-06	-1.306654e-09	-3.371867e+01	-8.575155e+01
5.900000e-07	-4.718424e-06	-1.297562e-09	-3.356158e+01	-8.558221e+01
6.000000e-07	-4.695911e-06	-1.321137e-09	-3.340145e+01	-8.540707e+01
6.100000e-07	-4.672987e-06	-1.326645e-09	-3.323839e+01	-8.522531e+01
6.200000e-07	-4.649860e-06	-1.316799e-09	-3.307388e+01	-8.503651e+01
6.300000e-07	-4.626393e-06	-1.288291e-09	-3.290697e+01	-8.484069e+01
6.400000e-07	-4.602607e-06	-1.305837e-09	-3.273778e+01	-8.463825e+01
6.500000e-07	-4.578709e-06	-1.337069e-09	-3.256780e+01	-8.442998e+01
6.600000e-07	-4.554581e-06	-1.327934e-09	-3.239618e+01	-8.421699e+01
6.700000e-07	-4.530121e-06	-1.281069e-09	-3.222220e+01	-8.400059e+01
6.800000e-07	-4.505290e-06	-1.282817e-09	-3.204558e+01	-8.378230e+01
6.900000e-07	-4.479910e-06	-1.294435e-09	-3.186506e+01	-8.356366e+01
7.000000e-07	-4.453956e-06	-1.287775e-09	-3.168045e+01	-8.334619e+01
7.100000e-07	-4.427625e-06	-1.262622e-09	-3.149316e+01	-8.313132e+01
7.200000e-07	-4.400977e-06	-1.267944e-09	-3.130361e+01	-8.292026e+01
7.300000e-07	-4.373792e-06	-1.289270e-09	-3.111025e+01	-8.271397e+01
7.400000e-07	-4.346152e-06	-1.308136e-09	-3.091365e+01	-8.251313e+01
7.500000e-07	-4.318347e-06	-1.286046e-09	-3.071588e+01	-8.231806e+01
7.600000e-07	-4.290423e-06	-1.265744e-09	-3.051726e+01	-8.212878e+01
7.700000e-07	-4.262323e-06	-1.266559e-09	-3.031738e+01	-8.194495e+01
7.800000e-07	-4.233954e-06	-1.274216e-09	-3.011560e+01	-8.176595e+01
7.900000e-07	-4.205309e-06	-1.257825e-09	-2.991185e+01	-8.159091e+01
8.000000e-07	-4.176353e-06	-1.247233e-09	-2.970589e+01	-8.141874e+01
8.100000e-07	-4.147040e-06	-1.252659e-09	-2.949739e+01	-8.124825e+01
8.200000e-07	-4.117451e-06	-1.265208e-09	-2.928693e+01	-8.107813e+01
8.300000e-07	-4.087644e-06	-1.263450e-09	-2.907492e+01	-8.090712e+01
8.400000e-07	-4.057574e-06	-1.248693e-09	-2.886103e+01	-8.073398e+01
8.500000e-07	-4.027180e-06	-1.242244e-09	-2.864484e+01	-8.055760e+01
8.600000e-07	-3.996453e-06	-1.248449e-09	-2.842628e+01	-8.037705e+01
8.700000e-07	-3.965363e-06	-1.249960e-09	-2.820515e+01	-8.019158e+01
8.800000e-07	-3.934046e-06	-1.233962e-09	-2.798239e+01	-8.000067e+01
8.900000e-07	-3.902607e-06	-1.223166e-09	-2.775876e+01	-7.980400e+01
9.000000e-07	-3.871040e-06	-1.225133e-09	-2.753424e+01	-7.960150e+01
9.100000e-07	-3.839281e-06	-1.234113e-09	-2.730834e+01	-7.939330e+01
9.200000e-07	-3.807267e-06	-1.229546e-09	-2.708063e+01	-7.917967e+01
9.300000e-07	-3.775085e-06	-1.227188e-09	-2.685172e+01	-7.896105e+01
9.400000e-07	-3.742678e-06	-1.235996e-09	-2.662121e+01	-7.873797e+01
9.500000e-07	-3.709888e-06	-1.248838e-09	-2.638798e+01	-7.851100e+01
9.600000e-07	-3.676764e-06	-1.240398e-09	-2.615237e+01	-7.828075e+01
9.700000e-07	-3.643321e-06	-1.223219e-09	-2.591450e+01	-7.804777e+01
9.800000e-07	-3.609436e-06	-1.211874e-09	-2.567348e+01	-7.781259e+01
9.900000e-07	-3.575063e-06	-1.213071e-09	-2.542899e+01	-7.757562e+01
1.000000e-06	-3.540232e-06	-1.205933e-09	-2.518124e+01	-7.733721e+01
1.010000e-06	-3.505062e-06	-1.199953e-09	-2.493108e+01	-7.709759e+01
1.020000e-06	-3.469612e-06	-1.202410e-09	-2.467893e+01	-7.685688e+01
1.030000e-06	-3.433967e-06	-1.216824e-09	-2.442539e+01	-7.661511e+01
1.040000e-06	-3.398205e-06	-1.218926e-09	-2.417102e+01	-7.637224e+01
1.050000e-06	-3.362300e-06	-1.207293e-09	-2.391563e+01	-7.612819e+01
1.060000e-06	-3.326236e-06	-1.189654e-09	-2.365911e+01	-7.588282e+01
1.070000e-06	-3.289996e-06	-1.180988e-09	-2.340134e+01	-7.563602e+01
1.080000e-06	-3.253499e-06	-1.173800e-09	-2.314174e+01	-7.538766e+01
1.090000e-06	-3.216828e-06	-1.167361e-09	-2.288090e+01	-7.513769e+01
1.100000e-06	-3.179952e-06	-1.162873e-09	-2.261861e+01	-7.488608e+01
1.110000e-06	-3.142722e-06	-1.168645e-09	-2.235380e+01	-7.463288e+01
1.120000e-06	-3.105259e-06	-1.177395e-09	-2.208733e+01	-7.437821e+01
1.130000e-06	-3.067614e-06	-1.174326e-09	-2.181956e+01	-7.412222e+01
1.140000e-06	-3.029772e-06	-1.161140e-09	-2.155040e+01	-7.386513e+01
1.150000e-06	-2.991789e-06	-1.150528e-09	-2.128023e+01	-7.360718e+01
1.160000e-06	-2.953642e-06	-1.145710e-09	-2.100890e+01	-7.334861e+01
1.170000e-06	-2.915266e-06	-1.139839e-09	-2.073593e+01	-7.308964e+01
1.180000e-06	-2.876642e-06	-1.132347e-09	-2.046120e+01	-7.283043e+01
1.190000e-06	-2.837755e-06	-1.127408e-09	-2.018460e+01	-7.257109e+01
1.200000e-06	-2.798589e-06	-1.132969e-09	-1.990602e+01	-7.231160e+01
1.210000e-06	-2.759296e-06	-1.137727e-09	-1.962654e+01	-7.205187e+01
1.220000e-06	-2.719911e-06	-1.134538e-09	-1.934639e+01	-7.179165e+01
1.230000e-06	-2.680318e-06	-1.125750e-09	-1.906478e+01	-7.153058e+01
1.240000e-06	-2.640575e-06	-1.118686e-09	-1.878209e+01	-7.126819e+01
1.250000e-06	-2.600748e-06	-1.111291e-09	-1.849880e+01	-7.100389e+01
1.260000e-06	-2.560804e-06	-1.104298e-09	-1.821469e+01	-7.073703e+01
1.270000e-06	-2.520786e-06	-1.093621e-09	-1.793004e+01	-7.046689e+01
1.280000e-06	-2.480709e-06	-1.091133e-09	-1.764498e+01	-7.019272e+01
1.290000e-06	-2.440516e-06	-1.091825e-09	-1.735909e+01	-6.991381e+01
1.300000e-06	-2.400122e-06	-1.089864e-09	-1.707177e+01	-6.962948e+01
1.310000e-06	-2.359506e-06	-1.079396e-09	-1.678288e+01	-6.933915e+01
1.320000e-06	-2.318733e-06	-1.071234e-09	-1.649287e+01	-6.904237e+01
1.330000e-06	-2.277710e-06	-1.066374e-09	-1.620107e+01	-6.873879e+01
1.340000e-06	-2.236320e-06	-1.062240e-09	-1.590667e+01	-6.842826e+01
1.350000e-06	-2.194728e-06	-1.056920e-09	-1.561083e+01	-6.811080e+01
1.360000e-06	-2.152876e-06	-1.050530e-09	-1.531315e+01	-6.778656e+01
1.370000e-06	-2.110660e-06	-1.047714e-09	-1.501287e+01	-6.745588e+01
1.380000e-06	-2.068260e-06	-1.043727e-09	-1.471128e+01	-6.711923e+01
1.390000e-06	-2.025639e-06	-1.036260e-09	-1.440813e+01	-6.677717e+01
1.400000e-06	-1.982795e-06	-1.027796e-09	-1.410338e+01	-6.643033e+01
1.410000e-06	-1.939769e-06	-1.018824e-09	-1.379734e+01	-6.607939e+01
1.420000e-06	-1.896520e-06	-1.012712e-09	-1.348972e+01	-6.572500e+01
1.430000e-06	-1.853090e-06	-1.009558e-09	-1.318080e+01	-6.536773e+01
1.440000e-06	-1.809575e-06	-1.007107e-09	-1.287128e+01	-6.500809e+01
1.450000e-06	-1.766032e-06	-1.003679e-09	-1.256157e+01	-6.464641e+01
1.460000e-06	-1.722430e-06	-1.000139e-09	-1.225143e+01	-6.428288e+01
1.470000e-06	-1.678704e-06	-9.967974e-10	-1.194042e+01	-6.391749e+01
1.480000e-06	-1.634838e-06	-9.906655e-10	-1.162840e+01	-6.355005e+01
1.490000e-06	-1.590835e-06	-9.851830e-10	-1.131541e+01	-6.318015e+01
1.500000e-06	-1.546813e-06	-9.804895e-10	-1.100230e+01	-6.280721e+01
1.510000e-06	-1.502773e-06	-9.769922e-10	-1.068904e+01	-6.243048e+01
1.520000e-06	-1.458627e-06	-9.729126e-10	-1.037504e+01	-6.204910e+01
1.530000e-06	-1.414402e-06	-9.657670e-10	-1.006047e+01	-6.166210e+01
1.540000e-06	-1.370126e-06	-9.572844e-10	-9.745538e+00	-6.126845e+01
1.550000e-06	-1.325801e-06	-9.485246e-10	-9.430260e+00	-6.086713e+01
1.560000e-06	-1.281383e-06	-9.388616e-10	-9.114323e+00	-6.045718e+01
1.570000e-06	-1.236849e-06	-9.316072e-10	-8.797554e+00	-6.003768e+01
1.580000e-06	-1.192251e-06	-9.267106e-10	-8.480339e+00	-5.960788e+01
1.590000e-06	-1.147496e-06	-9.235261e-10	-8.162000e+00	-5.916714e+01
1.600000e-06	-1.102596e-06	-9.196832e-10	-7.842629e+00	-5.871501e+01
1.610000e-06	-1.057735e-06	-9.132544e-10	-7.523538e+00	-5.825122e+01
1.620000e-06	-1.012872e-06	-9.043516e-10	-7.204436e+00	-5.777567e+01
1.630000e-06	-9.678566e-07	-8.954720e-10	-6.884246e+00	-5.728843e+01
1.640000e-06	-9.227281e-07	-8.857768e-10	-6.563252e+00	-5.678969e+01
1.650000e-06	-8.775831e-07	-8.776305e-10	-6.242142e+00	-5.627978e+01
1.660000e-06	-8.322580e-07	-8.707841e-10	-5.919750e+00	-5.575905e+01
1.670000e-06	-7.868664e-07	-8.665893e-10	-5.596885e+00	-5.522790e+01
1.680000e-06	-7.414896e-07	-8.633000e-10	-5.274125e+00	-5.468667e+01
1.690000e-06	-6.960126e-07	-8.567191e-10	-4.950653e+00	-5.413565e+01
1.700000e-06	-6.504753e-07	-8.461438e-10	-4.626752e+00	-5.357498e+01
1.710000e-06	-6.049127e-07	-8.347999e-10	-4.302670e+00	-5.300463e+01
1.720000e-06	-5.593728e-07	-8.239253e-10	-3.978751e+00	-5.242440e+01
1.730000e-06	-5.137740e-07	-8.151431e-10	-3.654412e+00	-5.183384e+01
1.740000e-06	-4.680673e-07	-8.068946e-10	-3.329305e+00	-5.123228e+01
1.750000e-06	-4.223271e-07	-7.993805e-10	-3.003961e+00	-5.061882e+01
1.760000e-06	-3.766508e-07	-7.925636e-10	-2.679072e+00	-4.999233e+01
1.770000e-06	-3.310457e-07	-7.823123e-10	-2.354688e+00	-4.935150e+01
1.780000e-06	-2.854136e-07	-7.686005e-10	-2.030112e+00	-4.869484e+01
1.790000e-06	-2.397360e-07	-7.540828e-10	-1.705213e+00	-4.802074e+01
1.800000e-06	-1.939466e-07	-7.399500e-10	-1.379518e+00	-4.732754e+01
1.810000e-06	-1.481377e-07	-7.254439e-10	-1.053686e+00	-4.661351e+01
1.820000e-06	-1.023599e-07	-7.147025e-10	-7.280737e-01	-4.587700e+01
1.830000e-06	-5.657071e-08	-7.055971e-10	-4.023806e-01	-4.511641e+01
1.840000e-06	-1.082882e-08	-6.941939e-10	-7.702405e-02	-4.433025e+01
1.850000e-06	3.490035e-08	-6.809375e-10	2.482419e-01	-4.351723e+01
1.860000e-06	8.059680e-08	-6.677191e-10	5.732752e-01	-4.267621e+01
1.870000e-06	1.263166e-07	-6.553812e-10	8.984743e-01	-4.180631e+01
1.880000e-06	1.721077e-07	-6.420954e-10	1.224181e+00	-4.090683e+01
1.890000e-06	2.178957e-07	-6.254630e-10	1.549865e+00	-3.997732e+01
1.900000e-06	2.636313e-07	-6.052867e-10	1.875177e+00	-3.901754e+01
1.910000e-06	3.093156e-07	-5.862975e-10	2.200124e+00	-3.802745e+01
1.920000e-06	3.550358e-07	-5.700892e-10	2.525326e+00	-3.700718e+01
1.930000e-06	4.007349e-07	-5.509372e-10	2.850379e+00	-3.595696e+01
1.940000e-06	4.463259e-07	-5.307426e-10	3.174662e+00	-3.487717e+01
1.950000e-06	4.918827e-07	-5.132831e-10	3.498701e+00	-3.376821e+01
1.960000e-06	5.374469e-07	-5.011185e-10	3.822794e+00	-3.263050e+01
1.970000e-06	5.829237e-07	-4.861349e-10	4.146265e+00	-3.146448e+01
1.980000e-06	6.283129e-07	-4.644229e-10	4.469113e+00	-3.027049e+01
1.990000e-06	6.737691e-07	-4.402396e-10	4.792437e+00	-2.904884e+01
2.000000e-06	7.192498e-07	-4.184833e-10	5.115936e+00	-2.779972e+01
2.010000e-06	7.645953e-07	-3.984038e-10	5.438473e+00	-2.652322e+01
2.020000e-06	8.098229e-07	-3.770764e-10	5.760171e+00	-2.521934e+01
2.030000e-06	8.549241e-07	-3.549373e-10	6.080971e+00	-2.388796e+01
2.040000e-06	8.999307e-07	-3.342551e-10	6.401097e+00	-2.252889e+01
2.050000e-06	9.449339e-07	-3.156697e-10	6.721200e+00	-2.114186e+01
2.060000e-06	9.898990e-07	-2.943590e-10	7.041031e+00	-1.972656e+01
2.070000e-06	1.034768e-06	-2.688198e-10	7.360176e+00	-1.828265e+01
2.080000e-06	1.079512e-06	-2.410402e-10	7.678436e+00	-1.680983e+01
2.090000e-06	1.124173e-06	-2.170459e-10	7.996103e+00	-1.530779e+01
2.100000e-06	1.168751e-06	-1.950090e-10	8.313183e+00	-1.377635e+01
2.110000e-06	1.213300e-06	-1.703249e-10	8.630057e+00	-1.221536e+01
2.120000e-06	1.257848e-06	-1.445589e-10	8.946917e+00	-1.062485e+01
2.130000e-06	1.302306e-06	-1.222186e-10	9.263144e+00	-9.004932e+00
2.140000e-06	1.346657e-06	-1.015018e-10	9.578604e+00	-7.355901e+00
2.150000e-06	1.390879e-06	-7.742552e-11	9.893153e+00	-5.678200e+00
2.160000e-06	1.434988e-06	-5.164522e-11	1.020689e+01	-3.972442e+00
2.170000e-06	1.479121e-06	-2.605475e-11	1.052081e+01	-2.239409e+00
2.180000e-06	1.523230e-06	-1.938062e-13	1.083455e+01	-4.800524e-01
2.190000e-06	1.567234e-06	2.576774e-11	1.114754e+01	1.304507e+00
2.200000e-06	1.611143e-06	5.353298e-11	1.145986e+01	3.112984e+00
2.210000e-06	1.655007e-06	8.095874e-11	1.177187e+01	4.943932e+00
2.220000e-06	1.698834e-06	1.080692e-10	1.208360e+01	6.795744e+00
2.230000e-06	1.742572e-06	1.364666e-10	1.239471e+01	8.666658e+00
2.240000e-06	1.786220e-06	1.679806e-10	1.270516e+01	1.055476e+01
2.250000e-06	1.829781e-06	2.001883e-10	1.301501e+01	1.245798e+01
2.260000e-06	1.873265e-06	2.291577e-10	1.332431e+01	1.437409e+01
2.270000e-06	1.916613e-06	2.566345e-10	1.363264e+01	1.630072e+01
2.280000e-06	1.959766e-06	2.853710e-10	1.393957e+01	1.823534e+01
2.290000e-06	2.002663e-06	3.154085e-10	1.424470e+01	2.017529e+01
2.300000e-06	2.045419e-06	3.445931e-10	1.454881e+01	2.211775e+01
2.310000e-06	2.087943e-06	3.732607e-10	1.485128e+01	2.405978e+01
2.320000e-06	2.130123e-06	4.028865e-10	1.515130e+01	2.599832e+01
2.330000e-06	2.172059e-06	4.336685e-10	1.544959e+01	2.793022e+01
2.340000e-06	2.213742e-06	4.621824e-10	1.574608e+01	2.985226e+01
2.350000e-06	2.255094e-06	4.885055e-10	1.604021e+01	3.176116e+01
2.360000e-06	2.296039e-06	5.149587e-10	1.633145e+01	3.365366e+01
2.370000e-06	2.336788e-06	5.438166e-10	1.662129e+01	3.552653e+01
2.380000e-06	2.377399e-06	5.734021e-10	1.691015e+01	3.737660e+01
2.390000e-06	2.417807e-06	6.018433e-10	1.719757e+01	3.920085e+01
2.400000e-06	2.458087e-06	6.294652e-10	1.748407e+01	4.099642e+01
2.410000e-06	2.498249e-06	6.565903e-10	1.776974e+01	4.276065e+01
2.420000e-06	2.538283e-06	6.852689e-10	1.805450e+01	4.449116e+01
2.430000e-06	2.578238e-06	7.151401e-10	1.833869e+01	4.618583e+01
2.440000e-06	2.618109e-06	7.428676e-10	1.862229e+01	4.784287e+01
2.450000e-06	2.657836e-06	7.667792e-10	1.890487e+01	4.946084e+01
2.460000e-06	2.697442e-06	7.910522e-10	1.918657e+01	5.103861e+01
2.470000e-06	2.736930e-06	8.126869e-10	1.946745e+01	5.257543e+01
2.480000e-06	2.776184e-06	8.307314e-10	1.974666e+01	5.407086e+01
2.490000e-06	2.815305e-06	8.517262e-10	2.002492e+01	5.552479e+01
2.500000e-06	2.854240e-06	8.763265e-10	2.030186e+01	5.693737e+01
2.510000e-06	2.892870e-06	9.035519e-10	2.057663e+01	5.830901e+01
2.520000e-06	2.931219e-06	9.311179e-10	2.084941e+01	5.964031e+01
2.530000e-06	2.969302e-06	9.555162e-10	2.112028e+01	6.093202e+01
2.540000e-06	3.007285e-06	9.758332e-10	2.139045e+01	6.218501e+01
2.550000e-06	3.045134e-06	9.915757e-10	2.165967e+01	6.340017e+01
2.560000e-06	3.082778e-06	1.003909e-09	2.192743e+01	6.457841e+01
2.570000e-06	3.120227e-06	1.018096e-09	2.219379e+01	6.572061e+01
2.580000e-06	3.157399e-06	1.036120e-09	2.245819e+01	6.682759e+01
2.590000e-06	3.194347e-06	1.056106e-09	2.272100e+01	6.790005e+01
2.600000e-06	3.231111e-06	1.078566e-09	2.298250e+01	6.893860e+01
2.610000e-06	3.267578e-06	1.101918e-09	2.324189e+01	6.994375e+01
2.620000e-06	3.303895e-06	1.122935e-09	2.350020e+01	7.091588e+01
2.630000e-06	3.340068e-06	1.138299e-09	2.375749e+01	7.185530e+01
2.640000e-06	3.376049e-06	1.146114e-09	2.401342e+01	7.276224e+01
2.650000e-06	3.411941e-06	1.150957e-09	2.426872e+01	7.363688e+01
2.660000e-06	3.447766e-06	1.155414e-09	2.452354e+01	7.447941e+01
2.670000e-06	3.483372e-06	1.160758e-09	2.477680e+01	7.529004e+01
2.680000e-06	3.518648e-06	1.170321e-09	2.502771e+01	7.606902e+01
2.690000e-06	3.553623e-06	1.187585e-09	2.527649e+01	7.681670e+01
2.700000e-06	3.588210e-06	1.209207e-09	2.552250e+01	7.753355e+01
2.710000e-06	3.622449e-06	1.228249e-09	2.576604e+01	7.822013e+01
2.720000e-06	3.656388e-06	1.239052e-09	2.600744e+01	7.887718e+01
2.730000e-06	3.689796e-06	1.245557e-09	2.624507e+01	7.950552e+01
2.740000e-06	3.722724e-06	1.249142e-09	2.647928e+01	8.010613e+01
2.750000e-06	3.755334e-06	1.249363e-09	2.671123e+01	8.068009e+01
2.760000e-06	3.787588e-06	1.250159e-09	2.694065e+01	8.122852e+01
2.770000e-06	3.819615e-06	1.255188e-09	2.716846e+01	8.175263e+01
2.780000e-06	3.851539e-06	1.268468e-09	2.739552e+01	8.225359e+01
2.790000e-06	3.883354e-06	1.284143e-09	2.762183e+01	8.273257e+01
2.800000e-06	3.914905e-06	1.292371e-09	2.784624e+01	8.319063e+01
2.810000e-06	3.946200e-06	1.293933e-09	2.806884e+01	8.362875e+01
2.820000e-06	3.977258e-06	1.295886e-09	2.828975e+01	8.404777e+01
2.830000e-06	4.008003e-06	1.299285e-09	2.850844e+01	8.444837e+01
2.840000e-06	4.038490e-06	1.301753e-09	2.872529e+01	8.483106e+01
2.850000e-06	4.068747e-06	1.303274e-09	2.894050e+01	8.519617e+01
2.860000e-06	4.098729e-06	1.307891e-09	2.915376e+01	8.554390e+01
2.870000e-06	4.128376e-06	1.316832e-09	2.936464e+01	8.587428e+01
2.880000e-06	4.157764e-06	1.323781e-09	2.957367e+01	8.618725e+01
2.890000e-06	4.186952e-06	1.322920e-09	2.978128e+01	8.648268e+01
2.900000e-06	4.215821e-06	1.322813e-09	2.998662e+01	8.676041e+01
