# Temperatura_=_17.41
# Concentracion g/m^3_=_4090.0
# C_Vs_to_Am_M_A/Vsm_=_65563218390.804596
# pendiente_HvsI_1/m_=_3716.3
# ordenada_HvsI_A/m_=_1297.0
# frecuencia_Hz_=_135087.46563724466

Tiempo_(s)	Campo_(V.s)	Magnetizacion_(V.s)	Campo_(kA/m)	Magnetizacion_(A/m)
0.000000e+00	-5.412303e-06	-1.296286e-09	-3.838193e+01	-8.814238e+01
1.000000e-08	-5.412440e-06	-1.298238e-09	-3.838290e+01	-8.801509e+01
2.000000e-08	-5.412371e-06	-1.294034e-09	-3.838241e+01	-8.787011e+01
3.000000e-08	-5.412013e-06	-1.282405e-09	-3.837987e+01	-8.770615e+01
4.000000e-08	-5.411214e-06	-1.276455e-09	-3.837420e+01	-8.752283e+01
5.000000e-08	-5.410006e-06	-1.278612e-09	-3.836563e+01	-8.732072e+01
6.000000e-08	-5.408239e-06	-1.294721e-09	-3.835311e+01	-8.710139e+01
7.000000e-08	-5.405809e-06	-1.308945e-09	-3.833587e+01	-8.686747e+01
8.000000e-08	-5.402773e-06	-1.290460e-09	-3.831434e+01	-8.662260e+01
9.000000e-08	-5.399142e-06	-1.232814e-09	-3.828859e+01	-8.637127e+01
1.000000e-07	-5.395036e-06	-1.238946e-09	-3.825947e+01	-8.611879e+01
1.100000e-07	-5.390678e-06	-1.336432e-09	-3.822857e+01	-8.587100e+01
1.200000e-07	-5.386201e-06	-1.327015e-09	-3.819682e+01	-8.563413e+01
1.300000e-07	-5.381426e-06	-1.205063e-09	-3.816296e+01	-8.541450e+01
1.400000e-07	-5.376204e-06	-1.214427e-09	-3.812592e+01	-8.521829e+01
1.500000e-07	-5.370693e-06	-1.358378e-09	-3.808685e+01	-8.505126e+01
1.600000e-07	-5.364915e-06	-1.396317e-09	-3.804587e+01	-8.491851e+01
1.700000e-07	-5.358702e-06	-1.178377e-09	-3.800181e+01	-8.482420e+01
1.800000e-07	-5.352078e-06	-1.147655e-09	-3.795483e+01	-8.477139e+01
1.900000e-07	-5.345120e-06	-1.299224e-09	-3.790549e+01	-8.476188e+01
2.000000e-07	-5.337858e-06	-1.355217e-09	-3.785399e+01	-8.479604e+01
2.100000e-07	-5.330304e-06	-1.213818e-09	-3.780042e+01	-8.487282e+01
2.200000e-07	-5.322534e-06	-1.236338e-09	-3.774532e+01	-8.498974e+01
2.300000e-07	-5.314454e-06	-1.371048e-09	-3.768802e+01	-8.514291e+01
2.400000e-07	-5.305962e-06	-1.346727e-09	-3.762780e+01	-8.532722e+01
2.500000e-07	-5.296900e-06	-1.267932e-09	-3.756353e+01	-8.553645e+01
2.600000e-07	-5.287134e-06	-1.344457e-09	-3.749428e+01	-8.576356e+01
2.700000e-07	-5.276765e-06	-1.421336e-09	-3.742074e+01	-8.600087e+01
2.800000e-07	-5.265832e-06	-1.330263e-09	-3.734321e+01	-8.624042e+01
2.900000e-07	-5.254519e-06	-1.306621e-09	-3.726298e+01	-8.647418e+01
3.000000e-07	-5.242815e-06	-1.402374e-09	-3.717998e+01	-8.669441e+01
3.100000e-07	-5.230632e-06	-1.408750e-09	-3.709359e+01	-8.689390e+01
3.200000e-07	-5.218043e-06	-1.300417e-09	-3.700431e+01	-8.706622e+01
3.300000e-07	-5.205121e-06	-1.354938e-09	-3.691267e+01	-8.720594e+01
3.400000e-07	-5.191924e-06	-1.424324e-09	-3.681908e+01	-8.730881e+01
3.500000e-07	-5.178257e-06	-1.385595e-09	-3.672216e+01	-8.737186e+01
3.600000e-07	-5.164146e-06	-1.340205e-09	-3.662209e+01	-8.739344e+01
3.700000e-07	-5.149657e-06	-1.394430e-09	-3.651934e+01	-8.737327e+01
3.800000e-07	-5.134724e-06	-1.365674e-09	-3.641344e+01	-8.731235e+01
3.900000e-07	-5.119180e-06	-1.331004e-09	-3.630321e+01	-8.721285e+01
4.000000e-07	-5.102987e-06	-1.355158e-09	-3.618838e+01	-8.707797e+01
4.100000e-07	-5.086315e-06	-1.361879e-09	-3.607014e+01	-8.691178e+01
4.200000e-07	-5.069377e-06	-1.308011e-09	-3.595003e+01	-8.671893e+01
4.300000e-07	-5.052286e-06	-1.353801e-09	-3.582883e+01	-8.650449e+01
4.400000e-07	-5.034861e-06	-1.393102e-09	-3.570525e+01	-8.627368e+01
4.500000e-07	-5.017136e-06	-1.344947e-09	-3.557955e+01	-8.603166e+01
4.600000e-07	-4.999122e-06	-1.305056e-09	-3.545181e+01	-8.578328e+01
4.700000e-07	-4.980651e-06	-1.347547e-09	-3.532082e+01	-8.553293e+01
4.800000e-07	-4.961722e-06	-1.340909e-09	-3.518658e+01	-8.528440e+01
4.900000e-07	-4.942456e-06	-1.308413e-09	-3.504996e+01	-8.504070e+01
5.000000e-07	-4.922921e-06	-1.309260e-09	-3.491142e+01	-8.480408e+01
5.100000e-07	-4.903116e-06	-1.319755e-09	-3.477097e+01	-8.457594e+01
5.200000e-07	-4.883054e-06	-1.325117e-09	-3.462870e+01	-8.435687e+01
5.300000e-07	-4.862675e-06	-1.338439e-09	-3.448418e+01	-8.414672e+01
5.400000e-07	-4.842025e-06	-1.323469e-09	-3.433774e+01	-8.394467e+01
5.500000e-07	-4.821053e-06	-1.298881e-09	-3.418901e+01	-8.374934e+01
5.600000e-07	-4.799727e-06	-1.320092e-09	-3.403778e+01	-8.355899e+01
5.700000e-07	-4.778130e-06	-1.327224e-09	-3.388462e+01	-8.337159e+01
5.800000e-07	-4.756184e-06	-1.291844e-09	-3.372898e+01	-8.318501e+01
5.900000e-07	-4.733986e-06	-1.271615e-09	-3.357157e+01	-8.299715e+01
6.000000e-07	-4.711415e-06	-1.294772e-09	-3.341150e+01	-8.280612e+01
6.100000e-07	-4.688468e-06	-1.301941e-09	-3.324877e+01	-8.261026e+01
6.200000e-07	-4.665237e-06	-1.296208e-09	-3.308403e+01	-8.240830e+01
6.300000e-07	-4.641723e-06	-1.281215e-09	-3.291728e+01	-8.219939e+01
6.400000e-07	-4.617925e-06	-1.289157e-09	-3.274851e+01	-8.198311e+01
6.500000e-07	-4.593858e-06	-1.302312e-09	-3.257783e+01	-8.175950e+01
6.600000e-07	-4.569648e-06	-1.305162e-09	-3.240615e+01	-8.152900e+01
6.700000e-07	-4.545190e-06	-1.274925e-09	-3.223270e+01	-8.129240e+01
6.800000e-07	-4.520347e-06	-1.267768e-09	-3.205652e+01	-8.105077e+01
6.900000e-07	-4.494953e-06	-1.275448e-09	-3.187644e+01	-8.080538e+01
7.000000e-07	-4.468952e-06	-1.279858e-09	-3.169205e+01	-8.055758e+01
7.100000e-07	-4.442471e-06	-1.261071e-09	-3.150426e+01	-8.030873e+01
7.200000e-07	-4.415591e-06	-1.258919e-09	-3.131363e+01	-8.006007e+01
7.300000e-07	-4.388282e-06	-1.268757e-09	-3.111997e+01	-7.981271e+01
7.400000e-07	-4.360643e-06	-1.280961e-09	-3.092397e+01	-7.956747e+01
7.500000e-07	-4.332800e-06	-1.267546e-09	-3.072651e+01	-7.932493e+01
7.600000e-07	-4.304851e-06	-1.251101e-09	-3.052831e+01	-7.908533e+01
7.700000e-07	-4.276718e-06	-1.247860e-09	-3.032880e+01	-7.884862e+01
7.800000e-07	-4.248327e-06	-1.255517e-09	-3.012746e+01	-7.861444e+01
7.900000e-07	-4.219693e-06	-1.245678e-09	-2.992440e+01	-7.838218e+01
8.000000e-07	-4.190716e-06	-1.231546e-09	-2.971891e+01	-7.815103e+01
8.100000e-07	-4.161353e-06	-1.230704e-09	-2.951068e+01	-7.792004e+01
8.200000e-07	-4.131726e-06	-1.241022e-09	-2.930057e+01	-7.768820e+01
8.300000e-07	-4.101842e-06	-1.243993e-09	-2.908865e+01	-7.745449e+01
8.400000e-07	-4.071687e-06	-1.231168e-09	-2.887480e+01	-7.721799e+01
8.500000e-07	-4.041216e-06	-1.221182e-09	-2.865872e+01	-7.697791e+01
8.600000e-07	-4.010461e-06	-1.223431e-09	-2.844061e+01	-7.673366e+01
8.700000e-07	-3.979477e-06	-1.227846e-09	-2.822088e+01	-7.648488e+01
8.800000e-07	-3.948198e-06	-1.213831e-09	-2.799907e+01	-7.623144e+01
8.900000e-07	-3.916781e-06	-1.199964e-09	-2.777627e+01	-7.597350e+01
9.000000e-07	-3.885186e-06	-1.194106e-09	-2.755221e+01	-7.571143e+01
9.100000e-07	-3.853362e-06	-1.197788e-09	-2.732653e+01	-7.544582e+01
9.200000e-07	-3.821378e-06	-1.191521e-09	-2.709971e+01	-7.517740e+01
9.300000e-07	-3.789129e-06	-1.185430e-09	-2.687101e+01	-7.490702e+01
9.400000e-07	-3.756569e-06	-1.188581e-09	-2.664011e+01	-7.463557e+01
9.500000e-07	-3.723793e-06	-1.199757e-09	-2.640768e+01	-7.436392e+01
9.600000e-07	-3.690676e-06	-1.197714e-09	-2.617282e+01	-7.409284e+01
9.700000e-07	-3.657061e-06	-1.182251e-09	-2.593444e+01	-7.382297e+01
9.800000e-07	-3.623064e-06	-1.163375e-09	-2.569335e+01	-7.355476e+01
9.900000e-07	-3.588592e-06	-1.157383e-09	-2.544888e+01	-7.328845e+01
1.000000e-06	-3.553553e-06	-1.152425e-09	-2.520040e+01	-7.302402e+01
1.010000e-06	-3.518303e-06	-1.151108e-09	-2.495042e+01	-7.276122e+01
1.020000e-06	-3.482904e-06	-1.152788e-09	-2.469938e+01	-7.249958e+01
1.030000e-06	-3.447301e-06	-1.162837e-09	-2.444690e+01	-7.223842e+01
1.040000e-06	-3.411563e-06	-1.166145e-09	-2.419346e+01	-7.197691e+01
1.050000e-06	-3.375619e-06	-1.156224e-09	-2.393856e+01	-7.171411e+01
1.060000e-06	-3.339483e-06	-1.136910e-09	-2.368230e+01	-7.144903e+01
1.070000e-06	-3.303163e-06	-1.123250e-09	-2.342473e+01	-7.118072e+01
1.080000e-06	-3.266612e-06	-1.113489e-09	-2.316553e+01	-7.090827e+01
1.090000e-06	-3.229896e-06	-1.106898e-09	-2.290515e+01	-7.063091e+01
1.100000e-06	-3.192932e-06	-1.104548e-09	-2.264302e+01	-7.034806e+01
1.110000e-06	-3.155642e-06	-1.108435e-09	-2.237857e+01	-7.005931e+01
1.120000e-06	-3.118121e-06	-1.112240e-09	-2.211249e+01	-6.976452e+01
1.130000e-06	-3.080391e-06	-1.107918e-09	-2.184492e+01	-6.946375e+01
1.140000e-06	-3.042485e-06	-1.098879e-09	-2.157611e+01	-6.915729e+01
1.150000e-06	-3.004405e-06	-1.090512e-09	-2.130606e+01	-6.884561e+01
1.160000e-06	-2.966160e-06	-1.084918e-09	-2.103484e+01	-6.852936e+01
1.170000e-06	-2.927679e-06	-1.077662e-09	-2.076195e+01	-6.820927e+01
1.180000e-06	-2.888968e-06	-1.067943e-09	-2.048743e+01	-6.788614e+01
1.190000e-06	-2.850039e-06	-1.059534e-09	-2.021136e+01	-6.756075e+01
1.200000e-06	-2.810810e-06	-1.058106e-09	-1.993316e+01	-6.723382e+01
1.210000e-06	-2.771392e-06	-1.058724e-09	-1.965362e+01	-6.690595e+01
1.220000e-06	-2.731918e-06	-1.058194e-09	-1.937369e+01	-6.657759e+01
1.230000e-06	-2.692306e-06	-1.052370e-09	-1.909277e+01	-6.624897e+01
1.240000e-06	-2.652534e-06	-1.049411e-09	-1.881073e+01	-6.592011e+01
1.250000e-06	-2.612673e-06	-1.045271e-09	-1.852805e+01	-6.559083e+01
1.260000e-06	-2.572709e-06	-1.037864e-09	-1.824464e+01	-6.526072e+01
1.270000e-06	-2.532649e-06	-1.024709e-09	-1.796055e+01	-6.492920e+01
1.280000e-06	-2.492461e-06	-1.014530e-09	-1.767555e+01	-6.459552e+01
1.290000e-06	-2.452205e-06	-1.010565e-09	-1.739007e+01	-6.425888e+01
1.300000e-06	-2.411804e-06	-1.007471e-09	-1.710357e+01	-6.391840e+01
1.310000e-06	-2.371132e-06	-9.981275e-10	-1.681514e+01	-6.357324e+01
1.320000e-06	-2.330120e-06	-9.933512e-10	-1.652429e+01	-6.322266e+01
1.330000e-06	-2.288819e-06	-9.923299e-10	-1.623140e+01	-6.286604e+01
1.340000e-06	-2.247382e-06	-9.915877e-10	-1.593755e+01	-6.250294e+01
1.350000e-06	-2.205648e-06	-9.870761e-10	-1.564159e+01	-6.213318e+01
1.360000e-06	-2.163505e-06	-9.791546e-10	-1.534272e+01	-6.175678e+01
1.370000e-06	-2.121094e-06	-9.690375e-10	-1.504196e+01	-6.137406e+01
1.380000e-06	-2.078424e-06	-9.601605e-10	-1.473936e+01	-6.098552e+01
1.390000e-06	-2.035431e-06	-9.519301e-10	-1.443447e+01	-6.059193e+01
1.400000e-06	-1.992248e-06	-9.443629e-10	-1.412824e+01	-6.019417e+01
1.410000e-06	-1.948967e-06	-9.390347e-10	-1.382130e+01	-5.979325e+01
1.420000e-06	-1.905572e-06	-9.371251e-10	-1.351357e+01	-5.939024e+01
1.430000e-06	-1.862140e-06	-9.371147e-10	-1.320556e+01	-5.898613e+01
1.440000e-06	-1.818622e-06	-9.347699e-10	-1.289695e+01	-5.858185e+01
1.450000e-06	-1.774939e-06	-9.285104e-10	-1.258717e+01	-5.817810e+01
1.460000e-06	-1.731120e-06	-9.205544e-10	-1.227642e+01	-5.777538e+01
1.470000e-06	-1.687187e-06	-9.125678e-10	-1.196486e+01	-5.737388e+01
1.480000e-06	-1.643223e-06	-9.035928e-10	-1.165309e+01	-5.697343e+01
1.490000e-06	-1.599215e-06	-8.986134e-10	-1.134100e+01	-5.657354e+01
1.500000e-06	-1.555142e-06	-8.968213e-10	-1.102846e+01	-5.617337e+01
1.510000e-06	-1.510973e-06	-8.969959e-10	-1.071523e+01	-5.577173e+01
1.520000e-06	-1.466721e-06	-8.920601e-10	-1.040141e+01	-5.536714e+01
1.530000e-06	-1.422361e-06	-8.810199e-10	-1.008682e+01	-5.495791e+01
1.540000e-06	-1.377942e-06	-8.688049e-10	-9.771822e+00	-5.454216e+01
1.550000e-06	-1.333486e-06	-8.591393e-10	-9.456555e+00	-5.411795e+01
1.560000e-06	-1.288963e-06	-8.497630e-10	-9.140820e+00	-5.368334e+01
1.570000e-06	-1.244346e-06	-8.407946e-10	-8.824411e+00	-5.323648e+01
1.580000e-06	-1.199501e-06	-8.332582e-10	-8.506387e+00	-5.277571e+01
1.590000e-06	-1.154621e-06	-8.294721e-10	-8.188119e+00	-5.229964e+01
1.600000e-06	-1.109672e-06	-8.249361e-10	-7.869361e+00	-5.180718e+01
1.610000e-06	-1.064575e-06	-8.157554e-10	-7.549550e+00	-5.129761e+01
1.620000e-06	-1.019427e-06	-8.040351e-10	-7.229374e+00	-5.077059e+01
1.630000e-06	-9.742771e-07	-7.958430e-10	-6.909190e+00	-5.022618e+01
1.640000e-06	-9.290336e-07	-7.887320e-10	-6.588341e+00	-4.966479e+01
1.650000e-06	-8.836563e-07	-7.819561e-10	-6.266543e+00	-4.908718e+01
1.660000e-06	-8.382973e-07	-7.716949e-10	-5.944875e+00	-4.849436e+01
1.670000e-06	-7.928996e-07	-7.632978e-10	-5.622932e+00	-4.788751e+01
1.680000e-06	-7.474346e-07	-7.571841e-10	-5.300512e+00	-4.726793e+01
1.690000e-06	-7.019723e-07	-7.454512e-10	-4.978111e+00	-4.663688e+01
1.700000e-06	-6.564517e-07	-7.295302e-10	-4.655297e+00	-4.599556e+01
1.710000e-06	-6.108266e-07	-7.176481e-10	-4.331742e+00	-4.534494e+01
1.720000e-06	-5.651195e-07	-7.119145e-10	-4.007605e+00	-4.468570e+01
1.730000e-06	-5.193891e-07	-7.061834e-10	-3.683303e+00	-4.401817e+01
1.740000e-06	-4.736579e-07	-6.962499e-10	-3.358995e+00	-4.334227e+01
1.750000e-06	-4.277755e-07	-6.840865e-10	-3.033616e+00	-4.265745e+01
1.760000e-06	-3.818133e-07	-6.715173e-10	-2.707669e+00	-4.196274e+01
1.770000e-06	-3.358877e-07	-6.559311e-10	-2.381983e+00	-4.125668e+01
1.780000e-06	-2.898958e-07	-6.394077e-10	-2.055827e+00	-4.053745e+01
1.790000e-06	-2.438934e-07	-6.224682e-10	-1.729596e+00	-3.980285e+01
1.800000e-06	-1.979910e-07	-6.088276e-10	-1.404075e+00	-3.905043e+01
1.810000e-06	-1.521002e-07	-5.985716e-10	-1.078635e+00	-3.827757e+01
1.820000e-06	-1.061941e-07	-5.885368e-10	-7.530865e-01	-3.748157e+01
1.830000e-06	-6.039836e-08	-5.765590e-10	-4.283214e-01	-3.665976e+01
1.840000e-06	-1.465354e-08	-5.623637e-10	-1.039171e-01	-3.580962e+01
1.850000e-06	3.118467e-08	-5.469763e-10	2.211494e-01	-3.492888e+01
1.860000e-06	7.711397e-08	-5.324519e-10	5.468620e-01	-3.401556e+01
1.870000e-06	1.229661e-07	-5.196444e-10	8.720270e-01	-3.306810e+01
1.880000e-06	1.688454e-07	-5.091068e-10	1.197385e+00	-3.208537e+01
1.890000e-06	2.148391e-07	-4.960381e-10	1.523554e+00	-3.106671e+01
1.900000e-06	2.607769e-07	-4.797768e-10	1.849327e+00	-3.001194e+01
1.910000e-06	3.067047e-07	-4.612564e-10	2.175029e+00	-2.892132e+01
1.920000e-06	3.525848e-07	-4.411919e-10	2.500393e+00	-2.779551e+01
1.930000e-06	3.983967e-07	-4.207576e-10	2.825273e+00	-2.663555e+01
1.940000e-06	4.441694e-07	-4.017613e-10	3.149875e+00	-2.544273e+01
1.950000e-06	4.899201e-07	-3.823805e-10	3.474320e+00	-2.421852e+01
1.960000e-06	5.356777e-07	-3.644310e-10	3.798816e+00	-2.296452e+01
1.970000e-06	5.813934e-07	-3.472000e-10	4.123014e+00	-2.168228e+01
1.980000e-06	6.270574e-07	-3.268395e-10	4.446845e+00	-2.037331e+01
1.990000e-06	6.726167e-07	-3.046826e-10	4.769933e+00	-1.903894e+01
2.000000e-06	7.180840e-07	-2.833991e-10	5.092370e+00	-1.768027e+01
2.010000e-06	7.635842e-07	-2.625669e-10	5.415039e+00	-1.629814e+01
2.020000e-06	8.090522e-07	-2.405007e-10	5.737480e+00	-1.489308e+01
2.030000e-06	8.543409e-07	-2.177795e-10	6.058650e+00	-1.346533e+01
2.040000e-06	8.995363e-07	-1.950032e-10	6.379158e+00	-1.201483e+01
2.050000e-06	9.447579e-07	-1.741561e-10	6.699852e+00	-1.054130e+01
2.060000e-06	9.899253e-07	-1.543458e-10	7.020161e+00	-9.044241e+00
2.070000e-06	1.034921e-06	-1.318421e-10	7.339255e+00	-7.523047e+00
2.080000e-06	1.079732e-06	-1.047105e-10	7.657038e+00	-5.977063e+00
2.090000e-06	1.124504e-06	-7.654829e-11	7.974543e+00	-4.405675e+00
2.100000e-06	1.169290e-06	-4.909482e-11	8.292146e+00	-2.808400e+00
2.110000e-06	1.213907e-06	-2.282480e-11	8.608552e+00	-1.184964e+00
2.120000e-06	1.258425e-06	3.065424e-12	8.924258e+00	4.646210e-01
2.130000e-06	1.302887e-06	2.677904e-11	9.239562e+00	2.139995e+00
2.140000e-06	1.347310e-06	4.798831e-11	9.554595e+00	3.840408e+00
2.150000e-06	1.391711e-06	7.186161e-11	9.869466e+00	5.564685e+00
2.160000e-06	1.435990e-06	9.959999e-11	1.018348e+01	7.311226e+00
2.170000e-06	1.480210e-06	1.291505e-10	1.049706e+01	9.078008e+00
2.180000e-06	1.524323e-06	1.587287e-10	1.080990e+01	1.086262e+01
2.190000e-06	1.568355e-06	1.875866e-10	1.112216e+01	1.266231e+01
2.200000e-06	1.612356e-06	2.146949e-10	1.143420e+01	1.447404e+01
2.210000e-06	1.656281e-06	2.392256e-10	1.174569e+01	1.629456e+01
2.220000e-06	1.700134e-06	2.654847e-10	1.205668e+01	1.812049e+01
2.230000e-06	1.743918e-06	2.947079e-10	1.236718e+01	1.994840e+01
2.240000e-06	1.787616e-06	3.253630e-10	1.267707e+01	2.177487e+01
2.250000e-06	1.831287e-06	3.527741e-10	1.298677e+01	2.359660e+01
2.260000e-06	1.874998e-06	3.792194e-10	1.329675e+01	2.541044e+01
2.270000e-06	1.918574e-06	4.076216e-10	1.360577e+01	2.721348e+01
2.280000e-06	1.961924e-06	4.359259e-10	1.391319e+01	2.900306e+01
2.290000e-06	2.005110e-06	4.640402e-10	1.421945e+01	3.077679e+01
2.300000e-06	2.048102e-06	4.907233e-10	1.452434e+01	3.253262e+01
2.310000e-06	2.090908e-06	5.166827e-10	1.482790e+01	3.426875e+01
2.320000e-06	2.133470e-06	5.441243e-10	1.512973e+01	3.598369e+01
2.330000e-06	2.175729e-06	5.724216e-10	1.542942e+01	3.767619e+01
2.340000e-06	2.217586e-06	5.968731e-10	1.572625e+01	3.934521e+01
2.350000e-06	2.259093e-06	6.180446e-10	1.602060e+01	4.098991e+01
2.360000e-06	2.300336e-06	6.410964e-10	1.631308e+01	4.260954e+01
2.370000e-06	2.341210e-06	6.681538e-10	1.660294e+01	4.420347e+01
2.380000e-06	2.381875e-06	6.943168e-10	1.689132e+01	4.577112e+01
2.390000e-06	2.422420e-06	7.182572e-10	1.717885e+01	4.731192e+01
2.400000e-06	2.462725e-06	7.409894e-10	1.746468e+01	4.882528e+01
2.410000e-06	2.502891e-06	7.614269e-10	1.774952e+01	5.031061e+01
2.420000e-06	2.542960e-06	7.819889e-10	1.803367e+01	5.176726e+01
2.430000e-06	2.582923e-06	8.060861e-10	1.831707e+01	5.319457e+01
2.440000e-06	2.622804e-06	8.325333e-10	1.859990e+01	5.459185e+01
2.450000e-06	2.662539e-06	8.552094e-10	1.888168e+01	5.595841e+01
2.460000e-06	2.702166e-06	8.762125e-10	1.916270e+01	5.729357e+01
2.470000e-06	2.741747e-06	8.968551e-10	1.944339e+01	5.859672e+01
2.480000e-06	2.781174e-06	9.154977e-10	1.972299e+01	5.986729e+01
2.490000e-06	2.820385e-06	9.332199e-10	2.000106e+01	6.110483e+01
2.500000e-06	2.859377e-06	9.513230e-10	2.027758e+01	6.230900e+01
2.510000e-06	2.898108e-06	9.711481e-10	2.055224e+01	6.347961e+01
2.520000e-06	2.936522e-06	9.938319e-10	2.082466e+01	6.461659e+01
2.530000e-06	2.974691e-06	1.017893e-09	2.109534e+01	6.572005e+01
2.540000e-06	3.012713e-06	1.038103e-09	2.136497e+01	6.679023e+01
2.550000e-06	3.050543e-06	1.051726e-09	2.163325e+01	6.782748e+01
2.560000e-06	3.088189e-06	1.060664e-09	2.190022e+01	6.883229e+01
2.570000e-06	3.125779e-06	1.069880e-09	2.216679e+01	6.980523e+01
2.580000e-06	3.163190e-06	1.080908e-09	2.243210e+01	7.074694e+01
2.590000e-06	3.200272e-06	1.093729e-09	2.269507e+01	7.165808e+01
2.600000e-06	3.237203e-06	1.112368e-09	2.295697e+01	7.253931e+01
2.610000e-06	3.273886e-06	1.135640e-09	2.321711e+01	7.339130e+01
2.620000e-06	3.310252e-06	1.155515e-09	2.347500e+01	7.421465e+01
2.630000e-06	3.346447e-06	1.167621e-09	2.373169e+01	7.500992e+01
2.640000e-06	3.382482e-06	1.174084e-09	2.398723e+01	7.577758e+01
2.650000e-06	3.418399e-06	1.179046e-09	2.424194e+01	7.651806e+01
2.660000e-06	3.454199e-06	1.182567e-09	2.449582e+01	7.723172e+01
2.670000e-06	3.489784e-06	1.186201e-09	2.474817e+01	7.791885e+01
2.680000e-06	3.525235e-06	1.194450e-09	2.499958e+01	7.857974e+01
2.690000e-06	3.560476e-06	1.208957e-09	2.524950e+01	7.921465e+01
2.700000e-06	3.595311e-06	1.224829e-09	2.549653e+01	7.982385e+01
2.710000e-06	3.629689e-06	1.239267e-09	2.574032e+01	8.040766e+01
2.720000e-06	3.663616e-06	1.247930e-09	2.598092e+01	8.096644e+01
2.730000e-06	3.697234e-06	1.252987e-09	2.621933e+01	8.150065e+01
2.740000e-06	3.730403e-06	1.258417e-09	2.645455e+01	8.201082e+01
2.750000e-06	3.763111e-06	1.263718e-09	2.668650e+01	8.249760e+01
2.760000e-06	3.795548e-06	1.269427e-09	2.691653e+01	8.296171e+01
2.770000e-06	3.827715e-06	1.274342e-09	2.714465e+01	8.340399e+01
2.780000e-06	3.859675e-06	1.279538e-09	2.737130e+01	8.382533e+01
2.790000e-06	3.891465e-06	1.287944e-09	2.759674e+01	8.422668e+01
2.800000e-06	3.923049e-06	1.295535e-09	2.782072e+01	8.460903e+01
2.810000e-06	3.954500e-06	1.298591e-09	2.804376e+01	8.497336e+01
2.820000e-06	3.985693e-06	1.300740e-09	2.826496e+01	8.532059e+01
2.830000e-06	4.016516e-06	1.304416e-09	2.848355e+01	8.565161e+01
2.840000e-06	4.047107e-06	1.307400e-09	2.870049e+01	8.596720e+01
2.850000e-06	4.077442e-06	1.308700e-09	2.891561e+01	8.626804e+01
2.860000e-06	4.107517e-06	1.309999e-09	2.912889e+01	8.655467e+01
2.870000e-06	4.137291e-06	1.313108e-09	2.934004e+01	8.682752e+01
2.880000e-06	4.166715e-06	1.318555e-09	2.954871e+01	8.708687e+01
2.890000e-06	4.195967e-06	1.320673e-09	2.975615e+01	8.733290e+01
2.900000e-06	4.225043e-06	1.320213e-09	2.996234e+01	8.756570e+01
