# Temperatura_=_18.65
# Concentracion g/m^3_=_4090.0
# C_Vs_to_Am_M_A/Vsm_=_65563218390.804596
# pendiente_HvsI_1/m_=_3716.3
# ordenada_HvsI_A/m_=_1297.0
# frecuencia_Hz_=_135084.6968684802

Tiempo_(s)	Campo_(V.s)	Magnetizacion_(V.s)	Campo_(kA/m)	Magnetizacion_(A/m)
0.000000e+00	-5.396120e-06	-1.247839e-09	-3.838513e+01	-8.639207e+01
1.000000e-08	-5.396113e-06	-1.242354e-09	-3.838507e+01	-8.624179e+01
2.000000e-08	-5.395841e-06	-1.239033e-09	-3.838314e+01	-8.607073e+01
3.000000e-08	-5.395286e-06	-1.236123e-09	-3.837919e+01	-8.588001e+01
4.000000e-08	-5.394333e-06	-1.238107e-09	-3.837241e+01	-8.567178e+01
5.000000e-08	-5.392817e-06	-1.242268e-09	-3.836163e+01	-8.544919e+01
6.000000e-08	-5.390637e-06	-1.249626e-09	-3.834612e+01	-8.521635e+01
7.000000e-08	-5.387940e-06	-1.259093e-09	-3.832694e+01	-8.497821e+01
8.000000e-08	-5.384727e-06	-1.241256e-09	-3.830408e+01	-8.474043e+01
9.000000e-08	-5.380893e-06	-1.206592e-09	-3.827680e+01	-8.450912e+01
1.000000e-07	-5.376650e-06	-1.240001e-09	-3.824662e+01	-8.429069e+01
1.100000e-07	-5.372238e-06	-1.272079e-09	-3.821524e+01	-8.409155e+01
1.200000e-07	-5.367641e-06	-1.246230e-09	-3.818254e+01	-8.391785e+01
1.300000e-07	-5.362684e-06	-1.169022e-09	-3.814728e+01	-8.377523e+01
1.400000e-07	-5.357298e-06	-1.219920e-09	-3.810896e+01	-8.366856e+01
1.500000e-07	-5.351548e-06	-1.292874e-09	-3.806806e+01	-8.360171e+01
1.600000e-07	-5.345413e-06	-1.239980e-09	-3.802442e+01	-8.357735e+01
1.700000e-07	-5.338908e-06	-1.149591e-09	-3.797815e+01	-8.359685e+01
1.800000e-07	-5.332017e-06	-1.193542e-09	-3.792913e+01	-8.366009e+01
1.900000e-07	-5.324782e-06	-1.311879e-09	-3.787766e+01	-8.376554e+01
2.000000e-07	-5.317372e-06	-1.270882e-09	-3.782495e+01	-8.391018e+01
2.100000e-07	-5.309721e-06	-1.217931e-09	-3.777053e+01	-8.408968e+01
2.200000e-07	-5.301778e-06	-1.265839e-09	-3.771403e+01	-8.429847e+01
2.300000e-07	-5.293502e-06	-1.349977e-09	-3.765516e+01	-8.452996e+01
2.400000e-07	-5.284678e-06	-1.300065e-09	-3.759239e+01	-8.477679e+01
2.500000e-07	-5.275269e-06	-1.301407e-09	-3.752545e+01	-8.503109e+01
2.600000e-07	-5.265294e-06	-1.373517e-09	-3.745450e+01	-8.528477e+01
2.700000e-07	-5.254846e-06	-1.397607e-09	-3.738018e+01	-8.552981e+01
2.800000e-07	-5.243921e-06	-1.320962e-09	-3.730246e+01	-8.575858e+01
2.900000e-07	-5.232495e-06	-1.334388e-09	-3.722118e+01	-8.596407e+01
3.000000e-07	-5.220670e-06	-1.383499e-09	-3.713707e+01	-8.614016e+01
3.100000e-07	-5.208435e-06	-1.357971e-09	-3.705003e+01	-8.628183e+01
3.200000e-07	-5.195752e-06	-1.330410e-09	-3.695982e+01	-8.638527e+01
3.300000e-07	-5.182714e-06	-1.375132e-09	-3.686706e+01	-8.644803e+01
3.400000e-07	-5.169317e-06	-1.385529e-09	-3.677177e+01	-8.646900e+01
3.500000e-07	-5.155579e-06	-1.353884e-09	-3.667404e+01	-8.644842e+01
3.600000e-07	-5.141480e-06	-1.363723e-09	-3.657375e+01	-8.638779e+01
3.700000e-07	-5.126821e-06	-1.364580e-09	-3.646947e+01	-8.628976e+01
3.800000e-07	-5.111642e-06	-1.325075e-09	-3.636150e+01	-8.615791e+01
3.900000e-07	-5.095977e-06	-1.329133e-09	-3.625007e+01	-8.599657e+01
4.000000e-07	-5.079730e-06	-1.365365e-09	-3.613449e+01	-8.581060e+01
4.100000e-07	-5.063079e-06	-1.342294e-09	-3.601605e+01	-8.560514e+01
4.200000e-07	-5.046091e-06	-1.331130e-09	-3.589520e+01	-8.538532e+01
4.300000e-07	-5.028742e-06	-1.359823e-09	-3.577179e+01	-8.515610e+01
4.400000e-07	-5.011135e-06	-1.371497e-09	-3.564655e+01	-8.492204e+01
4.500000e-07	-4.993230e-06	-1.327833e-09	-3.551918e+01	-8.468710e+01
4.600000e-07	-4.974925e-06	-1.326090e-09	-3.538896e+01	-8.445453e+01
4.700000e-07	-4.956190e-06	-1.333379e-09	-3.525569e+01	-8.422678e+01
4.800000e-07	-4.937098e-06	-1.334280e-09	-3.511988e+01	-8.400544e+01
4.900000e-07	-4.917635e-06	-1.322971e-09	-3.498143e+01	-8.379127e+01
5.000000e-07	-4.897940e-06	-1.329768e-09	-3.484133e+01	-8.358421e+01
5.100000e-07	-4.878010e-06	-1.318078e-09	-3.469956e+01	-8.338350e+01
5.200000e-07	-4.857808e-06	-1.326935e-09	-3.455586e+01	-8.318780e+01
5.300000e-07	-4.837423e-06	-1.322201e-09	-3.441085e+01	-8.299531e+01
5.400000e-07	-4.816853e-06	-1.308809e-09	-3.426453e+01	-8.280395e+01
5.500000e-07	-4.795938e-06	-1.294900e-09	-3.411575e+01	-8.261152e+01
5.600000e-07	-4.774617e-06	-1.311515e-09	-3.396408e+01	-8.241587e+01
5.700000e-07	-4.752967e-06	-1.307234e-09	-3.381007e+01	-8.221502e+01
5.800000e-07	-4.730978e-06	-1.290882e-09	-3.365366e+01	-8.200734e+01
5.900000e-07	-4.708626e-06	-1.279934e-09	-3.349466e+01	-8.179162e+01
6.000000e-07	-4.686026e-06	-1.284680e-09	-3.333389e+01	-8.156713e+01
6.100000e-07	-4.663082e-06	-1.281729e-09	-3.317068e+01	-8.133368e+01
6.200000e-07	-4.639741e-06	-1.273481e-09	-3.300464e+01	-8.109163e+01
6.300000e-07	-4.616180e-06	-1.266982e-09	-3.283705e+01	-8.084181e+01
6.400000e-07	-4.592356e-06	-1.274043e-09	-3.266758e+01	-8.058550e+01
6.500000e-07	-4.568285e-06	-1.282059e-09	-3.249635e+01	-8.032434e+01
6.600000e-07	-4.543989e-06	-1.274012e-09	-3.232352e+01	-8.006020e+01
6.700000e-07	-4.519349e-06	-1.258569e-09	-3.214824e+01	-7.979508e+01
6.800000e-07	-4.494371e-06	-1.249238e-09	-3.197056e+01	-7.953099e+01
6.900000e-07	-4.468930e-06	-1.249277e-09	-3.178959e+01	-7.926979e+01
7.000000e-07	-4.443009e-06	-1.239941e-09	-3.160520e+01	-7.901317e+01
7.100000e-07	-4.416642e-06	-1.232318e-09	-3.141764e+01	-7.876244e+01
7.200000e-07	-4.389700e-06	-1.229197e-09	-3.122599e+01	-7.851855e+01
7.300000e-07	-4.362302e-06	-1.238405e-09	-3.103109e+01	-7.828203e+01
7.400000e-07	-4.334614e-06	-1.237787e-09	-3.083414e+01	-7.805292e+01
7.500000e-07	-4.306721e-06	-1.231975e-09	-3.063572e+01	-7.783084e+01
7.600000e-07	-4.278669e-06	-1.218928e-09	-3.043617e+01	-7.761500e+01
7.700000e-07	-4.250424e-06	-1.216145e-09	-3.023525e+01	-7.740424e+01
7.800000e-07	-4.221959e-06	-1.206615e-09	-3.003276e+01	-7.719715e+01
7.900000e-07	-4.193275e-06	-1.198382e-09	-2.982873e+01	-7.699212e+01
8.000000e-07	-4.164191e-06	-1.190017e-09	-2.962184e+01	-7.678747e+01
8.100000e-07	-4.134731e-06	-1.195566e-09	-2.941228e+01	-7.658152e+01
8.200000e-07	-4.105026e-06	-1.198910e-09	-2.920097e+01	-7.637270e+01
8.300000e-07	-4.075017e-06	-1.200797e-09	-2.898750e+01	-7.615964e+01
8.400000e-07	-4.044694e-06	-1.192477e-09	-2.877180e+01	-7.594124e+01
8.500000e-07	-4.014131e-06	-1.186546e-09	-2.855439e+01	-7.571670e+01
8.600000e-07	-3.983363e-06	-1.180650e-09	-2.833552e+01	-7.548557e+01
8.700000e-07	-3.952307e-06	-1.177336e-09	-2.811461e+01	-7.524775e+01
8.800000e-07	-3.920989e-06	-1.167600e-09	-2.789183e+01	-7.500348e+01
8.900000e-07	-3.889489e-06	-1.162161e-09	-2.766775e+01	-7.475328e+01
9.000000e-07	-3.857831e-06	-1.161730e-09	-2.744255e+01	-7.449796e+01
9.100000e-07	-3.825984e-06	-1.163023e-09	-2.721601e+01	-7.423846e+01
9.200000e-07	-3.793879e-06	-1.160481e-09	-2.698764e+01	-7.397587e+01
9.300000e-07	-3.761536e-06	-1.158154e-09	-2.675757e+01	-7.371129e+01
9.400000e-07	-3.728986e-06	-1.158237e-09	-2.652602e+01	-7.344577e+01
9.500000e-07	-3.696141e-06	-1.157254e-09	-2.629238e+01	-7.318025e+01
9.600000e-07	-3.662888e-06	-1.150961e-09	-2.605583e+01	-7.291550e+01
9.700000e-07	-3.629200e-06	-1.136893e-09	-2.581619e+01	-7.265206e+01
9.800000e-07	-3.595143e-06	-1.125281e-09	-2.557393e+01	-7.239022e+01
9.900000e-07	-3.560776e-06	-1.120261e-09	-2.532946e+01	-7.213003e+01
1.000000e-06	-3.526038e-06	-1.121587e-09	-2.508236e+01	-7.187128e+01
1.010000e-06	-3.490921e-06	-1.122789e-09	-2.483256e+01	-7.161353e+01
1.020000e-06	-3.455422e-06	-1.127365e-09	-2.458003e+01	-7.135619e+01
1.030000e-06	-3.419679e-06	-1.128523e-09	-2.432578e+01	-7.109851e+01
1.040000e-06	-3.383767e-06	-1.127354e-09	-2.407032e+01	-7.083968e+01
1.050000e-06	-3.347670e-06	-1.117056e-09	-2.381354e+01	-7.057890e+01
1.060000e-06	-3.311413e-06	-1.103557e-09	-2.355563e+01	-7.031542e+01
1.070000e-06	-3.274966e-06	-1.087924e-09	-2.329636e+01	-7.004860e+01
1.080000e-06	-3.238368e-06	-1.082422e-09	-2.303602e+01	-6.977797e+01
1.090000e-06	-3.201600e-06	-1.082684e-09	-2.277447e+01	-6.950325e+01
1.100000e-06	-3.164535e-06	-1.087153e-09	-2.251082e+01	-6.922438e+01
1.110000e-06	-3.127215e-06	-1.088008e-09	-2.224534e+01	-6.894152e+01
1.120000e-06	-3.089723e-06	-1.087131e-09	-2.197864e+01	-6.865503e+01
1.130000e-06	-3.051974e-06	-1.080311e-09	-2.171012e+01	-6.836543e+01
1.140000e-06	-3.014088e-06	-1.070053e-09	-2.144062e+01	-6.807337e+01
1.150000e-06	-2.976045e-06	-1.057731e-09	-2.117000e+01	-6.777960e+01
1.160000e-06	-2.937781e-06	-1.051886e-09	-2.089781e+01	-6.748484e+01
1.170000e-06	-2.899331e-06	-1.049859e-09	-2.062430e+01	-6.718979e+01
1.180000e-06	-2.860671e-06	-1.047640e-09	-2.034929e+01	-6.689501e+01
1.190000e-06	-2.821744e-06	-1.044652e-09	-2.007239e+01	-6.660090e+01
1.200000e-06	-2.782607e-06	-1.044083e-09	-1.979398e+01	-6.630764e+01
1.210000e-06	-2.743309e-06	-1.041770e-09	-1.951444e+01	-6.601515e+01
1.220000e-06	-2.703873e-06	-1.035091e-09	-1.923392e+01	-6.572310e+01
1.230000e-06	-2.664347e-06	-1.026352e-09	-1.895275e+01	-6.543088e+01
1.240000e-06	-2.624609e-06	-1.020703e-09	-1.867007e+01	-6.513764e+01
1.250000e-06	-2.584735e-06	-1.019277e-09	-1.838643e+01	-6.484234e+01
1.260000e-06	-2.544812e-06	-1.015388e-09	-1.810244e+01	-6.454375e+01
1.270000e-06	-2.504758e-06	-1.007575e-09	-1.781751e+01	-6.424059e+01
1.280000e-06	-2.464516e-06	-9.985719e-10	-1.753126e+01	-6.393153e+01
1.290000e-06	-2.424171e-06	-9.916972e-10	-1.724426e+01	-6.361531e+01
1.300000e-06	-2.383750e-06	-9.825812e-10	-1.695673e+01	-6.329083e+01
1.310000e-06	-2.343129e-06	-9.722920e-10	-1.666777e+01	-6.295717e+01
1.320000e-06	-2.302218e-06	-9.663639e-10	-1.637676e+01	-6.261367e+01
1.330000e-06	-2.261070e-06	-9.688059e-10	-1.608405e+01	-6.226002e+01
1.340000e-06	-2.219716e-06	-9.732196e-10	-1.578987e+01	-6.189621e+01
1.350000e-06	-2.178074e-06	-9.741683e-10	-1.549366e+01	-6.152261e+01
1.360000e-06	-2.136157e-06	-9.659693e-10	-1.519549e+01	-6.113990e+01
1.370000e-06	-2.094043e-06	-9.530113e-10	-1.489591e+01	-6.074909e+01
1.380000e-06	-2.051591e-06	-9.393628e-10	-1.459393e+01	-6.035143e+01
1.390000e-06	-2.008879e-06	-9.280476e-10	-1.429010e+01	-5.994834e+01
1.400000e-06	-1.966073e-06	-9.174076e-10	-1.398559e+01	-5.954138e+01
1.410000e-06	-1.923106e-06	-9.124438e-10	-1.367995e+01	-5.913208e+01
1.420000e-06	-1.879919e-06	-9.128364e-10	-1.337274e+01	-5.872193e+01
1.430000e-06	-1.836513e-06	-9.164534e-10	-1.306397e+01	-5.831222e+01
1.440000e-06	-1.792905e-06	-9.147509e-10	-1.275377e+01	-5.790401e+01
1.450000e-06	-1.749198e-06	-9.063960e-10	-1.244286e+01	-5.749804e+01
1.460000e-06	-1.705431e-06	-8.954876e-10	-1.213152e+01	-5.709466e+01
1.470000e-06	-1.661512e-06	-8.855910e-10	-1.181911e+01	-5.669383e+01
1.480000e-06	-1.617511e-06	-8.762081e-10	-1.150611e+01	-5.629507e+01
1.490000e-06	-1.573405e-06	-8.690087e-10	-1.119237e+01	-5.589751e+01
1.500000e-06	-1.529261e-06	-8.665217e-10	-1.087835e+01	-5.549989e+01
1.510000e-06	-1.485100e-06	-8.687075e-10	-1.056421e+01	-5.510062e+01
1.520000e-06	-1.440866e-06	-8.674269e-10	-1.024955e+01	-5.469788e+01
1.530000e-06	-1.396660e-06	-8.580308e-10	-9.935095e+00	-5.428965e+01
1.540000e-06	-1.352372e-06	-8.462653e-10	-9.620052e+00	-5.387385e+01
1.550000e-06	-1.307959e-06	-8.357490e-10	-9.304122e+00	-5.344842e+01
1.560000e-06	-1.263456e-06	-8.268025e-10	-8.987554e+00	-5.301141e+01
1.570000e-06	-1.218864e-06	-8.188559e-10	-8.670350e+00	-5.256107e+01
1.580000e-06	-1.174187e-06	-8.130720e-10	-8.352540e+00	-5.209592e+01
1.590000e-06	-1.129408e-06	-8.104961e-10	-8.034004e+00	-5.161481e+01
1.600000e-06	-1.084649e-06	-8.075974e-10	-7.715617e+00	-5.111697e+01
1.610000e-06	-1.039811e-06	-8.030760e-10	-7.396664e+00	-5.060199e+01
1.620000e-06	-9.948776e-07	-7.967846e-10	-7.077029e+00	-5.006986e+01
1.630000e-06	-9.499336e-07	-7.873148e-10	-6.757322e+00	-4.952091e+01
1.640000e-06	-9.048337e-07	-7.761471e-10	-6.436505e+00	-4.895574e+01
1.650000e-06	-8.596279e-07	-7.635133e-10	-6.114935e+00	-4.837521e+01
1.660000e-06	-8.143053e-07	-7.508361e-10	-5.792534e+00	-4.778030e+01
1.670000e-06	-7.688974e-07	-7.422591e-10	-5.469526e+00	-4.717206e+01
1.680000e-06	-7.235114e-07	-7.392330e-10	-5.146675e+00	-4.655149e+01
1.690000e-06	-6.781532e-07	-7.345710e-10	-4.824020e+00	-4.591949e+01
1.700000e-06	-6.328118e-07	-7.276588e-10	-4.501486e+00	-4.527672e+01
1.710000e-06	-5.873597e-07	-7.213100e-10	-4.178164e+00	-4.462358e+01
1.720000e-06	-5.418213e-07	-7.135984e-10	-3.854228e+00	-4.396011e+01
1.730000e-06	-4.962410e-07	-7.020040e-10	-3.529994e+00	-4.328602e+01
1.740000e-06	-4.506667e-07	-6.860514e-10	-3.205803e+00	-4.260061e+01
1.750000e-06	-4.050857e-07	-6.692190e-10	-2.881564e+00	-4.190283e+01
1.760000e-06	-3.594463e-07	-6.575894e-10	-2.556910e+00	-4.119126e+01
1.770000e-06	-3.137053e-07	-6.485634e-10	-2.231533e+00	-4.046424e+01
1.780000e-06	-2.679505e-07	-6.412094e-10	-1.906057e+00	-3.971986e+01
1.790000e-06	-2.222043e-07	-6.336763e-10	-1.580643e+00	-3.895607e+01
1.800000e-06	-1.764324e-07	-6.244345e-10	-1.255046e+00	-3.817078e+01
1.810000e-06	-1.306679e-07	-6.098849e-10	-9.295022e-01	-3.736195e+01
1.820000e-06	-8.490083e-08	-5.915949e-10	-6.039393e-01	-3.652765e+01
1.830000e-06	-3.920303e-08	-5.722738e-10	-2.788694e-01	-3.566617e+01
1.840000e-06	6.472967e-09	-5.546868e-10	4.604524e-02	-3.477607e+01
1.850000e-06	5.217738e-08	-5.397505e-10	3.711621e-01	-3.385625e+01
1.860000e-06	9.790351e-08	-5.269011e-10	6.964334e-01	-3.290597e+01
1.870000e-06	1.435949e-07	-5.162632e-10	1.021457e+00	-3.192485e+01
1.880000e-06	1.892612e-07	-5.088468e-10	1.346303e+00	-3.091291e+01
1.890000e-06	2.349868e-07	-4.987365e-10	1.671571e+00	-2.987047e+01
1.900000e-06	2.807449e-07	-4.792714e-10	1.997070e+00	-2.879817e+01
1.910000e-06	3.264819e-07	-4.531930e-10	2.322419e+00	-2.769686e+01
1.920000e-06	3.722387e-07	-4.288307e-10	2.647908e+00	-2.656757e+01
1.930000e-06	4.179473e-07	-4.073351e-10	2.973055e+00	-2.541138e+01
1.940000e-06	4.635073e-07	-3.862823e-10	3.297144e+00	-2.422940e+01
1.950000e-06	5.090571e-07	-3.687583e-10	3.621161e+00	-2.302264e+01
1.960000e-06	5.546572e-07	-3.551100e-10	3.945536e+00	-2.179197e+01
1.970000e-06	6.001498e-07	-3.399951e-10	4.269146e+00	-2.053807e+01
1.980000e-06	6.455206e-07	-3.178284e-10	4.591889e+00	-1.926135e+01
1.990000e-06	6.909268e-07	-2.907474e-10	4.914886e+00	-1.796199e+01
2.000000e-06	7.362782e-07	-2.656251e-10	5.237491e+00	-1.663988e+01
2.010000e-06	7.815340e-07	-2.445876e-10	5.559416e+00	-1.529469e+01
2.020000e-06	8.267819e-07	-2.230446e-10	5.881286e+00	-1.392585e+01
2.030000e-06	8.719936e-07	-2.001731e-10	6.202898e+00	-1.253265e+01
2.040000e-06	9.170866e-07	-1.780955e-10	6.523666e+00	-1.111428e+01
2.050000e-06	9.620568e-07	-1.583151e-10	6.843560e+00	-9.669923e+00
2.060000e-06	1.007016e-06	-1.364619e-10	7.163373e+00	-8.198815e+00
2.070000e-06	1.051971e-06	-1.095741e-10	7.483158e+00	-6.700335e+00
2.080000e-06	1.096776e-06	-8.218592e-11	7.801878e+00	-5.174076e+00
2.090000e-06	1.141418e-06	-5.850227e-11	8.119440e+00	-3.619912e+00
2.100000e-06	1.185998e-06	-3.530798e-11	8.436556e+00	-2.038047e+00
2.110000e-06	1.230507e-06	-9.965223e-12	8.753170e+00	-4.290562e-01
2.120000e-06	1.274930e-06	1.700227e-11	9.069173e+00	1.206101e+00
2.130000e-06	1.319284e-06	4.094361e-11	9.384687e+00	2.866076e+00
2.140000e-06	1.363613e-06	6.233831e-11	9.700017e+00	4.549154e+00
2.150000e-06	1.407874e-06	8.375245e-11	1.001486e+01	6.253287e+00
2.160000e-06	1.452077e-06	1.088624e-10	1.032930e+01	7.976144e+00
2.170000e-06	1.496193e-06	1.350474e-10	1.064312e+01	9.715172e+00
2.180000e-06	1.540215e-06	1.604441e-10	1.095627e+01	1.146766e+01
2.190000e-06	1.584236e-06	1.876773e-10	1.126941e+01	1.323083e+01
2.200000e-06	1.628246e-06	2.149283e-10	1.158248e+01	1.500188e+01
2.210000e-06	1.672211e-06	2.419080e-10	1.189522e+01	1.677805e+01
2.220000e-06	1.716122e-06	2.704653e-10	1.220758e+01	1.855673e+01
2.230000e-06	1.759920e-06	3.001608e-10	1.251913e+01	2.033542e+01
2.240000e-06	1.803621e-06	3.302267e-10	1.283000e+01	2.211183e+01
2.250000e-06	1.847249e-06	3.567471e-10	1.314035e+01	2.388386e+01
2.260000e-06	1.890783e-06	3.810923e-10	1.345002e+01	2.564960e+01
2.270000e-06	1.934103e-06	4.059450e-10	1.375818e+01	2.740732e+01
2.280000e-06	1.977275e-06	4.325743e-10	1.406528e+01	2.915545e+01
2.290000e-06	2.020255e-06	4.613129e-10	1.437102e+01	3.089251e+01
2.300000e-06	2.062840e-06	4.894052e-10	1.467395e+01	3.261709e+01
2.310000e-06	2.105126e-06	5.183525e-10	1.497474e+01	3.432779e+01
2.320000e-06	2.147185e-06	5.471828e-10	1.527393e+01	3.602318e+01
2.330000e-06	2.188925e-06	5.735513e-10	1.557085e+01	3.770175e+01
2.340000e-06	2.230372e-06	5.945419e-10	1.586568e+01	3.936185e+01
2.350000e-06	2.271569e-06	6.129789e-10	1.615873e+01	4.100175e+01
2.360000e-06	2.312499e-06	6.333397e-10	1.644989e+01	4.261952e+01
2.370000e-06	2.353173e-06	6.578707e-10	1.673922e+01	4.421314e+01
2.380000e-06	2.393624e-06	6.827552e-10	1.702697e+01	4.578047e+01
2.390000e-06	2.433930e-06	7.062559e-10	1.731369e+01	4.731931e+01
2.400000e-06	2.474094e-06	7.310035e-10	1.759939e+01	4.882743e+01
2.410000e-06	2.514199e-06	7.554526e-10	1.788467e+01	5.030268e+01
2.420000e-06	2.554252e-06	7.799246e-10	1.816959e+01	5.174302e+01
2.430000e-06	2.594233e-06	8.046209e-10	1.845399e+01	5.314661e+01
2.440000e-06	2.634083e-06	8.263432e-10	1.873746e+01	5.451189e+01
2.450000e-06	2.673780e-06	8.445198e-10	1.901985e+01	5.583764e+01
2.460000e-06	2.713342e-06	8.612481e-10	1.930127e+01	5.712303e+01
2.470000e-06	2.752710e-06	8.768888e-10	1.958131e+01	5.836766e+01
2.480000e-06	2.791879e-06	8.931451e-10	1.985994e+01	5.957161e+01
2.490000e-06	2.830845e-06	9.126567e-10	2.013713e+01	6.073541e+01
2.500000e-06	2.869606e-06	9.354848e-10	2.041285e+01	6.186005e+01
2.510000e-06	2.908102e-06	9.610560e-10	2.068669e+01	6.294690e+01
2.520000e-06	2.946334e-06	9.850435e-10	2.095865e+01	6.399772e+01
2.530000e-06	2.984425e-06	1.004908e-09	2.122961e+01	6.501453e+01
2.540000e-06	3.022376e-06	1.018438e-09	2.149957e+01	6.599952e+01
2.550000e-06	3.060144e-06	1.025823e-09	2.176823e+01	6.695503e+01
2.560000e-06	3.097712e-06	1.032785e-09	2.203547e+01	6.788334e+01
2.570000e-06	3.135054e-06	1.042513e-09	2.230111e+01	6.878665e+01
2.580000e-06	3.172149e-06	1.055779e-09	2.256498e+01	6.966698e+01
2.590000e-06	3.209000e-06	1.075598e-09	2.282712e+01	7.052604e+01
2.600000e-06	3.245562e-06	1.101059e-09	2.308720e+01	7.136521e+01
2.610000e-06	3.281894e-06	1.124298e-09	2.334565e+01	7.218549e+01
2.620000e-06	3.318134e-06	1.137720e-09	2.360344e+01	7.298744e+01
2.630000e-06	3.354239e-06	1.143523e-09	2.386027e+01	7.377120e+01
2.640000e-06	3.390199e-06	1.148032e-09	2.411607e+01	7.453651e+01
2.650000e-06	3.426059e-06	1.152655e-09	2.437116e+01	7.528276e+01
2.660000e-06	3.461777e-06	1.156929e-09	2.462524e+01	7.600899e+01
2.670000e-06	3.497290e-06	1.162371e-09	2.487786e+01	7.671405e+01
2.680000e-06	3.532611e-06	1.175685e-09	2.512912e+01	7.739662e+01
2.690000e-06	3.567581e-06	1.197170e-09	2.537787e+01	7.805531e+01
2.700000e-06	3.601927e-06	1.219720e-09	2.562219e+01	7.868878e+01
2.710000e-06	3.635737e-06	1.234712e-09	2.586270e+01	7.929580e+01
2.720000e-06	3.669174e-06	1.241989e-09	2.610055e+01	7.987534e+01
2.730000e-06	3.702263e-06	1.244777e-09	2.633593e+01	8.042664e+01
2.740000e-06	3.734954e-06	1.243417e-09	2.656847e+01	8.094925e+01
2.750000e-06	3.767267e-06	1.239693e-09	2.679833e+01	8.144308e+01
2.760000e-06	3.799369e-06	1.240195e-09	2.702669e+01	8.190838e+01
2.770000e-06	3.831385e-06	1.253801e-09	2.725443e+01	8.234577e+01
2.780000e-06	3.863305e-06	1.274748e-09	2.748149e+01	8.275619e+01
2.790000e-06	3.895056e-06	1.290087e-09	2.770735e+01	8.314085e+01
2.800000e-06	3.926623e-06	1.293521e-09	2.793190e+01	8.350121e+01
2.810000e-06	3.958039e-06	1.291664e-09	2.815538e+01	8.383885e+01
2.820000e-06	3.989196e-06	1.290182e-09	2.837701e+01	8.415548e+01
2.830000e-06	4.019886e-06	1.286534e-09	2.859533e+01	8.445280e+01
2.840000e-06	4.050204e-06	1.283792e-09	2.881099e+01	8.473244e+01
2.850000e-06	4.080298e-06	1.287378e-09	2.902506e+01	8.499596e+01
2.860000e-06	4.110113e-06	1.297536e-09	2.923715e+01	8.524470e+01
2.870000e-06	4.139704e-06	1.308877e-09	2.944765e+01	8.547984e+01
2.880000e-06	4.168997e-06	1.314759e-09	2.965602e+01	8.570231e+01
2.890000e-06	4.197940e-06	1.315166e-09	2.986191e+01	8.591283e+01
2.900000e-06	4.226645e-06	1.314426e-09	3.006610e+01	8.611190e+01
