# Temperatura_=_11.85
# Concentracion g/m^3_=_4090.0
# C_Vs_to_Am_M_A/Vsm_=_65563218390.804596
# pendiente_HvsI_1/m_=_3716.3
# ordenada_HvsI_A/m_=_1297.0
# frecuencia_Hz_=_135084.28903305964

Tiempo_(s)	Campo_(V.s)	Magnetizacion_(V.s)	Campo_(kA/m)	Magnetizacion_(A/m)
0.000000e+00	-5.400512e-06	-1.301344e-09	-3.838950e+01	-8.701781e+01
1.000000e-08	-5.400588e-06	-1.298614e-09	-3.839003e+01	-8.687392e+01
2.000000e-08	-5.400360e-06	-1.294534e-09	-3.838841e+01	-8.670765e+01
3.000000e-08	-5.399782e-06	-1.291490e-09	-3.838431e+01	-8.652036e+01
4.000000e-08	-5.398722e-06	-1.298674e-09	-3.837678e+01	-8.631460e+01
5.000000e-08	-5.397252e-06	-1.318468e-09	-3.836633e+01	-8.609417e+01
6.000000e-08	-5.395207e-06	-1.327180e-09	-3.835179e+01	-8.586405e+01
7.000000e-08	-5.392499e-06	-1.303215e-09	-3.833254e+01	-8.563022e+01
8.000000e-08	-5.389301e-06	-1.242174e-09	-3.830980e+01	-8.539954e+01
9.000000e-08	-5.385608e-06	-1.216073e-09	-3.828355e+01	-8.517944e+01
1.000000e-07	-5.381526e-06	-1.321740e-09	-3.825453e+01	-8.497771e+01
1.100000e-07	-5.377168e-06	-1.381945e-09	-3.822356e+01	-8.480211e+01
1.200000e-07	-5.372518e-06	-1.241422e-09	-3.819050e+01	-8.466009e+01
1.300000e-07	-5.367629e-06	-1.225985e-09	-3.815575e+01	-8.455842e+01
1.400000e-07	-5.362413e-06	-1.329741e-09	-3.811867e+01	-8.450290e+01
1.500000e-07	-5.356808e-06	-1.461525e-09	-3.807883e+01	-8.449804e+01
1.600000e-07	-5.350836e-06	-1.243681e-09	-3.803637e+01	-8.454683e+01
1.700000e-07	-5.344560e-06	-1.138294e-09	-3.799176e+01	-8.465057e+01
1.800000e-07	-5.337810e-06	-1.268374e-09	-3.794378e+01	-8.480872e+01
1.900000e-07	-5.330604e-06	-1.398069e-09	-3.789255e+01	-8.501886e+01
2.000000e-07	-5.323140e-06	-1.292067e-09	-3.783950e+01	-8.527676e+01
2.100000e-07	-5.315501e-06	-1.237898e-09	-3.778520e+01	-8.557644e+01
2.200000e-07	-5.307548e-06	-1.382427e-09	-3.772866e+01	-8.591043e+01
2.300000e-07	-5.299264e-06	-1.395363e-09	-3.766977e+01	-8.626996e+01
2.400000e-07	-5.290627e-06	-1.311663e-09	-3.760838e+01	-8.664531e+01
2.500000e-07	-5.281517e-06	-1.326091e-09	-3.754362e+01	-8.702618e+01
2.600000e-07	-5.271694e-06	-1.457940e-09	-3.747379e+01	-8.740204e+01
2.700000e-07	-5.261130e-06	-1.381815e-09	-3.739870e+01	-8.776254e+01
2.800000e-07	-5.250095e-06	-1.343709e-09	-3.732026e+01	-8.809792e+01
2.900000e-07	-5.238558e-06	-1.412172e-09	-3.723825e+01	-8.839932e+01
3.000000e-07	-5.226606e-06	-1.447254e-09	-3.715329e+01	-8.865913e+01
3.100000e-07	-5.214317e-06	-1.303391e-09	-3.706593e+01	-8.887127e+01
3.200000e-07	-5.201693e-06	-1.338104e-09	-3.697619e+01	-8.903133e+01
3.300000e-07	-5.188618e-06	-1.429527e-09	-3.688325e+01	-8.913674e+01
3.400000e-07	-5.175245e-06	-1.413702e-09	-3.678818e+01	-8.918676e+01
3.500000e-07	-5.161561e-06	-1.335820e-09	-3.669092e+01	-8.918250e+01
3.600000e-07	-5.147493e-06	-1.414134e-09	-3.659092e+01	-8.912673e+01
3.700000e-07	-5.132863e-06	-1.405378e-09	-3.648692e+01	-8.902373e+01
3.800000e-07	-5.117851e-06	-1.350620e-09	-3.638021e+01	-8.887904e+01
3.900000e-07	-5.102234e-06	-1.347391e-09	-3.626919e+01	-8.869915e+01
4.000000e-07	-5.085884e-06	-1.383597e-09	-3.615296e+01	-8.849118e+01
4.100000e-07	-5.069241e-06	-1.334033e-09	-3.603466e+01	-8.826253e+01
4.200000e-07	-5.052262e-06	-1.355819e-09	-3.591397e+01	-8.802053e+01
4.300000e-07	-5.034972e-06	-1.411422e-09	-3.579106e+01	-8.777217e+01
4.400000e-07	-5.017460e-06	-1.379225e-09	-3.566657e+01	-8.752372e+01
4.500000e-07	-4.999648e-06	-1.338980e-09	-3.553996e+01	-8.728060e+01
4.600000e-07	-4.981462e-06	-1.362611e-09	-3.541068e+01	-8.704708e+01
4.700000e-07	-4.962944e-06	-1.373598e-09	-3.527905e+01	-8.682625e+01
4.800000e-07	-4.944011e-06	-1.331039e-09	-3.514446e+01	-8.661991e+01
4.900000e-07	-4.924643e-06	-1.332548e-09	-3.500679e+01	-8.642863e+01
5.000000e-07	-4.904946e-06	-1.335726e-09	-3.486677e+01	-8.625177e+01
5.100000e-07	-4.885034e-06	-1.351862e-09	-3.472523e+01	-8.608767e+01
5.200000e-07	-4.864966e-06	-1.347156e-09	-3.458258e+01	-8.593381e+01
5.300000e-07	-4.844714e-06	-1.338653e-09	-3.443861e+01	-8.578701e+01
5.400000e-07	-4.824060e-06	-1.314478e-09	-3.429179e+01	-8.564371e+01
5.500000e-07	-4.802976e-06	-1.347002e-09	-3.414192e+01	-8.550019e+01
5.600000e-07	-4.781534e-06	-1.344089e-09	-3.398950e+01	-8.535285e+01
5.700000e-07	-4.759809e-06	-1.329614e-09	-3.383506e+01	-8.519837e+01
5.800000e-07	-4.737861e-06	-1.313956e-09	-3.367905e+01	-8.503399e+01
5.900000e-07	-4.715644e-06	-1.326209e-09	-3.352112e+01	-8.485760e+01
6.000000e-07	-4.693084e-06	-1.314229e-09	-3.336075e+01	-8.466786e+01
6.100000e-07	-4.670188e-06	-1.319115e-09	-3.319799e+01	-8.446428e+01
6.200000e-07	-4.646980e-06	-1.294731e-09	-3.303302e+01	-8.424720e+01
6.300000e-07	-4.623493e-06	-1.289823e-09	-3.286606e+01	-8.401775e+01
6.400000e-07	-4.599767e-06	-1.308390e-09	-3.269741e+01	-8.377773e+01
6.500000e-07	-4.575812e-06	-1.325737e-09	-3.252712e+01	-8.352951e+01
6.600000e-07	-4.551589e-06	-1.295334e-09	-3.235493e+01	-8.327585e+01
6.700000e-07	-4.527046e-06	-1.290351e-09	-3.218047e+01	-8.301971e+01
6.800000e-07	-4.502053e-06	-1.298939e-09	-3.200281e+01	-8.276405e+01
6.900000e-07	-4.476564e-06	-1.293293e-09	-3.182162e+01	-8.251169e+01
7.000000e-07	-4.450592e-06	-1.268280e-09	-3.163700e+01	-8.226508e+01
7.100000e-07	-4.424154e-06	-1.260025e-09	-3.144906e+01	-8.202617e+01
7.200000e-07	-4.397222e-06	-1.267071e-09	-3.125762e+01	-8.179633e+01
7.300000e-07	-4.369910e-06	-1.281889e-09	-3.106347e+01	-8.157624e+01
7.400000e-07	-4.342345e-06	-1.282845e-09	-3.086753e+01	-8.136587e+01
7.500000e-07	-4.314515e-06	-1.268544e-09	-3.066969e+01	-8.116451e+01
7.600000e-07	-4.286446e-06	-1.270732e-09	-3.047017e+01	-8.097081e+01
7.700000e-07	-4.258150e-06	-1.274598e-09	-3.026903e+01	-8.078289e+01
7.800000e-07	-4.229667e-06	-1.262496e-09	-3.006655e+01	-8.059843e+01
7.900000e-07	-4.200959e-06	-1.238186e-09	-2.986248e+01	-8.041487e+01
8.000000e-07	-4.171887e-06	-1.236973e-09	-2.965582e+01	-8.022956e+01
8.100000e-07	-4.142452e-06	-1.241109e-09	-2.944658e+01	-8.003988e+01
8.200000e-07	-4.112718e-06	-1.248263e-09	-2.923523e+01	-7.984346e+01
8.300000e-07	-4.082749e-06	-1.238320e-09	-2.902219e+01	-7.963831e+01
8.400000e-07	-4.052587e-06	-1.234830e-09	-2.880778e+01	-7.942291e+01
8.500000e-07	-4.022188e-06	-1.233042e-09	-2.859169e+01	-7.919633e+01
8.600000e-07	-3.991518e-06	-1.236665e-09	-2.837367e+01	-7.895827e+01
8.700000e-07	-3.960603e-06	-1.220437e-09	-2.815391e+01	-7.870906e+01
8.800000e-07	-3.929455e-06	-1.210759e-09	-2.793250e+01	-7.844968e+01
8.900000e-07	-3.898060e-06	-1.204999e-09	-2.770933e+01	-7.818162e+01
9.000000e-07	-3.866435e-06	-1.208694e-09	-2.748452e+01	-7.790684e+01
9.100000e-07	-3.834607e-06	-1.199860e-09	-2.725827e+01	-7.762764e+01
9.200000e-07	-3.802556e-06	-1.196930e-09	-2.703044e+01	-7.734650e+01
9.300000e-07	-3.770255e-06	-1.198384e-09	-2.680083e+01	-7.706594e+01
9.400000e-07	-3.737698e-06	-1.210101e-09	-2.656940e+01	-7.678835e+01
9.500000e-07	-3.704869e-06	-1.207824e-09	-2.633603e+01	-7.651587e+01
9.600000e-07	-3.671727e-06	-1.197493e-09	-2.610044e+01	-7.625025e+01
9.700000e-07	-3.638179e-06	-1.183622e-09	-2.586197e+01	-7.599273e+01
9.800000e-07	-3.604151e-06	-1.178564e-09	-2.562008e+01	-7.574401e+01
9.900000e-07	-3.569645e-06	-1.171276e-09	-2.537479e+01	-7.550415e+01
1.000000e-06	-3.534745e-06	-1.165039e-09	-2.512670e+01	-7.527264e+01
1.010000e-06	-3.499469e-06	-1.164256e-09	-2.487594e+01	-7.504835e+01
1.020000e-06	-3.463913e-06	-1.170729e-09	-2.462320e+01	-7.482969e+01
1.030000e-06	-3.428206e-06	-1.174603e-09	-2.436938e+01	-7.461463e+01
1.040000e-06	-3.392363e-06	-1.168216e-09	-2.411459e+01	-7.440086e+01
1.050000e-06	-3.356334e-06	-1.159372e-09	-2.385847e+01	-7.418591e+01
1.060000e-06	-3.320166e-06	-1.152952e-09	-2.360137e+01	-7.396733e+01
1.070000e-06	-3.283906e-06	-1.149978e-09	-2.334362e+01	-7.374275e+01
1.080000e-06	-3.247466e-06	-1.141536e-09	-2.308458e+01	-7.351011e+01
1.090000e-06	-3.210756e-06	-1.137182e-09	-2.282363e+01	-7.326772e+01
1.100000e-06	-3.173711e-06	-1.138604e-09	-2.256030e+01	-7.301436e+01
1.110000e-06	-3.136331e-06	-1.142514e-09	-2.229458e+01	-7.274933e+01
1.120000e-06	-3.098803e-06	-1.135020e-09	-2.202782e+01	-7.247252e+01
1.130000e-06	-3.061125e-06	-1.125833e-09	-2.175998e+01	-7.218437e+01
1.140000e-06	-3.023258e-06	-1.119112e-09	-2.149081e+01	-7.188585e+01
1.150000e-06	-2.985294e-06	-1.120306e-09	-2.122094e+01	-7.157838e+01
1.160000e-06	-2.947130e-06	-1.115319e-09	-2.094965e+01	-7.126374e+01
1.170000e-06	-2.908637e-06	-1.107954e-09	-2.067602e+01	-7.094396e+01
1.180000e-06	-2.869838e-06	-1.097961e-09	-2.040022e+01	-7.062120e+01
1.190000e-06	-2.830844e-06	-1.093477e-09	-2.012303e+01	-7.029759e+01
1.200000e-06	-2.791674e-06	-1.087472e-09	-1.984459e+01	-6.997512e+01
1.210000e-06	-2.752337e-06	-1.083991e-09	-1.956497e+01	-6.965553e+01
1.220000e-06	-2.712829e-06	-1.079954e-09	-1.928413e+01	-6.934019e+01
1.230000e-06	-2.673185e-06	-1.081170e-09	-1.900232e+01	-6.902999e+01
1.240000e-06	-2.633467e-06	-1.078379e-09	-1.871998e+01	-6.872537e+01
1.250000e-06	-2.593667e-06	-1.072652e-09	-1.843706e+01	-6.842622e+01
1.260000e-06	-2.553737e-06	-1.062162e-09	-1.815322e+01	-6.813193e+01
1.270000e-06	-2.513685e-06	-1.051844e-09	-1.786851e+01	-6.784142e+01
1.280000e-06	-2.473538e-06	-1.044512e-09	-1.758312e+01	-6.755320e+01
1.290000e-06	-2.433287e-06	-1.038584e-09	-1.729700e+01	-6.726547e+01
1.300000e-06	-2.392805e-06	-1.033064e-09	-1.700923e+01	-6.697625e+01
1.310000e-06	-2.352117e-06	-1.028689e-09	-1.672001e+01	-6.668343e+01
1.320000e-06	-2.311309e-06	-1.025255e-09	-1.642992e+01	-6.638499e+01
1.330000e-06	-2.270288e-06	-1.018906e-09	-1.613832e+01	-6.607902e+01
1.340000e-06	-2.228960e-06	-1.012309e-09	-1.584454e+01	-6.576391e+01
1.350000e-06	-2.187214e-06	-1.006681e-09	-1.554779e+01	-6.543836e+01
1.360000e-06	-2.145225e-06	-1.000913e-09	-1.524932e+01	-6.510154e+01
1.370000e-06	-2.102997e-06	-9.936290e-10	-1.494913e+01	-6.475302e+01
1.380000e-06	-2.060429e-06	-9.860154e-10	-1.464654e+01	-6.439288e+01
1.390000e-06	-2.017690e-06	-9.799887e-10	-1.434273e+01	-6.402164e+01
1.400000e-06	-1.974859e-06	-9.767559e-10	-1.403827e+01	-6.364022e+01
1.410000e-06	-1.931843e-06	-9.715575e-10	-1.373249e+01	-6.324988e+01
1.420000e-06	-1.888676e-06	-9.657883e-10	-1.342564e+01	-6.285213e+01
1.430000e-06	-1.845277e-06	-9.597431e-10	-1.311714e+01	-6.244863e+01
1.440000e-06	-1.801639e-06	-9.563453e-10	-1.280693e+01	-6.204106e+01
1.450000e-06	-1.757908e-06	-9.518032e-10	-1.249608e+01	-6.163104e+01
1.460000e-06	-1.714109e-06	-9.453818e-10	-1.218473e+01	-6.121998e+01
1.470000e-06	-1.670281e-06	-9.352540e-10	-1.187318e+01	-6.080902e+01
1.480000e-06	-1.626398e-06	-9.267787e-10	-1.156124e+01	-6.039895e+01
1.490000e-06	-1.582432e-06	-9.201927e-10	-1.124871e+01	-5.999015e+01
1.500000e-06	-1.538382e-06	-9.145324e-10	-1.093558e+01	-5.958255e+01
1.510000e-06	-1.494251e-06	-9.080042e-10	-1.062187e+01	-5.917565e+01
1.520000e-06	-1.450068e-06	-9.002183e-10	-1.030780e+01	-5.876853e+01
1.530000e-06	-1.405763e-06	-8.927401e-10	-9.992855e+00	-5.835992e+01
1.540000e-06	-1.361332e-06	-8.865895e-10	-9.677021e+00	-5.794822e+01
1.550000e-06	-1.316948e-06	-8.773319e-10	-9.361516e+00	-5.753167e+01
1.560000e-06	-1.272590e-06	-8.692834e-10	-9.046198e+00	-5.710836e+01
1.570000e-06	-1.228133e-06	-8.636554e-10	-8.730171e+00	-5.667643e+01
1.580000e-06	-1.183486e-06	-8.603878e-10	-8.412800e+00	-5.623407e+01
1.590000e-06	-1.138719e-06	-8.577615e-10	-8.094574e+00	-5.577971e+01
1.600000e-06	-1.093862e-06	-8.514158e-10	-7.775713e+00	-5.531202e+01
1.610000e-06	-1.049006e-06	-8.405650e-10	-7.456853e+00	-5.483004e+01
1.620000e-06	-1.004033e-06	-8.303081e-10	-7.137164e+00	-5.433318e+01
1.630000e-06	-9.589072e-07	-8.215485e-10	-6.816384e+00	-5.382123e+01
1.640000e-06	-9.137237e-07	-8.139976e-10	-6.495198e+00	-5.329439e+01
1.650000e-06	-8.684883e-07	-8.056360e-10	-6.173642e+00	-5.275318e+01
1.660000e-06	-8.233112e-07	-7.973992e-10	-5.852501e+00	-5.219841e+01
1.670000e-06	-7.780409e-07	-7.926687e-10	-5.530698e+00	-5.163111e+01
1.680000e-06	-7.326091e-07	-7.886957e-10	-5.207746e+00	-5.105241e+01
1.690000e-06	-6.871197e-07	-7.800315e-10	-4.884385e+00	-5.046345e+01
1.700000e-06	-6.416007e-07	-7.673446e-10	-4.560814e+00	-4.986526e+01
1.710000e-06	-5.960494e-07	-7.572650e-10	-4.237012e+00	-4.925869e+01
1.720000e-06	-5.504439e-07	-7.500041e-10	-3.912826e+00	-4.864429e+01
1.730000e-06	-5.048242e-07	-7.414185e-10	-3.588539e+00	-4.802224e+01
1.740000e-06	-4.592071e-07	-7.311877e-10	-3.264270e+00	-4.739229e+01
1.750000e-06	-4.134343e-07	-7.224254e-10	-2.938894e+00	-4.675373e+01
1.760000e-06	-3.675736e-07	-7.116405e-10	-2.612894e+00	-4.610540e+01
1.770000e-06	-3.217541e-07	-6.976335e-10	-2.287187e+00	-4.544567e+01
1.780000e-06	-2.759325e-07	-6.835035e-10	-1.961464e+00	-4.477251e+01
1.790000e-06	-2.300715e-07	-6.747620e-10	-1.635461e+00	-4.408358e+01
1.800000e-06	-1.842091e-07	-6.669295e-10	-1.309449e+00	-4.337627e+01
1.810000e-06	-1.383686e-07	-6.571685e-10	-9.835918e-01	-4.264780e+01
1.820000e-06	-9.258196e-08	-6.446772e-10	-6.581181e-01	-4.189540e+01
1.830000e-06	-4.688517e-08	-6.309348e-10	-3.332829e-01	-4.111633e+01
1.840000e-06	-1.150006e-09	-6.149412e-10	-8.174809e-03	-4.030807e+01
1.850000e-06	4.467704e-08	-6.004177e-10	3.175864e-01	-3.946837e+01
1.860000e-06	9.046659e-08	-5.884389e-10	6.430810e-01	-3.859534e+01
1.870000e-06	1.362672e-07	-5.797332e-10	9.686544e-01	-3.768754e+01
1.880000e-06	1.820693e-07	-5.731852e-10	1.294238e+00	-3.674403e+01
1.890000e-06	2.277919e-07	-5.622117e-10	1.619257e+00	-3.576433e+01
1.900000e-06	2.735271e-07	-5.429431e-10	1.944365e+00	-3.474850e+01
1.910000e-06	3.192896e-07	-5.206539e-10	2.269667e+00	-3.369705e+01
1.920000e-06	3.650451e-07	-4.996334e-10	2.594920e+00	-3.261090e+01
1.930000e-06	4.107868e-07	-4.805857e-10	2.920075e+00	-3.149133e+01
1.940000e-06	4.565145e-07	-4.618997e-10	3.245130e+00	-3.033988e+01
1.950000e-06	5.022014e-07	-4.437141e-10	3.569895e+00	-2.915825e+01
1.960000e-06	5.478334e-07	-4.297446e-10	3.894269e+00	-2.794823e+01
1.970000e-06	5.934080e-07	-4.165193e-10	4.218236e+00	-2.671156e+01
1.980000e-06	6.389506e-07	-3.968046e-10	4.541975e+00	-2.544987e+01
1.990000e-06	6.844221e-07	-3.715723e-10	4.865209e+00	-2.416460e+01
2.000000e-06	7.298023e-07	-3.472317e-10	5.187794e+00	-2.285693e+01
2.010000e-06	7.751372e-07	-3.256032e-10	5.510056e+00	-2.152772e+01
2.020000e-06	8.204132e-07	-3.052790e-10	5.831901e+00	-2.017754e+01
2.030000e-06	8.656589e-07	-2.838542e-10	6.153530e+00	-1.880658e+01
2.040000e-06	9.108895e-07	-2.633454e-10	6.475051e+00	-1.741477e+01
2.050000e-06	9.560330e-07	-2.416055e-10	6.795953e+00	-1.600172e+01
2.060000e-06	1.001061e-06	-2.178693e-10	7.116036e+00	-1.456685e+01
2.070000e-06	1.046003e-06	-1.924350e-10	7.435505e+00	-1.310940e+01
2.080000e-06	1.090804e-06	-1.674076e-10	7.753975e+00	-1.162854e+01
2.090000e-06	1.135518e-06	-1.450002e-10	8.071822e+00	-1.012343e+01
2.100000e-06	1.180205e-06	-1.232666e-10	8.389480e+00	-8.593294e+00
2.110000e-06	1.224814e-06	-9.872092e-11	8.706578e+00	-7.037510e+00
2.120000e-06	1.269277e-06	-7.324275e-11	9.022647e+00	-5.455659e+00
2.130000e-06	1.313624e-06	-4.839790e-11	9.337883e+00	-3.847585e+00
2.140000e-06	1.357901e-06	-2.419447e-11	9.652628e+00	-2.213432e+00
2.150000e-06	1.402121e-06	6.712900e-13	9.966968e+00	-5.536687e-01
2.160000e-06	1.446298e-06	2.548784e-11	1.028100e+01	1.130901e+00
2.170000e-06	1.490373e-06	5.077206e-11	1.059430e+01	2.839146e+00
2.180000e-06	1.534410e-06	7.627796e-11	1.090734e+01	4.569625e+00
2.190000e-06	1.578392e-06	1.024163e-10	1.121999e+01	6.320619e+00
2.200000e-06	1.622284e-06	1.293184e-10	1.153199e+01	8.090167e+00
2.210000e-06	1.666167e-06	1.565004e-10	1.184393e+01	9.876111e+00
2.220000e-06	1.709982e-06	1.851601e-10	1.215539e+01	1.167614e+01
2.230000e-06	1.753763e-06	2.139010e-10	1.246661e+01	1.348785e+01
2.240000e-06	1.797541e-06	2.429458e-10	1.277781e+01	1.530875e+01
2.250000e-06	1.841168e-06	2.733241e-10	1.308793e+01	1.713633e+01
2.260000e-06	1.884665e-06	3.046174e-10	1.339713e+01	1.896809e+01
2.270000e-06	1.928018e-06	3.335399e-10	1.370530e+01	2.080153e+01
2.280000e-06	1.971195e-06	3.611414e-10	1.401223e+01	2.263419e+01
2.290000e-06	2.014214e-06	3.900536e-10	1.431803e+01	2.446366e+01
2.300000e-06	2.056965e-06	4.165323e-10	1.462192e+01	2.628753e+01
2.310000e-06	2.099390e-06	4.394859e-10	1.492350e+01	2.810344e+01
2.320000e-06	2.141653e-06	4.641033e-10	1.522392e+01	2.990902e+01
2.330000e-06	2.183686e-06	4.905964e-10	1.552271e+01	3.170191e+01
2.340000e-06	2.225293e-06	5.171614e-10	1.581848e+01	3.347977e+01
2.350000e-06	2.266601e-06	5.440904e-10	1.611211e+01	3.524020e+01
2.360000e-06	2.307665e-06	5.723552e-10	1.640402e+01	3.698084e+01
2.370000e-06	2.348456e-06	6.009821e-10	1.669398e+01	3.869930e+01
2.380000e-06	2.388963e-06	6.269738e-10	1.698192e+01	4.039321e+01
2.390000e-06	2.429298e-06	6.490182e-10	1.726864e+01	4.206025e+01
2.400000e-06	2.469580e-06	6.705308e-10	1.755499e+01	4.369818e+01
2.410000e-06	2.509707e-06	6.931867e-10	1.784023e+01	4.530486e+01
2.420000e-06	2.549694e-06	7.192169e-10	1.812448e+01	4.687832e+01
2.430000e-06	2.589599e-06	7.485157e-10	1.840815e+01	4.841678e+01
2.440000e-06	2.629409e-06	7.753286e-10	1.869113e+01	4.991869e+01
2.450000e-06	2.669151e-06	7.980568e-10	1.897364e+01	5.138279e+01
2.460000e-06	2.708862e-06	8.215764e-10	1.925592e+01	5.280814e+01
2.470000e-06	2.748441e-06	8.441093e-10	1.953727e+01	5.419412e+01
2.480000e-06	2.787795e-06	8.622364e-10	1.981702e+01	5.554043e+01
2.490000e-06	2.826810e-06	8.788912e-10	2.009436e+01	5.684713e+01
2.500000e-06	2.865594e-06	8.987832e-10	2.037005e+01	5.811459e+01
2.510000e-06	2.904338e-06	9.223855e-10	2.064547e+01	5.934349e+01
2.520000e-06	2.942780e-06	9.466121e-10	2.091873e+01	6.053472e+01
2.530000e-06	2.980830e-06	9.686002e-10	2.118921e+01	6.168940e+01
2.540000e-06	3.018741e-06	9.889723e-10	2.145869e+01	6.280879e+01
2.550000e-06	3.056562e-06	1.006182e-09	2.172755e+01	6.389420e+01
2.560000e-06	3.094182e-06	1.017881e-09	2.199497e+01	6.494698e+01
2.570000e-06	3.131609e-06	1.029546e-09	2.226102e+01	6.596842e+01
2.580000e-06	3.168827e-06	1.043425e-09	2.252558e+01	6.695969e+01
2.590000e-06	3.205826e-06	1.060935e-09	2.278859e+01	6.792184e+01
2.600000e-06	3.242520e-06	1.081874e-09	2.304943e+01	6.885571e+01
2.610000e-06	3.278932e-06	1.101344e-09	2.330826e+01	6.976194e+01
2.620000e-06	3.315186e-06	1.116485e-09	2.356598e+01	7.064096e+01
2.630000e-06	3.351274e-06	1.129255e-09	2.382251e+01	7.149302e+01
2.640000e-06	3.387230e-06	1.138500e-09	2.407810e+01	7.231815e+01
2.650000e-06	3.423073e-06	1.144085e-09	2.433289e+01	7.311628e+01
2.660000e-06	3.458738e-06	1.148366e-09	2.458641e+01	7.388723e+01
2.670000e-06	3.494154e-06	1.154146e-09	2.483817e+01	7.463077e+01
2.680000e-06	3.529310e-06	1.163836e-09	2.508807e+01	7.534672e+01
2.690000e-06	3.564187e-06	1.179332e-09	2.533600e+01	7.603495e+01
2.700000e-06	3.598824e-06	1.197994e-09	2.558221e+01	7.669545e+01
2.710000e-06	3.633205e-06	1.212656e-09	2.582661e+01	7.732839e+01
2.720000e-06	3.666997e-06	1.220900e-09	2.606682e+01	7.793416e+01
2.730000e-06	3.700053e-06	1.228528e-09	2.630179e+01	7.851333e+01
2.740000e-06	3.732810e-06	1.234749e-09	2.653465e+01	7.906674e+01
2.750000e-06	3.765409e-06	1.238183e-09	2.676638e+01	7.959540e+01
2.760000e-06	3.797738e-06	1.241894e-09	2.699619e+01	8.010054e+01
2.770000e-06	3.829806e-06	1.249743e-09	2.722415e+01	8.058348e+01
2.780000e-06	3.861661e-06	1.263015e-09	2.745059e+01	8.104569e+01
2.790000e-06	3.893425e-06	1.273488e-09	2.767638e+01	8.148861e+01
2.800000e-06	3.925048e-06	1.277550e-09	2.790117e+01	8.191367e+01
2.810000e-06	3.956489e-06	1.279039e-09	2.812467e+01	8.232219e+01
2.820000e-06	3.987614e-06	1.281212e-09	2.834592e+01	8.271532e+01
2.830000e-06	4.018277e-06	1.284883e-09	2.856389e+01	8.309398e+01
2.840000e-06	4.048669e-06	1.290013e-09	2.877993e+01	8.345884e+01
2.850000e-06	4.078840e-06	1.296467e-09	2.899440e+01	8.381030e+01
2.860000e-06	4.108668e-06	1.304595e-09	2.920644e+01	8.414844e+01
2.870000e-06	4.138307e-06	1.310481e-09	2.941712e+01	8.447309e+01
2.880000e-06	4.167764e-06	1.312374e-09	2.962652e+01	8.478382e+01
2.890000e-06	4.196869e-06	1.312443e-09	2.983341e+01	8.508000e+01
2.900000e-06	4.225572e-06	1.314417e-09	3.003745e+01	8.536087e+01
