# Temperatura_=_-1.47
# Concentracion g/m^3_=_4090.0
# C_Vs_to_Am_M_A/Vsm_=_65563218390.804596
# pendiente_HvsI_1/m_=_3716.3
# ordenada_HvsI_A/m_=_1297.0
# frecuencia_Hz_=_135071.48727490962

Tiempo_(s)	Campo_(V.s)	Magnetizacion_(V.s)	Campo_(kA/m)	Magnetizacion_(A/m)
0.000000e+00	-5.399525e-06	-2.097436e-09	-3.838451e+01	-1.408129e+02
1.000000e-08	-5.399535e-06	-2.094866e-09	-3.838458e+01	-1.406841e+02
2.000000e-08	-5.399333e-06	-2.088572e-09	-3.838315e+01	-1.405376e+02
3.000000e-08	-5.398811e-06	-2.081291e-09	-3.837944e+01	-1.403753e+02
4.000000e-08	-5.397877e-06	-2.078228e-09	-3.837279e+01	-1.401996e+02
5.000000e-08	-5.396487e-06	-2.091759e-09	-3.836291e+01	-1.400141e+02
6.000000e-08	-5.394483e-06	-2.146945e-09	-3.834867e+01	-1.398229e+02
7.000000e-08	-5.391879e-06	-2.175961e-09	-3.833016e+01	-1.396309e+02
8.000000e-08	-5.388749e-06	-2.031539e-09	-3.830791e+01	-1.394431e+02
9.000000e-08	-5.385123e-06	-1.854303e-09	-3.828213e+01	-1.392652e+02
1.000000e-07	-5.381207e-06	-2.020712e-09	-3.825429e+01	-1.391026e+02
1.100000e-07	-5.376945e-06	-2.244277e-09	-3.822399e+01	-1.389606e+02
1.200000e-07	-5.372288e-06	-2.114536e-09	-3.819089e+01	-1.388439e+02
1.300000e-07	-5.367342e-06	-1.837940e-09	-3.815572e+01	-1.387568e+02
1.400000e-07	-5.362161e-06	-2.054505e-09	-3.811889e+01	-1.387026e+02
1.500000e-07	-5.356548e-06	-2.402795e-09	-3.807899e+01	-1.386837e+02
1.600000e-07	-5.350467e-06	-2.189766e-09	-3.803576e+01	-1.387012e+02
1.700000e-07	-5.344140e-06	-1.805288e-09	-3.799078e+01	-1.387551e+02
1.800000e-07	-5.337592e-06	-1.950064e-09	-3.794424e+01	-1.388443e+02
1.900000e-07	-5.330578e-06	-2.267276e-09	-3.789437e+01	-1.389662e+02
2.000000e-07	-5.323097e-06	-2.123330e-09	-3.784119e+01	-1.391173e+02
2.100000e-07	-5.315442e-06	-1.973479e-09	-3.778678e+01	-1.392930e+02
2.200000e-07	-5.307584e-06	-2.206834e-09	-3.773091e+01	-1.394878e+02
2.300000e-07	-5.299296e-06	-2.338597e-09	-3.767200e+01	-1.396957e+02
2.400000e-07	-5.290519e-06	-2.107302e-09	-3.760960e+01	-1.399100e+02
2.500000e-07	-5.281414e-06	-2.100602e-09	-3.754488e+01	-1.401241e+02
2.600000e-07	-5.271798e-06	-2.310451e-09	-3.747652e+01	-1.403312e+02
2.700000e-07	-5.261529e-06	-2.227612e-09	-3.740351e+01	-1.405250e+02
2.800000e-07	-5.250752e-06	-2.028114e-09	-3.732690e+01	-1.406997e+02
2.900000e-07	-5.239540e-06	-2.221524e-09	-3.724720e+01	-1.408501e+02
3.000000e-07	-5.227836e-06	-2.361098e-09	-3.716399e+01	-1.409719e+02
3.100000e-07	-5.215647e-06	-2.108893e-09	-3.707735e+01	-1.410618e+02
3.200000e-07	-5.203116e-06	-1.998848e-09	-3.698826e+01	-1.411177e+02
3.300000e-07	-5.190247e-06	-2.218991e-09	-3.689678e+01	-1.411383e+02
3.400000e-07	-5.177018e-06	-2.224881e-09	-3.680274e+01	-1.411238e+02
3.500000e-07	-5.163448e-06	-2.088562e-09	-3.670627e+01	-1.410751e+02
3.600000e-07	-5.149419e-06	-2.166248e-09	-3.660654e+01	-1.409939e+02
3.700000e-07	-5.134844e-06	-2.245102e-09	-3.650293e+01	-1.408830e+02
3.800000e-07	-5.119796e-06	-2.143475e-09	-3.639596e+01	-1.407456e+02
3.900000e-07	-5.104276e-06	-2.147334e-09	-3.628563e+01	-1.405852e+02
4.000000e-07	-5.088219e-06	-2.188124e-09	-3.617148e+01	-1.404058e+02
4.100000e-07	-5.071726e-06	-2.076364e-09	-3.605423e+01	-1.402111e+02
4.200000e-07	-5.054921e-06	-2.070241e-09	-3.593476e+01	-1.400048e+02
4.300000e-07	-5.037794e-06	-2.216299e-09	-3.581301e+01	-1.397903e+02
4.400000e-07	-5.020266e-06	-2.208404e-09	-3.568841e+01	-1.395705e+02
4.500000e-07	-5.002361e-06	-2.090719e-09	-3.556112e+01	-1.393479e+02
4.600000e-07	-4.984152e-06	-2.136792e-09	-3.543168e+01	-1.391241e+02
4.700000e-07	-4.965578e-06	-2.193308e-09	-3.529964e+01	-1.389003e+02
4.800000e-07	-4.946690e-06	-2.129796e-09	-3.516537e+01	-1.386772e+02
4.900000e-07	-4.927499e-06	-2.065766e-09	-3.502894e+01	-1.384545e+02
5.000000e-07	-4.907994e-06	-2.077617e-09	-3.489028e+01	-1.382320e+02
5.100000e-07	-4.888200e-06	-2.104047e-09	-3.474957e+01	-1.380086e+02
5.200000e-07	-4.868100e-06	-2.143710e-09	-3.460668e+01	-1.377832e+02
5.300000e-07	-4.847702e-06	-2.125009e-09	-3.446168e+01	-1.375546e+02
5.400000e-07	-4.827073e-06	-2.079114e-09	-3.431502e+01	-1.373214e+02
5.500000e-07	-4.806185e-06	-2.094520e-09	-3.416653e+01	-1.370825e+02
5.600000e-07	-4.784960e-06	-2.135271e-09	-3.401565e+01	-1.368369e+02
5.700000e-07	-4.763387e-06	-2.093912e-09	-3.386229e+01	-1.365840e+02
5.800000e-07	-4.741504e-06	-2.045178e-09	-3.370673e+01	-1.363235e+02
5.900000e-07	-4.719308e-06	-2.050891e-09	-3.354894e+01	-1.360556e+02
6.000000e-07	-4.696800e-06	-2.086198e-09	-3.338893e+01	-1.357809e+02
6.100000e-07	-4.673921e-06	-2.096059e-09	-3.322629e+01	-1.355003e+02
6.200000e-07	-4.650673e-06	-2.066372e-09	-3.306102e+01	-1.352151e+02
6.300000e-07	-4.627215e-06	-2.034801e-09	-3.289426e+01	-1.349270e+02
6.400000e-07	-4.603551e-06	-2.065560e-09	-3.272604e+01	-1.346375e+02
6.500000e-07	-4.579611e-06	-2.096178e-09	-3.255585e+01	-1.343486e+02
6.600000e-07	-4.555367e-06	-2.056789e-09	-3.238350e+01	-1.340621e+02
6.700000e-07	-4.530781e-06	-2.015997e-09	-3.220872e+01	-1.337795e+02
6.800000e-07	-4.505796e-06	-2.036538e-09	-3.203111e+01	-1.335023e+02
6.900000e-07	-4.480378e-06	-2.059646e-09	-3.185041e+01	-1.332315e+02
7.000000e-07	-4.454543e-06	-2.036608e-09	-3.166676e+01	-1.329677e+02
7.100000e-07	-4.428204e-06	-2.006453e-09	-3.147951e+01	-1.327112e+02
7.200000e-07	-4.401367e-06	-2.012009e-09	-3.128874e+01	-1.324616e+02
7.300000e-07	-4.374188e-06	-2.047183e-09	-3.109552e+01	-1.322183e+02
7.400000e-07	-4.346712e-06	-2.052054e-09	-3.090020e+01	-1.319800e+02
7.500000e-07	-4.318930e-06	-2.020098e-09	-3.070270e+01	-1.317452e+02
7.600000e-07	-4.290904e-06	-2.004700e-09	-3.050347e+01	-1.315122e+02
7.700000e-07	-4.262721e-06	-2.025043e-09	-3.030312e+01	-1.312787e+02
7.800000e-07	-4.234298e-06	-2.024067e-09	-3.010107e+01	-1.310428e+02
7.900000e-07	-4.205600e-06	-1.996339e-09	-2.989706e+01	-1.308023e+02
8.000000e-07	-4.176611e-06	-1.977793e-09	-2.969098e+01	-1.305552e+02
8.100000e-07	-4.147294e-06	-1.993204e-09	-2.948257e+01	-1.302997e+02
8.200000e-07	-4.117691e-06	-2.008869e-09	-2.927212e+01	-1.300345e+02
8.300000e-07	-4.087820e-06	-1.999188e-09	-2.905977e+01	-1.297583e+02
8.400000e-07	-4.057718e-06	-1.973036e-09	-2.884578e+01	-1.294705e+02
8.500000e-07	-4.027374e-06	-1.971956e-09	-2.863007e+01	-1.291710e+02
8.600000e-07	-3.996724e-06	-1.986427e-09	-2.841218e+01	-1.288598e+02
8.700000e-07	-3.965757e-06	-1.980929e-09	-2.819204e+01	-1.285378e+02
8.800000e-07	-3.934474e-06	-1.953590e-09	-2.796966e+01	-1.282059e+02
8.900000e-07	-3.902910e-06	-1.944144e-09	-2.774528e+01	-1.278655e+02
9.000000e-07	-3.871138e-06	-1.955857e-09	-2.751941e+01	-1.275180e+02
9.100000e-07	-3.839176e-06	-1.958961e-09	-2.729219e+01	-1.271653e+02
9.200000e-07	-3.807083e-06	-1.938820e-09	-2.706405e+01	-1.268091e+02
9.300000e-07	-3.774748e-06	-1.929151e-09	-2.683418e+01	-1.264511e+02
9.400000e-07	-3.742092e-06	-1.942436e-09	-2.660204e+01	-1.260927e+02
9.500000e-07	-3.709212e-06	-1.952130e-09	-2.636830e+01	-1.257355e+02
9.600000e-07	-3.676010e-06	-1.936054e-09	-2.613227e+01	-1.253804e+02
9.700000e-07	-3.642410e-06	-1.914243e-09	-2.589341e+01	-1.250281e+02
9.800000e-07	-3.608485e-06	-1.910147e-09	-2.565224e+01	-1.246792e+02
9.900000e-07	-3.574142e-06	-1.908550e-09	-2.540810e+01	-1.243336e+02
1.000000e-06	-3.539351e-06	-1.893545e-09	-2.516078e+01	-1.239910e+02
1.010000e-06	-3.504211e-06	-1.877777e-09	-2.491098e+01	-1.236508e+02
1.020000e-06	-3.468790e-06	-1.881782e-09	-2.465917e+01	-1.233124e+02
1.030000e-06	-3.433137e-06	-1.895135e-09	-2.440572e+01	-1.229745e+02
1.040000e-06	-3.397313e-06	-1.894536e-09	-2.415105e+01	-1.226361e+02
1.050000e-06	-3.361309e-06	-1.876601e-09	-2.389510e+01	-1.222961e+02
1.060000e-06	-3.325157e-06	-1.863734e-09	-2.363810e+01	-1.219533e+02
1.070000e-06	-3.288899e-06	-1.859045e-09	-2.338035e+01	-1.216066e+02
1.080000e-06	-3.252417e-06	-1.851007e-09	-2.312100e+01	-1.212553e+02
1.090000e-06	-3.215704e-06	-1.835400e-09	-2.286001e+01	-1.208987e+02
1.100000e-06	-3.178740e-06	-1.829772e-09	-2.259725e+01	-1.205362e+02
1.110000e-06	-3.141543e-06	-1.838840e-09	-2.233282e+01	-1.201677e+02
1.120000e-06	-3.104124e-06	-1.845302e-09	-2.206681e+01	-1.197932e+02
1.130000e-06	-3.066497e-06	-1.832342e-09	-2.179932e+01	-1.194129e+02
1.140000e-06	-3.028718e-06	-1.814964e-09	-2.153075e+01	-1.190273e+02
1.150000e-06	-2.990768e-06	-1.807365e-09	-2.126097e+01	-1.186369e+02
1.160000e-06	-2.952586e-06	-1.804065e-09	-2.098954e+01	-1.182422e+02
1.170000e-06	-2.914178e-06	-1.794086e-09	-2.071651e+01	-1.178440e+02
1.180000e-06	-2.875538e-06	-1.783639e-09	-2.044182e+01	-1.174428e+02
1.190000e-06	-2.836697e-06	-1.779744e-09	-2.016571e+01	-1.170390e+02
1.200000e-06	-2.797686e-06	-1.781093e-09	-1.988838e+01	-1.166330e+02
1.210000e-06	-2.758424e-06	-1.775837e-09	-1.960927e+01	-1.162250e+02
1.220000e-06	-2.718969e-06	-1.765334e-09	-1.932879e+01	-1.158150e+02
1.230000e-06	-2.679417e-06	-1.757155e-09	-1.904762e+01	-1.154026e+02
1.240000e-06	-2.639698e-06	-1.750412e-09	-1.876526e+01	-1.149874e+02
1.250000e-06	-2.599842e-06	-1.742704e-09	-1.848194e+01	-1.145688e+02
1.260000e-06	-2.559865e-06	-1.732947e-09	-1.819774e+01	-1.141459e+02
1.270000e-06	-2.519759e-06	-1.723449e-09	-1.791264e+01	-1.137179e+02
1.280000e-06	-2.479579e-06	-1.719748e-09	-1.762700e+01	-1.132838e+02
1.290000e-06	-2.439291e-06	-1.717437e-09	-1.734060e+01	-1.128428e+02
1.300000e-06	-2.398905e-06	-1.710021e-09	-1.705350e+01	-1.123938e+02
1.310000e-06	-2.358352e-06	-1.699863e-09	-1.676521e+01	-1.119363e+02
1.320000e-06	-2.317531e-06	-1.693484e-09	-1.647502e+01	-1.114695e+02
1.330000e-06	-2.276416e-06	-1.689597e-09	-1.618274e+01	-1.109931e+02
1.340000e-06	-2.235043e-06	-1.683011e-09	-1.588863e+01	-1.105070e+02
1.350000e-06	-2.193473e-06	-1.675765e-09	-1.559311e+01	-1.100113e+02
1.360000e-06	-2.151725e-06	-1.667535e-09	-1.529633e+01	-1.095062e+02
1.370000e-06	-2.109703e-06	-1.658881e-09	-1.499760e+01	-1.089923e+02
1.380000e-06	-2.067344e-06	-1.649943e-09	-1.469648e+01	-1.084704e+02
1.390000e-06	-2.024737e-06	-1.640819e-09	-1.439359e+01	-1.079412e+02
1.400000e-06	-1.981908e-06	-1.634008e-09	-1.408912e+01	-1.074058e+02
1.410000e-06	-1.938888e-06	-1.628891e-09	-1.378330e+01	-1.068649e+02
1.420000e-06	-1.895667e-06	-1.622819e-09	-1.347604e+01	-1.063196e+02
1.430000e-06	-1.852253e-06	-1.614358e-09	-1.316742e+01	-1.057705e+02
1.440000e-06	-1.808764e-06	-1.602423e-09	-1.285826e+01	-1.052184e+02
1.450000e-06	-1.765130e-06	-1.589356e-09	-1.254807e+01	-1.046635e+02
1.460000e-06	-1.721301e-06	-1.577052e-09	-1.223650e+01	-1.041060e+02
1.470000e-06	-1.677368e-06	-1.567930e-09	-1.192419e+01	-1.035457e+02
1.480000e-06	-1.633355e-06	-1.561997e-09	-1.161131e+01	-1.029823e+02
1.490000e-06	-1.589292e-06	-1.560348e-09	-1.129807e+01	-1.024150e+02
1.500000e-06	-1.545217e-06	-1.559167e-09	-1.098475e+01	-1.018428e+02
1.510000e-06	-1.501070e-06	-1.556000e-09	-1.067091e+01	-1.012646e+02
1.520000e-06	-1.456847e-06	-1.544851e-09	-1.035653e+01	-1.006792e+02
1.530000e-06	-1.412578e-06	-1.525610e-09	-1.004183e+01	-1.000849e+02
1.540000e-06	-1.368236e-06	-1.504065e-09	-9.726606e+00	-9.948048e+01
1.550000e-06	-1.323810e-06	-1.488157e-09	-9.410792e+00	-9.886443e+01
1.560000e-06	-1.279311e-06	-1.479387e-09	-9.094451e+00	-9.823545e+01
1.570000e-06	-1.234768e-06	-1.476299e-09	-8.777806e+00	-9.759234e+01
1.580000e-06	-1.190098e-06	-1.474870e-09	-8.460252e+00	-9.693415e+01
1.590000e-06	-1.145343e-06	-1.472486e-09	-8.142095e+00	-9.626013e+01
1.600000e-06	-1.100614e-06	-1.465342e-09	-7.824120e+00	-9.556978e+01
1.610000e-06	-1.055785e-06	-1.449035e-09	-7.505439e+00	-9.486286e+01
1.620000e-06	-1.010791e-06	-1.425371e-09	-7.185577e+00	-9.413939e+01
1.630000e-06	-9.657192e-07	-1.405346e-09	-6.865170e+00	-9.339957e+01
1.640000e-06	-9.205893e-07	-1.392817e-09	-6.544348e+00	-9.264379e+01
1.650000e-06	-8.753596e-07	-1.385219e-09	-6.222816e+00	-9.187255e+01
1.660000e-06	-8.300880e-07	-1.378757e-09	-5.900986e+00	-9.108639e+01
1.670000e-06	-7.847398e-07	-1.373600e-09	-5.578612e+00	-9.028587e+01
1.680000e-06	-7.392866e-07	-1.368246e-09	-5.255491e+00	-8.947142e+01
1.690000e-06	-6.938405e-07	-1.355831e-09	-4.932421e+00	-8.864337e+01
1.700000e-06	-6.483828e-07	-1.338518e-09	-4.609267e+00	-8.780183e+01
1.710000e-06	-6.028330e-07	-1.320176e-09	-4.285460e+00	-8.694664e+01
1.720000e-06	-5.572341e-07	-1.307059e-09	-3.961304e+00	-8.607738e+01
1.730000e-06	-5.116127e-07	-1.294709e-09	-3.636987e+00	-8.519333e+01
1.740000e-06	-4.659838e-07	-1.280912e-09	-3.312617e+00	-8.429345e+01
1.750000e-06	-4.203259e-07	-1.266700e-09	-2.988041e+00	-8.337641e+01
1.760000e-06	-3.745676e-07	-1.252343e-09	-2.662752e+00	-8.244063e+01
1.770000e-06	-3.288160e-07	-1.235069e-09	-2.337510e+00	-8.148430e+01
1.780000e-06	-2.831190e-07	-1.215812e-09	-2.012656e+00	-8.050544e+01
1.790000e-06	-2.373797e-07	-1.197423e-09	-1.687501e+00	-7.950199e+01
1.800000e-06	-1.916267e-07	-1.183549e-09	-1.362249e+00	-7.847183e+01
1.810000e-06	-1.459083e-07	-1.171457e-09	-1.037243e+00	-7.741289e+01
1.820000e-06	-1.001054e-07	-1.155963e-09	-7.116364e-01	-7.632319e+01
1.830000e-06	-5.422273e-08	-1.136035e-09	-3.854622e-01	-7.520092e+01
1.840000e-06	-8.406900e-09	-1.115154e-09	-5.976354e-02	-7.404447e+01
1.850000e-06	3.738513e-08	-1.095437e-09	2.657660e-01	-7.285247e+01
1.860000e-06	8.322007e-08	-1.074190e-09	5.916005e-01	-7.162384e+01
1.870000e-06	1.290545e-07	-1.052701e-09	9.174317e-01	-7.035778e+01
1.880000e-06	1.748137e-07	-1.035911e-09	1.242728e+00	-6.905375e+01
1.890000e-06	2.206606e-07	-1.021912e-09	1.568647e+00	-6.771147e+01
1.900000e-06	2.666010e-07	-1.001618e-09	1.895232e+00	-6.633089e+01
1.910000e-06	3.124238e-07	-9.729986e-10	2.220980e+00	-6.491214e+01
1.920000e-06	3.581788e-07	-9.435604e-10	2.546246e+00	-6.345549e+01
1.930000e-06	4.038986e-07	-9.183948e-10	2.871262e+00	-6.196127e+01
1.940000e-06	4.495859e-07	-8.922876e-10	3.196047e+00	-6.042984e+01
1.950000e-06	4.952599e-07	-8.664493e-10	3.520737e+00	-5.886152e+01
1.960000e-06	5.408792e-07	-8.450547e-10	3.845039e+00	-5.725655e+01
1.970000e-06	5.864691e-07	-8.262659e-10	4.169132e+00	-5.561506e+01
1.980000e-06	6.319814e-07	-8.042366e-10	4.492672e+00	-5.393702e+01
1.990000e-06	6.773956e-07	-7.754057e-10	4.815516e+00	-5.222221e+01
2.000000e-06	7.227758e-07	-7.443732e-10	5.138118e+00	-5.047026e+01
2.010000e-06	7.680570e-07	-7.155440e-10	5.460016e+00	-4.868063e+01
2.020000e-06	8.133179e-07	-6.870692e-10	5.781770e+00	-4.685262e+01
2.030000e-06	8.586214e-07	-6.564370e-10	6.103827e+00	-4.498539e+01
2.040000e-06	9.038485e-07	-6.263328e-10	6.425340e+00	-4.307803e+01
2.050000e-06	9.489787e-07	-5.990278e-10	6.746164e+00	-4.112960e+01
2.060000e-06	9.940490e-07	-5.706643e-10	7.066563e+00	-3.913914e+01
2.070000e-06	1.039067e-06	-5.374510e-10	7.386592e+00	-3.710573e+01
2.080000e-06	1.083971e-06	-5.019305e-10	7.705806e+00	-3.502858e+01
2.090000e-06	1.128723e-06	-4.709882e-10	8.023944e+00	-3.290700e+01
2.100000e-06	1.173326e-06	-4.447636e-10	8.341018e+00	-3.074048e+01
2.110000e-06	1.217791e-06	-4.149858e-10	8.657117e+00	-2.852871e+01
2.120000e-06	1.262162e-06	-3.786738e-10	8.972546e+00	-2.627158e+01
2.130000e-06	1.306487e-06	-3.436456e-10	9.287641e+00	-2.396921e+01
2.140000e-06	1.350778e-06	-3.106539e-10	9.602502e+00	-2.162194e+01
2.150000e-06	1.395037e-06	-2.749568e-10	9.917134e+00	-1.923031e+01
2.160000e-06	1.439249e-06	-2.362560e-10	1.023143e+01	-1.679508e+01
2.170000e-06	1.483384e-06	-1.999788e-10	1.054518e+01	-1.431719e+01
2.180000e-06	1.527446e-06	-1.708390e-10	1.085841e+01	-1.179775e+01
2.190000e-06	1.571501e-06	-1.417310e-10	1.117159e+01	-9.238003e+00
2.200000e-06	1.615568e-06	-1.042026e-10	1.148486e+01	-6.639336e+00
2.210000e-06	1.659553e-06	-6.254331e-11	1.179754e+01	-4.003253e+00
2.220000e-06	1.703435e-06	-2.127327e-11	1.210950e+01	-1.331371e+00
2.230000e-06	1.747225e-06	2.167844e-11	1.242080e+01	1.374581e+00
2.240000e-06	1.790954e-06	6.784473e-11	1.273165e+01	4.112757e+00
2.250000e-06	1.834619e-06	1.111055e-10	1.304206e+01	6.881178e+00
2.260000e-06	1.878138e-06	1.480338e-10	1.335143e+01	9.677718e+00
2.270000e-06	1.921528e-06	1.834524e-10	1.365989e+01	1.250008e+01
2.280000e-06	1.964676e-06	2.252786e-10	1.396662e+01	1.534577e+01
2.290000e-06	2.007555e-06	2.734420e-10	1.427144e+01	1.821208e+01
2.300000e-06	2.050203e-06	3.180054e-10	1.457463e+01	2.109606e+01
2.310000e-06	2.092576e-06	3.579804e-10	1.487584e+01	2.399450e+01
2.320000e-06	2.134763e-06	3.998204e-10	1.517575e+01	2.690394e+01
2.330000e-06	2.176759e-06	4.436478e-10	1.547429e+01	2.982064e+01
2.340000e-06	2.218443e-06	4.842884e-10	1.577062e+01	3.274062e+01
2.350000e-06	2.259838e-06	5.221580e-10	1.606489e+01	3.565966e+01
2.360000e-06	2.300953e-06	5.641405e-10	1.635717e+01	3.857334e+01
2.370000e-06	2.341844e-06	6.129574e-10	1.664786e+01	4.147712e+01
2.380000e-06	2.382580e-06	6.598632e-10	1.693745e+01	4.436633e+01
2.390000e-06	2.423089e-06	6.979248e-10	1.722542e+01	4.723631e+01
2.400000e-06	2.463398e-06	7.330123e-10	1.751197e+01	5.008241e+01
2.410000e-06	2.503530e-06	7.726739e-10	1.779726e+01	5.290014e+01
2.420000e-06	2.543605e-06	8.149350e-10	1.808215e+01	5.568516e+01
2.430000e-06	2.583681e-06	8.567784e-10	1.836705e+01	5.843343e+01
2.440000e-06	2.623606e-06	8.981683e-10	1.865087e+01	6.114121e+01
2.450000e-06	2.663354e-06	9.439731e-10	1.893343e+01	6.380517e+01
2.460000e-06	2.702978e-06	9.923094e-10	1.921512e+01	6.642238e+01
2.470000e-06	2.742411e-06	1.029957e-09	1.949544e+01	6.899037e+01
2.480000e-06	2.781649e-06	1.056341e-09	1.977438e+01	7.150714e+01
2.490000e-06	2.820747e-06	1.083916e-09	2.005232e+01	7.397115e+01
2.500000e-06	2.859644e-06	1.120513e-09	2.032883e+01	7.638129e+01
2.510000e-06	2.898338e-06	1.161770e-09	2.060390e+01	7.873687e+01
2.520000e-06	2.936777e-06	1.204625e-09	2.087716e+01	8.103757e+01
2.530000e-06	2.974957e-06	1.249561e-09	2.114857e+01	8.328335e+01
2.540000e-06	3.012967e-06	1.292446e-09	2.141879e+01	8.547443e+01
2.550000e-06	3.050816e-06	1.325259e-09	2.168785e+01	8.761122e+01
2.560000e-06	3.088481e-06	1.346904e-09	2.195560e+01	8.969421e+01
2.570000e-06	3.125947e-06	1.365988e-09	2.222194e+01	9.172396e+01
2.580000e-06	3.163155e-06	1.389941e-09	2.248646e+01	9.370104e+01
2.590000e-06	3.200029e-06	1.420975e-09	2.274859e+01	9.562595e+01
2.600000e-06	3.236736e-06	1.456191e-09	2.300953e+01	9.749912e+01
2.610000e-06	3.273310e-06	1.491995e-09	2.326953e+01	9.932086e+01
2.620000e-06	3.309647e-06	1.526609e-09	2.352784e+01	1.010914e+02
2.630000e-06	3.345761e-06	1.556668e-09	2.378457e+01	1.028109e+02
2.640000e-06	3.381751e-06	1.576173e-09	2.404042e+01	1.044792e+02
2.650000e-06	3.417656e-06	1.587300e-09	2.429567e+01	1.060965e+02
2.660000e-06	3.453349e-06	1.598773e-09	2.454940e+01	1.076627e+02
2.670000e-06	3.488813e-06	1.618107e-09	2.480151e+01	1.091778e+02
2.680000e-06	3.524007e-06	1.644168e-09	2.505170e+01	1.106418e+02
2.690000e-06	3.558857e-06	1.671549e-09	2.529944e+01	1.120550e+02
2.700000e-06	3.593342e-06	1.698247e-09	2.554460e+01	1.134176e+02
2.710000e-06	3.627428e-06	1.725317e-09	2.578691e+01	1.147302e+02
2.720000e-06	3.661029e-06	1.747690e-09	2.602577e+01	1.159935e+02
2.730000e-06	3.694257e-06	1.763985e-09	2.626199e+01	1.172085e+02
2.740000e-06	3.727217e-06	1.777358e-09	2.649629e+01	1.183763e+02
2.750000e-06	3.759874e-06	1.790664e-09	2.672845e+01	1.194983e+02
2.760000e-06	3.792269e-06	1.805793e-09	2.695874e+01	1.205760e+02
2.770000e-06	3.824439e-06	1.820807e-09	2.718744e+01	1.216111e+02
2.780000e-06	3.856385e-06	1.837395e-09	2.741454e+01	1.226053e+02
2.790000e-06	3.888103e-06	1.854545e-09	2.764001e+01	1.235604e+02
2.800000e-06	3.919674e-06	1.866576e-09	2.786445e+01	1.244783e+02
2.810000e-06	3.951041e-06	1.875194e-09	2.808743e+01	1.253605e+02
2.820000e-06	3.982172e-06	1.888420e-09	2.830874e+01	1.262088e+02
2.830000e-06	4.013044e-06	1.903722e-09	2.852820e+01	1.270245e+02
2.840000e-06	4.043539e-06	1.912249e-09	2.874498e+01	1.278089e+02
2.850000e-06	4.073740e-06	1.917413e-09	2.895968e+01	1.285632e+02
2.860000e-06	4.103694e-06	1.926859e-09	2.917262e+01	1.292880e+02
2.870000e-06	4.133342e-06	1.940310e-09	2.938338e+01	1.299841e+02
2.880000e-06	4.162729e-06	1.951806e-09	2.959229e+01	1.306518e+02
2.890000e-06	4.191877e-06	1.957849e-09	2.979950e+01	1.312916e+02
2.900000e-06	4.220719e-06	1.966990e-09	3.000453e+01	1.319035e+02
