# Temperatura_=_-0.71
# Concentracion g/m^3_=_4090.0
# C_Vs_to_Am_M_A/Vsm_=_65563218390.804596
# pendiente_HvsI_1/m_=_3716.3
# ordenada_HvsI_A/m_=_1297.0
# frecuencia_Hz_=_135076.7454701771

Tiempo_(s)	Campo_(V.s)	Magnetizacion_(V.s)	Campo_(kA/m)	Magnetizacion_(A/m)
0.000000e+00	-5.398349e-06	-2.055074e-09	-3.839302e+01	-1.351358e+02
1.000000e-08	-5.398477e-06	-2.051424e-09	-3.839393e+01	-1.350072e+02
2.000000e-08	-5.398420e-06	-2.042608e-09	-3.839352e+01	-1.348619e+02
3.000000e-08	-5.397992e-06	-2.031854e-09	-3.839048e+01	-1.347006e+02
4.000000e-08	-5.397210e-06	-2.026812e-09	-3.838492e+01	-1.345254e+02
5.000000e-08	-5.396014e-06	-2.031346e-09	-3.837641e+01	-1.343386e+02
6.000000e-08	-5.394045e-06	-2.048599e-09	-3.836241e+01	-1.341437e+02
7.000000e-08	-5.391363e-06	-2.067831e-09	-3.834334e+01	-1.339445e+02
8.000000e-08	-5.388186e-06	-2.033437e-09	-3.832074e+01	-1.337456e+02
9.000000e-08	-5.384529e-06	-1.962113e-09	-3.829473e+01	-1.335517e+02
1.000000e-07	-5.380516e-06	-2.020888e-09	-3.826619e+01	-1.333679e+02
1.100000e-07	-5.376239e-06	-2.136096e-09	-3.823577e+01	-1.331991e+02
1.200000e-07	-5.371769e-06	-2.075549e-09	-3.820398e+01	-1.330499e+02
1.300000e-07	-5.367071e-06	-1.914222e-09	-3.817057e+01	-1.329246e+02
1.400000e-07	-5.362050e-06	-1.981808e-09	-3.813486e+01	-1.328269e+02
1.500000e-07	-5.356586e-06	-2.168414e-09	-3.809600e+01	-1.327596e+02
1.600000e-07	-5.350620e-06	-2.096615e-09	-3.805357e+01	-1.327246e+02
1.700000e-07	-5.344281e-06	-1.863910e-09	-3.800849e+01	-1.327227e+02
1.800000e-07	-5.337705e-06	-1.945680e-09	-3.796172e+01	-1.327536e+02
1.900000e-07	-5.330734e-06	-2.148019e-09	-3.791214e+01	-1.328160e+02
2.000000e-07	-5.323344e-06	-2.104617e-09	-3.785959e+01	-1.329075e+02
2.100000e-07	-5.315815e-06	-1.949359e-09	-3.780604e+01	-1.330245e+02
2.200000e-07	-5.308145e-06	-2.048061e-09	-3.775149e+01	-1.331628e+02
2.300000e-07	-5.300168e-06	-2.149910e-09	-3.769475e+01	-1.333171e+02
2.400000e-07	-5.291666e-06	-2.041026e-09	-3.763429e+01	-1.334820e+02
2.500000e-07	-5.282641e-06	-1.990616e-09	-3.757010e+01	-1.336513e+02
2.600000e-07	-5.273021e-06	-2.120585e-09	-3.750169e+01	-1.338191e+02
2.700000e-07	-5.262681e-06	-2.137314e-09	-3.742815e+01	-1.339792e+02
2.800000e-07	-5.251787e-06	-2.000583e-09	-3.735067e+01	-1.341261e+02
2.900000e-07	-5.240509e-06	-2.043393e-09	-3.727046e+01	-1.342545e+02
3.000000e-07	-5.228836e-06	-2.144641e-09	-3.718745e+01	-1.343600e+02
3.100000e-07	-5.216749e-06	-2.050026e-09	-3.710148e+01	-1.344388e+02
3.200000e-07	-5.204257e-06	-1.962839e-09	-3.701264e+01	-1.344882e+02
3.300000e-07	-5.191347e-06	-2.096229e-09	-3.692082e+01	-1.345065e+02
3.400000e-07	-5.178010e-06	-2.127382e-09	-3.682597e+01	-1.344930e+02
3.500000e-07	-5.164293e-06	-2.033910e-09	-3.672841e+01	-1.344477e+02
3.600000e-07	-5.150228e-06	-2.036459e-09	-3.662838e+01	-1.343718e+02
3.700000e-07	-5.135746e-06	-2.104045e-09	-3.652539e+01	-1.342673e+02
3.800000e-07	-5.120792e-06	-2.027167e-09	-3.641904e+01	-1.341367e+02
3.900000e-07	-5.105275e-06	-2.008853e-09	-3.630868e+01	-1.339831e+02
4.000000e-07	-5.089253e-06	-2.061124e-09	-3.619473e+01	-1.338099e+02
4.100000e-07	-5.072775e-06	-2.042578e-09	-3.607754e+01	-1.336206e+02
4.200000e-07	-5.055853e-06	-2.006484e-09	-3.595719e+01	-1.334189e+02
4.300000e-07	-5.038630e-06	-2.082308e-09	-3.583470e+01	-1.332080e+02
4.400000e-07	-5.021145e-06	-2.089852e-09	-3.571035e+01	-1.329912e+02
4.500000e-07	-5.003402e-06	-2.010389e-09	-3.558416e+01	-1.327709e+02
4.600000e-07	-4.985346e-06	-2.007957e-09	-3.545574e+01	-1.325493e+02
4.700000e-07	-4.966914e-06	-2.054215e-09	-3.532465e+01	-1.323280e+02
4.800000e-07	-4.948100e-06	-2.025449e-09	-3.519085e+01	-1.321078e+02
4.900000e-07	-4.928949e-06	-1.996430e-09	-3.505465e+01	-1.318891e+02
5.000000e-07	-4.909511e-06	-2.016331e-09	-3.491641e+01	-1.316718e+02
5.100000e-07	-4.889765e-06	-2.028148e-09	-3.477597e+01	-1.314553e+02
5.200000e-07	-4.869790e-06	-2.031574e-09	-3.463391e+01	-1.312385e+02
5.300000e-07	-4.849553e-06	-2.024017e-09	-3.448999e+01	-1.310202e+02
5.400000e-07	-4.829031e-06	-1.999880e-09	-3.434403e+01	-1.307991e+02
5.500000e-07	-4.808282e-06	-1.994954e-09	-3.419647e+01	-1.305739e+02
5.600000e-07	-4.787119e-06	-2.021449e-09	-3.404596e+01	-1.303432e+02
5.700000e-07	-4.765480e-06	-2.009687e-09	-3.389206e+01	-1.301062e+02
5.800000e-07	-4.743603e-06	-1.984080e-09	-3.373647e+01	-1.298620e+02
5.900000e-07	-4.721513e-06	-1.979309e-09	-3.357937e+01	-1.296103e+02
6.000000e-07	-4.699055e-06	-1.990948e-09	-3.341965e+01	-1.293512e+02
6.100000e-07	-4.676175e-06	-1.986991e-09	-3.325692e+01	-1.290852e+02
6.200000e-07	-4.652915e-06	-1.974626e-09	-3.309149e+01	-1.288130e+02
6.300000e-07	-4.629417e-06	-1.957165e-09	-3.292438e+01	-1.285360e+02
6.400000e-07	-4.605743e-06	-1.973394e-09	-3.275601e+01	-1.282556e+02
6.500000e-07	-4.581869e-06	-1.990012e-09	-3.258622e+01	-1.279735e+02
6.600000e-07	-4.557796e-06	-1.976423e-09	-3.241501e+01	-1.276915e+02
6.700000e-07	-4.533441e-06	-1.947171e-09	-3.224180e+01	-1.274114e+02
6.800000e-07	-4.508647e-06	-1.948217e-09	-3.206547e+01	-1.271350e+02
6.900000e-07	-4.483344e-06	-1.947394e-09	-3.188551e+01	-1.268636e+02
7.000000e-07	-4.457481e-06	-1.933085e-09	-3.170157e+01	-1.265986e+02
7.100000e-07	-4.431063e-06	-1.917072e-09	-3.151369e+01	-1.263407e+02
7.200000e-07	-4.404179e-06	-1.923588e-09	-3.132249e+01	-1.260903e+02
7.300000e-07	-4.376922e-06	-1.939148e-09	-3.112864e+01	-1.258473e+02
7.400000e-07	-4.349409e-06	-1.944109e-09	-3.093297e+01	-1.256113e+02
7.500000e-07	-4.321689e-06	-1.924149e-09	-3.073582e+01	-1.253812e+02
7.600000e-07	-4.293772e-06	-1.911142e-09	-3.053727e+01	-1.251556e+02
7.700000e-07	-4.265621e-06	-1.914007e-09	-3.033707e+01	-1.249328e+02
7.800000e-07	-4.237267e-06	-1.906358e-09	-3.013541e+01	-1.247108e+02
7.900000e-07	-4.208689e-06	-1.883823e-09	-2.993216e+01	-1.244874e+02
8.000000e-07	-4.179730e-06	-1.873833e-09	-2.972621e+01	-1.242604e+02
8.100000e-07	-4.150420e-06	-1.881963e-09	-2.951776e+01	-1.240276e+02
8.200000e-07	-4.120801e-06	-1.890335e-09	-2.930711e+01	-1.237867e+02
8.300000e-07	-4.090935e-06	-1.886202e-09	-2.909470e+01	-1.235361e+02
8.400000e-07	-4.060881e-06	-1.873556e-09	-2.888095e+01	-1.232740e+02
8.500000e-07	-4.030518e-06	-1.869842e-09	-2.866502e+01	-1.229993e+02
8.600000e-07	-3.999943e-06	-1.868444e-09	-2.844756e+01	-1.227113e+02
8.700000e-07	-3.969245e-06	-1.858909e-09	-2.822924e+01	-1.224096e+02
8.800000e-07	-3.938232e-06	-1.839784e-09	-2.800868e+01	-1.220942e+02
8.900000e-07	-3.906908e-06	-1.832636e-09	-2.778590e+01	-1.217657e+02
9.000000e-07	-3.875353e-06	-1.835636e-09	-2.756148e+01	-1.214250e+02
9.100000e-07	-3.843617e-06	-1.839459e-09	-2.733578e+01	-1.210734e+02
9.200000e-07	-3.811695e-06	-1.831908e-09	-2.710874e+01	-1.207123e+02
9.300000e-07	-3.779560e-06	-1.828200e-09	-2.688021e+01	-1.203435e+02
9.400000e-07	-3.747193e-06	-1.831648e-09	-2.665001e+01	-1.199687e+02
9.500000e-07	-3.714403e-06	-1.831989e-09	-2.641681e+01	-1.195897e+02
9.600000e-07	-3.681239e-06	-1.815233e-09	-2.618094e+01	-1.192084e+02
9.700000e-07	-3.647751e-06	-1.796592e-09	-2.594278e+01	-1.188263e+02
9.800000e-07	-3.613742e-06	-1.787430e-09	-2.570091e+01	-1.184448e+02
9.900000e-07	-3.579318e-06	-1.786947e-09	-2.545608e+01	-1.180652e+02
1.000000e-06	-3.544557e-06	-1.781117e-09	-2.520886e+01	-1.176883e+02
1.010000e-06	-3.509349e-06	-1.775424e-09	-2.495847e+01	-1.173148e+02
1.020000e-06	-3.473827e-06	-1.773902e-09	-2.470583e+01	-1.169449e+02
1.030000e-06	-3.438199e-06	-1.775332e-09	-2.445245e+01	-1.165787e+02
1.040000e-06	-3.402489e-06	-1.768421e-09	-2.419848e+01	-1.162159e+02
1.050000e-06	-3.366632e-06	-1.755609e-09	-2.394346e+01	-1.158560e+02
1.060000e-06	-3.330614e-06	-1.744156e-09	-2.368730e+01	-1.154985e+02
1.070000e-06	-3.294418e-06	-1.738411e-09	-2.342987e+01	-1.151425e+02
1.080000e-06	-3.257997e-06	-1.733422e-09	-2.317085e+01	-1.147871e+02
1.090000e-06	-3.221299e-06	-1.727129e-09	-2.290985e+01	-1.144316e+02
1.100000e-06	-3.184286e-06	-1.722913e-09	-2.264662e+01	-1.140749e+02
1.110000e-06	-3.146955e-06	-1.722335e-09	-2.238112e+01	-1.137163e+02
1.120000e-06	-3.109382e-06	-1.720975e-09	-2.211390e+01	-1.133551e+02
1.130000e-06	-3.071678e-06	-1.712934e-09	-2.184575e+01	-1.129906e+02
1.140000e-06	-3.033874e-06	-1.702747e-09	-2.157689e+01	-1.126224e+02
1.150000e-06	-2.995853e-06	-1.696600e-09	-2.130649e+01	-1.122503e+02
1.160000e-06	-2.957606e-06	-1.695159e-09	-2.103447e+01	-1.118739e+02
1.170000e-06	-2.919174e-06	-1.690199e-09	-2.076115e+01	-1.114932e+02
1.180000e-06	-2.880423e-06	-1.681667e-09	-2.048555e+01	-1.111082e+02
1.190000e-06	-2.841512e-06	-1.671426e-09	-2.020881e+01	-1.107190e+02
1.200000e-06	-2.802454e-06	-1.667048e-09	-1.993103e+01	-1.103257e+02
1.210000e-06	-2.763109e-06	-1.665009e-09	-1.965121e+01	-1.099287e+02
1.220000e-06	-2.723649e-06	-1.661898e-09	-1.937057e+01	-1.095279e+02
1.230000e-06	-2.684118e-06	-1.658053e-09	-1.908943e+01	-1.091236e+02
1.240000e-06	-2.644469e-06	-1.655100e-09	-1.880744e+01	-1.087159e+02
1.250000e-06	-2.604684e-06	-1.650379e-09	-1.852449e+01	-1.083048e+02
1.260000e-06	-2.564816e-06	-1.644557e-09	-1.824095e+01	-1.078905e+02
1.270000e-06	-2.524875e-06	-1.633977e-09	-1.795689e+01	-1.074727e+02
1.280000e-06	-2.484803e-06	-1.624825e-09	-1.767190e+01	-1.070515e+02
1.290000e-06	-2.444544e-06	-1.617772e-09	-1.738558e+01	-1.066267e+02
1.300000e-06	-2.404127e-06	-1.612884e-09	-1.709813e+01	-1.061980e+02
1.310000e-06	-2.363567e-06	-1.606077e-09	-1.680967e+01	-1.057654e+02
1.320000e-06	-2.322723e-06	-1.598090e-09	-1.651919e+01	-1.053286e+02
1.330000e-06	-2.281569e-06	-1.590920e-09	-1.622650e+01	-1.048873e+02
1.340000e-06	-2.240165e-06	-1.584822e-09	-1.593204e+01	-1.044414e+02
1.350000e-06	-2.198478e-06	-1.578016e-09	-1.563556e+01	-1.039907e+02
1.360000e-06	-2.156486e-06	-1.570908e-09	-1.533691e+01	-1.035350e+02
1.370000e-06	-2.114172e-06	-1.565377e-09	-1.503597e+01	-1.030742e+02
1.380000e-06	-2.071570e-06	-1.560473e-09	-1.473299e+01	-1.026082e+02
1.390000e-06	-2.028739e-06	-1.553933e-09	-1.442838e+01	-1.021368e+02
1.400000e-06	-1.985732e-06	-1.544169e-09	-1.412251e+01	-1.016600e+02
1.410000e-06	-1.942604e-06	-1.533280e-09	-1.381578e+01	-1.011775e+02
1.420000e-06	-1.899300e-06	-1.522815e-09	-1.350781e+01	-1.006893e+02
1.430000e-06	-1.855785e-06	-1.513334e-09	-1.319833e+01	-1.001951e+02
1.440000e-06	-1.812181e-06	-1.504734e-09	-1.288822e+01	-9.969472e+01
1.450000e-06	-1.768512e-06	-1.497210e-09	-1.257764e+01	-9.918771e+01
1.460000e-06	-1.724737e-06	-1.494820e-09	-1.226632e+01	-9.867371e+01
1.470000e-06	-1.680909e-06	-1.494002e-09	-1.195461e+01	-9.815225e+01
1.480000e-06	-1.637024e-06	-1.487586e-09	-1.164250e+01	-9.762281e+01
1.490000e-06	-1.593067e-06	-1.476361e-09	-1.132988e+01	-9.708479e+01
1.500000e-06	-1.549038e-06	-1.466712e-09	-1.101675e+01	-9.653757e+01
1.510000e-06	-1.504985e-06	-1.460539e-09	-1.070344e+01	-9.598051e+01
1.520000e-06	-1.460924e-06	-1.448150e-09	-1.039008e+01	-9.541298e+01
1.530000e-06	-1.416786e-06	-1.430455e-09	-1.007617e+01	-9.483436e+01
1.540000e-06	-1.372432e-06	-1.415850e-09	-9.760725e+00	-9.424410e+01
1.550000e-06	-1.327972e-06	-1.408577e-09	-9.444527e+00	-9.364168e+01
1.560000e-06	-1.283530e-06	-1.402157e-09	-9.128459e+00	-9.302671e+01
1.570000e-06	-1.238968e-06	-1.395629e-09	-8.811534e+00	-9.239887e+01
1.580000e-06	-1.194246e-06	-1.388131e-09	-8.493471e+00	-9.175794e+01
1.590000e-06	-1.149484e-06	-1.379036e-09	-8.175124e+00	-9.110380e+01
1.600000e-06	-1.104641e-06	-1.365657e-09	-7.856197e+00	-9.043644e+01
1.610000e-06	-1.059727e-06	-1.347038e-09	-7.536768e+00	-8.975591e+01
1.620000e-06	-1.014769e-06	-1.328645e-09	-7.217030e+00	-8.906230e+01
1.630000e-06	-9.696818e-07	-1.317229e-09	-6.896370e+00	-8.835575e+01
1.640000e-06	-9.245148e-07	-1.309912e-09	-6.575142e+00	-8.763637e+01
1.650000e-06	-8.792836e-07	-1.303975e-09	-6.253459e+00	-8.690425e+01
1.660000e-06	-8.340374e-07	-1.295821e-09	-5.931668e+00	-8.615937e+01
1.670000e-06	-7.887669e-07	-1.287650e-09	-5.609705e+00	-8.540163e+01
1.680000e-06	-7.434668e-07	-1.277960e-09	-5.287531e+00	-8.463078e+01
1.690000e-06	-6.980972e-07	-1.262978e-09	-4.964862e+00	-8.384639e+01
1.700000e-06	-6.526209e-07	-1.243429e-09	-4.641435e+00	-8.304788e+01
1.710000e-06	-6.071320e-07	-1.227925e-09	-4.317919e+00	-8.223445e+01
1.720000e-06	-5.616077e-07	-1.219703e-09	-3.994150e+00	-8.140514e+01
1.730000e-06	-5.158995e-07	-1.213534e-09	-3.669073e+00	-8.055878e+01
1.740000e-06	-4.701454e-07	-1.204954e-09	-3.343671e+00	-7.969408e+01
1.750000e-06	-4.245163e-07	-1.194613e-09	-3.019157e+00	-7.880959e+01
1.760000e-06	-3.788806e-07	-1.182748e-09	-2.694596e+00	-7.790380e+01
1.770000e-06	-3.332510e-07	-1.164038e-09	-2.370079e+00	-7.697511e+01
1.780000e-06	-2.875888e-07	-1.141867e-09	-2.045329e+00	-7.602195e+01
1.790000e-06	-2.418571e-07	-1.123089e-09	-1.720086e+00	-7.504275e+01
1.800000e-06	-1.961692e-07	-1.110558e-09	-1.395154e+00	-7.403605e+01
1.810000e-06	-1.504974e-07	-1.098146e-09	-1.070337e+00	-7.300050e+01
1.820000e-06	-1.048146e-07	-1.080581e-09	-7.454409e-01	-7.193488e+01
1.830000e-06	-5.915826e-08	-1.061558e-09	-4.207331e-01	-7.083817e+01
1.840000e-06	-1.341405e-08	-1.045418e-09	-9.540064e-02	-6.970952e+01
1.850000e-06	3.247524e-08	-1.028977e-09	2.309636e-01	-6.854828e+01
1.860000e-06	7.834979e-08	-1.011129e-09	5.572232e-01	-6.735400e+01
1.870000e-06	1.242140e-07	-9.940544e-10	8.834094e-01	-6.612637e+01
1.880000e-06	1.700451e-07	-9.823202e-10	1.209360e+00	-6.486525e+01
1.890000e-06	2.158204e-07	-9.671119e-10	1.534913e+00	-6.357060e+01
1.900000e-06	2.615683e-07	-9.436710e-10	1.860272e+00	-6.224243e+01
1.910000e-06	3.072439e-07	-9.156030e-10	2.185117e+00	-6.088082e+01
1.920000e-06	3.529243e-07	-8.891652e-10	2.509995e+00	-5.948578e+01
1.930000e-06	3.986323e-07	-8.654296e-10	2.835070e+00	-5.805730e+01
1.940000e-06	4.443300e-07	-8.423226e-10	3.160072e+00	-5.659524e+01
1.950000e-06	4.899416e-07	-8.195784e-10	3.484461e+00	-5.509936e+01
1.960000e-06	5.353713e-07	-8.019147e-10	3.807557e+00	-5.356923e+01
1.970000e-06	5.807263e-07	-7.843843e-10	4.130121e+00	-5.200428e+01
1.980000e-06	6.261444e-07	-7.609183e-10	4.453134e+00	-5.040375e+01
1.990000e-06	6.716194e-07	-7.315395e-10	4.776552e+00	-4.876674e+01
2.000000e-06	7.170616e-07	-7.006237e-10	5.099737e+00	-4.709217e+01
2.010000e-06	7.624086e-07	-6.707063e-10	5.422244e+00	-4.537888e+01
2.020000e-06	8.076615e-07	-6.423576e-10	5.744083e+00	-4.362562e+01
2.030000e-06	8.528178e-07	-6.149064e-10	6.065234e+00	-4.183111e+01
2.040000e-06	8.979521e-07	-5.897245e-10	6.386229e+00	-3.999408e+01
2.050000e-06	9.430500e-07	-5.676189e-10	6.706964e+00	-3.811334e+01
2.060000e-06	9.880396e-07	-5.409150e-10	7.026931e+00	-3.618779e+01
2.070000e-06	1.032894e-06	-5.090614e-10	7.345934e+00	-3.421651e+01
2.080000e-06	1.077632e-06	-4.740731e-10	7.664110e+00	-3.219878e+01
2.090000e-06	1.122343e-06	-4.383298e-10	7.982092e+00	-3.013410e+01
2.100000e-06	1.166982e-06	-4.033044e-10	8.299567e+00	-2.802221e+01
2.110000e-06	1.211539e-06	-3.696617e-10	8.616455e+00	-2.586315e+01
2.120000e-06	1.256029e-06	-3.365661e-10	8.932867e+00	-2.365720e+01
2.130000e-06	1.300397e-06	-3.058659e-10	9.248411e+00	-2.140492e+01
2.140000e-06	1.344657e-06	-2.753680e-10	9.563187e+00	-1.910711e+01
2.150000e-06	1.388807e-06	-2.421828e-10	9.877185e+00	-1.676480e+01
2.160000e-06	1.432910e-06	-2.065738e-10	1.019085e+01	-1.437920e+01
2.170000e-06	1.477031e-06	-1.686748e-10	1.050464e+01	-1.195170e+01
2.180000e-06	1.521138e-06	-1.295633e-10	1.081832e+01	-9.483839e+00
2.190000e-06	1.565190e-06	-9.117736e-11	1.113162e+01	-6.977231e+00
2.200000e-06	1.609124e-06	-5.155872e-11	1.144408e+01	-4.433586e+00
2.210000e-06	1.652976e-06	-1.353759e-11	1.175595e+01	-1.854666e+00
2.220000e-06	1.696772e-06	2.281693e-11	1.206743e+01	7.577208e-01
2.230000e-06	1.740465e-06	6.076515e-11	1.237817e+01	3.401731e+00
2.240000e-06	1.784104e-06	1.024160e-10	1.268854e+01	6.075481e+00
2.250000e-06	1.827694e-06	1.426724e-10	1.299855e+01	8.777037e+00
2.260000e-06	1.871182e-06	1.815560e-10	1.330783e+01	1.150440e+01
2.270000e-06	1.914522e-06	2.240077e-10	1.361607e+01	1.425547e+01
2.280000e-06	1.957574e-06	2.695245e-10	1.392225e+01	1.702803e+01
2.290000e-06	2.000463e-06	3.143685e-10	1.422728e+01	1.981973e+01
2.300000e-06	2.043351e-06	3.549292e-10	1.453229e+01	2.262803e+01
2.310000e-06	2.085978e-06	3.948819e-10	1.483546e+01	2.545018e+01
2.320000e-06	2.128158e-06	4.384709e-10	1.513545e+01	2.828321e+01
2.330000e-06	2.170149e-06	4.819158e-10	1.543408e+01	3.112393e+01
2.340000e-06	2.211931e-06	5.196512e-10	1.573124e+01	3.396887e+01
2.350000e-06	2.253324e-06	5.555080e-10	1.602562e+01	3.681436e+01
2.360000e-06	2.294389e-06	5.985359e-10	1.631767e+01	3.965648e+01
2.370000e-06	2.335188e-06	6.448539e-10	1.660784e+01	4.249115e+01
2.380000e-06	2.375921e-06	6.856691e-10	1.689753e+01	4.531413e+01
2.390000e-06	2.416531e-06	7.247319e-10	1.718635e+01	4.812104e+01
2.400000e-06	2.456797e-06	7.671955e-10	1.747272e+01	5.090751e+01
2.410000e-06	2.496866e-06	8.108237e-10	1.775769e+01	5.366915e+01
2.420000e-06	2.536897e-06	8.514066e-10	1.804239e+01	5.640163e+01
2.430000e-06	2.576826e-06	8.900027e-10	1.832637e+01	5.910081e+01
2.440000e-06	2.616620e-06	9.298568e-10	1.860938e+01	6.176272e+01
2.450000e-06	2.656269e-06	9.703133e-10	1.889137e+01	6.438364e+01
2.460000e-06	2.695849e-06	1.007688e-09	1.917286e+01	6.696019e+01
2.470000e-06	2.735383e-06	1.040097e-09	1.945403e+01	6.948931e+01
2.480000e-06	2.774720e-06	1.074608e-09	1.973379e+01	7.196833e+01
2.490000e-06	2.813729e-06	1.116655e-09	2.001122e+01	7.439495e+01
2.500000e-06	2.852505e-06	1.157607e-09	2.028700e+01	7.676728e+01
2.510000e-06	2.891130e-06	1.194303e-09	2.056170e+01	7.908381e+01
2.520000e-06	2.929597e-06	1.231191e-09	2.083527e+01	8.134341e+01
2.530000e-06	2.967897e-06	1.268669e-09	2.110766e+01	8.354525e+01
2.540000e-06	3.005975e-06	1.301465e-09	2.137847e+01	8.568885e+01
2.550000e-06	3.043874e-06	1.326284e-09	2.164801e+01	8.777396e+01
2.560000e-06	3.081564e-06	1.348419e-09	2.191606e+01	8.980056e+01
2.570000e-06	3.118994e-06	1.376076e-09	2.218226e+01	9.176880e+01
2.580000e-06	3.156160e-06	1.407691e-09	2.244658e+01	9.367897e+01
2.590000e-06	3.193193e-06	1.437750e-09	2.270997e+01	9.553146e+01
2.600000e-06	3.229973e-06	1.468039e-09	2.297154e+01	9.732674e+01
2.610000e-06	3.266385e-06	1.499427e-09	2.323051e+01	9.906530e+01
2.620000e-06	3.302641e-06	1.529244e-09	2.348836e+01	1.007477e+02
2.630000e-06	3.338761e-06	1.554774e-09	2.374525e+01	1.023744e+02
2.640000e-06	3.374680e-06	1.573751e-09	2.400070e+01	1.039461e+02
2.650000e-06	3.410416e-06	1.589488e-09	2.425486e+01	1.054634e+02
2.660000e-06	3.446065e-06	1.606955e-09	2.450839e+01	1.069268e+02
2.670000e-06	3.481557e-06	1.625609e-09	2.476081e+01	1.083372e+02
2.680000e-06	3.516854e-06	1.644432e-09	2.501184e+01	1.096952e+02
2.690000e-06	3.551918e-06	1.669086e-09	2.526122e+01	1.110018e+02
2.700000e-06	3.586638e-06	1.699223e-09	2.550814e+01	1.122578e+02
2.710000e-06	3.620930e-06	1.727637e-09	2.575203e+01	1.134645e+02
2.720000e-06	3.654765e-06	1.747727e-09	2.599266e+01	1.146228e+02
2.730000e-06	3.688213e-06	1.761253e-09	2.623055e+01	1.157342e+02
2.740000e-06	3.721224e-06	1.771647e-09	2.646532e+01	1.168001e+02
2.750000e-06	3.753826e-06	1.779772e-09	2.669718e+01	1.178218e+02
2.760000e-06	3.786183e-06	1.789397e-09	2.692731e+01	1.188009e+02
2.770000e-06	3.818271e-06	1.802917e-09	2.715552e+01	1.197390e+02
2.780000e-06	3.850157e-06	1.824955e-09	2.738229e+01	1.206377e+02
2.790000e-06	3.881927e-06	1.850134e-09	2.760824e+01	1.214984e+02
2.800000e-06	3.913478e-06	1.866624e-09	2.783263e+01	1.223227e+02
2.810000e-06	3.944825e-06	1.873764e-09	2.805557e+01	1.231119e+02
2.820000e-06	3.975964e-06	1.877941e-09	2.827703e+01	1.238674e+02
2.830000e-06	4.006751e-06	1.883145e-09	2.849599e+01	1.245903e+02
2.840000e-06	4.037104e-06	1.889396e-09	2.871185e+01	1.252816e+02
2.850000e-06	4.067180e-06	1.898445e-09	2.892575e+01	1.259423e+02
2.860000e-06	4.097089e-06	1.912140e-09	2.913847e+01	1.265730e+02
2.870000e-06	4.126802e-06	1.928911e-09	2.934979e+01	1.271745e+02
2.880000e-06	4.156269e-06	1.943767e-09	2.955935e+01	1.277473e+02
2.890000e-06	4.185437e-06	1.952470e-09	2.976680e+01	1.282919e+02
2.900000e-06	4.214330e-06	1.958251e-09	2.997229e+01	1.288090e+02
