# Temperatura_=_10.98
# Concentracion g/m^3_=_4090.0
# C_Vs_to_Am_M_A/Vsm_=_65563218390.804596
# pendiente_HvsI_1/m_=_3716.3
# ordenada_HvsI_A/m_=_1297.0
# frecuencia_Hz_=_135086.9765148104

Tiempo_(s)	Campo_(V.s)	Magnetizacion_(V.s)	Campo_(kA/m)	Magnetizacion_(A/m)
0.000000e+00	-5.403666e-06	-1.248365e-09	-3.837466e+01	-8.552158e+01
1.000000e-08	-5.403802e-06	-1.245038e-09	-3.837563e+01	-8.536163e+01
2.000000e-08	-5.403709e-06	-1.238577e-09	-3.837497e+01	-8.518597e+01
3.000000e-08	-5.403330e-06	-1.231015e-09	-3.837228e+01	-8.499593e+01
4.000000e-08	-5.402600e-06	-1.227634e-09	-3.836709e+01	-8.479375e+01
5.000000e-08	-5.401418e-06	-1.228932e-09	-3.835870e+01	-8.458258e+01
6.000000e-08	-5.399569e-06	-1.235883e-09	-3.834557e+01	-8.436641e+01
7.000000e-08	-5.397113e-06	-1.250610e-09	-3.832813e+01	-8.414999e+01
8.000000e-08	-5.394082e-06	-1.226496e-09	-3.830660e+01	-8.393872e+01
9.000000e-08	-5.390425e-06	-1.170121e-09	-3.828063e+01	-8.373841e+01
1.000000e-07	-5.386322e-06	-1.226421e-09	-3.825149e+01	-8.355517e+01
1.100000e-07	-5.381936e-06	-1.330319e-09	-3.822035e+01	-8.339509e+01
1.200000e-07	-5.377410e-06	-1.263482e-09	-3.818821e+01	-8.326407e+01
1.300000e-07	-5.372682e-06	-1.139522e-09	-3.815463e+01	-8.316756e+01
1.400000e-07	-5.367590e-06	-1.186420e-09	-3.811847e+01	-8.311028e+01
1.500000e-07	-5.362036e-06	-1.351463e-09	-3.807903e+01	-8.309608e+01
1.600000e-07	-5.356111e-06	-1.274018e-09	-3.803695e+01	-8.312767e+01
1.700000e-07	-5.349946e-06	-1.087693e-09	-3.799317e+01	-8.320654e+01
1.800000e-07	-5.343329e-06	-1.174551e-09	-3.794618e+01	-8.333278e+01
1.900000e-07	-5.336233e-06	-1.356645e-09	-3.789578e+01	-8.350510e+01
2.000000e-07	-5.328881e-06	-1.319147e-09	-3.784357e+01	-8.372078e+01
2.100000e-07	-5.321281e-06	-1.187424e-09	-3.778960e+01	-8.397572e+01
2.200000e-07	-5.313393e-06	-1.302064e-09	-3.773358e+01	-8.426461e+01
2.300000e-07	-5.305238e-06	-1.404240e-09	-3.767567e+01	-8.458101e+01
2.400000e-07	-5.296722e-06	-1.331314e-09	-3.761519e+01	-8.491762e+01
2.500000e-07	-5.287672e-06	-1.298947e-09	-3.755092e+01	-8.526648e+01
2.600000e-07	-5.278057e-06	-1.429479e-09	-3.748264e+01	-8.561928e+01
2.700000e-07	-5.267791e-06	-1.437291e-09	-3.740973e+01	-8.596758e+01
2.800000e-07	-5.256945e-06	-1.339276e-09	-3.733271e+01	-8.630314e+01
2.900000e-07	-5.245606e-06	-1.382426e-09	-3.725218e+01	-8.661821e+01
3.000000e-07	-5.233826e-06	-1.465587e-09	-3.716853e+01	-8.690571e+01
3.100000e-07	-5.221725e-06	-1.377742e-09	-3.708259e+01	-8.715955e+01
3.200000e-07	-5.209283e-06	-1.330449e-09	-3.699423e+01	-8.737470e+01
3.300000e-07	-5.196344e-06	-1.448596e-09	-3.690234e+01	-8.754745e+01
3.400000e-07	-5.183018e-06	-1.456775e-09	-3.680771e+01	-8.767536e+01
3.500000e-07	-5.169367e-06	-1.367023e-09	-3.671077e+01	-8.775739e+01
3.600000e-07	-5.155349e-06	-1.398765e-09	-3.661121e+01	-8.779382e+01
3.700000e-07	-5.140985e-06	-1.448343e-09	-3.650921e+01	-8.778615e+01
3.800000e-07	-5.126171e-06	-1.364981e-09	-3.640400e+01	-8.773704e+01
3.900000e-07	-5.110798e-06	-1.351875e-09	-3.629483e+01	-8.765007e+01
4.000000e-07	-5.094676e-06	-1.413019e-09	-3.618034e+01	-8.752957e+01
4.100000e-07	-5.077994e-06	-1.385964e-09	-3.606187e+01	-8.738041e+01
4.200000e-07	-5.061036e-06	-1.351430e-09	-3.594145e+01	-8.720774e+01
4.300000e-07	-5.043742e-06	-1.421316e-09	-3.581863e+01	-8.701681e+01
4.400000e-07	-5.026135e-06	-1.420797e-09	-3.569359e+01	-8.681267e+01
4.500000e-07	-5.008308e-06	-1.353507e-09	-3.556699e+01	-8.660007e+01
4.600000e-07	-4.990270e-06	-1.357606e-09	-3.543889e+01	-8.638323e+01
4.700000e-07	-4.971878e-06	-1.393489e-09	-3.530828e+01	-8.616570e+01
4.800000e-07	-4.953019e-06	-1.355025e-09	-3.517435e+01	-8.595032e+01
4.900000e-07	-4.933745e-06	-1.341719e-09	-3.503748e+01	-8.573915e+01
5.000000e-07	-4.914163e-06	-1.355701e-09	-3.489841e+01	-8.553344e+01
5.100000e-07	-4.894357e-06	-1.355535e-09	-3.475776e+01	-8.533370e+01
5.200000e-07	-4.874309e-06	-1.357627e-09	-3.461538e+01	-8.513976e+01
5.300000e-07	-4.854062e-06	-1.368041e-09	-3.447160e+01	-8.495087e+01
5.400000e-07	-4.833551e-06	-1.343934e-09	-3.432594e+01	-8.476582e+01
5.500000e-07	-4.812700e-06	-1.338992e-09	-3.417786e+01	-8.458309e+01
5.600000e-07	-4.791459e-06	-1.355544e-09	-3.402702e+01	-8.440102e+01
5.700000e-07	-4.769829e-06	-1.342960e-09	-3.387341e+01	-8.421789e+01
5.800000e-07	-4.747889e-06	-1.314309e-09	-3.371760e+01	-8.403213e+01
5.900000e-07	-4.725643e-06	-1.314009e-09	-3.355962e+01	-8.384239e+01
6.000000e-07	-4.703089e-06	-1.322001e-09	-3.339945e+01	-8.364764e+01
6.100000e-07	-4.680234e-06	-1.325489e-09	-3.323714e+01	-8.344725e+01
6.200000e-07	-4.657002e-06	-1.321334e-09	-3.307216e+01	-8.324101e+01
6.300000e-07	-4.633452e-06	-1.310144e-09	-3.290491e+01	-8.302913e+01
6.400000e-07	-4.609665e-06	-1.317041e-09	-3.273599e+01	-8.281223e+01
6.500000e-07	-4.585665e-06	-1.327981e-09	-3.256555e+01	-8.259129e+01
6.600000e-07	-4.561525e-06	-1.312941e-09	-3.239412e+01	-8.236756e+01
6.700000e-07	-4.537142e-06	-1.287063e-09	-3.222096e+01	-8.214245e+01
6.800000e-07	-4.512330e-06	-1.289716e-09	-3.204475e+01	-8.191749e+01
6.900000e-07	-4.487042e-06	-1.299466e-09	-3.186517e+01	-8.169414e+01
7.000000e-07	-4.461329e-06	-1.297962e-09	-3.168257e+01	-8.147375e+01
7.100000e-07	-4.435078e-06	-1.286347e-09	-3.149614e+01	-8.125747e+01
7.200000e-07	-4.408260e-06	-1.288071e-09	-3.130569e+01	-8.104610e+01
7.300000e-07	-4.381055e-06	-1.296636e-09	-3.111249e+01	-8.084014e+01
7.400000e-07	-4.353489e-06	-1.298955e-09	-3.091673e+01	-8.063965e+01
7.500000e-07	-4.325583e-06	-1.280038e-09	-3.071855e+01	-8.044432e+01
7.600000e-07	-4.297499e-06	-1.270215e-09	-3.051911e+01	-8.025344e+01
7.700000e-07	-4.269321e-06	-1.273479e-09	-3.031900e+01	-8.006598e+01
7.800000e-07	-4.240963e-06	-1.276442e-09	-3.011761e+01	-7.988061e+01
7.900000e-07	-4.212353e-06	-1.263083e-09	-2.991444e+01	-7.969582e+01
8.000000e-07	-4.183469e-06	-1.256525e-09	-2.970932e+01	-7.950997e+01
8.100000e-07	-4.154126e-06	-1.260294e-09	-2.950093e+01	-7.932142e+01
8.200000e-07	-4.124404e-06	-1.267436e-09	-2.928986e+01	-7.912861e+01
8.300000e-07	-4.094501e-06	-1.260443e-09	-2.907750e+01	-7.893018e+01
8.400000e-07	-4.064371e-06	-1.245374e-09	-2.886353e+01	-7.872500e+01
8.500000e-07	-4.033905e-06	-1.238332e-09	-2.864717e+01	-7.851228e+01
8.600000e-07	-4.003144e-06	-1.243049e-09	-2.842872e+01	-7.829159e+01
8.700000e-07	-3.972115e-06	-1.242138e-09	-2.820836e+01	-7.806289e+01
8.800000e-07	-3.940865e-06	-1.231373e-09	-2.798644e+01	-7.782653e+01
8.900000e-07	-3.909396e-06	-1.225956e-09	-2.776296e+01	-7.758320e+01
9.000000e-07	-3.877719e-06	-1.229349e-09	-2.753800e+01	-7.733394e+01
9.100000e-07	-3.845925e-06	-1.227605e-09	-2.731221e+01	-7.708002e+01
9.200000e-07	-3.813900e-06	-1.214052e-09	-2.708478e+01	-7.682286e+01
9.300000e-07	-3.781666e-06	-1.205588e-09	-2.685587e+01	-7.656399e+01
9.400000e-07	-3.749223e-06	-1.212287e-09	-2.662547e+01	-7.630491e+01
9.500000e-07	-3.716494e-06	-1.221179e-09	-2.639305e+01	-7.604702e+01
9.600000e-07	-3.683435e-06	-1.217884e-09	-2.615828e+01	-7.579152e+01
9.700000e-07	-3.649953e-06	-1.208699e-09	-2.592050e+01	-7.553935e+01
9.800000e-07	-3.616028e-06	-1.203593e-09	-2.567958e+01	-7.529115e+01
9.900000e-07	-3.581573e-06	-1.200692e-09	-2.543489e+01	-7.504718e+01
1.000000e-06	-3.546622e-06	-1.191165e-09	-2.518669e+01	-7.480734e+01
1.010000e-06	-3.511407e-06	-1.182897e-09	-2.493660e+01	-7.457117e+01
1.020000e-06	-3.475959e-06	-1.181736e-09	-2.468486e+01	-7.433790e+01
1.030000e-06	-3.440260e-06	-1.186557e-09	-2.443135e+01	-7.410646e+01
1.040000e-06	-3.404373e-06	-1.185049e-09	-2.417649e+01	-7.387558e+01
1.050000e-06	-3.368361e-06	-1.179477e-09	-2.392074e+01	-7.364386e+01
1.060000e-06	-3.332241e-06	-1.171474e-09	-2.366423e+01	-7.340985e+01
1.070000e-06	-3.295944e-06	-1.165662e-09	-2.340647e+01	-7.317217e+01
1.080000e-06	-3.259484e-06	-1.156965e-09	-2.314755e+01	-7.292958e+01
1.090000e-06	-3.222815e-06	-1.148662e-09	-2.288714e+01	-7.268103e+01
1.100000e-06	-3.185909e-06	-1.145395e-09	-2.262504e+01	-7.242579e+01
1.110000e-06	-3.148733e-06	-1.149658e-09	-2.236104e+01	-7.216346e+01
1.120000e-06	-3.111312e-06	-1.151230e-09	-2.209529e+01	-7.189398e+01
1.130000e-06	-3.073676e-06	-1.145437e-09	-2.182801e+01	-7.161771e+01
1.140000e-06	-3.035822e-06	-1.138103e-09	-2.155919e+01	-7.133534e+01
1.150000e-06	-2.997811e-06	-1.135465e-09	-2.128925e+01	-7.104790e+01
1.160000e-06	-2.959614e-06	-1.130556e-09	-2.101799e+01	-7.075670e+01
1.170000e-06	-2.921156e-06	-1.122243e-09	-2.074488e+01	-7.046324e+01
1.180000e-06	-2.882449e-06	-1.116327e-09	-2.046999e+01	-7.016915e+01
1.190000e-06	-2.843504e-06	-1.113720e-09	-2.019342e+01	-6.987609e+01
1.200000e-06	-2.804351e-06	-1.110646e-09	-1.991537e+01	-6.958565e+01
1.210000e-06	-2.764975e-06	-1.105064e-09	-1.963574e+01	-6.929928e+01
1.220000e-06	-2.725465e-06	-1.099653e-09	-1.935516e+01	-6.901818e+01
1.230000e-06	-2.685863e-06	-1.099167e-09	-1.907392e+01	-6.874327e+01
1.240000e-06	-2.646062e-06	-1.099271e-09	-1.879127e+01	-6.847508e+01
1.250000e-06	-2.606183e-06	-1.094468e-09	-1.850806e+01	-6.821380e+01
1.260000e-06	-2.566220e-06	-1.087610e-09	-1.822426e+01	-6.795917e+01
1.270000e-06	-2.526165e-06	-1.080608e-09	-1.793981e+01	-6.771056e+01
1.280000e-06	-2.485984e-06	-1.077607e-09	-1.765446e+01	-6.746697e+01
1.290000e-06	-2.445704e-06	-1.074163e-09	-1.736841e+01	-6.722708e+01
1.300000e-06	-2.405348e-06	-1.067741e-09	-1.708182e+01	-6.698933e+01
1.310000e-06	-2.364775e-06	-1.061464e-09	-1.679368e+01	-6.675195e+01
1.320000e-06	-2.323948e-06	-1.059619e-09	-1.650374e+01	-6.651309e+01
1.330000e-06	-2.282854e-06	-1.058598e-09	-1.621191e+01	-6.627090e+01
1.340000e-06	-2.241499e-06	-1.056458e-09	-1.591823e+01	-6.602357e+01
1.350000e-06	-2.200050e-06	-1.051351e-09	-1.562387e+01	-6.576945e+01
1.360000e-06	-2.158364e-06	-1.044854e-09	-1.532783e+01	-6.550712e+01
1.370000e-06	-2.116235e-06	-1.039356e-09	-1.502865e+01	-6.523540e+01
1.380000e-06	-2.073718e-06	-1.035538e-09	-1.472671e+01	-6.495340e+01
1.390000e-06	-2.030888e-06	-1.029507e-09	-1.442255e+01	-6.466057e+01
1.400000e-06	-1.987906e-06	-1.023170e-09	-1.411731e+01	-6.435665e+01
1.410000e-06	-1.944852e-06	-1.018131e-09	-1.381155e+01	-6.404169e+01
1.420000e-06	-1.901673e-06	-1.014466e-09	-1.350492e+01	-6.371597e+01
1.430000e-06	-1.858295e-06	-1.010590e-09	-1.319686e+01	-6.337999e+01
1.440000e-06	-1.814765e-06	-1.006948e-09	-1.288773e+01	-6.303440e+01
1.450000e-06	-1.771072e-06	-1.001980e-09	-1.257744e+01	-6.267992e+01
1.460000e-06	-1.727205e-06	-9.973850e-10	-1.226591e+01	-6.231729e+01
1.470000e-06	-1.683276e-06	-9.919100e-10	-1.195395e+01	-6.194718e+01
1.480000e-06	-1.639263e-06	-9.847803e-10	-1.164138e+01	-6.157018e+01
1.490000e-06	-1.595174e-06	-9.797187e-10	-1.132828e+01	-6.118668e+01
1.500000e-06	-1.551070e-06	-9.750996e-10	-1.101508e+01	-6.079692e+01
1.510000e-06	-1.506917e-06	-9.711322e-10	-1.070152e+01	-6.040089e+01
1.520000e-06	-1.462727e-06	-9.644049e-10	-1.038770e+01	-5.999839e+01
1.530000e-06	-1.418458e-06	-9.535643e-10	-1.007332e+01	-5.958898e+01
1.540000e-06	-1.374024e-06	-9.421855e-10	-9.757768e+00	-5.917205e+01
1.550000e-06	-1.329592e-06	-9.331563e-10	-9.442230e+00	-5.874685e+01
1.560000e-06	-1.285151e-06	-9.269360e-10	-9.126623e+00	-5.831253e+01
1.570000e-06	-1.240614e-06	-9.239285e-10	-8.810342e+00	-5.786818e+01
1.580000e-06	-1.195949e-06	-9.218398e-10	-8.493149e+00	-5.741292e+01
1.590000e-06	-1.151175e-06	-9.189908e-10	-8.175180e+00	-5.694592e+01
1.600000e-06	-1.106357e-06	-9.133728e-10	-7.856903e+00	-5.646649e+01
1.610000e-06	-1.061481e-06	-9.021578e-10	-7.538212e+00	-5.597410e+01
1.620000e-06	-1.016533e-06	-8.872418e-10	-7.219008e+00	-5.546839e+01
1.630000e-06	-9.715215e-07	-8.752870e-10	-6.899355e+00	-5.494923e+01
1.640000e-06	-9.264247e-07	-8.670998e-10	-6.579096e+00	-5.441669e+01
1.650000e-06	-8.811192e-07	-8.604578e-10	-6.257354e+00	-5.387106e+01
1.660000e-06	-8.357546e-07	-8.528877e-10	-5.935193e+00	-5.331277e+01
1.670000e-06	-7.903846e-07	-8.479613e-10	-5.612993e+00	-5.274241e+01
1.680000e-06	-7.449251e-07	-8.453009e-10	-5.290159e+00	-5.216061e+01
1.690000e-06	-6.994352e-07	-8.370911e-10	-4.967107e+00	-5.156805e+01
1.700000e-06	-6.539332e-07	-8.209148e-10	-4.643971e+00	-5.096534e+01
1.710000e-06	-6.083710e-07	-8.038924e-10	-4.320407e+00	-5.035298e+01
1.720000e-06	-5.627933e-07	-7.928478e-10	-3.996732e+00	-4.973129e+01
1.730000e-06	-5.171892e-07	-7.859430e-10	-3.672870e+00	-4.910037e+01
1.740000e-06	-4.715333e-07	-7.773781e-10	-3.348640e+00	-4.846004e+01
1.750000e-06	-4.257714e-07	-7.681886e-10	-3.023657e+00	-4.780978e+01
1.760000e-06	-3.799064e-07	-7.608578e-10	-2.697942e+00	-4.714880e+01
1.770000e-06	-3.340519e-07	-7.497260e-10	-2.372303e+00	-4.647595e+01
1.780000e-06	-2.882714e-07	-7.342453e-10	-2.047188e+00	-4.578979e+01
1.790000e-06	-2.425132e-07	-7.183537e-10	-1.722231e+00	-4.508861e+01
1.800000e-06	-1.967008e-07	-7.054736e-10	-1.396890e+00	-4.437049e+01
1.810000e-06	-1.508602e-07	-6.945997e-10	-1.071349e+00	-4.363332e+01
1.820000e-06	-1.050222e-07	-6.819820e-10	-7.458254e-01	-4.287494e+01
1.830000e-06	-5.921543e-08	-6.681754e-10	-4.205242e-01	-4.209315e+01
1.840000e-06	-1.339927e-08	-6.562483e-10	-9.515626e-02	-4.128582e+01
1.850000e-06	3.233850e-08	-6.467956e-10	2.296550e-01	-4.045095e+01
1.860000e-06	7.803472e-08	-6.357990e-10	5.541713e-01	-3.958675e+01
1.870000e-06	1.238502e-07	-6.217867e-10	8.795343e-01	-3.869168e+01
1.880000e-06	1.696782e-07	-6.089167e-10	1.204986e+00	-3.776451e+01
1.890000e-06	2.154932e-07	-5.954511e-10	1.530346e+00	-3.680432e+01
1.900000e-06	2.613379e-07	-5.754352e-10	1.855917e+00	-3.581057e+01
1.910000e-06	3.072693e-07	-5.499972e-10	2.182103e+00	-3.478304e+01
1.920000e-06	3.531616e-07	-5.262258e-10	2.508012e+00	-3.372181e+01
1.930000e-06	3.988728e-07	-5.081076e-10	2.832635e+00	-3.262729e+01
1.940000e-06	4.445336e-07	-4.915297e-10	3.156899e+00	-3.150010e+01
1.950000e-06	4.901970e-07	-4.728898e-10	3.481182e+00	-3.034105e+01
1.960000e-06	5.358176e-07	-4.560131e-10	3.805161e+00	-2.915108e+01
1.970000e-06	5.813924e-07	-4.406599e-10	4.128815e+00	-2.793119e+01
1.980000e-06	6.269404e-07	-4.226946e-10	4.452279e+00	-2.668236e+01
1.990000e-06	6.724051e-07	-3.994636e-10	4.775151e+00	-2.540552e+01
2.000000e-06	7.178994e-07	-3.722097e-10	5.098233e+00	-2.410151e+01
2.010000e-06	7.633824e-07	-3.457356e-10	5.421235e+00	-2.277100e+01
2.020000e-06	8.087498e-07	-3.240440e-10	5.743416e+00	-2.141449e+01
2.030000e-06	8.540679e-07	-3.030921e-10	6.065247e+00	-2.003229e+01
2.040000e-06	8.993135e-07	-2.811233e-10	6.386563e+00	-1.862454e+01
2.050000e-06	9.444973e-07	-2.608877e-10	6.707441e+00	-1.719121e+01
2.060000e-06	9.896129e-07	-2.421464e-10	7.027833e+00	-1.573212e+01
2.070000e-06	1.034637e-06	-2.204590e-10	7.347577e+00	-1.424702e+01
2.080000e-06	1.079561e-06	-1.908344e-10	7.666608e+00	-1.273559e+01
2.090000e-06	1.124408e-06	-1.594152e-10	7.985092e+00	-1.119751e+01
2.100000e-06	1.169211e-06	-1.304309e-10	8.303267e+00	-9.632548e+00
2.110000e-06	1.213827e-06	-1.062315e-10	8.620112e+00	-8.040563e+00
2.120000e-06	1.258286e-06	-8.257029e-11	8.935841e+00	-6.421593e+00
2.130000e-06	1.302724e-06	-6.255254e-11	9.251424e+00	-4.775885e+00
2.140000e-06	1.347079e-06	-4.653680e-11	9.566412e+00	-3.103935e+00
2.150000e-06	1.391371e-06	-2.723882e-11	9.880955e+00	-1.406510e+00
2.160000e-06	1.435703e-06	-1.072843e-12	1.019579e+01	3.153352e-01
2.170000e-06	1.480033e-06	3.536565e-11	1.051060e+01	2.060261e+00
2.180000e-06	1.524265e-06	7.165851e-11	1.082471e+01	3.826650e+00
2.190000e-06	1.568371e-06	1.022907e-10	1.113794e+01	5.612628e+00
2.200000e-06	1.612404e-06	1.265145e-10	1.145064e+01	7.416093e+00
2.210000e-06	1.656393e-06	1.464841e-10	1.176304e+01	9.234757e+00
2.220000e-06	1.700338e-06	1.665825e-10	1.207512e+01	1.106618e+01
2.230000e-06	1.744218e-06	1.913941e-10	1.238673e+01	1.290782e+01
2.240000e-06	1.788018e-06	2.247337e-10	1.269778e+01	1.475707e+01
2.250000e-06	1.831721e-06	2.636528e-10	1.300815e+01	1.661132e+01
2.260000e-06	1.875193e-06	3.012369e-10	1.331687e+01	1.846795e+01
2.270000e-06	1.918528e-06	3.332490e-10	1.362462e+01	2.032440e+01
2.280000e-06	1.961718e-06	3.594286e-10	1.393133e+01	2.217821e+01
2.290000e-06	2.004667e-06	3.822157e-10	1.423634e+01	2.402695e+01
2.300000e-06	2.047500e-06	4.015615e-10	1.454052e+01	2.586834e+01
2.310000e-06	2.090169e-06	4.247281e-10	1.484354e+01	2.770017e+01
2.320000e-06	2.132608e-06	4.581841e-10	1.514492e+01	2.952032e+01
2.330000e-06	2.174759e-06	4.953040e-10	1.544427e+01	3.132676e+01
2.340000e-06	2.216510e-06	5.261373e-10	1.574076e+01	3.311754e+01
2.350000e-06	2.257936e-06	5.506224e-10	1.603495e+01	3.489074e+01
2.360000e-06	2.299094e-06	5.739574e-10	1.632724e+01	3.664451e+01
2.370000e-06	2.339964e-06	5.996396e-10	1.661749e+01	3.837702e+01
2.380000e-06	2.380627e-06	6.234781e-10	1.690626e+01	4.008644e+01
2.390000e-06	2.421124e-06	6.457022e-10	1.719385e+01	4.177102e+01
2.400000e-06	2.461454e-06	6.706338e-10	1.748025e+01	4.342897e+01
2.410000e-06	2.501705e-06	6.990342e-10	1.776610e+01	4.505858e+01
2.420000e-06	2.541889e-06	7.301692e-10	1.805148e+01	4.665818e+01
2.430000e-06	2.581971e-06	7.590335e-10	1.833612e+01	4.822615e+01
2.440000e-06	2.621921e-06	7.841623e-10	1.861983e+01	4.976100e+01
2.450000e-06	2.661724e-06	8.051864e-10	1.890249e+01	5.126133e+01
2.460000e-06	2.701411e-06	8.250607e-10	1.918434e+01	5.272589e+01
2.470000e-06	2.740957e-06	8.421023e-10	1.946518e+01	5.415363e+01
2.480000e-06	2.780392e-06	8.590507e-10	1.974523e+01	5.554367e+01
2.490000e-06	2.819617e-06	8.796568e-10	2.002379e+01	5.689536e+01
2.500000e-06	2.858542e-06	9.040257e-10	2.030022e+01	5.820827e+01
2.510000e-06	2.897263e-06	9.276761e-10	2.057520e+01	5.948221e+01
2.520000e-06	2.935705e-06	9.503500e-10	2.084820e+01	6.071722e+01
2.530000e-06	2.973927e-06	9.742784e-10	2.111963e+01	6.191357e+01
2.540000e-06	3.012027e-06	9.987672e-10	2.139020e+01	6.307174e+01
2.550000e-06	3.049977e-06	1.016289e-09	2.165971e+01	6.419238e+01
2.560000e-06	3.087694e-06	1.026777e-09	2.192756e+01	6.527630e+01
2.570000e-06	3.125169e-06	1.037279e-09	2.219369e+01	6.632443e+01
2.580000e-06	3.162377e-06	1.049550e-09	2.245793e+01	6.733777e+01
2.590000e-06	3.199325e-06	1.061415e-09	2.272032e+01	6.831739e+01
2.600000e-06	3.236149e-06	1.075380e-09	2.298183e+01	6.926434e+01
2.610000e-06	3.272707e-06	1.097047e-09	2.324145e+01	7.017967e+01
2.620000e-06	3.309082e-06	1.122526e-09	2.349977e+01	7.106436e+01
2.630000e-06	3.345339e-06	1.144545e-09	2.375725e+01	7.191933e+01
2.640000e-06	3.381432e-06	1.158165e-09	2.401357e+01	7.274541e+01
2.650000e-06	3.417349e-06	1.164165e-09	2.426864e+01	7.354331e+01
2.660000e-06	3.453147e-06	1.163974e-09	2.452287e+01	7.431367e+01
2.670000e-06	3.488874e-06	1.162547e-09	2.477658e+01	7.505702e+01
2.680000e-06	3.524352e-06	1.164822e-09	2.502853e+01	7.577383e+01
2.690000e-06	3.559357e-06	1.175422e-09	2.527712e+01	7.646449e+01
2.700000e-06	3.593817e-06	1.194173e-09	2.552184e+01	7.712935e+01
2.710000e-06	3.627904e-06	1.217122e-09	2.576392e+01	7.776877e+01
2.720000e-06	3.661516e-06	1.235142e-09	2.600261e+01	7.838306e+01
2.730000e-06	3.694780e-06	1.244433e-09	2.623885e+01	7.897260e+01
2.740000e-06	3.727742e-06	1.245565e-09	2.647293e+01	7.953780e+01
2.750000e-06	3.760350e-06	1.243260e-09	2.670449e+01	8.007910e+01
2.760000e-06	3.792795e-06	1.242214e-09	2.693490e+01	8.059704e+01
2.770000e-06	3.825038e-06	1.243934e-09	2.716389e+01	8.109217e+01
2.780000e-06	3.857106e-06	1.252351e-09	2.739162e+01	8.156515e+01
2.790000e-06	3.888945e-06	1.266547e-09	2.761772e+01	8.201666e+01
2.800000e-06	3.920524e-06	1.280427e-09	2.784199e+01	8.244741e+01
2.810000e-06	3.951914e-06	1.288082e-09	2.806491e+01	8.285815e+01
2.820000e-06	3.983018e-06	1.289139e-09	2.828579e+01	8.324961e+01
2.830000e-06	4.013808e-06	1.289925e-09	2.850445e+01	8.362250e+01
2.840000e-06	4.044340e-06	1.291658e-09	2.872128e+01	8.397749e+01
2.850000e-06	4.074585e-06	1.292918e-09	2.893607e+01	8.431520e+01
2.860000e-06	4.104570e-06	1.294247e-09	2.914901e+01	8.463617e+01
2.870000e-06	4.134403e-06	1.297681e-09	2.936087e+01	8.494089e+01
2.880000e-06	4.163995e-06	1.304640e-09	2.957102e+01	8.522974e+01
2.890000e-06	4.193229e-06	1.308583e-09	2.977863e+01	8.550305e+01
2.900000e-06	4.222129e-06	1.308364e-09	2.998386e+01	8.576109e+01
