# Temperatura_=_-1.62
# Concentracion g/m^3_=_4090.0
# C_Vs_to_Am_M_A/Vsm_=_65563218390.804596
# pendiente_HvsI_1/m_=_3716.3
# ordenada_HvsI_A/m_=_1297.0
# frecuencia_Hz_=_135072.2188365907

Tiempo_(s)	Campo_(V.s)	Magnetizacion_(V.s)	Campo_(kA/m)	Magnetizacion_(A/m)
0.000000e+00	-5.367351e-06	-2.133825e-09	-3.839899e+01	-1.417457e+02
1.000000e-08	-5.367567e-06	-2.129455e-09	-3.840054e+01	-1.415949e+02
2.000000e-08	-5.367530e-06	-2.120624e-09	-3.840028e+01	-1.414317e+02
3.000000e-08	-5.367081e-06	-2.110343e-09	-3.839706e+01	-1.412596e+02
4.000000e-08	-5.366123e-06	-2.104242e-09	-3.839021e+01	-1.410827e+02
5.000000e-08	-5.364612e-06	-2.106765e-09	-3.837940e+01	-1.409056e+02
6.000000e-08	-5.362544e-06	-2.124855e-09	-3.836461e+01	-1.407335e+02
7.000000e-08	-5.359916e-06	-2.148875e-09	-3.834580e+01	-1.405716e+02
8.000000e-08	-5.356692e-06	-2.136618e-09	-3.832273e+01	-1.404253e+02
9.000000e-08	-5.352868e-06	-2.063927e-09	-3.829538e+01	-1.402995e+02
1.000000e-07	-5.348634e-06	-2.037102e-09	-3.826509e+01	-1.401991e+02
1.100000e-07	-5.344358e-06	-2.121283e-09	-3.823450e+01	-1.401280e+02
1.200000e-07	-5.340009e-06	-2.165097e-09	-3.820338e+01	-1.400895e+02
1.300000e-07	-5.335175e-06	-2.096968e-09	-3.816880e+01	-1.400858e+02
1.400000e-07	-5.329829e-06	-2.056447e-09	-3.813056e+01	-1.401181e+02
1.500000e-07	-5.324208e-06	-2.160358e-09	-3.809034e+01	-1.401862e+02
1.600000e-07	-5.318363e-06	-2.247322e-09	-3.804853e+01	-1.402889e+02
1.700000e-07	-5.312006e-06	-2.127159e-09	-3.800305e+01	-1.404237e+02
1.800000e-07	-5.305133e-06	-2.059903e-09	-3.795387e+01	-1.405870e+02
1.900000e-07	-5.298035e-06	-2.107804e-09	-3.790309e+01	-1.407739e+02
2.000000e-07	-5.290791e-06	-2.206167e-09	-3.785127e+01	-1.409790e+02
2.100000e-07	-5.283213e-06	-2.164673e-09	-3.779705e+01	-1.411960e+02
2.200000e-07	-5.275290e-06	-2.184266e-09	-3.774037e+01	-1.414180e+02
2.300000e-07	-5.267154e-06	-2.249791e-09	-3.768216e+01	-1.416383e+02
2.400000e-07	-5.258546e-06	-2.265310e-09	-3.762059e+01	-1.418498e+02
2.500000e-07	-5.249253e-06	-2.209653e-09	-3.755410e+01	-1.420459e+02
2.600000e-07	-5.239312e-06	-2.219512e-09	-3.748298e+01	-1.422206e+02
2.700000e-07	-5.228818e-06	-2.249411e-09	-3.740791e+01	-1.423685e+02
2.800000e-07	-5.217875e-06	-2.185104e-09	-3.732961e+01	-1.424852e+02
2.900000e-07	-5.206494e-06	-2.143284e-09	-3.724819e+01	-1.425674e+02
3.000000e-07	-5.194718e-06	-2.192010e-09	-3.716395e+01	-1.426130e+02
3.100000e-07	-5.182604e-06	-2.224764e-09	-3.707728e+01	-1.426210e+02
3.200000e-07	-5.170108e-06	-2.156353e-09	-3.698788e+01	-1.425917e+02
3.300000e-07	-5.157269e-06	-2.147229e-09	-3.689603e+01	-1.425265e+02
3.400000e-07	-5.144030e-06	-2.168729e-09	-3.680131e+01	-1.424280e+02
3.500000e-07	-5.130328e-06	-2.189068e-09	-3.670329e+01	-1.422994e+02
3.600000e-07	-5.116259e-06	-2.166564e-09	-3.660264e+01	-1.421449e+02
3.700000e-07	-5.101856e-06	-2.166358e-09	-3.649960e+01	-1.419689e+02
3.800000e-07	-5.086897e-06	-2.136991e-09	-3.639257e+01	-1.417764e+02
3.900000e-07	-5.071181e-06	-2.156852e-09	-3.628014e+01	-1.415722e+02
4.000000e-07	-5.054862e-06	-2.173759e-09	-3.616339e+01	-1.413609e+02
4.100000e-07	-5.038238e-06	-2.160215e-09	-3.604446e+01	-1.411470e+02
4.200000e-07	-5.021338e-06	-2.112545e-09	-3.592355e+01	-1.409340e+02
4.300000e-07	-5.004162e-06	-2.143323e-09	-3.580067e+01	-1.407250e+02
4.400000e-07	-4.986732e-06	-2.175368e-09	-3.567598e+01	-1.405221e+02
4.500000e-07	-4.968992e-06	-2.164036e-09	-3.554906e+01	-1.403268e+02
4.600000e-07	-4.950946e-06	-2.123158e-09	-3.541996e+01	-1.401393e+02
4.700000e-07	-4.932512e-06	-2.129402e-09	-3.528808e+01	-1.399592e+02
4.800000e-07	-4.913641e-06	-2.143170e-09	-3.515307e+01	-1.397853e+02
4.900000e-07	-4.894401e-06	-2.142220e-09	-3.501543e+01	-1.396156e+02
5.000000e-07	-4.874888e-06	-2.106619e-09	-3.487583e+01	-1.394478e+02
5.100000e-07	-4.855172e-06	-2.091537e-09	-3.473477e+01	-1.392789e+02
5.200000e-07	-4.835282e-06	-2.118261e-09	-3.459248e+01	-1.391061e+02
5.300000e-07	-4.815196e-06	-2.140996e-09	-3.444878e+01	-1.389262e+02
5.400000e-07	-4.794753e-06	-2.118231e-09	-3.430252e+01	-1.387364e+02
5.500000e-07	-4.773864e-06	-2.096703e-09	-3.415308e+01	-1.385343e+02
5.600000e-07	-4.752662e-06	-2.107200e-09	-3.400140e+01	-1.383179e+02
5.700000e-07	-4.731140e-06	-2.112181e-09	-3.384743e+01	-1.380857e+02
5.800000e-07	-4.709306e-06	-2.093868e-09	-3.369122e+01	-1.378370e+02
5.900000e-07	-4.687206e-06	-2.065425e-09	-3.353311e+01	-1.375717e+02
6.000000e-07	-4.664816e-06	-2.062067e-09	-3.337294e+01	-1.372905e+02
6.100000e-07	-4.642097e-06	-2.078980e-09	-3.321040e+01	-1.369946e+02
6.200000e-07	-4.618957e-06	-2.091579e-09	-3.304485e+01	-1.366860e+02
6.300000e-07	-4.595558e-06	-2.064914e-09	-3.287745e+01	-1.363671e+02
6.400000e-07	-4.571978e-06	-2.052572e-09	-3.270875e+01	-1.360405e+02
6.500000e-07	-4.548182e-06	-2.062745e-09	-3.253851e+01	-1.357092e+02
6.600000e-07	-4.524124e-06	-2.068941e-09	-3.236639e+01	-1.353763e+02
6.700000e-07	-4.499702e-06	-2.039593e-09	-3.219167e+01	-1.350445e+02
6.800000e-07	-4.474887e-06	-2.022439e-09	-3.201414e+01	-1.347166e+02
6.900000e-07	-4.449576e-06	-2.023362e-09	-3.183306e+01	-1.343948e+02
7.000000e-07	-4.423738e-06	-2.036829e-09	-3.164822e+01	-1.340810e+02
7.100000e-07	-4.397458e-06	-2.026689e-09	-3.146021e+01	-1.337764e+02
7.200000e-07	-4.370748e-06	-2.014278e-09	-3.126912e+01	-1.334815e+02
7.300000e-07	-4.343627e-06	-2.010415e-09	-3.107509e+01	-1.331964e+02
7.400000e-07	-4.316219e-06	-2.024019e-09	-3.087901e+01	-1.329204e+02
7.500000e-07	-4.288624e-06	-2.015500e-09	-3.068159e+01	-1.326523e+02
7.600000e-07	-4.260834e-06	-1.996505e-09	-3.048277e+01	-1.323905e+02
7.700000e-07	-4.232831e-06	-1.987793e-09	-3.028243e+01	-1.321327e+02
7.800000e-07	-4.204617e-06	-1.997797e-09	-3.008059e+01	-1.318766e+02
7.900000e-07	-4.176151e-06	-1.996732e-09	-2.987693e+01	-1.316196e+02
8.000000e-07	-4.147286e-06	-1.984453e-09	-2.967043e+01	-1.313592e+02
8.100000e-07	-4.118037e-06	-1.972225e-09	-2.946118e+01	-1.310927e+02
8.200000e-07	-4.088564e-06	-1.975258e-09	-2.925032e+01	-1.308180e+02
8.300000e-07	-4.058834e-06	-1.979492e-09	-2.903763e+01	-1.305331e+02
8.400000e-07	-4.028861e-06	-1.971982e-09	-2.882319e+01	-1.302364e+02
8.500000e-07	-3.998662e-06	-1.961136e-09	-2.860715e+01	-1.299268e+02
8.600000e-07	-3.968176e-06	-1.961080e-09	-2.838904e+01	-1.296037e+02
8.700000e-07	-3.937334e-06	-1.966659e-09	-2.816839e+01	-1.292670e+02
8.800000e-07	-3.906172e-06	-1.958093e-09	-2.794546e+01	-1.289172e+02
8.900000e-07	-3.874841e-06	-1.941916e-09	-2.772131e+01	-1.285551e+02
9.000000e-07	-3.843320e-06	-1.932183e-09	-2.749580e+01	-1.281818e+02
9.100000e-07	-3.811644e-06	-1.936916e-09	-2.726919e+01	-1.277991e+02
9.200000e-07	-3.779843e-06	-1.936823e-09	-2.704168e+01	-1.274085e+02
9.300000e-07	-3.747818e-06	-1.931591e-09	-2.681256e+01	-1.270120e+02
9.400000e-07	-3.715530e-06	-1.926248e-09	-2.658157e+01	-1.266114e+02
9.500000e-07	-3.682944e-06	-1.931955e-09	-2.634844e+01	-1.262087e+02
9.600000e-07	-3.650033e-06	-1.929819e-09	-2.611299e+01	-1.258053e+02
9.700000e-07	-3.616732e-06	-1.914188e-09	-2.587475e+01	-1.254027e+02
9.800000e-07	-3.583015e-06	-1.893140e-09	-2.563353e+01	-1.250021e+02
9.900000e-07	-3.548898e-06	-1.886718e-09	-2.538946e+01	-1.246042e+02
1.000000e-06	-3.514390e-06	-1.886811e-09	-2.514257e+01	-1.242094e+02
1.010000e-06	-3.479483e-06	-1.887919e-09	-2.489285e+01	-1.238180e+02
1.020000e-06	-3.444213e-06	-1.882600e-09	-2.464052e+01	-1.234298e+02
1.030000e-06	-3.408721e-06	-1.882068e-09	-2.438660e+01	-1.230442e+02
1.040000e-06	-3.373093e-06	-1.880482e-09	-2.413171e+01	-1.226605e+02
1.050000e-06	-3.337352e-06	-1.872543e-09	-2.387601e+01	-1.222780e+02
1.060000e-06	-3.301458e-06	-1.854481e-09	-2.361922e+01	-1.218956e+02
1.070000e-06	-3.265321e-06	-1.841494e-09	-2.336069e+01	-1.215123e+02
1.080000e-06	-3.229035e-06	-1.837133e-09	-2.310110e+01	-1.211273e+02
1.090000e-06	-3.192572e-06	-1.839367e-09	-2.284023e+01	-1.207397e+02
1.100000e-06	-3.155768e-06	-1.838200e-09	-2.257693e+01	-1.203486e+02
1.110000e-06	-3.118730e-06	-1.835550e-09	-2.231196e+01	-1.199537e+02
1.120000e-06	-3.081544e-06	-1.831490e-09	-2.204592e+01	-1.195544e+02
1.130000e-06	-3.044141e-06	-1.823572e-09	-2.177834e+01	-1.191508e+02
1.140000e-06	-3.006501e-06	-1.811846e-09	-2.150905e+01	-1.187427e+02
1.150000e-06	-2.968655e-06	-1.799955e-09	-2.123829e+01	-1.183305e+02
1.160000e-06	-2.930672e-06	-1.792325e-09	-2.096655e+01	-1.179144e+02
1.170000e-06	-2.892529e-06	-1.787182e-09	-2.069367e+01	-1.174950e+02
1.180000e-06	-2.854112e-06	-1.780240e-09	-2.041883e+01	-1.170728e+02
1.190000e-06	-2.815508e-06	-1.770216e-09	-2.014265e+01	-1.166482e+02
1.200000e-06	-2.776743e-06	-1.767375e-09	-1.986532e+01	-1.162219e+02
1.210000e-06	-2.737738e-06	-1.766643e-09	-1.958627e+01	-1.157942e+02
1.220000e-06	-2.698462e-06	-1.760363e-09	-1.930528e+01	-1.153654e+02
1.230000e-06	-2.659016e-06	-1.746407e-09	-1.902308e+01	-1.149357e+02
1.240000e-06	-2.619464e-06	-1.734921e-09	-1.874011e+01	-1.145050e+02
1.250000e-06	-2.579747e-06	-1.727189e-09	-1.845597e+01	-1.140732e+02
1.260000e-06	-2.539925e-06	-1.720446e-09	-1.817108e+01	-1.136399e+02
1.270000e-06	-2.500065e-06	-1.710516e-09	-1.788592e+01	-1.132044e+02
1.280000e-06	-2.460138e-06	-1.704633e-09	-1.760027e+01	-1.127662e+02
1.290000e-06	-2.420043e-06	-1.703572e-09	-1.731343e+01	-1.123245e+02
1.300000e-06	-2.379809e-06	-1.700958e-09	-1.702558e+01	-1.118783e+02
1.310000e-06	-2.339483e-06	-1.689731e-09	-1.673708e+01	-1.114268e+02
1.320000e-06	-2.298917e-06	-1.677230e-09	-1.644687e+01	-1.109692e+02
1.330000e-06	-2.258058e-06	-1.666318e-09	-1.615455e+01	-1.105044e+02
1.340000e-06	-2.216953e-06	-1.658752e-09	-1.586048e+01	-1.100318e+02
1.350000e-06	-2.175648e-06	-1.649889e-09	-1.556498e+01	-1.095507e+02
1.360000e-06	-2.134138e-06	-1.641467e-09	-1.526801e+01	-1.090606e+02
1.370000e-06	-2.092328e-06	-1.635484e-09	-1.496889e+01	-1.085609e+02
1.380000e-06	-2.050222e-06	-1.630434e-09	-1.466766e+01	-1.080515e+02
1.390000e-06	-2.007767e-06	-1.621023e-09	-1.436392e+01	-1.075322e+02
1.400000e-06	-1.965006e-06	-1.608570e-09	-1.405801e+01	-1.070030e+02
1.410000e-06	-1.922121e-06	-1.598563e-09	-1.375120e+01	-1.064640e+02
1.420000e-06	-1.879088e-06	-1.592543e-09	-1.344334e+01	-1.059153e+02
1.430000e-06	-1.835859e-06	-1.586850e-09	-1.313407e+01	-1.053571e+02
1.440000e-06	-1.792512e-06	-1.579925e-09	-1.282395e+01	-1.047896e+02
1.450000e-06	-1.749047e-06	-1.572953e-09	-1.251300e+01	-1.042130e+02
1.460000e-06	-1.705438e-06	-1.567394e-09	-1.220101e+01	-1.036274e+02
1.470000e-06	-1.661766e-06	-1.560150e-09	-1.188857e+01	-1.030330e+02
1.480000e-06	-1.618071e-06	-1.549145e-09	-1.157597e+01	-1.024297e+02
1.490000e-06	-1.574266e-06	-1.539160e-09	-1.126258e+01	-1.018174e+02
1.500000e-06	-1.530370e-06	-1.530959e-09	-1.094854e+01	-1.011960e+02
1.510000e-06	-1.486452e-06	-1.521695e-09	-1.063435e+01	-1.005651e+02
1.520000e-06	-1.442521e-06	-1.510005e-09	-1.032006e+01	-9.992450e+01
1.530000e-06	-1.398572e-06	-1.497659e-09	-1.000564e+01	-9.927373e+01
1.540000e-06	-1.354507e-06	-1.485372e-09	-9.690389e+00	-9.861234e+01
1.550000e-06	-1.310351e-06	-1.473327e-09	-9.374484e+00	-9.793988e+01
1.560000e-06	-1.266201e-06	-1.460748e-09	-9.058632e+00	-9.725589e+01
1.570000e-06	-1.221989e-06	-1.450892e-09	-8.742326e+00	-9.655994e+01
1.580000e-06	-1.177698e-06	-1.443955e-09	-8.425467e+00	-9.585166e+01
1.590000e-06	-1.133363e-06	-1.437148e-09	-8.108280e+00	-9.513073e+01
1.600000e-06	-1.088912e-06	-1.425781e-09	-7.790270e+00	-9.439691e+01
1.610000e-06	-1.044287e-06	-1.411941e-09	-7.471013e+00	-9.365003e+01
1.620000e-06	-9.995773e-07	-1.397388e-09	-7.151156e+00	-9.288998e+01
1.630000e-06	-9.548495e-07	-1.383510e-09	-6.831165e+00	-9.211673e+01
1.640000e-06	-9.100127e-07	-1.369375e-09	-6.510395e+00	-9.133027e+01
1.650000e-06	-8.650261e-07	-1.358028e-09	-6.188552e+00	-9.053063e+01
1.660000e-06	-8.199759e-07	-1.348732e-09	-5.866255e+00	-8.971781e+01
1.670000e-06	-7.749235e-07	-1.340597e-09	-5.543942e+00	-8.889180e+01
1.680000e-06	-7.298438e-07	-1.331006e-09	-5.221434e+00	-8.805251e+01
1.690000e-06	-6.847239e-07	-1.318357e-09	-4.898638e+00	-8.719974e+01
1.700000e-06	-6.395329e-07	-1.303103e-09	-4.575334e+00	-8.633322e+01
1.710000e-06	-5.943491e-07	-1.288733e-09	-4.252081e+00	-8.545250e+01
1.720000e-06	-5.490977e-07	-1.275604e-09	-3.928343e+00	-8.455700e+01
1.730000e-06	-5.037550e-07	-1.262472e-09	-3.603954e+00	-8.364598e+01
1.740000e-06	-4.584689e-07	-1.248437e-09	-3.279969e+00	-8.271854e+01
1.750000e-06	-4.131138e-07	-1.233193e-09	-2.955490e+00	-8.177363e+01
1.760000e-06	-3.676346e-07	-1.216469e-09	-2.630124e+00	-8.081005e+01
1.770000e-06	-3.221304e-07	-1.198843e-09	-2.304579e+00	-7.982651e+01
1.780000e-06	-2.765903e-07	-1.183111e-09	-1.978777e+00	-7.882161e+01
1.790000e-06	-2.310349e-07	-1.166658e-09	-1.652865e+00	-7.779390e+01
1.800000e-06	-1.854833e-07	-1.147480e-09	-1.326981e+00	-7.674188e+01
1.810000e-06	-1.400022e-07	-1.127086e-09	-1.001601e+00	-7.566409e+01
1.820000e-06	-9.452422e-08	-1.108828e-09	-6.762433e-01	-7.455906e+01
1.830000e-06	-4.899054e-08	-1.091619e-09	-3.504871e-01	-7.342542e+01
1.840000e-06	-3.504902e-09	-1.073589e-09	-2.507470e-02	-7.226185e+01
1.850000e-06	4.195744e-08	-1.054530e-09	3.001711e-01	-7.106715e+01
1.860000e-06	8.746525e-08	-1.035727e-09	6.257421e-01	-6.984024e+01
1.870000e-06	1.330217e-07	-1.019485e-09	9.516610e-01	-6.858014e+01
1.880000e-06	1.785598e-07	-1.001457e-09	1.277449e+00	-6.728601e+01
1.890000e-06	2.240791e-07	-9.769459e-10	1.603102e+00	-6.595711e+01
1.900000e-06	2.695965e-07	-9.497831e-10	1.928741e+00	-6.459280e+01
1.910000e-06	3.151263e-07	-9.234771e-10	2.254470e+00	-6.319254e+01
1.920000e-06	3.607053e-07	-8.987615e-10	2.580551e+00	-6.175585e+01
1.930000e-06	4.062430e-07	-8.742381e-10	2.906335e+00	-6.028230e+01
1.940000e-06	4.517064e-07	-8.513139e-10	3.231589e+00	-5.877149e+01
1.950000e-06	4.971197e-07	-8.307345e-10	3.556484e+00	-5.722305e+01
1.960000e-06	5.424628e-07	-8.090688e-10	3.880876e+00	-5.563660e+01
1.970000e-06	5.878071e-07	-7.813410e-10	4.205278e+00	-5.401176e+01
1.980000e-06	6.330367e-07	-7.509442e-10	4.528858e+00	-5.234811e+01
1.990000e-06	6.780897e-07	-7.211108e-10	4.851176e+00	-5.064525e+01
2.000000e-06	7.230742e-07	-6.921367e-10	5.173003e+00	-4.890276e+01
2.010000e-06	7.680583e-07	-6.643910e-10	5.494827e+00	-4.712020e+01
2.020000e-06	8.130703e-07	-6.378969e-10	5.816851e+00	-4.529715e+01
2.030000e-06	8.581075e-07	-6.098063e-10	6.139055e+00	-4.343323e+01
2.040000e-06	9.030728e-07	-5.807531e-10	6.460745e+00	-4.152808e+01
2.050000e-06	9.478775e-07	-5.511432e-10	6.781286e+00	-3.958140e+01
2.060000e-06	9.925588e-07	-5.213766e-10	7.100944e+00	-3.759298e+01
2.070000e-06	1.037168e-06	-4.924694e-10	7.420086e+00	-3.556268e+01
2.080000e-06	1.081759e-06	-4.622769e-10	7.739101e+00	-3.349047e+01
2.090000e-06	1.126230e-06	-4.303062e-10	8.057251e+00	-3.137643e+01
2.100000e-06	1.170462e-06	-3.968966e-10	8.373692e+00	-2.922074e+01
2.110000e-06	1.214638e-06	-3.631114e-10	8.689741e+00	-2.702372e+01
2.120000e-06	1.258834e-06	-3.280956e-10	9.005925e+00	-2.478579e+01
2.130000e-06	1.302926e-06	-2.939261e-10	9.321370e+00	-2.250745e+01
2.140000e-06	1.346921e-06	-2.611087e-10	9.636113e+00	-2.018935e+01
2.150000e-06	1.390879e-06	-2.299464e-10	9.950601e+00	-1.783219e+01
2.160000e-06	1.434844e-06	-2.004355e-10	1.026513e+01	-1.543677e+01
2.170000e-06	1.478793e-06	-1.662777e-10	1.057955e+01	-1.300396e+01
2.180000e-06	1.522669e-06	-1.263242e-10	1.089345e+01	-1.053469e+01
2.190000e-06	1.566441e-06	-8.789127e-11	1.120660e+01	-8.029964e+00
2.200000e-06	1.610165e-06	-5.391971e-11	1.151941e+01	-5.490868e+00
2.210000e-06	1.653897e-06	-1.893590e-11	1.183228e+01	-2.918555e+00
2.220000e-06	1.697626e-06	2.093116e-11	1.214512e+01	-3.142707e-01
2.230000e-06	1.741235e-06	6.264447e-11	1.245711e+01	2.320628e+00
2.240000e-06	1.784665e-06	1.020255e-10	1.276782e+01	4.984654e+00
2.250000e-06	1.827996e-06	1.394684e-10	1.307781e+01	7.676167e+00
2.260000e-06	1.871193e-06	1.817598e-10	1.338685e+01	1.039335e+01
2.270000e-06	1.914310e-06	2.257149e-10	1.369532e+01	1.313416e+01
2.280000e-06	1.957294e-06	2.647252e-10	1.400284e+01	1.589635e+01
2.290000e-06	2.000016e-06	3.005549e-10	1.430847e+01	1.867742e+01
2.300000e-06	2.042453e-06	3.388146e-10	1.461208e+01	2.147459e+01
2.310000e-06	2.084631e-06	3.814921e-10	1.491382e+01	2.428482e+01
2.320000e-06	2.126375e-06	4.249976e-10	1.521247e+01	2.710479e+01
2.330000e-06	2.167852e-06	4.658290e-10	1.550920e+01	2.993094e+01
2.340000e-06	2.209160e-06	5.047712e-10	1.580472e+01	3.275946e+01
2.350000e-06	2.250058e-06	5.454565e-10	1.609732e+01	3.558635e+01
2.360000e-06	2.290710e-06	5.866528e-10	1.638815e+01	3.840742e+01
2.370000e-06	2.331204e-06	6.272448e-10	1.667785e+01	4.121838e+01
2.380000e-06	2.371475e-06	6.693097e-10	1.696596e+01	4.401489e+01
2.390000e-06	2.411567e-06	7.131669e-10	1.725278e+01	4.679260e+01
2.400000e-06	2.451560e-06	7.554780e-10	1.753890e+01	4.954724e+01
2.410000e-06	2.491445e-06	7.942820e-10	1.782424e+01	5.227466e+01
2.420000e-06	2.531298e-06	8.350813e-10	1.810936e+01	5.497093e+01
2.430000e-06	2.571087e-06	8.808390e-10	1.839402e+01	5.763234e+01
2.440000e-06	2.610742e-06	9.241897e-10	1.867771e+01	6.025552e+01
2.450000e-06	2.650327e-06	9.608983e-10	1.896092e+01	6.283742e+01
2.460000e-06	2.689849e-06	9.976582e-10	1.924366e+01	6.537539e+01
2.470000e-06	2.729114e-06	1.035404e-09	1.952457e+01	6.786715e+01
2.480000e-06	2.768099e-06	1.071236e-09	1.980348e+01	7.031085e+01
2.490000e-06	2.806947e-06	1.104810e-09	2.008140e+01	7.270501e+01
2.500000e-06	2.845544e-06	1.138835e-09	2.035753e+01	7.504857e+01
2.510000e-06	2.883825e-06	1.177212e-09	2.063140e+01	7.734079e+01
2.520000e-06	2.921856e-06	1.219009e-09	2.090348e+01	7.958126e+01
2.530000e-06	2.959725e-06	1.257017e-09	2.117440e+01	8.176983e+01
2.540000e-06	2.997475e-06	1.288401e-09	2.144448e+01	8.390661e+01
2.550000e-06	3.035123e-06	1.318012e-09	2.171381e+01	8.599186e+01
2.560000e-06	3.072586e-06	1.347625e-09	2.198183e+01	8.802597e+01
2.570000e-06	3.109731e-06	1.376702e-09	2.224758e+01	9.000944e+01
2.580000e-06	3.146702e-06	1.404072e-09	2.251207e+01	9.194279e+01
2.590000e-06	3.183430e-06	1.433683e-09	2.277483e+01	9.382655e+01
2.600000e-06	3.219833e-06	1.468708e-09	2.303526e+01	9.566127e+01
2.610000e-06	3.256044e-06	1.504960e-09	2.329432e+01	9.744742e+01
2.620000e-06	3.292064e-06	1.534160e-09	2.355202e+01	9.918545e+01
2.630000e-06	3.327970e-06	1.556848e-09	2.380890e+01	1.008758e+02
2.640000e-06	3.363810e-06	1.579648e-09	2.406530e+01	1.025188e+02
2.650000e-06	3.399536e-06	1.601502e-09	2.432089e+01	1.041148e+02
2.660000e-06	3.435127e-06	1.618180e-09	2.457552e+01	1.056642e+02
2.670000e-06	3.470499e-06	1.634959e-09	2.482857e+01	1.071673e+02
2.680000e-06	3.505571e-06	1.659243e-09	2.507949e+01	1.086245e+02
2.690000e-06	3.540326e-06	1.687890e-09	2.532813e+01	1.100362e+02
2.700000e-06	3.574609e-06	1.712054e-09	2.557339e+01	1.114030e+02
2.710000e-06	3.608388e-06	1.732231e-09	2.581506e+01	1.127255e+02
2.720000e-06	3.641713e-06	1.749954e-09	2.605347e+01	1.140044e+02
2.730000e-06	3.674562e-06	1.765906e-09	2.628848e+01	1.152403e+02
2.740000e-06	3.707114e-06	1.779967e-09	2.652136e+01	1.164342e+02
2.750000e-06	3.739460e-06	1.792195e-09	2.675277e+01	1.175870e+02
2.760000e-06	3.771544e-06	1.806784e-09	2.698230e+01	1.186997e+02
2.770000e-06	3.803470e-06	1.824738e-09	2.721071e+01	1.197732e+02
2.780000e-06	3.835238e-06	1.843583e-09	2.743798e+01	1.208085e+02
2.790000e-06	3.866755e-06	1.859466e-09	2.766346e+01	1.218067e+02
2.800000e-06	3.898037e-06	1.872200e-09	2.788726e+01	1.227688e+02
2.810000e-06	3.929147e-06	1.881914e-09	2.810983e+01	1.236955e+02
2.820000e-06	3.959964e-06	1.890995e-09	2.833030e+01	1.245879e+02
2.830000e-06	3.990400e-06	1.900275e-09	2.854804e+01	1.254465e+02
2.840000e-06	4.020594e-06	1.910291e-09	2.876406e+01	1.262720e+02
2.850000e-06	4.050565e-06	1.923092e-09	2.897847e+01	1.270651e+02
2.860000e-06	4.080240e-06	1.936150e-09	2.919077e+01	1.278262e+02
2.870000e-06	4.109706e-06	1.947838e-09	2.940157e+01	1.285558e+02
2.880000e-06	4.138966e-06	1.958579e-09	2.961091e+01	1.292543e+02
2.890000e-06	4.167883e-06	1.966388e-09	2.981779e+01	1.299222e+02
2.900000e-06	4.196526e-06	1.972679e-09	3.002270e+01	1.305598e+02
