# Temperatura_=_4.85
# Concentracion g/m^3_=_4090.0
# C_Vs_to_Am_M_A/Vsm_=_65563218390.804596
# pendiente_HvsI_1/m_=_3716.3
# ordenada_HvsI_A/m_=_1297.0
# frecuencia_Hz_=_135086.6784893298

Tiempo_(s)	Campo_(V.s)	Magnetizacion_(V.s)	Campo_(kA/m)	Magnetizacion_(A/m)
0.000000e+00	-5.404775e-06	-1.385202e-09	-3.839410e+01	-9.621894e+01
1.000000e-08	-5.404912e-06	-1.380739e-09	-3.839508e+01	-9.609940e+01
2.000000e-08	-5.404915e-06	-1.380140e-09	-3.839510e+01	-9.596483e+01
3.000000e-08	-5.404692e-06	-1.379776e-09	-3.839352e+01	-9.581513e+01
4.000000e-08	-5.404171e-06	-1.380497e-09	-3.838981e+01	-9.565101e+01
5.000000e-08	-5.403166e-06	-1.381875e-09	-3.838268e+01	-9.547404e+01
6.000000e-08	-5.401472e-06	-1.377859e-09	-3.837064e+01	-9.528666e+01
7.000000e-08	-5.399144e-06	-1.362960e-09	-3.835410e+01	-9.509218e+01
8.000000e-08	-5.396207e-06	-1.348762e-09	-3.833324e+01	-9.489466e+01
9.000000e-08	-5.392699e-06	-1.374071e-09	-3.830832e+01	-9.469881e+01
1.000000e-07	-5.388676e-06	-1.436390e-09	-3.827974e+01	-9.450985e+01
1.100000e-07	-5.384272e-06	-1.429980e-09	-3.824846e+01	-9.433328e+01
1.200000e-07	-5.379820e-06	-1.363065e-09	-3.821683e+01	-9.417467e+01
1.300000e-07	-5.375360e-06	-1.331636e-09	-3.818515e+01	-9.403943e+01
1.400000e-07	-5.370478e-06	-1.413806e-09	-3.815047e+01	-9.393260e+01
1.500000e-07	-5.364978e-06	-1.418522e-09	-3.811140e+01	-9.385855e+01
1.600000e-07	-5.359185e-06	-1.329057e-09	-3.807025e+01	-9.382081e+01
1.700000e-07	-5.353229e-06	-1.303375e-09	-3.802793e+01	-9.382189e+01
1.800000e-07	-5.346780e-06	-1.415562e-09	-3.798213e+01	-9.386308e+01
1.900000e-07	-5.339661e-06	-1.458184e-09	-3.793156e+01	-9.394441e+01
2.000000e-07	-5.332218e-06	-1.404402e-09	-3.787868e+01	-9.406455e+01
2.100000e-07	-5.324709e-06	-1.386719e-09	-3.782534e+01	-9.422082e+01
2.200000e-07	-5.317005e-06	-1.428531e-09	-3.777061e+01	-9.440931e+01
2.300000e-07	-5.308984e-06	-1.425970e-09	-3.771363e+01	-9.462492e+01
2.400000e-07	-5.300724e-06	-1.404304e-09	-3.765495e+01	-9.486159e+01
2.500000e-07	-5.292087e-06	-1.448602e-09	-3.759360e+01	-9.511246e+01
2.600000e-07	-5.282659e-06	-1.490778e-09	-3.752662e+01	-9.537018e+01
2.700000e-07	-5.272460e-06	-1.489410e-09	-3.745418e+01	-9.562714e+01
2.800000e-07	-5.261765e-06	-1.482663e-09	-3.737820e+01	-9.587576e+01
2.900000e-07	-5.250610e-06	-1.513883e-09	-3.729896e+01	-9.610878e+01
3.000000e-07	-5.239085e-06	-1.477115e-09	-3.721708e+01	-9.631953e+01
3.100000e-07	-5.227193e-06	-1.433544e-09	-3.713261e+01	-9.650215e+01
3.200000e-07	-5.214855e-06	-1.469468e-09	-3.704496e+01	-9.665183e+01
3.300000e-07	-5.202147e-06	-1.536433e-09	-3.695469e+01	-9.676492e+01
3.400000e-07	-5.189036e-06	-1.496869e-09	-3.686155e+01	-9.683908e+01
3.500000e-07	-5.175610e-06	-1.469097e-09	-3.676617e+01	-9.687331e+01
3.600000e-07	-5.161839e-06	-1.495410e-09	-3.666835e+01	-9.686791e+01
3.700000e-07	-5.147682e-06	-1.513725e-09	-3.656779e+01	-9.682446e+01
3.800000e-07	-5.133048e-06	-1.460670e-09	-3.646382e+01	-9.674567e+01
3.900000e-07	-5.117740e-06	-1.449148e-09	-3.635508e+01	-9.663520e+01
4.000000e-07	-5.101686e-06	-1.460195e-09	-3.624104e+01	-9.649750e+01
4.100000e-07	-5.085078e-06	-1.476101e-09	-3.612306e+01	-9.633752e+01
4.200000e-07	-5.068291e-06	-1.489481e-09	-3.600381e+01	-9.616051e+01
4.300000e-07	-5.051265e-06	-1.492018e-09	-3.588286e+01	-9.597173e+01
4.400000e-07	-5.033891e-06	-1.462395e-09	-3.575944e+01	-9.577624e+01
4.500000e-07	-5.016222e-06	-1.458012e-09	-3.563393e+01	-9.557868e+01
4.600000e-07	-4.998262e-06	-1.480650e-09	-3.550634e+01	-9.538305e+01
4.700000e-07	-4.980009e-06	-1.469488e-09	-3.537668e+01	-9.519261e+01
4.800000e-07	-4.961374e-06	-1.443993e-09	-3.524430e+01	-9.500972e+01
4.900000e-07	-4.942254e-06	-1.453536e-09	-3.510848e+01	-9.483582e+01
5.000000e-07	-4.922677e-06	-1.475403e-09	-3.496941e+01	-9.467141e+01
5.100000e-07	-4.902899e-06	-1.461672e-09	-3.482891e+01	-9.451610e+01
5.200000e-07	-4.883002e-06	-1.442967e-09	-3.468757e+01	-9.436870e+01
5.300000e-07	-4.862876e-06	-1.432641e-09	-3.454460e+01	-9.422732e+01
5.400000e-07	-4.842489e-06	-1.444091e-09	-3.439978e+01	-9.408956e+01
5.500000e-07	-4.821732e-06	-1.455153e-09	-3.425232e+01	-9.395266e+01
5.600000e-07	-4.800609e-06	-1.450710e-09	-3.410227e+01	-9.381368e+01
5.700000e-07	-4.779187e-06	-1.430598e-09	-3.395009e+01	-9.366972e+01
5.800000e-07	-4.757442e-06	-1.437012e-09	-3.379562e+01	-9.351807e+01
5.900000e-07	-4.735415e-06	-1.442338e-09	-3.363915e+01	-9.335635e+01
6.000000e-07	-4.713101e-06	-1.429553e-09	-3.348064e+01	-9.318269e+01
6.100000e-07	-4.690496e-06	-1.409226e-09	-3.332006e+01	-9.299578e+01
6.200000e-07	-4.667437e-06	-1.414951e-09	-3.315625e+01	-9.279496e+01
6.300000e-07	-4.643939e-06	-1.423928e-09	-3.298932e+01	-9.258023e+01
6.400000e-07	-4.620257e-06	-1.430134e-09	-3.282110e+01	-9.235224e+01
6.500000e-07	-4.596417e-06	-1.419950e-09	-3.265174e+01	-9.211220e+01
6.600000e-07	-4.572368e-06	-1.410596e-09	-3.248091e+01	-9.186186e+01
6.700000e-07	-4.547946e-06	-1.407363e-09	-3.230742e+01	-9.160335e+01
6.800000e-07	-4.523221e-06	-1.411178e-09	-3.213177e+01	-9.133904e+01
6.900000e-07	-4.498121e-06	-1.398479e-09	-3.195347e+01	-9.107147e+01
7.000000e-07	-4.472410e-06	-1.384261e-09	-3.177083e+01	-9.080311e+01
7.100000e-07	-4.446156e-06	-1.385923e-09	-3.158433e+01	-9.053631e+01
7.200000e-07	-4.419413e-06	-1.397496e-09	-3.139435e+01	-9.027312e+01
7.300000e-07	-4.392272e-06	-1.393717e-09	-3.120155e+01	-9.001523e+01
7.400000e-07	-4.364816e-06	-1.379747e-09	-3.100651e+01	-8.976385e+01
7.500000e-07	-4.337110e-06	-1.372099e-09	-3.080969e+01	-8.951971e+01
7.600000e-07	-4.309242e-06	-1.376876e-09	-3.061173e+01	-8.928300e+01
7.700000e-07	-4.281186e-06	-1.377763e-09	-3.041242e+01	-8.905343e+01
7.800000e-07	-4.252906e-06	-1.366589e-09	-3.021153e+01	-8.883022e+01
7.900000e-07	-4.224395e-06	-1.358275e-09	-3.000900e+01	-8.861221e+01
8.000000e-07	-4.195454e-06	-1.357938e-09	-2.980340e+01	-8.839794e+01
8.100000e-07	-4.166144e-06	-1.357727e-09	-2.959519e+01	-8.818575e+01
8.200000e-07	-4.136656e-06	-1.346229e-09	-2.938572e+01	-8.797387e+01
8.300000e-07	-4.106925e-06	-1.337416e-09	-2.917452e+01	-8.776057e+01
8.400000e-07	-4.076935e-06	-1.336550e-09	-2.896147e+01	-8.754424e+01
8.500000e-07	-4.046671e-06	-1.342887e-09	-2.874649e+01	-8.732349e+01
8.600000e-07	-4.016086e-06	-1.342178e-09	-2.852922e+01	-8.709721e+01
8.700000e-07	-3.985218e-06	-1.337075e-09	-2.830994e+01	-8.686467e+01
8.800000e-07	-3.953989e-06	-1.331907e-09	-2.808810e+01	-8.662547e+01
8.900000e-07	-3.922508e-06	-1.332475e-09	-2.786447e+01	-8.637964e+01
9.000000e-07	-3.890904e-06	-1.324979e-09	-2.763996e+01	-8.612756e+01
9.100000e-07	-3.859124e-06	-1.311980e-09	-2.741421e+01	-8.586991e+01
9.200000e-07	-3.827276e-06	-1.301756e-09	-2.718797e+01	-8.560766e+01
9.300000e-07	-3.795276e-06	-1.305856e-09	-2.696064e+01	-8.534194e+01
9.400000e-07	-3.762981e-06	-1.313013e-09	-2.673123e+01	-8.507399e+01
9.500000e-07	-3.730266e-06	-1.316121e-09	-2.649883e+01	-8.480506e+01
9.600000e-07	-3.697171e-06	-1.313854e-09	-2.626373e+01	-8.453629e+01
9.700000e-07	-3.663737e-06	-1.313173e-09	-2.602622e+01	-8.426870e+01
9.800000e-07	-3.629859e-06	-1.305889e-09	-2.578556e+01	-8.400304e+01
9.900000e-07	-3.595536e-06	-1.292114e-09	-2.554175e+01	-8.373981e+01
1.000000e-06	-3.560804e-06	-1.276433e-09	-2.529502e+01	-8.347917e+01
1.010000e-06	-3.525782e-06	-1.272009e-09	-2.504623e+01	-8.322098e+01
1.020000e-06	-3.490527e-06	-1.278047e-09	-2.479579e+01	-8.296477e+01
1.030000e-06	-3.454987e-06	-1.281631e-09	-2.454332e+01	-8.270979e+01
1.040000e-06	-3.419220e-06	-1.279585e-09	-2.428924e+01	-8.245507e+01
1.050000e-06	-3.383316e-06	-1.278859e-09	-2.403419e+01	-8.219946e+01
1.060000e-06	-3.347305e-06	-1.277412e-09	-2.377838e+01	-8.194172e+01
1.070000e-06	-3.311147e-06	-1.268905e-09	-2.352152e+01	-8.168062e+01
1.080000e-06	-3.274828e-06	-1.254159e-09	-2.326352e+01	-8.141498e+01
1.090000e-06	-3.238330e-06	-1.243038e-09	-2.300425e+01	-8.114378e+01
1.100000e-06	-3.201530e-06	-1.243265e-09	-2.274283e+01	-8.086621e+01
1.110000e-06	-3.164349e-06	-1.246769e-09	-2.247871e+01	-8.058176e+01
1.120000e-06	-3.126955e-06	-1.246237e-09	-2.221307e+01	-8.029018e+01
1.130000e-06	-3.089429e-06	-1.240965e-09	-2.194649e+01	-7.999158e+01
1.140000e-06	-3.051667e-06	-1.238111e-09	-2.167824e+01	-7.968640e+01
1.150000e-06	-3.013688e-06	-1.231889e-09	-2.140845e+01	-7.937537e+01
1.160000e-06	-2.975577e-06	-1.221284e-09	-2.113772e+01	-7.905948e+01
1.170000e-06	-2.937274e-06	-1.209738e-09	-2.086562e+01	-7.873994e+01
1.180000e-06	-2.898716e-06	-1.200329e-09	-2.059172e+01	-7.841809e+01
1.190000e-06	-2.859885e-06	-1.193034e-09	-2.031588e+01	-7.809533e+01
1.200000e-06	-2.820942e-06	-1.185900e-09	-2.003923e+01	-7.777306e+01
1.210000e-06	-2.781879e-06	-1.181875e-09	-1.976174e+01	-7.745257e+01
1.220000e-06	-2.742567e-06	-1.183898e-09	-1.948248e+01	-7.713497e+01
1.230000e-06	-2.703081e-06	-1.185589e-09	-1.920198e+01	-7.682118e+01
1.240000e-06	-2.663396e-06	-1.185135e-09	-1.892007e+01	-7.651180e+01
1.250000e-06	-2.623605e-06	-1.180287e-09	-1.863741e+01	-7.620714e+01
1.260000e-06	-2.583725e-06	-1.174473e-09	-1.835410e+01	-7.590719e+01
1.270000e-06	-2.543704e-06	-1.163755e-09	-1.806980e+01	-7.561159e+01
1.280000e-06	-2.503608e-06	-1.150209e-09	-1.778498e+01	-7.531972e+01
1.290000e-06	-2.463460e-06	-1.137436e-09	-1.749978e+01	-7.503066e+01
1.300000e-06	-2.423143e-06	-1.129933e-09	-1.721337e+01	-7.474330e+01
1.310000e-06	-2.382520e-06	-1.127731e-09	-1.692480e+01	-7.445638e+01
1.320000e-06	-2.341651e-06	-1.128616e-09	-1.663448e+01	-7.416854e+01
1.330000e-06	-2.300698e-06	-1.130051e-09	-1.634356e+01	-7.387843e+01
1.340000e-06	-2.259637e-06	-1.131062e-09	-1.605187e+01	-7.358472e+01
1.350000e-06	-2.218242e-06	-1.130185e-09	-1.575781e+01	-7.328621e+01
1.360000e-06	-2.176425e-06	-1.124742e-09	-1.546075e+01	-7.298185e+01
1.370000e-06	-2.134284e-06	-1.114427e-09	-1.516139e+01	-7.267079e+01
1.380000e-06	-2.091839e-06	-1.103199e-09	-1.485987e+01	-7.235240e+01
1.390000e-06	-2.049093e-06	-1.093239e-09	-1.455622e+01	-7.202627e+01
1.400000e-06	-2.006131e-06	-1.088355e-09	-1.425103e+01	-7.169220e+01
1.410000e-06	-1.963077e-06	-1.085667e-09	-1.394518e+01	-7.135018e+01
1.420000e-06	-1.919847e-06	-1.083306e-09	-1.363809e+01	-7.100038e+01
1.430000e-06	-1.876445e-06	-1.082066e-09	-1.332977e+01	-7.064306e+01
1.440000e-06	-1.832907e-06	-1.079929e-09	-1.302049e+01	-7.027854e+01
1.450000e-06	-1.789255e-06	-1.074738e-09	-1.271040e+01	-6.990715e+01
1.460000e-06	-1.745586e-06	-1.066768e-09	-1.240019e+01	-6.952918e+01
1.470000e-06	-1.701810e-06	-1.060748e-09	-1.208921e+01	-6.914484e+01
1.480000e-06	-1.657917e-06	-1.054216e-09	-1.177741e+01	-6.875419e+01
1.490000e-06	-1.613956e-06	-1.046021e-09	-1.146512e+01	-6.835716e+01
1.500000e-06	-1.569986e-06	-1.039476e-09	-1.115277e+01	-6.795349e+01
1.510000e-06	-1.525926e-06	-1.036622e-09	-1.083978e+01	-6.754276e+01
1.520000e-06	-1.481751e-06	-1.031379e-09	-1.052597e+01	-6.712440e+01
1.530000e-06	-1.437577e-06	-1.025472e-09	-1.021217e+01	-6.669770e+01
1.540000e-06	-1.393332e-06	-1.019804e-09	-9.897864e+00	-6.626187e+01
1.550000e-06	-1.348965e-06	-1.014506e-09	-9.582692e+00	-6.581608e+01
1.560000e-06	-1.304510e-06	-1.006958e-09	-9.266898e+00	-6.535950e+01
1.570000e-06	-1.259939e-06	-9.974155e-10	-8.950273e+00	-6.489135e+01
1.580000e-06	-1.215250e-06	-9.883590e-10	-8.632819e+00	-6.441098e+01
1.590000e-06	-1.170560e-06	-9.830245e-10	-8.315352e+00	-6.391788e+01
1.600000e-06	-1.125783e-06	-9.778589e-10	-7.997265e+00	-6.341173e+01
1.610000e-06	-1.080801e-06	-9.687832e-10	-7.677728e+00	-6.289244e+01
1.620000e-06	-1.035879e-06	-9.566075e-10	-7.358610e+00	-6.236011e+01
1.630000e-06	-9.909026e-07	-9.481787e-10	-7.039112e+00	-6.181508e+01
1.640000e-06	-9.456506e-07	-9.419682e-10	-6.717654e+00	-6.125788e+01
1.650000e-06	-9.003514e-07	-9.329963e-10	-6.395861e+00	-6.068918e+01
1.660000e-06	-8.550684e-07	-9.207505e-10	-6.074182e+00	-6.010977e+01
1.670000e-06	-8.097524e-07	-9.107362e-10	-5.752269e+00	-5.952049e+01
1.680000e-06	-7.643683e-07	-9.038754e-10	-5.429872e+00	-5.892216e+01
1.690000e-06	-7.188873e-07	-8.943626e-10	-5.106787e+00	-5.831549e+01
1.700000e-06	-6.733388e-07	-8.822567e-10	-4.783222e+00	-5.770107e+01
1.710000e-06	-6.278046e-07	-8.723177e-10	-4.459759e+00	-5.707925e+01
1.720000e-06	-5.822232e-07	-8.670330e-10	-4.135961e+00	-5.645011e+01
1.730000e-06	-5.364891e-07	-8.621799e-10	-3.811078e+00	-5.581342e+01
1.740000e-06	-4.907482e-07	-8.527718e-10	-3.486147e+00	-5.516861e+01
1.750000e-06	-4.450335e-07	-8.399913e-10	-3.161402e+00	-5.451475e+01
1.760000e-06	-3.992808e-07	-8.288268e-10	-2.836386e+00	-5.385060e+01
1.770000e-06	-3.534793e-07	-8.173835e-10	-2.511024e+00	-5.317458e+01
1.780000e-06	-3.076311e-07	-8.030388e-10	-2.185331e+00	-5.248486e+01
1.790000e-06	-2.618554e-07	-7.877071e-10	-1.860152e+00	-5.177937e+01
1.800000e-06	-2.161596e-07	-7.782749e-10	-1.535541e+00	-5.105594e+01
1.810000e-06	-1.704034e-07	-7.713440e-10	-1.210501e+00	-5.031229e+01
1.820000e-06	-1.245660e-07	-7.620408e-10	-8.848841e-01	-4.954618e+01
1.830000e-06	-7.874226e-08	-7.494120e-10	-5.593644e-01	-4.875545e+01
1.840000e-06	-3.294626e-08	-7.342983e-10	-2.340416e-01	-4.793808e+01
1.850000e-06	1.291225e-08	-7.194022e-10	9.172522e-02	-4.709232e+01
1.860000e-06	5.879506e-08	-7.041556e-10	4.176647e-01	-4.621666e+01
1.870000e-06	1.046573e-07	-6.874534e-10	7.434577e-01	-4.530990e+01
1.880000e-06	1.504335e-07	-6.742174e-10	1.068640e+00	-4.437120e+01
1.890000e-06	1.961908e-07	-6.640981e-10	1.393688e+00	-4.340001e+01
1.900000e-06	2.420374e-07	-6.513420e-10	1.719370e+00	-4.239612e+01
1.910000e-06	2.879009e-07	-6.315386e-10	2.045172e+00	-4.135957e+01
1.920000e-06	3.338103e-07	-6.096828e-10	2.371301e+00	-4.029065e+01
1.930000e-06	3.796864e-07	-5.922687e-10	2.697193e+00	-3.918983e+01
1.940000e-06	4.254331e-07	-5.772378e-10	3.022165e+00	-3.805767e+01
1.950000e-06	4.711062e-07	-5.588942e-10	3.346615e+00	-3.689476e+01
1.960000e-06	5.167715e-07	-5.392189e-10	3.671010e+00	-3.570170e+01
1.970000e-06	5.624140e-07	-5.220982e-10	3.995242e+00	-3.447898e+01
1.980000e-06	6.080278e-07	-5.048119e-10	4.319270e+00	-3.322694e+01
1.990000e-06	6.536203e-07	-4.836891e-10	4.643147e+00	-3.194579e+01
2.000000e-06	6.991308e-07	-4.606495e-10	4.966442e+00	-3.063548e+01
2.010000e-06	7.445608e-07	-4.413477e-10	5.289165e+00	-2.929581e+01
2.020000e-06	7.899021e-07	-4.262789e-10	5.611258e+00	-2.792636e+01
2.030000e-06	8.351328e-07	-4.093416e-10	5.932564e+00	-2.652652e+01
2.040000e-06	8.802682e-07	-3.875969e-10	6.253195e+00	-2.509557e+01
2.050000e-06	9.253256e-07	-3.642980e-10	6.573271e+00	-2.363271e+01
2.060000e-06	9.703651e-07	-3.396540e-10	6.893219e+00	-2.213710e+01
2.070000e-06	1.015432e-06	-3.127553e-10	7.213364e+00	-2.060795e+01
2.080000e-06	1.060498e-06	-2.849941e-10	7.533497e+00	-1.904460e+01
2.090000e-06	1.105389e-06	-2.614460e-10	7.852397e+00	-1.744652e+01
2.100000e-06	1.150164e-06	-2.428660e-10	8.170462e+00	-1.581344e+01
2.110000e-06	1.194871e-06	-2.225515e-10	8.488050e+00	-1.414536e+01
2.120000e-06	1.239492e-06	-1.958455e-10	8.805027e+00	-1.244257e+01
2.130000e-06	1.284030e-06	-1.665244e-10	9.121413e+00	-1.070570e+01
2.140000e-06	1.328418e-06	-1.383621e-10	9.436731e+00	-8.935706e+00
2.150000e-06	1.372767e-06	-1.101964e-10	9.751777e+00	-7.133846e+00
2.160000e-06	1.417066e-06	-8.141498e-11	1.006647e+01	-5.301679e+00
2.170000e-06	1.461249e-06	-5.529014e-11	1.038033e+01	-3.441012e+00
2.180000e-06	1.505335e-06	-3.400087e-11	1.069351e+01	-1.553850e+00
2.190000e-06	1.549379e-06	-1.271469e-11	1.100638e+01	3.576527e-01
2.200000e-06	1.593408e-06	1.488895e-11	1.131915e+01	2.291257e+00
2.210000e-06	1.637399e-06	4.658548e-11	1.163165e+01	4.244689e+00
2.220000e-06	1.681327e-06	7.846851e-11	1.194371e+01	6.215696e+00
2.230000e-06	1.725166e-06	1.110787e-10	1.225513e+01	8.202088e+00
2.240000e-06	1.768917e-06	1.460330e-10	1.256593e+01	1.020177e+01
2.250000e-06	1.812635e-06	1.794668e-10	1.287649e+01	1.221276e+01
2.260000e-06	1.856264e-06	2.074007e-10	1.318641e+01	1.423319e+01
2.270000e-06	1.899767e-06	2.321726e-10	1.349545e+01	1.626132e+01
2.280000e-06	1.943172e-06	2.606659e-10	1.380379e+01	1.829549e+01
2.290000e-06	1.986354e-06	2.932341e-10	1.411054e+01	2.033409e+01
2.300000e-06	2.029271e-06	3.254596e-10	1.441541e+01	2.237552e+01
2.310000e-06	2.071963e-06	3.560467e-10	1.471868e+01	2.441817e+01
2.320000e-06	2.114487e-06	3.871769e-10	1.502076e+01	2.646031e+01
2.330000e-06	2.156778e-06	4.207484e-10	1.532119e+01	2.850011e+01
2.340000e-06	2.198601e-06	4.525023e-10	1.561829e+01	3.053554e+01
2.350000e-06	2.240140e-06	4.796381e-10	1.591337e+01	3.256438e+01
2.360000e-06	2.281598e-06	5.049777e-10	1.620787e+01	3.458418e+01
2.370000e-06	2.322797e-06	5.357237e-10	1.650054e+01	3.659226e+01
2.380000e-06	2.363711e-06	5.701838e-10	1.679118e+01	3.858572e+01
2.390000e-06	2.404386e-06	6.025149e-10	1.708013e+01	4.056147e+01
2.400000e-06	2.444772e-06	6.319126e-10	1.736702e+01	4.251627e+01
2.410000e-06	2.484980e-06	6.624010e-10	1.765265e+01	4.444681e+01
2.420000e-06	2.525085e-06	6.940682e-10	1.793754e+01	4.634974e+01
2.430000e-06	2.565076e-06	7.239051e-10	1.822163e+01	4.822180e+01
2.440000e-06	2.604969e-06	7.545317e-10	1.850501e+01	5.005985e+01
2.450000e-06	2.644781e-06	7.849492e-10	1.878783e+01	5.186102e+01
2.460000e-06	2.684520e-06	8.136891e-10	1.907012e+01	5.362270e+01
2.470000e-06	2.724140e-06	8.386586e-10	1.935158e+01	5.534269e+01
2.480000e-06	2.763528e-06	8.585864e-10	1.963138e+01	5.701922e+01
2.490000e-06	2.802702e-06	8.792363e-10	1.990966e+01	5.865099e+01
2.500000e-06	2.841623e-06	9.037505e-10	2.018614e+01	6.023717e+01
2.510000e-06	2.880250e-06	9.305137e-10	2.046054e+01	6.177746e+01
2.520000e-06	2.918686e-06	9.597554e-10	2.073358e+01	6.327200e+01
2.530000e-06	2.956947e-06	9.917256e-10	2.100537e+01	6.472138e+01
2.540000e-06	2.995083e-06	1.022338e-09	2.127628e+01	6.612656e+01
2.550000e-06	3.033073e-06	1.044546e-09	2.154615e+01	6.748879e+01
2.560000e-06	3.070899e-06	1.057613e-09	2.181486e+01	6.880954e+01
2.570000e-06	3.108494e-06	1.068873e-09	2.208193e+01	7.009042e+01
2.580000e-06	3.145848e-06	1.083125e-09	2.234728e+01	7.133306e+01
2.590000e-06	3.183060e-06	1.098537e-09	2.261163e+01	7.253905e+01
2.600000e-06	3.220037e-06	1.117640e-09	2.287430e+01	7.370984e+01
2.610000e-06	3.256659e-06	1.144303e-09	2.313445e+01	7.484668e+01
2.620000e-06	3.292976e-06	1.172806e-09	2.339244e+01	7.595060e+01
2.630000e-06	3.329107e-06	1.196167e-09	2.364910e+01	7.702233e+01
2.640000e-06	3.365108e-06	1.212393e-09	2.390484e+01	7.806229e+01
2.650000e-06	3.401051e-06	1.223388e-09	2.416017e+01	7.907066e+01
2.660000e-06	3.436939e-06	1.229803e-09	2.441512e+01	8.004733e+01
2.670000e-06	3.472674e-06	1.232790e-09	2.466897e+01	8.099200e+01
2.680000e-06	3.508211e-06	1.237991e-09	2.492141e+01	8.190420e+01
2.690000e-06	3.543477e-06	1.249732e-09	2.517193e+01	8.278339e+01
2.700000e-06	3.578353e-06	1.268490e-09	2.541969e+01	8.362902e+01
2.710000e-06	3.612711e-06	1.290846e-09	2.566376e+01	8.444058e+01
2.720000e-06	3.646689e-06	1.310697e-09	2.590512e+01	8.521774e+01
2.730000e-06	3.680315e-06	1.325394e-09	2.614399e+01	8.596033e+01
2.740000e-06	3.713443e-06	1.335108e-09	2.637932e+01	8.666846e+01
2.750000e-06	3.746182e-06	1.339408e-09	2.661190e+01	8.734250e+01
2.760000e-06	3.778585e-06	1.341119e-09	2.684208e+01	8.798315e+01
2.770000e-06	3.810697e-06	1.344088e-09	2.707019e+01	8.859139e+01
2.780000e-06	3.842681e-06	1.353088e-09	2.729740e+01	8.916847e+01
2.790000e-06	3.874581e-06	1.365834e-09	2.752400e+01	8.971591e+01
2.800000e-06	3.906344e-06	1.374899e-09	2.774964e+01	9.023539e+01
2.810000e-06	3.937912e-06	1.378095e-09	2.797389e+01	9.072874e+01
2.820000e-06	3.969216e-06	1.381439e-09	2.819627e+01	9.119781e+01
2.830000e-06	4.000159e-06	1.390469e-09	2.841608e+01	9.164444e+01
2.840000e-06	4.030669e-06	1.399858e-09	2.863281e+01	9.207037e+01
2.850000e-06	4.060901e-06	1.405352e-09	2.884757e+01	9.247717e+01
2.860000e-06	4.090968e-06	1.411103e-09	2.906117e+01	9.286618e+01
2.870000e-06	4.120830e-06	1.417607e-09	2.927330e+01	9.323848e+01
2.880000e-06	4.150457e-06	1.420683e-09	2.948376e+01	9.359486e+01
2.890000e-06	4.179760e-06	1.417093e-09	2.969192e+01	9.393579e+01
2.900000e-06	4.208734e-06	1.412643e-09	2.989775e+01	9.426149e+01
