# Temperatura_=_15.5
# Concentracion g/m^3_=_4090.0
# C_Vs_to_Am_M_A/Vsm_=_65563218390.804596
# pendiente_HvsI_1/m_=_3716.3
# ordenada_HvsI_A/m_=_1297.0
# frecuencia_Hz_=_135085.7108194773

Tiempo_(s)	Campo_(V.s)	Magnetizacion_(V.s)	Campo_(kA/m)	Magnetizacion_(A/m)
0.000000e+00	-5.417592e-06	-1.260613e-09	-3.839098e+01	-8.630642e+01
1.000000e-08	-5.417785e-06	-1.251863e-09	-3.839235e+01	-8.617796e+01
2.000000e-08	-5.417692e-06	-1.239106e-09	-3.839169e+01	-8.603777e+01
3.000000e-08	-5.417299e-06	-1.228997e-09	-3.838891e+01	-8.588593e+01
4.000000e-08	-5.416639e-06	-1.226662e-09	-3.838423e+01	-8.572298e+01
5.000000e-08	-5.415642e-06	-1.229183e-09	-3.837717e+01	-8.554994e+01
6.000000e-08	-5.413961e-06	-1.230119e-09	-3.836525e+01	-8.536829e+01
7.000000e-08	-5.411479e-06	-1.231285e-09	-3.834767e+01	-8.518001e+01
8.000000e-08	-5.408326e-06	-1.222762e-09	-3.832532e+01	-8.498749e+01
9.000000e-08	-5.404640e-06	-1.213895e-09	-3.829921e+01	-8.479350e+01
1.000000e-07	-5.400551e-06	-1.264709e-09	-3.827023e+01	-8.460110e+01
1.100000e-07	-5.396148e-06	-1.313914e-09	-3.823903e+01	-8.441355e+01
1.200000e-07	-5.391587e-06	-1.246091e-09	-3.820670e+01	-8.423419e+01
1.300000e-07	-5.386972e-06	-1.154298e-09	-3.817400e+01	-8.406631e+01
1.400000e-07	-5.382026e-06	-1.222946e-09	-3.813895e+01	-8.391304e+01
1.500000e-07	-5.376474e-06	-1.308447e-09	-3.809961e+01	-8.377724e+01
1.600000e-07	-5.370534e-06	-1.234305e-09	-3.805752e+01	-8.366133e+01
1.700000e-07	-5.364446e-06	-1.102851e-09	-3.801438e+01	-8.356724e+01
1.800000e-07	-5.357959e-06	-1.210642e-09	-3.796840e+01	-8.349629e+01
1.900000e-07	-5.350784e-06	-1.313874e-09	-3.791756e+01	-8.344909e+01
2.000000e-07	-5.343289e-06	-1.271414e-09	-3.786445e+01	-8.342557e+01
2.100000e-07	-5.335685e-06	-1.164433e-09	-3.781056e+01	-8.342490e+01
2.200000e-07	-5.327872e-06	-1.239751e-09	-3.775520e+01	-8.344552e+01
2.300000e-07	-5.319774e-06	-1.288528e-09	-3.769781e+01	-8.348517e+01
2.400000e-07	-5.311363e-06	-1.240966e-09	-3.763821e+01	-8.354096e+01
2.500000e-07	-5.302526e-06	-1.234373e-09	-3.757559e+01	-8.360950e+01
2.600000e-07	-5.293043e-06	-1.314312e-09	-3.750839e+01	-8.368694e+01
2.700000e-07	-5.282723e-06	-1.330922e-09	-3.743526e+01	-8.376915e+01
2.800000e-07	-5.271826e-06	-1.266044e-09	-3.735804e+01	-8.385185e+01
2.900000e-07	-5.260586e-06	-1.298920e-09	-3.727838e+01	-8.393075e+01
3.000000e-07	-5.248893e-06	-1.332170e-09	-3.719552e+01	-8.400170e+01
3.100000e-07	-5.236847e-06	-1.265791e-09	-3.711016e+01	-8.406081e+01
3.200000e-07	-5.224435e-06	-1.240023e-09	-3.702221e+01	-8.410463e+01
3.300000e-07	-5.211598e-06	-1.359122e-09	-3.693124e+01	-8.413019e+01
3.400000e-07	-5.198362e-06	-1.350090e-09	-3.683744e+01	-8.413512e+01
3.500000e-07	-5.184778e-06	-1.279854e-09	-3.674119e+01	-8.411773e+01
3.600000e-07	-5.170842e-06	-1.292119e-09	-3.664243e+01	-8.407698e+01
3.700000e-07	-5.156571e-06	-1.353734e-09	-3.654130e+01	-8.401257e+01
3.800000e-07	-5.141819e-06	-1.270084e-09	-3.643676e+01	-8.392483e+01
3.900000e-07	-5.126376e-06	-1.253722e-09	-3.632733e+01	-8.381473e+01
4.000000e-07	-5.110295e-06	-1.291731e-09	-3.621337e+01	-8.368379e+01
4.100000e-07	-5.093688e-06	-1.299142e-09	-3.609569e+01	-8.353398e+01
4.200000e-07	-5.076726e-06	-1.275449e-09	-3.597549e+01	-8.336760e+01
4.300000e-07	-5.059539e-06	-1.323084e-09	-3.585370e+01	-8.318721e+01
4.400000e-07	-5.042051e-06	-1.308236e-09	-3.572977e+01	-8.299547e+01
4.500000e-07	-5.024356e-06	-1.265338e-09	-3.560438e+01	-8.279501e+01
4.600000e-07	-5.006406e-06	-1.275619e-09	-3.547717e+01	-8.258838e+01
4.700000e-07	-4.988015e-06	-1.300957e-09	-3.534685e+01	-8.237788e+01
4.800000e-07	-4.969201e-06	-1.260775e-09	-3.521353e+01	-8.216553e+01
4.900000e-07	-4.949959e-06	-1.253784e-09	-3.507717e+01	-8.195299e+01
5.000000e-07	-4.930353e-06	-1.279218e-09	-3.493824e+01	-8.174151e+01
5.100000e-07	-4.910508e-06	-1.274857e-09	-3.479760e+01	-8.153193e+01
5.200000e-07	-4.890463e-06	-1.260219e-09	-3.465556e+01	-8.132467e+01
5.300000e-07	-4.870233e-06	-1.256636e-09	-3.451221e+01	-8.111977e+01
5.400000e-07	-4.849669e-06	-1.253227e-09	-3.436648e+01	-8.091691e+01
5.500000e-07	-4.828764e-06	-1.257163e-09	-3.421834e+01	-8.071549e+01
5.600000e-07	-4.807555e-06	-1.267352e-09	-3.406805e+01	-8.051471e+01
5.700000e-07	-4.785974e-06	-1.248190e-09	-3.391511e+01	-8.031362e+01
5.800000e-07	-4.764080e-06	-1.240140e-09	-3.375997e+01	-8.011121e+01
5.900000e-07	-4.741891e-06	-1.243225e-09	-3.360273e+01	-7.990650e+01
6.000000e-07	-4.719385e-06	-1.239472e-09	-3.344324e+01	-7.969862e+01
6.100000e-07	-4.696532e-06	-1.223488e-09	-3.328130e+01	-7.948681e+01
6.200000e-07	-4.673278e-06	-1.227556e-09	-3.311651e+01	-7.927057e+01
6.300000e-07	-4.649774e-06	-1.224539e-09	-3.294995e+01	-7.904960e+01
6.400000e-07	-4.626042e-06	-1.236292e-09	-3.278178e+01	-7.882388e+01
6.500000e-07	-4.602052e-06	-1.234640e-09	-3.261178e+01	-7.859362e+01
6.600000e-07	-4.577919e-06	-1.222059e-09	-3.244077e+01	-7.835928e+01
6.700000e-07	-4.553442e-06	-1.206396e-09	-3.226731e+01	-7.812154e+01
6.800000e-07	-4.528552e-06	-1.216926e-09	-3.209093e+01	-7.788123e+01
6.900000e-07	-4.503309e-06	-1.207739e-09	-3.191205e+01	-7.763929e+01
7.000000e-07	-4.477578e-06	-1.195110e-09	-3.172971e+01	-7.739671e+01
7.100000e-07	-4.451316e-06	-1.189141e-09	-3.154361e+01	-7.715449e+01
7.200000e-07	-4.424493e-06	-1.200052e-09	-3.135353e+01	-7.691354e+01
7.300000e-07	-4.397194e-06	-1.199426e-09	-3.116008e+01	-7.667465e+01
7.400000e-07	-4.369601e-06	-1.193900e-09	-3.096455e+01	-7.643846e+01
7.500000e-07	-4.341778e-06	-1.179958e-09	-3.076739e+01	-7.620538e+01
7.600000e-07	-4.313838e-06	-1.180593e-09	-3.056939e+01	-7.597559e+01
7.700000e-07	-4.285744e-06	-1.181859e-09	-3.037031e+01	-7.574906e+01
7.800000e-07	-4.257417e-06	-1.175150e-09	-3.016957e+01	-7.552549e+01
7.900000e-07	-4.228778e-06	-1.164780e-09	-2.996663e+01	-7.530438e+01
8.000000e-07	-4.199776e-06	-1.167822e-09	-2.976111e+01	-7.508504e+01
8.100000e-07	-4.170447e-06	-1.171506e-09	-2.955327e+01	-7.486662e+01
8.200000e-07	-4.140814e-06	-1.164674e-09	-2.934328e+01	-7.464819e+01
8.300000e-07	-4.110963e-06	-1.152316e-09	-2.913175e+01	-7.442876e+01
8.400000e-07	-4.080891e-06	-1.144814e-09	-2.891865e+01	-7.420733e+01
8.500000e-07	-4.050542e-06	-1.148526e-09	-2.870359e+01	-7.398298e+01
8.600000e-07	-4.019901e-06	-1.150837e-09	-2.848645e+01	-7.375489e+01
8.700000e-07	-3.988878e-06	-1.148195e-09	-2.826661e+01	-7.352237e+01
8.800000e-07	-3.957627e-06	-1.140051e-09	-2.804516e+01	-7.328494e+01
8.900000e-07	-3.926235e-06	-1.139855e-09	-2.782270e+01	-7.304229e+01
9.000000e-07	-3.894668e-06	-1.134814e-09	-2.759900e+01	-7.279434e+01
9.100000e-07	-3.862902e-06	-1.122795e-09	-2.737390e+01	-7.254122e+01
9.200000e-07	-3.830945e-06	-1.108318e-09	-2.714744e+01	-7.228323e+01
9.300000e-07	-3.798822e-06	-1.111577e-09	-2.691980e+01	-7.202087e+01
9.400000e-07	-3.766424e-06	-1.118760e-09	-2.669022e+01	-7.175476e+01
9.500000e-07	-3.733684e-06	-1.122694e-09	-2.645821e+01	-7.148563e+01
9.600000e-07	-3.700539e-06	-1.117280e-09	-2.622334e+01	-7.121425e+01
9.700000e-07	-3.666865e-06	-1.114101e-09	-2.598471e+01	-7.094143e+01
9.800000e-07	-3.632686e-06	-1.105167e-09	-2.574251e+01	-7.066791e+01
9.900000e-07	-3.598107e-06	-1.095391e-09	-2.549747e+01	-7.039440e+01
1.000000e-06	-3.563246e-06	-1.081149e-09	-2.525043e+01	-7.012147e+01
1.010000e-06	-3.528117e-06	-1.076568e-09	-2.500150e+01	-6.984957e+01
1.020000e-06	-3.492704e-06	-1.081509e-09	-2.475054e+01	-6.957902e+01
1.030000e-06	-3.457083e-06	-1.089407e-09	-2.449812e+01	-6.930995e+01
1.040000e-06	-3.421239e-06	-1.086069e-09	-2.424412e+01	-6.904237e+01
1.050000e-06	-3.385218e-06	-1.077904e-09	-2.398886e+01	-6.877611e+01
1.060000e-06	-3.349058e-06	-1.066331e-09	-2.373261e+01	-6.851088e+01
1.070000e-06	-3.312701e-06	-1.060071e-09	-2.347498e+01	-6.824632e+01
1.080000e-06	-3.276171e-06	-1.052380e-09	-2.321612e+01	-6.798196e+01
1.090000e-06	-3.239431e-06	-1.047345e-09	-2.295576e+01	-6.771729e+01
1.100000e-06	-3.202410e-06	-1.047122e-09	-2.269341e+01	-6.745182e+01
1.110000e-06	-3.165158e-06	-1.051262e-09	-2.242944e+01	-6.718506e+01
1.120000e-06	-3.127720e-06	-1.048812e-09	-2.216414e+01	-6.691656e+01
1.130000e-06	-3.090104e-06	-1.034032e-09	-2.189758e+01	-6.664596e+01
1.140000e-06	-3.052275e-06	-1.017548e-09	-2.162951e+01	-6.637299e+01
1.150000e-06	-3.014207e-06	-1.006954e-09	-2.135975e+01	-6.609744e+01
1.160000e-06	-2.975859e-06	-1.006599e-09	-2.108800e+01	-6.581922e+01
1.170000e-06	-2.937276e-06	-1.007554e-09	-2.081458e+01	-6.553832e+01
1.180000e-06	-2.898444e-06	-1.007946e-09	-2.053941e+01	-6.525481e+01
1.190000e-06	-2.859522e-06	-1.007968e-09	-2.026359e+01	-6.496880e+01
1.200000e-06	-2.820509e-06	-1.007732e-09	-1.998713e+01	-6.468045e+01
1.210000e-06	-2.781157e-06	-9.995663e-10	-1.970827e+01	-6.438991e+01
1.220000e-06	-2.741613e-06	-9.843429e-10	-1.942805e+01	-6.409732e+01
1.230000e-06	-2.702030e-06	-9.688282e-10	-1.914754e+01	-6.380279e+01
1.240000e-06	-2.662281e-06	-9.638521e-10	-1.886587e+01	-6.350636e+01
1.250000e-06	-2.622390e-06	-9.657893e-10	-1.858319e+01	-6.320800e+01
1.260000e-06	-2.582387e-06	-9.709356e-10	-1.829972e+01	-6.290760e+01
1.270000e-06	-2.542258e-06	-9.716588e-10	-1.801535e+01	-6.260495e+01
1.280000e-06	-2.502088e-06	-9.736214e-10	-1.773069e+01	-6.229978e+01
1.290000e-06	-2.461829e-06	-9.681131e-10	-1.744539e+01	-6.199175e+01
1.300000e-06	-2.421408e-06	-9.521171e-10	-1.715896e+01	-6.168046e+01
1.310000e-06	-2.380652e-06	-9.277754e-10	-1.687015e+01	-6.136547e+01
1.320000e-06	-2.339558e-06	-9.145928e-10	-1.657894e+01	-6.104636e+01
1.330000e-06	-2.298299e-06	-9.153023e-10	-1.628657e+01	-6.072272e+01
1.340000e-06	-2.256778e-06	-9.226088e-10	-1.599233e+01	-6.039419e+01
1.350000e-06	-2.214958e-06	-9.277362e-10	-1.569598e+01	-6.006046e+01
1.360000e-06	-2.172951e-06	-9.318271e-10	-1.539830e+01	-5.972136e+01
1.370000e-06	-2.130534e-06	-9.311402e-10	-1.509772e+01	-5.937677e+01
1.380000e-06	-2.087789e-06	-9.197665e-10	-1.479481e+01	-5.902673e+01
1.390000e-06	-2.044929e-06	-8.966573e-10	-1.449109e+01	-5.867136e+01
1.400000e-06	-2.001967e-06	-8.763902e-10	-1.418665e+01	-5.831090e+01
1.410000e-06	-1.958849e-06	-8.715362e-10	-1.388110e+01	-5.794567e+01
1.420000e-06	-1.915418e-06	-8.769219e-10	-1.357334e+01	-5.757606e+01
1.430000e-06	-1.871823e-06	-8.794351e-10	-1.326440e+01	-5.720249e+01
1.440000e-06	-1.828154e-06	-8.789510e-10	-1.295495e+01	-5.682540e+01
1.450000e-06	-1.784387e-06	-8.793548e-10	-1.264480e+01	-5.644517e+01
1.460000e-06	-1.740583e-06	-8.745706e-10	-1.233439e+01	-5.606214e+01
1.470000e-06	-1.696739e-06	-8.602862e-10	-1.202369e+01	-5.567654e+01
1.480000e-06	-1.652795e-06	-8.413193e-10	-1.171229e+01	-5.528848e+01
1.490000e-06	-1.608784e-06	-8.326620e-10	-1.140042e+01	-5.489790e+01
1.500000e-06	-1.564698e-06	-8.350046e-10	-1.108801e+01	-5.450460e+01
1.510000e-06	-1.520537e-06	-8.388602e-10	-1.077507e+01	-5.410820e+01
1.520000e-06	-1.476362e-06	-8.372086e-10	-1.046203e+01	-5.370814e+01
1.530000e-06	-1.432101e-06	-8.334923e-10	-1.014838e+01	-5.330371e+01
1.540000e-06	-1.387701e-06	-8.276474e-10	-9.833743e+00	-5.289407e+01
1.550000e-06	-1.343210e-06	-8.195076e-10	-9.518465e+00	-5.247828e+01
1.560000e-06	-1.298608e-06	-8.036622e-10	-9.202401e+00	-5.205531e+01
1.570000e-06	-1.253914e-06	-7.913762e-10	-8.885682e+00	-5.162413e+01
1.580000e-06	-1.209133e-06	-7.914599e-10	-8.568344e+00	-5.118370e+01
1.590000e-06	-1.164272e-06	-7.927794e-10	-8.250445e+00	-5.073305e+01
1.600000e-06	-1.119378e-06	-7.854411e-10	-7.932309e+00	-5.027130e+01
1.610000e-06	-1.074382e-06	-7.754787e-10	-7.613453e+00	-4.979769e+01
1.620000e-06	-1.029205e-06	-7.715512e-10	-7.293312e+00	-4.931163e+01
1.630000e-06	-9.839113e-07	-7.667115e-10	-6.972346e+00	-4.881268e+01
1.640000e-06	-9.385738e-07	-7.516476e-10	-6.651068e+00	-4.830060e+01
1.650000e-06	-8.932245e-07	-7.365208e-10	-6.329707e+00	-4.777530e+01
1.660000e-06	-8.478867e-07	-7.266167e-10	-6.008427e+00	-4.723686e+01
1.670000e-06	-8.024473e-07	-7.225344e-10	-5.686427e+00	-4.668548e+01
1.680000e-06	-7.568899e-07	-7.178522e-10	-5.363591e+00	-4.612145e+01
1.690000e-06	-7.113174e-07	-7.098282e-10	-5.040648e+00	-4.554512e+01
1.700000e-06	-6.656554e-07	-7.023599e-10	-4.717071e+00	-4.495683e+01
1.710000e-06	-6.198887e-07	-6.967979e-10	-4.392752e+00	-4.435687e+01
1.720000e-06	-5.741616e-07	-6.881210e-10	-4.068713e+00	-4.374542e+01
1.730000e-06	-5.284306e-07	-6.753875e-10	-3.744647e+00	-4.312252e+01
1.740000e-06	-4.826326e-07	-6.619283e-10	-3.420106e+00	-4.248801e+01
1.750000e-06	-4.368579e-07	-6.499313e-10	-3.095730e+00	-4.184150e+01
1.760000e-06	-3.910527e-07	-6.386224e-10	-2.771139e+00	-4.118235e+01
1.770000e-06	-3.452112e-07	-6.243377e-10	-2.446290e+00	-4.050968e+01
1.780000e-06	-2.994354e-07	-6.128121e-10	-2.121906e+00	-3.982231e+01
1.790000e-06	-2.536333e-07	-6.056439e-10	-1.797336e+00	-3.911886e+01
1.800000e-06	-2.077403e-07	-6.008000e-10	-1.472122e+00	-3.839772e+01
1.810000e-06	-1.618313e-07	-5.921050e-10	-1.146794e+00	-3.765711e+01
1.820000e-06	-1.159365e-07	-5.784747e-10	-8.215670e-01	-3.689513e+01
1.830000e-06	-7.003639e-08	-5.630485e-10	-4.963028e-01	-3.610983e+01
1.840000e-06	-2.411091e-08	-5.456971e-10	-1.708585e-01	-3.529925e+01
1.850000e-06	2.184403e-08	-5.266624e-10	1.547946e-01	-3.446150e+01
1.860000e-06	6.780796e-08	-5.098298e-10	4.805113e-01	-3.359484e+01
1.870000e-06	1.138445e-07	-5.013074e-10	8.067424e-01	-3.269770e+01
1.880000e-06	1.598510e-07	-5.008586e-10	1.132761e+00	-3.176878e+01
1.890000e-06	2.057408e-07	-4.961927e-10	1.457953e+00	-3.080703e+01
1.900000e-06	2.516358e-07	-4.805303e-10	1.783181e+00	-2.981173e+01
1.910000e-06	2.975478e-07	-4.578173e-10	2.108529e+00	-2.878252e+01
1.920000e-06	3.433778e-07	-4.346635e-10	2.433297e+00	-2.771932e+01
1.930000e-06	3.891913e-07	-4.104716e-10	2.757948e+00	-2.662240e+01
1.940000e-06	4.350305e-07	-3.871084e-10	3.082781e+00	-2.549231e+01
1.950000e-06	4.807618e-07	-3.670511e-10	3.406849e+00	-2.432986e+01
1.960000e-06	5.265058e-07	-3.535567e-10	3.731008e+00	-2.313605e+01
1.970000e-06	5.723142e-07	-3.447474e-10	4.055622e+00	-2.191204e+01
1.980000e-06	6.180196e-07	-3.311222e-10	4.379507e+00	-2.065907e+01
1.990000e-06	6.636484e-07	-3.109915e-10	4.702849e+00	-1.937839e+01
2.000000e-06	7.092444e-07	-2.876780e-10	5.025958e+00	-1.807123e+01
2.010000e-06	7.547252e-07	-2.647585e-10	5.348252e+00	-1.673874e+01
2.020000e-06	8.001633e-07	-2.403995e-10	5.670242e+00	-1.538190e+01
2.030000e-06	8.455514e-07	-2.166594e-10	5.991879e+00	-1.400155e+01
2.040000e-06	8.908180e-07	-1.950922e-10	6.312654e+00	-1.259832e+01
2.050000e-06	9.360884e-07	-1.766745e-10	6.633456e+00	-1.117263e+01
2.060000e-06	9.813144e-07	-1.600506e-10	6.953943e+00	-9.724700e+00
2.070000e-06	1.026372e-06	-1.418097e-10	7.273240e+00	-8.254581e+00
2.080000e-06	1.071372e-06	-1.193338e-10	7.592122e+00	-6.762156e+00
2.090000e-06	1.116300e-06	-9.206936e-11	7.910501e+00	-5.247202e+00
2.100000e-06	1.161102e-06	-6.361219e-11	8.227979e+00	-3.709435e+00
2.110000e-06	1.205810e-06	-3.590096e-11	8.544796e+00	-2.148573e+00
2.120000e-06	1.250397e-06	-1.028239e-11	8.860759e+00	-5.643895e-01
2.130000e-06	1.294864e-06	1.241241e-11	9.175867e+00	1.043220e+00
2.140000e-06	1.339283e-06	3.498000e-11	9.490635e+00	2.674182e+00
2.150000e-06	1.383671e-06	5.809884e-11	9.805185e+00	4.328190e+00
2.160000e-06	1.427971e-06	8.120553e-11	1.011911e+01	6.004662e+00
2.170000e-06	1.472215e-06	1.043763e-10	1.043264e+01	7.702703e+00
2.180000e-06	1.516406e-06	1.293555e-10	1.074579e+01	9.421089e+00
2.190000e-06	1.560481e-06	1.565760e-10	1.105812e+01	1.115825e+01
2.200000e-06	1.604491e-06	1.842301e-10	1.137000e+01	1.291228e+01
2.210000e-06	1.648469e-06	2.086267e-10	1.168164e+01	1.468095e+01
2.220000e-06	1.692389e-06	2.341211e-10	1.199287e+01	1.646174e+01
2.230000e-06	1.736274e-06	2.640549e-10	1.230386e+01	1.825188e+01
2.240000e-06	1.780084e-06	2.961632e-10	1.261431e+01	2.004840e+01
2.250000e-06	1.823844e-06	3.260428e-10	1.292441e+01	2.184819e+01
2.260000e-06	1.867579e-06	3.524392e-10	1.323433e+01	2.364804e+01
2.270000e-06	1.911184e-06	3.792144e-10	1.354333e+01	2.544472e+01
2.280000e-06	1.954608e-06	4.053473e-10	1.385104e+01	2.723504e+01
2.290000e-06	1.997761e-06	4.324796e-10	1.415685e+01	2.901589e+01
2.300000e-06	2.040688e-06	4.592392e-10	1.446104e+01	3.078431e+01
2.310000e-06	2.083419e-06	4.846092e-10	1.476385e+01	3.253753e+01
2.320000e-06	2.126055e-06	5.126121e-10	1.506599e+01	3.427297e+01
2.330000e-06	2.168461e-06	5.431810e-10	1.536649e+01	3.598831e+01
2.340000e-06	2.210481e-06	5.695255e-10	1.566425e+01	3.768149e+01
2.350000e-06	2.252193e-06	5.911884e-10	1.595984e+01	3.935069e+01
2.360000e-06	2.293489e-06	6.105052e-10	1.625248e+01	4.099437e+01
2.370000e-06	2.334439e-06	6.308462e-10	1.654267e+01	4.261119e+01
2.380000e-06	2.375194e-06	6.555741e-10	1.683147e+01	4.420008e+01
2.390000e-06	2.415776e-06	6.816698e-10	1.711905e+01	4.576012e+01
2.400000e-06	2.456238e-06	7.053858e-10	1.740578e+01	4.729058e+01
2.410000e-06	2.496588e-06	7.282343e-10	1.769171e+01	4.879088e+01
2.420000e-06	2.536735e-06	7.539019e-10	1.797621e+01	5.026051e+01
2.430000e-06	2.576755e-06	7.799497e-10	1.825980e+01	5.169909e+01
2.440000e-06	2.616680e-06	8.008513e-10	1.854272e+01	5.310625e+01
2.450000e-06	2.656519e-06	8.176653e-10	1.882504e+01	5.448170e+01
2.460000e-06	2.696257e-06	8.384123e-10	1.910664e+01	5.582513e+01
2.470000e-06	2.735935e-06	8.624900e-10	1.938781e+01	5.713627e+01
2.480000e-06	2.775436e-06	8.832679e-10	1.966773e+01	5.841487e+01
2.490000e-06	2.814602e-06	8.997321e-10	1.994527e+01	5.966065e+01
2.500000e-06	2.853516e-06	9.162376e-10	2.022103e+01	6.087339e+01
2.510000e-06	2.892251e-06	9.373481e-10	2.049552e+01	6.205286e+01
2.520000e-06	2.930836e-06	9.595274e-10	2.076894e+01	6.319889e+01
2.530000e-06	2.969277e-06	9.801293e-10	2.104135e+01	6.431134e+01
2.540000e-06	3.007541e-06	1.000495e-09	2.131251e+01	6.539015e+01
2.550000e-06	3.045616e-06	1.020276e-09	2.158232e+01	6.643532e+01
2.560000e-06	3.083472e-06	1.035516e-09	2.185058e+01	6.744696e+01
2.570000e-06	3.121152e-06	1.045411e-09	2.211759e+01	6.842526e+01
2.580000e-06	3.158650e-06	1.053885e-09	2.238332e+01	6.937049e+01
2.590000e-06	3.195848e-06	1.065110e-09	2.264691e+01	7.028307e+01
2.600000e-06	3.232726e-06	1.083094e-09	2.290825e+01	7.116348e+01
2.610000e-06	3.269343e-06	1.105668e-09	2.316773e+01	7.201231e+01
2.620000e-06	3.305768e-06	1.125539e-09	2.342585e+01	7.283023e+01
2.630000e-06	3.342031e-06	1.140060e-09	2.368282e+01	7.361799e+01
2.640000e-06	3.378130e-06	1.149013e-09	2.393863e+01	7.437638e+01
2.650000e-06	3.414067e-06	1.154170e-09	2.419329e+01	7.510625e+01
2.660000e-06	3.449901e-06	1.155780e-09	2.444723e+01	7.580847e+01
2.670000e-06	3.485618e-06	1.159296e-09	2.470033e+01	7.648391e+01
2.680000e-06	3.521158e-06	1.171358e-09	2.495218e+01	7.713343e+01
2.690000e-06	3.556480e-06	1.187302e-09	2.520248e+01	7.775788e+01
2.700000e-06	3.591502e-06	1.201188e-09	2.545066e+01	7.835806e+01
2.710000e-06	3.626080e-06	1.213575e-09	2.569569e+01	7.893472e+01
2.720000e-06	3.660144e-06	1.225624e-09	2.593708e+01	7.948856e+01
2.730000e-06	3.693711e-06	1.234324e-09	2.617495e+01	8.002023e+01
2.740000e-06	3.726856e-06	1.237330e-09	2.640983e+01	8.053031e+01
2.750000e-06	3.759678e-06	1.237262e-09	2.664241e+01	8.101930e+01
2.760000e-06	3.792168e-06	1.240502e-09	2.687266e+01	8.148766e+01
2.770000e-06	3.824393e-06	1.246769e-09	2.710101e+01	8.193580e+01
2.780000e-06	3.856430e-06	1.253809e-09	2.732804e+01	8.236408e+01
2.790000e-06	3.888297e-06	1.262460e-09	2.755386e+01	8.277281e+01
2.800000e-06	3.919994e-06	1.270936e-09	2.777848e+01	8.316229e+01
2.810000e-06	3.951435e-06	1.276031e-09	2.800127e+01	8.353279e+01
2.820000e-06	3.982626e-06	1.277110e-09	2.822230e+01	8.388458e+01
2.830000e-06	4.013472e-06	1.274038e-09	2.844089e+01	8.421792e+01
2.840000e-06	4.044026e-06	1.271387e-09	2.865741e+01	8.453311e+01
2.850000e-06	4.074384e-06	1.273753e-09	2.887254e+01	8.483044e+01
2.860000e-06	4.104443e-06	1.279191e-09	2.908555e+01	8.511025e+01
2.870000e-06	4.134282e-06	1.286157e-09	2.929700e+01	8.537292e+01
2.880000e-06	4.163915e-06	1.295924e-09	2.950699e+01	8.561887e+01
2.890000e-06	4.193366e-06	1.302508e-09	2.971568e+01	8.584856e+01
2.900000e-06	4.222524e-06	1.302854e-09	2.992231e+01	8.606253e+01
