# Temperatura_=_-5.73
# Concentracion g/m^3_=_4090.0
# C_Vs_to_Am_M_A/Vsm_=_65563218390.804596
# pendiente_HvsI_1/m_=_3716.3
# ordenada_HvsI_A/m_=_1297.0
# frecuencia_Hz_=_135074.98349601997

Tiempo_(s)	Campo_(V.s)	Magnetizacion_(V.s)	Campo_(kA/m)	Magnetizacion_(A/m)
0.000000e+00	-5.428899e-06	-1.406177e-09	-3.838712e+01	-9.094709e+01
1.000000e-08	-5.429011e-06	-1.409790e-09	-3.838792e+01	-9.093819e+01
2.000000e-08	-5.428818e-06	-1.413213e-09	-3.838655e+01	-9.091759e+01
3.000000e-08	-5.428215e-06	-1.415217e-09	-3.838229e+01	-9.088548e+01
4.000000e-08	-5.427088e-06	-1.414788e-09	-3.837432e+01	-9.084246e+01
5.000000e-08	-5.425462e-06	-1.410893e-09	-3.836282e+01	-9.078954e+01
6.000000e-08	-5.423261e-06	-1.404995e-09	-3.834726e+01	-9.072816e+01
7.000000e-08	-5.420471e-06	-1.404262e-09	-3.832753e+01	-9.066017e+01
8.000000e-08	-5.417137e-06	-1.411943e-09	-3.830396e+01	-9.058772e+01
9.000000e-08	-5.413197e-06	-1.423061e-09	-3.827610e+01	-9.051328e+01
1.000000e-07	-5.408916e-06	-1.423539e-09	-3.824583e+01	-9.043948e+01
1.100000e-07	-5.404534e-06	-1.403116e-09	-3.821485e+01	-9.036908e+01
1.200000e-07	-5.400082e-06	-1.392163e-09	-3.818337e+01	-9.030481e+01
1.300000e-07	-5.395285e-06	-1.416170e-09	-3.814945e+01	-9.024933e+01
1.400000e-07	-5.389905e-06	-1.431781e-09	-3.811141e+01	-9.020505e+01
1.500000e-07	-5.384133e-06	-1.407908e-09	-3.807059e+01	-9.017410e+01
1.600000e-07	-5.378133e-06	-1.369295e-09	-3.802817e+01	-9.015818e+01
1.700000e-07	-5.371790e-06	-1.371159e-09	-3.798331e+01	-9.015849e+01
1.800000e-07	-5.364905e-06	-1.395858e-09	-3.793463e+01	-9.017573e+01
1.900000e-07	-5.357665e-06	-1.377614e-09	-3.788344e+01	-9.020997e+01
2.000000e-07	-5.350291e-06	-1.352940e-09	-3.783130e+01	-9.026070e+01
2.100000e-07	-5.342692e-06	-1.352553e-09	-3.777757e+01	-9.032680e+01
2.200000e-07	-5.334787e-06	-1.372431e-09	-3.772167e+01	-9.040659e+01
2.300000e-07	-5.326594e-06	-1.372226e-09	-3.766374e+01	-9.049789e+01
2.400000e-07	-5.317990e-06	-1.386055e-09	-3.760290e+01	-9.059808e+01
2.500000e-07	-5.308650e-06	-1.409922e-09	-3.753686e+01	-9.070419e+01
2.600000e-07	-5.298508e-06	-1.406654e-09	-3.746514e+01	-9.081302e+01
2.700000e-07	-5.287811e-06	-1.380855e-09	-3.738951e+01	-9.092127e+01
2.800000e-07	-5.276665e-06	-1.371919e-09	-3.731070e+01	-9.102560e+01
2.900000e-07	-5.265069e-06	-1.368105e-09	-3.722870e+01	-9.112284e+01
3.000000e-07	-5.253135e-06	-1.354416e-09	-3.714432e+01	-9.121000e+01
3.100000e-07	-5.240834e-06	-1.357329e-09	-3.705734e+01	-9.128446e+01
3.200000e-07	-5.228043e-06	-1.389090e-09	-3.696689e+01	-9.134400e+01
3.300000e-07	-5.214866e-06	-1.403741e-09	-3.687372e+01	-9.138686e+01
3.400000e-07	-5.201365e-06	-1.379807e-09	-3.677826e+01	-9.141184e+01
3.500000e-07	-5.187446e-06	-1.368812e-09	-3.667984e+01	-9.141825e+01
3.600000e-07	-5.173099e-06	-1.378832e-09	-3.657839e+01	-9.140595e+01
3.700000e-07	-5.158288e-06	-1.374928e-09	-3.647366e+01	-9.137529e+01
3.800000e-07	-5.142905e-06	-1.351429e-09	-3.636489e+01	-9.132710e+01
3.900000e-07	-5.126894e-06	-1.356027e-09	-3.625169e+01	-9.126258e+01
4.000000e-07	-5.110373e-06	-1.371451e-09	-3.613487e+01	-9.118324e+01
4.100000e-07	-5.093479e-06	-1.376865e-09	-3.601541e+01	-9.109081e+01
4.200000e-07	-5.076326e-06	-1.369512e-09	-3.589412e+01	-9.098715e+01
4.300000e-07	-5.058985e-06	-1.365944e-09	-3.577150e+01	-9.087411e+01
4.400000e-07	-5.041365e-06	-1.358757e-09	-3.564692e+01	-9.075350e+01
4.500000e-07	-5.023380e-06	-1.351495e-09	-3.551974e+01	-9.062696e+01
4.600000e-07	-5.005017e-06	-1.346560e-09	-3.538991e+01	-9.049592e+01
4.700000e-07	-4.986258e-06	-1.342740e-09	-3.525726e+01	-9.036151e+01
4.800000e-07	-4.967133e-06	-1.336689e-09	-3.512203e+01	-9.022457e+01
4.900000e-07	-4.947631e-06	-1.343449e-09	-3.498414e+01	-9.008562e+01
5.000000e-07	-4.927891e-06	-1.350356e-09	-3.484456e+01	-8.994484e+01
5.100000e-07	-4.908040e-06	-1.342693e-09	-3.470419e+01	-8.980216e+01
5.200000e-07	-4.888046e-06	-1.326715e-09	-3.456281e+01	-8.965721e+01
5.300000e-07	-4.867743e-06	-1.328847e-09	-3.441926e+01	-8.950947e+01
5.400000e-07	-4.847046e-06	-1.336288e-09	-3.427291e+01	-8.935827e+01
5.500000e-07	-4.825912e-06	-1.332172e-09	-3.412347e+01	-8.920288e+01
5.600000e-07	-4.804327e-06	-1.325009e-09	-3.397085e+01	-8.904262e+01
5.700000e-07	-4.782472e-06	-1.328223e-09	-3.381631e+01	-8.887687e+01
5.800000e-07	-4.760367e-06	-1.325395e-09	-3.366002e+01	-8.870518e+01
5.900000e-07	-4.737971e-06	-1.311079e-09	-3.350166e+01	-8.852730e+01
6.000000e-07	-4.715200e-06	-1.304211e-09	-3.334064e+01	-8.834325e+01
6.100000e-07	-4.692083e-06	-1.307116e-09	-3.317718e+01	-8.815329e+01
6.200000e-07	-4.668657e-06	-1.308035e-09	-3.301154e+01	-8.795798e+01
6.300000e-07	-4.644983e-06	-1.310810e-09	-3.284415e+01	-8.775811e+01
6.400000e-07	-4.621174e-06	-1.315985e-09	-3.267579e+01	-8.755472e+01
6.500000e-07	-4.597205e-06	-1.312246e-09	-3.250631e+01	-8.734905e+01
6.600000e-07	-4.572972e-06	-1.307711e-09	-3.233497e+01	-8.714243e+01
6.700000e-07	-4.548327e-06	-1.303354e-09	-3.216070e+01	-8.693627e+01
6.800000e-07	-4.523209e-06	-1.293411e-09	-3.198310e+01	-8.673196e+01
6.900000e-07	-4.497555e-06	-1.282869e-09	-3.180170e+01	-8.653080e+01
7.000000e-07	-4.471317e-06	-1.283937e-09	-3.161617e+01	-8.633391e+01
7.100000e-07	-4.444498e-06	-1.289479e-09	-3.142654e+01	-8.614220e+01
7.200000e-07	-4.417152e-06	-1.294502e-09	-3.123318e+01	-8.595627e+01
7.300000e-07	-4.389515e-06	-1.295828e-09	-3.103776e+01	-8.577644e+01
7.400000e-07	-4.361725e-06	-1.295156e-09	-3.084126e+01	-8.560262e+01
7.500000e-07	-4.333815e-06	-1.289578e-09	-3.064391e+01	-8.543443e+01
7.600000e-07	-4.305786e-06	-1.282381e-09	-3.044572e+01	-8.527110e+01
7.700000e-07	-4.277545e-06	-1.273570e-09	-3.024603e+01	-8.511158e+01
7.800000e-07	-4.248988e-06	-1.267358e-09	-3.004411e+01	-8.495453e+01
7.900000e-07	-4.220076e-06	-1.266834e-09	-2.983968e+01	-8.479843e+01
8.000000e-07	-4.190812e-06	-1.271123e-09	-2.963276e+01	-8.464162e+01
8.100000e-07	-4.161252e-06	-1.270961e-09	-2.942374e+01	-8.448238e+01
8.200000e-07	-4.131434e-06	-1.268413e-09	-2.921290e+01	-8.431903e+01
8.300000e-07	-4.101255e-06	-1.264495e-09	-2.899951e+01	-8.414999e+01
8.400000e-07	-4.070784e-06	-1.261365e-09	-2.878405e+01	-8.397387e+01
8.500000e-07	-4.040000e-06	-1.257334e-09	-2.856638e+01	-8.378951e+01
8.600000e-07	-4.008882e-06	-1.252957e-09	-2.834635e+01	-8.359606e+01
8.700000e-07	-3.977573e-06	-1.249608e-09	-2.812496e+01	-8.339299e+01
8.800000e-07	-3.946133e-06	-1.247476e-09	-2.790265e+01	-8.318015e+01
8.900000e-07	-3.914536e-06	-1.244598e-09	-2.767924e+01	-8.295770e+01
9.000000e-07	-3.882756e-06	-1.238857e-09	-2.745452e+01	-8.272616e+01
9.100000e-07	-3.850837e-06	-1.233122e-09	-2.722883e+01	-8.248634e+01
9.200000e-07	-3.818736e-06	-1.231122e-09	-2.700185e+01	-8.223929e+01
9.300000e-07	-3.786391e-06	-1.231864e-09	-2.677314e+01	-8.198625e+01
9.400000e-07	-3.753697e-06	-1.233262e-09	-2.654196e+01	-8.172858e+01
9.500000e-07	-3.720614e-06	-1.233835e-09	-2.630804e+01	-8.146767e+01
9.600000e-07	-3.687184e-06	-1.230906e-09	-2.607166e+01	-8.120487e+01
9.700000e-07	-3.653324e-06	-1.224126e-09	-2.583224e+01	-8.094141e+01
9.800000e-07	-3.619006e-06	-1.214351e-09	-2.558958e+01	-8.067836e+01
9.900000e-07	-3.584184e-06	-1.205741e-09	-2.534336e+01	-8.041654e+01
1.000000e-06	-3.548927e-06	-1.198768e-09	-2.509406e+01	-8.015649e+01
1.010000e-06	-3.513467e-06	-1.195536e-09	-2.484332e+01	-7.989846e+01
1.020000e-06	-3.477853e-06	-1.197489e-09	-2.459150e+01	-7.964239e+01
1.030000e-06	-3.442092e-06	-1.199833e-09	-2.433864e+01	-7.938791e+01
1.040000e-06	-3.406200e-06	-1.197322e-09	-2.408485e+01	-7.913435e+01
1.050000e-06	-3.370153e-06	-1.189866e-09	-2.382997e+01	-7.888082e+01
1.060000e-06	-3.333968e-06	-1.178143e-09	-2.357411e+01	-7.862625e+01
1.070000e-06	-3.297527e-06	-1.167705e-09	-2.331644e+01	-7.836939e+01
1.080000e-06	-3.260758e-06	-1.161635e-09	-2.305645e+01	-7.810899e+01
1.090000e-06	-3.223778e-06	-1.164087e-09	-2.279497e+01	-7.784374e+01
1.100000e-06	-3.186585e-06	-1.169474e-09	-2.253198e+01	-7.757245e+01
1.110000e-06	-3.149151e-06	-1.171817e-09	-2.226729e+01	-7.729404e+01
1.120000e-06	-3.111456e-06	-1.165758e-09	-2.200075e+01	-7.700762e+01
1.130000e-06	-3.073591e-06	-1.154779e-09	-2.173301e+01	-7.671254e+01
1.140000e-06	-3.035594e-06	-1.143471e-09	-2.146434e+01	-7.640839e+01
1.150000e-06	-2.997351e-06	-1.133734e-09	-2.119393e+01	-7.609504e+01
1.160000e-06	-2.958794e-06	-1.128490e-09	-2.092130e+01	-7.577264e+01
1.170000e-06	-2.920008e-06	-1.126305e-09	-2.064705e+01	-7.544159e+01
1.180000e-06	-2.881060e-06	-1.125154e-09	-2.037165e+01	-7.510250e+01
1.190000e-06	-2.841841e-06	-1.123902e-09	-2.009433e+01	-7.475620e+01
1.200000e-06	-2.802485e-06	-1.120855e-09	-1.981605e+01	-7.440360e+01
1.210000e-06	-2.763046e-06	-1.115820e-09	-1.953719e+01	-7.404572e+01
1.220000e-06	-2.723465e-06	-1.108133e-09	-1.925731e+01	-7.368359e+01
1.230000e-06	-2.683814e-06	-1.100951e-09	-1.897694e+01	-7.331817e+01
1.240000e-06	-2.644033e-06	-1.093945e-09	-1.869566e+01	-7.295033e+01
1.250000e-06	-2.604073e-06	-1.088247e-09	-1.841310e+01	-7.258077e+01
1.260000e-06	-2.563961e-06	-1.081605e-09	-1.812948e+01	-7.221000e+01
1.270000e-06	-2.523731e-06	-1.073433e-09	-1.784502e+01	-7.183830e+01
1.280000e-06	-2.483386e-06	-1.068626e-09	-1.755974e+01	-7.146570e+01
1.290000e-06	-2.442898e-06	-1.064997e-09	-1.727345e+01	-7.109199e+01
1.300000e-06	-2.402151e-06	-1.061477e-09	-1.698533e+01	-7.071670e+01
1.310000e-06	-2.361127e-06	-1.056519e-09	-1.669526e+01	-7.033919e+01
1.320000e-06	-2.319865e-06	-1.052814e-09	-1.640350e+01	-6.995858e+01
1.330000e-06	-2.278241e-06	-1.048922e-09	-1.610918e+01	-6.957391e+01
1.340000e-06	-2.236372e-06	-1.043247e-09	-1.581313e+01	-6.918411e+01
1.350000e-06	-2.194305e-06	-1.035618e-09	-1.551568e+01	-6.878807e+01
1.360000e-06	-2.151971e-06	-1.029202e-09	-1.521634e+01	-6.838474e+01
1.370000e-06	-2.109421e-06	-1.024444e-09	-1.491547e+01	-6.797312e+01
1.380000e-06	-2.066605e-06	-1.020666e-09	-1.461273e+01	-6.755236e+01
1.390000e-06	-2.023495e-06	-1.017172e-09	-1.430790e+01	-6.712177e+01
1.400000e-06	-1.980203e-06	-1.013055e-09	-1.400179e+01	-6.668087e+01
1.410000e-06	-1.936771e-06	-1.006370e-09	-1.369469e+01	-6.622942e+01
1.420000e-06	-1.893245e-06	-9.975642e-10	-1.338692e+01	-6.576738e+01
1.430000e-06	-1.849648e-06	-9.899142e-10	-1.307865e+01	-6.529496e+01
1.440000e-06	-1.805901e-06	-9.839363e-10	-1.276932e+01	-6.481260e+01
1.450000e-06	-1.762048e-06	-9.763862e-10	-1.245924e+01	-6.432090e+01
1.460000e-06	-1.718120e-06	-9.701964e-10	-1.214863e+01	-6.382064e+01
1.470000e-06	-1.674172e-06	-9.660619e-10	-1.183788e+01	-6.331271e+01
1.480000e-06	-1.630221e-06	-9.603020e-10	-1.152711e+01	-6.279806e+01
1.490000e-06	-1.586175e-06	-9.511338e-10	-1.121566e+01	-6.227766e+01
1.500000e-06	-1.542030e-06	-9.418851e-10	-1.090352e+01	-6.175247e+01
1.510000e-06	-1.497764e-06	-9.346440e-10	-1.059052e+01	-6.122334e+01
1.520000e-06	-1.453350e-06	-9.251077e-10	-1.027647e+01	-6.069104e+01
1.530000e-06	-1.408927e-06	-9.128326e-10	-9.962361e+00	-6.015617e+01
1.540000e-06	-1.364428e-06	-9.005767e-10	-9.647716e+00	-5.961916e+01
1.550000e-06	-1.319766e-06	-8.914511e-10	-9.331912e+00	-5.908024e+01
1.560000e-06	-1.275027e-06	-8.844793e-10	-9.015570e+00	-5.853947e+01
1.570000e-06	-1.230211e-06	-8.783981e-10	-8.698680e+00	-5.799667e+01
1.580000e-06	-1.185364e-06	-8.723775e-10	-8.381571e+00	-5.745151e+01
1.590000e-06	-1.140474e-06	-8.651501e-10	-8.064159e+00	-5.690347e+01
1.600000e-06	-1.095445e-06	-8.557721e-10	-7.745768e+00	-5.635191e+01
1.610000e-06	-1.050274e-06	-8.452389e-10	-7.426367e+00	-5.579606e+01
1.620000e-06	-1.005005e-06	-8.339694e-10	-7.106274e+00	-5.523507e+01
1.630000e-06	-9.596660e-07	-8.230527e-10	-6.785689e+00	-5.466807e+01
1.640000e-06	-9.142278e-07	-8.119048e-10	-6.464401e+00	-5.409413e+01
1.650000e-06	-8.687542e-07	-8.024907e-10	-6.142862e+00	-5.351239e+01
1.660000e-06	-8.232838e-07	-7.961525e-10	-5.821346e+00	-5.292198e+01
1.670000e-06	-7.778219e-07	-7.924986e-10	-5.499890e+00	-5.232213e+01
1.680000e-06	-7.323219e-07	-7.872739e-10	-5.178165e+00	-5.171214e+01
1.690000e-06	-6.866882e-07	-7.774394e-10	-4.855494e+00	-5.109138e+01
1.700000e-06	-6.409887e-07	-7.641053e-10	-4.532358e+00	-5.045933e+01
1.710000e-06	-5.952766e-07	-7.505452e-10	-4.209133e+00	-4.981554e+01
1.720000e-06	-5.495311e-07	-7.390538e-10	-3.885672e+00	-4.915967e+01
1.730000e-06	-5.037396e-07	-7.282459e-10	-3.561885e+00	-4.849143e+01
1.740000e-06	-4.578740e-07	-7.167900e-10	-3.237575e+00	-4.781058e+01
1.750000e-06	-4.119766e-07	-7.066065e-10	-2.913039e+00	-4.711694e+01
1.760000e-06	-3.660463e-07	-6.973110e-10	-2.588271e+00	-4.641036e+01
1.770000e-06	-3.200391e-07	-6.846875e-10	-2.262960e+00	-4.569071e+01
1.780000e-06	-2.740271e-07	-6.706967e-10	-1.937615e+00	-4.495785e+01
1.790000e-06	-2.280250e-07	-6.575028e-10	-1.612339e+00	-4.421165e+01
1.800000e-06	-1.820064e-07	-6.430315e-10	-1.286947e+00	-4.345198e+01
1.810000e-06	-1.359542e-07	-6.265131e-10	-9.613166e-01	-4.267869e+01
1.820000e-06	-8.987760e-08	-6.132162e-10	-6.355143e-01	-4.189165e+01
1.830000e-06	-4.385786e-08	-6.057099e-10	-3.101139e-01	-4.109071e+01
1.840000e-06	2.097282e-09	-5.987817e-10	1.482964e-02	-4.027574e+01
1.850000e-06	4.805219e-08	-5.881629e-10	3.397715e-01	-3.944665e+01
1.860000e-06	9.398257e-08	-5.754727e-10	6.645401e-01	-3.860336e+01
1.870000e-06	1.398620e-07	-5.633762e-10	9.889479e-01	-3.774586e+01
1.880000e-06	1.857772e-07	-5.511170e-10	1.313609e+00	-3.687418e+01
1.890000e-06	2.317058e-07	-5.359619e-10	1.638365e+00	-3.598842e+01
1.900000e-06	2.776218e-07	-5.177082e-10	1.963032e+00	-3.508876e+01
1.910000e-06	3.235669e-07	-5.008859e-10	2.287905e+00	-3.417543e+01
1.920000e-06	3.695307e-07	-4.879451e-10	2.612909e+00	-3.324877e+01
1.930000e-06	4.154553e-07	-4.750419e-10	2.937637e+00	-3.230914e+01
1.940000e-06	4.613206e-07	-4.597230e-10	3.261945e+00	-3.135699e+01
1.950000e-06	5.071822e-07	-4.450065e-10	3.586228e+00	-3.039280e+01
1.960000e-06	5.530496e-07	-4.326153e-10	3.910551e+00	-2.941708e+01
1.970000e-06	5.988537e-07	-4.187330e-10	4.234426e+00	-2.843036e+01
1.980000e-06	6.445845e-07	-4.033232e-10	4.557783e+00	-2.743315e+01
1.990000e-06	6.903021e-07	-3.867957e-10	4.881048e+00	-2.642594e+01
2.000000e-06	7.359760e-07	-3.703375e-10	5.204002e+00	-2.540919e+01
2.010000e-06	7.815645e-07	-3.555117e-10	5.526354e+00	-2.438330e+01
2.020000e-06	8.270851e-07	-3.407286e-10	5.848224e+00	-2.334862e+01
2.030000e-06	8.725596e-07	-3.250534e-10	6.169770e+00	-2.230539e+01
2.040000e-06	9.179905e-07	-3.120746e-10	6.491006e+00	-2.125382e+01
2.050000e-06	9.633720e-07	-2.998829e-10	6.811894e+00	-2.019402e+01
2.060000e-06	1.008729e-06	-2.842018e-10	7.132606e+00	-1.912604e+01
2.070000e-06	1.054031e-06	-2.641416e-10	7.452931e+00	-1.804985e+01
2.080000e-06	1.099143e-06	-2.421392e-10	7.771915e+00	-1.696539e+01
2.090000e-06	1.144126e-06	-2.250259e-10	8.089982e+00	-1.587256e+01
2.100000e-06	1.189089e-06	-2.098129e-10	8.407910e+00	-1.477124e+01
2.110000e-06	1.233922e-06	-1.926734e-10	8.724925e+00	-1.366129e+01
2.120000e-06	1.278588e-06	-1.766505e-10	9.040753e+00	-1.254260e+01
2.130000e-06	1.323153e-06	-1.621646e-10	9.355866e+00	-1.141509e+01
2.140000e-06	1.367646e-06	-1.460423e-10	9.670469e+00	-1.027869e+01
2.150000e-06	1.412026e-06	-1.261899e-10	9.984276e+00	-9.133422e+00
2.160000e-06	1.456298e-06	-1.053708e-10	1.029732e+01	-7.979323e+00
2.170000e-06	1.500499e-06	-8.653914e-11	1.060985e+01	-6.816510e+00
2.180000e-06	1.544618e-06	-7.020026e-11	1.092182e+01	-5.645155e+00
2.190000e-06	1.588637e-06	-5.298330e-11	1.123307e+01	-4.465486e+00
2.200000e-06	1.632595e-06	-3.358806e-11	1.154389e+01	-3.277777e+00
2.210000e-06	1.676502e-06	-1.623802e-11	1.185436e+01	-2.082346e+00
2.220000e-06	1.720341e-06	3.051240e-13	1.216434e+01	-8.795434e-01
2.230000e-06	1.764133e-06	1.947116e-11	1.247398e+01	3.302613e-01
2.240000e-06	1.807854e-06	4.231383e-11	1.278313e+01	1.546686e+00
2.250000e-06	1.851524e-06	6.122499e-11	1.309192e+01	2.769346e+00
2.260000e-06	1.895106e-06	7.714475e-11	1.340008e+01	3.997862e+00
2.270000e-06	1.938610e-06	9.677792e-11	1.370769e+01	5.231864e+00
2.280000e-06	1.982037e-06	1.183441e-10	1.401476e+01	6.470994e+00
2.290000e-06	2.025311e-06	1.394516e-10	1.432075e+01	7.714905e+00
2.300000e-06	2.068401e-06	1.567103e-10	1.462543e+01	8.963258e+00
2.310000e-06	2.111323e-06	1.739850e-10	1.492893e+01	1.021572e+01
2.320000e-06	2.154051e-06	1.962211e-10	1.523105e+01	1.147194e+01
2.330000e-06	2.196451e-06	2.190408e-10	1.553085e+01	1.273156e+01
2.340000e-06	2.238507e-06	2.357826e-10	1.582823e+01	1.399420e+01
2.350000e-06	2.280298e-06	2.525721e-10	1.612373e+01	1.525943e+01
2.360000e-06	2.321827e-06	2.761522e-10	1.641737e+01	1.652679e+01
2.370000e-06	2.362964e-06	3.013348e-10	1.670825e+01	1.779575e+01
2.380000e-06	2.403732e-06	3.207341e-10	1.699652e+01	1.906573e+01
2.390000e-06	2.444350e-06	3.358797e-10	1.728372e+01	2.033609e+01
2.400000e-06	2.484771e-06	3.526551e-10	1.756953e+01	2.160612e+01
2.410000e-06	2.524940e-06	3.721252e-10	1.785357e+01	2.287507e+01
2.420000e-06	2.565003e-06	3.922219e-10	1.813685e+01	2.414214e+01
2.430000e-06	2.604965e-06	4.122012e-10	1.841941e+01	2.540647e+01
2.440000e-06	2.644822e-06	4.336257e-10	1.870123e+01	2.666721e+01
2.450000e-06	2.684594e-06	4.555722e-10	1.898246e+01	2.792348e+01
2.460000e-06	2.724255e-06	4.768818e-10	1.926289e+01	2.917443e+01
2.470000e-06	2.763784e-06	4.945909e-10	1.954240e+01	3.041922e+01
2.480000e-06	2.803156e-06	5.101110e-10	1.982079e+01	3.165707e+01
2.490000e-06	2.842381e-06	5.284628e-10	2.009815e+01	3.288723e+01
2.500000e-06	2.881351e-06	5.499076e-10	2.037370e+01	3.410904e+01
2.510000e-06	2.920058e-06	5.718452e-10	2.064740e+01	3.532193e+01
2.520000e-06	2.958532e-06	5.961574e-10	2.091945e+01	3.652537e+01
2.530000e-06	2.996799e-06	6.212300e-10	2.119002e+01	3.771896e+01
2.540000e-06	3.034973e-06	6.419619e-10	2.145995e+01	3.890232e+01
2.550000e-06	3.072906e-06	6.552588e-10	2.172817e+01	4.007520e+01
2.560000e-06	3.110575e-06	6.642332e-10	2.199452e+01	4.123736e+01
2.570000e-06	3.148154e-06	6.755561e-10	2.226024e+01	4.238861e+01
2.580000e-06	3.185584e-06	6.910758e-10	2.252490e+01	4.352880e+01
2.590000e-06	3.222745e-06	7.101224e-10	2.278766e+01	4.465778e+01
2.600000e-06	3.259587e-06	7.328142e-10	2.304817e+01	4.577537e+01
2.610000e-06	3.296141e-06	7.570039e-10	2.330663e+01	4.688139e+01
2.620000e-06	3.332499e-06	7.779998e-10	2.356372e+01	4.797558e+01
2.630000e-06	3.368674e-06	7.939984e-10	2.381951e+01	4.905767e+01
2.640000e-06	3.404666e-06	8.035965e-10	2.407400e+01	5.012729e+01
2.650000e-06	3.440543e-06	8.119115e-10	2.432769e+01	5.118403e+01
2.660000e-06	3.476317e-06	8.218407e-10	2.458064e+01	5.222739e+01
2.670000e-06	3.511959e-06	8.340305e-10	2.483266e+01	5.325683e+01
2.680000e-06	3.547447e-06	8.496103e-10	2.508360e+01	5.427175e+01
2.690000e-06	3.582757e-06	8.690104e-10	2.533326e+01	5.527154e+01
2.700000e-06	3.617745e-06	8.885198e-10	2.558067e+01	5.625555e+01
2.710000e-06	3.652225e-06	9.070473e-10	2.582447e+01	5.722314e+01
2.720000e-06	3.686201e-06	9.231515e-10	2.606470e+01	5.817370e+01
2.730000e-06	3.719697e-06	9.380991e-10	2.630156e+01	5.910665e+01
2.740000e-06	3.752800e-06	9.503337e-10	2.653562e+01	6.002148e+01
2.750000e-06	3.785556e-06	9.584604e-10	2.676724e+01	6.091778e+01
2.760000e-06	3.817959e-06	9.666406e-10	2.699635e+01	6.179521e+01
2.770000e-06	3.850082e-06	9.761762e-10	2.722349e+01	6.265354e+01
2.780000e-06	3.882024e-06	9.889857e-10	2.744935e+01	6.349265e+01
2.790000e-06	3.913853e-06	1.004722e-09	2.767441e+01	6.431255e+01
2.800000e-06	3.945546e-06	1.021893e-09	2.789851e+01	6.511333e+01
2.810000e-06	3.977042e-06	1.036817e-09	2.812121e+01	6.589520e+01
2.820000e-06	4.008255e-06	1.049601e-09	2.834192e+01	6.665844e+01
2.830000e-06	4.039098e-06	1.061045e-09	2.856000e+01	6.740340e+01
2.840000e-06	4.069595e-06	1.069827e-09	2.877564e+01	6.813052e+01
2.850000e-06	4.099875e-06	1.075519e-09	2.898975e+01	6.884023e+01
2.860000e-06	4.129878e-06	1.081345e-09	2.920190e+01	6.953301e+01
2.870000e-06	4.159556e-06	1.090304e-09	2.941174e+01	7.020931e+01
2.880000e-06	4.189027e-06	1.102498e-09	2.962014e+01	7.086960e+01
2.890000e-06	4.218277e-06	1.114758e-09	2.982695e+01	7.151428e+01
2.900000e-06	4.247196e-06	1.127948e-09	3.003144e+01	7.214373e+01
