# Temperatura_=_-3.6
# Concentracion g/m^3_=_4090.0
# C_Vs_to_Am_M_A/Vsm_=_65563218390.804596
# pendiente_HvsI_1/m_=_3716.3
# ordenada_HvsI_A/m_=_1297.0
# frecuencia_Hz_=_135074.90515004515

Tiempo_(s)	Campo_(V.s)	Magnetizacion_(V.s)	Campo_(kA/m)	Magnetizacion_(A/m)
0.000000e+00	-5.401594e-06	-1.514425e-09	-3.839161e+01	-1.005597e+02
1.000000e-08	-5.401769e-06	-1.511235e-09	-3.839285e+01	-1.004571e+02
2.000000e-08	-5.401751e-06	-1.508893e-09	-3.839272e+01	-1.003383e+02
3.000000e-08	-5.401467e-06	-1.507508e-09	-3.839070e+01	-1.002041e+02
4.000000e-08	-5.400752e-06	-1.508704e-09	-3.838562e+01	-1.000565e+02
5.000000e-08	-5.399519e-06	-1.511367e-09	-3.837686e+01	-9.989793e+01
6.000000e-08	-5.397736e-06	-1.511904e-09	-3.836418e+01	-9.973177e+01
7.000000e-08	-5.395329e-06	-1.515715e-09	-3.834708e+01	-9.956202e+01
8.000000e-08	-5.392307e-06	-1.531843e-09	-3.832560e+01	-9.939324e+01
9.000000e-08	-5.388685e-06	-1.525301e-09	-3.829985e+01	-9.923040e+01
1.000000e-07	-5.384574e-06	-1.496479e-09	-3.827064e+01	-9.907866e+01
1.100000e-07	-5.380273e-06	-1.530281e-09	-3.824007e+01	-9.894320e+01
1.200000e-07	-5.375887e-06	-1.509158e-09	-3.820889e+01	-9.882899e+01
1.300000e-07	-5.371206e-06	-1.508907e-09	-3.817563e+01	-9.874059e+01
1.400000e-07	-5.366093e-06	-1.483587e-09	-3.813929e+01	-9.868192e+01
1.500000e-07	-5.360544e-06	-1.534197e-09	-3.809984e+01	-9.865610e+01
1.600000e-07	-5.354713e-06	-1.557064e-09	-3.805840e+01	-9.866527e+01
1.700000e-07	-5.348587e-06	-1.479180e-09	-3.801486e+01	-9.871048e+01
1.800000e-07	-5.341984e-06	-1.473422e-09	-3.796793e+01	-9.879162e+01
1.900000e-07	-5.334958e-06	-1.517755e-09	-3.791799e+01	-9.890736e+01
2.000000e-07	-5.327630e-06	-1.567617e-09	-3.786591e+01	-9.905519e+01
2.100000e-07	-5.319984e-06	-1.490475e-09	-3.781157e+01	-9.923147e+01
2.200000e-07	-5.312066e-06	-1.506300e-09	-3.775529e+01	-9.943156e+01
2.300000e-07	-5.303943e-06	-1.554620e-09	-3.769756e+01	-9.964996e+01
2.400000e-07	-5.295496e-06	-1.574147e-09	-3.763752e+01	-9.988052e+01
2.500000e-07	-5.286543e-06	-1.527827e-09	-3.757389e+01	-1.001166e+02
2.600000e-07	-5.276902e-06	-1.572749e-09	-3.750536e+01	-1.003515e+02
2.700000e-07	-5.266516e-06	-1.600201e-09	-3.743154e+01	-1.005784e+02
2.800000e-07	-5.255708e-06	-1.570039e-09	-3.735473e+01	-1.007909e+02
2.900000e-07	-5.244467e-06	-1.533653e-09	-3.727483e+01	-1.009829e+02
3.000000e-07	-5.232772e-06	-1.570348e-09	-3.719171e+01	-1.011493e+02
3.100000e-07	-5.220737e-06	-1.580200e-09	-3.710617e+01	-1.012856e+02
3.200000e-07	-5.208304e-06	-1.551805e-09	-3.701780e+01	-1.013886e+02
3.300000e-07	-5.195434e-06	-1.567493e-09	-3.692633e+01	-1.014560e+02
3.400000e-07	-5.182152e-06	-1.586592e-09	-3.683193e+01	-1.014867e+02
3.500000e-07	-5.168516e-06	-1.561515e-09	-3.673502e+01	-1.014806e+02
3.600000e-07	-5.154534e-06	-1.555992e-09	-3.663564e+01	-1.014390e+02
3.700000e-07	-5.140233e-06	-1.577274e-09	-3.653399e+01	-1.013638e+02
3.800000e-07	-5.125595e-06	-1.550656e-09	-3.642996e+01	-1.012579e+02
3.900000e-07	-5.110302e-06	-1.522729e-09	-3.632126e+01	-1.011249e+02
4.000000e-07	-5.094260e-06	-1.547731e-09	-3.620724e+01	-1.009686e+02
4.100000e-07	-5.077637e-06	-1.567731e-09	-3.608909e+01	-1.007935e+02
4.200000e-07	-5.060562e-06	-1.532175e-09	-3.596774e+01	-1.006037e+02
4.300000e-07	-5.043338e-06	-1.544745e-09	-3.584531e+01	-1.004035e+02
4.400000e-07	-5.025880e-06	-1.560605e-09	-3.572123e+01	-1.001968e+02
4.500000e-07	-5.008108e-06	-1.552215e-09	-3.559492e+01	-9.998699e+01
4.600000e-07	-4.990004e-06	-1.521819e-09	-3.546625e+01	-9.977688e+01
4.700000e-07	-4.971554e-06	-1.534961e-09	-3.533511e+01	-9.956870e+01
4.800000e-07	-4.952742e-06	-1.520229e-09	-3.520140e+01	-9.936393e+01
4.900000e-07	-4.933475e-06	-1.520674e-09	-3.506447e+01	-9.916335e+01
5.000000e-07	-4.913859e-06	-1.519516e-09	-3.492505e+01	-9.896709e+01
5.100000e-07	-4.894006e-06	-1.522759e-09	-3.478395e+01	-9.877465e+01
5.200000e-07	-4.873985e-06	-1.506525e-09	-3.464165e+01	-9.858504e+01
5.300000e-07	-4.853810e-06	-1.525540e-09	-3.449825e+01	-9.839686e+01
5.400000e-07	-4.833393e-06	-1.520636e-09	-3.435314e+01	-9.820846e+01
5.500000e-07	-4.812623e-06	-1.509537e-09	-3.420552e+01	-9.801807e+01
5.600000e-07	-4.791412e-06	-1.503009e-09	-3.405476e+01	-9.782393e+01
5.700000e-07	-4.769833e-06	-1.512038e-09	-3.390139e+01	-9.762444e+01
5.800000e-07	-4.747979e-06	-1.493461e-09	-3.374606e+01	-9.741823e+01
5.900000e-07	-4.725843e-06	-1.481438e-09	-3.358873e+01	-9.720429e+01
6.000000e-07	-4.703344e-06	-1.477730e-09	-3.342882e+01	-9.698200e+01
6.100000e-07	-4.680519e-06	-1.482498e-09	-3.326659e+01	-9.675121e+01
6.200000e-07	-4.657388e-06	-1.485322e-09	-3.310219e+01	-9.651218e+01
6.300000e-07	-4.633923e-06	-1.486217e-09	-3.293541e+01	-9.626561e+01
6.400000e-07	-4.610205e-06	-1.485181e-09	-3.276684e+01	-9.601258e+01
6.500000e-07	-4.586279e-06	-1.487830e-09	-3.259679e+01	-9.575445e+01
6.600000e-07	-4.562157e-06	-1.487788e-09	-3.242534e+01	-9.549279e+01
6.700000e-07	-4.537825e-06	-1.473495e-09	-3.225240e+01	-9.522927e+01
6.800000e-07	-4.513166e-06	-1.463267e-09	-3.207714e+01	-9.496557e+01
6.900000e-07	-4.488020e-06	-1.456733e-09	-3.189842e+01	-9.470325e+01
7.000000e-07	-4.462282e-06	-1.458545e-09	-3.171548e+01	-9.444367e+01
7.100000e-07	-4.435901e-06	-1.452774e-09	-3.152798e+01	-9.418789e+01
7.200000e-07	-4.409025e-06	-1.455462e-09	-3.133696e+01	-9.393664e+01
7.300000e-07	-4.381788e-06	-1.455550e-09	-3.114337e+01	-9.369023e+01
7.400000e-07	-4.354219e-06	-1.463082e-09	-3.094743e+01	-9.344855e+01
7.500000e-07	-4.326419e-06	-1.455134e-09	-3.074984e+01	-9.321110e+01
7.600000e-07	-4.298469e-06	-1.447197e-09	-3.055119e+01	-9.297697e+01
7.700000e-07	-4.270327e-06	-1.435855e-09	-3.035117e+01	-9.274494e+01
7.800000e-07	-4.241956e-06	-1.433831e-09	-3.014952e+01	-9.251350e+01
7.900000e-07	-4.213293e-06	-1.421564e-09	-2.994580e+01	-9.228100e+01
8.000000e-07	-4.184359e-06	-1.417257e-09	-2.974016e+01	-9.204566e+01
8.100000e-07	-4.155119e-06	-1.413950e-09	-2.953233e+01	-9.180574e+01
8.200000e-07	-4.125488e-06	-1.421163e-09	-2.932174e+01	-9.155957e+01
8.300000e-07	-4.095583e-06	-1.421269e-09	-2.910919e+01	-9.130570e+01
8.400000e-07	-4.065472e-06	-1.419793e-09	-2.889517e+01	-9.104291e+01
8.500000e-07	-4.035232e-06	-1.410854e-09	-2.868024e+01	-9.077031e+01
8.600000e-07	-4.004708e-06	-1.406371e-09	-2.846330e+01	-9.048737e+01
8.700000e-07	-3.973756e-06	-1.396184e-09	-2.824331e+01	-9.019391e+01
8.800000e-07	-3.942419e-06	-1.386971e-09	-2.802058e+01	-8.989013e+01
8.900000e-07	-3.910850e-06	-1.378324e-09	-2.779620e+01	-8.957658e+01
9.000000e-07	-3.879193e-06	-1.376907e-09	-2.757121e+01	-8.925410e+01
9.100000e-07	-3.847406e-06	-1.377586e-09	-2.734528e+01	-8.892378e+01
9.200000e-07	-3.815445e-06	-1.376905e-09	-2.711812e+01	-8.858687e+01
9.300000e-07	-3.783223e-06	-1.374297e-09	-2.688910e+01	-8.824474e+01
9.400000e-07	-3.750733e-06	-1.372268e-09	-2.665818e+01	-8.789876e+01
9.500000e-07	-3.718068e-06	-1.368214e-09	-2.642601e+01	-8.755026e+01
9.600000e-07	-3.685191e-06	-1.358889e-09	-2.619234e+01	-8.720043e+01
9.700000e-07	-3.651923e-06	-1.345675e-09	-2.595589e+01	-8.685031e+01
9.800000e-07	-3.618071e-06	-1.333692e-09	-2.571529e+01	-8.650069e+01
9.900000e-07	-3.583677e-06	-1.330586e-09	-2.547084e+01	-8.615210e+01
1.000000e-06	-3.548896e-06	-1.328504e-09	-2.522363e+01	-8.580483e+01
1.010000e-06	-3.513740e-06	-1.328139e-09	-2.497376e+01	-8.545890e+01
1.020000e-06	-3.478284e-06	-1.322512e-09	-2.472176e+01	-8.511410e+01
1.030000e-06	-3.442622e-06	-1.319347e-09	-2.446830e+01	-8.477001e+01
1.040000e-06	-3.406826e-06	-1.312051e-09	-2.421387e+01	-8.442607e+01
1.050000e-06	-3.370898e-06	-1.304623e-09	-2.395852e+01	-8.408161e+01
1.060000e-06	-3.334837e-06	-1.291884e-09	-2.370222e+01	-8.373592e+01
1.070000e-06	-3.298654e-06	-1.285736e-09	-2.344505e+01	-8.338832e+01
1.080000e-06	-3.262227e-06	-1.283270e-09	-2.318615e+01	-8.303816e+01
1.090000e-06	-3.225564e-06	-1.284743e-09	-2.292556e+01	-8.268494e+01
1.100000e-06	-3.188635e-06	-1.277858e-09	-2.266309e+01	-8.232829e+01
1.110000e-06	-3.151420e-06	-1.269237e-09	-2.239859e+01	-8.196801e+01
1.120000e-06	-3.114049e-06	-1.258832e-09	-2.213298e+01	-8.160406e+01
1.130000e-06	-3.076469e-06	-1.250774e-09	-2.186587e+01	-8.123658e+01
1.140000e-06	-3.038676e-06	-1.240347e-09	-2.159726e+01	-8.086586e+01
1.150000e-06	-3.000671e-06	-1.234693e-09	-2.132714e+01	-8.049229e+01
1.160000e-06	-2.962493e-06	-1.231841e-09	-2.105580e+01	-8.011632e+01
1.170000e-06	-2.924194e-06	-1.232013e-09	-2.078359e+01	-7.973845e+01
1.180000e-06	-2.885698e-06	-1.226412e-09	-2.050998e+01	-7.935913e+01
1.190000e-06	-2.846852e-06	-1.215326e-09	-2.023389e+01	-7.897872e+01
1.200000e-06	-2.807695e-06	-1.203704e-09	-1.995558e+01	-7.859747e+01
1.210000e-06	-2.768357e-06	-1.196478e-09	-1.967598e+01	-7.821544e+01
1.220000e-06	-2.728872e-06	-1.192599e-09	-1.939534e+01	-7.783252e+01
1.230000e-06	-2.689253e-06	-1.190551e-09	-1.911375e+01	-7.744837e+01
1.240000e-06	-2.649471e-06	-1.187384e-09	-1.883101e+01	-7.706244e+01
1.250000e-06	-2.609603e-06	-1.182194e-09	-1.854764e+01	-7.667399e+01
1.260000e-06	-2.569668e-06	-1.177390e-09	-1.826381e+01	-7.628210e+01
1.270000e-06	-2.529639e-06	-1.169665e-09	-1.797930e+01	-7.588572e+01
1.280000e-06	-2.489511e-06	-1.163056e-09	-1.769410e+01	-7.548372e+01
1.290000e-06	-2.449285e-06	-1.156335e-09	-1.740819e+01	-7.507495e+01
1.300000e-06	-2.408859e-06	-1.149879e-09	-1.712086e+01	-7.465830e+01
1.310000e-06	-2.368229e-06	-1.141511e-09	-1.683209e+01	-7.423276e+01
1.320000e-06	-2.327479e-06	-1.135149e-09	-1.654246e+01	-7.379748e+01
1.330000e-06	-2.286594e-06	-1.130394e-09	-1.625187e+01	-7.335183e+01
1.340000e-06	-2.245439e-06	-1.126275e-09	-1.595936e+01	-7.289540e+01
1.350000e-06	-2.203837e-06	-1.120444e-09	-1.566368e+01	-7.242809e+01
1.360000e-06	-2.161973e-06	-1.116019e-09	-1.536614e+01	-7.195007e+01
1.370000e-06	-2.119851e-06	-1.108473e-09	-1.506676e+01	-7.146179e+01
1.380000e-06	-2.077378e-06	-1.100811e-09	-1.476488e+01	-7.096397e+01
1.390000e-06	-2.034711e-06	-1.092537e-09	-1.446163e+01	-7.045755e+01
1.400000e-06	-1.991898e-06	-1.083897e-09	-1.415733e+01	-6.994363e+01
1.410000e-06	-1.948852e-06	-1.074680e-09	-1.385138e+01	-6.942346e+01
1.420000e-06	-1.905552e-06	-1.070221e-09	-1.354363e+01	-6.889830e+01
1.430000e-06	-1.862175e-06	-1.066948e-09	-1.323533e+01	-6.836940e+01
1.440000e-06	-1.818692e-06	-1.063045e-09	-1.292628e+01	-6.783791e+01
1.450000e-06	-1.775015e-06	-1.055857e-09	-1.261585e+01	-6.730483e+01
1.460000e-06	-1.731221e-06	-1.046825e-09	-1.230458e+01	-6.677094e+01
1.470000e-06	-1.687366e-06	-1.037519e-09	-1.199288e+01	-6.623674e+01
1.480000e-06	-1.643416e-06	-1.028981e-09	-1.168051e+01	-6.570246e+01
1.490000e-06	-1.599384e-06	-1.020318e-09	-1.136756e+01	-6.516801e+01
1.500000e-06	-1.555323e-06	-1.011905e-09	-1.105439e+01	-6.463300e+01
1.510000e-06	-1.511238e-06	-1.005480e-09	-1.074106e+01	-6.409675e+01
1.520000e-06	-1.467110e-06	-9.994508e-10	-1.042742e+01	-6.355835e+01
1.530000e-06	-1.422939e-06	-9.894192e-10	-1.011348e+01	-6.301665e+01
1.540000e-06	-1.378690e-06	-9.773169e-10	-9.798982e+00	-6.247041e+01
1.550000e-06	-1.334360e-06	-9.665885e-10	-9.483910e+00	-6.191826e+01
1.560000e-06	-1.289950e-06	-9.576543e-10	-9.168264e+00	-6.135888e+01
1.570000e-06	-1.245390e-06	-9.489655e-10	-8.851555e+00	-6.079097e+01
1.580000e-06	-1.200814e-06	-9.408160e-10	-8.534735e+00	-6.021339e+01
1.590000e-06	-1.156257e-06	-9.346045e-10	-8.218052e+00	-5.962517e+01
1.600000e-06	-1.111606e-06	-9.282234e-10	-7.900691e+00	-5.902557e+01
1.610000e-06	-1.066754e-06	-9.196320e-10	-7.581907e+00	-5.841411e+01
1.620000e-06	-1.021714e-06	-9.058017e-10	-7.261793e+00	-5.779059e+01
1.630000e-06	-9.766364e-07	-8.900463e-10	-6.941403e+00	-5.715505e+01
1.640000e-06	-9.316150e-07	-8.778690e-10	-6.621415e+00	-5.650781e+01
1.650000e-06	-8.865132e-07	-8.687856e-10	-6.300856e+00	-5.584937e+01
1.660000e-06	-8.412496e-07	-8.577608e-10	-5.979147e+00	-5.518042e+01
1.670000e-06	-7.959277e-07	-8.480779e-10	-5.657023e+00	-5.450173e+01
1.680000e-06	-7.505192e-07	-8.413469e-10	-5.334284e+00	-5.381413e+01
1.690000e-06	-7.050399e-07	-8.354664e-10	-5.011042e+00	-5.311840e+01
1.700000e-06	-6.594579e-07	-8.244474e-10	-4.687069e+00	-5.241524e+01
1.710000e-06	-6.138625e-07	-8.099829e-10	-4.363002e+00	-5.170518e+01
1.720000e-06	-5.683140e-07	-7.959216e-10	-4.039268e+00	-5.098855e+01
1.730000e-06	-5.226912e-07	-7.851996e-10	-3.715006e+00	-5.026543e+01
1.740000e-06	-4.769675e-07	-7.731042e-10	-3.390027e+00	-4.953561e+01
1.750000e-06	-4.312382e-07	-7.593699e-10	-3.065008e+00	-4.879862e+01
1.760000e-06	-3.854829e-07	-7.467408e-10	-2.739804e+00	-4.805368e+01
1.770000e-06	-3.396840e-07	-7.370162e-10	-2.414290e+00	-4.729978e+01
1.780000e-06	-2.938546e-07	-7.278460e-10	-2.088559e+00	-4.653569e+01
1.790000e-06	-2.479216e-07	-7.166416e-10	-1.762093e+00	-4.576002e+01
1.800000e-06	-2.019786e-07	-7.013666e-10	-1.435554e+00	-4.497126e+01
1.810000e-06	-1.560635e-07	-6.853835e-10	-1.109215e+00	-4.416788e+01
1.820000e-06	-1.102359e-07	-6.708875e-10	-7.834971e-01	-4.334838e+01
1.830000e-06	-6.448891e-08	-6.558171e-10	-4.583522e-01	-4.251137e+01
1.840000e-06	-1.871908e-08	-6.404210e-10	-1.330451e-01	-4.165561e+01
1.850000e-06	2.708316e-08	-6.275853e-10	1.924925e-01	-4.078011e+01
1.860000e-06	7.284734e-08	-6.174413e-10	5.177595e-01	-3.988412e+01
1.870000e-06	1.185813e-07	-6.071465e-10	8.428118e-01	-3.896720e+01
1.880000e-06	1.643765e-07	-5.952253e-10	1.168299e+00	-3.802920e+01
1.890000e-06	2.102120e-07	-5.789985e-10	1.494073e+00	-3.707030e+01
1.900000e-06	2.560381e-07	-5.588456e-10	1.819780e+00	-3.609094e+01
1.910000e-06	3.018575e-07	-5.379153e-10	2.145440e+00	-3.509182e+01
1.920000e-06	3.475764e-07	-5.192922e-10	2.470385e+00	-3.407386e+01
1.930000e-06	3.932648e-07	-5.035658e-10	2.795113e+00	-3.303810e+01
1.940000e-06	4.390208e-07	-4.903160e-10	3.120322e+00	-3.198569e+01
1.950000e-06	4.847041e-07	-4.768529e-10	3.445014e+00	-3.091781e+01
1.960000e-06	5.303393e-07	-4.639200e-10	3.769365e+00	-2.983558e+01
1.970000e-06	5.759100e-07	-4.492827e-10	4.093256e+00	-2.874002e+01
1.980000e-06	6.213986e-07	-4.306066e-10	4.416564e+00	-2.763200e+01
1.990000e-06	6.669052e-07	-4.074801e-10	4.740001e+00	-2.651221e+01
2.000000e-06	7.123925e-07	-3.851397e-10	5.063300e+00	-2.538110e+01
2.010000e-06	7.577294e-07	-3.670175e-10	5.385530e+00	-2.423886e+01
2.020000e-06	8.029895e-07	-3.528233e-10	5.707214e+00	-2.308549e+01
2.030000e-06	8.481685e-07	-3.365123e-10	6.028322e+00	-2.192071e+01
2.040000e-06	8.932485e-07	-3.182989e-10	6.348727e+00	-2.074406e+01
2.050000e-06	9.383076e-07	-3.016076e-10	6.668982e+00	-1.955493e+01
2.060000e-06	9.832973e-07	-2.844413e-10	6.988744e+00	-1.835256e+01
2.070000e-06	1.028282e-06	-2.632971e-10	7.308468e+00	-1.713614e+01
2.080000e-06	1.073215e-06	-2.387689e-10	7.627833e+00	-1.590485e+01
2.090000e-06	1.117942e-06	-2.165141e-10	7.945723e+00	-1.465789e+01
2.100000e-06	1.162559e-06	-1.987390e-10	8.262836e+00	-1.339458e+01
2.110000e-06	1.207141e-06	-1.803957e-10	8.579706e+00	-1.211435e+01
2.120000e-06	1.251627e-06	-1.588401e-10	8.895884e+00	-1.081682e+01
2.130000e-06	1.296046e-06	-1.394796e-10	9.211590e+00	-9.501778e+00
2.140000e-06	1.340402e-06	-1.225113e-10	9.526851e+00	-8.169249e+00
2.150000e-06	1.384690e-06	-1.055241e-10	9.841627e+00	-6.819452e+00
2.160000e-06	1.428910e-06	-8.567955e-11	1.015592e+01	-5.452812e+00
2.170000e-06	1.473113e-06	-6.189527e-11	1.047009e+01	-4.069934e+00
2.180000e-06	1.517337e-06	-3.848699e-11	1.078441e+01	-2.671580e+00
2.190000e-06	1.561464e-06	-1.755697e-11	1.109804e+01	-1.258632e+00
2.200000e-06	1.605526e-06	4.949870e-12	1.141121e+01	1.679454e-01
2.210000e-06	1.649547e-06	2.946148e-11	1.172409e+01	1.607140e+00
2.220000e-06	1.693460e-06	5.221606e-11	1.203620e+01	3.057934e+00
2.230000e-06	1.737262e-06	7.342593e-11	1.234752e+01	4.519332e+00
2.240000e-06	1.780973e-06	9.686136e-11	1.265819e+01	5.990391e+00
2.250000e-06	1.824617e-06	1.222334e-10	1.296839e+01	7.470238e+00
2.260000e-06	1.868020e-06	1.482701e-10	1.327687e+01	8.958082e+00
2.270000e-06	1.911226e-06	1.735721e-10	1.358396e+01	1.045321e+01
2.280000e-06	1.954383e-06	1.984416e-10	1.389069e+01	1.195499e+01
2.290000e-06	1.997382e-06	2.247644e-10	1.419631e+01	1.346286e+01
2.300000e-06	2.040161e-06	2.513596e-10	1.450036e+01	1.497626e+01
2.310000e-06	2.082699e-06	2.751558e-10	1.480270e+01	1.649468e+01
2.320000e-06	2.124993e-06	2.987263e-10	1.510330e+01	1.801758e+01
2.330000e-06	2.167000e-06	3.228120e-10	1.540186e+01	1.954436e+01
2.340000e-06	2.208686e-06	3.439535e-10	1.569815e+01	2.107436e+01
2.350000e-06	2.250059e-06	3.629560e-10	1.599220e+01	2.260681e+01
2.360000e-06	2.291210e-06	3.828208e-10	1.628468e+01	2.414085e+01
2.370000e-06	2.332071e-06	4.058556e-10	1.657510e+01	2.567545e+01
2.380000e-06	2.372666e-06	4.307857e-10	1.686363e+01	2.720951e+01
2.390000e-06	2.413172e-06	4.563432e-10	1.715152e+01	2.874177e+01
2.400000e-06	2.453569e-06	4.817186e-10	1.743864e+01	3.027088e+01
2.410000e-06	2.493814e-06	5.072398e-10	1.772468e+01	3.179542e+01
2.420000e-06	2.533903e-06	5.332426e-10	1.800961e+01	3.331392e+01
2.430000e-06	2.573879e-06	5.582920e-10	1.829374e+01	3.482491e+01
2.440000e-06	2.613774e-06	5.803486e-10	1.857729e+01	3.632692e+01
2.450000e-06	2.653574e-06	5.990207e-10	1.886017e+01	3.781858e+01
2.460000e-06	2.693181e-06	6.187669e-10	1.914167e+01	3.929860e+01
2.470000e-06	2.732596e-06	6.398259e-10	1.942181e+01	4.076583e+01
2.480000e-06	2.771929e-06	6.619664e-10	1.970137e+01	4.221927e+01
2.490000e-06	2.811108e-06	6.878140e-10	1.997983e+01	4.365811e+01
2.500000e-06	2.849959e-06	7.163770e-10	2.025596e+01	4.508172e+01
2.510000e-06	2.888542e-06	7.432887e-10	2.053019e+01	4.648963e+01
2.520000e-06	2.926981e-06	7.651700e-10	2.080339e+01	4.788157e+01
2.530000e-06	2.965254e-06	7.838976e-10	2.107542e+01	4.925740e+01
2.540000e-06	3.003328e-06	8.018279e-10	2.134603e+01	5.061710e+01
2.550000e-06	3.041225e-06	8.182238e-10	2.161538e+01	5.196074e+01
2.560000e-06	3.079024e-06	8.344021e-10	2.188403e+01	5.328845e+01
2.570000e-06	3.116597e-06	8.522551e-10	2.215108e+01	5.460034e+01
2.580000e-06	3.153854e-06	8.730154e-10	2.241588e+01	5.589652e+01
2.590000e-06	3.190878e-06	8.969847e-10	2.267903e+01	5.717701e+01
2.600000e-06	3.227621e-06	9.211043e-10	2.294018e+01	5.844174e+01
2.610000e-06	3.264064e-06	9.435381e-10	2.319920e+01	5.969054e+01
2.620000e-06	3.300404e-06	9.629122e-10	2.345748e+01	6.092307e+01
2.630000e-06	3.336635e-06	9.801618e-10	2.371499e+01	6.213889e+01
2.640000e-06	3.372641e-06	9.943964e-10	2.397091e+01	6.333740e+01
2.650000e-06	3.408510e-06	1.005570e-09	2.422584e+01	6.451789e+01
2.660000e-06	3.444310e-06	1.018143e-09	2.448029e+01	6.567955e+01
2.670000e-06	3.480027e-06	1.033089e-09	2.473414e+01	6.682153e+01
2.680000e-06	3.515498e-06	1.048134e-09	2.498625e+01	6.794290e+01
2.690000e-06	3.550637e-06	1.064052e-09	2.523600e+01	6.904278e+01
2.700000e-06	3.585420e-06	1.083522e-09	2.548322e+01	7.012029e+01
2.710000e-06	3.619654e-06	1.106301e-09	2.572654e+01	7.117467e+01
2.720000e-06	3.653374e-06	1.126942e-09	2.596620e+01	7.220525e+01
2.730000e-06	3.686721e-06	1.142093e-09	2.620322e+01	7.321148e+01
2.740000e-06	3.719695e-06	1.154214e-09	2.643758e+01	7.419298e+01
2.750000e-06	3.752326e-06	1.166202e-09	2.666950e+01	7.514953e+01
2.760000e-06	3.784671e-06	1.176334e-09	2.689939e+01	7.608108e+01
2.770000e-06	3.816853e-06	1.185461e-09	2.712813e+01	7.698771e+01
2.780000e-06	3.848910e-06	1.198745e-09	2.735597e+01	7.786965e+01
2.790000e-06	3.880733e-06	1.218034e-09	2.758215e+01	7.872724e+01
2.800000e-06	3.912323e-06	1.238084e-09	2.780667e+01	7.956091e+01
2.810000e-06	3.943711e-06	1.251197e-09	2.802976e+01	8.037115e+01
2.820000e-06	3.974864e-06	1.259059e-09	2.825118e+01	8.115845e+01
2.830000e-06	4.005677e-06	1.267025e-09	2.847018e+01	8.192331e+01
2.840000e-06	4.036172e-06	1.273960e-09	2.868693e+01	8.266619e+01
2.850000e-06	4.066424e-06	1.278715e-09	2.890194e+01	8.338749e+01
2.860000e-06	4.096384e-06	1.285388e-09	2.911488e+01	8.408755e+01
2.870000e-06	4.126089e-06	1.295957e-09	2.932600e+01	8.476663e+01
2.880000e-06	4.155629e-06	1.309369e-09	2.953596e+01	8.542493e+01
2.890000e-06	4.184918e-06	1.322329e-09	2.974413e+01	8.606258e+01
2.900000e-06	4.213781e-06	1.333808e-09	2.994927e+01	8.667967e+01
