# Temperatura_=_19.6
# Concentracion g/m^3_=_4090.0
# C_Vs_to_Am_M_A/Vsm_=_65563218390.804596
# pendiente_HvsI_1/m_=_3716.3
# ordenada_HvsI_A/m_=_1297.0
# frecuencia_Hz_=_135084.04673002966

Tiempo_(s)	Campo_(V.s)	Magnetizacion_(V.s)	Campo_(kA/m)	Magnetizacion_(A/m)
0.000000e+00	-5.414092e-06	-1.217387e-09	-3.838948e+01	-8.460962e+01
1.000000e-08	-5.414276e-06	-1.215739e-09	-3.839079e+01	-8.449322e+01
2.000000e-08	-5.414180e-06	-1.216250e-09	-3.839010e+01	-8.436228e+01
3.000000e-08	-5.413913e-06	-1.216896e-09	-3.838822e+01	-8.421542e+01
4.000000e-08	-5.413406e-06	-1.215818e-09	-3.838462e+01	-8.405204e+01
5.000000e-08	-5.412543e-06	-1.212603e-09	-3.837850e+01	-8.387242e+01
6.000000e-08	-5.411213e-06	-1.205692e-09	-3.836907e+01	-8.367784e+01
7.000000e-08	-5.409160e-06	-1.187085e-09	-3.835451e+01	-8.347055e+01
8.000000e-08	-5.406331e-06	-1.181150e-09	-3.833445e+01	-8.325380e+01
9.000000e-08	-5.402876e-06	-1.236784e-09	-3.830995e+01	-8.303174e+01
1.000000e-07	-5.398903e-06	-1.290945e-09	-3.828179e+01	-8.280932e+01
1.100000e-07	-5.394628e-06	-1.238311e-09	-3.825147e+01	-8.259210e+01
1.200000e-07	-5.390189e-06	-1.176840e-09	-3.821999e+01	-8.238606e+01
1.300000e-07	-5.385672e-06	-1.202775e-09	-3.818797e+01	-8.219737e+01
1.400000e-07	-5.380824e-06	-1.261593e-09	-3.815359e+01	-8.203212e+01
1.500000e-07	-5.375358e-06	-1.205908e-09	-3.811483e+01	-8.189606e+01
1.600000e-07	-5.369494e-06	-1.118647e-09	-3.807326e+01	-8.179433e+01
1.700000e-07	-5.363407e-06	-1.193114e-09	-3.803009e+01	-8.173123e+01
1.800000e-07	-5.356896e-06	-1.261356e-09	-3.798393e+01	-8.171000e+01
1.900000e-07	-5.349802e-06	-1.257790e-09	-3.793362e+01	-8.173263e+01
2.000000e-07	-5.342475e-06	-1.206741e-09	-3.788167e+01	-8.179973e+01
2.100000e-07	-5.335112e-06	-1.261411e-09	-3.782946e+01	-8.191046e+01
2.200000e-07	-5.327366e-06	-1.254821e-09	-3.777454e+01	-8.206252e+01
2.300000e-07	-5.319264e-06	-1.222446e-09	-3.771709e+01	-8.225219e+01
2.400000e-07	-5.311015e-06	-1.232909e-09	-3.765860e+01	-8.247445e+01
2.500000e-07	-5.302356e-06	-1.303320e-09	-3.759720e+01	-8.272312e+01
2.600000e-07	-5.292996e-06	-1.309055e-09	-3.753083e+01	-8.299109e+01
2.700000e-07	-5.282985e-06	-1.309928e-09	-3.745985e+01	-8.327059e+01
2.800000e-07	-5.272398e-06	-1.374960e-09	-3.738478e+01	-8.355342e+01
2.900000e-07	-5.261237e-06	-1.386546e-09	-3.730564e+01	-8.383132e+01
3.000000e-07	-5.249548e-06	-1.300508e-09	-3.722276e+01	-8.409621e+01
3.100000e-07	-5.237553e-06	-1.282977e-09	-3.713770e+01	-8.434053e+01
3.200000e-07	-5.225243e-06	-1.377502e-09	-3.705042e+01	-8.455749e+01
3.300000e-07	-5.212522e-06	-1.374930e-09	-3.696022e+01	-8.474127e+01
3.400000e-07	-5.199477e-06	-1.324663e-09	-3.686772e+01	-8.488729e+01
3.500000e-07	-5.186007e-06	-1.336041e-09	-3.677221e+01	-8.499225e+01
3.600000e-07	-5.172057e-06	-1.385226e-09	-3.667329e+01	-8.505428e+01
3.700000e-07	-5.157796e-06	-1.344624e-09	-3.657218e+01	-8.507292e+01
3.800000e-07	-5.143313e-06	-1.324038e-09	-3.646948e+01	-8.504910e+01
3.900000e-07	-5.128087e-06	-1.310212e-09	-3.636152e+01	-8.498500e+01
4.000000e-07	-5.112082e-06	-1.307626e-09	-3.624803e+01	-8.488395e+01
4.100000e-07	-5.095617e-06	-1.323541e-09	-3.613129e+01	-8.475019e+01
4.200000e-07	-5.078756e-06	-1.370273e-09	-3.601173e+01	-8.458867e+01
4.300000e-07	-5.061660e-06	-1.335427e-09	-3.589051e+01	-8.440479e+01
4.400000e-07	-5.044369e-06	-1.310404e-09	-3.576790e+01	-8.420415e+01
4.500000e-07	-5.026764e-06	-1.333158e-09	-3.564307e+01	-8.399232e+01
4.600000e-07	-5.008837e-06	-1.347541e-09	-3.551596e+01	-8.377455e+01
4.700000e-07	-4.990619e-06	-1.298070e-09	-3.538678e+01	-8.355559e+01
4.800000e-07	-4.971983e-06	-1.288836e-09	-3.525464e+01	-8.333954e+01
4.900000e-07	-4.952860e-06	-1.305568e-09	-3.511904e+01	-8.312967e+01
5.000000e-07	-4.933261e-06	-1.319630e-09	-3.498007e+01	-8.292836e+01
5.100000e-07	-4.913356e-06	-1.310897e-09	-3.483893e+01	-8.273706e+01
5.200000e-07	-4.893266e-06	-1.295175e-09	-3.469648e+01	-8.255628e+01
5.300000e-07	-4.872945e-06	-1.282622e-09	-3.455239e+01	-8.238568e+01
5.400000e-07	-4.852434e-06	-1.300632e-09	-3.440695e+01	-8.222415e+01
5.500000e-07	-4.831726e-06	-1.304896e-09	-3.426013e+01	-8.206992e+01
5.600000e-07	-4.810688e-06	-1.276765e-09	-3.411095e+01	-8.192075e+01
5.700000e-07	-4.789188e-06	-1.268461e-09	-3.395850e+01	-8.177408e+01
5.800000e-07	-4.767278e-06	-1.284642e-09	-3.380315e+01	-8.162721e+01
5.900000e-07	-4.745114e-06	-1.280862e-09	-3.364599e+01	-8.147747e+01
6.000000e-07	-4.722707e-06	-1.260081e-09	-3.348711e+01	-8.132238e+01
6.100000e-07	-4.699871e-06	-1.255028e-09	-3.332518e+01	-8.115978e+01
6.200000e-07	-4.676563e-06	-1.258160e-09	-3.315991e+01	-8.098798e+01
6.300000e-07	-4.652978e-06	-1.273564e-09	-3.299268e+01	-8.080577e+01
6.400000e-07	-4.629195e-06	-1.273764e-09	-3.282404e+01	-8.061254e+01
6.500000e-07	-4.605221e-06	-1.259426e-09	-3.265406e+01	-8.040820e+01
6.600000e-07	-4.581078e-06	-1.246856e-09	-3.248286e+01	-8.019326e+01
6.700000e-07	-4.556792e-06	-1.256229e-09	-3.231066e+01	-7.996867e+01
6.800000e-07	-4.532159e-06	-1.247673e-09	-3.213600e+01	-7.973582e+01
6.900000e-07	-4.506977e-06	-1.232342e-09	-3.195744e+01	-7.949637e+01
7.000000e-07	-4.481302e-06	-1.221225e-09	-3.177539e+01	-7.925219e+01
7.100000e-07	-4.455147e-06	-1.231633e-09	-3.158993e+01	-7.900519e+01
7.200000e-07	-4.428368e-06	-1.234920e-09	-3.140005e+01	-7.875727e+01
7.300000e-07	-4.401055e-06	-1.234127e-09	-3.120638e+01	-7.851012e+01
7.400000e-07	-4.373453e-06	-1.221065e-09	-3.101067e+01	-7.826521e+01
7.500000e-07	-4.345591e-06	-1.219344e-09	-3.081310e+01	-7.802365e+01
7.600000e-07	-4.317546e-06	-1.217642e-09	-3.061425e+01	-7.778620e+01
7.700000e-07	-4.289357e-06	-1.214684e-09	-3.041437e+01	-7.755320e+01
7.800000e-07	-4.260959e-06	-1.202993e-09	-3.021301e+01	-7.732458e+01
7.900000e-07	-4.232367e-06	-1.202891e-09	-3.001027e+01	-7.709991e+01
8.000000e-07	-4.203437e-06	-1.203590e-09	-2.980514e+01	-7.687844e+01
8.100000e-07	-4.174135e-06	-1.201698e-09	-2.959737e+01	-7.665915e+01
8.200000e-07	-4.144584e-06	-1.193506e-09	-2.938784e+01	-7.644085e+01
8.300000e-07	-4.114696e-06	-1.189222e-09	-2.917591e+01	-7.622227e+01
8.400000e-07	-4.084490e-06	-1.189188e-09	-2.896173e+01	-7.600214e+01
8.500000e-07	-4.054137e-06	-1.189289e-09	-2.874651e+01	-7.577927e+01
8.600000e-07	-4.023538e-06	-1.183976e-09	-2.852954e+01	-7.555267e+01
8.700000e-07	-3.992643e-06	-1.176144e-09	-2.831047e+01	-7.532155e+01
8.800000e-07	-3.961460e-06	-1.171885e-09	-2.808937e+01	-7.508541e+01
8.900000e-07	-3.929944e-06	-1.166639e-09	-2.786589e+01	-7.484407e+01
9.000000e-07	-3.898211e-06	-1.157548e-09	-2.764089e+01	-7.459763e+01
9.100000e-07	-3.866305e-06	-1.145092e-09	-2.741465e+01	-7.434650e+01
9.200000e-07	-3.834288e-06	-1.143907e-09	-2.718763e+01	-7.409134e+01
9.300000e-07	-3.802130e-06	-1.148456e-09	-2.695961e+01	-7.383302e+01
9.400000e-07	-3.769726e-06	-1.153450e-09	-2.672985e+01	-7.357255e+01
9.500000e-07	-3.737108e-06	-1.149949e-09	-2.649856e+01	-7.331099e+01
9.600000e-07	-3.704224e-06	-1.148297e-09	-2.626539e+01	-7.304941e+01
9.700000e-07	-3.670956e-06	-1.142949e-09	-2.602950e+01	-7.278878e+01
9.800000e-07	-3.637261e-06	-1.133314e-09	-2.579058e+01	-7.252992e+01
9.900000e-07	-3.602995e-06	-1.116261e-09	-2.554761e+01	-7.227345e+01
1.000000e-06	-3.568264e-06	-1.107465e-09	-2.530134e+01	-7.201971e+01
1.010000e-06	-3.533132e-06	-1.108587e-09	-2.505224e+01	-7.176878e+01
1.020000e-06	-3.497618e-06	-1.117188e-09	-2.480042e+01	-7.152044e+01
1.030000e-06	-3.461920e-06	-1.117966e-09	-2.454730e+01	-7.127418e+01
1.040000e-06	-3.426003e-06	-1.115094e-09	-2.429262e+01	-7.102926e+01
1.050000e-06	-3.389979e-06	-1.110074e-09	-2.403718e+01	-7.078470e+01
1.060000e-06	-3.353908e-06	-1.106695e-09	-2.378142e+01	-7.053939e+01
1.070000e-06	-3.317690e-06	-1.096038e-09	-2.352461e+01	-7.029213e+01
1.080000e-06	-3.281269e-06	-1.082169e-09	-2.326636e+01	-7.004169e+01
1.090000e-06	-3.244670e-06	-1.072019e-09	-2.300685e+01	-6.978690e+01
1.100000e-06	-3.207828e-06	-1.073822e-09	-2.274561e+01	-6.952670e+01
1.110000e-06	-3.170681e-06	-1.076542e-09	-2.248222e+01	-6.926022e+01
1.120000e-06	-3.133269e-06	-1.072411e-09	-2.221694e+01	-6.898681e+01
1.130000e-06	-3.095616e-06	-1.063550e-09	-2.194996e+01	-6.870608e+01
1.140000e-06	-3.057729e-06	-1.058339e-09	-2.168132e+01	-6.841792e+01
1.150000e-06	-3.019597e-06	-1.055896e-09	-2.141094e+01	-6.812247e+01
1.160000e-06	-2.981270e-06	-1.050088e-09	-2.113917e+01	-6.782015e+01
1.170000e-06	-2.942845e-06	-1.040937e-09	-2.086671e+01	-6.751161e+01
1.180000e-06	-2.904218e-06	-1.035423e-09	-2.059282e+01	-6.719764e+01
1.190000e-06	-2.865376e-06	-1.034041e-09	-2.031741e+01	-6.687921e+01
1.200000e-06	-2.826309e-06	-1.029684e-09	-2.004039e+01	-6.655731e+01
1.210000e-06	-2.786888e-06	-1.025400e-09	-1.976087e+01	-6.623294e+01
1.220000e-06	-2.747323e-06	-1.021498e-09	-1.948033e+01	-6.590703e+01
1.230000e-06	-2.707695e-06	-1.019321e-09	-1.919934e+01	-6.558040e+01
1.240000e-06	-2.667876e-06	-1.014932e-09	-1.891700e+01	-6.525368e+01
1.250000e-06	-2.627915e-06	-1.009057e-09	-1.863365e+01	-6.492730e+01
1.260000e-06	-2.587892e-06	-1.001907e-09	-1.834986e+01	-6.460144e+01
1.270000e-06	-2.547770e-06	-9.988722e-10	-1.806537e+01	-6.427607e+01
1.280000e-06	-2.507580e-06	-9.943329e-10	-1.778040e+01	-6.395089e+01
1.290000e-06	-2.467327e-06	-9.892638e-10	-1.749497e+01	-6.362541e+01
1.300000e-06	-2.426895e-06	-9.827023e-10	-1.720829e+01	-6.329894e+01
1.310000e-06	-2.386326e-06	-9.785949e-10	-1.692063e+01	-6.297067e+01
1.320000e-06	-2.345610e-06	-9.739068e-10	-1.663192e+01	-6.263969e+01
1.330000e-06	-2.304687e-06	-9.688129e-10	-1.634175e+01	-6.230507e+01
1.340000e-06	-2.263560e-06	-9.645623e-10	-1.605013e+01	-6.196591e+01
1.350000e-06	-2.222089e-06	-9.623662e-10	-1.575608e+01	-6.162139e+01
1.360000e-06	-2.180316e-06	-9.579491e-10	-1.545988e+01	-6.127080e+01
1.370000e-06	-2.138306e-06	-9.499310e-10	-1.516200e+01	-6.091362e+01
1.380000e-06	-2.095918e-06	-9.407018e-10	-1.486144e+01	-6.054951e+01
1.390000e-06	-2.053308e-06	-9.336225e-10	-1.455931e+01	-6.017831e+01
1.400000e-06	-2.010524e-06	-9.268137e-10	-1.425594e+01	-5.980010e+01
1.410000e-06	-1.967415e-06	-9.200906e-10	-1.395027e+01	-5.941511e+01
1.420000e-06	-1.924142e-06	-9.135831e-10	-1.364343e+01	-5.902375e+01
1.430000e-06	-1.880734e-06	-9.121385e-10	-1.333565e+01	-5.862655e+01
1.440000e-06	-1.837167e-06	-9.111124e-10	-1.302672e+01	-5.822413e+01
1.450000e-06	-1.793553e-06	-9.072390e-10	-1.271748e+01	-5.781711e+01
1.460000e-06	-1.749824e-06	-9.009944e-10	-1.240741e+01	-5.740612e+01
1.470000e-06	-1.705849e-06	-8.968367e-10	-1.209559e+01	-5.699170e+01
1.480000e-06	-1.661739e-06	-8.927736e-10	-1.178282e+01	-5.657429e+01
1.490000e-06	-1.617610e-06	-8.855857e-10	-1.146992e+01	-5.615417e+01
1.500000e-06	-1.573500e-06	-8.792192e-10	-1.115716e+01	-5.573145e+01
1.510000e-06	-1.529377e-06	-8.725638e-10	-1.084429e+01	-5.530604e+01
1.520000e-06	-1.485148e-06	-8.665234e-10	-1.053068e+01	-5.487765e+01
1.530000e-06	-1.440853e-06	-8.590920e-10	-1.021660e+01	-5.444582e+01
1.540000e-06	-1.396486e-06	-8.498063e-10	-9.902009e+00	-5.400990e+01
1.550000e-06	-1.352025e-06	-8.420890e-10	-9.586748e+00	-5.356912e+01
1.560000e-06	-1.307536e-06	-8.369897e-10	-9.271296e+00	-5.312260e+01
1.570000e-06	-1.263000e-06	-8.321436e-10	-8.955505e+00	-5.266939e+01
1.580000e-06	-1.218351e-06	-8.266471e-10	-8.638913e+00	-5.220852e+01
1.590000e-06	-1.173639e-06	-8.163182e-10	-8.321871e+00	-5.173905e+01
1.600000e-06	-1.128817e-06	-8.034092e-10	-8.004054e+00	-5.126010e+01
1.610000e-06	-1.083803e-06	-7.915753e-10	-7.684878e+00	-5.077086e+01
1.620000e-06	-1.038738e-06	-7.840063e-10	-7.365336e+00	-5.027065e+01
1.630000e-06	-9.936563e-07	-7.783917e-10	-7.045678e+00	-4.975890e+01
1.640000e-06	-9.485128e-07	-7.737447e-10	-6.725581e+00	-4.923516e+01
1.650000e-06	-9.032049e-07	-7.678720e-10	-6.404318e+00	-4.869909e+01
1.660000e-06	-8.577751e-07	-7.610118e-10	-6.082191e+00	-4.815044e+01
1.670000e-06	-8.123177e-07	-7.511429e-10	-5.759868e+00	-4.758901e+01
1.680000e-06	-7.668076e-07	-7.420855e-10	-5.437171e+00	-4.701463e+01
1.690000e-06	-7.212713e-07	-7.313567e-10	-5.114289e+00	-4.642711e+01
1.700000e-06	-6.756960e-07	-7.191893e-10	-4.791130e+00	-4.582620e+01
1.710000e-06	-6.300728e-07	-7.099453e-10	-4.467632e+00	-4.521155e+01
1.720000e-06	-5.844336e-07	-7.041702e-10	-4.144020e+00	-4.458268e+01
1.730000e-06	-5.386723e-07	-7.007246e-10	-3.819542e+00	-4.393895e+01
1.740000e-06	-4.928037e-07	-6.944236e-10	-3.494303e+00	-4.327956e+01
1.750000e-06	-4.469453e-07	-6.847103e-10	-3.169137e+00	-4.260351e+01
1.760000e-06	-4.011078e-07	-6.747167e-10	-2.844119e+00	-4.190965e+01
1.770000e-06	-3.552930e-07	-6.609344e-10	-2.519262e+00	-4.119668e+01
1.780000e-06	-3.094298e-07	-6.426681e-10	-2.194061e+00	-4.046315e+01
1.790000e-06	-2.635835e-07	-6.239367e-10	-1.868981e+00	-3.970758e+01
1.800000e-06	-2.176740e-07	-6.107950e-10	-1.543452e+00	-3.892841e+01
1.810000e-06	-1.716330e-07	-6.019466e-10	-1.216991e+00	-3.812415e+01
1.820000e-06	-1.256716e-07	-5.911810e-10	-8.910946e-01	-3.729335e+01
1.830000e-06	-7.972530e-08	-5.814985e-10	-5.653050e-01	-3.643470e+01
1.840000e-06	-3.372172e-08	-5.715882e-10	-2.391092e-01	-3.554709e+01
1.850000e-06	1.217430e-08	-5.584929e-10	8.632378e-02	-3.462958e+01
1.860000e-06	5.806626e-08	-5.401253e-10	4.117281e-01	-3.368151e+01
1.870000e-06	1.040025e-07	-5.204698e-10	7.374461e-01	-3.270246e+01
1.880000e-06	1.498881e-07	-5.031487e-10	1.062806e+00	-3.169228e+01
1.890000e-06	1.957824e-07	-4.897260e-10	1.388226e+00	-3.065106e+01
1.900000e-06	2.416801e-07	-4.761015e-10	1.713672e+00	-2.957911e+01
1.910000e-06	2.875894e-07	-4.591727e-10	2.039198e+00	-2.847694e+01
1.920000e-06	3.334773e-07	-4.419937e-10	2.364574e+00	-2.734517e+01
1.930000e-06	3.793240e-07	-4.246514e-10	2.689657e+00	-2.618453e+01
1.940000e-06	4.251214e-07	-4.070076e-10	3.014391e+00	-2.499577e+01
1.950000e-06	4.708437e-07	-3.865971e-10	3.338592e+00	-2.377960e+01
1.960000e-06	5.165743e-07	-3.663992e-10	3.662852e+00	-2.253665e+01
1.970000e-06	5.623136e-07	-3.478014e-10	3.987174e+00	-2.126743e+01
1.980000e-06	6.080454e-07	-3.303749e-10	4.311442e+00	-1.997229e+01
1.990000e-06	6.536833e-07	-3.109940e-10	4.635045e+00	-1.865138e+01
2.000000e-06	6.992600e-07	-2.897077e-10	4.958214e+00	-1.730469e+01
2.010000e-06	7.447820e-07	-2.690234e-10	5.280996e+00	-1.593202e+01
2.020000e-06	7.901935e-07	-2.464719e-10	5.602993e+00	-1.453304e+01
2.030000e-06	8.355788e-07	-2.222500e-10	5.924805e+00	-1.310728e+01
2.040000e-06	8.808968e-07	-1.985380e-10	6.246139e+00	-1.165424e+01
2.050000e-06	9.260770e-07	-1.772941e-10	6.566496e+00	-1.017344e+01
2.060000e-06	9.712523e-07	-1.564827e-10	6.886819e+00	-8.664464e+00
2.070000e-06	1.016419e-06	-1.336637e-10	7.207080e+00	-7.127057e+00
2.080000e-06	1.061440e-06	-1.089432e-10	7.526310e+00	-5.561185e+00
2.090000e-06	1.106426e-06	-8.404110e-11	7.845292e+00	-3.967103e+00
2.100000e-06	1.151319e-06	-5.936590e-11	8.163610e+00	-2.345403e+00
2.110000e-06	1.196039e-06	-3.352262e-11	8.480707e+00	-6.970581e-01
2.120000e-06	1.240636e-06	-5.285000e-12	8.796927e+00	9.765580e-01
2.130000e-06	1.285121e-06	2.101404e-11	9.112353e+00	2.673664e+00
2.140000e-06	1.329590e-06	4.334221e-11	9.427670e+00	4.392087e+00
2.150000e-06	1.373995e-06	6.626153e-11	9.742527e+00	6.129294e+00
2.160000e-06	1.418298e-06	9.280136e-11	1.005667e+01	7.882444e+00
2.170000e-06	1.462578e-06	1.202325e-10	1.037064e+01	9.648449e+00
2.180000e-06	1.506846e-06	1.470051e-10	1.068453e+01	1.142406e+01
2.190000e-06	1.551074e-06	1.745031e-10	1.099814e+01	1.320593e+01
2.200000e-06	1.595229e-06	2.040998e-10	1.131123e+01	1.499074e+01
2.210000e-06	1.639333e-06	2.333919e-10	1.162395e+01	1.677524e+01
2.220000e-06	1.683401e-06	2.579260e-10	1.193643e+01	1.855637e+01
2.230000e-06	1.727401e-06	2.797086e-10	1.224842e+01	2.033129e+01
2.240000e-06	1.771361e-06	3.063178e-10	1.256012e+01	2.209748e+01
2.250000e-06	1.815283e-06	3.345297e-10	1.287155e+01	2.385275e+01
2.260000e-06	1.859083e-06	3.590658e-10	1.318212e+01	2.559525e+01
2.270000e-06	1.902726e-06	3.854547e-10	1.349158e+01	2.732352e+01
2.280000e-06	1.946127e-06	4.172219e-10	1.379933e+01	2.903644e+01
2.290000e-06	1.989236e-06	4.497285e-10	1.410499e+01	3.073317e+01
2.300000e-06	2.032172e-06	4.774937e-10	1.440944e+01	3.241316e+01
2.310000e-06	2.074973e-06	4.992336e-10	1.471293e+01	3.407604e+01
2.320000e-06	2.117438e-06	5.198289e-10	1.501403e+01	3.572158e+01
2.330000e-06	2.159457e-06	5.428214e-10	1.531197e+01	3.734957e+01
2.340000e-06	2.201143e-06	5.656271e-10	1.560755e+01	3.895982e+01
2.350000e-06	2.242699e-06	5.884829e-10	1.590221e+01	4.055202e+01
2.360000e-06	2.284042e-06	6.137818e-10	1.619537e+01	4.212571e+01
2.370000e-06	2.324998e-06	6.425770e-10	1.648577e+01	4.368027e+01
2.380000e-06	2.365726e-06	6.713439e-10	1.677456e+01	4.521482e+01
2.390000e-06	2.406300e-06	6.947620e-10	1.706225e+01	4.672828e+01
2.400000e-06	2.446702e-06	7.151966e-10	1.734873e+01	4.821933e+01
2.410000e-06	2.486977e-06	7.359482e-10	1.763431e+01	4.968643e+01
2.420000e-06	2.527168e-06	7.578384e-10	1.791929e+01	5.112792e+01
2.430000e-06	2.567275e-06	7.816315e-10	1.820367e+01	5.254201e+01
2.440000e-06	2.607294e-06	8.059454e-10	1.848743e+01	5.392687e+01
2.450000e-06	2.647214e-06	8.294378e-10	1.877049e+01	5.528072e+01
2.460000e-06	2.686988e-06	8.527480e-10	1.905251e+01	5.660186e+01
2.470000e-06	2.726604e-06	8.738819e-10	1.933342e+01	5.788879e+01
2.480000e-06	2.766126e-06	8.898249e-10	1.961366e+01	5.914025e+01
2.490000e-06	2.805470e-06	9.046644e-10	1.989263e+01	6.035526e+01
2.500000e-06	2.844497e-06	9.211598e-10	2.016936e+01	6.153320e+01
2.510000e-06	2.883257e-06	9.402079e-10	2.044420e+01	6.267379e+01
2.520000e-06	2.921843e-06	9.597578e-10	2.071779e+01	6.377712e+01
2.530000e-06	2.960238e-06	9.798358e-10	2.099004e+01	6.484362e+01
2.540000e-06	2.998453e-06	1.000820e-09	2.126101e+01	6.587407e+01
2.550000e-06	3.036503e-06	1.018738e-09	2.153081e+01	6.686950e+01
2.560000e-06	3.074408e-06	1.031674e-09	2.179958e+01	6.783116e+01
2.570000e-06	3.112166e-06	1.042175e-09	2.206731e+01	6.876045e+01
2.580000e-06	3.149604e-06	1.053237e-09	2.233277e+01	6.965883e+01
2.590000e-06	3.186689e-06	1.065803e-09	2.259573e+01	7.052778e+01
2.600000e-06	3.223536e-06	1.081380e-09	2.285699e+01	7.136870e+01
2.610000e-06	3.260188e-06	1.098769e-09	2.311688e+01	7.218283e+01
2.620000e-06	3.296650e-06	1.115069e-09	2.337542e+01	7.297125e+01
2.630000e-06	3.332952e-06	1.128706e-09	2.363283e+01	7.373480e+01
2.640000e-06	3.369143e-06	1.139345e-09	2.388944e+01	7.447406e+01
2.650000e-06	3.405274e-06	1.147302e-09	2.414564e+01	7.518937e+01
2.660000e-06	3.441258e-06	1.151899e-09	2.440079e+01	7.588083e+01
2.670000e-06	3.477060e-06	1.154226e-09	2.465465e+01	7.654832e+01
2.680000e-06	3.512673e-06	1.157897e-09	2.490717e+01	7.719156e+01
2.690000e-06	3.548038e-06	1.166866e-09	2.515793e+01	7.781016e+01
2.700000e-06	3.583020e-06	1.179938e-09	2.540598e+01	7.840366e+01
2.710000e-06	3.617493e-06	1.193591e-09	2.565041e+01	7.897167e+01
2.720000e-06	3.651463e-06	1.207406e-09	2.589128e+01	7.951382e+01
2.730000e-06	3.684968e-06	1.218712e-09	2.612885e+01	8.002994e+01
2.740000e-06	3.718109e-06	1.227281e-09	2.636384e+01	8.052002e+01
2.750000e-06	3.750874e-06	1.231455e-09	2.659617e+01	8.098430e+01
2.760000e-06	3.783384e-06	1.232643e-09	2.682668e+01	8.142329e+01
2.770000e-06	3.815707e-06	1.235630e-09	2.705588e+01	8.183774e+01
2.780000e-06	3.847839e-06	1.241200e-09	2.728372e+01	8.222869e+01
2.790000e-06	3.879842e-06	1.246962e-09	2.751064e+01	8.259738e+01
2.800000e-06	3.911597e-06	1.251056e-09	2.773581e+01	8.294527e+01
2.810000e-06	3.943092e-06	1.254028e-09	2.795912e+01	8.327394e+01
2.820000e-06	3.974367e-06	1.256168e-09	2.818089e+01	8.358503e+01
2.830000e-06	4.005335e-06	1.258597e-09	2.840047e+01	8.388021e+01
2.840000e-06	4.036070e-06	1.261920e-09	2.861840e+01	8.416107e+01
2.850000e-06	4.066505e-06	1.266124e-09	2.883420e+01	8.442908e+01
2.860000e-06	4.096553e-06	1.270832e-09	2.904726e+01	8.468549e+01
2.870000e-06	4.126427e-06	1.274603e-09	2.925909e+01	8.493135e+01
2.880000e-06	4.156117e-06	1.275553e-09	2.946961e+01	8.516741e+01
2.890000e-06	4.185554e-06	1.274969e-09	2.967834e+01	8.539415e+01
2.900000e-06	4.214652e-06	1.275437e-09	2.988466e+01	8.561174e+01
