# Temperatura_=_-6.68
# Concentracion g/m^3_=_4090.0
# C_Vs_to_Am_M_A/Vsm_=_65563218390.804596
# pendiente_HvsI_1/m_=_3716.3
# ordenada_HvsI_A/m_=_1297.0
# frecuencia_Hz_=_135073.2173390942

Tiempo_(s)	Campo_(V.s)	Magnetizacion_(V.s)	Campo_(kA/m)	Magnetizacion_(A/m)
0.000000e+00	-5.406312e-06	-1.296224e-09	-3.838859e+01	-8.540591e+01
1.000000e-08	-5.406431e-06	-1.295663e-09	-3.838944e+01	-8.539863e+01
2.000000e-08	-5.406360e-06	-1.295691e-09	-3.838893e+01	-8.537839e+01
3.000000e-08	-5.405946e-06	-1.292183e-09	-3.838599e+01	-8.534584e+01
4.000000e-08	-5.405076e-06	-1.286872e-09	-3.837981e+01	-8.530217e+01
5.000000e-08	-5.403708e-06	-1.286096e-09	-3.837010e+01	-8.524915e+01
6.000000e-08	-5.401781e-06	-1.290002e-09	-3.835642e+01	-8.518902e+01
7.000000e-08	-5.399286e-06	-1.301730e-09	-3.833870e+01	-8.512447e+01
8.000000e-08	-5.396155e-06	-1.312634e-09	-3.831647e+01	-8.505852e+01
9.000000e-08	-5.392344e-06	-1.278719e-09	-3.828941e+01	-8.499443e+01
1.000000e-07	-5.388120e-06	-1.240818e-09	-3.825941e+01	-8.493554e+01
1.100000e-07	-5.383759e-06	-1.301976e-09	-3.822845e+01	-8.488515e+01
1.200000e-07	-5.379279e-06	-1.334628e-09	-3.819664e+01	-8.484637e+01
1.300000e-07	-5.374474e-06	-1.284765e-09	-3.816252e+01	-8.482198e+01
1.400000e-07	-5.369191e-06	-1.244359e-09	-3.812501e+01	-8.481428e+01
1.500000e-07	-5.363569e-06	-1.308901e-09	-3.808508e+01	-8.482502e+01
1.600000e-07	-5.357689e-06	-1.376237e-09	-3.804333e+01	-8.485523e+01
1.700000e-07	-5.351376e-06	-1.247084e-09	-3.799851e+01	-8.490523e+01
1.800000e-07	-5.344600e-06	-1.210657e-09	-3.795039e+01	-8.497457e+01
1.900000e-07	-5.337510e-06	-1.295079e-09	-3.790005e+01	-8.506201e+01
2.000000e-07	-5.330070e-06	-1.373256e-09	-3.784722e+01	-8.516556e+01
2.100000e-07	-5.322328e-06	-1.263288e-09	-3.779225e+01	-8.528256e+01
2.200000e-07	-5.314442e-06	-1.262940e-09	-3.773625e+01	-8.540977e+01
2.300000e-07	-5.306379e-06	-1.363994e-09	-3.767900e+01	-8.554349e+01
2.400000e-07	-5.297993e-06	-1.378054e-09	-3.761945e+01	-8.567969e+01
2.500000e-07	-5.288906e-06	-1.295918e-09	-3.755492e+01	-8.581420e+01
2.600000e-07	-5.278987e-06	-1.324830e-09	-3.748449e+01	-8.594285e+01
2.700000e-07	-5.268410e-06	-1.394828e-09	-3.740939e+01	-8.606164e+01
2.800000e-07	-5.257343e-06	-1.329362e-09	-3.733081e+01	-8.616693e+01
2.900000e-07	-5.245946e-06	-1.280527e-09	-3.724988e+01	-8.625551e+01
3.000000e-07	-5.234229e-06	-1.343182e-09	-3.716668e+01	-8.632481e+01
3.100000e-07	-5.222018e-06	-1.360886e-09	-3.707997e+01	-8.637292e+01
3.200000e-07	-5.209283e-06	-1.271664e-09	-3.698955e+01	-8.639871e+01
3.300000e-07	-5.196298e-06	-1.307456e-09	-3.689735e+01	-8.640181e+01
3.400000e-07	-5.183038e-06	-1.361856e-09	-3.680319e+01	-8.638263e+01
3.500000e-07	-5.169364e-06	-1.333594e-09	-3.670609e+01	-8.634230e+01
3.600000e-07	-5.155265e-06	-1.292503e-09	-3.660598e+01	-8.628263e+01
3.700000e-07	-5.140730e-06	-1.342466e-09	-3.650277e+01	-8.620595e+01
3.800000e-07	-5.125547e-06	-1.314356e-09	-3.639496e+01	-8.611504e+01
3.900000e-07	-5.109740e-06	-1.286844e-09	-3.628272e+01	-8.601295e+01
4.000000e-07	-5.093404e-06	-1.309412e-09	-3.616673e+01	-8.590285e+01
4.100000e-07	-5.076674e-06	-1.326725e-09	-3.604793e+01	-8.578791e+01
4.200000e-07	-5.059699e-06	-1.277828e-09	-3.592740e+01	-8.567111e+01
4.300000e-07	-5.042407e-06	-1.311922e-09	-3.580461e+01	-8.555513e+01
4.400000e-07	-5.024794e-06	-1.345210e-09	-3.567955e+01	-8.544222e+01
4.500000e-07	-5.006829e-06	-1.314121e-09	-3.555198e+01	-8.533411e+01
4.600000e-07	-4.988665e-06	-1.279741e-09	-3.542300e+01	-8.523198e+01
4.700000e-07	-4.970196e-06	-1.306285e-09	-3.529186e+01	-8.513638e+01
4.800000e-07	-4.951223e-06	-1.297836e-09	-3.515714e+01	-8.504725e+01
4.900000e-07	-4.931897e-06	-1.285122e-09	-3.501991e+01	-8.496397e+01
5.000000e-07	-4.912282e-06	-1.287850e-09	-3.488063e+01	-8.488540e+01
5.100000e-07	-4.892424e-06	-1.290920e-09	-3.473963e+01	-8.481000e+01
5.200000e-07	-4.872386e-06	-1.297229e-09	-3.459734e+01	-8.473589e+01
5.300000e-07	-4.852125e-06	-1.312973e-09	-3.445347e+01	-8.466099e+01
5.400000e-07	-4.831609e-06	-1.296980e-09	-3.430780e+01	-8.458317e+01
5.500000e-07	-4.810749e-06	-1.275910e-09	-3.415968e+01	-8.450036e+01
5.600000e-07	-4.789469e-06	-1.289379e-09	-3.400857e+01	-8.441065e+01
5.700000e-07	-4.767799e-06	-1.290675e-09	-3.385470e+01	-8.431244e+01
5.800000e-07	-4.745831e-06	-1.270181e-09	-3.369871e+01	-8.420451e+01
5.900000e-07	-4.723654e-06	-1.262537e-09	-3.354124e+01	-8.408607e+01
6.000000e-07	-4.701144e-06	-1.274755e-09	-3.338140e+01	-8.395682e+01
6.100000e-07	-4.678179e-06	-1.279658e-09	-3.321833e+01	-8.381696e+01
6.200000e-07	-4.654877e-06	-1.287399e-09	-3.305288e+01	-8.366717e+01
6.300000e-07	-4.631341e-06	-1.274085e-09	-3.288575e+01	-8.350856e+01
6.400000e-07	-4.607552e-06	-1.270651e-09	-3.271684e+01	-8.334261e+01
6.500000e-07	-4.583557e-06	-1.280781e-09	-3.254645e+01	-8.317107e+01
6.600000e-07	-4.559320e-06	-1.285793e-09	-3.237435e+01	-8.299589e+01
6.700000e-07	-4.534767e-06	-1.260775e-09	-3.220001e+01	-8.281906e+01
6.800000e-07	-4.509874e-06	-1.257176e-09	-3.202326e+01	-8.264255e+01
6.900000e-07	-4.484478e-06	-1.261741e-09	-3.184293e+01	-8.246815e+01
7.000000e-07	-4.458530e-06	-1.266015e-09	-3.165868e+01	-8.229741e+01
7.100000e-07	-4.432160e-06	-1.254406e-09	-3.147143e+01	-8.213153e+01
7.200000e-07	-4.405342e-06	-1.254403e-09	-3.128100e+01	-8.197129e+01
7.300000e-07	-4.377977e-06	-1.257584e-09	-3.108670e+01	-8.181704e+01
7.400000e-07	-4.350271e-06	-1.267995e-09	-3.088996e+01	-8.166864e+01
7.500000e-07	-4.322423e-06	-1.258482e-09	-3.069222e+01	-8.152551e+01
7.600000e-07	-4.294486e-06	-1.245395e-09	-3.049385e+01	-8.138661e+01
7.700000e-07	-4.266354e-06	-1.240461e-09	-3.029409e+01	-8.125057e+01
7.800000e-07	-4.237954e-06	-1.245346e-09	-3.009244e+01	-8.111568e+01
7.900000e-07	-4.209315e-06	-1.237550e-09	-2.988908e+01	-8.098005e+01
8.000000e-07	-4.180285e-06	-1.229962e-09	-2.968294e+01	-8.084167e+01
8.100000e-07	-4.150851e-06	-1.229679e-09	-2.947394e+01	-8.069854e+01
8.200000e-07	-4.121194e-06	-1.235171e-09	-2.926335e+01	-8.054876e+01
8.300000e-07	-4.091330e-06	-1.235181e-09	-2.905130e+01	-8.039062e+01
8.400000e-07	-4.061215e-06	-1.229007e-09	-2.883746e+01	-8.022271e+01
8.500000e-07	-4.030840e-06	-1.224373e-09	-2.862178e+01	-8.004396e+01
8.600000e-07	-4.000149e-06	-1.225999e-09	-2.840385e+01	-7.985371e+01
8.700000e-07	-3.969118e-06	-1.227567e-09	-2.818351e+01	-7.965174e+01
8.800000e-07	-3.937843e-06	-1.218826e-09	-2.796144e+01	-7.943825e+01
8.900000e-07	-3.906345e-06	-1.211026e-09	-2.773778e+01	-7.921385e+01
9.000000e-07	-3.874652e-06	-1.206369e-09	-2.751273e+01	-7.897955e+01
9.100000e-07	-3.842853e-06	-1.206979e-09	-2.728694e+01	-7.873665e+01
9.200000e-07	-3.810856e-06	-1.201975e-09	-2.705974e+01	-7.848670e+01
9.300000e-07	-3.778513e-06	-1.200430e-09	-2.683008e+01	-7.823139e+01
9.400000e-07	-3.745887e-06	-1.200381e-09	-2.659842e+01	-7.797251e+01
9.500000e-07	-3.713011e-06	-1.203381e-09	-2.636497e+01	-7.771176e+01
9.600000e-07	-3.679840e-06	-1.196608e-09	-2.612944e+01	-7.745078e+01
9.700000e-07	-3.646266e-06	-1.186060e-09	-2.589104e+01	-7.719095e+01
9.800000e-07	-3.612268e-06	-1.173642e-09	-2.564962e+01	-7.693342e+01
9.900000e-07	-3.577895e-06	-1.169536e-09	-2.540555e+01	-7.667900e+01
1.000000e-06	-3.542996e-06	-1.165435e-09	-2.515774e+01	-7.642815e+01
1.010000e-06	-3.507719e-06	-1.165653e-09	-2.490726e+01	-7.618095e+01
1.020000e-06	-3.472234e-06	-1.164455e-09	-2.465529e+01	-7.593712e+01
1.030000e-06	-3.436531e-06	-1.164895e-09	-2.440177e+01	-7.569604e+01
1.040000e-06	-3.400640e-06	-1.160771e-09	-2.414692e+01	-7.545680e+01
1.050000e-06	-3.364618e-06	-1.155596e-09	-2.389114e+01	-7.521824e+01
1.060000e-06	-3.328483e-06	-1.147052e-09	-2.363456e+01	-7.497903e+01
1.070000e-06	-3.292137e-06	-1.140426e-09	-2.337647e+01	-7.473773e+01
1.080000e-06	-3.255595e-06	-1.134771e-09	-2.311700e+01	-7.449289e+01
1.090000e-06	-3.218852e-06	-1.133889e-09	-2.285610e+01	-7.424312e+01
1.100000e-06	-3.181826e-06	-1.135458e-09	-2.259319e+01	-7.398713e+01
1.110000e-06	-3.144505e-06	-1.137622e-09	-2.232818e+01	-7.372383e+01
1.120000e-06	-3.107079e-06	-1.136294e-09	-2.206243e+01	-7.345234e+01
1.130000e-06	-3.069541e-06	-1.130801e-09	-2.179588e+01	-7.317208e+01
1.140000e-06	-3.031709e-06	-1.122885e-09	-2.152725e+01	-7.288270e+01
1.150000e-06	-2.993637e-06	-1.114575e-09	-2.125691e+01	-7.258419e+01
1.160000e-06	-2.955401e-06	-1.107438e-09	-2.098541e+01	-7.227677e+01
1.170000e-06	-2.916973e-06	-1.101309e-09	-2.071255e+01	-7.196092e+01
1.180000e-06	-2.878282e-06	-1.097104e-09	-2.043781e+01	-7.163732e+01
1.190000e-06	-2.839416e-06	-1.095278e-09	-2.016183e+01	-7.130682e+01
1.200000e-06	-2.800323e-06	-1.097576e-09	-1.988425e+01	-7.097035e+01
1.210000e-06	-2.760973e-06	-1.097287e-09	-1.960484e+01	-7.062890e+01
1.220000e-06	-2.721474e-06	-1.094504e-09	-1.932436e+01	-7.028346e+01
1.230000e-06	-2.681826e-06	-1.086265e-09	-1.904283e+01	-6.993493e+01
1.240000e-06	-2.642045e-06	-1.076179e-09	-1.876036e+01	-6.958413e+01
1.250000e-06	-2.602187e-06	-1.065966e-09	-1.847734e+01	-6.923173e+01
1.260000e-06	-2.562238e-06	-1.058319e-09	-1.819368e+01	-6.887823e+01
1.270000e-06	-2.522140e-06	-1.051050e-09	-1.790896e+01	-6.852396e+01
1.280000e-06	-2.481935e-06	-1.049018e-09	-1.762347e+01	-6.816906e+01
1.290000e-06	-2.441660e-06	-1.047445e-09	-1.733749e+01	-6.781350e+01
1.300000e-06	-2.401207e-06	-1.046137e-09	-1.705024e+01	-6.745709e+01
1.310000e-06	-2.360503e-06	-1.040648e-09	-1.676122e+01	-6.709953e+01
1.320000e-06	-2.319598e-06	-1.035815e-09	-1.647077e+01	-6.674041e+01
1.330000e-06	-2.278473e-06	-1.028833e-09	-1.617875e+01	-6.637927e+01
1.340000e-06	-2.237123e-06	-1.021364e-09	-1.588513e+01	-6.601562e+01
1.350000e-06	-2.195572e-06	-1.014411e-09	-1.559009e+01	-6.564899e+01
1.360000e-06	-2.153746e-06	-1.008365e-09	-1.529310e+01	-6.527897e+01
1.370000e-06	-2.111629e-06	-1.002123e-09	-1.499404e+01	-6.490517e+01
1.380000e-06	-2.069241e-06	-9.963084e-10	-1.469306e+01	-6.452732e+01
1.390000e-06	-2.026531e-06	-9.909957e-10	-1.438978e+01	-6.414522e+01
1.400000e-06	-1.983543e-06	-9.877394e-10	-1.408454e+01	-6.375878e+01
1.410000e-06	-1.940316e-06	-9.833665e-10	-1.377760e+01	-6.336796e+01
1.420000e-06	-1.896915e-06	-9.768698e-10	-1.346942e+01	-6.297279e+01
1.430000e-06	-1.853441e-06	-9.692906e-10	-1.316072e+01	-6.257334e+01
1.440000e-06	-1.809899e-06	-9.624387e-10	-1.285154e+01	-6.216970e+01
1.450000e-06	-1.766228e-06	-9.549643e-10	-1.254145e+01	-6.176192e+01
1.460000e-06	-1.722421e-06	-9.468310e-10	-1.223039e+01	-6.135002e+01
1.470000e-06	-1.678514e-06	-9.414537e-10	-1.191862e+01	-6.093394e+01
1.480000e-06	-1.634563e-06	-9.394025e-10	-1.160654e+01	-6.051354e+01
1.490000e-06	-1.590564e-06	-9.380321e-10	-1.129411e+01	-6.008856e+01
1.500000e-06	-1.546433e-06	-9.325302e-10	-1.098076e+01	-5.965863e+01
1.510000e-06	-1.502226e-06	-9.240207e-10	-1.066685e+01	-5.922328e+01
1.520000e-06	-1.457976e-06	-9.148062e-10	-1.035265e+01	-5.878195e+01
1.530000e-06	-1.413753e-06	-9.054342e-10	-1.003863e+01	-5.833397e+01
1.540000e-06	-1.369521e-06	-8.936699e-10	-9.724554e+00	-5.787865e+01
1.550000e-06	-1.325139e-06	-8.823438e-10	-9.409410e+00	-5.741528e+01
1.560000e-06	-1.280615e-06	-8.746644e-10	-9.093259e+00	-5.694315e+01
1.570000e-06	-1.235993e-06	-8.737821e-10	-8.776417e+00	-5.646161e+01
1.580000e-06	-1.191326e-06	-8.704274e-10	-8.459247e+00	-5.597011e+01
1.590000e-06	-1.146551e-06	-8.629400e-10	-8.141314e+00	-5.546823e+01
1.600000e-06	-1.101624e-06	-8.535506e-10	-7.822301e+00	-5.495567e+01
1.610000e-06	-1.056667e-06	-8.442957e-10	-7.503073e+00	-5.443234e+01
1.620000e-06	-1.011625e-06	-8.333236e-10	-7.183243e+00	-5.389830e+01
1.630000e-06	-9.664745e-07	-8.230324e-10	-6.862644e+00	-5.335379e+01
1.640000e-06	-9.213601e-07	-8.143042e-10	-6.542300e+00	-5.279924e+01
1.650000e-06	-8.762221e-07	-8.074376e-10	-6.221789e+00	-5.223521e+01
1.660000e-06	-8.310172e-07	-7.993129e-10	-5.900802e+00	-5.166239e+01
1.670000e-06	-7.857240e-07	-7.937256e-10	-5.579189e+00	-5.108152e+01
1.680000e-06	-7.402763e-07	-7.870164e-10	-5.256478e+00	-5.049341e+01
1.690000e-06	-6.946623e-07	-7.767798e-10	-4.932587e+00	-4.989884e+01
1.700000e-06	-6.490229e-07	-7.658622e-10	-4.608515e+00	-4.929852e+01
1.710000e-06	-6.034648e-07	-7.560097e-10	-4.285022e+00	-4.869306e+01
1.720000e-06	-5.578147e-07	-7.472467e-10	-3.960874e+00	-4.808292e+01
1.730000e-06	-5.120466e-07	-7.391397e-10	-3.635888e+00	-4.746838e+01
1.740000e-06	-4.662621e-07	-7.308495e-10	-3.310786e+00	-4.684950e+01
1.750000e-06	-4.205226e-07	-7.213197e-10	-2.986004e+00	-4.622613e+01
1.760000e-06	-3.747898e-07	-7.115958e-10	-2.661269e+00	-4.559787e+01
1.770000e-06	-3.289613e-07	-6.994858e-10	-2.335855e+00	-4.496412e+01
1.780000e-06	-2.831515e-07	-6.865679e-10	-2.010573e+00	-4.432409e+01
1.790000e-06	-2.373608e-07	-6.741470e-10	-1.685428e+00	-4.367679e+01
1.800000e-06	-1.915946e-07	-6.646796e-10	-1.360456e+00	-4.302115e+01
1.810000e-06	-1.458585e-07	-6.551773e-10	-1.035697e+00	-4.235599e+01
1.820000e-06	-1.000199e-07	-6.461718e-10	-7.102112e-01	-4.168012e+01
1.830000e-06	-5.412646e-08	-6.377203e-10	-3.843357e-01	-4.099238e+01
1.840000e-06	-8.297170e-09	-6.314538e-10	-5.891570e-02	-4.029168e+01
1.850000e-06	3.747648e-08	-6.252566e-10	2.661092e-01	-3.957707e+01
1.860000e-06	8.326827e-08	-6.145635e-10	5.912628e-01	-3.884775e+01
1.870000e-06	1.290683e-07	-5.995212e-10	9.164750e-01	-3.810314e+01
1.880000e-06	1.748771e-07	-5.864806e-10	1.241750e+00	-3.734286e+01
1.890000e-06	2.207440e-07	-5.747640e-10	1.567437e+00	-3.656679e+01
1.900000e-06	2.666213e-07	-5.614191e-10	1.893198e+00	-3.577500e+01
1.910000e-06	3.123861e-07	-5.488323e-10	2.218159e+00	-3.496779e+01
1.920000e-06	3.580325e-07	-5.388005e-10	2.542281e+00	-3.414564e+01
1.930000e-06	4.036724e-07	-5.295609e-10	2.866356e+00	-3.330921e+01
1.940000e-06	4.493855e-07	-5.184432e-10	3.190951e+00	-3.245921e+01
1.950000e-06	4.951215e-07	-5.031538e-10	3.515709e+00	-3.159646e+01
1.960000e-06	5.407971e-07	-4.887200e-10	3.840037e+00	-3.072177e+01
1.970000e-06	5.864257e-07	-4.757518e-10	4.164032e+00	-2.983592e+01
1.980000e-06	6.320466e-07	-4.592296e-10	4.487972e+00	-2.893960e+01
1.990000e-06	6.775207e-07	-4.402396e-10	4.810870e+00	-2.803340e+01
2.000000e-06	7.228074e-07	-4.232409e-10	5.132437e+00	-2.711774e+01
2.010000e-06	7.681224e-07	-4.107742e-10	5.454205e+00	-2.619289e+01
2.020000e-06	8.134815e-07	-3.982117e-10	5.776287e+00	-2.525894e+01
2.030000e-06	8.587599e-07	-3.836617e-10	6.097795e+00	-2.431580e+01
2.040000e-06	9.039062e-07	-3.679771e-10	6.418365e+00	-2.336323e+01
2.050000e-06	9.489819e-07	-3.543089e-10	6.738434e+00	-2.240085e+01
2.060000e-06	9.939863e-07	-3.376000e-10	7.057997e+00	-2.142819e+01
2.070000e-06	1.038897e-06	-3.172205e-10	7.376894e+00	-2.044470e+01
2.080000e-06	1.083733e-06	-2.978240e-10	7.695263e+00	-1.944984e+01
2.090000e-06	1.128465e-06	-2.799911e-10	8.012890e+00	-1.844310e+01
2.100000e-06	1.173132e-06	-2.643580e-10	8.330056e+00	-1.742401e+01
2.110000e-06	1.217761e-06	-2.469281e-10	8.646956e+00	-1.639227e+01
2.120000e-06	1.262269e-06	-2.301377e-10	8.962993e+00	-1.534770e+01
2.130000e-06	1.306661e-06	-2.172907e-10	9.278207e+00	-1.429031e+01
2.140000e-06	1.350983e-06	-2.050202e-10	9.592923e+00	-1.322030e+01
2.150000e-06	1.395217e-06	-1.889283e-10	9.907014e+00	-1.213808e+01
2.160000e-06	1.439416e-06	-1.688651e-10	1.022086e+01	-1.104426e+01
2.170000e-06	1.483571e-06	-1.464003e-10	1.053439e+01	-9.939634e+00
2.180000e-06	1.527653e-06	-1.271298e-10	1.084740e+01	-8.825134e+00
2.190000e-06	1.571695e-06	-1.131357e-10	1.116013e+01	-7.701828e+00
2.200000e-06	1.615693e-06	-9.705353e-11	1.147255e+01	-6.570859e+00
2.210000e-06	1.659645e-06	-8.003485e-11	1.178464e+01	-5.433401e+00
2.220000e-06	1.703548e-06	-6.547182e-11	1.209638e+01	-4.290614e+00
2.230000e-06	1.747380e-06	-4.920155e-11	1.240761e+01	-3.143596e+00
2.240000e-06	1.791112e-06	-2.633019e-11	1.271814e+01	-1.993338e+00
2.250000e-06	1.834742e-06	-1.719552e-12	1.302795e+01	-8.406908e-01
2.260000e-06	1.878268e-06	1.922309e-11	1.333701e+01	3.136695e-01
2.270000e-06	1.921627e-06	3.693710e-11	1.364489e+01	1.469258e+00
2.280000e-06	1.964827e-06	5.546935e-11	1.395164e+01	2.625791e+00
2.290000e-06	2.007833e-06	7.640893e-11	1.425702e+01	3.783185e+00
2.300000e-06	2.050547e-06	9.529735e-11	1.456031e+01	4.941543e+00
2.310000e-06	2.092972e-06	1.103733e-10	1.486156e+01	6.101133e+00
2.320000e-06	2.135127e-06	1.269675e-10	1.516089e+01	7.262354e+00
2.330000e-06	2.177137e-06	1.468625e-10	1.545919e+01	8.425698e+00
2.340000e-06	2.218933e-06	1.666061e-10	1.575598e+01	9.591708e+00
2.350000e-06	2.260353e-06	1.839139e-10	1.605008e+01	1.076093e+01
2.360000e-06	2.301464e-06	2.018288e-10	1.634200e+01	1.193386e+01
2.370000e-06	2.342304e-06	2.236126e-10	1.663200e+01	1.311091e+01
2.380000e-06	2.382869e-06	2.451818e-10	1.692004e+01	1.429237e+01
2.390000e-06	2.423222e-06	2.605832e-10	1.720657e+01	1.547835e+01
2.400000e-06	2.463481e-06	2.710952e-10	1.749244e+01	1.666880e+01
2.410000e-06	2.503681e-06	2.841364e-10	1.777789e+01	1.786345e+01
2.420000e-06	2.543756e-06	3.054002e-10	1.806244e+01	1.906182e+01
2.430000e-06	2.583758e-06	3.311333e-10	1.834649e+01	2.026324e+01
2.440000e-06	2.623687e-06	3.542571e-10	1.863001e+01	2.146684e+01
2.450000e-06	2.663475e-06	3.748266e-10	1.891253e+01	2.267159e+01
2.460000e-06	2.703123e-06	3.972128e-10	1.919406e+01	2.387632e+01
2.470000e-06	2.742522e-06	4.158451e-10	1.947382e+01	2.507978e+01
2.480000e-06	2.781727e-06	4.269457e-10	1.975220e+01	2.628062e+01
2.490000e-06	2.820763e-06	4.373676e-10	2.002939e+01	2.747750e+01
2.500000e-06	2.859643e-06	4.564042e-10	2.030546e+01	2.866909e+01
2.510000e-06	2.898337e-06	4.823301e-10	2.058022e+01	2.985411e+01
2.520000e-06	2.936763e-06	5.075605e-10	2.085306e+01	3.103139e+01
2.530000e-06	2.975019e-06	5.322561e-10	2.112472e+01	3.219985e+01
2.540000e-06	3.013105e-06	5.554974e-10	2.139515e+01	3.335857e+01
2.550000e-06	3.050970e-06	5.727055e-10	2.166402e+01	3.450677e+01
2.560000e-06	3.088593e-06	5.815423e-10	2.193117e+01	3.564381e+01
2.570000e-06	3.126064e-06	5.882282e-10	2.219724e+01	3.676922e+01
2.580000e-06	3.163413e-06	6.005931e-10	2.246244e+01	3.788266e+01
2.590000e-06	3.200463e-06	6.189362e-10	2.272552e+01	3.898393e+01
2.600000e-06	3.237202e-06	6.402148e-10	2.298640e+01	4.007290e+01
2.610000e-06	3.273735e-06	6.635966e-10	2.324581e+01	4.114954e+01
2.620000e-06	3.310086e-06	6.861634e-10	2.350392e+01	4.221387e+01
2.630000e-06	3.346238e-06	7.050628e-10	2.376063e+01	4.326592e+01
2.640000e-06	3.382238e-06	7.190546e-10	2.401625e+01	4.430573e+01
2.650000e-06	3.418144e-06	7.290793e-10	2.427121e+01	4.533330e+01
2.660000e-06	3.453947e-06	7.369839e-10	2.452543e+01	4.634859e+01
2.670000e-06	3.489590e-06	7.454234e-10	2.477853e+01	4.735149e+01
2.680000e-06	3.524954e-06	7.558199e-10	2.502963e+01	4.834182e+01
2.690000e-06	3.559988e-06	7.706938e-10	2.527840e+01	4.931934e+01
2.700000e-06	3.594651e-06	7.927236e-10	2.552453e+01	5.028369e+01
2.710000e-06	3.628855e-06	8.195342e-10	2.576740e+01	5.123448e+01
2.720000e-06	3.662579e-06	8.421374e-10	2.600687e+01	5.217123e+01
2.730000e-06	3.695916e-06	8.585061e-10	2.624358e+01	5.309343e+01
2.740000e-06	3.728863e-06	8.701886e-10	2.647753e+01	5.400051e+01
2.750000e-06	3.761472e-06	8.796165e-10	2.670908e+01	5.489191e+01
2.760000e-06	3.793836e-06	8.869144e-10	2.693888e+01	5.576706e+01
2.770000e-06	3.825947e-06	8.917011e-10	2.716690e+01	5.662543e+01
2.780000e-06	3.857928e-06	9.010900e-10	2.739398e+01	5.746651e+01
2.790000e-06	3.889783e-06	9.181118e-10	2.762018e+01	5.828985e+01
2.800000e-06	3.921441e-06	9.363363e-10	2.784497e+01	5.909508e+01
2.810000e-06	3.952821e-06	9.494317e-10	2.806779e+01	5.988191e+01
2.820000e-06	3.983941e-06	9.612465e-10	2.828877e+01	6.065013e+01
2.830000e-06	4.014896e-06	9.747713e-10	2.850857e+01	6.139963e+01
2.840000e-06	4.045521e-06	9.844514e-10	2.872602e+01	6.213040e+01
2.850000e-06	4.075763e-06	9.885868e-10	2.894076e+01	6.284250e+01
2.860000e-06	4.105719e-06	9.925180e-10	2.915347e+01	6.353612e+01
2.870000e-06	4.135406e-06	1.001930e-09	2.936427e+01	6.421151e+01
2.880000e-06	4.164915e-06	1.015589e-09	2.957381e+01	6.486902e+01
2.890000e-06	4.194182e-06	1.026423e-09	2.978162e+01	6.550905e+01
