# Temperatura_=_0.2
# Concentracion g/m^3_=_4090.0
# C_Vs_to_Am_M_A/Vsm_=_65563218390.804596
# pendiente_HvsI_1/m_=_3716.3
# ordenada_HvsI_A/m_=_1297.0
# frecuencia_Hz_=_135081.5847888202

Tiempo_(s)	Campo_(V.s)	Magnetizacion_(V.s)	Campo_(kA/m)	Magnetizacion_(A/m)
0.000000e+00	-5.410627e-06	-1.785767e-09	-3.839037e+01	-1.184873e+02
1.000000e-08	-5.410574e-06	-1.769580e-09	-3.839000e+01	-1.183197e+02
2.000000e-08	-5.410308e-06	-1.754559e-09	-3.838811e+01	-1.181310e+02
3.000000e-08	-5.409809e-06	-1.749443e-09	-3.838457e+01	-1.179229e+02
4.000000e-08	-5.408834e-06	-1.757824e-09	-3.837765e+01	-1.176988e+02
5.000000e-08	-5.407256e-06	-1.775701e-09	-3.836646e+01	-1.174628e+02
6.000000e-08	-5.405018e-06	-1.794677e-09	-3.835057e+01	-1.172203e+02
7.000000e-08	-5.402140e-06	-1.788702e-09	-3.833015e+01	-1.169776e+02
8.000000e-08	-5.398801e-06	-1.738188e-09	-3.830647e+01	-1.167414e+02
9.000000e-08	-5.395029e-06	-1.715868e-09	-3.827970e+01	-1.165191e+02
1.000000e-07	-5.390907e-06	-1.787618e-09	-3.825046e+01	-1.163179e+02
1.100000e-07	-5.386597e-06	-1.837852e-09	-3.821987e+01	-1.161449e+02
1.200000e-07	-5.382053e-06	-1.731518e-09	-3.818763e+01	-1.160068e+02
1.300000e-07	-5.377192e-06	-1.682389e-09	-3.815314e+01	-1.159093e+02
1.400000e-07	-5.371958e-06	-1.808248e-09	-3.811601e+01	-1.158570e+02
1.500000e-07	-5.366309e-06	-1.888606e-09	-3.807592e+01	-1.158533e+02
1.600000e-07	-5.360253e-06	-1.745750e-09	-3.803295e+01	-1.158999e+02
1.700000e-07	-5.353818e-06	-1.614676e-09	-3.798729e+01	-1.159971e+02
1.800000e-07	-5.346962e-06	-1.762838e-09	-3.793865e+01	-1.161433e+02
1.900000e-07	-5.339712e-06	-1.849869e-09	-3.788720e+01	-1.163354e+02
2.000000e-07	-5.332238e-06	-1.776074e-09	-3.783417e+01	-1.165687e+02
2.100000e-07	-5.324561e-06	-1.707404e-09	-3.777970e+01	-1.168369e+02
2.200000e-07	-5.316619e-06	-1.836716e-09	-3.772335e+01	-1.171328e+02
2.300000e-07	-5.308417e-06	-1.866708e-09	-3.766516e+01	-1.174480e+02
2.400000e-07	-5.299808e-06	-1.799841e-09	-3.760407e+01	-1.177737e+02
2.500000e-07	-5.290491e-06	-1.817630e-09	-3.753796e+01	-1.181005e+02
2.600000e-07	-5.280533e-06	-1.910859e-09	-3.746731e+01	-1.184193e+02
2.700000e-07	-5.269945e-06	-1.864946e-09	-3.739218e+01	-1.187212e+02
2.800000e-07	-5.258777e-06	-1.789949e-09	-3.731294e+01	-1.189983e+02
2.900000e-07	-5.247254e-06	-1.856403e-09	-3.723118e+01	-1.192433e+02
3.000000e-07	-5.235388e-06	-1.880627e-09	-3.714699e+01	-1.194504e+02
3.100000e-07	-5.223130e-06	-1.792049e-09	-3.706002e+01	-1.196150e+02
3.200000e-07	-5.210446e-06	-1.785549e-09	-3.697002e+01	-1.197342e+02
3.300000e-07	-5.197430e-06	-1.890195e-09	-3.687766e+01	-1.198066e+02
3.400000e-07	-5.184061e-06	-1.860294e-09	-3.678281e+01	-1.198324e+02
3.500000e-07	-5.170312e-06	-1.806500e-09	-3.668525e+01	-1.198131e+02
3.600000e-07	-5.156109e-06	-1.835653e-09	-3.658447e+01	-1.197517e+02
3.700000e-07	-5.141367e-06	-1.855223e-09	-3.647988e+01	-1.196524e+02
3.800000e-07	-5.126039e-06	-1.789043e-09	-3.637112e+01	-1.195200e+02
3.900000e-07	-5.110034e-06	-1.802734e-09	-3.625756e+01	-1.193603e+02
4.000000e-07	-5.093492e-06	-1.820139e-09	-3.614019e+01	-1.191790e+02
4.100000e-07	-5.076580e-06	-1.795698e-09	-3.602019e+01	-1.189823e+02
4.200000e-07	-5.059503e-06	-1.799200e-09	-3.589902e+01	-1.187758e+02
4.300000e-07	-5.042284e-06	-1.857873e-09	-3.577684e+01	-1.185649e+02
4.400000e-07	-5.024720e-06	-1.823792e-09	-3.565223e+01	-1.183540e+02
4.500000e-07	-5.006831e-06	-1.785870e-09	-3.552529e+01	-1.181468e+02
4.600000e-07	-4.988567e-06	-1.803683e-09	-3.539570e+01	-1.179462e+02
4.700000e-07	-4.969902e-06	-1.814331e-09	-3.526327e+01	-1.177538e+02
4.800000e-07	-4.950774e-06	-1.768755e-09	-3.512755e+01	-1.175701e+02
4.900000e-07	-4.931228e-06	-1.766383e-09	-3.498886e+01	-1.173949e+02
5.000000e-07	-4.911501e-06	-1.778234e-09	-3.484889e+01	-1.172267e+02
5.100000e-07	-4.891626e-06	-1.786714e-09	-3.470787e+01	-1.170636e+02
5.200000e-07	-4.871500e-06	-1.793902e-09	-3.456507e+01	-1.169029e+02
5.300000e-07	-4.851122e-06	-1.790997e-09	-3.442048e+01	-1.167417e+02
5.400000e-07	-4.830462e-06	-1.769746e-09	-3.427389e+01	-1.165766e+02
5.500000e-07	-4.809357e-06	-1.780735e-09	-3.412414e+01	-1.164046e+02
5.600000e-07	-4.787845e-06	-1.790991e-09	-3.397151e+01	-1.162228e+02
5.700000e-07	-4.766076e-06	-1.761361e-09	-3.381705e+01	-1.160286e+02
5.800000e-07	-4.743995e-06	-1.742500e-09	-3.366038e+01	-1.158202e+02
5.900000e-07	-4.721538e-06	-1.759309e-09	-3.350104e+01	-1.155963e+02
6.000000e-07	-4.698845e-06	-1.769864e-09	-3.334002e+01	-1.153565e+02
6.100000e-07	-4.675915e-06	-1.762149e-09	-3.317732e+01	-1.151010e+02
6.200000e-07	-4.652553e-06	-1.760919e-09	-3.301156e+01	-1.148310e+02
6.300000e-07	-4.628847e-06	-1.757356e-09	-3.284336e+01	-1.145482e+02
6.400000e-07	-4.604964e-06	-1.765927e-09	-3.267390e+01	-1.142549e+02
6.500000e-07	-4.580898e-06	-1.765919e-09	-3.250315e+01	-1.139540e+02
6.600000e-07	-4.556586e-06	-1.746396e-09	-3.233064e+01	-1.136487e+02
6.700000e-07	-4.531897e-06	-1.724399e-09	-3.215547e+01	-1.133422e+02
6.800000e-07	-4.506775e-06	-1.733440e-09	-3.197721e+01	-1.130379e+02
6.900000e-07	-4.481169e-06	-1.732620e-09	-3.179553e+01	-1.127387e+02
7.000000e-07	-4.454983e-06	-1.721305e-09	-3.160973e+01	-1.124475e+02
7.100000e-07	-4.428310e-06	-1.713185e-09	-3.142047e+01	-1.121666e+02
7.200000e-07	-4.401263e-06	-1.727656e-09	-3.122857e+01	-1.118977e+02
7.300000e-07	-4.373834e-06	-1.733193e-09	-3.103395e+01	-1.116418e+02
7.400000e-07	-4.346129e-06	-1.729438e-09	-3.083737e+01	-1.113993e+02
7.500000e-07	-4.318289e-06	-1.712083e-09	-3.063984e+01	-1.111699e+02
7.600000e-07	-4.290271e-06	-1.708396e-09	-3.044104e+01	-1.109528e+02
7.700000e-07	-4.261924e-06	-1.708668e-09	-3.023991e+01	-1.107464e+02
7.800000e-07	-4.233304e-06	-1.704900e-09	-3.003684e+01	-1.105486e+02
7.900000e-07	-4.204473e-06	-1.690935e-09	-2.983227e+01	-1.103573e+02
8.000000e-07	-4.175340e-06	-1.691074e-09	-2.962556e+01	-1.101698e+02
8.100000e-07	-4.145916e-06	-1.697744e-09	-2.941678e+01	-1.099833e+02
8.200000e-07	-4.116199e-06	-1.700084e-09	-2.920593e+01	-1.097953e+02
8.300000e-07	-4.086205e-06	-1.689927e-09	-2.899312e+01	-1.096032e+02
8.400000e-07	-4.055866e-06	-1.679348e-09	-2.877785e+01	-1.094049e+02
8.500000e-07	-4.025184e-06	-1.674701e-09	-2.856015e+01	-1.091984e+02
8.600000e-07	-3.994317e-06	-1.674239e-09	-2.834113e+01	-1.089822e+02
8.700000e-07	-3.963360e-06	-1.667633e-09	-2.812148e+01	-1.087555e+02
8.800000e-07	-3.932168e-06	-1.655813e-09	-2.790017e+01	-1.085177e+02
8.900000e-07	-3.900662e-06	-1.653445e-09	-2.767662e+01	-1.082687e+02
9.000000e-07	-3.868926e-06	-1.656613e-09	-2.745144e+01	-1.080089e+02
9.100000e-07	-3.837030e-06	-1.654499e-09	-2.722513e+01	-1.077391e+02
9.200000e-07	-3.804974e-06	-1.645070e-09	-2.699768e+01	-1.074603e+02
9.300000e-07	-3.772648e-06	-1.644709e-09	-2.676831e+01	-1.071738e+02
9.400000e-07	-3.740092e-06	-1.649592e-09	-2.653732e+01	-1.068808e+02
9.500000e-07	-3.707297e-06	-1.650882e-09	-2.630462e+01	-1.065829e+02
9.600000e-07	-3.674071e-06	-1.638547e-09	-2.606888e+01	-1.062813e+02
9.700000e-07	-3.640306e-06	-1.623238e-09	-2.582930e+01	-1.059772e+02
9.800000e-07	-3.606080e-06	-1.612037e-09	-2.558645e+01	-1.056717e+02
9.900000e-07	-3.571395e-06	-1.607878e-09	-2.534035e+01	-1.053654e+02
1.000000e-06	-3.536321e-06	-1.601669e-09	-2.509149e+01	-1.050589e+02
1.010000e-06	-3.500915e-06	-1.601202e-09	-2.484027e+01	-1.047524e+02
1.020000e-06	-3.465248e-06	-1.603856e-09	-2.458720e+01	-1.044459e+02
1.030000e-06	-3.429453e-06	-1.606961e-09	-2.433322e+01	-1.041392e+02
1.040000e-06	-3.393584e-06	-1.599282e-09	-2.407871e+01	-1.038318e+02
1.050000e-06	-3.357594e-06	-1.586629e-09	-2.382336e+01	-1.035232e+02
1.060000e-06	-3.321426e-06	-1.572041e-09	-2.356673e+01	-1.032128e+02
1.070000e-06	-3.285076e-06	-1.563644e-09	-2.330881e+01	-1.028999e+02
1.080000e-06	-3.248459e-06	-1.558487e-09	-2.304900e+01	-1.025840e+02
1.090000e-06	-3.211587e-06	-1.557088e-09	-2.278738e+01	-1.022646e+02
1.100000e-06	-3.174515e-06	-1.554702e-09	-2.252434e+01	-1.019414e+02
1.110000e-06	-3.137219e-06	-1.555230e-09	-2.225971e+01	-1.016141e+02
1.120000e-06	-3.099683e-06	-1.551182e-09	-2.199338e+01	-1.012829e+02
1.130000e-06	-3.061942e-06	-1.542925e-09	-2.172560e+01	-1.009478e+02
1.140000e-06	-3.024006e-06	-1.533239e-09	-2.145642e+01	-1.006093e+02
1.150000e-06	-2.985858e-06	-1.527867e-09	-2.118575e+01	-1.002678e+02
1.160000e-06	-2.947502e-06	-1.526552e-09	-2.091360e+01	-9.992397e+01
1.170000e-06	-2.908995e-06	-1.523076e-09	-2.064038e+01	-9.957836e+01
1.180000e-06	-2.870227e-06	-1.516339e-09	-2.036531e+01	-9.923166e+01
1.190000e-06	-2.831172e-06	-1.508169e-09	-2.008820e+01	-9.888446e+01
1.200000e-06	-2.791920e-06	-1.502841e-09	-1.980969e+01	-9.853725e+01
1.210000e-06	-2.752501e-06	-1.496576e-09	-1.953000e+01	-9.819039e+01
1.220000e-06	-2.712930e-06	-1.491706e-09	-1.924923e+01	-9.784405e+01
1.230000e-06	-2.673206e-06	-1.489931e-09	-1.896737e+01	-9.749824e+01
1.240000e-06	-2.633369e-06	-1.491812e-09	-1.868472e+01	-9.715273e+01
1.250000e-06	-2.593454e-06	-1.491004e-09	-1.840150e+01	-9.680711e+01
1.260000e-06	-2.553464e-06	-1.485465e-09	-1.811776e+01	-9.646079e+01
1.270000e-06	-2.513351e-06	-1.473664e-09	-1.783314e+01	-9.611300e+01
1.280000e-06	-2.473096e-06	-1.463176e-09	-1.754752e+01	-9.576288e+01
1.290000e-06	-2.432716e-06	-1.452128e-09	-1.726101e+01	-9.540948e+01
1.300000e-06	-2.392202e-06	-1.442466e-09	-1.697355e+01	-9.505185e+01
1.310000e-06	-2.351473e-06	-1.435354e-09	-1.668456e+01	-9.468903e+01
1.320000e-06	-2.310526e-06	-1.436628e-09	-1.639403e+01	-9.432017e+01
1.330000e-06	-2.269300e-06	-1.439593e-09	-1.610151e+01	-9.394451e+01
1.340000e-06	-2.227865e-06	-1.438264e-09	-1.580751e+01	-9.356145e+01
1.350000e-06	-2.186199e-06	-1.431635e-09	-1.551188e+01	-9.317055e+01
1.360000e-06	-2.144214e-06	-1.424353e-09	-1.521398e+01	-9.277157e+01
1.370000e-06	-2.102008e-06	-1.414013e-09	-1.491451e+01	-9.236441e+01
1.380000e-06	-2.059429e-06	-1.401485e-09	-1.461240e+01	-9.194919e+01
1.390000e-06	-2.016507e-06	-1.389703e-09	-1.430785e+01	-9.152612e+01
1.400000e-06	-1.973414e-06	-1.383738e-09	-1.400210e+01	-9.109553e+01
1.410000e-06	-1.930158e-06	-1.382169e-09	-1.369517e+01	-9.065781e+01
1.420000e-06	-1.886741e-06	-1.380686e-09	-1.338712e+01	-9.021339e+01
1.430000e-06	-1.843199e-06	-1.376851e-09	-1.307817e+01	-8.976262e+01
1.440000e-06	-1.799555e-06	-1.369532e-09	-1.276850e+01	-8.930581e+01
1.450000e-06	-1.755807e-06	-1.360306e-09	-1.245809e+01	-8.884314e+01
1.460000e-06	-1.711984e-06	-1.348752e-09	-1.214715e+01	-8.837464e+01
1.470000e-06	-1.668067e-06	-1.335174e-09	-1.183554e+01	-8.790019e+01
1.480000e-06	-1.624059e-06	-1.321636e-09	-1.152329e+01	-8.741946e+01
1.490000e-06	-1.579982e-06	-1.316229e-09	-1.121055e+01	-8.693198e+01
1.500000e-06	-1.535807e-06	-1.316295e-09	-1.089711e+01	-8.643710e+01
1.510000e-06	-1.491576e-06	-1.314127e-09	-1.058328e+01	-8.593405e+01
1.520000e-06	-1.447362e-06	-1.306146e-09	-1.026956e+01	-8.542197e+01
1.530000e-06	-1.403048e-06	-1.293668e-09	-9.955138e+00	-8.489996e+01
1.540000e-06	-1.358643e-06	-1.280217e-09	-9.640065e+00	-8.436712e+01
1.550000e-06	-1.314248e-06	-1.264100e-09	-9.325066e+00	-8.382260e+01
1.560000e-06	-1.269781e-06	-1.246933e-09	-9.009562e+00	-8.326567e+01
1.570000e-06	-1.225202e-06	-1.236340e-09	-8.693253e+00	-8.269574e+01
1.580000e-06	-1.180527e-06	-1.233533e-09	-8.376269e+00	-8.211242e+01
1.590000e-06	-1.135651e-06	-1.230960e-09	-8.057860e+00	-8.151552e+01
1.600000e-06	-1.090632e-06	-1.221896e-09	-7.738432e+00	-8.090505e+01
1.610000e-06	-1.045578e-06	-1.208440e-09	-7.418758e+00	-8.028128e+01
1.620000e-06	-1.000473e-06	-1.194165e-09	-7.098720e+00	-7.964462e+01
1.630000e-06	-9.553357e-07	-1.181580e-09	-6.778455e+00	-7.899569e+01
1.640000e-06	-9.101236e-07	-1.166256e-09	-6.457659e+00	-7.833519e+01
1.650000e-06	-8.648640e-07	-1.153840e-09	-6.136526e+00	-7.766389e+01
1.660000e-06	-8.195453e-07	-1.148530e-09	-5.814973e+00	-7.698255e+01
1.670000e-06	-7.741302e-07	-1.145601e-09	-5.492736e+00	-7.629185e+01
1.680000e-06	-7.287007e-07	-1.137069e-09	-5.170398e+00	-7.559233e+01
1.690000e-06	-6.832532e-07	-1.123197e-09	-4.847931e+00	-7.488430e+01
1.700000e-06	-6.377030e-07	-1.107766e-09	-4.524735e+00	-7.416781e+01
1.710000e-06	-5.921063e-07	-1.095321e-09	-4.201210e+00	-7.344260e+01
1.720000e-06	-5.465212e-07	-1.082076e-09	-3.877768e+00	-7.270804e+01
1.730000e-06	-5.009037e-07	-1.067303e-09	-3.554095e+00	-7.196315e+01
1.740000e-06	-4.552353e-07	-1.055368e-09	-3.230060e+00	-7.120655e+01
1.750000e-06	-4.094630e-07	-1.048713e-09	-2.905290e+00	-7.043654e+01
1.760000e-06	-3.636068e-07	-1.039184e-09	-2.579923e+00	-6.965110e+01
1.770000e-06	-3.177530e-07	-1.023642e-09	-2.254573e+00	-6.884793e+01
1.780000e-06	-2.718748e-07	-1.008004e-09	-1.929051e+00	-6.802453e+01
1.790000e-06	-2.260004e-07	-9.965875e-10	-1.603555e+00	-6.717829e+01
1.800000e-06	-1.801117e-07	-9.834365e-10	-1.277958e+00	-6.630656e+01
1.810000e-06	-1.342348e-07	-9.642686e-10	-9.524451e-01	-6.540671e+01
1.820000e-06	-8.838598e-08	-9.478453e-10	-6.271308e-01	-6.447624e+01
1.830000e-06	-4.249202e-08	-9.369689e-10	-3.014964e-01	-6.351287e+01
1.840000e-06	3.430239e-09	-9.278592e-10	2.433880e-02	-6.251456e+01
1.850000e-06	4.936204e-08	-9.152019e-10	3.502417e-01	-6.147961e+01
1.860000e-06	9.530082e-08	-9.005322e-10	6.761941e-01	-6.040670e+01
1.870000e-06	1.412604e-07	-8.873872e-10	1.002294e+00	-5.929487e+01
1.880000e-06	1.872028e-07	-8.741679e-10	1.328272e+00	-5.814356e+01
1.890000e-06	2.330848e-07	-8.532464e-10	1.653821e+00	-5.695261e+01
1.900000e-06	2.789106e-07	-8.277897e-10	1.978973e+00	-5.572219e+01
1.910000e-06	3.247023e-07	-8.066091e-10	2.303882e+00	-5.445280e+01
1.920000e-06	3.705082e-07	-7.901200e-10	2.628891e+00	-5.314519e+01
1.930000e-06	4.163272e-07	-7.708784e-10	2.953994e+00	-5.180028e+01
1.940000e-06	4.620637e-07	-7.470306e-10	3.278511e+00	-5.041914e+01
1.950000e-06	5.077527e-07	-7.252619e-10	3.602690e+00	-4.900285e+01
1.960000e-06	5.534852e-07	-7.090056e-10	3.927180e+00	-4.755249e+01
1.970000e-06	5.991997e-07	-6.868880e-10	4.251540e+00	-4.606904e+01
1.980000e-06	6.448234e-07	-6.567697e-10	4.575257e+00	-4.455334e+01
1.990000e-06	6.903729e-07	-6.287474e-10	4.898448e+00	-4.300603e+01
2.000000e-06	7.358854e-07	-6.076931e-10	5.221375e+00	-4.142751e+01
2.010000e-06	7.813552e-07	-5.858768e-10	5.544001e+00	-3.981796e+01
2.020000e-06	8.267733e-07	-5.602896e-10	5.866258e+00	-3.817728e+01
2.030000e-06	8.720957e-07	-5.332984e-10	6.187837e+00	-3.650513e+01
2.040000e-06	9.173385e-07	-5.084402e-10	6.508851e+00	-3.480097e+01
2.050000e-06	9.625081e-07	-4.829617e-10	6.829346e+00	-3.306405e+01
2.060000e-06	1.007626e-06	-4.515212e-10	7.149472e+00	-3.129347e+01
2.070000e-06	1.052698e-06	-4.193886e-10	7.469279e+00	-2.948825e+01
2.080000e-06	1.097610e-06	-3.932305e-10	7.787945e+00	-2.764735e+01
2.090000e-06	1.142393e-06	-3.702232e-10	8.105699e+00	-2.576972e+01
2.100000e-06	1.187096e-06	-3.426561e-10	8.422880e+00	-2.385442e+01
2.110000e-06	1.231665e-06	-3.092879e-10	8.739116e+00	-2.190056e+01
2.120000e-06	1.276139e-06	-2.759217e-10	9.054674e+00	-1.990746e+01
2.130000e-06	1.320525e-06	-2.449936e-10	9.369610e+00	-1.787457e+01
2.140000e-06	1.364857e-06	-2.141741e-10	9.684155e+00	-1.580161e+01
2.150000e-06	1.409134e-06	-1.832934e-10	9.998319e+00	-1.368850e+01
2.160000e-06	1.453331e-06	-1.518821e-10	1.031191e+01	-1.153544e+01
2.170000e-06	1.497471e-06	-1.208709e-10	1.062510e+01	-9.342883e+00
2.180000e-06	1.541560e-06	-8.810932e-11	1.093793e+01	-7.111521e+00
2.190000e-06	1.585618e-06	-5.214002e-11	1.125054e+01	-4.842319e+00
2.200000e-06	1.629601e-06	-1.661358e-11	1.156262e+01	-2.536479e+00
2.210000e-06	1.673514e-06	1.474505e-11	1.187419e+01	-1.954407e-01
2.220000e-06	1.717398e-06	4.693492e-11	1.218556e+01	2.179137e+00
2.230000e-06	1.761201e-06	8.354481e-11	1.249636e+01	4.585380e+00
2.240000e-06	1.804914e-06	1.231179e-10	1.280653e+01	7.021213e+00
2.250000e-06	1.848549e-06	1.625114e-10	1.311613e+01	9.484364e+00
2.260000e-06	1.892063e-06	2.028834e-10	1.342488e+01	1.197237e+01
2.270000e-06	1.935503e-06	2.456047e-10	1.373310e+01	1.448259e+01
2.280000e-06	1.978805e-06	2.865363e-10	1.404034e+01	1.701219e+01
2.290000e-06	2.021965e-06	3.214394e-10	1.434658e+01	1.955816e+01
2.300000e-06	2.064829e-06	3.538587e-10	1.465071e+01	2.211731e+01
2.310000e-06	2.107339e-06	3.905736e-10	1.495234e+01	2.468628e+01
2.320000e-06	2.149591e-06	4.303875e-10	1.525213e+01	2.726153e+01
2.330000e-06	2.191600e-06	4.691651e-10	1.555020e+01	2.983939e+01
2.340000e-06	2.233394e-06	5.084092e-10	1.584674e+01	3.241605e+01
2.350000e-06	2.274882e-06	5.498536e-10	1.614112e+01	3.498757e+01
2.360000e-06	2.316093e-06	5.918531e-10	1.643352e+01	3.754995e+01
2.370000e-06	2.356958e-06	6.294723e-10	1.672348e+01	4.009912e+01
2.380000e-06	2.397500e-06	6.622770e-10	1.701113e+01	4.263103e+01
2.390000e-06	2.437885e-06	6.955154e-10	1.729768e+01	4.514163e+01
2.400000e-06	2.478114e-06	7.315135e-10	1.758312e+01	4.762697e+01
2.410000e-06	2.518231e-06	7.682888e-10	1.786777e+01	5.008325e+01
2.420000e-06	2.558288e-06	8.059897e-10	1.815199e+01	5.250681e+01
2.430000e-06	2.598273e-06	8.464781e-10	1.843569e+01	5.489424e+01
2.440000e-06	2.638169e-06	8.860890e-10	1.871877e+01	5.724238e+01
2.450000e-06	2.677923e-06	9.204648e-10	1.900084e+01	5.954837e+01
2.460000e-06	2.717549e-06	9.510483e-10	1.928200e+01	6.180967e+01
2.470000e-06	2.757103e-06	9.803884e-10	1.956265e+01	6.402409e+01
2.480000e-06	2.796528e-06	1.008603e-09	1.984239e+01	6.618977e+01
2.490000e-06	2.835657e-06	1.036728e-09	2.012002e+01	6.830521e+01
2.500000e-06	2.874473e-06	1.068361e-09	2.039543e+01	7.036926e+01
2.510000e-06	2.913044e-06	1.104076e-09	2.066911e+01	7.238107e+01
2.520000e-06	2.951383e-06	1.141464e-09	2.094114e+01	7.434010e+01
2.530000e-06	2.989563e-06	1.176341e-09	2.121204e+01	7.624605e+01
2.540000e-06	3.027572e-06	1.203544e-09	2.148173e+01	7.809886e+01
2.550000e-06	3.065387e-06	1.225830e-09	2.175004e+01	7.989868e+01
2.560000e-06	3.103022e-06	1.246942e-09	2.201707e+01	8.164578e+01
2.570000e-06	3.140423e-06	1.266093e-09	2.228245e+01	8.334058e+01
2.580000e-06	3.177667e-06	1.286729e-09	2.254670e+01	8.498357e+01
2.590000e-06	3.214725e-06	1.313161e-09	2.280965e+01	8.657531e+01
2.600000e-06	3.251425e-06	1.345242e-09	2.307005e+01	8.811643e+01
2.610000e-06	3.287881e-06	1.377535e-09	2.332872e+01	8.960757e+01
2.620000e-06	3.324180e-06	1.402212e-09	2.358627e+01	9.104941e+01
2.630000e-06	3.360289e-06	1.419838e-09	2.384247e+01	9.244264e+01
2.640000e-06	3.396257e-06	1.437409e-09	2.409768e+01	9.378801e+01
2.650000e-06	3.432086e-06	1.454187e-09	2.435190e+01	9.508631e+01
2.660000e-06	3.467830e-06	1.464641e-09	2.460552e+01	9.633836e+01
2.670000e-06	3.503420e-06	1.475331e-09	2.485805e+01	9.754508e+01
2.680000e-06	3.538784e-06	1.494325e-09	2.510897e+01	9.870742e+01
2.690000e-06	3.573881e-06	1.518498e-09	2.535799e+01	9.982644e+01
2.700000e-06	3.608580e-06	1.541369e-09	2.560420e+01	1.009033e+02
2.710000e-06	3.642882e-06	1.559946e-09	2.584757e+01	1.019391e+02
2.720000e-06	3.676684e-06	1.576479e-09	2.608741e+01	1.029353e+02
2.730000e-06	3.709887e-06	1.592157e-09	2.632301e+01	1.038931e+02
2.740000e-06	3.742731e-06	1.601235e-09	2.655604e+01	1.048139e+02
2.750000e-06	3.775288e-06	1.606366e-09	2.678705e+01	1.056989e+02
2.760000e-06	3.807520e-06	1.616071e-09	2.701574e+01	1.065497e+02
2.770000e-06	3.839575e-06	1.634160e-09	2.724319e+01	1.073673e+02
2.780000e-06	3.871504e-06	1.655513e-09	2.746973e+01	1.081531e+02
2.790000e-06	3.903272e-06	1.669934e-09	2.769514e+01	1.089080e+02
2.800000e-06	3.934890e-06	1.678547e-09	2.791948e+01	1.096329e+02
2.810000e-06	3.966265e-06	1.686136e-09	2.814210e+01	1.103287e+02
2.820000e-06	3.997367e-06	1.692387e-09	2.836278e+01	1.109959e+02
2.830000e-06	4.028218e-06	1.696926e-09	2.858168e+01	1.116349e+02
2.840000e-06	4.058761e-06	1.703010e-09	2.879839e+01	1.122460e+02
2.850000e-06	4.088921e-06	1.713867e-09	2.901239e+01	1.128295e+02
2.860000e-06	4.118733e-06	1.726713e-09	2.922391e+01	1.133853e+02
2.870000e-06	4.148387e-06	1.736987e-09	2.943432e+01	1.139135e+02
2.880000e-06	4.177851e-06	1.742924e-09	2.964338e+01	1.144140e+02
2.890000e-06	4.206953e-06	1.747341e-09	2.984986e+01	1.148870e+02
2.900000e-06	4.235694e-06	1.754839e-09	3.005380e+01	1.153326e+02
