# Temperatura_=_19.3
# Concentracion g/m^3_=_4090.0
# C_Vs_to_Am_M_A/Vsm_=_65563218390.804596
# pendiente_HvsI_1/m_=_3716.3
# ordenada_HvsI_A/m_=_1297.0
# frecuencia_Hz_=_135084.63791241398

Tiempo_(s)	Campo_(V.s)	Magnetizacion_(V.s)	Campo_(kA/m)	Magnetizacion_(A/m)
0.000000e+00	-5.436624e-06	-1.195310e-09	-3.839271e+01	-8.151650e+01
1.000000e-08	-5.436767e-06	-1.192839e-09	-3.839373e+01	-8.135233e+01
2.000000e-08	-5.436652e-06	-1.189472e-09	-3.839291e+01	-8.116938e+01
3.000000e-08	-5.436268e-06	-1.183950e-09	-3.839020e+01	-8.096756e+01
4.000000e-08	-5.435473e-06	-1.180436e-09	-3.838459e+01	-8.074783e+01
5.000000e-08	-5.434085e-06	-1.183036e-09	-3.837478e+01	-8.051221e+01
6.000000e-08	-5.432175e-06	-1.198977e-09	-3.836130e+01	-8.026387e+01
7.000000e-08	-5.429708e-06	-1.213362e-09	-3.834388e+01	-8.000698e+01
8.000000e-08	-5.426578e-06	-1.185356e-09	-3.832177e+01	-7.974667e+01
9.000000e-08	-5.422873e-06	-1.124215e-09	-3.829561e+01	-7.948885e+01
1.000000e-07	-5.418723e-06	-1.170591e-09	-3.826630e+01	-7.924000e+01
1.100000e-07	-5.414327e-06	-1.245494e-09	-3.823526e+01	-7.900692e+01
1.200000e-07	-5.409775e-06	-1.202939e-09	-3.820311e+01	-7.879651e+01
1.300000e-07	-5.405008e-06	-1.129701e-09	-3.816945e+01	-7.861540e+01
1.400000e-07	-5.399850e-06	-1.172006e-09	-3.813302e+01	-7.846975e+01
1.500000e-07	-5.394217e-06	-1.269440e-09	-3.809324e+01	-7.836493e+01
1.600000e-07	-5.388291e-06	-1.226564e-09	-3.805139e+01	-7.830527e+01
1.700000e-07	-5.382002e-06	-1.080871e-09	-3.800698e+01	-7.829383e+01
1.800000e-07	-5.375242e-06	-1.135569e-09	-3.795924e+01	-7.833226e+01
1.900000e-07	-5.368065e-06	-1.221980e-09	-3.790856e+01	-7.842068e+01
2.000000e-07	-5.360603e-06	-1.214651e-09	-3.785587e+01	-7.855761e+01
2.100000e-07	-5.352977e-06	-1.152787e-09	-3.780201e+01	-7.873998e+01
2.200000e-07	-5.345116e-06	-1.242721e-09	-3.774650e+01	-7.896325e+01
2.300000e-07	-5.336974e-06	-1.297002e-09	-3.768900e+01	-7.922149e+01
2.400000e-07	-5.328466e-06	-1.245474e-09	-3.762892e+01	-7.950764e+01
2.500000e-07	-5.319319e-06	-1.252892e-09	-3.756432e+01	-7.981370e+01
2.600000e-07	-5.309439e-06	-1.338359e-09	-3.749455e+01	-8.013107e+01
2.700000e-07	-5.298895e-06	-1.334542e-09	-3.742009e+01	-8.045082e+01
2.800000e-07	-5.287833e-06	-1.283719e-09	-3.734197e+01	-8.076404e+01
2.900000e-07	-5.276440e-06	-1.335232e-09	-3.726152e+01	-8.106214e+01
3.000000e-07	-5.264710e-06	-1.358896e-09	-3.717868e+01	-8.133717e+01
3.100000e-07	-5.252583e-06	-1.306656e-09	-3.709304e+01	-8.158210e+01
3.200000e-07	-5.239987e-06	-1.283620e-09	-3.700409e+01	-8.179103e+01
3.300000e-07	-5.227027e-06	-1.354196e-09	-3.691257e+01	-8.195939e+01
3.400000e-07	-5.213792e-06	-1.330771e-09	-3.681911e+01	-8.208406e+01
3.500000e-07	-5.200159e-06	-1.311400e-09	-3.672283e+01	-8.216342e+01
3.600000e-07	-5.186073e-06	-1.340948e-09	-3.662336e+01	-8.219736e+01
3.700000e-07	-5.171636e-06	-1.359298e-09	-3.652141e+01	-8.218719e+01
3.800000e-07	-5.156693e-06	-1.289988e-09	-3.641588e+01	-8.213555e+01
3.900000e-07	-5.140993e-06	-1.294676e-09	-3.630501e+01	-8.204620e+01
4.000000e-07	-5.124831e-06	-1.316850e-09	-3.619087e+01	-8.192380e+01
4.100000e-07	-5.108392e-06	-1.294525e-09	-3.607479e+01	-8.177368e+01
4.200000e-07	-5.091541e-06	-1.277919e-09	-3.595579e+01	-8.160157e+01
4.300000e-07	-5.074349e-06	-1.327626e-09	-3.583437e+01	-8.141333e+01
4.400000e-07	-5.056816e-06	-1.323802e-09	-3.571056e+01	-8.121466e+01
4.500000e-07	-5.038983e-06	-1.302912e-09	-3.558463e+01	-8.101090e+01
4.600000e-07	-5.020749e-06	-1.300937e-09	-3.545586e+01	-8.080678e+01
4.700000e-07	-5.002128e-06	-1.301243e-09	-3.532437e+01	-8.060627e+01
4.800000e-07	-4.983225e-06	-1.273050e-09	-3.519087e+01	-8.041247e+01
4.900000e-07	-4.963870e-06	-1.271853e-09	-3.505419e+01	-8.022748e+01
5.000000e-07	-4.944168e-06	-1.268520e-09	-3.491506e+01	-8.005244e+01
5.100000e-07	-4.924286e-06	-1.258887e-09	-3.477465e+01	-7.988753e+01
5.200000e-07	-4.904222e-06	-1.270478e-09	-3.463296e+01	-7.973204e+01
5.300000e-07	-4.883861e-06	-1.280674e-09	-3.448918e+01	-7.958450e+01
5.400000e-07	-4.863222e-06	-1.265285e-09	-3.434343e+01	-7.944284e+01
5.500000e-07	-4.842323e-06	-1.259979e-09	-3.419584e+01	-7.930452e+01
5.600000e-07	-4.820966e-06	-1.269893e-09	-3.404502e+01	-7.916676e+01
5.700000e-07	-4.799196e-06	-1.257981e-09	-3.389128e+01	-7.902672e+01
5.800000e-07	-4.777157e-06	-1.241774e-09	-3.373564e+01	-7.888167e+01
5.900000e-07	-4.754858e-06	-1.228992e-09	-3.357817e+01	-7.872916e+01
6.000000e-07	-4.732188e-06	-1.226466e-09	-3.341808e+01	-7.856714e+01
6.100000e-07	-4.709144e-06	-1.229246e-09	-3.325535e+01	-7.839412e+01
6.200000e-07	-4.685808e-06	-1.236025e-09	-3.309055e+01	-7.820918e+01
6.300000e-07	-4.662189e-06	-1.221682e-09	-3.292376e+01	-7.801203e+01
6.400000e-07	-4.638362e-06	-1.225505e-09	-3.275550e+01	-7.780301e+01
6.500000e-07	-4.614315e-06	-1.231243e-09	-3.258568e+01	-7.758303e+01
6.600000e-07	-4.589930e-06	-1.224922e-09	-3.241347e+01	-7.735352e+01
6.700000e-07	-4.565211e-06	-1.202409e-09	-3.223891e+01	-7.711629e+01
6.800000e-07	-4.540077e-06	-1.200043e-09	-3.206142e+01	-7.687346e+01
6.900000e-07	-4.514335e-06	-1.198582e-09	-3.187964e+01	-7.662726e+01
7.000000e-07	-4.488075e-06	-1.200038e-09	-3.169419e+01	-7.637997e+01
7.100000e-07	-4.461311e-06	-1.190944e-09	-3.150518e+01	-7.613374e+01
7.200000e-07	-4.434113e-06	-1.190884e-09	-3.131311e+01	-7.589045e+01
7.300000e-07	-4.406625e-06	-1.194517e-09	-3.111900e+01	-7.565168e+01
7.400000e-07	-4.378934e-06	-1.202639e-09	-3.092345e+01	-7.541858e+01
7.500000e-07	-4.351153e-06	-1.192323e-09	-3.072726e+01	-7.519183e+01
7.600000e-07	-4.323199e-06	-1.183122e-09	-3.052985e+01	-7.497163e+01
7.700000e-07	-4.294967e-06	-1.177628e-09	-3.033049e+01	-7.475771e+01
7.800000e-07	-4.266458e-06	-1.177044e-09	-3.012916e+01	-7.454938e+01
7.900000e-07	-4.237599e-06	-1.170149e-09	-2.992536e+01	-7.434556e+01
8.000000e-07	-4.208360e-06	-1.163777e-09	-2.971888e+01	-7.414491e+01
8.100000e-07	-4.178863e-06	-1.161576e-09	-2.951058e+01	-7.394590e+01
8.200000e-07	-4.149088e-06	-1.165191e-09	-2.930031e+01	-7.374690e+01
8.300000e-07	-4.119048e-06	-1.166574e-09	-2.908817e+01	-7.354636e+01
8.400000e-07	-4.088707e-06	-1.159797e-09	-2.887390e+01	-7.334281e+01
8.500000e-07	-4.058050e-06	-1.156107e-09	-2.865741e+01	-7.313504e+01
8.600000e-07	-4.027178e-06	-1.157849e-09	-2.843940e+01	-7.292213e+01
8.700000e-07	-3.996113e-06	-1.158090e-09	-2.822002e+01	-7.270351e+01
8.800000e-07	-3.964802e-06	-1.147630e-09	-2.799891e+01	-7.247897e+01
8.900000e-07	-3.933187e-06	-1.139482e-09	-2.777565e+01	-7.224872e+01
9.000000e-07	-3.901386e-06	-1.135031e-09	-2.755107e+01	-7.201330e+01
9.100000e-07	-3.869450e-06	-1.137660e-09	-2.732554e+01	-7.177357e+01
9.200000e-07	-3.837269e-06	-1.133078e-09	-2.709828e+01	-7.153065e+01
9.300000e-07	-3.804829e-06	-1.129294e-09	-2.686919e+01	-7.128583e+01
9.400000e-07	-3.772117e-06	-1.130624e-09	-2.663819e+01	-7.104049e+01
9.500000e-07	-3.739127e-06	-1.138521e-09	-2.640522e+01	-7.079599e+01
9.600000e-07	-3.705745e-06	-1.137206e-09	-2.616948e+01	-7.055358e+01
9.700000e-07	-3.671899e-06	-1.126041e-09	-2.593046e+01	-7.031432e+01
9.800000e-07	-3.637607e-06	-1.111480e-09	-2.568830e+01	-7.007903e+01
9.900000e-07	-3.602795e-06	-1.106480e-09	-2.544246e+01	-6.984819e+01
1.000000e-06	-3.567602e-06	-1.102144e-09	-2.519393e+01	-6.962190e+01
1.010000e-06	-3.532211e-06	-1.101303e-09	-2.494401e+01	-6.939992e+01
1.020000e-06	-3.496642e-06	-1.100336e-09	-2.469282e+01	-6.918163e+01
1.030000e-06	-3.460885e-06	-1.105061e-09	-2.444031e+01	-6.896607e+01
1.040000e-06	-3.424965e-06	-1.107723e-09	-2.418665e+01	-6.875200e+01
1.050000e-06	-3.388846e-06	-1.103169e-09	-2.393158e+01	-6.853795e+01
1.060000e-06	-3.352523e-06	-1.089239e-09	-2.367507e+01	-6.832230e+01
1.070000e-06	-3.316061e-06	-1.076529e-09	-2.341758e+01	-6.810339e+01
1.080000e-06	-3.279418e-06	-1.065430e-09	-2.315881e+01	-6.787957e+01
1.090000e-06	-3.242515e-06	-1.059885e-09	-2.289821e+01	-6.764935e+01
1.100000e-06	-3.205321e-06	-1.059464e-09	-2.263555e+01	-6.741139e+01
1.110000e-06	-3.167865e-06	-1.060865e-09	-2.237104e+01	-6.716464e+01
1.120000e-06	-3.130205e-06	-1.059217e-09	-2.210509e+01	-6.690837e+01
1.130000e-06	-3.092320e-06	-1.051328e-09	-2.183755e+01	-6.664217e+01
1.140000e-06	-3.054211e-06	-1.042116e-09	-2.156843e+01	-6.636604e+01
1.150000e-06	-3.015919e-06	-1.033614e-09	-2.129802e+01	-6.608027e+01
1.160000e-06	-2.977345e-06	-1.025719e-09	-2.102561e+01	-6.578553e+01
1.170000e-06	-2.938562e-06	-1.016724e-09	-2.075174e+01	-6.548274e+01
1.180000e-06	-2.899608e-06	-1.010367e-09	-2.047665e+01	-6.517302e+01
1.190000e-06	-2.860445e-06	-1.006013e-09	-2.020008e+01	-6.485769e+01
1.200000e-06	-2.821129e-06	-1.004910e-09	-1.992244e+01	-6.453809e+01
1.210000e-06	-2.781571e-06	-1.000075e-09	-1.964308e+01	-6.421557e+01
1.220000e-06	-2.741853e-06	-9.947481e-10	-1.936260e+01	-6.389139e+01
1.230000e-06	-2.702119e-06	-9.907932e-10	-1.908201e+01	-6.356667e+01
1.240000e-06	-2.662287e-06	-9.866655e-10	-1.880072e+01	-6.324230e+01
1.250000e-06	-2.622319e-06	-9.803486e-10	-1.851846e+01	-6.291893e+01
1.260000e-06	-2.582235e-06	-9.717726e-10	-1.823540e+01	-6.259692e+01
1.270000e-06	-2.542016e-06	-9.630731e-10	-1.795138e+01	-6.227634e+01
1.280000e-06	-2.501640e-06	-9.608794e-10	-1.766625e+01	-6.195699e+01
1.290000e-06	-2.461034e-06	-9.605203e-10	-1.737949e+01	-6.163839e+01
1.300000e-06	-2.420254e-06	-9.558667e-10	-1.709151e+01	-6.131987e+01
1.310000e-06	-2.379361e-06	-9.466078e-10	-1.680273e+01	-6.100057e+01
1.320000e-06	-2.338176e-06	-9.424875e-10	-1.651189e+01	-6.067955e+01
1.330000e-06	-2.296599e-06	-9.370827e-10	-1.621827e+01	-6.035580e+01
1.340000e-06	-2.254743e-06	-9.288928e-10	-1.592270e+01	-6.002835e+01
1.350000e-06	-2.212569e-06	-9.201811e-10	-1.562487e+01	-5.969630e+01
1.360000e-06	-2.170073e-06	-9.167046e-10	-1.532477e+01	-5.935887e+01
1.370000e-06	-2.127379e-06	-9.162727e-10	-1.502326e+01	-5.901546e+01
1.380000e-06	-2.084519e-06	-9.142570e-10	-1.472059e+01	-5.866569e+01
1.390000e-06	-2.041505e-06	-9.090292e-10	-1.441683e+01	-5.830936e+01
1.400000e-06	-1.998334e-06	-9.017701e-10	-1.411197e+01	-5.794649e+01
1.410000e-06	-1.954930e-06	-8.939369e-10	-1.380546e+01	-5.757730e+01
1.420000e-06	-1.911337e-06	-8.867566e-10	-1.349761e+01	-5.720216e+01
1.430000e-06	-1.867693e-06	-8.796558e-10	-1.318940e+01	-5.682156e+01
1.440000e-06	-1.823963e-06	-8.754774e-10	-1.288058e+01	-5.643609e+01
1.450000e-06	-1.780161e-06	-8.741905e-10	-1.257126e+01	-5.604632e+01
1.460000e-06	-1.736291e-06	-8.750769e-10	-1.226146e+01	-5.565280e+01
1.470000e-06	-1.692293e-06	-8.722029e-10	-1.195075e+01	-5.525599e+01
1.480000e-06	-1.648200e-06	-8.641735e-10	-1.163937e+01	-5.485620e+01
1.490000e-06	-1.604034e-06	-8.585084e-10	-1.132748e+01	-5.445359e+01
1.500000e-06	-1.559828e-06	-8.527999e-10	-1.101530e+01	-5.404809e+01
1.510000e-06	-1.515576e-06	-8.449920e-10	-1.070279e+01	-5.363944e+01
1.520000e-06	-1.471177e-06	-8.336048e-10	-1.038926e+01	-5.322714e+01
1.530000e-06	-1.426720e-06	-8.224028e-10	-1.007530e+01	-5.281052e+01
1.540000e-06	-1.382207e-06	-8.160471e-10	-9.760961e+00	-5.238871e+01
1.550000e-06	-1.337506e-06	-8.112231e-10	-9.445286e+00	-5.196072e+01
1.560000e-06	-1.292738e-06	-8.032820e-10	-9.129143e+00	-5.152548e+01
1.570000e-06	-1.247912e-06	-7.986757e-10	-8.812591e+00	-5.108187e+01
1.580000e-06	-1.202986e-06	-7.954582e-10	-8.495329e+00	-5.062880e+01
1.590000e-06	-1.157992e-06	-7.912963e-10	-8.177588e+00	-5.016525e+01
1.600000e-06	-1.112824e-06	-7.828749e-10	-7.858615e+00	-4.969030e+01
1.610000e-06	-1.067521e-06	-7.711933e-10	-7.538691e+00	-4.920321e+01
1.620000e-06	-1.022177e-06	-7.597457e-10	-7.218477e+00	-4.870340e+01
1.630000e-06	-9.767748e-07	-7.493370e-10	-6.897854e+00	-4.819052e+01
1.640000e-06	-9.313175e-07	-7.385538e-10	-6.576840e+00	-4.766438e+01
1.650000e-06	-8.857447e-07	-7.276798e-10	-6.255011e+00	-4.712499e+01
1.660000e-06	-8.400938e-07	-7.186771e-10	-5.932631e+00	-4.657254e+01
1.670000e-06	-7.943817e-07	-7.168808e-10	-5.609818e+00	-4.600730e+01
1.680000e-06	-7.486093e-07	-7.136143e-10	-5.286579e+00	-4.542962e+01
1.690000e-06	-7.028798e-07	-7.014849e-10	-4.963644e+00	-4.483988e+01
1.700000e-06	-6.572413e-07	-6.846260e-10	-4.641351e+00	-4.423839e+01
1.710000e-06	-6.115191e-07	-6.691486e-10	-4.318466e+00	-4.362536e+01
1.720000e-06	-5.656909e-07	-6.569032e-10	-3.994834e+00	-4.300084e+01
1.730000e-06	-5.198871e-07	-6.461533e-10	-3.671373e+00	-4.236465e+01
1.740000e-06	-4.740118e-07	-6.372753e-10	-3.347408e+00	-4.171638e+01
1.750000e-06	-4.280963e-07	-6.313182e-10	-3.023159e+00	-4.105533e+01
1.760000e-06	-3.821551e-07	-6.242712e-10	-2.698728e+00	-4.038052e+01
1.770000e-06	-3.361189e-07	-6.138070e-10	-2.373627e+00	-3.969068e+01
1.780000e-06	-2.900950e-07	-6.015332e-10	-2.048612e+00	-3.898429e+01
1.790000e-06	-2.440263e-07	-5.895778e-10	-1.723281e+00	-3.825959e+01
1.800000e-06	-1.979025e-07	-5.752174e-10	-1.397561e+00	-3.751466e+01
1.810000e-06	-1.518650e-07	-5.571094e-10	-1.072450e+00	-3.674745e+01
1.820000e-06	-1.058636e-07	-5.406969e-10	-7.475944e-01	-3.595585e+01
1.830000e-06	-5.982180e-08	-5.284240e-10	-4.224536e-01	-3.513781e+01
1.840000e-06	-1.379408e-08	-5.175806e-10	-9.741194e-02	-3.429133e+01
1.850000e-06	3.220847e-08	-5.050160e-10	2.274519e-01	-3.341460e+01
1.860000e-06	7.826823e-08	-4.912124e-10	5.527198e-01	-3.250603e+01
1.870000e-06	1.243942e-07	-4.789011e-10	8.784554e-01	-3.156431e+01
1.880000e-06	1.705410e-07	-4.685781e-10	1.204338e+00	-3.058843e+01
1.890000e-06	2.166533e-07	-4.529459e-10	1.529977e+00	-2.957774e+01
1.900000e-06	2.627162e-07	-4.317587e-10	1.855266e+00	-2.853194e+01
1.910000e-06	3.087768e-07	-4.101310e-10	2.180541e+00	-2.745107e+01
1.920000e-06	3.547718e-07	-3.922279e-10	2.505351e+00	-2.633551e+01
1.930000e-06	4.006874e-07	-3.748095e-10	2.829601e+00	-2.518591e+01
1.940000e-06	4.465920e-07	-3.570581e-10	3.153773e+00	-2.400319e+01
1.950000e-06	4.924263e-07	-3.384429e-10	3.477449e+00	-2.278847e+01
1.960000e-06	5.382561e-07	-3.217549e-10	3.801093e+00	-2.154298e+01
1.970000e-06	5.840739e-07	-3.034524e-10	4.124652e+00	-2.026806e+01
1.980000e-06	6.298453e-07	-2.801759e-10	4.447884e+00	-1.896505e+01
1.990000e-06	6.756906e-07	-2.557282e-10	4.771637e+00	-1.763527e+01
2.000000e-06	7.214666e-07	-2.352304e-10	5.094901e+00	-1.627994e+01
2.010000e-06	7.670829e-07	-2.185624e-10	5.417037e+00	-1.490017e+01
2.020000e-06	8.126791e-07	-2.002523e-10	5.739031e+00	-1.349696e+01
2.030000e-06	8.582748e-07	-1.784799e-10	6.061023e+00	-1.207111e+01
2.040000e-06	9.037672e-07	-1.560691e-10	6.382284e+00	-1.062330e+01
2.050000e-06	9.492237e-07	-1.339662e-10	6.703291e+00	-9.154076e+00
2.060000e-06	9.946340e-07	-1.097800e-10	7.023973e+00	-7.663850e+00
2.070000e-06	1.039884e-06	-8.325445e-11	7.343519e+00	-6.152969e+00
2.080000e-06	1.085045e-06	-5.901692e-11	7.662446e+00	-4.621737e+00
2.090000e-06	1.130033e-06	-3.847625e-11	7.980145e+00	-3.070466e+00
2.100000e-06	1.174898e-06	-1.692958e-11	8.296972e+00	-1.499518e+00
2.110000e-06	1.219762e-06	7.859442e-12	8.613800e+00	9.064885e-02
2.120000e-06	1.264536e-06	3.377433e-11	8.929985e+00	1.699438e+00
2.130000e-06	1.309154e-06	5.735954e-11	9.245069e+00	3.326084e+00
2.140000e-06	1.353710e-06	7.882498e-11	9.559717e+00	4.969626e+00
2.150000e-06	1.398197e-06	1.010197e-10	9.873879e+00	6.628887e+00
2.160000e-06	1.442647e-06	1.239319e-10	1.018778e+01	8.302477e+00
2.170000e-06	1.487043e-06	1.470391e-10	1.050130e+01	9.988789e+00
2.180000e-06	1.531351e-06	1.715603e-10	1.081419e+01	1.168602e+01
2.190000e-06	1.575638e-06	1.976618e-10	1.112695e+01	1.339218e+01
2.200000e-06	1.619821e-06	2.255739e-10	1.143896e+01	1.510515e+01
2.210000e-06	1.663928e-06	2.515232e-10	1.175044e+01	1.682270e+01
2.220000e-06	1.708004e-06	2.756732e-10	1.206169e+01	1.854250e+01
2.230000e-06	1.751938e-06	3.012674e-10	1.237195e+01	2.026222e+01
2.240000e-06	1.795768e-06	3.298653e-10	1.268148e+01	2.197952e+01
2.250000e-06	1.839597e-06	3.567652e-10	1.299099e+01	2.369211e+01
2.260000e-06	1.883349e-06	3.828356e-10	1.329996e+01	2.539776e+01
2.270000e-06	1.926996e-06	4.109444e-10	1.360819e+01	2.709435e+01
2.280000e-06	1.970582e-06	4.387079e-10	1.391598e+01	2.877985e+01
2.290000e-06	2.013975e-06	4.640222e-10	1.422242e+01	3.045237e+01
2.300000e-06	2.057105e-06	4.858439e-10	1.452700e+01	3.211016e+01
2.310000e-06	2.100067e-06	5.081560e-10	1.483039e+01	3.375156e+01
2.320000e-06	2.142769e-06	5.340708e-10	1.513195e+01	3.537507e+01
2.330000e-06	2.185194e-06	5.609063e-10	1.543155e+01	3.697925e+01
2.340000e-06	2.227432e-06	5.858025e-10	1.572983e+01	3.856279e+01
2.350000e-06	2.269340e-06	6.079842e-10	1.602578e+01	4.012444e+01
2.360000e-06	2.310885e-06	6.305793e-10	1.631916e+01	4.166302e+01
2.370000e-06	2.352204e-06	6.544332e-10	1.661095e+01	4.317740e+01
2.380000e-06	2.393291e-06	6.784902e-10	1.690110e+01	4.466649e+01
2.390000e-06	2.434044e-06	7.021649e-10	1.718889e+01	4.612925e+01
2.400000e-06	2.474523e-06	7.250721e-10	1.747475e+01	4.756467e+01
2.410000e-06	2.514892e-06	7.483150e-10	1.775983e+01	4.897180e+01
2.420000e-06	2.555110e-06	7.735897e-10	1.804384e+01	5.034971e+01
2.430000e-06	2.595170e-06	7.990454e-10	1.832675e+01	5.169757e+01
2.440000e-06	2.635154e-06	8.219709e-10	1.860910e+01	5.301462e+01
2.450000e-06	2.675039e-06	8.415656e-10	1.889077e+01	5.430017e+01
2.460000e-06	2.714875e-06	8.616016e-10	1.917208e+01	5.555365e+01
2.470000e-06	2.754614e-06	8.824022e-10	1.945272e+01	5.677463e+01
2.480000e-06	2.794164e-06	8.992115e-10	1.973202e+01	5.796278e+01
2.490000e-06	2.833529e-06	9.147707e-10	2.001000e+01	5.911792e+01
2.500000e-06	2.872690e-06	9.340627e-10	2.028655e+01	6.023999e+01
2.510000e-06	2.911615e-06	9.563093e-10	2.056144e+01	6.132909e+01
2.520000e-06	2.950270e-06	9.786323e-10	2.083441e+01	6.238541e+01
2.530000e-06	2.988685e-06	9.987184e-10	2.110570e+01	6.340927e+01
2.540000e-06	3.026951e-06	1.016560e-09	2.137593e+01	6.440107e+01
2.550000e-06	3.065064e-06	1.030901e-09	2.164507e+01	6.536130e+01
2.560000e-06	3.103000e-06	1.041269e-09	2.191297e+01	6.629048e+01
2.570000e-06	3.140745e-06	1.050620e-09	2.217952e+01	6.718916e+01
2.580000e-06	3.178234e-06	1.060918e-09	2.244427e+01	6.805790e+01
2.590000e-06	3.215474e-06	1.075056e-09	2.270725e+01	6.889726e+01
2.600000e-06	3.252515e-06	1.094571e-09	2.296883e+01	6.970775e+01
2.610000e-06	3.289326e-06	1.115307e-09	2.322878e+01	7.048987e+01
2.620000e-06	3.325886e-06	1.131169e-09	2.348696e+01	7.124408e+01
2.630000e-06	3.362237e-06	1.142643e-09	2.374367e+01	7.197079e+01
2.640000e-06	3.398396e-06	1.150513e-09	2.399902e+01	7.267040e+01
2.650000e-06	3.434437e-06	1.155213e-09	2.425354e+01	7.334330e+01
2.660000e-06	3.470403e-06	1.158102e-09	2.450753e+01	7.398988e+01
2.670000e-06	3.506177e-06	1.162500e-09	2.476016e+01	7.461056e+01
2.680000e-06	3.541771e-06	1.169539e-09	2.501152e+01	7.520579e+01
2.690000e-06	3.577184e-06	1.180067e-09	2.526159e+01	7.577609e+01
2.700000e-06	3.612217e-06	1.193159e-09	2.550899e+01	7.632209e+01
2.710000e-06	3.646751e-06	1.205667e-09	2.575287e+01	7.684447e+01
2.720000e-06	3.680896e-06	1.213790e-09	2.599400e+01	7.734403e+01
2.730000e-06	3.714611e-06	1.220242e-09	2.623209e+01	7.782166e+01
2.740000e-06	3.747892e-06	1.225026e-09	2.646711e+01	7.827837e+01
2.750000e-06	3.780822e-06	1.226610e-09	2.669966e+01	7.871520e+01
2.760000e-06	3.813365e-06	1.228333e-09	2.692948e+01	7.913327e+01
2.770000e-06	3.845580e-06	1.230859e-09	2.715697e+01	7.953370e+01
2.780000e-06	3.877586e-06	1.236412e-09	2.738300e+01	7.991763e+01
2.790000e-06	3.909493e-06	1.244070e-09	2.760832e+01	8.028612e+01
2.800000e-06	3.941268e-06	1.249021e-09	2.783271e+01	8.064015e+01
2.810000e-06	3.972839e-06	1.252372e-09	2.805566e+01	8.098058e+01
2.820000e-06	4.004156e-06	1.256542e-09	2.827682e+01	8.130813e+01
2.830000e-06	4.035185e-06	1.260654e-09	2.849594e+01	8.162332e+01
2.840000e-06	4.065907e-06	1.264467e-09	2.871289e+01	8.192647e+01
2.850000e-06	4.096274e-06	1.267642e-09	2.892734e+01	8.221772e+01
2.860000e-06	4.126327e-06	1.270568e-09	2.913957e+01	8.249700e+01
2.870000e-06	4.156119e-06	1.272162e-09	2.934996e+01	8.276406e+01
2.880000e-06	4.185732e-06	1.273841e-09	2.955908e+01	8.301847e+01
2.890000e-06	4.215069e-06	1.273850e-09	2.976626e+01	8.325973e+01
2.900000e-06	4.244088e-06	1.273531e-09	2.997118e+01	8.348722e+01
