# Temperatura_=_-1.89
# Concentracion g/m^3_=_4090.0
# C_Vs_to_Am_M_A/Vsm_=_65563218390.804596
# pendiente_HvsI_1/m_=_3716.3
# ordenada_HvsI_A/m_=_1297.0
# frecuencia_Hz_=_135071.10209779427

Tiempo_(s)	Campo_(V.s)	Magnetizacion_(V.s)	Campo_(kA/m)	Magnetizacion_(A/m)
0.000000e+00	-5.408371e-06	-2.011261e-09	-3.838958e+01	-1.334481e+02
1.000000e-08	-5.408536e-06	-2.002885e-09	-3.839075e+01	-1.333108e+02
2.000000e-08	-5.408425e-06	-1.995587e-09	-3.838997e+01	-1.331535e+02
3.000000e-08	-5.408008e-06	-1.992635e-09	-3.838701e+01	-1.329772e+02
4.000000e-08	-5.407044e-06	-1.994747e-09	-3.838016e+01	-1.327839e+02
5.000000e-08	-5.405493e-06	-2.000318e-09	-3.836915e+01	-1.325765e+02
6.000000e-08	-5.403339e-06	-2.010188e-09	-3.835386e+01	-1.323592e+02
7.000000e-08	-5.400564e-06	-2.012276e-09	-3.833417e+01	-1.321367e+02
8.000000e-08	-5.397214e-06	-1.999397e-09	-3.831039e+01	-1.319145e+02
9.000000e-08	-5.393311e-06	-1.983378e-09	-3.828268e+01	-1.316989e+02
1.000000e-07	-5.389070e-06	-2.003112e-09	-3.825258e+01	-1.314962e+02
1.100000e-07	-5.384684e-06	-2.001937e-09	-3.822145e+01	-1.313128e+02
1.200000e-07	-5.380207e-06	-1.987238e-09	-3.818967e+01	-1.311548e+02
1.300000e-07	-5.375411e-06	-1.957796e-09	-3.815563e+01	-1.310279e+02
1.400000e-07	-5.370071e-06	-2.010293e-09	-3.811772e+01	-1.309372e+02
1.500000e-07	-5.364354e-06	-2.021740e-09	-3.807714e+01	-1.308864e+02
1.600000e-07	-5.358406e-06	-1.994973e-09	-3.803492e+01	-1.308784e+02
1.700000e-07	-5.352034e-06	-1.929167e-09	-3.798969e+01	-1.309145e+02
1.800000e-07	-5.345116e-06	-1.972351e-09	-3.794058e+01	-1.309947e+02
1.900000e-07	-5.337846e-06	-2.009391e-09	-3.788898e+01	-1.311175e+02
2.000000e-07	-5.330457e-06	-1.997532e-09	-3.783654e+01	-1.312798e+02
2.100000e-07	-5.322846e-06	-1.967762e-09	-3.778251e+01	-1.314773e+02
2.200000e-07	-5.314900e-06	-2.014608e-09	-3.772611e+01	-1.317042e+02
2.300000e-07	-5.306671e-06	-2.064524e-09	-3.766769e+01	-1.319537e+02
2.400000e-07	-5.298131e-06	-2.052383e-09	-3.760708e+01	-1.322184e+02
2.500000e-07	-5.288886e-06	-2.062983e-09	-3.754145e+01	-1.324899e+02
2.600000e-07	-5.278771e-06	-2.086326e-09	-3.746966e+01	-1.327598e+02
2.700000e-07	-5.268135e-06	-2.100520e-09	-3.739416e+01	-1.330197e+02
2.800000e-07	-5.257048e-06	-2.049582e-09	-3.731547e+01	-1.332614e+02
2.900000e-07	-5.245547e-06	-2.040693e-09	-3.723383e+01	-1.334775e+02
3.000000e-07	-5.233693e-06	-2.042771e-09	-3.714969e+01	-1.336613e+02
3.100000e-07	-5.221442e-06	-2.058034e-09	-3.706273e+01	-1.338073e+02
3.200000e-07	-5.208826e-06	-2.042190e-09	-3.697318e+01	-1.339112e+02
3.300000e-07	-5.195892e-06	-2.069496e-09	-3.688136e+01	-1.339702e+02
3.400000e-07	-5.182562e-06	-2.051899e-09	-3.678675e+01	-1.339827e+02
3.500000e-07	-5.168783e-06	-2.055567e-09	-3.668894e+01	-1.339490e+02
3.600000e-07	-5.154490e-06	-2.047598e-09	-3.658749e+01	-1.338703e+02
3.700000e-07	-5.139737e-06	-2.052408e-09	-3.648277e+01	-1.337495e+02
3.800000e-07	-5.124497e-06	-2.006073e-09	-3.637459e+01	-1.335903e+02
3.900000e-07	-5.108632e-06	-2.015829e-09	-3.626198e+01	-1.333974e+02
4.000000e-07	-5.092234e-06	-2.036061e-09	-3.614558e+01	-1.331764e+02
4.100000e-07	-5.075450e-06	-2.040078e-09	-3.602645e+01	-1.329330e+02
4.200000e-07	-5.058403e-06	-2.014093e-09	-3.590545e+01	-1.326733e+02
4.300000e-07	-5.041140e-06	-2.025724e-09	-3.578291e+01	-1.324031e+02
4.400000e-07	-5.023625e-06	-2.031185e-09	-3.565858e+01	-1.321281e+02
4.500000e-07	-5.005756e-06	-2.014853e-09	-3.553175e+01	-1.318532e+02
4.600000e-07	-4.987444e-06	-1.999602e-09	-3.540176e+01	-1.315828e+02
4.700000e-07	-4.968737e-06	-1.996304e-09	-3.526898e+01	-1.313202e+02
4.800000e-07	-4.949695e-06	-1.993325e-09	-3.513381e+01	-1.310680e+02
4.900000e-07	-4.930365e-06	-1.990269e-09	-3.499661e+01	-1.308276e+02
5.000000e-07	-4.910791e-06	-1.989963e-09	-3.485767e+01	-1.305996e+02
5.100000e-07	-4.890979e-06	-1.975720e-09	-3.471704e+01	-1.303835e+02
5.200000e-07	-4.870932e-06	-1.982119e-09	-3.457474e+01	-1.301780e+02
5.300000e-07	-4.850703e-06	-1.990642e-09	-3.443115e+01	-1.299812e+02
5.400000e-07	-4.830201e-06	-1.989903e-09	-3.428563e+01	-1.297905e+02
5.500000e-07	-4.809279e-06	-1.972084e-09	-3.413712e+01	-1.296033e+02
5.600000e-07	-4.787970e-06	-1.978817e-09	-3.398587e+01	-1.294163e+02
5.700000e-07	-4.766341e-06	-1.974969e-09	-3.383234e+01	-1.292266e+02
5.800000e-07	-4.744425e-06	-1.964752e-09	-3.367677e+01	-1.290313e+02
5.900000e-07	-4.722169e-06	-1.947482e-09	-3.351880e+01	-1.288279e+02
6.000000e-07	-4.699471e-06	-1.953255e-09	-3.335768e+01	-1.286144e+02
6.100000e-07	-4.676371e-06	-1.954781e-09	-3.319372e+01	-1.283892e+02
6.200000e-07	-4.653012e-06	-1.963668e-09	-3.302791e+01	-1.281514e+02
6.300000e-07	-4.629443e-06	-1.956720e-09	-3.286061e+01	-1.279008e+02
6.400000e-07	-4.605679e-06	-1.959054e-09	-3.269193e+01	-1.276377e+02
6.500000e-07	-4.581727e-06	-1.956488e-09	-3.252192e+01	-1.273631e+02
6.600000e-07	-4.557509e-06	-1.954192e-09	-3.235001e+01	-1.270784e+02
6.700000e-07	-4.532868e-06	-1.934630e-09	-3.217511e+01	-1.267855e+02
6.800000e-07	-4.507765e-06	-1.926477e-09	-3.199692e+01	-1.264866e+02
6.900000e-07	-4.482063e-06	-1.922460e-09	-3.181448e+01	-1.261838e+02
7.000000e-07	-4.455833e-06	-1.925908e-09	-3.162829e+01	-1.258797e+02
7.100000e-07	-4.429239e-06	-1.920597e-09	-3.143953e+01	-1.255763e+02
7.200000e-07	-4.402249e-06	-1.918811e-09	-3.124795e+01	-1.252757e+02
7.300000e-07	-4.374957e-06	-1.919013e-09	-3.105422e+01	-1.249795e+02
7.400000e-07	-4.347373e-06	-1.920943e-09	-3.085843e+01	-1.246891e+02
7.500000e-07	-4.319529e-06	-1.911411e-09	-3.066079e+01	-1.244053e+02
7.600000e-07	-4.291544e-06	-1.898599e-09	-3.046214e+01	-1.241285e+02
7.700000e-07	-4.263354e-06	-1.893634e-09	-3.026205e+01	-1.238585e+02
7.800000e-07	-4.234881e-06	-1.890840e-09	-3.005994e+01	-1.235946e+02
7.900000e-07	-4.206144e-06	-1.884882e-09	-2.985596e+01	-1.233360e+02
8.000000e-07	-4.177063e-06	-1.877033e-09	-2.964954e+01	-1.230811e+02
8.100000e-07	-4.147636e-06	-1.875915e-09	-2.944066e+01	-1.228285e+02
8.200000e-07	-4.117894e-06	-1.877958e-09	-2.922954e+01	-1.225764e+02
8.300000e-07	-4.087870e-06	-1.879781e-09	-2.901643e+01	-1.223227e+02
8.400000e-07	-4.057709e-06	-1.870875e-09	-2.880234e+01	-1.220658e+02
8.500000e-07	-4.027293e-06	-1.866873e-09	-2.858645e+01	-1.218038e+02
8.600000e-07	-3.996490e-06	-1.863995e-09	-2.836780e+01	-1.215353e+02
8.700000e-07	-3.965418e-06	-1.861481e-09	-2.814724e+01	-1.212589e+02
8.800000e-07	-3.934100e-06	-1.847734e-09	-2.792494e+01	-1.209737e+02
8.900000e-07	-3.902609e-06	-1.839010e-09	-2.770141e+01	-1.206790e+02
9.000000e-07	-3.870985e-06	-1.832775e-09	-2.747694e+01	-1.203746e+02
9.100000e-07	-3.839143e-06	-1.833282e-09	-2.725092e+01	-1.200604e+02
9.200000e-07	-3.807048e-06	-1.827599e-09	-2.702311e+01	-1.197369e+02
9.300000e-07	-3.774718e-06	-1.827109e-09	-2.679362e+01	-1.194046e+02
9.400000e-07	-3.742038e-06	-1.827141e-09	-2.656165e+01	-1.190644e+02
9.500000e-07	-3.708954e-06	-1.828325e-09	-2.632682e+01	-1.187173e+02
9.600000e-07	-3.675539e-06	-1.817904e-09	-2.608963e+01	-1.183643e+02
9.700000e-07	-3.641713e-06	-1.803328e-09	-2.584953e+01	-1.180066e+02
9.800000e-07	-3.607468e-06	-1.789424e-09	-2.560645e+01	-1.176453e+02
9.900000e-07	-3.572774e-06	-1.783862e-09	-2.536019e+01	-1.172812e+02
1.000000e-06	-3.537665e-06	-1.778184e-09	-2.511097e+01	-1.169152e+02
1.010000e-06	-3.502335e-06	-1.775786e-09	-2.486020e+01	-1.165481e+02
1.020000e-06	-3.466912e-06	-1.775341e-09	-2.460876e+01	-1.161802e+02
1.030000e-06	-3.431364e-06	-1.777107e-09	-2.435644e+01	-1.158117e+02
1.040000e-06	-3.395642e-06	-1.773008e-09	-2.410287e+01	-1.154428e+02
1.050000e-06	-3.359756e-06	-1.761316e-09	-2.384815e+01	-1.150733e+02
1.060000e-06	-3.323679e-06	-1.745858e-09	-2.359206e+01	-1.147028e+02
1.070000e-06	-3.287365e-06	-1.732474e-09	-2.333430e+01	-1.143310e+02
1.080000e-06	-3.250803e-06	-1.722304e-09	-2.307478e+01	-1.139572e+02
1.090000e-06	-3.214013e-06	-1.713863e-09	-2.281364e+01	-1.135810e+02
1.100000e-06	-3.176998e-06	-1.709645e-09	-2.255090e+01	-1.132017e+02
1.110000e-06	-3.139711e-06	-1.708163e-09	-2.228623e+01	-1.128187e+02
1.120000e-06	-3.102123e-06	-1.708008e-09	-2.201942e+01	-1.124315e+02
1.130000e-06	-3.064318e-06	-1.701578e-09	-2.175107e+01	-1.120397e+02
1.140000e-06	-3.026331e-06	-1.693754e-09	-2.148144e+01	-1.116429e+02
1.150000e-06	-2.988172e-06	-1.686494e-09	-2.121058e+01	-1.112408e+02
1.160000e-06	-2.949876e-06	-1.679766e-09	-2.093875e+01	-1.108333e+02
1.170000e-06	-2.911345e-06	-1.667406e-09	-2.066525e+01	-1.104205e+02
1.180000e-06	-2.872568e-06	-1.655040e-09	-2.039000e+01	-1.100022e+02
1.190000e-06	-2.833651e-06	-1.646224e-09	-2.011376e+01	-1.095787e+02
1.200000e-06	-2.794553e-06	-1.645633e-09	-1.983624e+01	-1.091501e+02
1.210000e-06	-2.755188e-06	-1.642835e-09	-1.955681e+01	-1.087167e+02
1.220000e-06	-2.715646e-06	-1.638934e-09	-1.927614e+01	-1.082786e+02
1.230000e-06	-2.676090e-06	-1.633639e-09	-1.899536e+01	-1.078360e+02
1.240000e-06	-2.636492e-06	-1.629368e-09	-1.871429e+01	-1.073892e+02
1.250000e-06	-2.596731e-06	-1.620903e-09	-1.843206e+01	-1.069381e+02
1.260000e-06	-2.556810e-06	-1.609024e-09	-1.814869e+01	-1.064830e+02
1.270000e-06	-2.516787e-06	-1.596580e-09	-1.786460e+01	-1.060238e+02
1.280000e-06	-2.476542e-06	-1.590554e-09	-1.757894e+01	-1.055605e+02
1.290000e-06	-2.436022e-06	-1.585232e-09	-1.729132e+01	-1.050930e+02
1.300000e-06	-2.395383e-06	-1.577667e-09	-1.700286e+01	-1.046211e+02
1.310000e-06	-2.354595e-06	-1.568131e-09	-1.671334e+01	-1.041449e+02
1.320000e-06	-2.313591e-06	-1.562706e-09	-1.642228e+01	-1.036641e+02
1.330000e-06	-2.272232e-06	-1.559078e-09	-1.612871e+01	-1.031786e+02
1.340000e-06	-2.230485e-06	-1.553758e-09	-1.583238e+01	-1.026883e+02
1.350000e-06	-2.188529e-06	-1.546135e-09	-1.553457e+01	-1.021931e+02
1.360000e-06	-2.146342e-06	-1.537348e-09	-1.523512e+01	-1.016930e+02
1.370000e-06	-2.103911e-06	-1.526947e-09	-1.493393e+01	-1.011879e+02
1.380000e-06	-2.061201e-06	-1.515104e-09	-1.463077e+01	-1.006778e+02
1.390000e-06	-2.018193e-06	-1.504287e-09	-1.432549e+01	-1.001628e+02
1.400000e-06	-1.975012e-06	-1.495155e-09	-1.401899e+01	-9.964290e+01
1.410000e-06	-1.931702e-06	-1.488144e-09	-1.371156e+01	-9.911813e+01
1.420000e-06	-1.888314e-06	-1.483505e-09	-1.340359e+01	-9.858849e+01
1.430000e-06	-1.844867e-06	-1.481810e-09	-1.309519e+01	-9.805392e+01
1.440000e-06	-1.801329e-06	-1.477875e-09	-1.278615e+01	-9.751433e+01
1.450000e-06	-1.757672e-06	-1.469184e-09	-1.247627e+01	-9.696952e+01
1.460000e-06	-1.713861e-06	-1.456720e-09	-1.216529e+01	-9.641924e+01
1.470000e-06	-1.670006e-06	-1.445265e-09	-1.185400e+01	-9.586310e+01
1.480000e-06	-1.626151e-06	-1.434937e-09	-1.154271e+01	-9.530066e+01
1.490000e-06	-1.582204e-06	-1.427224e-09	-1.123077e+01	-9.473136e+01
1.500000e-06	-1.538178e-06	-1.421181e-09	-1.091826e+01	-9.415457e+01
1.510000e-06	-1.494085e-06	-1.417102e-09	-1.060528e+01	-9.356959e+01
1.520000e-06	-1.449871e-06	-1.409790e-09	-1.029144e+01	-9.297568e+01
1.530000e-06	-1.405510e-06	-1.399439e-09	-9.976558e+00	-9.237209e+01
1.540000e-06	-1.361045e-06	-1.384990e-09	-9.660941e+00	-9.175807e+01
1.550000e-06	-1.316552e-06	-1.370360e-09	-9.345120e+00	-9.113289e+01
1.560000e-06	-1.272075e-06	-1.357428e-09	-9.029413e+00	-9.049591e+01
1.570000e-06	-1.227502e-06	-1.348798e-09	-8.713027e+00	-8.984654e+01
1.580000e-06	-1.182812e-06	-1.342147e-09	-8.395814e+00	-8.918432e+01
1.590000e-06	-1.138032e-06	-1.334836e-09	-8.077956e+00	-8.850889e+01
1.600000e-06	-1.093154e-06	-1.326320e-09	-7.759400e+00	-8.782000e+01
1.610000e-06	-1.048256e-06	-1.316746e-09	-7.440707e+00	-8.711755e+01
1.620000e-06	-1.003287e-06	-1.301722e-09	-7.121508e+00	-8.640150e+01
1.630000e-06	-9.582096e-07	-1.284317e-09	-6.801543e+00	-8.567195e+01
1.640000e-06	-9.130863e-07	-1.268496e-09	-6.481249e+00	-8.492901e+01
1.650000e-06	-8.678492e-07	-1.255361e-09	-6.160148e+00	-8.417287e+01
1.660000e-06	-8.225347e-07	-1.243989e-09	-5.838498e+00	-8.340369e+01
1.670000e-06	-7.771469e-07	-1.234816e-09	-5.516327e+00	-8.262163e+01
1.680000e-06	-7.316646e-07	-1.226071e-09	-5.193486e+00	-8.182674e+01
1.690000e-06	-6.861791e-07	-1.214776e-09	-4.870621e+00	-8.101899e+01
1.700000e-06	-6.407005e-07	-1.200574e-09	-4.547806e+00	-8.019820e+01
1.710000e-06	-5.952244e-07	-1.184971e-09	-4.225009e+00	-7.936405e+01
1.720000e-06	-5.497070e-07	-1.173105e-09	-3.901919e+00	-7.851600e+01
1.730000e-06	-5.039574e-07	-1.162691e-09	-3.577179e+00	-7.765338e+01
1.740000e-06	-4.581344e-07	-1.148418e-09	-3.251919e+00	-7.677528e+01
1.750000e-06	-4.124485e-07	-1.130658e-09	-2.927633e+00	-7.588064e+01
1.760000e-06	-3.667299e-07	-1.114220e-09	-2.603115e+00	-7.496824e+01
1.770000e-06	-3.209041e-07	-1.098185e-09	-2.277835e+00	-7.403670e+01
1.780000e-06	-2.750429e-07	-1.083873e-09	-1.952303e+00	-7.308456e+01
1.790000e-06	-2.292365e-07	-1.069806e-09	-1.627161e+00	-7.211029e+01
1.800000e-06	-1.833967e-07	-1.055164e-09	-1.301783e+00	-7.111231e+01
1.810000e-06	-1.375651e-07	-1.038291e-09	-9.764615e-01	-7.008908e+01
1.820000e-06	-9.167219e-08	-1.020903e-09	-6.507056e-01	-6.903910e+01
1.830000e-06	-4.576010e-08	-1.002141e-09	-3.248133e-01	-6.796095e+01
1.840000e-06	8.014652e-11	-9.821810e-10	5.688943e-04	-6.685334e+01
1.850000e-06	4.597179e-08	-9.643929e-10	3.263159e-01	-6.571511e+01
1.860000e-06	9.183587e-08	-9.513998e-10	6.518674e-01	-6.454528e+01
1.870000e-06	1.376234e-07	-9.403156e-10	9.768751e-01	-6.334301e+01
1.880000e-06	1.834763e-07	-9.255882e-10	1.302348e+00	-6.210763e+01
1.890000e-06	2.293294e-07	-9.042668e-10	1.627821e+00	-6.083865e+01
1.900000e-06	2.750914e-07	-8.803835e-10	1.952648e+00	-5.953570e+01
1.910000e-06	3.208534e-07	-8.570259e-10	2.277474e+00	-5.819852e+01
1.920000e-06	3.666496e-07	-8.358667e-10	2.602544e+00	-5.682697e+01
1.930000e-06	4.123993e-07	-8.161007e-10	2.927284e+00	-5.542093e+01
1.940000e-06	4.580953e-07	-7.968399e-10	3.251642e+00	-5.398036e+01
1.950000e-06	5.037231e-07	-7.788748e-10	3.575516e+00	-5.250517e+01
1.960000e-06	5.492411e-07	-7.584575e-10	3.898611e+00	-5.099529e+01
1.970000e-06	5.947772e-07	-7.319769e-10	4.221835e+00	-4.945058e+01
1.980000e-06	6.402450e-07	-7.026596e-10	4.544573e+00	-4.787083e+01
1.990000e-06	6.856480e-07	-6.755566e-10	4.866851e+00	-4.625579e+01
2.000000e-06	7.310530e-07	-6.506738e-10	5.189144e+00	-4.460510e+01
2.010000e-06	7.764381e-07	-6.268621e-10	5.511296e+00	-4.291835e+01
2.020000e-06	8.218222e-07	-6.038328e-10	5.833440e+00	-4.119509e+01
2.030000e-06	8.671552e-07	-5.786541e-10	6.155222e+00	-3.943479e+01
2.040000e-06	9.124540e-07	-5.502117e-10	6.476761e+00	-3.763694e+01
2.050000e-06	9.576858e-07	-5.192397e-10	6.797825e+00	-3.580102e+01
2.060000e-06	1.002783e-06	-4.863729e-10	7.117933e+00	-3.392656e+01
2.070000e-06	1.047792e-06	-4.554159e-10	7.437413e+00	-3.201315e+01
2.080000e-06	1.092725e-06	-4.266588e-10	7.756355e+00	-3.006046e+01
2.090000e-06	1.137587e-06	-3.982493e-10	8.074798e+00	-2.806828e+01
2.100000e-06	1.182361e-06	-3.704978e-10	8.392612e+00	-2.603654e+01
2.110000e-06	1.226966e-06	-3.428513e-10	8.709224e+00	-2.396530e+01
2.120000e-06	1.271472e-06	-3.116172e-10	9.025134e+00	-2.185481e+01
2.130000e-06	1.315978e-06	-2.770940e-10	9.341049e+00	-1.970543e+01
2.140000e-06	1.360393e-06	-2.418224e-10	9.656313e+00	-1.751772e+01
2.150000e-06	1.404669e-06	-2.097641e-10	9.970589e+00	-1.529235e+01
2.160000e-06	1.448806e-06	-1.798299e-10	1.028388e+01	-1.303018e+01
2.170000e-06	1.492899e-06	-1.470127e-10	1.059686e+01	-1.073216e+01
2.180000e-06	1.536996e-06	-1.139546e-10	1.090987e+01	-8.399364e+00
2.190000e-06	1.581009e-06	-8.332315e-11	1.122228e+01	-6.032991e+00
2.200000e-06	1.624899e-06	-5.054691e-11	1.153382e+01	-3.634319e+00
2.210000e-06	1.668676e-06	-1.338554e-11	1.184456e+01	-1.204718e+00
2.220000e-06	1.712395e-06	2.733002e-11	1.215489e+01	1.254355e+00
2.230000e-06	1.756044e-06	6.871736e-11	1.246471e+01	3.741358e+00
2.240000e-06	1.799649e-06	1.086727e-10	1.277423e+01	6.254654e+00
2.250000e-06	1.843246e-06	1.458393e-10	1.308369e+01	8.792505e+00
2.260000e-06	1.886751e-06	1.825692e-10	1.339250e+01	1.135306e+01
2.270000e-06	1.930106e-06	2.208597e-10	1.370024e+01	1.393433e+01
2.280000e-06	1.973336e-06	2.604737e-10	1.400709e+01	1.653418e+01
2.290000e-06	2.016437e-06	3.006612e-10	1.431303e+01	1.915031e+01
2.300000e-06	2.059471e-06	3.404232e-10	1.461850e+01	2.178024e+01
2.310000e-06	2.102415e-06	3.805778e-10	1.492332e+01	2.442131e+01
2.320000e-06	2.144983e-06	4.199518e-10	1.522547e+01	2.707064e+01
2.330000e-06	2.187126e-06	4.570516e-10	1.552461e+01	2.972517e+01
2.340000e-06	2.229071e-06	4.925703e-10	1.582235e+01	3.238165e+01
2.350000e-06	2.270705e-06	5.288690e-10	1.611787e+01	3.503666e+01
2.360000e-06	2.311945e-06	5.678594e-10	1.641059e+01	3.768664e+01
2.370000e-06	2.352899e-06	6.114411e-10	1.670130e+01	4.032790e+01
2.380000e-06	2.393625e-06	6.553735e-10	1.699038e+01	4.295671e+01
2.390000e-06	2.434206e-06	6.970535e-10	1.727843e+01	4.556928e+01
2.400000e-06	2.474521e-06	7.345176e-10	1.756459e+01	4.816188e+01
2.410000e-06	2.514616e-06	7.669630e-10	1.784919e+01	5.073082e+01
2.420000e-06	2.554612e-06	7.994915e-10	1.813309e+01	5.327257e+01
2.430000e-06	2.594497e-06	8.349383e-10	1.841620e+01	5.578376e+01
2.440000e-06	2.634287e-06	8.738159e-10	1.869864e+01	5.826126e+01
2.450000e-06	2.673968e-06	9.150401e-10	1.898030e+01	6.070220e+01
2.460000e-06	2.713598e-06	9.601384e-10	1.926160e+01	6.310399e+01
2.470000e-06	2.753152e-06	1.002667e-09	1.954236e+01	6.546436e+01
2.480000e-06	2.792507e-06	1.035886e-09	1.982172e+01	6.778139e+01
2.490000e-06	2.831536e-06	1.062126e-09	2.009875e+01	7.005345e+01
2.500000e-06	2.870364e-06	1.088488e-09	2.037436e+01	7.227924e+01
2.510000e-06	2.909063e-06	1.120307e-09	2.064905e+01	7.445775e+01
2.520000e-06	2.947464e-06	1.158021e-09	2.092163e+01	7.658825e+01
2.530000e-06	2.985621e-06	1.197340e-09	2.119247e+01	7.867021e+01
2.540000e-06	3.023646e-06	1.235336e-09	2.146238e+01	8.070332e+01
2.550000e-06	3.061508e-06	1.268620e-09	2.173113e+01	8.268741e+01
2.560000e-06	3.099165e-06	1.295860e-09	2.199842e+01	8.462242e+01
2.570000e-06	3.136613e-06	1.317952e-09	2.226424e+01	8.650837e+01
2.580000e-06	3.173906e-06	1.336811e-09	2.252895e+01	8.834532e+01
2.590000e-06	3.210984e-06	1.359496e-09	2.279214e+01	9.013334e+01
2.600000e-06	3.247723e-06	1.390305e-09	2.305292e+01	9.187251e+01
2.610000e-06	3.284206e-06	1.427534e-09	2.331188e+01	9.356289e+01
2.620000e-06	3.320494e-06	1.461595e-09	2.356946e+01	9.520453e+01
2.630000e-06	3.356543e-06	1.486252e-09	2.382534e+01	9.679749e+01
2.640000e-06	3.392418e-06	1.502947e-09	2.407999e+01	9.834181e+01
2.650000e-06	3.428155e-06	1.513941e-09	2.433365e+01	9.983760e+01
2.660000e-06	3.463798e-06	1.522573e-09	2.458666e+01	1.012850e+02
2.670000e-06	3.499334e-06	1.534242e-09	2.483889e+01	1.026843e+02
2.680000e-06	3.534649e-06	1.556614e-09	2.508957e+01	1.040357e+02
2.690000e-06	3.569765e-06	1.590062e-09	2.533883e+01	1.053399e+02
2.700000e-06	3.604553e-06	1.625827e-09	2.558576e+01	1.065974e+02
2.710000e-06	3.638863e-06	1.655089e-09	2.582929e+01	1.078091e+02
2.720000e-06	3.672771e-06	1.670851e-09	2.606998e+01	1.089759e+02
2.730000e-06	3.706333e-06	1.677702e-09	2.630821e+01	1.100989e+02
2.740000e-06	3.739429e-06	1.681518e-09	2.654313e+01	1.111796e+02
2.750000e-06	3.771962e-06	1.688488e-09	2.677406e+01	1.122194e+02
2.760000e-06	3.804122e-06	1.701943e-09	2.700234e+01	1.132197e+02
2.770000e-06	3.836070e-06	1.721262e-09	2.722911e+01	1.141823e+02
2.780000e-06	3.867869e-06	1.747124e-09	2.745482e+01	1.151088e+02
2.790000e-06	3.899579e-06	1.772356e-09	2.767991e+01	1.160009e+02
2.800000e-06	3.931176e-06	1.787684e-09	2.790419e+01	1.168601e+02
2.810000e-06	3.962599e-06	1.791237e-09	2.812723e+01	1.176879e+02
2.820000e-06	3.993854e-06	1.790843e-09	2.834909e+01	1.184858e+02
2.830000e-06	4.024801e-06	1.794311e-09	2.856876e+01	1.192550e+02
2.840000e-06	4.055249e-06	1.802258e-09	2.878488e+01	1.199966e+02
2.850000e-06	4.085341e-06	1.815178e-09	2.899848e+01	1.207114e+02
2.860000e-06	4.115198e-06	1.833187e-09	2.921041e+01	1.214001e+02
2.870000e-06	4.144834e-06	1.852437e-09	2.942077e+01	1.220634e+02
2.880000e-06	4.174178e-06	1.867522e-09	2.962906e+01	1.227015e+02
2.890000e-06	4.203186e-06	1.873735e-09	2.983496e+01	1.233149e+02
2.900000e-06	4.231940e-06	1.874426e-09	3.003906e+01	1.239038e+02
