# Temperatura_=_18.96
# Concentracion g/m^3_=_4090.0
# C_Vs_to_Am_M_A/Vsm_=_65563218390.804596
# pendiente_HvsI_1/m_=_3716.3
# ordenada_HvsI_A/m_=_1297.0
# frecuencia_Hz_=_135085.44821473444

Tiempo_(s)	Campo_(V.s)	Magnetizacion_(V.s)	Campo_(kA/m)	Magnetizacion_(A/m)
0.000000e+00	-5.409776e-06	-1.266907e-09	-3.839304e+01	-8.657373e+01
1.000000e-08	-5.409779e-06	-1.262988e-09	-3.839306e+01	-8.640419e+01
2.000000e-08	-5.409627e-06	-1.260121e-09	-3.839198e+01	-8.621451e+01
3.000000e-08	-5.409209e-06	-1.257644e-09	-3.838902e+01	-8.600608e+01
4.000000e-08	-5.408314e-06	-1.257854e-09	-3.838266e+01	-8.578132e+01
5.000000e-08	-5.406911e-06	-1.262766e-09	-3.837271e+01	-8.554372e+01
6.000000e-08	-5.404944e-06	-1.269312e-09	-3.835875e+01	-8.529775e+01
7.000000e-08	-5.402303e-06	-1.273081e-09	-3.834000e+01	-8.504874e+01
8.000000e-08	-5.399061e-06	-1.262871e-09	-3.831699e+01	-8.480273e+01
9.000000e-08	-5.395226e-06	-1.253056e-09	-3.828978e+01	-8.456623e+01
1.000000e-07	-5.390931e-06	-1.278630e-09	-3.825930e+01	-8.434603e+01
1.100000e-07	-5.386463e-06	-1.293786e-09	-3.822759e+01	-8.414892e+01
1.200000e-07	-5.381956e-06	-1.239735e-09	-3.819560e+01	-8.398139e+01
1.300000e-07	-5.377237e-06	-1.215321e-09	-3.816211e+01	-8.384943e+01
1.400000e-07	-5.372033e-06	-1.266606e-09	-3.812517e+01	-8.375820e+01
1.500000e-07	-5.366368e-06	-1.315401e-09	-3.808497e+01	-8.371181e+01
1.600000e-07	-5.360394e-06	-1.245490e-09	-3.804257e+01	-8.371317e+01
1.700000e-07	-5.354040e-06	-1.186392e-09	-3.799748e+01	-8.376375e+01
1.800000e-07	-5.347173e-06	-1.253299e-09	-3.794875e+01	-8.386355e+01
1.900000e-07	-5.339903e-06	-1.321000e-09	-3.789715e+01	-8.401102e+01
2.000000e-07	-5.332380e-06	-1.273550e-09	-3.784376e+01	-8.420306e+01
2.100000e-07	-5.324698e-06	-1.234843e-09	-3.778924e+01	-8.443515e+01
2.200000e-07	-5.316798e-06	-1.301059e-09	-3.773318e+01	-8.470143e+01
2.300000e-07	-5.308654e-06	-1.341131e-09	-3.767538e+01	-8.499491e+01
2.400000e-07	-5.300111e-06	-1.314959e-09	-3.761475e+01	-8.530771e+01
2.500000e-07	-5.290898e-06	-1.331681e-09	-3.754936e+01	-8.563133e+01
2.600000e-07	-5.280898e-06	-1.402678e-09	-3.747839e+01	-8.595696e+01
2.700000e-07	-5.270267e-06	-1.399980e-09	-3.740295e+01	-8.627575e+01
2.800000e-07	-5.259164e-06	-1.361426e-09	-3.732415e+01	-8.657914e+01
2.900000e-07	-5.247615e-06	-1.362679e-09	-3.724219e+01	-8.685916e+01
3.000000e-07	-5.235751e-06	-1.375105e-09	-3.715799e+01	-8.710870e+01
3.100000e-07	-5.223540e-06	-1.343623e-09	-3.707133e+01	-8.732172e+01
3.200000e-07	-5.210890e-06	-1.360253e-09	-3.698155e+01	-8.749342e+01
3.300000e-07	-5.197854e-06	-1.400937e-09	-3.688903e+01	-8.762042e+01
3.400000e-07	-5.184475e-06	-1.380904e-09	-3.679408e+01	-8.770076e+01
3.500000e-07	-5.170718e-06	-1.350600e-09	-3.669645e+01	-8.773399e+01
3.600000e-07	-5.156666e-06	-1.381129e-09	-3.659673e+01	-8.772102e+01
3.700000e-07	-5.142127e-06	-1.375359e-09	-3.649354e+01	-8.766411e+01
3.800000e-07	-5.126940e-06	-1.317876e-09	-3.638576e+01	-8.756664e+01
3.900000e-07	-5.111157e-06	-1.316085e-09	-3.627375e+01	-8.743296e+01
4.000000e-07	-5.094823e-06	-1.351301e-09	-3.615783e+01	-8.726811e+01
4.100000e-07	-5.078136e-06	-1.346471e-09	-3.603940e+01	-8.707764e+01
4.200000e-07	-5.061188e-06	-1.341067e-09	-3.591912e+01	-8.686730e+01
4.300000e-07	-5.043962e-06	-1.360500e-09	-3.579687e+01	-8.664278e+01
4.400000e-07	-5.026513e-06	-1.353201e-09	-3.567303e+01	-8.640954e+01
4.500000e-07	-5.008739e-06	-1.333722e-09	-3.554689e+01	-8.617251e+01
4.600000e-07	-4.990615e-06	-1.330786e-09	-3.541827e+01	-8.593599e+01
4.700000e-07	-4.972126e-06	-1.321447e-09	-3.528705e+01	-8.570348e+01
4.800000e-07	-4.953161e-06	-1.304089e-09	-3.515246e+01	-8.547756e+01
4.900000e-07	-4.933766e-06	-1.315158e-09	-3.501481e+01	-8.525995e+01
5.000000e-07	-4.914083e-06	-1.320690e-09	-3.487512e+01	-8.505139e+01
5.100000e-07	-4.894164e-06	-1.310140e-09	-3.473375e+01	-8.485179e+01
5.200000e-07	-4.874055e-06	-1.306675e-09	-3.459104e+01	-8.466029e+01
5.300000e-07	-4.853789e-06	-1.307822e-09	-3.444722e+01	-8.447539e+01
5.400000e-07	-4.833233e-06	-1.297979e-09	-3.430133e+01	-8.429508e+01
5.500000e-07	-4.812293e-06	-1.295668e-09	-3.415271e+01	-8.411706e+01
5.600000e-07	-4.790912e-06	-1.295974e-09	-3.400098e+01	-8.393886e+01
5.700000e-07	-4.769267e-06	-1.287846e-09	-3.384737e+01	-8.375806e+01
5.800000e-07	-4.747407e-06	-1.278165e-09	-3.369222e+01	-8.357239e+01
5.900000e-07	-4.725103e-06	-1.274918e-09	-3.353393e+01	-8.337995e+01
6.000000e-07	-4.702435e-06	-1.268917e-09	-3.337306e+01	-8.317925e+01
6.100000e-07	-4.679444e-06	-1.267104e-09	-3.320989e+01	-8.296933e+01
6.200000e-07	-4.656119e-06	-1.268167e-09	-3.304435e+01	-8.274980e+01
6.300000e-07	-4.632558e-06	-1.267740e-09	-3.287715e+01	-8.252084e+01
6.400000e-07	-4.608783e-06	-1.269227e-09	-3.270841e+01	-8.228318e+01
6.500000e-07	-4.584800e-06	-1.268676e-09	-3.253821e+01	-8.203803e+01
6.600000e-07	-4.560613e-06	-1.257886e-09	-3.236655e+01	-8.178705e+01
6.700000e-07	-4.536160e-06	-1.247571e-09	-3.219301e+01	-8.153215e+01
6.800000e-07	-4.511248e-06	-1.245461e-09	-3.201621e+01	-8.127547e+01
6.900000e-07	-4.485785e-06	-1.246192e-09	-3.183550e+01	-8.101916e+01
7.000000e-07	-4.459730e-06	-1.243734e-09	-3.165059e+01	-8.076533e+01
7.100000e-07	-4.433155e-06	-1.240728e-09	-3.146198e+01	-8.051588e+01
7.200000e-07	-4.406203e-06	-1.241747e-09	-3.127071e+01	-8.027243e+01
7.300000e-07	-4.378908e-06	-1.244002e-09	-3.107699e+01	-8.003618e+01
7.400000e-07	-4.351273e-06	-1.238902e-09	-3.088087e+01	-7.980792e+01
7.500000e-07	-4.323441e-06	-1.227628e-09	-3.068334e+01	-7.958795e+01
7.600000e-07	-4.295441e-06	-1.223296e-09	-3.048463e+01	-7.937607e+01
7.700000e-07	-4.267167e-06	-1.223492e-09	-3.028397e+01	-7.917163e+01
7.800000e-07	-4.238684e-06	-1.219934e-09	-3.008183e+01	-7.897355e+01
7.900000e-07	-4.209883e-06	-1.212300e-09	-2.987743e+01	-7.878042e+01
8.000000e-07	-4.180750e-06	-1.209666e-09	-2.967067e+01	-7.859052e+01
8.100000e-07	-4.151378e-06	-1.208680e-09	-2.946222e+01	-7.840201e+01
8.200000e-07	-4.121671e-06	-1.204605e-09	-2.925139e+01	-7.821294e+01
8.300000e-07	-4.091728e-06	-1.195562e-09	-2.903889e+01	-7.802142e+01
8.400000e-07	-4.061610e-06	-1.190277e-09	-2.882514e+01	-7.782570e+01
8.500000e-07	-4.031141e-06	-1.193545e-09	-2.860890e+01	-7.762421e+01
8.600000e-07	-4.000155e-06	-1.198081e-09	-2.838900e+01	-7.741571e+01
8.700000e-07	-3.968978e-06	-1.195070e-09	-2.816774e+01	-7.719926e+01
8.800000e-07	-3.937711e-06	-1.189185e-09	-2.794583e+01	-7.697430e+01
8.900000e-07	-3.906097e-06	-1.184236e-09	-2.772147e+01	-7.674064e+01
9.000000e-07	-3.874344e-06	-1.178764e-09	-2.749612e+01	-7.649844e+01
9.100000e-07	-3.842538e-06	-1.169041e-09	-2.727039e+01	-7.624820e+01
9.200000e-07	-3.810575e-06	-1.161969e-09	-2.704355e+01	-7.599068e+01
9.300000e-07	-3.778369e-06	-1.164708e-09	-2.681498e+01	-7.572683e+01
9.400000e-07	-3.745776e-06	-1.174703e-09	-2.658368e+01	-7.545775e+01
9.500000e-07	-3.712899e-06	-1.180329e-09	-2.635035e+01	-7.518460e+01
9.600000e-07	-3.679707e-06	-1.176959e-09	-2.611479e+01	-7.490851e+01
9.700000e-07	-3.646040e-06	-1.166921e-09	-2.587585e+01	-7.463054e+01
9.800000e-07	-3.611931e-06	-1.153531e-09	-2.563378e+01	-7.435159e+01
9.900000e-07	-3.577418e-06	-1.137535e-09	-2.538884e+01	-7.407236e+01
1.000000e-06	-3.542465e-06	-1.125048e-09	-2.514078e+01	-7.379334e+01
1.010000e-06	-3.507149e-06	-1.123630e-09	-2.489015e+01	-7.351477e+01
1.020000e-06	-3.471601e-06	-1.131297e-09	-2.463786e+01	-7.323666e+01
1.030000e-06	-3.435868e-06	-1.139426e-09	-2.438426e+01	-7.295881e+01
1.040000e-06	-3.399985e-06	-1.140890e-09	-2.412960e+01	-7.268082e+01
1.050000e-06	-3.363948e-06	-1.137075e-09	-2.387385e+01	-7.240217e+01
1.060000e-06	-3.327770e-06	-1.128375e-09	-2.361710e+01	-7.212224e+01
1.070000e-06	-3.291447e-06	-1.113631e-09	-2.335932e+01	-7.184038e+01
1.080000e-06	-3.254953e-06	-1.095918e-09	-2.310031e+01	-7.155599e+01
1.090000e-06	-3.218187e-06	-1.087515e-09	-2.283939e+01	-7.126851e+01
1.100000e-06	-3.181145e-06	-1.091337e-09	-2.257650e+01	-7.097755e+01
1.110000e-06	-3.143864e-06	-1.096901e-09	-2.231192e+01	-7.068285e+01
1.120000e-06	-3.106327e-06	-1.095195e-09	-2.204552e+01	-7.038435e+01
1.130000e-06	-3.068588e-06	-1.088892e-09	-2.177769e+01	-7.008218e+01
1.140000e-06	-3.030684e-06	-1.082700e-09	-2.150869e+01	-6.977664e+01
1.150000e-06	-2.992587e-06	-1.075379e-09	-2.123831e+01	-6.946819e+01
1.160000e-06	-2.954297e-06	-1.063926e-09	-2.096657e+01	-6.915745e+01
1.170000e-06	-2.915719e-06	-1.054349e-09	-2.069278e+01	-6.884509e+01
1.180000e-06	-2.876894e-06	-1.052244e-09	-2.041724e+01	-6.853183e+01
1.190000e-06	-2.837920e-06	-1.050792e-09	-2.014065e+01	-6.821835e+01
1.200000e-06	-2.798628e-06	-1.046878e-09	-1.986179e+01	-6.790525e+01
1.210000e-06	-2.759159e-06	-1.044194e-09	-1.958168e+01	-6.759303e+01
1.220000e-06	-2.719666e-06	-1.041401e-09	-1.930140e+01	-6.728197e+01
1.230000e-06	-2.680015e-06	-1.037192e-09	-1.901999e+01	-6.697216e+01
1.240000e-06	-2.640200e-06	-1.028675e-09	-1.873743e+01	-6.666344e+01
1.250000e-06	-2.600262e-06	-1.019277e-09	-1.845399e+01	-6.635542e+01
1.260000e-06	-2.560272e-06	-1.013669e-09	-1.817018e+01	-6.604746e+01
1.270000e-06	-2.520190e-06	-1.011794e-09	-1.788572e+01	-6.573871e+01
1.280000e-06	-2.479927e-06	-1.008791e-09	-1.759997e+01	-6.542814e+01
1.290000e-06	-2.439538e-06	-1.002765e-09	-1.731334e+01	-6.511456e+01
1.300000e-06	-2.398980e-06	-9.967282e-10	-1.702550e+01	-6.479675e+01
1.310000e-06	-2.358253e-06	-9.889984e-10	-1.673646e+01	-6.447341e+01
1.320000e-06	-2.317363e-06	-9.827420e-10	-1.644626e+01	-6.414334e+01
1.330000e-06	-2.276132e-06	-9.785474e-10	-1.615365e+01	-6.380540e+01
1.340000e-06	-2.234594e-06	-9.779529e-10	-1.585885e+01	-6.345864e+01
1.350000e-06	-2.192829e-06	-9.789490e-10	-1.556245e+01	-6.310230e+01
1.360000e-06	-2.150761e-06	-9.757786e-10	-1.526389e+01	-6.273589e+01
1.370000e-06	-2.108440e-06	-9.675148e-10	-1.496354e+01	-6.235916e+01
1.380000e-06	-2.065885e-06	-9.567971e-10	-1.466153e+01	-6.197214e+01
1.390000e-06	-2.023070e-06	-9.467094e-10	-1.435768e+01	-6.157513e+01
1.400000e-06	-1.980101e-06	-9.371669e-10	-1.405272e+01	-6.116866e+01
1.410000e-06	-1.936928e-06	-9.271343e-10	-1.374633e+01	-6.075348e+01
1.420000e-06	-1.893527e-06	-9.201431e-10	-1.343831e+01	-6.033047e+01
1.430000e-06	-1.850039e-06	-9.185744e-10	-1.312968e+01	-5.990064e+01
1.440000e-06	-1.806428e-06	-9.164838e-10	-1.282017e+01	-5.946501e+01
1.450000e-06	-1.762704e-06	-9.082254e-10	-1.250987e+01	-5.902458e+01
1.460000e-06	-1.718927e-06	-8.981778e-10	-1.219918e+01	-5.858028e+01
1.470000e-06	-1.675029e-06	-8.905235e-10	-1.188764e+01	-5.813288e+01
1.480000e-06	-1.631077e-06	-8.850917e-10	-1.157571e+01	-5.768296e+01
1.490000e-06	-1.587103e-06	-8.801480e-10	-1.126363e+01	-5.723089e+01
1.500000e-06	-1.543080e-06	-8.737046e-10	-1.095120e+01	-5.677677e+01
1.510000e-06	-1.498986e-06	-8.677291e-10	-1.063827e+01	-5.632049e+01
1.520000e-06	-1.454793e-06	-8.612731e-10	-1.032463e+01	-5.586166e+01
1.530000e-06	-1.410524e-06	-8.512059e-10	-1.001045e+01	-5.539967e+01
1.540000e-06	-1.366152e-06	-8.387162e-10	-9.695547e+00	-5.493374e+01
1.550000e-06	-1.321601e-06	-8.282571e-10	-9.379366e+00	-5.446293e+01
1.560000e-06	-1.276927e-06	-8.196736e-10	-9.062318e+00	-5.398620e+01
1.570000e-06	-1.232265e-06	-8.145155e-10	-8.745350e+00	-5.350247e+01
1.580000e-06	-1.187625e-06	-8.106805e-10	-8.428542e+00	-5.301068e+01
1.590000e-06	-1.142919e-06	-8.053627e-10	-8.111264e+00	-5.250981e+01
1.600000e-06	-1.098083e-06	-7.993840e-10	-7.793065e+00	-5.199897e+01
1.610000e-06	-1.053117e-06	-7.892805e-10	-7.473940e+00	-5.147740e+01
1.620000e-06	-1.008054e-06	-7.745133e-10	-7.154130e+00	-5.094448e+01
1.630000e-06	-9.629414e-07	-7.591671e-10	-6.833970e+00	-5.039980e+01
1.640000e-06	-9.178001e-07	-7.470140e-10	-6.513603e+00	-4.984310e+01
1.650000e-06	-8.725500e-07	-7.403597e-10	-6.192464e+00	-4.927427e+01
1.660000e-06	-8.271652e-07	-7.345941e-10	-5.870370e+00	-4.869332e+01
1.670000e-06	-7.817103e-07	-7.290140e-10	-5.547778e+00	-4.810037e+01
1.680000e-06	-7.361616e-07	-7.244380e-10	-5.224520e+00	-4.749554e+01
1.690000e-06	-6.905916e-07	-7.163468e-10	-4.901111e+00	-4.687895e+01
1.700000e-06	-6.449890e-07	-7.021853e-10	-4.577470e+00	-4.625067e+01
1.710000e-06	-5.994431e-07	-6.850852e-10	-4.254232e+00	-4.561061e+01
1.720000e-06	-5.538880e-07	-6.721730e-10	-3.930928e+00	-4.495855e+01
1.730000e-06	-5.081864e-07	-6.637911e-10	-3.606586e+00	-4.429405e+01
1.740000e-06	-4.624618e-07	-6.565073e-10	-3.282079e+00	-4.361642e+01
1.750000e-06	-4.167202e-07	-6.485689e-10	-2.957452e+00	-4.292476e+01
1.760000e-06	-3.709524e-07	-6.403975e-10	-2.632639e+00	-4.221790e+01
1.770000e-06	-3.251478e-07	-6.281146e-10	-2.307565e+00	-4.149446e+01
1.780000e-06	-2.792441e-07	-6.112789e-10	-1.981788e+00	-4.075285e+01
1.790000e-06	-2.333159e-07	-5.944273e-10	-1.655837e+00	-3.999130e+01
1.800000e-06	-1.874613e-07	-5.782797e-10	-1.330408e+00	-3.920798e+01
1.810000e-06	-1.416208e-07	-5.613141e-10	-1.005079e+00	-3.840096e+01
1.820000e-06	-9.579601e-08	-5.455342e-10	-6.798618e-01	-3.756835e+01
1.830000e-06	-4.995737e-08	-5.328475e-10	-3.545462e-01	-3.670835e+01
1.840000e-06	-4.148519e-09	-5.221409e-10	-2.944193e-02	-3.581928e+01
1.850000e-06	4.168119e-08	-5.123408e-10	2.958103e-01	-3.489967e+01
1.860000e-06	8.760707e-08	-4.976790e-10	6.217451e-01	-3.394828e+01
1.870000e-06	1.335671e-07	-4.806979e-10	9.479221e-01	-3.296417e+01
1.880000e-06	1.795050e-07	-4.680500e-10	1.273943e+00	-3.194668e+01
1.890000e-06	2.254760e-07	-4.530749e-10	1.600198e+00	-3.089547e+01
1.900000e-06	2.713750e-07	-4.312633e-10	1.925942e+00	-2.981050e+01
1.910000e-06	3.171459e-07	-4.078192e-10	2.250776e+00	-2.869202e+01
1.920000e-06	3.629382e-07	-3.886540e-10	2.575763e+00	-2.754051e+01
1.930000e-06	4.087872e-07	-3.736342e-10	2.901152e+00	-2.635667e+01
1.940000e-06	4.545755e-07	-3.580012e-10	3.226111e+00	-2.514136e+01
1.950000e-06	5.002642e-07	-3.397237e-10	3.550362e+00	-2.389552e+01
1.960000e-06	5.459509e-07	-3.222990e-10	3.874599e+00	-2.262014e+01
1.970000e-06	5.915610e-07	-3.051123e-10	4.198293e+00	-2.131621e+01
1.980000e-06	6.371258e-07	-2.829315e-10	4.521665e+00	-1.998465e+01
1.990000e-06	6.826508e-07	-2.565383e-10	4.844755e+00	-1.862629e+01
2.000000e-06	7.280845e-07	-2.314307e-10	5.167197e+00	-1.724181e+01
2.010000e-06	7.734740e-07	-2.120998e-10	5.489325e+00	-1.583177e+01
2.020000e-06	8.189141e-07	-1.946103e-10	5.811812e+00	-1.439658e+01
2.030000e-06	8.642976e-07	-1.708254e-10	6.133898e+00	-1.293650e+01
2.040000e-06	9.095364e-07	-1.442614e-10	6.454956e+00	-1.145168e+01
2.050000e-06	9.546834e-07	-1.215578e-10	6.775363e+00	-9.942203e+00
2.060000e-06	9.996929e-07	-9.889774e-11	7.094794e+00	-8.408100e+00
2.070000e-06	1.044678e-06	-7.095237e-11	7.414052e+00	-6.849421e+00
2.080000e-06	1.089676e-06	-4.257252e-11	7.733404e+00	-5.266279e+00
2.090000e-06	1.134531e-06	-2.040310e-11	8.051736e+00	-3.658906e+00
2.100000e-06	1.179222e-06	-1.320473e-12	8.368910e+00	-2.027699e+00
2.110000e-06	1.223828e-06	2.364432e-11	8.685475e+00	-3.732663e-01
2.120000e-06	1.268363e-06	5.358219e-11	9.001541e+00	1.303539e+00
2.130000e-06	1.312813e-06	7.877210e-11	9.316998e+00	3.001599e+00
2.140000e-06	1.357206e-06	1.001133e-10	9.632056e+00	4.719513e+00
2.150000e-06	1.401525e-06	1.250038e-10	9.946583e+00	6.455607e+00
2.160000e-06	1.445709e-06	1.526918e-10	1.026016e+01	8.207944e+00
2.170000e-06	1.489819e-06	1.754383e-10	1.057321e+01	9.974353e+00
2.180000e-06	1.533916e-06	1.918200e-10	1.088616e+01	1.175247e+01
2.190000e-06	1.577995e-06	2.126987e-10	1.119899e+01	1.353976e+01
2.200000e-06	1.621985e-06	2.440360e-10	1.151119e+01	1.533362e+01
2.210000e-06	1.665911e-06	2.765183e-10	1.182293e+01	1.713138e+01
2.220000e-06	1.709816e-06	3.058703e-10	1.213452e+01	1.893039e+01
2.230000e-06	1.753624e-06	3.363167e-10	1.244543e+01	2.072806e+01
2.240000e-06	1.797325e-06	3.690142e-10	1.275557e+01	2.252188e+01
2.250000e-06	1.840927e-06	3.973353e-10	1.306501e+01	2.430954e+01
2.260000e-06	1.884474e-06	4.175426e-10	1.337406e+01	2.608883e+01
2.270000e-06	1.927971e-06	4.366128e-10	1.368276e+01	2.785779e+01
2.280000e-06	1.971280e-06	4.625130e-10	1.399012e+01	2.961462e+01
2.290000e-06	2.014275e-06	4.935544e-10	1.429526e+01	3.135769e+01
2.300000e-06	2.056971e-06	5.232434e-10	1.459827e+01	3.308555e+01
2.310000e-06	2.099497e-06	5.510282e-10	1.490007e+01	3.479690e+01
2.320000e-06	2.141924e-06	5.807840e-10	1.520118e+01	3.649053e+01
2.330000e-06	2.184091e-06	6.110545e-10	1.550044e+01	3.816531e+01
2.340000e-06	2.225840e-06	6.324722e-10	1.579673e+01	3.982011e+01
2.350000e-06	2.267279e-06	6.467530e-10	1.609082e+01	4.145383e+01
2.360000e-06	2.308430e-06	6.656009e-10	1.638287e+01	4.306531e+01
2.370000e-06	2.349305e-06	6.915532e-10	1.667295e+01	4.465332e+01
2.380000e-06	2.390016e-06	7.189515e-10	1.696188e+01	4.621656e+01
2.390000e-06	2.430541e-06	7.451528e-10	1.724948e+01	4.775363e+01
2.400000e-06	2.470879e-06	7.719264e-10	1.753576e+01	4.926305e+01
2.410000e-06	2.511060e-06	8.003138e-10	1.782092e+01	5.074324e+01
2.420000e-06	2.551098e-06	8.259643e-10	1.810507e+01	5.219262e+01
2.430000e-06	2.591050e-06	8.450371e-10	1.838861e+01	5.360955e+01
2.440000e-06	2.630954e-06	8.605858e-10	1.867181e+01	5.499246e+01
2.450000e-06	2.670718e-06	8.778738e-10	1.895402e+01	5.633983e+01
2.460000e-06	2.710444e-06	9.003616e-10	1.923595e+01	5.765029e+01
2.470000e-06	2.750066e-06	9.205936e-10	1.951714e+01	5.892264e+01
2.480000e-06	2.789386e-06	9.386932e-10	1.979620e+01	6.015591e+01
2.490000e-06	2.828518e-06	9.574623e-10	2.007392e+01	6.134940e+01
2.500000e-06	2.867392e-06	9.778611e-10	2.034980e+01	6.250271e+01
2.510000e-06	2.905980e-06	9.975185e-10	2.062367e+01	6.361578e+01
2.520000e-06	2.944391e-06	1.015740e-09	2.089626e+01	6.468886e+01
2.530000e-06	2.982596e-06	1.035296e-09	2.116740e+01	6.572256e+01
2.540000e-06	3.020650e-06	1.054611e-09	2.143747e+01	6.671782e+01
2.550000e-06	3.058554e-06	1.068277e-09	2.170648e+01	6.767585e+01
2.560000e-06	3.096235e-06	1.076327e-09	2.197390e+01	6.859815e+01
2.570000e-06	3.133743e-06	1.087224e-09	2.224010e+01	6.948640e+01
2.580000e-06	3.171007e-06	1.101518e-09	2.250456e+01	7.034246e+01
2.590000e-06	3.207986e-06	1.114766e-09	2.276699e+01	7.116830e+01
2.600000e-06	3.244724e-06	1.127423e-09	2.302772e+01	7.196590e+01
2.610000e-06	3.281215e-06	1.145522e-09	2.328670e+01	7.273724e+01
2.620000e-06	3.317516e-06	1.164440e-09	2.354433e+01	7.348421e+01
2.630000e-06	3.353712e-06	1.174328e-09	2.380121e+01	7.420857e+01
2.640000e-06	3.389778e-06	1.174258e-09	2.405716e+01	7.491191e+01
2.650000e-06	3.425657e-06	1.175885e-09	2.431180e+01	7.559559e+01
2.660000e-06	3.461383e-06	1.184280e-09	2.456534e+01	7.626076e+01
2.670000e-06	3.496961e-06	1.192487e-09	2.481784e+01	7.690830e+01
2.680000e-06	3.532353e-06	1.200470e-09	2.506901e+01	7.753884e+01
2.690000e-06	3.567479e-06	1.211400e-09	2.531830e+01	7.815277e+01
2.700000e-06	3.602248e-06	1.228036e-09	2.556506e+01	7.875024e+01
2.710000e-06	3.636441e-06	1.242166e-09	2.580772e+01	7.933121e+01
2.720000e-06	3.670160e-06	1.245663e-09	2.604703e+01	7.989546e+01
2.730000e-06	3.703467e-06	1.247202e-09	2.628341e+01	8.044263e+01
2.740000e-06	3.736326e-06	1.254924e-09	2.651661e+01	8.097226e+01
2.750000e-06	3.768847e-06	1.266965e-09	2.674741e+01	8.148383e+01
2.760000e-06	3.801110e-06	1.274825e-09	2.697637e+01	8.197680e+01
2.770000e-06	3.833268e-06	1.278729e-09	2.720460e+01	8.245063e+01
2.780000e-06	3.865297e-06	1.283558e-09	2.743191e+01	8.290483e+01
2.790000e-06	3.897108e-06	1.287920e-09	2.765767e+01	8.333897e+01
2.800000e-06	3.928666e-06	1.286830e-09	2.788164e+01	8.375271e+01
2.810000e-06	3.960088e-06	1.282650e-09	2.810464e+01	8.414582e+01
2.820000e-06	3.991236e-06	1.285838e-09	2.832570e+01	8.451818e+01
2.830000e-06	4.021988e-06	1.295675e-09	2.854395e+01	8.486977e+01
2.840000e-06	4.052434e-06	1.304491e-09	2.876002e+01	8.520072e+01
2.850000e-06	4.082547e-06	1.308209e-09	2.897373e+01	8.551126e+01
2.860000e-06	4.112479e-06	1.309687e-09	2.918616e+01	8.580173e+01
2.870000e-06	4.142269e-06	1.313264e-09	2.939758e+01	8.607257e+01
2.880000e-06	4.171827e-06	1.312811e-09	2.960735e+01	8.632434e+01
2.890000e-06	4.201087e-06	1.308786e-09	2.981500e+01	8.655768e+01
2.900000e-06	4.229919e-06	1.306161e-09	3.001963e+01	8.677329e+01
