# Temperatura_=_-1.6
# Concentracion g/m^3_=_4090.0
# C_Vs_to_Am_M_A/Vsm_=_65563218390.804596
# pendiente_HvsI_1/m_=_3716.3
# ordenada_HvsI_A/m_=_1297.0
# frecuencia_Hz_=_135071.11770721053

Tiempo_(s)	Campo_(V.s)	Magnetizacion_(V.s)	Campo_(kA/m)	Magnetizacion_(A/m)
0.000000e+00	-5.410098e-06	-2.084512e-09	-3.839601e+01	-1.376767e+02
1.000000e-08	-5.410328e-06	-2.079342e-09	-3.839764e+01	-1.375452e+02
2.000000e-08	-5.410375e-06	-2.075235e-09	-3.839797e+01	-1.373909e+02
3.000000e-08	-5.410182e-06	-2.069834e-09	-3.839660e+01	-1.372150e+02
4.000000e-08	-5.409603e-06	-2.065804e-09	-3.839250e+01	-1.370200e+02
5.000000e-08	-5.408545e-06	-2.065971e-09	-3.838499e+01	-1.368097e+02
6.000000e-08	-5.406979e-06	-2.065940e-09	-3.837387e+01	-1.365886e+02
7.000000e-08	-5.404708e-06	-2.061186e-09	-3.835776e+01	-1.363623e+02
8.000000e-08	-5.401744e-06	-2.065189e-09	-3.833672e+01	-1.361369e+02
9.000000e-08	-5.398212e-06	-2.082624e-09	-3.831166e+01	-1.359190e+02
1.000000e-07	-5.394174e-06	-2.089518e-09	-3.828299e+01	-1.357154e+02
1.100000e-07	-5.389928e-06	-2.078610e-09	-3.825286e+01	-1.355329e+02
1.200000e-07	-5.385652e-06	-2.054815e-09	-3.822252e+01	-1.353777e+02
1.300000e-07	-5.381208e-06	-2.053580e-09	-3.819097e+01	-1.352554e+02
1.400000e-07	-5.376341e-06	-2.061770e-09	-3.815643e+01	-1.351707e+02
1.500000e-07	-5.370961e-06	-2.064814e-09	-3.811825e+01	-1.351271e+02
1.600000e-07	-5.365219e-06	-2.059445e-09	-3.807750e+01	-1.351267e+02
1.700000e-07	-5.359118e-06	-2.051781e-09	-3.803420e+01	-1.351704e+02
1.800000e-07	-5.352430e-06	-2.074373e-09	-3.798673e+01	-1.352572e+02
1.900000e-07	-5.345309e-06	-2.095466e-09	-3.793619e+01	-1.353850e+02
2.000000e-07	-5.337983e-06	-2.100015e-09	-3.788420e+01	-1.355497e+02
2.100000e-07	-5.330515e-06	-2.069648e-09	-3.783120e+01	-1.357465e+02
2.200000e-07	-5.322829e-06	-2.061763e-09	-3.777665e+01	-1.359689e+02
2.300000e-07	-5.314849e-06	-2.093257e-09	-3.772002e+01	-1.362099e+02
2.400000e-07	-5.306595e-06	-2.126056e-09	-3.766144e+01	-1.364616e+02
2.500000e-07	-5.297835e-06	-2.125735e-09	-3.759926e+01	-1.367159e+02
2.600000e-07	-5.288310e-06	-2.130036e-09	-3.753167e+01	-1.369645e+02
2.700000e-07	-5.278033e-06	-2.153658e-09	-3.745873e+01	-1.371996e+02
2.800000e-07	-5.267194e-06	-2.160633e-09	-3.738181e+01	-1.374138e+02
2.900000e-07	-5.255957e-06	-2.124723e-09	-3.730205e+01	-1.376006e+02
3.000000e-07	-5.244323e-06	-2.096395e-09	-3.721949e+01	-1.377546e+02
3.100000e-07	-5.232311e-06	-2.105597e-09	-3.713424e+01	-1.378714e+02
3.200000e-07	-5.219904e-06	-2.121049e-09	-3.704618e+01	-1.379483e+02
3.300000e-07	-5.207068e-06	-2.133414e-09	-3.695509e+01	-1.379836e+02
3.400000e-07	-5.193933e-06	-2.135811e-09	-3.686186e+01	-1.379773e+02
3.500000e-07	-5.180357e-06	-2.124882e-09	-3.676551e+01	-1.379305e+02
3.600000e-07	-5.166324e-06	-2.116325e-09	-3.666592e+01	-1.378458e+02
3.700000e-07	-5.152028e-06	-2.122604e-09	-3.656446e+01	-1.377264e+02
3.800000e-07	-5.137262e-06	-2.104329e-09	-3.645966e+01	-1.375768e+02
3.900000e-07	-5.121869e-06	-2.074084e-09	-3.635042e+01	-1.374016e+02
4.000000e-07	-5.105982e-06	-2.085786e-09	-3.623767e+01	-1.372061e+02
4.100000e-07	-5.089597e-06	-2.115864e-09	-3.612138e+01	-1.369956e+02
4.200000e-07	-5.072800e-06	-2.108419e-09	-3.600217e+01	-1.367750e+02
4.300000e-07	-5.055727e-06	-2.092639e-09	-3.588100e+01	-1.365492e+02
4.400000e-07	-5.038383e-06	-2.099783e-09	-3.575791e+01	-1.363223e+02
4.500000e-07	-5.020690e-06	-2.106806e-09	-3.563234e+01	-1.360977e+02
4.600000e-07	-5.002620e-06	-2.089981e-09	-3.550410e+01	-1.358779e+02
4.700000e-07	-4.984254e-06	-2.078375e-09	-3.537375e+01	-1.356647e+02
4.800000e-07	-4.965531e-06	-2.069751e-09	-3.524087e+01	-1.354588e+02
4.900000e-07	-4.946437e-06	-2.069508e-09	-3.510536e+01	-1.352602e+02
5.000000e-07	-4.926978e-06	-2.071384e-09	-3.496726e+01	-1.350681e+02
5.100000e-07	-4.907196e-06	-2.068736e-09	-3.482686e+01	-1.348811e+02
5.200000e-07	-4.887225e-06	-2.058593e-09	-3.468512e+01	-1.346971e+02
5.300000e-07	-4.867072e-06	-2.062856e-09	-3.454210e+01	-1.345140e+02
5.400000e-07	-4.846657e-06	-2.069253e-09	-3.439721e+01	-1.343292e+02
5.500000e-07	-4.825850e-06	-2.063681e-09	-3.424954e+01	-1.341405e+02
5.600000e-07	-4.804696e-06	-2.050556e-09	-3.409941e+01	-1.339454e+02
5.700000e-07	-4.783299e-06	-2.045245e-09	-3.394755e+01	-1.337422e+02
5.800000e-07	-4.761559e-06	-2.041412e-09	-3.379326e+01	-1.335294e+02
5.900000e-07	-4.739480e-06	-2.033192e-09	-3.363657e+01	-1.333061e+02
6.000000e-07	-4.717030e-06	-2.022282e-09	-3.347724e+01	-1.330718e+02
6.100000e-07	-4.694221e-06	-2.020369e-09	-3.331536e+01	-1.328268e+02
6.200000e-07	-4.671081e-06	-2.027734e-09	-3.315113e+01	-1.325719e+02
6.300000e-07	-4.647612e-06	-2.030090e-09	-3.298457e+01	-1.323083e+02
6.400000e-07	-4.623899e-06	-2.026039e-09	-3.281628e+01	-1.320376e+02
6.500000e-07	-4.600008e-06	-2.023789e-09	-3.264672e+01	-1.317618e+02
6.600000e-07	-4.575938e-06	-2.020576e-09	-3.247589e+01	-1.314829e+02
6.700000e-07	-4.551652e-06	-2.010764e-09	-3.230353e+01	-1.312031e+02
6.800000e-07	-4.526979e-06	-2.000754e-09	-3.212842e+01	-1.309244e+02
6.900000e-07	-4.501741e-06	-1.990886e-09	-3.194931e+01	-1.306485e+02
7.000000e-07	-4.475953e-06	-1.986092e-09	-3.176628e+01	-1.303769e+02
7.100000e-07	-4.449689e-06	-1.985519e-09	-3.157989e+01	-1.301106e+02
7.200000e-07	-4.422929e-06	-1.986705e-09	-3.138997e+01	-1.298503e+02
7.300000e-07	-4.395678e-06	-1.985743e-09	-3.119656e+01	-1.295959e+02
7.400000e-07	-4.368148e-06	-1.987933e-09	-3.100118e+01	-1.293471e+02
7.500000e-07	-4.340423e-06	-1.984619e-09	-3.080442e+01	-1.291030e+02
7.600000e-07	-4.312489e-06	-1.975626e-09	-3.060617e+01	-1.288623e+02
7.700000e-07	-4.284354e-06	-1.965967e-09	-3.040649e+01	-1.286236e+02
7.800000e-07	-4.255983e-06	-1.960381e-09	-3.020514e+01	-1.283849e+02
7.900000e-07	-4.227369e-06	-1.955245e-09	-3.000206e+01	-1.281445e+02
8.000000e-07	-4.198421e-06	-1.952718e-09	-2.979662e+01	-1.279004e+02
8.100000e-07	-4.169063e-06	-1.951114e-09	-2.958826e+01	-1.276509e+02
8.200000e-07	-4.139434e-06	-1.950993e-09	-2.937798e+01	-1.273945e+02
8.300000e-07	-4.109651e-06	-1.948058e-09	-2.916661e+01	-1.271299e+02
8.400000e-07	-4.079616e-06	-1.941899e-09	-2.895344e+01	-1.268562e+02
8.500000e-07	-4.049241e-06	-1.930609e-09	-2.873787e+01	-1.265729e+02
8.600000e-07	-4.018622e-06	-1.920421e-09	-2.852057e+01	-1.262798e+02
8.700000e-07	-3.987733e-06	-1.914593e-09	-2.830134e+01	-1.259774e+02
8.800000e-07	-3.956557e-06	-1.911248e-09	-2.808008e+01	-1.256661e+02
8.900000e-07	-3.925221e-06	-1.909949e-09	-2.785769e+01	-1.253469e+02
9.000000e-07	-3.893640e-06	-1.910427e-09	-2.763356e+01	-1.250209e+02
9.100000e-07	-3.861856e-06	-1.911831e-09	-2.740798e+01	-1.246894e+02
9.200000e-07	-3.830010e-06	-1.911331e-09	-2.718196e+01	-1.243537e+02
9.300000e-07	-3.797928e-06	-1.905683e-09	-2.695427e+01	-1.240151e+02
9.400000e-07	-3.765536e-06	-1.895438e-09	-2.672439e+01	-1.236746e+02
9.500000e-07	-3.732849e-06	-1.885947e-09	-2.649240e+01	-1.233331e+02
9.600000e-07	-3.699760e-06	-1.879676e-09	-2.625757e+01	-1.229914e+02
9.700000e-07	-3.666243e-06	-1.875518e-09	-2.601969e+01	-1.226498e+02
9.800000e-07	-3.632279e-06	-1.872121e-09	-2.577865e+01	-1.223082e+02
9.900000e-07	-3.597878e-06	-1.870685e-09	-2.553450e+01	-1.219664e+02
1.000000e-06	-3.563039e-06	-1.866473e-09	-2.528725e+01	-1.216239e+02
1.010000e-06	-3.527876e-06	-1.859643e-09	-2.503769e+01	-1.212799e+02
1.020000e-06	-3.492524e-06	-1.851587e-09	-2.478680e+01	-1.209334e+02
1.030000e-06	-3.456915e-06	-1.843336e-09	-2.453407e+01	-1.205835e+02
1.040000e-06	-3.421106e-06	-1.833961e-09	-2.427993e+01	-1.202291e+02
1.050000e-06	-3.385177e-06	-1.827946e-09	-2.402494e+01	-1.198694e+02
1.060000e-06	-3.349108e-06	-1.825647e-09	-2.376896e+01	-1.195034e+02
1.070000e-06	-3.312942e-06	-1.823966e-09	-2.351228e+01	-1.191306e+02
1.080000e-06	-3.276601e-06	-1.817245e-09	-2.325436e+01	-1.187508e+02
1.090000e-06	-3.240013e-06	-1.807941e-09	-2.299470e+01	-1.183641e+02
1.100000e-06	-3.203151e-06	-1.800250e-09	-2.273309e+01	-1.179706e+02
1.110000e-06	-3.165971e-06	-1.795059e-09	-2.246922e+01	-1.175712e+02
1.120000e-06	-3.128485e-06	-1.786281e-09	-2.220317e+01	-1.171666e+02
1.130000e-06	-3.090776e-06	-1.774621e-09	-2.193555e+01	-1.167581e+02
1.140000e-06	-3.052951e-06	-1.765956e-09	-2.166710e+01	-1.163471e+02
1.150000e-06	-3.014989e-06	-1.761571e-09	-2.139768e+01	-1.159348e+02
1.160000e-06	-2.976842e-06	-1.756650e-09	-2.112695e+01	-1.155226e+02
1.170000e-06	-2.938461e-06	-1.749533e-09	-2.085455e+01	-1.151118e+02
1.180000e-06	-2.899712e-06	-1.742715e-09	-2.057955e+01	-1.147034e+02
1.190000e-06	-2.860729e-06	-1.737574e-09	-2.030288e+01	-1.142983e+02
1.200000e-06	-2.821656e-06	-1.732862e-09	-2.002558e+01	-1.138968e+02
1.210000e-06	-2.782477e-06	-1.727106e-09	-1.974752e+01	-1.134991e+02
1.220000e-06	-2.743205e-06	-1.720921e-09	-1.946880e+01	-1.131047e+02
1.230000e-06	-2.703677e-06	-1.715015e-09	-1.918827e+01	-1.127129e+02
1.240000e-06	-2.663936e-06	-1.709443e-09	-1.890622e+01	-1.123225e+02
1.250000e-06	-2.624127e-06	-1.702186e-09	-1.862369e+01	-1.119321e+02
1.260000e-06	-2.584245e-06	-1.694446e-09	-1.834065e+01	-1.115399e+02
1.270000e-06	-2.544254e-06	-1.686998e-09	-1.805683e+01	-1.111439e+02
1.280000e-06	-2.504112e-06	-1.680091e-09	-1.777193e+01	-1.107422e+02
1.290000e-06	-2.463808e-06	-1.674274e-09	-1.748589e+01	-1.103327e+02
1.300000e-06	-2.423350e-06	-1.668552e-09	-1.719876e+01	-1.099135e+02
1.310000e-06	-2.382772e-06	-1.660286e-09	-1.691077e+01	-1.094831e+02
1.320000e-06	-2.342038e-06	-1.651091e-09	-1.662168e+01	-1.090400e+02
1.330000e-06	-2.300988e-06	-1.641602e-09	-1.633034e+01	-1.085833e+02
1.340000e-06	-2.259601e-06	-1.632632e-09	-1.603661e+01	-1.081125e+02
1.350000e-06	-2.217946e-06	-1.627520e-09	-1.574098e+01	-1.076275e+02
1.360000e-06	-2.175980e-06	-1.625171e-09	-1.544315e+01	-1.071289e+02
1.370000e-06	-2.133731e-06	-1.618880e-09	-1.514330e+01	-1.066174e+02
1.380000e-06	-2.091222e-06	-1.609482e-09	-1.484161e+01	-1.060943e+02
1.390000e-06	-2.048482e-06	-1.598889e-09	-1.453828e+01	-1.055611e+02
1.400000e-06	-2.005649e-06	-1.589153e-09	-1.423429e+01	-1.050197e+02
1.410000e-06	-1.962659e-06	-1.579058e-09	-1.392919e+01	-1.044720e+02
1.420000e-06	-1.919391e-06	-1.570696e-09	-1.362211e+01	-1.039199e+02
1.430000e-06	-1.875926e-06	-1.564327e-09	-1.331363e+01	-1.033652e+02
1.440000e-06	-1.832338e-06	-1.560421e-09	-1.300429e+01	-1.028094e+02
1.450000e-06	-1.788687e-06	-1.555562e-09	-1.269449e+01	-1.022540e+02
1.460000e-06	-1.744977e-06	-1.544495e-09	-1.238428e+01	-1.016997e+02
1.470000e-06	-1.701199e-06	-1.532326e-09	-1.207358e+01	-1.011471e+02
1.480000e-06	-1.657363e-06	-1.524360e-09	-1.176247e+01	-1.005960e+02
1.490000e-06	-1.613435e-06	-1.519424e-09	-1.145071e+01	-1.000461e+02
1.500000e-06	-1.569383e-06	-1.512987e-09	-1.113807e+01	-9.949611e+01
1.510000e-06	-1.525214e-06	-1.505061e-09	-1.082459e+01	-9.894478e+01
1.520000e-06	-1.480961e-06	-1.498918e-09	-1.051053e+01	-9.839026e+01
1.530000e-06	-1.436644e-06	-1.492402e-09	-1.019600e+01	-9.783048e+01
1.540000e-06	-1.392322e-06	-1.481076e-09	-9.881452e+00	-9.726320e+01
1.550000e-06	-1.347914e-06	-1.465564e-09	-9.566282e+00	-9.668609e+01
1.560000e-06	-1.303371e-06	-1.451362e-09	-9.250154e+00	-9.609688e+01
1.570000e-06	-1.258769e-06	-1.443742e-09	-8.933610e+00	-9.549347e+01
1.580000e-06	-1.214120e-06	-1.438770e-09	-8.616729e+00	-9.487396e+01
1.590000e-06	-1.169429e-06	-1.431229e-09	-8.299558e+00	-9.423683e+01
1.600000e-06	-1.124634e-06	-1.422378e-09	-7.981637e+00	-9.358091e+01
1.610000e-06	-1.079766e-06	-1.412650e-09	-7.663207e+00	-9.290546e+01
1.620000e-06	-1.034811e-06	-1.398039e-09	-7.344160e+00	-9.221017e+01
1.630000e-06	-9.897026e-07	-1.379949e-09	-7.024019e+00	-9.149517e+01
1.640000e-06	-9.445325e-07	-1.361874e-09	-6.703442e+00	-9.076092e+01
1.650000e-06	-8.992959e-07	-1.348202e-09	-6.382393e+00	-9.000824e+01
1.660000e-06	-8.539340e-07	-1.339017e-09	-6.060455e+00	-8.923815e+01
1.670000e-06	-8.085041e-07	-1.332485e-09	-5.738035e+00	-8.845180e+01
1.680000e-06	-7.630010e-07	-1.325964e-09	-5.415094e+00	-8.765039e+01
1.690000e-06	-7.174926e-07	-1.316379e-09	-5.092117e+00	-8.683502e+01
1.700000e-06	-6.719583e-07	-1.301466e-09	-4.768956e+00	-8.600661e+01
1.710000e-06	-6.263294e-07	-1.283279e-09	-4.445123e+00	-8.516581e+01
1.720000e-06	-5.807145e-07	-1.265483e-09	-4.121389e+00	-8.431291e+01
1.730000e-06	-5.351157e-07	-1.249341e-09	-3.797770e+00	-8.344778e+01
1.740000e-06	-4.894896e-07	-1.234151e-09	-3.473957e+00	-8.256986e+01
1.750000e-06	-4.437956e-07	-1.220344e-09	-3.149662e+00	-8.167810e+01
1.760000e-06	-3.980827e-07	-1.209007e-09	-2.825233e+00	-8.077102e+01
1.770000e-06	-3.523303e-07	-1.198045e-09	-2.500523e+00	-7.984671e+01
1.780000e-06	-3.064786e-07	-1.182018e-09	-2.175110e+00	-7.890293e+01
1.790000e-06	-2.606066e-07	-1.162930e-09	-1.849552e+00	-7.793716e+01
1.800000e-06	-2.147031e-07	-1.142238e-09	-1.523770e+00	-7.694670e+01
1.810000e-06	-1.688098e-07	-1.122545e-09	-1.198060e+00	-7.592879e+01
1.820000e-06	-1.229421e-07	-1.105206e-09	-8.725322e-01	-7.488070e+01
1.830000e-06	-7.704809e-08	-1.088667e-09	-5.468180e-01	-7.379982e+01
1.840000e-06	-3.114970e-08	-1.073766e-09	-2.210726e-01	-7.268379e+01
1.850000e-06	1.472737e-08	-1.061969e-09	1.045216e-01	-7.153058e+01
1.860000e-06	6.051859e-08	-1.049865e-09	4.295065e-01	-7.033852e+01
1.870000e-06	1.063197e-07	-1.031932e-09	7.545615e-01	-6.910639e+01
1.880000e-06	1.521998e-07	-1.008921e-09	1.080177e+00	-6.783341e+01
1.890000e-06	1.980525e-07	-9.842944e-10	1.405599e+00	-6.651924e+01
1.900000e-06	2.438620e-07	-9.581239e-10	1.730713e+00	-6.516400e+01
1.910000e-06	2.896283e-07	-9.295678e-10	2.055521e+00	-6.376816e+01
1.920000e-06	3.353339e-07	-9.044692e-10	2.379898e+00	-6.233253e+01
1.930000e-06	3.810029e-07	-8.852319e-10	2.704016e+00	-6.085812e+01
1.940000e-06	4.267015e-07	-8.671546e-10	3.028344e+00	-5.934614e+01
1.950000e-06	4.724328e-07	-8.446989e-10	3.352903e+00	-5.779782e+01
1.960000e-06	5.181464e-07	-8.196186e-10	3.677337e+00	-5.621437e+01
1.970000e-06	5.638069e-07	-7.934793e-10	4.001394e+00	-5.459686e+01
1.980000e-06	6.094181e-07	-7.657107e-10	4.325101e+00	-5.294617e+01
1.990000e-06	6.550077e-07	-7.357816e-10	4.648656e+00	-5.126290e+01
2.000000e-06	7.005747e-07	-7.066964e-10	4.972049e+00	-4.954736e+01
2.010000e-06	7.461783e-07	-6.802755e-10	5.295702e+00	-4.779949e+01
2.020000e-06	7.917294e-07	-6.568646e-10	5.618983e+00	-4.601889e+01
2.030000e-06	8.371487e-07	-6.341880e-10	5.941329e+00	-4.420483e+01
2.040000e-06	8.824595e-07	-6.064647e-10	6.262904e+00	-4.235629e+01
2.050000e-06	9.276771e-07	-5.728653e-10	6.583817e+00	-4.047195e+01
2.060000e-06	9.728824e-07	-5.401067e-10	6.904644e+00	-3.855035e+01
2.070000e-06	1.017985e-06	-5.102558e-10	7.224741e+00	-3.658987e+01
2.080000e-06	1.062938e-06	-4.805975e-10	7.543779e+00	-3.458887e+01
2.090000e-06	1.107857e-06	-4.484246e-10	7.862570e+00	-3.254573e+01
2.100000e-06	1.152722e-06	-4.166771e-10	8.180984e+00	-3.045895e+01
2.110000e-06	1.197468e-06	-3.881082e-10	8.498550e+00	-2.832722e+01
2.120000e-06	1.242099e-06	-3.577391e-10	8.815304e+00	-2.614947e+01
2.130000e-06	1.286672e-06	-3.213790e-10	9.131641e+00	-2.392496e+01
2.140000e-06	1.331173e-06	-2.843201e-10	9.447467e+00	-2.165324e+01
2.150000e-06	1.375564e-06	-2.524013e-10	9.762518e+00	-1.933426e+01
2.160000e-06	1.419830e-06	-2.226587e-10	1.007668e+01	-1.696833e+01
2.170000e-06	1.464003e-06	-1.891505e-10	1.039017e+01	-1.455613e+01
2.180000e-06	1.508147e-06	-1.526908e-10	1.070347e+01	-1.209868e+01
2.190000e-06	1.552256e-06	-1.177328e-10	1.101652e+01	-9.597342e+00
2.200000e-06	1.596289e-06	-8.272900e-11	1.132902e+01	-7.053777e+00
2.210000e-06	1.640227e-06	-4.337272e-11	1.164085e+01	-4.469905e+00
2.220000e-06	1.684128e-06	-8.339585e-13	1.195243e+01	-1.847874e+00
2.230000e-06	1.728006e-06	4.131551e-11	1.226383e+01	8.099755e-01
2.240000e-06	1.771821e-06	8.100610e-11	1.257479e+01	3.501140e+00
2.250000e-06	1.815550e-06	1.214069e-10	1.288514e+01	6.222978e+00
2.260000e-06	1.859168e-06	1.641827e-10	1.319471e+01	8.972734e+00
2.270000e-06	1.902603e-06	2.055622e-10	1.350297e+01	1.174754e+01
2.280000e-06	1.945866e-06	2.459944e-10	1.381001e+01	1.454443e+01
2.290000e-06	1.989021e-06	2.881883e-10	1.411628e+01	1.736034e+01
2.300000e-06	2.032004e-06	3.324297e-10	1.442133e+01	2.019208e+01
2.310000e-06	2.074797e-06	3.737940e-10	1.472504e+01	2.303635e+01
2.320000e-06	2.117340e-06	4.124051e-10	1.502697e+01	2.588973e+01
2.330000e-06	2.159602e-06	4.520563e-10	1.532691e+01	2.874866e+01
2.340000e-06	2.201603e-06	4.935999e-10	1.562500e+01	3.160943e+01
2.350000e-06	2.243263e-06	5.353629e-10	1.592067e+01	3.446821e+01
2.360000e-06	2.284649e-06	5.760575e-10	1.621438e+01	3.732102e+01
2.370000e-06	2.325817e-06	6.182662e-10	1.650656e+01	4.016380e+01
2.380000e-06	2.366701e-06	6.638882e-10	1.679671e+01	4.299237e+01
2.390000e-06	2.407258e-06	7.087943e-10	1.708455e+01	4.580253e+01
2.400000e-06	2.447578e-06	7.491784e-10	1.737071e+01	4.859007e+01
2.410000e-06	2.487810e-06	7.870206e-10	1.765623e+01	5.135083e+01
2.420000e-06	2.527959e-06	8.276674e-10	1.794118e+01	5.408077e+01
2.430000e-06	2.567982e-06	8.712337e-10	1.822522e+01	5.677598e+01
2.440000e-06	2.607921e-06	9.132827e-10	1.850868e+01	5.943280e+01
2.450000e-06	2.647791e-06	9.526870e-10	1.879164e+01	6.204785e+01
2.460000e-06	2.687551e-06	9.917083e-10	1.907382e+01	6.461805e+01
2.470000e-06	2.727162e-06	1.029478e-09	1.935494e+01	6.714073e+01
2.480000e-06	2.766517e-06	1.063032e-09	1.963425e+01	6.961360e+01
2.490000e-06	2.805647e-06	1.094333e-09	1.991196e+01	7.203476e+01
2.500000e-06	2.844718e-06	1.128099e-09	2.018925e+01	7.440279e+01
2.510000e-06	2.883507e-06	1.166581e-09	2.046454e+01	7.671664e+01
2.520000e-06	2.921946e-06	1.205671e-09	2.073734e+01	7.897567e+01
2.530000e-06	2.960272e-06	1.243355e-09	2.100935e+01	8.117961e+01
2.540000e-06	2.998415e-06	1.281312e-09	2.128005e+01	8.332850e+01
2.550000e-06	3.036339e-06	1.317107e-09	2.154920e+01	8.542265e+01
2.560000e-06	3.074107e-06	1.346460e-09	2.181724e+01	8.746258e+01
2.570000e-06	3.111774e-06	1.369349e-09	2.208457e+01	8.944897e+01
2.580000e-06	3.149256e-06	1.391213e-09	2.235058e+01	9.138257e+01
2.590000e-06	3.186411e-06	1.418657e-09	2.261428e+01	9.326422e+01
2.600000e-06	3.223277e-06	1.451155e-09	2.287592e+01	9.509470e+01
2.610000e-06	3.259922e-06	1.483995e-09	2.313599e+01	9.687479e+01
2.620000e-06	3.296391e-06	1.516225e-09	2.339482e+01	9.860516e+01
2.630000e-06	3.332638e-06	1.548157e-09	2.365207e+01	1.002864e+02
2.640000e-06	3.368701e-06	1.575537e-09	2.390801e+01	1.019190e+02
2.650000e-06	3.404668e-06	1.594122e-09	2.416327e+01	1.035033e+02
2.660000e-06	3.440521e-06	1.607660e-09	2.441772e+01	1.050397e+02
2.670000e-06	3.476271e-06	1.622900e-09	2.467144e+01	1.065283e+02
2.680000e-06	3.511876e-06	1.642655e-09	2.492414e+01	1.079694e+02
2.690000e-06	3.547160e-06	1.665051e-09	2.517455e+01	1.093631e+02
2.700000e-06	3.582117e-06	1.688692e-09	2.542264e+01	1.107097e+02
2.710000e-06	3.616718e-06	1.715610e-09	2.566821e+01	1.120092e+02
2.720000e-06	3.650893e-06	1.741774e-09	2.591075e+01	1.132622e+02
2.730000e-06	3.684565e-06	1.762205e-09	2.614973e+01	1.144690e+02
2.740000e-06	3.717634e-06	1.777676e-09	2.638442e+01	1.156302e+02
2.750000e-06	3.750266e-06	1.789888e-09	2.661602e+01	1.167464e+02
2.760000e-06	3.782677e-06	1.802397e-09	2.684604e+01	1.178185e+02
2.770000e-06	3.814933e-06	1.815804e-09	2.707496e+01	1.188473e+02
2.780000e-06	3.846953e-06	1.829485e-09	2.730221e+01	1.198339e+02
2.790000e-06	3.878818e-06	1.846811e-09	2.752836e+01	1.207794e+02
2.800000e-06	3.910563e-06	1.867029e-09	2.775366e+01	1.216849e+02
2.810000e-06	3.941953e-06	1.882329e-09	2.797644e+01	1.225518e+02
2.820000e-06	3.973079e-06	1.890881e-09	2.819734e+01	1.233811e+02
2.830000e-06	4.004046e-06	1.898955e-09	2.841711e+01	1.241740e+02
2.840000e-06	4.034704e-06	1.910999e-09	2.863470e+01	1.249319e+02
2.850000e-06	4.065039e-06	1.923836e-09	2.884999e+01	1.256558e+02
2.860000e-06	4.095099e-06	1.933947e-09	2.906333e+01	1.263467e+02
2.870000e-06	4.124922e-06	1.943401e-09	2.927499e+01	1.270058e+02
2.880000e-06	4.154498e-06	1.954779e-09	2.948489e+01	1.276340e+02
2.890000e-06	4.183848e-06	1.963548e-09	2.969319e+01	1.282321e+02
2.900000e-06	4.212907e-06	1.967123e-09	2.989943e+01	1.288013e+02
