# Temperatura_=_14.47
# Concentracion g/m^3_=_4090.0
# C_Vs_to_Am_M_A/Vsm_=_65563218390.804596
# pendiente_HvsI_1/m_=_3716.3
# ordenada_HvsI_A/m_=_1297.0
# frecuencia_Hz_=_135087.49422971104

Tiempo_(s)	Campo_(V.s)	Magnetizacion_(V.s)	Campo_(kA/m)	Magnetizacion_(A/m)
0.000000e+00	-5.402641e-06	-1.304878e-09	-3.839199e+01	-8.838066e+01
1.000000e-08	-5.402635e-06	-1.301576e-09	-3.839195e+01	-8.825370e+01
2.000000e-08	-5.402417e-06	-1.299208e-09	-3.839040e+01	-8.811223e+01
3.000000e-08	-5.401938e-06	-1.299493e-09	-3.838699e+01	-8.795669e+01
4.000000e-08	-5.401017e-06	-1.303103e-09	-3.838045e+01	-8.778837e+01
5.000000e-08	-5.399529e-06	-1.302742e-09	-3.836987e+01	-8.760937e+01
6.000000e-08	-5.397351e-06	-1.292042e-09	-3.835440e+01	-8.742258e+01
7.000000e-08	-5.394557e-06	-1.290059e-09	-3.833454e+01	-8.723169e+01
8.000000e-08	-5.391218e-06	-1.316887e-09	-3.831081e+01	-8.704102e+01
9.000000e-08	-5.387271e-06	-1.340144e-09	-3.828277e+01	-8.685542e+01
1.000000e-07	-5.382929e-06	-1.311211e-09	-3.825192e+01	-8.668013e+01
1.100000e-07	-5.378552e-06	-1.301731e-09	-3.822081e+01	-8.652055e+01
1.200000e-07	-5.374122e-06	-1.289993e-09	-3.818933e+01	-8.638209e+01
1.300000e-07	-5.369304e-06	-1.316324e-09	-3.815509e+01	-8.626988e+01
1.400000e-07	-5.363976e-06	-1.292831e-09	-3.811723e+01	-8.618862e+01
1.500000e-07	-5.358338e-06	-1.273119e-09	-3.807717e+01	-8.614235e+01
1.600000e-07	-5.352409e-06	-1.287239e-09	-3.803504e+01	-8.613425e+01
1.700000e-07	-5.345990e-06	-1.303506e-09	-3.798942e+01	-8.616648e+01
1.800000e-07	-5.339089e-06	-1.328522e-09	-3.794038e+01	-8.624009e+01
1.900000e-07	-5.331817e-06	-1.329525e-09	-3.788871e+01	-8.635487e+01
2.000000e-07	-5.324404e-06	-1.345353e-09	-3.783603e+01	-8.650936e+01
2.100000e-07	-5.316795e-06	-1.316202e-09	-3.778196e+01	-8.670084e+01
2.200000e-07	-5.308878e-06	-1.339660e-09	-3.772569e+01	-8.692539e+01
2.300000e-07	-5.300713e-06	-1.373701e-09	-3.766767e+01	-8.717799e+01
2.400000e-07	-5.292163e-06	-1.403812e-09	-3.760692e+01	-8.745270e+01
2.500000e-07	-5.282845e-06	-1.389941e-09	-3.754070e+01	-8.774279e+01
2.600000e-07	-5.272729e-06	-1.425150e-09	-3.746881e+01	-8.804101e+01
2.700000e-07	-5.262066e-06	-1.457109e-09	-3.739304e+01	-8.833980e+01
2.800000e-07	-5.250958e-06	-1.438888e-09	-3.731411e+01	-8.863155e+01
2.900000e-07	-5.239422e-06	-1.390838e-09	-3.723213e+01	-8.890885e+01
3.000000e-07	-5.227457e-06	-1.407668e-09	-3.714711e+01	-8.916474e+01
3.100000e-07	-5.215105e-06	-1.440934e-09	-3.705933e+01	-8.939294e+01
3.200000e-07	-5.202409e-06	-1.446606e-09	-3.696911e+01	-8.958801e+01
3.300000e-07	-5.189368e-06	-1.444009e-09	-3.687644e+01	-8.974555e+01
3.400000e-07	-5.175920e-06	-1.446326e-09	-3.678088e+01	-8.986231e+01
3.500000e-07	-5.161987e-06	-1.440351e-09	-3.668186e+01	-8.993623e+01
3.600000e-07	-5.147758e-06	-1.439960e-09	-3.658076e+01	-8.996653e+01
3.700000e-07	-5.133196e-06	-1.430843e-09	-3.647727e+01	-8.995359e+01
3.800000e-07	-5.118009e-06	-1.396231e-09	-3.636935e+01	-8.989898e+01
3.900000e-07	-5.102092e-06	-1.395023e-09	-3.625624e+01	-8.980526e+01
4.000000e-07	-5.085563e-06	-1.430655e-09	-3.613879e+01	-8.967588e+01
4.100000e-07	-5.068778e-06	-1.445874e-09	-3.601951e+01	-8.951499e+01
4.200000e-07	-5.051659e-06	-1.416861e-09	-3.589786e+01	-8.932725e+01
4.300000e-07	-5.034261e-06	-1.422646e-09	-3.577422e+01	-8.911758e+01
4.400000e-07	-5.016733e-06	-1.432968e-09	-3.564967e+01	-8.889103e+01
4.500000e-07	-4.998849e-06	-1.423049e-09	-3.552258e+01	-8.865248e+01
4.600000e-07	-4.980597e-06	-1.397801e-09	-3.539288e+01	-8.840654e+01
4.700000e-07	-4.961998e-06	-1.398499e-09	-3.526071e+01	-8.815736e+01
4.800000e-07	-4.942961e-06	-1.389113e-09	-3.512543e+01	-8.790847e+01
4.900000e-07	-4.923531e-06	-1.401721e-09	-3.498736e+01	-8.766274e+01
5.000000e-07	-4.903835e-06	-1.401032e-09	-3.484740e+01	-8.742228e+01
5.100000e-07	-4.883961e-06	-1.384474e-09	-3.470617e+01	-8.718843e+01
5.200000e-07	-4.863908e-06	-1.369672e-09	-3.456367e+01	-8.696182e+01
5.300000e-07	-4.843614e-06	-1.393895e-09	-3.441946e+01	-8.674234e+01
5.400000e-07	-4.822949e-06	-1.390253e-09	-3.427261e+01	-8.652930e+01
5.500000e-07	-4.801917e-06	-1.367338e-09	-3.412315e+01	-8.632151e+01
5.600000e-07	-4.780507e-06	-1.361596e-09	-3.397101e+01	-8.611738e+01
5.700000e-07	-4.758742e-06	-1.377931e-09	-3.381635e+01	-8.591508e+01
5.800000e-07	-4.736675e-06	-1.368857e-09	-3.365953e+01	-8.571268e+01
5.900000e-07	-4.714310e-06	-1.351699e-09	-3.350060e+01	-8.550827e+01
6.000000e-07	-4.691676e-06	-1.340187e-09	-3.333976e+01	-8.530006e+01
6.100000e-07	-4.668640e-06	-1.339216e-09	-3.317607e+01	-8.508653e+01
6.200000e-07	-4.645217e-06	-1.341290e-09	-3.300962e+01	-8.486648e+01
6.300000e-07	-4.621515e-06	-1.342788e-09	-3.284119e+01	-8.463908e+01
6.400000e-07	-4.597651e-06	-1.336860e-09	-3.267161e+01	-8.440394e+01
6.500000e-07	-4.573649e-06	-1.335273e-09	-3.250105e+01	-8.416106e+01
6.600000e-07	-4.549359e-06	-1.339937e-09	-3.232844e+01	-8.391085e+01
6.700000e-07	-4.524734e-06	-1.330361e-09	-3.215345e+01	-8.365406e+01
6.800000e-07	-4.499602e-06	-1.308427e-09	-3.197486e+01	-8.339173e+01
6.900000e-07	-4.474003e-06	-1.293455e-09	-3.179295e+01	-8.312512e+01
7.000000e-07	-4.447828e-06	-1.296885e-09	-3.160694e+01	-8.285558e+01
7.100000e-07	-4.421154e-06	-1.297402e-09	-3.141739e+01	-8.258451e+01
7.200000e-07	-4.394102e-06	-1.296288e-09	-3.122516e+01	-8.231326e+01
7.300000e-07	-4.366640e-06	-1.292754e-09	-3.103001e+01	-8.204299e+01
7.400000e-07	-4.338992e-06	-1.298821e-09	-3.083354e+01	-8.177469e+01
7.500000e-07	-4.311123e-06	-1.294748e-09	-3.063550e+01	-8.150907e+01
7.600000e-07	-4.283070e-06	-1.286098e-09	-3.043615e+01	-8.124652e+01
7.700000e-07	-4.254852e-06	-1.273291e-09	-3.023563e+01	-8.098712e+01
7.800000e-07	-4.226394e-06	-1.269466e-09	-3.003340e+01	-8.073064e+01
7.900000e-07	-4.197634e-06	-1.264371e-09	-2.982903e+01	-8.047653e+01
8.000000e-07	-4.168487e-06	-1.261005e-09	-2.962190e+01	-8.022402e+01
8.100000e-07	-4.138996e-06	-1.254264e-09	-2.941233e+01	-7.997210e+01
8.200000e-07	-4.109245e-06	-1.255018e-09	-2.920092e+01	-7.971965e+01
8.300000e-07	-4.079237e-06	-1.253187e-09	-2.898768e+01	-7.946550e+01
8.400000e-07	-4.048957e-06	-1.250421e-09	-2.877250e+01	-7.920846e+01
8.500000e-07	-4.018382e-06	-1.241011e-09	-2.855523e+01	-7.894745e+01
8.600000e-07	-3.987525e-06	-1.236196e-09	-2.833596e+01	-7.868154e+01
8.700000e-07	-3.956443e-06	-1.233181e-09	-2.811508e+01	-7.841000e+01
8.800000e-07	-3.925108e-06	-1.228026e-09	-2.789242e+01	-7.813234e+01
8.900000e-07	-3.893556e-06	-1.214342e-09	-2.766820e+01	-7.784836e+01
9.000000e-07	-3.861825e-06	-1.205369e-09	-2.744272e+01	-7.755814e+01
9.100000e-07	-3.829853e-06	-1.205082e-09	-2.721552e+01	-7.726202e+01
9.200000e-07	-3.797661e-06	-1.208857e-09	-2.698676e+01	-7.696063e+01
9.300000e-07	-3.765299e-06	-1.208880e-09	-2.675679e+01	-7.665478e+01
9.400000e-07	-3.732769e-06	-1.206375e-09	-2.652563e+01	-7.634547e+01
9.500000e-07	-3.699966e-06	-1.204880e-09	-2.629252e+01	-7.603380e+01
9.600000e-07	-3.666690e-06	-1.201096e-09	-2.605606e+01	-7.572090e+01
9.700000e-07	-3.632934e-06	-1.189715e-09	-2.581618e+01	-7.540790e+01
9.800000e-07	-3.598717e-06	-1.173610e-09	-2.557303e+01	-7.509584e+01
9.900000e-07	-3.564049e-06	-1.167028e-09	-2.532667e+01	-7.478562e+01
1.000000e-06	-3.529028e-06	-1.166412e-09	-2.507781e+01	-7.447792e+01
1.010000e-06	-3.493687e-06	-1.167538e-09	-2.482667e+01	-7.417325e+01
1.020000e-06	-3.458202e-06	-1.166886e-09	-2.457451e+01	-7.387183e+01
1.030000e-06	-3.422580e-06	-1.168880e-09	-2.432137e+01	-7.357364e+01
1.040000e-06	-3.386765e-06	-1.166560e-09	-2.406687e+01	-7.327841e+01
1.050000e-06	-3.350834e-06	-1.160187e-09	-2.381153e+01	-7.298563e+01
1.060000e-06	-3.314715e-06	-1.148309e-09	-2.355487e+01	-7.269462e+01
1.070000e-06	-3.278363e-06	-1.138777e-09	-2.329655e+01	-7.240453e+01
1.080000e-06	-3.241801e-06	-1.130055e-09	-2.303673e+01	-7.211440e+01
1.090000e-06	-3.205066e-06	-1.127017e-09	-2.277569e+01	-7.182324e+01
1.100000e-06	-3.168096e-06	-1.126688e-09	-2.251298e+01	-7.153008e+01
1.110000e-06	-3.130790e-06	-1.128268e-09	-2.224787e+01	-7.123399e+01
1.120000e-06	-3.093213e-06	-1.124328e-09	-2.198084e+01	-7.093416e+01
1.130000e-06	-3.055470e-06	-1.117756e-09	-2.171264e+01	-7.062996e+01
1.140000e-06	-3.017613e-06	-1.110668e-09	-2.144362e+01	-7.032093e+01
1.150000e-06	-2.979525e-06	-1.106515e-09	-2.117296e+01	-7.000681e+01
1.160000e-06	-2.941095e-06	-1.100832e-09	-2.089987e+01	-6.968757e+01
1.170000e-06	-2.902520e-06	-1.093781e-09	-2.062575e+01	-6.936337e+01
1.180000e-06	-2.863841e-06	-1.087631e-09	-2.035089e+01	-6.903458e+01
1.190000e-06	-2.824935e-06	-1.084360e-09	-2.007442e+01	-6.870174e+01
1.200000e-06	-2.785812e-06	-1.081824e-09	-1.979640e+01	-6.836549e+01
1.210000e-06	-2.746500e-06	-1.078775e-09	-1.951705e+01	-6.802656e+01
1.220000e-06	-2.706981e-06	-1.074575e-09	-1.923622e+01	-6.768575e+01
1.230000e-06	-2.667338e-06	-1.071036e-09	-1.895451e+01	-6.734380e+01
1.240000e-06	-2.627627e-06	-1.065473e-09	-1.867232e+01	-6.700141e+01
1.250000e-06	-2.587786e-06	-1.057228e-09	-1.838920e+01	-6.665919e+01
1.260000e-06	-2.547856e-06	-1.047910e-09	-1.810545e+01	-6.631759e+01
1.270000e-06	-2.507825e-06	-1.039363e-09	-1.782098e+01	-6.597690e+01
1.280000e-06	-2.467694e-06	-1.035647e-09	-1.753581e+01	-6.563723e+01
1.290000e-06	-2.427471e-06	-1.030596e-09	-1.724998e+01	-6.529850e+01
1.300000e-06	-2.387044e-06	-1.023694e-09	-1.696270e+01	-6.496042e+01
1.310000e-06	-2.346351e-06	-1.017646e-09	-1.667353e+01	-6.462253e+01
1.320000e-06	-2.305467e-06	-1.014638e-09	-1.638300e+01	-6.428422e+01
1.330000e-06	-2.264326e-06	-1.008594e-09	-1.609064e+01	-6.394475e+01
1.340000e-06	-2.222913e-06	-1.003370e-09	-1.579636e+01	-6.360327e+01
1.350000e-06	-2.181246e-06	-1.000907e-09	-1.550026e+01	-6.325889e+01
1.360000e-06	-2.139253e-06	-9.979950e-10	-1.520186e+01	-6.291069e+01
1.370000e-06	-2.096909e-06	-9.918800e-10	-1.490095e+01	-6.255778e+01
1.380000e-06	-2.054347e-06	-9.850355e-10	-1.459850e+01	-6.219931e+01
1.390000e-06	-2.011655e-06	-9.778671e-10	-1.429513e+01	-6.183453e+01
1.400000e-06	-1.968718e-06	-9.724986e-10	-1.399001e+01	-6.146278e+01
1.410000e-06	-1.925589e-06	-9.664738e-10	-1.368353e+01	-6.108353e+01
1.420000e-06	-1.882281e-06	-9.611079e-10	-1.337577e+01	-6.069640e+01
1.430000e-06	-1.838807e-06	-9.578820e-10	-1.306685e+01	-6.030111e+01
1.440000e-06	-1.795252e-06	-9.565114e-10	-1.275734e+01	-5.989753e+01
1.450000e-06	-1.751587e-06	-9.512622e-10	-1.244705e+01	-5.948563e+01
1.460000e-06	-1.707814e-06	-9.415876e-10	-1.213599e+01	-5.906548e+01
1.470000e-06	-1.663956e-06	-9.307338e-10	-1.182432e+01	-5.863723e+01
1.480000e-06	-1.619983e-06	-9.234736e-10	-1.151185e+01	-5.820107e+01
1.490000e-06	-1.575942e-06	-9.203009e-10	-1.119888e+01	-5.775720e+01
1.500000e-06	-1.531870e-06	-9.152238e-10	-1.088570e+01	-5.730584e+01
1.510000e-06	-1.487778e-06	-9.055127e-10	-1.057238e+01	-5.684717e+01
1.520000e-06	-1.443664e-06	-8.965903e-10	-1.025889e+01	-5.638133e+01
1.530000e-06	-1.399443e-06	-8.884512e-10	-9.944653e+00	-5.590841e+01
1.540000e-06	-1.355067e-06	-8.775812e-10	-9.629316e+00	-5.542844e+01
1.550000e-06	-1.310580e-06	-8.647452e-10	-9.313182e+00	-5.494135e+01
1.560000e-06	-1.266118e-06	-8.545015e-10	-8.997226e+00	-5.444704e+01
1.570000e-06	-1.221617e-06	-8.516765e-10	-8.680995e+00	-5.394533e+01
1.580000e-06	-1.176930e-06	-8.475565e-10	-8.363443e+00	-5.343598e+01
1.590000e-06	-1.132088e-06	-8.387502e-10	-8.044786e+00	-5.291871e+01
1.600000e-06	-1.087121e-06	-8.304724e-10	-7.725246e+00	-5.239320e+01
1.610000e-06	-1.042123e-06	-8.237544e-10	-7.405484e+00	-5.185913e+01
1.620000e-06	-9.971167e-07	-8.138855e-10	-7.085663e+00	-5.131615e+01
1.630000e-06	-9.520097e-07	-7.997114e-10	-6.765126e+00	-5.076391e+01
1.640000e-06	-9.067943e-07	-7.844470e-10	-6.443818e+00	-5.020206e+01
1.650000e-06	-8.615482e-07	-7.762452e-10	-6.122293e+00	-4.963025e+01
1.660000e-06	-8.162812e-07	-7.726568e-10	-5.800618e+00	-4.904815e+01
1.670000e-06	-7.708969e-07	-7.706444e-10	-5.478111e+00	-4.845539e+01
1.680000e-06	-7.253629e-07	-7.660831e-10	-5.154539e+00	-4.785160e+01
1.690000e-06	-6.798406e-07	-7.583546e-10	-4.831051e+00	-4.723636e+01
1.700000e-06	-6.343301e-07	-7.459659e-10	-4.507646e+00	-4.660923e+01
1.710000e-06	-5.887387e-07	-7.303489e-10	-4.183667e+00	-4.596968e+01
1.720000e-06	-5.431301e-07	-7.137832e-10	-3.859565e+00	-4.531711e+01
1.730000e-06	-4.975097e-07	-7.002397e-10	-3.535379e+00	-4.465083e+01
1.740000e-06	-4.518725e-07	-6.926529e-10	-3.211075e+00	-4.397004e+01
1.750000e-06	-4.061761e-07	-6.874929e-10	-2.886349e+00	-4.327383e+01
1.760000e-06	-3.604164e-07	-6.780992e-10	-2.561174e+00	-4.256120e+01
1.770000e-06	-3.146470e-07	-6.654955e-10	-2.235929e+00	-4.183103e+01
1.780000e-06	-2.688006e-07	-6.531879e-10	-1.910138e+00	-4.108210e+01
1.790000e-06	-2.229164e-07	-6.396135e-10	-1.584078e+00	-4.031312e+01
1.800000e-06	-1.770998e-07	-6.230093e-10	-1.258498e+00	-3.952276e+01
1.810000e-06	-1.312640e-07	-6.052806e-10	-9.327817e-01	-3.870964e+01
1.820000e-06	-8.544344e-08	-5.924740e-10	-6.071741e-01	-3.787240e+01
1.830000e-06	-3.967074e-08	-5.830918e-10	-2.819063e-01	-3.700970e+01
1.840000e-06	6.098870e-09	-5.710089e-10	4.333950e-02	-3.612029e+01
1.850000e-06	5.182457e-08	-5.556173e-10	3.682733e-01	-3.520301e+01
1.860000e-06	9.753111e-08	-5.417499e-10	6.930709e-01	-3.425682e+01
1.870000e-06	1.433005e-07	-5.301365e-10	1.018315e+00	-3.328085e+01
1.880000e-06	1.891104e-07	-5.160967e-10	1.343847e+00	-3.227440e+01
1.890000e-06	2.348183e-07	-4.949548e-10	1.668655e+00	-3.123698e+01
1.900000e-06	2.804551e-07	-4.722645e-10	1.992957e+00	-3.016829e+01
1.910000e-06	3.261925e-07	-4.530268e-10	2.317974e+00	-2.906822e+01
1.920000e-06	3.719810e-07	-4.344819e-10	2.643353e+00	-2.793687e+01
1.930000e-06	4.177550e-07	-4.113687e-10	2.968631e+00	-2.677452e+01
1.940000e-06	4.634394e-07	-3.897208e-10	3.293271e+00	-2.558161e+01
1.950000e-06	5.090471e-07	-3.745386e-10	3.617366e+00	-2.435871e+01
1.960000e-06	5.546846e-07	-3.601856e-10	3.941673e+00	-2.310653e+01
1.970000e-06	6.002707e-07	-3.382744e-10	4.265615e+00	-2.182584e+01
1.980000e-06	6.457254e-07	-3.148029e-10	4.588623e+00	-2.051745e+01
1.990000e-06	6.911395e-07	-2.950415e-10	4.911343e+00	-1.918222e+01
2.000000e-06	7.365445e-07	-2.730776e-10	5.233998e+00	-1.782097e+01
2.010000e-06	7.817837e-07	-2.485792e-10	5.555474e+00	-1.643453e+01
2.020000e-06	8.269465e-07	-2.253193e-10	5.876408e+00	-1.502366e+01
2.030000e-06	8.721845e-07	-2.044949e-10	6.197876e+00	-1.358903e+01
2.040000e-06	9.173730e-07	-1.833499e-10	6.518992e+00	-1.213130e+01
2.050000e-06	9.625090e-07	-1.584643e-10	6.839735e+00	-1.065100e+01
2.060000e-06	1.007509e-06	-1.313642e-10	7.159512e+00	-9.148624e+00
2.070000e-06	1.052308e-06	-1.076393e-10	7.477862e+00	-7.624604e+00
2.080000e-06	1.097110e-06	-8.653626e-11	7.796228e+00	-6.079324e+00
2.090000e-06	1.141902e-06	-6.455597e-11	8.114532e+00	-4.513146e+00
2.100000e-06	1.186584e-06	-4.021821e-11	8.432045e+00	-2.926430e+00
2.110000e-06	1.231153e-06	-1.445997e-11	8.748763e+00	-1.319557e+00
2.120000e-06	1.275583e-06	1.251205e-11	9.064485e+00	3.070487e-01
2.130000e-06	1.319936e-06	3.871021e-11	9.379664e+00	1.952895e+00
2.140000e-06	1.364273e-06	6.452451e-11	9.694732e+00	3.617399e+00
2.150000e-06	1.408584e-06	9.009190e-11	1.000961e+01	5.299874e+00
2.160000e-06	1.452846e-06	1.137916e-10	1.032415e+01	6.999505e+00
2.170000e-06	1.496983e-06	1.387653e-10	1.063779e+01	8.715345e+00
2.180000e-06	1.541069e-06	1.645707e-10	1.095107e+01	1.044630e+01
2.190000e-06	1.585113e-06	1.903052e-10	1.126405e+01	1.219114e+01
2.200000e-06	1.629095e-06	2.158313e-10	1.157660e+01	1.394847e+01
2.210000e-06	1.673064e-06	2.435577e-10	1.188905e+01	1.571676e+01
2.220000e-06	1.717005e-06	2.737045e-10	1.220130e+01	1.749434e+01
2.230000e-06	1.760843e-06	3.032535e-10	1.251282e+01	1.927942e+01
2.240000e-06	1.804537e-06	3.292859e-10	1.282332e+01	2.107007e+01
2.250000e-06	1.848094e-06	3.545921e-10	1.313284e+01	2.286428e+01
2.260000e-06	1.891465e-06	3.838816e-10	1.344104e+01	2.465992e+01
2.270000e-06	1.934780e-06	4.127194e-10	1.374884e+01	2.645480e+01
2.280000e-06	1.977976e-06	4.380903e-10	1.405580e+01	2.824665e+01
2.290000e-06	2.020927e-06	4.639082e-10	1.436101e+01	3.003315e+01
2.300000e-06	2.063688e-06	4.909360e-10	1.466488e+01	3.181195e+01
2.310000e-06	2.106099e-06	5.192804e-10	1.496626e+01	3.358068e+01
2.320000e-06	2.148194e-06	5.461337e-10	1.526540e+01	3.533693e+01
2.330000e-06	2.190073e-06	5.704762e-10	1.556299e+01	3.707834e+01
2.340000e-06	2.231684e-06	5.965189e-10	1.585868e+01	3.880254e+01
2.350000e-06	2.272999e-06	6.233167e-10	1.615228e+01	4.050720e+01
2.360000e-06	2.314029e-06	6.475430e-10	1.644384e+01	4.219005e+01
2.370000e-06	2.354844e-06	6.724609e-10	1.673388e+01	4.384891e+01
2.380000e-06	2.395409e-06	7.003614e-10	1.702214e+01	4.548166e+01
2.390000e-06	2.435789e-06	7.283025e-10	1.730909e+01	4.708633e+01
2.400000e-06	2.476065e-06	7.521545e-10	1.759529e+01	4.866106e+01
2.410000e-06	2.516248e-06	7.728657e-10	1.788084e+01	5.020414e+01
2.420000e-06	2.556334e-06	7.956246e-10	1.816570e+01	5.171407e+01
2.430000e-06	2.596250e-06	8.197712e-10	1.844935e+01	5.318949e+01
2.440000e-06	2.636076e-06	8.413831e-10	1.873236e+01	5.462930e+01
2.450000e-06	2.675818e-06	8.613105e-10	1.901477e+01	5.603259e+01
2.460000e-06	2.715411e-06	8.839492e-10	1.929612e+01	5.739868e+01
2.470000e-06	2.754808e-06	9.058357e-10	1.957609e+01	5.872713e+01
2.480000e-06	2.793993e-06	9.227484e-10	1.985454e+01	6.001773e+01
2.490000e-06	2.832989e-06	9.370392e-10	2.013165e+01	6.127050e+01
2.500000e-06	2.871683e-06	9.557968e-10	2.040662e+01	6.248568e+01
2.510000e-06	2.910181e-06	9.785003e-10	2.068019e+01	6.366369e+01
2.520000e-06	2.948511e-06	1.002137e-09	2.095257e+01	6.480513e+01
2.530000e-06	2.986541e-06	1.024204e-09	2.122282e+01	6.591078e+01
2.540000e-06	3.024347e-06	1.042136e-09	2.149147e+01	6.698149e+01
2.550000e-06	3.062040e-06	1.056359e-09	2.175932e+01	6.801826e+01
2.560000e-06	3.099665e-06	1.067978e-09	2.202669e+01	6.902209e+01
2.570000e-06	3.137117e-06	1.077492e-09	2.229283e+01	6.999407e+01
2.580000e-06	3.174224e-06	1.087265e-09	2.255652e+01	7.093523e+01
2.590000e-06	3.211057e-06	1.102610e-09	2.281826e+01	7.184661e+01
2.600000e-06	3.247752e-06	1.123658e-09	2.307902e+01	7.272918e+01
2.610000e-06	3.284197e-06	1.145712e-09	2.333801e+01	7.358385e+01
2.620000e-06	3.320409e-06	1.163433e-09	2.359533e+01	7.441142e+01
2.630000e-06	3.356500e-06	1.175383e-09	2.385180e+01	7.521263e+01
2.640000e-06	3.392435e-06	1.184124e-09	2.410716e+01	7.598809e+01
2.650000e-06	3.428215e-06	1.189530e-09	2.436142e+01	7.673835e+01
2.660000e-06	3.463905e-06	1.190947e-09	2.461504e+01	7.746386e+01
2.670000e-06	3.499453e-06	1.195350e-09	2.486765e+01	7.816500e+01
2.680000e-06	3.534763e-06	1.206366e-09	2.511856e+01	7.884209e+01
2.690000e-06	3.569652e-06	1.221740e-09	2.536649e+01	7.949541e+01
2.700000e-06	3.604072e-06	1.238337e-09	2.561109e+01	8.012522e+01
2.710000e-06	3.638142e-06	1.252131e-09	2.585319e+01	8.073179e+01
2.720000e-06	3.671820e-06	1.261128e-09	2.609251e+01	8.131539e+01
2.730000e-06	3.704894e-06	1.270048e-09	2.632754e+01	8.187630e+01
2.740000e-06	3.737523e-06	1.276743e-09	2.655941e+01	8.241488e+01
2.750000e-06	3.769943e-06	1.280975e-09	2.678979e+01	8.293149e+01
2.760000e-06	3.802161e-06	1.285750e-09	2.701873e+01	8.342655e+01
2.770000e-06	3.834193e-06	1.290995e-09	2.724636e+01	8.390054e+01
2.780000e-06	3.866075e-06	1.297750e-09	2.747292e+01	8.435396e+01
2.790000e-06	3.897854e-06	1.304685e-09	2.769874e+01	8.478734e+01
2.800000e-06	3.929430e-06	1.309848e-09	2.792313e+01	8.520124e+01
2.810000e-06	3.960771e-06	1.312899e-09	2.814584e+01	8.559621e+01
2.820000e-06	3.991815e-06	1.316020e-09	2.836645e+01	8.597281e+01
2.830000e-06	4.022455e-06	1.320631e-09	2.858418e+01	8.633156e+01
2.840000e-06	4.052752e-06	1.326083e-09	2.879947e+01	8.667298e+01
2.850000e-06	4.082808e-06	1.330287e-09	2.901306e+01	8.699751e+01
2.860000e-06	4.112682e-06	1.333737e-09	2.922534e+01	8.730559e+01
2.870000e-06	4.142314e-06	1.336934e-09	2.943591e+01	8.759759e+01
2.880000e-06	4.171635e-06	1.340241e-09	2.964427e+01	8.787384e+01
2.890000e-06	4.200611e-06	1.342824e-09	2.985018e+01	8.813464e+01
2.900000e-06	4.229264e-06	1.346120e-09	3.005379e+01	8.838027e+01
