# Temperatura_=_6.35
# Concentracion g/m^3_=_4090.0
# C_Vs_to_Am_M_A/Vsm_=_65563218390.804596
# pendiente_HvsI_1/m_=_3716.3
# ordenada_HvsI_A/m_=_1297.0
# frecuencia_Hz_=_135087.57016188742

Tiempo_(s)	Campo_(V.s)	Magnetizacion_(V.s)	Campo_(kA/m)	Magnetizacion_(A/m)
0.000000e+00	-5.396288e-06	-1.345543e-09	-3.838452e+01	-9.208297e+01
1.000000e-08	-5.396441e-06	-1.344105e-09	-3.838561e+01	-9.195473e+01
2.000000e-08	-5.396401e-06	-1.344570e-09	-3.838532e+01	-9.180946e+01
3.000000e-08	-5.396204e-06	-1.343935e-09	-3.838392e+01	-9.164787e+01
4.000000e-08	-5.395647e-06	-1.339312e-09	-3.837996e+01	-9.147166e+01
5.000000e-08	-5.394554e-06	-1.334881e-09	-3.837218e+01	-9.128349e+01
6.000000e-08	-5.392815e-06	-1.333614e-09	-3.835981e+01	-9.108698e+01
7.000000e-08	-5.390465e-06	-1.329433e-09	-3.834310e+01	-9.088664e+01
8.000000e-08	-5.387459e-06	-1.326516e-09	-3.832171e+01	-9.068771e+01
9.000000e-08	-5.383897e-06	-1.352244e-09	-3.829637e+01	-9.049601e+01
1.000000e-07	-5.379870e-06	-1.377894e-09	-3.826773e+01	-9.031773e+01
1.100000e-07	-5.375519e-06	-1.318862e-09	-3.823678e+01	-9.015920e+01
1.200000e-07	-5.371161e-06	-1.319465e-09	-3.820578e+01	-9.002663e+01
1.300000e-07	-5.366670e-06	-1.336178e-09	-3.817384e+01	-8.992581e+01
1.400000e-07	-5.361604e-06	-1.364694e-09	-3.813780e+01	-8.986193e+01
1.500000e-07	-5.355955e-06	-1.318468e-09	-3.809762e+01	-8.983925e+01
1.600000e-07	-5.350108e-06	-1.295682e-09	-3.805603e+01	-8.986092e+01
1.700000e-07	-5.344008e-06	-1.370953e-09	-3.801264e+01	-8.992882e+01
1.800000e-07	-5.337349e-06	-1.354444e-09	-3.796528e+01	-9.004339e+01
1.900000e-07	-5.330353e-06	-1.340187e-09	-3.791551e+01	-9.020358e+01
2.000000e-07	-5.323245e-06	-1.338122e-09	-3.786495e+01	-9.040684e+01
2.100000e-07	-5.315911e-06	-1.416202e-09	-3.781278e+01	-9.064914e+01
2.200000e-07	-5.308235e-06	-1.377042e-09	-3.775819e+01	-9.092510e+01
2.300000e-07	-5.300230e-06	-1.371412e-09	-3.770124e+01	-9.122816e+01
2.400000e-07	-5.291850e-06	-1.424694e-09	-3.764164e+01	-9.155078e+01
2.500000e-07	-5.283059e-06	-1.487652e-09	-3.757910e+01	-9.188470e+01
2.600000e-07	-5.273548e-06	-1.451680e-09	-3.751145e+01	-9.222126e+01
2.700000e-07	-5.263328e-06	-1.459705e-09	-3.743875e+01	-9.255165e+01
2.800000e-07	-5.252599e-06	-1.512465e-09	-3.736244e+01	-9.286728e+01
2.900000e-07	-5.241320e-06	-1.480995e-09	-3.728221e+01	-9.316006e+01
3.000000e-07	-5.229716e-06	-1.402302e-09	-3.719967e+01	-9.342269e+01
3.100000e-07	-5.217775e-06	-1.435761e-09	-3.711473e+01	-9.364889e+01
3.200000e-07	-5.205313e-06	-1.504917e-09	-3.702608e+01	-9.383362e+01
3.300000e-07	-5.192431e-06	-1.461011e-09	-3.693445e+01	-9.397322e+01
3.400000e-07	-5.179257e-06	-1.428646e-09	-3.684075e+01	-9.406550e+01
3.500000e-07	-5.165716e-06	-1.467594e-09	-3.674442e+01	-9.410978e+01
3.600000e-07	-5.151779e-06	-1.480265e-09	-3.664529e+01	-9.410683e+01
3.700000e-07	-5.137530e-06	-1.435263e-09	-3.654394e+01	-9.405877e+01
3.800000e-07	-5.122857e-06	-1.435951e-09	-3.643956e+01	-9.396895e+01
3.900000e-07	-5.107437e-06	-1.428651e-09	-3.632988e+01	-9.384173e+01
4.000000e-07	-5.091415e-06	-1.422103e-09	-3.621591e+01	-9.368223e+01
4.100000e-07	-5.075004e-06	-1.445147e-09	-3.609918e+01	-9.349613e+01
4.200000e-07	-5.058221e-06	-1.477662e-09	-3.597980e+01	-9.328931e+01
4.300000e-07	-5.041049e-06	-1.427702e-09	-3.585765e+01	-9.306768e+01
4.400000e-07	-5.023670e-06	-1.429773e-09	-3.573403e+01	-9.283686e+01
4.500000e-07	-5.006119e-06	-1.459936e-09	-3.560919e+01	-9.260198e+01
4.600000e-07	-4.988184e-06	-1.447445e-09	-3.548162e+01	-9.236747e+01
4.700000e-07	-4.969850e-06	-1.390470e-09	-3.535120e+01	-9.213695e+01
4.800000e-07	-4.951131e-06	-1.410577e-09	-3.521805e+01	-9.191309e+01
4.900000e-07	-4.931982e-06	-1.424849e-09	-3.508184e+01	-9.169758e+01
5.000000e-07	-4.912541e-06	-1.423298e-09	-3.494356e+01	-9.149116e+01
5.100000e-07	-4.892883e-06	-1.410592e-09	-3.480373e+01	-9.129363e+01
5.200000e-07	-4.872947e-06	-1.409241e-09	-3.466192e+01	-9.110400e+01
5.300000e-07	-4.852753e-06	-1.398725e-09	-3.451828e+01	-9.092059e+01
5.400000e-07	-4.832321e-06	-1.421003e-09	-3.437294e+01	-9.074122e+01
5.500000e-07	-4.811611e-06	-1.416107e-09	-3.422563e+01	-9.056338e+01
5.600000e-07	-4.790502e-06	-1.390402e-09	-3.407548e+01	-9.038445e+01
5.700000e-07	-4.769031e-06	-1.389212e-09	-3.392275e+01	-9.020185e+01
5.800000e-07	-4.747263e-06	-1.409080e-09	-3.376791e+01	-9.001325e+01
5.900000e-07	-4.725272e-06	-1.393972e-09	-3.361149e+01	-8.981668e+01
6.000000e-07	-4.702991e-06	-1.372765e-09	-3.345300e+01	-8.961071e+01
6.100000e-07	-4.680272e-06	-1.374032e-09	-3.329140e+01	-8.939449e+01
6.200000e-07	-4.657231e-06	-1.383086e-09	-3.312750e+01	-8.916780e+01
6.300000e-07	-4.633807e-06	-1.386156e-09	-3.296089e+01	-8.893107e+01
6.400000e-07	-4.610122e-06	-1.381541e-09	-3.279241e+01	-8.868533e+01
6.500000e-07	-4.586322e-06	-1.377573e-09	-3.262312e+01	-8.843213e+01
6.600000e-07	-4.562326e-06	-1.375882e-09	-3.245243e+01	-8.817346e+01
6.700000e-07	-4.537992e-06	-1.381115e-09	-3.227934e+01	-8.791160e+01
6.800000e-07	-4.513243e-06	-1.363478e-09	-3.210330e+01	-8.764900e+01
6.900000e-07	-4.488044e-06	-1.346867e-09	-3.192405e+01	-8.738809e+01
7.000000e-07	-4.462234e-06	-1.343762e-09	-3.174047e+01	-8.713118e+01
7.100000e-07	-4.435917e-06	-1.356862e-09	-3.155327e+01	-8.688029e+01
7.200000e-07	-4.409201e-06	-1.353442e-09	-3.136323e+01	-8.663703e+01
7.300000e-07	-4.382038e-06	-1.352386e-09	-3.117002e+01	-8.640255e+01
7.400000e-07	-4.354563e-06	-1.348360e-09	-3.097459e+01	-8.617742e+01
7.500000e-07	-4.326916e-06	-1.355400e-09	-3.077793e+01	-8.596166e+01
7.600000e-07	-4.299005e-06	-1.344221e-09	-3.057939e+01	-8.575470e+01
7.700000e-07	-4.270892e-06	-1.330594e-09	-3.037942e+01	-8.555543e+01
7.800000e-07	-4.242642e-06	-1.315822e-09	-3.017848e+01	-8.536232e+01
7.900000e-07	-4.214186e-06	-1.320511e-09	-2.997606e+01	-8.517345e+01
8.000000e-07	-4.185460e-06	-1.320614e-09	-2.977174e+01	-8.498666e+01
8.100000e-07	-4.156328e-06	-1.318702e-09	-2.956452e+01	-8.479968e+01
8.200000e-07	-4.126840e-06	-1.313648e-09	-2.935477e+01	-8.461025e+01
8.300000e-07	-4.097118e-06	-1.318267e-09	-2.914335e+01	-8.441626e+01
8.400000e-07	-4.067140e-06	-1.316258e-09	-2.893011e+01	-8.421589e+01
8.500000e-07	-4.036872e-06	-1.308812e-09	-2.871481e+01	-8.400766e+01
8.600000e-07	-4.006268e-06	-1.295569e-09	-2.849712e+01	-8.379055e+01
8.700000e-07	-3.975346e-06	-1.292537e-09	-2.827717e+01	-8.356402e+01
8.800000e-07	-3.944215e-06	-1.293484e-09	-2.805573e+01	-8.332805e+01
8.900000e-07	-3.912835e-06	-1.292889e-09	-2.783252e+01	-8.308313e+01
9.000000e-07	-3.881194e-06	-1.286143e-09	-2.760745e+01	-8.283019e+01
9.100000e-07	-3.849385e-06	-1.280081e-09	-2.738119e+01	-8.257055e+01
9.200000e-07	-3.817435e-06	-1.280001e-09	-2.715392e+01	-8.230584e+01
9.300000e-07	-3.785333e-06	-1.278343e-09	-2.692557e+01	-8.203784e+01
9.400000e-07	-3.752924e-06	-1.275619e-09	-2.669505e+01	-8.176844e+01
9.500000e-07	-3.720152e-06	-1.270636e-09	-2.646193e+01	-8.149943e+01
9.600000e-07	-3.687146e-06	-1.271791e-09	-2.622716e+01	-8.123248e+01
9.700000e-07	-3.653836e-06	-1.267315e-09	-2.599022e+01	-8.096894e+01
9.800000e-07	-3.620110e-06	-1.258740e-09	-2.575032e+01	-8.070981e+01
9.900000e-07	-3.585704e-06	-1.246166e-09	-2.550559e+01	-8.045567e+01
1.000000e-06	-3.550760e-06	-1.241143e-09	-2.525703e+01	-8.020662e+01
1.010000e-06	-3.515684e-06	-1.237169e-09	-2.500753e+01	-7.996231e+01
1.020000e-06	-3.480379e-06	-1.235177e-09	-2.475640e+01	-7.972192e+01
1.030000e-06	-3.444789e-06	-1.229843e-09	-2.450324e+01	-7.948421e+01
1.040000e-06	-3.408956e-06	-1.230590e-09	-2.424836e+01	-7.924765e+01
1.050000e-06	-3.372990e-06	-1.230784e-09	-2.399253e+01	-7.901043e+01
1.060000e-06	-3.336915e-06	-1.229270e-09	-2.373592e+01	-7.877063e+01
1.070000e-06	-3.300743e-06	-1.216691e-09	-2.347863e+01	-7.852630e+01
1.080000e-06	-3.264400e-06	-1.206160e-09	-2.322011e+01	-7.827562e+01
1.090000e-06	-3.227770e-06	-1.200624e-09	-2.295956e+01	-7.801694e+01
1.100000e-06	-3.190833e-06	-1.200964e-09	-2.269682e+01	-7.774897e+01
1.110000e-06	-3.153697e-06	-1.197682e-09	-2.243267e+01	-7.747077e+01
1.120000e-06	-3.116333e-06	-1.197257e-09	-2.216689e+01	-7.718188e+01
1.130000e-06	-3.078725e-06	-1.195643e-09	-2.189938e+01	-7.688231e+01
1.140000e-06	-3.040951e-06	-1.192165e-09	-2.163069e+01	-7.657258e+01
1.150000e-06	-3.002992e-06	-1.182740e-09	-2.136068e+01	-7.625365e+01
1.160000e-06	-2.964867e-06	-1.174146e-09	-2.108949e+01	-7.592691e+01
1.170000e-06	-2.926565e-06	-1.167226e-09	-2.081705e+01	-7.559408e+01
1.180000e-06	-2.887997e-06	-1.161584e-09	-2.054271e+01	-7.525716e+01
1.190000e-06	-2.849198e-06	-1.154578e-09	-2.026673e+01	-7.491825e+01
1.200000e-06	-2.810182e-06	-1.150172e-09	-1.998920e+01	-7.457949e+01
1.210000e-06	-2.770889e-06	-1.150879e-09	-1.970970e+01	-7.424293e+01
1.220000e-06	-2.731500e-06	-1.151363e-09	-1.942952e+01	-7.391041e+01
1.230000e-06	-2.691982e-06	-1.148970e-09	-1.914843e+01	-7.358348e+01
1.240000e-06	-2.652306e-06	-1.141951e-09	-1.886620e+01	-7.326328e+01
1.250000e-06	-2.612592e-06	-1.136074e-09	-1.858372e+01	-7.295051e+01
1.260000e-06	-2.572801e-06	-1.129705e-09	-1.830067e+01	-7.264537e+01
1.270000e-06	-2.532877e-06	-1.123936e-09	-1.801669e+01	-7.234759e+01
1.280000e-06	-2.492784e-06	-1.116755e-09	-1.773150e+01	-7.205639e+01
1.290000e-06	-2.452567e-06	-1.112738e-09	-1.744543e+01	-7.177056e+01
1.300000e-06	-2.412274e-06	-1.108775e-09	-1.715883e+01	-7.148849e+01
1.310000e-06	-2.371812e-06	-1.105768e-09	-1.687102e+01	-7.120832e+01
1.320000e-06	-2.331179e-06	-1.102228e-09	-1.658199e+01	-7.092796e+01
1.330000e-06	-2.290302e-06	-1.098547e-09	-1.629122e+01	-7.064523e+01
1.340000e-06	-2.249166e-06	-1.093206e-09	-1.599862e+01	-7.035800e+01
1.350000e-06	-2.207823e-06	-1.089916e-09	-1.570454e+01	-7.006423e+01
1.360000e-06	-2.166120e-06	-1.082509e-09	-1.540790e+01	-6.976211e+01
1.370000e-06	-2.124090e-06	-1.074226e-09	-1.510894e+01	-6.945014e+01
1.380000e-06	-2.081739e-06	-1.067700e-09	-1.480768e+01	-6.912717e+01
1.390000e-06	-2.039166e-06	-1.064400e-09	-1.450486e+01	-6.879245e+01
1.400000e-06	-1.996432e-06	-1.058063e-09	-1.420089e+01	-6.844567e+01
1.410000e-06	-1.953442e-06	-1.051660e-09	-1.389509e+01	-6.808691e+01
1.420000e-06	-1.910278e-06	-1.044913e-09	-1.358806e+01	-6.771665e+01
1.430000e-06	-1.866920e-06	-1.040206e-09	-1.327965e+01	-6.733568e+01
1.440000e-06	-1.823348e-06	-1.036751e-09	-1.296972e+01	-6.694507e+01
1.450000e-06	-1.779711e-06	-1.031428e-09	-1.265932e+01	-6.654607e+01
1.460000e-06	-1.735980e-06	-1.025309e-09	-1.234825e+01	-6.614002e+01
1.470000e-06	-1.692095e-06	-1.019372e-09	-1.203610e+01	-6.572825e+01
1.480000e-06	-1.648242e-06	-1.012343e-09	-1.172417e+01	-6.531204e+01
1.490000e-06	-1.604390e-06	-1.005542e-09	-1.141224e+01	-6.489245e+01
1.500000e-06	-1.560432e-06	-9.984257e-10	-1.109956e+01	-6.447034e+01
1.510000e-06	-1.516371e-06	-9.908747e-10	-1.078615e+01	-6.404628e+01
1.520000e-06	-1.472207e-06	-9.841339e-10	-1.047201e+01	-6.362050e+01
1.530000e-06	-1.427975e-06	-9.759079e-10	-1.015737e+01	-6.319290e+01
1.540000e-06	-1.383713e-06	-9.656776e-10	-9.842538e+00	-6.276305e+01
1.550000e-06	-1.339431e-06	-9.557766e-10	-9.527552e+00	-6.233021e+01
1.560000e-06	-1.295079e-06	-9.474416e-10	-9.212072e+00	-6.189338e+01
1.570000e-06	-1.250575e-06	-9.415749e-10	-8.895506e+00	-6.145136e+01
1.580000e-06	-1.205965e-06	-9.367714e-10	-8.578192e+00	-6.100279e+01
1.590000e-06	-1.161319e-06	-9.281322e-10	-8.260614e+00	-6.054627e+01
1.600000e-06	-1.116583e-06	-9.191556e-10	-7.942400e+00	-6.008040e+01
1.610000e-06	-1.071806e-06	-9.107842e-10	-7.623900e+00	-5.960384e+01
1.620000e-06	-1.026973e-06	-9.009507e-10	-7.304996e+00	-5.911541e+01
1.630000e-06	-9.820352e-07	-8.891659e-10	-6.985347e+00	-5.861413e+01
1.640000e-06	-9.370725e-07	-8.800335e-10	-6.665521e+00	-5.809922e+01
1.650000e-06	-8.920729e-07	-8.715839e-10	-6.345434e+00	-5.757018e+01
1.660000e-06	-8.469548e-07	-8.640841e-10	-6.024503e+00	-5.702675e+01
1.670000e-06	-8.016773e-07	-8.568942e-10	-5.702437e+00	-5.646890e+01
1.680000e-06	-7.562948e-07	-8.500188e-10	-5.379626e+00	-5.589683e+01
1.690000e-06	-7.108231e-07	-8.428562e-10	-5.056180e+00	-5.531087e+01
1.700000e-06	-6.653238e-07	-8.350476e-10	-4.732537e+00	-5.471148e+01
1.710000e-06	-6.198553e-07	-8.233577e-10	-4.409113e+00	-5.409916e+01
1.720000e-06	-5.743984e-07	-8.123484e-10	-4.085772e+00	-5.347435e+01
1.730000e-06	-5.289137e-07	-8.037410e-10	-3.762234e+00	-5.283744e+01
1.740000e-06	-4.832563e-07	-7.956974e-10	-3.437467e+00	-5.218863e+01
1.750000e-06	-4.375967e-07	-7.852828e-10	-3.112683e+00	-5.152791e+01
1.760000e-06	-3.919948e-07	-7.732393e-10	-2.788311e+00	-5.085504e+01
1.770000e-06	-3.462438e-07	-7.604890e-10	-2.462878e+00	-5.016948e+01
1.780000e-06	-3.004009e-07	-7.495576e-10	-2.136792e+00	-4.947038e+01
1.790000e-06	-2.545494e-07	-7.400193e-10	-1.810644e+00	-4.875664e+01
1.800000e-06	-2.087753e-07	-7.297101e-10	-1.485046e+00	-4.802687e+01
1.810000e-06	-1.630919e-07	-7.171853e-10	-1.160094e+00	-4.727944e+01
1.820000e-06	-1.173559e-07	-7.025926e-10	-8.347681e-01	-4.651257e+01
1.830000e-06	-7.161582e-08	-6.891677e-10	-5.094128e-01	-4.572433e+01
1.840000e-06	-2.590420e-08	-6.771925e-10	-1.842601e-01	-4.491274e+01
1.850000e-06	1.990544e-08	-6.667535e-10	1.415900e-01	-4.407586e+01
1.860000e-06	6.575699e-08	-6.561753e-10	4.677382e-01	-4.321181e+01
1.870000e-06	1.115311e-07	-6.468953e-10	7.933357e-01	-4.231887e+01
1.880000e-06	1.573247e-07	-6.368828e-10	1.119072e+00	-4.139553e+01
1.890000e-06	2.031308e-07	-6.222325e-10	1.444896e+00	-4.044052e+01
1.900000e-06	2.488795e-07	-6.026909e-10	1.770313e+00	-3.945287e+01
1.910000e-06	2.945946e-07	-5.853554e-10	2.095491e+00	-3.843192e+01
1.920000e-06	3.402702e-07	-5.707377e-10	2.420387e+00	-3.737731e+01
1.930000e-06	3.859636e-07	-5.544775e-10	2.745411e+00	-3.628898e+01
1.940000e-06	4.316538e-07	-5.362084e-10	3.070411e+00	-3.516714e+01
1.950000e-06	4.772619e-07	-5.174238e-10	3.394827e+00	-3.401226e+01
1.960000e-06	5.227135e-07	-5.012769e-10	3.718131e+00	-3.282499e+01
1.970000e-06	5.682131e-07	-4.847809e-10	4.041776e+00	-3.160610e+01
1.980000e-06	6.137810e-07	-4.653027e-10	4.365906e+00	-3.035648e+01
1.990000e-06	6.591966e-07	-4.443157e-10	4.688953e+00	-2.907704e+01
2.000000e-06	7.045012e-07	-4.250695e-10	5.011211e+00	-2.776865e+01
2.010000e-06	7.497423e-07	-4.064508e-10	5.333017e+00	-2.643213e+01
2.020000e-06	7.949452e-07	-3.867631e-10	5.654551e+00	-2.506818e+01
2.030000e-06	8.400927e-07	-3.649287e-10	5.975692e+00	-2.367738e+01
2.040000e-06	8.852057e-07	-3.397936e-10	6.296586e+00	-2.226014e+01
2.050000e-06	9.303018e-07	-3.170708e-10	6.617361e+00	-2.081672e+01
2.060000e-06	9.752969e-07	-2.936148e-10	6.937417e+00	-1.934722e+01
2.070000e-06	1.020199e-06	-2.676724e-10	7.256809e+00	-1.785161e+01
2.080000e-06	1.065058e-06	-2.408514e-10	7.575897e+00	-1.632975e+01
2.090000e-06	1.109818e-06	-2.173414e-10	7.894285e+00	-1.478142e+01
2.100000e-06	1.154539e-06	-1.979849e-10	8.212390e+00	-1.320637e+01
2.110000e-06	1.199132e-06	-1.787367e-10	8.529588e+00	-1.160435e+01
2.120000e-06	1.243620e-06	-1.539674e-10	8.846033e+00	-9.975125e+00
2.130000e-06	1.288069e-06	-1.248775e-10	9.162207e+00	-8.318584e+00
2.140000e-06	1.332385e-06	-9.817324e-11	9.477435e+00	-6.634713e+00
2.150000e-06	1.376631e-06	-7.274764e-11	9.792162e+00	-4.923650e+00
2.160000e-06	1.420833e-06	-4.822247e-11	1.010657e+01	-3.185704e+00
2.170000e-06	1.464988e-06	-2.276888e-11	1.042065e+01	-1.421373e+00
2.180000e-06	1.509046e-06	2.973324e-12	1.073404e+01	3.686446e-01
2.190000e-06	1.553018e-06	2.706008e-11	1.104682e+01	2.183455e+00
2.200000e-06	1.596917e-06	5.410617e-11	1.135909e+01	4.021964e+00
2.210000e-06	1.640707e-06	8.352100e-11	1.167057e+01	5.882895e+00
2.220000e-06	1.684495e-06	1.126167e-10	1.198204e+01	7.764792e+00
2.230000e-06	1.728288e-06	1.429056e-10	1.229354e+01	9.666043e+00
2.240000e-06	1.772068e-06	1.772420e-10	1.260495e+01	1.158489e+01
2.250000e-06	1.815707e-06	2.116640e-10	1.291537e+01	1.351944e+01
2.260000e-06	1.859151e-06	2.428870e-10	1.322439e+01	1.546770e+01
2.270000e-06	1.902506e-06	2.721942e-10	1.353278e+01	1.742754e+01
2.280000e-06	1.945651e-06	3.011425e-10	1.383968e+01	1.939677e+01
2.290000e-06	1.988556e-06	3.311817e-10	1.414486e+01	2.137307e+01
2.300000e-06	2.031313e-06	3.606642e-10	1.444900e+01	2.335405e+01
2.310000e-06	2.073848e-06	3.875768e-10	1.475156e+01	2.533722e+01
2.320000e-06	2.116236e-06	4.173653e-10	1.505307e+01	2.731999e+01
2.330000e-06	2.158348e-06	4.523616e-10	1.535262e+01	2.929970e+01
2.340000e-06	2.200050e-06	4.840200e-10	1.564925e+01	3.127357e+01
2.350000e-06	2.241483e-06	5.113527e-10	1.594396e+01	3.323876e+01
2.360000e-06	2.282736e-06	5.379994e-10	1.623741e+01	3.519233e+01
2.370000e-06	2.323772e-06	5.691050e-10	1.652930e+01	3.713128e+01
2.380000e-06	2.364436e-06	6.011430e-10	1.681855e+01	3.905258e+01
2.390000e-06	2.404831e-06	6.286428e-10	1.710588e+01	4.095317e+01
2.400000e-06	2.445068e-06	6.538344e-10	1.739209e+01	4.283001e+01
2.410000e-06	2.485211e-06	6.802376e-10	1.767764e+01	4.468011e+01
2.420000e-06	2.525296e-06	7.102810e-10	1.796277e+01	4.650057e+01
2.430000e-06	2.565258e-06	7.398058e-10	1.824702e+01	4.828863e+01
2.440000e-06	2.605081e-06	7.658073e-10	1.853029e+01	5.004169e+01
2.450000e-06	2.644818e-06	7.898518e-10	1.881295e+01	5.175739e+01
2.460000e-06	2.684473e-06	8.148357e-10	1.909501e+01	5.343364e+01
2.470000e-06	2.723960e-06	8.415531e-10	1.937589e+01	5.506861e+01
2.480000e-06	2.763271e-06	8.637178e-10	1.965551e+01	5.666082e+01
2.490000e-06	2.802392e-06	8.829665e-10	1.993379e+01	5.820911e+01
2.500000e-06	2.841262e-06	9.067677e-10	2.021027e+01	5.971266e+01
2.510000e-06	2.879889e-06	9.333996e-10	2.048503e+01	6.117102e+01
2.520000e-06	2.918298e-06	9.604171e-10	2.075825e+01	6.258403e+01
2.530000e-06	2.956523e-06	9.874006e-10	2.103014e+01	6.395186e+01
2.540000e-06	2.994598e-06	1.009481e-09	2.130097e+01	6.527493e+01
2.550000e-06	3.032495e-06	1.027259e-09	2.157054e+01	6.655390e+01
2.560000e-06	3.070197e-06	1.041795e-09	2.183872e+01	6.778962e+01
2.570000e-06	3.107725e-06	1.052904e-09	2.210566e+01	6.898307e+01
2.580000e-06	3.145086e-06	1.063236e-09	2.237142e+01	7.013530e+01
2.590000e-06	3.182261e-06	1.077696e-09	2.263585e+01	7.124744e+01
2.600000e-06	3.219111e-06	1.098016e-09	2.289796e+01	7.232058e+01
2.610000e-06	3.255699e-06	1.119711e-09	2.315822e+01	7.335579e+01
2.620000e-06	3.292032e-06	1.139262e-09	2.341667e+01	7.435407e+01
2.630000e-06	3.328113e-06	1.154835e-09	2.367331e+01	7.531633e+01
2.640000e-06	3.364102e-06	1.165000e-09	2.392931e+01	7.624340e+01
2.650000e-06	3.399995e-06	1.172161e-09	2.418462e+01	7.713600e+01
2.660000e-06	3.435777e-06	1.178590e-09	2.443914e+01	7.799479e+01
2.670000e-06	3.471331e-06	1.185229e-09	2.469204e+01	7.882036e+01
2.680000e-06	3.506718e-06	1.195671e-09	2.494376e+01	7.961324e+01
2.690000e-06	3.541913e-06	1.210279e-09	2.519410e+01	8.037399e+01
2.700000e-06	3.576679e-06	1.228116e-09	2.544139e+01	8.110316e+01
2.710000e-06	3.610973e-06	1.245464e-09	2.568533e+01	8.180137e+01
2.720000e-06	3.644802e-06	1.255565e-09	2.592596e+01	8.246931e+01
2.730000e-06	3.678245e-06	1.262640e-09	2.616385e+01	8.310778e+01
2.740000e-06	3.711290e-06	1.269463e-09	2.639890e+01	8.371769e+01
2.750000e-06	3.743871e-06	1.277142e-09	2.663065e+01	8.430007e+01
2.760000e-06	3.776149e-06	1.284860e-09	2.686025e+01	8.485605e+01
2.770000e-06	3.808260e-06	1.288503e-09	2.708866e+01	8.538689e+01
2.780000e-06	3.840200e-06	1.293820e-09	2.731586e+01	8.589390e+01
2.790000e-06	3.872026e-06	1.300796e-09	2.754224e+01	8.637846e+01
2.800000e-06	3.903719e-06	1.308749e-09	2.776767e+01	8.684196e+01
2.810000e-06	3.935175e-06	1.315288e-09	2.799143e+01	8.728574e+01
2.820000e-06	3.966344e-06	1.320282e-09	2.821314e+01	8.771110e+01
2.830000e-06	3.997123e-06	1.327773e-09	2.843207e+01	8.811921e+01
2.840000e-06	4.027608e-06	1.337476e-09	2.864891e+01	8.851108e+01
2.850000e-06	4.057883e-06	1.343363e-09	2.886426e+01	8.888757e+01
2.860000e-06	4.087813e-06	1.344018e-09	2.907716e+01	8.924933e+01
2.870000e-06	4.117503e-06	1.341929e-09	2.928835e+01	8.959678e+01
2.880000e-06	4.147017e-06	1.344019e-09	2.949828e+01	8.993015e+01
2.890000e-06	4.176344e-06	1.349442e-09	2.970689e+01	9.024947e+01
2.900000e-06	4.205360e-06	1.355790e-09	2.991328e+01	9.055459e+01
