# Temperatura_=_1.04
# Concentracion g/m^3_=_4090.0
# C_Vs_to_Am_M_A/Vsm_=_65563218390.804596
# pendiente_HvsI_1/m_=_3716.3
# ordenada_HvsI_A/m_=_1297.0
# frecuencia_Hz_=_135082.54389130755

Tiempo_(s)	Campo_(V.s)	Magnetizacion_(V.s)	Campo_(kA/m)	Magnetizacion_(A/m)
0.000000e+00	-5.410027e-06	-1.645372e-09	-3.839142e+01	-1.094076e+02
1.000000e-08	-5.410050e-06	-1.639376e-09	-3.839158e+01	-1.092706e+02
2.000000e-08	-5.409837e-06	-1.631399e-09	-3.839008e+01	-1.091103e+02
3.000000e-08	-5.409328e-06	-1.626548e-09	-3.838646e+01	-1.089273e+02
4.000000e-08	-5.408448e-06	-1.626729e-09	-3.838022e+01	-1.087232e+02
5.000000e-08	-5.407010e-06	-1.627499e-09	-3.837001e+01	-1.085009e+02
6.000000e-08	-5.404877e-06	-1.621262e-09	-3.835488e+01	-1.082644e+02
7.000000e-08	-5.402079e-06	-1.629661e-09	-3.833502e+01	-1.080190e+02
8.000000e-08	-5.398736e-06	-1.679538e-09	-3.831130e+01	-1.077707e+02
9.000000e-08	-5.394925e-06	-1.679682e-09	-3.828425e+01	-1.075266e+02
1.000000e-07	-5.390741e-06	-1.591823e-09	-3.825456e+01	-1.072941e+02
1.100000e-07	-5.386443e-06	-1.597267e-09	-3.822406e+01	-1.070808e+02
1.200000e-07	-5.382022e-06	-1.678542e-09	-3.819269e+01	-1.068946e+02
1.300000e-07	-5.377161e-06	-1.667689e-09	-3.815820e+01	-1.067425e+02
1.400000e-07	-5.371787e-06	-1.578841e-09	-3.812006e+01	-1.066311e+02
1.500000e-07	-5.366186e-06	-1.560878e-09	-3.808031e+01	-1.065659e+02
1.600000e-07	-5.360314e-06	-1.705401e-09	-3.803864e+01	-1.065513e+02
1.700000e-07	-5.353797e-06	-1.636948e-09	-3.799240e+01	-1.065899e+02
1.800000e-07	-5.346738e-06	-1.560629e-09	-3.794230e+01	-1.066828e+02
1.900000e-07	-5.339468e-06	-1.586408e-09	-3.789071e+01	-1.068294e+02
2.000000e-07	-5.332067e-06	-1.706398e-09	-3.783819e+01	-1.070271e+02
2.100000e-07	-5.324354e-06	-1.609363e-09	-3.778346e+01	-1.072716e+02
2.200000e-07	-5.316369e-06	-1.564220e-09	-3.772679e+01	-1.075571e+02
2.300000e-07	-5.308214e-06	-1.681543e-09	-3.766892e+01	-1.078763e+02
2.400000e-07	-5.299720e-06	-1.749186e-09	-3.760865e+01	-1.082206e+02
2.500000e-07	-5.290502e-06	-1.658184e-09	-3.754323e+01	-1.085807e+02
2.600000e-07	-5.280593e-06	-1.660817e-09	-3.747291e+01	-1.089466e+02
2.700000e-07	-5.270114e-06	-1.796159e-09	-3.739855e+01	-1.093082e+02
2.800000e-07	-5.258993e-06	-1.739122e-09	-3.731963e+01	-1.096556e+02
2.900000e-07	-5.247485e-06	-1.616000e-09	-3.723797e+01	-1.099794e+02
3.000000e-07	-5.235623e-06	-1.674867e-09	-3.715379e+01	-1.102710e+02
3.100000e-07	-5.223320e-06	-1.796875e-09	-3.706649e+01	-1.105233e+02
3.200000e-07	-5.210618e-06	-1.692045e-09	-3.697635e+01	-1.107303e+02
3.300000e-07	-5.197615e-06	-1.661910e-09	-3.688408e+01	-1.108878e+02
3.400000e-07	-5.184227e-06	-1.736017e-09	-3.678907e+01	-1.109931e+02
3.500000e-07	-5.170396e-06	-1.759738e-09	-3.669092e+01	-1.110456e+02
3.600000e-07	-5.156200e-06	-1.670645e-09	-3.659018e+01	-1.110460e+02
3.700000e-07	-5.141655e-06	-1.712693e-09	-3.648696e+01	-1.109967e+02
3.800000e-07	-5.126372e-06	-1.700916e-09	-3.637851e+01	-1.109018e+02
3.900000e-07	-5.110420e-06	-1.667188e-09	-3.626531e+01	-1.107662e+02
4.000000e-07	-5.094132e-06	-1.688752e-09	-3.614973e+01	-1.105958e+02
4.100000e-07	-5.077365e-06	-1.746315e-09	-3.603074e+01	-1.103972e+02
4.200000e-07	-5.060181e-06	-1.664284e-09	-3.590880e+01	-1.101772e+02
4.300000e-07	-5.042784e-06	-1.659264e-09	-3.578534e+01	-1.099427e+02
4.400000e-07	-5.025244e-06	-1.719810e-09	-3.566087e+01	-1.097002e+02
4.500000e-07	-5.007417e-06	-1.710306e-09	-3.553437e+01	-1.094554e+02
4.600000e-07	-4.989087e-06	-1.637829e-09	-3.540429e+01	-1.092136e+02
4.700000e-07	-4.970368e-06	-1.660219e-09	-3.527145e+01	-1.089788e+02
4.800000e-07	-4.951318e-06	-1.681383e-09	-3.513627e+01	-1.087540e+02
4.900000e-07	-4.931976e-06	-1.665427e-09	-3.499901e+01	-1.085412e+02
5.000000e-07	-4.912377e-06	-1.651731e-09	-3.485992e+01	-1.083411e+02
5.100000e-07	-4.892469e-06	-1.637635e-09	-3.471865e+01	-1.081533e+02
5.200000e-07	-4.872273e-06	-1.636147e-09	-3.457533e+01	-1.079765e+02
5.300000e-07	-4.851818e-06	-1.664368e-09	-3.443018e+01	-1.078088e+02
5.400000e-07	-4.831113e-06	-1.669206e-09	-3.428325e+01	-1.076475e+02
5.500000e-07	-4.810025e-06	-1.632910e-09	-3.413360e+01	-1.074894e+02
5.600000e-07	-4.788602e-06	-1.645397e-09	-3.398158e+01	-1.073315e+02
5.700000e-07	-4.766903e-06	-1.659335e-09	-3.382759e+01	-1.071705e+02
5.800000e-07	-4.744901e-06	-1.634037e-09	-3.367146e+01	-1.070037e+02
5.900000e-07	-4.722605e-06	-1.599212e-09	-3.351324e+01	-1.068284e+02
6.000000e-07	-4.699936e-06	-1.602836e-09	-3.335237e+01	-1.066430e+02
6.100000e-07	-4.676859e-06	-1.606736e-09	-3.318861e+01	-1.064461e+02
6.200000e-07	-4.653503e-06	-1.631959e-09	-3.302287e+01	-1.062372e+02
6.300000e-07	-4.629888e-06	-1.625154e-09	-3.285529e+01	-1.060168e+02
6.400000e-07	-4.606043e-06	-1.613246e-09	-3.268608e+01	-1.057856e+02
6.500000e-07	-4.581985e-06	-1.608902e-09	-3.251535e+01	-1.055453e+02
6.600000e-07	-4.557654e-06	-1.619832e-09	-3.234269e+01	-1.052980e+02
6.700000e-07	-4.533018e-06	-1.585328e-09	-3.216786e+01	-1.050459e+02
6.800000e-07	-4.507955e-06	-1.565103e-09	-3.199001e+01	-1.047918e+02
6.900000e-07	-4.482349e-06	-1.564931e-09	-3.180830e+01	-1.045383e+02
7.000000e-07	-4.456258e-06	-1.585508e-09	-3.162315e+01	-1.042879e+02
7.100000e-07	-4.429655e-06	-1.585345e-09	-3.143437e+01	-1.040428e+02
7.200000e-07	-4.402615e-06	-1.585545e-09	-3.124248e+01	-1.038049e+02
7.300000e-07	-4.375272e-06	-1.578803e-09	-3.104845e+01	-1.035753e+02
7.400000e-07	-4.347645e-06	-1.589741e-09	-3.085239e+01	-1.033548e+02
7.500000e-07	-4.319838e-06	-1.582856e-09	-3.065507e+01	-1.031434e+02
7.600000e-07	-4.291814e-06	-1.562776e-09	-3.045619e+01	-1.029406e+02
7.700000e-07	-4.263598e-06	-1.549265e-09	-3.025597e+01	-1.027453e+02
7.800000e-07	-4.235147e-06	-1.557954e-09	-3.005407e+01	-1.025558e+02
7.900000e-07	-4.206334e-06	-1.561060e-09	-2.984960e+01	-1.023701e+02
8.000000e-07	-4.177230e-06	-1.554942e-09	-2.964307e+01	-1.021857e+02
8.100000e-07	-4.147831e-06	-1.548158e-09	-2.943444e+01	-1.020003e+02
8.200000e-07	-4.118045e-06	-1.547110e-09	-2.922307e+01	-1.018114e+02
8.300000e-07	-4.087939e-06	-1.550884e-09	-2.900943e+01	-1.016165e+02
8.400000e-07	-4.057537e-06	-1.544114e-09	-2.879369e+01	-1.014136e+02
8.500000e-07	-4.026860e-06	-1.532406e-09	-2.857599e+01	-1.012009e+02
8.600000e-07	-3.995992e-06	-1.524392e-09	-2.835694e+01	-1.009771e+02
8.700000e-07	-3.964931e-06	-1.530918e-09	-2.813652e+01	-1.007416e+02
8.800000e-07	-3.933633e-06	-1.527967e-09	-2.791442e+01	-1.004939e+02
8.900000e-07	-3.902108e-06	-1.518245e-09	-2.769071e+01	-1.002344e+02
9.000000e-07	-3.870344e-06	-1.506042e-09	-2.746530e+01	-9.996376e+01
9.100000e-07	-3.838373e-06	-1.511092e-09	-2.723842e+01	-9.968327e+01
9.200000e-07	-3.806297e-06	-1.512681e-09	-2.701080e+01	-9.939442e+01
9.300000e-07	-3.773999e-06	-1.511933e-09	-2.678161e+01	-9.909897e+01
9.400000e-07	-3.741388e-06	-1.503677e-09	-2.655019e+01	-9.879883e+01
9.500000e-07	-3.708514e-06	-1.506776e-09	-2.631690e+01	-9.849591e+01
9.600000e-07	-3.675293e-06	-1.504013e-09	-2.608115e+01	-9.819203e+01
9.700000e-07	-3.641517e-06	-1.494229e-09	-2.584147e+01	-9.788882e+01
9.800000e-07	-3.607261e-06	-1.476844e-09	-2.559837e+01	-9.758761e+01
9.900000e-07	-3.572654e-06	-1.472096e-09	-2.535279e+01	-9.728942e+01
1.000000e-06	-3.537643e-06	-1.473452e-09	-2.510434e+01	-9.699486e+01
1.010000e-06	-3.502320e-06	-1.480078e-09	-2.485368e+01	-9.670416e+01
1.020000e-06	-3.466789e-06	-1.479423e-09	-2.460154e+01	-9.641715e+01
1.030000e-06	-3.431069e-06	-1.479199e-09	-2.434806e+01	-9.613332e+01
1.040000e-06	-3.395188e-06	-1.475753e-09	-2.409343e+01	-9.585186e+01
1.050000e-06	-3.359144e-06	-1.471341e-09	-2.383765e+01	-9.557172e+01
1.060000e-06	-3.322892e-06	-1.455823e-09	-2.358039e+01	-9.529171e+01
1.070000e-06	-3.286390e-06	-1.441332e-09	-2.332136e+01	-9.501059e+01
1.080000e-06	-3.249668e-06	-1.433937e-09	-2.306077e+01	-9.472714e+01
1.090000e-06	-3.212806e-06	-1.435297e-09	-2.279918e+01	-9.444026e+01
1.100000e-06	-3.175753e-06	-1.437117e-09	-2.253624e+01	-9.414902e+01
1.110000e-06	-3.138513e-06	-1.435145e-09	-2.227198e+01	-9.385274e+01
1.120000e-06	-3.101019e-06	-1.433070e-09	-2.200590e+01	-9.355100e+01
1.130000e-06	-3.063252e-06	-1.428682e-09	-2.173790e+01	-9.324367e+01
1.140000e-06	-3.025321e-06	-1.420268e-09	-2.146873e+01	-9.293090e+01
1.150000e-06	-2.987201e-06	-1.408657e-09	-2.119821e+01	-9.261312e+01
1.160000e-06	-2.948899e-06	-1.399974e-09	-2.092640e+01	-9.229096e+01
1.170000e-06	-2.910404e-06	-1.392962e-09	-2.065324e+01	-9.196520e+01
1.180000e-06	-2.871579e-06	-1.389443e-09	-2.037771e+01	-9.163673e+01
1.190000e-06	-2.832516e-06	-1.383615e-09	-2.010052e+01	-9.130645e+01
1.200000e-06	-2.793337e-06	-1.382206e-09	-1.982249e+01	-9.097519e+01
1.210000e-06	-2.753963e-06	-1.381377e-09	-1.954308e+01	-9.064367e+01
1.220000e-06	-2.714363e-06	-1.378767e-09	-1.926206e+01	-9.031242e+01
1.230000e-06	-2.674619e-06	-1.368304e-09	-1.898002e+01	-8.998172e+01
1.240000e-06	-2.634832e-06	-1.358524e-09	-1.869768e+01	-8.965162e+01
1.250000e-06	-2.594966e-06	-1.347709e-09	-1.841478e+01	-8.932186e+01
1.260000e-06	-2.555011e-06	-1.342192e-09	-1.813124e+01	-8.899191e+01
1.270000e-06	-2.514943e-06	-1.335540e-09	-1.784691e+01	-8.866102e+01
1.280000e-06	-2.474689e-06	-1.331305e-09	-1.756125e+01	-8.832821e+01
1.290000e-06	-2.434299e-06	-1.327715e-09	-1.727463e+01	-8.799237e+01
1.300000e-06	-2.393797e-06	-1.324016e-09	-1.698721e+01	-8.765230e+01
1.310000e-06	-2.353110e-06	-1.315169e-09	-1.669848e+01	-8.730679e+01
1.320000e-06	-2.312119e-06	-1.306999e-09	-1.640759e+01	-8.695470e+01
1.330000e-06	-2.270799e-06	-1.300273e-09	-1.611438e+01	-8.659501e+01
1.340000e-06	-2.229210e-06	-1.295874e-09	-1.581925e+01	-8.622692e+01
1.350000e-06	-2.187299e-06	-1.292083e-09	-1.552183e+01	-8.584983e+01
1.360000e-06	-2.145128e-06	-1.287688e-09	-1.522257e+01	-8.546347e+01
1.370000e-06	-2.102712e-06	-1.279878e-09	-1.492157e+01	-8.506781e+01
1.380000e-06	-2.060139e-06	-1.273010e-09	-1.461946e+01	-8.466314e+01
1.390000e-06	-2.017398e-06	-1.265972e-09	-1.431615e+01	-8.425001e+01
1.400000e-06	-1.974322e-06	-1.257469e-09	-1.401047e+01	-8.382918e+01
1.410000e-06	-1.931058e-06	-1.248178e-09	-1.370346e+01	-8.340159e+01
1.420000e-06	-1.887693e-06	-1.242130e-09	-1.339572e+01	-8.296830e+01
1.430000e-06	-1.844199e-06	-1.241730e-09	-1.308707e+01	-8.253039e+01
1.440000e-06	-1.800603e-06	-1.239344e-09	-1.277770e+01	-8.208889e+01
1.450000e-06	-1.756873e-06	-1.232128e-09	-1.246738e+01	-8.164472e+01
1.460000e-06	-1.713046e-06	-1.224067e-09	-1.215636e+01	-8.119862e+01
1.470000e-06	-1.669182e-06	-1.219393e-09	-1.184509e+01	-8.075111e+01
1.480000e-06	-1.625226e-06	-1.213985e-09	-1.153317e+01	-8.030241e+01
1.490000e-06	-1.581154e-06	-1.208915e-09	-1.122041e+01	-7.985245e+01
1.500000e-06	-1.536993e-06	-1.201939e-09	-1.090704e+01	-7.940085e+01
1.510000e-06	-1.492784e-06	-1.196000e-09	-1.059332e+01	-7.894695e+01
1.520000e-06	-1.448511e-06	-1.189297e-09	-1.027914e+01	-7.848983e+01
1.530000e-06	-1.404200e-06	-1.181245e-09	-9.964689e+00	-7.802836e+01
1.540000e-06	-1.359835e-06	-1.171531e-09	-9.649859e+00	-7.756128e+01
1.550000e-06	-1.315345e-06	-1.162632e-09	-9.334143e+00	-7.708722e+01
1.560000e-06	-1.270760e-06	-1.153847e-09	-9.017749e+00	-7.660485e+01
1.570000e-06	-1.226082e-06	-1.147497e-09	-8.700701e+00	-7.611287e+01
1.580000e-06	-1.181291e-06	-1.142896e-09	-8.382847e+00	-7.561015e+01
1.590000e-06	-1.136405e-06	-1.139104e-09	-8.064323e+00	-7.509575e+01
1.600000e-06	-1.091437e-06	-1.132792e-09	-7.745215e+00	-7.456894e+01
1.610000e-06	-1.046359e-06	-1.122869e-09	-7.425328e+00	-7.402931e+01
1.620000e-06	-1.001176e-06	-1.110117e-09	-7.104692e+00	-7.347668e+01
1.630000e-06	-9.559560e-07	-1.098755e-09	-6.783795e+00	-7.291114e+01
1.640000e-06	-9.107177e-07	-1.088684e-09	-6.462768e+00	-7.233303e+01
1.650000e-06	-8.653836e-07	-1.079861e-09	-6.141062e+00	-7.174284e+01
1.660000e-06	-8.199616e-07	-1.070873e-09	-5.818731e+00	-7.114119e+01
1.670000e-06	-7.745232e-07	-1.064481e-09	-5.496285e+00	-7.052873e+01
1.680000e-06	-7.290405e-07	-1.057653e-09	-5.173523e+00	-6.990609e+01
1.690000e-06	-6.834982e-07	-1.048833e-09	-4.850340e+00	-6.927375e+01
1.700000e-06	-6.379623e-07	-1.036662e-09	-4.527201e+00	-6.863198e+01
1.710000e-06	-5.924132e-07	-1.024749e-09	-4.203969e+00	-6.798080e+01
1.720000e-06	-5.468134e-07	-1.013617e-09	-3.880377e+00	-6.731987e+01
1.730000e-06	-5.011566e-07	-1.001108e-09	-3.556381e+00	-6.664849e+01
1.740000e-06	-4.554069e-07	-9.895781e-10	-3.231725e+00	-6.596556e+01
1.750000e-06	-4.096407e-07	-9.802328e-10	-2.906952e+00	-6.526960e+01
1.760000e-06	-3.638805e-07	-9.743483e-10	-2.582222e+00	-6.455875e+01
1.770000e-06	-3.180736e-07	-9.633259e-10	-2.257161e+00	-6.383084e+01
1.780000e-06	-2.721642e-07	-9.483669e-10	-1.931372e+00	-6.308344e+01
1.790000e-06	-2.262238e-07	-9.298409e-10	-1.605362e+00	-6.231395e+01
1.800000e-06	-1.802825e-07	-9.093111e-10	-1.279347e+00	-6.151968e+01
1.810000e-06	-1.343303e-07	-8.903357e-10	-9.532543e-01	-6.069794e+01
1.820000e-06	-8.844739e-08	-8.758000e-10	-6.276533e-01	-5.984619e+01
1.830000e-06	-4.258547e-08	-8.669560e-10	-3.022013e-01	-5.896205e+01
1.840000e-06	3.311705e-09	-8.628821e-10	2.350100e-02	-5.804346e+01
1.850000e-06	4.922560e-08	-8.587637e-10	3.493219e-01	-5.708871e+01
1.860000e-06	9.507460e-08	-8.491871e-10	6.746823e-01	-5.609650e+01
1.870000e-06	1.409193e-07	-8.304875e-10	1.000012e+00	-5.506596e+01
1.880000e-06	1.867749e-07	-8.069878e-10	1.325419e+00	-5.399668e+01
1.890000e-06	2.326338e-07	-7.801655e-10	1.650850e+00	-5.288865e+01
1.900000e-06	2.785004e-07	-7.514415e-10	1.976335e+00	-5.174229e+01
1.910000e-06	3.243397e-07	-7.286363e-10	2.301627e+00	-5.055829e+01
1.920000e-06	3.701402e-07	-7.162348e-10	2.626643e+00	-4.933765e+01
1.930000e-06	4.158411e-07	-7.064824e-10	2.950952e+00	-4.808151e+01
1.940000e-06	4.615637e-07	-6.920636e-10	3.275415e+00	-4.679107e+01
1.950000e-06	5.073243e-07	-6.705232e-10	3.600149e+00	-4.546753e+01
1.960000e-06	5.529538e-07	-6.443071e-10	3.923952e+00	-4.411198e+01
1.970000e-06	5.985000e-07	-6.133173e-10	4.247163e+00	-4.272530e+01
1.980000e-06	6.440773e-07	-5.849948e-10	4.570595e+00	-4.130812e+01
1.990000e-06	6.896489e-07	-5.642960e-10	4.893987e+00	-3.986076e+01
2.000000e-06	7.351034e-07	-5.487195e-10	5.216548e+00	-3.838321e+01
2.010000e-06	7.804800e-07	-5.341059e-10	5.538556e+00	-3.687513e+01
2.020000e-06	8.258614e-07	-5.166801e-10	5.860598e+00	-3.533582e+01
2.030000e-06	8.712021e-07	-4.937114e-10	6.182351e+00	-3.376434e+01
2.040000e-06	9.164729e-07	-4.625251e-10	6.503609e+00	-3.215948e+01
2.050000e-06	9.616967e-07	-4.292100e-10	6.824533e+00	-3.051989e+01
2.060000e-06	1.006808e-06	-3.973205e-10	7.144658e+00	-2.884415e+01
2.070000e-06	1.051803e-06	-3.702287e-10	7.463955e+00	-2.713083e+01
2.080000e-06	1.096705e-06	-3.458342e-10	7.782600e+00	-2.537862e+01
2.090000e-06	1.141556e-06	-3.233492e-10	8.100873e+00	-2.358637e+01
2.100000e-06	1.186348e-06	-2.996723e-10	8.418739e+00	-2.175323e+01
2.110000e-06	1.231012e-06	-2.711432e-10	8.735688e+00	-1.987863e+01
2.120000e-06	1.275534e-06	-2.368024e-10	9.051631e+00	-1.796240e+01
2.130000e-06	1.319930e-06	-2.022244e-10	9.366679e+00	-1.600475e+01
2.140000e-06	1.364298e-06	-1.708908e-10	9.681528e+00	-1.400630e+01
2.150000e-06	1.408657e-06	-1.431011e-10	9.996320e+00	-1.196807e+01
2.160000e-06	1.452917e-06	-1.159355e-10	1.031040e+01	-9.891412e+00
2.170000e-06	1.497095e-06	-8.910890e-11	1.062391e+01	-7.778038e+00
2.180000e-06	1.541198e-06	-6.100129e-11	1.093688e+01	-5.629899e+00
2.190000e-06	1.585171e-06	-2.763142e-11	1.124892e+01	-3.449148e+00
2.200000e-06	1.629064e-06	1.006371e-11	1.156040e+01	-1.238069e+00
2.210000e-06	1.672910e-06	4.838800e-11	1.187155e+01	1.000990e+00
2.220000e-06	1.716734e-06	8.607671e-11	1.218254e+01	3.265676e+00
2.230000e-06	1.760572e-06	1.216273e-10	1.249363e+01	5.553683e+00
2.240000e-06	1.804369e-06	1.540768e-10	1.280442e+01	7.862786e+00
2.250000e-06	1.848079e-06	1.850519e-10	1.311461e+01	1.019086e+01
2.260000e-06	1.891664e-06	2.172841e-10	1.342390e+01	1.253589e+01
2.270000e-06	1.935121e-06	2.532695e-10	1.373229e+01	1.489596e+01
2.280000e-06	1.978403e-06	2.927414e-10	1.403943e+01	1.726920e+01
2.290000e-06	2.021451e-06	3.300826e-10	1.434492e+01	1.965379e+01
2.300000e-06	2.064281e-06	3.637044e-10	1.464885e+01	2.204784e+01
2.310000e-06	2.107027e-06	3.974062e-10	1.495219e+01	2.444941e+01
2.320000e-06	2.149476e-06	4.318248e-10	1.525342e+01	2.685639e+01
2.330000e-06	2.191371e-06	4.653292e-10	1.555072e+01	2.926645e+01
2.340000e-06	2.232994e-06	4.985211e-10	1.584610e+01	3.167701e+01
2.350000e-06	2.274373e-06	5.357403e-10	1.613974e+01	3.408521e+01
2.360000e-06	2.315524e-06	5.765959e-10	1.643176e+01	3.648785e+01
2.370000e-06	2.356489e-06	6.175944e-10	1.672246e+01	3.888140e+01
2.380000e-06	2.397169e-06	6.540867e-10	1.701114e+01	4.126204e+01
2.390000e-06	2.437611e-06	6.859290e-10	1.729813e+01	4.362567e+01
2.400000e-06	2.477876e-06	7.152535e-10	1.758387e+01	4.596797e+01
2.410000e-06	2.518031e-06	7.453658e-10	1.786882e+01	4.828451e+01
2.420000e-06	2.558067e-06	7.796633e-10	1.815293e+01	5.057077e+01
2.430000e-06	2.598008e-06	8.185182e-10	1.843636e+01	5.282232e+01
2.440000e-06	2.637861e-06	8.583411e-10	1.871917e+01	5.503486e+01
2.450000e-06	2.677617e-06	8.958489e-10	1.900130e+01	5.720436e+01
2.460000e-06	2.717299e-06	9.290536e-10	1.928289e+01	5.932716e+01
2.470000e-06	2.756809e-06	9.561753e-10	1.956327e+01	6.140004e+01
2.480000e-06	2.796044e-06	9.801072e-10	1.984170e+01	6.342034e+01
2.490000e-06	2.835116e-06	1.005611e-09	2.011897e+01	6.538595e+01
2.500000e-06	2.874037e-06	1.035468e-09	2.039516e+01	6.729540e+01
2.510000e-06	2.912729e-06	1.070513e-09	2.066973e+01	6.914785e+01
2.520000e-06	2.951117e-06	1.108054e-09	2.094215e+01	7.094306e+01
2.530000e-06	2.989228e-06	1.143217e-09	2.121260e+01	7.268139e+01
2.540000e-06	3.027248e-06	1.172256e-09	2.148240e+01	7.436370e+01
2.550000e-06	3.065189e-06	1.193779e-09	2.175164e+01	7.599128e+01
2.560000e-06	3.102969e-06	1.208802e-09	2.201974e+01	7.756578e+01
2.570000e-06	3.140418e-06	1.223154e-09	2.228549e+01	7.908908e+01
2.580000e-06	3.177616e-06	1.241627e-09	2.254946e+01	8.056321e+01
2.590000e-06	3.214595e-06	1.267649e-09	2.281188e+01	8.199022e+01
2.600000e-06	3.251279e-06	1.299605e-09	2.307220e+01	8.337210e+01
2.610000e-06	3.287719e-06	1.330377e-09	2.333079e+01	8.471069e+01
2.620000e-06	3.323937e-06	1.355004e-09	2.358780e+01	8.600760e+01
2.630000e-06	3.360008e-06	1.373108e-09	2.384378e+01	8.726419e+01
2.640000e-06	3.395944e-06	1.384916e-09	2.409880e+01	8.848150e+01
2.650000e-06	3.431791e-06	1.392516e-09	2.435317e+01	8.966029e+01
2.660000e-06	3.467548e-06	1.399420e-09	2.460692e+01	9.080100e+01
2.670000e-06	3.503098e-06	1.411283e-09	2.485920e+01	9.190383e+01
2.680000e-06	3.538423e-06	1.431718e-09	2.510987e+01	9.296877e+01
2.690000e-06	3.573451e-06	1.457216e-09	2.535845e+01	9.399565e+01
2.700000e-06	3.608027e-06	1.480671e-09	2.560381e+01	9.498424e+01
2.710000e-06	3.642166e-06	1.497698e-09	2.584607e+01	9.593429e+01
2.720000e-06	3.675845e-06	1.507059e-09	2.608507e+01	9.684563e+01
2.730000e-06	3.709019e-06	1.515334e-09	2.632048e+01	9.771820e+01
2.740000e-06	3.741834e-06	1.523621e-09	2.655335e+01	9.855214e+01
2.750000e-06	3.774322e-06	1.531601e-09	2.678390e+01	9.934782e+01
2.760000e-06	3.806543e-06	1.544292e-09	2.701254e+01	1.001059e+02
2.770000e-06	3.838626e-06	1.560430e-09	2.724022e+01	1.008271e+02
2.780000e-06	3.870554e-06	1.575725e-09	2.746679e+01	1.015127e+02
2.790000e-06	3.902357e-06	1.584763e-09	2.769248e+01	1.021640e+02
2.800000e-06	3.934007e-06	1.588401e-09	2.791708e+01	1.027825e+02
2.810000e-06	3.965447e-06	1.591450e-09	2.814019e+01	1.033699e+02
2.820000e-06	3.996490e-06	1.595365e-09	2.836047e+01	1.039277e+02
2.830000e-06	4.027110e-06	1.601634e-09	2.857777e+01	1.044578e+02
2.840000e-06	4.057419e-06	1.610800e-09	2.879285e+01	1.049618e+02
2.850000e-06	4.087448e-06	1.620405e-09	2.900595e+01	1.054412e+02
2.860000e-06	4.117289e-06	1.628445e-09	2.921771e+01	1.058973e+02
2.870000e-06	4.146927e-06	1.632759e-09	2.942803e+01	1.063312e+02
2.880000e-06	4.176355e-06	1.634299e-09	2.963686e+01	1.067439e+02
2.890000e-06	4.205521e-06	1.633550e-09	2.984383e+01	1.071361e+02
2.900000e-06	4.234341e-06	1.635059e-09	3.004835e+01	1.075081e+02
