# Temperatura_=_-11.64
# Concentracion g/m^3_=_4090.0
# C_Vs_to_Am_M_A/Vsm_=_65563218390.804596
# pendiente_HvsI_1/m_=_3716.3
# ordenada_HvsI_A/m_=_1297.0
# frecuencia_Hz_=_135074.71454207622

Tiempo_(s)	Campo_(V.s)	Magnetizacion_(V.s)	Campo_(kA/m)	Magnetizacion_(A/m)
0.000000e+00	-5.416975e-06	-1.506862e-09	-3.840015e+01	-1.004712e+02
1.000000e-08	-5.417204e-06	-1.509387e-09	-3.840178e+01	-1.004584e+02
2.000000e-08	-5.417124e-06	-1.507121e-09	-3.840121e+01	-1.004304e+02
3.000000e-08	-5.416729e-06	-1.503052e-09	-3.839841e+01	-1.003880e+02
4.000000e-08	-5.415893e-06	-1.501761e-09	-3.839248e+01	-1.003325e+02
5.000000e-08	-5.414509e-06	-1.504048e-09	-3.838267e+01	-1.002661e+02
6.000000e-08	-5.412536e-06	-1.516586e-09	-3.836868e+01	-1.001909e+02
7.000000e-08	-5.410051e-06	-1.540270e-09	-3.835107e+01	-1.001097e+02
8.000000e-08	-5.407055e-06	-1.523435e-09	-3.832983e+01	-1.000255e+02
9.000000e-08	-5.403485e-06	-1.432148e-09	-3.830452e+01	-9.994154e+01
1.000000e-07	-5.399442e-06	-1.423000e-09	-3.827586e+01	-9.986103e+01
1.100000e-07	-5.395093e-06	-1.565875e-09	-3.824503e+01	-9.978714e+01
1.200000e-07	-5.390584e-06	-1.600519e-09	-3.821307e+01	-9.972286e+01
1.300000e-07	-5.385928e-06	-1.430440e-09	-3.818007e+01	-9.967084e+01
1.400000e-07	-5.380975e-06	-1.393914e-09	-3.814495e+01	-9.963333e+01
1.500000e-07	-5.375609e-06	-1.600653e-09	-3.810691e+01	-9.961205e+01
1.600000e-07	-5.369862e-06	-1.675022e-09	-3.806618e+01	-9.960809e+01
1.700000e-07	-5.363653e-06	-1.422468e-09	-3.802216e+01	-9.962191e+01
1.800000e-07	-5.357061e-06	-1.349294e-09	-3.797543e+01	-9.965329e+01
1.900000e-07	-5.350116e-06	-1.560387e-09	-3.792620e+01	-9.970130e+01
2.000000e-07	-5.342821e-06	-1.639768e-09	-3.787448e+01	-9.976440e+01
2.100000e-07	-5.335236e-06	-1.464804e-09	-3.782072e+01	-9.984039e+01
2.200000e-07	-5.327435e-06	-1.468353e-09	-3.776542e+01	-9.992661e+01
2.300000e-07	-5.319452e-06	-1.636525e-09	-3.770883e+01	-1.000199e+02
2.400000e-07	-5.310969e-06	-1.599058e-09	-3.764869e+01	-1.001170e+02
2.500000e-07	-5.301736e-06	-1.474664e-09	-3.758324e+01	-1.002141e+02
2.600000e-07	-5.292048e-06	-1.556410e-09	-3.751456e+01	-1.003078e+02
2.700000e-07	-5.281876e-06	-1.652667e-09	-3.744246e+01	-1.003944e+02
2.800000e-07	-5.271028e-06	-1.524633e-09	-3.736555e+01	-1.004708e+02
2.900000e-07	-5.259735e-06	-1.486685e-09	-3.728550e+01	-1.005339e+02
3.000000e-07	-5.248150e-06	-1.626823e-09	-3.720338e+01	-1.005812e+02
3.100000e-07	-5.236162e-06	-1.617363e-09	-3.711839e+01	-1.006107e+02
3.200000e-07	-5.223714e-06	-1.462027e-09	-3.703015e+01	-1.006211e+02
3.300000e-07	-5.210985e-06	-1.523169e-09	-3.693992e+01	-1.006116e+02
3.400000e-07	-5.197858e-06	-1.628400e-09	-3.684686e+01	-1.005818e+02
3.500000e-07	-5.184297e-06	-1.562236e-09	-3.675073e+01	-1.005323e+02
3.600000e-07	-5.170386e-06	-1.505249e-09	-3.665211e+01	-1.004639e+02
3.700000e-07	-5.155961e-06	-1.574110e-09	-3.654986e+01	-1.003780e+02
3.800000e-07	-5.140923e-06	-1.544501e-09	-3.644326e+01	-1.002765e+02
3.900000e-07	-5.125288e-06	-1.500405e-09	-3.633243e+01	-1.001612e+02
4.000000e-07	-5.108987e-06	-1.544755e-09	-3.621687e+01	-1.000345e+02
4.100000e-07	-5.092283e-06	-1.546628e-09	-3.609845e+01	-9.989867e+01
4.200000e-07	-5.075329e-06	-1.485725e-09	-3.597827e+01	-9.975586e+01
4.300000e-07	-5.058097e-06	-1.538888e-09	-3.585612e+01	-9.960821e+01
4.400000e-07	-5.040616e-06	-1.591050e-09	-3.573219e+01	-9.945757e+01
4.500000e-07	-5.022781e-06	-1.517952e-09	-3.560577e+01	-9.930549e+01
4.600000e-07	-5.004708e-06	-1.471842e-09	-3.547765e+01	-9.915318e+01
4.700000e-07	-4.986351e-06	-1.519435e-09	-3.534752e+01	-9.900145e+01
4.800000e-07	-4.967538e-06	-1.523018e-09	-3.521416e+01	-9.885074e+01
4.900000e-07	-4.948310e-06	-1.483849e-09	-3.507786e+01	-9.870109e+01
5.000000e-07	-4.928826e-06	-1.484399e-09	-3.493974e+01	-9.855219e+01
5.100000e-07	-4.909149e-06	-1.499433e-09	-3.480024e+01	-9.840345e+01
5.200000e-07	-4.889263e-06	-1.519592e-09	-3.465927e+01	-9.825402e+01
5.300000e-07	-4.869114e-06	-1.527937e-09	-3.451644e+01	-9.810288e+01
5.400000e-07	-4.848625e-06	-1.497160e-09	-3.437120e+01	-9.794893e+01
5.500000e-07	-4.827766e-06	-1.470933e-09	-3.422334e+01	-9.779105e+01
5.600000e-07	-4.806577e-06	-1.499890e-09	-3.407313e+01	-9.762820e+01
5.700000e-07	-4.785093e-06	-1.504191e-09	-3.392083e+01	-9.745945e+01
5.800000e-07	-4.763292e-06	-1.471553e-09	-3.376629e+01	-9.728406e+01
5.900000e-07	-4.741170e-06	-1.456599e-09	-3.360947e+01	-9.710153e+01
6.000000e-07	-4.718586e-06	-1.476699e-09	-3.344937e+01	-9.691161e+01
6.100000e-07	-4.695651e-06	-1.491876e-09	-3.328679e+01	-9.671435e+01
6.200000e-07	-4.672502e-06	-1.489572e-09	-3.312269e+01	-9.651004e+01
6.300000e-07	-4.649068e-06	-1.461840e-09	-3.295657e+01	-9.629924e+01
6.400000e-07	-4.625417e-06	-1.459081e-09	-3.278891e+01	-9.608269e+01
6.500000e-07	-4.601585e-06	-1.484443e-09	-3.261997e+01	-9.586135e+01
6.600000e-07	-4.577516e-06	-1.487551e-09	-3.244935e+01	-9.563625e+01
6.700000e-07	-4.553044e-06	-1.451994e-09	-3.227587e+01	-9.540849e+01
6.800000e-07	-4.528150e-06	-1.444490e-09	-3.209940e+01	-9.517915e+01
6.900000e-07	-4.502797e-06	-1.462437e-09	-3.191968e+01	-9.494927e+01
7.000000e-07	-4.476890e-06	-1.467317e-09	-3.173603e+01	-9.471970e+01
7.100000e-07	-4.450399e-06	-1.446984e-09	-3.154824e+01	-9.449118e+01
7.200000e-07	-4.423412e-06	-1.436599e-09	-3.135693e+01	-9.426418e+01
7.300000e-07	-4.396076e-06	-1.450782e-09	-3.116314e+01	-9.403894e+01
7.400000e-07	-4.368474e-06	-1.468991e-09	-3.096748e+01	-9.381547e+01
7.500000e-07	-4.340731e-06	-1.457042e-09	-3.077081e+01	-9.359350e+01
7.600000e-07	-4.312851e-06	-1.433602e-09	-3.057318e+01	-9.337250e+01
7.700000e-07	-4.284768e-06	-1.435458e-09	-3.037410e+01	-9.315177e+01
7.800000e-07	-4.256446e-06	-1.450029e-09	-3.017333e+01	-9.293040e+01
7.900000e-07	-4.227805e-06	-1.444741e-09	-2.997030e+01	-9.270735e+01
8.000000e-07	-4.198833e-06	-1.428605e-09	-2.976492e+01	-9.248150e+01
8.100000e-07	-4.169506e-06	-1.428432e-09	-2.955703e+01	-9.225171e+01
8.200000e-07	-4.139860e-06	-1.438729e-09	-2.934686e+01	-9.201687e+01
8.300000e-07	-4.109960e-06	-1.438499e-09	-2.913491e+01	-9.177592e+01
8.400000e-07	-4.079722e-06	-1.419072e-09	-2.892056e+01	-9.152796e+01
8.500000e-07	-4.049166e-06	-1.407399e-09	-2.870395e+01	-9.127222e+01
8.600000e-07	-4.018326e-06	-1.414094e-09	-2.848533e+01	-9.100816e+01
8.700000e-07	-3.987266e-06	-1.422228e-09	-2.826515e+01	-9.073541e+01
8.800000e-07	-3.955944e-06	-1.410656e-09	-2.804311e+01	-9.045385e+01
8.900000e-07	-3.924429e-06	-1.397403e-09	-2.781971e+01	-9.016356e+01
9.000000e-07	-3.892855e-06	-1.396820e-09	-2.759588e+01	-8.986483e+01
9.100000e-07	-3.861122e-06	-1.403384e-09	-2.737094e+01	-8.955813e+01
9.200000e-07	-3.829177e-06	-1.396866e-09	-2.714448e+01	-8.924408e+01
9.300000e-07	-3.796962e-06	-1.387417e-09	-2.691611e+01	-8.892341e+01
9.400000e-07	-3.764443e-06	-1.390735e-09	-2.668559e+01	-8.859693e+01
9.500000e-07	-3.731492e-06	-1.401353e-09	-2.645200e+01	-8.826549e+01
9.600000e-07	-3.698129e-06	-1.396179e-09	-2.621550e+01	-8.792991e+01
9.700000e-07	-3.664415e-06	-1.377659e-09	-2.597651e+01	-8.759099e+01
9.800000e-07	-3.630237e-06	-1.362044e-09	-2.573422e+01	-8.724945e+01
9.900000e-07	-3.595643e-06	-1.359779e-09	-2.548899e+01	-8.690591e+01
1.000000e-06	-3.560689e-06	-1.357271e-09	-2.524121e+01	-8.656086e+01
1.010000e-06	-3.525383e-06	-1.351329e-09	-2.499093e+01	-8.621466e+01
1.020000e-06	-3.489931e-06	-1.348510e-09	-2.473962e+01	-8.586754e+01
1.030000e-06	-3.454382e-06	-1.353526e-09	-2.448761e+01	-8.551958e+01
1.040000e-06	-3.418719e-06	-1.353551e-09	-2.423480e+01	-8.517074e+01
1.050000e-06	-3.382944e-06	-1.337769e-09	-2.398120e+01	-8.482088e+01
1.060000e-06	-3.346975e-06	-1.316074e-09	-2.372622e+01	-8.446975e+01
1.070000e-06	-3.310796e-06	-1.304209e-09	-2.346975e+01	-8.411704e+01
1.080000e-06	-3.274263e-06	-1.301270e-09	-2.321077e+01	-8.376238e+01
1.090000e-06	-3.237432e-06	-1.299437e-09	-2.294968e+01	-8.340540e+01
1.100000e-06	-3.200431e-06	-1.298065e-09	-2.268739e+01	-8.304570e+01
1.110000e-06	-3.163191e-06	-1.300828e-09	-2.242340e+01	-8.268290e+01
1.120000e-06	-3.125705e-06	-1.303732e-09	-2.215767e+01	-8.231666e+01
1.130000e-06	-3.088061e-06	-1.295096e-09	-2.189081e+01	-8.194667e+01
1.140000e-06	-3.050261e-06	-1.276080e-09	-2.162286e+01	-8.157267e+01
1.150000e-06	-3.012235e-06	-1.259742e-09	-2.135330e+01	-8.119443e+01
1.160000e-06	-2.973980e-06	-1.255036e-09	-2.108211e+01	-8.081179e+01
1.170000e-06	-2.935413e-06	-1.253360e-09	-2.080872e+01	-8.042460e+01
1.180000e-06	-2.896673e-06	-1.249355e-09	-2.053409e+01	-8.003277e+01
1.190000e-06	-2.857825e-06	-1.244612e-09	-2.025871e+01	-7.963620e+01
1.200000e-06	-2.818740e-06	-1.244027e-09	-1.998164e+01	-7.923481e+01
1.210000e-06	-2.779467e-06	-1.243378e-09	-1.970324e+01	-7.882852e+01
1.220000e-06	-2.740037e-06	-1.234612e-09	-1.942372e+01	-7.841722e+01
1.230000e-06	-2.700463e-06	-1.221188e-09	-1.914319e+01	-7.800078e+01
1.240000e-06	-2.660788e-06	-1.214697e-09	-1.886194e+01	-7.757907e+01
1.250000e-06	-2.621005e-06	-1.212002e-09	-1.857993e+01	-7.715191e+01
1.260000e-06	-2.581100e-06	-1.206953e-09	-1.829705e+01	-7.671908e+01
1.270000e-06	-2.541173e-06	-1.199108e-09	-1.801401e+01	-7.628036e+01
1.280000e-06	-2.501149e-06	-1.193327e-09	-1.773029e+01	-7.583550e+01
1.290000e-06	-2.460926e-06	-1.189125e-09	-1.744515e+01	-7.538426e+01
1.300000e-06	-2.420513e-06	-1.181942e-09	-1.715867e+01	-7.492638e+01
1.310000e-06	-2.379843e-06	-1.170023e-09	-1.687037e+01	-7.446163e+01
1.320000e-06	-2.338875e-06	-1.159068e-09	-1.657995e+01	-7.398982e+01
1.330000e-06	-2.297490e-06	-1.153236e-09	-1.628657e+01	-7.351078e+01
1.340000e-06	-2.255817e-06	-1.149005e-09	-1.599116e+01	-7.302440e+01
1.350000e-06	-2.214006e-06	-1.142535e-09	-1.569477e+01	-7.253063e+01
1.360000e-06	-2.171862e-06	-1.135769e-09	-1.539602e+01	-7.202950e+01
1.370000e-06	-2.129379e-06	-1.129696e-09	-1.509486e+01	-7.152106e+01
1.380000e-06	-2.086637e-06	-1.121453e-09	-1.479187e+01	-7.100548e+01
1.390000e-06	-2.043700e-06	-1.111469e-09	-1.448749e+01	-7.048294e+01
1.400000e-06	-2.000659e-06	-1.103464e-09	-1.418238e+01	-6.995372e+01
1.410000e-06	-1.957501e-06	-1.098129e-09	-1.387644e+01	-6.941810e+01
1.420000e-06	-1.914131e-06	-1.093074e-09	-1.356900e+01	-6.887643e+01
1.430000e-06	-1.870566e-06	-1.086235e-09	-1.326017e+01	-6.832905e+01
1.440000e-06	-1.826961e-06	-1.077238e-09	-1.295106e+01	-6.777632e+01
1.450000e-06	-1.783326e-06	-1.067151e-09	-1.264174e+01	-6.721860e+01
1.460000e-06	-1.739578e-06	-1.057942e-09	-1.233162e+01	-6.665620e+01
1.470000e-06	-1.695766e-06	-1.049538e-09	-1.202104e+01	-6.608944e+01
1.480000e-06	-1.651922e-06	-1.042963e-09	-1.171024e+01	-6.551856e+01
1.490000e-06	-1.608050e-06	-1.038144e-09	-1.139924e+01	-6.494378e+01
1.500000e-06	-1.564149e-06	-1.032558e-09	-1.108802e+01	-6.436526e+01
1.510000e-06	-1.520098e-06	-1.025439e-09	-1.077576e+01	-6.378308e+01
1.520000e-06	-1.475884e-06	-1.015639e-09	-1.046233e+01	-6.319731e+01
1.530000e-06	-1.431611e-06	-1.002817e-09	-1.014848e+01	-6.260791e+01
1.540000e-06	-1.387243e-06	-9.895211e-10	-9.833965e+00	-6.201483e+01
1.550000e-06	-1.342741e-06	-9.776384e-10	-9.518494e+00	-6.141796e+01
1.560000e-06	-1.298127e-06	-9.671207e-10	-9.202231e+00	-6.081712e+01
1.570000e-06	-1.253448e-06	-9.592977e-10	-8.885509e+00	-6.021211e+01
1.580000e-06	-1.208731e-06	-9.545887e-10	-8.568519e+00	-5.960270e+01
1.590000e-06	-1.163937e-06	-9.500647e-10	-8.250979e+00	-5.898861e+01
1.600000e-06	-1.119040e-06	-9.423492e-10	-7.932712e+00	-5.836952e+01
1.610000e-06	-1.073995e-06	-9.307510e-10	-7.613396e+00	-5.774510e+01
1.620000e-06	-1.028835e-06	-9.165648e-10	-7.293262e+00	-5.711498e+01
1.630000e-06	-9.836268e-07	-9.025492e-10	-6.972788e+00	-5.647876e+01
1.640000e-06	-9.383172e-07	-8.903104e-10	-6.651595e+00	-5.583600e+01
1.650000e-06	-8.928485e-07	-8.800880e-10	-6.329273e+00	-5.518623e+01
1.660000e-06	-8.472988e-07	-8.701225e-10	-6.006379e+00	-5.452896e+01
1.670000e-06	-8.017766e-07	-8.616305e-10	-5.683678e+00	-5.386367e+01
1.680000e-06	-7.563198e-07	-8.556030e-10	-5.361441e+00	-5.318979e+01
1.690000e-06	-7.108519e-07	-8.482544e-10	-5.039126e+00	-5.250673e+01
1.700000e-06	-6.653082e-07	-8.354189e-10	-4.716274e+00	-5.181391e+01
1.710000e-06	-6.196556e-07	-8.185868e-10	-4.392649e+00	-5.111069e+01
1.720000e-06	-5.739483e-07	-8.034598e-10	-4.068636e+00	-5.039648e+01
1.730000e-06	-5.282199e-07	-7.925913e-10	-3.744475e+00	-4.967066e+01
1.740000e-06	-4.824428e-07	-7.818121e-10	-3.419967e+00	-4.893265e+01
1.750000e-06	-4.367330e-07	-7.691062e-10	-3.095937e+00	-4.818192e+01
1.760000e-06	-3.910075e-07	-7.565088e-10	-2.771796e+00	-4.741798e+01
1.770000e-06	-3.451197e-07	-7.448503e-10	-2.446504e+00	-4.664042e+01
1.780000e-06	-2.991242e-07	-7.324495e-10	-2.120448e+00	-4.584892e+01
1.790000e-06	-2.530884e-07	-7.180122e-10	-1.794107e+00	-4.504323e+01
1.800000e-06	-2.071085e-07	-7.029516e-10	-1.468162e+00	-4.422325e+01
1.810000e-06	-1.611838e-07	-6.884441e-10	-1.142608e+00	-4.338895e+01
1.820000e-06	-1.153098e-07	-6.739116e-10	-8.174145e-01	-4.254045e+01
1.830000e-06	-6.942576e-08	-6.590171e-10	-4.921492e-01	-4.167798e+01
1.840000e-06	-2.352051e-08	-6.436897e-10	-1.667335e-01	-4.080186e+01
1.850000e-06	2.230237e-08	-6.297249e-10	1.580983e-01	-3.991252e+01
1.860000e-06	6.811243e-08	-6.189276e-10	4.828392e-01	-3.901050e+01
1.870000e-06	1.139343e-07	-6.081184e-10	8.076639e-01	-3.809638e+01
1.880000e-06	1.597705e-07	-5.949536e-10	1.132590e+00	-3.717080e+01
1.890000e-06	2.056597e-07	-5.779457e-10	1.457892e+00	-3.623442e+01
1.900000e-06	2.515497e-07	-5.580251e-10	1.783199e+00	-3.528791e+01
1.910000e-06	2.974236e-07	-5.360674e-10	2.108393e+00	-3.433194e+01
1.920000e-06	3.432754e-07	-5.153970e-10	2.433429e+00	-3.336710e+01
1.930000e-06	3.890694e-07	-4.994946e-10	2.758057e+00	-3.239395e+01
1.940000e-06	4.348288e-07	-4.877486e-10	3.082438e+00	-3.141296e+01
1.950000e-06	4.805982e-07	-4.775888e-10	3.406891e+00	-3.042452e+01
1.960000e-06	5.263413e-07	-4.651374e-10	3.731157e+00	-2.942891e+01
1.970000e-06	5.719348e-07	-4.485792e-10	4.054363e+00	-2.842632e+01
1.980000e-06	6.174711e-07	-4.286908e-10	4.377164e+00	-2.741682e+01
1.990000e-06	6.630068e-07	-4.081634e-10	4.699959e+00	-2.640041e+01
2.000000e-06	7.085287e-07	-3.889861e-10	5.022658e+00	-2.537696e+01
2.010000e-06	7.540719e-07	-3.715177e-10	5.345507e+00	-2.434631e+01
2.020000e-06	7.995465e-07	-3.564555e-10	5.667869e+00	-2.330821e+01
2.030000e-06	8.448844e-07	-3.439402e-10	5.989263e+00	-2.226237e+01
2.040000e-06	8.900453e-07	-3.322459e-10	6.309402e+00	-2.120848e+01
2.050000e-06	9.351162e-07	-3.175195e-10	6.628903e+00	-2.014622e+01
2.060000e-06	9.802262e-07	-2.988933e-10	6.948681e+00	-1.907528e+01
2.070000e-06	1.025354e-06	-2.802712e-10	7.268586e+00	-1.799537e+01
2.080000e-06	1.070410e-06	-2.633266e-10	7.587985e+00	-1.690623e+01
2.090000e-06	1.115336e-06	-2.463114e-10	7.906453e+00	-1.580766e+01
2.100000e-06	1.160105e-06	-2.289664e-10	8.223820e+00	-1.469949e+01
2.110000e-06	1.204839e-06	-2.121534e-10	8.540932e+00	-1.358163e+01
2.120000e-06	1.249553e-06	-1.944511e-10	8.857902e+00	-1.245403e+01
2.130000e-06	1.294135e-06	-1.759443e-10	9.173933e+00	-1.131670e+01
2.140000e-06	1.338572e-06	-1.579928e-10	9.488941e+00	-1.016969e+01
2.150000e-06	1.382907e-06	-1.419899e-10	9.803225e+00	-9.013112e+00
2.160000e-06	1.427155e-06	-1.274272e-10	1.011689e+01	-7.847096e+00
2.170000e-06	1.471363e-06	-1.106362e-10	1.043028e+01	-6.671818e+00
2.180000e-06	1.515475e-06	-9.162856e-11	1.074299e+01	-5.487478e+00
2.190000e-06	1.559460e-06	-7.401504e-11	1.105479e+01	-4.294298e+00
2.200000e-06	1.603399e-06	-5.733425e-11	1.136627e+01	-3.092525e+00
2.210000e-06	1.647232e-06	-3.807531e-11	1.167699e+01	-1.882425e+00
2.220000e-06	1.691024e-06	-1.620598e-11	1.198742e+01	-6.642910e-01
2.230000e-06	1.734830e-06	4.780107e-12	1.229796e+01	5.615588e-01
2.240000e-06	1.778535e-06	2.456610e-11	1.260778e+01	1.794771e+00
2.250000e-06	1.822132e-06	4.451734e-11	1.291683e+01	3.034952e+00
2.260000e-06	1.865682e-06	6.398706e-11	1.322555e+01	4.281662e+00
2.270000e-06	1.909078e-06	8.201313e-11	1.353318e+01	5.534407e+00
2.280000e-06	1.952362e-06	9.898934e-11	1.384001e+01	6.792637e+00
2.290000e-06	1.995459e-06	1.184088e-10	1.414552e+01	8.055741e+00
2.300000e-06	2.038344e-06	1.409477e-10	1.444953e+01	9.323047e+00
2.310000e-06	2.081138e-06	1.650529e-10	1.475289e+01	1.059383e+01
2.320000e-06	2.123784e-06	1.879001e-10	1.505520e+01	1.186730e+01
2.330000e-06	2.166199e-06	2.087029e-10	1.535587e+01	1.314266e+01
2.340000e-06	2.208336e-06	2.279412e-10	1.565458e+01	1.441907e+01
2.350000e-06	2.250254e-06	2.438750e-10	1.595173e+01	1.569567e+01
2.360000e-06	2.291848e-06	2.589884e-10	1.624658e+01	1.697165e+01
2.370000e-06	2.333037e-06	2.768714e-10	1.653856e+01	1.824621e+01
2.380000e-06	2.373955e-06	2.963014e-10	1.682862e+01	1.951863e+01
2.390000e-06	2.414666e-06	3.166646e-10	1.711722e+01	2.078825e+01
2.400000e-06	2.455131e-06	3.397250e-10	1.740407e+01	2.205455e+01
2.410000e-06	2.495358e-06	3.647622e-10	1.768923e+01	2.331708e+01
2.420000e-06	2.535392e-06	3.888473e-10	1.797302e+01	2.457555e+01
2.430000e-06	2.575318e-06	4.118814e-10	1.825605e+01	2.582981e+01
2.440000e-06	2.615169e-06	4.334738e-10	1.853856e+01	2.707983e+01
2.450000e-06	2.654938e-06	4.512108e-10	1.882047e+01	2.832571e+01
2.460000e-06	2.694606e-06	4.672181e-10	1.910167e+01	2.956767e+01
2.470000e-06	2.734137e-06	4.846665e-10	1.938190e+01	3.080602e+01
2.480000e-06	2.773490e-06	5.029528e-10	1.966087e+01	3.204113e+01
2.490000e-06	2.812622e-06	5.234710e-10	1.993827e+01	3.327343e+01
2.500000e-06	2.851506e-06	5.459650e-10	2.021391e+01	3.450330e+01
2.510000e-06	2.890247e-06	5.688958e-10	2.048854e+01	3.573114e+01
2.520000e-06	2.928887e-06	5.921664e-10	2.076245e+01	3.695722e+01
2.530000e-06	2.967305e-06	6.163673e-10	2.103480e+01	3.818174e+01
2.540000e-06	3.005547e-06	6.392363e-10	2.130589e+01	3.940474e+01
2.550000e-06	3.043575e-06	6.570962e-10	2.157546e+01	4.062610e+01
2.560000e-06	3.081297e-06	6.725720e-10	2.184287e+01	4.184549e+01
2.570000e-06	3.118779e-06	6.875319e-10	2.210857e+01	4.306241e+01
2.580000e-06	3.156043e-06	7.024343e-10	2.237273e+01	4.427615e+01
2.590000e-06	3.193070e-06	7.195356e-10	2.263521e+01	4.548579e+01
2.600000e-06	3.229934e-06	7.411535e-10	2.289653e+01	4.669024e+01
2.610000e-06	3.266622e-06	7.659521e-10	2.315661e+01	4.788828e+01
2.620000e-06	3.303043e-06	7.905583e-10	2.341480e+01	4.907854e+01
2.630000e-06	3.339245e-06	8.120683e-10	2.367142e+01	5.025959e+01
2.640000e-06	3.375257e-06	8.265778e-10	2.392671e+01	5.142994e+01
2.650000e-06	3.411114e-06	8.372303e-10	2.418090e+01	5.258813e+01
2.660000e-06	3.446863e-06	8.488744e-10	2.443431e+01	5.373273e+01
2.670000e-06	3.482465e-06	8.606492e-10	2.468669e+01	5.486243e+01
2.680000e-06	3.517853e-06	8.716527e-10	2.493755e+01	5.597604e+01
2.690000e-06	3.553009e-06	8.860759e-10	2.518677e+01	5.707252e+01
2.700000e-06	3.587897e-06	9.067947e-10	2.543409e+01	5.815105e+01
2.710000e-06	3.622477e-06	9.328598e-10	2.567922e+01	5.921101e+01
2.720000e-06	3.656697e-06	9.565726e-10	2.592180e+01	6.025197e+01
2.730000e-06	3.690504e-06	9.726416e-10	2.616145e+01	6.127375e+01
2.740000e-06	3.723828e-06	9.833615e-10	2.639768e+01	6.227632e+01
2.750000e-06	3.756675e-06	9.904669e-10	2.663052e+01	6.325985e+01
2.760000e-06	3.789166e-06	9.984637e-10	2.686085e+01	6.422466e+01
2.770000e-06	3.821411e-06	1.010743e-09	2.708943e+01	6.517117e+01
2.780000e-06	3.853438e-06	1.029203e-09	2.731646e+01	6.609986e+01
2.790000e-06	3.885221e-06	1.051724e-09	2.754177e+01	6.701126e+01
2.800000e-06	3.916774e-06	1.071567e-09	2.776544e+01	6.790589e+01
2.810000e-06	3.948155e-06	1.081618e-09	2.798790e+01	6.878422e+01
2.820000e-06	3.979396e-06	1.083948e-09	2.820936e+01	6.964665e+01
2.830000e-06	4.010368e-06	1.089008e-09	2.842892e+01	7.049349e+01
2.840000e-06	4.040999e-06	1.099850e-09	2.864606e+01	7.132494e+01
2.850000e-06	4.071364e-06	1.110987e-09	2.886131e+01	7.214105e+01
2.860000e-06	4.101419e-06	1.124304e-09	2.907436e+01	7.294181e+01
2.870000e-06	4.131238e-06	1.140884e-09	2.928575e+01	7.372704e+01
2.880000e-06	4.160865e-06	1.158150e-09	2.949577e+01	7.449653e+01
2.890000e-06	4.190138e-06	1.170201e-09	2.970328e+01	7.524998e+01
2.900000e-06	4.219102e-06	1.175973e-09	2.990860e+01	7.598707e+01
