# Temperatura_=_19.48
# Concentracion g/m^3_=_4090.0
# C_Vs_to_Am_M_A/Vsm_=_65563218390.804596
# pendiente_HvsI_1/m_=_3716.3
# ordenada_HvsI_A/m_=_1297.0
# frecuencia_Hz_=_135083.6469824273

Tiempo_(s)	Campo_(V.s)	Magnetizacion_(V.s)	Campo_(kA/m)	Magnetizacion_(A/m)
0.000000e+00	-5.438259e-06	-1.251162e-09	-3.838981e+01	-8.378173e+01
1.000000e-08	-5.438349e-06	-1.246490e-09	-3.839044e+01	-8.360597e+01
2.000000e-08	-5.438235e-06	-1.240025e-09	-3.838964e+01	-8.340477e+01
3.000000e-08	-5.437825e-06	-1.232668e-09	-3.838674e+01	-8.317927e+01
4.000000e-08	-5.436976e-06	-1.232465e-09	-3.838075e+01	-8.293196e+01
5.000000e-08	-5.435612e-06	-1.242808e-09	-3.837112e+01	-8.266677e+01
6.000000e-08	-5.433659e-06	-1.254157e-09	-3.835734e+01	-8.238897e+01
7.000000e-08	-5.430993e-06	-1.240732e-09	-3.833851e+01	-8.210505e+01
8.000000e-08	-5.427734e-06	-1.197922e-09	-3.831551e+01	-8.182258e+01
9.000000e-08	-5.424008e-06	-1.191926e-09	-3.828921e+01	-8.154989e+01
1.000000e-07	-5.419841e-06	-1.263711e-09	-3.825979e+01	-8.129583e+01
1.100000e-07	-5.415440e-06	-1.343723e-09	-3.822872e+01	-8.106939e+01
1.200000e-07	-5.410942e-06	-1.201774e-09	-3.819697e+01	-8.087937e+01
1.300000e-07	-5.406246e-06	-1.144336e-09	-3.816382e+01	-8.073400e+01
1.400000e-07	-5.401088e-06	-1.253055e-09	-3.812741e+01	-8.064056e+01
1.500000e-07	-5.395422e-06	-1.369043e-09	-3.808741e+01	-8.060509e+01
1.600000e-07	-5.389429e-06	-1.245291e-09	-3.804511e+01	-8.063204e+01
1.700000e-07	-5.383191e-06	-1.057401e-09	-3.800107e+01	-8.072407e+01
1.800000e-07	-5.376492e-06	-1.217799e-09	-3.795378e+01	-8.088185e+01
1.900000e-07	-5.369246e-06	-1.332706e-09	-3.790263e+01	-8.110401e+01
2.000000e-07	-5.361765e-06	-1.288008e-09	-3.784982e+01	-8.138709e+01
2.100000e-07	-5.354073e-06	-1.151872e-09	-3.779552e+01	-8.172561e+01
2.200000e-07	-5.346114e-06	-1.296863e-09	-3.773934e+01	-8.211229e+01
2.300000e-07	-5.337862e-06	-1.340721e-09	-3.768108e+01	-8.253820e+01
2.400000e-07	-5.329264e-06	-1.279067e-09	-3.762038e+01	-8.299311e+01
2.500000e-07	-5.320153e-06	-1.272606e-09	-3.755607e+01	-8.346584e+01
2.600000e-07	-5.310356e-06	-1.410750e-09	-3.748691e+01	-8.394466e+01
2.700000e-07	-5.299786e-06	-1.380585e-09	-3.741230e+01	-8.441768e+01
2.800000e-07	-5.288743e-06	-1.303836e-09	-3.733434e+01	-8.487328e+01
2.900000e-07	-5.277377e-06	-1.360935e-09	-3.725410e+01	-8.530054e+01
3.000000e-07	-5.265547e-06	-1.399580e-09	-3.717059e+01	-8.568958e+01
3.100000e-07	-5.253270e-06	-1.293602e-09	-3.708393e+01	-8.603191e+01
3.200000e-07	-5.240674e-06	-1.266720e-09	-3.699501e+01	-8.632068e+01
3.300000e-07	-5.227693e-06	-1.400152e-09	-3.690338e+01	-8.655086e+01
3.400000e-07	-5.214291e-06	-1.382191e-09	-3.680877e+01	-8.671939e+01
3.500000e-07	-5.200576e-06	-1.304655e-09	-3.671195e+01	-8.682518e+01
3.600000e-07	-5.186480e-06	-1.335410e-09	-3.661245e+01	-8.686908e+01
3.700000e-07	-5.171965e-06	-1.394190e-09	-3.650998e+01	-8.685372e+01
3.800000e-07	-5.156873e-06	-1.309800e-09	-3.640345e+01	-8.678334e+01
3.900000e-07	-5.141130e-06	-1.298600e-09	-3.629231e+01	-8.666353e+01
4.000000e-07	-5.124816e-06	-1.328290e-09	-3.617715e+01	-8.650092e+01
4.100000e-07	-5.108131e-06	-1.317834e-09	-3.605936e+01	-8.630284e+01
4.200000e-07	-5.091137e-06	-1.287873e-09	-3.593940e+01	-8.607700e+01
4.300000e-07	-5.073801e-06	-1.359054e-09	-3.581702e+01	-8.583113e+01
4.400000e-07	-5.056164e-06	-1.333088e-09	-3.569252e+01	-8.557265e+01
4.500000e-07	-5.038388e-06	-1.299127e-09	-3.556703e+01	-8.530840e+01
4.600000e-07	-5.020323e-06	-1.308672e-09	-3.543951e+01	-8.504437e+01
4.700000e-07	-5.001766e-06	-1.345518e-09	-3.530851e+01	-8.478554e+01
4.800000e-07	-4.982805e-06	-1.281817e-09	-3.517466e+01	-8.453570e+01
4.900000e-07	-4.963455e-06	-1.276033e-09	-3.503807e+01	-8.429745e+01
5.000000e-07	-4.943747e-06	-1.285397e-09	-3.489895e+01	-8.407212e+01
5.100000e-07	-4.923812e-06	-1.296218e-09	-3.475822e+01	-8.385991e+01
5.200000e-07	-4.903671e-06	-1.282667e-09	-3.461604e+01	-8.365994e+01
5.300000e-07	-4.883285e-06	-1.291094e-09	-3.447213e+01	-8.347045e+01
5.400000e-07	-4.862602e-06	-1.273839e-09	-3.432612e+01	-8.328896e+01
5.500000e-07	-4.841627e-06	-1.288653e-09	-3.417806e+01	-8.311252e+01
5.600000e-07	-4.820293e-06	-1.291834e-09	-3.402746e+01	-8.293791e+01
5.700000e-07	-4.798567e-06	-1.266367e-09	-3.387409e+01	-8.276190e+01
5.800000e-07	-4.776536e-06	-1.241757e-09	-3.371857e+01	-8.258142e+01
5.900000e-07	-4.754184e-06	-1.252083e-09	-3.356077e+01	-8.239375e+01
6.000000e-07	-4.731466e-06	-1.254836e-09	-3.340041e+01	-8.219671e+01
6.100000e-07	-4.708329e-06	-1.249397e-09	-3.323708e+01	-8.198873e+01
6.200000e-07	-4.684857e-06	-1.249253e-09	-3.307138e+01	-8.176893e+01
6.300000e-07	-4.661188e-06	-1.245253e-09	-3.290430e+01	-8.153713e+01
6.400000e-07	-4.637334e-06	-1.261736e-09	-3.273591e+01	-8.129384e+01
6.500000e-07	-4.613286e-06	-1.264965e-09	-3.256615e+01	-8.104020e+01
6.600000e-07	-4.588989e-06	-1.246934e-09	-3.239463e+01	-8.077787e+01
6.700000e-07	-4.564338e-06	-1.221814e-09	-3.222061e+01	-8.050889e+01
6.800000e-07	-4.539188e-06	-1.234409e-09	-3.204308e+01	-8.023558e+01
6.900000e-07	-4.513520e-06	-1.225861e-09	-3.186188e+01	-7.996033e+01
7.000000e-07	-4.487307e-06	-1.215197e-09	-3.167683e+01	-7.968550e+01
7.100000e-07	-4.460560e-06	-1.202256e-09	-3.148803e+01	-7.941326e+01
7.200000e-07	-4.433360e-06	-1.217705e-09	-3.129601e+01	-7.914546e+01
7.300000e-07	-4.405801e-06	-1.218671e-09	-3.110147e+01	-7.888353e+01
7.400000e-07	-4.378053e-06	-1.220308e-09	-3.090559e+01	-7.862844e+01
7.500000e-07	-4.350165e-06	-1.198057e-09	-3.070872e+01	-7.838064e+01
7.600000e-07	-4.322084e-06	-1.198811e-09	-3.051049e+01	-7.814004e+01
7.700000e-07	-4.293815e-06	-1.198373e-09	-3.031094e+01	-7.790610e+01
7.800000e-07	-4.265246e-06	-1.197049e-09	-3.010926e+01	-7.767782e+01
7.900000e-07	-4.236373e-06	-1.174355e-09	-2.990544e+01	-7.745389e+01
8.000000e-07	-4.207167e-06	-1.174016e-09	-2.969927e+01	-7.723272e+01
8.100000e-07	-4.177619e-06	-1.174908e-09	-2.949069e+01	-7.701262e+01
8.200000e-07	-4.147856e-06	-1.178027e-09	-2.928058e+01	-7.679189e+01
8.300000e-07	-4.117768e-06	-1.167088e-09	-2.906819e+01	-7.656890e+01
8.400000e-07	-4.087406e-06	-1.162406e-09	-2.885386e+01	-7.634224e+01
8.500000e-07	-4.056738e-06	-1.165231e-09	-2.863736e+01	-7.611080e+01
8.600000e-07	-4.025699e-06	-1.173166e-09	-2.841825e+01	-7.587380e+01
8.700000e-07	-3.994453e-06	-1.164701e-09	-2.819768e+01	-7.563083e+01
8.800000e-07	-3.963061e-06	-1.148089e-09	-2.797607e+01	-7.538193e+01
8.900000e-07	-3.931475e-06	-1.136961e-09	-2.775310e+01	-7.512746e+01
9.000000e-07	-3.899684e-06	-1.130835e-09	-2.752868e+01	-7.486817e+01
9.100000e-07	-3.867732e-06	-1.123486e-09	-2.730313e+01	-7.460507e+01
9.200000e-07	-3.835578e-06	-1.115115e-09	-2.707615e+01	-7.433938e+01
9.300000e-07	-3.803220e-06	-1.122860e-09	-2.684773e+01	-7.407242e+01
9.400000e-07	-3.770613e-06	-1.138885e-09	-2.661754e+01	-7.380553e+01
9.500000e-07	-3.737452e-06	-1.148360e-09	-2.638345e+01	-7.354000e+01
9.600000e-07	-3.703748e-06	-1.137541e-09	-2.614553e+01	-7.327691e+01
9.700000e-07	-3.669690e-06	-1.123881e-09	-2.590511e+01	-7.301714e+01
9.800000e-07	-3.635298e-06	-1.108621e-09	-2.566233e+01	-7.276125e+01
9.900000e-07	-3.600521e-06	-1.099132e-09	-2.541683e+01	-7.250947e+01
1.000000e-06	-3.565326e-06	-1.084387e-09	-2.516838e+01	-7.226169e+01
1.010000e-06	-3.529879e-06	-1.086142e-09	-2.491815e+01	-7.201746e+01
1.020000e-06	-3.494268e-06	-1.096444e-09	-2.466677e+01	-7.177601e+01
1.030000e-06	-3.458492e-06	-1.110687e-09	-2.441421e+01	-7.153631e+01
1.040000e-06	-3.422570e-06	-1.104350e-09	-2.416063e+01	-7.129717e+01
1.050000e-06	-3.386515e-06	-1.094106e-09	-2.390611e+01	-7.105724e+01
1.060000e-06	-3.350235e-06	-1.080501e-09	-2.365001e+01	-7.081517e+01
1.070000e-06	-3.313694e-06	-1.072541e-09	-2.339206e+01	-7.056967e+01
1.080000e-06	-3.276909e-06	-1.057937e-09	-2.313238e+01	-7.031957e+01
1.090000e-06	-3.239818e-06	-1.049949e-09	-2.287055e+01	-7.006393e+01
1.100000e-06	-3.202490e-06	-1.050639e-09	-2.260705e+01	-6.980205e+01
1.110000e-06	-3.165001e-06	-1.061234e-09	-2.234241e+01	-6.953355e+01
1.120000e-06	-3.127291e-06	-1.062129e-09	-2.207620e+01	-6.925837e+01
1.130000e-06	-3.089401e-06	-1.055423e-09	-2.180872e+01	-6.897678e+01
1.140000e-06	-3.051369e-06	-1.046945e-09	-2.154025e+01	-6.868933e+01
1.150000e-06	-3.013175e-06	-1.044235e-09	-2.127063e+01	-6.839682e+01
1.160000e-06	-2.974820e-06	-1.037998e-09	-2.099987e+01	-6.810026e+01
1.170000e-06	-2.936206e-06	-1.028209e-09	-2.072729e+01	-6.780077e+01
1.180000e-06	-2.897281e-06	-1.018704e-09	-2.045251e+01	-6.749951e+01
1.190000e-06	-2.858092e-06	-1.014918e-09	-2.017587e+01	-6.719761e+01
1.200000e-06	-2.818760e-06	-1.015144e-09	-1.989822e+01	-6.689607e+01
1.210000e-06	-2.779338e-06	-1.013995e-09	-1.961993e+01	-6.659569e+01
1.220000e-06	-2.739697e-06	-1.013522e-09	-1.934009e+01	-6.629703e+01
1.230000e-06	-2.699863e-06	-1.013071e-09	-1.905890e+01	-6.600035e+01
1.240000e-06	-2.659980e-06	-1.010984e-09	-1.877735e+01	-6.570560e+01
1.250000e-06	-2.620022e-06	-1.002443e-09	-1.849528e+01	-6.541237e+01
1.260000e-06	-2.579914e-06	-9.947345e-10	-1.821215e+01	-6.511996e+01
1.270000e-06	-2.539693e-06	-9.854602e-10	-1.792822e+01	-6.482741e+01
1.280000e-06	-2.499414e-06	-9.810204e-10	-1.764388e+01	-6.453349e+01
1.290000e-06	-2.458976e-06	-9.767734e-10	-1.735843e+01	-6.423687e+01
1.300000e-06	-2.418311e-06	-9.723285e-10	-1.707136e+01	-6.393608e+01
1.310000e-06	-2.377402e-06	-9.629048e-10	-1.678258e+01	-6.362969e+01
1.320000e-06	-2.336133e-06	-9.604285e-10	-1.649125e+01	-6.331634e+01
1.330000e-06	-2.294466e-06	-9.585746e-10	-1.619711e+01	-6.299482e+01
1.340000e-06	-2.252459e-06	-9.551023e-10	-1.590058e+01	-6.266415e+01
1.350000e-06	-2.210187e-06	-9.469850e-10	-1.560217e+01	-6.232363e+01
1.360000e-06	-2.167715e-06	-9.402720e-10	-1.530235e+01	-6.197288e+01
1.370000e-06	-2.124952e-06	-9.311515e-10	-1.500048e+01	-6.161183e+01
1.380000e-06	-2.081863e-06	-9.219974e-10	-1.469631e+01	-6.124075e+01
1.390000e-06	-2.038613e-06	-9.134689e-10	-1.439100e+01	-6.086023e+01
1.400000e-06	-1.995265e-06	-9.086895e-10	-1.408499e+01	-6.047110e+01
1.410000e-06	-1.951741e-06	-9.031976e-10	-1.377775e+01	-6.007441e+01
1.420000e-06	-1.908096e-06	-8.997605e-10	-1.346965e+01	-5.967134e+01
1.430000e-06	-1.864378e-06	-8.971781e-10	-1.316104e+01	-5.926314e+01
1.440000e-06	-1.820623e-06	-8.946936e-10	-1.285216e+01	-5.885105e+01
1.450000e-06	-1.776860e-06	-8.879397e-10	-1.254323e+01	-5.843617e+01
1.460000e-06	-1.733029e-06	-8.786540e-10	-1.223381e+01	-5.801948e+01
1.470000e-06	-1.689135e-06	-8.710500e-10	-1.192395e+01	-5.760169e+01
1.480000e-06	-1.645166e-06	-8.641253e-10	-1.161357e+01	-5.718324e+01
1.490000e-06	-1.601006e-06	-8.576293e-10	-1.130184e+01	-5.676425e+01
1.500000e-06	-1.556690e-06	-8.525271e-10	-1.098900e+01	-5.634452e+01
1.510000e-06	-1.512295e-06	-8.496643e-10	-1.067561e+01	-5.592352e+01
1.520000e-06	-1.467812e-06	-8.449785e-10	-1.036159e+01	-5.550043e+01
1.530000e-06	-1.423298e-06	-8.366448e-10	-1.004736e+01	-5.507416e+01
1.540000e-06	-1.378746e-06	-8.246527e-10	-9.732859e+00	-5.464344e+01
1.550000e-06	-1.334082e-06	-8.107527e-10	-9.417565e+00	-5.420684e+01
1.560000e-06	-1.289304e-06	-7.991622e-10	-9.101465e+00	-5.376287e+01
1.570000e-06	-1.244418e-06	-7.944492e-10	-8.784609e+00	-5.331004e+01
1.580000e-06	-1.199504e-06	-7.906568e-10	-8.467550e+00	-5.284696e+01
1.590000e-06	-1.154559e-06	-7.869527e-10	-8.150276e+00	-5.237233e+01
1.600000e-06	-1.109414e-06	-7.825701e-10	-7.831588e+00	-5.188508e+01
1.610000e-06	-1.064122e-06	-7.777462e-10	-7.511858e+00	-5.138433e+01
1.620000e-06	-1.018736e-06	-7.690972e-10	-7.191469e+00	-5.086947e+01
1.630000e-06	-9.732514e-07	-7.565473e-10	-6.870385e+00	-5.034011e+01
1.640000e-06	-9.277230e-07	-7.410179e-10	-6.548991e+00	-4.979610e+01
1.650000e-06	-8.821240e-07	-7.297642e-10	-6.227098e+00	-4.923749e+01
1.660000e-06	-8.364689e-07	-7.202065e-10	-5.904809e+00	-4.866448e+01
1.670000e-06	-7.908580e-07	-7.140795e-10	-5.582832e+00	-4.807738e+01
1.680000e-06	-7.452125e-07	-7.088831e-10	-5.260611e+00	-4.747653e+01
1.690000e-06	-6.994656e-07	-7.038460e-10	-4.937674e+00	-4.686222e+01
1.700000e-06	-6.536948e-07	-6.961147e-10	-4.614568e+00	-4.623467e+01
1.710000e-06	-6.078724e-07	-6.850737e-10	-4.291098e+00	-4.559394e+01
1.720000e-06	-5.619493e-07	-6.714277e-10	-3.966918e+00	-4.493987e+01
1.730000e-06	-5.159825e-07	-6.572676e-10	-3.642429e+00	-4.427206e+01
1.740000e-06	-4.700158e-07	-6.436349e-10	-3.317939e+00	-4.358985e+01
1.750000e-06	-4.239875e-07	-6.319597e-10	-2.993017e+00	-4.289231e+01
1.760000e-06	-3.779842e-07	-6.203196e-10	-2.668270e+00	-4.217824e+01
1.770000e-06	-3.320484e-07	-6.086920e-10	-2.343999e+00	-4.144622e+01
1.780000e-06	-2.860453e-07	-5.997701e-10	-2.019253e+00	-4.069464e+01
1.790000e-06	-2.400651e-07	-5.934769e-10	-1.694670e+00	-3.992176e+01
1.800000e-06	-1.941689e-07	-5.817030e-10	-1.370679e+00	-3.912576e+01
1.810000e-06	-1.481119e-07	-5.636908e-10	-1.045553e+00	-3.830486e+01
1.820000e-06	-1.018596e-07	-5.452882e-10	-7.190482e-01	-3.745732e+01
1.830000e-06	-5.572008e-08	-5.286239e-10	-3.933397e-01	-3.658158e+01
1.840000e-06	-9.689771e-09	-5.120105e-10	-6.840212e-02	-3.567627e+01
1.850000e-06	3.642101e-08	-4.957521e-10	2.571035e-01	-3.474030e+01
1.860000e-06	8.248609e-08	-4.855545e-10	5.822865e-01	-3.377286e+01
1.870000e-06	1.284646e-07	-4.806057e-10	9.068583e-01	-3.277348e+01
1.880000e-06	1.745030e-07	-4.728310e-10	1.231853e+00	-3.174201e+01
1.890000e-06	2.205927e-07	-4.546716e-10	1.557210e+00	-3.067862e+01
1.900000e-06	2.666416e-07	-4.311959e-10	1.882279e+00	-2.958377e+01
1.910000e-06	3.126797e-07	-4.069265e-10	2.207272e+00	-2.845815e+01
1.920000e-06	3.587236e-07	-3.851773e-10	2.532305e+00	-2.730266e+01
1.930000e-06	4.047012e-07	-3.639857e-10	2.856871e+00	-2.611832e+01
1.940000e-06	4.506158e-07	-3.455886e-10	3.180991e+00	-2.490623e+01
1.950000e-06	4.964727e-07	-3.310629e-10	3.504704e+00	-2.366745e+01
1.960000e-06	5.423319e-07	-3.185572e-10	3.828434e+00	-2.240302e+01
1.970000e-06	5.882314e-07	-3.011579e-10	4.152449e+00	-2.111381e+01
1.980000e-06	6.340688e-07	-2.773267e-10	4.476024e+00	-1.980056e+01
1.990000e-06	6.798532e-07	-2.507665e-10	4.799226e+00	-1.846381e+01
2.000000e-06	7.255885e-07	-2.255525e-10	5.122081e+00	-1.710386e+01
2.010000e-06	7.712760e-07	-2.014438e-10	5.444599e+00	-1.572084e+01
2.020000e-06	8.169134e-07	-1.795077e-10	5.766763e+00	-1.431464e+01
2.030000e-06	8.625544e-07	-1.588996e-10	6.088952e+00	-1.288503e+01
2.040000e-06	9.082001e-07	-1.386844e-10	6.411174e+00	-1.143163e+01
2.050000e-06	9.537250e-07	-1.164365e-10	6.732544e+00	-9.954021e+00
2.060000e-06	9.991059e-07	-9.204786e-11	7.052898e+00	-8.451766e+00
2.070000e-06	1.044354e-06	-6.602641e-11	7.372310e+00	-6.924498e+00
2.080000e-06	1.089583e-06	-3.940346e-11	7.691597e+00	-5.371972e+00
2.090000e-06	1.134726e-06	-1.457257e-11	8.010268e+00	-3.794133e+00
2.100000e-06	1.179700e-06	8.702965e-12	8.327745e+00	-2.191158e+00
2.110000e-06	1.224599e-06	3.286370e-11	8.644699e+00	-5.635068e-01
2.120000e-06	1.269364e-06	5.891160e-11	8.960706e+00	1.088061e+00
2.130000e-06	1.313991e-06	8.639249e-11	9.275734e+00	2.762463e+00
2.140000e-06	1.358486e-06	1.144417e-10	9.589835e+00	4.458302e+00
2.150000e-06	1.402901e-06	1.415165e-10	9.903372e+00	6.173879e+00
2.160000e-06	1.447277e-06	1.678051e-10	1.021663e+01	7.907219e+00
2.170000e-06	1.491522e-06	1.943609e-10	1.052896e+01	9.656114e+00
2.180000e-06	1.535663e-06	2.188761e-10	1.084057e+01	1.141817e+01
2.190000e-06	1.579708e-06	2.395603e-10	1.115149e+01	1.319086e+01
2.200000e-06	1.623675e-06	2.633940e-10	1.146186e+01	1.497158e+01
2.210000e-06	1.667679e-06	2.924314e-10	1.177249e+01	1.675770e+01
2.220000e-06	1.711671e-06	3.240535e-10	1.208304e+01	1.854660e+01
2.230000e-06	1.755539e-06	3.543151e-10	1.239272e+01	2.033575e+01
2.240000e-06	1.799355e-06	3.847144e-10	1.270202e+01	2.212270e+01
2.250000e-06	1.843181e-06	4.133477e-10	1.301140e+01	2.390514e+01
2.260000e-06	1.886961e-06	4.392468e-10	1.332045e+01	2.568089e+01
2.270000e-06	1.930679e-06	4.634907e-10	1.362907e+01	2.744788e+01
2.280000e-06	1.974282e-06	4.857093e-10	1.393687e+01	2.920422e+01
2.290000e-06	2.017719e-06	5.096932e-10	1.424350e+01	3.094807e+01
2.300000e-06	2.060967e-06	5.380363e-10	1.454880e+01	3.267771e+01
2.310000e-06	2.103958e-06	5.672535e-10	1.485228e+01	3.439148e+01
2.320000e-06	2.146769e-06	5.966751e-10	1.515449e+01	3.608774e+01
2.330000e-06	2.189467e-06	6.249152e-10	1.545590e+01	3.776487e+01
2.340000e-06	2.231824e-06	6.491344e-10	1.575491e+01	3.942122e+01
2.350000e-06	2.273747e-06	6.695255e-10	1.605085e+01	4.105512e+01
2.360000e-06	2.315393e-06	6.897906e-10	1.634484e+01	4.266486e+01
2.370000e-06	2.356817e-06	7.134166e-10	1.663727e+01	4.424873e+01
2.380000e-06	2.398000e-06	7.389418e-10	1.692798e+01	4.580497e+01
2.390000e-06	2.438874e-06	7.640378e-10	1.721652e+01	4.733185e+01
2.400000e-06	2.479464e-06	7.865912e-10	1.750305e+01	4.882768e+01
2.410000e-06	2.519911e-06	8.068667e-10	1.778858e+01	5.029084e+01
2.420000e-06	2.560240e-06	8.286234e-10	1.807327e+01	5.171986e+01
2.430000e-06	2.600392e-06	8.522310e-10	1.835671e+01	5.311342e+01
2.440000e-06	2.640406e-06	8.736362e-10	1.863918e+01	5.447039e+01
2.450000e-06	2.680301e-06	8.935139e-10	1.892081e+01	5.578992e+01
2.460000e-06	2.720108e-06	9.171800e-10	1.920181e+01	5.707142e+01
2.470000e-06	2.759832e-06	9.400397e-10	1.948223e+01	5.831457e+01
2.480000e-06	2.799390e-06	9.564723e-10	1.976148e+01	5.951938e+01
2.490000e-06	2.838768e-06	9.686317e-10	2.003946e+01	6.068615e+01
2.500000e-06	2.877945e-06	9.849757e-10	2.031601e+01	6.181544e+01
2.510000e-06	2.916840e-06	1.008412e-09	2.059059e+01	6.290805e+01
2.520000e-06	2.955447e-06	1.032216e-09	2.086312e+01	6.396501e+01
2.530000e-06	2.993861e-06	1.053428e-09	2.113429e+01	6.498747e+01
2.540000e-06	3.032151e-06	1.072122e-09	2.140459e+01	6.597669e+01
2.550000e-06	3.070287e-06	1.087060e-09	2.167379e+01	6.693395e+01
2.560000e-06	3.108199e-06	1.096921e-09	2.194143e+01	6.786053e+01
2.570000e-06	3.145901e-06	1.102842e-09	2.220758e+01	6.875758e+01
2.580000e-06	3.183398e-06	1.109174e-09	2.247227e+01	6.962617e+01
2.590000e-06	3.220655e-06	1.122002e-09	2.273528e+01	7.046718e+01
2.600000e-06	3.257612e-06	1.142505e-09	2.299617e+01	7.128130e+01
2.610000e-06	3.294268e-06	1.164324e-09	2.325492e+01	7.206901e+01
2.620000e-06	3.330731e-06	1.181306e-09	2.351233e+01	7.283060e+01
2.630000e-06	3.367044e-06	1.192906e-09	2.376866e+01	7.356617e+01
2.640000e-06	3.403201e-06	1.199559e-09	2.402391e+01	7.427570e+01
2.650000e-06	3.439173e-06	1.203969e-09	2.427784e+01	7.495902e+01
2.660000e-06	3.474988e-06	1.205222e-09	2.453066e+01	7.561592e+01
2.670000e-06	3.510696e-06	1.207633e-09	2.478274e+01	7.624621e+01
2.680000e-06	3.546316e-06	1.216534e-09	2.503419e+01	7.684973e+01
2.690000e-06	3.581689e-06	1.230315e-09	2.528389e+01	7.742643e+01
2.700000e-06	3.616638e-06	1.244820e-09	2.553061e+01	7.797642e+01
2.710000e-06	3.651201e-06	1.260928e-09	2.577459e+01	7.850002e+01
2.720000e-06	3.685351e-06	1.274421e-09	2.601566e+01	7.899773e+01
2.730000e-06	3.719019e-06	1.281165e-09	2.625334e+01	7.947031e+01
2.740000e-06	3.752283e-06	1.281625e-09	2.648815e+01	7.991872e+01
2.750000e-06	3.785177e-06	1.280291e-09	2.672036e+01	8.034414e+01
2.760000e-06	3.817664e-06	1.284056e-09	2.694968e+01	8.074788e+01
2.770000e-06	3.849837e-06	1.290089e-09	2.717680e+01	8.113139e+01
2.780000e-06	3.881832e-06	1.296372e-09	2.740266e+01	8.149617e+01
2.790000e-06	3.913682e-06	1.304806e-09	2.762750e+01	8.184371e+01
2.800000e-06	3.945373e-06	1.313229e-09	2.785121e+01	8.217540e+01
2.810000e-06	3.976890e-06	1.319497e-09	2.807370e+01	8.249252e+01
2.820000e-06	4.008106e-06	1.321136e-09	2.829406e+01	8.279614e+01
2.830000e-06	4.038972e-06	1.319928e-09	2.851195e+01	8.308708e+01
2.840000e-06	4.069582e-06	1.321322e-09	2.872803e+01	8.336587e+01
2.850000e-06	4.099986e-06	1.324216e-09	2.894266e+01	8.363279e+01
2.860000e-06	4.130134e-06	1.327664e-09	2.915548e+01	8.388777e+01
2.870000e-06	4.159972e-06	1.328202e-09	2.936611e+01	8.413053e+01
2.880000e-06	4.189584e-06	1.327946e-09	2.957515e+01	8.436052e+01
2.890000e-06	4.218988e-06	1.328977e-09	2.978271e+01	8.457703e+01
2.900000e-06	4.248056e-06	1.333108e-09	2.998791e+01	8.477927e+01
