# Temperatura_=_-1.9
# Concentracion g/m^3_=_4090.0
# C_Vs_to_Am_M_A/Vsm_=_65563218390.804596
# pendiente_HvsI_1/m_=_3716.3
# ordenada_HvsI_A/m_=_1297.0
# frecuencia_Hz_=_135065.3637912257

Tiempo_(s)	Campo_(V.s)	Magnetizacion_(V.s)	Campo_(kA/m)	Magnetizacion_(A/m)
0.000000e+00	-5.412946e-06	-2.012589e-09	-3.839491e+01	-1.347028e+02
1.000000e-08	-5.413204e-06	-2.005854e-09	-3.839674e+01	-1.346021e+02
2.000000e-08	-5.413284e-06	-1.997751e-09	-3.839730e+01	-1.344876e+02
3.000000e-08	-5.413012e-06	-1.993229e-09	-3.839537e+01	-1.343591e+02
4.000000e-08	-5.412344e-06	-1.994783e-09	-3.839064e+01	-1.342170e+02
5.000000e-08	-5.411140e-06	-2.000244e-09	-3.838210e+01	-1.340626e+02
6.000000e-08	-5.409248e-06	-2.008752e-09	-3.836867e+01	-1.338979e+02
7.000000e-08	-5.406739e-06	-2.017472e-09	-3.835088e+01	-1.337256e+02
8.000000e-08	-5.403689e-06	-1.996370e-09	-3.832925e+01	-1.335491e+02
9.000000e-08	-5.400226e-06	-1.969681e-09	-3.830468e+01	-1.333723e+02
1.000000e-07	-5.396350e-06	-1.992753e-09	-3.827719e+01	-1.331997e+02
1.100000e-07	-5.392078e-06	-2.004723e-09	-3.824689e+01	-1.330357e+02
1.200000e-07	-5.387581e-06	-1.977879e-09	-3.821499e+01	-1.328850e+02
1.300000e-07	-5.382954e-06	-1.978260e-09	-3.818217e+01	-1.327521e+02
1.400000e-07	-5.378009e-06	-1.997525e-09	-3.814709e+01	-1.326412e+02
1.500000e-07	-5.372554e-06	-2.040830e-09	-3.810840e+01	-1.325557e+02
1.600000e-07	-5.366695e-06	-1.979598e-09	-3.806684e+01	-1.324986e+02
1.700000e-07	-5.360564e-06	-1.981255e-09	-3.802335e+01	-1.324717e+02
1.800000e-07	-5.353951e-06	-1.976705e-09	-3.797645e+01	-1.324759e+02
1.900000e-07	-5.346826e-06	-1.987612e-09	-3.792591e+01	-1.325112e+02
2.000000e-07	-5.339479e-06	-1.969446e-09	-3.787380e+01	-1.325762e+02
2.100000e-07	-5.332027e-06	-2.008979e-09	-3.782093e+01	-1.326686e+02
2.200000e-07	-5.324304e-06	-2.044005e-09	-3.776615e+01	-1.327849e+02
2.300000e-07	-5.316302e-06	-2.041913e-09	-3.770939e+01	-1.329208e+02
2.400000e-07	-5.307991e-06	-2.058397e-09	-3.765044e+01	-1.330712e+02
2.500000e-07	-5.299228e-06	-2.093389e-09	-3.758829e+01	-1.332303e+02
2.600000e-07	-5.289620e-06	-2.114816e-09	-3.752013e+01	-1.333920e+02
2.700000e-07	-5.279272e-06	-2.081811e-09	-3.744674e+01	-1.335500e+02
2.800000e-07	-5.268578e-06	-2.095558e-09	-3.737088e+01	-1.336983e+02
2.900000e-07	-5.257336e-06	-2.100840e-09	-3.729114e+01	-1.338310e+02
3.000000e-07	-5.245624e-06	-2.078528e-09	-3.720806e+01	-1.339427e+02
3.100000e-07	-5.233518e-06	-2.046748e-09	-3.712220e+01	-1.340289e+02
3.200000e-07	-5.220997e-06	-2.098205e-09	-3.703338e+01	-1.340858e+02
3.300000e-07	-5.208116e-06	-2.086684e-09	-3.694201e+01	-1.341109e+02
3.400000e-07	-5.194920e-06	-2.055573e-09	-3.684841e+01	-1.341025e+02
3.500000e-07	-5.181433e-06	-2.052690e-09	-3.675275e+01	-1.340600e+02
3.600000e-07	-5.167567e-06	-2.094456e-09	-3.665440e+01	-1.339841e+02
3.700000e-07	-5.153242e-06	-2.054222e-09	-3.655278e+01	-1.338762e+02
3.800000e-07	-5.138432e-06	-2.039974e-09	-3.644773e+01	-1.337390e+02
3.900000e-07	-5.122975e-06	-2.046429e-09	-3.633809e+01	-1.335755e+02
4.000000e-07	-5.106850e-06	-2.051936e-09	-3.622372e+01	-1.333896e+02
4.100000e-07	-5.090353e-06	-2.032200e-09	-3.610670e+01	-1.331853e+02
4.200000e-07	-5.073552e-06	-2.054535e-09	-3.598753e+01	-1.329670e+02
4.300000e-07	-5.056391e-06	-2.049123e-09	-3.586581e+01	-1.327388e+02
4.400000e-07	-5.039008e-06	-2.037398e-09	-3.574250e+01	-1.325047e+02
4.500000e-07	-5.021426e-06	-2.045032e-09	-3.561779e+01	-1.322682e+02
4.600000e-07	-5.003517e-06	-2.045862e-09	-3.549076e+01	-1.320324e+02
4.700000e-07	-4.985144e-06	-2.013804e-09	-3.536044e+01	-1.317996e+02
4.800000e-07	-4.966365e-06	-2.004016e-09	-3.522723e+01	-1.315712e+02
4.900000e-07	-4.947214e-06	-2.014850e-09	-3.509140e+01	-1.313481e+02
5.000000e-07	-4.927707e-06	-2.006722e-09	-3.495303e+01	-1.311303e+02
5.100000e-07	-4.908025e-06	-2.003721e-09	-3.481342e+01	-1.309170e+02
5.200000e-07	-4.888191e-06	-2.006204e-09	-3.467274e+01	-1.307069e+02
5.300000e-07	-4.868024e-06	-2.010132e-09	-3.452969e+01	-1.304982e+02
5.400000e-07	-4.847495e-06	-2.009151e-09	-3.438407e+01	-1.302887e+02
5.500000e-07	-4.826681e-06	-2.010196e-09	-3.423644e+01	-1.300758e+02
5.600000e-07	-4.805532e-06	-1.989400e-09	-3.408642e+01	-1.298573e+02
5.700000e-07	-4.784056e-06	-1.988595e-09	-3.393409e+01	-1.296307e+02
5.800000e-07	-4.762314e-06	-1.987406e-09	-3.377987e+01	-1.293939e+02
5.900000e-07	-4.740247e-06	-1.976557e-09	-3.362334e+01	-1.291452e+02
6.000000e-07	-4.717778e-06	-1.964136e-09	-3.346397e+01	-1.288835e+02
6.100000e-07	-4.694905e-06	-1.980264e-09	-3.330172e+01	-1.286081e+02
6.200000e-07	-4.671692e-06	-1.977102e-09	-3.313707e+01	-1.283190e+02
6.300000e-07	-4.648302e-06	-1.974067e-09	-3.297116e+01	-1.280168e+02
6.400000e-07	-4.624769e-06	-1.968706e-09	-3.280424e+01	-1.277027e+02
6.500000e-07	-4.600969e-06	-1.964575e-09	-3.263542e+01	-1.273783e+02
6.600000e-07	-4.576834e-06	-1.950776e-09	-3.246423e+01	-1.270459e+02
6.700000e-07	-4.552378e-06	-1.953299e-09	-3.229076e+01	-1.267077e+02
6.800000e-07	-4.527462e-06	-1.944990e-09	-3.211402e+01	-1.263666e+02
6.900000e-07	-4.501920e-06	-1.939928e-09	-3.193285e+01	-1.260252e+02
7.000000e-07	-4.475827e-06	-1.937310e-09	-3.174777e+01	-1.256860e+02
7.100000e-07	-4.449334e-06	-1.935156e-09	-3.155985e+01	-1.253517e+02
7.200000e-07	-4.422486e-06	-1.919404e-09	-3.136941e+01	-1.250241e+02
7.300000e-07	-4.395280e-06	-1.912852e-09	-3.117643e+01	-1.247051e+02
7.400000e-07	-4.367755e-06	-1.910230e-09	-3.098120e+01	-1.243958e+02
7.500000e-07	-4.340011e-06	-1.911478e-09	-3.078441e+01	-1.240968e+02
7.600000e-07	-4.312097e-06	-1.910868e-09	-3.058640e+01	-1.238082e+02
7.700000e-07	-4.283985e-06	-1.906888e-09	-3.038700e+01	-1.235296e+02
7.800000e-07	-4.255594e-06	-1.899832e-09	-3.018562e+01	-1.232599e+02
7.900000e-07	-4.226894e-06	-1.894270e-09	-2.998205e+01	-1.229978e+02
8.000000e-07	-4.197880e-06	-1.886381e-09	-2.977625e+01	-1.227415e+02
8.100000e-07	-4.168604e-06	-1.874795e-09	-2.956859e+01	-1.224889e+02
8.200000e-07	-4.139089e-06	-1.870618e-09	-2.935923e+01	-1.222379e+02
8.300000e-07	-4.109249e-06	-1.867677e-09	-2.914757e+01	-1.219861e+02
8.400000e-07	-4.079178e-06	-1.865337e-09	-2.893428e+01	-1.217313e+02
8.500000e-07	-4.048886e-06	-1.860752e-09	-2.871941e+01	-1.214715e+02
8.600000e-07	-4.018277e-06	-1.860700e-09	-2.850229e+01	-1.212049e+02
8.700000e-07	-3.987333e-06	-1.856149e-09	-2.828280e+01	-1.209300e+02
8.800000e-07	-3.956171e-06	-1.853813e-09	-2.806177e+01	-1.206457e+02
8.900000e-07	-3.924883e-06	-1.844893e-09	-2.783983e+01	-1.203512e+02
9.000000e-07	-3.893425e-06	-1.836530e-09	-2.761670e+01	-1.200461e+02
9.100000e-07	-3.861786e-06	-1.825981e-09	-2.739228e+01	-1.197304e+02
9.200000e-07	-3.829945e-06	-1.823582e-09	-2.716642e+01	-1.194046e+02
9.300000e-07	-3.797840e-06	-1.820966e-09	-2.693869e+01	-1.190693e+02
9.400000e-07	-3.765393e-06	-1.822954e-09	-2.670855e+01	-1.187253e+02
9.500000e-07	-3.732580e-06	-1.822360e-09	-2.647580e+01	-1.183736e+02
9.600000e-07	-3.699401e-06	-1.823479e-09	-2.624045e+01	-1.180153e+02
9.700000e-07	-3.665816e-06	-1.816014e-09	-2.600223e+01	-1.176517e+02
9.800000e-07	-3.631734e-06	-1.805379e-09	-2.576048e+01	-1.172836e+02
9.900000e-07	-3.597137e-06	-1.790115e-09	-2.551508e+01	-1.169122e+02
1.000000e-06	-3.562138e-06	-1.779076e-09	-2.526682e+01	-1.165380e+02
1.010000e-06	-3.526913e-06	-1.770978e-09	-2.501697e+01	-1.161619e+02
1.020000e-06	-3.491559e-06	-1.769274e-09	-2.476620e+01	-1.157841e+02
1.030000e-06	-3.456013e-06	-1.769519e-09	-2.451406e+01	-1.154049e+02
1.040000e-06	-3.420310e-06	-1.770986e-09	-2.426081e+01	-1.150242e+02
1.050000e-06	-3.384483e-06	-1.768921e-09	-2.400669e+01	-1.146420e+02
1.060000e-06	-3.348455e-06	-1.763635e-09	-2.375114e+01	-1.142579e+02
1.070000e-06	-3.312229e-06	-1.752746e-09	-2.349418e+01	-1.138716e+02
1.080000e-06	-3.275783e-06	-1.736474e-09	-2.323566e+01	-1.134827e+02
1.090000e-06	-3.239123e-06	-1.722226e-09	-2.297562e+01	-1.130908e+02
1.100000e-06	-3.202215e-06	-1.714667e-09	-2.271383e+01	-1.126955e+02
1.110000e-06	-3.165054e-06	-1.713267e-09	-2.245024e+01	-1.122967e+02
1.120000e-06	-3.127626e-06	-1.711580e-09	-2.218476e+01	-1.118941e+02
1.130000e-06	-3.089906e-06	-1.709510e-09	-2.191721e+01	-1.114877e+02
1.140000e-06	-3.051989e-06	-1.706662e-09	-2.164826e+01	-1.110776e+02
1.150000e-06	-3.013925e-06	-1.704756e-09	-2.137826e+01	-1.106642e+02
1.160000e-06	-2.975725e-06	-1.697472e-09	-2.110730e+01	-1.102476e+02
1.170000e-06	-2.937307e-06	-1.687018e-09	-2.083480e+01	-1.098284e+02
1.180000e-06	-2.898671e-06	-1.674346e-09	-2.056075e+01	-1.094069e+02
1.190000e-06	-2.859868e-06	-1.665659e-09	-2.028551e+01	-1.089835e+02
1.200000e-06	-2.820836e-06	-1.659811e-09	-2.000865e+01	-1.085588e+02
1.210000e-06	-2.781600e-06	-1.660290e-09	-1.973034e+01	-1.081330e+02
1.220000e-06	-2.742258e-06	-1.660500e-09	-1.945128e+01	-1.077062e+02
1.230000e-06	-2.702775e-06	-1.659068e-09	-1.917123e+01	-1.072786e+02
1.240000e-06	-2.663143e-06	-1.650716e-09	-1.889010e+01	-1.068501e+02
1.250000e-06	-2.623432e-06	-1.640295e-09	-1.860843e+01	-1.064202e+02
1.260000e-06	-2.583668e-06	-1.628113e-09	-1.832638e+01	-1.059885e+02
1.270000e-06	-2.543765e-06	-1.617597e-09	-1.804334e+01	-1.055545e+02
1.280000e-06	-2.503671e-06	-1.610734e-09	-1.775895e+01	-1.051172e+02
1.290000e-06	-2.463397e-06	-1.607693e-09	-1.747328e+01	-1.046759e+02
1.300000e-06	-2.422915e-06	-1.604857e-09	-1.718613e+01	-1.042295e+02
1.310000e-06	-2.382197e-06	-1.600888e-09	-1.689731e+01	-1.037772e+02
1.320000e-06	-2.341137e-06	-1.593454e-09	-1.660607e+01	-1.033179e+02
1.330000e-06	-2.299798e-06	-1.584159e-09	-1.631284e+01	-1.028508e+02
1.340000e-06	-2.258218e-06	-1.573042e-09	-1.601791e+01	-1.023752e+02
1.350000e-06	-2.216293e-06	-1.564416e-09	-1.572053e+01	-1.018904e+02
1.360000e-06	-2.174101e-06	-1.559208e-09	-1.542125e+01	-1.013961e+02
1.370000e-06	-2.131681e-06	-1.553706e-09	-1.512036e+01	-1.008919e+02
1.380000e-06	-2.089015e-06	-1.545781e-09	-1.481773e+01	-1.003780e+02
1.390000e-06	-2.046078e-06	-1.536709e-09	-1.451316e+01	-9.985438e+01
1.400000e-06	-2.002912e-06	-1.525832e-09	-1.420698e+01	-9.932143e+01
1.410000e-06	-1.959625e-06	-1.513499e-09	-1.389994e+01	-9.877961e+01
1.420000e-06	-1.916212e-06	-1.502109e-09	-1.359201e+01	-9.822946e+01
1.430000e-06	-1.872688e-06	-1.493273e-09	-1.328328e+01	-9.767160e+01
1.440000e-06	-1.829108e-06	-1.488644e-09	-1.297416e+01	-9.710664e+01
1.450000e-06	-1.785465e-06	-1.484285e-09	-1.266460e+01	-9.653514e+01
1.460000e-06	-1.741797e-06	-1.479412e-09	-1.235485e+01	-9.595757e+01
1.470000e-06	-1.698066e-06	-1.472117e-09	-1.204466e+01	-9.537428e+01
1.480000e-06	-1.654186e-06	-1.462562e-09	-1.173341e+01	-9.478543e+01
1.490000e-06	-1.610220e-06	-1.450630e-09	-1.142155e+01	-9.419100e+01
1.500000e-06	-1.566191e-06	-1.438558e-09	-1.110925e+01	-9.359079e+01
1.510000e-06	-1.522109e-06	-1.426404e-09	-1.079657e+01	-9.298436e+01
1.520000e-06	-1.478025e-06	-1.416682e-09	-1.048387e+01	-9.237111e+01
1.530000e-06	-1.433881e-06	-1.406813e-09	-1.017075e+01	-9.175028e+01
1.540000e-06	-1.389626e-06	-1.396846e-09	-9.856842e+00	-9.112096e+01
1.550000e-06	-1.345297e-06	-1.387929e-09	-9.542413e+00	-9.048216e+01
1.560000e-06	-1.300905e-06	-1.380659e-09	-9.227529e+00	-8.983286e+01
1.570000e-06	-1.256389e-06	-1.373190e-09	-8.911772e+00	-8.917203e+01
1.580000e-06	-1.211728e-06	-1.364147e-09	-8.594986e+00	-8.849868e+01
1.590000e-06	-1.166934e-06	-1.350147e-09	-8.277253e+00	-8.781194e+01
1.600000e-06	-1.122013e-06	-1.332899e-09	-7.958618e+00	-8.711105e+01
1.610000e-06	-1.077037e-06	-1.317273e-09	-7.639595e+00	-8.639542e+01
1.620000e-06	-1.032011e-06	-1.305851e-09	-7.320220e+00	-8.566462e+01
1.630000e-06	-9.868837e-07	-1.295206e-09	-7.000126e+00	-8.491841e+01
1.640000e-06	-9.416544e-07	-1.285256e-09	-6.679308e+00	-8.415671e+01
1.650000e-06	-8.963357e-07	-1.275574e-09	-6.357855e+00	-8.337959e+01
1.660000e-06	-8.509667e-07	-1.267313e-09	-6.036046e+00	-8.258724e+01
1.670000e-06	-8.056147e-07	-1.256650e-09	-5.714356e+00	-8.177992e+01
1.680000e-06	-7.601919e-07	-1.242072e-09	-5.392165e+00	-8.095794e+01
1.690000e-06	-7.146423e-07	-1.225259e-09	-5.069074e+00	-8.012160e+01
1.700000e-06	-6.690298e-07	-1.207073e-09	-4.745537e+00	-7.927110e+01
1.710000e-06	-6.234410e-07	-1.189162e-09	-4.422169e+00	-7.840657e+01
1.720000e-06	-5.778884e-07	-1.174453e-09	-4.099056e+00	-7.752796e+01
1.730000e-06	-5.322240e-07	-1.163258e-09	-3.775152e+00	-7.663503e+01
1.740000e-06	-4.865327e-07	-1.152585e-09	-3.451055e+00	-7.572734e+01
1.750000e-06	-4.408703e-07	-1.142712e-09	-3.127164e+00	-7.480422e+01
1.760000e-06	-3.951786e-07	-1.131744e-09	-2.803066e+00	-7.386477e+01
1.770000e-06	-3.494566e-07	-1.117616e-09	-2.478753e+00	-7.290788e+01
1.780000e-06	-3.036303e-07	-1.098552e-09	-2.153699e+00	-7.193225e+01
1.790000e-06	-2.577446e-07	-1.075985e-09	-1.828225e+00	-7.093643e+01
1.800000e-06	-2.118739e-07	-1.053056e-09	-1.502856e+00	-6.991886e+01
1.810000e-06	-1.659986e-07	-1.034331e-09	-1.177455e+00	-6.887790e+01
1.820000e-06	-1.201153e-07	-1.019045e-09	-8.519971e-01	-6.781193e+01
1.830000e-06	-7.420752e-08	-1.006815e-09	-5.263660e-01	-6.671935e+01
1.840000e-06	-2.832073e-08	-9.963901e-10	-2.008836e-01	-6.559867e+01
1.850000e-06	1.747843e-08	-9.863980e-10	1.239773e-01	-6.444852e+01
1.860000e-06	6.329279e-08	-9.717701e-10	4.489460e-01	-6.326773e+01
1.870000e-06	1.091685e-07	-9.503678e-10	7.743496e-01	-6.205532e+01
1.880000e-06	1.549886e-07	-9.257069e-10	1.099359e+00	-6.081052e+01
1.890000e-06	2.007972e-07	-9.014865e-10	1.424287e+00	-5.953277e+01
1.900000e-06	2.466369e-07	-8.767554e-10	1.749436e+00	-5.822176e+01
1.910000e-06	2.924460e-07	-8.540138e-10	2.074367e+00	-5.687733e+01
1.920000e-06	3.382333e-07	-8.367358e-10	2.399144e+00	-5.549949e+01
1.930000e-06	3.840085e-07	-8.214001e-10	2.723835e+00	-5.408838e+01
1.940000e-06	4.297232e-07	-8.014691e-10	3.048097e+00	-5.264423e+01
1.950000e-06	4.753805e-07	-7.767964e-10	3.371951e+00	-5.116727e+01
1.960000e-06	5.209915e-07	-7.502717e-10	3.695477e+00	-4.965775e+01
1.970000e-06	5.665953e-07	-7.248697e-10	4.018953e+00	-4.811584e+01
1.980000e-06	6.122031e-07	-6.984708e-10	4.342456e+00	-4.654166e+01
1.990000e-06	6.577773e-07	-6.711449e-10	4.665722e+00	-4.493516e+01
2.000000e-06	7.032562e-07	-6.444544e-10	4.988311e+00	-4.329619e+01
2.010000e-06	7.486796e-07	-6.178797e-10	5.310506e+00	-4.162443e+01
2.020000e-06	7.940896e-07	-5.929354e-10	5.632607e+00	-3.991944e+01
2.030000e-06	8.395184e-07	-5.690852e-10	5.954841e+00	-3.818063e+01
2.040000e-06	8.849039e-07	-5.439788e-10	6.276767e+00	-3.640731e+01
2.050000e-06	9.301268e-07	-5.164029e-10	6.597541e+00	-3.459870e+01
2.060000e-06	9.752642e-07	-4.878199e-10	6.917707e+00	-3.275402e+01
2.070000e-06	1.020323e-06	-4.570023e-10	7.237315e+00	-3.087245e+01
2.080000e-06	1.065367e-06	-4.247676e-10	7.556819e+00	-2.895326e+01
2.090000e-06	1.110414e-06	-3.933432e-10	7.876350e+00	-2.699580e+01
2.100000e-06	1.155372e-06	-3.634626e-10	8.195241e+00	-2.499954e+01
2.110000e-06	1.200127e-06	-3.328248e-10	8.512696e+00	-2.296415e+01
2.120000e-06	1.244726e-06	-3.016234e-10	8.829043e+00	-2.088949e+01
2.130000e-06	1.289235e-06	-2.709744e-10	9.144751e+00	-1.877564e+01
2.140000e-06	1.333630e-06	-2.398659e-10	9.459657e+00	-1.662289e+01
2.150000e-06	1.377988e-06	-2.069074e-10	9.774296e+00	-1.443181e+01
2.160000e-06	1.422261e-06	-1.734434e-10	1.008833e+01	-1.220316e+01
2.170000e-06	1.466430e-06	-1.403133e-10	1.040163e+01	-9.937916e+00
2.180000e-06	1.510510e-06	-1.058318e-10	1.071430e+01	-7.637271e+00
2.190000e-06	1.554458e-06	-7.040452e-11	1.102602e+01	-5.302570e+00
2.200000e-06	1.598363e-06	-3.563533e-11	1.133745e+01	-2.935309e+00
2.210000e-06	1.642242e-06	-6.734053e-13	1.164869e+01	-5.370983e-01
2.220000e-06	1.686047e-06	3.546184e-11	1.195941e+01	1.890352e+00
2.230000e-06	1.729756e-06	7.335777e-11	1.226944e+01	4.345259e+00
2.240000e-06	1.773394e-06	1.119077e-10	1.257897e+01	6.825776e+00
2.250000e-06	1.817066e-06	1.502417e-10	1.288875e+01	9.330002e+00
2.260000e-06	1.860684e-06	1.877139e-10	1.319814e+01	1.185598e+01
2.270000e-06	1.904142e-06	2.253896e-10	1.350639e+01	1.440170e+01
2.280000e-06	1.947490e-06	2.643252e-10	1.381386e+01	1.696507e+01
2.290000e-06	1.990733e-06	3.041545e-10	1.412059e+01	1.954390e+01
2.300000e-06	2.033827e-06	3.432307e-10	1.442626e+01	2.213591e+01
2.310000e-06	2.076775e-06	3.802887e-10	1.473090e+01	2.473866e+01
2.320000e-06	2.119495e-06	4.172428e-10	1.503392e+01	2.734958e+01
2.330000e-06	2.161973e-06	4.550062e-10	1.533522e+01	2.996591e+01
2.340000e-06	2.204185e-06	4.908162e-10	1.563464e+01	3.258471e+01
2.350000e-06	2.246091e-06	5.254899e-10	1.593189e+01	3.520286e+01
2.360000e-06	2.287695e-06	5.644395e-10	1.622699e+01	3.781702e+01
2.370000e-06	2.328967e-06	6.082408e-10	1.651974e+01	4.042373e+01
2.380000e-06	2.369967e-06	6.506413e-10	1.681056e+01	4.301934e+01
2.390000e-06	2.410655e-06	6.882664e-10	1.709917e+01	4.560012e+01
2.400000e-06	2.451090e-06	7.245265e-10	1.738598e+01	4.816227e+01
2.410000e-06	2.491306e-06	7.609802e-10	1.767124e+01	5.070195e+01
2.420000e-06	2.531358e-06	7.974999e-10	1.795534e+01	5.321540e+01
2.430000e-06	2.571318e-06	8.351553e-10	1.823877e+01	5.569896e+01
2.440000e-06	2.611148e-06	8.741602e-10	1.852130e+01	5.814914e+01
2.450000e-06	2.650908e-06	9.135124e-10	1.880332e+01	6.056268e+01
2.460000e-06	2.690597e-06	9.521897e-10	1.908484e+01	6.293661e+01
2.470000e-06	2.730200e-06	9.872322e-10	1.936575e+01	6.526832e+01
2.480000e-06	2.769658e-06	1.017961e-09	1.964563e+01	6.755554e+01
2.490000e-06	2.808965e-06	1.046572e-09	1.992445e+01	6.979641e+01
2.500000e-06	2.848083e-06	1.077063e-09	2.020191e+01	7.198951e+01
2.510000e-06	2.886968e-06	1.111442e-09	2.047774e+01	7.413380e+01
2.520000e-06	2.925585e-06	1.147869e-09	2.075165e+01	7.622864e+01
2.530000e-06	2.963880e-06	1.184304e-09	2.102328e+01	7.827377e+01
2.540000e-06	3.001975e-06	1.218513e-09	2.129350e+01	8.026925e+01
2.550000e-06	3.039907e-06	1.247635e-09	2.156256e+01	8.221541e+01
2.560000e-06	3.077666e-06	1.272006e-09	2.183039e+01	8.411282e+01
2.570000e-06	3.115287e-06	1.294261e-09	2.209724e+01	8.596219e+01
2.580000e-06	3.152697e-06	1.316735e-09	2.236260e+01	8.776436e+01
2.590000e-06	3.189898e-06	1.341166e-09	2.262646e+01	8.952021e+01
2.600000e-06	3.226922e-06	1.370448e-09	2.288908e+01	9.123062e+01
2.610000e-06	3.263614e-06	1.404168e-09	2.314934e+01	9.289641e+01
2.620000e-06	3.300024e-06	1.435022e-09	2.340761e+01	9.451835e+01
2.630000e-06	3.336280e-06	1.458344e-09	2.366477e+01	9.609709e+01
2.640000e-06	3.372280e-06	1.478341e-09	2.392013e+01	9.763318e+01
2.650000e-06	3.408071e-06	1.499400e-09	2.417400e+01	9.912706e+01
2.660000e-06	3.443780e-06	1.516383e-09	2.442729e+01	1.005791e+02
2.670000e-06	3.479399e-06	1.528497e-09	2.467995e+01	1.019895e+02
2.680000e-06	3.514849e-06	1.543652e-09	2.493140e+01	1.033586e+02
2.690000e-06	3.550104e-06	1.566785e-09	2.518147e+01	1.046865e+02
2.700000e-06	3.585139e-06	1.594524e-09	2.542997e+01	1.059736e+02
2.710000e-06	3.619811e-06	1.618877e-09	2.567591e+01	1.072200e+02
2.720000e-06	3.654037e-06	1.637889e-09	2.591868e+01	1.084263e+02
2.730000e-06	3.687888e-06	1.656349e-09	2.615879e+01	1.095929e+02
2.740000e-06	3.721255e-06	1.675720e-09	2.639546e+01	1.107204e+02
2.750000e-06	3.754112e-06	1.690749e-09	2.662853e+01	1.118097e+02
2.760000e-06	3.786624e-06	1.702032e-09	2.685914e+01	1.128616e+02
2.770000e-06	3.818810e-06	1.715236e-09	2.708744e+01	1.138772e+02
2.780000e-06	3.850759e-06	1.731875e-09	2.731406e+01	1.148575e+02
2.790000e-06	3.882549e-06	1.748024e-09	2.753955e+01	1.158039e+02
2.800000e-06	3.914195e-06	1.757507e-09	2.776402e+01	1.167176e+02
2.810000e-06	3.945630e-06	1.763993e-09	2.798700e+01	1.175997e+02
2.820000e-06	3.976803e-06	1.775614e-09	2.820811e+01	1.184514e+02
2.830000e-06	4.007721e-06	1.790961e-09	2.842742e+01	1.192739e+02
2.840000e-06	4.038372e-06	1.804451e-09	2.864483e+01	1.200681e+02
2.850000e-06	4.068711e-06	1.816270e-09	2.886003e+01	1.208349e+02
2.860000e-06	4.098718e-06	1.829022e-09	2.907287e+01	1.215748e+02
2.870000e-06	4.128498e-06	1.841047e-09	2.928411e+01	1.222884e+02
2.880000e-06	4.158095e-06	1.848728e-09	2.949404e+01	1.229759e+02
2.890000e-06	4.187439e-06	1.851388e-09	2.970218e+01	1.236376e+02
2.900000e-06	4.216478e-06	1.855583e-09	2.990816e+01	1.242734e+02
