# Temperatura_=_-2.16
# Concentracion g/m^3_=_4090.0
# C_Vs_to_Am_M_A/Vsm_=_65563218390.804596
# pendiente_HvsI_1/m_=_3716.3
# ordenada_HvsI_A/m_=_1297.0
# frecuencia_Hz_=_135071.13233233846

Tiempo_(s)	Campo_(V.s)	Magnetizacion_(V.s)	Campo_(kA/m)	Magnetizacion_(A/m)
0.000000e+00	-5.426339e-06	-1.897297e-09	-3.839339e+01	-1.261245e+02
1.000000e-08	-5.426403e-06	-1.888520e-09	-3.839385e+01	-1.260327e+02
2.000000e-08	-5.426294e-06	-1.884033e-09	-3.839307e+01	-1.259236e+02
3.000000e-08	-5.425969e-06	-1.883814e-09	-3.839078e+01	-1.257964e+02
4.000000e-08	-5.425230e-06	-1.886828e-09	-3.838554e+01	-1.256512e+02
5.000000e-08	-5.424016e-06	-1.892933e-09	-3.837696e+01	-1.254891e+02
6.000000e-08	-5.422292e-06	-1.903647e-09	-3.836476e+01	-1.253119e+02
7.000000e-08	-5.419967e-06	-1.903454e-09	-3.834831e+01	-1.251223e+02
8.000000e-08	-5.416999e-06	-1.878894e-09	-3.832731e+01	-1.249238e+02
9.000000e-08	-5.413417e-06	-1.863756e-09	-3.830197e+01	-1.247204e+02
1.000000e-07	-5.409333e-06	-1.893955e-09	-3.827307e+01	-1.245169e+02
1.100000e-07	-5.404987e-06	-1.925185e-09	-3.824232e+01	-1.243184e+02
1.200000e-07	-5.400532e-06	-1.887722e-09	-3.821080e+01	-1.241300e+02
1.300000e-07	-5.395923e-06	-1.862241e-09	-3.817819e+01	-1.239568e+02
1.400000e-07	-5.390931e-06	-1.901343e-09	-3.814287e+01	-1.238038e+02
1.500000e-07	-5.385424e-06	-1.950260e-09	-3.810390e+01	-1.236755e+02
1.600000e-07	-5.379649e-06	-1.897426e-09	-3.806305e+01	-1.235755e+02
1.700000e-07	-5.373556e-06	-1.817292e-09	-3.801993e+01	-1.235068e+02
1.800000e-07	-5.366925e-06	-1.834409e-09	-3.797302e+01	-1.234713e+02
1.900000e-07	-5.359814e-06	-1.900731e-09	-3.792270e+01	-1.234700e+02
2.000000e-07	-5.352447e-06	-1.898211e-09	-3.787058e+01	-1.235023e+02
2.100000e-07	-5.344943e-06	-1.865440e-09	-3.781749e+01	-1.235670e+02
2.200000e-07	-5.337126e-06	-1.895333e-09	-3.776218e+01	-1.236615e+02
2.300000e-07	-5.329015e-06	-1.936099e-09	-3.770479e+01	-1.237820e+02
2.400000e-07	-5.320653e-06	-1.925167e-09	-3.764563e+01	-1.239241e+02
2.500000e-07	-5.311767e-06	-1.920092e-09	-3.758275e+01	-1.240824e+02
2.600000e-07	-5.302073e-06	-1.955109e-09	-3.751417e+01	-1.242512e+02
2.700000e-07	-5.291667e-06	-1.954987e-09	-3.744054e+01	-1.244241e+02
2.800000e-07	-5.280744e-06	-1.935339e-09	-3.736326e+01	-1.245948e+02
2.900000e-07	-5.269333e-06	-1.944133e-09	-3.728252e+01	-1.247572e+02
3.000000e-07	-5.257543e-06	-1.958458e-09	-3.719910e+01	-1.249053e+02
3.100000e-07	-5.245417e-06	-1.935018e-09	-3.711331e+01	-1.250338e+02
3.200000e-07	-5.232882e-06	-1.929060e-09	-3.702462e+01	-1.251380e+02
3.300000e-07	-5.219935e-06	-1.950272e-09	-3.693301e+01	-1.252142e+02
3.400000e-07	-5.206668e-06	-1.957767e-09	-3.683914e+01	-1.252596e+02
3.500000e-07	-5.193032e-06	-1.936847e-09	-3.674266e+01	-1.252723e+02
3.600000e-07	-5.179005e-06	-1.942146e-09	-3.664341e+01	-1.252517e+02
3.700000e-07	-5.164612e-06	-1.944275e-09	-3.654158e+01	-1.251979e+02
3.800000e-07	-5.149698e-06	-1.930348e-09	-3.643605e+01	-1.251122e+02
3.900000e-07	-5.134083e-06	-1.909694e-09	-3.632557e+01	-1.249966e+02
4.000000e-07	-5.117723e-06	-1.914469e-09	-3.620982e+01	-1.248537e+02
4.100000e-07	-5.100937e-06	-1.912588e-09	-3.609106e+01	-1.246869e+02
4.200000e-07	-5.083907e-06	-1.908810e-09	-3.597056e+01	-1.244997e+02
4.300000e-07	-5.066562e-06	-1.916551e-09	-3.584784e+01	-1.242960e+02
4.400000e-07	-5.049011e-06	-1.921692e-09	-3.572366e+01	-1.240794e+02
4.500000e-07	-5.031188e-06	-1.910277e-09	-3.559756e+01	-1.238535e+02
4.600000e-07	-5.013032e-06	-1.896885e-09	-3.546910e+01	-1.236217e+02
4.700000e-07	-4.994567e-06	-1.895184e-09	-3.533845e+01	-1.233867e+02
4.800000e-07	-4.975742e-06	-1.885289e-09	-3.520525e+01	-1.231507e+02
4.900000e-07	-4.956510e-06	-1.872484e-09	-3.506918e+01	-1.229155e+02
5.000000e-07	-4.936909e-06	-1.866215e-09	-3.493049e+01	-1.226821e+02
5.100000e-07	-4.917042e-06	-1.873719e-09	-3.478992e+01	-1.224509e+02
5.200000e-07	-4.896975e-06	-1.873177e-09	-3.464795e+01	-1.222219e+02
5.300000e-07	-4.876705e-06	-1.870834e-09	-3.450453e+01	-1.219944e+02
5.400000e-07	-4.856190e-06	-1.865654e-09	-3.435938e+01	-1.217673e+02
5.500000e-07	-4.835377e-06	-1.865156e-09	-3.421212e+01	-1.215395e+02
5.600000e-07	-4.814102e-06	-1.857328e-09	-3.406159e+01	-1.213095e+02
5.700000e-07	-4.792433e-06	-1.850814e-09	-3.390827e+01	-1.210757e+02
5.800000e-07	-4.770476e-06	-1.837615e-09	-3.375292e+01	-1.208367e+02
5.900000e-07	-4.748225e-06	-1.829296e-09	-3.359548e+01	-1.205914e+02
6.000000e-07	-4.725676e-06	-1.827923e-09	-3.343594e+01	-1.203386e+02
6.100000e-07	-4.702743e-06	-1.832586e-09	-3.327368e+01	-1.200779e+02
6.200000e-07	-4.679466e-06	-1.826671e-09	-3.310899e+01	-1.198090e+02
6.300000e-07	-4.655878e-06	-1.820197e-09	-3.294209e+01	-1.195320e+02
6.400000e-07	-4.631989e-06	-1.821688e-09	-3.277307e+01	-1.192475e+02
6.500000e-07	-4.607936e-06	-1.825807e-09	-3.260288e+01	-1.189565e+02
6.600000e-07	-4.583670e-06	-1.815282e-09	-3.243119e+01	-1.186602e+02
6.700000e-07	-4.559161e-06	-1.802565e-09	-3.225778e+01	-1.183601e+02
6.800000e-07	-4.534275e-06	-1.797329e-09	-3.208170e+01	-1.180579e+02
6.900000e-07	-4.508817e-06	-1.795754e-09	-3.190158e+01	-1.177551e+02
7.000000e-07	-4.482841e-06	-1.789783e-09	-3.171779e+01	-1.174536e+02
7.100000e-07	-4.456339e-06	-1.780502e-09	-3.153028e+01	-1.171548e+02
7.200000e-07	-4.429363e-06	-1.775760e-09	-3.133941e+01	-1.168601e+02
7.300000e-07	-4.401944e-06	-1.779392e-09	-3.114541e+01	-1.165706e+02
7.400000e-07	-4.374200e-06	-1.782281e-09	-3.094911e+01	-1.162869e+02
7.500000e-07	-4.346299e-06	-1.775949e-09	-3.075171e+01	-1.160095e+02
7.600000e-07	-4.318202e-06	-1.770098e-09	-3.055291e+01	-1.157384e+02
7.700000e-07	-4.289937e-06	-1.767581e-09	-3.035292e+01	-1.154732e+02
7.800000e-07	-4.261517e-06	-1.765355e-09	-3.015184e+01	-1.152133e+02
7.900000e-07	-4.232806e-06	-1.756132e-09	-2.994870e+01	-1.149576e+02
8.000000e-07	-4.203702e-06	-1.748390e-09	-2.974278e+01	-1.147050e+02
8.100000e-07	-4.174258e-06	-1.747388e-09	-2.953445e+01	-1.144541e+02
8.200000e-07	-4.144541e-06	-1.750439e-09	-2.932419e+01	-1.142035e+02
8.300000e-07	-4.114540e-06	-1.746582e-09	-2.911192e+01	-1.139518e+02
8.400000e-07	-4.084286e-06	-1.740828e-09	-2.889787e+01	-1.136974e+02
8.500000e-07	-4.053811e-06	-1.737924e-09	-2.868224e+01	-1.134393e+02
8.600000e-07	-4.023115e-06	-1.738318e-09	-2.846505e+01	-1.131763e+02
8.700000e-07	-3.992145e-06	-1.731837e-09	-2.824593e+01	-1.129075e+02
8.800000e-07	-3.960861e-06	-1.724225e-09	-2.802459e+01	-1.126323e+02
8.900000e-07	-3.929317e-06	-1.718439e-09	-2.780140e+01	-1.123504e+02
9.000000e-07	-3.897542e-06	-1.715849e-09	-2.757658e+01	-1.120616e+02
9.100000e-07	-3.865554e-06	-1.710311e-09	-2.735025e+01	-1.117660e+02
9.200000e-07	-3.833414e-06	-1.706021e-09	-2.712285e+01	-1.114638e+02
9.300000e-07	-3.801126e-06	-1.705900e-09	-2.689440e+01	-1.111555e+02
9.400000e-07	-3.768614e-06	-1.710690e-09	-2.666437e+01	-1.108415e+02
9.500000e-07	-3.735843e-06	-1.712583e-09	-2.643250e+01	-1.105224e+02
9.600000e-07	-3.702702e-06	-1.707754e-09	-2.619801e+01	-1.101985e+02
9.700000e-07	-3.669006e-06	-1.697105e-09	-2.595960e+01	-1.098702e+02
9.800000e-07	-3.634761e-06	-1.685102e-09	-2.571731e+01	-1.095380e+02
9.900000e-07	-3.600149e-06	-1.673776e-09	-2.547241e+01	-1.092019e+02
1.000000e-06	-3.565209e-06	-1.664830e-09	-2.522520e+01	-1.088619e+02
1.010000e-06	-3.529910e-06	-1.659566e-09	-2.497544e+01	-1.085180e+02
1.020000e-06	-3.494386e-06	-1.658989e-09	-2.472410e+01	-1.081698e+02
1.030000e-06	-3.458663e-06	-1.660570e-09	-2.447135e+01	-1.078168e+02
1.040000e-06	-3.422753e-06	-1.657967e-09	-2.421727e+01	-1.074588e+02
1.050000e-06	-3.386718e-06	-1.651904e-09	-2.396231e+01	-1.070950e+02
1.060000e-06	-3.350611e-06	-1.642029e-09	-2.370684e+01	-1.067251e+02
1.070000e-06	-3.314350e-06	-1.629969e-09	-2.345028e+01	-1.063485e+02
1.080000e-06	-3.277833e-06	-1.616619e-09	-2.319190e+01	-1.059650e+02
1.090000e-06	-3.241034e-06	-1.607486e-09	-2.293154e+01	-1.055744e+02
1.100000e-06	-3.203901e-06	-1.603012e-09	-2.266881e+01	-1.051766e+02
1.110000e-06	-3.166500e-06	-1.601654e-09	-2.240418e+01	-1.047720e+02
1.120000e-06	-3.128888e-06	-1.597618e-09	-2.213806e+01	-1.043609e+02
1.130000e-06	-3.091041e-06	-1.589142e-09	-2.187028e+01	-1.039441e+02
1.140000e-06	-3.053026e-06	-1.578831e-09	-2.160131e+01	-1.035223e+02
1.150000e-06	-3.014896e-06	-1.571707e-09	-2.133152e+01	-1.030966e+02
1.160000e-06	-2.976624e-06	-1.562020e-09	-2.106073e+01	-1.026681e+02
1.170000e-06	-2.938118e-06	-1.551000e-09	-2.078830e+01	-1.022381e+02
1.180000e-06	-2.899286e-06	-1.541097e-09	-2.051354e+01	-1.018078e+02
1.190000e-06	-2.860265e-06	-1.534074e-09	-2.023745e+01	-1.013784e+02
1.200000e-06	-2.821116e-06	-1.529016e-09	-1.996046e+01	-1.009509e+02
1.210000e-06	-2.781733e-06	-1.523819e-09	-1.968181e+01	-1.005262e+02
1.220000e-06	-2.742140e-06	-1.520214e-09	-1.940167e+01	-1.001051e+02
1.230000e-06	-2.702385e-06	-1.518700e-09	-1.912039e+01	-9.968777e+01
1.240000e-06	-2.662515e-06	-1.514448e-09	-1.883830e+01	-9.927446e+01
1.250000e-06	-2.622565e-06	-1.506948e-09	-1.855564e+01	-9.886493e+01
1.260000e-06	-2.582548e-06	-1.498302e-09	-1.827250e+01	-9.845865e+01
1.270000e-06	-2.542448e-06	-1.488066e-09	-1.798878e+01	-9.805483e+01
1.280000e-06	-2.502264e-06	-1.478780e-09	-1.770446e+01	-9.765238e+01
1.290000e-06	-2.461920e-06	-1.472795e-09	-1.741901e+01	-9.725001e+01
1.300000e-06	-2.421343e-06	-1.469127e-09	-1.713192e+01	-9.684626e+01
1.310000e-06	-2.380551e-06	-1.463629e-09	-1.684329e+01	-9.643956e+01
1.320000e-06	-2.339605e-06	-1.458817e-09	-1.655359e+01	-9.602830e+01
1.330000e-06	-2.298401e-06	-1.454351e-09	-1.626205e+01	-9.561090e+01
1.340000e-06	-2.256794e-06	-1.450006e-09	-1.596767e+01	-9.518585e+01
1.350000e-06	-2.214957e-06	-1.444047e-09	-1.567166e+01	-9.475179e+01
1.360000e-06	-2.172901e-06	-1.434725e-09	-1.537409e+01	-9.430755e+01
1.370000e-06	-2.130582e-06	-1.424893e-09	-1.507467e+01	-9.385218e+01
1.380000e-06	-2.087970e-06	-1.416580e-09	-1.477317e+01	-9.338496e+01
1.390000e-06	-2.045034e-06	-1.409571e-09	-1.446938e+01	-9.290543e+01
1.400000e-06	-2.001801e-06	-1.401802e-09	-1.416349e+01	-9.241337e+01
1.410000e-06	-1.958358e-06	-1.394382e-09	-1.385612e+01	-9.190880e+01
1.420000e-06	-1.914802e-06	-1.388438e-09	-1.354795e+01	-9.139191e+01
1.430000e-06	-1.871149e-06	-1.383856e-09	-1.323908e+01	-9.086306e+01
1.440000e-06	-1.827420e-06	-1.378531e-09	-1.292969e+01	-9.032274e+01
1.450000e-06	-1.783558e-06	-1.369337e-09	-1.261935e+01	-8.977147e+01
1.460000e-06	-1.739618e-06	-1.361202e-09	-1.230845e+01	-8.920981e+01
1.470000e-06	-1.695694e-06	-1.357054e-09	-1.199767e+01	-8.863828e+01
1.480000e-06	-1.651698e-06	-1.352428e-09	-1.168638e+01	-8.805734e+01
1.490000e-06	-1.607616e-06	-1.344562e-09	-1.137449e+01	-8.746734e+01
1.500000e-06	-1.563485e-06	-1.333904e-09	-1.106225e+01	-8.686851e+01
1.510000e-06	-1.519221e-06	-1.323750e-09	-1.074906e+01	-8.626094e+01
1.520000e-06	-1.474867e-06	-1.312922e-09	-1.043524e+01	-8.564461e+01
1.530000e-06	-1.430471e-06	-1.298967e-09	-1.012112e+01	-8.501935e+01
1.540000e-06	-1.386016e-06	-1.284593e-09	-9.806584e+00	-8.438490e+01
1.550000e-06	-1.341503e-06	-1.274191e-09	-9.491637e+00	-8.374094e+01
1.560000e-06	-1.296912e-06	-1.267865e-09	-9.176144e+00	-8.308706e+01
1.570000e-06	-1.252124e-06	-1.262557e-09	-8.859247e+00	-8.242291e+01
1.580000e-06	-1.207196e-06	-1.253597e-09	-8.541364e+00	-8.174811e+01
1.590000e-06	-1.162191e-06	-1.242980e-09	-8.222940e+00	-8.106238e+01
1.600000e-06	-1.117084e-06	-1.233098e-09	-7.903788e+00	-8.036552e+01
1.610000e-06	-1.071939e-06	-1.220155e-09	-7.584371e+00	-7.965741e+01
1.620000e-06	-1.026728e-06	-1.204517e-09	-7.264486e+00	-7.893809e+01
1.630000e-06	-9.814088e-07	-1.189757e-09	-6.943837e+00	-7.820767e+01
1.640000e-06	-9.360495e-07	-1.180837e-09	-6.622903e+00	-7.746641e+01
1.650000e-06	-8.906586e-07	-1.173392e-09	-6.301745e+00	-7.671460e+01
1.660000e-06	-8.452606e-07	-1.161860e-09	-5.980537e+00	-7.595262e+01
1.670000e-06	-7.998250e-07	-1.149589e-09	-5.659064e+00	-7.518083e+01
1.680000e-06	-7.542027e-07	-1.140285e-09	-5.336269e+00	-7.439956e+01
1.690000e-06	-7.084879e-07	-1.128837e-09	-5.012819e+00	-7.360904e+01
1.700000e-06	-6.628012e-07	-1.111491e-09	-4.689569e+00	-7.280940e+01
1.710000e-06	-6.171530e-07	-1.093142e-09	-4.366590e+00	-7.200055e+01
1.720000e-06	-5.714379e-07	-1.080243e-09	-4.043138e+00	-7.118221e+01
1.730000e-06	-5.256335e-07	-1.070494e-09	-3.719055e+00	-7.035384e+01
1.740000e-06	-4.798314e-07	-1.057682e-09	-3.394988e+00	-6.951465e+01
1.750000e-06	-4.339648e-07	-1.044006e-09	-3.070464e+00	-6.866358e+01
1.760000e-06	-3.880054e-07	-1.033904e-09	-2.745285e+00	-6.779930e+01
1.770000e-06	-3.420357e-07	-1.023405e-09	-2.420032e+00	-6.692027e+01
1.780000e-06	-2.961392e-07	-1.006806e-09	-2.095297e+00	-6.602471e+01
1.790000e-06	-2.502481e-07	-9.869945e-10	-1.770600e+00	-6.511073e+01
1.800000e-06	-2.043277e-07	-9.694972e-10	-1.445695e+00	-6.417632e+01
1.810000e-06	-1.583946e-07	-9.533528e-10	-1.120701e+00	-6.321942e+01
1.820000e-06	-1.123571e-07	-9.355085e-10	-7.949689e-01	-6.223801e+01
1.830000e-06	-6.637262e-08	-9.171017e-10	-4.696113e-01	-6.123019e+01
1.840000e-06	-2.041618e-08	-9.021607e-10	-1.444522e-01	-6.019415e+01
1.850000e-06	2.561412e-08	-8.908357e-10	1.812295e-01	-5.912835e+01
1.860000e-06	7.157615e-08	-8.777596e-10	5.064283e-01	-5.803146e+01
1.870000e-06	1.175210e-07	-8.613222e-10	8.315053e-01	-5.690243e+01
1.880000e-06	1.635096e-07	-8.440482e-10	1.156892e+00	-5.574054e+01
1.890000e-06	2.095419e-07	-8.247227e-10	1.482588e+00	-5.454533e+01
1.900000e-06	2.555896e-07	-8.002745e-10	1.808393e+00	-5.331667e+01
1.910000e-06	3.016119e-07	-7.742961e-10	2.134018e+00	-5.205466e+01
1.920000e-06	3.476041e-07	-7.511952e-10	2.459430e+00	-5.075964e+01
1.930000e-06	3.935406e-07	-7.328893e-10	2.784448e+00	-4.943213e+01
1.940000e-06	4.394918e-07	-7.154846e-10	3.109570e+00	-4.807276e+01
1.950000e-06	4.854170e-07	-6.961374e-10	3.434508e+00	-4.668224e+01
1.960000e-06	5.312168e-07	-6.772569e-10	3.758559e+00	-4.526127e+01
1.970000e-06	5.769408e-07	-6.582292e-10	4.082074e+00	-4.381048e+01
1.980000e-06	6.226326e-07	-6.354083e-10	4.405360e+00	-4.233042e+01
1.990000e-06	6.683185e-07	-6.079026e-10	4.728605e+00	-4.082147e+01
2.000000e-06	7.138569e-07	-5.800968e-10	5.050806e+00	-3.928382e+01
2.010000e-06	7.592923e-07	-5.553979e-10	5.372280e+00	-3.771748e+01
2.020000e-06	8.048058e-07	-5.327588e-10	5.694305e+00	-3.612225e+01
2.030000e-06	8.502740e-07	-5.066216e-10	6.016009e+00	-3.449770e+01
2.040000e-06	8.957018e-07	-4.785282e-10	6.337428e+00	-3.284327e+01
2.050000e-06	9.410996e-07	-4.552545e-10	6.658635e+00	-3.115824e+01
2.060000e-06	9.863863e-07	-4.336190e-10	6.979055e+00	-2.944178e+01
2.070000e-06	1.031574e-06	-4.077912e-10	7.298777e+00	-2.769304e+01
2.080000e-06	1.076618e-06	-3.783564e-10	7.617480e+00	-2.591116e+01
2.090000e-06	1.121556e-06	-3.507144e-10	7.935433e+00	-2.409538e+01
2.100000e-06	1.166434e-06	-3.249762e-10	8.252959e+00	-2.224503e+01
2.110000e-06	1.211271e-06	-2.950772e-10	8.570199e+00	-2.035963e+01
2.120000e-06	1.256077e-06	-2.612649e-10	8.887216e+00	-1.843893e+01
2.130000e-06	1.300727e-06	-2.306317e-10	9.203132e+00	-1.648291e+01
2.140000e-06	1.345232e-06	-2.049902e-10	9.518023e+00	-1.449183e+01
2.150000e-06	1.389687e-06	-1.797256e-10	9.832560e+00	-1.246622e+01
2.160000e-06	1.434049e-06	-1.524560e-10	1.014643e+01	-1.040692e+01
2.170000e-06	1.478313e-06	-1.223534e-10	1.045962e+01	-8.315008e+00
2.180000e-06	1.522554e-06	-8.938713e-11	1.077265e+01	-6.191800e+00
2.190000e-06	1.566737e-06	-5.402219e-11	1.108526e+01	-4.038831e+00
2.200000e-06	1.610834e-06	-1.703847e-11	1.139726e+01	-1.857799e+00
2.210000e-06	1.654879e-06	1.838188e-11	1.170889e+01	3.494733e-01
2.220000e-06	1.698852e-06	5.082345e-11	1.202002e+01	2.581078e+00
2.230000e-06	1.742771e-06	8.278423e-11	1.233076e+01	4.835067e+00
2.240000e-06	1.786634e-06	1.171481e-10	1.264111e+01	7.109485e+00
2.250000e-06	1.830372e-06	1.511616e-10	1.295057e+01	9.402397e+00
2.260000e-06	1.873978e-06	1.835215e-10	1.325910e+01	1.171191e+01
2.270000e-06	1.917496e-06	2.186401e-10	1.356701e+01	1.403620e+01
2.280000e-06	1.960953e-06	2.566517e-10	1.387448e+01	1.637347e+01
2.290000e-06	2.004315e-06	2.961952e-10	1.418129e+01	1.872199e+01
2.300000e-06	2.047501e-06	3.335317e-10	1.448684e+01	2.108006e+01
2.310000e-06	2.090452e-06	3.677856e-10	1.479074e+01	2.344596e+01
2.320000e-06	2.133115e-06	4.039800e-10	1.509259e+01	2.581797e+01
2.330000e-06	2.175483e-06	4.428034e-10	1.539236e+01	2.819430e+01
2.340000e-06	2.217528e-06	4.773386e-10	1.568985e+01	3.057307e+01
2.350000e-06	2.259294e-06	5.063917e-10	1.598535e+01	3.295229e+01
2.360000e-06	2.300840e-06	5.376284e-10	1.627931e+01	3.532981e+01
2.370000e-06	2.342097e-06	5.780809e-10	1.657122e+01	3.770333e+01
2.380000e-06	2.383056e-06	6.223676e-10	1.686102e+01	4.007036e+01
2.390000e-06	2.423775e-06	6.607349e-10	1.714912e+01	4.242826e+01
2.400000e-06	2.464294e-06	6.941454e-10	1.743581e+01	4.477423e+01
2.410000e-06	2.504625e-06	7.275553e-10	1.772117e+01	4.710534e+01
2.420000e-06	2.544832e-06	7.632885e-10	1.800565e+01	4.941854e+01
2.430000e-06	2.584909e-06	7.982975e-10	1.828921e+01	5.171076e+01
2.440000e-06	2.624863e-06	8.308838e-10	1.857189e+01	5.397890e+01
2.450000e-06	2.664760e-06	8.639135e-10	1.885419e+01	5.621993e+01
2.460000e-06	2.704554e-06	9.000536e-10	1.913574e+01	5.843090e+01
2.470000e-06	2.744163e-06	9.354963e-10	1.941599e+01	6.060905e+01
2.480000e-06	2.783595e-06	9.671185e-10	1.969499e+01	6.275182e+01
2.490000e-06	2.822856e-06	9.966255e-10	1.997277e+01	6.485694e+01
2.500000e-06	2.861920e-06	1.028233e-09	2.024916e+01	6.692240e+01
2.510000e-06	2.900763e-06	1.063141e-09	2.052399e+01	6.894657e+01
2.520000e-06	2.939327e-06	1.099158e-09	2.079685e+01	7.092812e+01
2.530000e-06	2.977683e-06	1.133602e-09	2.106823e+01	7.286611e+01
2.540000e-06	3.015834e-06	1.164505e-09	2.133816e+01	7.475991e+01
2.550000e-06	3.053818e-06	1.190515e-09	2.160691e+01	7.660924e+01
2.560000e-06	3.091710e-06	1.211894e-09	2.187502e+01	7.841410e+01
2.570000e-06	3.129426e-06	1.233277e-09	2.214187e+01	8.017475e+01
2.580000e-06	3.166969e-06	1.257248e-09	2.240750e+01	8.189166e+01
2.590000e-06	3.204310e-06	1.283568e-09	2.267170e+01	8.356547e+01
2.600000e-06	3.241313e-06	1.313756e-09	2.293351e+01	8.519691e+01
2.610000e-06	3.278054e-06	1.345988e-09	2.319347e+01	8.678678e+01
2.620000e-06	3.314622e-06	1.374679e-09	2.345220e+01	8.833591e+01
2.630000e-06	3.350975e-06	1.396488e-09	2.370941e+01	8.984508e+01
2.640000e-06	3.387145e-06	1.413249e-09	2.396533e+01	9.131504e+01
2.650000e-06	3.423149e-06	1.429956e-09	2.422007e+01	9.274642e+01
2.660000e-06	3.459047e-06	1.447115e-09	2.447406e+01	9.413979e+01
2.670000e-06	3.494827e-06	1.463611e-09	2.472722e+01	9.549559e+01
2.680000e-06	3.530359e-06	1.482087e-09	2.497862e+01	9.681416e+01
2.690000e-06	3.565586e-06	1.504808e-09	2.522787e+01	9.809576e+01
2.700000e-06	3.600558e-06	1.530822e-09	2.547531e+01	9.934057e+01
2.710000e-06	3.635224e-06	1.554517e-09	2.572058e+01	1.005487e+02
2.720000e-06	3.669432e-06	1.569606e-09	2.596261e+01	1.017203e+02
2.730000e-06	3.703097e-06	1.579840e-09	2.620081e+01	1.028555e+02
2.740000e-06	3.736273e-06	1.591175e-09	2.643554e+01	1.039543e+02
2.750000e-06	3.769108e-06	1.604385e-09	2.666786e+01	1.050169e+02
2.760000e-06	3.801679e-06	1.617034e-09	2.689831e+01	1.060436e+02
2.770000e-06	3.833986e-06	1.631996e-09	2.712690e+01	1.070347e+02
2.780000e-06	3.866098e-06	1.653400e-09	2.735410e+01	1.079906e+02
2.790000e-06	3.898091e-06	1.674066e-09	2.758046e+01	1.089118e+02
2.800000e-06	3.929922e-06	1.684949e-09	2.780568e+01	1.097989e+02
2.810000e-06	3.961511e-06	1.687242e-09	2.802919e+01	1.106524e+02
2.820000e-06	3.992778e-06	1.690624e-09	2.825041e+01	1.114732e+02
2.830000e-06	4.023691e-06	1.701213e-09	2.846913e+01	1.122620e+02
2.840000e-06	4.054308e-06	1.714082e-09	2.868576e+01	1.130197e+02
2.850000e-06	4.084664e-06	1.724693e-09	2.890054e+01	1.137469e+02
2.860000e-06	4.114789e-06	1.735650e-09	2.911368e+01	1.144445e+02
2.870000e-06	4.144690e-06	1.747921e-09	2.932524e+01	1.151134e+02
2.880000e-06	4.174290e-06	1.757355e-09	2.953467e+01	1.157543e+02
2.890000e-06	4.203574e-06	1.760087e-09	2.974187e+01	1.163680e+02
2.900000e-06	4.232544e-06	1.760918e-09	2.994685e+01	1.169552e+02
