# Temperatura_=_19.9
# Concentracion g/m^3_=_4090.0
# C_Vs_to_Am_M_A/Vsm_=_65563218390.804596
# pendiente_HvsI_1/m_=_3716.3
# ordenada_HvsI_A/m_=_1297.0
# frecuencia_Hz_=_135082.71814482185

Tiempo_(s)	Campo_(V.s)	Magnetizacion_(V.s)	Campo_(kA/m)	Magnetizacion_(A/m)
0.000000e+00	-5.407479e-06	-1.243364e-09	-3.838471e+01	-8.585746e+01
1.000000e-08	-5.407452e-06	-1.237904e-09	-3.838452e+01	-8.569619e+01
2.000000e-08	-5.407240e-06	-1.235437e-09	-3.838301e+01	-8.551851e+01
3.000000e-08	-5.406837e-06	-1.233065e-09	-3.838015e+01	-8.532545e+01
4.000000e-08	-5.406096e-06	-1.231830e-09	-3.837489e+01	-8.511877e+01
5.000000e-08	-5.404769e-06	-1.229869e-09	-3.836547e+01	-8.490088e+01
6.000000e-08	-5.402778e-06	-1.230110e-09	-3.835134e+01	-8.467482e+01
7.000000e-08	-5.400127e-06	-1.251785e-09	-3.833252e+01	-8.444417e+01
8.000000e-08	-5.396889e-06	-1.259269e-09	-3.830954e+01	-8.421295e+01
9.000000e-08	-5.393101e-06	-1.210587e-09	-3.828264e+01	-8.398547e+01
1.000000e-07	-5.388852e-06	-1.194564e-09	-3.825249e+01	-8.376620e+01
1.100000e-07	-5.384469e-06	-1.276055e-09	-3.822137e+01	-8.355960e+01
1.200000e-07	-5.379970e-06	-1.262117e-09	-3.818944e+01	-8.336994e+01
1.300000e-07	-5.375119e-06	-1.175791e-09	-3.815500e+01	-8.320113e+01
1.400000e-07	-5.369844e-06	-1.162112e-09	-3.811756e+01	-8.305659e+01
1.500000e-07	-5.364173e-06	-1.299658e-09	-3.807730e+01	-8.293908e+01
1.600000e-07	-5.358204e-06	-1.300992e-09	-3.803493e+01	-8.285060e+01
1.700000e-07	-5.351802e-06	-1.145792e-09	-3.798948e+01	-8.279229e+01
1.800000e-07	-5.344964e-06	-1.146887e-09	-3.794095e+01	-8.276436e+01
1.900000e-07	-5.337884e-06	-1.281551e-09	-3.789069e+01	-8.276608e+01
2.000000e-07	-5.330516e-06	-1.290657e-09	-3.783839e+01	-8.279582e+01
2.100000e-07	-5.322842e-06	-1.164873e-09	-3.778391e+01	-8.285105e+01
2.200000e-07	-5.314927e-06	-1.220019e-09	-3.772773e+01	-8.292845e+01
2.300000e-07	-5.306707e-06	-1.324954e-09	-3.766938e+01	-8.302405e+01
2.400000e-07	-5.297968e-06	-1.287184e-09	-3.760735e+01	-8.313335e+01
2.500000e-07	-5.288600e-06	-1.223804e-09	-3.754085e+01	-8.325146e+01
2.600000e-07	-5.278696e-06	-1.332295e-09	-3.747054e+01	-8.337332e+01
2.700000e-07	-5.268248e-06	-1.382348e-09	-3.739639e+01	-8.349387e+01
2.800000e-07	-5.257204e-06	-1.278005e-09	-3.731799e+01	-8.360819e+01
2.900000e-07	-5.245642e-06	-1.262407e-09	-3.723591e+01	-8.371173e+01
3.000000e-07	-5.233707e-06	-1.372771e-09	-3.715120e+01	-8.380039e+01
3.100000e-07	-5.221409e-06	-1.342809e-09	-3.706390e+01	-8.387071e+01
3.200000e-07	-5.208733e-06	-1.262299e-09	-3.697392e+01	-8.391992e+01
3.300000e-07	-5.195632e-06	-1.321709e-09	-3.688092e+01	-8.394604e+01
3.400000e-07	-5.182099e-06	-1.374324e-09	-3.678486e+01	-8.394789e+01
3.500000e-07	-5.168241e-06	-1.301817e-09	-3.668649e+01	-8.392509e+01
3.600000e-07	-5.154121e-06	-1.292405e-09	-3.658626e+01	-8.387802e+01
3.700000e-07	-5.139579e-06	-1.333434e-09	-3.648303e+01	-8.380776e+01
3.800000e-07	-5.124488e-06	-1.286213e-09	-3.637591e+01	-8.371598e+01
3.900000e-07	-5.108813e-06	-1.263221e-09	-3.626464e+01	-8.360486e+01
4.000000e-07	-5.092510e-06	-1.324332e-09	-3.614892e+01	-8.347691e+01
4.100000e-07	-5.075844e-06	-1.316643e-09	-3.603061e+01	-8.333485e+01
4.200000e-07	-5.058796e-06	-1.262769e-09	-3.590960e+01	-8.318150e+01
4.300000e-07	-5.041427e-06	-1.313602e-09	-3.578630e+01	-8.301959e+01
4.400000e-07	-5.023868e-06	-1.346337e-09	-3.566167e+01	-8.285168e+01
4.500000e-07	-5.006019e-06	-1.282522e-09	-3.553497e+01	-8.268002e+01
4.600000e-07	-4.987817e-06	-1.253603e-09	-3.540576e+01	-8.250651e+01
4.700000e-07	-4.969204e-06	-1.297266e-09	-3.527363e+01	-8.233260e+01
4.800000e-07	-4.950244e-06	-1.285388e-09	-3.513905e+01	-8.215925e+01
4.900000e-07	-4.930918e-06	-1.263776e-09	-3.500187e+01	-8.198697e+01
5.000000e-07	-4.911260e-06	-1.271832e-09	-3.486232e+01	-8.181581e+01
5.100000e-07	-4.891395e-06	-1.277194e-09	-3.472131e+01	-8.164540e+01
5.200000e-07	-4.871331e-06	-1.269740e-09	-3.457889e+01	-8.147504e+01
5.300000e-07	-4.850957e-06	-1.281140e-09	-3.443426e+01	-8.130376e+01
5.400000e-07	-4.830185e-06	-1.263672e-09	-3.428681e+01	-8.113039e+01
5.500000e-07	-4.809071e-06	-1.245648e-09	-3.413694e+01	-8.095373e+01
5.600000e-07	-4.787674e-06	-1.258070e-09	-3.398505e+01	-8.077256e+01
5.700000e-07	-4.766048e-06	-1.267005e-09	-3.383154e+01	-8.058580e+01
5.800000e-07	-4.744091e-06	-1.237190e-09	-3.367568e+01	-8.039253e+01
5.900000e-07	-4.721789e-06	-1.222585e-09	-3.351738e+01	-8.019212e+01
6.000000e-07	-4.699208e-06	-1.234430e-09	-3.335708e+01	-7.998422e+01
6.100000e-07	-4.676269e-06	-1.247128e-09	-3.319425e+01	-7.976882e+01
6.200000e-07	-4.652916e-06	-1.238552e-09	-3.302848e+01	-7.954624e+01
6.300000e-07	-4.629284e-06	-1.226666e-09	-3.286073e+01	-7.931714e+01
6.400000e-07	-4.605477e-06	-1.232471e-09	-3.269174e+01	-7.908243e+01
6.500000e-07	-4.581478e-06	-1.244366e-09	-3.252138e+01	-7.884331e+01
6.600000e-07	-4.557306e-06	-1.231739e-09	-3.234980e+01	-7.860112e+01
6.700000e-07	-4.532789e-06	-1.207136e-09	-3.217577e+01	-7.835730e+01
6.800000e-07	-4.507750e-06	-1.200829e-09	-3.199803e+01	-7.811334e+01
6.900000e-07	-4.482207e-06	-1.207039e-09	-3.181671e+01	-7.787064e+01
7.000000e-07	-4.456108e-06	-1.207575e-09	-3.163145e+01	-7.763048e+01
7.100000e-07	-4.429512e-06	-1.197894e-09	-3.144266e+01	-7.739397e+01
7.200000e-07	-4.402576e-06	-1.196506e-09	-3.125146e+01	-7.716191e+01
7.300000e-07	-4.375242e-06	-1.206864e-09	-3.105743e+01	-7.693487e+01
7.400000e-07	-4.347601e-06	-1.213890e-09	-3.086122e+01	-7.671307e+01
7.500000e-07	-4.319721e-06	-1.196186e-09	-3.066331e+01	-7.649640e+01
7.600000e-07	-4.291639e-06	-1.180288e-09	-3.046397e+01	-7.628446e+01
7.700000e-07	-4.263394e-06	-1.179388e-09	-3.026348e+01	-7.607656e+01
7.800000e-07	-4.234895e-06	-1.183588e-09	-3.006118e+01	-7.587178e+01
7.900000e-07	-4.206104e-06	-1.176988e-09	-2.985681e+01	-7.566900e+01
8.000000e-07	-4.176959e-06	-1.172366e-09	-2.964993e+01	-7.546699e+01
8.100000e-07	-4.147488e-06	-1.172708e-09	-2.944072e+01	-7.526445e+01
8.200000e-07	-4.117783e-06	-1.178571e-09	-2.922987e+01	-7.506013e+01
8.300000e-07	-4.087822e-06	-1.172520e-09	-2.901719e+01	-7.485282e+01
8.400000e-07	-4.057628e-06	-1.160799e-09	-2.880286e+01	-7.464148e+01
8.500000e-07	-4.027190e-06	-1.154549e-09	-2.858680e+01	-7.442524e+01
8.600000e-07	-3.996480e-06	-1.159103e-09	-2.836880e+01	-7.420348e+01
8.700000e-07	-3.965467e-06	-1.159630e-09	-2.814866e+01	-7.397582e+01
8.800000e-07	-3.934106e-06	-1.152217e-09	-2.792605e+01	-7.374213e+01
8.900000e-07	-3.902428e-06	-1.144188e-09	-2.770118e+01	-7.350256e+01
9.000000e-07	-3.870609e-06	-1.143954e-09	-2.747531e+01	-7.325747e+01
9.100000e-07	-3.838659e-06	-1.142944e-09	-2.724852e+01	-7.300745e+01
9.200000e-07	-3.806546e-06	-1.137697e-09	-2.702057e+01	-7.275322e+01
9.300000e-07	-3.774208e-06	-1.133500e-09	-2.679102e+01	-7.249562e+01
9.400000e-07	-3.741616e-06	-1.136926e-09	-2.655967e+01	-7.223553e+01
9.500000e-07	-3.708773e-06	-1.141678e-09	-2.632653e+01	-7.197385e+01
9.600000e-07	-3.675506e-06	-1.138424e-09	-2.609039e+01	-7.171140e+01
9.700000e-07	-3.641779e-06	-1.126198e-09	-2.585098e+01	-7.144889e+01
9.800000e-07	-3.607621e-06	-1.114800e-09	-2.560851e+01	-7.118688e+01
9.900000e-07	-3.573036e-06	-1.106970e-09	-2.536301e+01	-7.092573e+01
1.000000e-06	-3.538018e-06	-1.101434e-09	-2.511444e+01	-7.066563e+01
1.010000e-06	-3.502702e-06	-1.100853e-09	-2.486374e+01	-7.040653e+01
1.020000e-06	-3.467133e-06	-1.103759e-09	-2.461126e+01	-7.014816e+01
1.030000e-06	-3.431314e-06	-1.108945e-09	-2.435700e+01	-6.989008e+01
1.040000e-06	-3.395368e-06	-1.108668e-09	-2.410184e+01	-6.963167e+01
1.050000e-06	-3.359320e-06	-1.101599e-09	-2.384595e+01	-6.937219e+01
1.060000e-06	-3.323079e-06	-1.088237e-09	-2.358871e+01	-6.911081e+01
1.070000e-06	-3.286682e-06	-1.076268e-09	-2.333034e+01	-6.884667e+01
1.080000e-06	-3.250157e-06	-1.067174e-09	-2.307107e+01	-6.857891e+01
1.090000e-06	-3.213383e-06	-1.064092e-09	-2.281003e+01	-6.830673e+01
1.100000e-06	-3.176259e-06	-1.064138e-09	-2.254651e+01	-6.802944e+01
1.110000e-06	-3.138885e-06	-1.064591e-09	-2.228121e+01	-6.774650e+01
1.120000e-06	-3.101284e-06	-1.061906e-09	-2.201430e+01	-6.745752e+01
1.130000e-06	-3.063429e-06	-1.055473e-09	-2.174559e+01	-6.716231e+01
1.140000e-06	-3.025443e-06	-1.045241e-09	-2.147595e+01	-6.686089e+01
1.150000e-06	-2.987340e-06	-1.037715e-09	-2.120547e+01	-6.655346e+01
1.160000e-06	-2.949061e-06	-1.029913e-09	-2.093376e+01	-6.624042e+01
1.170000e-06	-2.910571e-06	-1.022343e-09	-2.066054e+01	-6.592233e+01
1.180000e-06	-2.871907e-06	-1.014864e-09	-2.038608e+01	-6.559988e+01
1.190000e-06	-2.832993e-06	-1.007715e-09	-2.010985e+01	-6.527386e+01
1.200000e-06	-2.793658e-06	-1.001637e-09	-1.983064e+01	-6.494513e+01
1.210000e-06	-2.754087e-06	-9.988834e-10	-1.954974e+01	-6.461455e+01
1.220000e-06	-2.714424e-06	-9.964185e-10	-1.926820e+01	-6.428296e+01
1.230000e-06	-2.674667e-06	-9.942128e-10	-1.898598e+01	-6.395112e+01
1.240000e-06	-2.634770e-06	-9.903041e-10	-1.870277e+01	-6.361971e+01
1.250000e-06	-2.594760e-06	-9.835616e-10	-1.841877e+01	-6.328924e+01
1.260000e-06	-2.554719e-06	-9.760701e-10	-1.813454e+01	-6.296008e+01
1.270000e-06	-2.514562e-06	-9.668179e-10	-1.784948e+01	-6.263244e+01
1.280000e-06	-2.474282e-06	-9.579611e-10	-1.756356e+01	-6.230632e+01
1.290000e-06	-2.433964e-06	-9.527792e-10	-1.727736e+01	-6.198155e+01
1.300000e-06	-2.393593e-06	-9.503685e-10	-1.699079e+01	-6.165780e+01
1.310000e-06	-2.352994e-06	-9.470210e-10	-1.670261e+01	-6.133456e+01
1.320000e-06	-2.312118e-06	-9.437739e-10	-1.641245e+01	-6.101121e+01
1.330000e-06	-2.270940e-06	-9.393003e-10	-1.612015e+01	-6.068701e+01
1.340000e-06	-2.229501e-06	-9.364548e-10	-1.582600e+01	-6.036112e+01
1.350000e-06	-2.187826e-06	-9.341109e-10	-1.553017e+01	-6.003270e+01
1.360000e-06	-2.145955e-06	-9.272591e-10	-1.523295e+01	-5.970083e+01
1.370000e-06	-2.103825e-06	-9.150501e-10	-1.493389e+01	-5.936464e+01
1.380000e-06	-2.061328e-06	-9.054262e-10	-1.463223e+01	-5.902327e+01
1.390000e-06	-2.018546e-06	-9.018060e-10	-1.432854e+01	-5.867592e+01
1.400000e-06	-1.975640e-06	-8.992398e-10	-1.402398e+01	-5.832187e+01
1.410000e-06	-1.932554e-06	-8.919968e-10	-1.371813e+01	-5.796045e+01
1.420000e-06	-1.889149e-06	-8.868082e-10	-1.341003e+01	-5.759113e+01
1.430000e-06	-1.845601e-06	-8.866283e-10	-1.310091e+01	-5.721343e+01
1.440000e-06	-1.801934e-06	-8.854602e-10	-1.279094e+01	-5.682700e+01
1.450000e-06	-1.758200e-06	-8.772580e-10	-1.248049e+01	-5.643155e+01
1.460000e-06	-1.714437e-06	-8.670863e-10	-1.216984e+01	-5.602689e+01
1.470000e-06	-1.670557e-06	-8.617828e-10	-1.185836e+01	-5.561291e+01
1.480000e-06	-1.626550e-06	-8.598749e-10	-1.154598e+01	-5.518957e+01
1.490000e-06	-1.582440e-06	-8.569914e-10	-1.123287e+01	-5.475688e+01
1.500000e-06	-1.538296e-06	-8.529904e-10	-1.091951e+01	-5.431490e+01
1.510000e-06	-1.494124e-06	-8.503683e-10	-1.060596e+01	-5.386374e+01
1.520000e-06	-1.449862e-06	-8.442643e-10	-1.029177e+01	-5.340354e+01
1.530000e-06	-1.405546e-06	-8.309665e-10	-9.977195e+00	-5.293446e+01
1.540000e-06	-1.361174e-06	-8.147504e-10	-9.662221e+00	-5.245669e+01
1.550000e-06	-1.316679e-06	-8.022500e-10	-9.346379e+00	-5.197044e+01
1.560000e-06	-1.272097e-06	-7.967280e-10	-9.029914e+00	-5.147593e+01
1.570000e-06	-1.227480e-06	-7.942693e-10	-8.713205e+00	-5.097336e+01
1.580000e-06	-1.182770e-06	-7.889886e-10	-8.395829e+00	-5.046296e+01
1.590000e-06	-1.137987e-06	-7.821290e-10	-8.077939e+00	-4.994493e+01
1.600000e-06	-1.093110e-06	-7.741553e-10	-7.759383e+00	-4.941947e+01
1.610000e-06	-1.048162e-06	-7.629573e-10	-7.440323e+00	-4.888671e+01
1.620000e-06	-1.003231e-06	-7.487443e-10	-7.121381e+00	-4.834679e+01
1.630000e-06	-9.582380e-07	-7.351163e-10	-6.802003e+00	-4.779976e+01
1.640000e-06	-9.130444e-07	-7.270294e-10	-6.481198e+00	-4.724560e+01
1.650000e-06	-8.676357e-07	-7.229767e-10	-6.158867e+00	-4.668422e+01
1.660000e-06	-8.221136e-07	-7.164689e-10	-5.835731e+00	-4.611541e+01
1.670000e-06	-7.765978e-07	-7.092829e-10	-5.512639e+00	-4.553885e+01
1.680000e-06	-7.310702e-07	-7.017171e-10	-5.189463e+00	-4.495411e+01
1.690000e-06	-6.854574e-07	-6.915279e-10	-4.865684e+00	-4.436060e+01
1.700000e-06	-6.398346e-07	-6.792670e-10	-4.541833e+00	-4.375758e+01
1.710000e-06	-5.941690e-07	-6.680728e-10	-4.217678e+00	-4.314419e+01
1.720000e-06	-5.485077e-07	-6.603849e-10	-3.893553e+00	-4.251940e+01
1.730000e-06	-5.028224e-07	-6.545979e-10	-3.569258e+00	-4.188205e+01
1.740000e-06	-4.570188e-07	-6.453020e-10	-3.244124e+00	-4.123088e+01
1.750000e-06	-4.111695e-07	-6.338687e-10	-2.918666e+00	-4.056448e+01
1.760000e-06	-3.652961e-07	-6.209870e-10	-2.593035e+00	-3.988138e+01
1.770000e-06	-3.194029e-07	-6.041635e-10	-2.267265e+00	-3.918005e+01
1.780000e-06	-2.736403e-07	-5.880296e-10	-1.942422e+00	-3.845892e+01
1.790000e-06	-2.279498e-07	-5.758031e-10	-1.618090e+00	-3.771641e+01
1.800000e-06	-1.821648e-07	-5.657681e-10	-1.293087e+00	-3.695098e+01
1.810000e-06	-1.363601e-07	-5.547561e-10	-9.679451e-01	-3.616114e+01
1.820000e-06	-9.055099e-08	-5.415612e-10	-6.427715e-01	-3.534550e+01
1.830000e-06	-4.466294e-08	-5.265568e-10	-3.170375e-01	-3.450276e+01
1.840000e-06	1.209931e-09	-5.102344e-10	8.588630e-03	-3.363176e+01
1.850000e-06	4.702129e-08	-4.935633e-10	3.337781e-01	-3.273149e+01
1.860000e-06	9.284327e-08	-4.779810e-10	6.590431e-01	-3.180109e+01
1.870000e-06	1.386518e-07	-4.658449e-10	9.842122e-01	-3.083989e+01
1.880000e-06	1.844429e-07	-4.562468e-10	1.309258e+00	-2.984736e+01
1.890000e-06	2.303011e-07	-4.433057e-10	1.634780e+00	-2.882314e+01
1.900000e-06	2.761850e-07	-4.232273e-10	1.960485e+00	-2.776701e+01
1.910000e-06	3.219988e-07	-4.004000e-10	2.285692e+00	-2.667893e+01
1.920000e-06	3.677636e-07	-3.809067e-10	2.610551e+00	-2.555893e+01
1.930000e-06	4.135449e-07	-3.623586e-10	2.935527e+00	-2.440717e+01
1.940000e-06	4.593823e-07	-3.415518e-10	3.260902e+00	-2.322391e+01
1.950000e-06	5.052150e-07	-3.219859e-10	3.586242e+00	-2.200946e+01
1.960000e-06	5.509552e-07	-3.068787e-10	3.910926e+00	-2.076420e+01
1.970000e-06	5.965834e-07	-2.894414e-10	4.234816e+00	-1.948853e+01
1.980000e-06	6.421309e-07	-2.664683e-10	4.558133e+00	-1.818290e+01
1.990000e-06	6.876109e-07	-2.397174e-10	4.880970e+00	-1.684778e+01
2.000000e-06	7.331090e-07	-2.142934e-10	5.203936e+00	-1.548365e+01
2.010000e-06	7.785963e-07	-1.941578e-10	5.526825e+00	-1.409102e+01
2.020000e-06	8.240207e-07	-1.741581e-10	5.849268e+00	-1.267044e+01
2.030000e-06	8.693391e-07	-1.517247e-10	6.170958e+00	-1.122246e+01
2.040000e-06	9.145255e-07	-1.290382e-10	6.491712e+00	-9.747706e+00
2.050000e-06	9.596050e-07	-1.076667e-10	6.811706e+00	-8.246841e+00
2.060000e-06	1.004649e-06	-8.381320e-11	7.131447e+00	-6.720600e+00
2.070000e-06	1.049693e-06	-5.802111e-11	7.451193e+00	-5.169795e+00
2.080000e-06	1.094603e-06	-3.345052e-11	7.769983e+00	-3.595326e+00
2.090000e-06	1.139394e-06	-9.759032e-12	8.087929e+00	-1.998189e+00
2.100000e-06	1.184135e-06	1.547812e-11	8.405519e+00	-3.794807e-01
2.110000e-06	1.228741e-06	4.287227e-11	8.722153e+00	1.259595e+00
2.120000e-06	1.273251e-06	6.787521e-11	9.038102e+00	2.917732e+00
2.130000e-06	1.317700e-06	8.780571e-11	9.353624e+00	4.593523e+00
2.140000e-06	1.362046e-06	1.072458e-10	9.668410e+00	6.285465e+00
2.150000e-06	1.406340e-06	1.302610e-10	9.982834e+00	7.991972e+00
2.160000e-06	1.450598e-06	1.572741e-10	1.029700e+01	9.711381e+00
2.170000e-06	1.494824e-06	1.850495e-10	1.061093e+01	1.144197e+01
2.180000e-06	1.539013e-06	2.108936e-10	1.092461e+01	1.318195e+01
2.190000e-06	1.583120e-06	2.370952e-10	1.123769e+01	1.492951e+01
2.200000e-06	1.627123e-06	2.635294e-10	1.155005e+01	1.668281e+01
2.210000e-06	1.671096e-06	2.869204e-10	1.186219e+01	1.843997e+01
2.220000e-06	1.714989e-06	3.087828e-10	1.217376e+01	2.019912e+01
2.230000e-06	1.758801e-06	3.340383e-10	1.248476e+01	2.195838e+01
2.240000e-06	1.802532e-06	3.637696e-10	1.279518e+01	2.371583e+01
2.250000e-06	1.846208e-06	3.932504e-10	1.310521e+01	2.546960e+01
2.260000e-06	1.889785e-06	4.194831e-10	1.341454e+01	2.721776e+01
2.270000e-06	1.933168e-06	4.462088e-10	1.372249e+01	2.895840e+01
2.280000e-06	1.976384e-06	4.739816e-10	1.402926e+01	3.068960e+01
2.290000e-06	2.019282e-06	5.000148e-10	1.433377e+01	3.240943e+01
2.300000e-06	2.061878e-06	5.199930e-10	1.463613e+01	3.411592e+01
2.310000e-06	2.104297e-06	5.401078e-10	1.493724e+01	3.580712e+01
2.320000e-06	2.146501e-06	5.669566e-10	1.523683e+01	3.748107e+01
2.330000e-06	2.188379e-06	5.952107e-10	1.553409e+01	3.913581e+01
2.340000e-06	2.230011e-06	6.182763e-10	1.582962e+01	4.076938e+01
2.350000e-06	2.271369e-06	6.387959e-10	1.612319e+01	4.237988e+01
2.360000e-06	2.312382e-06	6.628175e-10	1.641432e+01	4.396543e+01
2.370000e-06	2.353239e-06	6.895891e-10	1.670435e+01	4.552426e+01
2.380000e-06	2.393936e-06	7.134495e-10	1.699323e+01	4.705467e+01
2.390000e-06	2.434454e-06	7.342946e-10	1.728085e+01	4.855509e+01
2.400000e-06	2.474841e-06	7.555328e-10	1.756753e+01	5.002411e+01
2.410000e-06	2.515105e-06	7.779270e-10	1.785334e+01	5.146047e+01
2.420000e-06	2.555236e-06	8.010355e-10	1.813821e+01	5.286313e+01
2.430000e-06	2.595224e-06	8.244398e-10	1.842206e+01	5.423125e+01
2.440000e-06	2.635138e-06	8.468362e-10	1.870539e+01	5.556421e+01
2.450000e-06	2.675017e-06	8.688016e-10	1.898847e+01	5.686163e+01
2.460000e-06	2.714796e-06	8.903504e-10	1.927084e+01	5.812336e+01
2.470000e-06	2.754355e-06	9.065985e-10	1.955164e+01	5.934946e+01
2.480000e-06	2.793669e-06	9.230609e-10	1.983072e+01	6.054021e+01
2.490000e-06	2.832738e-06	9.416942e-10	2.010804e+01	6.169608e+01
2.500000e-06	2.871540e-06	9.631846e-10	2.038348e+01	6.281768e+01
2.510000e-06	2.910159e-06	9.856851e-10	2.065761e+01	6.390576e+01
2.520000e-06	2.948571e-06	1.006095e-09	2.093028e+01	6.496116e+01
2.530000e-06	2.986756e-06	1.025750e-09	2.120133e+01	6.598479e+01
2.540000e-06	3.024733e-06	1.037841e-09	2.147091e+01	6.697754e+01
2.550000e-06	3.062562e-06	1.044927e-09	2.173944e+01	6.794033e+01
2.560000e-06	3.100261e-06	1.052530e-09	2.200704e+01	6.887400e+01
2.570000e-06	3.137681e-06	1.063954e-09	2.227267e+01	6.977933e+01
2.580000e-06	3.174844e-06	1.079869e-09	2.253647e+01	7.065699e+01
2.590000e-06	3.211833e-06	1.098262e-09	2.279903e+01	7.150757e+01
2.600000e-06	3.248565e-06	1.119246e-09	2.305977e+01	7.233152e+01
2.610000e-06	3.285080e-06	1.139389e-09	2.331897e+01	7.312919e+01
2.620000e-06	3.321445e-06	1.152079e-09	2.357711e+01	7.390085e+01
2.630000e-06	3.357663e-06	1.154643e-09	2.383420e+01	7.464666e+01
2.640000e-06	3.393751e-06	1.153257e-09	2.409037e+01	7.536674e+01
2.650000e-06	3.429677e-06	1.155857e-09	2.434538e+01	7.606117e+01
2.660000e-06	3.465450e-06	1.162258e-09	2.459932e+01	7.673004e+01
2.670000e-06	3.501018e-06	1.172108e-09	2.485179e+01	7.737346e+01
2.680000e-06	3.536257e-06	1.186836e-09	2.510193e+01	7.799159e+01
2.690000e-06	3.571110e-06	1.204446e-09	2.534934e+01	7.858469e+01
2.700000e-06	3.605575e-06	1.217965e-09	2.559399e+01	7.915311e+01
2.710000e-06	3.639537e-06	1.224305e-09	2.583506e+01	7.969730e+01
2.720000e-06	3.673051e-06	1.226590e-09	2.607296e+01	8.021785e+01
2.730000e-06	3.706225e-06	1.230782e-09	2.630844e+01	8.071546e+01
2.740000e-06	3.739029e-06	1.236558e-09	2.654131e+01	8.119095e+01
2.750000e-06	3.771536e-06	1.240556e-09	2.677205e+01	8.164520e+01
2.760000e-06	3.803849e-06	1.244998e-09	2.700142e+01	8.207920e+01
2.770000e-06	3.836019e-06	1.252327e-09	2.722978e+01	8.249393e+01
2.780000e-06	3.868059e-06	1.261499e-09	2.745722e+01	8.289042e+01
2.790000e-06	3.899901e-06	1.266171e-09	2.768324e+01	8.326964e+01
2.800000e-06	3.931438e-06	1.265324e-09	2.790711e+01	8.363250e+01
2.810000e-06	3.962711e-06	1.265013e-09	2.812910e+01	8.397981e+01
2.820000e-06	3.993666e-06	1.269208e-09	2.834883e+01	8.431227e+01
2.830000e-06	4.024273e-06	1.273817e-09	2.856609e+01	8.463044e+01
2.840000e-06	4.054660e-06	1.276333e-09	2.878179e+01	8.493469e+01
2.850000e-06	4.084840e-06	1.277931e-09	2.899602e+01	8.522527e+01
2.860000e-06	4.114761e-06	1.282261e-09	2.920842e+01	8.550224e+01
2.870000e-06	4.144475e-06	1.288048e-09	2.941934e+01	8.576555e+01
2.880000e-06	4.173917e-06	1.291289e-09	2.962833e+01	8.601501e+01
2.890000e-06	4.203039e-06	1.290335e-09	2.983505e+01	8.625035e+01
2.900000e-06	4.231874e-06	1.291897e-09	3.003974e+01	8.647124e+01
