# Temperatura_=_15.08
# Concentracion g/m^3_=_4090.0
# C_Vs_to_Am_M_A/Vsm_=_65563218390.804596
# pendiente_HvsI_1/m_=_3716.3
# ordenada_HvsI_A/m_=_1297.0
# frecuencia_Hz_=_135084.97621502224

Tiempo_(s)	Campo_(V.s)	Magnetizacion_(V.s)	Campo_(kA/m)	Magnetizacion_(A/m)
0.000000e+00	-5.409306e-06	-1.222176e-09	-3.838282e+01	-8.490869e+01
1.000000e-08	-5.409524e-06	-1.215989e-09	-3.838436e+01	-8.480788e+01
2.000000e-08	-5.409436e-06	-1.212241e-09	-3.838374e+01	-8.469268e+01
3.000000e-08	-5.409130e-06	-1.208821e-09	-3.838157e+01	-8.456149e+01
4.000000e-08	-5.408512e-06	-1.204982e-09	-3.837719e+01	-8.441341e+01
5.000000e-08	-5.407581e-06	-1.208830e-09	-3.837058e+01	-8.424841e+01
6.000000e-08	-5.406147e-06	-1.226873e-09	-3.836041e+01	-8.406738e+01
7.000000e-08	-5.403952e-06	-1.239246e-09	-3.834483e+01	-8.387213e+01
8.000000e-08	-5.401051e-06	-1.220153e-09	-3.832425e+01	-8.366544e+01
9.000000e-08	-5.397603e-06	-1.161644e-09	-3.829978e+01	-8.345092e+01
1.000000e-07	-5.393707e-06	-1.155127e-09	-3.827214e+01	-8.323294e+01
1.100000e-07	-5.389477e-06	-1.205495e-09	-3.824212e+01	-8.301648e+01
1.200000e-07	-5.385035e-06	-1.235022e-09	-3.821060e+01	-8.280693e+01
1.300000e-07	-5.380401e-06	-1.198643e-09	-3.817772e+01	-8.260985e+01
1.400000e-07	-5.375455e-06	-1.175032e-09	-3.814262e+01	-8.243078e+01
1.500000e-07	-5.370029e-06	-1.223527e-09	-3.810412e+01	-8.227495e+01
1.600000e-07	-5.364185e-06	-1.285814e-09	-3.806265e+01	-8.214708e+01
1.700000e-07	-5.358069e-06	-1.202192e-09	-3.801926e+01	-8.205111e+01
1.800000e-07	-5.351510e-06	-1.159221e-09	-3.797271e+01	-8.199005e+01
1.900000e-07	-5.344482e-06	-1.147728e-09	-3.792285e+01	-8.196580e+01
2.000000e-07	-5.337275e-06	-1.242229e-09	-3.787171e+01	-8.197900e+01
2.100000e-07	-5.329874e-06	-1.241489e-09	-3.781919e+01	-8.202904e+01
2.200000e-07	-5.322190e-06	-1.252041e-09	-3.776467e+01	-8.211397e+01
2.300000e-07	-5.314134e-06	-1.251560e-09	-3.770751e+01	-8.223061e+01
2.400000e-07	-5.305737e-06	-1.280276e-09	-3.764792e+01	-8.237463e+01
2.500000e-07	-5.296825e-06	-1.288361e-09	-3.758468e+01	-8.254067e+01
2.600000e-07	-5.287333e-06	-1.292670e-09	-3.751733e+01	-8.272261e+01
2.700000e-07	-5.277307e-06	-1.303942e-09	-3.744619e+01	-8.291372e+01
2.800000e-07	-5.266724e-06	-1.311529e-09	-3.737110e+01	-8.310698e+01
2.900000e-07	-5.255618e-06	-1.318665e-09	-3.729229e+01	-8.329531e+01
3.000000e-07	-5.244016e-06	-1.312439e-09	-3.720997e+01	-8.347186e+01
3.100000e-07	-5.232093e-06	-1.336654e-09	-3.712537e+01	-8.363024e+01
3.200000e-07	-5.219833e-06	-1.310912e-09	-3.703837e+01	-8.376480e+01
3.300000e-07	-5.207162e-06	-1.312567e-09	-3.694847e+01	-8.387078e+01
3.400000e-07	-5.194121e-06	-1.292548e-09	-3.685593e+01	-8.394449e+01
3.500000e-07	-5.180759e-06	-1.338954e-09	-3.676111e+01	-8.398343e+01
3.600000e-07	-5.166976e-06	-1.340729e-09	-3.666332e+01	-8.398632e+01
3.700000e-07	-5.152720e-06	-1.347903e-09	-3.656216e+01	-8.395308e+01
3.800000e-07	-5.137973e-06	-1.311842e-09	-3.645752e+01	-8.388485e+01
3.900000e-07	-5.122657e-06	-1.333019e-09	-3.634884e+01	-8.378378e+01
4.000000e-07	-5.106795e-06	-1.319846e-09	-3.623629e+01	-8.365297e+01
4.100000e-07	-5.090427e-06	-1.310128e-09	-3.612015e+01	-8.349623e+01
4.200000e-07	-5.073642e-06	-1.286195e-09	-3.600105e+01	-8.331789e+01
4.300000e-07	-5.056596e-06	-1.314860e-09	-3.588010e+01	-8.312257e+01
4.400000e-07	-5.039224e-06	-1.324005e-09	-3.575683e+01	-8.291498e+01
4.500000e-07	-5.021524e-06	-1.339803e-09	-3.563123e+01	-8.269963e+01
4.600000e-07	-5.003576e-06	-1.316908e-09	-3.550388e+01	-8.248070e+01
4.700000e-07	-4.985323e-06	-1.307424e-09	-3.537436e+01	-8.226183e+01
4.800000e-07	-4.966601e-06	-1.299134e-09	-3.524152e+01	-8.204600e+01
4.900000e-07	-4.947420e-06	-1.303584e-09	-3.510541e+01	-8.183541e+01
5.000000e-07	-4.927933e-06	-1.280086e-09	-3.496714e+01	-8.163146e+01
5.100000e-07	-4.908246e-06	-1.269107e-09	-3.482745e+01	-8.143472e+01
5.200000e-07	-4.888359e-06	-1.285595e-09	-3.468633e+01	-8.124498e+01
5.300000e-07	-4.868181e-06	-1.305205e-09	-3.454315e+01	-8.106134e+01
5.400000e-07	-4.847722e-06	-1.297192e-09	-3.439799e+01	-8.088230e+01
5.500000e-07	-4.826958e-06	-1.280017e-09	-3.425065e+01	-8.070594e+01
5.600000e-07	-4.805790e-06	-1.280763e-09	-3.410045e+01	-8.053003e+01
5.700000e-07	-4.784206e-06	-1.284729e-09	-3.394729e+01	-8.035224e+01
5.800000e-07	-4.762309e-06	-1.279701e-09	-3.379192e+01	-8.017030e+01
5.900000e-07	-4.740161e-06	-1.253976e-09	-3.363477e+01	-7.998214e+01
6.000000e-07	-4.717782e-06	-1.251272e-09	-3.347597e+01	-7.978606e+01
6.100000e-07	-4.695163e-06	-1.261329e-09	-3.331548e+01	-7.958080e+01
6.200000e-07	-4.672158e-06	-1.271921e-09	-3.315224e+01	-7.936569e+01
6.300000e-07	-4.648713e-06	-1.250103e-09	-3.298588e+01	-7.914060e+01
6.400000e-07	-4.624883e-06	-1.245233e-09	-3.281679e+01	-7.890604e+01
6.500000e-07	-4.600836e-06	-1.244506e-09	-3.264616e+01	-7.866308e+01
6.600000e-07	-4.576704e-06	-1.254366e-09	-3.247492e+01	-7.841330e+01
6.700000e-07	-4.552384e-06	-1.238675e-09	-3.230235e+01	-7.815869e+01
6.800000e-07	-4.527699e-06	-1.226782e-09	-3.212720e+01	-7.790156e+01
6.900000e-07	-4.502597e-06	-1.216233e-09	-3.194908e+01	-7.764436e+01
7.000000e-07	-4.477004e-06	-1.228898e-09	-3.176748e+01	-7.738960e+01
7.100000e-07	-4.450862e-06	-1.219995e-09	-3.158199e+01	-7.713963e+01
7.200000e-07	-4.424235e-06	-1.214071e-09	-3.139305e+01	-7.689657e+01
7.300000e-07	-4.397123e-06	-1.210148e-09	-3.120067e+01	-7.666216e+01
7.400000e-07	-4.369645e-06	-1.221347e-09	-3.100569e+01	-7.643767e+01
7.500000e-07	-4.341885e-06	-1.212863e-09	-3.080872e+01	-7.622382e+01
7.600000e-07	-4.313928e-06	-1.205000e-09	-3.061034e+01	-7.602072e+01
7.700000e-07	-4.285835e-06	-1.196417e-09	-3.041100e+01	-7.582792e+01
7.800000e-07	-4.257582e-06	-1.202593e-09	-3.021053e+01	-7.564436e+01
7.900000e-07	-4.229006e-06	-1.201341e-09	-3.000776e+01	-7.546848e+01
8.000000e-07	-4.200101e-06	-1.192269e-09	-2.980266e+01	-7.529826e+01
8.100000e-07	-4.170870e-06	-1.181209e-09	-2.959525e+01	-7.513137e+01
8.200000e-07	-4.141291e-06	-1.182212e-09	-2.938536e+01	-7.496524e+01
8.300000e-07	-4.111446e-06	-1.184437e-09	-2.917360e+01	-7.479720e+01
8.400000e-07	-4.081367e-06	-1.180791e-09	-2.896016e+01	-7.462466e+01
8.500000e-07	-4.051033e-06	-1.177421e-09	-2.874492e+01	-7.444517e+01
8.600000e-07	-4.020452e-06	-1.176664e-09	-2.852793e+01	-7.425656e+01
8.700000e-07	-3.989621e-06	-1.178987e-09	-2.830916e+01	-7.405707e+01
8.800000e-07	-3.958465e-06	-1.171451e-09	-2.808809e+01	-7.384539e+01
8.900000e-07	-3.927051e-06	-1.161453e-09	-2.786518e+01	-7.362071e+01
9.000000e-07	-3.895356e-06	-1.149713e-09	-2.764028e+01	-7.338277e+01
9.100000e-07	-3.863507e-06	-1.147769e-09	-2.741429e+01	-7.313183e+01
9.200000e-07	-3.831570e-06	-1.144182e-09	-2.718767e+01	-7.286866e+01
9.300000e-07	-3.799402e-06	-1.145066e-09	-2.695942e+01	-7.259446e+01
9.400000e-07	-3.766902e-06	-1.143629e-09	-2.672881e+01	-7.231082e+01
9.500000e-07	-3.734076e-06	-1.148883e-09	-2.649589e+01	-7.201959e+01
9.600000e-07	-3.700938e-06	-1.147715e-09	-2.626075e+01	-7.172280e+01
9.700000e-07	-3.667483e-06	-1.143346e-09	-2.602336e+01	-7.142255e+01
9.800000e-07	-3.633726e-06	-1.128893e-09	-2.578383e+01	-7.112089e+01
9.900000e-07	-3.599549e-06	-1.121831e-09	-2.554132e+01	-7.081976e+01
1.000000e-06	-3.564902e-06	-1.112426e-09	-2.529548e+01	-7.052085e+01
1.010000e-06	-3.529864e-06	-1.109195e-09	-2.504686e+01	-7.022559e+01
1.020000e-06	-3.494553e-06	-1.105105e-09	-2.479631e+01	-6.993504e+01
1.030000e-06	-3.458996e-06	-1.108025e-09	-2.454400e+01	-6.964993e+01
1.040000e-06	-3.423243e-06	-1.108793e-09	-2.429031e+01	-6.937057e+01
1.050000e-06	-3.387325e-06	-1.107576e-09	-2.403545e+01	-6.909694e+01
1.060000e-06	-3.351230e-06	-1.097058e-09	-2.377933e+01	-6.882867e+01
1.070000e-06	-3.314992e-06	-1.086589e-09	-2.352219e+01	-6.856512e+01
1.080000e-06	-3.278528e-06	-1.076411e-09	-2.326346e+01	-6.830542e+01
1.090000e-06	-3.241796e-06	-1.070814e-09	-2.300282e+01	-6.804857e+01
1.100000e-06	-3.204774e-06	-1.067984e-09	-2.274012e+01	-6.779349e+01
1.110000e-06	-3.167560e-06	-1.067810e-09	-2.247606e+01	-6.753907e+01
1.120000e-06	-3.130176e-06	-1.066131e-09	-2.221079e+01	-6.728430e+01
1.130000e-06	-3.092508e-06	-1.063525e-09	-2.194351e+01	-6.702829e+01
1.140000e-06	-3.054663e-06	-1.057241e-09	-2.167498e+01	-6.677030e+01
1.150000e-06	-3.016637e-06	-1.048562e-09	-2.140516e+01	-6.650981e+01
1.160000e-06	-2.978385e-06	-1.040882e-09	-2.113373e+01	-6.624652e+01
1.170000e-06	-2.939920e-06	-1.035500e-09	-2.086079e+01	-6.598036e+01
1.180000e-06	-2.901205e-06	-1.033504e-09	-2.058608e+01	-6.571143e+01
1.190000e-06	-2.862359e-06	-1.027505e-09	-2.031044e+01	-6.544004e+01
1.200000e-06	-2.823396e-06	-1.023768e-09	-2.003397e+01	-6.516663e+01
1.210000e-06	-2.784151e-06	-1.021938e-09	-1.975551e+01	-6.489173e+01
1.220000e-06	-2.744688e-06	-1.023960e-09	-1.947549e+01	-6.461590e+01
1.230000e-06	-2.705066e-06	-1.020125e-09	-1.919434e+01	-6.433967e+01
1.240000e-06	-2.665237e-06	-1.012479e-09	-1.891172e+01	-6.406352e+01
1.250000e-06	-2.625243e-06	-1.001817e-09	-1.862794e+01	-6.378780e+01
1.260000e-06	-2.585212e-06	-9.970500e-10	-1.834389e+01	-6.351270e+01
1.270000e-06	-2.545183e-06	-9.934900e-10	-1.805986e+01	-6.323823e+01
1.280000e-06	-2.505062e-06	-9.899237e-10	-1.777517e+01	-6.296420e+01
1.290000e-06	-2.464779e-06	-9.850646e-10	-1.748933e+01	-6.269020e+01
1.300000e-06	-2.424293e-06	-9.832269e-10	-1.720206e+01	-6.241564e+01
1.310000e-06	-2.383671e-06	-9.787868e-10	-1.691382e+01	-6.213975e+01
1.320000e-06	-2.342835e-06	-9.707060e-10	-1.662405e+01	-6.186160e+01
1.330000e-06	-2.301843e-06	-9.589351e-10	-1.633319e+01	-6.158018e+01
1.340000e-06	-2.260596e-06	-9.538958e-10	-1.604051e+01	-6.129438e+01
1.350000e-06	-2.218949e-06	-9.551053e-10	-1.574500e+01	-6.100312e+01
1.360000e-06	-2.177186e-06	-9.569982e-10	-1.544866e+01	-6.070532e+01
1.370000e-06	-2.135201e-06	-9.504696e-10	-1.515075e+01	-6.039999e+01
1.380000e-06	-2.092941e-06	-9.415943e-10	-1.485088e+01	-6.008624e+01
1.390000e-06	-2.050468e-06	-9.339134e-10	-1.454951e+01	-5.976334e+01
1.400000e-06	-2.007601e-06	-9.258868e-10	-1.424533e+01	-5.943073e+01
1.410000e-06	-1.964410e-06	-9.149983e-10	-1.393887e+01	-5.908802e+01
1.420000e-06	-1.921097e-06	-9.074338e-10	-1.363153e+01	-5.873502e+01
1.430000e-06	-1.877676e-06	-9.084125e-10	-1.332343e+01	-5.837171e+01
1.440000e-06	-1.834139e-06	-9.137547e-10	-1.301450e+01	-5.799823e+01
1.450000e-06	-1.790494e-06	-9.134271e-10	-1.270481e+01	-5.761488e+01
1.460000e-06	-1.746680e-06	-9.046161e-10	-1.239392e+01	-5.722205e+01
1.470000e-06	-1.702751e-06	-8.953660e-10	-1.208221e+01	-5.682023e+01
1.480000e-06	-1.658780e-06	-8.873032e-10	-1.177021e+01	-5.640996e+01
1.490000e-06	-1.614754e-06	-8.772316e-10	-1.145781e+01	-5.599180e+01
1.500000e-06	-1.570712e-06	-8.664760e-10	-1.114530e+01	-5.556630e+01
1.510000e-06	-1.526624e-06	-8.640638e-10	-1.083247e+01	-5.513399e+01
1.520000e-06	-1.482351e-06	-8.686601e-10	-1.051832e+01	-5.469533e+01
1.530000e-06	-1.437996e-06	-8.689994e-10	-1.020359e+01	-5.425072e+01
1.540000e-06	-1.393649e-06	-8.577631e-10	-9.888919e+00	-5.380048e+01
1.550000e-06	-1.349228e-06	-8.447897e-10	-9.573717e+00	-5.334487e+01
1.560000e-06	-1.304765e-06	-8.335207e-10	-9.258222e+00	-5.288406e+01
1.570000e-06	-1.260247e-06	-8.232379e-10	-8.942334e+00	-5.241816e+01
1.580000e-06	-1.215616e-06	-8.129587e-10	-8.625647e+00	-5.194721e+01
1.590000e-06	-1.170874e-06	-8.080740e-10	-8.308171e+00	-5.147121e+01
1.600000e-06	-1.126091e-06	-8.084003e-10	-7.990405e+00	-5.099011e+01
1.610000e-06	-1.081247e-06	-8.079458e-10	-7.672202e+00	-5.050382e+01
1.620000e-06	-1.036228e-06	-7.978469e-10	-7.352767e+00	-5.001224e+01
1.630000e-06	-9.910853e-07	-7.830233e-10	-7.032445e+00	-4.951520e+01
1.640000e-06	-9.458813e-07	-7.705079e-10	-6.711691e+00	-4.901253e+01
1.650000e-06	-9.006086e-07	-7.629269e-10	-6.390450e+00	-4.850399e+01
1.660000e-06	-8.553050e-07	-7.562057e-10	-6.068988e+00	-4.798929e+01
1.670000e-06	-8.100247e-07	-7.512754e-10	-5.747693e+00	-4.746805e+01
1.680000e-06	-7.647185e-07	-7.478103e-10	-5.426214e+00	-4.693982e+01
1.690000e-06	-7.192539e-07	-7.442888e-10	-5.103611e+00	-4.640401e+01
1.700000e-06	-6.736485e-07	-7.338327e-10	-4.780008e+00	-4.585992e+01
1.710000e-06	-6.280755e-07	-7.183403e-10	-4.456636e+00	-4.530670e+01
1.720000e-06	-5.824900e-07	-7.055989e-10	-4.133175e+00	-4.474336e+01
1.730000e-06	-5.367860e-07	-6.989313e-10	-3.808873e+00	-4.416873e+01
1.740000e-06	-4.910081e-07	-6.934688e-10	-3.484047e+00	-4.358150e+01
1.750000e-06	-4.450973e-07	-6.859401e-10	-3.158277e+00	-4.298024e+01
1.760000e-06	-3.991499e-07	-6.788295e-10	-2.832248e+00	-4.236337e+01
1.770000e-06	-3.532608e-07	-6.712720e-10	-2.506633e+00	-4.172924e+01
1.780000e-06	-3.073629e-07	-6.601862e-10	-2.180955e+00	-4.107612e+01
1.790000e-06	-2.615462e-07	-6.448927e-10	-1.855854e+00	-4.040228e+01
1.800000e-06	-2.157421e-07	-6.283654e-10	-1.530841e+00	-3.970599e+01
1.810000e-06	-1.699059e-07	-6.134838e-10	-1.205602e+00	-3.898561e+01
1.820000e-06	-1.240990e-07	-6.015789e-10	-8.805695e-01	-3.823960e+01
1.830000e-06	-7.825370e-08	-5.918591e-10	-5.552649e-01	-3.746657e+01
1.840000e-06	-3.236222e-08	-5.813559e-10	-2.296326e-01	-3.666532e+01
1.850000e-06	1.356298e-08	-5.710376e-10	9.623886e-02	-3.583484e+01
1.860000e-06	5.946386e-08	-5.597278e-10	4.219378e-01	-3.497439e+01
1.870000e-06	1.053188e-07	-5.441650e-10	7.473104e-01	-3.408344e+01
1.880000e-06	1.511533e-07	-5.302224e-10	1.072539e+00	-3.316171e+01
1.890000e-06	1.969857e-07	-5.189043e-10	1.397752e+00	-3.220914e+01
1.900000e-06	2.428137e-07	-5.065812e-10	1.722934e+00	-3.122588e+01
1.910000e-06	2.886397e-07	-4.887564e-10	2.048101e+00	-3.021223e+01
1.920000e-06	3.345235e-07	-4.711460e-10	2.373679e+00	-2.916865e+01
1.930000e-06	3.803992e-07	-4.521707e-10	2.699199e+00	-2.809567e+01
1.940000e-06	4.261176e-07	-4.299108e-10	3.023603e+00	-2.699388e+01
1.950000e-06	4.718398e-07	-4.035659e-10	3.348034e+00	-2.586386e+01
1.960000e-06	5.176243e-07	-3.832850e-10	3.672907e+00	-2.470614e+01
1.970000e-06	5.633479e-07	-3.725130e-10	3.997348e+00	-2.352120e+01
1.980000e-06	6.090122e-07	-3.651059e-10	4.321369e+00	-2.230941e+01
1.990000e-06	6.546003e-07	-3.510751e-10	4.644848e+00	-2.107100e+01
2.000000e-06	7.001554e-07	-3.304590e-10	4.968094e+00	-1.980610e+01
2.010000e-06	7.456082e-07	-3.071003e-10	5.290613e+00	-1.851471e+01
2.020000e-06	7.909736e-07	-2.836534e-10	5.612512e+00	-1.719672e+01
2.030000e-06	8.362301e-07	-2.562378e-10	5.933639e+00	-1.585194e+01
2.040000e-06	8.813979e-07	-2.266331e-10	6.254136e+00	-1.448015e+01
2.050000e-06	9.265261e-07	-2.050765e-10	6.574352e+00	-1.308111e+01
2.060000e-06	9.715776e-07	-1.930569e-10	6.894024e+00	-1.165462e+01
2.070000e-06	1.016617e-06	-1.801617e-10	7.213612e+00	-1.020058e+01
2.080000e-06	1.061570e-06	-1.568699e-10	7.532582e+00	-8.719022e+00
2.090000e-06	1.106377e-06	-1.272784e-10	7.850524e+00	-7.210136e+00
2.100000e-06	1.151156e-06	-1.003354e-10	8.168259e+00	-5.674330e+00
2.110000e-06	1.195852e-06	-7.559066e-11	8.485409e+00	-4.112244e+00
2.120000e-06	1.240452e-06	-4.676990e-11	8.801878e+00	-2.524758e+00
2.130000e-06	1.285002e-06	-1.861541e-11	9.117989e+00	-9.130027e-01
2.140000e-06	1.329413e-06	1.619382e-12	9.433121e+00	7.216524e-01
2.150000e-06	1.373737e-06	1.846917e-11	9.747630e+00	2.377620e+00
2.160000e-06	1.418027e-06	4.212557e-11	1.006190e+01	4.053122e+00
2.170000e-06	1.462320e-06	6.988055e-11	1.037618e+01	5.746232e+00
2.180000e-06	1.506585e-06	9.751287e-11	1.069028e+01	7.454913e+00
2.190000e-06	1.550753e-06	1.208138e-10	1.100368e+01	9.177067e+00
2.200000e-06	1.594876e-06	1.452624e-10	1.131676e+01	1.091058e+01
2.210000e-06	1.638935e-06	1.724063e-10	1.162939e+01	1.265338e+01
2.220000e-06	1.682932e-06	1.967626e-10	1.194158e+01	1.440342e+01
2.230000e-06	1.726937e-06	2.185184e-10	1.225383e+01	1.615880e+01
2.240000e-06	1.770814e-06	2.459179e-10	1.256517e+01	1.791770e+01
2.250000e-06	1.814515e-06	2.806087e-10	1.287526e+01	1.967843e+01
2.260000e-06	1.858133e-06	3.165600e-10	1.318476e+01	2.143942e+01
2.270000e-06	1.901540e-06	3.463158e-10	1.349276e+01	2.319920e+01
2.280000e-06	1.944802e-06	3.699827e-10	1.379973e+01	2.495636e+01
2.290000e-06	1.988040e-06	3.929702e-10	1.410653e+01	2.670957e+01
2.300000e-06	2.031102e-06	4.161076e-10	1.441209e+01	2.845748e+01
2.310000e-06	2.073868e-06	4.358211e-10	1.471555e+01	3.019869e+01
2.320000e-06	2.116240e-06	4.575280e-10	1.501621e+01	3.193174e+01
2.330000e-06	2.158354e-06	4.877887e-10	1.531503e+01	3.365502e+01
2.340000e-06	2.200372e-06	5.221937e-10	1.561318e+01	3.536680e+01
2.350000e-06	2.242008e-06	5.518290e-10	1.590862e+01	3.706512e+01
2.360000e-06	2.283256e-06	5.750626e-10	1.620130e+01	3.874788e+01
2.370000e-06	2.324345e-06	5.969657e-10	1.649286e+01	4.041275e+01
2.380000e-06	2.365135e-06	6.192415e-10	1.678229e+01	4.205724e+01
2.390000e-06	2.405670e-06	6.412196e-10	1.706992e+01	4.367874e+01
2.400000e-06	2.446111e-06	6.629506e-10	1.735687e+01	4.527452e+01
2.410000e-06	2.486442e-06	6.860294e-10	1.764305e+01	4.684181e+01
2.420000e-06	2.526677e-06	7.119887e-10	1.792854e+01	4.837789e+01
2.430000e-06	2.566747e-06	7.418300e-10	1.821287e+01	4.988013e+01
2.440000e-06	2.606728e-06	7.720178e-10	1.849656e+01	5.134609e+01
2.450000e-06	2.646640e-06	7.966179e-10	1.877977e+01	5.277359e+01
2.460000e-06	2.686355e-06	8.162220e-10	1.906157e+01	5.416076e+01
2.470000e-06	2.725978e-06	8.326754e-10	1.934273e+01	5.550614e+01
2.480000e-06	2.765465e-06	8.452067e-10	1.962291e+01	5.680872e+01
2.490000e-06	2.804665e-06	8.573426e-10	1.990107e+01	5.806794e+01
2.500000e-06	2.843675e-06	8.734538e-10	2.017786e+01	5.928374e+01
2.510000e-06	2.882545e-06	8.953076e-10	2.045368e+01	6.045657e+01
2.520000e-06	2.921105e-06	9.221224e-10	2.072729e+01	6.158731e+01
2.530000e-06	2.959405e-06	9.513808e-10	2.099905e+01	6.267729e+01
2.540000e-06	2.997585e-06	9.754478e-10	2.126997e+01	6.372821e+01
2.550000e-06	3.035568e-06	9.902226e-10	2.153949e+01	6.474205e+01
2.560000e-06	3.073376e-06	9.977067e-10	2.180776e+01	6.572102e+01
2.570000e-06	3.110936e-06	1.003063e-09	2.207427e+01	6.666744e+01
2.580000e-06	3.148228e-06	1.010721e-09	2.233888e+01	6.758369e+01
2.590000e-06	3.185332e-06	1.022541e-09	2.260216e+01	6.847206e+01
2.600000e-06	3.222146e-06	1.040907e-09	2.286339e+01	6.933471e+01
2.610000e-06	3.258711e-06	1.064946e-09	2.312284e+01	7.017361e+01
2.620000e-06	3.295111e-06	1.089942e-09	2.338112e+01	7.099041e+01
2.630000e-06	3.331430e-06	1.110415e-09	2.363883e+01	7.178646e+01
2.640000e-06	3.367645e-06	1.120753e-09	2.389580e+01	7.256278e+01
2.650000e-06	3.403656e-06	1.124116e-09	2.415132e+01	7.332002e+01
2.660000e-06	3.439522e-06	1.125390e-09	2.440582e+01	7.405846e+01
2.670000e-06	3.475234e-06	1.127290e-09	2.465922e+01	7.477811e+01
2.680000e-06	3.510720e-06	1.132998e-09	2.491102e+01	7.547867e+01
2.690000e-06	3.545943e-06	1.146593e-09	2.516095e+01	7.615962e+01
2.700000e-06	3.580760e-06	1.165641e-09	2.540800e+01	7.682032e+01
2.710000e-06	3.615175e-06	1.184616e-09	2.565220e+01	7.745998e+01
2.720000e-06	3.649247e-06	1.198963e-09	2.589396e+01	7.807783e+01
2.730000e-06	3.682778e-06	1.207001e-09	2.613189e+01	7.867312e+01
2.740000e-06	3.715900e-06	1.213120e-09	2.636692e+01	7.924522e+01
2.750000e-06	3.748799e-06	1.219360e-09	2.660036e+01	7.979362e+01
2.760000e-06	3.781389e-06	1.222987e-09	2.683161e+01	8.031801e+01
2.770000e-06	3.813737e-06	1.225515e-09	2.706114e+01	8.081828e+01
2.780000e-06	3.845895e-06	1.233163e-09	2.728932e+01	8.129453e+01
2.790000e-06	3.877827e-06	1.245386e-09	2.751590e+01	8.174708e+01
2.800000e-06	3.909509e-06	1.254929e-09	2.774071e+01	8.217640e+01
2.810000e-06	3.940952e-06	1.258988e-09	2.796382e+01	8.258316e+01
2.820000e-06	3.972228e-06	1.259767e-09	2.818575e+01	8.296813e+01
2.830000e-06	4.003169e-06	1.261058e-09	2.840529e+01	8.333214e+01
2.840000e-06	4.033764e-06	1.264735e-09	2.862238e+01	8.367608e+01
2.850000e-06	4.064222e-06	1.268166e-09	2.883851e+01	8.400082e+01
2.860000e-06	4.094391e-06	1.271815e-09	2.905257e+01	8.430716e+01
2.870000e-06	4.124194e-06	1.278196e-09	2.926405e+01	8.459585e+01
2.880000e-06	4.153744e-06	1.286553e-09	2.947373e+01	8.486751e+01
2.890000e-06	4.183078e-06	1.289079e-09	2.968187e+01	8.512266e+01
2.900000e-06	4.212151e-06	1.287184e-09	2.988816e+01	8.536171e+01
