# Temperatura_=_-7.26
# Concentracion g/m^3_=_4090.0
# C_Vs_to_Am_M_A/Vsm_=_65563218390.804596
# pendiente_HvsI_1/m_=_3716.3
# ordenada_HvsI_A/m_=_1297.0
# frecuencia_Hz_=_135074.75262579168

Tiempo_(s)	Campo_(V.s)	Magnetizacion_(V.s)	Campo_(kA/m)	Magnetizacion_(A/m)
0.000000e+00	-5.431950e-06	-1.321610e-09	-3.839419e+01	-8.661467e+01
1.000000e-08	-5.432056e-06	-1.320223e-09	-3.839495e+01	-8.656838e+01
2.000000e-08	-5.431893e-06	-1.316511e-09	-3.839380e+01	-8.650938e+01
3.000000e-08	-5.431359e-06	-1.312875e-09	-3.839002e+01	-8.643824e+01
4.000000e-08	-5.430371e-06	-1.311907e-09	-3.838304e+01	-8.635602e+01
5.000000e-08	-5.428723e-06	-1.313939e-09	-3.837139e+01	-8.626425e+01
6.000000e-08	-5.426435e-06	-1.320844e-09	-3.835521e+01	-8.616493e+01
7.000000e-08	-5.423571e-06	-1.331547e-09	-3.833497e+01	-8.606038e+01
8.000000e-08	-5.420128e-06	-1.331152e-09	-3.831064e+01	-8.595327e+01
9.000000e-08	-5.416228e-06	-1.310460e-09	-3.828307e+01	-8.584644e+01
1.000000e-07	-5.411951e-06	-1.306824e-09	-3.825284e+01	-8.574282e+01
1.100000e-07	-5.407456e-06	-1.305353e-09	-3.822107e+01	-8.564529e+01
1.200000e-07	-5.402863e-06	-1.318886e-09	-3.818860e+01	-8.555660e+01
1.300000e-07	-5.398066e-06	-1.300391e-09	-3.815470e+01	-8.547921e+01
1.400000e-07	-5.392819e-06	-1.331127e-09	-3.811761e+01	-8.541520e+01
1.500000e-07	-5.387145e-06	-1.344872e-09	-3.807751e+01	-8.536617e+01
1.600000e-07	-5.381149e-06	-1.312337e-09	-3.803513e+01	-8.533319e+01
1.700000e-07	-5.374669e-06	-1.249398e-09	-3.798933e+01	-8.531669e+01
1.800000e-07	-5.367682e-06	-1.257519e-09	-3.793994e+01	-8.531651e+01
1.900000e-07	-5.360369e-06	-1.294301e-09	-3.788824e+01	-8.533183e+01
2.000000e-07	-5.352899e-06	-1.280410e-09	-3.783545e+01	-8.536126e+01
2.100000e-07	-5.345173e-06	-1.256843e-09	-3.778084e+01	-8.540282e+01
2.200000e-07	-5.337160e-06	-1.289113e-09	-3.772420e+01	-8.545411e+01
2.300000e-07	-5.328917e-06	-1.337468e-09	-3.766594e+01	-8.551230e+01
2.400000e-07	-5.320161e-06	-1.327419e-09	-3.760405e+01	-8.557434e+01
2.500000e-07	-5.310726e-06	-1.332446e-09	-3.753736e+01	-8.563701e+01
2.600000e-07	-5.300590e-06	-1.353349e-09	-3.746572e+01	-8.569709e+01
2.700000e-07	-5.289936e-06	-1.363213e-09	-3.739041e+01	-8.575146e+01
2.800000e-07	-5.278844e-06	-1.313063e-09	-3.731201e+01	-8.579720e+01
2.900000e-07	-5.267291e-06	-1.310889e-09	-3.723036e+01	-8.583176e+01
3.000000e-07	-5.255405e-06	-1.331741e-09	-3.714634e+01	-8.585297e+01
3.100000e-07	-5.243159e-06	-1.326590e-09	-3.705979e+01	-8.585917e+01
3.200000e-07	-5.230506e-06	-1.299941e-09	-3.697035e+01	-8.584921e+01
3.300000e-07	-5.217401e-06	-1.329383e-09	-3.687772e+01	-8.582250e+01
3.400000e-07	-5.203849e-06	-1.335242e-09	-3.678193e+01	-8.577897e+01
3.500000e-07	-5.189892e-06	-1.315520e-09	-3.668328e+01	-8.571909e+01
3.600000e-07	-5.175546e-06	-1.298875e-09	-3.658188e+01	-8.564379e+01
3.700000e-07	-5.160735e-06	-1.313047e-09	-3.647719e+01	-8.555439e+01
3.800000e-07	-5.145181e-06	-1.292449e-09	-3.636725e+01	-8.545252e+01
3.900000e-07	-5.129004e-06	-1.294178e-09	-3.625291e+01	-8.534006e+01
4.000000e-07	-5.112460e-06	-1.305742e-09	-3.613597e+01	-8.521897e+01
4.100000e-07	-5.095573e-06	-1.302818e-09	-3.601661e+01	-8.509130e+01
4.200000e-07	-5.078421e-06	-1.288233e-09	-3.589538e+01	-8.495899e+01
4.300000e-07	-5.061048e-06	-1.305405e-09	-3.577258e+01	-8.482386e+01
4.400000e-07	-5.043381e-06	-1.314686e-09	-3.564771e+01	-8.468752e+01
4.500000e-07	-5.025369e-06	-1.285152e-09	-3.552040e+01	-8.455131e+01
4.600000e-07	-5.007019e-06	-1.272333e-09	-3.539069e+01	-8.441626e+01
4.700000e-07	-4.988256e-06	-1.281219e-09	-3.525807e+01	-8.428310e+01
4.800000e-07	-4.969131e-06	-1.279892e-09	-3.512290e+01	-8.415223e+01
4.900000e-07	-4.949740e-06	-1.258690e-09	-3.498583e+01	-8.402376e+01
5.000000e-07	-4.930105e-06	-1.265601e-09	-3.484705e+01	-8.389753e+01
5.100000e-07	-4.910264e-06	-1.273556e-09	-3.470681e+01	-8.377314e+01
5.200000e-07	-4.890245e-06	-1.276326e-09	-3.456531e+01	-8.365005e+01
5.300000e-07	-4.869870e-06	-1.268644e-09	-3.442129e+01	-8.352760e+01
5.400000e-07	-4.849127e-06	-1.272207e-09	-3.427468e+01	-8.340507e+01
5.500000e-07	-4.828017e-06	-1.264329e-09	-3.412547e+01	-8.328177e+01
5.600000e-07	-4.806510e-06	-1.266313e-09	-3.397346e+01	-8.315705e+01
5.700000e-07	-4.784724e-06	-1.260168e-09	-3.381946e+01	-8.303037e+01
5.800000e-07	-4.762689e-06	-1.249185e-09	-3.366372e+01	-8.290133e+01
5.900000e-07	-4.740350e-06	-1.236363e-09	-3.350582e+01	-8.276967e+01
6.000000e-07	-4.717555e-06	-1.250193e-09	-3.334470e+01	-8.263530e+01
6.100000e-07	-4.694370e-06	-1.258060e-09	-3.318082e+01	-8.249829e+01
6.200000e-07	-4.670944e-06	-1.255473e-09	-3.301524e+01	-8.235882e+01
6.300000e-07	-4.647309e-06	-1.251609e-09	-3.284819e+01	-8.221720e+01
6.400000e-07	-4.623470e-06	-1.265192e-09	-3.267969e+01	-8.207380e+01
6.500000e-07	-4.599366e-06	-1.266129e-09	-3.250931e+01	-8.192901e+01
6.600000e-07	-4.574878e-06	-1.255697e-09	-3.233623e+01	-8.178323e+01
6.700000e-07	-4.550050e-06	-1.243817e-09	-3.216074e+01	-8.163677e+01
6.800000e-07	-4.524853e-06	-1.244704e-09	-3.198264e+01	-8.148987e+01
6.900000e-07	-4.499025e-06	-1.248588e-09	-3.180008e+01	-8.134263e+01
7.000000e-07	-4.472588e-06	-1.249020e-09	-3.161322e+01	-8.119501e+01
7.100000e-07	-4.445671e-06	-1.246474e-09	-3.142296e+01	-8.104681e+01
7.200000e-07	-4.418381e-06	-1.252126e-09	-3.123007e+01	-8.089766e+01
7.300000e-07	-4.390887e-06	-1.261049e-09	-3.103574e+01	-8.074706e+01
7.400000e-07	-4.363147e-06	-1.256758e-09	-3.083967e+01	-8.059436e+01
7.500000e-07	-4.335209e-06	-1.243665e-09	-3.064219e+01	-8.043886e+01
7.600000e-07	-4.307165e-06	-1.235202e-09	-3.044398e+01	-8.027975e+01
7.700000e-07	-4.278810e-06	-1.237613e-09	-3.024356e+01	-8.011626e+01
7.800000e-07	-4.250094e-06	-1.235109e-09	-3.004058e+01	-7.994762e+01
7.900000e-07	-4.221090e-06	-1.228858e-09	-2.983557e+01	-7.977319e+01
8.000000e-07	-4.191840e-06	-1.221371e-09	-2.962883e+01	-7.959242e+01
8.100000e-07	-4.162347e-06	-1.222254e-09	-2.942037e+01	-7.940495e+01
8.200000e-07	-4.132516e-06	-1.221691e-09	-2.920952e+01	-7.921062e+01
8.300000e-07	-4.102368e-06	-1.217374e-09	-2.899642e+01	-7.900947e+01
8.400000e-07	-4.071965e-06	-1.207627e-09	-2.878153e+01	-7.880178e+01
8.500000e-07	-4.041290e-06	-1.209016e-09	-2.856472e+01	-7.858805e+01
8.600000e-07	-4.010345e-06	-1.213001e-09	-2.834598e+01	-7.836897e+01
8.700000e-07	-3.979185e-06	-1.213480e-09	-2.812574e+01	-7.814543e+01
8.800000e-07	-3.947816e-06	-1.204258e-09	-2.790402e+01	-7.791845e+01
8.900000e-07	-3.916260e-06	-1.197810e-09	-2.768097e+01	-7.768913e+01
9.000000e-07	-3.884506e-06	-1.190325e-09	-2.745653e+01	-7.745863e+01
9.100000e-07	-3.852543e-06	-1.184791e-09	-2.723061e+01	-7.722809e+01
9.200000e-07	-3.820362e-06	-1.180350e-09	-2.700315e+01	-7.699860e+01
9.300000e-07	-3.787867e-06	-1.185166e-09	-2.677347e+01	-7.677112e+01
9.400000e-07	-3.754989e-06	-1.192590e-09	-2.654107e+01	-7.654647e+01
9.500000e-07	-3.721730e-06	-1.194442e-09	-2.630599e+01	-7.632525e+01
9.600000e-07	-3.688034e-06	-1.184990e-09	-2.606782e+01	-7.610787e+01
9.700000e-07	-3.653845e-06	-1.172683e-09	-2.582617e+01	-7.589446e+01
9.800000e-07	-3.619275e-06	-1.159841e-09	-2.558182e+01	-7.568494e+01
9.900000e-07	-3.584384e-06	-1.151330e-09	-2.533520e+01	-7.547898e+01
1.000000e-06	-3.549178e-06	-1.146131e-09	-2.508636e+01	-7.527603e+01
1.010000e-06	-3.513720e-06	-1.148748e-09	-2.483573e+01	-7.507535e+01
1.020000e-06	-3.478105e-06	-1.158208e-09	-2.458400e+01	-7.487604e+01
1.030000e-06	-3.442374e-06	-1.163299e-09	-2.433145e+01	-7.467708e+01
1.040000e-06	-3.406497e-06	-1.158352e-09	-2.407786e+01	-7.447738e+01
1.050000e-06	-3.370475e-06	-1.146160e-09	-2.382325e+01	-7.427582e+01
1.060000e-06	-3.334251e-06	-1.133847e-09	-2.356721e+01	-7.407129e+01
1.070000e-06	-3.297801e-06	-1.123005e-09	-2.330957e+01	-7.386274e+01
1.080000e-06	-3.261148e-06	-1.116170e-09	-2.305050e+01	-7.364921e+01
1.090000e-06	-3.224185e-06	-1.115379e-09	-2.278923e+01	-7.342985e+01
1.100000e-06	-3.186975e-06	-1.120869e-09	-2.252623e+01	-7.320393e+01
1.110000e-06	-3.149563e-06	-1.123033e-09	-2.226179e+01	-7.297090e+01
1.120000e-06	-3.111874e-06	-1.119398e-09	-2.199540e+01	-7.273032e+01
1.130000e-06	-3.073992e-06	-1.107575e-09	-2.172764e+01	-7.248190e+01
1.140000e-06	-3.035987e-06	-1.096953e-09	-2.145901e+01	-7.222548e+01
1.150000e-06	-2.997811e-06	-1.089600e-09	-2.118918e+01	-7.196099e+01
1.160000e-06	-2.959376e-06	-1.086790e-09	-2.091751e+01	-7.168846e+01
1.170000e-06	-2.920738e-06	-1.085584e-09	-2.064441e+01	-7.140797e+01
1.180000e-06	-2.881811e-06	-1.085101e-09	-2.036926e+01	-7.111963e+01
1.190000e-06	-2.842622e-06	-1.080348e-09	-2.009227e+01	-7.082358e+01
1.200000e-06	-2.803280e-06	-1.075847e-09	-1.981419e+01	-7.051994e+01
1.210000e-06	-2.763749e-06	-1.071961e-09	-1.953478e+01	-7.020881e+01
1.220000e-06	-2.724103e-06	-1.069716e-09	-1.925455e+01	-6.989026e+01
1.230000e-06	-2.684400e-06	-1.065879e-09	-1.897392e+01	-6.956434e+01
1.240000e-06	-2.644632e-06	-1.062436e-09	-1.869283e+01	-6.923108e+01
1.250000e-06	-2.604739e-06	-1.059558e-09	-1.841086e+01	-6.889046e+01
1.260000e-06	-2.564683e-06	-1.056619e-09	-1.812774e+01	-6.854250e+01
1.270000e-06	-2.524477e-06	-1.047524e-09	-1.784355e+01	-6.818721e+01
1.280000e-06	-2.484097e-06	-1.035265e-09	-1.755813e+01	-6.782464e+01
1.290000e-06	-2.443532e-06	-1.024840e-09	-1.727141e+01	-6.745489e+01
1.300000e-06	-2.402660e-06	-1.018110e-09	-1.698252e+01	-6.707815e+01
1.310000e-06	-2.361496e-06	-1.013586e-09	-1.669156e+01	-6.669465e+01
1.320000e-06	-2.320146e-06	-1.011460e-09	-1.639929e+01	-6.630477e+01
1.330000e-06	-2.278628e-06	-1.014721e-09	-1.610584e+01	-6.590892e+01
1.340000e-06	-2.236879e-06	-1.019723e-09	-1.581074e+01	-6.550765e+01
1.350000e-06	-2.194665e-06	-1.020476e-09	-1.551237e+01	-6.510155e+01
1.360000e-06	-2.152143e-06	-1.009394e-09	-1.521181e+01	-6.469130e+01
1.370000e-06	-2.109482e-06	-9.903912e-10	-1.491028e+01	-6.427758e+01
1.380000e-06	-2.066659e-06	-9.726302e-10	-1.460760e+01	-6.386109e+01
1.390000e-06	-2.023674e-06	-9.624619e-10	-1.430376e+01	-6.344250e+01
1.400000e-06	-1.980479e-06	-9.603074e-10	-1.399846e+01	-6.302239e+01
1.410000e-06	-1.937107e-06	-9.645234e-10	-1.369189e+01	-6.260125e+01
1.420000e-06	-1.893621e-06	-9.720500e-10	-1.338452e+01	-6.217946e+01
1.430000e-06	-1.850087e-06	-9.782331e-10	-1.307682e+01	-6.175718e+01
1.440000e-06	-1.806465e-06	-9.744212e-10	-1.276848e+01	-6.133443e+01
1.450000e-06	-1.762701e-06	-9.595192e-10	-1.245915e+01	-6.091102e+01
1.460000e-06	-1.718840e-06	-9.402078e-10	-1.214913e+01	-6.048653e+01
1.470000e-06	-1.674940e-06	-9.260882e-10	-1.183884e+01	-6.006037e+01
1.480000e-06	-1.630954e-06	-9.174883e-10	-1.152794e+01	-5.963176e+01
1.490000e-06	-1.586816e-06	-9.164558e-10	-1.121596e+01	-5.919975e+01
1.500000e-06	-1.542590e-06	-9.215427e-10	-1.090336e+01	-5.876327e+01
1.510000e-06	-1.498325e-06	-9.282819e-10	-1.059048e+01	-5.832115e+01
1.520000e-06	-1.454020e-06	-9.282926e-10	-1.027733e+01	-5.787218e+01
1.530000e-06	-1.409615e-06	-9.161072e-10	-9.963463e+00	-5.741518e+01
1.540000e-06	-1.365121e-06	-8.955805e-10	-9.648967e+00	-5.694898e+01
1.550000e-06	-1.320537e-06	-8.768807e-10	-9.333844e+00	-5.647254e+01
1.560000e-06	-1.275796e-06	-8.656235e-10	-9.017604e+00	-5.598493e+01
1.570000e-06	-1.230963e-06	-8.605399e-10	-8.700712e+00	-5.548543e+01
1.580000e-06	-1.186118e-06	-8.594087e-10	-8.383738e+00	-5.497348e+01
1.590000e-06	-1.141168e-06	-8.594518e-10	-8.066020e+00	-5.444876e+01
1.600000e-06	-1.096021e-06	-8.568241e-10	-7.746911e+00	-5.391116e+01
1.610000e-06	-1.050755e-06	-8.483402e-10	-7.426966e+00	-5.336080e+01
1.620000e-06	-1.005457e-06	-8.344061e-10	-7.106787e+00	-5.279799e+01
1.630000e-06	-9.601380e-07	-8.197553e-10	-6.786463e+00	-5.222321e+01
1.640000e-06	-9.147254e-07	-8.070781e-10	-6.465477e+00	-5.163708e+01
1.650000e-06	-8.691882e-07	-7.981453e-10	-6.143610e+00	-5.104035e+01
1.660000e-06	-8.235957e-07	-7.907856e-10	-5.821353e+00	-5.043380e+01
1.670000e-06	-7.780209e-07	-7.855503e-10	-5.499220e+00	-4.981821e+01
1.680000e-06	-7.324092e-07	-7.805714e-10	-5.176827e+00	-4.919436e+01
1.690000e-06	-6.867521e-07	-7.698814e-10	-4.854112e+00	-4.856293e+01
1.700000e-06	-6.410849e-07	-7.547758e-10	-4.531327e+00	-4.792449e+01
1.710000e-06	-5.953837e-07	-7.411087e-10	-4.208301e+00	-4.727947e+01
1.720000e-06	-5.495318e-07	-7.322385e-10	-3.884210e+00	-4.662813e+01
1.730000e-06	-5.035603e-07	-7.243023e-10	-3.559273e+00	-4.597057e+01
1.740000e-06	-4.576007e-07	-7.154346e-10	-3.234421e+00	-4.530670e+01
1.750000e-06	-4.116803e-07	-7.048676e-10	-2.909846e+00	-4.463625e+01
1.760000e-06	-3.657817e-07	-6.938329e-10	-2.585424e+00	-4.395883e+01
1.770000e-06	-3.198501e-07	-6.798350e-10	-2.260769e+00	-4.327390e+01
1.780000e-06	-2.738517e-07	-6.644901e-10	-1.935643e+00	-4.258084e+01
1.790000e-06	-2.278368e-07	-6.519192e-10	-1.610400e+00	-4.187896e+01
1.800000e-06	-1.817855e-07	-6.429360e-10	-1.284899e+00	-4.116757e+01
1.810000e-06	-1.356961e-07	-6.324748e-10	-9.591297e-01	-4.044598e+01
1.820000e-06	-8.968232e-08	-6.197092e-10	-6.338941e-01	-3.971356e+01
1.830000e-06	-4.365771e-08	-6.053100e-10	-3.085821e-01	-3.896978e+01
1.840000e-06	2.360695e-09	-5.924810e-10	1.668590e-02	-3.821421e+01
1.850000e-06	4.830964e-08	-5.818681e-10	3.414630e-01	-3.744655e+01
1.860000e-06	9.423640e-08	-5.710655e-10	6.660832e-01	-3.666663e+01
1.870000e-06	1.401454e-07	-5.609177e-10	9.905779e-01	-3.587445e+01
1.880000e-06	1.861088e-07	-5.511141e-10	1.315458e+00	-3.507012e+01
1.890000e-06	2.321625e-07	-5.397586e-10	1.640975e+00	-3.425386e+01
1.900000e-06	2.782741e-07	-5.245552e-10	1.966902e+00	-3.342602e+01
1.910000e-06	3.243591e-07	-5.051961e-10	2.292640e+00	-3.258699e+01
1.920000e-06	3.703388e-07	-4.868632e-10	2.617635e+00	-3.173722e+01
1.930000e-06	4.162080e-07	-4.745561e-10	2.941848e+00	-3.087715e+01
1.940000e-06	4.620370e-07	-4.642105e-10	3.265778e+00	-3.000723e+01
1.950000e-06	5.078890e-07	-4.522578e-10	3.589870e+00	-2.912783e+01
1.960000e-06	5.536721e-07	-4.414369e-10	3.913474e+00	-2.823926e+01
1.970000e-06	5.993503e-07	-4.321067e-10	4.236337e+00	-2.734174e+01
1.980000e-06	6.450283e-07	-4.213103e-10	4.559199e+00	-2.643539e+01
1.990000e-06	6.907081e-07	-4.046848e-10	4.882074e+00	-2.552023e+01
2.000000e-06	7.362650e-07	-3.845499e-10	5.204080e+00	-2.459616e+01
2.010000e-06	7.817892e-07	-3.690528e-10	5.525855e+00	-2.366300e+01
2.020000e-06	8.273367e-07	-3.579241e-10	5.847795e+00	-2.272051e+01
2.030000e-06	8.728340e-07	-3.456266e-10	6.169380e+00	-2.176838e+01
2.040000e-06	9.183783e-07	-3.315846e-10	6.491297e+00	-2.080627e+01
2.050000e-06	9.638950e-07	-3.174835e-10	6.813019e+00	-1.983387e+01
2.060000e-06	1.009201e-06	-3.030842e-10	7.133249e+00	-1.885088e+01
2.070000e-06	1.054365e-06	-2.871221e-10	7.452482e+00	-1.785707e+01
2.080000e-06	1.099475e-06	-2.683672e-10	7.771324e+00	-1.685230e+01
2.090000e-06	1.144507e-06	-2.510265e-10	8.089624e+00	-1.583653e+01
2.100000e-06	1.189423e-06	-2.373647e-10	8.407100e+00	-1.480983e+01
2.110000e-06	1.234241e-06	-2.239393e-10	8.723885e+00	-1.377241e+01
2.120000e-06	1.278987e-06	-2.075774e-10	9.040159e+00	-1.272459e+01
2.130000e-06	1.323607e-06	-1.917803e-10	9.355539e+00	-1.166681e+01
2.140000e-06	1.368056e-06	-1.788826e-10	9.669719e+00	-1.059964e+01
2.150000e-06	1.412420e-06	-1.664762e-10	9.983293e+00	-9.523701e+00
2.160000e-06	1.456730e-06	-1.505095e-10	1.029648e+01	-8.439693e+00
2.170000e-06	1.500954e-06	-1.312581e-10	1.060907e+01	-7.348347e+00
2.180000e-06	1.545133e-06	-1.134055e-10	1.092134e+01	-6.250398e+00
2.190000e-06	1.589220e-06	-9.781769e-11	1.123295e+01	-5.146560e+00
2.200000e-06	1.633154e-06	-8.018107e-11	1.154349e+01	-4.037496e+00
2.210000e-06	1.677055e-06	-6.105717e-11	1.185379e+01	-2.923795e+00
2.220000e-06	1.720930e-06	-4.370639e-11	1.216390e+01	-1.805956e+00
2.230000e-06	1.764690e-06	-2.794616e-11	1.247321e+01	-6.843707e-01
2.240000e-06	1.808399e-06	-1.084964e-11	1.278215e+01	4.406784e-01
2.250000e-06	1.852097e-06	8.504183e-12	1.309102e+01	1.569022e+00
2.260000e-06	1.895691e-06	2.695582e-11	1.339916e+01	2.700598e+00
2.270000e-06	1.939231e-06	4.483999e-11	1.370691e+01	3.835436e+00
2.280000e-06	1.982751e-06	6.553000e-11	1.401451e+01	4.973645e+00
2.290000e-06	2.026111e-06	8.696790e-11	1.432099e+01	6.115387e+00
2.300000e-06	2.069258e-06	1.040170e-10	1.462596e+01	7.260860e+00
2.310000e-06	2.112197e-06	1.189282e-10	1.492946e+01	8.410266e+00
2.320000e-06	2.154924e-06	1.354709e-10	1.523147e+01	9.563793e+00
2.330000e-06	2.197375e-06	1.542354e-10	1.553152e+01	1.072159e+01
2.340000e-06	2.239539e-06	1.718772e-10	1.582954e+01	1.188374e+01
2.350000e-06	2.281449e-06	1.888266e-10	1.612578e+01	1.305026e+01
2.360000e-06	2.323083e-06	2.089890e-10	1.642006e+01	1.422108e+01
2.370000e-06	2.364207e-06	2.319900e-10	1.671073e+01	1.539602e+01
2.380000e-06	2.405044e-06	2.535230e-10	1.699937e+01	1.657483e+01
2.390000e-06	2.445822e-06	2.705306e-10	1.728760e+01	1.775714e+01
2.400000e-06	2.486301e-06	2.842733e-10	1.757371e+01	1.894252e+01
2.410000e-06	2.526518e-06	3.014416e-10	1.785798e+01	2.013046e+01
2.420000e-06	2.566565e-06	3.250010e-10	1.814103e+01	2.132039e+01
2.430000e-06	2.606526e-06	3.493585e-10	1.842349e+01	2.251168e+01
2.440000e-06	2.646395e-06	3.708690e-10	1.870529e+01	2.370369e+01
2.450000e-06	2.686136e-06	3.906453e-10	1.898619e+01	2.489574e+01
2.460000e-06	2.725824e-06	4.117377e-10	1.926672e+01	2.608717e+01
2.470000e-06	2.765373e-06	4.297131e-10	1.954626e+01	2.727729e+01
2.480000e-06	2.804688e-06	4.434471e-10	1.982414e+01	2.846545e+01
2.490000e-06	2.843854e-06	4.592434e-10	2.010098e+01	2.965096e+01
2.500000e-06	2.882904e-06	4.798384e-10	2.037699e+01	3.083319e+01
2.510000e-06	2.921707e-06	5.025486e-10	2.065126e+01	3.201146e+01
2.520000e-06	2.960184e-06	5.255258e-10	2.092322e+01	3.318512e+01
2.530000e-06	2.998559e-06	5.484491e-10	2.119446e+01	3.435348e+01
2.540000e-06	3.036772e-06	5.700856e-10	2.146456e+01	3.551582e+01
2.550000e-06	3.074649e-06	5.868944e-10	2.173228e+01	3.667138e+01
2.560000e-06	3.112413e-06	5.972732e-10	2.199921e+01	3.781938e+01
2.570000e-06	3.150090e-06	6.075561e-10	2.226552e+01	3.895896e+01
2.580000e-06	3.187593e-06	6.222067e-10	2.253060e+01	4.008921e+01
2.590000e-06	3.224834e-06	6.409984e-10	2.279383e+01	4.120917e+01
2.600000e-06	3.261769e-06	6.623890e-10	2.305489e+01	4.231785e+01
2.610000e-06	3.298391e-06	6.847427e-10	2.331374e+01	4.341422e+01
2.620000e-06	3.334692e-06	7.061104e-10	2.357033e+01	4.449721e+01
2.630000e-06	3.370792e-06	7.217427e-10	2.382549e+01	4.556579e+01
2.640000e-06	3.406774e-06	7.304546e-10	2.407982e+01	4.661893e+01
2.650000e-06	3.442661e-06	7.375681e-10	2.433348e+01	4.765567e+01
2.660000e-06	3.478427e-06	7.470375e-10	2.458628e+01	4.867512e+01
2.670000e-06	3.514037e-06	7.585683e-10	2.483798e+01	4.967649e+01
2.680000e-06	3.549513e-06	7.716829e-10	2.508873e+01	5.065913e+01
2.690000e-06	3.584843e-06	7.881208e-10	2.533845e+01	5.162250e+01
2.700000e-06	3.619921e-06	8.080846e-10	2.558638e+01	5.256626e+01
2.710000e-06	3.654585e-06	8.267327e-10	2.583140e+01	5.349020e+01
2.720000e-06	3.688754e-06	8.388215e-10	2.607291e+01	5.439429e+01
2.730000e-06	3.722385e-06	8.479081e-10	2.631062e+01	5.527867e+01
2.740000e-06	3.755456e-06	8.575742e-10	2.654438e+01	5.614362e+01
2.750000e-06	3.788065e-06	8.675623e-10	2.677487e+01	5.698954e+01
2.760000e-06	3.820359e-06	8.771068e-10	2.700312e+01	5.781697e+01
2.770000e-06	3.852456e-06	8.881020e-10	2.723000e+01	5.862651e+01
2.780000e-06	3.884379e-06	9.043043e-10	2.745563e+01	5.941880e+01
2.790000e-06	3.916146e-06	9.207986e-10	2.768016e+01	6.019453e+01
2.800000e-06	3.947812e-06	9.304105e-10	2.790399e+01	6.095437e+01
2.810000e-06	3.979294e-06	9.346541e-10	2.812651e+01	6.169894e+01
2.820000e-06	4.010521e-06	9.414133e-10	2.834723e+01	6.242882e+01
2.830000e-06	4.041485e-06	9.543038e-10	2.856609e+01	6.314449e+01
2.840000e-06	4.072118e-06	9.658375e-10	2.878261e+01	6.384636e+01
2.850000e-06	4.102425e-06	9.735066e-10	2.899683e+01	6.453472e+01
2.860000e-06	4.132400e-06	9.826439e-10	2.920870e+01	6.520976e+01
2.870000e-06	4.162074e-06	9.969369e-10	2.941844e+01	6.587161e+01
2.880000e-06	4.191559e-06	1.010106e-09	2.962685e+01	6.652028e+01
2.890000e-06	4.220836e-06	1.015734e-09	2.983378e+01	6.715574e+01
2.900000e-06	4.249797e-06	1.022044e-09	3.003848e+01	6.777793e+01
