# Temperatura_=_-1.78
# Concentracion g/m^3_=_4090.0
# C_Vs_to_Am_M_A/Vsm_=_65563218390.804596
# pendiente_HvsI_1/m_=_3716.3
# ordenada_HvsI_A/m_=_1297.0
# frecuencia_Hz_=_135069.54857889726

Tiempo_(s)	Campo_(V.s)	Magnetizacion_(V.s)	Campo_(kA/m)	Magnetizacion_(A/m)
0.000000e+00	-5.429267e-06	-2.023789e-09	-3.838854e+01	-1.352689e+02
1.000000e-08	-5.429560e-06	-2.018816e-09	-3.839061e+01	-1.351520e+02
2.000000e-08	-5.429554e-06	-2.011632e-09	-3.839057e+01	-1.350189e+02
3.000000e-08	-5.429226e-06	-2.004059e-09	-3.838825e+01	-1.348684e+02
4.000000e-08	-5.428508e-06	-1.997973e-09	-3.838318e+01	-1.346998e+02
5.000000e-08	-5.427385e-06	-1.994940e-09	-3.837524e+01	-1.345135e+02
6.000000e-08	-5.425701e-06	-1.994337e-09	-3.836333e+01	-1.343105e+02
7.000000e-08	-5.423355e-06	-2.003889e-09	-3.834674e+01	-1.340927e+02
8.000000e-08	-5.420390e-06	-2.027328e-09	-3.832578e+01	-1.338630e+02
9.000000e-08	-5.416844e-06	-2.022176e-09	-3.830070e+01	-1.336248e+02
1.000000e-07	-5.412911e-06	-1.969531e-09	-3.827289e+01	-1.333824e+02
1.100000e-07	-5.408755e-06	-1.973484e-09	-3.824351e+01	-1.331405e+02
1.200000e-07	-5.404372e-06	-2.034587e-09	-3.821252e+01	-1.329042e+02
1.300000e-07	-5.399693e-06	-2.019798e-09	-3.817943e+01	-1.326787e+02
1.400000e-07	-5.394625e-06	-1.939382e-09	-3.814360e+01	-1.324692e+02
1.500000e-07	-5.389184e-06	-1.949982e-09	-3.810513e+01	-1.322805e+02
1.600000e-07	-5.383481e-06	-2.060634e-09	-3.806480e+01	-1.321171e+02
1.700000e-07	-5.377364e-06	-2.045515e-09	-3.802155e+01	-1.319827e+02
1.800000e-07	-5.370682e-06	-1.921675e-09	-3.797431e+01	-1.318800e+02
1.900000e-07	-5.363622e-06	-1.936812e-09	-3.792439e+01	-1.318109e+02
2.000000e-07	-5.356384e-06	-2.062423e-09	-3.787321e+01	-1.317760e+02
2.100000e-07	-5.348920e-06	-2.047844e-09	-3.782043e+01	-1.317749e+02
2.200000e-07	-5.341166e-06	-1.959893e-09	-3.776561e+01	-1.318058e+02
2.300000e-07	-5.333101e-06	-2.018743e-09	-3.770858e+01	-1.318660e+02
2.400000e-07	-5.324668e-06	-2.114978e-09	-3.764895e+01	-1.319515e+02
2.500000e-07	-5.315738e-06	-2.069144e-09	-3.758582e+01	-1.320577e+02
2.600000e-07	-5.306110e-06	-2.035362e-09	-3.751774e+01	-1.321788e+02
2.700000e-07	-5.295812e-06	-2.123259e-09	-3.744492e+01	-1.323090e+02
2.800000e-07	-5.285057e-06	-2.134360e-09	-3.736888e+01	-1.324416e+02
2.900000e-07	-5.273904e-06	-2.040790e-09	-3.729002e+01	-1.325704e+02
3.000000e-07	-5.262282e-06	-2.061886e-09	-3.720785e+01	-1.326890e+02
3.100000e-07	-5.250202e-06	-2.151554e-09	-3.712243e+01	-1.327915e+02
3.200000e-07	-5.237702e-06	-2.110267e-09	-3.703405e+01	-1.328726e+02
3.300000e-07	-5.224850e-06	-2.051795e-09	-3.694318e+01	-1.329277e+02
3.400000e-07	-5.211628e-06	-2.108777e-09	-3.684969e+01	-1.329535e+02
3.500000e-07	-5.198010e-06	-2.136906e-09	-3.675340e+01	-1.329473e+02
3.600000e-07	-5.183979e-06	-2.082968e-09	-3.665419e+01	-1.329077e+02
3.700000e-07	-5.169558e-06	-2.083495e-09	-3.655223e+01	-1.328345e+02
3.800000e-07	-5.154707e-06	-2.104581e-09	-3.644722e+01	-1.327285e+02
3.900000e-07	-5.139269e-06	-2.066263e-09	-3.633806e+01	-1.325913e+02
4.000000e-07	-5.123296e-06	-2.062258e-09	-3.622512e+01	-1.324258e+02
4.100000e-07	-5.106868e-06	-2.100334e-09	-3.610897e+01	-1.322352e+02
4.200000e-07	-5.090043e-06	-2.075285e-09	-3.599001e+01	-1.320235e+02
4.300000e-07	-5.072899e-06	-2.047086e-09	-3.586878e+01	-1.317949e+02
4.400000e-07	-5.055498e-06	-2.091445e-09	-3.574575e+01	-1.315539e+02
4.500000e-07	-5.037789e-06	-2.103361e-09	-3.562053e+01	-1.313047e+02
4.600000e-07	-5.019694e-06	-2.053312e-09	-3.549259e+01	-1.310515e+02
4.700000e-07	-5.001255e-06	-2.045555e-09	-3.536221e+01	-1.307980e+02
4.800000e-07	-4.982453e-06	-2.066423e-09	-3.522927e+01	-1.305472e+02
4.900000e-07	-4.963200e-06	-2.055090e-09	-3.509314e+01	-1.303018e+02
5.000000e-07	-4.943611e-06	-2.036957e-09	-3.495463e+01	-1.300635e+02
5.100000e-07	-4.923860e-06	-2.033485e-09	-3.481498e+01	-1.298332e+02
5.200000e-07	-4.903964e-06	-2.030658e-09	-3.467430e+01	-1.296114e+02
5.300000e-07	-4.883810e-06	-2.041686e-09	-3.453180e+01	-1.293977e+02
5.400000e-07	-4.863337e-06	-2.045933e-09	-3.438704e+01	-1.291909e+02
5.500000e-07	-4.842543e-06	-2.025425e-09	-3.424001e+01	-1.289896e+02
5.600000e-07	-4.821370e-06	-2.018664e-09	-3.409030e+01	-1.287919e+02
5.700000e-07	-4.799833e-06	-2.035122e-09	-3.393802e+01	-1.285955e+02
5.800000e-07	-4.777994e-06	-2.026188e-09	-3.378361e+01	-1.283983e+02
5.900000e-07	-4.755893e-06	-1.998322e-09	-3.362734e+01	-1.281979e+02
6.000000e-07	-4.733397e-06	-1.987061e-09	-3.346828e+01	-1.279922e+02
6.100000e-07	-4.710485e-06	-1.994095e-09	-3.330628e+01	-1.277794e+02
6.200000e-07	-4.687300e-06	-2.003576e-09	-3.314234e+01	-1.275578e+02
6.300000e-07	-4.663807e-06	-2.001665e-09	-3.297623e+01	-1.273265e+02
6.400000e-07	-4.640034e-06	-1.991323e-09	-3.280814e+01	-1.270848e+02
6.500000e-07	-4.616105e-06	-1.995404e-09	-3.263894e+01	-1.268324e+02
6.600000e-07	-4.591938e-06	-2.003444e-09	-3.246807e+01	-1.265696e+02
6.700000e-07	-4.567427e-06	-1.988018e-09	-3.229476e+01	-1.262971e+02
6.800000e-07	-4.542583e-06	-1.964774e-09	-3.211909e+01	-1.260160e+02
6.900000e-07	-4.517282e-06	-1.959751e-09	-3.194020e+01	-1.257274e+02
7.000000e-07	-4.491342e-06	-1.965783e-09	-3.175679e+01	-1.254329e+02
7.100000e-07	-4.464900e-06	-1.964228e-09	-3.156982e+01	-1.251340e+02
7.200000e-07	-4.438048e-06	-1.955588e-09	-3.137996e+01	-1.248322e+02
7.300000e-07	-4.410724e-06	-1.952042e-09	-3.118676e+01	-1.245292e+02
7.400000e-07	-4.383130e-06	-1.957296e-09	-3.099165e+01	-1.242261e+02
7.500000e-07	-4.355371e-06	-1.953619e-09	-3.079538e+01	-1.239241e+02
7.600000e-07	-4.327376e-06	-1.934862e-09	-3.059744e+01	-1.236239e+02
7.700000e-07	-4.299160e-06	-1.920618e-09	-3.039793e+01	-1.233263e+02
7.800000e-07	-4.270713e-06	-1.923877e-09	-3.019680e+01	-1.230313e+02
7.900000e-07	-4.242054e-06	-1.926653e-09	-2.999416e+01	-1.227390e+02
8.000000e-07	-4.213123e-06	-1.919330e-09	-2.978959e+01	-1.224491e+02
8.100000e-07	-4.183809e-06	-1.910825e-09	-2.958232e+01	-1.221611e+02
8.200000e-07	-4.154124e-06	-1.908479e-09	-2.937243e+01	-1.218743e+02
8.300000e-07	-4.124164e-06	-1.906355e-09	-2.916059e+01	-1.215880e+02
8.400000e-07	-4.093962e-06	-1.897391e-09	-2.894704e+01	-1.213014e+02
8.500000e-07	-4.063528e-06	-1.883878e-09	-2.873186e+01	-1.210137e+02
8.600000e-07	-4.032807e-06	-1.879048e-09	-2.851464e+01	-1.207243e+02
8.700000e-07	-4.001740e-06	-1.883360e-09	-2.829497e+01	-1.204326e+02
8.800000e-07	-3.970490e-06	-1.883930e-09	-2.807402e+01	-1.201382e+02
8.900000e-07	-3.939050e-06	-1.875816e-09	-2.785172e+01	-1.198409e+02
9.000000e-07	-3.907384e-06	-1.866908e-09	-2.762781e+01	-1.195406e+02
9.100000e-07	-3.875527e-06	-1.861907e-09	-2.740256e+01	-1.192375e+02
9.200000e-07	-3.843442e-06	-1.856469e-09	-2.717570e+01	-1.189319e+02
9.300000e-07	-3.811166e-06	-1.846297e-09	-2.694749e+01	-1.186241e+02
9.400000e-07	-3.778640e-06	-1.841011e-09	-2.671751e+01	-1.183145e+02
9.500000e-07	-3.745695e-06	-1.848791e-09	-2.648457e+01	-1.180037e+02
9.600000e-07	-3.712305e-06	-1.859512e-09	-2.624848e+01	-1.176920e+02
9.700000e-07	-3.678482e-06	-1.857685e-09	-2.600933e+01	-1.173800e+02
9.800000e-07	-3.644218e-06	-1.843722e-09	-2.576705e+01	-1.170677e+02
9.900000e-07	-3.609606e-06	-1.828592e-09	-2.552232e+01	-1.167553e+02
1.000000e-06	-3.574679e-06	-1.817844e-09	-2.527537e+01	-1.164428e+02
1.010000e-06	-3.539410e-06	-1.808956e-09	-2.502599e+01	-1.161298e+02
1.020000e-06	-3.503942e-06	-1.802811e-09	-2.477521e+01	-1.158160e+02
1.030000e-06	-3.468361e-06	-1.805052e-09	-2.452363e+01	-1.155006e+02
1.040000e-06	-3.432566e-06	-1.814091e-09	-2.427053e+01	-1.151830e+02
1.050000e-06	-3.396556e-06	-1.820041e-09	-2.401592e+01	-1.148622e+02
1.060000e-06	-3.360414e-06	-1.811631e-09	-2.376037e+01	-1.145373e+02
1.070000e-06	-3.324137e-06	-1.791142e-09	-2.350387e+01	-1.142073e+02
1.080000e-06	-3.287664e-06	-1.768656e-09	-2.324598e+01	-1.138714e+02
1.090000e-06	-3.250943e-06	-1.754063e-09	-2.298634e+01	-1.135287e+02
1.100000e-06	-3.213914e-06	-1.749621e-09	-2.272451e+01	-1.131785e+02
1.110000e-06	-3.176607e-06	-1.752099e-09	-2.246073e+01	-1.128203e+02
1.120000e-06	-3.139103e-06	-1.757333e-09	-2.219555e+01	-1.124538e+02
1.130000e-06	-3.101397e-06	-1.761586e-09	-2.192895e+01	-1.120789e+02
1.140000e-06	-3.063497e-06	-1.757107e-09	-2.166097e+01	-1.116958e+02
1.150000e-06	-3.025388e-06	-1.743740e-09	-2.139151e+01	-1.113048e+02
1.160000e-06	-2.987003e-06	-1.726343e-09	-2.112010e+01	-1.109065e+02
1.170000e-06	-2.948389e-06	-1.710316e-09	-2.084708e+01	-1.105016e+02
1.180000e-06	-2.909606e-06	-1.698764e-09	-2.057286e+01	-1.100909e+02
1.190000e-06	-2.870652e-06	-1.692764e-09	-2.029743e+01	-1.096755e+02
1.200000e-06	-2.831504e-06	-1.691523e-09	-2.002062e+01	-1.092561e+02
1.210000e-06	-2.792163e-06	-1.693540e-09	-1.974246e+01	-1.088337e+02
1.220000e-06	-2.752689e-06	-1.693542e-09	-1.946335e+01	-1.084092e+02
1.230000e-06	-2.713074e-06	-1.686313e-09	-1.918325e+01	-1.079831e+02
1.240000e-06	-2.673302e-06	-1.672562e-09	-1.890203e+01	-1.075561e+02
1.250000e-06	-2.633424e-06	-1.658344e-09	-1.862007e+01	-1.071283e+02
1.260000e-06	-2.593466e-06	-1.648345e-09	-1.833754e+01	-1.067000e+02
1.270000e-06	-2.553374e-06	-1.640940e-09	-1.805406e+01	-1.062710e+02
1.280000e-06	-2.513091e-06	-1.636199e-09	-1.776923e+01	-1.058408e+02
1.290000e-06	-2.472677e-06	-1.634124e-09	-1.748348e+01	-1.054091e+02
1.300000e-06	-2.432135e-06	-1.630591e-09	-1.719682e+01	-1.049750e+02
1.310000e-06	-2.391379e-06	-1.621334e-09	-1.690864e+01	-1.045378e+02
1.320000e-06	-2.350392e-06	-1.605467e-09	-1.661884e+01	-1.040966e+02
1.330000e-06	-2.309067e-06	-1.588834e-09	-1.632665e+01	-1.036504e+02
1.340000e-06	-2.267381e-06	-1.578957e-09	-1.603190e+01	-1.031984e+02
1.350000e-06	-2.225470e-06	-1.574713e-09	-1.573556e+01	-1.027396e+02
1.360000e-06	-2.183262e-06	-1.571447e-09	-1.543712e+01	-1.022735e+02
1.370000e-06	-2.140678e-06	-1.564942e-09	-1.513602e+01	-1.017992e+02
1.380000e-06	-2.097851e-06	-1.555417e-09	-1.483321e+01	-1.013165e+02
1.390000e-06	-2.054849e-06	-1.545561e-09	-1.452916e+01	-1.008250e+02
1.400000e-06	-2.011742e-06	-1.533668e-09	-1.422436e+01	-1.003246e+02
1.410000e-06	-1.968492e-06	-1.522189e-09	-1.391855e+01	-9.981533e+01
1.420000e-06	-1.925038e-06	-1.514573e-09	-1.361130e+01	-9.929732e+01
1.430000e-06	-1.881478e-06	-1.511502e-09	-1.330330e+01	-9.877083e+01
1.440000e-06	-1.837832e-06	-1.508748e-09	-1.299470e+01	-9.823618e+01
1.450000e-06	-1.794117e-06	-1.499547e-09	-1.268560e+01	-9.769367e+01
1.460000e-06	-1.750308e-06	-1.484916e-09	-1.237585e+01	-9.714360e+01
1.470000e-06	-1.706392e-06	-1.470260e-09	-1.206533e+01	-9.658620e+01
1.480000e-06	-1.662425e-06	-1.458255e-09	-1.175446e+01	-9.602160e+01
1.490000e-06	-1.618375e-06	-1.449942e-09	-1.144299e+01	-9.544979e+01
1.500000e-06	-1.574203e-06	-1.445950e-09	-1.113067e+01	-9.487061e+01
1.510000e-06	-1.529983e-06	-1.443715e-09	-1.081800e+01	-9.428376e+01
1.520000e-06	-1.485680e-06	-1.437994e-09	-1.050475e+01	-9.368877e+01
1.530000e-06	-1.441252e-06	-1.425189e-09	-1.019061e+01	-9.308501e+01
1.540000e-06	-1.396788e-06	-1.405996e-09	-9.876224e+00	-9.247175e+01
1.550000e-06	-1.352229e-06	-1.386188e-09	-9.561163e+00	-9.184818e+01
1.560000e-06	-1.307626e-06	-1.371807e-09	-9.245788e+00	-9.121340e+01
1.570000e-06	-1.262993e-06	-1.364614e-09	-8.930205e+00	-9.056653e+01
1.580000e-06	-1.218143e-06	-1.363283e-09	-8.613086e+00	-8.990672e+01
1.590000e-06	-1.173124e-06	-1.361620e-09	-8.294767e+00	-8.923321e+01
1.600000e-06	-1.128061e-06	-1.356407e-09	-7.976145e+00	-8.854532e+01
1.610000e-06	-1.082845e-06	-1.346701e-09	-7.656436e+00	-8.784255e+01
1.620000e-06	-1.037539e-06	-1.331968e-09	-7.336096e+00	-8.712457e+01
1.630000e-06	-9.922866e-07	-1.311558e-09	-7.016129e+00	-8.639121e+01
1.640000e-06	-9.469801e-07	-1.290653e-09	-6.695782e+00	-8.564249e+01
1.650000e-06	-9.016172e-07	-1.275522e-09	-6.375035e+00	-8.487862e+01
1.660000e-06	-8.561148e-07	-1.267219e-09	-6.053303e+00	-8.409992e+01
1.670000e-06	-8.105021e-07	-1.262565e-09	-5.730791e+00	-8.330684e+01
1.680000e-06	-7.648653e-07	-1.257939e-09	-5.408109e+00	-8.249990e+01
1.690000e-06	-7.191780e-07	-1.249241e-09	-5.085069e+00	-8.167962e+01
1.700000e-06	-6.735013e-07	-1.234867e-09	-4.762104e+00	-8.084649e+01
1.710000e-06	-6.277904e-07	-1.216462e-09	-4.438898e+00	-8.000091e+01
1.720000e-06	-5.820109e-07	-1.195684e-09	-4.115206e+00	-7.914315e+01
1.730000e-06	-5.361332e-07	-1.177611e-09	-3.790820e+00	-7.827324e+01
1.740000e-06	-4.902296e-07	-1.165478e-09	-3.466250e+00	-7.739103e+01
1.750000e-06	-4.443885e-07	-1.154567e-09	-3.142123e+00	-7.649609e+01
1.760000e-06	-3.985173e-07	-1.141574e-09	-2.817783e+00	-7.558771e+01
1.770000e-06	-3.525712e-07	-1.127563e-09	-2.492914e+00	-7.466490e+01
1.780000e-06	-3.066174e-07	-1.112780e-09	-2.167990e+00	-7.372640e+01
1.790000e-06	-2.606268e-07	-1.097572e-09	-1.842805e+00	-7.277071e+01
1.800000e-06	-2.146270e-07	-1.081618e-09	-1.517556e+00	-7.179612e+01
1.810000e-06	-1.686082e-07	-1.063654e-09	-1.192172e+00	-7.080073e+01
1.820000e-06	-1.225737e-07	-1.041588e-09	-8.666778e-01	-6.978254e+01
1.830000e-06	-7.663299e-08	-1.020054e-09	-5.418464e-01	-6.873949e+01
1.840000e-06	-3.062742e-08	-1.001699e-09	-2.165563e-01	-6.766952e+01
1.850000e-06	1.548083e-08	-9.840962e-10	1.094598e-01	-6.657062e+01
1.860000e-06	6.150618e-08	-9.681208e-10	4.348898e-01	-6.544091e+01
1.870000e-06	1.074536e-07	-9.559346e-10	7.597689e-01	-6.427865e+01
1.880000e-06	1.534658e-07	-9.461333e-10	1.085106e+00	-6.308232e+01
1.890000e-06	1.995429e-07	-9.305659e-10	1.410901e+00	-6.185059e+01
1.900000e-06	2.455678e-07	-9.045283e-10	1.736329e+00	-6.058240e+01
1.910000e-06	2.914841e-07	-8.737711e-10	2.060987e+00	-5.927694e+01
1.920000e-06	3.373945e-07	-8.467360e-10	2.385604e+00	-5.793360e+01
1.930000e-06	3.833339e-07	-8.250120e-10	2.710427e+00	-5.655203e+01
1.940000e-06	4.291214e-07	-8.055092e-10	3.034175e+00	-5.513202e+01
1.950000e-06	4.747792e-07	-7.857851e-10	3.357006e+00	-5.367356e+01
1.960000e-06	5.204670e-07	-7.668013e-10	3.680049e+00	-5.217670e+01
1.970000e-06	5.661989e-07	-7.476264e-10	4.003404e+00	-5.064160e+01
1.980000e-06	6.119162e-07	-7.234734e-10	4.326656e+00	-4.906840e+01
1.990000e-06	6.576647e-07	-6.947033e-10	4.650129e+00	-4.745727e+01
2.000000e-06	7.033840e-07	-6.644688e-10	4.973394e+00	-4.580828e+01
2.010000e-06	7.489563e-07	-6.368837e-10	5.295621e+00	-4.412146e+01
2.020000e-06	7.944790e-07	-6.115536e-10	5.617497e+00	-4.239671e+01
2.030000e-06	8.399583e-07	-5.885383e-10	5.939066e+00	-4.063384e+01
2.040000e-06	8.853957e-07	-5.653484e-10	6.260339e+00	-3.883256e+01
2.050000e-06	9.307848e-07	-5.420242e-10	6.581270e+00	-3.699249e+01
2.060000e-06	9.760009e-07	-5.154892e-10	6.900978e+00	-3.511314e+01
2.070000e-06	1.021083e-06	-4.818228e-10	7.219739e+00	-3.319402e+01
2.080000e-06	1.066159e-06	-4.444123e-10	7.538456e+00	-3.123461e+01
2.090000e-06	1.111152e-06	-4.090447e-10	7.856585e+00	-2.923441e+01
2.100000e-06	1.156028e-06	-3.781198e-10	8.173889e+00	-2.719298e+01
2.110000e-06	1.200867e-06	-3.490915e-10	8.490934e+00	-2.511000e+01
2.120000e-06	1.245629e-06	-3.211297e-10	8.807426e+00	-2.298527e+01
2.130000e-06	1.290345e-06	-2.931951e-10	9.123600e+00	-2.081876e+01
2.140000e-06	1.334934e-06	-2.634120e-10	9.438876e+00	-1.861065e+01
2.150000e-06	1.379320e-06	-2.300161e-10	9.752713e+00	-1.636131e+01
2.160000e-06	1.423655e-06	-1.940005e-10	1.006619e+01	-1.407134e+01
2.170000e-06	1.467934e-06	-1.569701e-10	1.037927e+01	-1.174155e+01
2.180000e-06	1.512115e-06	-1.218127e-10	1.069166e+01	-9.372992e+00
2.190000e-06	1.556246e-06	-9.067379e-11	1.100370e+01	-6.966913e+00
2.200000e-06	1.600319e-06	-6.017986e-11	1.131532e+01	-4.524754e+00
2.210000e-06	1.644313e-06	-2.634847e-11	1.162639e+01	-2.048137e+00
2.220000e-06	1.688254e-06	9.580105e-12	1.193708e+01	4.611653e-01
2.230000e-06	1.732124e-06	4.934719e-11	1.224728e+01	3.001240e+00
2.240000e-06	1.775944e-06	9.206601e-11	1.255711e+01	5.570057e+00
2.250000e-06	1.819727e-06	1.350640e-10	1.286668e+01	8.165484e+00
2.260000e-06	1.863439e-06	1.754631e-10	1.317576e+01	1.078529e+01
2.270000e-06	1.907072e-06	2.145968e-10	1.348427e+01	1.342717e+01
2.280000e-06	1.950625e-06	2.526453e-10	1.379222e+01	1.608873e+01
2.290000e-06	1.994028e-06	2.893463e-10	1.409911e+01	1.876747e+01
2.300000e-06	2.037254e-06	3.263401e-10	1.440474e+01	2.146081e+01
2.310000e-06	2.080306e-06	3.652748e-10	1.470915e+01	2.416608e+01
2.320000e-06	2.123117e-06	4.076997e-10	1.501185e+01	2.688046e+01
2.330000e-06	2.165740e-06	4.512170e-10	1.531323e+01	2.960104e+01
2.340000e-06	2.208149e-06	4.926611e-10	1.561309e+01	3.232474e+01
2.350000e-06	2.250195e-06	5.327296e-10	1.591038e+01	3.504836e+01
2.360000e-06	2.291886e-06	5.722379e-10	1.620516e+01	3.776857e+01
2.370000e-06	2.333260e-06	6.121076e-10	1.649771e+01	4.048188e+01
2.380000e-06	2.374382e-06	6.525391e-10	1.678847e+01	4.318472e+01
2.390000e-06	2.415232e-06	6.914769e-10	1.707730e+01	4.587340e+01
2.400000e-06	2.455776e-06	7.292766e-10	1.736398e+01	4.854418e+01
2.410000e-06	2.496113e-06	7.671348e-10	1.764919e+01	5.119329e+01
2.420000e-06	2.536320e-06	8.068354e-10	1.793348e+01	5.381699e+01
2.430000e-06	2.576430e-06	8.499569e-10	1.821708e+01	5.641161e+01
2.440000e-06	2.616381e-06	8.932492e-10	1.849956e+01	5.897359e+01
2.450000e-06	2.656183e-06	9.331356e-10	1.878098e+01	6.149957e+01
2.460000e-06	2.695916e-06	9.714004e-10	1.906192e+01	6.398640e+01
2.470000e-06	2.735550e-06	1.008561e-09	1.934216e+01	6.643122e+01
2.480000e-06	2.775063e-06	1.041223e-09	1.962155e+01	6.883146e+01
2.490000e-06	2.814401e-06	1.069446e-09	1.989970e+01	7.118493e+01
2.500000e-06	2.853500e-06	1.099488e-09	2.017615e+01	7.348978e+01
2.510000e-06	2.892391e-06	1.135480e-09	2.045114e+01	7.574455e+01
2.520000e-06	2.931087e-06	1.174781e-09	2.072474e+01	7.794816e+01
2.530000e-06	2.969533e-06	1.213591e-09	2.099658e+01	8.009989e+01
2.540000e-06	3.007788e-06	1.251873e-09	2.126707e+01	8.219936e+01
2.550000e-06	3.045918e-06	1.287262e-09	2.153667e+01	8.424650e+01
2.560000e-06	3.083866e-06	1.316344e-09	2.180499e+01	8.624148e+01
2.570000e-06	3.121634e-06	1.339294e-09	2.207204e+01	8.818471e+01
2.580000e-06	3.159282e-06	1.359531e-09	2.233823e+01	9.007673e+01
2.590000e-06	3.196725e-06	1.383044e-09	2.260298e+01	9.191821e+01
2.600000e-06	3.233792e-06	1.413228e-09	2.286507e+01	9.370985e+01
2.610000e-06	3.270483e-06	1.447478e-09	2.312450e+01	9.545238e+01
2.620000e-06	3.306947e-06	1.481835e-09	2.338232e+01	9.714648e+01
2.630000e-06	3.343195e-06	1.512387e-09	2.363862e+01	9.879274e+01
2.640000e-06	3.379244e-06	1.537501e-09	2.389351e+01	1.003917e+02
2.650000e-06	3.415219e-06	1.555737e-09	2.414788e+01	1.019437e+02
2.660000e-06	3.451136e-06	1.568175e-09	2.440183e+01	1.034492e+02
2.670000e-06	3.486946e-06	1.580063e-09	2.465504e+01	1.049082e+02
2.680000e-06	3.522623e-06	1.599159e-09	2.490730e+01	1.063210e+02
2.690000e-06	3.558197e-06	1.627717e-09	2.515883e+01	1.076876e+02
2.700000e-06	3.593510e-06	1.658309e-09	2.540852e+01	1.090079e+02
2.710000e-06	3.628444e-06	1.684834e-09	2.565552e+01	1.102821e+02
2.720000e-06	3.662996e-06	1.703896e-09	2.589983e+01	1.115103e+02
2.730000e-06	3.697066e-06	1.715719e-09	2.614073e+01	1.126926e+02
2.740000e-06	3.730634e-06	1.725039e-09	2.637807e+01	1.138293e+02
2.750000e-06	3.763654e-06	1.735991e-09	2.661154e+01	1.149208e+02
2.760000e-06	3.796214e-06	1.753026e-09	2.684177e+01	1.159677e+02
2.770000e-06	3.828483e-06	1.774700e-09	2.706993e+01	1.169708e+02
2.780000e-06	3.860519e-06	1.795940e-09	2.729644e+01	1.179310e+02
2.790000e-06	3.892406e-06	1.814638e-09	2.752191e+01	1.188495e+02
2.800000e-06	3.924163e-06	1.826090e-09	2.774645e+01	1.197274e+02
2.810000e-06	3.955743e-06	1.828113e-09	2.796974e+01	1.205663e+02
2.820000e-06	3.987106e-06	1.828416e-09	2.819150e+01	1.213677e+02
2.830000e-06	4.018200e-06	1.836299e-09	2.841136e+01	1.221331e+02
2.840000e-06	4.048966e-06	1.851881e-09	2.862890e+01	1.228643e+02
2.850000e-06	4.079389e-06	1.869977e-09	2.884401e+01	1.235629e+02
2.860000e-06	4.109527e-06	1.885438e-09	2.905710e+01	1.242307e+02
2.870000e-06	4.139427e-06	1.896022e-09	2.926851e+01	1.248694e+02
2.880000e-06	4.169069e-06	1.901580e-09	2.947810e+01	1.254804e+02
2.890000e-06	4.198449e-06	1.901533e-09	2.968584e+01	1.260654e+02
2.900000e-06	4.227633e-06	1.900026e-09	2.989219e+01	1.266257e+02
