# Temperatura_=_16.79
# Concentracion g/m^3_=_4090.0
# C_Vs_to_Am_M_A/Vsm_=_65563218390.804596
# pendiente_HvsI_1/m_=_3716.3
# ordenada_HvsI_A/m_=_1297.0
# frecuencia_Hz_=_135088.147727847

Tiempo_(s)	Campo_(V.s)	Magnetizacion_(V.s)	Campo_(kA/m)	Magnetizacion_(A/m)
0.000000e+00	-5.432124e-06	-1.261995e-09	-3.839137e+01	-8.589003e+01
1.000000e-08	-5.432306e-06	-1.257963e-09	-3.839265e+01	-8.575500e+01
2.000000e-08	-5.432234e-06	-1.252788e-09	-3.839214e+01	-8.560021e+01
3.000000e-08	-5.431912e-06	-1.245215e-09	-3.838987e+01	-8.542659e+01
4.000000e-08	-5.431338e-06	-1.241848e-09	-3.838581e+01	-8.523606e+01
5.000000e-08	-5.430362e-06	-1.245291e-09	-3.837891e+01	-8.503157e+01
6.000000e-08	-5.428750e-06	-1.259190e-09	-3.836752e+01	-8.481707e+01
7.000000e-08	-5.426560e-06	-1.290276e-09	-3.835204e+01	-8.459735e+01
8.000000e-08	-5.423827e-06	-1.284985e-09	-3.833273e+01	-8.437794e+01
9.000000e-08	-5.420387e-06	-1.198895e-09	-3.830842e+01	-8.416490e+01
1.000000e-07	-5.416404e-06	-1.180851e-09	-3.828027e+01	-8.396462e+01
1.100000e-07	-5.412105e-06	-1.308328e-09	-3.824988e+01	-8.378354e+01
1.200000e-07	-5.407667e-06	-1.300840e-09	-3.821852e+01	-8.362792e+01
1.300000e-07	-5.403050e-06	-1.179156e-09	-3.818589e+01	-8.350357e+01
1.400000e-07	-5.398079e-06	-1.156488e-09	-3.815075e+01	-8.341559e+01
1.500000e-07	-5.392728e-06	-1.349365e-09	-3.811294e+01	-8.336814e+01
1.600000e-07	-5.386950e-06	-1.398826e-09	-3.807210e+01	-8.336424e+01
1.700000e-07	-5.380777e-06	-1.187867e-09	-3.802847e+01	-8.340561e+01
1.800000e-07	-5.374115e-06	-1.140611e-09	-3.798139e+01	-8.349257e+01
1.900000e-07	-5.366989e-06	-1.297700e-09	-3.793102e+01	-8.362400e+01
2.000000e-07	-5.359637e-06	-1.344738e-09	-3.787906e+01	-8.379729e+01
2.100000e-07	-5.352122e-06	-1.223116e-09	-3.782595e+01	-8.400848e+01
2.200000e-07	-5.344361e-06	-1.261400e-09	-3.777110e+01	-8.425232e+01
2.300000e-07	-5.336293e-06	-1.391107e-09	-3.771408e+01	-8.452249e+01
2.400000e-07	-5.327791e-06	-1.365256e-09	-3.765400e+01	-8.481179e+01
2.500000e-07	-5.318770e-06	-1.303974e-09	-3.759024e+01	-8.511238e+01
2.600000e-07	-5.309204e-06	-1.401541e-09	-3.752263e+01	-8.541611e+01
2.700000e-07	-5.298863e-06	-1.431849e-09	-3.744955e+01	-8.571474e+01
2.800000e-07	-5.287996e-06	-1.320963e-09	-3.737274e+01	-8.600029e+01
2.900000e-07	-5.276772e-06	-1.321233e-09	-3.729342e+01	-8.626526e+01
3.000000e-07	-5.265168e-06	-1.425609e-09	-3.721141e+01	-8.650294e+01
3.100000e-07	-5.253215e-06	-1.371314e-09	-3.712693e+01	-8.670757e+01
3.200000e-07	-5.240844e-06	-1.284812e-09	-3.703950e+01	-8.687453e+01
3.300000e-07	-5.228051e-06	-1.365702e-09	-3.694908e+01	-8.700049e+01
3.400000e-07	-5.214797e-06	-1.421612e-09	-3.685541e+01	-8.708342e+01
3.500000e-07	-5.201203e-06	-1.342953e-09	-3.675934e+01	-8.712264e+01
3.600000e-07	-5.187347e-06	-1.350536e-09	-3.666141e+01	-8.711877e+01
3.700000e-07	-5.172929e-06	-1.401591e-09	-3.655951e+01	-8.707363e+01
3.800000e-07	-5.157875e-06	-1.349275e-09	-3.645312e+01	-8.699008e+01
3.900000e-07	-5.142388e-06	-1.311730e-09	-3.634366e+01	-8.687188e+01
4.000000e-07	-5.126385e-06	-1.367865e-09	-3.623056e+01	-8.672346e+01
4.100000e-07	-5.109852e-06	-1.351113e-09	-3.611371e+01	-8.654967e+01
4.200000e-07	-5.093020e-06	-1.299110e-09	-3.599475e+01	-8.635562e+01
4.300000e-07	-5.075955e-06	-1.355599e-09	-3.587415e+01	-8.614638e+01
4.400000e-07	-5.058569e-06	-1.391288e-09	-3.575128e+01	-8.592682e+01
4.500000e-07	-5.040854e-06	-1.339243e-09	-3.562608e+01	-8.570140e+01
4.600000e-07	-5.022851e-06	-1.317465e-09	-3.549884e+01	-8.547402e+01
4.700000e-07	-5.004453e-06	-1.348994e-09	-3.536882e+01	-8.524791e+01
4.800000e-07	-4.985628e-06	-1.331595e-09	-3.523577e+01	-8.502556e+01
4.900000e-07	-4.966476e-06	-1.307910e-09	-3.510041e+01	-8.480864e+01
5.000000e-07	-4.946961e-06	-1.304601e-09	-3.496249e+01	-8.459808e+01
5.100000e-07	-4.927159e-06	-1.307033e-09	-3.482254e+01	-8.439405e+01
5.200000e-07	-4.907153e-06	-1.315618e-09	-3.468115e+01	-8.419609e+01
5.300000e-07	-4.886906e-06	-1.326878e-09	-3.453805e+01	-8.400320e+01
5.400000e-07	-4.866337e-06	-1.303330e-09	-3.439269e+01	-8.381394e+01
5.500000e-07	-4.845481e-06	-1.295786e-09	-3.424528e+01	-8.362663e+01
5.600000e-07	-4.824309e-06	-1.313218e-09	-3.409565e+01	-8.343943e+01
5.700000e-07	-4.802698e-06	-1.314653e-09	-3.394291e+01	-8.325053e+01
5.800000e-07	-4.780734e-06	-1.290822e-09	-3.378769e+01	-8.305824e+01
5.900000e-07	-4.758542e-06	-1.275195e-09	-3.363084e+01	-8.286114e+01
6.000000e-07	-4.736060e-06	-1.274052e-09	-3.347196e+01	-8.265809e+01
6.100000e-07	-4.713306e-06	-1.289728e-09	-3.331114e+01	-8.244839e+01
6.200000e-07	-4.690194e-06	-1.291601e-09	-3.314780e+01	-8.223171e+01
6.300000e-07	-4.666704e-06	-1.271582e-09	-3.298179e+01	-8.200815e+01
6.400000e-07	-4.642998e-06	-1.272746e-09	-3.281424e+01	-8.177820e+01
6.500000e-07	-4.619040e-06	-1.295533e-09	-3.264492e+01	-8.154266e+01
6.600000e-07	-4.594764e-06	-1.288079e-09	-3.247335e+01	-8.130262e+01
6.700000e-07	-4.570222e-06	-1.259913e-09	-3.229990e+01	-8.105931e+01
6.800000e-07	-4.545366e-06	-1.252871e-09	-3.212423e+01	-8.081407e+01
6.900000e-07	-4.520076e-06	-1.259175e-09	-3.194550e+01	-8.056822e+01
7.000000e-07	-4.494308e-06	-1.259593e-09	-3.176338e+01	-8.032296e+01
7.100000e-07	-4.467939e-06	-1.246851e-09	-3.157702e+01	-8.007933e+01
7.200000e-07	-4.441046e-06	-1.235818e-09	-3.138695e+01	-7.983811e+01
7.300000e-07	-4.413787e-06	-1.241113e-09	-3.119430e+01	-7.959979e+01
7.400000e-07	-4.386183e-06	-1.251949e-09	-3.099921e+01	-7.936454e+01
7.500000e-07	-4.358325e-06	-1.240500e-09	-3.080232e+01	-7.913223e+01
7.600000e-07	-4.330225e-06	-1.225248e-09	-3.060373e+01	-7.890240e+01
7.700000e-07	-4.301897e-06	-1.224724e-09	-3.040352e+01	-7.867434e+01
7.800000e-07	-4.273353e-06	-1.232032e-09	-3.020179e+01	-7.844715e+01
7.900000e-07	-4.244564e-06	-1.225539e-09	-2.999832e+01	-7.821978e+01
8.000000e-07	-4.215564e-06	-1.213609e-09	-2.979337e+01	-7.799114e+01
8.100000e-07	-4.186205e-06	-1.206949e-09	-2.958587e+01	-7.776014e+01
8.200000e-07	-4.156446e-06	-1.212293e-09	-2.937555e+01	-7.752581e+01
8.300000e-07	-4.126449e-06	-1.214820e-09	-2.916355e+01	-7.728734e+01
8.400000e-07	-4.096189e-06	-1.204604e-09	-2.894968e+01	-7.704417e+01
8.500000e-07	-4.065667e-06	-1.194669e-09	-2.873397e+01	-7.679599e+01
8.600000e-07	-4.034867e-06	-1.201699e-09	-2.851629e+01	-7.654281e+01
8.700000e-07	-4.003831e-06	-1.207680e-09	-2.829695e+01	-7.628494e+01
8.800000e-07	-3.972488e-06	-1.196623e-09	-2.807544e+01	-7.602298e+01
8.900000e-07	-3.940938e-06	-1.178981e-09	-2.785245e+01	-7.575778e+01
9.000000e-07	-3.909293e-06	-1.171828e-09	-2.762880e+01	-7.549041e+01
9.100000e-07	-3.877391e-06	-1.171913e-09	-2.740334e+01	-7.522209e+01
9.200000e-07	-3.845320e-06	-1.168888e-09	-2.717667e+01	-7.495409e+01
9.300000e-07	-3.813079e-06	-1.162222e-09	-2.694882e+01	-7.468771e+01
9.400000e-07	-3.780539e-06	-1.166595e-09	-2.671884e+01	-7.442414e+01
9.500000e-07	-3.747652e-06	-1.175984e-09	-2.648641e+01	-7.416442e+01
9.600000e-07	-3.714368e-06	-1.175802e-09	-2.625118e+01	-7.390936e+01
9.700000e-07	-3.680582e-06	-1.163438e-09	-2.601239e+01	-7.365952e+01
9.800000e-07	-3.646353e-06	-1.151158e-09	-2.577049e+01	-7.341513e+01
9.900000e-07	-3.611803e-06	-1.147469e-09	-2.552631e+01	-7.317612e+01
1.000000e-06	-3.576943e-06	-1.143510e-09	-2.527993e+01	-7.294205e+01
1.010000e-06	-3.541778e-06	-1.136395e-09	-2.503141e+01	-7.271224e+01
1.020000e-06	-3.506295e-06	-1.135273e-09	-2.478063e+01	-7.248568e+01
1.030000e-06	-3.470512e-06	-1.141846e-09	-2.452773e+01	-7.226119e+01
1.040000e-06	-3.434596e-06	-1.146099e-09	-2.427390e+01	-7.203742e+01
1.050000e-06	-3.398542e-06	-1.138807e-09	-2.401909e+01	-7.181295e+01
1.060000e-06	-3.362351e-06	-1.123645e-09	-2.376331e+01	-7.158637e+01
1.070000e-06	-3.326028e-06	-1.115279e-09	-2.350660e+01	-7.135631e+01
1.080000e-06	-3.289396e-06	-1.109317e-09	-2.324770e+01	-7.112158e+01
1.090000e-06	-3.252516e-06	-1.104142e-09	-2.298705e+01	-7.088118e+01
1.100000e-06	-3.215420e-06	-1.099785e-09	-2.272488e+01	-7.063436e+01
1.110000e-06	-3.178086e-06	-1.101874e-09	-2.246102e+01	-7.038066e+01
1.120000e-06	-3.140534e-06	-1.105168e-09	-2.219562e+01	-7.011990e+01
1.130000e-06	-3.102790e-06	-1.102054e-09	-2.192887e+01	-6.985222e+01
1.140000e-06	-3.064851e-06	-1.089308e-09	-2.166074e+01	-6.957801e+01
1.150000e-06	-3.026701e-06	-1.075780e-09	-2.139111e+01	-6.929793e+01
1.160000e-06	-2.988349e-06	-1.069375e-09	-2.112007e+01	-6.901279e+01
1.170000e-06	-2.949675e-06	-1.069943e-09	-2.084673e+01	-6.872357e+01
1.180000e-06	-2.910756e-06	-1.068582e-09	-2.057167e+01	-6.843128e+01
1.190000e-06	-2.871640e-06	-1.064152e-09	-2.029523e+01	-6.813694e+01
1.200000e-06	-2.832323e-06	-1.059298e-09	-2.001735e+01	-6.784149e+01
1.210000e-06	-2.792882e-06	-1.055610e-09	-1.973861e+01	-6.754574e+01
1.220000e-06	-2.753315e-06	-1.049338e-09	-1.945896e+01	-6.725032e+01
1.230000e-06	-2.713562e-06	-1.039931e-09	-1.917801e+01	-6.695562e+01
1.240000e-06	-2.673696e-06	-1.032199e-09	-1.889626e+01	-6.666180e+01
1.250000e-06	-2.633717e-06	-1.030675e-09	-1.861371e+01	-6.636875e+01
1.260000e-06	-2.593583e-06	-1.033136e-09	-1.833006e+01	-6.607611e+01
1.270000e-06	-2.553351e-06	-1.030166e-09	-1.804573e+01	-6.578329e+01
1.280000e-06	-2.513066e-06	-1.021406e-09	-1.776102e+01	-6.548953e+01
1.290000e-06	-2.472617e-06	-1.015046e-09	-1.747514e+01	-6.519390e+01
1.300000e-06	-2.431969e-06	-1.008061e-09	-1.718787e+01	-6.489541e+01
1.310000e-06	-2.391183e-06	-9.962817e-10	-1.689961e+01	-6.459303e+01
1.320000e-06	-2.350234e-06	-9.869623e-10	-1.661021e+01	-6.428579e+01
1.330000e-06	-2.309057e-06	-9.834261e-10	-1.631919e+01	-6.397280e+01
1.340000e-06	-2.267497e-06	-9.829101e-10	-1.602547e+01	-6.365333e+01
1.350000e-06	-2.225634e-06	-9.808100e-10	-1.572960e+01	-6.332686e+01
1.360000e-06	-2.183469e-06	-9.775406e-10	-1.543160e+01	-6.299307e+01
1.370000e-06	-2.140883e-06	-9.706963e-10	-1.513062e+01	-6.265190e+01
1.380000e-06	-2.097979e-06	-9.637824e-10	-1.482740e+01	-6.230352e+01
1.390000e-06	-2.054923e-06	-9.580907e-10	-1.452310e+01	-6.194834e+01
1.400000e-06	-2.011757e-06	-9.517315e-10	-1.421803e+01	-6.158696e+01
1.410000e-06	-1.968499e-06	-9.448881e-10	-1.391231e+01	-6.122014e+01
1.420000e-06	-1.925102e-06	-9.404546e-10	-1.360559e+01	-6.084873e+01
1.430000e-06	-1.881494e-06	-9.370111e-10	-1.329740e+01	-6.047364e+01
1.440000e-06	-1.837680e-06	-9.341839e-10	-1.298774e+01	-6.009577e+01
1.450000e-06	-1.793775e-06	-9.290489e-10	-1.267745e+01	-5.971590e+01
1.460000e-06	-1.749889e-06	-9.207280e-10	-1.236728e+01	-5.933472e+01
1.470000e-06	-1.705965e-06	-9.143925e-10	-1.205685e+01	-5.895269e+01
1.480000e-06	-1.661929e-06	-9.124554e-10	-1.174563e+01	-5.857006e+01
1.490000e-06	-1.617831e-06	-9.120473e-10	-1.143397e+01	-5.818681e+01
1.500000e-06	-1.573648e-06	-9.100512e-10	-1.112171e+01	-5.780264e+01
1.510000e-06	-1.529274e-06	-9.045855e-10	-1.080810e+01	-5.741698e+01
1.520000e-06	-1.484876e-06	-8.943313e-10	-1.049432e+01	-5.702902e+01
1.530000e-06	-1.440508e-06	-8.786227e-10	-1.018075e+01	-5.663768e+01
1.540000e-06	-1.396101e-06	-8.642751e-10	-9.866903e+00	-5.624172e+01
1.550000e-06	-1.351635e-06	-8.556291e-10	-9.552640e+00	-5.583975e+01
1.560000e-06	-1.307062e-06	-8.536427e-10	-9.237623e+00	-5.543030e+01
1.570000e-06	-1.262320e-06	-8.567641e-10	-8.921406e+00	-5.501188e+01
1.580000e-06	-1.217351e-06	-8.600692e-10	-8.603592e+00	-5.458304e+01
1.590000e-06	-1.172375e-06	-8.585307e-10	-8.285724e+00	-5.414241e+01
1.600000e-06	-1.127352e-06	-8.499846e-10	-7.967521e+00	-5.368878e+01
1.610000e-06	-1.082169e-06	-8.341459e-10	-7.648198e+00	-5.322110e+01
1.620000e-06	-1.036916e-06	-8.162987e-10	-7.328371e+00	-5.273855e+01
1.630000e-06	-9.915040e-07	-8.019595e-10	-7.007423e+00	-5.224052e+01
1.640000e-06	-9.460650e-07	-7.949134e-10	-6.686285e+00	-5.172664e+01
1.650000e-06	-9.007080e-07	-7.942456e-10	-6.365725e+00	-5.119673e+01
1.660000e-06	-8.552325e-07	-7.939873e-10	-6.044328e+00	-5.065082e+01
1.670000e-06	-8.095787e-07	-7.931393e-10	-5.721672e+00	-5.008907e+01
1.680000e-06	-7.639555e-07	-7.881885e-10	-5.399232e+00	-4.951177e+01
1.690000e-06	-7.183307e-07	-7.762009e-10	-5.076779e+00	-4.891925e+01
1.700000e-06	-6.726243e-07	-7.580064e-10	-4.753751e+00	-4.831186e+01
1.710000e-06	-6.269587e-07	-7.413153e-10	-4.431011e+00	-4.768987e+01
1.720000e-06	-5.812622e-07	-7.305645e-10	-4.108052e+00	-4.705350e+01
1.730000e-06	-5.354577e-07	-7.272796e-10	-3.784331e+00	-4.640281e+01
1.740000e-06	-4.895489e-07	-7.253613e-10	-3.459871e+00	-4.573769e+01
1.750000e-06	-4.435693e-07	-7.207957e-10	-3.134912e+00	-4.505783e+01
1.760000e-06	-3.975518e-07	-7.118858e-10	-2.809685e+00	-4.436273e+01
1.770000e-06	-3.515032e-07	-6.978960e-10	-2.484238e+00	-4.365168e+01
1.780000e-06	-3.053924e-07	-6.794156e-10	-2.158351e+00	-4.292377e+01
1.790000e-06	-2.592235e-07	-6.595036e-10	-1.832054e+00	-4.217794e+01
1.800000e-06	-2.131345e-07	-6.418686e-10	-1.506321e+00	-4.141297e+01
1.810000e-06	-1.670660e-07	-6.290447e-10	-1.180733e+00	-4.062758e+01
1.820000e-06	-1.209456e-07	-6.184016e-10	-8.547789e-01	-3.982039e+01
1.830000e-06	-7.493306e-08	-6.070929e-10	-5.295870e-01	-3.899006e+01
1.840000e-06	-2.887263e-08	-5.956534e-10	-2.040564e-01	-3.813526e+01
1.850000e-06	1.723353e-08	-5.839219e-10	1.217974e-01	-3.725475e+01
1.860000e-06	6.321372e-08	-5.697465e-10	4.467609e-01	-3.634741e+01
1.870000e-06	1.092025e-07	-5.542459e-10	7.717849e-01	-3.541226e+01
1.880000e-06	1.552258e-07	-5.392006e-10	1.097054e+00	-3.444852e+01
1.890000e-06	2.012428e-07	-5.250821e-10	1.422277e+00	-3.345554e+01
1.900000e-06	2.472970e-07	-5.084216e-10	1.747763e+00	-3.243289e+01
1.910000e-06	2.933072e-07	-4.887375e-10	2.072939e+00	-3.138031e+01
1.920000e-06	3.392465e-07	-4.702129e-10	2.397614e+00	-3.029769e+01
1.930000e-06	3.851908e-07	-4.522878e-10	2.722324e+00	-2.918505e+01
1.940000e-06	4.311665e-07	-4.342999e-10	3.047256e+00	-2.804254e+01
1.950000e-06	4.772022e-07	-4.154819e-10	3.372611e+00	-2.687038e+01
1.960000e-06	5.231490e-07	-3.985228e-10	3.697339e+00	-2.566883e+01
1.970000e-06	5.690216e-07	-3.828150e-10	4.021542e+00	-2.443819e+01
1.980000e-06	6.148398e-07	-3.655768e-10	4.345361e+00	-2.317875e+01
1.990000e-06	6.605454e-07	-3.445863e-10	4.668384e+00	-2.189078e+01
2.000000e-06	7.062565e-07	-3.205752e-10	4.991445e+00	-2.057451e+01
2.010000e-06	7.519854e-07	-2.964761e-10	5.314633e+00	-1.923013e+01
2.020000e-06	7.976768e-07	-2.745516e-10	5.637556e+00	-1.785781e+01
2.030000e-06	8.432983e-07	-2.519556e-10	5.959984e+00	-1.645769e+01
2.040000e-06	8.887937e-07	-2.284650e-10	6.281521e+00	-1.502990e+01
2.050000e-06	9.341944e-07	-2.057628e-10	6.602389e+00	-1.357458e+01
2.060000e-06	9.794599e-07	-1.838726e-10	6.922302e+00	-1.209194e+01
2.070000e-06	1.024635e-06	-1.616120e-10	7.241579e+00	-1.058225e+01
2.080000e-06	1.069837e-06	-1.366489e-10	7.561040e+00	-9.045885e+00
2.090000e-06	1.114939e-06	-1.096164e-10	7.879794e+00	-7.483357e+00
2.100000e-06	1.159935e-06	-8.464251e-11	8.197805e+00	-5.895342e+00
2.110000e-06	1.204851e-06	-6.077932e-11	8.515246e+00	-4.282693e+00
2.120000e-06	1.249619e-06	-3.533061e-11	8.831641e+00	-2.646462e+00
2.130000e-06	1.294235e-06	-1.111264e-11	9.146963e+00	-9.878983e-01
2.140000e-06	1.338787e-06	1.089978e-11	9.461833e+00	6.915467e-01
2.150000e-06	1.383294e-06	3.436556e-11	9.776383e+00	2.390230e+00
2.160000e-06	1.427711e-06	5.888124e-11	1.009030e+01	4.106335e+00
2.170000e-06	1.472093e-06	8.459335e-11	1.040397e+01	5.837887e+00
2.180000e-06	1.516384e-06	1.105822e-10	1.071700e+01	7.582790e+00
2.190000e-06	1.560623e-06	1.364482e-10	1.102966e+01	9.338847e+00
2.200000e-06	1.604823e-06	1.631717e-10	1.134204e+01	1.110380e+01
2.210000e-06	1.648917e-06	1.896513e-10	1.165367e+01	1.287535e+01
2.220000e-06	1.692916e-06	2.167738e-10	1.196463e+01	1.465121e+01
2.230000e-06	1.736842e-06	2.454343e-10	1.227508e+01	1.642911e+01
2.240000e-06	1.780755e-06	2.753415e-10	1.258543e+01	1.820682e+01
2.250000e-06	1.824681e-06	3.032128e-10	1.289587e+01	1.998218e+01
2.260000e-06	1.868531e-06	3.302759e-10	1.320578e+01	2.175312e+01
2.270000e-06	1.912223e-06	3.579012e-10	1.351457e+01	2.351762e+01
2.280000e-06	1.955846e-06	3.835676e-10	1.382288e+01	2.527377e+01
2.290000e-06	1.999334e-06	4.092460e-10	1.413023e+01	2.701973e+01
2.300000e-06	2.042467e-06	4.355762e-10	1.443507e+01	2.875373e+01
2.310000e-06	2.085250e-06	4.595554e-10	1.473744e+01	3.047407e+01
2.320000e-06	2.127758e-06	4.849089e-10	1.503787e+01	3.217909e+01
2.330000e-06	2.170050e-06	5.137696e-10	1.533676e+01	3.386718e+01
2.340000e-06	2.212230e-06	5.437489e-10	1.563486e+01	3.553675e+01
2.350000e-06	2.254175e-06	5.709444e-10	1.593131e+01	3.718624e+01
2.360000e-06	2.295737e-06	5.952071e-10	1.622505e+01	3.881414e+01
2.370000e-06	2.336854e-06	6.195754e-10	1.651564e+01	4.041894e+01
2.380000e-06	2.377585e-06	6.454349e-10	1.680351e+01	4.199917e+01
2.390000e-06	2.418193e-06	6.707341e-10	1.709050e+01	4.355342e+01
2.400000e-06	2.458747e-06	6.920383e-10	1.737712e+01	4.508034e+01
2.410000e-06	2.499176e-06	7.134990e-10	1.766285e+01	4.657865e+01
2.420000e-06	2.539448e-06	7.384586e-10	1.794747e+01	4.804720e+01
2.430000e-06	2.579536e-06	7.651014e-10	1.823079e+01	4.948494e+01
2.440000e-06	2.619544e-06	7.916194e-10	1.851354e+01	5.089096e+01
2.450000e-06	2.659511e-06	8.143010e-10	1.879601e+01	5.226452e+01
2.460000e-06	2.699414e-06	8.328397e-10	1.907802e+01	5.360506e+01
2.470000e-06	2.739166e-06	8.531518e-10	1.935897e+01	5.491218e+01
2.480000e-06	2.778701e-06	8.739919e-10	1.963838e+01	5.618566e+01
2.490000e-06	2.818046e-06	8.924050e-10	1.991645e+01	5.742549e+01
2.500000e-06	2.857220e-06	9.118585e-10	2.019331e+01	5.863178e+01
2.510000e-06	2.896235e-06	9.318540e-10	2.046905e+01	5.980480e+01
2.520000e-06	2.934900e-06	9.552768e-10	2.074231e+01	6.094497e+01
2.530000e-06	2.973276e-06	9.784729e-10	2.101353e+01	6.205277e+01
2.540000e-06	3.011571e-06	9.985066e-10	2.128418e+01	6.312877e+01
2.550000e-06	3.049709e-06	1.013450e-09	2.155372e+01	6.417357e+01
2.560000e-06	3.087617e-06	1.025020e-09	2.182163e+01	6.518780e+01
2.570000e-06	3.125318e-06	1.037734e-09	2.208809e+01	6.617203e+01
2.580000e-06	3.162872e-06	1.051607e-09	2.235350e+01	6.712682e+01
2.590000e-06	3.200177e-06	1.067629e-09	2.261715e+01	6.805265e+01
2.600000e-06	3.237205e-06	1.084792e-09	2.287884e+01	6.894996e+01
2.610000e-06	3.274094e-06	1.104191e-09	2.313955e+01	6.981907e+01
2.620000e-06	3.310831e-06	1.122098e-09	2.339919e+01	7.066027e+01
2.630000e-06	3.347319e-06	1.134906e-09	2.365707e+01	7.147376e+01
2.640000e-06	3.383540e-06	1.143934e-09	2.391306e+01	7.225971e+01
2.650000e-06	3.419555e-06	1.152421e-09	2.416760e+01	7.301824e+01
2.660000e-06	3.455450e-06	1.160107e-09	2.442129e+01	7.374951e+01
2.670000e-06	3.491255e-06	1.165985e-09	2.467434e+01	7.445366e+01
2.680000e-06	3.526907e-06	1.173974e-09	2.492631e+01	7.513091e+01
2.690000e-06	3.562339e-06	1.187247e-09	2.517672e+01	7.578154e+01
2.700000e-06	3.597465e-06	1.202523e-09	2.542497e+01	7.640593e+01
2.710000e-06	3.632217e-06	1.217751e-09	2.567058e+01	7.700454e+01
2.720000e-06	3.666519e-06	1.227279e-09	2.591301e+01	7.757798e+01
2.730000e-06	3.700315e-06	1.232536e-09	2.615186e+01	7.812694e+01
2.740000e-06	3.733691e-06	1.238248e-09	2.638775e+01	7.865222e+01
2.750000e-06	3.766680e-06	1.242254e-09	2.662089e+01	7.915472e+01
2.760000e-06	3.799224e-06	1.244022e-09	2.685089e+01	7.963538e+01
2.770000e-06	3.831507e-06	1.247952e-09	2.707905e+01	8.009518e+01
2.780000e-06	3.863613e-06	1.255392e-09	2.730596e+01	8.053513e+01
2.790000e-06	3.895613e-06	1.266446e-09	2.753212e+01	8.095618e+01
2.800000e-06	3.927456e-06	1.275611e-09	2.775717e+01	8.135923e+01
2.810000e-06	3.959069e-06	1.276981e-09	2.798059e+01	8.174509e+01
2.820000e-06	3.990487e-06	1.274974e-09	2.820264e+01	8.211445e+01
2.830000e-06	4.021603e-06	1.276370e-09	2.842255e+01	8.246788e+01
2.840000e-06	4.052376e-06	1.278067e-09	2.864004e+01	8.280578e+01
2.850000e-06	4.082813e-06	1.277527e-09	2.885515e+01	8.312845e+01
2.860000e-06	4.113000e-06	1.278315e-09	2.906850e+01	8.343601e+01
2.870000e-06	4.142910e-06	1.283294e-09	2.927989e+01	8.372850e+01
2.880000e-06	4.172518e-06	1.292607e-09	2.948914e+01	8.400587e+01
2.890000e-06	4.201941e-06	1.297107e-09	2.969708e+01	8.426800e+01
2.900000e-06	4.231162e-06	1.296112e-09	2.990361e+01	8.451478e+01
