# Temperatura_=_19.8
# Concentracion g/m^3_=_4090.0
# C_Vs_to_Am_M_A/Vsm_=_65563218390.804596
# pendiente_HvsI_1/m_=_3716.3
# ordenada_HvsI_A/m_=_1297.0
# frecuencia_Hz_=_135084.18786562554

Tiempo_(s)	Campo_(V.s)	Magnetizacion_(V.s)	Campo_(kA/m)	Magnetizacion_(A/m)
0.000000e+00	-5.421484e-06	-1.215201e-09	-3.838522e+01	-8.330430e+01
1.000000e-08	-5.421654e-06	-1.213690e-09	-3.838643e+01	-8.316720e+01
2.000000e-08	-5.421539e-06	-1.214594e-09	-3.838561e+01	-8.301484e+01
3.000000e-08	-5.421231e-06	-1.212467e-09	-3.838344e+01	-8.284772e+01
4.000000e-08	-5.420637e-06	-1.209552e-09	-3.837923e+01	-8.266710e+01
5.000000e-08	-5.419610e-06	-1.215331e-09	-3.837196e+01	-8.247505e+01
6.000000e-08	-5.418117e-06	-1.225089e-09	-3.836138e+01	-8.227433e+01
7.000000e-08	-5.416117e-06	-1.210155e-09	-3.834723e+01	-8.206843e+01
8.000000e-08	-5.413444e-06	-1.177848e-09	-3.832830e+01	-8.186140e+01
9.000000e-08	-5.410077e-06	-1.181114e-09	-3.830446e+01	-8.165775e+01
1.000000e-07	-5.406135e-06	-1.209617e-09	-3.827655e+01	-8.146229e+01
1.100000e-07	-5.401835e-06	-1.231548e-09	-3.824610e+01	-8.127995e+01
1.200000e-07	-5.397394e-06	-1.224785e-09	-3.821466e+01	-8.111559e+01
1.300000e-07	-5.392745e-06	-1.196734e-09	-3.818175e+01	-8.097382e+01
1.400000e-07	-5.387823e-06	-1.230373e-09	-3.814690e+01	-8.085879e+01
1.500000e-07	-5.382508e-06	-1.234887e-09	-3.810926e+01	-8.077401e+01
1.600000e-07	-5.376800e-06	-1.235139e-09	-3.806885e+01	-8.072220e+01
1.700000e-07	-5.370752e-06	-1.159820e-09	-3.802603e+01	-8.070517e+01
1.800000e-07	-5.364245e-06	-1.155202e-09	-3.797996e+01	-8.072371e+01
1.900000e-07	-5.357248e-06	-1.185623e-09	-3.793042e+01	-8.077751e+01
2.000000e-07	-5.350076e-06	-1.244388e-09	-3.787964e+01	-8.086520e+01
2.100000e-07	-5.342727e-06	-1.245322e-09	-3.782761e+01	-8.098433e+01
2.200000e-07	-5.334953e-06	-1.237076e-09	-3.777257e+01	-8.113145e+01
2.300000e-07	-5.326869e-06	-1.252031e-09	-3.771533e+01	-8.130224e+01
2.400000e-07	-5.318569e-06	-1.276573e-09	-3.765656e+01	-8.149164e+01
2.500000e-07	-5.309890e-06	-1.289146e-09	-3.759512e+01	-8.169403e+01
2.600000e-07	-5.300620e-06	-1.280832e-09	-3.752949e+01	-8.190341e+01
2.700000e-07	-5.290721e-06	-1.310366e-09	-3.745939e+01	-8.211363e+01
2.800000e-07	-5.280224e-06	-1.324630e-09	-3.738507e+01	-8.231862e+01
2.900000e-07	-5.269118e-06	-1.317645e-09	-3.730644e+01	-8.251256e+01
3.000000e-07	-5.257506e-06	-1.285178e-09	-3.722423e+01	-8.269009e+01
3.100000e-07	-5.245557e-06	-1.297473e-09	-3.713963e+01	-8.284649e+01
3.200000e-07	-5.233178e-06	-1.284316e-09	-3.705198e+01	-8.297783e+01
3.300000e-07	-5.220425e-06	-1.295514e-09	-3.696169e+01	-8.308105e+01
3.400000e-07	-5.207403e-06	-1.301831e-09	-3.686949e+01	-8.315406e+01
3.500000e-07	-5.194057e-06	-1.323723e-09	-3.677499e+01	-8.319574e+01
3.600000e-07	-5.180261e-06	-1.300275e-09	-3.667732e+01	-8.320595e+01
3.700000e-07	-5.166022e-06	-1.311991e-09	-3.657650e+01	-8.318545e+01
3.800000e-07	-5.151393e-06	-1.292496e-09	-3.647293e+01	-8.313585e+01
3.900000e-07	-5.136227e-06	-1.267418e-09	-3.636554e+01	-8.305943e+01
4.000000e-07	-5.120405e-06	-1.246261e-09	-3.625353e+01	-8.295906e+01
4.100000e-07	-5.104046e-06	-1.277379e-09	-3.613770e+01	-8.283799e+01
4.200000e-07	-5.087334e-06	-1.282822e-09	-3.601937e+01	-8.269969e+01
4.300000e-07	-5.070364e-06	-1.286902e-09	-3.589922e+01	-8.254770e+01
4.400000e-07	-5.053080e-06	-1.295980e-09	-3.577684e+01	-8.238542e+01
4.500000e-07	-5.035421e-06	-1.297896e-09	-3.565182e+01	-8.221602e+01
4.600000e-07	-5.017439e-06	-1.271787e-09	-3.552450e+01	-8.204226e+01
4.700000e-07	-4.999114e-06	-1.256853e-09	-3.539476e+01	-8.186644e+01
4.800000e-07	-4.980468e-06	-1.251758e-09	-3.526274e+01	-8.169028e+01
4.900000e-07	-4.961466e-06	-1.245710e-09	-3.512820e+01	-8.151494e+01
5.000000e-07	-4.942045e-06	-1.254299e-09	-3.499070e+01	-8.134095e+01
5.100000e-07	-4.922272e-06	-1.260664e-09	-3.485070e+01	-8.116832e+01
5.200000e-07	-4.902255e-06	-1.257564e-09	-3.470898e+01	-8.099652e+01
5.300000e-07	-4.882043e-06	-1.251293e-09	-3.456587e+01	-8.082463e+01
5.400000e-07	-4.861637e-06	-1.258061e-09	-3.442139e+01	-8.065140e+01
5.500000e-07	-4.840932e-06	-1.245402e-09	-3.427479e+01	-8.047538e+01
5.600000e-07	-4.819836e-06	-1.240298e-09	-3.412543e+01	-8.029504e+01
5.700000e-07	-4.798382e-06	-1.237686e-09	-3.397353e+01	-8.010892e+01
5.800000e-07	-4.776563e-06	-1.238761e-09	-3.381905e+01	-7.991567e+01
5.900000e-07	-4.754489e-06	-1.225791e-09	-3.366276e+01	-7.971424e+01
6.000000e-07	-4.732120e-06	-1.226343e-09	-3.350438e+01	-7.950390e+01
6.100000e-07	-4.709300e-06	-1.223140e-09	-3.334282e+01	-7.928433e+01
6.200000e-07	-4.686116e-06	-1.227817e-09	-3.317867e+01	-7.905563e+01
6.300000e-07	-4.662669e-06	-1.223043e-09	-3.301266e+01	-7.881836e+01
6.400000e-07	-4.638984e-06	-1.227870e-09	-3.284496e+01	-7.857349e+01
6.500000e-07	-4.615025e-06	-1.225853e-09	-3.267533e+01	-7.832239e+01
6.600000e-07	-4.590801e-06	-1.226460e-09	-3.250382e+01	-7.806674e+01
6.700000e-07	-4.566355e-06	-1.213189e-09	-3.233073e+01	-7.780845e+01
6.800000e-07	-4.541599e-06	-1.205114e-09	-3.215546e+01	-7.754959e+01
6.900000e-07	-4.516455e-06	-1.196042e-09	-3.197743e+01	-7.729226e+01
7.000000e-07	-4.490887e-06	-1.196443e-09	-3.179640e+01	-7.703850e+01
7.100000e-07	-4.464798e-06	-1.194806e-09	-3.161169e+01	-7.679020e+01
7.200000e-07	-4.438193e-06	-1.197801e-09	-3.142332e+01	-7.654899e+01
7.300000e-07	-4.411175e-06	-1.198396e-09	-3.123203e+01	-7.631617e+01
7.400000e-07	-4.383790e-06	-1.201669e-09	-3.103814e+01	-7.609266e+01
7.500000e-07	-4.356020e-06	-1.196772e-09	-3.084152e+01	-7.587895e+01
7.600000e-07	-4.327962e-06	-1.188298e-09	-3.064286e+01	-7.567509e+01
7.700000e-07	-4.299761e-06	-1.180545e-09	-3.044319e+01	-7.548070e+01
7.800000e-07	-4.271395e-06	-1.178467e-09	-3.024236e+01	-7.529497e+01
7.900000e-07	-4.242815e-06	-1.177353e-09	-3.004001e+01	-7.511672e+01
8.000000e-07	-4.213924e-06	-1.174616e-09	-2.983545e+01	-7.494450e+01
8.100000e-07	-4.184635e-06	-1.175088e-09	-2.962808e+01	-7.477659e+01
8.200000e-07	-4.154989e-06	-1.174841e-09	-2.941818e+01	-7.461113e+01
8.300000e-07	-4.125097e-06	-1.174993e-09	-2.920654e+01	-7.444623e+01
8.400000e-07	-4.095014e-06	-1.167282e-09	-2.899354e+01	-7.427997e+01
8.500000e-07	-4.064686e-06	-1.160457e-09	-2.877882e+01	-7.411060e+01
8.600000e-07	-4.034082e-06	-1.155410e-09	-2.856213e+01	-7.393650e+01
8.700000e-07	-4.003125e-06	-1.158895e-09	-2.834295e+01	-7.375632e+01
8.800000e-07	-3.971809e-06	-1.158526e-09	-2.812122e+01	-7.356900e+01
8.900000e-07	-3.940303e-06	-1.156309e-09	-2.789816e+01	-7.337377e+01
9.000000e-07	-3.908638e-06	-1.147369e-09	-2.767397e+01	-7.317022e+01
9.100000e-07	-3.876783e-06	-1.143152e-09	-2.744842e+01	-7.295826e+01
9.200000e-07	-3.844764e-06	-1.137115e-09	-2.722172e+01	-7.273810e+01
9.300000e-07	-3.812543e-06	-1.134404e-09	-2.699359e+01	-7.251022e+01
9.400000e-07	-3.780037e-06	-1.132970e-09	-2.676344e+01	-7.227534e+01
9.500000e-07	-3.747210e-06	-1.140426e-09	-2.653102e+01	-7.203436e+01
9.600000e-07	-3.714133e-06	-1.143250e-09	-2.629683e+01	-7.178828e+01
9.700000e-07	-3.680805e-06	-1.140459e-09	-2.606086e+01	-7.153817e+01
9.800000e-07	-3.647047e-06	-1.128378e-09	-2.582184e+01	-7.128509e+01
9.900000e-07	-3.612784e-06	-1.118060e-09	-2.557926e+01	-7.103006e+01
1.000000e-06	-3.578121e-06	-1.108337e-09	-2.533383e+01	-7.077397e+01
1.010000e-06	-3.543078e-06	-1.104088e-09	-2.508572e+01	-7.051761e+01
1.020000e-06	-3.507655e-06	-1.101307e-09	-2.483492e+01	-7.026158e+01
1.030000e-06	-3.471965e-06	-1.104707e-09	-2.458223e+01	-7.000630e+01
1.040000e-06	-3.436106e-06	-1.107469e-09	-2.432834e+01	-6.975202e+01
1.050000e-06	-3.400118e-06	-1.104272e-09	-2.407354e+01	-6.949879e+01
1.060000e-06	-3.363971e-06	-1.093596e-09	-2.381760e+01	-6.924652e+01
1.070000e-06	-3.327637e-06	-1.080818e-09	-2.356036e+01	-6.899496e+01
1.080000e-06	-3.291132e-06	-1.071242e-09	-2.330189e+01	-6.874376e+01
1.090000e-06	-3.254387e-06	-1.065070e-09	-2.304173e+01	-6.849248e+01
1.100000e-06	-3.217342e-06	-1.062206e-09	-2.277945e+01	-6.824063e+01
1.110000e-06	-3.180109e-06	-1.061869e-09	-2.251583e+01	-6.798773e+01
1.120000e-06	-3.142601e-06	-1.063200e-09	-2.225026e+01	-6.773326e+01
1.130000e-06	-3.104858e-06	-1.059618e-09	-2.198304e+01	-6.747679e+01
1.140000e-06	-3.067065e-06	-1.051794e-09	-2.171545e+01	-6.721791e+01
1.150000e-06	-3.029053e-06	-1.041494e-09	-2.144632e+01	-6.695628e+01
1.160000e-06	-2.990752e-06	-1.034991e-09	-2.117514e+01	-6.669163e+01
1.170000e-06	-2.952283e-06	-1.029528e-09	-2.090278e+01	-6.642377e+01
1.180000e-06	-2.913582e-06	-1.025740e-09	-2.062876e+01	-6.615255e+01
1.190000e-06	-2.874675e-06	-1.019728e-09	-2.035329e+01	-6.587790e+01
1.200000e-06	-2.835671e-06	-1.015059e-09	-2.007713e+01	-6.559976e+01
1.210000e-06	-2.796333e-06	-1.010944e-09	-1.979861e+01	-6.531810e+01
1.220000e-06	-2.756801e-06	-1.009247e-09	-1.951872e+01	-6.503291e+01
1.230000e-06	-2.717113e-06	-1.005364e-09	-1.923772e+01	-6.474414e+01
1.240000e-06	-2.677243e-06	-1.003292e-09	-1.895544e+01	-6.445175e+01
1.250000e-06	-2.637302e-06	-9.992726e-10	-1.867264e+01	-6.415564e+01
1.260000e-06	-2.597175e-06	-9.960667e-10	-1.838853e+01	-6.385570e+01
1.270000e-06	-2.556985e-06	-9.898826e-10	-1.810398e+01	-6.355178e+01
1.280000e-06	-2.516789e-06	-9.816068e-10	-1.781939e+01	-6.324369e+01
1.290000e-06	-2.476433e-06	-9.730689e-10	-1.753365e+01	-6.293123e+01
1.300000e-06	-2.435860e-06	-9.665484e-10	-1.724639e+01	-6.261418e+01
1.310000e-06	-2.395180e-06	-9.609666e-10	-1.695837e+01	-6.229234e+01
1.320000e-06	-2.354428e-06	-9.556049e-10	-1.666984e+01	-6.196550e+01
1.330000e-06	-2.313400e-06	-9.515327e-10	-1.637935e+01	-6.163350e+01
1.340000e-06	-2.272059e-06	-9.500335e-10	-1.608665e+01	-6.129624e+01
1.350000e-06	-2.230474e-06	-9.481103e-10	-1.579221e+01	-6.095363e+01
1.360000e-06	-2.188595e-06	-9.422951e-10	-1.549570e+01	-6.060567e+01
1.370000e-06	-2.146418e-06	-9.335961e-10	-1.519708e+01	-6.025241e+01
1.380000e-06	-2.103977e-06	-9.268075e-10	-1.489659e+01	-5.989395e+01
1.390000e-06	-2.061318e-06	-9.221009e-10	-1.459456e+01	-5.953042e+01
1.400000e-06	-2.018432e-06	-9.163869e-10	-1.429091e+01	-5.916201e+01
1.410000e-06	-1.975387e-06	-9.095419e-10	-1.398614e+01	-5.878890e+01
1.420000e-06	-1.932215e-06	-9.041708e-10	-1.368048e+01	-5.841127e+01
1.430000e-06	-1.888841e-06	-9.008604e-10	-1.337338e+01	-5.802926e+01
1.440000e-06	-1.845223e-06	-8.979833e-10	-1.306456e+01	-5.764297e+01
1.450000e-06	-1.801503e-06	-8.958013e-10	-1.275501e+01	-5.725244e+01
1.460000e-06	-1.757703e-06	-8.906963e-10	-1.244490e+01	-5.685761e+01
1.470000e-06	-1.713763e-06	-8.836332e-10	-1.213380e+01	-5.645832e+01
1.480000e-06	-1.669702e-06	-8.747617e-10	-1.182184e+01	-5.605433e+01
1.490000e-06	-1.625548e-06	-8.666451e-10	-1.150921e+01	-5.564528e+01
1.500000e-06	-1.581370e-06	-8.604430e-10	-1.119642e+01	-5.523072e+01
1.510000e-06	-1.537097e-06	-8.561607e-10	-1.088296e+01	-5.481012e+01
1.520000e-06	-1.492708e-06	-8.511730e-10	-1.056868e+01	-5.438289e+01
1.530000e-06	-1.448265e-06	-8.461186e-10	-1.025402e+01	-5.394839e+01
1.540000e-06	-1.403790e-06	-8.404265e-10	-9.939119e+00	-5.350598e+01
1.550000e-06	-1.359254e-06	-8.321030e-10	-9.623796e+00	-5.305505e+01
1.560000e-06	-1.314599e-06	-8.191369e-10	-9.307629e+00	-5.259501e+01
1.570000e-06	-1.269803e-06	-8.065373e-10	-8.990464e+00	-5.212537e+01
1.580000e-06	-1.224946e-06	-7.994760e-10	-8.672873e+00	-5.164573e+01
1.590000e-06	-1.180033e-06	-7.962068e-10	-8.354877e+00	-5.115580e+01
1.600000e-06	-1.135127e-06	-7.894696e-10	-8.036930e+00	-5.065544e+01
1.610000e-06	-1.090148e-06	-7.811878e-10	-7.718470e+00	-5.014461e+01
1.620000e-06	-1.044975e-06	-7.737713e-10	-7.398641e+00	-4.962341e+01
1.630000e-06	-9.996770e-07	-7.674867e-10	-7.077919e+00	-4.909205e+01
1.640000e-06	-9.543561e-07	-7.579624e-10	-6.757038e+00	-4.855083e+01
1.650000e-06	-9.089869e-07	-7.449741e-10	-6.435814e+00	-4.800007e+01
1.660000e-06	-8.635103e-07	-7.342868e-10	-6.113831e+00	-4.744014e+01
1.670000e-06	-8.180130e-07	-7.277572e-10	-5.791701e+00	-4.687135e+01
1.680000e-06	-7.724711e-07	-7.216946e-10	-5.469254e+00	-4.629396e+01
1.690000e-06	-7.268642e-07	-7.133642e-10	-5.146348e+00	-4.570809e+01
1.700000e-06	-6.811520e-07	-7.029733e-10	-4.822696e+00	-4.511368e+01
1.710000e-06	-6.354384e-07	-6.927339e-10	-4.499035e+00	-4.451050e+01
1.720000e-06	-5.897211e-07	-6.829380e-10	-4.175347e+00	-4.389806e+01
1.730000e-06	-5.439021e-07	-6.721118e-10	-3.850939e+00	-4.327561e+01
1.740000e-06	-4.980979e-07	-6.623130e-10	-3.526636e+00	-4.264213e+01
1.750000e-06	-4.522409e-07	-6.554026e-10	-3.201959e+00	-4.199633e+01
1.760000e-06	-4.063518e-07	-6.478134e-10	-2.877055e+00	-4.133666e+01
1.770000e-06	-3.605199e-07	-6.345696e-10	-2.552555e+00	-4.066133e+01
1.780000e-06	-3.145768e-07	-6.193817e-10	-2.227269e+00	-3.996835e+01
1.790000e-06	-2.685165e-07	-6.060423e-10	-1.901152e+00	-3.925557e+01
1.800000e-06	-2.224990e-07	-5.939440e-10	-1.575339e+00	-3.852075e+01
1.810000e-06	-1.765701e-07	-5.782466e-10	-1.250153e+00	-3.776159e+01
1.820000e-06	-1.306114e-07	-5.633241e-10	-9.247553e-01	-3.697582e+01
1.830000e-06	-8.460754e-08	-5.534753e-10	-5.990388e-01	-3.616126e+01
1.840000e-06	-3.855184e-08	-5.421952e-10	-2.729549e-01	-3.531587e+01
1.850000e-06	7.488344e-09	-5.294920e-10	5.301902e-02	-3.443780e+01
1.860000e-06	5.347657e-08	-5.169599e-10	3.786251e-01	-3.352548e+01
1.870000e-06	9.945933e-08	-5.060416e-10	7.041926e-01	-3.257763e+01
1.880000e-06	1.453912e-07	-4.942244e-10	1.029400e+00	-3.159328e+01
1.890000e-06	1.912972e-07	-4.786884e-10	1.354424e+00	-3.057183e+01
1.900000e-06	2.373000e-07	-4.566711e-10	1.680133e+00	-2.951301e+01
1.910000e-06	2.833326e-07	-4.290549e-10	2.006053e+00	-2.841690e+01
1.920000e-06	3.293183e-07	-4.052589e-10	2.331642e+00	-2.728392e+01
1.930000e-06	3.753119e-07	-3.874719e-10	2.657286e+00	-2.611477e+01
1.940000e-06	4.212467e-07	-3.746314e-10	2.982513e+00	-2.491043e+01
1.950000e-06	4.670748e-07	-3.623489e-10	3.306986e+00	-2.367209e+01
1.960000e-06	5.128026e-07	-3.505122e-10	3.630748e+00	-2.240110e+01
1.970000e-06	5.584866e-07	-3.343471e-10	3.954201e+00	-2.109894e+01
1.980000e-06	6.041510e-07	-3.097630e-10	4.277514e+00	-1.976715e+01
1.990000e-06	6.498219e-07	-2.794372e-10	4.600873e+00	-1.840729e+01
2.000000e-06	6.954743e-07	-2.516599e-10	4.924101e+00	-1.702089e+01
2.010000e-06	7.410252e-07	-2.305488e-10	5.246611e+00	-1.560941e+01
2.020000e-06	7.865364e-07	-2.156543e-10	5.568840e+00	-1.417424e+01
2.030000e-06	8.320091e-07	-2.029891e-10	5.890796e+00	-1.271661e+01
2.040000e-06	8.774313e-07	-1.874637e-10	6.212394e+00	-1.123765e+01
2.050000e-06	9.227838e-07	-1.655136e-10	6.533500e+00	-9.738367e+00
2.060000e-06	9.680803e-07	-1.390099e-10	6.854208e+00	-8.219605e+00
2.070000e-06	1.013278e-06	-1.089436e-10	7.174215e+00	-6.682111e+00
2.080000e-06	1.058335e-06	-7.745302e-11	7.493227e+00	-5.126530e+00
2.090000e-06	1.103401e-06	-4.934601e-11	7.812309e+00	-3.553431e+00
2.100000e-06	1.148409e-06	-2.829575e-11	8.130975e+00	-1.963339e+00
2.110000e-06	1.193294e-06	-1.121269e-11	8.448770e+00	-3.567569e-01
2.120000e-06	1.238053e-06	7.906310e-12	8.765673e+00	1.265796e+00
2.130000e-06	1.282696e-06	3.085239e-11	9.081755e+00	2.903760e+00
2.140000e-06	1.327269e-06	5.503791e-11	9.397338e+00	4.556507e+00
2.150000e-06	1.371764e-06	7.939569e-11	9.712371e+00	6.223319e+00
2.160000e-06	1.416159e-06	1.072521e-10	1.002670e+01	7.903366e+00
2.170000e-06	1.460444e-06	1.359548e-10	1.034025e+01	9.595691e+00
2.180000e-06	1.504750e-06	1.635855e-10	1.065394e+01	1.129920e+01
2.190000e-06	1.549070e-06	1.877396e-10	1.096774e+01	1.301267e+01
2.200000e-06	1.593301e-06	2.089779e-10	1.128090e+01	1.473472e+01
2.210000e-06	1.637463e-06	2.314532e-10	1.159357e+01	1.646384e+01
2.220000e-06	1.681540e-06	2.567217e-10	1.190565e+01	1.819838e+01
2.230000e-06	1.725520e-06	2.821506e-10	1.221703e+01	1.993659e+01
2.240000e-06	1.769400e-06	3.090689e-10	1.252771e+01	2.167659e+01
2.250000e-06	1.813259e-06	3.383132e-10	1.283825e+01	2.341639e+01
2.260000e-06	1.857039e-06	3.690007e-10	1.314822e+01	2.515395e+01
2.270000e-06	1.900700e-06	3.986123e-10	1.345735e+01	2.688714e+01
2.280000e-06	1.944259e-06	4.276625e-10	1.376575e+01	2.861379e+01
2.290000e-06	1.987652e-06	4.560100e-10	1.407298e+01	3.033166e+01
2.300000e-06	2.030824e-06	4.811485e-10	1.437865e+01	3.203851e+01
2.310000e-06	2.073750e-06	5.041393e-10	1.468258e+01	3.373210e+01
2.320000e-06	2.116352e-06	5.261250e-10	1.498421e+01	3.541018e+01
2.330000e-06	2.158687e-06	5.472588e-10	1.528395e+01	3.707052e+01
2.340000e-06	2.200805e-06	5.696668e-10	1.558215e+01	3.871095e+01
2.350000e-06	2.242574e-06	5.956514e-10	1.587789e+01	4.032934e+01
2.360000e-06	2.283945e-06	6.249983e-10	1.617080e+01	4.192363e+01
2.370000e-06	2.324995e-06	6.537730e-10	1.646144e+01	4.349189e+01
2.380000e-06	2.365860e-06	6.809596e-10	1.675077e+01	4.503226e+01
2.390000e-06	2.406546e-06	7.057078e-10	1.703884e+01	4.654305e+01
2.400000e-06	2.447095e-06	7.255540e-10	1.732594e+01	4.802271e+01
2.410000e-06	2.487494e-06	7.420383e-10	1.761197e+01	4.946986e+01
2.420000e-06	2.527747e-06	7.579106e-10	1.789697e+01	5.088332e+01
2.430000e-06	2.567901e-06	7.796240e-10	1.818127e+01	5.226211e+01
2.440000e-06	2.607959e-06	8.079478e-10	1.846488e+01	5.360545e+01
2.450000e-06	2.647928e-06	8.352474e-10	1.874788e+01	5.491279e+01
2.460000e-06	2.687723e-06	8.584703e-10	1.902963e+01	5.618382e+01
2.470000e-06	2.727368e-06	8.797054e-10	1.931032e+01	5.741840e+01
2.480000e-06	2.766886e-06	8.970078e-10	1.959012e+01	5.861665e+01
2.490000e-06	2.806200e-06	9.085746e-10	1.986847e+01	5.977883e+01
2.500000e-06	2.845407e-06	9.184574e-10	2.014607e+01	6.090542e+01
2.510000e-06	2.884481e-06	9.327881e-10	2.042272e+01	6.199702e+01
2.520000e-06	2.923323e-06	9.551652e-10	2.069773e+01	6.305436e+01
2.530000e-06	2.961798e-06	9.821320e-10	2.097014e+01	6.407826e+01
2.540000e-06	2.999940e-06	1.006731e-09	2.124019e+01	6.506959e+01
2.550000e-06	3.037978e-06	1.025636e-09	2.150951e+01	6.602926e+01
2.560000e-06	3.075888e-06	1.038516e-09	2.177792e+01	6.695816e+01
2.570000e-06	3.113627e-06	1.046363e-09	2.204512e+01	6.785718e+01
2.580000e-06	3.151154e-06	1.051778e-09	2.231082e+01	6.872711e+01
2.590000e-06	3.188440e-06	1.059100e-09	2.257481e+01	6.956871e+01
2.600000e-06	3.225463e-06	1.073666e-09	2.283694e+01	7.038262e+01
2.610000e-06	3.262203e-06	1.094513e-09	2.309707e+01	7.116942e+01
2.620000e-06	3.298714e-06	1.116286e-09	2.335557e+01	7.192958e+01
2.630000e-06	3.335080e-06	1.133208e-09	2.361306e+01	7.266349e+01
2.640000e-06	3.371382e-06	1.142718e-09	2.387008e+01	7.337147e+01
2.650000e-06	3.407599e-06	1.146823e-09	2.412651e+01	7.405377e+01
2.660000e-06	3.443625e-06	1.145804e-09	2.438157e+01	7.471064e+01
2.670000e-06	3.479477e-06	1.143392e-09	2.463542e+01	7.534229e+01
2.680000e-06	3.515170e-06	1.144843e-09	2.488812e+01	7.594895e+01
2.690000e-06	3.550559e-06	1.153815e-09	2.513869e+01	7.653089e+01
2.700000e-06	3.585455e-06	1.170002e-09	2.538576e+01	7.708843e+01
2.710000e-06	3.619849e-06	1.187387e-09	2.562927e+01	7.762198e+01
2.720000e-06	3.653954e-06	1.201122e-09	2.587075e+01	7.813201e+01
2.730000e-06	3.687664e-06	1.209957e-09	2.610942e+01	7.861908e+01
2.740000e-06	3.720838e-06	1.212772e-09	2.634430e+01	7.908388e+01
2.750000e-06	3.753717e-06	1.210782e-09	2.657709e+01	7.952712e+01
2.760000e-06	3.786354e-06	1.208380e-09	2.680817e+01	7.994965e+01
2.770000e-06	3.818707e-06	1.208980e-09	2.703723e+01	8.035231e+01
2.780000e-06	3.850920e-06	1.214142e-09	2.726531e+01	8.073602e+01
2.790000e-06	3.883029e-06	1.224102e-09	2.749264e+01	8.110167e+01
2.800000e-06	3.914963e-06	1.233459e-09	2.771875e+01	8.145018e+01
2.810000e-06	3.946648e-06	1.240301e-09	2.794308e+01	8.178237e+01
2.820000e-06	3.978059e-06	1.245134e-09	2.816548e+01	8.209903e+01
2.830000e-06	4.009104e-06	1.245711e-09	2.838528e+01	8.240085e+01
2.840000e-06	4.039765e-06	1.244102e-09	2.860237e+01	8.268843e+01
2.850000e-06	4.070216e-06	1.242518e-09	2.881797e+01	8.296225e+01
2.860000e-06	4.100499e-06	1.243792e-09	2.903238e+01	8.322268e+01
2.870000e-06	4.130589e-06	1.248434e-09	2.924542e+01	8.347000e+01
2.880000e-06	4.160421e-06	1.252443e-09	2.945664e+01	8.370437e+01
2.890000e-06	4.189881e-06	1.256590e-09	2.966522e+01	8.392589e+01
2.900000e-06	4.219066e-06	1.261583e-09	2.987186e+01	8.413462e+01
