# Temperatura_=_-2.4
# Concentracion g/m^3_=_4090.0
# C_Vs_to_Am_M_A/Vsm_=_65563218390.804596
# pendiente_HvsI_1/m_=_3716.3
# ordenada_HvsI_A/m_=_1297.0
# frecuencia_Hz_=_135070.34023810687

Tiempo_(s)	Campo_(V.s)	Magnetizacion_(V.s)	Campo_(kA/m)	Magnetizacion_(A/m)
0.000000e+00	-5.400925e-06	-1.909886e-09	-3.839079e+01	-1.248046e+02
1.000000e-08	-5.400967e-06	-1.902361e-09	-3.839109e+01	-1.246831e+02
2.000000e-08	-5.400756e-06	-1.894833e-09	-3.838959e+01	-1.245412e+02
3.000000e-08	-5.400179e-06	-1.889945e-09	-3.838549e+01	-1.243800e+02
4.000000e-08	-5.399139e-06	-1.889199e-09	-3.837809e+01	-1.242013e+02
5.000000e-08	-5.397507e-06	-1.892889e-09	-3.836649e+01	-1.240079e+02
6.000000e-08	-5.395272e-06	-1.903657e-09	-3.835061e+01	-1.238033e+02
7.000000e-08	-5.392481e-06	-1.930030e-09	-3.833077e+01	-1.235922e+02
8.000000e-08	-5.389096e-06	-1.915795e-09	-3.830670e+01	-1.233796e+02
9.000000e-08	-5.385197e-06	-1.833050e-09	-3.827899e+01	-1.231712e+02
1.000000e-07	-5.381039e-06	-1.818237e-09	-3.824944e+01	-1.229729e+02
1.100000e-07	-5.376792e-06	-1.907745e-09	-3.821925e+01	-1.227906e+02
1.200000e-07	-5.372273e-06	-1.919363e-09	-3.818712e+01	-1.226301e+02
1.300000e-07	-5.367353e-06	-1.836087e-09	-3.815215e+01	-1.224967e+02
1.400000e-07	-5.362040e-06	-1.817061e-09	-3.811439e+01	-1.223951e+02
1.500000e-07	-5.356396e-06	-1.958216e-09	-3.807427e+01	-1.223288e+02
1.600000e-07	-5.350403e-06	-1.971216e-09	-3.803167e+01	-1.223007e+02
1.700000e-07	-5.343953e-06	-1.835204e-09	-3.798582e+01	-1.223119e+02
1.800000e-07	-5.337028e-06	-1.793672e-09	-3.793660e+01	-1.223628e+02
1.900000e-07	-5.329770e-06	-1.892998e-09	-3.788500e+01	-1.224518e+02
2.000000e-07	-5.322319e-06	-1.912434e-09	-3.783204e+01	-1.225764e+02
2.100000e-07	-5.314627e-06	-1.833509e-09	-3.777737e+01	-1.227326e+02
2.200000e-07	-5.306682e-06	-1.873631e-09	-3.772089e+01	-1.229154e+02
2.300000e-07	-5.298394e-06	-1.955466e-09	-3.766198e+01	-1.231186e+02
2.400000e-07	-5.289564e-06	-1.931898e-09	-3.759922e+01	-1.233354e+02
2.500000e-07	-5.280092e-06	-1.879833e-09	-3.753188e+01	-1.235584e+02
2.600000e-07	-5.269993e-06	-1.949473e-09	-3.746010e+01	-1.237801e+02
2.700000e-07	-5.259408e-06	-1.965232e-09	-3.738486e+01	-1.239930e+02
2.800000e-07	-5.248341e-06	-1.868641e-09	-3.730620e+01	-1.241898e+02
2.900000e-07	-5.236823e-06	-1.860144e-09	-3.722432e+01	-1.243639e+02
3.000000e-07	-5.224951e-06	-1.950265e-09	-3.713993e+01	-1.245094e+02
3.100000e-07	-5.212682e-06	-1.919457e-09	-3.705272e+01	-1.246216e+02
3.200000e-07	-5.200000e-06	-1.862430e-09	-3.696258e+01	-1.246967e+02
3.300000e-07	-5.186934e-06	-1.902457e-09	-3.686970e+01	-1.247325e+02
3.400000e-07	-5.173503e-06	-1.939871e-09	-3.677423e+01	-1.247278e+02
3.500000e-07	-5.159669e-06	-1.902655e-09	-3.667590e+01	-1.246827e+02
3.600000e-07	-5.145446e-06	-1.910827e-09	-3.657480e+01	-1.245986e+02
3.700000e-07	-5.130798e-06	-1.919472e-09	-3.647068e+01	-1.244780e+02
3.800000e-07	-5.115575e-06	-1.875653e-09	-3.636247e+01	-1.243243e+02
3.900000e-07	-5.099617e-06	-1.875290e-09	-3.624903e+01	-1.241415e+02
4.000000e-07	-5.083199e-06	-1.913239e-09	-3.613233e+01	-1.239341e+02
4.100000e-07	-5.066528e-06	-1.880913e-09	-3.601383e+01	-1.237072e+02
4.200000e-07	-5.049551e-06	-1.846640e-09	-3.589315e+01	-1.234655e+02
4.300000e-07	-5.032242e-06	-1.895559e-09	-3.577012e+01	-1.232137e+02
4.400000e-07	-5.014618e-06	-1.917446e-09	-3.564485e+01	-1.229561e+02
4.500000e-07	-4.996765e-06	-1.872180e-09	-3.551794e+01	-1.226965e+02
4.600000e-07	-4.978661e-06	-1.853349e-09	-3.538926e+01	-1.224379e+02
4.700000e-07	-4.960188e-06	-1.868099e-09	-3.525795e+01	-1.221825e+02
4.800000e-07	-4.941226e-06	-1.858557e-09	-3.512316e+01	-1.219318e+02
4.900000e-07	-4.921858e-06	-1.846700e-09	-3.498549e+01	-1.216865e+02
5.000000e-07	-4.902184e-06	-1.832930e-09	-3.484565e+01	-1.214463e+02
5.100000e-07	-4.882304e-06	-1.827148e-09	-3.470433e+01	-1.212106e+02
5.200000e-07	-4.862266e-06	-1.845854e-09	-3.456190e+01	-1.209779e+02
5.300000e-07	-4.841937e-06	-1.859679e-09	-3.441740e+01	-1.207465e+02
5.400000e-07	-4.821258e-06	-1.830750e-09	-3.427040e+01	-1.205143e+02
5.500000e-07	-4.800270e-06	-1.815207e-09	-3.412122e+01	-1.202794e+02
5.600000e-07	-4.778894e-06	-1.824945e-09	-3.396928e+01	-1.200397e+02
5.700000e-07	-4.757189e-06	-1.820909e-09	-3.381500e+01	-1.197935e+02
5.800000e-07	-4.735301e-06	-1.794426e-09	-3.365941e+01	-1.195393e+02
5.900000e-07	-4.713028e-06	-1.781084e-09	-3.350109e+01	-1.192764e+02
6.000000e-07	-4.690313e-06	-1.785891e-09	-3.333962e+01	-1.190043e+02
6.100000e-07	-4.667290e-06	-1.804600e-09	-3.317598e+01	-1.187232e+02
6.200000e-07	-4.643972e-06	-1.804869e-09	-3.301023e+01	-1.184340e+02
6.300000e-07	-4.620436e-06	-1.786464e-09	-3.284293e+01	-1.181377e+02
6.400000e-07	-4.596685e-06	-1.780933e-09	-3.267410e+01	-1.178362e+02
6.500000e-07	-4.572719e-06	-1.792080e-09	-3.250374e+01	-1.175315e+02
6.600000e-07	-4.548496e-06	-1.781500e-09	-3.233157e+01	-1.172259e+02
6.700000e-07	-4.523860e-06	-1.756105e-09	-3.215645e+01	-1.169216e+02
6.800000e-07	-4.498796e-06	-1.746293e-09	-3.197828e+01	-1.166208e+02
6.900000e-07	-4.473282e-06	-1.755367e-09	-3.179693e+01	-1.163257e+02
7.000000e-07	-4.447182e-06	-1.761599e-09	-3.161140e+01	-1.160380e+02
7.100000e-07	-4.420515e-06	-1.754921e-09	-3.142185e+01	-1.157587e+02
7.200000e-07	-4.393477e-06	-1.745779e-09	-3.122966e+01	-1.154888e+02
7.300000e-07	-4.366140e-06	-1.749433e-09	-3.103534e+01	-1.152284e+02
7.400000e-07	-4.338529e-06	-1.752947e-09	-3.083908e+01	-1.149770e+02
7.500000e-07	-4.310703e-06	-1.737679e-09	-3.064129e+01	-1.147336e+02
7.600000e-07	-4.282712e-06	-1.719758e-09	-3.044232e+01	-1.144968e+02
7.700000e-07	-4.254527e-06	-1.716069e-09	-3.024197e+01	-1.142645e+02
7.800000e-07	-4.226064e-06	-1.720157e-09	-3.003965e+01	-1.140344e+02
7.900000e-07	-4.197281e-06	-1.716786e-09	-2.983506e+01	-1.138039e+02
8.000000e-07	-4.168176e-06	-1.709311e-09	-2.962818e+01	-1.135704e+02
8.100000e-07	-4.138748e-06	-1.704499e-09	-2.941900e+01	-1.133313e+02
8.200000e-07	-4.109032e-06	-1.708773e-09	-2.920777e+01	-1.130841e+02
8.300000e-07	-4.079049e-06	-1.706116e-09	-2.899465e+01	-1.128266e+02
8.400000e-07	-4.048763e-06	-1.692733e-09	-2.877937e+01	-1.125571e+02
8.500000e-07	-4.018224e-06	-1.680043e-09	-2.856229e+01	-1.122744e+02
8.600000e-07	-3.987518e-06	-1.680998e-09	-2.834402e+01	-1.119775e+02
8.700000e-07	-3.956634e-06	-1.682332e-09	-2.812450e+01	-1.116664e+02
8.800000e-07	-3.925474e-06	-1.674867e-09	-2.790300e+01	-1.113414e+02
8.900000e-07	-3.894040e-06	-1.662681e-09	-2.767957e+01	-1.110032e+02
9.000000e-07	-3.862329e-06	-1.661322e-09	-2.745416e+01	-1.106533e+02
9.100000e-07	-3.830359e-06	-1.664814e-09	-2.722691e+01	-1.102932e+02
9.200000e-07	-3.798245e-06	-1.660124e-09	-2.699864e+01	-1.099249e+02
9.300000e-07	-3.765954e-06	-1.650397e-09	-2.676911e+01	-1.095505e+02
9.400000e-07	-3.733385e-06	-1.648485e-09	-2.653760e+01	-1.091721e+02
9.500000e-07	-3.700440e-06	-1.651714e-09	-2.630342e+01	-1.087917e+02
9.600000e-07	-3.667098e-06	-1.648221e-09	-2.606642e+01	-1.084113e+02
9.700000e-07	-3.633413e-06	-1.632087e-09	-2.582698e+01	-1.080323e+02
9.800000e-07	-3.599298e-06	-1.616046e-09	-2.558448e+01	-1.076560e+02
9.900000e-07	-3.564761e-06	-1.607825e-09	-2.533899e+01	-1.072833e+02
1.000000e-06	-3.529836e-06	-1.605344e-09	-2.509073e+01	-1.069146e+02
1.010000e-06	-3.494604e-06	-1.601977e-09	-2.484030e+01	-1.065499e+02
1.020000e-06	-3.459152e-06	-1.598337e-09	-2.458830e+01	-1.061889e+02
1.030000e-06	-3.423469e-06	-1.599648e-09	-2.433466e+01	-1.058306e+02
1.040000e-06	-3.387617e-06	-1.600888e-09	-2.407982e+01	-1.054743e+02
1.050000e-06	-3.351646e-06	-1.593661e-09	-2.382413e+01	-1.051185e+02
1.060000e-06	-3.315568e-06	-1.577313e-09	-2.356768e+01	-1.047620e+02
1.070000e-06	-3.279303e-06	-1.561832e-09	-2.330990e+01	-1.044033e+02
1.080000e-06	-3.242836e-06	-1.552666e-09	-2.305069e+01	-1.040412e+02
1.090000e-06	-3.206101e-06	-1.548760e-09	-2.278957e+01	-1.036744e+02
1.100000e-06	-3.169014e-06	-1.545273e-09	-2.252595e+01	-1.033020e+02
1.110000e-06	-3.131653e-06	-1.544551e-09	-2.226038e+01	-1.029232e+02
1.120000e-06	-3.094100e-06	-1.545202e-09	-2.199345e+01	-1.025376e+02
1.130000e-06	-3.056418e-06	-1.541459e-09	-2.172560e+01	-1.021449e+02
1.140000e-06	-3.018576e-06	-1.529783e-09	-2.145661e+01	-1.017453e+02
1.150000e-06	-2.980462e-06	-1.517811e-09	-2.118569e+01	-1.013392e+02
1.160000e-06	-2.942123e-06	-1.507213e-09	-2.091316e+01	-1.009270e+02
1.170000e-06	-2.903672e-06	-1.498196e-09	-2.063985e+01	-1.005095e+02
1.180000e-06	-2.865002e-06	-1.489639e-09	-2.036497e+01	-1.000875e+02
1.190000e-06	-2.826029e-06	-1.483873e-09	-2.008795e+01	-9.966169e+01
1.200000e-06	-2.786870e-06	-1.482894e-09	-1.980959e+01	-9.923281e+01
1.210000e-06	-2.747546e-06	-1.483484e-09	-1.953008e+01	-9.880139e+01
1.220000e-06	-2.708006e-06	-1.477620e-09	-1.924902e+01	-9.836780e+01
1.230000e-06	-2.668307e-06	-1.467958e-09	-1.896683e+01	-9.793215e+01
1.240000e-06	-2.628545e-06	-1.457554e-09	-1.868419e+01	-9.749429e+01
1.250000e-06	-2.588757e-06	-1.447446e-09	-1.840137e+01	-9.705381e+01
1.260000e-06	-2.548866e-06	-1.438880e-09	-1.811782e+01	-9.661002e+01
1.270000e-06	-2.508854e-06	-1.431563e-09	-1.783341e+01	-9.616201e+01
1.280000e-06	-2.468775e-06	-1.427591e-09	-1.754852e+01	-9.570871e+01
1.290000e-06	-2.428545e-06	-1.422822e-09	-1.726255e+01	-9.524889e+01
1.300000e-06	-2.388110e-06	-1.415474e-09	-1.697513e+01	-9.478129e+01
1.310000e-06	-2.347494e-06	-1.404506e-09	-1.668643e+01	-9.430468e+01
1.320000e-06	-2.306676e-06	-1.392374e-09	-1.639629e+01	-9.381791e+01
1.330000e-06	-2.265640e-06	-1.383247e-09	-1.610460e+01	-9.332003e+01
1.340000e-06	-2.224362e-06	-1.378364e-09	-1.581118e+01	-9.281028e+01
1.350000e-06	-2.182609e-06	-1.374181e-09	-1.551439e+01	-9.228824e+01
1.360000e-06	-2.140427e-06	-1.366906e-09	-1.521456e+01	-9.175376e+01
1.370000e-06	-2.098098e-06	-1.356170e-09	-1.491367e+01	-9.120705e+01
1.380000e-06	-2.055618e-06	-1.344610e-09	-1.461172e+01	-9.064864e+01
1.390000e-06	-2.012900e-06	-1.332961e-09	-1.430807e+01	-9.007937e+01
1.400000e-06	-1.969959e-06	-1.321912e-09	-1.400284e+01	-8.950035e+01
1.410000e-06	-1.926775e-06	-1.312927e-09	-1.369588e+01	-8.891287e+01
1.420000e-06	-1.883374e-06	-1.308093e-09	-1.338738e+01	-8.831839e+01
1.430000e-06	-1.839879e-06	-1.305365e-09	-1.307820e+01	-8.771842e+01
1.440000e-06	-1.796306e-06	-1.300913e-09	-1.276848e+01	-8.711443e+01
1.450000e-06	-1.752587e-06	-1.292054e-09	-1.245771e+01	-8.650780e+01
1.460000e-06	-1.708766e-06	-1.280010e-09	-1.214623e+01	-8.589973e+01
1.470000e-06	-1.664894e-06	-1.268913e-09	-1.183438e+01	-8.529115e+01
1.480000e-06	-1.620921e-06	-1.261905e-09	-1.152181e+01	-8.468272e+01
1.490000e-06	-1.576892e-06	-1.256436e-09	-1.120884e+01	-8.407473e+01
1.500000e-06	-1.532883e-06	-1.248646e-09	-1.089602e+01	-8.346714e+01
1.510000e-06	-1.488841e-06	-1.239823e-09	-1.058296e+01	-8.285954e+01
1.520000e-06	-1.444747e-06	-1.230265e-09	-1.026954e+01	-8.225118e+01
1.530000e-06	-1.400649e-06	-1.218915e-09	-9.956073e+00	-8.164105e+01
1.540000e-06	-1.356443e-06	-1.204661e-09	-9.641849e+00	-8.102785e+01
1.550000e-06	-1.312144e-06	-1.189437e-09	-9.326964e+00	-8.041013e+01
1.560000e-06	-1.267728e-06	-1.177993e-09	-9.011249e+00	-7.978634e+01
1.570000e-06	-1.223162e-06	-1.173091e-09	-8.694466e+00	-7.915488e+01
1.580000e-06	-1.178546e-06	-1.169656e-09	-8.377329e+00	-7.851423e+01
1.590000e-06	-1.133808e-06	-1.162188e-09	-8.059320e+00	-7.786294e+01
1.600000e-06	-1.088905e-06	-1.152596e-09	-7.740144e+00	-7.719977e+01
1.610000e-06	-1.043880e-06	-1.141443e-09	-7.420096e+00	-7.652368e+01
1.620000e-06	-9.987622e-07	-1.127183e-09	-7.099390e+00	-7.583390e+01
1.630000e-06	-9.535859e-07	-1.110820e-09	-6.778268e+00	-7.512990e+01
1.640000e-06	-9.084759e-07	-1.096815e-09	-6.457618e+00	-7.441142e+01
1.650000e-06	-8.633885e-07	-1.088866e-09	-6.137128e+00	-7.367843e+01
1.660000e-06	-8.180950e-07	-1.083133e-09	-5.815173e+00	-7.293111e+01
1.670000e-06	-7.726920e-07	-1.076012e-09	-5.492440e+00	-7.216977e+01
1.680000e-06	-7.272632e-07	-1.064441e-09	-5.169523e+00	-7.139481e+01
1.690000e-06	-6.817856e-07	-1.048120e-09	-4.846260e+00	-7.060665e+01
1.700000e-06	-6.362724e-07	-1.031240e-09	-4.522744e+00	-6.980568e+01
1.710000e-06	-5.906671e-07	-1.014707e-09	-4.198572e+00	-6.899216e+01
1.720000e-06	-5.449995e-07	-9.999123e-10	-3.873959e+00	-6.816618e+01
1.730000e-06	-4.993375e-07	-9.921151e-10	-3.549385e+00	-6.732765e+01
1.740000e-06	-4.536885e-07	-9.876451e-10	-3.224903e+00	-6.647619e+01
1.750000e-06	-4.079933e-07	-9.829614e-10	-2.900093e+00	-6.561120e+01
1.760000e-06	-3.622291e-07	-9.692763e-10	-2.574792e+00	-6.473180e+01
1.770000e-06	-3.164644e-07	-9.487942e-10	-2.249489e+00	-6.383688e+01
1.780000e-06	-2.707068e-07	-9.282356e-10	-1.924235e+00	-6.292510e+01
1.790000e-06	-2.248988e-07	-9.090083e-10	-1.598623e+00	-6.199499e+01
1.800000e-06	-1.790715e-07	-8.917792e-10	-1.272874e+00	-6.104497e+01
1.810000e-06	-1.332808e-07	-8.768764e-10	-9.473850e-01	-6.007343e+01
1.820000e-06	-8.758325e-08	-8.689205e-10	-6.225582e-01	-5.907880e+01
1.830000e-06	-4.190601e-08	-8.634413e-10	-2.978758e-01	-5.805959e+01
1.840000e-06	3.914566e-09	-8.519024e-10	2.782547e-02	-5.701453e+01
1.850000e-06	4.982499e-08	-8.324424e-10	3.541654e-01	-5.594252e+01
1.860000e-06	9.572369e-08	-8.095749e-10	6.804220e-01	-5.484277e+01
1.870000e-06	1.416069e-07	-7.874839e-10	1.006569e+00	-5.371475e+01
1.880000e-06	1.873853e-07	-7.682179e-10	1.331970e+00	-5.255826e+01
1.890000e-06	2.331002e-07	-7.487466e-10	1.656920e+00	-5.137338e+01
1.900000e-06	2.788131e-07	-7.314329e-10	1.981856e+00	-5.016045e+01
1.910000e-06	3.245012e-07	-7.161373e-10	2.306616e+00	-4.892005e+01
1.920000e-06	3.702431e-07	-7.004742e-10	2.631758e+00	-4.765293e+01
1.930000e-06	4.159929e-07	-6.798012e-10	2.956956e+00	-4.635995e+01
1.940000e-06	4.616668e-07	-6.535831e-10	3.281614e+00	-4.504199e+01
1.950000e-06	5.072595e-07	-6.282323e-10	3.605696e+00	-4.369989e+01
1.960000e-06	5.527789e-07	-6.087736e-10	3.929256e+00	-4.233439e+01
1.970000e-06	5.983009e-07	-5.892021e-10	4.252835e+00	-4.094605e+01
1.980000e-06	6.438454e-07	-5.693687e-10	4.576574e+00	-3.953518e+01
1.990000e-06	6.892952e-07	-5.509347e-10	4.899640e+00	-3.810182e+01
2.000000e-06	7.346422e-07	-5.318128e-10	5.221975e+00	-3.664571e+01
2.010000e-06	7.799058e-07	-5.091477e-10	5.543717e+00	-3.516627e+01
2.020000e-06	8.251806e-07	-4.819900e-10	5.865539e+00	-3.366265e+01
2.030000e-06	8.704561e-07	-4.511214e-10	6.187365e+00	-3.213368e+01
2.040000e-06	9.156331e-07	-4.228737e-10	6.508492e+00	-3.057802e+01
2.050000e-06	9.606936e-07	-3.997752e-10	6.828790e+00	-2.899414e+01
2.060000e-06	1.005574e-06	-3.777811e-10	7.147806e+00	-2.738042e+01
2.070000e-06	1.050298e-06	-3.553183e-10	7.465713e+00	-2.573525e+01
2.080000e-06	1.095020e-06	-3.335639e-10	7.783607e+00	-2.405708e+01
2.090000e-06	1.139726e-06	-3.118105e-10	8.101389e+00	-2.234451e+01
2.100000e-06	1.184260e-06	-2.840976e-10	8.417944e+00	-2.059638e+01
2.110000e-06	1.228697e-06	-2.484197e-10	8.733807e+00	-1.881185e+01
2.120000e-06	1.273033e-06	-2.124245e-10	9.048961e+00	-1.699041e+01
2.130000e-06	1.317289e-06	-1.847058e-10	9.363535e+00	-1.513196e+01
2.140000e-06	1.361473e-06	-1.604422e-10	9.677603e+00	-1.323681e+01
2.150000e-06	1.405513e-06	-1.368096e-10	9.990652e+00	-1.130569e+01
2.160000e-06	1.449544e-06	-1.141878e-10	1.030363e+01	-9.339752e+00
2.170000e-06	1.493602e-06	-9.234996e-11	1.061680e+01	-7.340525e+00
2.180000e-06	1.537624e-06	-6.729792e-11	1.092972e+01	-5.309870e+00
2.190000e-06	1.581608e-06	-3.286262e-11	1.124237e+01	-3.249932e+00
2.200000e-06	1.625509e-06	8.718878e-12	1.155442e+01	-1.163072e+00
2.210000e-06	1.669339e-06	4.512981e-11	1.186598e+01	9.482002e-01
2.220000e-06	1.713138e-06	7.468455e-11	1.217731e+01	3.081295e+00
2.230000e-06	1.756920e-06	1.030489e-10	1.248852e+01	5.233613e+00
2.240000e-06	1.800667e-06	1.336990e-10	1.279948e+01	7.402600e+00
2.250000e-06	1.844298e-06	1.633176e-10	1.310962e+01	9.585802e+00
2.260000e-06	1.887745e-06	1.932748e-10	1.341844e+01	1.178090e+01
2.270000e-06	1.931082e-06	2.286279e-10	1.372649e+01	1.398575e+01
2.280000e-06	1.974299e-06	2.697898e-10	1.403369e+01	1.619837e+01
2.290000e-06	2.017347e-06	3.108923e-10	1.433968e+01	1.841696e+01
2.300000e-06	2.060183e-06	3.445077e-10	1.464417e+01	2.063989e+01
2.310000e-06	2.102603e-06	3.736416e-10	1.494570e+01	2.286565e+01
2.320000e-06	2.144701e-06	4.061102e-10	1.524494e+01	2.509285e+01
2.330000e-06	2.186562e-06	4.391302e-10	1.554249e+01	2.732015e+01
2.340000e-06	2.228045e-06	4.682123e-10	1.583736e+01	2.954626e+01
2.350000e-06	2.269280e-06	4.971510e-10	1.613047e+01	3.176983e+01
2.360000e-06	2.310371e-06	5.315603e-10	1.642255e+01	3.398950e+01
2.370000e-06	2.351195e-06	5.705650e-10	1.671274e+01	3.620381e+01
2.380000e-06	2.391748e-06	6.060551e-10	1.700099e+01	3.841117e+01
2.390000e-06	2.432084e-06	6.370007e-10	1.728771e+01	4.060989e+01
2.400000e-06	2.472259e-06	6.680876e-10	1.757328e+01	4.279815e+01
2.410000e-06	2.512304e-06	7.014493e-10	1.785793e+01	4.497402e+01
2.420000e-06	2.552192e-06	7.362065e-10	1.814146e+01	4.713546e+01
2.430000e-06	2.592011e-06	7.703561e-10	1.842450e+01	4.928037e+01
2.440000e-06	2.631812e-06	8.025593e-10	1.870741e+01	5.140661e+01
2.450000e-06	2.671543e-06	8.336054e-10	1.898983e+01	5.351204e+01
2.460000e-06	2.711153e-06	8.648043e-10	1.927139e+01	5.559458e+01
2.470000e-06	2.750592e-06	8.944241e-10	1.955172e+01	5.765223e+01
2.480000e-06	2.789873e-06	9.245316e-10	1.983094e+01	5.968313e+01
2.490000e-06	2.828990e-06	9.572794e-10	2.010899e+01	6.168556e+01
2.500000e-06	2.867869e-06	9.902755e-10	2.038535e+01	6.365801e+01
2.510000e-06	2.906435e-06	1.022052e-09	2.065949e+01	6.559918e+01
2.520000e-06	2.944712e-06	1.053687e-09	2.093157e+01	6.750797e+01
2.530000e-06	2.982765e-06	1.084757e-09	2.120206e+01	6.938350e+01
2.540000e-06	3.020625e-06	1.111142e-09	2.147117e+01	7.122511e+01
2.550000e-06	3.058362e-06	1.133370e-09	2.173941e+01	7.303230e+01
2.560000e-06	3.096013e-06	1.156366e-09	2.200704e+01	7.480475e+01
2.570000e-06	3.133456e-06	1.183217e-09	2.227319e+01	7.654224e+01
2.580000e-06	3.170601e-06	1.212134e-09	2.253723e+01	7.824465e+01
2.590000e-06	3.207556e-06	1.241153e-09	2.279991e+01	7.991192e+01
2.600000e-06	3.244217e-06	1.270614e-09	2.306051e+01	8.154399e+01
2.610000e-06	3.280569e-06	1.299755e-09	2.331890e+01	8.314081e+01
2.620000e-06	3.316754e-06	1.323403e-09	2.357611e+01	8.470227e+01
2.630000e-06	3.352761e-06	1.341198e-09	2.383205e+01	8.622821e+01
2.640000e-06	3.388663e-06	1.358500e-09	2.408725e+01	8.771840e+01
2.650000e-06	3.424511e-06	1.377164e-09	2.434207e+01	8.917254e+01
2.660000e-06	3.460256e-06	1.396647e-09	2.459615e+01	9.059027e+01
2.670000e-06	3.495818e-06	1.417515e-09	2.484893e+01	9.197119e+01
2.680000e-06	3.531095e-06	1.438200e-09	2.509969e+01	9.331483e+01
2.690000e-06	3.566048e-06	1.460529e-09	2.534814e+01	9.462077e+01
2.700000e-06	3.600703e-06	1.483591e-09	2.559447e+01	9.588858e+01
2.710000e-06	3.634930e-06	1.502654e-09	2.583776e+01	9.711789e+01
2.720000e-06	3.668660e-06	1.518489e-09	2.607753e+01	9.830840e+01
2.730000e-06	3.701918e-06	1.536135e-09	2.631392e+01	9.945993e+01
2.740000e-06	3.734706e-06	1.553368e-09	2.654699e+01	1.005724e+02
2.750000e-06	3.767186e-06	1.568401e-09	2.677787e+01	1.016459e+02
2.760000e-06	3.799468e-06	1.581400e-09	2.700733e+01	1.026807e+02
2.770000e-06	3.831565e-06	1.594988e-09	2.723548e+01	1.036770e+02
2.780000e-06	3.863504e-06	1.612010e-09	2.746251e+01	1.046355e+02
2.790000e-06	3.895289e-06	1.626092e-09	2.768845e+01	1.055567e+02
2.800000e-06	3.926894e-06	1.635121e-09	2.791310e+01	1.064414e+02
2.810000e-06	3.958234e-06	1.643187e-09	2.813587e+01	1.072904e+02
2.820000e-06	3.989252e-06	1.654096e-09	2.835635e+01	1.081045e+02
2.830000e-06	4.019901e-06	1.668101e-09	2.857421e+01	1.088849e+02
2.840000e-06	4.050208e-06	1.682057e-09	2.878964e+01	1.096324e+02
2.850000e-06	4.080264e-06	1.692484e-09	2.900328e+01	1.103480e+02
2.860000e-06	4.110065e-06	1.701649e-09	2.921511e+01	1.110327e+02
2.870000e-06	4.139642e-06	1.710525e-09	2.942535e+01	1.116875e+02
2.880000e-06	4.169038e-06	1.716535e-09	2.963431e+01	1.123133e+02
2.890000e-06	4.198200e-06	1.720580e-09	2.984159e+01	1.129113e+02
2.900000e-06	4.226928e-06	1.729121e-09	3.004580e+01	1.134822e+02
