# Temperatura_=_-4.43
# Concentracion g/m^3_=_4090.0
# C_Vs_to_Am_M_A/Vsm_=_65563218390.804596
# pendiente_HvsI_1/m_=_3716.3
# ordenada_HvsI_A/m_=_1297.0
# frecuencia_Hz_=_135074.54013240527

Tiempo_(s)	Campo_(V.s)	Magnetizacion_(V.s)	Campo_(kA/m)	Magnetizacion_(A/m)
0.000000e+00	-5.380827e-06	-1.463615e-09	-3.840199e+01	-9.554661e+01
1.000000e-08	-5.381007e-06	-1.461849e-09	-3.840327e+01	-9.548286e+01
2.000000e-08	-5.380993e-06	-1.458772e-09	-3.840317e+01	-9.540310e+01
3.000000e-08	-5.380720e-06	-1.457628e-09	-3.840122e+01	-9.530763e+01
4.000000e-08	-5.380092e-06	-1.457805e-09	-3.839674e+01	-9.519754e+01
5.000000e-08	-5.378959e-06	-1.455037e-09	-3.838866e+01	-9.507472e+01
6.000000e-08	-5.377265e-06	-1.449428e-09	-3.837657e+01	-9.494185e+01
7.000000e-08	-5.374968e-06	-1.445710e-09	-3.836017e+01	-9.480228e+01
8.000000e-08	-5.371997e-06	-1.460747e-09	-3.833897e+01	-9.465999e+01
9.000000e-08	-5.368425e-06	-1.493260e-09	-3.831347e+01	-9.451940e+01
1.000000e-07	-5.364374e-06	-1.490425e-09	-3.828457e+01	-9.438521e+01
1.100000e-07	-5.360030e-06	-1.448297e-09	-3.825357e+01	-9.426223e+01
1.200000e-07	-5.355684e-06	-1.429535e-09	-3.822254e+01	-9.415515e+01
1.300000e-07	-5.351272e-06	-1.469515e-09	-3.819106e+01	-9.406836e+01
1.400000e-07	-5.346346e-06	-1.480112e-09	-3.815590e+01	-9.400575e+01
1.500000e-07	-5.340849e-06	-1.435985e-09	-3.811667e+01	-9.397049e+01
1.600000e-07	-5.335086e-06	-1.420371e-09	-3.807555e+01	-9.396491e+01
1.700000e-07	-5.329067e-06	-1.465756e-09	-3.803258e+01	-9.399037e+01
1.800000e-07	-5.322611e-06	-1.474657e-09	-3.798651e+01	-9.404715e+01
1.900000e-07	-5.315629e-06	-1.445376e-09	-3.793668e+01	-9.413443e+01
2.000000e-07	-5.308343e-06	-1.427768e-09	-3.788468e+01	-9.425028e+01
2.100000e-07	-5.300965e-06	-1.446633e-09	-3.783203e+01	-9.439172e+01
2.200000e-07	-5.293308e-06	-1.435774e-09	-3.777738e+01	-9.455479e+01
2.300000e-07	-5.285306e-06	-1.429311e-09	-3.772027e+01	-9.473475e+01
2.400000e-07	-5.277064e-06	-1.450308e-09	-3.766145e+01	-9.492616e+01
2.500000e-07	-5.268277e-06	-1.472159e-09	-3.759874e+01	-9.512316e+01
2.600000e-07	-5.258640e-06	-1.461558e-09	-3.752996e+01	-9.531966e+01
2.700000e-07	-5.248472e-06	-1.456282e-09	-3.745739e+01	-9.550955e+01
2.800000e-07	-5.237816e-06	-1.476101e-09	-3.738135e+01	-9.568695e+01
2.900000e-07	-5.226604e-06	-1.452699e-09	-3.730133e+01	-9.584642e+01
3.000000e-07	-5.215034e-06	-1.407988e-09	-3.721875e+01	-9.598313e+01
3.100000e-07	-5.203060e-06	-1.421941e-09	-3.713329e+01	-9.609309e+01
3.200000e-07	-5.190628e-06	-1.471337e-09	-3.704457e+01	-9.617318e+01
3.300000e-07	-5.177802e-06	-1.460025e-09	-3.695304e+01	-9.622134e+01
3.400000e-07	-5.164676e-06	-1.440450e-09	-3.685936e+01	-9.623653e+01
3.500000e-07	-5.151161e-06	-1.448902e-09	-3.676291e+01	-9.621875e+01
3.600000e-07	-5.137186e-06	-1.461661e-09	-3.666316e+01	-9.616903e+01
3.700000e-07	-5.122920e-06	-1.438558e-09	-3.656135e+01	-9.608927e+01
3.800000e-07	-5.108232e-06	-1.431390e-09	-3.645653e+01	-9.598216e+01
3.900000e-07	-5.092703e-06	-1.421353e-09	-3.634570e+01	-9.585102e+01
4.000000e-07	-5.076453e-06	-1.424655e-09	-3.622973e+01	-9.569960e+01
4.100000e-07	-5.059861e-06	-1.444283e-09	-3.611131e+01	-9.553190e+01
4.200000e-07	-5.043014e-06	-1.456459e-09	-3.599108e+01	-9.535197e+01
4.300000e-07	-5.025899e-06	-1.427561e-09	-3.586893e+01	-9.516375e+01
4.400000e-07	-5.008496e-06	-1.422925e-09	-3.574473e+01	-9.497087e+01
4.500000e-07	-4.990831e-06	-1.443728e-09	-3.561866e+01	-9.477651e+01
4.600000e-07	-4.972861e-06	-1.436037e-09	-3.549041e+01	-9.458327e+01
4.700000e-07	-4.954479e-06	-1.407439e-09	-3.535922e+01	-9.439311e+01
4.800000e-07	-4.935697e-06	-1.410653e-09	-3.522517e+01	-9.420727e+01
4.900000e-07	-4.916569e-06	-1.422159e-09	-3.508866e+01	-9.402631e+01
5.000000e-07	-4.897092e-06	-1.419323e-09	-3.494966e+01	-9.385008e+01
5.100000e-07	-4.877378e-06	-1.412904e-09	-3.480896e+01	-9.367780e+01
5.200000e-07	-4.857504e-06	-1.405240e-09	-3.466712e+01	-9.350818e+01
5.300000e-07	-4.837410e-06	-1.404260e-09	-3.452372e+01	-9.333950e+01
5.400000e-07	-4.817126e-06	-1.418211e-09	-3.437895e+01	-9.316975e+01
5.500000e-07	-4.796599e-06	-1.421861e-09	-3.423246e+01	-9.299680e+01
5.600000e-07	-4.775693e-06	-1.401619e-09	-3.408326e+01	-9.281848e+01
5.700000e-07	-4.754331e-06	-1.399899e-09	-3.393080e+01	-9.263279e+01
5.800000e-07	-4.732625e-06	-1.409304e-09	-3.377589e+01	-9.243798e+01
5.900000e-07	-4.710574e-06	-1.397788e-09	-3.361851e+01	-9.223264e+01
6.000000e-07	-4.688164e-06	-1.376452e-09	-3.345858e+01	-9.201583e+01
6.100000e-07	-4.665488e-06	-1.379273e-09	-3.329674e+01	-9.178711e+01
6.200000e-07	-4.642427e-06	-1.388638e-09	-3.313216e+01	-9.154652e+01
6.300000e-07	-4.619059e-06	-1.390422e-09	-3.296539e+01	-9.129467e+01
6.400000e-07	-4.595441e-06	-1.383986e-09	-3.279683e+01	-9.103259e+01
6.500000e-07	-4.571554e-06	-1.381967e-09	-3.262635e+01	-9.076178e+01
6.600000e-07	-4.547468e-06	-1.380363e-09	-3.245446e+01	-9.048404e+01
6.700000e-07	-4.523170e-06	-1.382220e-09	-3.228105e+01	-9.020143e+01
6.800000e-07	-4.498560e-06	-1.371229e-09	-3.210540e+01	-8.991612e+01
6.900000e-07	-4.473521e-06	-1.357925e-09	-3.192671e+01	-8.963034e+01
7.000000e-07	-4.447882e-06	-1.354369e-09	-3.174372e+01	-8.934619e+01
7.100000e-07	-4.421638e-06	-1.356050e-09	-3.155643e+01	-8.906560e+01
7.200000e-07	-4.394906e-06	-1.347889e-09	-3.136565e+01	-8.879021e+01
7.300000e-07	-4.367721e-06	-1.341449e-09	-3.117164e+01	-8.852130e+01
7.400000e-07	-4.340267e-06	-1.343909e-09	-3.097570e+01	-8.825976e+01
7.500000e-07	-4.312626e-06	-1.350472e-09	-3.077843e+01	-8.800604e+01
7.600000e-07	-4.284815e-06	-1.346402e-09	-3.057995e+01	-8.776014e+01
7.700000e-07	-4.256849e-06	-1.335643e-09	-3.038036e+01	-8.752165e+01
7.800000e-07	-4.228689e-06	-1.326636e-09	-3.017939e+01	-8.728974e+01
7.900000e-07	-4.200258e-06	-1.322173e-09	-2.997648e+01	-8.706328e+01
8.000000e-07	-4.171429e-06	-1.314713e-09	-2.977073e+01	-8.684087e+01
8.100000e-07	-4.142291e-06	-1.305826e-09	-2.956278e+01	-8.662089e+01
8.200000e-07	-4.112849e-06	-1.304375e-09	-2.935266e+01	-8.640164e+01
8.300000e-07	-4.083122e-06	-1.310053e-09	-2.914050e+01	-8.618140e+01
8.400000e-07	-4.053201e-06	-1.313718e-09	-2.892696e+01	-8.595850e+01
8.500000e-07	-4.023016e-06	-1.307466e-09	-2.871154e+01	-8.573140e+01
8.600000e-07	-3.992599e-06	-1.300174e-09	-2.849445e+01	-8.549874e+01
8.700000e-07	-3.961931e-06	-1.294285e-09	-2.827558e+01	-8.525939e+01
8.800000e-07	-3.931027e-06	-1.287778e-09	-2.805503e+01	-8.501250e+01
8.900000e-07	-3.899858e-06	-1.277217e-09	-2.783258e+01	-8.475747e+01
9.000000e-07	-3.868363e-06	-1.268977e-09	-2.760781e+01	-8.449400e+01
9.100000e-07	-3.836648e-06	-1.266646e-09	-2.738146e+01	-8.422201e+01
9.200000e-07	-3.804797e-06	-1.269597e-09	-2.715415e+01	-8.394168e+01
9.300000e-07	-3.772804e-06	-1.268995e-09	-2.692582e+01	-8.365336e+01
9.400000e-07	-3.740577e-06	-1.266426e-09	-2.669582e+01	-8.335752e+01
9.500000e-07	-3.708068e-06	-1.262506e-09	-2.646381e+01	-8.305476e+01
9.600000e-07	-3.675178e-06	-1.259443e-09	-2.622908e+01	-8.274568e+01
9.700000e-07	-3.641835e-06	-1.252053e-09	-2.599112e+01	-8.243091e+01
9.800000e-07	-3.608101e-06	-1.241306e-09	-2.575036e+01	-8.211100e+01
9.900000e-07	-3.574048e-06	-1.230929e-09	-2.550734e+01	-8.178645e+01
1.000000e-06	-3.539656e-06	-1.227222e-09	-2.526188e+01	-8.145765e+01
1.010000e-06	-3.504795e-06	-1.226560e-09	-2.501308e+01	-8.112488e+01
1.020000e-06	-3.469478e-06	-1.225591e-09	-2.476104e+01	-8.078832e+01
1.030000e-06	-3.433936e-06	-1.222363e-09	-2.450738e+01	-8.044803e+01
1.040000e-06	-3.398286e-06	-1.218909e-09	-2.425295e+01	-8.010400e+01
1.050000e-06	-3.362474e-06	-1.212527e-09	-2.399737e+01	-7.975618e+01
1.060000e-06	-3.326519e-06	-1.202273e-09	-2.374076e+01	-7.940445e+01
1.070000e-06	-3.290435e-06	-1.188990e-09	-2.348324e+01	-7.904873e+01
1.080000e-06	-3.254184e-06	-1.176193e-09	-2.322452e+01	-7.868895e+01
1.090000e-06	-3.217755e-06	-1.169147e-09	-2.296453e+01	-7.832512e+01
1.100000e-06	-3.181068e-06	-1.167532e-09	-2.270270e+01	-7.795733e+01
1.110000e-06	-3.144106e-06	-1.165866e-09	-2.243891e+01	-7.758574e+01
1.120000e-06	-3.106880e-06	-1.161356e-09	-2.217324e+01	-7.721065e+01
1.130000e-06	-3.069383e-06	-1.155120e-09	-2.190563e+01	-7.683244e+01
1.140000e-06	-3.031671e-06	-1.148039e-09	-2.163648e+01	-7.645158e+01
1.150000e-06	-2.993753e-06	-1.142412e-09	-2.136587e+01	-7.606861e+01
1.160000e-06	-2.955740e-06	-1.137180e-09	-2.109458e+01	-7.568411e+01
1.170000e-06	-2.917552e-06	-1.129513e-09	-2.082204e+01	-7.529868e+01
1.180000e-06	-2.879106e-06	-1.120922e-09	-2.054766e+01	-7.491287e+01
1.190000e-06	-2.840524e-06	-1.115580e-09	-2.027231e+01	-7.452718e+01
1.200000e-06	-2.801740e-06	-1.110506e-09	-1.999551e+01	-7.414201e+01
1.210000e-06	-2.762595e-06	-1.106059e-09	-1.971614e+01	-7.375763e+01
1.220000e-06	-2.723270e-06	-1.101257e-09	-1.943548e+01	-7.337416e+01
1.230000e-06	-2.683804e-06	-1.097587e-09	-1.915383e+01	-7.299152e+01
1.240000e-06	-2.644153e-06	-1.094511e-09	-1.887084e+01	-7.260949e+01
1.250000e-06	-2.604446e-06	-1.090982e-09	-1.858746e+01	-7.222762e+01
1.260000e-06	-2.564602e-06	-1.084348e-09	-1.830310e+01	-7.184534e+01
1.270000e-06	-2.524668e-06	-1.075695e-09	-1.801810e+01	-7.146189e+01
1.280000e-06	-2.484686e-06	-1.068374e-09	-1.773276e+01	-7.107642e+01
1.290000e-06	-2.444638e-06	-1.063359e-09	-1.744694e+01	-7.068796e+01
1.300000e-06	-2.404515e-06	-1.056952e-09	-1.716059e+01	-7.029554e+01
1.310000e-06	-2.364195e-06	-1.048561e-09	-1.687283e+01	-6.989813e+01
1.320000e-06	-2.323613e-06	-1.042764e-09	-1.658321e+01	-6.949479e+01
1.330000e-06	-2.282869e-06	-1.040714e-09	-1.629242e+01	-6.908463e+01
1.340000e-06	-2.241927e-06	-1.037489e-09	-1.600023e+01	-6.866687e+01
1.350000e-06	-2.200668e-06	-1.032173e-09	-1.570577e+01	-6.824089e+01
1.360000e-06	-2.159071e-06	-1.025222e-09	-1.540890e+01	-6.780623e+01
1.370000e-06	-2.117229e-06	-1.016509e-09	-1.511028e+01	-6.736260e+01
1.380000e-06	-2.075182e-06	-1.006988e-09	-1.481020e+01	-6.690989e+01
1.390000e-06	-2.032876e-06	-9.976746e-10	-1.450827e+01	-6.644815e+01
1.400000e-06	-1.990355e-06	-9.890169e-10	-1.420481e+01	-6.597762e+01
1.410000e-06	-1.947640e-06	-9.842506e-10	-1.389996e+01	-6.549863e+01
1.420000e-06	-1.904691e-06	-9.816318e-10	-1.359344e+01	-6.501165e+01
1.430000e-06	-1.861565e-06	-9.777338e-10	-1.328565e+01	-6.451720e+01
1.440000e-06	-1.818257e-06	-9.721967e-10	-1.297657e+01	-6.401584e+01
1.450000e-06	-1.774780e-06	-9.632018e-10	-1.266628e+01	-6.350812e+01
1.460000e-06	-1.731162e-06	-9.516917e-10	-1.235499e+01	-6.299458e+01
1.470000e-06	-1.687419e-06	-9.411180e-10	-1.204280e+01	-6.247568e+01
1.480000e-06	-1.643642e-06	-9.328067e-10	-1.173038e+01	-6.195180e+01
1.490000e-06	-1.599818e-06	-9.264266e-10	-1.141761e+01	-6.142320e+01
1.500000e-06	-1.555948e-06	-9.215604e-10	-1.110452e+01	-6.089006e+01
1.510000e-06	-1.512029e-06	-9.157121e-10	-1.079107e+01	-6.035240e+01
1.520000e-06	-1.468042e-06	-9.073672e-10	-1.047715e+01	-5.981018e+01
1.530000e-06	-1.423943e-06	-8.962785e-10	-1.016242e+01	-5.926323e+01
1.540000e-06	-1.379784e-06	-8.838710e-10	-9.847266e+00	-5.871130e+01
1.550000e-06	-1.335600e-06	-8.716015e-10	-9.531936e+00	-5.815409e+01
1.560000e-06	-1.291376e-06	-8.627516e-10	-9.216319e+00	-5.759126e+01
1.570000e-06	-1.247113e-06	-8.582661e-10	-8.900422e+00	-5.702245e+01
1.580000e-06	-1.202800e-06	-8.541743e-10	-8.584166e+00	-5.644732e+01
1.590000e-06	-1.158373e-06	-8.475563e-10	-8.267095e+00	-5.586555e+01
1.600000e-06	-1.113822e-06	-8.392464e-10	-7.949143e+00	-5.527686e+01
1.610000e-06	-1.069209e-06	-8.281522e-10	-7.630754e+00	-5.468101e+01
1.620000e-06	-1.024549e-06	-8.147814e-10	-7.312022e+00	-5.407784e+01
1.630000e-06	-9.797402e-07	-8.003151e-10	-6.992228e+00	-5.346721e+01
1.640000e-06	-9.347683e-07	-7.870335e-10	-6.671272e+00	-5.284904e+01
1.650000e-06	-8.897198e-07	-7.763344e-10	-6.349769e+00	-5.222327e+01
1.660000e-06	-8.446255e-07	-7.685518e-10	-6.027939e+00	-5.158985e+01
1.670000e-06	-7.995458e-07	-7.619117e-10	-5.706213e+00	-5.094870e+01
1.680000e-06	-7.544786e-07	-7.550887e-10	-5.384577e+00	-5.029973e+01
1.690000e-06	-7.093321e-07	-7.467134e-10	-5.062375e+00	-4.964278e+01
1.700000e-06	-6.640388e-07	-7.356391e-10	-4.739125e+00	-4.897763e+01
1.710000e-06	-6.187019e-07	-7.229737e-10	-4.415563e+00	-4.830395e+01
1.720000e-06	-5.734039e-07	-7.113451e-10	-4.092280e+00	-4.762133e+01
1.730000e-06	-5.280790e-07	-7.022929e-10	-3.768804e+00	-4.692925e+01
1.740000e-06	-4.826907e-07	-6.930076e-10	-3.444876e+00	-4.622709e+01
1.750000e-06	-4.372169e-07	-6.802135e-10	-3.120338e+00	-4.551417e+01
1.760000e-06	-3.916335e-07	-6.654760e-10	-2.795017e+00	-4.478970e+01
1.770000e-06	-3.460232e-07	-6.521740e-10	-2.469505e+00	-4.405288e+01
1.780000e-06	-3.003902e-07	-6.395950e-10	-2.143830e+00	-4.330289e+01
1.790000e-06	-2.547295e-07	-6.277982e-10	-1.817958e+00	-4.253890e+01
1.800000e-06	-2.091044e-07	-6.169977e-10	-1.492340e+00	-4.176016e+01
1.810000e-06	-1.635040e-07	-6.065972e-10	-1.166898e+00	-4.096598e+01
1.820000e-06	-1.178795e-07	-5.956498e-10	-8.412846e-01	-4.015579e+01
1.830000e-06	-7.219154e-08	-5.832628e-10	-5.152180e-01	-3.932915e+01
1.840000e-06	-2.653348e-08	-5.697103e-10	-1.893646e-01	-3.848579e+01
1.850000e-06	1.907380e-08	-5.558399e-10	1.361262e-01	-3.762559e+01
1.860000e-06	6.463929e-08	-5.413103e-10	4.613189e-01	-3.674863e+01
1.870000e-06	1.101749e-07	-5.274450e-10	7.862982e-01	-3.585514e+01
1.880000e-06	1.558233e-07	-5.155634e-10	1.112083e+00	-3.494554e+01
1.890000e-06	2.014984e-07	-5.046808e-10	1.438057e+00	-3.402037e+01
1.900000e-06	2.471126e-07	-4.903643e-10	1.763598e+00	-3.308032e+01
1.910000e-06	2.926882e-07	-4.725432e-10	2.088863e+00	-3.212616e+01
1.920000e-06	3.382128e-07	-4.545887e-10	2.413764e+00	-3.115872e+01
1.930000e-06	3.837185e-07	-4.383484e-10	2.738530e+00	-3.017885e+01
1.940000e-06	4.292692e-07	-4.241814e-10	3.063616e+00	-2.918742e+01
1.950000e-06	4.748484e-07	-4.110847e-10	3.388907e+00	-2.818524e+01
1.960000e-06	5.203080e-07	-3.986951e-10	3.713344e+00	-2.717306e+01
1.970000e-06	5.656438e-07	-3.861530e-10	4.036897e+00	-2.615152e+01
1.980000e-06	6.109448e-07	-3.726886e-10	4.360203e+00	-2.512119e+01
1.990000e-06	6.562114e-07	-3.582297e-10	4.683262e+00	-2.408249e+01
2.000000e-06	7.014065e-07	-3.403175e-10	5.005811e+00	-2.303574e+01
2.010000e-06	7.465585e-07	-3.217347e-10	5.328053e+00	-2.198112e+01
2.020000e-06	7.916305e-07	-3.056420e-10	5.649724e+00	-2.091871e+01
2.030000e-06	8.366240e-07	-2.916663e-10	5.970834e+00	-1.984851e+01
2.040000e-06	8.816091e-07	-2.766423e-10	6.291885e+00	-1.877042e+01
2.050000e-06	9.265179e-07	-2.596942e-10	6.612390e+00	-1.768428e+01
2.060000e-06	9.714395e-07	-2.426998e-10	6.932988e+00	-1.658991e+01
2.070000e-06	1.016293e-06	-2.256617e-10	7.253102e+00	-1.548709e+01
2.080000e-06	1.060929e-06	-2.081761e-10	7.571658e+00	-1.437563e+01
2.090000e-06	1.105515e-06	-1.873519e-10	7.889859e+00	-1.325530e+01
2.100000e-06	1.150042e-06	-1.664259e-10	8.207641e+00	-1.212594e+01
2.110000e-06	1.194401e-06	-1.504549e-10	8.524223e+00	-1.098738e+01
2.120000e-06	1.238692e-06	-1.347048e-10	8.840318e+00	-9.839475e+00
2.130000e-06	1.282992e-06	-1.167601e-10	9.156479e+00	-8.682110e+00
2.140000e-06	1.327179e-06	-9.910915e-11	9.471836e+00	-7.515162e+00
2.150000e-06	1.371243e-06	-8.250407e-11	9.786314e+00	-6.338507e+00
2.160000e-06	1.415300e-06	-6.690122e-11	1.010074e+01	-5.151998e+00
2.170000e-06	1.459340e-06	-4.799443e-11	1.041505e+01	-3.955457e+00
2.180000e-06	1.503346e-06	-2.773212e-11	1.072911e+01	-2.748658e+00
2.190000e-06	1.547281e-06	-1.003587e-11	1.104267e+01	-1.531327e+00
2.200000e-06	1.591137e-06	6.994884e-12	1.135565e+01	-3.031328e-01
2.210000e-06	1.634936e-06	2.544342e-11	1.166824e+01	9.363054e-01
2.220000e-06	1.678700e-06	4.538086e-11	1.198058e+01	2.187409e+00
2.230000e-06	1.722428e-06	6.475993e-11	1.229266e+01	3.450622e+00
2.240000e-06	1.766081e-06	8.388867e-11	1.260420e+01	4.726388e+00
2.250000e-06	1.809632e-06	1.067434e-10	1.291501e+01	6.015117e+00
2.260000e-06	1.853052e-06	1.320261e-10	1.322490e+01	7.317155e+00
2.270000e-06	1.896330e-06	1.547279e-10	1.353376e+01	8.632740e+00
2.280000e-06	1.939469e-06	1.733866e-10	1.384164e+01	9.961971e+00
2.290000e-06	1.982327e-06	1.942301e-10	1.414751e+01	1.130476e+01
2.300000e-06	2.024950e-06	2.180008e-10	1.445170e+01	1.266081e+01
2.310000e-06	2.067305e-06	2.377210e-10	1.475398e+01	1.402958e+01
2.320000e-06	2.109308e-06	2.561001e-10	1.505375e+01	1.541026e+01
2.330000e-06	2.151120e-06	2.783834e-10	1.535215e+01	1.680177e+01
2.340000e-06	2.192605e-06	3.029833e-10	1.564822e+01	1.820275e+01
2.350000e-06	2.233737e-06	3.264265e-10	1.594178e+01	1.961160e+01
2.360000e-06	2.274668e-06	3.469512e-10	1.623389e+01	2.102645e+01
2.370000e-06	2.315386e-06	3.681664e-10	1.652449e+01	2.244526e+01
2.380000e-06	2.355871e-06	3.946040e-10	1.681343e+01	2.386583e+01
2.390000e-06	2.396155e-06	4.212911e-10	1.710092e+01	2.528585e+01
2.400000e-06	2.436258e-06	4.424144e-10	1.738713e+01	2.670299e+01
2.410000e-06	2.476275e-06	4.603348e-10	1.767273e+01	2.811493e+01
2.420000e-06	2.516239e-06	4.819038e-10	1.795794e+01	2.951945e+01
2.430000e-06	2.556129e-06	5.084762e-10	1.824263e+01	3.091448e+01
2.440000e-06	2.595949e-06	5.323522e-10	1.852682e+01	3.229817e+01
2.450000e-06	2.635622e-06	5.502780e-10	1.880996e+01	3.366893e+01
2.460000e-06	2.675163e-06	5.685991e-10	1.909216e+01	3.502546e+01
2.470000e-06	2.714603e-06	5.901727e-10	1.937363e+01	3.636677e+01
2.480000e-06	2.753864e-06	6.103947e-10	1.965383e+01	3.769223e+01
2.490000e-06	2.792843e-06	6.266658e-10	1.993202e+01	3.900152e+01
2.500000e-06	2.831543e-06	6.435399e-10	2.020821e+01	4.029462e+01
2.510000e-06	2.870038e-06	6.638666e-10	2.048294e+01	4.157181e+01
2.520000e-06	2.908293e-06	6.861643e-10	2.075596e+01	4.283359e+01
2.530000e-06	2.946390e-06	7.092368e-10	2.102785e+01	4.408064e+01
2.540000e-06	2.984335e-06	7.321122e-10	2.129866e+01	4.531377e+01
2.550000e-06	3.021986e-06	7.526499e-10	2.156737e+01	4.653384e+01
2.560000e-06	3.059491e-06	7.691359e-10	2.183503e+01	4.774170e+01
2.570000e-06	3.096943e-06	7.827578e-10	2.210232e+01	4.893815e+01
2.580000e-06	3.134109e-06	7.955092e-10	2.236757e+01	5.012385e+01
2.590000e-06	3.170994e-06	8.106529e-10	2.263081e+01	5.129933e+01
2.600000e-06	3.207626e-06	8.304717e-10	2.289224e+01	5.246487e+01
2.610000e-06	3.243968e-06	8.525445e-10	2.315161e+01	5.362058e+01
2.620000e-06	3.280089e-06	8.737385e-10	2.340940e+01	5.476631e+01
2.630000e-06	3.316073e-06	8.919361e-10	2.366621e+01	5.590169e+01
2.640000e-06	3.351969e-06	9.071433e-10	2.392240e+01	5.702614e+01
2.650000e-06	3.387797e-06	9.178664e-10	2.417809e+01	5.813890e+01
2.660000e-06	3.423573e-06	9.256285e-10	2.443342e+01	5.923907e+01
2.670000e-06	3.459175e-06	9.388480e-10	2.468750e+01	6.032567e+01
2.680000e-06	3.494521e-06	9.573423e-10	2.493977e+01	6.139762e+01
2.690000e-06	3.529483e-06	9.772685e-10	2.518928e+01	6.245388e+01
2.700000e-06	3.564047e-06	9.964903e-10	2.543595e+01	6.349344e+01
2.710000e-06	3.598288e-06	1.015830e-09	2.568033e+01	6.451536e+01
2.720000e-06	3.631984e-06	1.032263e-09	2.592081e+01	6.551885e+01
2.730000e-06	3.665125e-06	1.045850e-09	2.615733e+01	6.650323e+01
2.740000e-06	3.697938e-06	1.058258e-09	2.639151e+01	6.746801e+01
2.750000e-06	3.730463e-06	1.069824e-09	2.662364e+01	6.841283e+01
2.760000e-06	3.762699e-06	1.083585e-09	2.685370e+01	6.933751e+01
2.770000e-06	3.794762e-06	1.097794e-09	2.708253e+01	7.024200e+01
2.780000e-06	3.826682e-06	1.113043e-09	2.731033e+01	7.112637e+01
2.790000e-06	3.858429e-06	1.128981e-09	2.753691e+01	7.199075e+01
2.800000e-06	3.890056e-06	1.142610e-09	2.776262e+01	7.283535e+01
2.810000e-06	3.921438e-06	1.151897e-09	2.798659e+01	7.366037e+01
2.820000e-06	3.952539e-06	1.158492e-09	2.820856e+01	7.446600e+01
2.830000e-06	3.983417e-06	1.168118e-09	2.842893e+01	7.525237e+01
2.840000e-06	4.013909e-06	1.180546e-09	2.864654e+01	7.601953e+01
2.850000e-06	4.044048e-06	1.192265e-09	2.886164e+01	7.676745e+01
2.860000e-06	4.073975e-06	1.204299e-09	2.907522e+01	7.749599e+01
2.870000e-06	4.103642e-06	1.218756e-09	2.928695e+01	7.820493e+01
2.880000e-06	4.133134e-06	1.232581e-09	2.949743e+01	7.889397e+01
2.890000e-06	4.162464e-06	1.240566e-09	2.970675e+01	7.956275e+01
2.900000e-06	4.191406e-06	1.244301e-09	2.991331e+01	8.021090e+01
