# Temperatura_=_13.2
# Concentracion g/m^3_=_4090.0
# C_Vs_to_Am_M_A/Vsm_=_65563218390.804596
# pendiente_HvsI_1/m_=_3716.3
# ordenada_HvsI_A/m_=_1297.0
# frecuencia_Hz_=_135085.46084550908

Tiempo_(s)	Campo_(V.s)	Magnetizacion_(V.s)	Campo_(kA/m)	Magnetizacion_(A/m)
0.000000e+00	-5.446236e-06	-1.225967e-09	-3.838366e+01	-8.455122e+01
1.000000e-08	-5.446406e-06	-1.219715e-09	-3.838486e+01	-8.434853e+01
2.000000e-08	-5.446278e-06	-1.215413e-09	-3.838396e+01	-8.412694e+01
3.000000e-08	-5.445892e-06	-1.211003e-09	-3.838124e+01	-8.388820e+01
4.000000e-08	-5.444964e-06	-1.209254e-09	-3.837470e+01	-8.363492e+01
5.000000e-08	-5.443425e-06	-1.211424e-09	-3.836385e+01	-8.337061e+01
6.000000e-08	-5.441347e-06	-1.226438e-09	-3.834920e+01	-8.309957e+01
7.000000e-08	-5.438771e-06	-1.259270e-09	-3.833105e+01	-8.282682e+01
8.000000e-08	-5.435641e-06	-1.227394e-09	-3.830899e+01	-8.255793e+01
9.000000e-08	-5.431961e-06	-1.112985e-09	-3.828305e+01	-8.229887e+01
1.000000e-07	-5.427892e-06	-1.123778e-09	-3.825438e+01	-8.205581e+01
1.100000e-07	-5.423588e-06	-1.311851e-09	-3.822404e+01	-8.183488e+01
1.200000e-07	-5.419073e-06	-1.315143e-09	-3.819223e+01	-8.164194e+01
1.300000e-07	-5.414217e-06	-1.112201e-09	-3.815800e+01	-8.148238e+01
1.400000e-07	-5.409003e-06	-1.081349e-09	-3.812125e+01	-8.136084e+01
1.500000e-07	-5.403467e-06	-1.335236e-09	-3.808224e+01	-8.128107e+01
1.600000e-07	-5.397458e-06	-1.357276e-09	-3.803989e+01	-8.124568e+01
1.700000e-07	-5.391065e-06	-1.073171e-09	-3.799483e+01	-8.125609e+01
1.800000e-07	-5.384435e-06	-1.027695e-09	-3.794810e+01	-8.131234e+01
1.900000e-07	-5.377388e-06	-1.277997e-09	-3.789844e+01	-8.141313e+01
2.000000e-07	-5.369926e-06	-1.328587e-09	-3.784585e+01	-8.155578e+01
2.100000e-07	-5.362267e-06	-1.146125e-09	-3.779187e+01	-8.173629e+01
2.200000e-07	-5.354399e-06	-1.198208e-09	-3.773642e+01	-8.194949e+01
2.300000e-07	-5.346179e-06	-1.373898e-09	-3.767848e+01	-8.218917e+01
2.400000e-07	-5.337533e-06	-1.313575e-09	-3.761755e+01	-8.244831e+01
2.500000e-07	-5.328369e-06	-1.196333e-09	-3.755297e+01	-8.271927e+01
2.600000e-07	-5.318479e-06	-1.325587e-09	-3.748327e+01	-8.299409e+01
2.700000e-07	-5.307808e-06	-1.402886e-09	-3.740806e+01	-8.326478e+01
2.800000e-07	-5.296716e-06	-1.256348e-09	-3.732988e+01	-8.352353e+01
2.900000e-07	-5.285270e-06	-1.244301e-09	-3.724922e+01	-8.376302e+01
3.000000e-07	-5.273418e-06	-1.418171e-09	-3.716569e+01	-8.397666e+01
3.100000e-07	-5.261119e-06	-1.363400e-09	-3.707900e+01	-8.415876e+01
3.200000e-07	-5.248463e-06	-1.221903e-09	-3.698981e+01	-8.430476e+01
3.300000e-07	-5.235519e-06	-1.318803e-09	-3.689858e+01	-8.441131e+01
3.400000e-07	-5.222082e-06	-1.424860e-09	-3.680388e+01	-8.447632e+01
3.500000e-07	-5.208147e-06	-1.324864e-09	-3.670567e+01	-8.449906e+01
3.600000e-07	-5.193850e-06	-1.305793e-09	-3.660491e+01	-8.448003e+01
3.700000e-07	-5.179107e-06	-1.374194e-09	-3.650101e+01	-8.442093e+01
3.800000e-07	-5.163827e-06	-1.319474e-09	-3.639332e+01	-8.432450e+01
3.900000e-07	-5.148024e-06	-1.281139e-09	-3.628194e+01	-8.419439e+01
4.000000e-07	-5.131654e-06	-1.346275e-09	-3.616657e+01	-8.403489e+01
4.100000e-07	-5.114873e-06	-1.316610e-09	-3.604830e+01	-8.385080e+01
4.200000e-07	-5.097791e-06	-1.255409e-09	-3.592791e+01	-8.364713e+01
4.300000e-07	-5.080505e-06	-1.340550e-09	-3.580608e+01	-8.342890e+01
4.400000e-07	-5.062988e-06	-1.385031e-09	-3.568263e+01	-8.320095e+01
4.500000e-07	-5.045013e-06	-1.290212e-09	-3.555595e+01	-8.296771e+01
4.600000e-07	-5.026657e-06	-1.260649e-09	-3.542658e+01	-8.273306e+01
4.700000e-07	-5.007969e-06	-1.318420e-09	-3.529487e+01	-8.250021e+01
4.800000e-07	-4.988883e-06	-1.302957e-09	-3.516035e+01	-8.227160e+01
4.900000e-07	-4.969514e-06	-1.267777e-09	-3.502385e+01	-8.204888e+01
5.000000e-07	-4.949943e-06	-1.266155e-09	-3.488591e+01	-8.183290e+01
5.100000e-07	-4.930142e-06	-1.269907e-09	-3.474637e+01	-8.162374e+01
5.200000e-07	-4.910132e-06	-1.290280e-09	-3.460534e+01	-8.142082e+01
5.300000e-07	-4.889882e-06	-1.306603e-09	-3.446262e+01	-8.122299e+01
5.400000e-07	-4.869308e-06	-1.258861e-09	-3.431762e+01	-8.102867e+01
5.500000e-07	-4.848321e-06	-1.238527e-09	-3.416971e+01	-8.083599e+01
5.600000e-07	-4.826832e-06	-1.282524e-09	-3.401826e+01	-8.064298e+01
5.700000e-07	-4.805025e-06	-1.288164e-09	-3.386457e+01	-8.044767e+01
5.800000e-07	-4.782968e-06	-1.239780e-09	-3.370912e+01	-8.024825e+01
5.900000e-07	-4.760620e-06	-1.231651e-09	-3.355162e+01	-8.004324e+01
6.000000e-07	-4.738011e-06	-1.252139e-09	-3.339228e+01	-7.983151e+01
6.100000e-07	-4.714955e-06	-1.261179e-09	-3.322979e+01	-7.961240e+01
6.200000e-07	-4.691472e-06	-1.249272e-09	-3.306428e+01	-7.938576e+01
6.300000e-07	-4.667816e-06	-1.227671e-09	-3.289756e+01	-7.915193e+01
6.400000e-07	-4.644038e-06	-1.233829e-09	-3.272998e+01	-7.891171e+01
6.500000e-07	-4.620036e-06	-1.269254e-09	-3.256082e+01	-7.866633e+01
6.600000e-07	-4.595748e-06	-1.263840e-09	-3.238964e+01	-7.841736e+01
6.700000e-07	-4.571082e-06	-1.219905e-09	-3.221580e+01	-7.816658e+01
6.800000e-07	-4.545893e-06	-1.209870e-09	-3.203828e+01	-7.791591e+01
6.900000e-07	-4.520083e-06	-1.232012e-09	-3.185638e+01	-7.766726e+01
7.000000e-07	-4.493763e-06	-1.231552e-09	-3.167088e+01	-7.742241e+01
7.100000e-07	-4.467144e-06	-1.207942e-09	-3.148328e+01	-7.718292e+01
7.200000e-07	-4.440110e-06	-1.202758e-09	-3.129275e+01	-7.695004e+01
7.300000e-07	-4.412694e-06	-1.226156e-09	-3.109952e+01	-7.672461e+01
7.400000e-07	-4.385064e-06	-1.241856e-09	-3.090480e+01	-7.650702e+01
7.500000e-07	-4.357227e-06	-1.219661e-09	-3.070861e+01	-7.629719e+01
7.600000e-07	-4.329155e-06	-1.193607e-09	-3.051076e+01	-7.609459e+01
7.700000e-07	-4.300808e-06	-1.196620e-09	-3.031098e+01	-7.589824e+01
7.800000e-07	-4.272152e-06	-1.207841e-09	-3.010902e+01	-7.570681e+01
7.900000e-07	-4.243164e-06	-1.194694e-09	-2.990472e+01	-7.551865e+01
8.000000e-07	-4.213884e-06	-1.177775e-09	-2.969837e+01	-7.533191e+01
8.100000e-07	-4.184336e-06	-1.181875e-09	-2.949012e+01	-7.514467e+01
8.200000e-07	-4.154587e-06	-1.197801e-09	-2.928045e+01	-7.495498e+01
8.300000e-07	-4.124563e-06	-1.195998e-09	-2.906885e+01	-7.476106e+01
8.400000e-07	-4.094205e-06	-1.177512e-09	-2.885490e+01	-7.456131e+01
8.500000e-07	-4.063488e-06	-1.167749e-09	-2.863842e+01	-7.435447e+01
8.600000e-07	-4.032414e-06	-1.178992e-09	-2.841941e+01	-7.413964e+01
8.700000e-07	-4.001160e-06	-1.183882e-09	-2.819914e+01	-7.391635e+01
8.800000e-07	-3.969773e-06	-1.168501e-09	-2.797793e+01	-7.368456e+01
8.900000e-07	-3.938201e-06	-1.152915e-09	-2.775542e+01	-7.344469e+01
9.000000e-07	-3.906487e-06	-1.156506e-09	-2.753191e+01	-7.319756e+01
9.100000e-07	-3.874513e-06	-1.163007e-09	-2.730657e+01	-7.294435e+01
9.200000e-07	-3.842307e-06	-1.153483e-09	-2.707958e+01	-7.268654e+01
9.300000e-07	-3.809953e-06	-1.141158e-09	-2.685157e+01	-7.242581e+01
9.400000e-07	-3.777287e-06	-1.147537e-09	-2.662134e+01	-7.216394e+01
9.500000e-07	-3.744177e-06	-1.158846e-09	-2.638799e+01	-7.190274e+01
9.600000e-07	-3.710596e-06	-1.156291e-09	-2.615132e+01	-7.164391e+01
9.700000e-07	-3.676513e-06	-1.138330e-09	-2.591112e+01	-7.138896e+01
9.800000e-07	-3.641933e-06	-1.126897e-09	-2.566740e+01	-7.113916e+01
9.900000e-07	-3.606925e-06	-1.125875e-09	-2.542067e+01	-7.089542e+01
1.000000e-06	-3.571639e-06	-1.119292e-09	-2.517199e+01	-7.065828e+01
1.010000e-06	-3.536214e-06	-1.107042e-09	-2.492232e+01	-7.042788e+01
1.020000e-06	-3.500641e-06	-1.102817e-09	-2.467161e+01	-7.020394e+01
1.030000e-06	-3.464857e-06	-1.108977e-09	-2.441942e+01	-6.998580e+01
1.040000e-06	-3.428928e-06	-1.112827e-09	-2.416620e+01	-6.977244e+01
1.050000e-06	-3.392827e-06	-1.107740e-09	-2.391177e+01	-6.956255e+01
1.060000e-06	-3.356507e-06	-1.101023e-09	-2.365579e+01	-6.935460e+01
1.070000e-06	-3.320039e-06	-1.098306e-09	-2.339877e+01	-6.914692e+01
1.080000e-06	-3.283285e-06	-1.092350e-09	-2.313974e+01	-6.893775e+01
1.090000e-06	-3.246235e-06	-1.081617e-09	-2.287863e+01	-6.872541e+01
1.100000e-06	-3.208948e-06	-1.069681e-09	-2.261584e+01	-6.850829e+01
1.110000e-06	-3.171486e-06	-1.065838e-09	-2.235181e+01	-6.828498e+01
1.120000e-06	-3.133790e-06	-1.066646e-09	-2.208614e+01	-6.805431e+01
1.130000e-06	-3.095852e-06	-1.066308e-09	-2.181876e+01	-6.781540e+01
1.140000e-06	-3.057676e-06	-1.065591e-09	-2.154971e+01	-6.756768e+01
1.150000e-06	-3.019293e-06	-1.066910e-09	-2.127920e+01	-6.731091e+01
1.160000e-06	-2.980747e-06	-1.065358e-09	-2.100754e+01	-6.704515e+01
1.170000e-06	-2.942010e-06	-1.056578e-09	-2.073453e+01	-6.677077e+01
1.180000e-06	-2.903098e-06	-1.040553e-09	-2.046028e+01	-6.648836e+01
1.190000e-06	-2.863931e-06	-1.025037e-09	-2.018425e+01	-6.619873e+01
1.200000e-06	-2.824582e-06	-1.020263e-09	-1.990693e+01	-6.590282e+01
1.210000e-06	-2.785070e-06	-1.024367e-09	-1.962845e+01	-6.560163e+01
1.220000e-06	-2.745365e-06	-1.027809e-09	-1.934862e+01	-6.529618e+01
1.230000e-06	-2.705567e-06	-1.030255e-09	-1.906814e+01	-6.498741e+01
1.240000e-06	-2.665717e-06	-1.027993e-09	-1.878728e+01	-6.467619e+01
1.250000e-06	-2.625750e-06	-1.021715e-09	-1.850561e+01	-6.436320e+01
1.260000e-06	-2.585680e-06	-1.012337e-09	-1.822321e+01	-6.404895e+01
1.270000e-06	-2.545455e-06	-9.980738e-10	-1.793971e+01	-6.373374e+01
1.280000e-06	-2.504992e-06	-9.841983e-10	-1.765454e+01	-6.341768e+01
1.290000e-06	-2.464312e-06	-9.787651e-10	-1.736783e+01	-6.310067e+01
1.300000e-06	-2.423424e-06	-9.797310e-10	-1.707966e+01	-6.278241e+01
1.310000e-06	-2.382285e-06	-9.790464e-10	-1.678973e+01	-6.246250e+01
1.320000e-06	-2.340915e-06	-9.754745e-10	-1.649817e+01	-6.214041e+01
1.330000e-06	-2.299248e-06	-9.698201e-10	-1.620451e+01	-6.181555e+01
1.340000e-06	-2.257287e-06	-9.644014e-10	-1.590877e+01	-6.148733e+01
1.350000e-06	-2.215029e-06	-9.580965e-10	-1.561095e+01	-6.115518e+01
1.360000e-06	-2.172431e-06	-9.495690e-10	-1.531073e+01	-6.081863e+01
1.370000e-06	-2.129587e-06	-9.419574e-10	-1.500878e+01	-6.047728e+01
1.380000e-06	-2.086399e-06	-9.388407e-10	-1.470440e+01	-6.013089e+01
1.390000e-06	-2.042947e-06	-9.367222e-10	-1.439816e+01	-5.977937e+01
1.400000e-06	-1.999432e-06	-9.322890e-10	-1.409148e+01	-5.942275e+01
1.410000e-06	-1.955898e-06	-9.244796e-10	-1.378466e+01	-5.906122e+01
1.420000e-06	-1.912272e-06	-9.170138e-10	-1.347720e+01	-5.869509e+01
1.430000e-06	-1.868562e-06	-9.128697e-10	-1.316914e+01	-5.832476e+01
1.440000e-06	-1.824813e-06	-9.089496e-10	-1.286081e+01	-5.795068e+01
1.450000e-06	-1.781044e-06	-9.025507e-10	-1.255234e+01	-5.757332e+01
1.460000e-06	-1.737225e-06	-8.973547e-10	-1.224351e+01	-5.719314e+01
1.470000e-06	-1.693301e-06	-8.961477e-10	-1.193395e+01	-5.681051e+01
1.480000e-06	-1.649284e-06	-8.947906e-10	-1.162373e+01	-5.642573e+01
1.490000e-06	-1.605108e-06	-8.896859e-10	-1.131238e+01	-5.603894e+01
1.500000e-06	-1.560773e-06	-8.834628e-10	-1.099993e+01	-5.565014e+01
1.510000e-06	-1.516386e-06	-8.796548e-10	-1.068710e+01	-5.525917e+01
1.520000e-06	-1.471980e-06	-8.736127e-10	-1.037413e+01	-5.486570e+01
1.530000e-06	-1.427368e-06	-8.619362e-10	-1.005972e+01	-5.446923e+01
1.540000e-06	-1.382601e-06	-8.509535e-10	-9.744217e+00	-5.406911e+01
1.550000e-06	-1.337800e-06	-8.448266e-10	-9.428467e+00	-5.366460e+01
1.560000e-06	-1.292944e-06	-8.414246e-10	-9.112337e+00	-5.325483e+01
1.570000e-06	-1.248043e-06	-8.358016e-10	-8.795884e+00	-5.283892e+01
1.580000e-06	-1.202984e-06	-8.276742e-10	-8.478323e+00	-5.241595e+01
1.590000e-06	-1.157816e-06	-8.225039e-10	-8.159986e+00	-5.198502e+01
1.600000e-06	-1.112560e-06	-8.193887e-10	-7.841032e+00	-5.154529e+01
1.610000e-06	-1.067168e-06	-8.106956e-10	-7.521121e+00	-5.109600e+01
1.620000e-06	-1.021685e-06	-7.971703e-10	-7.200572e+00	-5.063648e+01
1.630000e-06	-9.762358e-07	-7.867354e-10	-6.880257e+00	-5.016617e+01
1.640000e-06	-9.307142e-07	-7.803281e-10	-6.559433e+00	-4.968463e+01
1.650000e-06	-8.850308e-07	-7.736647e-10	-6.237468e+00	-4.919150e+01
1.660000e-06	-8.393137e-07	-7.629123e-10	-5.915266e+00	-4.868651e+01
1.670000e-06	-7.935351e-07	-7.542452e-10	-5.592630e+00	-4.816945e+01
1.680000e-06	-7.477567e-07	-7.514028e-10	-5.269996e+00	-4.764011e+01
1.690000e-06	-7.019717e-07	-7.476533e-10	-4.947315e+00	-4.709827e+01
1.700000e-06	-6.561418e-07	-7.365022e-10	-4.624318e+00	-4.654367e+01
1.710000e-06	-6.103201e-07	-7.221893e-10	-4.301378e+00	-4.597593e+01
1.720000e-06	-5.645114e-07	-7.124474e-10	-3.978530e+00	-4.539456e+01
1.730000e-06	-5.186210e-07	-7.063951e-10	-3.655107e+00	-4.479892e+01
1.740000e-06	-4.726003e-07	-6.962548e-10	-3.330765e+00	-4.418821e+01
1.750000e-06	-4.266141e-07	-6.823345e-10	-3.006666e+00	-4.356143e+01
1.760000e-06	-3.806142e-07	-6.716649e-10	-2.682471e+00	-4.291744e+01
1.770000e-06	-3.345159e-07	-6.634401e-10	-2.357582e+00	-4.225493e+01
1.780000e-06	-2.884186e-07	-6.527235e-10	-2.032700e+00	-4.157246e+01
1.790000e-06	-2.422964e-07	-6.398058e-10	-1.707643e+00	-4.086852e+01
1.800000e-06	-1.960508e-07	-6.265849e-10	-1.381715e+00	-4.014154e+01
1.810000e-06	-1.498234e-07	-6.147149e-10	-1.055916e+00	-3.938997e+01
1.820000e-06	-1.037078e-07	-6.032729e-10	-7.309056e-01	-3.861233e+01
1.830000e-06	-5.757358e-08	-5.885300e-10	-4.057637e-01	-3.780724e+01
1.840000e-06	-1.140578e-08	-5.718599e-10	-8.038501e-02	-3.697351e+01
1.850000e-06	3.480417e-08	-5.599792e-10	2.452908e-01	-3.611015e+01
1.860000e-06	8.098408e-08	-5.512737e-10	5.707549e-01	-3.521644e+01
1.870000e-06	1.271039e-07	-5.389498e-10	8.957955e-01	-3.429191e+01
1.880000e-06	1.731907e-07	-5.239799e-10	1.220603e+00	-3.333642e+01
1.890000e-06	2.191744e-07	-5.073750e-10	1.544685e+00	-3.235009e+01
1.900000e-06	2.652460e-07	-4.905463e-10	1.869385e+00	-3.133331e+01
1.910000e-06	3.114174e-07	-4.731203e-10	2.194789e+00	-3.028674e+01
1.920000e-06	3.575037e-07	-4.550398e-10	2.519593e+00	-2.921122e+01
1.930000e-06	4.035709e-07	-4.383217e-10	2.844263e+00	-2.810775e+01
1.940000e-06	4.495913e-07	-4.210234e-10	3.168603e+00	-2.697743e+01
1.950000e-06	4.955267e-07	-4.021139e-10	3.492344e+00	-2.582139e+01
1.960000e-06	5.414871e-07	-3.860749e-10	3.816261e+00	-2.464071e+01
1.970000e-06	5.873935e-07	-3.698715e-10	4.139797e+00	-2.343639e+01
1.980000e-06	6.332805e-07	-3.510555e-10	4.463197e+00	-2.220928e+01
1.990000e-06	6.791712e-07	-3.304059e-10	4.786623e+00	-2.096004e+01
2.000000e-06	7.249655e-07	-3.097333e-10	5.109369e+00	-1.968907e+01
2.010000e-06	7.706740e-07	-2.913119e-10	5.431511e+00	-1.839655e+01
2.020000e-06	8.163328e-07	-2.728367e-10	5.753303e+00	-1.708238e+01
2.030000e-06	8.620047e-07	-2.490238e-10	6.075186e+00	-1.574622e+01
2.040000e-06	9.076117e-07	-2.234492e-10	6.396612e+00	-1.438748e+01
2.050000e-06	9.530976e-07	-2.027837e-10	6.717185e+00	-1.300541e+01
2.060000e-06	9.985806e-07	-1.839883e-10	7.037738e+00	-1.159910e+01
2.070000e-06	1.044092e-06	-1.614770e-10	7.358494e+00	-1.016757e+01
2.080000e-06	1.089590e-06	-1.351546e-10	7.679148e+00	-8.709825e+00
2.090000e-06	1.134919e-06	-1.113526e-10	7.998616e+00	-7.224915e+00
2.100000e-06	1.179971e-06	-9.119934e-11	8.316133e+00	-5.712030e+00
2.110000e-06	1.224902e-06	-6.806929e-11	8.632793e+00	-4.170553e+00
2.120000e-06	1.269844e-06	-3.949208e-11	8.949533e+00	-2.600120e+00
2.130000e-06	1.314686e-06	-1.191570e-11	9.265569e+00	-1.000676e+00
2.140000e-06	1.359431e-06	1.175068e-11	9.580921e+00	6.274863e-01
2.150000e-06	1.404070e-06	3.497014e-11	9.895521e+00	2.283697e+00
2.160000e-06	1.448509e-06	5.837682e-11	1.020872e+01	3.966899e+00
2.170000e-06	1.492817e-06	8.267111e-11	1.052098e+01	5.675643e+00
2.180000e-06	1.536969e-06	1.073480e-10	1.083216e+01	7.408107e+00
2.190000e-06	1.581061e-06	1.317383e-10	1.114291e+01	9.162122e+00
2.200000e-06	1.625071e-06	1.578688e-10	1.145308e+01	1.093521e+01
2.210000e-06	1.669030e-06	1.851033e-10	1.176289e+01	1.272462e+01
2.220000e-06	1.712989e-06	2.139115e-10	1.207270e+01	1.452742e+01
2.230000e-06	1.756849e-06	2.444321e-10	1.238181e+01	1.634049e+01
2.240000e-06	1.800624e-06	2.774545e-10	1.269033e+01	1.816065e+01
2.250000e-06	1.844367e-06	3.087059e-10	1.299862e+01	1.998465e+01
2.260000e-06	1.888060e-06	3.369991e-10	1.330655e+01	2.180927e+01
2.270000e-06	1.931687e-06	3.643450e-10	1.361403e+01	2.363137e+01
2.280000e-06	1.975283e-06	3.929436e-10	1.392128e+01	2.544789e+01
2.290000e-06	2.018806e-06	4.221289e-10	1.422802e+01	2.725590e+01
2.300000e-06	2.062131e-06	4.484349e-10	1.453337e+01	2.905264e+01
2.310000e-06	2.105234e-06	4.722343e-10	1.483715e+01	3.083553e+01
2.320000e-06	2.148145e-06	4.973703e-10	1.513957e+01	3.260216e+01
2.330000e-06	2.190834e-06	5.247089e-10	1.544043e+01	3.435030e+01
2.340000e-06	2.233338e-06	5.500088e-10	1.573999e+01	3.607789e+01
2.350000e-06	2.275615e-06	5.736163e-10	1.603795e+01	3.778305e+01
2.360000e-06	2.317569e-06	5.984281e-10	1.633363e+01	3.946406e+01
2.370000e-06	2.359127e-06	6.270308e-10	1.662652e+01	4.111934e+01
2.380000e-06	2.400297e-06	6.568742e-10	1.691667e+01	4.274743e+01
2.390000e-06	2.441140e-06	6.828385e-10	1.720452e+01	4.434703e+01
2.400000e-06	2.481697e-06	7.050948e-10	1.749036e+01	4.591692e+01
2.410000e-06	2.522080e-06	7.271450e-10	1.777497e+01	4.745603e+01
2.420000e-06	2.562251e-06	7.503410e-10	1.805808e+01	4.896340e+01
2.430000e-06	2.602322e-06	7.747583e-10	1.834049e+01	5.043818e+01
2.440000e-06	2.642366e-06	7.986885e-10	1.862271e+01	5.187966e+01
2.450000e-06	2.682243e-06	8.199013e-10	1.890376e+01	5.328725e+01
2.460000e-06	2.721992e-06	8.416445e-10	1.918389e+01	5.466052e+01
2.470000e-06	2.761618e-06	8.622508e-10	1.946317e+01	5.599918e+01
2.480000e-06	2.801186e-06	8.788093e-10	1.974204e+01	5.730308e+01
2.490000e-06	2.840613e-06	8.952742e-10	2.001990e+01	5.857226e+01
2.500000e-06	2.879790e-06	9.153988e-10	2.029602e+01	5.980688e+01
2.510000e-06	2.918749e-06	9.384837e-10	2.057059e+01	6.100726e+01
2.520000e-06	2.957475e-06	9.641697e-10	2.084352e+01	6.217384e+01
2.530000e-06	2.995952e-06	9.907670e-10	2.111469e+01	6.330719e+01
2.540000e-06	3.034139e-06	1.011914e-09	2.138383e+01	6.440796e+01
2.550000e-06	3.072124e-06	1.025030e-09	2.165153e+01	6.547688e+01
2.560000e-06	3.110017e-06	1.033482e-09	2.191860e+01	6.651470e+01
2.570000e-06	3.147801e-06	1.042448e-09	2.218489e+01	6.752219e+01
2.580000e-06	3.185400e-06	1.053236e-09	2.244988e+01	6.850008e+01
2.590000e-06	3.222790e-06	1.066392e-09	2.271339e+01	6.944906e+01
2.600000e-06	3.259905e-06	1.085274e-09	2.297497e+01	7.036973e+01
2.610000e-06	3.296731e-06	1.108057e-09	2.323451e+01	7.126260e+01
2.620000e-06	3.333254e-06	1.126550e-09	2.349191e+01	7.212807e+01
2.630000e-06	3.369546e-06	1.138579e-09	2.374769e+01	7.296640e+01
2.640000e-06	3.405656e-06	1.145953e-09	2.400218e+01	7.377773e+01
2.650000e-06	3.441565e-06	1.151414e-09	2.425526e+01	7.456209e+01
2.660000e-06	3.477370e-06	1.155986e-09	2.450761e+01	7.531941e+01
2.670000e-06	3.513101e-06	1.160940e-09	2.475943e+01	7.604952e+01
2.680000e-06	3.548754e-06	1.168694e-09	2.501070e+01	7.675222e+01
2.690000e-06	3.584236e-06	1.180432e-09	2.526077e+01	7.742725e+01
2.700000e-06	3.619421e-06	1.196729e-09	2.550874e+01	7.807439e+01
2.710000e-06	3.654243e-06	1.214529e-09	2.575416e+01	7.869342e+01
2.720000e-06	3.688604e-06	1.226292e-09	2.599633e+01	7.928421e+01
2.730000e-06	3.722498e-06	1.234304e-09	2.623520e+01	7.984673e+01
2.740000e-06	3.755931e-06	1.240826e-09	2.647083e+01	8.038105e+01
2.750000e-06	3.788957e-06	1.243873e-09	2.670359e+01	8.088738e+01
2.760000e-06	3.821592e-06	1.244783e-09	2.693359e+01	8.136609e+01
2.770000e-06	3.853861e-06	1.245362e-09	2.716102e+01	8.181768e+01
2.780000e-06	3.885909e-06	1.253367e-09	2.738688e+01	8.224280e+01
2.790000e-06	3.917751e-06	1.261691e-09	2.761130e+01	8.264225e+01
2.800000e-06	3.949467e-06	1.264015e-09	2.783482e+01	8.301693e+01
2.810000e-06	3.981043e-06	1.265563e-09	2.805736e+01	8.336785e+01
2.820000e-06	4.012434e-06	1.272608e-09	2.827860e+01	8.369608e+01
2.830000e-06	4.043611e-06	1.282565e-09	2.849832e+01	8.400274e+01
2.840000e-06	4.074448e-06	1.287782e-09	2.871566e+01	8.428897e+01
2.850000e-06	4.104942e-06	1.289623e-09	2.893057e+01	8.455592e+01
2.860000e-06	4.135080e-06	1.292064e-09	2.914297e+01	8.480469e+01
2.870000e-06	4.164933e-06	1.293651e-09	2.935337e+01	8.503635e+01
2.880000e-06	4.194603e-06	1.294062e-09	2.956248e+01	8.525190e+01
2.890000e-06	4.223969e-06	1.290918e-09	2.976944e+01	8.545228e+01
2.900000e-06	4.253049e-06	1.291765e-09	2.997439e+01	8.563837e+01
