# Temperatura_=_19.37
# Concentracion g/m^3_=_4090.0
# C_Vs_to_Am_M_A/Vsm_=_65563218390.804596
# pendiente_HvsI_1/m_=_3716.3
# ordenada_HvsI_A/m_=_1297.0
# frecuencia_Hz_=_135083.29717877504

Tiempo_(s)	Campo_(V.s)	Magnetizacion_(V.s)	Campo_(kA/m)	Magnetizacion_(A/m)
0.000000e+00	-5.416244e-06	-1.299985e-09	-3.838584e+01	-8.573779e+01
1.000000e-08	-5.416364e-06	-1.296027e-09	-3.838669e+01	-8.557943e+01
2.000000e-08	-5.416293e-06	-1.292603e-09	-3.838618e+01	-8.539797e+01
3.000000e-08	-5.415990e-06	-1.289112e-09	-3.838403e+01	-8.519385e+01
4.000000e-08	-5.415281e-06	-1.289456e-09	-3.837901e+01	-8.496855e+01
5.000000e-08	-5.414082e-06	-1.292676e-09	-3.837051e+01	-8.472459e+01
6.000000e-08	-5.412336e-06	-1.291906e-09	-3.835814e+01	-8.446550e+01
7.000000e-08	-5.409906e-06	-1.288443e-09	-3.834092e+01	-8.419573e+01
8.000000e-08	-5.406874e-06	-1.290000e-09	-3.831943e+01	-8.392057e+01
9.000000e-08	-5.403247e-06	-1.277900e-09	-3.829372e+01	-8.364594e+01
1.000000e-07	-5.399137e-06	-1.297936e-09	-3.826460e+01	-8.337821e+01
1.100000e-07	-5.394820e-06	-1.327506e-09	-3.823400e+01	-8.312397e+01
1.200000e-07	-5.390360e-06	-1.287745e-09	-3.820239e+01	-8.288976e+01
1.300000e-07	-5.385679e-06	-1.222894e-09	-3.816921e+01	-8.268181e+01
1.400000e-07	-5.380609e-06	-1.272820e-09	-3.813328e+01	-8.250578e+01
1.500000e-07	-5.375038e-06	-1.340446e-09	-3.809380e+01	-8.236653e+01
1.600000e-07	-5.369204e-06	-1.306289e-09	-3.805245e+01	-8.226787e+01
1.700000e-07	-5.363054e-06	-1.152002e-09	-3.800887e+01	-8.221238e+01
1.800000e-07	-5.356415e-06	-1.223179e-09	-3.796181e+01	-8.220130e+01
1.900000e-07	-5.349308e-06	-1.302764e-09	-3.791145e+01	-8.223439e+01
2.000000e-07	-5.341936e-06	-1.286319e-09	-3.785920e+01	-8.230995e+01
2.100000e-07	-5.334431e-06	-1.169038e-09	-3.780601e+01	-8.242483e+01
2.200000e-07	-5.326714e-06	-1.231834e-09	-3.775132e+01	-8.257450e+01
2.300000e-07	-5.318687e-06	-1.291242e-09	-3.769443e+01	-8.275325e+01
2.400000e-07	-5.310351e-06	-1.256162e-09	-3.763535e+01	-8.295433e+01
2.500000e-07	-5.301503e-06	-1.233402e-09	-3.757264e+01	-8.317024e+01
2.600000e-07	-5.292006e-06	-1.298573e-09	-3.750534e+01	-8.339297e+01
2.700000e-07	-5.281864e-06	-1.322917e-09	-3.743346e+01	-8.361432e+01
2.800000e-07	-5.271174e-06	-1.253798e-09	-3.735770e+01	-8.382618e+01
2.900000e-07	-5.259934e-06	-1.261501e-09	-3.727804e+01	-8.402084e+01
3.000000e-07	-5.248221e-06	-1.290072e-09	-3.719503e+01	-8.419130e+01
3.100000e-07	-5.236232e-06	-1.268549e-09	-3.711006e+01	-8.433146e+01
3.200000e-07	-5.223830e-06	-1.225960e-09	-3.702216e+01	-8.443636e+01
3.300000e-07	-5.210983e-06	-1.322791e-09	-3.693111e+01	-8.450237e+01
3.400000e-07	-5.197759e-06	-1.322525e-09	-3.683740e+01	-8.452723e+01
3.500000e-07	-5.184174e-06	-1.277832e-09	-3.674111e+01	-8.451015e+01
3.600000e-07	-5.170168e-06	-1.258609e-09	-3.664185e+01	-8.445175e+01
3.700000e-07	-5.155775e-06	-1.318564e-09	-3.653985e+01	-8.435401e+01
3.800000e-07	-5.140932e-06	-1.247270e-09	-3.643465e+01	-8.422013e+01
3.900000e-07	-5.125573e-06	-1.229491e-09	-3.632580e+01	-8.405435e+01
4.000000e-07	-5.109501e-06	-1.259572e-09	-3.621190e+01	-8.386169e+01
4.100000e-07	-5.092848e-06	-1.283712e-09	-3.609387e+01	-8.364779e+01
4.200000e-07	-5.075867e-06	-1.247015e-09	-3.597353e+01	-8.341855e+01
4.300000e-07	-5.058651e-06	-1.285146e-09	-3.585151e+01	-8.317994e+01
4.400000e-07	-5.041246e-06	-1.280066e-09	-3.572816e+01	-8.293768e+01
4.500000e-07	-5.023622e-06	-1.242896e-09	-3.560326e+01	-8.269704e+01
4.600000e-07	-5.005725e-06	-1.229678e-09	-3.547642e+01	-8.246261e+01
4.700000e-07	-4.987456e-06	-1.258201e-09	-3.534694e+01	-8.223814e+01
4.800000e-07	-4.968714e-06	-1.229009e-09	-3.521411e+01	-8.202643e+01
4.900000e-07	-4.949422e-06	-1.219401e-09	-3.507739e+01	-8.182921e+01
5.000000e-07	-4.929749e-06	-1.242282e-09	-3.493796e+01	-8.164718e+01
5.100000e-07	-4.909900e-06	-1.244272e-09	-3.479729e+01	-8.147999e+01
5.200000e-07	-4.889877e-06	-1.226324e-09	-3.465538e+01	-8.132635e+01
5.300000e-07	-4.869683e-06	-1.225992e-09	-3.451227e+01	-8.118414e+01
5.400000e-07	-4.849274e-06	-1.227218e-09	-3.436762e+01	-8.105055e+01
5.500000e-07	-4.828468e-06	-1.220353e-09	-3.422017e+01	-8.092229e+01
5.600000e-07	-4.807130e-06	-1.229648e-09	-3.406894e+01	-8.079577e+01
5.700000e-07	-4.785428e-06	-1.220458e-09	-3.391513e+01	-8.066730e+01
5.800000e-07	-4.763510e-06	-1.207394e-09	-3.375980e+01	-8.053330e+01
5.900000e-07	-4.741352e-06	-1.200899e-09	-3.360276e+01	-8.039048e+01
6.000000e-07	-4.718896e-06	-1.207671e-09	-3.344362e+01	-8.023600e+01
6.100000e-07	-4.696037e-06	-1.193593e-09	-3.328161e+01	-8.006762e+01
6.200000e-07	-4.672729e-06	-1.194990e-09	-3.311642e+01	-7.988375e+01
6.300000e-07	-4.649172e-06	-1.192357e-09	-3.294947e+01	-7.968357e+01
6.400000e-07	-4.625502e-06	-1.206133e-09	-3.278171e+01	-7.946699e+01
6.500000e-07	-4.601612e-06	-1.203825e-09	-3.261240e+01	-7.923467e+01
6.600000e-07	-4.577459e-06	-1.200000e-09	-3.244123e+01	-7.898792e+01
6.700000e-07	-4.552970e-06	-1.176706e-09	-3.226766e+01	-7.872867e+01
6.800000e-07	-4.528129e-06	-1.176996e-09	-3.209161e+01	-7.845929e+01
6.900000e-07	-4.502802e-06	-1.167109e-09	-3.191212e+01	-7.818248e+01
7.000000e-07	-4.476888e-06	-1.162134e-09	-3.172846e+01	-7.790111e+01
7.100000e-07	-4.450423e-06	-1.151000e-09	-3.154090e+01	-7.761811e+01
7.200000e-07	-4.423396e-06	-1.163392e-09	-3.134936e+01	-7.733628e+01
7.300000e-07	-4.395962e-06	-1.169057e-09	-3.115493e+01	-7.705815e+01
7.400000e-07	-4.368340e-06	-1.173766e-09	-3.095916e+01	-7.678592e+01
7.500000e-07	-4.340557e-06	-1.156867e-09	-3.076226e+01	-7.652131e+01
7.600000e-07	-4.312612e-06	-1.148491e-09	-3.056421e+01	-7.626553e+01
7.700000e-07	-4.284513e-06	-1.144748e-09	-3.036506e+01	-7.601923e+01
7.800000e-07	-4.256241e-06	-1.144757e-09	-3.016470e+01	-7.578249e+01
7.900000e-07	-4.227647e-06	-1.134422e-09	-2.996205e+01	-7.555487e+01
8.000000e-07	-4.198600e-06	-1.131563e-09	-2.975619e+01	-7.533542e+01
8.100000e-07	-4.169194e-06	-1.134255e-09	-2.954778e+01	-7.512280e+01
8.200000e-07	-4.139557e-06	-1.134618e-09	-2.933774e+01	-7.491532e+01
8.300000e-07	-4.109581e-06	-1.128177e-09	-2.912530e+01	-7.471107e+01
8.400000e-07	-4.079385e-06	-1.119286e-09	-2.891129e+01	-7.450801e+01
8.500000e-07	-4.048964e-06	-1.118207e-09	-2.869569e+01	-7.430410e+01
8.600000e-07	-4.018232e-06	-1.118806e-09	-2.847789e+01	-7.409738e+01
8.700000e-07	-3.987287e-06	-1.116162e-09	-2.825858e+01	-7.388605e+01
8.800000e-07	-3.955974e-06	-1.104122e-09	-2.803666e+01	-7.366857e+01
8.900000e-07	-3.924464e-06	-1.101883e-09	-2.781334e+01	-7.344371e+01
9.000000e-07	-3.892856e-06	-1.099168e-09	-2.758933e+01	-7.321059e+01
9.100000e-07	-3.861059e-06	-1.098723e-09	-2.736397e+01	-7.296867e+01
9.200000e-07	-3.829096e-06	-1.092296e-09	-2.713745e+01	-7.271779e+01
9.300000e-07	-3.796897e-06	-1.095465e-09	-2.690925e+01	-7.245812e+01
9.400000e-07	-3.764365e-06	-1.099263e-09	-2.667869e+01	-7.219013e+01
9.500000e-07	-3.731447e-06	-1.105601e-09	-2.644539e+01	-7.191456e+01
9.600000e-07	-3.698154e-06	-1.099487e-09	-2.620944e+01	-7.163231e+01
9.700000e-07	-3.664395e-06	-1.093679e-09	-2.597019e+01	-7.134444e+01
9.800000e-07	-3.630232e-06	-1.083060e-09	-2.572806e+01	-7.105208e+01
9.900000e-07	-3.595772e-06	-1.077096e-09	-2.548384e+01	-7.075634e+01
1.000000e-06	-3.560827e-06	-1.065152e-09	-2.523618e+01	-7.045832e+01
1.010000e-06	-3.525498e-06	-1.063226e-09	-2.498580e+01	-7.015900e+01
1.020000e-06	-3.489927e-06	-1.065156e-09	-2.473370e+01	-6.985923e+01
1.030000e-06	-3.454144e-06	-1.072388e-09	-2.448010e+01	-6.955973e+01
1.040000e-06	-3.418237e-06	-1.068623e-09	-2.422562e+01	-6.926105e+01
1.050000e-06	-3.382225e-06	-1.060579e-09	-2.397040e+01	-6.896357e+01
1.060000e-06	-3.346111e-06	-1.048609e-09	-2.371446e+01	-6.866752e+01
1.070000e-06	-3.309839e-06	-1.038865e-09	-2.345739e+01	-6.837301e+01
1.080000e-06	-3.273431e-06	-1.025860e-09	-2.319936e+01	-6.808002e+01
1.090000e-06	-3.236813e-06	-1.017562e-09	-2.293984e+01	-6.778848e+01
1.100000e-06	-3.199767e-06	-1.019362e-09	-2.267729e+01	-6.749824e+01
1.110000e-06	-3.162348e-06	-1.027611e-09	-2.241209e+01	-6.720915e+01
1.120000e-06	-3.124771e-06	-1.031442e-09	-2.214578e+01	-6.692106e+01
1.130000e-06	-3.087114e-06	-1.025127e-09	-2.187890e+01	-6.663381e+01
1.140000e-06	-3.049334e-06	-1.015773e-09	-2.161114e+01	-6.634730e+01
1.150000e-06	-3.011303e-06	-1.007132e-09	-2.134162e+01	-6.606146e+01
1.160000e-06	-2.973064e-06	-1.000241e-09	-2.107061e+01	-6.577624e+01
1.170000e-06	-2.934673e-06	-9.921151e-10	-2.079852e+01	-6.549160e+01
1.180000e-06	-2.896001e-06	-9.882470e-10	-2.052445e+01	-6.520754e+01
1.190000e-06	-2.857160e-06	-9.873860e-10	-2.024918e+01	-6.492400e+01
1.200000e-06	-2.818117e-06	-9.907261e-10	-1.997247e+01	-6.464091e+01
1.210000e-06	-2.778756e-06	-9.892896e-10	-1.969351e+01	-6.435813e+01
1.220000e-06	-2.739214e-06	-9.856177e-10	-1.941327e+01	-6.407544e+01
1.230000e-06	-2.699568e-06	-9.770957e-10	-1.913229e+01	-6.379254e+01
1.240000e-06	-2.659828e-06	-9.715599e-10	-1.885065e+01	-6.350902e+01
1.250000e-06	-2.619972e-06	-9.640741e-10	-1.856819e+01	-6.322435e+01
1.260000e-06	-2.580032e-06	-9.582813e-10	-1.828513e+01	-6.293792e+01
1.270000e-06	-2.539978e-06	-9.505829e-10	-1.800125e+01	-6.264904e+01
1.280000e-06	-2.499751e-06	-9.466230e-10	-1.771616e+01	-6.235693e+01
1.290000e-06	-2.459363e-06	-9.442613e-10	-1.742992e+01	-6.206081e+01
1.300000e-06	-2.418862e-06	-9.403238e-10	-1.714289e+01	-6.175985e+01
1.310000e-06	-2.378123e-06	-9.322237e-10	-1.685416e+01	-6.145330e+01
1.320000e-06	-2.337225e-06	-9.273960e-10	-1.656430e+01	-6.114044e+01
1.330000e-06	-2.296231e-06	-9.236731e-10	-1.627377e+01	-6.082066e+01
1.340000e-06	-2.254909e-06	-9.198076e-10	-1.598092e+01	-6.049349e+01
1.350000e-06	-2.213180e-06	-9.138071e-10	-1.568518e+01	-6.015859e+01
1.360000e-06	-2.171025e-06	-9.082573e-10	-1.538642e+01	-5.981582e+01
1.370000e-06	-2.128573e-06	-9.015344e-10	-1.508555e+01	-5.946519e+01
1.380000e-06	-2.085868e-06	-8.975399e-10	-1.478290e+01	-5.910688e+01
1.390000e-06	-2.042914e-06	-8.932525e-10	-1.447848e+01	-5.874126e+01
1.400000e-06	-1.999870e-06	-8.884736e-10	-1.417341e+01	-5.836880e+01
1.410000e-06	-1.956724e-06	-8.831393e-10	-1.386763e+01	-5.799009e+01
1.420000e-06	-1.913370e-06	-8.773559e-10	-1.356037e+01	-5.760579e+01
1.430000e-06	-1.869825e-06	-8.729465e-10	-1.325176e+01	-5.721656e+01
1.440000e-06	-1.826157e-06	-8.690679e-10	-1.294228e+01	-5.682306e+01
1.450000e-06	-1.782404e-06	-8.637743e-10	-1.263220e+01	-5.642587e+01
1.460000e-06	-1.738589e-06	-8.561170e-10	-1.232168e+01	-5.602544e+01
1.470000e-06	-1.694690e-06	-8.511707e-10	-1.201055e+01	-5.562211e+01
1.480000e-06	-1.650676e-06	-8.472919e-10	-1.169862e+01	-5.521600e+01
1.490000e-06	-1.606600e-06	-8.424417e-10	-1.138625e+01	-5.480707e+01
1.500000e-06	-1.562497e-06	-8.353019e-10	-1.107368e+01	-5.439504e+01
1.510000e-06	-1.518338e-06	-8.276307e-10	-1.076072e+01	-5.397945e+01
1.520000e-06	-1.474105e-06	-8.190256e-10	-1.044723e+01	-5.355964e+01
1.530000e-06	-1.429805e-06	-8.097392e-10	-1.013327e+01	-5.313478e+01
1.540000e-06	-1.385452e-06	-7.993224e-10	-9.818931e+00	-5.270393e+01
1.550000e-06	-1.341058e-06	-7.918698e-10	-9.504306e+00	-5.226603e+01
1.560000e-06	-1.296601e-06	-7.870897e-10	-9.189230e+00	-5.181999e+01
1.570000e-06	-1.252007e-06	-7.849051e-10	-8.873187e+00	-5.136474e+01
1.580000e-06	-1.207295e-06	-7.813797e-10	-8.556305e+00	-5.089921e+01
1.590000e-06	-1.162481e-06	-7.751011e-10	-8.238700e+00	-5.042247e+01
1.600000e-06	-1.117550e-06	-7.661765e-10	-7.920262e+00	-4.993371e+01
1.610000e-06	-1.072544e-06	-7.582184e-10	-7.601299e+00	-4.943225e+01
1.620000e-06	-1.027472e-06	-7.473320e-10	-7.281869e+00	-4.891761e+01
1.630000e-06	-9.823169e-07	-7.356591e-10	-6.961846e+00	-4.838949e+01
1.640000e-06	-9.370336e-07	-7.261668e-10	-6.640915e+00	-4.784776e+01
1.650000e-06	-8.916892e-07	-7.215442e-10	-6.319552e+00	-4.729246e+01
1.660000e-06	-8.463640e-07	-7.162595e-10	-5.998324e+00	-4.672375e+01
1.670000e-06	-8.009979e-07	-7.090620e-10	-5.676808e+00	-4.614188e+01
1.680000e-06	-7.555056e-07	-7.004450e-10	-5.354395e+00	-4.554717e+01
1.690000e-06	-7.098970e-07	-6.905201e-10	-5.031160e+00	-4.493991e+01
1.700000e-06	-6.641811e-07	-6.794853e-10	-4.707163e+00	-4.432037e+01
1.710000e-06	-6.183899e-07	-6.685768e-10	-4.382633e+00	-4.368868e+01
1.720000e-06	-5.727111e-07	-6.584572e-10	-4.058900e+00	-4.304486e+01
1.730000e-06	-5.270264e-07	-6.488211e-10	-3.735125e+00	-4.238871e+01
1.740000e-06	-4.812338e-07	-6.384045e-10	-3.410585e+00	-4.171983e+01
1.750000e-06	-4.354437e-07	-6.280843e-10	-3.086063e+00	-4.103757e+01
1.760000e-06	-3.895256e-07	-6.166440e-10	-2.760633e+00	-4.034104e+01
1.770000e-06	-3.435841e-07	-6.030496e-10	-2.435038e+00	-3.962911e+01
1.780000e-06	-2.977142e-07	-5.908551e-10	-2.109951e+00	-3.890042e+01
1.790000e-06	-2.517591e-07	-5.790437e-10	-1.784259e+00	-3.815343e+01
1.800000e-06	-2.057620e-07	-5.647845e-10	-1.458270e+00	-3.738642e+01
1.810000e-06	-1.598282e-07	-5.475091e-10	-1.132730e+00	-3.659759e+01
1.820000e-06	-1.139809e-07	-5.319133e-10	-8.078019e-01	-3.578508e+01
1.830000e-06	-6.816532e-08	-5.193666e-10	-4.830991e-01	-3.494704e+01
1.840000e-06	-2.226578e-08	-5.083949e-10	-1.578013e-01	-3.408167e+01
1.850000e-06	2.371593e-08	-4.969317e-10	1.680788e-01	-3.318730e+01
1.860000e-06	6.972990e-08	-4.865517e-10	4.941876e-01	-3.226242e+01
1.870000e-06	1.157232e-07	-4.748135e-10	8.201495e-01	-3.130574e+01
1.880000e-06	1.616593e-07	-4.606884e-10	1.145707e+00	-3.031619e+01
1.890000e-06	2.075786e-07	-4.416205e-10	1.471144e+00	-2.929300e+01
1.900000e-06	2.534779e-07	-4.196480e-10	1.796441e+00	-2.823563e+01
1.910000e-06	2.993578e-07	-3.987498e-10	2.121599e+00	-2.714386e+01
1.920000e-06	3.451992e-07	-3.795404e-10	2.446485e+00	-2.601770e+01
1.930000e-06	3.910155e-07	-3.598665e-10	2.771193e+00	-2.485740e+01
1.940000e-06	4.368289e-07	-3.402432e-10	3.095880e+00	-2.366345e+01
1.950000e-06	4.826624e-07	-3.210953e-10	3.420710e+00	-2.243650e+01
1.960000e-06	5.284500e-07	-3.045859e-10	3.745214e+00	-2.117732e+01
1.970000e-06	5.741938e-07	-2.860097e-10	4.069409e+00	-1.988682e+01
1.980000e-06	6.199295e-07	-2.619415e-10	4.393545e+00	-1.856593e+01
1.990000e-06	6.655289e-07	-2.356652e-10	4.716715e+00	-1.721562e+01
2.000000e-06	7.110503e-07	-2.114465e-10	5.039333e+00	-1.583685e+01
2.010000e-06	7.566302e-07	-1.906873e-10	5.362366e+00	-1.443055e+01
2.020000e-06	8.022085e-07	-1.707305e-10	5.685387e+00	-1.299758e+01
2.030000e-06	8.476505e-07	-1.482374e-10	6.007442e+00	-1.153877e+01
2.040000e-06	8.928870e-07	-1.253701e-10	6.328041e+00	-1.005488e+01
2.050000e-06	9.380727e-07	-1.027751e-10	6.648279e+00	-8.546603e+00
2.060000e-06	9.832756e-07	-7.858320e-11	6.968640e+00	-7.014620e+00
2.070000e-06	1.028452e-06	-5.219003e-11	7.288812e+00	-5.459581e+00
2.080000e-06	1.073591e-06	-2.764605e-11	7.608719e+00	-3.882146e+00
2.090000e-06	1.118605e-06	-4.688521e-12	7.927742e+00	-2.283008e+00
2.100000e-06	1.163521e-06	1.838171e-11	8.246067e+00	-6.629164e-01
2.110000e-06	1.208335e-06	4.410045e-11	8.563675e+00	9.772931e-01
2.120000e-06	1.253044e-06	7.512276e-11	8.880536e+00	2.636679e+00
2.130000e-06	1.297646e-06	1.043426e-10	9.196639e+00	4.314177e+00
2.140000e-06	1.342085e-06	1.282518e-10	9.511585e+00	6.008585e+00
2.150000e-06	1.386465e-06	1.499048e-10	9.826109e+00	7.718555e+00
2.160000e-06	1.430868e-06	1.728227e-10	1.014080e+01	9.442596e+00
2.170000e-06	1.475183e-06	1.959951e-10	1.045487e+01	1.117908e+01
2.180000e-06	1.519418e-06	2.206189e-10	1.076837e+01	1.292623e+01
2.190000e-06	1.563588e-06	2.488375e-10	1.108141e+01	1.468217e+01
2.200000e-06	1.607641e-06	2.816190e-10	1.139362e+01	1.644493e+01
2.210000e-06	1.651620e-06	3.134328e-10	1.170531e+01	1.821243e+01
2.220000e-06	1.695531e-06	3.418016e-10	1.201651e+01	1.998255e+01
2.230000e-06	1.739402e-06	3.653710e-10	1.232743e+01	2.175312e+01
2.240000e-06	1.783217e-06	3.897628e-10	1.263796e+01	2.352197e+01
2.250000e-06	1.826932e-06	4.136168e-10	1.294778e+01	2.528687e+01
2.260000e-06	1.870565e-06	4.380630e-10	1.325701e+01	2.704566e+01
2.270000e-06	1.914117e-06	4.644469e-10	1.356567e+01	2.879616e+01
2.280000e-06	1.957391e-06	4.948963e-10	1.387236e+01	3.053622e+01
2.290000e-06	2.000475e-06	5.285782e-10	1.417770e+01	3.226373e+01
2.300000e-06	2.043447e-06	5.585510e-10	1.448225e+01	3.397662e+01
2.310000e-06	2.086183e-06	5.815055e-10	1.478513e+01	3.567283e+01
2.320000e-06	2.128670e-06	6.018066e-10	1.508624e+01	3.735038e+01
2.330000e-06	2.170850e-06	6.265175e-10	1.538518e+01	3.900730e+01
2.340000e-06	2.212747e-06	6.524213e-10	1.568211e+01	4.064171e+01
2.350000e-06	2.254304e-06	6.752658e-10	1.597663e+01	4.225175e+01
2.360000e-06	2.295589e-06	6.980695e-10	1.626923e+01	4.383565e+01
2.370000e-06	2.336687e-06	7.241509e-10	1.656050e+01	4.539173e+01
2.380000e-06	2.377564e-06	7.516135e-10	1.685020e+01	4.691839e+01
2.390000e-06	2.418236e-06	7.771866e-10	1.713845e+01	4.841419e+01
2.400000e-06	2.458762e-06	7.979223e-10	1.742566e+01	4.987779e+01
2.410000e-06	2.499077e-06	8.174665e-10	1.771138e+01	5.130805e+01
2.420000e-06	2.539150e-06	8.405063e-10	1.799539e+01	5.270402e+01
2.430000e-06	2.579122e-06	8.658744e-10	1.827867e+01	5.406493e+01
2.440000e-06	2.619055e-06	8.876893e-10	1.856169e+01	5.539028e+01
2.450000e-06	2.658901e-06	9.036858e-10	1.884408e+01	5.667978e+01
2.460000e-06	2.698641e-06	9.206152e-10	1.912572e+01	5.793338e+01
2.470000e-06	2.738225e-06	9.408674e-10	1.940626e+01	5.915130e+01
2.480000e-06	2.777687e-06	9.605977e-10	1.968594e+01	6.033398e+01
2.490000e-06	2.816982e-06	9.803190e-10	1.996443e+01	6.148206e+01
2.500000e-06	2.856062e-06	1.001070e-09	2.024140e+01	6.259639e+01
2.510000e-06	2.894924e-06	1.022800e-09	2.051681e+01	6.367795e+01
2.520000e-06	2.933492e-06	1.042032e-09	2.079016e+01	6.472786e+01
2.530000e-06	2.971859e-06	1.059081e-09	2.106206e+01	6.574729e+01
2.540000e-06	3.010034e-06	1.073444e-09	2.133262e+01	6.673743e+01
2.550000e-06	3.048007e-06	1.085444e-09	2.160174e+01	6.769945e+01
2.560000e-06	3.085793e-06	1.097725e-09	2.186954e+01	6.863444e+01
2.570000e-06	3.123357e-06	1.111979e-09	2.213576e+01	6.954338e+01
2.580000e-06	3.160715e-06	1.127738e-09	2.240052e+01	7.042709e+01
2.590000e-06	3.197818e-06	1.144586e-09	2.266348e+01	7.128621e+01
2.600000e-06	3.234702e-06	1.161232e-09	2.292488e+01	7.212118e+01
2.610000e-06	3.271429e-06	1.176855e-09	2.318517e+01	7.293226e+01
2.620000e-06	3.308012e-06	1.191281e-09	2.344444e+01	7.371949e+01
2.630000e-06	3.344308e-06	1.202839e-09	2.370168e+01	7.448274e+01
2.640000e-06	3.380276e-06	1.213634e-09	2.395658e+01	7.522171e+01
2.650000e-06	3.416157e-06	1.223951e-09	2.421088e+01	7.593600e+01
2.660000e-06	3.451991e-06	1.230590e-09	2.446484e+01	7.662514e+01
2.670000e-06	3.487678e-06	1.235912e-09	2.471776e+01	7.728863e+01
2.680000e-06	3.523187e-06	1.241374e-09	2.496942e+01	7.792601e+01
2.690000e-06	3.558510e-06	1.248916e-09	2.521976e+01	7.853687e+01
2.700000e-06	3.593526e-06	1.260179e-09	2.546792e+01	7.912095e+01
2.710000e-06	3.628065e-06	1.273478e-09	2.571271e+01	7.967817e+01
2.720000e-06	3.662085e-06	1.285696e-09	2.595381e+01	8.020861e+01
2.730000e-06	3.695674e-06	1.296225e-09	2.619186e+01	8.071261e+01
2.740000e-06	3.728888e-06	1.304508e-09	2.642725e+01	8.119071e+01
2.750000e-06	3.761691e-06	1.307607e-09	2.665974e+01	8.164371e+01
2.760000e-06	3.794176e-06	1.307206e-09	2.688996e+01	8.207260e+01
2.770000e-06	3.826392e-06	1.307296e-09	2.711829e+01	8.247857e+01
2.780000e-06	3.858375e-06	1.312446e-09	2.734495e+01	8.286295e+01
2.790000e-06	3.890254e-06	1.322462e-09	2.757089e+01	8.322719e+01
2.800000e-06	3.921964e-06	1.331151e-09	2.779562e+01	8.357277e+01
2.810000e-06	3.953480e-06	1.335489e-09	2.801898e+01	8.390119e+01
2.820000e-06	3.984780e-06	1.338622e-09	2.824081e+01	8.421390e+01
2.830000e-06	4.015825e-06	1.344708e-09	2.846083e+01	8.451223e+01
2.840000e-06	4.046651e-06	1.348316e-09	2.867930e+01	8.479738e+01
2.850000e-06	4.077141e-06	1.346620e-09	2.889538e+01	8.507034e+01
2.860000e-06	4.107253e-06	1.346586e-09	2.910879e+01	8.533192e+01
2.870000e-06	4.137120e-06	1.350198e-09	2.932047e+01	8.558269e+01
2.880000e-06	4.166773e-06	1.354877e-09	2.953062e+01	8.582302e+01
2.890000e-06	4.196080e-06	1.356277e-09	2.973833e+01	8.605305e+01
2.900000e-06	4.225005e-06	1.355758e-09	2.994332e+01	8.627276e+01
