# Temperatura_=_-2.3
# Concentracion g/m^3_=_4090.0
# C_Vs_to_Am_M_A/Vsm_=_65563218390.804596
# pendiente_HvsI_1/m_=_3716.3
# ordenada_HvsI_A/m_=_1297.0
# frecuencia_Hz_=_135071.12700866518

Tiempo_(s)	Campo_(V.s)	Magnetizacion_(V.s)	Campo_(kA/m)	Magnetizacion_(A/m)
0.000000e+00	-5.410877e-06	-1.868117e-09	-3.839789e+01	-1.245807e+02
1.000000e-08	-5.410929e-06	-1.870110e-09	-3.839826e+01	-1.244636e+02
2.000000e-08	-5.410796e-06	-1.867432e-09	-3.839732e+01	-1.243289e+02
3.000000e-08	-5.410309e-06	-1.859437e-09	-3.839386e+01	-1.241775e+02
4.000000e-08	-5.409360e-06	-1.851720e-09	-3.838713e+01	-1.240114e+02
5.000000e-08	-5.407883e-06	-1.850108e-09	-3.837665e+01	-1.238338e+02
6.000000e-08	-5.405868e-06	-1.863954e-09	-3.836235e+01	-1.236482e+02
7.000000e-08	-5.403275e-06	-1.885675e-09	-3.834395e+01	-1.234594e+02
8.000000e-08	-5.400051e-06	-1.851716e-09	-3.832107e+01	-1.232726e+02
9.000000e-08	-5.396332e-06	-1.775899e-09	-3.829468e+01	-1.230933e+02
1.000000e-07	-5.392293e-06	-1.807823e-09	-3.826601e+01	-1.229274e+02
1.100000e-07	-5.388007e-06	-1.926142e-09	-3.823560e+01	-1.227808e+02
1.200000e-07	-5.383470e-06	-1.872939e-09	-3.820340e+01	-1.226591e+02
1.300000e-07	-5.378642e-06	-1.778586e-09	-3.816914e+01	-1.225674e+02
1.400000e-07	-5.373416e-06	-1.811379e-09	-3.813205e+01	-1.225101e+02
1.500000e-07	-5.367774e-06	-1.974183e-09	-3.809202e+01	-1.224909e+02
1.600000e-07	-5.361764e-06	-1.926889e-09	-3.804937e+01	-1.225120e+02
1.700000e-07	-5.355437e-06	-1.748391e-09	-3.800447e+01	-1.225747e+02
1.800000e-07	-5.348706e-06	-1.782664e-09	-3.795670e+01	-1.226789e+02
1.900000e-07	-5.341546e-06	-1.910624e-09	-3.790589e+01	-1.228232e+02
2.000000e-07	-5.334107e-06	-1.900077e-09	-3.785310e+01	-1.230049e+02
2.100000e-07	-5.326466e-06	-1.807776e-09	-3.779888e+01	-1.232199e+02
2.200000e-07	-5.318556e-06	-1.909000e-09	-3.774275e+01	-1.234631e+02
2.300000e-07	-5.310350e-06	-1.979188e-09	-3.768452e+01	-1.237283e+02
2.400000e-07	-5.301722e-06	-1.913336e-09	-3.762329e+01	-1.240088e+02
2.500000e-07	-5.292496e-06	-1.884638e-09	-3.755781e+01	-1.242971e+02
2.600000e-07	-5.282681e-06	-1.999890e-09	-3.748816e+01	-1.245855e+02
2.700000e-07	-5.272202e-06	-1.982037e-09	-3.741380e+01	-1.248663e+02
2.800000e-07	-5.261199e-06	-1.890629e-09	-3.733572e+01	-1.251322e+02
2.900000e-07	-5.249818e-06	-1.944954e-09	-3.725495e+01	-1.253761e+02
3.000000e-07	-5.238000e-06	-2.031438e-09	-3.717109e+01	-1.255918e+02
3.100000e-07	-5.225754e-06	-1.939777e-09	-3.708419e+01	-1.257740e+02
3.200000e-07	-5.213122e-06	-1.887036e-09	-3.699454e+01	-1.259184e+02
3.300000e-07	-5.200112e-06	-1.964816e-09	-3.690222e+01	-1.260221e+02
3.400000e-07	-5.186820e-06	-1.973798e-09	-3.680789e+01	-1.260831e+02
3.500000e-07	-5.173196e-06	-1.918192e-09	-3.671121e+01	-1.261009e+02
3.600000e-07	-5.159102e-06	-1.964447e-09	-3.661119e+01	-1.260761e+02
3.700000e-07	-5.144587e-06	-1.988117e-09	-3.650819e+01	-1.260103e+02
3.800000e-07	-5.129472e-06	-1.923943e-09	-3.640092e+01	-1.259065e+02
3.900000e-07	-5.113597e-06	-1.931933e-09	-3.628827e+01	-1.257679e+02
4.000000e-07	-5.097194e-06	-1.971381e-09	-3.617187e+01	-1.255989e+02
4.100000e-07	-5.080477e-06	-1.914903e-09	-3.605324e+01	-1.254041e+02
4.200000e-07	-5.063512e-06	-1.877726e-09	-3.593284e+01	-1.251883e+02
4.300000e-07	-5.046255e-06	-1.951988e-09	-3.581038e+01	-1.249562e+02
4.400000e-07	-5.028665e-06	-1.955775e-09	-3.568555e+01	-1.247127e+02
4.500000e-07	-5.010787e-06	-1.905534e-09	-3.555869e+01	-1.244620e+02
4.600000e-07	-4.992566e-06	-1.909138e-09	-3.542938e+01	-1.242080e+02
4.700000e-07	-4.973923e-06	-1.937740e-09	-3.529708e+01	-1.239538e+02
4.800000e-07	-4.954972e-06	-1.905479e-09	-3.516260e+01	-1.237019e+02
4.900000e-07	-4.935776e-06	-1.899150e-09	-3.502638e+01	-1.234541e+02
5.000000e-07	-4.916287e-06	-1.897190e-09	-3.488808e+01	-1.232116e+02
5.100000e-07	-4.896553e-06	-1.893603e-09	-3.474803e+01	-1.229745e+02
5.200000e-07	-4.876557e-06	-1.902029e-09	-3.460613e+01	-1.227426e+02
5.300000e-07	-4.856229e-06	-1.919208e-09	-3.446187e+01	-1.225152e+02
5.400000e-07	-4.835588e-06	-1.889731e-09	-3.431540e+01	-1.222908e+02
5.500000e-07	-4.814606e-06	-1.883024e-09	-3.416650e+01	-1.220680e+02
5.600000e-07	-4.793233e-06	-1.895505e-09	-3.401483e+01	-1.218451e+02
5.700000e-07	-4.771581e-06	-1.888918e-09	-3.386118e+01	-1.216203e+02
5.800000e-07	-4.749644e-06	-1.861268e-09	-3.370550e+01	-1.213919e+02
5.900000e-07	-4.727368e-06	-1.858402e-09	-3.354742e+01	-1.211584e+02
6.000000e-07	-4.704669e-06	-1.866697e-09	-3.338634e+01	-1.209187e+02
6.100000e-07	-4.681540e-06	-1.876151e-09	-3.322221e+01	-1.206720e+02
6.200000e-07	-4.658142e-06	-1.866549e-09	-3.305617e+01	-1.204178e+02
6.300000e-07	-4.634534e-06	-1.851159e-09	-3.288863e+01	-1.201561e+02
6.400000e-07	-4.610742e-06	-1.858054e-09	-3.271979e+01	-1.198874e+02
6.500000e-07	-4.586758e-06	-1.871960e-09	-3.254959e+01	-1.196122e+02
6.600000e-07	-4.562504e-06	-1.861134e-09	-3.237748e+01	-1.193318e+02
6.700000e-07	-4.537843e-06	-1.840070e-09	-3.220247e+01	-1.190474e+02
6.800000e-07	-4.512700e-06	-1.838365e-09	-3.202405e+01	-1.187604e+02
6.900000e-07	-4.487209e-06	-1.843681e-09	-3.184315e+01	-1.184724e+02
7.000000e-07	-4.461299e-06	-1.841349e-09	-3.165929e+01	-1.181846e+02
7.100000e-07	-4.434739e-06	-1.824373e-09	-3.147081e+01	-1.178986e+02
7.200000e-07	-4.407687e-06	-1.819288e-09	-3.127883e+01	-1.176153e+02
7.300000e-07	-4.380423e-06	-1.830322e-09	-3.108535e+01	-1.173356e+02
7.400000e-07	-4.352906e-06	-1.839230e-09	-3.089008e+01	-1.170602e+02
7.500000e-07	-4.325116e-06	-1.820006e-09	-3.069287e+01	-1.167890e+02
7.600000e-07	-4.297162e-06	-1.807447e-09	-3.049450e+01	-1.165221e+02
7.700000e-07	-4.269009e-06	-1.808248e-09	-3.029471e+01	-1.162589e+02
7.800000e-07	-4.240522e-06	-1.810306e-09	-3.009256e+01	-1.159986e+02
7.900000e-07	-4.211672e-06	-1.793012e-09	-2.988782e+01	-1.157401e+02
8.000000e-07	-4.182481e-06	-1.779740e-09	-2.968067e+01	-1.154823e+02
8.100000e-07	-4.153040e-06	-1.775900e-09	-2.947174e+01	-1.152236e+02
8.200000e-07	-4.123363e-06	-1.784844e-09	-2.926115e+01	-1.149627e+02
8.300000e-07	-4.093446e-06	-1.782950e-09	-2.904884e+01	-1.146982e+02
8.400000e-07	-4.063281e-06	-1.775400e-09	-2.883478e+01	-1.144287e+02
8.500000e-07	-4.032760e-06	-1.770778e-09	-2.861819e+01	-1.141532e+02
8.600000e-07	-4.001950e-06	-1.775276e-09	-2.839955e+01	-1.138706e+02
8.700000e-07	-3.970852e-06	-1.769691e-09	-2.817886e+01	-1.135804e+02
8.800000e-07	-3.939526e-06	-1.755136e-09	-2.795656e+01	-1.132822e+02
8.900000e-07	-3.908052e-06	-1.741694e-09	-2.773320e+01	-1.129758e+02
9.000000e-07	-3.876380e-06	-1.739684e-09	-2.750845e+01	-1.126615e+02
9.100000e-07	-3.844555e-06	-1.739244e-09	-2.728261e+01	-1.123397e+02
9.200000e-07	-3.812546e-06	-1.733750e-09	-2.705545e+01	-1.120111e+02
9.300000e-07	-3.780243e-06	-1.731263e-09	-2.682622e+01	-1.116766e+02
9.400000e-07	-3.747588e-06	-1.737760e-09	-2.659449e+01	-1.113372e+02
9.500000e-07	-3.714543e-06	-1.740129e-09	-2.635999e+01	-1.109939e+02
9.600000e-07	-3.681150e-06	-1.729700e-09	-2.612302e+01	-1.106477e+02
9.700000e-07	-3.647319e-06	-1.713836e-09	-2.588294e+01	-1.102997e+02
9.800000e-07	-3.612970e-06	-1.701899e-09	-2.563918e+01	-1.099507e+02
9.900000e-07	-3.578216e-06	-1.694234e-09	-2.539255e+01	-1.096013e+02
1.000000e-06	-3.543192e-06	-1.685151e-09	-2.514401e+01	-1.092520e+02
1.010000e-06	-3.507952e-06	-1.680439e-09	-2.489392e+01	-1.089031e+02
1.020000e-06	-3.472454e-06	-1.681211e-09	-2.464202e+01	-1.085547e+02
1.030000e-06	-3.436753e-06	-1.687124e-09	-2.438867e+01	-1.082063e+02
1.040000e-06	-3.400916e-06	-1.683842e-09	-2.413436e+01	-1.078576e+02
1.050000e-06	-3.364965e-06	-1.672560e-09	-2.387923e+01	-1.075079e+02
1.060000e-06	-3.328871e-06	-1.656442e-09	-2.362309e+01	-1.071564e+02
1.070000e-06	-3.292564e-06	-1.644142e-09	-2.336544e+01	-1.068021e+02
1.080000e-06	-3.255987e-06	-1.632786e-09	-2.310588e+01	-1.064439e+02
1.090000e-06	-3.219136e-06	-1.626857e-09	-2.284436e+01	-1.060808e+02
1.100000e-06	-3.182053e-06	-1.625098e-09	-2.258121e+01	-1.057118e+02
1.110000e-06	-3.144703e-06	-1.628773e-09	-2.231616e+01	-1.053359e+02
1.120000e-06	-3.107057e-06	-1.627815e-09	-2.204900e+01	-1.049524e+02
1.130000e-06	-3.069203e-06	-1.619525e-09	-2.178037e+01	-1.045604e+02
1.140000e-06	-3.031158e-06	-1.605883e-09	-2.151039e+01	-1.041596e+02
1.150000e-06	-2.993026e-06	-1.597804e-09	-2.123979e+01	-1.037497e+02
1.160000e-06	-2.954824e-06	-1.590217e-09	-2.096870e+01	-1.033306e+02
1.170000e-06	-2.916325e-06	-1.580841e-09	-2.069549e+01	-1.029024e+02
1.180000e-06	-2.877616e-06	-1.571273e-09	-2.042080e+01	-1.024656e+02
1.190000e-06	-2.838645e-06	-1.566205e-09	-2.014424e+01	-1.020205e+02
1.200000e-06	-2.799415e-06	-1.564145e-09	-1.986584e+01	-1.015680e+02
1.210000e-06	-2.760004e-06	-1.561826e-09	-1.958617e+01	-1.011087e+02
1.220000e-06	-2.720360e-06	-1.556312e-09	-1.930484e+01	-1.006435e+02
1.230000e-06	-2.680663e-06	-1.549808e-09	-1.902313e+01	-1.001735e+02
1.240000e-06	-2.640929e-06	-1.542687e-09	-1.874116e+01	-9.969937e+01
1.250000e-06	-2.601077e-06	-1.533603e-09	-1.845836e+01	-9.922215e+01
1.260000e-06	-2.561069e-06	-1.523036e-09	-1.817444e+01	-9.874262e+01
1.270000e-06	-2.520958e-06	-1.510927e-09	-1.788979e+01	-9.826151e+01
1.280000e-06	-2.480752e-06	-1.504380e-09	-1.760448e+01	-9.777941e+01
1.290000e-06	-2.440344e-06	-1.499336e-09	-1.731772e+01	-9.729679e+01
1.300000e-06	-2.399737e-06	-1.494277e-09	-1.702956e+01	-9.681395e+01
1.310000e-06	-2.358993e-06	-1.487194e-09	-1.674042e+01	-9.633104e+01
1.320000e-06	-2.318132e-06	-1.480417e-09	-1.645045e+01	-9.584803e+01
1.330000e-06	-2.277073e-06	-1.472619e-09	-1.615908e+01	-9.536475e+01
1.340000e-06	-2.235636e-06	-1.464981e-09	-1.586503e+01	-9.488087e+01
1.350000e-06	-2.193808e-06	-1.456172e-09	-1.556820e+01	-9.439592e+01
1.360000e-06	-2.151622e-06	-1.447678e-09	-1.526883e+01	-9.390930e+01
1.370000e-06	-2.109121e-06	-1.439296e-09	-1.496722e+01	-9.342031e+01
1.380000e-06	-2.066385e-06	-1.431938e-09	-1.466395e+01	-9.292815e+01
1.390000e-06	-2.023408e-06	-1.426142e-09	-1.435897e+01	-9.243197e+01
1.400000e-06	-1.980276e-06	-1.421220e-09	-1.405288e+01	-9.193085e+01
1.410000e-06	-1.937036e-06	-1.413766e-09	-1.374603e+01	-9.142387e+01
1.420000e-06	-1.893641e-06	-1.404177e-09	-1.343809e+01	-9.091006e+01
1.430000e-06	-1.850150e-06	-1.394196e-09	-1.312945e+01	-9.038851e+01
1.440000e-06	-1.806589e-06	-1.385624e-09	-1.282033e+01	-8.985832e+01
1.450000e-06	-1.762927e-06	-1.377599e-09	-1.251048e+01	-8.931863e+01
1.460000e-06	-1.719146e-06	-1.371446e-09	-1.219980e+01	-8.876866e+01
1.470000e-06	-1.675289e-06	-1.365100e-09	-1.188857e+01	-8.820771e+01
1.480000e-06	-1.631333e-06	-1.358189e-09	-1.157664e+01	-8.763518e+01
1.490000e-06	-1.587259e-06	-1.351716e-09	-1.126387e+01	-8.705058e+01
1.500000e-06	-1.543133e-06	-1.343832e-09	-1.095073e+01	-8.645354e+01
1.510000e-06	-1.498969e-06	-1.334647e-09	-1.063732e+01	-8.584381e+01
1.520000e-06	-1.454747e-06	-1.322979e-09	-1.032351e+01	-8.522127e+01
1.530000e-06	-1.410477e-06	-1.308619e-09	-1.000935e+01	-8.458595e+01
1.540000e-06	-1.366150e-06	-1.294419e-09	-9.694785e+00	-8.393800e+01
1.550000e-06	-1.321727e-06	-1.281815e-09	-9.379543e+00	-8.327770e+01
1.560000e-06	-1.277208e-06	-1.270254e-09	-9.063615e+00	-8.260543e+01
1.570000e-06	-1.232607e-06	-1.260845e-09	-8.747108e+00	-8.192168e+01
1.580000e-06	-1.187920e-06	-1.250840e-09	-8.429990e+00	-8.122700e+01
1.590000e-06	-1.143154e-06	-1.241959e-09	-8.112311e+00	-8.052200e+01
1.600000e-06	-1.098328e-06	-1.231401e-09	-7.794203e+00	-7.980732e+01
1.610000e-06	-1.053439e-06	-1.217523e-09	-7.475655e+00	-7.908357e+01
1.620000e-06	-1.008375e-06	-1.204277e-09	-7.155860e+00	-7.835135e+01
1.630000e-06	-9.631750e-07	-1.194263e-09	-6.835101e+00	-7.761115e+01
1.640000e-06	-9.179887e-07	-1.184663e-09	-6.514440e+00	-7.686337e+01
1.650000e-06	-8.727515e-07	-1.173890e-09	-6.193417e+00	-7.610826e+01
1.660000e-06	-8.274631e-07	-1.160163e-09	-5.872032e+00	-7.534593e+01
1.670000e-06	-7.820664e-07	-1.147820e-09	-5.549877e+00	-7.457625e+01
1.680000e-06	-7.365361e-07	-1.135878e-09	-5.226775e+00	-7.379893e+01
1.690000e-06	-6.910029e-07	-1.118639e-09	-4.903652e+00	-7.301344e+01
1.700000e-06	-6.454932e-07	-1.100050e-09	-4.580695e+00	-7.221901e+01
1.710000e-06	-5.999635e-07	-1.088736e-09	-4.257597e+00	-7.141471e+01
1.720000e-06	-5.543982e-07	-1.083337e-09	-3.934247e+00	-7.059934e+01
1.730000e-06	-5.086946e-07	-1.074275e-09	-3.609914e+00	-6.977158e+01
1.740000e-06	-4.629240e-07	-1.058707e-09	-3.285106e+00	-6.892992e+01
1.750000e-06	-4.171537e-07	-1.043330e-09	-2.960301e+00	-6.807275e+01
1.760000e-06	-3.713197e-07	-1.029404e-09	-2.635043e+00	-6.719838e+01
1.770000e-06	-3.254947e-07	-1.010628e-09	-2.309849e+00	-6.630509e+01
1.780000e-06	-2.796631e-07	-9.885742e-10	-1.984609e+00	-6.539117e+01
1.790000e-06	-2.337608e-07	-9.713943e-10	-1.658866e+00	-6.445496e+01
1.800000e-06	-1.878295e-07	-9.609353e-10	-1.332918e+00	-6.349491e+01
1.810000e-06	-1.418977e-07	-9.484288e-10	-1.006967e+00	-6.250959e+01
1.820000e-06	-9.600901e-08	-9.304677e-10	-6.813210e-01	-6.149775e+01
1.830000e-06	-5.018195e-08	-9.101427e-10	-3.561126e-01	-6.045830e+01
1.840000e-06	-4.322776e-09	-8.931150e-10	-3.067627e-02	-5.939040e+01
1.850000e-06	4.143794e-08	-8.757448e-10	2.940613e-01	-5.829339e+01
1.860000e-06	8.714315e-08	-8.553774e-10	6.184050e-01	-5.716684e+01
1.870000e-06	1.329456e-07	-8.368582e-10	9.434385e-01	-5.601052e+01
1.880000e-06	1.787786e-07	-8.241240e-10	1.268689e+00	-5.482439e+01
1.890000e-06	2.246579e-07	-8.105446e-10	1.594268e+00	-5.360855e+01
1.900000e-06	2.705449e-07	-7.895065e-10	1.919902e+00	-5.236327e+01
1.910000e-06	3.163333e-07	-7.655695e-10	2.244836e+00	-5.108889e+01
1.920000e-06	3.621122e-07	-7.439854e-10	2.569703e+00	-4.978581e+01
1.930000e-06	4.079285e-07	-7.243664e-10	2.894835e+00	-4.845447e+01
1.940000e-06	4.536632e-07	-7.018775e-10	3.219388e+00	-4.709531e+01
1.950000e-06	4.993806e-07	-6.776226e-10	3.543818e+00	-4.570870e+01
1.960000e-06	5.450924e-07	-6.587214e-10	3.868208e+00	-4.429497e+01
1.970000e-06	5.906532e-07	-6.421043e-10	4.191527e+00	-4.285436e+01
1.980000e-06	6.361589e-07	-6.189014e-10	4.514456e+00	-4.138700e+01
1.990000e-06	6.817135e-07	-5.894516e-10	4.837731e+00	-3.989293e+01
2.000000e-06	7.271883e-07	-5.611328e-10	5.160439e+00	-3.837206e+01
2.010000e-06	7.725744e-07	-5.393052e-10	5.482518e+00	-3.682421e+01
2.020000e-06	8.178977e-07	-5.194909e-10	5.804151e+00	-3.524914e+01
2.030000e-06	8.631174e-07	-4.942405e-10	6.125050e+00	-3.364649e+01
2.040000e-06	9.083192e-07	-4.690940e-10	6.445821e+00	-3.201589e+01
2.050000e-06	9.534811e-07	-4.467858e-10	6.766309e+00	-3.035694e+01
2.060000e-06	9.985485e-07	-4.201085e-10	7.086127e+00	-2.866923e+01
2.070000e-06	1.043536e-06	-3.873238e-10	7.405376e+00	-2.695238e+01
2.080000e-06	1.088439e-06	-3.547186e-10	7.724030e+00	-2.520608e+01
2.090000e-06	1.133231e-06	-3.289369e-10	8.041893e+00	-2.343005e+01
2.100000e-06	1.177956e-06	-3.083322e-10	8.359276e+00	-2.162413e+01
2.110000e-06	1.222596e-06	-2.848265e-10	8.676065e+00	-1.978824e+01
2.120000e-06	1.267134e-06	-2.558719e-10	8.992126e+00	-1.792241e+01
2.130000e-06	1.311609e-06	-2.263124e-10	9.307738e+00	-1.602677e+01
2.140000e-06	1.356030e-06	-1.966809e-10	9.622971e+00	-1.410159e+01
2.150000e-06	1.400373e-06	-1.634612e-10	9.937644e+00	-1.214722e+01
2.160000e-06	1.444636e-06	-1.292016e-10	1.025175e+01	-1.016411e+01
2.170000e-06	1.488834e-06	-9.891531e-11	1.056540e+01	-8.152831e+00
2.180000e-06	1.532917e-06	-7.461951e-11	1.087824e+01	-6.114022e+00
2.190000e-06	1.576923e-06	-5.102995e-11	1.119052e+01	-4.048416e+00
2.200000e-06	1.620864e-06	-2.302228e-11	1.150235e+01	-1.956828e+00
2.210000e-06	1.664751e-06	7.737316e-12	1.181378e+01	1.598510e-01
2.220000e-06	1.708610e-06	4.221942e-11	1.212502e+01	2.300645e+00
2.230000e-06	1.752404e-06	8.063387e-11	1.243581e+01	4.464493e+00
2.240000e-06	1.796102e-06	1.205619e-10	1.274591e+01	6.650239e+00
2.250000e-06	1.839671e-06	1.577428e-10	1.305509e+01	8.856623e+00
2.260000e-06	1.883154e-06	1.899266e-10	1.336367e+01	1.108227e+01
2.270000e-06	1.926592e-06	2.182054e-10	1.367192e+01	1.332566e+01
2.280000e-06	1.969891e-06	2.480546e-10	1.397918e+01	1.558515e+01
2.290000e-06	2.013048e-06	2.806915e-10	1.428545e+01	1.785894e+01
2.300000e-06	2.056017e-06	3.142914e-10	1.459037e+01	2.014506e+01
2.310000e-06	2.098704e-06	3.515062e-10	1.489330e+01	2.244136e+01
2.320000e-06	2.140981e-06	3.928652e-10	1.519331e+01	2.474555e+01
2.330000e-06	2.182972e-06	4.322337e-10	1.549130e+01	2.705517e+01
2.340000e-06	2.224761e-06	4.647319e-10	1.578785e+01	2.936758e+01
2.350000e-06	2.266209e-06	4.933407e-10	1.608199e+01	3.168005e+01
2.360000e-06	2.307380e-06	5.245701e-10	1.637415e+01	3.398971e+01
2.370000e-06	2.348299e-06	5.582996e-10	1.666453e+01	3.629364e+01
2.380000e-06	2.389000e-06	5.908613e-10	1.695336e+01	3.858885e+01
2.390000e-06	2.429537e-06	6.243772e-10	1.724104e+01	4.087237e+01
2.400000e-06	2.469974e-06	6.606116e-10	1.752799e+01	4.314125e+01
2.410000e-06	2.510206e-06	6.977869e-10	1.781349e+01	4.539261e+01
2.420000e-06	2.550236e-06	7.340169e-10	1.809756e+01	4.762369e+01
2.430000e-06	2.590256e-06	7.696668e-10	1.838156e+01	4.983188e+01
2.440000e-06	2.630206e-06	8.037936e-10	1.866507e+01	5.201476e+01
2.450000e-06	2.669986e-06	8.357882e-10	1.894736e+01	5.417009e+01
2.460000e-06	2.709611e-06	8.674481e-10	1.922856e+01	5.629587e+01
2.470000e-06	2.749041e-06	8.957862e-10	1.950837e+01	5.839033e+01
2.480000e-06	2.788320e-06	9.235167e-10	1.978711e+01	6.045195e+01
2.490000e-06	2.827453e-06	9.521145e-10	2.006481e+01	6.247941e+01
2.500000e-06	2.866387e-06	9.844248e-10	2.034111e+01	6.447163e+01
2.510000e-06	2.905104e-06	1.019787e-09	2.061586e+01	6.642774e+01
2.520000e-06	2.943581e-06	1.057484e-09	2.088891e+01	6.834701e+01
2.530000e-06	2.981786e-06	1.094143e-09	2.116002e+01	7.022888e+01
2.540000e-06	3.019776e-06	1.123641e-09	2.142962e+01	7.207293e+01
2.550000e-06	3.057636e-06	1.145534e-09	2.169829e+01	7.387880e+01
2.560000e-06	3.095347e-06	1.164302e-09	2.196591e+01	7.564620e+01
2.570000e-06	3.132876e-06	1.184105e-09	2.223222e+01	7.737490e+01
2.580000e-06	3.170106e-06	1.207070e-09	2.249642e+01	7.906467e+01
2.590000e-06	3.207085e-06	1.233695e-09	2.275885e+01	8.071532e+01
2.600000e-06	3.243802e-06	1.265988e-09	2.301941e+01	8.232662e+01
2.610000e-06	3.280280e-06	1.303133e-09	2.327827e+01	8.389838e+01
2.620000e-06	3.316606e-06	1.336151e-09	2.353605e+01	8.543040e+01
2.630000e-06	3.352756e-06	1.357755e-09	2.379259e+01	8.692250e+01
2.640000e-06	3.388745e-06	1.367837e-09	2.404798e+01	8.837453e+01
2.650000e-06	3.424592e-06	1.376594e-09	2.430237e+01	8.978640e+01
2.660000e-06	3.460327e-06	1.388761e-09	2.455596e+01	9.115808e+01
2.670000e-06	3.495867e-06	1.403835e-09	2.480817e+01	9.248963e+01
2.680000e-06	3.531169e-06	1.422950e-09	2.505868e+01	9.378124e+01
2.690000e-06	3.566259e-06	1.447982e-09	2.530770e+01	9.503320e+01
2.700000e-06	3.601011e-06	1.476974e-09	2.555431e+01	9.624594e+01
2.710000e-06	3.635263e-06	1.503830e-09	2.579738e+01	9.742002e+01
2.720000e-06	3.669081e-06	1.522801e-09	2.603737e+01	9.855614e+01
2.730000e-06	3.702483e-06	1.537597e-09	2.627440e+01	9.965512e+01
2.740000e-06	3.735394e-06	1.548600e-09	2.650795e+01	1.007179e+02
2.750000e-06	3.767911e-06	1.557894e-09	2.673871e+01	1.017455e+02
2.760000e-06	3.800146e-06	1.566489e-09	2.696746e+01	1.027390e+02
2.770000e-06	3.832209e-06	1.579591e-09	2.719499e+01	1.036995e+02
2.780000e-06	3.864149e-06	1.599748e-09	2.742165e+01	1.046282e+02
2.790000e-06	3.895896e-06	1.620015e-09	2.764694e+01	1.055261e+02
2.800000e-06	3.927485e-06	1.633431e-09	2.787111e+01	1.063943e+02
2.810000e-06	3.958925e-06	1.643351e-09	2.809422e+01	1.072338e+02
2.820000e-06	3.990076e-06	1.653724e-09	2.831529e+01	1.080453e+02
2.830000e-06	4.020867e-06	1.664736e-09	2.853379e+01	1.088297e+02
2.840000e-06	4.051361e-06	1.673847e-09	2.875019e+01	1.095877e+02
2.850000e-06	4.081531e-06	1.679973e-09	2.896429e+01	1.103197e+02
2.860000e-06	4.111387e-06	1.688355e-09	2.917616e+01	1.110261e+02
2.870000e-06	4.141041e-06	1.702034e-09	2.938659e+01	1.117075e+02
2.880000e-06	4.170493e-06	1.716645e-09	2.959560e+01	1.123639e+02
2.890000e-06	4.199669e-06	1.727356e-09	2.980265e+01	1.129956e+02
2.900000e-06	4.228518e-06	1.737778e-09	3.000737e+01	1.136030e+02
