# Temperatura_=_0.85
# Concentracion g/m^3_=_4090.0
# C_Vs_to_Am_M_A/Vsm_=_65563218390.804596
# pendiente_HvsI_1/m_=_3716.3
# ordenada_HvsI_A/m_=_1297.0
# frecuencia_Hz_=_135082.33226937044

Tiempo_(s)	Campo_(V.s)	Magnetizacion_(V.s)	Campo_(kA/m)	Magnetizacion_(A/m)
0.000000e+00	-5.396254e-06	-1.726126e-09	-3.837969e+01	-1.135911e+02
1.000000e-08	-5.396371e-06	-1.716757e-09	-3.838052e+01	-1.133929e+02
2.000000e-08	-5.396306e-06	-1.705871e-09	-3.838006e+01	-1.131670e+02
3.000000e-08	-5.395947e-06	-1.699938e-09	-3.837751e+01	-1.129163e+02
4.000000e-08	-5.395057e-06	-1.701004e-09	-3.837117e+01	-1.126451e+02
5.000000e-08	-5.393473e-06	-1.702471e-09	-3.835991e+01	-1.123592e+02
6.000000e-08	-5.391268e-06	-1.695128e-09	-3.834423e+01	-1.120654e+02
7.000000e-08	-5.388499e-06	-1.692164e-09	-3.832453e+01	-1.117720e+02
8.000000e-08	-5.385170e-06	-1.720524e-09	-3.830086e+01	-1.114877e+02
9.000000e-08	-5.381288e-06	-1.762860e-09	-3.827325e+01	-1.112218e+02
1.000000e-07	-5.376948e-06	-1.747829e-09	-3.824238e+01	-1.109837e+02
1.100000e-07	-5.372526e-06	-1.687507e-09	-3.821093e+01	-1.107825e+02
1.200000e-07	-5.368131e-06	-1.663901e-09	-3.817967e+01	-1.106266e+02
1.300000e-07	-5.363402e-06	-1.737162e-09	-3.814604e+01	-1.105233e+02
1.400000e-07	-5.358127e-06	-1.746613e-09	-3.810852e+01	-1.104789e+02
1.500000e-07	-5.352471e-06	-1.677534e-09	-3.806829e+01	-1.104975e+02
1.600000e-07	-5.346537e-06	-1.649384e-09	-3.802609e+01	-1.105816e+02
1.700000e-07	-5.340199e-06	-1.715179e-09	-3.798101e+01	-1.107319e+02
1.800000e-07	-5.333345e-06	-1.769724e-09	-3.793226e+01	-1.109465e+02
1.900000e-07	-5.326177e-06	-1.713474e-09	-3.788128e+01	-1.112217e+02
2.000000e-07	-5.318895e-06	-1.701806e-09	-3.782949e+01	-1.115517e+02
2.100000e-07	-5.311409e-06	-1.741877e-09	-3.777625e+01	-1.119290e+02
2.200000e-07	-5.303504e-06	-1.777725e-09	-3.772003e+01	-1.123444e+02
2.300000e-07	-5.295249e-06	-1.753578e-09	-3.766132e+01	-1.127876e+02
2.400000e-07	-5.286673e-06	-1.790060e-09	-3.760032e+01	-1.132471e+02
2.500000e-07	-5.277443e-06	-1.835395e-09	-3.753468e+01	-1.137114e+02
2.600000e-07	-5.267355e-06	-1.838207e-09	-3.746293e+01	-1.141685e+02
2.700000e-07	-5.256696e-06	-1.815216e-09	-3.738712e+01	-1.146071e+02
2.800000e-07	-5.245655e-06	-1.831982e-09	-3.730859e+01	-1.150165e+02
2.900000e-07	-5.234173e-06	-1.808032e-09	-3.722692e+01	-1.153871e+02
3.000000e-07	-5.222405e-06	-1.764983e-09	-3.714323e+01	-1.157108e+02
3.100000e-07	-5.210310e-06	-1.786437e-09	-3.705720e+01	-1.159812e+02
3.200000e-07	-5.197791e-06	-1.836566e-09	-3.696817e+01	-1.161938e+02
3.300000e-07	-5.184908e-06	-1.824834e-09	-3.687654e+01	-1.163458e+02
3.400000e-07	-5.171602e-06	-1.783925e-09	-3.678190e+01	-1.164366e+02
3.500000e-07	-5.157861e-06	-1.797770e-09	-3.668417e+01	-1.164675e+02
3.600000e-07	-5.143826e-06	-1.811566e-09	-3.658435e+01	-1.164411e+02
3.700000e-07	-5.129429e-06	-1.790824e-09	-3.648196e+01	-1.163621e+02
3.800000e-07	-5.114333e-06	-1.761236e-09	-3.637458e+01	-1.162360e+02
3.900000e-07	-5.098257e-06	-1.763318e-09	-3.626025e+01	-1.160695e+02
4.000000e-07	-5.081691e-06	-1.771657e-09	-3.614243e+01	-1.158696e+02
4.100000e-07	-5.064948e-06	-1.786957e-09	-3.602335e+01	-1.156438e+02
4.200000e-07	-5.047877e-06	-1.779086e-09	-3.590193e+01	-1.153995e+02
4.300000e-07	-5.030597e-06	-1.759815e-09	-3.577903e+01	-1.151436e+02
4.400000e-07	-5.013039e-06	-1.743417e-09	-3.565415e+01	-1.148824e+02
4.500000e-07	-4.995238e-06	-1.759135e-09	-3.552755e+01	-1.146212e+02
4.600000e-07	-4.977148e-06	-1.751415e-09	-3.539889e+01	-1.143646e+02
4.700000e-07	-4.958670e-06	-1.730442e-09	-3.526747e+01	-1.141155e+02
4.800000e-07	-4.939814e-06	-1.719813e-09	-3.513336e+01	-1.138760e+02
4.900000e-07	-4.920523e-06	-1.746573e-09	-3.499615e+01	-1.136469e+02
5.000000e-07	-4.900914e-06	-1.748276e-09	-3.485669e+01	-1.134278e+02
5.100000e-07	-4.881173e-06	-1.727802e-09	-3.471629e+01	-1.132175e+02
5.200000e-07	-4.861244e-06	-1.707115e-09	-3.457455e+01	-1.130139e+02
5.300000e-07	-4.840980e-06	-1.717382e-09	-3.443042e+01	-1.128144e+02
5.400000e-07	-4.820337e-06	-1.726614e-09	-3.428361e+01	-1.126159e+02
5.500000e-07	-4.799293e-06	-1.723167e-09	-3.413393e+01	-1.124153e+02
5.600000e-07	-4.777887e-06	-1.706284e-09	-3.398169e+01	-1.122095e+02
5.700000e-07	-4.756153e-06	-1.703741e-09	-3.382711e+01	-1.119957e+02
5.800000e-07	-4.734126e-06	-1.706202e-09	-3.367045e+01	-1.117716e+02
5.900000e-07	-4.711905e-06	-1.699161e-09	-3.351240e+01	-1.115355e+02
6.000000e-07	-4.689419e-06	-1.677960e-09	-3.335248e+01	-1.112864e+02
6.100000e-07	-4.666550e-06	-1.669579e-09	-3.318983e+01	-1.110240e+02
6.200000e-07	-4.643336e-06	-1.682642e-09	-3.302472e+01	-1.107488e+02
6.300000e-07	-4.619829e-06	-1.694836e-09	-3.285754e+01	-1.104619e+02
6.400000e-07	-4.596055e-06	-1.692686e-09	-3.268845e+01	-1.101651e+02
6.500000e-07	-4.572072e-06	-1.683416e-09	-3.251787e+01	-1.098607e+02
6.600000e-07	-4.547877e-06	-1.683222e-09	-3.234579e+01	-1.095513e+02
6.700000e-07	-4.523391e-06	-1.681402e-09	-3.217164e+01	-1.092398e+02
6.800000e-07	-4.498448e-06	-1.667236e-09	-3.199424e+01	-1.089290e+02
6.900000e-07	-4.472923e-06	-1.644261e-09	-3.181270e+01	-1.086217e+02
7.000000e-07	-4.446848e-06	-1.642609e-09	-3.162725e+01	-1.083204e+02
7.100000e-07	-4.420245e-06	-1.655755e-09	-3.143804e+01	-1.080271e+02
7.200000e-07	-4.393184e-06	-1.667333e-09	-3.124557e+01	-1.077434e+02
7.300000e-07	-4.365881e-06	-1.661242e-09	-3.105138e+01	-1.074702e+02
7.400000e-07	-4.338419e-06	-1.659807e-09	-3.085607e+01	-1.072081e+02
7.500000e-07	-4.310750e-06	-1.658825e-09	-3.065928e+01	-1.069568e+02
7.600000e-07	-4.282820e-06	-1.655694e-09	-3.046063e+01	-1.067154e+02
7.700000e-07	-4.254622e-06	-1.636778e-09	-3.026008e+01	-1.064828e+02
7.800000e-07	-4.226175e-06	-1.623116e-09	-3.005776e+01	-1.062572e+02
7.900000e-07	-4.197403e-06	-1.622389e-09	-2.985312e+01	-1.060367e+02
8.000000e-07	-4.168255e-06	-1.634700e-09	-2.964581e+01	-1.058191e+02
8.100000e-07	-4.138809e-06	-1.636318e-09	-2.943638e+01	-1.056022e+02
8.200000e-07	-4.109178e-06	-1.634711e-09	-2.922564e+01	-1.053838e+02
8.300000e-07	-4.079342e-06	-1.633848e-09	-2.901344e+01	-1.051619e+02
8.400000e-07	-4.049187e-06	-1.634110e-09	-2.879897e+01	-1.049349e+02
8.500000e-07	-4.018737e-06	-1.623310e-09	-2.858240e+01	-1.047015e+02
8.600000e-07	-3.988105e-06	-1.607542e-09	-2.836454e+01	-1.044607e+02
8.700000e-07	-3.957172e-06	-1.599449e-09	-2.814453e+01	-1.042120e+02
8.800000e-07	-3.925867e-06	-1.602753e-09	-2.792188e+01	-1.039555e+02
8.900000e-07	-3.894297e-06	-1.604230e-09	-2.769735e+01	-1.036914e+02
9.000000e-07	-3.862576e-06	-1.598675e-09	-2.747174e+01	-1.034206e+02
9.100000e-07	-3.830740e-06	-1.595967e-09	-2.724531e+01	-1.031439e+02
9.200000e-07	-3.798717e-06	-1.599574e-09	-2.701755e+01	-1.028627e+02
9.300000e-07	-3.766495e-06	-1.599330e-09	-2.678838e+01	-1.025783e+02
9.400000e-07	-3.734002e-06	-1.589518e-09	-2.655729e+01	-1.022920e+02
9.500000e-07	-3.701113e-06	-1.579824e-09	-2.632336e+01	-1.020051e+02
9.600000e-07	-3.667820e-06	-1.576962e-09	-2.608657e+01	-1.017189e+02
9.700000e-07	-3.634131e-06	-1.576258e-09	-2.584697e+01	-1.014342e+02
9.800000e-07	-3.599959e-06	-1.566659e-09	-2.560393e+01	-1.011519e+02
9.900000e-07	-3.565367e-06	-1.555522e-09	-2.535791e+01	-1.008723e+02
1.000000e-06	-3.530498e-06	-1.550566e-09	-2.510990e+01	-1.005955e+02
1.010000e-06	-3.495336e-06	-1.552917e-09	-2.485982e+01	-1.003215e+02
1.020000e-06	-3.459890e-06	-1.549696e-09	-2.460772e+01	-1.000498e+02
1.030000e-06	-3.424255e-06	-1.543138e-09	-2.435427e+01	-9.977968e+01
1.040000e-06	-3.388485e-06	-1.536972e-09	-2.409987e+01	-9.951046e+01
1.050000e-06	-3.352532e-06	-1.535521e-09	-2.384416e+01	-9.924118e+01
1.060000e-06	-3.316374e-06	-1.529475e-09	-2.358699e+01	-9.897089e+01
1.070000e-06	-3.280048e-06	-1.517779e-09	-2.332863e+01	-9.869864e+01
1.080000e-06	-3.243619e-06	-1.506813e-09	-2.306954e+01	-9.842356e+01
1.090000e-06	-3.206892e-06	-1.507001e-09	-2.280833e+01	-9.814489e+01
1.100000e-06	-3.169831e-06	-1.507416e-09	-2.254474e+01	-9.786202e+01
1.110000e-06	-3.132628e-06	-1.502446e-09	-2.228014e+01	-9.757452e+01
1.120000e-06	-3.095123e-06	-1.493725e-09	-2.201340e+01	-9.728214e+01
1.130000e-06	-3.057384e-06	-1.489020e-09	-2.174499e+01	-9.698479e+01
1.140000e-06	-3.019417e-06	-1.485946e-09	-2.147495e+01	-9.668253e+01
1.150000e-06	-2.981237e-06	-1.480889e-09	-2.120340e+01	-9.637554e+01
1.160000e-06	-2.943025e-06	-1.472450e-09	-2.093163e+01	-9.606409e+01
1.170000e-06	-2.904614e-06	-1.467415e-09	-2.065844e+01	-9.574846e+01
1.180000e-06	-2.865923e-06	-1.464938e-09	-2.038326e+01	-9.542894e+01
1.190000e-06	-2.827050e-06	-1.461191e-09	-2.010679e+01	-9.510575e+01
1.200000e-06	-2.787972e-06	-1.457443e-09	-1.982885e+01	-9.477901e+01
1.210000e-06	-2.748675e-06	-1.454633e-09	-1.954936e+01	-9.444874e+01
1.220000e-06	-2.709258e-06	-1.450984e-09	-1.926901e+01	-9.411482e+01
1.230000e-06	-2.669714e-06	-1.444075e-09	-1.898777e+01	-9.377697e+01
1.240000e-06	-2.629999e-06	-1.435156e-09	-1.870530e+01	-9.343480e+01
1.250000e-06	-2.590185e-06	-1.427602e-09	-1.842213e+01	-9.308781e+01
1.260000e-06	-2.550283e-06	-1.423240e-09	-1.813834e+01	-9.273541e+01
1.270000e-06	-2.510237e-06	-1.416965e-09	-1.785352e+01	-9.237697e+01
1.280000e-06	-2.470057e-06	-1.411622e-09	-1.756775e+01	-9.201189e+01
1.290000e-06	-2.429714e-06	-1.405491e-09	-1.728082e+01	-9.163961e+01
1.300000e-06	-2.389241e-06	-1.399443e-09	-1.699296e+01	-9.125968e+01
1.310000e-06	-2.348633e-06	-1.393353e-09	-1.670414e+01	-9.087181e+01
1.320000e-06	-2.307847e-06	-1.389591e-09	-1.641407e+01	-9.047588e+01
1.330000e-06	-2.266769e-06	-1.386143e-09	-1.612191e+01	-9.007196e+01
1.340000e-06	-2.225285e-06	-1.382993e-09	-1.582686e+01	-8.966036e+01
1.350000e-06	-2.183509e-06	-1.375359e-09	-1.552974e+01	-8.924157e+01
1.360000e-06	-2.141532e-06	-1.365195e-09	-1.523118e+01	-8.881629e+01
1.370000e-06	-2.099279e-06	-1.354762e-09	-1.493067e+01	-8.838534e+01
1.380000e-06	-2.056733e-06	-1.347975e-09	-1.462807e+01	-8.794966e+01
1.390000e-06	-2.013984e-06	-1.343363e-09	-1.432402e+01	-8.751023e+01
1.400000e-06	-1.970964e-06	-1.340255e-09	-1.401805e+01	-8.706799e+01
1.410000e-06	-1.927637e-06	-1.338041e-09	-1.370990e+01	-8.662380e+01
1.420000e-06	-1.884212e-06	-1.333719e-09	-1.340105e+01	-8.617838e+01
1.430000e-06	-1.840773e-06	-1.324952e-09	-1.309210e+01	-8.573220e+01
1.440000e-06	-1.797266e-06	-1.313895e-09	-1.278266e+01	-8.528549e+01
1.450000e-06	-1.753645e-06	-1.305564e-09	-1.247242e+01	-8.483815e+01
1.460000e-06	-1.709855e-06	-1.301951e-09	-1.216097e+01	-8.438977e+01
1.470000e-06	-1.666014e-06	-1.299683e-09	-1.184917e+01	-8.393960e+01
1.480000e-06	-1.622177e-06	-1.295519e-09	-1.153738e+01	-8.348657e+01
1.490000e-06	-1.578210e-06	-1.291853e-09	-1.122468e+01	-8.302934e+01
1.500000e-06	-1.534156e-06	-1.285582e-09	-1.091135e+01	-8.256630e+01
1.510000e-06	-1.490110e-06	-1.274174e-09	-1.059809e+01	-8.209572e+01
1.520000e-06	-1.446025e-06	-1.259126e-09	-1.028454e+01	-8.161574e+01
1.530000e-06	-1.401845e-06	-1.246880e-09	-9.970319e+00	-8.112451e+01
1.540000e-06	-1.357558e-06	-1.238673e-09	-9.655337e+00	-8.062024e+01
1.550000e-06	-1.313190e-06	-1.231017e-09	-9.339782e+00	-8.010130e+01
1.560000e-06	-1.268752e-06	-1.220087e-09	-9.023727e+00	-7.956632e+01
1.570000e-06	-1.224304e-06	-1.211455e-09	-8.707598e+00	-7.901419e+01
1.580000e-06	-1.179816e-06	-1.207073e-09	-8.391189e+00	-7.844417e+01
1.590000e-06	-1.135163e-06	-1.200948e-09	-8.073602e+00	-7.785590e+01
1.600000e-06	-1.090301e-06	-1.188130e-09	-7.754531e+00	-7.724940e+01
1.610000e-06	-1.045314e-06	-1.173608e-09	-7.434568e+00	-7.662507e+01
1.620000e-06	-1.000302e-06	-1.162511e-09	-7.114431e+00	-7.598367e+01
1.630000e-06	-9.551802e-07	-1.153274e-09	-6.793513e+00	-7.532623e+01
1.640000e-06	-9.099481e-07	-1.140088e-09	-6.471809e+00	-7.465402e+01
1.650000e-06	-8.647407e-07	-1.128008e-09	-6.150281e+00	-7.396844e+01
1.660000e-06	-8.194380e-07	-1.119586e-09	-5.828076e+00	-7.327097e+01
1.670000e-06	-7.740074e-07	-1.111199e-09	-5.504960e+00	-7.256303e+01
1.680000e-06	-7.286195e-07	-1.099285e-09	-5.182149e+00	-7.184589e+01
1.690000e-06	-6.831908e-07	-1.084187e-09	-4.859047e+00	-7.112063e+01
1.700000e-06	-6.376641e-07	-1.069722e-09	-4.535248e+00	-7.038800e+01
1.710000e-06	-5.921407e-07	-1.057899e-09	-4.211473e+00	-6.964840e+01
1.720000e-06	-5.466221e-07	-1.046425e-09	-3.887732e+00	-6.890184e+01
1.730000e-06	-5.010405e-07	-1.033340e-09	-3.563542e+00	-6.814787e+01
1.740000e-06	-4.554240e-07	-1.021109e-09	-3.239104e+00	-6.738562e+01
1.750000e-06	-4.097971e-07	-1.010668e-09	-2.914593e+00	-6.661381e+01
1.760000e-06	-3.641246e-07	-9.980982e-10	-2.589757e+00	-6.583077e+01
1.770000e-06	-3.183610e-07	-9.792926e-10	-2.264274e+00	-6.503453e+01
1.780000e-06	-2.725741e-07	-9.597208e-10	-1.938624e+00	-6.422286e+01
1.790000e-06	-2.268156e-07	-9.445070e-10	-1.613177e+00	-6.339335e+01
1.800000e-06	-1.810215e-07	-9.318339e-10	-1.287476e+00	-6.254354e+01
1.810000e-06	-1.352126e-07	-9.166165e-10	-9.616701e-01	-6.167094e+01
1.820000e-06	-8.943258e-08	-9.008692e-10	-6.360699e-01	-6.077318e+01
1.830000e-06	-4.363556e-08	-8.873073e-10	-3.103485e-01	-5.984803e+01
1.840000e-06	2.110018e-09	-8.736890e-10	1.500704e-02	-5.889352e+01
1.850000e-06	4.785254e-08	-8.568232e-10	3.403408e-01	-5.790795e+01
1.860000e-06	9.364041e-08	-8.389931e-10	6.659972e-01	-5.688991e+01
1.870000e-06	1.394091e-07	-8.251857e-10	9.915167e-01	-5.583836e+01
1.880000e-06	1.852185e-07	-8.132058e-10	1.317327e+00	-5.475255e+01
1.890000e-06	2.310055e-07	-7.947404e-10	1.642977e+00	-5.363206e+01
1.900000e-06	2.768325e-07	-7.700618e-10	1.968911e+00	-5.247670e+01
1.910000e-06	3.226155e-07	-7.468814e-10	2.294533e+00	-5.128653e+01
1.920000e-06	3.682798e-07	-7.281446e-10	2.619310e+00	-5.006177e+01
1.930000e-06	4.139265e-07	-7.078617e-10	2.943962e+00	-4.880273e+01
1.940000e-06	4.595687e-07	-6.864309e-10	3.268583e+00	-4.750976e+01
1.950000e-06	5.051454e-07	-6.666111e-10	3.592738e+00	-4.618320e+01
1.960000e-06	5.507295e-07	-6.505193e-10	3.916945e+00	-4.482329e+01
1.970000e-06	5.962695e-07	-6.317234e-10	4.240838e+00	-4.343018e+01
1.980000e-06	6.416881e-07	-6.084976e-10	4.563868e+00	-4.200385e+01
1.990000e-06	6.870802e-07	-5.837594e-10	4.886709e+00	-4.054411e+01
2.000000e-06	7.324098e-07	-5.591310e-10	5.209107e+00	-3.905063e+01
2.010000e-06	7.777557e-07	-5.345842e-10	5.531619e+00	-3.752288e+01
2.020000e-06	8.230830e-07	-5.068781e-10	5.854000e+00	-3.596023e+01
2.030000e-06	8.683118e-07	-4.787675e-10	6.175680e+00	-3.436192e+01
2.040000e-06	9.134428e-07	-4.534573e-10	6.496664e+00	-3.272715e+01
2.050000e-06	9.585461e-07	-4.321517e-10	6.817452e+00	-3.105510e+01
2.060000e-06	1.003684e-06	-4.097960e-10	7.138483e+00	-2.934500e+01
2.070000e-06	1.048701e-06	-3.833004e-10	7.458658e+00	-2.759615e+01
2.080000e-06	1.093542e-06	-3.542821e-10	7.777583e+00	-2.580802e+01
2.090000e-06	1.138283e-06	-3.248506e-10	8.095794e+00	-2.398021e+01
2.100000e-06	1.182878e-06	-2.927522e-10	8.412967e+00	-2.211257e+01
2.110000e-06	1.227366e-06	-2.599255e-10	8.729378e+00	-2.020515e+01
2.120000e-06	1.271835e-06	-2.295287e-10	9.045655e+00	-1.825822e+01
2.130000e-06	1.316176e-06	-2.061676e-10	9.361015e+00	-1.627231e+01
2.140000e-06	1.360367e-06	-1.818863e-10	9.675318e+00	-1.424814e+01
2.150000e-06	1.404601e-06	-1.547425e-10	9.989921e+00	-1.218666e+01
2.160000e-06	1.448870e-06	-1.252448e-10	1.030477e+01	-1.008895e+01
2.170000e-06	1.492983e-06	-9.315312e-11	1.061852e+01	-7.956260e+00
2.180000e-06	1.536987e-06	-5.747501e-11	1.093148e+01	-5.789950e+00
2.190000e-06	1.580959e-06	-1.741663e-11	1.124423e+01	-3.591449e+00
2.200000e-06	1.624866e-06	2.080074e-11	1.155651e+01	-1.362250e+00
2.210000e-06	1.668712e-06	5.431960e-11	1.186835e+01	8.961193e-01
2.220000e-06	1.712449e-06	8.423032e-11	1.217942e+01	3.182100e+00
2.230000e-06	1.756071e-06	1.145794e-10	1.248968e+01	5.494107e+00
2.240000e-06	1.799583e-06	1.469269e-10	1.279915e+01	7.830519e+00
2.250000e-06	1.843020e-06	1.808652e-10	1.310808e+01	1.018966e+01
2.260000e-06	1.886480e-06	2.193767e-10	1.341718e+01	1.256977e+01
2.270000e-06	1.929776e-06	2.629617e-10	1.372511e+01	1.496898e+01
2.280000e-06	1.972859e-06	3.070653e-10	1.403153e+01	1.738529e+01
2.290000e-06	2.015858e-06	3.475194e-10	1.433735e+01	1.981650e+01
2.300000e-06	2.058599e-06	3.808920e-10	1.464134e+01	2.226022e+01
2.310000e-06	2.101110e-06	4.122669e-10	1.494369e+01	2.471380e+01
2.320000e-06	2.143374e-06	4.453582e-10	1.524428e+01	2.717435e+01
2.330000e-06	2.185270e-06	4.809441e-10	1.554226e+01	2.963872e+01
2.340000e-06	2.226883e-06	5.168160e-10	1.583822e+01	3.210349e+01
2.350000e-06	2.268106e-06	5.551285e-10	1.613142e+01	3.456503e+01
2.360000e-06	2.308938e-06	5.952247e-10	1.642182e+01	3.701948e+01
2.370000e-06	2.349600e-06	6.358024e-10	1.671102e+01	3.946283e+01
2.380000e-06	2.390109e-06	6.741786e-10	1.699913e+01	4.189098e+01
2.390000e-06	2.430431e-06	7.096879e-10	1.728591e+01	4.429978e+01
2.400000e-06	2.470626e-06	7.430646e-10	1.757179e+01	4.668513e+01
2.410000e-06	2.510704e-06	7.775381e-10	1.785684e+01	4.904305e+01
2.420000e-06	2.550705e-06	8.150747e-10	1.814134e+01	5.136972e+01
2.430000e-06	2.590571e-06	8.538788e-10	1.842487e+01	5.366162e+01
2.440000e-06	2.630294e-06	8.887632e-10	1.870740e+01	5.591550e+01
2.450000e-06	2.669942e-06	9.206271e-10	1.898939e+01	5.812853e+01
2.460000e-06	2.709456e-06	9.538013e-10	1.927042e+01	6.029826e+01
2.470000e-06	2.748849e-06	9.854444e-10	1.955059e+01	6.242265e+01
2.480000e-06	2.788128e-06	1.016136e-09	1.982996e+01	6.450012e+01
2.490000e-06	2.827218e-06	1.046751e-09	2.010798e+01	6.652948e+01
2.500000e-06	2.866021e-06	1.078737e-09	2.038395e+01	6.850994e+01
2.510000e-06	2.904584e-06	1.112473e-09	2.065822e+01	7.044105e+01
2.520000e-06	2.942858e-06	1.145782e-09	2.093044e+01	7.232265e+01
2.530000e-06	2.980801e-06	1.175648e-09	2.120030e+01	7.415478e+01
2.540000e-06	3.018647e-06	1.203136e-09	2.146947e+01	7.593768e+01
2.550000e-06	3.056402e-06	1.227111e-09	2.173800e+01	7.767164e+01
2.560000e-06	3.093984e-06	1.248310e-09	2.200529e+01	7.935702e+01
2.570000e-06	3.131471e-06	1.269534e-09	2.227191e+01	8.099412e+01
2.580000e-06	3.168732e-06	1.292990e-09	2.253692e+01	8.258319e+01
2.590000e-06	3.205645e-06	1.320394e-09	2.279945e+01	8.412437e+01
2.600000e-06	3.242355e-06	1.349807e-09	2.306055e+01	8.561769e+01
2.610000e-06	3.278841e-06	1.375867e-09	2.332005e+01	8.706307e+01
2.620000e-06	3.315043e-06	1.396053e-09	2.357753e+01	8.846031e+01
2.630000e-06	3.351074e-06	1.412281e-09	2.383379e+01	8.980914e+01
2.640000e-06	3.386987e-06	1.427198e-09	2.408921e+01	9.110928e+01
2.650000e-06	3.422765e-06	1.440918e-09	2.434368e+01	9.236044e+01
2.660000e-06	3.458405e-06	1.450642e-09	2.459716e+01	9.356242e+01
2.670000e-06	3.493814e-06	1.461314e-09	2.484900e+01	9.471515e+01
2.680000e-06	3.529030e-06	1.479079e-09	2.509946e+01	9.581871e+01
2.690000e-06	3.564054e-06	1.500945e-09	2.534856e+01	9.687345e+01
2.700000e-06	3.598684e-06	1.521769e-09	2.559486e+01	9.787996e+01
2.710000e-06	3.632816e-06	1.539318e-09	2.583762e+01	9.883911e+01
2.720000e-06	3.666517e-06	1.552701e-09	2.607731e+01	9.975209e+01
2.730000e-06	3.699678e-06	1.562551e-09	2.631316e+01	1.006204e+02
2.740000e-06	3.732282e-06	1.568079e-09	2.654505e+01	1.014456e+02
2.750000e-06	3.764643e-06	1.570791e-09	2.677521e+01	1.022299e+02
2.760000e-06	3.796854e-06	1.577762e-09	2.700431e+01	1.029752e+02
2.770000e-06	3.828881e-06	1.592178e-09	2.723209e+01	1.036839e+02
2.780000e-06	3.860742e-06	1.608273e-09	2.745869e+01	1.043582e+02
2.790000e-06	3.892487e-06	1.620205e-09	2.768447e+01	1.050003e+02
2.800000e-06	3.924066e-06	1.628482e-09	2.790907e+01	1.056125e+02
2.810000e-06	3.955402e-06	1.632576e-09	2.813194e+01	1.061966e+02
2.820000e-06	3.986525e-06	1.635057e-09	2.835330e+01	1.067545e+02
2.830000e-06	4.017312e-06	1.638808e-09	2.857226e+01	1.072877e+02
2.840000e-06	4.047751e-06	1.644368e-09	2.878875e+01	1.077975e+02
2.850000e-06	4.077900e-06	1.653517e-09	2.900318e+01	1.082847e+02
2.860000e-06	4.107713e-06	1.664990e-09	2.921522e+01	1.087500e+02
2.870000e-06	4.137292e-06	1.675582e-09	2.942560e+01	1.091938e+02
2.880000e-06	4.166582e-06	1.682172e-09	2.963392e+01	1.096164e+02
2.890000e-06	4.195664e-06	1.683755e-09	2.984075e+01	1.100178e+02
2.900000e-06	4.224464e-06	1.685335e-09	3.004559e+01	1.103979e+02
