# Temperatura_=_-2.4
# Concentracion g/m^3_=_4090.0
# C_Vs_to_Am_M_A/Vsm_=_65563218390.804596
# pendiente_HvsI_1/m_=_3716.3
# ordenada_HvsI_A/m_=_1297.0
# frecuencia_Hz_=_135068.18983256022

Tiempo_(s)	Campo_(V.s)	Magnetizacion_(V.s)	Campo_(kA/m)	Magnetizacion_(A/m)
0.000000e+00	-5.416594e-06	-1.892128e-09	-3.839147e+01	-1.282695e+02
1.000000e-08	-5.416766e-06	-1.888504e-09	-3.839269e+01	-1.281983e+02
2.000000e-08	-5.416764e-06	-1.885340e-09	-3.839268e+01	-1.281105e+02
3.000000e-08	-5.416512e-06	-1.882226e-09	-3.839089e+01	-1.280046e+02
4.000000e-08	-5.415909e-06	-1.882098e-09	-3.838661e+01	-1.278800e+02
5.000000e-08	-5.414815e-06	-1.883766e-09	-3.837886e+01	-1.277367e+02
6.000000e-08	-5.413163e-06	-1.885068e-09	-3.836715e+01	-1.275759e+02
7.000000e-08	-5.410873e-06	-1.887337e-09	-3.835092e+01	-1.273993e+02
8.000000e-08	-5.407910e-06	-1.886313e-09	-3.832992e+01	-1.272098e+02
9.000000e-08	-5.404314e-06	-1.880182e-09	-3.830443e+01	-1.270109e+02
1.000000e-07	-5.400232e-06	-1.886835e-09	-3.827550e+01	-1.268069e+02
1.100000e-07	-5.395859e-06	-1.902131e-09	-3.824451e+01	-1.266027e+02
1.200000e-07	-5.391350e-06	-1.898430e-09	-3.821255e+01	-1.264032e+02
1.300000e-07	-5.386745e-06	-1.856536e-09	-3.817991e+01	-1.262140e+02
1.400000e-07	-5.381735e-06	-1.874110e-09	-3.814440e+01	-1.260401e+02
1.500000e-07	-5.376198e-06	-1.904853e-09	-3.810515e+01	-1.258867e+02
1.600000e-07	-5.370424e-06	-1.898213e-09	-3.806423e+01	-1.257580e+02
1.700000e-07	-5.364426e-06	-1.829766e-09	-3.802172e+01	-1.256580e+02
1.800000e-07	-5.357931e-06	-1.829979e-09	-3.797568e+01	-1.255894e+02
1.900000e-07	-5.350926e-06	-1.897614e-09	-3.792603e+01	-1.255540e+02
2.000000e-07	-5.343607e-06	-1.902505e-09	-3.787415e+01	-1.255525e+02
2.100000e-07	-5.336110e-06	-1.868830e-09	-3.782102e+01	-1.255844e+02
2.200000e-07	-5.328400e-06	-1.870379e-09	-3.776638e+01	-1.256480e+02
2.300000e-07	-5.320361e-06	-1.931240e-09	-3.770940e+01	-1.257402e+02
2.400000e-07	-5.312025e-06	-1.925097e-09	-3.765031e+01	-1.258573e+02
2.500000e-07	-5.303230e-06	-1.920278e-09	-3.758797e+01	-1.259944e+02
2.600000e-07	-5.293726e-06	-1.949469e-09	-3.752061e+01	-1.261457e+02
2.700000e-07	-5.283535e-06	-1.993397e-09	-3.744838e+01	-1.263053e+02
2.800000e-07	-5.272773e-06	-1.973091e-09	-3.737210e+01	-1.264666e+02
2.900000e-07	-5.261576e-06	-1.966016e-09	-3.729274e+01	-1.266232e+02
3.000000e-07	-5.249965e-06	-1.979970e-09	-3.721044e+01	-1.267688e+02
3.100000e-07	-5.237969e-06	-1.978468e-09	-3.712542e+01	-1.268975e+02
3.200000e-07	-5.225550e-06	-1.965312e-09	-3.703740e+01	-1.270040e+02
3.300000e-07	-5.212726e-06	-1.998132e-09	-3.694650e+01	-1.270840e+02
3.400000e-07	-5.199585e-06	-2.017787e-09	-3.685336e+01	-1.271340e+02
3.500000e-07	-5.186083e-06	-1.994247e-09	-3.675767e+01	-1.271515e+02
3.600000e-07	-5.172221e-06	-1.984839e-09	-3.665942e+01	-1.271352e+02
3.700000e-07	-5.157960e-06	-1.997414e-09	-3.655834e+01	-1.270848e+02
3.800000e-07	-5.143156e-06	-1.971852e-09	-3.645341e+01	-1.270013e+02
3.900000e-07	-5.127604e-06	-1.945491e-09	-3.634318e+01	-1.268863e+02
4.000000e-07	-5.111318e-06	-1.965098e-09	-3.622775e+01	-1.267424e+02
4.100000e-07	-5.094619e-06	-1.981311e-09	-3.610939e+01	-1.265730e+02
4.200000e-07	-5.077712e-06	-1.970158e-09	-3.598956e+01	-1.263817e+02
4.300000e-07	-5.060550e-06	-1.971486e-09	-3.586791e+01	-1.261725e+02
4.400000e-07	-5.043078e-06	-1.983964e-09	-3.574408e+01	-1.259495e+02
4.500000e-07	-5.025396e-06	-1.963060e-09	-3.561875e+01	-1.257168e+02
4.600000e-07	-5.007474e-06	-1.947107e-09	-3.549173e+01	-1.254779e+02
4.700000e-07	-4.989103e-06	-1.946557e-09	-3.536152e+01	-1.252361e+02
4.800000e-07	-4.970234e-06	-1.950974e-09	-3.522778e+01	-1.249941e+02
4.900000e-07	-4.950972e-06	-1.939968e-09	-3.509126e+01	-1.247539e+02
5.000000e-07	-4.931401e-06	-1.945250e-09	-3.495255e+01	-1.245167e+02
5.100000e-07	-4.911550e-06	-1.941585e-09	-3.481185e+01	-1.242833e+02
5.200000e-07	-4.891511e-06	-1.937726e-09	-3.466981e+01	-1.240535e+02
5.300000e-07	-4.871283e-06	-1.929642e-09	-3.452644e+01	-1.238267e+02
5.400000e-07	-4.850793e-06	-1.933548e-09	-3.438122e+01	-1.236017e+02
5.500000e-07	-4.829996e-06	-1.925850e-09	-3.423381e+01	-1.233768e+02
5.600000e-07	-4.808852e-06	-1.927175e-09	-3.408394e+01	-1.231504e+02
5.700000e-07	-4.787321e-06	-1.925841e-09	-3.393134e+01	-1.229204e+02
5.800000e-07	-4.765420e-06	-1.922014e-09	-3.377611e+01	-1.226849e+02
5.900000e-07	-4.743308e-06	-1.906935e-09	-3.361939e+01	-1.224422e+02
6.000000e-07	-4.721001e-06	-1.902126e-09	-3.346128e+01	-1.221907e+02
6.100000e-07	-4.698313e-06	-1.902470e-09	-3.330047e+01	-1.219294e+02
6.200000e-07	-4.675184e-06	-1.902845e-09	-3.313654e+01	-1.216577e+02
6.300000e-07	-4.651721e-06	-1.898558e-09	-3.297024e+01	-1.213752e+02
6.400000e-07	-4.627994e-06	-1.902658e-09	-3.280207e+01	-1.210824e+02
6.500000e-07	-4.604027e-06	-1.905697e-09	-3.263219e+01	-1.207800e+02
6.600000e-07	-4.579881e-06	-1.898662e-09	-3.246106e+01	-1.204691e+02
6.700000e-07	-4.555499e-06	-1.884280e-09	-3.228825e+01	-1.201513e+02
6.800000e-07	-4.530666e-06	-1.874312e-09	-3.211223e+01	-1.198284e+02
6.900000e-07	-4.505290e-06	-1.868757e-09	-3.193237e+01	-1.195022e+02
7.000000e-07	-4.479460e-06	-1.863907e-09	-3.174930e+01	-1.191747e+02
7.100000e-07	-4.453206e-06	-1.862282e-09	-3.156321e+01	-1.188476e+02
7.200000e-07	-4.426415e-06	-1.860661e-09	-3.137332e+01	-1.185226e+02
7.300000e-07	-4.399151e-06	-1.862709e-09	-3.118009e+01	-1.182010e+02
7.400000e-07	-4.371584e-06	-1.860866e-09	-3.098470e+01	-1.178837e+02
7.500000e-07	-4.343768e-06	-1.856239e-09	-3.078755e+01	-1.175712e+02
7.600000e-07	-4.315772e-06	-1.844962e-09	-3.058912e+01	-1.172635e+02
7.700000e-07	-4.287634e-06	-1.838817e-09	-3.038968e+01	-1.169603e+02
7.800000e-07	-4.259327e-06	-1.831518e-09	-3.018905e+01	-1.166606e+02
7.900000e-07	-4.230807e-06	-1.827599e-09	-2.998691e+01	-1.163633e+02
8.000000e-07	-4.201883e-06	-1.822373e-09	-2.978190e+01	-1.160667e+02
8.100000e-07	-4.172506e-06	-1.821802e-09	-2.957369e+01	-1.157691e+02
8.200000e-07	-4.142843e-06	-1.817426e-09	-2.936344e+01	-1.154685e+02
8.300000e-07	-4.112939e-06	-1.813441e-09	-2.915149e+01	-1.151630e+02
8.400000e-07	-4.082781e-06	-1.803690e-09	-2.893774e+01	-1.148507e+02
8.500000e-07	-4.052300e-06	-1.797307e-09	-2.872169e+01	-1.145298e+02
8.600000e-07	-4.021551e-06	-1.793602e-09	-2.850375e+01	-1.141990e+02
8.700000e-07	-3.990513e-06	-1.791440e-09	-2.828376e+01	-1.138571e+02
8.800000e-07	-3.959164e-06	-1.783126e-09	-2.806157e+01	-1.135033e+02
8.900000e-07	-3.927646e-06	-1.775212e-09	-2.783818e+01	-1.131375e+02
9.000000e-07	-3.895993e-06	-1.767195e-09	-2.761383e+01	-1.127598e+02
9.100000e-07	-3.864155e-06	-1.760603e-09	-2.738817e+01	-1.123707e+02
9.200000e-07	-3.832112e-06	-1.752849e-09	-2.716106e+01	-1.119711e+02
9.300000e-07	-3.799957e-06	-1.749002e-09	-2.693315e+01	-1.115624e+02
9.400000e-07	-3.767638e-06	-1.750014e-09	-2.670408e+01	-1.111461e+02
9.500000e-07	-3.734954e-06	-1.751528e-09	-2.647243e+01	-1.107238e+02
9.600000e-07	-3.701828e-06	-1.743226e-09	-2.623763e+01	-1.102974e+02
9.700000e-07	-3.668277e-06	-1.730077e-09	-2.599983e+01	-1.098686e+02
9.800000e-07	-3.634246e-06	-1.718797e-09	-2.575863e+01	-1.094393e+02
9.900000e-07	-3.599755e-06	-1.706910e-09	-2.551417e+01	-1.090108e+02
1.000000e-06	-3.564858e-06	-1.693873e-09	-2.526682e+01	-1.085845e+02
1.010000e-06	-3.529616e-06	-1.685070e-09	-2.501704e+01	-1.081613e+02
1.020000e-06	-3.494094e-06	-1.686581e-09	-2.476527e+01	-1.077420e+02
1.030000e-06	-3.458382e-06	-1.691529e-09	-2.451215e+01	-1.073269e+02
1.040000e-06	-3.422544e-06	-1.692630e-09	-2.425814e+01	-1.069159e+02
1.050000e-06	-3.386598e-06	-1.684860e-09	-2.400337e+01	-1.065088e+02
1.060000e-06	-3.350508e-06	-1.674022e-09	-2.374757e+01	-1.061048e+02
1.070000e-06	-3.314182e-06	-1.660197e-09	-2.349010e+01	-1.057031e+02
1.080000e-06	-3.277686e-06	-1.646249e-09	-2.323142e+01	-1.053027e+02
1.090000e-06	-3.241039e-06	-1.632461e-09	-2.297168e+01	-1.049023e+02
1.100000e-06	-3.204157e-06	-1.628226e-09	-2.271027e+01	-1.045008e+02
1.110000e-06	-3.167003e-06	-1.630776e-09	-2.244693e+01	-1.040969e+02
1.120000e-06	-3.129576e-06	-1.633228e-09	-2.218166e+01	-1.036894e+02
1.130000e-06	-3.091961e-06	-1.627778e-09	-2.191505e+01	-1.032774e+02
1.140000e-06	-3.054151e-06	-1.619635e-09	-2.164706e+01	-1.028601e+02
1.150000e-06	-3.016157e-06	-1.610200e-09	-2.137777e+01	-1.024366e+02
1.160000e-06	-2.978013e-06	-1.601080e-09	-2.110742e+01	-1.020067e+02
1.170000e-06	-2.939658e-06	-1.588303e-09	-2.083556e+01	-1.015700e+02
1.180000e-06	-2.901064e-06	-1.577065e-09	-2.056202e+01	-1.011265e+02
1.190000e-06	-2.862254e-06	-1.570407e-09	-2.028694e+01	-1.006764e+02
1.200000e-06	-2.823188e-06	-1.568422e-09	-2.001005e+01	-1.002200e+02
1.210000e-06	-2.783888e-06	-1.567181e-09	-1.973150e+01	-9.975768e+01
1.220000e-06	-2.744374e-06	-1.565522e-09	-1.945144e+01	-9.928996e+01
1.230000e-06	-2.704668e-06	-1.561155e-09	-1.917001e+01	-9.881737e+01
1.240000e-06	-2.664917e-06	-1.552686e-09	-1.888827e+01	-9.834040e+01
1.250000e-06	-2.625082e-06	-1.540166e-09	-1.860593e+01	-9.785953e+01
1.260000e-06	-2.585152e-06	-1.528031e-09	-1.832291e+01	-9.737516e+01
1.270000e-06	-2.545174e-06	-1.518784e-09	-1.803956e+01	-9.688758e+01
1.280000e-06	-2.505039e-06	-1.512296e-09	-1.775510e+01	-9.639696e+01
1.290000e-06	-2.464676e-06	-1.508342e-09	-1.746901e+01	-9.590338e+01
1.300000e-06	-2.424197e-06	-1.502674e-09	-1.718210e+01	-9.540677e+01
1.310000e-06	-2.383587e-06	-1.495532e-09	-1.689427e+01	-9.490697e+01
1.320000e-06	-2.342741e-06	-1.486935e-09	-1.660476e+01	-9.440373e+01
1.330000e-06	-2.301550e-06	-1.477112e-09	-1.631281e+01	-9.389673e+01
1.340000e-06	-2.260021e-06	-1.466470e-09	-1.601846e+01	-9.338560e+01
1.350000e-06	-2.218307e-06	-1.459225e-09	-1.572281e+01	-9.286995e+01
1.360000e-06	-2.176374e-06	-1.454306e-09	-1.542560e+01	-9.234939e+01
1.370000e-06	-2.134049e-06	-1.448871e-09	-1.512561e+01	-9.182355e+01
1.380000e-06	-2.091445e-06	-1.439737e-09	-1.482364e+01	-9.129211e+01
1.390000e-06	-2.048774e-06	-1.427573e-09	-1.452120e+01	-9.075478e+01
1.400000e-06	-2.005855e-06	-1.414953e-09	-1.421700e+01	-9.021131e+01
1.410000e-06	-1.962625e-06	-1.404394e-09	-1.391060e+01	-8.966152e+01
1.420000e-06	-1.919233e-06	-1.395294e-09	-1.360304e+01	-8.910525e+01
1.430000e-06	-1.875687e-06	-1.388684e-09	-1.329440e+01	-8.854237e+01
1.440000e-06	-1.832056e-06	-1.383585e-09	-1.298516e+01	-8.797276e+01
1.450000e-06	-1.788404e-06	-1.378477e-09	-1.267576e+01	-8.739630e+01
1.460000e-06	-1.744661e-06	-1.369509e-09	-1.236572e+01	-8.681282e+01
1.470000e-06	-1.700796e-06	-1.358566e-09	-1.205482e+01	-8.622214e+01
1.480000e-06	-1.656828e-06	-1.347118e-09	-1.174318e+01	-8.562399e+01
1.490000e-06	-1.612786e-06	-1.337163e-09	-1.143103e+01	-8.501807e+01
1.500000e-06	-1.568711e-06	-1.328432e-09	-1.111864e+01	-8.440397e+01
1.510000e-06	-1.524599e-06	-1.320034e-09	-1.080598e+01	-8.378125e+01
1.520000e-06	-1.480435e-06	-1.311706e-09	-1.049296e+01	-8.314940e+01
1.530000e-06	-1.436150e-06	-1.304464e-09	-1.017908e+01	-8.250787e+01
1.540000e-06	-1.391698e-06	-1.294227e-09	-9.864007e+00	-8.185609e+01
1.550000e-06	-1.347172e-06	-1.280187e-09	-9.548419e+00	-8.119349e+01
1.560000e-06	-1.302585e-06	-1.264875e-09	-9.232400e+00	-8.051953e+01
1.570000e-06	-1.257942e-06	-1.252799e-09	-8.915979e+00	-7.983374e+01
1.580000e-06	-1.213198e-06	-1.243328e-09	-8.598845e+00	-7.913571e+01
1.590000e-06	-1.168359e-06	-1.233174e-09	-8.281036e+00	-7.842513e+01
1.600000e-06	-1.123457e-06	-1.222996e-09	-7.962782e+00	-7.770183e+01
1.610000e-06	-1.078431e-06	-1.211297e-09	-7.643647e+00	-7.696574e+01
1.620000e-06	-1.033332e-06	-1.199614e-09	-7.323997e+00	-7.621692e+01
1.630000e-06	-9.882042e-07	-1.186698e-09	-7.004145e+00	-7.545557e+01
1.640000e-06	-9.430411e-07	-1.170778e-09	-6.684040e+00	-7.468196e+01
1.650000e-06	-8.978387e-07	-1.154293e-09	-6.363657e+00	-7.389646e+01
1.660000e-06	-8.524656e-07	-1.140579e-09	-6.042064e+00	-7.309949e+01
1.670000e-06	-8.069554e-07	-1.129119e-09	-5.719499e+00	-7.229146e+01
1.680000e-06	-7.614518e-07	-1.119257e-09	-5.396981e+00	-7.147276e+01
1.690000e-06	-7.159097e-07	-1.108152e-09	-5.074190e+00	-7.064371e+01
1.700000e-06	-6.702954e-07	-1.096624e-09	-4.750887e+00	-6.980452e+01
1.710000e-06	-6.245750e-07	-1.085093e-09	-4.426832e+00	-6.895525e+01
1.720000e-06	-5.788219e-07	-1.073285e-09	-4.102546e+00	-6.809577e+01
1.730000e-06	-5.330766e-07	-1.059356e-09	-3.778314e+00	-6.722575e+01
1.740000e-06	-4.872816e-07	-1.043147e-09	-3.453730e+00	-6.634466e+01
1.750000e-06	-4.414639e-07	-1.025296e-09	-3.128986e+00	-6.545171e+01
1.760000e-06	-3.956617e-07	-1.007328e-09	-2.804352e+00	-6.454593e+01
1.770000e-06	-3.498016e-07	-9.898569e-10	-2.479306e+00	-6.362615e+01
1.780000e-06	-3.038684e-07	-9.745140e-10	-2.153743e+00	-6.269102e+01
1.790000e-06	-2.579251e-07	-9.607353e-10	-1.828109e+00	-6.173907e+01
1.800000e-06	-2.119672e-07	-9.466572e-10	-1.502371e+00	-6.076874e+01
1.810000e-06	-1.660522e-07	-9.300815e-10	-1.176936e+00	-5.977845e+01
1.820000e-06	-1.201518e-07	-9.117973e-10	-8.516058e-01	-5.876662e+01
1.830000e-06	-7.422308e-08	-8.930916e-10	-5.260747e-01	-5.773173e+01
1.840000e-06	-2.828942e-08	-8.748582e-10	-2.005084e-01	-5.667241e+01
1.850000e-06	1.768969e-08	-8.578572e-10	1.253801e-01	-5.558742e+01
1.860000e-06	6.372154e-08	-8.434802e-10	4.516424e-01	-5.447570e+01
1.870000e-06	1.097416e-07	-8.322333e-10	7.778214e-01	-5.333643e+01
1.880000e-06	1.556776e-07	-8.197369e-10	1.103404e+00	-5.216901e+01
1.890000e-06	2.015039e-07	-8.029178e-10	1.428210e+00	-5.097307e+01
1.900000e-06	2.472530e-07	-7.814209e-10	1.752468e+00	-4.974845e+01
1.910000e-06	2.930005e-07	-7.586049e-10	2.076715e+00	-4.849521e+01
1.920000e-06	3.388306e-07	-7.362414e-10	2.401547e+00	-4.721355e+01
1.930000e-06	3.847189e-07	-7.146211e-10	2.726792e+00	-4.590383e+01
1.940000e-06	4.305656e-07	-6.942045e-10	3.051742e+00	-4.456650e+01
1.950000e-06	4.762929e-07	-6.746838e-10	3.375845e+00	-4.320203e+01
1.960000e-06	5.219256e-07	-6.548446e-10	3.699279e+00	-4.181091e+01
1.970000e-06	5.675471e-07	-6.332326e-10	4.022633e+00	-4.039358e+01
1.980000e-06	6.131924e-07	-6.088799e-10	4.346155e+00	-3.895041e+01
1.990000e-06	6.588181e-07	-5.849730e-10	4.669539e+00	-3.748163e+01
2.000000e-06	7.043880e-07	-5.624859e-10	4.992527e+00	-3.598737e+01
2.010000e-06	7.498491e-07	-5.404618e-10	5.314744e+00	-3.446759e+01
2.020000e-06	7.951942e-07	-5.178523e-10	5.636138e+00	-3.292211e+01
2.030000e-06	8.405277e-07	-4.932394e-10	5.957451e+00	-3.135061e+01
2.040000e-06	8.858439e-07	-4.667705e-10	6.278641e+00	-2.975264e+01
2.050000e-06	9.310920e-07	-4.412419e-10	6.599348e+00	-2.812768e+01
2.060000e-06	9.762391e-07	-4.163239e-10	6.919340e+00	-2.647512e+01
2.070000e-06	1.021303e-06	-3.911967e-10	7.238739e+00	-2.479435e+01
2.080000e-06	1.066290e-06	-3.679183e-10	7.557595e+00	-2.308476e+01
2.090000e-06	1.111231e-06	-3.452292e-10	7.876126e+00	-2.134580e+01
2.100000e-06	1.156113e-06	-3.190373e-10	8.194239e+00	-1.957701e+01
2.110000e-06	1.200875e-06	-2.877054e-10	8.511505e+00	-1.777806e+01
2.120000e-06	1.245476e-06	-2.524981e-10	8.827626e+00	-1.594879e+01
2.130000e-06	1.289978e-06	-2.198277e-10	9.143043e+00	-1.408919e+01
2.140000e-06	1.334406e-06	-1.916756e-10	9.457936e+00	-1.219944e+01
2.150000e-06	1.378706e-06	-1.651847e-10	9.771928e+00	-1.027992e+01
2.160000e-06	1.422925e-06	-1.402365e-10	1.008534e+01	-8.331195e+00
2.170000e-06	1.467108e-06	-1.155967e-10	1.039849e+01	-6.353984e+00
2.180000e-06	1.511251e-06	-8.809008e-11	1.071137e+01	-4.349176e+00
2.190000e-06	1.555335e-06	-5.551634e-11	1.102383e+01	-2.317791e+00
2.200000e-06	1.599390e-06	-1.857288e-11	1.133608e+01	-2.609585e-01
2.210000e-06	1.643426e-06	1.894682e-11	1.164820e+01	1.820109e+00
2.220000e-06	1.687410e-06	5.269079e-11	1.195994e+01	3.924133e+00
2.230000e-06	1.731335e-06	8.338725e-11	1.227127e+01	6.049793e+00
2.240000e-06	1.775189e-06	1.127632e-10	1.258210e+01	8.195739e+00
2.250000e-06	1.818942e-06	1.430810e-10	1.289221e+01	1.036060e+01
2.260000e-06	1.862643e-06	1.757400e-10	1.320195e+01	1.254299e+01
2.270000e-06	1.906259e-06	2.100957e-10	1.351109e+01	1.474148e+01
2.280000e-06	1.949762e-06	2.475101e-10	1.381943e+01	1.695464e+01
2.290000e-06	1.993180e-06	2.867323e-10	1.412716e+01	1.918097e+01
2.300000e-06	2.036414e-06	3.223163e-10	1.443360e+01	2.141890e+01
2.310000e-06	2.079400e-06	3.537058e-10	1.473827e+01	2.366678e+01
2.320000e-06	2.122053e-06	3.837786e-10	1.504058e+01	2.592286e+01
2.330000e-06	2.164419e-06	4.151558e-10	1.534086e+01	2.818523e+01
2.340000e-06	2.206496e-06	4.458117e-10	1.563909e+01	3.045187e+01
2.350000e-06	2.248301e-06	4.769184e-10	1.593540e+01	3.272060e+01
2.360000e-06	2.289829e-06	5.110611e-10	1.622974e+01	3.498907e+01
2.370000e-06	2.330987e-06	5.495053e-10	1.652146e+01	3.725482e+01
2.380000e-06	2.371880e-06	5.889091e-10	1.681130e+01	3.951523e+01
2.390000e-06	2.412504e-06	6.240519e-10	1.709923e+01	4.176760e+01
2.400000e-06	2.452948e-06	6.556866e-10	1.738589e+01	4.400912e+01
2.410000e-06	2.493265e-06	6.848628e-10	1.767164e+01	4.623700e+01
2.420000e-06	2.533404e-06	7.128859e-10	1.795614e+01	4.844841e+01
2.430000e-06	2.573437e-06	7.442877e-10	1.823988e+01	5.064062e+01
2.440000e-06	2.613417e-06	7.801595e-10	1.852325e+01	5.281097e+01
2.450000e-06	2.653301e-06	8.179715e-10	1.880594e+01	5.495698e+01
2.460000e-06	2.693079e-06	8.550186e-10	1.908788e+01	5.707636e+01
2.470000e-06	2.732730e-06	8.881439e-10	1.936891e+01	5.916703e+01
2.480000e-06	2.772143e-06	9.160676e-10	1.964826e+01	6.122718e+01
2.490000e-06	2.811322e-06	9.421923e-10	1.992595e+01	6.325528e+01
2.500000e-06	2.850326e-06	9.705120e-10	2.020240e+01	6.525004e+01
2.510000e-06	2.889095e-06	1.000623e-09	2.047718e+01	6.721047e+01
2.520000e-06	2.927640e-06	1.033500e-09	2.075038e+01	6.913583e+01
2.530000e-06	2.966079e-06	1.068518e-09	2.102283e+01	7.102560e+01
2.540000e-06	3.004354e-06	1.102479e-09	2.129412e+01	7.287945e+01
2.550000e-06	3.042349e-06	1.131602e-09	2.156341e+01	7.469720e+01
2.560000e-06	3.080148e-06	1.155295e-09	2.183132e+01	7.647878e+01
2.570000e-06	3.117824e-06	1.176152e-09	2.209836e+01	7.822417e+01
2.580000e-06	3.155256e-06	1.197807e-09	2.236367e+01	7.993338e+01
2.590000e-06	3.192437e-06	1.220881e-09	2.262720e+01	8.160640e+01
2.600000e-06	3.229396e-06	1.244294e-09	2.288915e+01	8.324316e+01
2.610000e-06	3.266060e-06	1.270585e-09	2.314902e+01	8.484351e+01
2.620000e-06	3.302476e-06	1.301671e-09	2.340712e+01	8.640723e+01
2.630000e-06	3.338704e-06	1.332024e-09	2.366390e+01	8.793401e+01
2.640000e-06	3.374783e-06	1.355421e-09	2.391962e+01	8.942347e+01
2.650000e-06	3.410726e-06	1.372022e-09	2.417438e+01	9.087516e+01
2.660000e-06	3.446574e-06	1.384886e-09	2.442846e+01	9.228864e+01
2.670000e-06	3.482281e-06	1.396237e-09	2.468154e+01	9.366344e+01
2.680000e-06	3.517770e-06	1.408284e-09	2.493308e+01	9.499919e+01
2.690000e-06	3.553139e-06	1.425784e-09	2.518376e+01	9.629560e+01
2.700000e-06	3.588208e-06	1.453366e-09	2.543233e+01	9.755253e+01
2.710000e-06	3.622731e-06	1.484113e-09	2.567701e+01	9.877002e+01
2.720000e-06	3.656748e-06	1.508938e-09	2.591812e+01	9.994831e+01
2.730000e-06	3.690326e-06	1.528276e-09	2.615611e+01	1.010879e+02
2.740000e-06	3.723473e-06	1.544295e-09	2.639105e+01	1.021895e+02
2.750000e-06	3.756228e-06	1.556597e-09	2.662321e+01	1.032540e+02
2.760000e-06	3.788656e-06	1.564340e-09	2.685305e+01	1.042827e+02
2.770000e-06	3.820870e-06	1.569280e-09	2.708137e+01	1.052769e+02
2.780000e-06	3.852925e-06	1.578875e-09	2.730857e+01	1.062382e+02
2.790000e-06	3.884826e-06	1.597127e-09	2.753468e+01	1.071680e+02
2.800000e-06	3.916573e-06	1.618542e-09	2.775969e+01	1.080682e+02
2.810000e-06	3.948141e-06	1.635041e-09	2.798344e+01	1.089402e+02
2.820000e-06	3.979442e-06	1.647431e-09	2.820529e+01	1.097858e+02
2.830000e-06	4.010400e-06	1.660115e-09	2.842472e+01	1.106063e+02
2.840000e-06	4.041039e-06	1.673145e-09	2.864188e+01	1.114029e+02
2.850000e-06	4.071397e-06	1.682142e-09	2.885705e+01	1.121766e+02
2.860000e-06	4.101491e-06	1.687852e-09	2.907035e+01	1.129282e+02
2.870000e-06	4.131315e-06	1.696243e-09	2.928173e+01	1.136581e+02
2.880000e-06	4.160904e-06	1.707865e-09	2.949145e+01	1.143666e+02
2.890000e-06	4.190234e-06	1.719199e-09	2.969934e+01	1.150536e+02
2.900000e-06	4.219317e-06	1.726631e-09	2.990547e+01	1.157188e+02
