# Temperatura_=_-1.2
# Concentracion g/m^3_=_4090.0
# C_Vs_to_Am_M_A/Vsm_=_65563218390.804596
# pendiente_HvsI_1/m_=_3716.3
# ordenada_HvsI_A/m_=_1297.0
# frecuencia_Hz_=_135074.3092731103

Tiempo_(s)	Campo_(V.s)	Magnetizacion_(V.s)	Campo_(kA/m)	Magnetizacion_(A/m)
0.000000e+00	-5.412420e-06	-2.100732e-09	-3.838459e+01	-1.415824e+02
1.000000e-08	-5.412533e-06	-2.097054e-09	-3.838540e+01	-1.413958e+02
2.000000e-08	-5.412395e-06	-2.093067e-09	-3.838442e+01	-1.411889e+02
3.000000e-08	-5.411905e-06	-2.088962e-09	-3.838094e+01	-1.409646e+02
4.000000e-08	-5.410868e-06	-2.089057e-09	-3.837358e+01	-1.407267e+02
5.000000e-08	-5.409306e-06	-2.094121e-09	-3.836251e+01	-1.404801e+02
6.000000e-08	-5.407289e-06	-2.111513e-09	-3.834820e+01	-1.402303e+02
7.000000e-08	-5.404724e-06	-2.135024e-09	-3.833001e+01	-1.399837e+02
8.000000e-08	-5.401516e-06	-2.090602e-09	-3.830726e+01	-1.397467e+02
9.000000e-08	-5.397710e-06	-1.986048e-09	-3.828027e+01	-1.395265e+02
1.000000e-07	-5.393577e-06	-2.021030e-09	-3.825096e+01	-1.393296e+02
1.100000e-07	-5.389317e-06	-2.162663e-09	-3.822075e+01	-1.391628e+02
1.200000e-07	-5.384778e-06	-2.143962e-09	-3.818856e+01	-1.390318e+02
1.300000e-07	-5.379837e-06	-2.005450e-09	-3.815351e+01	-1.389417e+02
1.400000e-07	-5.374487e-06	-2.009536e-09	-3.811557e+01	-1.388965e+02
1.500000e-07	-5.368749e-06	-2.204190e-09	-3.807488e+01	-1.388989e+02
1.600000e-07	-5.362614e-06	-2.177213e-09	-3.803137e+01	-1.389504e+02
1.700000e-07	-5.356118e-06	-1.979471e-09	-3.798530e+01	-1.390506e+02
1.800000e-07	-5.349246e-06	-1.993135e-09	-3.793656e+01	-1.391980e+02
1.900000e-07	-5.342107e-06	-2.170461e-09	-3.788593e+01	-1.393892e+02
2.000000e-07	-5.334767e-06	-2.194366e-09	-3.783388e+01	-1.396196e+02
2.100000e-07	-5.327143e-06	-2.089715e-09	-3.777981e+01	-1.398833e+02
2.200000e-07	-5.319245e-06	-2.183006e-09	-3.772380e+01	-1.401732e+02
2.300000e-07	-5.311079e-06	-2.278193e-09	-3.766588e+01	-1.404814e+02
2.400000e-07	-5.302448e-06	-2.213664e-09	-3.760468e+01	-1.407995e+02
2.500000e-07	-5.293168e-06	-2.152209e-09	-3.753886e+01	-1.411186e+02
2.600000e-07	-5.283304e-06	-2.259777e-09	-3.746891e+01	-1.414299e+02
2.700000e-07	-5.272905e-06	-2.272337e-09	-3.739516e+01	-1.417250e+02
2.800000e-07	-5.262042e-06	-2.164476e-09	-3.731812e+01	-1.419962e+02
2.900000e-07	-5.250733e-06	-2.186784e-09	-3.723792e+01	-1.422362e+02
3.000000e-07	-5.238940e-06	-2.290898e-09	-3.715428e+01	-1.424394e+02
3.100000e-07	-5.226674e-06	-2.220678e-09	-3.706729e+01	-1.426011e+02
3.200000e-07	-5.214022e-06	-2.139198e-09	-3.697756e+01	-1.427179e+02
3.300000e-07	-5.200966e-06	-2.207133e-09	-3.688497e+01	-1.427882e+02
3.400000e-07	-5.187520e-06	-2.240956e-09	-3.678961e+01	-1.428116e+02
3.500000e-07	-5.173731e-06	-2.190485e-09	-3.669183e+01	-1.427891e+02
3.600000e-07	-5.159579e-06	-2.204655e-09	-3.659145e+01	-1.427231e+02
3.700000e-07	-5.144898e-06	-2.227343e-09	-3.648734e+01	-1.426170e+02
3.800000e-07	-5.129695e-06	-2.169953e-09	-3.637952e+01	-1.424752e+02
3.900000e-07	-5.114032e-06	-2.174157e-09	-3.626844e+01	-1.423028e+02
4.000000e-07	-5.097803e-06	-2.213641e-09	-3.615334e+01	-1.421051e+02
4.100000e-07	-5.081162e-06	-2.170026e-09	-3.603533e+01	-1.418880e+02
4.200000e-07	-5.064265e-06	-2.134229e-09	-3.591549e+01	-1.416570e+02
4.300000e-07	-5.047025e-06	-2.205584e-09	-3.579323e+01	-1.414174e+02
4.400000e-07	-5.029453e-06	-2.220695e-09	-3.566861e+01	-1.411740e+02
4.500000e-07	-5.011536e-06	-2.161590e-09	-3.554154e+01	-1.409309e+02
4.600000e-07	-4.993213e-06	-2.145273e-09	-3.541160e+01	-1.406915e+02
4.700000e-07	-4.974505e-06	-2.177496e-09	-3.527892e+01	-1.404581e+02
4.800000e-07	-4.955447e-06	-2.167265e-09	-3.514376e+01	-1.402322e+02
4.900000e-07	-4.936097e-06	-2.156928e-09	-3.500653e+01	-1.400145e+02
5.000000e-07	-4.916470e-06	-2.145753e-09	-3.486734e+01	-1.398046e+02
5.100000e-07	-4.896551e-06	-2.148744e-09	-3.472607e+01	-1.396014e+02
5.200000e-07	-4.876384e-06	-2.169012e-09	-3.458305e+01	-1.394034e+02
5.300000e-07	-4.856020e-06	-2.175839e-09	-3.443863e+01	-1.392084e+02
5.400000e-07	-4.835326e-06	-2.133344e-09	-3.429187e+01	-1.390140e+02
5.500000e-07	-4.814247e-06	-2.122143e-09	-3.414238e+01	-1.388176e+02
5.600000e-07	-4.792852e-06	-2.144657e-09	-3.399065e+01	-1.386167e+02
5.700000e-07	-4.771156e-06	-2.146934e-09	-3.383678e+01	-1.384090e+02
5.800000e-07	-4.749213e-06	-2.120994e-09	-3.368117e+01	-1.381927e+02
5.900000e-07	-4.726973e-06	-2.114911e-09	-3.352344e+01	-1.379661e+02
6.000000e-07	-4.704336e-06	-2.129114e-09	-3.336289e+01	-1.377282e+02
6.100000e-07	-4.681324e-06	-2.145164e-09	-3.319969e+01	-1.374788e+02
6.200000e-07	-4.657950e-06	-2.131166e-09	-3.303393e+01	-1.372179e+02
6.300000e-07	-4.634384e-06	-2.101738e-09	-3.286680e+01	-1.369463e+02
6.400000e-07	-4.610678e-06	-2.103033e-09	-3.269868e+01	-1.366651e+02
6.500000e-07	-4.586704e-06	-2.123781e-09	-3.252866e+01	-1.363759e+02
6.600000e-07	-4.562382e-06	-2.117299e-09	-3.235617e+01	-1.360806e+02
6.700000e-07	-4.537708e-06	-2.094078e-09	-3.218118e+01	-1.357811e+02
6.800000e-07	-4.512583e-06	-2.094490e-09	-3.200300e+01	-1.354797e+02
6.900000e-07	-4.487009e-06	-2.105320e-09	-3.182162e+01	-1.351783e+02
7.000000e-07	-4.460958e-06	-2.104705e-09	-3.163687e+01	-1.348787e+02
7.100000e-07	-4.434310e-06	-2.082719e-09	-3.144789e+01	-1.345823e+02
7.200000e-07	-4.407286e-06	-2.068919e-09	-3.125623e+01	-1.342904e+02
7.300000e-07	-4.379995e-06	-2.076385e-09	-3.106269e+01	-1.340037e+02
7.400000e-07	-4.352419e-06	-2.090061e-09	-3.086712e+01	-1.337223e+02
7.500000e-07	-4.324622e-06	-2.078906e-09	-3.066999e+01	-1.334462e+02
7.600000e-07	-4.296602e-06	-2.066128e-09	-3.047127e+01	-1.331747e+02
7.700000e-07	-4.268352e-06	-2.065825e-09	-3.027092e+01	-1.329070e+02
7.800000e-07	-4.239829e-06	-2.069539e-09	-3.006864e+01	-1.326416e+02
7.900000e-07	-4.210900e-06	-2.056317e-09	-2.986348e+01	-1.323772e+02
8.000000e-07	-4.181666e-06	-2.040429e-09	-2.965615e+01	-1.321122e+02
8.100000e-07	-4.152290e-06	-2.032902e-09	-2.944782e+01	-1.318451e+02
8.200000e-07	-4.122622e-06	-2.042306e-09	-2.923741e+01	-1.315742e+02
8.300000e-07	-4.092614e-06	-2.043717e-09	-2.902460e+01	-1.312984e+02
8.400000e-07	-4.062273e-06	-2.033460e-09	-2.880942e+01	-1.310166e+02
8.500000e-07	-4.031571e-06	-2.024427e-09	-2.859169e+01	-1.307279e+02
8.600000e-07	-4.000675e-06	-2.026739e-09	-2.837257e+01	-1.304320e+02
8.700000e-07	-3.969586e-06	-2.022353e-09	-2.815209e+01	-1.301287e+02
8.800000e-07	-3.938290e-06	-2.004859e-09	-2.793014e+01	-1.298183e+02
8.900000e-07	-3.906773e-06	-1.986845e-09	-2.770662e+01	-1.295012e+02
9.000000e-07	-3.875003e-06	-1.985146e-09	-2.748131e+01	-1.291783e+02
9.100000e-07	-3.843072e-06	-1.989733e-09	-2.725486e+01	-1.288504e+02
9.200000e-07	-3.810963e-06	-1.984321e-09	-2.702715e+01	-1.285187e+02
9.300000e-07	-3.778604e-06	-1.975834e-09	-2.679765e+01	-1.281841e+02
9.400000e-07	-3.745912e-06	-1.978548e-09	-2.656580e+01	-1.278476e+02
9.500000e-07	-3.712799e-06	-1.984612e-09	-2.633097e+01	-1.275101e+02
9.600000e-07	-3.679252e-06	-1.974675e-09	-2.609306e+01	-1.271723e+02
9.700000e-07	-3.645354e-06	-1.952439e-09	-2.585266e+01	-1.268346e+02
9.800000e-07	-3.611066e-06	-1.936971e-09	-2.560949e+01	-1.264970e+02
9.900000e-07	-3.576315e-06	-1.934628e-09	-2.536303e+01	-1.261594e+02
1.000000e-06	-3.541232e-06	-1.931931e-09	-2.511423e+01	-1.258214e+02
1.010000e-06	-3.505916e-06	-1.926940e-09	-2.486377e+01	-1.254822e+02
1.020000e-06	-3.470383e-06	-1.925362e-09	-2.461177e+01	-1.251409e+02
1.030000e-06	-3.434637e-06	-1.930182e-09	-2.435826e+01	-1.247966e+02
1.040000e-06	-3.398680e-06	-1.929411e-09	-2.410326e+01	-1.244479e+02
1.050000e-06	-3.362606e-06	-1.918129e-09	-2.384742e+01	-1.240939e+02
1.060000e-06	-3.326416e-06	-1.901195e-09	-2.359076e+01	-1.237334e+02
1.070000e-06	-3.290019e-06	-1.889623e-09	-2.333264e+01	-1.233656e+02
1.080000e-06	-3.253391e-06	-1.882405e-09	-2.307287e+01	-1.229897e+02
1.090000e-06	-3.216514e-06	-1.875667e-09	-2.281135e+01	-1.226054e+02
1.100000e-06	-3.179411e-06	-1.868994e-09	-2.254821e+01	-1.222125e+02
1.110000e-06	-3.142013e-06	-1.870304e-09	-2.228299e+01	-1.218113e+02
1.120000e-06	-3.104350e-06	-1.872572e-09	-2.201588e+01	-1.214022e+02
1.130000e-06	-3.066599e-06	-1.869472e-09	-2.174815e+01	-1.209861e+02
1.140000e-06	-3.028701e-06	-1.857168e-09	-2.147939e+01	-1.205641e+02
1.150000e-06	-2.990552e-06	-1.843189e-09	-2.120883e+01	-1.201373e+02
1.160000e-06	-2.952170e-06	-1.831274e-09	-2.093663e+01	-1.197071e+02
1.170000e-06	-2.913625e-06	-1.823475e-09	-2.066327e+01	-1.192750e+02
1.180000e-06	-2.874807e-06	-1.816527e-09	-2.038798e+01	-1.188422e+02
1.190000e-06	-2.835725e-06	-1.813109e-09	-2.011081e+01	-1.184101e+02
1.200000e-06	-2.796522e-06	-1.815667e-09	-1.983278e+01	-1.179795e+02
1.210000e-06	-2.757139e-06	-1.820018e-09	-1.955349e+01	-1.175513e+02
1.220000e-06	-2.717644e-06	-1.816784e-09	-1.927339e+01	-1.171258e+02
1.230000e-06	-2.678030e-06	-1.806474e-09	-1.899244e+01	-1.167031e+02
1.240000e-06	-2.638171e-06	-1.792856e-09	-1.870976e+01	-1.162830e+02
1.250000e-06	-2.598172e-06	-1.782245e-09	-1.842609e+01	-1.158647e+02
1.260000e-06	-2.558156e-06	-1.773808e-09	-1.814230e+01	-1.154474e+02
1.270000e-06	-2.518042e-06	-1.763928e-09	-1.785782e+01	-1.150298e+02
1.280000e-06	-2.477803e-06	-1.759568e-09	-1.757244e+01	-1.146104e+02
1.290000e-06	-2.437469e-06	-1.760002e-09	-1.728640e+01	-1.141878e+02
1.300000e-06	-2.396906e-06	-1.758568e-09	-1.699873e+01	-1.137602e+02
1.310000e-06	-2.356143e-06	-1.748629e-09	-1.670964e+01	-1.133262e+02
1.320000e-06	-2.315251e-06	-1.737238e-09	-1.641963e+01	-1.128843e+02
1.330000e-06	-2.274045e-06	-1.727578e-09	-1.612741e+01	-1.124333e+02
1.340000e-06	-2.232407e-06	-1.718282e-09	-1.583211e+01	-1.119722e+02
1.350000e-06	-2.190473e-06	-1.707343e-09	-1.553472e+01	-1.115003e+02
1.360000e-06	-2.148361e-06	-1.699901e-09	-1.523606e+01	-1.110174e+02
1.370000e-06	-2.105933e-06	-1.697590e-09	-1.493516e+01	-1.105234e+02
1.380000e-06	-2.063176e-06	-1.695884e-09	-1.463193e+01	-1.100188e+02
1.390000e-06	-2.020225e-06	-1.688910e-09	-1.432733e+01	-1.095042e+02
1.400000e-06	-1.977163e-06	-1.677331e-09	-1.402193e+01	-1.089804e+02
1.410000e-06	-1.933931e-06	-1.665231e-09	-1.371534e+01	-1.084486e+02
1.420000e-06	-1.890550e-06	-1.655140e-09	-1.340768e+01	-1.079099e+02
1.430000e-06	-1.847027e-06	-1.644759e-09	-1.309902e+01	-1.073655e+02
1.440000e-06	-1.803350e-06	-1.635625e-09	-1.278926e+01	-1.068164e+02
1.450000e-06	-1.759578e-06	-1.627094e-09	-1.247883e+01	-1.062637e+02
1.460000e-06	-1.715768e-06	-1.622691e-09	-1.216814e+01	-1.057079e+02
1.470000e-06	-1.671905e-06	-1.618515e-09	-1.185706e+01	-1.051494e+02
1.480000e-06	-1.627941e-06	-1.608828e-09	-1.154527e+01	-1.045883e+02
1.490000e-06	-1.583934e-06	-1.596050e-09	-1.123317e+01	-1.040241e+02
1.500000e-06	-1.539825e-06	-1.584333e-09	-1.092035e+01	-1.034562e+02
1.510000e-06	-1.495602e-06	-1.574571e-09	-1.060673e+01	-1.028835e+02
1.520000e-06	-1.451322e-06	-1.564037e-09	-1.029270e+01	-1.023044e+02
1.530000e-06	-1.406994e-06	-1.553329e-09	-9.978326e+00	-1.017174e+02
1.540000e-06	-1.362570e-06	-1.543076e-09	-9.663272e+00	-1.011205e+02
1.550000e-06	-1.318097e-06	-1.532831e-09	-9.347871e+00	-1.005117e+02
1.560000e-06	-1.273564e-06	-1.521868e-09	-9.032045e+00	-9.988907e+01
1.570000e-06	-1.228964e-06	-1.510487e-09	-8.715748e+00	-9.925065e+01
1.580000e-06	-1.184318e-06	-1.499419e-09	-8.399117e+00	-9.859468e+01
1.590000e-06	-1.139473e-06	-1.488586e-09	-8.081082e+00	-9.791962e+01
1.600000e-06	-1.094497e-06	-1.476328e-09	-7.762111e+00	-9.722427e+01
1.610000e-06	-1.049449e-06	-1.463544e-09	-7.442633e+00	-9.650776e+01
1.620000e-06	-1.004267e-06	-1.451481e-09	-7.122207e+00	-9.576960e+01
1.630000e-06	-9.589970e-07	-1.440266e-09	-6.801155e+00	-9.500971e+01
1.640000e-06	-9.137216e-07	-1.427916e-09	-6.480064e+00	-9.422834e+01
1.650000e-06	-8.683988e-07	-1.415107e-09	-6.158637e+00	-9.342609e+01
1.660000e-06	-8.229738e-07	-1.402618e-09	-5.836486e+00	-9.260383e+01
1.670000e-06	-7.774894e-07	-1.391989e-09	-5.513913e+00	-9.176262e+01
1.680000e-06	-7.319843e-07	-1.381539e-09	-5.191193e+00	-9.090361e+01
1.690000e-06	-6.864440e-07	-1.367405e-09	-4.868224e+00	-9.002799e+01
1.700000e-06	-6.408064e-07	-1.351497e-09	-4.544565e+00	-8.913685e+01
1.710000e-06	-5.951845e-07	-1.336790e-09	-4.221017e+00	-8.823111e+01
1.720000e-06	-5.495474e-07	-1.321813e-09	-3.897361e+00	-8.731143e+01
1.730000e-06	-5.038414e-07	-1.304284e-09	-3.573216e+00	-8.637815e+01
1.740000e-06	-4.581680e-07	-1.285460e-09	-3.249303e+00	-8.543122e+01
1.750000e-06	-4.123859e-07	-1.268610e-09	-2.924619e+00	-8.447020e+01
1.760000e-06	-3.665067e-07	-1.254272e-09	-2.599246e+00	-8.349421e+01
1.770000e-06	-3.206273e-07	-1.240745e-09	-2.273872e+00	-8.250195e+01
1.780000e-06	-2.746760e-07	-1.228238e-09	-1.947988e+00	-8.149176e+01
1.790000e-06	-2.287551e-07	-1.219072e-09	-1.622319e+00	-8.046165e+01
1.800000e-06	-1.829027e-07	-1.207657e-09	-1.297136e+00	-7.940937e+01
1.810000e-06	-1.370128e-07	-1.188820e-09	-9.716877e-01	-7.833251e+01
1.820000e-06	-9.106303e-08	-1.162373e-09	-6.458141e-01	-7.722856e+01
1.830000e-06	-4.509778e-08	-1.135823e-09	-3.198310e-01	-7.609504e+01
1.840000e-06	8.215927e-10	-1.114705e-09	5.826691e-03	-7.492955e+01
1.850000e-06	4.667691e-08	-1.097493e-09	3.310302e-01	-7.372989e+01
1.860000e-06	9.256587e-08	-1.083171e-09	6.564722e-01	-7.249413e+01
1.870000e-06	1.385699e-07	-1.073543e-09	9.827300e-01	-7.122063e+01
1.880000e-06	1.845728e-07	-1.065277e-09	1.308980e+00	-6.990813e+01
1.890000e-06	2.305531e-07	-1.049370e-09	1.635070e+00	-6.855572e+01
1.900000e-06	2.764938e-07	-1.021587e-09	1.960879e+00	-6.716289e+01
1.910000e-06	3.223242e-07	-9.876910e-10	2.285906e+00	-6.572947e+01
1.920000e-06	3.681131e-07	-9.540211e-10	2.610638e+00	-6.425560e+01
1.930000e-06	4.138967e-07	-9.243133e-10	2.935333e+00	-6.274168e+01
1.940000e-06	4.596377e-07	-8.998844e-10	3.259726e+00	-6.118829e+01
1.950000e-06	5.053381e-07	-8.818851e-10	3.583830e+00	-5.959613e+01
1.960000e-06	5.510145e-07	-8.701834e-10	3.907766e+00	-5.796594e+01
1.970000e-06	5.966630e-07	-8.559510e-10	4.231502e+00	-5.629839e+01
1.980000e-06	6.422843e-07	-8.320329e-10	4.555046e+00	-5.459404e+01
1.990000e-06	6.878225e-07	-7.996507e-10	4.878000e+00	-5.285328e+01
2.000000e-06	7.332965e-07	-7.627363e-10	5.200500e+00	-5.107625e+01
2.010000e-06	7.787418e-07	-7.256164e-10	5.522795e+00	-4.926282e+01
2.020000e-06	8.241202e-07	-6.923577e-10	5.844616e+00	-4.741259e+01
2.030000e-06	8.694545e-07	-6.630573e-10	6.166125e+00	-4.552487e+01
2.040000e-06	9.147227e-07	-6.395982e-10	6.487164e+00	-4.359872e+01
2.050000e-06	9.598647e-07	-6.181971e-10	6.807309e+00	-4.163299e+01
2.060000e-06	1.004891e-06	-5.933011e-10	7.126633e+00	-3.962634e+01
2.070000e-06	1.049825e-06	-5.619205e-10	7.445305e+00	-3.757734e+01
2.080000e-06	1.094708e-06	-5.268132e-10	7.763608e+00	-3.548454e+01
2.090000e-06	1.139535e-06	-4.908546e-10	8.081520e+00	-3.334654e+01
2.100000e-06	1.184253e-06	-4.524466e-10	8.398655e+00	-3.116207e+01
2.110000e-06	1.228843e-06	-4.120313e-10	8.714889e+00	-2.893003e+01
2.120000e-06	1.273296e-06	-3.724650e-10	9.030144e+00	-2.664964e+01
2.130000e-06	1.317698e-06	-3.380498e-10	9.345041e+00	-2.432039e+01
2.140000e-06	1.362056e-06	-3.087140e-10	9.659630e+00	-2.194215e+01
2.150000e-06	1.406309e-06	-2.796040e-10	9.973469e+00	-1.951520e+01
2.160000e-06	1.450526e-06	-2.496536e-10	1.028705e+01	-1.704017e+01
2.170000e-06	1.494715e-06	-2.154476e-10	1.060044e+01	-1.451814e+01
2.180000e-06	1.538841e-06	-1.782259e-10	1.091338e+01	-1.195051e+01
2.190000e-06	1.582909e-06	-1.365956e-10	1.122590e+01	-9.339062e+00
2.200000e-06	1.626948e-06	-8.942440e-11	1.153823e+01	-6.685856e+00
2.210000e-06	1.670933e-06	-4.024958e-11	1.185017e+01	-3.993213e+00
2.220000e-06	1.714828e-06	4.933156e-12	1.216147e+01	-1.263654e+00
2.230000e-06	1.758662e-06	4.251017e-11	1.247234e+01	1.500150e+00
2.240000e-06	1.802444e-06	7.613016e-11	1.278283e+01	4.295428e+00
2.250000e-06	1.846181e-06	1.084776e-10	1.309302e+01	7.119352e+00
2.260000e-06	1.889760e-06	1.444206e-10	1.340207e+01	9.969068e+00
2.270000e-06	1.933119e-06	1.875120e-10	1.370958e+01	1.284172e+01
2.280000e-06	1.976398e-06	2.376260e-10	1.401651e+01	1.573448e+01
2.290000e-06	2.019543e-06	2.939220e-10	1.432249e+01	1.864451e+01
2.300000e-06	2.062498e-06	3.475011e-10	1.462712e+01	2.156900e+01
2.310000e-06	2.105158e-06	3.910380e-10	1.492967e+01	2.450512e+01
2.320000e-06	2.147525e-06	4.269602e-10	1.523013e+01	2.745001e+01
2.330000e-06	2.189713e-06	4.582092e-10	1.552933e+01	3.040072e+01
2.340000e-06	2.231580e-06	4.887618e-10	1.582624e+01	3.335424e+01
2.350000e-06	2.272999e-06	5.251965e-10	1.611999e+01	3.630739e+01
2.360000e-06	2.314068e-06	5.720693e-10	1.641124e+01	3.925687e+01
2.370000e-06	2.354948e-06	6.266747e-10	1.670117e+01	4.219919e+01
2.380000e-06	2.395648e-06	6.815184e-10	1.698981e+01	4.513068e+01
2.390000e-06	2.436067e-06	7.289647e-10	1.727646e+01	4.804748e+01
2.400000e-06	2.476338e-06	7.661072e-10	1.756206e+01	5.094557e+01
2.410000e-06	2.516542e-06	7.977315e-10	1.784718e+01	5.382078e+01
2.420000e-06	2.556613e-06	8.333520e-10	1.813136e+01	5.666883e+01
2.430000e-06	2.596618e-06	8.741504e-10	1.841508e+01	5.948541e+01
2.440000e-06	2.636546e-06	9.170393e-10	1.869825e+01	6.226618e+01
2.450000e-06	2.676383e-06	9.614299e-10	1.898077e+01	6.500689e+01
2.460000e-06	2.716099e-06	1.009544e-09	1.926243e+01	6.770342e+01
2.470000e-06	2.755636e-06	1.054172e-09	1.954282e+01	7.035187e+01
2.480000e-06	2.794996e-06	1.089001e-09	1.982196e+01	7.294860e+01
2.490000e-06	2.834087e-06	1.117509e-09	2.009919e+01	7.549034e+01
2.500000e-06	2.872946e-06	1.149102e-09	2.037478e+01	7.797419e+01
2.510000e-06	2.911611e-06	1.185941e-09	2.064899e+01	8.039771e+01
2.520000e-06	2.950061e-06	1.225619e-09	2.092167e+01	8.275893e+01
2.530000e-06	2.988316e-06	1.265546e-09	2.119298e+01	8.505638e+01
2.540000e-06	3.026388e-06	1.303259e-09	2.146298e+01	8.728905e+01
2.550000e-06	3.064281e-06	1.335874e-09	2.173172e+01	8.945645e+01
2.560000e-06	3.101914e-06	1.361710e-09	2.199861e+01	9.155854e+01
2.570000e-06	3.139280e-06	1.384105e-09	2.226361e+01	9.359567e+01
2.580000e-06	3.176414e-06	1.408977e-09	2.252696e+01	9.556860e+01
2.590000e-06	3.213330e-06	1.440459e-09	2.278877e+01	9.747836e+01
2.600000e-06	3.249982e-06	1.475610e-09	2.304870e+01	9.932627e+01
2.610000e-06	3.286481e-06	1.510079e-09	2.330754e+01	1.011138e+02
2.620000e-06	3.322845e-06	1.541330e-09	2.356544e+01	1.028426e+02
2.630000e-06	3.359004e-06	1.567435e-09	2.382188e+01	1.045143e+02
2.640000e-06	3.395035e-06	1.587229e-09	2.407741e+01	1.061305e+02
2.650000e-06	3.430953e-06	1.603554e-09	2.433213e+01	1.076930e+02
2.660000e-06	3.466748e-06	1.618536e-09	2.458599e+01	1.092033e+02
2.670000e-06	3.502422e-06	1.636983e-09	2.483899e+01	1.106628e+02
2.680000e-06	3.537875e-06	1.659464e-09	2.509042e+01	1.120729e+02
2.690000e-06	3.572953e-06	1.683522e-09	2.533919e+01	1.134347e+02
2.700000e-06	3.607530e-06	1.709560e-09	2.558441e+01	1.147494e+02
2.710000e-06	3.641600e-06	1.735611e-09	2.582603e+01	1.160179e+02
2.720000e-06	3.675340e-06	1.755691e-09	2.606531e+01	1.172410e+02
2.730000e-06	3.708705e-06	1.771085e-09	2.630194e+01	1.184196e+02
2.740000e-06	3.741557e-06	1.784547e-09	2.653492e+01	1.195544e+02
2.750000e-06	3.774023e-06	1.796289e-09	2.676517e+01	1.206461e+02
2.760000e-06	3.806245e-06	1.808041e-09	2.699368e+01	1.216954e+02
2.770000e-06	3.838361e-06	1.823661e-09	2.722145e+01	1.227030e+02
2.780000e-06	3.870363e-06	1.844623e-09	2.744840e+01	1.236699e+02
2.790000e-06	3.902154e-06	1.866139e-09	2.767387e+01	1.245968e+02
2.800000e-06	3.933781e-06	1.881777e-09	2.789816e+01	1.254847e+02
2.810000e-06	3.965194e-06	1.890734e-09	2.812094e+01	1.263347e+02
2.820000e-06	3.996257e-06	1.899090e-09	2.834124e+01	1.271479e+02
2.830000e-06	4.027017e-06	1.910352e-09	2.855938e+01	1.279256e+02
2.840000e-06	4.057506e-06	1.921340e-09	2.877562e+01	1.286690e+02
2.850000e-06	4.087733e-06	1.932769e-09	2.898998e+01	1.293795e+02
2.860000e-06	4.117744e-06	1.946016e-09	2.920282e+01	1.300585e+02
2.870000e-06	4.147457e-06	1.960357e-09	2.941354e+01	1.307075e+02
2.880000e-06	4.176854e-06	1.971991e-09	2.962203e+01	1.313280e+02
2.890000e-06	4.205947e-06	1.977653e-09	2.982835e+01	1.319214e+02
2.900000e-06	4.234783e-06	1.982965e-09	3.003285e+01	1.324891e+02
