# Temperatura_=_-3.7
# Concentracion g/m^3_=_4090.0
# C_Vs_to_Am_M_A/Vsm_=_65563218390.804596
# pendiente_HvsI_1/m_=_3716.3
# ordenada_HvsI_A/m_=_1297.0
# frecuencia_Hz_=_135072.93181587424

Tiempo_(s)	Campo_(V.s)	Magnetizacion_(V.s)	Campo_(kA/m)	Magnetizacion_(A/m)
0.000000e+00	-5.419157e-06	-1.452706e-09	-3.840189e+01	-9.847976e+01
1.000000e-08	-5.419270e-06	-1.448986e-09	-3.840270e+01	-9.835448e+01
2.000000e-08	-5.419178e-06	-1.445627e-09	-3.840204e+01	-9.820958e+01
3.000000e-08	-5.418832e-06	-1.441083e-09	-3.839959e+01	-9.804624e+01
4.000000e-08	-5.418129e-06	-1.437865e-09	-3.839461e+01	-9.786650e+01
5.000000e-08	-5.416928e-06	-1.438508e-09	-3.838610e+01	-9.767324e+01
6.000000e-08	-5.415193e-06	-1.444785e-09	-3.837380e+01	-9.747016e+01
7.000000e-08	-5.412852e-06	-1.471130e-09	-3.835721e+01	-9.726164e+01
8.000000e-08	-5.409888e-06	-1.463103e-09	-3.833621e+01	-9.705266e+01
9.000000e-08	-5.406276e-06	-1.384476e-09	-3.831062e+01	-9.684860e+01
1.000000e-07	-5.402166e-06	-1.358243e-09	-3.828149e+01	-9.665506e+01
1.100000e-07	-5.397825e-06	-1.481789e-09	-3.825073e+01	-9.647764e+01
1.200000e-07	-5.393302e-06	-1.499375e-09	-3.821867e+01	-9.632174e+01
1.300000e-07	-5.388520e-06	-1.411878e-09	-3.818479e+01	-9.619232e+01
1.400000e-07	-5.383380e-06	-1.349112e-09	-3.814836e+01	-9.609370e+01
1.500000e-07	-5.377899e-06	-1.494826e-09	-3.810953e+01	-9.602936e+01
1.600000e-07	-5.372041e-06	-1.532226e-09	-3.806802e+01	-9.600177e+01
1.700000e-07	-5.365808e-06	-1.392170e-09	-3.802385e+01	-9.601228e+01
1.800000e-07	-5.359132e-06	-1.332326e-09	-3.797654e+01	-9.606105e+01
1.900000e-07	-5.352000e-06	-1.458453e-09	-3.792600e+01	-9.614695e+01
2.000000e-07	-5.344563e-06	-1.517800e-09	-3.787330e+01	-9.626767e+01
2.100000e-07	-5.336981e-06	-1.427933e-09	-3.781957e+01	-9.641970e+01
2.200000e-07	-5.329127e-06	-1.459266e-09	-3.776391e+01	-9.659849e+01
2.300000e-07	-5.320968e-06	-1.554463e-09	-3.770609e+01	-9.679862e+01
2.400000e-07	-5.312525e-06	-1.541677e-09	-3.764627e+01	-9.701392e+01
2.500000e-07	-5.303550e-06	-1.467890e-09	-3.758266e+01	-9.723780e+01
2.600000e-07	-5.293916e-06	-1.558087e-09	-3.751439e+01	-9.746338e+01
2.700000e-07	-5.283560e-06	-1.600896e-09	-3.744101e+01	-9.768383e+01
2.800000e-07	-5.272591e-06	-1.517152e-09	-3.736328e+01	-9.789256e+01
2.900000e-07	-5.261236e-06	-1.489437e-09	-3.728282e+01	-9.808344e+01
3.000000e-07	-5.249533e-06	-1.593497e-09	-3.719988e+01	-9.825107e+01
3.100000e-07	-5.237403e-06	-1.557978e-09	-3.711393e+01	-9.839089e+01
3.200000e-07	-5.224907e-06	-1.479205e-09	-3.702537e+01	-9.849934e+01
3.300000e-07	-5.212066e-06	-1.509340e-09	-3.693438e+01	-9.857396e+01
3.400000e-07	-5.198854e-06	-1.571026e-09	-3.684076e+01	-9.861338e+01
3.500000e-07	-5.185231e-06	-1.522451e-09	-3.674422e+01	-9.861738e+01
3.600000e-07	-5.171242e-06	-1.536891e-09	-3.664509e+01	-9.858676e+01
3.700000e-07	-5.156865e-06	-1.560633e-09	-3.654321e+01	-9.852331e+01
3.800000e-07	-5.141905e-06	-1.522305e-09	-3.643719e+01	-9.842959e+01
3.900000e-07	-5.126355e-06	-1.496088e-09	-3.632701e+01	-9.830886e+01
4.000000e-07	-5.110212e-06	-1.540620e-09	-3.621261e+01	-9.816479e+01
4.100000e-07	-5.093566e-06	-1.519021e-09	-3.609465e+01	-9.800136e+01
4.200000e-07	-5.076637e-06	-1.476569e-09	-3.597469e+01	-9.782257e+01
4.300000e-07	-5.059407e-06	-1.523809e-09	-3.585259e+01	-9.763231e+01
4.400000e-07	-5.041875e-06	-1.558712e-09	-3.572835e+01	-9.743418e+01
4.500000e-07	-5.024056e-06	-1.520978e-09	-3.560208e+01	-9.723132e+01
4.600000e-07	-5.005843e-06	-1.499150e-09	-3.547302e+01	-9.702632e+01
4.700000e-07	-4.987225e-06	-1.518561e-09	-3.534108e+01	-9.682113e+01
4.800000e-07	-4.968248e-06	-1.503916e-09	-3.520661e+01	-9.661703e+01
4.900000e-07	-4.948939e-06	-1.493394e-09	-3.506978e+01	-9.641463e+01
5.000000e-07	-4.929318e-06	-1.480837e-09	-3.493074e+01	-9.621392e+01
5.100000e-07	-4.909422e-06	-1.478328e-09	-3.478975e+01	-9.601432e+01
5.200000e-07	-4.889339e-06	-1.491925e-09	-3.464743e+01	-9.581480e+01
5.300000e-07	-4.869058e-06	-1.514984e-09	-3.450371e+01	-9.561401e+01
5.400000e-07	-4.848516e-06	-1.484876e-09	-3.435815e+01	-9.541038e+01
5.500000e-07	-4.827636e-06	-1.471709e-09	-3.421018e+01	-9.520231e+01
5.600000e-07	-4.806355e-06	-1.481657e-09	-3.405938e+01	-9.498824e+01
5.700000e-07	-4.784707e-06	-1.483303e-09	-3.390598e+01	-9.476686e+01
5.800000e-07	-4.762804e-06	-1.456469e-09	-3.375077e+01	-9.453715e+01
5.900000e-07	-4.740662e-06	-1.448164e-09	-3.359386e+01	-9.429847e+01
6.000000e-07	-4.718129e-06	-1.444269e-09	-3.343418e+01	-9.405065e+01
6.100000e-07	-4.695167e-06	-1.461305e-09	-3.327147e+01	-9.379399e+01
6.200000e-07	-4.671866e-06	-1.463592e-09	-3.310635e+01	-9.352925e+01
6.300000e-07	-4.648288e-06	-1.447264e-09	-3.293927e+01	-9.325762e+01
6.400000e-07	-4.624526e-06	-1.436402e-09	-3.277088e+01	-9.298064e+01
6.500000e-07	-4.600607e-06	-1.454844e-09	-3.260139e+01	-9.270014e+01
6.600000e-07	-4.576443e-06	-1.451435e-09	-3.243015e+01	-9.241813e+01
6.700000e-07	-4.551962e-06	-1.429868e-09	-3.225667e+01	-9.213665e+01
6.800000e-07	-4.527072e-06	-1.418057e-09	-3.208029e+01	-9.185770e+01
6.900000e-07	-4.501752e-06	-1.424933e-09	-3.190086e+01	-9.158311e+01
7.000000e-07	-4.475894e-06	-1.427223e-09	-3.171763e+01	-9.131441e+01
7.100000e-07	-4.449461e-06	-1.418134e-09	-3.153032e+01	-9.105279e+01
7.200000e-07	-4.422555e-06	-1.407836e-09	-3.133965e+01	-9.079900e+01
7.300000e-07	-4.395234e-06	-1.411572e-09	-3.114605e+01	-9.055334e+01
7.400000e-07	-4.367554e-06	-1.422926e-09	-3.094989e+01	-9.031560e+01
7.500000e-07	-4.339602e-06	-1.414289e-09	-3.075182e+01	-9.008514e+01
7.600000e-07	-4.311519e-06	-1.398929e-09	-3.055282e+01	-8.986087e+01
7.700000e-07	-4.283251e-06	-1.395787e-09	-3.035250e+01	-8.964136e+01
7.800000e-07	-4.254717e-06	-1.401566e-09	-3.015029e+01	-8.942489e+01
7.900000e-07	-4.225872e-06	-1.393455e-09	-2.994589e+01	-8.920957e+01
8.000000e-07	-4.196721e-06	-1.383503e-09	-2.973932e+01	-8.899344e+01
8.100000e-07	-4.167302e-06	-1.376895e-09	-2.953084e+01	-8.877458e+01
8.200000e-07	-4.137597e-06	-1.382713e-09	-2.932035e+01	-8.855120e+01
8.300000e-07	-4.107669e-06	-1.381346e-09	-2.910827e+01	-8.832176e+01
8.400000e-07	-4.077518e-06	-1.372456e-09	-2.889461e+01	-8.808503e+01
8.500000e-07	-4.047091e-06	-1.361150e-09	-2.867899e+01	-8.784013e+01
8.600000e-07	-4.016323e-06	-1.366287e-09	-2.846096e+01	-8.758661e+01
8.700000e-07	-3.985245e-06	-1.370478e-09	-2.824073e+01	-8.732442e+01
8.800000e-07	-3.953961e-06	-1.367614e-09	-2.801904e+01	-8.705391e+01
8.900000e-07	-3.922493e-06	-1.355226e-09	-2.779605e+01	-8.677580e+01
9.000000e-07	-3.890855e-06	-1.351466e-09	-2.757185e+01	-8.649110e+01
9.100000e-07	-3.858977e-06	-1.348480e-09	-2.734596e+01	-8.620107e+01
9.200000e-07	-3.826847e-06	-1.344074e-09	-2.711828e+01	-8.590709e+01
9.300000e-07	-3.794534e-06	-1.336174e-09	-2.688929e+01	-8.561059e+01
9.400000e-07	-3.762044e-06	-1.339264e-09	-2.665906e+01	-8.531295e+01
9.500000e-07	-3.729231e-06	-1.347293e-09	-2.642654e+01	-8.501542e+01
9.600000e-07	-3.696021e-06	-1.348409e-09	-2.619119e+01	-8.471901e+01
9.700000e-07	-3.662514e-06	-1.334860e-09	-2.595376e+01	-8.442447e+01
9.800000e-07	-3.628540e-06	-1.320238e-09	-2.571301e+01	-8.413221e+01
9.900000e-07	-3.593960e-06	-1.310262e-09	-2.546796e+01	-8.384226e+01
1.000000e-06	-3.558969e-06	-1.303888e-09	-2.522000e+01	-8.355433e+01
1.010000e-06	-3.523747e-06	-1.297936e-09	-2.497041e+01	-8.326776e+01
1.020000e-06	-3.488292e-06	-1.296957e-09	-2.471916e+01	-8.298159e+01
1.030000e-06	-3.452587e-06	-1.302699e-09	-2.446615e+01	-8.269464e+01
1.040000e-06	-3.416745e-06	-1.306808e-09	-2.421216e+01	-8.240552e+01
1.050000e-06	-3.380751e-06	-1.299765e-09	-2.395709e+01	-8.211279e+01
1.060000e-06	-3.344603e-06	-1.283025e-09	-2.370094e+01	-8.181498e+01
1.070000e-06	-3.308266e-06	-1.268852e-09	-2.344344e+01	-8.151070e+01
1.080000e-06	-3.271752e-06	-1.256849e-09	-2.318469e+01	-8.119874e+01
1.090000e-06	-3.234987e-06	-1.251577e-09	-2.292416e+01	-8.087812e+01
1.100000e-06	-3.197859e-06	-1.251966e-09	-2.266106e+01	-8.054814e+01
1.110000e-06	-3.160514e-06	-1.256506e-09	-2.239642e+01	-8.020841e+01
1.120000e-06	-3.123051e-06	-1.256775e-09	-2.213095e+01	-7.985892e+01
1.130000e-06	-3.085419e-06	-1.253371e-09	-2.186428e+01	-7.949995e+01
1.140000e-06	-3.047510e-06	-1.244561e-09	-2.159564e+01	-7.913215e+01
1.150000e-06	-3.009385e-06	-1.234782e-09	-2.132548e+01	-7.875639e+01
1.160000e-06	-2.971133e-06	-1.220760e-09	-2.105441e+01	-7.837380e+01
1.170000e-06	-2.932693e-06	-1.210226e-09	-2.078201e+01	-7.798563e+01
1.180000e-06	-2.894015e-06	-1.202081e-09	-2.050792e+01	-7.759320e+01
1.190000e-06	-2.855145e-06	-1.197976e-09	-2.023248e+01	-7.719782e+01
1.200000e-06	-2.816013e-06	-1.193905e-09	-1.995518e+01	-7.680073e+01
1.210000e-06	-2.776554e-06	-1.190945e-09	-1.967556e+01	-7.640297e+01
1.220000e-06	-2.736939e-06	-1.187182e-09	-1.939483e+01	-7.600537e+01
1.230000e-06	-2.697183e-06	-1.183016e-09	-1.911311e+01	-7.560850e+01
1.240000e-06	-2.657301e-06	-1.175448e-09	-1.883049e+01	-7.521261e+01
1.250000e-06	-2.617348e-06	-1.165615e-09	-1.854737e+01	-7.481764e+01
1.260000e-06	-2.577286e-06	-1.155847e-09	-1.826348e+01	-7.442324e+01
1.270000e-06	-2.537165e-06	-1.146772e-09	-1.797917e+01	-7.402875e+01
1.280000e-06	-2.497004e-06	-1.139342e-09	-1.769458e+01	-7.363330e+01
1.290000e-06	-2.456644e-06	-1.136402e-09	-1.740857e+01	-7.323582e+01
1.300000e-06	-2.416100e-06	-1.134103e-09	-1.712127e+01	-7.283514e+01
1.310000e-06	-2.375354e-06	-1.128545e-09	-1.683253e+01	-7.243004e+01
1.320000e-06	-2.334262e-06	-1.122935e-09	-1.654134e+01	-7.201933e+01
1.330000e-06	-2.292904e-06	-1.116839e-09	-1.624826e+01	-7.160192e+01
1.340000e-06	-2.251277e-06	-1.109034e-09	-1.595327e+01	-7.117690e+01
1.350000e-06	-2.209473e-06	-1.099535e-09	-1.565704e+01	-7.074357e+01
1.360000e-06	-2.167528e-06	-1.090142e-09	-1.535980e+01	-7.030148e+01
1.370000e-06	-2.125342e-06	-1.081719e-09	-1.506086e+01	-6.985046e+01
1.380000e-06	-2.082793e-06	-1.074319e-09	-1.475935e+01	-6.939062e+01
1.390000e-06	-2.039909e-06	-1.069329e-09	-1.445546e+01	-6.892234e+01
1.400000e-06	-1.996903e-06	-1.068033e-09	-1.415070e+01	-6.844623e+01
1.410000e-06	-1.953740e-06	-1.064985e-09	-1.384483e+01	-6.796310e+01
1.420000e-06	-1.910359e-06	-1.059634e-09	-1.353742e+01	-6.747388e+01
1.430000e-06	-1.866841e-06	-1.050772e-09	-1.322904e+01	-6.697958e+01
1.440000e-06	-1.823253e-06	-1.039335e-09	-1.292016e+01	-6.648119e+01
1.450000e-06	-1.779569e-06	-1.028808e-09	-1.261060e+01	-6.597966e+01
1.460000e-06	-1.735706e-06	-1.020973e-09	-1.229977e+01	-6.547579e+01
1.470000e-06	-1.691734e-06	-1.015299e-09	-1.198817e+01	-6.497017e+01
1.480000e-06	-1.647721e-06	-1.011782e-09	-1.167628e+01	-6.446319e+01
1.490000e-06	-1.603598e-06	-1.009916e-09	-1.136361e+01	-6.395496e+01
1.500000e-06	-1.559432e-06	-1.007684e-09	-1.105064e+01	-6.344531e+01
1.510000e-06	-1.515241e-06	-1.002428e-09	-1.073749e+01	-6.293381e+01
1.520000e-06	-1.470942e-06	-9.936032e-10	-1.042357e+01	-6.241976e+01
1.530000e-06	-1.426581e-06	-9.808974e-10	-1.010921e+01	-6.190225e+01
1.540000e-06	-1.382199e-06	-9.689160e-10	-9.794710e+00	-6.138021e+01
1.550000e-06	-1.337746e-06	-9.592634e-10	-9.479703e+00	-6.085244e+01
1.560000e-06	-1.293219e-06	-9.505492e-10	-9.164166e+00	-6.031770e+01
1.570000e-06	-1.248603e-06	-9.434878e-10	-8.848001e+00	-5.977478e+01
1.580000e-06	-1.203872e-06	-9.403872e-10	-8.531023e+00	-5.922254e+01
1.590000e-06	-1.159070e-06	-9.372799e-10	-8.213544e+00	-5.865999e+01
1.600000e-06	-1.114257e-06	-9.307707e-10	-7.895983e+00	-5.808632e+01
1.610000e-06	-1.069328e-06	-9.179519e-10	-7.577603e+00	-5.750096e+01
1.620000e-06	-1.024250e-06	-9.029779e-10	-7.258166e+00	-5.690359e+01
1.630000e-06	-9.790484e-07	-8.892837e-10	-6.937853e+00	-5.629414e+01
1.640000e-06	-9.337240e-07	-8.767907e-10	-6.616669e+00	-5.567278e+01
1.650000e-06	-8.883875e-07	-8.640936e-10	-6.295400e+00	-5.503991e+01
1.660000e-06	-8.430022e-07	-8.525668e-10	-5.973786e+00	-5.439609e+01
1.670000e-06	-7.975130e-07	-8.453800e-10	-5.651434e+00	-5.374203e+01
1.680000e-06	-7.519438e-07	-8.404479e-10	-5.328516e+00	-5.307848e+01
1.690000e-06	-7.063480e-07	-8.339428e-10	-5.005410e+00	-5.240621e+01
1.700000e-06	-6.607379e-07	-8.232204e-10	-4.682202e+00	-5.172591e+01
1.710000e-06	-6.150987e-07	-8.095739e-10	-4.358788e+00	-5.103815e+01
1.720000e-06	-5.694646e-07	-7.955288e-10	-4.035410e+00	-5.034332e+01
1.730000e-06	-5.237801e-07	-7.822633e-10	-3.711675e+00	-4.964157e+01
1.740000e-06	-4.779943e-07	-7.677811e-10	-3.387222e+00	-4.893282e+01
1.750000e-06	-4.321253e-07	-7.551285e-10	-3.062179e+00	-4.821669e+01
1.760000e-06	-3.861824e-07	-7.462879e-10	-2.736613e+00	-4.749254e+01
1.770000e-06	-3.402669e-07	-7.390577e-10	-2.411241e+00	-4.675947e+01
1.780000e-06	-2.944075e-07	-7.279404e-10	-2.086266e+00	-4.601636e+01
1.790000e-06	-2.484825e-07	-7.143009e-10	-1.760827e+00	-4.526193e+01
1.800000e-06	-2.024837e-07	-7.003947e-10	-1.434865e+00	-4.449475e+01
1.810000e-06	-1.565483e-07	-6.877964e-10	-1.109351e+00	-4.371336e+01
1.820000e-06	-1.106603e-07	-6.727561e-10	-7.841745e-01	-4.291629e+01
1.830000e-06	-6.482346e-08	-6.549430e-10	-4.593599e-01	-4.210217e+01
1.840000e-06	-1.900365e-08	-6.387396e-10	-1.346660e-01	-4.126976e+01
1.850000e-06	2.688476e-08	-6.263971e-10	1.905141e-01	-4.041803e+01
1.860000e-06	7.278521e-08	-6.158461e-10	5.157795e-01	-3.954618e+01
1.870000e-06	1.186855e-07	-6.056123e-10	8.410436e-01	-3.865370e+01
1.880000e-06	1.646561e-07	-5.959829e-10	1.166806e+00	-3.774037e+01
1.890000e-06	2.106487e-07	-5.855564e-10	1.492724e+00	-3.680624e+01
1.900000e-06	2.565588e-07	-5.702834e-10	1.818059e+00	-3.585166e+01
1.910000e-06	3.024147e-07	-5.482589e-10	2.143008e+00	-3.487722e+01
1.920000e-06	3.482460e-07	-5.241757e-10	2.467783e+00	-3.388371e+01
1.930000e-06	3.940418e-07	-5.036194e-10	2.792307e+00	-3.287206e+01
1.940000e-06	4.398275e-07	-4.865627e-10	3.116759e+00	-3.184330e+01
1.950000e-06	4.856674e-07	-4.719511e-10	3.441596e+00	-3.079847e+01
1.960000e-06	5.314942e-07	-4.606902e-10	3.766339e+00	-2.973859e+01
1.970000e-06	5.772050e-07	-4.520088e-10	4.090261e+00	-2.866458e+01
1.980000e-06	6.228723e-07	-4.409699e-10	4.413874e+00	-2.757720e+01
1.990000e-06	6.685263e-07	-4.233624e-10	4.737393e+00	-2.647704e+01
2.000000e-06	7.141175e-07	-4.001855e-10	5.060467e+00	-2.536447e+01
2.010000e-06	7.595947e-07	-3.765496e-10	5.382733e+00	-2.423962e+01
2.020000e-06	8.049495e-07	-3.558889e-10	5.704132e+00	-2.310241e+01
2.030000e-06	8.503211e-07	-3.366534e-10	6.025650e+00	-2.195254e+01
2.040000e-06	8.957597e-07	-3.191570e-10	6.347642e+00	-2.078955e+01
2.050000e-06	9.410696e-07	-3.052716e-10	6.668723e+00	-1.961282e+01
2.060000e-06	9.862330e-07	-2.935118e-10	6.988765e+00	-1.842164e+01
2.070000e-06	1.031347e-06	-2.785642e-10	7.308456e+00	-1.721528e+01
2.080000e-06	1.076398e-06	-2.587490e-10	7.627706e+00	-1.599302e+01
2.090000e-06	1.121345e-06	-2.357372e-10	7.946209e+00	-1.475422e+01
2.100000e-06	1.166122e-06	-2.128681e-10	8.263514e+00	-1.349837e+01
2.110000e-06	1.210803e-06	-1.899015e-10	8.580141e+00	-1.222512e+01
2.120000e-06	1.255459e-06	-1.678310e-10	8.896588e+00	-1.093435e+01
2.130000e-06	1.300053e-06	-1.484186e-10	9.212597e+00	-9.626133e+00
2.140000e-06	1.344602e-06	-1.328525e-10	9.528287e+00	-8.300795e+00
2.150000e-06	1.389036e-06	-1.186046e-10	9.843155e+00	-6.958879e+00
2.160000e-06	1.433327e-06	-1.012704e-10	1.015702e+01	-5.601138e+00
2.170000e-06	1.477581e-06	-7.970331e-11	1.047062e+01	-4.228501e+00
2.180000e-06	1.521776e-06	-5.683443e-11	1.078379e+01	-2.842038e+00
2.190000e-06	1.565933e-06	-3.444249e-11	1.109671e+01	-1.442909e+00
2.200000e-06	1.610065e-06	-1.209970e-11	1.140944e+01	-3.232158e-02
2.210000e-06	1.654132e-06	1.003026e-11	1.172171e+01	1.388526e+00
2.220000e-06	1.698105e-06	3.121976e-11	1.203332e+01	2.818484e+00
2.230000e-06	1.742026e-06	5.199048e-11	1.234456e+01	4.256499e+00
2.240000e-06	1.785887e-06	7.495273e-11	1.265537e+01	5.701640e+00
2.250000e-06	1.829667e-06	1.003263e-10	1.296561e+01	7.153125e+00
2.260000e-06	1.873363e-06	1.256067e-10	1.327526e+01	8.610330e+00
2.270000e-06	1.916883e-06	1.484730e-10	1.358365e+01	1.007279e+01
2.280000e-06	1.960318e-06	1.701645e-10	1.389144e+01	1.154017e+01
2.290000e-06	2.003644e-06	1.927674e-10	1.419847e+01	1.301227e+01
2.300000e-06	2.046662e-06	2.172564e-10	1.450331e+01	1.448896e+01
2.310000e-06	2.089333e-06	2.416346e-10	1.480569e+01	1.597016e+01
2.320000e-06	2.131713e-06	2.662075e-10	1.510601e+01	1.745579e+01
2.330000e-06	2.173804e-06	2.923732e-10	1.540427e+01	1.894570e+01
2.340000e-06	2.215615e-06	3.150086e-10	1.570056e+01	2.043967e+01
2.350000e-06	2.257125e-06	3.335046e-10	1.599472e+01	2.193734e+01
2.360000e-06	2.298256e-06	3.516560e-10	1.628619e+01	2.343817e+01
2.370000e-06	2.339098e-06	3.732648e-10	1.657560e+01	2.494144e+01
2.380000e-06	2.379786e-06	3.994915e-10	1.686393e+01	2.644623e+01
2.390000e-06	2.420314e-06	4.277648e-10	1.715113e+01	2.795143e+01
2.400000e-06	2.460639e-06	4.543486e-10	1.743688e+01	2.945574e+01
2.410000e-06	2.500892e-06	4.777012e-10	1.772213e+01	3.095768e+01
2.420000e-06	2.541092e-06	5.002380e-10	1.800700e+01	3.245566e+01
2.430000e-06	2.581215e-06	5.226288e-10	1.829132e+01	3.394801e+01
2.440000e-06	2.621260e-06	5.440138e-10	1.857509e+01	3.543302e+01
2.450000e-06	2.661188e-06	5.638558e-10	1.885804e+01	3.690901e+01
2.460000e-06	2.701033e-06	5.858465e-10	1.914039e+01	3.837434e+01
2.470000e-06	2.740699e-06	6.125307e-10	1.942148e+01	3.982752e+01
2.480000e-06	2.780185e-06	6.394786e-10	1.970129e+01	4.126722e+01
2.490000e-06	2.819495e-06	6.626657e-10	1.997985e+01	4.269226e+01
2.500000e-06	2.858521e-06	6.842027e-10	2.025640e+01	4.410174e+01
2.510000e-06	2.897292e-06	7.057630e-10	2.053115e+01	4.549492e+01
2.520000e-06	2.935832e-06	7.280828e-10	2.080425e+01	4.687134e+01
2.530000e-06	2.974153e-06	7.503447e-10	2.107581e+01	4.823072e+01
2.540000e-06	3.012317e-06	7.721286e-10	2.134625e+01	4.957297e+01
2.550000e-06	3.050292e-06	7.935482e-10	2.161535e+01	5.089814e+01
2.560000e-06	3.088040e-06	8.139863e-10	2.188285e+01	5.220642e+01
2.570000e-06	3.125554e-06	8.332473e-10	2.214868e+01	5.349801e+01
2.580000e-06	3.162839e-06	8.510602e-10	2.241290e+01	5.477317e+01
2.590000e-06	3.199901e-06	8.679892e-10	2.267553e+01	5.603208e+01
2.600000e-06	3.236691e-06	8.878985e-10	2.293624e+01	5.727487e+01
2.610000e-06	3.273268e-06	9.101258e-10	2.319543e+01	5.850153e+01
2.620000e-06	3.309713e-06	9.297953e-10	2.345369e+01	5.971191e+01
2.630000e-06	3.346004e-06	9.473267e-10	2.371086e+01	6.090569e+01
2.640000e-06	3.382130e-06	9.636486e-10	2.396686e+01	6.208240e+01
2.650000e-06	3.418131e-06	9.792701e-10	2.422198e+01	6.324138e+01
2.660000e-06	3.454047e-06	9.926435e-10	2.447649e+01	6.438184e+01
2.670000e-06	3.489713e-06	1.003126e-09	2.472923e+01	6.550288e+01
2.680000e-06	3.525102e-06	1.015016e-09	2.498001e+01	6.660351e+01
2.690000e-06	3.560389e-06	1.032115e-09	2.523007e+01	6.768270e+01
2.700000e-06	3.595417e-06	1.052435e-09	2.547828e+01	6.873944e+01
2.710000e-06	3.629922e-06	1.072862e-09	2.572280e+01	6.977277e+01
2.720000e-06	3.663870e-06	1.091053e-09	2.596336e+01	7.078183e+01
2.730000e-06	3.697244e-06	1.105854e-09	2.619986e+01	7.176593e+01
2.740000e-06	3.730216e-06	1.116144e-09	2.643351e+01	7.272452e+01
2.750000e-06	3.762978e-06	1.122925e-09	2.666568e+01	7.365726e+01
2.760000e-06	3.795480e-06	1.129899e-09	2.689600e+01	7.456403e+01
2.770000e-06	3.827733e-06	1.141359e-09	2.712455e+01	7.544490e+01
2.780000e-06	3.859821e-06	1.158784e-09	2.735194e+01	7.630016e+01
2.790000e-06	3.891805e-06	1.177383e-09	2.757858e+01	7.713028e+01
2.800000e-06	3.923618e-06	1.191408e-09	2.780403e+01	7.793585e+01
2.810000e-06	3.955121e-06	1.201400e-09	2.802726e+01	7.871761e+01
2.820000e-06	3.986303e-06	1.210234e-09	2.824823e+01	7.947634e+01
2.830000e-06	4.017197e-06	1.218254e-09	2.846716e+01	8.021286e+01
2.840000e-06	4.047773e-06	1.222687e-09	2.868382e+01	8.092798e+01
2.850000e-06	4.078050e-06	1.227976e-09	2.889838e+01	8.162243e+01
2.860000e-06	4.108065e-06	1.238400e-09	2.911108e+01	8.229688e+01
2.870000e-06	4.137799e-06	1.249703e-09	2.932178e+01	8.295187e+01
2.880000e-06	4.167241e-06	1.259541e-09	2.953042e+01	8.358780e+01
2.890000e-06	4.196512e-06	1.268008e-09	2.973784e+01	8.420496e+01
2.900000e-06	4.225547e-06	1.278592e-09	2.994359e+01	8.480348e+01
