# Temperatura_=_6.67
# Concentracion g/m^3_=_4090.0
# C_Vs_to_Am_M_A/Vsm_=_65563218390.804596
# pendiente_HvsI_1/m_=_3716.3
# ordenada_HvsI_A/m_=_1297.0
# frecuencia_Hz_=_135084.76323942182

Tiempo_(s)	Campo_(V.s)	Magnetizacion_(V.s)	Campo_(kA/m)	Magnetizacion_(A/m)
0.000000e+00	-5.421707e-06	-1.281264e-09	-3.838679e+01	-8.700068e+01
1.000000e-08	-5.421883e-06	-1.275825e-09	-3.838803e+01	-8.690741e+01
2.000000e-08	-5.421919e-06	-1.273560e-09	-3.838829e+01	-8.680230e+01
3.000000e-08	-5.421792e-06	-1.274127e-09	-3.838739e+01	-8.668408e+01
4.000000e-08	-5.421296e-06	-1.276886e-09	-3.838387e+01	-8.655215e+01
5.000000e-08	-5.420261e-06	-1.277688e-09	-3.837655e+01	-8.640669e+01
6.000000e-08	-5.418705e-06	-1.276794e-09	-3.836553e+01	-8.624872e+01
7.000000e-08	-5.416498e-06	-1.283050e-09	-3.834990e+01	-8.608012e+01
8.000000e-08	-5.413503e-06	-1.296186e-09	-3.832870e+01	-8.590363e+01
9.000000e-08	-5.409883e-06	-1.274699e-09	-3.830307e+01	-8.572274e+01
1.000000e-07	-5.405803e-06	-1.235920e-09	-3.827418e+01	-8.554163e+01
1.100000e-07	-5.401460e-06	-1.283801e-09	-3.824344e+01	-8.536500e+01
1.200000e-07	-5.397057e-06	-1.332244e-09	-3.821226e+01	-8.519791e+01
1.300000e-07	-5.392528e-06	-1.289780e-09	-3.818020e+01	-8.504554e+01
1.400000e-07	-5.387597e-06	-1.210986e-09	-3.814528e+01	-8.491301e+01
1.500000e-07	-5.382226e-06	-1.266945e-09	-3.810725e+01	-8.480510e+01
1.600000e-07	-5.376570e-06	-1.373998e-09	-3.806721e+01	-8.472609e+01
1.700000e-07	-5.370571e-06	-1.298541e-09	-3.802473e+01	-8.467947e+01
1.800000e-07	-5.364102e-06	-1.188850e-09	-3.797893e+01	-8.466785e+01
1.900000e-07	-5.357220e-06	-1.222301e-09	-3.793020e+01	-8.469272e+01
2.000000e-07	-5.350080e-06	-1.353996e-09	-3.787965e+01	-8.475440e+01
2.100000e-07	-5.342658e-06	-1.294155e-09	-3.782710e+01	-8.485196e+01
2.200000e-07	-5.334915e-06	-1.241325e-09	-3.777228e+01	-8.498324e+01
2.300000e-07	-5.326909e-06	-1.301768e-09	-3.771560e+01	-8.514485e+01
2.400000e-07	-5.318610e-06	-1.374636e-09	-3.765684e+01	-8.533233e+01
2.500000e-07	-5.309804e-06	-1.300927e-09	-3.759449e+01	-8.554026e+01
2.600000e-07	-5.300273e-06	-1.298731e-09	-3.752701e+01	-8.576244e+01
2.700000e-07	-5.290025e-06	-1.378486e-09	-3.745445e+01	-8.599216e+01
2.800000e-07	-5.279265e-06	-1.367741e-09	-3.737827e+01	-8.622243e+01
2.900000e-07	-5.268036e-06	-1.287692e-09	-3.729876e+01	-8.644622e+01
3.000000e-07	-5.256489e-06	-1.330178e-09	-3.721701e+01	-8.665672e+01
3.100000e-07	-5.244641e-06	-1.392479e-09	-3.713312e+01	-8.684764e+01
3.200000e-07	-5.232351e-06	-1.323749e-09	-3.704611e+01	-8.701337e+01
3.300000e-07	-5.219578e-06	-1.299351e-09	-3.695567e+01	-8.714922e+01
3.400000e-07	-5.206334e-06	-1.358256e-09	-3.686190e+01	-8.725157e+01
3.500000e-07	-5.192816e-06	-1.372282e-09	-3.676619e+01	-8.731793e+01
3.600000e-07	-5.179034e-06	-1.317800e-09	-3.666861e+01	-8.734706e+01
3.700000e-07	-5.164726e-06	-1.342693e-09	-3.656731e+01	-8.733893e+01
3.800000e-07	-5.149746e-06	-1.343870e-09	-3.646125e+01	-8.729466e+01
3.900000e-07	-5.134205e-06	-1.312837e-09	-3.635122e+01	-8.721646e+01
4.000000e-07	-5.118187e-06	-1.315102e-09	-3.623780e+01	-8.710742e+01
4.100000e-07	-5.101619e-06	-1.349411e-09	-3.612050e+01	-8.697141e+01
4.200000e-07	-5.084628e-06	-1.306897e-09	-3.600020e+01	-8.681282e+01
4.300000e-07	-5.067453e-06	-1.301186e-09	-3.587860e+01	-8.663634e+01
4.400000e-07	-5.050033e-06	-1.335919e-09	-3.575526e+01	-8.644676e+01
4.500000e-07	-5.032332e-06	-1.338180e-09	-3.562993e+01	-8.624874e+01
4.600000e-07	-5.014310e-06	-1.285161e-09	-3.550233e+01	-8.604660e+01
4.700000e-07	-4.995948e-06	-1.296967e-09	-3.537232e+01	-8.584415e+01
4.800000e-07	-4.977252e-06	-1.310084e-09	-3.523996e+01	-8.564455e+01
4.900000e-07	-4.958111e-06	-1.305126e-09	-3.510443e+01	-8.545021e+01
5.000000e-07	-4.938583e-06	-1.285465e-09	-3.496617e+01	-8.526270e+01
5.100000e-07	-4.918837e-06	-1.289245e-09	-3.482637e+01	-8.508280e+01
5.200000e-07	-4.898877e-06	-1.291994e-09	-3.468504e+01	-8.491046e+01
5.300000e-07	-4.878705e-06	-1.309922e-09	-3.454222e+01	-8.474488e+01
5.400000e-07	-4.858234e-06	-1.297683e-09	-3.439728e+01	-8.458467e+01
5.500000e-07	-4.837452e-06	-1.275585e-09	-3.425014e+01	-8.442792e+01
5.600000e-07	-4.816301e-06	-1.274397e-09	-3.410039e+01	-8.427235e+01
5.700000e-07	-4.794772e-06	-1.290167e-09	-3.394796e+01	-8.411554e+01
5.800000e-07	-4.772963e-06	-1.281486e-09	-3.379355e+01	-8.395503e+01
5.900000e-07	-4.750852e-06	-1.265231e-09	-3.363700e+01	-8.378848e+01
6.000000e-07	-4.728351e-06	-1.261034e-09	-3.347769e+01	-8.361387e+01
6.100000e-07	-4.705535e-06	-1.269722e-09	-3.331615e+01	-8.342956e+01
6.200000e-07	-4.682394e-06	-1.277068e-09	-3.315230e+01	-8.323442e+01
6.300000e-07	-4.658852e-06	-1.263672e-09	-3.298562e+01	-8.302786e+01
6.400000e-07	-4.635097e-06	-1.252178e-09	-3.281743e+01	-8.280990e+01
6.500000e-07	-4.611165e-06	-1.262785e-09	-3.264799e+01	-8.258113e+01
6.600000e-07	-4.587012e-06	-1.277791e-09	-3.247698e+01	-8.234267e+01
6.700000e-07	-4.562594e-06	-1.257253e-09	-3.230409e+01	-8.209613e+01
6.800000e-07	-4.537786e-06	-1.240313e-09	-3.212844e+01	-8.184348e+01
6.900000e-07	-4.512520e-06	-1.237619e-09	-3.194956e+01	-8.158697e+01
7.000000e-07	-4.486626e-06	-1.246034e-09	-3.176622e+01	-8.132898e+01
7.100000e-07	-4.460182e-06	-1.235958e-09	-3.157899e+01	-8.107192e+01
7.200000e-07	-4.433351e-06	-1.229448e-09	-3.138902e+01	-8.081809e+01
7.300000e-07	-4.406128e-06	-1.227751e-09	-3.119628e+01	-8.056956e+01
7.400000e-07	-4.378643e-06	-1.243688e-09	-3.100168e+01	-8.032810e+01
7.500000e-07	-4.350952e-06	-1.240614e-09	-3.080563e+01	-8.009506e+01
7.600000e-07	-4.323039e-06	-1.227259e-09	-3.060800e+01	-7.987138e+01
7.700000e-07	-4.294895e-06	-1.214805e-09	-3.040873e+01	-7.965748e+01
7.800000e-07	-4.266542e-06	-1.222794e-09	-3.020799e+01	-7.945334e+01
7.900000e-07	-4.237842e-06	-1.220348e-09	-3.000478e+01	-7.925848e+01
8.000000e-07	-4.208847e-06	-1.212694e-09	-2.979949e+01	-7.907201e+01
8.100000e-07	-4.179570e-06	-1.203014e-09	-2.959220e+01	-7.889272e+01
8.200000e-07	-4.149940e-06	-1.207787e-09	-2.938241e+01	-7.871914e+01
8.300000e-07	-4.120123e-06	-1.211085e-09	-2.917131e+01	-7.854963e+01
8.400000e-07	-4.090076e-06	-1.207545e-09	-2.895857e+01	-7.838249e+01
8.500000e-07	-4.059667e-06	-1.195060e-09	-2.874327e+01	-7.821606e+01
8.600000e-07	-4.028955e-06	-1.192396e-09	-2.852582e+01	-7.804876e+01
8.700000e-07	-3.997989e-06	-1.198179e-09	-2.830658e+01	-7.787920e+01
8.800000e-07	-3.966750e-06	-1.199043e-09	-2.808539e+01	-7.770625e+01
8.900000e-07	-3.935261e-06	-1.189911e-09	-2.786244e+01	-7.752903e+01
9.000000e-07	-3.903556e-06	-1.182421e-09	-2.763797e+01	-7.734696e+01
9.100000e-07	-3.871747e-06	-1.183074e-09	-2.741276e+01	-7.715978e+01
9.200000e-07	-3.839833e-06	-1.182647e-09	-2.718680e+01	-7.696747e+01
9.300000e-07	-3.807670e-06	-1.177058e-09	-2.695907e+01	-7.677028e+01
9.400000e-07	-3.775180e-06	-1.172066e-09	-2.672904e+01	-7.656864e+01
9.500000e-07	-3.742326e-06	-1.176555e-09	-2.649643e+01	-7.636311e+01
9.600000e-07	-3.709205e-06	-1.178399e-09	-2.626192e+01	-7.615434e+01
9.700000e-07	-3.675774e-06	-1.173576e-09	-2.602523e+01	-7.594296e+01
9.800000e-07	-3.641825e-06	-1.160647e-09	-2.578486e+01	-7.572957e+01
9.900000e-07	-3.607267e-06	-1.154138e-09	-2.554018e+01	-7.551467e+01
1.000000e-06	-3.572265e-06	-1.150531e-09	-2.529236e+01	-7.529860e+01
1.010000e-06	-3.537020e-06	-1.150459e-09	-2.504282e+01	-7.508154e+01
1.020000e-06	-3.501502e-06	-1.145403e-09	-2.479134e+01	-7.486349e+01
1.030000e-06	-3.465790e-06	-1.144897e-09	-2.453850e+01	-7.464425e+01
1.040000e-06	-3.430002e-06	-1.144204e-09	-2.428511e+01	-7.442348e+01
1.050000e-06	-3.394080e-06	-1.142953e-09	-2.403078e+01	-7.420069e+01
1.060000e-06	-3.357925e-06	-1.132675e-09	-2.377479e+01	-7.397530e+01
1.070000e-06	-3.321665e-06	-1.122866e-09	-2.351806e+01	-7.374669e+01
1.080000e-06	-3.285179e-06	-1.113884e-09	-2.325973e+01	-7.351424e+01
1.090000e-06	-3.248400e-06	-1.111814e-09	-2.299933e+01	-7.327740e+01
1.100000e-06	-3.211433e-06	-1.108533e-09	-2.273760e+01	-7.303571e+01
1.110000e-06	-3.174173e-06	-1.105793e-09	-2.247379e+01	-7.278889e+01
1.120000e-06	-3.136678e-06	-1.100871e-09	-2.220832e+01	-7.253680e+01
1.130000e-06	-3.098952e-06	-1.096816e-09	-2.194121e+01	-7.227955e+01
1.140000e-06	-3.060996e-06	-1.090290e-09	-2.167248e+01	-7.201741e+01
1.150000e-06	-3.022909e-06	-1.085783e-09	-2.140281e+01	-7.175089e+01
1.160000e-06	-2.984648e-06	-1.081844e-09	-2.113191e+01	-7.148064e+01
1.170000e-06	-2.946149e-06	-1.080483e-09	-2.085933e+01	-7.120747e+01
1.180000e-06	-2.907433e-06	-1.076001e-09	-2.058522e+01	-7.093230e+01
1.190000e-06	-2.868499e-06	-1.066877e-09	-2.030955e+01	-7.065606e+01
1.200000e-06	-2.829377e-06	-1.057829e-09	-2.003256e+01	-7.037971e+01
1.210000e-06	-2.790031e-06	-1.051420e-09	-1.975398e+01	-7.010412e+01
1.220000e-06	-2.750477e-06	-1.050415e-09	-1.947393e+01	-6.983003e+01
1.230000e-06	-2.710789e-06	-1.050496e-09	-1.919294e+01	-6.955804e+01
1.240000e-06	-2.671017e-06	-1.053433e-09	-1.891134e+01	-6.928851e+01
1.250000e-06	-2.631210e-06	-1.056144e-09	-1.862950e+01	-6.902161e+01
1.260000e-06	-2.591358e-06	-1.058702e-09	-1.834734e+01	-6.875722e+01
1.270000e-06	-2.551374e-06	-1.054282e-09	-1.806425e+01	-6.849502e+01
1.280000e-06	-2.511195e-06	-1.042368e-09	-1.777977e+01	-6.823445e+01
1.290000e-06	-2.470917e-06	-1.028483e-09	-1.749460e+01	-6.797475e+01
1.300000e-06	-2.430479e-06	-1.021749e-09	-1.720828e+01	-6.771500e+01
1.310000e-06	-2.389786e-06	-1.015934e-09	-1.692017e+01	-6.745419e+01
1.320000e-06	-2.348892e-06	-1.012937e-09	-1.663063e+01	-6.719126e+01
1.330000e-06	-2.307709e-06	-1.012996e-09	-1.633905e+01	-6.692515e+01
1.340000e-06	-2.266155e-06	-1.018874e-09	-1.604484e+01	-6.665486e+01
1.350000e-06	-2.224244e-06	-1.020103e-09	-1.574810e+01	-6.637951e+01
1.360000e-06	-2.182012e-06	-1.013993e-09	-1.544909e+01	-6.609838e+01
1.370000e-06	-2.139557e-06	-1.000647e-09	-1.514850e+01	-6.581093e+01
1.380000e-06	-2.096834e-06	-9.892321e-10	-1.484601e+01	-6.551684e+01
1.390000e-06	-2.053856e-06	-9.822993e-10	-1.454172e+01	-6.521599e+01
1.400000e-06	-2.010729e-06	-9.799397e-10	-1.423637e+01	-6.490849e+01
1.410000e-06	-1.967477e-06	-9.778707e-10	-1.393014e+01	-6.459462e+01
1.420000e-06	-1.924087e-06	-9.775917e-10	-1.362293e+01	-6.427482e+01
1.430000e-06	-1.880548e-06	-9.798614e-10	-1.331466e+01	-6.394962e+01
1.440000e-06	-1.836939e-06	-9.798749e-10	-1.300590e+01	-6.361964e+01
1.450000e-06	-1.793241e-06	-9.727384e-10	-1.269651e+01	-6.328548e+01
1.460000e-06	-1.749475e-06	-9.612640e-10	-1.238664e+01	-6.294771e+01
1.470000e-06	-1.705625e-06	-9.524523e-10	-1.207617e+01	-6.260678e+01
1.480000e-06	-1.661687e-06	-9.486945e-10	-1.176508e+01	-6.226301e+01
1.490000e-06	-1.617680e-06	-9.453584e-10	-1.145350e+01	-6.191652e+01
1.500000e-06	-1.573563e-06	-9.397922e-10	-1.114115e+01	-6.156727e+01
1.510000e-06	-1.529436e-06	-9.367677e-10	-1.082871e+01	-6.121495e+01
1.520000e-06	-1.485284e-06	-9.364063e-10	-1.051611e+01	-6.085907e+01
1.530000e-06	-1.440992e-06	-9.303294e-10	-1.020252e+01	-6.049894e+01
1.540000e-06	-1.396632e-06	-9.174939e-10	-9.888436e+00	-6.013370e+01
1.550000e-06	-1.352259e-06	-9.060828e-10	-9.574268e+00	-5.976236e+01
1.560000e-06	-1.307783e-06	-8.990042e-10	-9.259368e+00	-5.938385e+01
1.570000e-06	-1.263164e-06	-8.941307e-10	-8.943458e+00	-5.899709e+01
1.580000e-06	-1.218517e-06	-8.881363e-10	-8.627349e+00	-5.860100e+01
1.590000e-06	-1.173782e-06	-8.835963e-10	-8.310617e+00	-5.819458e+01
1.600000e-06	-1.128862e-06	-8.784548e-10	-7.992571e+00	-5.777697e+01
1.610000e-06	-1.083805e-06	-8.721014e-10	-7.673559e+00	-5.734747e+01
1.620000e-06	-1.038591e-06	-8.640603e-10	-7.353436e+00	-5.690555e+01
1.630000e-06	-9.932897e-07	-8.559967e-10	-7.032693e+00	-5.645089e+01
1.640000e-06	-9.479351e-07	-8.467259e-10	-6.711573e+00	-5.598339e+01
1.650000e-06	-9.025392e-07	-8.372100e-10	-6.390161e+00	-5.550310e+01
1.660000e-06	-8.570989e-07	-8.259831e-10	-6.068434e+00	-5.501026e+01
1.670000e-06	-8.115124e-07	-8.172199e-10	-5.745673e+00	-5.450521e+01
1.680000e-06	-7.658301e-07	-8.116849e-10	-5.422232e+00	-5.398835e+01
1.690000e-06	-7.201430e-07	-8.062463e-10	-5.098759e+00	-5.346012e+01
1.700000e-06	-6.744127e-07	-7.973165e-10	-4.774979e+00	-5.292089e+01
1.710000e-06	-6.286364e-07	-7.885894e-10	-4.450873e+00	-5.237090e+01
1.720000e-06	-5.828620e-07	-7.815290e-10	-4.126781e+00	-5.181026e+01
1.730000e-06	-5.369934e-07	-7.738897e-10	-3.802022e+00	-5.123885e+01
1.740000e-06	-4.910153e-07	-7.602867e-10	-3.476488e+00	-5.065629e+01
1.750000e-06	-4.451047e-07	-7.455870e-10	-3.151431e+00	-5.006194e+01
1.760000e-06	-3.992403e-07	-7.365974e-10	-2.826702e+00	-4.945484e+01
1.770000e-06	-3.533475e-07	-7.283829e-10	-2.501772e+00	-4.883380e+01
1.780000e-06	-3.074382e-07	-7.148126e-10	-2.176725e+00	-4.819733e+01
1.790000e-06	-2.614278e-07	-7.008972e-10	-1.850962e+00	-4.754373e+01
1.800000e-06	-2.153690e-07	-6.923153e-10	-1.524856e+00	-4.687114e+01
1.810000e-06	-1.693390e-07	-6.867557e-10	-1.198954e+00	-4.617758e+01
1.820000e-06	-1.233109e-07	-6.766095e-10	-8.730661e-01	-4.546102e+01
1.830000e-06	-7.723973e-08	-6.595764e-10	-5.468730e-01	-4.471947e+01
1.840000e-06	-3.115062e-08	-6.435428e-10	-2.205527e-01	-4.395103e+01
1.850000e-06	1.484586e-08	-6.330043e-10	1.051117e-01	-4.315398e+01
1.860000e-06	6.075137e-08	-6.231366e-10	4.301320e-01	-4.232681e+01
1.870000e-06	1.067085e-07	-6.094159e-10	7.555180e-01	-4.146828e+01
1.880000e-06	1.527335e-07	-5.967710e-10	1.081384e+00	-4.057746e+01
1.890000e-06	1.986450e-07	-5.868809e-10	1.406447e+00	-3.965377e+01
1.900000e-06	2.445121e-07	-5.739743e-10	1.731195e+00	-3.869691e+01
1.910000e-06	2.904166e-07	-5.532804e-10	2.056208e+00	-3.770695e+01
1.920000e-06	3.362549e-07	-5.326473e-10	2.380753e+00	-3.668420e+01
1.930000e-06	3.820661e-07	-5.182720e-10	2.705105e+00	-3.562925e+01
1.940000e-06	4.278648e-07	-5.053919e-10	3.029370e+00	-3.454287e+01
1.950000e-06	4.736553e-07	-4.858802e-10	3.353576e+00	-3.342595e+01
1.960000e-06	5.193722e-07	-4.663252e-10	3.677260e+00	-3.227946e+01
1.970000e-06	5.650193e-07	-4.524561e-10	4.000451e+00	-3.110437e+01
1.980000e-06	6.107150e-07	-4.382522e-10	4.323986e+00	-2.990158e+01
1.990000e-06	6.564087e-07	-4.174942e-10	4.647507e+00	-2.867189e+01
2.000000e-06	7.020327e-07	-3.949827e-10	4.970534e+00	-2.741592e+01
2.010000e-06	7.475246e-07	-3.774413e-10	5.292626e+00	-2.613410e+01
2.020000e-06	7.930126e-07	-3.631790e-10	5.614690e+00	-2.482665e+01
2.030000e-06	8.385437e-07	-3.436094e-10	5.937060e+00	-2.349355e+01
2.040000e-06	8.839725e-07	-3.180422e-10	6.258705e+00	-2.213460e+01
2.050000e-06	9.293280e-07	-2.949821e-10	6.579831e+00	-2.074937e+01
2.060000e-06	9.745536e-07	-2.767493e-10	6.900037e+00	-1.933733e+01
2.070000e-06	1.019731e-06	-2.572497e-10	7.219902e+00	-1.789780e+01
2.080000e-06	1.064821e-06	-2.348431e-10	7.539148e+00	-1.643008e+01
2.090000e-06	1.109824e-06	-2.131011e-10	7.857782e+00	-1.493345e+01
2.100000e-06	1.154859e-06	-1.933314e-10	8.176638e+00	-1.340729e+01
2.110000e-06	1.199787e-06	-1.698130e-10	8.494739e+00	-1.185107e+01
2.120000e-06	1.244537e-06	-1.393118e-10	8.811577e+00	-1.026444e+01
2.130000e-06	1.289078e-06	-1.095487e-10	9.126932e+00	-8.647285e+00
2.140000e-06	1.333530e-06	-8.678430e-11	9.441663e+00	-6.999714e+00
2.150000e-06	1.377978e-06	-6.546443e-11	9.756364e+00	-5.322118e+00
2.160000e-06	1.422336e-06	-4.151914e-11	1.007043e+01	-3.615161e+00
2.170000e-06	1.466605e-06	-1.709350e-11	1.038386e+01	-1.879790e+00
2.180000e-06	1.510744e-06	7.075732e-12	1.069638e+01	-1.172101e-01
2.190000e-06	1.554842e-06	3.197213e-11	1.100860e+01	1.671130e+00
2.200000e-06	1.598883e-06	6.168828e-11	1.132041e+01	3.483572e+00
2.210000e-06	1.642815e-06	9.338161e-11	1.163146e+01	5.318281e+00
2.220000e-06	1.686745e-06	1.226853e-10	1.194250e+01	7.173285e+00
2.230000e-06	1.730614e-06	1.505474e-10	1.225310e+01	9.046509e+00
2.240000e-06	1.774447e-06	1.827292e-10	1.256344e+01	1.093581e+01
2.250000e-06	1.818256e-06	2.161876e-10	1.287362e+01	1.283902e+01
2.260000e-06	1.861916e-06	2.448428e-10	1.318275e+01	1.475392e+01
2.270000e-06	1.905405e-06	2.709996e-10	1.349065e+01	1.667834e+01
2.280000e-06	1.948794e-06	3.017482e-10	1.379786e+01	1.861008e+01
2.290000e-06	1.992088e-06	3.356683e-10	1.410439e+01	2.054695e+01
2.300000e-06	2.035208e-06	3.654027e-10	1.440969e+01	2.248677e+01
2.310000e-06	2.078080e-06	3.913291e-10	1.471323e+01	2.442731e+01
2.320000e-06	2.120821e-06	4.202163e-10	1.501584e+01	2.636634e+01
2.330000e-06	2.163329e-06	4.518075e-10	1.531681e+01	2.830154e+01
2.340000e-06	2.205413e-06	4.817133e-10	1.561477e+01	3.023051e+01
2.350000e-06	2.247171e-06	5.082362e-10	1.591043e+01	3.215079e+01
2.360000e-06	2.288683e-06	5.336250e-10	1.620434e+01	3.405976e+01
2.370000e-06	2.329915e-06	5.615200e-10	1.649627e+01	3.595473e+01
2.380000e-06	2.370855e-06	5.907595e-10	1.678613e+01	3.783289e+01
2.390000e-06	2.411627e-06	6.200811e-10	1.707481e+01	3.969134e+01
2.400000e-06	2.452144e-06	6.479739e-10	1.736168e+01	4.152713e+01
2.410000e-06	2.492420e-06	6.745881e-10	1.764684e+01	4.333725e+01
2.420000e-06	2.532610e-06	7.022021e-10	1.793139e+01	4.511875e+01
2.430000e-06	2.572661e-06	7.301094e-10	1.821496e+01	4.686871e+01
2.440000e-06	2.612579e-06	7.575227e-10	1.849759e+01	4.858435e+01
2.450000e-06	2.652391e-06	7.837449e-10	1.877946e+01	5.026307e+01
2.460000e-06	2.692127e-06	8.086469e-10	1.906080e+01	5.190252e+01
2.470000e-06	2.731794e-06	8.339276e-10	1.934166e+01	5.350060e+01
2.480000e-06	2.771367e-06	8.588421e-10	1.962184e+01	5.505559e+01
2.490000e-06	2.810752e-06	8.814636e-10	1.990070e+01	5.656610e+01
2.500000e-06	2.849900e-06	9.016591e-10	2.017787e+01	5.803117e+01
2.510000e-06	2.888802e-06	9.229938e-10	2.045331e+01	5.945021e+01
2.520000e-06	2.927489e-06	9.467511e-10	2.072722e+01	6.082304e+01
2.530000e-06	2.965976e-06	9.723479e-10	2.099971e+01	6.214987e+01
2.540000e-06	3.004257e-06	9.969140e-10	2.127075e+01	6.343125e+01
2.550000e-06	3.042309e-06	1.016424e-09	2.154017e+01	6.466803e+01
2.560000e-06	3.080159e-06	1.030219e-09	2.180815e+01	6.586131e+01
2.570000e-06	3.117885e-06	1.043427e-09	2.207526e+01	6.701241e+01
2.580000e-06	3.155385e-06	1.056085e-09	2.234077e+01	6.812275e+01
2.590000e-06	3.192666e-06	1.067844e-09	2.260473e+01	6.919380e+01
2.600000e-06	3.229735e-06	1.082018e-09	2.286718e+01	7.022707e+01
2.610000e-06	3.266549e-06	1.101615e-09	2.312783e+01	7.122399e+01
2.620000e-06	3.303164e-06	1.126907e-09	2.338707e+01	7.218589e+01
2.630000e-06	3.339542e-06	1.148143e-09	2.364463e+01	7.311396e+01
2.640000e-06	3.375667e-06	1.162198e-09	2.390041e+01	7.400924e+01
2.650000e-06	3.411675e-06	1.169965e-09	2.415535e+01	7.487259e+01
2.660000e-06	3.447550e-06	1.173708e-09	2.440935e+01	7.570468e+01
2.670000e-06	3.483233e-06	1.172985e-09	2.466200e+01	7.650607e+01
2.680000e-06	3.518764e-06	1.169800e-09	2.491356e+01	7.727714e+01
2.690000e-06	3.554118e-06	1.174439e-09	2.516388e+01	7.801820e+01
2.700000e-06	3.589120e-06	1.193044e-09	2.541170e+01	7.872951e+01
2.710000e-06	3.623604e-06	1.218417e-09	2.565585e+01	7.941130e+01
2.720000e-06	3.657694e-06	1.239165e-09	2.589721e+01	8.006384e+01
2.730000e-06	3.691432e-06	1.252574e-09	2.613609e+01	8.068749e+01
2.740000e-06	3.724769e-06	1.260097e-09	2.637212e+01	8.128267e+01
2.750000e-06	3.757783e-06	1.260981e-09	2.660587e+01	8.184997e+01
2.760000e-06	3.790511e-06	1.256513e-09	2.683759e+01	8.239010e+01
2.770000e-06	3.822924e-06	1.252750e-09	2.706708e+01	8.290393e+01
2.780000e-06	3.855044e-06	1.257838e-09	2.729449e+01	8.339246e+01
2.790000e-06	3.886956e-06	1.272552e-09	2.752043e+01	8.385682e+01
2.800000e-06	3.918675e-06	1.287955e-09	2.774502e+01	8.429823e+01
2.810000e-06	3.950200e-06	1.299772e-09	2.796822e+01	8.471794e+01
2.820000e-06	3.981489e-06	1.309350e-09	2.818975e+01	8.511724e+01
2.830000e-06	4.012454e-06	1.315084e-09	2.840899e+01	8.549735e+01
2.840000e-06	4.043135e-06	1.313275e-09	2.862622e+01	8.585945e+01
2.850000e-06	4.073546e-06	1.308416e-09	2.884153e+01	8.620457e+01
2.860000e-06	4.103659e-06	1.306150e-09	2.905474e+01	8.653358e+01
2.870000e-06	4.133555e-06	1.310595e-09	2.926641e+01	8.684719e+01
2.880000e-06	4.163258e-06	1.320053e-09	2.947671e+01	8.714590e+01
2.890000e-06	4.192708e-06	1.329423e-09	2.968522e+01	8.743000e+01
2.900000e-06	4.221819e-06	1.334378e-09	2.989134e+01	8.769962e+01
