# Temperatura_=_-12.26
# Concentracion g/m^3_=_4090.0
# C_Vs_to_Am_M_A/Vsm_=_65563218390.804596
# pendiente_HvsI_1/m_=_3716.3
# ordenada_HvsI_A/m_=_1297.0
# frecuencia_Hz_=_135073.77266750412

Tiempo_(s)	Campo_(V.s)	Magnetizacion_(V.s)	Campo_(kA/m)	Magnetizacion_(A/m)
0.000000e+00	-5.451441e-06	-1.571874e-09	-3.839365e+01	-1.049933e+02
1.000000e-08	-5.451558e-06	-1.570827e-09	-3.839448e+01	-1.049769e+02
2.000000e-08	-5.451457e-06	-1.569007e-09	-3.839377e+01	-1.049471e+02
3.000000e-08	-5.450895e-06	-1.569881e-09	-3.838980e+01	-1.049035e+02
4.000000e-08	-5.449724e-06	-1.573116e-09	-3.838156e+01	-1.048464e+02
5.000000e-08	-5.447947e-06	-1.576837e-09	-3.836904e+01	-1.047763e+02
6.000000e-08	-5.445582e-06	-1.586371e-09	-3.835239e+01	-1.046943e+02
7.000000e-08	-5.442659e-06	-1.587216e-09	-3.833180e+01	-1.046019e+02
8.000000e-08	-5.439262e-06	-1.544072e-09	-3.830788e+01	-1.045009e+02
9.000000e-08	-5.435472e-06	-1.500275e-09	-3.828118e+01	-1.043937e+02
1.000000e-07	-5.431302e-06	-1.563524e-09	-3.825181e+01	-1.042828e+02
1.100000e-07	-5.426858e-06	-1.644427e-09	-3.822052e+01	-1.041713e+02
1.200000e-07	-5.422272e-06	-1.564468e-09	-3.818822e+01	-1.040619e+02
1.300000e-07	-5.417392e-06	-1.481226e-09	-3.815385e+01	-1.039578e+02
1.400000e-07	-5.412038e-06	-1.570909e-09	-3.811614e+01	-1.038618e+02
1.500000e-07	-5.406202e-06	-1.694658e-09	-3.807504e+01	-1.037767e+02
1.600000e-07	-5.400023e-06	-1.593634e-09	-3.803152e+01	-1.037048e+02
1.700000e-07	-5.393560e-06	-1.420714e-09	-3.798600e+01	-1.036480e+02
1.800000e-07	-5.386626e-06	-1.513651e-09	-3.793717e+01	-1.036078e+02
1.900000e-07	-5.379291e-06	-1.624966e-09	-3.788551e+01	-1.035849e+02
2.000000e-07	-5.371762e-06	-1.567124e-09	-3.783248e+01	-1.035795e+02
2.100000e-07	-5.364013e-06	-1.471210e-09	-3.777791e+01	-1.035910e+02
2.200000e-07	-5.356059e-06	-1.573235e-09	-3.772189e+01	-1.036185e+02
2.300000e-07	-5.347777e-06	-1.613909e-09	-3.766356e+01	-1.036600e+02
2.400000e-07	-5.339030e-06	-1.529878e-09	-3.760196e+01	-1.037133e+02
2.500000e-07	-5.329689e-06	-1.533869e-09	-3.753617e+01	-1.037757e+02
2.600000e-07	-5.319629e-06	-1.640937e-09	-3.746532e+01	-1.038441e+02
2.700000e-07	-5.308844e-06	-1.607230e-09	-3.738936e+01	-1.039150e+02
2.800000e-07	-5.297533e-06	-1.519795e-09	-3.730970e+01	-1.039851e+02
2.900000e-07	-5.285910e-06	-1.584894e-09	-3.722784e+01	-1.040509e+02
3.000000e-07	-5.273985e-06	-1.639608e-09	-3.714385e+01	-1.041091e+02
3.100000e-07	-5.261735e-06	-1.545488e-09	-3.705758e+01	-1.041568e+02
3.200000e-07	-5.249094e-06	-1.507764e-09	-3.696855e+01	-1.041913e+02
3.300000e-07	-5.235979e-06	-1.614950e-09	-3.687618e+01	-1.042105e+02
3.400000e-07	-5.222433e-06	-1.611817e-09	-3.678078e+01	-1.042126e+02
3.500000e-07	-5.208501e-06	-1.547432e-09	-3.668266e+01	-1.041967e+02
3.600000e-07	-5.194097e-06	-1.567406e-09	-3.658121e+01	-1.041620e+02
3.700000e-07	-5.179107e-06	-1.597917e-09	-3.647564e+01	-1.041088e+02
3.800000e-07	-5.163600e-06	-1.537752e-09	-3.636643e+01	-1.040373e+02
3.900000e-07	-5.147598e-06	-1.548553e-09	-3.625373e+01	-1.039487e+02
4.000000e-07	-5.131042e-06	-1.579685e-09	-3.613713e+01	-1.038441e+02
4.100000e-07	-5.114150e-06	-1.547142e-09	-3.601816e+01	-1.037252e+02
4.200000e-07	-5.096949e-06	-1.532319e-09	-3.589702e+01	-1.035936e+02
4.300000e-07	-5.079457e-06	-1.598431e-09	-3.577383e+01	-1.034513e+02
4.400000e-07	-5.061719e-06	-1.580591e-09	-3.564890e+01	-1.032999e+02
4.500000e-07	-5.043653e-06	-1.523879e-09	-3.552166e+01	-1.031411e+02
4.600000e-07	-5.025201e-06	-1.531994e-09	-3.539171e+01	-1.029764e+02
4.700000e-07	-5.006326e-06	-1.560959e-09	-3.525877e+01	-1.028069e+02
4.800000e-07	-4.987083e-06	-1.526705e-09	-3.512325e+01	-1.026337e+02
4.900000e-07	-4.967558e-06	-1.514131e-09	-3.498574e+01	-1.024572e+02
5.000000e-07	-4.947859e-06	-1.522963e-09	-3.484700e+01	-1.022777e+02
5.100000e-07	-4.927982e-06	-1.529797e-09	-3.470701e+01	-1.020955e+02
5.200000e-07	-4.907838e-06	-1.534935e-09	-3.456514e+01	-1.019101e+02
5.300000e-07	-4.887370e-06	-1.532695e-09	-3.442099e+01	-1.017212e+02
5.400000e-07	-4.866565e-06	-1.508345e-09	-3.427446e+01	-1.015282e+02
5.500000e-07	-4.845367e-06	-1.511806e-09	-3.412516e+01	-1.013307e+02
5.600000e-07	-4.823802e-06	-1.527131e-09	-3.397329e+01	-1.011280e+02
5.700000e-07	-4.801973e-06	-1.506965e-09	-3.381955e+01	-1.009196e+02
5.800000e-07	-4.779853e-06	-1.475331e-09	-3.366376e+01	-1.007052e+02
5.900000e-07	-4.757360e-06	-1.473771e-09	-3.350534e+01	-1.004847e+02
6.000000e-07	-4.734544e-06	-1.487366e-09	-3.334466e+01	-1.002581e+02
6.100000e-07	-4.711398e-06	-1.489976e-09	-3.318164e+01	-1.000256e+02
6.200000e-07	-4.687902e-06	-1.483812e-09	-3.301616e+01	-9.978784e+01
6.300000e-07	-4.664200e-06	-1.476992e-09	-3.284923e+01	-9.954549e+01
6.400000e-07	-4.640337e-06	-1.493646e-09	-3.268117e+01	-9.929943e+01
6.500000e-07	-4.616215e-06	-1.501335e-09	-3.251128e+01	-9.905066e+01
6.600000e-07	-4.591694e-06	-1.480511e-09	-3.233859e+01	-9.880024e+01
6.700000e-07	-4.566681e-06	-1.453415e-09	-3.216242e+01	-9.854922e+01
6.800000e-07	-4.541234e-06	-1.457592e-09	-3.198320e+01	-9.829857e+01
6.900000e-07	-4.515186e-06	-1.463324e-09	-3.179975e+01	-9.804913e+01
7.000000e-07	-4.488578e-06	-1.458603e-09	-3.161236e+01	-9.780155e+01
7.100000e-07	-4.461632e-06	-1.446584e-09	-3.142258e+01	-9.755621e+01
7.200000e-07	-4.434323e-06	-1.453680e-09	-3.123024e+01	-9.731323e+01
7.300000e-07	-4.406753e-06	-1.463157e-09	-3.103607e+01	-9.707244e+01
7.400000e-07	-4.379027e-06	-1.462694e-09	-3.084081e+01	-9.683336e+01
7.500000e-07	-4.351158e-06	-1.441749e-09	-3.064453e+01	-9.659525e+01
7.600000e-07	-4.323058e-06	-1.433913e-09	-3.044662e+01	-9.635713e+01
7.700000e-07	-4.294653e-06	-1.438769e-09	-3.024658e+01	-9.611780e+01
7.800000e-07	-4.265939e-06	-1.439397e-09	-3.004434e+01	-9.587597e+01
7.900000e-07	-4.236853e-06	-1.425794e-09	-2.983950e+01	-9.563026e+01
8.000000e-07	-4.207448e-06	-1.422054e-09	-2.963240e+01	-9.537933e+01
8.100000e-07	-4.177795e-06	-1.427025e-09	-2.942356e+01	-9.512191e+01
8.200000e-07	-4.147907e-06	-1.431427e-09	-2.921307e+01	-9.485690e+01
8.300000e-07	-4.117841e-06	-1.421647e-09	-2.900131e+01	-9.458342e+01
8.400000e-07	-4.087487e-06	-1.409103e-09	-2.878754e+01	-9.430085e+01
8.500000e-07	-4.056739e-06	-1.406828e-09	-2.857098e+01	-9.400890e+01
8.600000e-07	-4.025681e-06	-1.410810e-09	-2.835225e+01	-9.370755e+01
8.700000e-07	-3.994450e-06	-1.405005e-09	-2.813229e+01	-9.339715e+01
8.800000e-07	-3.963002e-06	-1.391915e-09	-2.791081e+01	-9.307829e+01
8.900000e-07	-3.931339e-06	-1.386859e-09	-2.768781e+01	-9.275186e+01
9.000000e-07	-3.899530e-06	-1.387787e-09	-2.746378e+01	-9.241893e+01
9.100000e-07	-3.867544e-06	-1.384770e-09	-2.723851e+01	-9.208069e+01
9.200000e-07	-3.835336e-06	-1.376430e-09	-2.701167e+01	-9.173842e+01
9.300000e-07	-3.802784e-06	-1.376722e-09	-2.678242e+01	-9.139338e+01
9.400000e-07	-3.769737e-06	-1.384454e-09	-2.654967e+01	-9.104672e+01
9.500000e-07	-3.736216e-06	-1.389605e-09	-2.631358e+01	-9.069943e+01
9.600000e-07	-3.702349e-06	-1.379900e-09	-2.607507e+01	-9.035230e+01
9.700000e-07	-3.668148e-06	-1.366244e-09	-2.583419e+01	-9.000581e+01
9.800000e-07	-3.633481e-06	-1.357129e-09	-2.559004e+01	-8.966017e+01
9.900000e-07	-3.598351e-06	-1.353317e-09	-2.534263e+01	-8.931524e+01
1.000000e-06	-3.562952e-06	-1.346043e-09	-2.509332e+01	-8.897057e+01
1.010000e-06	-3.527384e-06	-1.342657e-09	-2.484282e+01	-8.862545e+01
1.020000e-06	-3.491657e-06	-1.344576e-09	-2.459120e+01	-8.827887e+01
1.030000e-06	-3.455858e-06	-1.349746e-09	-2.433907e+01	-8.792965e+01
1.040000e-06	-3.420005e-06	-1.343340e-09	-2.408656e+01	-8.757649e+01
1.050000e-06	-3.383943e-06	-1.329146e-09	-2.383258e+01	-8.721802e+01
1.060000e-06	-3.347629e-06	-1.313707e-09	-2.357683e+01	-8.685290e+01
1.070000e-06	-3.311076e-06	-1.305408e-09	-2.331939e+01	-8.647989e+01
1.080000e-06	-3.274155e-06	-1.297853e-09	-2.305937e+01	-8.609793e+01
1.090000e-06	-3.236950e-06	-1.292128e-09	-2.279733e+01	-8.570619e+01
1.100000e-06	-3.199581e-06	-1.289404e-09	-2.253415e+01	-8.530412e+01
1.110000e-06	-3.162018e-06	-1.291505e-09	-2.226960e+01	-8.489149e+01
1.120000e-06	-3.124263e-06	-1.289429e-09	-2.200370e+01	-8.446839e+01
1.130000e-06	-3.086279e-06	-1.279137e-09	-2.173619e+01	-8.403522e+01
1.140000e-06	-3.048129e-06	-1.265596e-09	-2.146750e+01	-8.359270e+01
1.150000e-06	-3.009772e-06	-1.258144e-09	-2.119735e+01	-8.314178e+01
1.160000e-06	-2.971094e-06	-1.254850e-09	-2.092495e+01	-8.268361e+01
1.170000e-06	-2.932167e-06	-1.249328e-09	-2.065080e+01	-8.221949e+01
1.180000e-06	-2.893094e-06	-1.241911e-09	-2.037561e+01	-8.175075e+01
1.190000e-06	-2.853859e-06	-1.234990e-09	-2.009928e+01	-8.127870e+01
1.200000e-06	-2.814451e-06	-1.233710e-09	-1.982174e+01	-8.080455e+01
1.210000e-06	-2.774958e-06	-1.230197e-09	-1.954360e+01	-8.032934e+01
1.220000e-06	-2.735373e-06	-1.219578e-09	-1.926481e+01	-7.985387e+01
1.230000e-06	-2.695647e-06	-1.208501e-09	-1.898502e+01	-7.937867e+01
1.240000e-06	-2.655781e-06	-1.202435e-09	-1.870425e+01	-7.890397e+01
1.250000e-06	-2.615758e-06	-1.197670e-09	-1.842238e+01	-7.842966e+01
1.260000e-06	-2.575627e-06	-1.191524e-09	-1.813974e+01	-7.795534e+01
1.270000e-06	-2.535449e-06	-1.182100e-09	-1.785677e+01	-7.748029e+01
1.280000e-06	-2.495035e-06	-1.176953e-09	-1.757214e+01	-7.700359e+01
1.290000e-06	-2.454224e-06	-1.171458e-09	-1.728472e+01	-7.652410e+01
1.300000e-06	-2.413084e-06	-1.162694e-09	-1.699498e+01	-7.604058e+01
1.310000e-06	-2.371669e-06	-1.149029e-09	-1.670330e+01	-7.555172e+01
1.320000e-06	-2.329978e-06	-1.139005e-09	-1.640967e+01	-7.505626e+01
1.330000e-06	-2.287997e-06	-1.133239e-09	-1.611401e+01	-7.455303e+01
1.340000e-06	-2.245689e-06	-1.129661e-09	-1.581604e+01	-7.404105e+01
1.350000e-06	-2.203075e-06	-1.125410e-09	-1.551592e+01	-7.351956e+01
1.360000e-06	-2.160301e-06	-1.119154e-09	-1.521466e+01	-7.298807e+01
1.370000e-06	-2.117298e-06	-1.111033e-09	-1.491180e+01	-7.244640e+01
1.380000e-06	-2.074059e-06	-1.101755e-09	-1.460728e+01	-7.189466e+01
1.390000e-06	-2.030746e-06	-1.090756e-09	-1.430223e+01	-7.133328e+01
1.400000e-06	-1.987317e-06	-1.080795e-09	-1.399636e+01	-7.076296e+01
1.410000e-06	-1.943749e-06	-1.073209e-09	-1.368952e+01	-7.018461e+01
1.420000e-06	-1.900093e-06	-1.066931e-09	-1.338206e+01	-6.959933e+01
1.430000e-06	-1.856378e-06	-1.060452e-09	-1.307418e+01	-6.900833e+01
1.440000e-06	-1.812552e-06	-1.051575e-09	-1.276552e+01	-6.841282e+01
1.450000e-06	-1.768665e-06	-1.042339e-09	-1.245643e+01	-6.781401e+01
1.460000e-06	-1.724746e-06	-1.034843e-09	-1.214712e+01	-6.721294e+01
1.470000e-06	-1.680715e-06	-1.028526e-09	-1.183701e+01	-6.661053e+01
1.480000e-06	-1.636643e-06	-1.020990e-09	-1.152662e+01	-6.600740e+01
1.490000e-06	-1.592519e-06	-1.013807e-09	-1.121586e+01	-6.540394e+01
1.500000e-06	-1.548295e-06	-1.005638e-09	-1.090440e+01	-6.480020e+01
1.510000e-06	-1.503962e-06	-9.972796e-10	-1.059217e+01	-6.419596e+01
1.520000e-06	-1.459414e-06	-9.872890e-10	-1.027842e+01	-6.359065e+01
1.530000e-06	-1.414717e-06	-9.757297e-10	-9.963629e+00	-6.298347e+01
1.540000e-06	-1.370020e-06	-9.650848e-10	-9.648839e+00	-6.237337e+01
1.550000e-06	-1.325208e-06	-9.572869e-10	-9.333234e+00	-6.175913e+01
1.560000e-06	-1.280282e-06	-9.485030e-10	-9.016825e+00	-6.113942e+01
1.570000e-06	-1.235314e-06	-9.409363e-10	-8.700121e+00	-6.051287e+01
1.580000e-06	-1.190273e-06	-9.335307e-10	-8.382905e+00	-5.987816e+01
1.590000e-06	-1.145183e-06	-9.263094e-10	-8.065344e+00	-5.923406e+01
1.600000e-06	-1.100007e-06	-9.183741e-10	-7.747179e+00	-5.857951e+01
1.610000e-06	-1.054716e-06	-9.068880e-10	-7.428202e+00	-5.791367e+01
1.620000e-06	-1.009299e-06	-8.949925e-10	-7.108336e+00	-5.723593e+01
1.630000e-06	-9.636775e-07	-8.820673e-10	-6.787030e+00	-5.654599e+01
1.640000e-06	-9.179804e-07	-8.655021e-10	-6.465193e+00	-5.584380e+01
1.650000e-06	-8.723185e-07	-8.482995e-10	-6.143603e+00	-5.512958e+01
1.660000e-06	-8.266458e-07	-8.333321e-10	-5.821937e+00	-5.440381e+01
1.670000e-06	-7.809871e-07	-8.242180e-10	-5.500371e+00	-5.366712e+01
1.680000e-06	-7.352994e-07	-8.197661e-10	-5.178599e+00	-5.292032e+01
1.690000e-06	-6.894826e-07	-8.149985e-10	-4.855919e+00	-5.216426e+01
1.700000e-06	-6.435411e-07	-8.084042e-10	-4.532360e+00	-5.139982e+01
1.710000e-06	-5.975894e-07	-7.982148e-10	-4.208729e+00	-5.062780e+01
1.720000e-06	-5.515977e-07	-7.826047e-10	-3.884817e+00	-4.984889e+01
1.730000e-06	-5.055722e-07	-7.603433e-10	-3.560666e+00	-4.906359e+01
1.740000e-06	-4.595757e-07	-7.372172e-10	-3.236720e+00	-4.827218e+01
1.750000e-06	-4.136010e-07	-7.193578e-10	-2.912927e+00	-4.747468e+01
1.760000e-06	-3.675662e-07	-7.076382e-10	-2.588711e+00	-4.667084e+01
1.770000e-06	-3.213955e-07	-7.002673e-10	-2.263538e+00	-4.586016e+01
1.780000e-06	-2.752396e-07	-6.965697e-10	-1.938470e+00	-4.504188e+01
1.790000e-06	-2.291196e-07	-6.921094e-10	-1.613654e+00	-4.421502e+01
1.800000e-06	-1.830178e-07	-6.818169e-10	-1.288966e+00	-4.337845e+01
1.810000e-06	-1.369577e-07	-6.614533e-10	-9.645715e-01	-4.253093e+01
1.820000e-06	-9.086048e-08	-6.353607e-10	-6.399162e-01	-4.167119e+01
1.830000e-06	-4.471598e-08	-6.113913e-10	-3.149277e-01	-4.079797e+01
1.840000e-06	1.393136e-09	-5.939078e-10	9.811643e-03	-3.991013e+01
1.850000e-06	4.745858e-08	-5.840405e-10	3.342434e-01	-3.900668e+01
1.860000e-06	9.349970e-08	-5.812151e-10	6.585039e-01	-3.808687e+01
1.870000e-06	1.395643e-07	-5.809947e-10	9.829293e-01	-3.715019e+01
1.880000e-06	1.857101e-07	-5.761408e-10	1.307928e+00	-3.619642e+01
1.890000e-06	2.318926e-07	-5.575201e-10	1.633184e+00	-3.522565e+01
1.900000e-06	2.780862e-07	-5.279948e-10	1.958518e+00	-3.423826e+01
1.910000e-06	3.242406e-07	-4.989160e-10	2.283576e+00	-3.323493e+01
1.920000e-06	3.703349e-07	-4.765501e-10	2.608211e+00	-3.221655e+01
1.930000e-06	4.163327e-07	-4.608354e-10	2.932166e+00	-3.118423e+01
1.940000e-06	4.622475e-07	-4.493169e-10	3.255537e+00	-3.013917e+01
1.950000e-06	5.082027e-07	-4.419998e-10	3.579192e+00	-2.908269e+01
1.960000e-06	5.541741e-07	-4.359376e-10	3.902962e+00	-2.801608e+01
1.970000e-06	6.000235e-07	-4.224157e-10	4.225872e+00	-2.694055e+01
1.980000e-06	6.457526e-07	-3.993249e-10	4.547935e+00	-2.585719e+01
1.990000e-06	6.914807e-07	-3.739740e-10	4.869991e+00	-2.476692e+01
2.000000e-06	7.372541e-07	-3.513926e-10	5.192366e+00	-2.367042e+01
2.010000e-06	7.830067e-07	-3.319354e-10	5.514594e+00	-2.256810e+01
2.020000e-06	8.287059e-07	-3.139708e-10	5.836447e+00	-2.146014e+01
2.030000e-06	8.743366e-07	-2.983122e-10	6.157817e+00	-2.034644e+01
2.040000e-06	9.198715e-07	-2.858094e-10	6.478512e+00	-1.922666e+01
2.050000e-06	9.653276e-07	-2.735482e-10	6.798652e+00	-1.810025e+01
2.060000e-06	1.010745e-06	-2.554550e-10	7.118521e+00	-1.696652e+01
2.070000e-06	1.056070e-06	-2.329330e-10	7.437734e+00	-1.582467e+01
2.080000e-06	1.101347e-06	-2.114472e-10	7.756619e+00	-1.467383e+01
2.090000e-06	1.146545e-06	-1.928421e-10	8.074934e+00	-1.351320e+01
2.100000e-06	1.191626e-06	-1.748426e-10	8.392437e+00	-1.234202e+01
2.110000e-06	1.236608e-06	-1.570110e-10	8.709238e+00	-1.115971e+01
2.120000e-06	1.281472e-06	-1.411206e-10	9.025205e+00	-9.965831e+00
2.130000e-06	1.326231e-06	-1.276424e-10	9.340437e+00	-8.760197e+00
2.140000e-06	1.370930e-06	-1.121019e-10	9.655248e+00	-7.542851e+00
2.150000e-06	1.415538e-06	-9.476275e-11	9.969411e+00	-6.314085e+00
2.160000e-06	1.460020e-06	-7.751664e-11	1.028270e+01	-5.074431e+00
2.170000e-06	1.504482e-06	-5.956446e-11	1.059583e+01	-3.824637e+00
2.180000e-06	1.548853e-06	-3.991794e-11	1.090833e+01	-2.565629e+00
2.190000e-06	1.593059e-06	-1.744383e-11	1.121966e+01	-1.298468e+00
2.200000e-06	1.637121e-06	3.321136e-12	1.152999e+01	-2.429372e-02
2.210000e-06	1.681073e-06	2.079610e-11	1.183953e+01	1.255735e+00
2.220000e-06	1.724969e-06	4.003592e-11	1.214869e+01	2.540496e+00
2.230000e-06	1.768828e-06	6.169932e-11	1.245758e+01	3.828959e+00
2.240000e-06	1.812636e-06	8.155816e-11	1.276611e+01	5.120237e+00
2.250000e-06	1.856359e-06	9.745316e-11	1.307405e+01	6.413621e+00
2.260000e-06	1.899967e-06	1.156430e-10	1.338117e+01	7.708611e+00
2.270000e-06	1.943488e-06	1.395025e-10	1.368768e+01	9.004922e+00
2.280000e-06	1.986930e-06	1.622335e-10	1.399364e+01	1.030249e+01
2.290000e-06	2.030286e-06	1.804153e-10	1.429899e+01	1.160144e+01
2.300000e-06	2.073620e-06	1.978499e-10	1.460418e+01	1.290208e+01
2.310000e-06	2.116823e-06	2.187770e-10	1.490845e+01	1.420484e+01
2.320000e-06	2.159819e-06	2.402712e-10	1.521127e+01	1.551022e+01
2.330000e-06	2.202614e-06	2.573033e-10	1.551267e+01	1.681874e+01
2.340000e-06	2.245138e-06	2.727253e-10	1.581216e+01	1.813088e+01
2.350000e-06	2.287440e-06	2.928203e-10	1.611009e+01	1.944702e+01
2.360000e-06	2.329484e-06	3.168002e-10	1.640619e+01	2.076739e+01
2.370000e-06	2.371165e-06	3.401999e-10	1.669975e+01	2.209201e+01
2.380000e-06	2.412445e-06	3.617947e-10	1.699048e+01	2.342069e+01
2.390000e-06	2.453415e-06	3.845986e-10	1.727902e+01	2.475296e+01
2.400000e-06	2.494130e-06	4.080221e-10	1.756577e+01	2.608812e+01
2.410000e-06	2.534658e-06	4.289139e-10	1.785120e+01	2.742521e+01
2.420000e-06	2.574954e-06	4.493727e-10	1.813500e+01	2.876304e+01
2.430000e-06	2.614989e-06	4.716294e-10	1.841696e+01	3.010027e+01
2.440000e-06	2.654923e-06	4.936214e-10	1.869821e+01	3.143538e+01
2.450000e-06	2.694759e-06	5.140898e-10	1.897877e+01	3.276682e+01
2.460000e-06	2.734460e-06	5.357102e-10	1.925838e+01	3.409300e+01
2.470000e-06	2.774064e-06	5.579860e-10	1.953730e+01	3.541242e+01
2.480000e-06	2.813506e-06	5.784221e-10	1.981509e+01	3.672367e+01
2.490000e-06	2.852786e-06	5.963904e-10	2.009172e+01	3.802554e+01
2.500000e-06	2.891943e-06	6.148512e-10	2.036750e+01	3.931705e+01
2.510000e-06	2.930928e-06	6.376408e-10	2.064207e+01	4.059747e+01
2.520000e-06	2.969689e-06	6.642039e-10	2.091506e+01	4.186637e+01
2.530000e-06	3.008192e-06	6.892112e-10	2.118623e+01	4.312360e+01
2.540000e-06	3.046434e-06	7.107745e-10	2.145556e+01	4.436931e+01
2.550000e-06	3.084428e-06	7.280089e-10	2.172315e+01	4.560390e+01
2.560000e-06	3.122246e-06	7.415059e-10	2.198949e+01	4.682797e+01
2.570000e-06	3.159902e-06	7.547167e-10	2.225470e+01	4.804232e+01
2.580000e-06	3.197390e-06	7.703952e-10	2.251872e+01	4.924781e+01
2.590000e-06	3.234669e-06	7.906730e-10	2.278127e+01	5.044536e+01
2.600000e-06	3.271660e-06	8.151378e-10	2.304179e+01	5.163584e+01
2.610000e-06	3.308341e-06	8.407705e-10	2.330013e+01	5.282003e+01
2.620000e-06	3.344791e-06	8.629022e-10	2.355685e+01	5.399853e+01
2.630000e-06	3.381062e-06	8.808164e-10	2.381229e+01	5.517171e+01
2.640000e-06	3.417158e-06	8.947747e-10	2.406651e+01	5.633970e+01
2.650000e-06	3.453093e-06	9.059198e-10	2.431960e+01	5.750231e+01
2.660000e-06	3.488911e-06	9.159724e-10	2.457186e+01	5.865907e+01
2.670000e-06	3.524626e-06	9.290192e-10	2.482339e+01	5.980920e+01
2.680000e-06	3.560056e-06	9.475220e-10	2.507292e+01	6.095162e+01
2.690000e-06	3.595264e-06	9.697585e-10	2.532089e+01	6.208502e+01
2.700000e-06	3.630343e-06	9.916043e-10	2.556794e+01	6.320789e+01
2.710000e-06	3.665130e-06	1.012685e-09	2.581294e+01	6.431857e+01
2.720000e-06	3.699468e-06	1.031082e-09	2.605478e+01	6.541532e+01
2.730000e-06	3.733250e-06	1.047586e-09	2.629270e+01	6.649637e+01
2.740000e-06	3.766633e-06	1.061115e-09	2.652781e+01	6.756004e+01
2.750000e-06	3.799602e-06	1.071523e-09	2.676001e+01	6.860472e+01
2.760000e-06	3.832115e-06	1.083703e-09	2.698899e+01	6.962900e+01
2.770000e-06	3.864364e-06	1.099595e-09	2.721612e+01	7.063168e+01
2.780000e-06	3.896423e-06	1.119730e-09	2.744190e+01	7.161181e+01
2.790000e-06	3.928311e-06	1.138911e-09	2.766648e+01	7.256873e+01
2.800000e-06	3.959988e-06	1.155029e-09	2.788958e+01	7.350203e+01
2.810000e-06	3.991481e-06	1.168107e-09	2.811138e+01	7.441163e+01
2.820000e-06	4.022787e-06	1.177797e-09	2.833186e+01	7.529766e+01
2.830000e-06	4.053828e-06	1.184447e-09	2.855048e+01	7.616052e+01
2.840000e-06	4.084531e-06	1.191871e-09	2.876672e+01	7.700078e+01
2.850000e-06	4.114976e-06	1.203451e-09	2.898113e+01	7.781920e+01
2.860000e-06	4.145128e-06	1.218878e-09	2.919349e+01	7.861660e+01
2.870000e-06	4.174975e-06	1.235040e-09	2.940370e+01	7.939391e+01
2.880000e-06	4.204645e-06	1.248641e-09	2.961266e+01	8.015204e+01
2.890000e-06	4.234032e-06	1.258227e-09	2.981963e+01	8.089190e+01
2.900000e-06	4.263083e-06	1.266864e-09	3.002423e+01	8.161434e+01
