# Temperatura_=_18.8
# Concentracion g/m^3_=_4090.0
# C_Vs_to_Am_M_A/Vsm_=_65563218390.804596
# pendiente_HvsI_1/m_=_3716.3
# ordenada_HvsI_A/m_=_1297.0
# frecuencia_Hz_=_135085.23963312147

Tiempo_(s)	Campo_(V.s)	Magnetizacion_(V.s)	Campo_(kA/m)	Magnetizacion_(A/m)
0.000000e+00	-5.412135e-06	-1.317690e-09	-3.838969e+01	-8.903833e+01
1.000000e-08	-5.412412e-06	-1.310796e-09	-3.839166e+01	-8.889435e+01
2.000000e-08	-5.412415e-06	-1.306108e-09	-3.839167e+01	-8.873193e+01
3.000000e-08	-5.412104e-06	-1.301976e-09	-3.838947e+01	-8.855062e+01
4.000000e-08	-5.411386e-06	-1.295149e-09	-3.838438e+01	-8.835085e+01
5.000000e-08	-5.410288e-06	-1.294908e-09	-3.837659e+01	-8.813395e+01
6.000000e-08	-5.408728e-06	-1.296517e-09	-3.836553e+01	-8.790219e+01
7.000000e-08	-5.406638e-06	-1.300384e-09	-3.835070e+01	-8.765873e+01
8.000000e-08	-5.403921e-06	-1.322910e-09	-3.833143e+01	-8.740759e+01
9.000000e-08	-5.400548e-06	-1.327426e-09	-3.830750e+01	-8.715352e+01
1.000000e-07	-5.396691e-06	-1.289991e-09	-3.828014e+01	-8.690185e+01
1.100000e-07	-5.392518e-06	-1.272963e-09	-3.825054e+01	-8.665831e+01
1.200000e-07	-5.388164e-06	-1.328851e-09	-3.821966e+01	-8.642881e+01
1.300000e-07	-5.383518e-06	-1.299152e-09	-3.818670e+01	-8.621917e+01
1.400000e-07	-5.378459e-06	-1.259355e-09	-3.815082e+01	-8.603497e+01
1.500000e-07	-5.373003e-06	-1.248697e-09	-3.811212e+01	-8.588118e+01
1.600000e-07	-5.367204e-06	-1.352249e-09	-3.807098e+01	-8.576205e+01
1.700000e-07	-5.360977e-06	-1.307567e-09	-3.802682e+01	-8.568082e+01
1.800000e-07	-5.354340e-06	-1.218595e-09	-3.797974e+01	-8.563959e+01
1.900000e-07	-5.347319e-06	-1.236634e-09	-3.792993e+01	-8.563917e+01
2.000000e-07	-5.340023e-06	-1.336224e-09	-3.787818e+01	-8.567905e+01
2.100000e-07	-5.332498e-06	-1.304297e-09	-3.782480e+01	-8.575731e+01
2.200000e-07	-5.324690e-06	-1.218205e-09	-3.776942e+01	-8.587071e+01
2.300000e-07	-5.316681e-06	-1.289096e-09	-3.771261e+01	-8.601475e+01
2.400000e-07	-5.308406e-06	-1.357644e-09	-3.765391e+01	-8.618384e+01
2.500000e-07	-5.299516e-06	-1.316558e-09	-3.759086e+01	-8.637148e+01
2.600000e-07	-5.289861e-06	-1.274923e-09	-3.752237e+01	-8.657049e+01
2.700000e-07	-5.279634e-06	-1.384430e-09	-3.744983e+01	-8.677332e+01
2.800000e-07	-5.268826e-06	-1.396399e-09	-3.737316e+01	-8.697224e+01
2.900000e-07	-5.257541e-06	-1.307889e-09	-3.729311e+01	-8.715974e+01
3.000000e-07	-5.245856e-06	-1.296422e-09	-3.721023e+01	-8.732872e+01
3.100000e-07	-5.233825e-06	-1.394439e-09	-3.712489e+01	-8.747280e+01
3.200000e-07	-5.221429e-06	-1.345398e-09	-3.703696e+01	-8.758652e+01
3.300000e-07	-5.208659e-06	-1.308936e-09	-3.694638e+01	-8.766558e+01
3.400000e-07	-5.195552e-06	-1.356377e-09	-3.685341e+01	-8.770690e+01
3.500000e-07	-5.182073e-06	-1.397136e-09	-3.675780e+01	-8.770876e+01
3.600000e-07	-5.168196e-06	-1.334395e-09	-3.665937e+01	-8.767080e+01
3.700000e-07	-5.154000e-06	-1.357911e-09	-3.655868e+01	-8.759398e+01
3.800000e-07	-5.139357e-06	-1.366036e-09	-3.645480e+01	-8.748052e+01
3.900000e-07	-5.124040e-06	-1.318527e-09	-3.634616e+01	-8.733368e+01
4.000000e-07	-5.108113e-06	-1.306285e-09	-3.623318e+01	-8.715766e+01
4.100000e-07	-5.091704e-06	-1.360026e-09	-3.611679e+01	-8.695732e+01
4.200000e-07	-5.074881e-06	-1.327144e-09	-3.599746e+01	-8.673793e+01
4.300000e-07	-5.057809e-06	-1.292370e-09	-3.587636e+01	-8.650496e+01
4.400000e-07	-5.040552e-06	-1.338133e-09	-3.575396e+01	-8.626379e+01
4.500000e-07	-5.023036e-06	-1.351938e-09	-3.562971e+01	-8.601946e+01
4.600000e-07	-5.005198e-06	-1.303326e-09	-3.550318e+01	-8.577649e+01
4.700000e-07	-4.986888e-06	-1.295263e-09	-3.537330e+01	-8.553869e+01
4.800000e-07	-4.968172e-06	-1.315140e-09	-3.524055e+01	-8.530899e+01
4.900000e-07	-4.949018e-06	-1.294990e-09	-3.510468e+01	-8.508940e+01
5.000000e-07	-4.929444e-06	-1.291127e-09	-3.496584e+01	-8.488095e+01
5.100000e-07	-4.909658e-06	-1.282921e-09	-3.482549e+01	-8.468371e+01
5.200000e-07	-4.889690e-06	-1.277149e-09	-3.468385e+01	-8.449683e+01
5.300000e-07	-4.869522e-06	-1.289237e-09	-3.454080e+01	-8.431868e+01
5.400000e-07	-4.849024e-06	-1.309975e-09	-3.439540e+01	-8.414700e+01
5.500000e-07	-4.828173e-06	-1.279896e-09	-3.424749e+01	-8.397904e+01
5.600000e-07	-4.807008e-06	-1.279294e-09	-3.409736e+01	-8.381176e+01
5.700000e-07	-4.785454e-06	-1.292683e-09	-3.394448e+01	-8.364205e+01
5.800000e-07	-4.763626e-06	-1.283348e-09	-3.378964e+01	-8.346691e+01
5.900000e-07	-4.741563e-06	-1.248341e-09	-3.363315e+01	-8.328362e+01
6.000000e-07	-4.719227e-06	-1.246175e-09	-3.347471e+01	-8.308991e+01
6.100000e-07	-4.696592e-06	-1.244965e-09	-3.331416e+01	-8.288409e+01
6.200000e-07	-4.673586e-06	-1.259760e-09	-3.315097e+01	-8.266512e+01
6.300000e-07	-4.650247e-06	-1.259828e-09	-3.298542e+01	-8.243268e+01
6.400000e-07	-4.626586e-06	-1.251038e-09	-3.281758e+01	-8.218715e+01
6.500000e-07	-4.602665e-06	-1.246032e-09	-3.264791e+01	-8.192961e+01
6.600000e-07	-4.578539e-06	-1.263411e-09	-3.247678e+01	-8.166172e+01
6.700000e-07	-4.554160e-06	-1.250601e-09	-3.230385e+01	-8.138563e+01
6.800000e-07	-4.529453e-06	-1.229724e-09	-3.212860e+01	-8.110388e+01
6.900000e-07	-4.504231e-06	-1.223589e-09	-3.194969e+01	-8.081919e+01
7.000000e-07	-4.478473e-06	-1.229702e-09	-3.176698e+01	-8.053436e+01
7.100000e-07	-4.452240e-06	-1.227657e-09	-3.158090e+01	-8.025205e+01
7.200000e-07	-4.425559e-06	-1.225382e-09	-3.139165e+01	-7.997470e+01
7.300000e-07	-4.398458e-06	-1.221002e-09	-3.119941e+01	-7.970432e+01
7.400000e-07	-4.370995e-06	-1.223816e-09	-3.100461e+01	-7.944246e+01
7.500000e-07	-4.343344e-06	-1.227319e-09	-3.080848e+01	-7.919008e+01
7.600000e-07	-4.315530e-06	-1.215346e-09	-3.061118e+01	-7.894754e+01
7.700000e-07	-4.287449e-06	-1.202619e-09	-3.041200e+01	-7.871457e+01
7.800000e-07	-4.259074e-06	-1.201131e-09	-3.021073e+01	-7.849033e+01
7.900000e-07	-4.230513e-06	-1.204797e-09	-3.000813e+01	-7.827342e+01
8.000000e-07	-4.201661e-06	-1.197432e-09	-2.980348e+01	-7.806205e+01
8.100000e-07	-4.172414e-06	-1.192415e-09	-2.959602e+01	-7.785406e+01
8.200000e-07	-4.142859e-06	-1.190410e-09	-2.938638e+01	-7.764713e+01
8.300000e-07	-4.113039e-06	-1.195168e-09	-2.917487e+01	-7.743887e+01
8.400000e-07	-4.082928e-06	-1.190773e-09	-2.896128e+01	-7.722697e+01
8.500000e-07	-4.052520e-06	-1.185888e-09	-2.874559e+01	-7.700933e+01
8.600000e-07	-4.021875e-06	-1.178954e-09	-2.852821e+01	-7.678416e+01
8.700000e-07	-3.990922e-06	-1.181149e-09	-2.830865e+01	-7.655010e+01
8.800000e-07	-3.959654e-06	-1.173434e-09	-2.808687e+01	-7.630625e+01
8.900000e-07	-3.928135e-06	-1.164167e-09	-2.786329e+01	-7.605223e+01
9.000000e-07	-3.896419e-06	-1.154760e-09	-2.763832e+01	-7.578820e+01
9.100000e-07	-3.864603e-06	-1.155924e-09	-2.741264e+01	-7.551477e+01
9.200000e-07	-3.832676e-06	-1.154321e-09	-2.718617e+01	-7.523305e+01
9.300000e-07	-3.800542e-06	-1.154129e-09	-2.695824e+01	-7.494447e+01
9.400000e-07	-3.768133e-06	-1.152737e-09	-2.672835e+01	-7.465075e+01
9.500000e-07	-3.735475e-06	-1.157826e-09	-2.649671e+01	-7.435376e+01
9.600000e-07	-3.702389e-06	-1.157626e-09	-2.626201e+01	-7.405543e+01
9.700000e-07	-3.668799e-06	-1.149293e-09	-2.602376e+01	-7.375759e+01
9.800000e-07	-3.634866e-06	-1.133224e-09	-2.578306e+01	-7.346191e+01
9.900000e-07	-3.600502e-06	-1.123971e-09	-2.553931e+01	-7.316977e+01
1.000000e-06	-3.565682e-06	-1.118838e-09	-2.529232e+01	-7.288222e+01
1.010000e-06	-3.530496e-06	-1.116113e-09	-2.504273e+01	-7.259989e+01
1.020000e-06	-3.495038e-06	-1.114859e-09	-2.479122e+01	-7.232296e+01
1.030000e-06	-3.459420e-06	-1.118273e-09	-2.453857e+01	-7.205121e+01
1.040000e-06	-3.423612e-06	-1.119705e-09	-2.428457e+01	-7.178399e+01
1.050000e-06	-3.387687e-06	-1.113112e-09	-2.402975e+01	-7.152029e+01
1.060000e-06	-3.351688e-06	-1.101409e-09	-2.377440e+01	-7.125881e+01
1.070000e-06	-3.315521e-06	-1.089584e-09	-2.351786e+01	-7.099805e+01
1.080000e-06	-3.279139e-06	-1.080354e-09	-2.325979e+01	-7.073638e+01
1.090000e-06	-3.242507e-06	-1.070907e-09	-2.299995e+01	-7.047218e+01
1.100000e-06	-3.205641e-06	-1.067475e-09	-2.273845e+01	-7.020389e+01
1.110000e-06	-3.168536e-06	-1.066267e-09	-2.247525e+01	-6.993015e+01
1.120000e-06	-3.131233e-06	-1.067224e-09	-2.221066e+01	-6.964984e+01
1.130000e-06	-3.093693e-06	-1.063727e-09	-2.194437e+01	-6.936214e+01
1.140000e-06	-3.055873e-06	-1.058361e-09	-2.167610e+01	-6.906661e+01
1.150000e-06	-3.017835e-06	-1.050232e-09	-2.140630e+01	-6.876315e+01
1.160000e-06	-2.979688e-06	-1.045087e-09	-2.113571e+01	-6.845206e+01
1.170000e-06	-2.941380e-06	-1.037444e-09	-2.086398e+01	-6.813393e+01
1.180000e-06	-2.902814e-06	-1.030580e-09	-2.059042e+01	-6.780968e+01
1.190000e-06	-2.864047e-06	-1.023057e-09	-2.031543e+01	-6.748043e+01
1.200000e-06	-2.825007e-06	-1.018958e-09	-2.003852e+01	-6.714746e+01
1.210000e-06	-2.785764e-06	-1.014166e-09	-1.976015e+01	-6.681209e+01
1.220000e-06	-2.746371e-06	-1.011867e-09	-1.948073e+01	-6.647563e+01
1.230000e-06	-2.706824e-06	-1.008562e-09	-1.920021e+01	-6.613930e+01
1.240000e-06	-2.667116e-06	-1.005515e-09	-1.891855e+01	-6.580410e+01
1.250000e-06	-2.627234e-06	-9.985034e-10	-1.863566e+01	-6.547083e+01
1.260000e-06	-2.587243e-06	-9.924033e-10	-1.835199e+01	-6.513995e+01
1.270000e-06	-2.547156e-06	-9.852308e-10	-1.806765e+01	-6.481165e+01
1.280000e-06	-2.506975e-06	-9.751272e-10	-1.778263e+01	-6.448576e+01
1.290000e-06	-2.466669e-06	-9.661497e-10	-1.749673e+01	-6.416181e+01
1.300000e-06	-2.426243e-06	-9.613369e-10	-1.720998e+01	-6.383905e+01
1.310000e-06	-2.385662e-06	-9.583161e-10	-1.692213e+01	-6.351649e+01
1.320000e-06	-2.344839e-06	-9.536234e-10	-1.663256e+01	-6.319296e+01
1.330000e-06	-2.303768e-06	-9.482121e-10	-1.634123e+01	-6.286720e+01
1.340000e-06	-2.262469e-06	-9.448052e-10	-1.604829e+01	-6.253790e+01
1.350000e-06	-2.220828e-06	-9.432803e-10	-1.575292e+01	-6.220380e+01
1.360000e-06	-2.178823e-06	-9.397000e-10	-1.545496e+01	-6.186374e+01
1.370000e-06	-2.136549e-06	-9.320979e-10	-1.515510e+01	-6.151673e+01
1.380000e-06	-2.094100e-06	-9.215210e-10	-1.485400e+01	-6.116198e+01
1.390000e-06	-2.051449e-06	-9.148783e-10	-1.455146e+01	-6.079894e+01
1.400000e-06	-2.008530e-06	-9.108666e-10	-1.424703e+01	-6.042733e+01
1.410000e-06	-1.965391e-06	-9.056633e-10	-1.394103e+01	-6.004707e+01
1.420000e-06	-1.922123e-06	-8.975945e-10	-1.363412e+01	-5.965835e+01
1.430000e-06	-1.878702e-06	-8.939217e-10	-1.332613e+01	-5.926150e+01
1.440000e-06	-1.835133e-06	-8.955532e-10	-1.301708e+01	-5.885701e+01
1.450000e-06	-1.791517e-06	-8.960332e-10	-1.270770e+01	-5.844543e+01
1.460000e-06	-1.747784e-06	-8.901190e-10	-1.239749e+01	-5.802732e+01
1.470000e-06	-1.703898e-06	-8.825839e-10	-1.208619e+01	-5.760320e+01
1.480000e-06	-1.659960e-06	-8.768744e-10	-1.177453e+01	-5.717344e+01
1.490000e-06	-1.616035e-06	-8.722490e-10	-1.146296e+01	-5.673829e+01
1.500000e-06	-1.572086e-06	-8.644641e-10	-1.115121e+01	-5.629775e+01
1.510000e-06	-1.528005e-06	-8.564067e-10	-1.083854e+01	-5.585162e+01
1.520000e-06	-1.483841e-06	-8.501628e-10	-1.052527e+01	-5.539944e+01
1.530000e-06	-1.439642e-06	-8.456508e-10	-1.021176e+01	-5.494055e+01
1.540000e-06	-1.395353e-06	-8.390231e-10	-9.897605e+00	-5.447405e+01
1.550000e-06	-1.350985e-06	-8.307492e-10	-9.582892e+00	-5.399890e+01
1.560000e-06	-1.306495e-06	-8.228641e-10	-9.267309e+00	-5.351396e+01
1.570000e-06	-1.261952e-06	-8.183299e-10	-8.951358e+00	-5.301802e+01
1.580000e-06	-1.217383e-06	-8.138725e-10	-8.635216e+00	-5.250992e+01
1.590000e-06	-1.172701e-06	-8.064242e-10	-8.318279e+00	-5.198858e+01
1.600000e-06	-1.127882e-06	-7.979251e-10	-8.000363e+00	-5.145309e+01
1.610000e-06	-1.082944e-06	-7.899547e-10	-7.681602e+00	-5.090275e+01
1.620000e-06	-1.037869e-06	-7.799265e-10	-7.361879e+00	-5.033714e+01
1.630000e-06	-9.926859e-07	-7.676733e-10	-7.041381e+00	-4.975611e+01
1.640000e-06	-9.475156e-07	-7.567253e-10	-6.720976e+00	-4.915982e+01
1.650000e-06	-9.022491e-07	-7.495885e-10	-6.399889e+00	-4.854873e+01
1.660000e-06	-8.568477e-07	-7.421717e-10	-6.077845e+00	-4.792358e+01
1.670000e-06	-8.113915e-07	-7.311069e-10	-5.755412e+00	-4.728531e+01
1.680000e-06	-7.659388e-07	-7.213664e-10	-5.433004e+00	-4.663503e+01
1.690000e-06	-7.204596e-07	-7.132794e-10	-5.110409e+00	-4.597393e+01
1.700000e-06	-6.748979e-07	-7.015450e-10	-4.787227e+00	-4.530321e+01
1.710000e-06	-6.293379e-07	-6.870310e-10	-4.464059e+00	-4.462396e+01
1.720000e-06	-5.837475e-07	-6.752618e-10	-4.140674e+00	-4.393710e+01
1.730000e-06	-5.380674e-07	-6.678827e-10	-3.816653e+00	-4.324330e+01
1.740000e-06	-4.923370e-07	-6.590716e-10	-3.492275e+00	-4.254287e+01
1.750000e-06	-4.464533e-07	-6.451247e-10	-3.166810e+00	-4.183575e+01
1.760000e-06	-4.005302e-07	-6.312320e-10	-2.841066e+00	-4.112144e+01
1.770000e-06	-3.546326e-07	-6.164735e-10	-2.515502e+00	-4.039900e+01
1.780000e-06	-3.087210e-07	-6.015126e-10	-2.189839e+00	-3.966703e+01
1.790000e-06	-2.628546e-07	-5.884969e-10	-1.864497e+00	-3.892372e+01
1.800000e-06	-2.170294e-07	-5.790579e-10	-1.539446e+00	-3.816688e+01
1.810000e-06	-1.712262e-07	-5.710395e-10	-1.214552e+00	-3.739403e+01
1.820000e-06	-1.253688e-07	-5.613804e-10	-8.892737e-01	-3.660246e+01
1.830000e-06	-7.951478e-08	-5.470849e-10	-5.640192e-01	-3.578933e+01
1.840000e-06	-3.370355e-08	-5.296474e-10	-2.390681e-01	-3.495176e+01
1.850000e-06	1.212306e-08	-5.120284e-10	8.599206e-02	-3.408698e+01
1.860000e-06	5.795478e-08	-4.971268e-10	4.110885e-01	-3.319236e+01
1.870000e-06	1.037947e-07	-4.850289e-10	7.362432e-01	-3.226554e+01
1.880000e-06	1.496515e-07	-4.751312e-10	1.061518e+00	-3.130451e+01
1.890000e-06	1.955130e-07	-4.652518e-10	1.386825e+00	-3.030767e+01
1.900000e-06	2.413284e-07	-4.541548e-10	1.711806e+00	-2.927384e+01
1.910000e-06	2.871314e-07	-4.364651e-10	2.036698e+00	-2.820232e+01
1.920000e-06	3.329668e-07	-4.125496e-10	2.361821e+00	-2.709287e+01
1.930000e-06	3.787756e-07	-3.877955e-10	2.686755e+00	-2.594570e+01
1.940000e-06	4.245971e-07	-3.635340e-10	3.011779e+00	-2.476142e+01
1.950000e-06	4.703626e-07	-3.422291e-10	3.336405e+00	-2.354098e+01
1.960000e-06	5.160942e-07	-3.262356e-10	3.660791e+00	-2.228562e+01
1.970000e-06	5.617775e-07	-3.146003e-10	3.984835e+00	-2.099679e+01
1.980000e-06	6.074316e-07	-3.025401e-10	4.308671e+00	-1.967605e+01
1.990000e-06	6.530549e-07	-2.839955e-10	4.632289e+00	-1.832504e+01
2.000000e-06	6.985896e-07	-2.574923e-10	4.955279e+00	-1.694534e+01
2.010000e-06	7.441004e-07	-2.302912e-10	5.278099e+00	-1.553848e+01
2.020000e-06	7.894723e-07	-2.054658e-10	5.599934e+00	-1.410585e+01
2.030000e-06	8.347177e-07	-1.801324e-10	5.920871e+00	-1.264866e+01
2.040000e-06	8.799593e-07	-1.554088e-10	6.241782e+00	-1.116797e+01
2.050000e-06	9.251819e-07	-1.344728e-10	6.562558e+00	-9.664629e+00
2.060000e-06	9.704196e-07	-1.167656e-10	6.883440e+00	-8.139339e+00
2.070000e-06	1.015566e-06	-9.763636e-11	7.203673e+00	-6.592660e+00
2.080000e-06	1.060526e-06	-7.292623e-11	7.522588e+00	-5.025057e+00
2.090000e-06	1.105424e-06	-4.629824e-11	7.841062e+00	-3.436954e+00
2.100000e-06	1.150214e-06	-2.113868e-11	8.158767e+00	-1.828782e+00
2.110000e-06	1.194853e-06	2.942465e-12	8.475403e+00	-2.010414e-01
2.120000e-06	1.239377e-06	3.045198e-11	8.791226e+00	1.445655e+00
2.130000e-06	1.283830e-06	5.950477e-11	9.106540e+00	3.110530e+00
2.140000e-06	1.328248e-06	8.395779e-11	9.421610e+00	4.792613e+00
2.150000e-06	1.372589e-06	1.038999e-10	9.736135e+00	6.490712e+00
2.160000e-06	1.416869e-06	1.255369e-10	1.005022e+01	8.203407e+00
2.170000e-06	1.461108e-06	1.504780e-10	1.036402e+01	9.929058e+00
2.180000e-06	1.505281e-06	1.774497e-10	1.067736e+01	1.166582e+01
2.190000e-06	1.549357e-06	2.028528e-10	1.099000e+01	1.341168e+01
2.200000e-06	1.593357e-06	2.285339e-10	1.130210e+01	1.516448e+01
2.210000e-06	1.637321e-06	2.569423e-10	1.161395e+01	1.692201e+01
2.220000e-06	1.681233e-06	2.827781e-10	1.192542e+01	1.868200e+01
2.230000e-06	1.725096e-06	3.067442e-10	1.223656e+01	2.044224e+01
2.240000e-06	1.768893e-06	3.351172e-10	1.254722e+01	2.220057e+01
2.250000e-06	1.812610e-06	3.681864e-10	1.285732e+01	2.395496e+01
2.260000e-06	1.856284e-06	3.981381e-10	1.316711e+01	2.570356e+01
2.270000e-06	1.899877e-06	4.228309e-10	1.347633e+01	2.744466e+01
2.280000e-06	1.943291e-06	4.468245e-10	1.378427e+01	2.917679e+01
2.290000e-06	1.986559e-06	4.726212e-10	1.409118e+01	3.089863e+01
2.300000e-06	2.029714e-06	4.983846e-10	1.439729e+01	3.260904e+01
2.310000e-06	2.072574e-06	5.215084e-10	1.470131e+01	3.430703e+01
2.320000e-06	2.115110e-06	5.459404e-10	1.500303e+01	3.599171e+01
2.330000e-06	2.157362e-06	5.767466e-10	1.530273e+01	3.766224e+01
2.340000e-06	2.199312e-06	6.083878e-10	1.560030e+01	3.931777e+01
2.350000e-06	2.240907e-06	6.339184e-10	1.589534e+01	4.095744e+01
2.360000e-06	2.282190e-06	6.548453e-10	1.618817e+01	4.258026e+01
2.370000e-06	2.323325e-06	6.786921e-10	1.647995e+01	4.418510e+01
2.380000e-06	2.364220e-06	7.047881e-10	1.677003e+01	4.577070e+01
2.390000e-06	2.404847e-06	7.273024e-10	1.705821e+01	4.733557e+01
2.400000e-06	2.445300e-06	7.472143e-10	1.734515e+01	4.887807e+01
2.410000e-06	2.485588e-06	7.707620e-10	1.763093e+01	5.039636e+01
2.420000e-06	2.525741e-06	7.988312e-10	1.791574e+01	5.188847e+01
2.430000e-06	2.565795e-06	8.269271e-10	1.819986e+01	5.335232e+01
2.440000e-06	2.605736e-06	8.501549e-10	1.848317e+01	5.478580e+01
2.450000e-06	2.645591e-06	8.695411e-10	1.876587e+01	5.618680e+01
2.460000e-06	2.685355e-06	8.896409e-10	1.904792e+01	5.755333e+01
2.470000e-06	2.724972e-06	9.119896e-10	1.932894e+01	5.888356e+01
2.480000e-06	2.764393e-06	9.313965e-10	1.960856e+01	6.017590e+01
2.490000e-06	2.803669e-06	9.486417e-10	1.988716e+01	6.142909e+01
2.500000e-06	2.842787e-06	9.672233e-10	2.016463e+01	6.264223e+01
2.510000e-06	2.881542e-06	9.881647e-10	2.043953e+01	6.381483e+01
2.520000e-06	2.920045e-06	1.008077e-09	2.071264e+01	6.494685e+01
2.530000e-06	2.958376e-06	1.026745e-09	2.098453e+01	6.603867e+01
2.540000e-06	2.996501e-06	1.045659e-09	2.125497e+01	6.709114e+01
2.550000e-06	3.034468e-06	1.063451e-09	2.152428e+01	6.810548e+01
2.560000e-06	3.072264e-06	1.078998e-09	2.179238e+01	6.908329e+01
2.570000e-06	3.109845e-06	1.090983e-09	2.205894e+01	7.002644e+01
2.580000e-06	3.147282e-06	1.102504e-09	2.232450e+01	7.093702e+01
2.590000e-06	3.184545e-06	1.114298e-09	2.258881e+01	7.181720e+01
2.600000e-06	3.221377e-06	1.126431e-09	2.285007e+01	7.266923e+01
2.610000e-06	3.257939e-06	1.141212e-09	2.310941e+01	7.349526e+01
2.620000e-06	3.294399e-06	1.158386e-09	2.336804e+01	7.429730e+01
2.630000e-06	3.330658e-06	1.172976e-09	2.362523e+01	7.507710e+01
2.640000e-06	3.366747e-06	1.183534e-09	2.388122e+01	7.583616e+01
2.650000e-06	3.402698e-06	1.192109e-09	2.413623e+01	7.657560e+01
2.660000e-06	3.438548e-06	1.198793e-09	2.439052e+01	7.729617e+01
2.670000e-06	3.474306e-06	1.203723e-09	2.464416e+01	7.799825e+01
2.680000e-06	3.509888e-06	1.208652e-09	2.489656e+01	7.868184e+01
2.690000e-06	3.545191e-06	1.215746e-09	2.514697e+01	7.934660e+01
2.700000e-06	3.580188e-06	1.228022e-09	2.539521e+01	7.999191e+01
2.710000e-06	3.614825e-06	1.244163e-09	2.564090e+01	8.061690e+01
2.720000e-06	3.648895e-06	1.261667e-09	2.588257e+01	8.122057e+01
2.730000e-06	3.682469e-06	1.274767e-09	2.612071e+01	8.180183e+01
2.740000e-06	3.715673e-06	1.283408e-09	2.635624e+01	8.235961e+01
2.750000e-06	3.748476e-06	1.288388e-09	2.658892e+01	8.289293e+01
2.760000e-06	3.780904e-06	1.290575e-09	2.681894e+01	8.340098e+01
2.770000e-06	3.813073e-06	1.288687e-09	2.704713e+01	8.388317e+01
2.780000e-06	3.845100e-06	1.288670e-09	2.727430e+01	8.433920e+01
2.790000e-06	3.876993e-06	1.296332e-09	2.750052e+01	8.476909e+01
2.800000e-06	3.908741e-06	1.306126e-09	2.772572e+01	8.517318e+01
2.810000e-06	3.940335e-06	1.312409e-09	2.794983e+01	8.555215e+01
2.820000e-06	3.971684e-06	1.316237e-09	2.817220e+01	8.590698e+01
2.830000e-06	4.002684e-06	1.321591e-09	2.839209e+01	8.623893e+01
2.840000e-06	4.033300e-06	1.326415e-09	2.860926e+01	8.654948e+01
2.850000e-06	4.063669e-06	1.326734e-09	2.882467e+01	8.684031e+01
2.860000e-06	4.093871e-06	1.324068e-09	2.903890e+01	8.711315e+01
2.870000e-06	4.123871e-06	1.323877e-09	2.925170e+01	8.736980e+01
2.880000e-06	4.153535e-06	1.328916e-09	2.946211e+01	8.761202e+01
2.890000e-06	4.182870e-06	1.333154e-09	2.967020e+01	8.784145e+01
2.900000e-06	4.211931e-06	1.333333e-09	2.987633e+01	8.805959e+01
