# Temperatura_=_7.18
# Concentracion g/m^3_=_4090.0
# C_Vs_to_Am_M_A/Vsm_=_65563218390.804596
# pendiente_HvsI_1/m_=_3716.3
# ordenada_HvsI_A/m_=_1297.0
# frecuencia_Hz_=_135086.78110220275

Tiempo_(s)	Campo_(V.s)	Magnetizacion_(V.s)	Campo_(kA/m)	Magnetizacion_(A/m)
0.000000e+00	-5.407598e-06	-1.341784e-09	-3.838171e+01	-9.125448e+01
1.000000e-08	-5.407675e-06	-1.340285e-09	-3.838226e+01	-9.109968e+01
2.000000e-08	-5.407548e-06	-1.339028e-09	-3.838135e+01	-9.092617e+01
3.000000e-08	-5.407094e-06	-1.335576e-09	-3.837814e+01	-9.073523e+01
4.000000e-08	-5.406174e-06	-1.331111e-09	-3.837161e+01	-9.052918e+01
5.000000e-08	-5.404756e-06	-1.327938e-09	-3.836154e+01	-9.031144e+01
6.000000e-08	-5.402819e-06	-1.328341e-09	-3.834779e+01	-9.008642e+01
7.000000e-08	-5.400265e-06	-1.331412e-09	-3.832966e+01	-8.985945e+01
8.000000e-08	-5.397053e-06	-1.340743e-09	-3.830687e+01	-8.963655e+01
9.000000e-08	-5.393178e-06	-1.345108e-09	-3.827936e+01	-8.942429e+01
1.000000e-07	-5.388940e-06	-1.356280e-09	-3.824928e+01	-8.922951e+01
1.100000e-07	-5.384562e-06	-1.362188e-09	-3.821820e+01	-8.905907e+01
1.200000e-07	-5.380010e-06	-1.345237e-09	-3.818590e+01	-8.891955e+01
1.300000e-07	-5.375160e-06	-1.315818e-09	-3.815147e+01	-8.881696e+01
1.400000e-07	-5.369807e-06	-1.332125e-09	-3.811348e+01	-8.875652e+01
1.500000e-07	-5.364033e-06	-1.349699e-09	-3.807250e+01	-8.874235e+01
1.600000e-07	-5.358039e-06	-1.358108e-09	-3.802995e+01	-8.877731e+01
1.700000e-07	-5.351656e-06	-1.314256e-09	-3.798465e+01	-8.886280e+01
1.800000e-07	-5.344820e-06	-1.350710e-09	-3.793613e+01	-8.899869e+01
1.900000e-07	-5.337663e-06	-1.387579e-09	-3.788533e+01	-8.918323e+01
2.000000e-07	-5.330220e-06	-1.394772e-09	-3.783250e+01	-8.941312e+01
2.100000e-07	-5.322554e-06	-1.351390e-09	-3.777809e+01	-8.968354e+01
2.200000e-07	-5.314579e-06	-1.394267e-09	-3.772149e+01	-8.998835e+01
2.300000e-07	-5.306337e-06	-1.450419e-09	-3.766299e+01	-9.032025e+01
2.400000e-07	-5.297785e-06	-1.443983e-09	-3.760229e+01	-9.067102e+01
2.500000e-07	-5.288488e-06	-1.441295e-09	-3.753630e+01	-9.103186e+01
2.600000e-07	-5.278438e-06	-1.486279e-09	-3.746497e+01	-9.139365e+01
2.700000e-07	-5.267993e-06	-1.517107e-09	-3.739083e+01	-9.174727e+01
2.800000e-07	-5.257046e-06	-1.469170e-09	-3.731313e+01	-9.208394e+01
2.900000e-07	-5.245555e-06	-1.450270e-09	-3.723157e+01	-9.239552e+01
3.000000e-07	-5.233695e-06	-1.467585e-09	-3.714739e+01	-9.267477e+01
3.100000e-07	-5.221388e-06	-1.479406e-09	-3.706004e+01	-9.291558e+01
3.200000e-07	-5.208693e-06	-1.455934e-09	-3.696994e+01	-9.311313e+01
3.300000e-07	-5.195607e-06	-1.482956e-09	-3.687706e+01	-9.326407e+01
3.400000e-07	-5.182176e-06	-1.480256e-09	-3.678172e+01	-9.336652e+01
3.500000e-07	-5.168466e-06	-1.471983e-09	-3.668442e+01	-9.342010e+01
3.600000e-07	-5.154335e-06	-1.459436e-09	-3.658412e+01	-9.342586e+01
3.700000e-07	-5.139767e-06	-1.472863e-09	-3.648072e+01	-9.338618e+01
3.800000e-07	-5.124675e-06	-1.431198e-09	-3.637360e+01	-9.330456e+01
3.900000e-07	-5.108942e-06	-1.427012e-09	-3.626193e+01	-9.318544e+01
4.000000e-07	-5.092690e-06	-1.446656e-09	-3.614658e+01	-9.303399e+01
4.100000e-07	-5.076022e-06	-1.463990e-09	-3.602827e+01	-9.285580e+01
4.200000e-07	-5.058870e-06	-1.437901e-09	-3.590653e+01	-9.265666e+01
4.300000e-07	-5.041488e-06	-1.443655e-09	-3.578316e+01	-9.244230e+01
4.400000e-07	-5.023957e-06	-1.445700e-09	-3.565873e+01	-9.221814e+01
4.500000e-07	-5.006065e-06	-1.431815e-09	-3.553174e+01	-9.198914e+01
4.600000e-07	-4.987885e-06	-1.413558e-09	-3.540270e+01	-9.175957e+01
4.700000e-07	-4.969393e-06	-1.415998e-09	-3.527145e+01	-9.153290e+01
4.800000e-07	-4.950432e-06	-1.417013e-09	-3.513687e+01	-9.131178e+01
4.900000e-07	-4.930984e-06	-1.422049e-09	-3.499883e+01	-9.109792e+01
5.000000e-07	-4.911219e-06	-1.423086e-09	-3.485854e+01	-9.089220e+01
5.100000e-07	-4.891306e-06	-1.414937e-09	-3.471721e+01	-9.069466e+01
5.200000e-07	-4.871197e-06	-1.414740e-09	-3.457448e+01	-9.050462e+01
5.300000e-07	-4.850852e-06	-1.414991e-09	-3.443008e+01	-9.032084e+01
5.400000e-07	-4.830214e-06	-1.406048e-09	-3.428359e+01	-9.014161e+01
5.500000e-07	-4.809184e-06	-1.392348e-09	-3.413433e+01	-8.996497e+01
5.600000e-07	-4.787736e-06	-1.395642e-09	-3.398209e+01	-8.978881e+01
5.700000e-07	-4.765938e-06	-1.395145e-09	-3.382737e+01	-8.961108e+01
5.800000e-07	-4.743838e-06	-1.395429e-09	-3.367052e+01	-8.942991e+01
5.900000e-07	-4.721432e-06	-1.388021e-09	-3.351148e+01	-8.924370e+01
6.000000e-07	-4.698697e-06	-1.387219e-09	-3.335012e+01	-8.905126e+01
6.100000e-07	-4.675721e-06	-1.387622e-09	-3.318704e+01	-8.885184e+01
6.200000e-07	-4.652464e-06	-1.392970e-09	-3.302197e+01	-8.864512e+01
6.300000e-07	-4.628849e-06	-1.376981e-09	-3.285436e+01	-8.843130e+01
6.400000e-07	-4.605004e-06	-1.369963e-09	-3.268511e+01	-8.821094e+01
6.500000e-07	-4.580936e-06	-1.371230e-09	-3.251428e+01	-8.798500e+01
6.600000e-07	-4.556666e-06	-1.375153e-09	-3.234202e+01	-8.775470e+01
6.700000e-07	-4.532115e-06	-1.364725e-09	-3.216776e+01	-8.752142e+01
6.800000e-07	-4.507101e-06	-1.366761e-09	-3.199022e+01	-8.728661e+01
6.900000e-07	-4.481585e-06	-1.367337e-09	-3.180911e+01	-8.705168e+01
7.000000e-07	-4.455493e-06	-1.370378e-09	-3.162392e+01	-8.681790e+01
7.100000e-07	-4.428854e-06	-1.361711e-09	-3.143485e+01	-8.658630e+01
7.200000e-07	-4.401807e-06	-1.352517e-09	-3.124287e+01	-8.635763e+01
7.300000e-07	-4.374459e-06	-1.341099e-09	-3.104876e+01	-8.613227e+01
7.400000e-07	-4.346840e-06	-1.340530e-09	-3.085273e+01	-8.591023e+01
7.500000e-07	-4.318973e-06	-1.338367e-09	-3.065494e+01	-8.569118e+01
7.600000e-07	-4.290980e-06	-1.338383e-09	-3.045625e+01	-8.547443e+01
7.700000e-07	-4.262829e-06	-1.340245e-09	-3.025644e+01	-8.525901e+01
7.800000e-07	-4.234393e-06	-1.342539e-09	-3.005461e+01	-8.504372e+01
7.900000e-07	-4.205601e-06	-1.336592e-09	-2.985025e+01	-8.482725e+01
8.000000e-07	-4.176425e-06	-1.325926e-09	-2.964317e+01	-8.460821e+01
8.100000e-07	-4.146884e-06	-1.314316e-09	-2.943349e+01	-8.438528e+01
8.200000e-07	-4.117122e-06	-1.307584e-09	-2.922225e+01	-8.415726e+01
8.300000e-07	-4.087196e-06	-1.307606e-09	-2.900984e+01	-8.392319e+01
8.400000e-07	-4.057037e-06	-1.306146e-09	-2.879578e+01	-8.368236e+01
8.500000e-07	-4.026619e-06	-1.306988e-09	-2.857989e+01	-8.343441e+01
8.600000e-07	-3.995879e-06	-1.308636e-09	-2.836170e+01	-8.317933e+01
8.700000e-07	-3.964793e-06	-1.309657e-09	-2.814106e+01	-8.291746e+01
8.800000e-07	-3.933446e-06	-1.299557e-09	-2.791856e+01	-8.264948e+01
8.900000e-07	-3.901892e-06	-1.286922e-09	-2.769460e+01	-8.237636e+01
9.000000e-07	-3.870166e-06	-1.275522e-09	-2.746942e+01	-8.209932e+01
9.100000e-07	-3.838265e-06	-1.274377e-09	-2.724300e+01	-8.181975e+01
9.200000e-07	-3.806208e-06	-1.274011e-09	-2.701546e+01	-8.153908e+01
9.300000e-07	-3.773993e-06	-1.278024e-09	-2.678681e+01	-8.125876e+01
9.400000e-07	-3.741549e-06	-1.279832e-09	-2.655653e+01	-8.098015e+01
9.500000e-07	-3.708724e-06	-1.279342e-09	-2.632355e+01	-8.070439e+01
9.600000e-07	-3.675399e-06	-1.270132e-09	-2.608702e+01	-8.043240e+01
9.700000e-07	-3.641543e-06	-1.254801e-09	-2.584671e+01	-8.016478e+01
9.800000e-07	-3.607313e-06	-1.239127e-09	-2.560376e+01	-7.990177e+01
9.900000e-07	-3.572800e-06	-1.235982e-09	-2.535880e+01	-7.964325e+01
1.000000e-06	-3.537820e-06	-1.235909e-09	-2.511052e+01	-7.938876e+01
1.010000e-06	-3.502437e-06	-1.238855e-09	-2.485938e+01	-7.913748e+01
1.020000e-06	-3.466836e-06	-1.241032e-09	-2.460670e+01	-7.888831e+01
1.030000e-06	-3.431113e-06	-1.242524e-09	-2.435314e+01	-7.863993e+01
1.040000e-06	-3.395263e-06	-1.234005e-09	-2.409868e+01	-7.839084e+01
1.050000e-06	-3.359210e-06	-1.220366e-09	-2.384279e+01	-7.813952e+01
1.060000e-06	-3.322992e-06	-1.205895e-09	-2.358573e+01	-7.788442e+01
1.070000e-06	-3.286672e-06	-1.200180e-09	-2.332793e+01	-7.762411e+01
1.080000e-06	-3.250167e-06	-1.200168e-09	-2.306884e+01	-7.735736e+01
1.090000e-06	-3.213409e-06	-1.202676e-09	-2.280793e+01	-7.708315e+01
1.100000e-06	-3.176385e-06	-1.204860e-09	-2.254515e+01	-7.680078e+01
1.110000e-06	-3.139086e-06	-1.203207e-09	-2.228041e+01	-7.650990e+01
1.120000e-06	-3.101508e-06	-1.193524e-09	-2.201369e+01	-7.621048e+01
1.130000e-06	-3.063697e-06	-1.177550e-09	-2.174532e+01	-7.590286e+01
1.140000e-06	-3.025781e-06	-1.164258e-09	-2.147620e+01	-7.558767e+01
1.150000e-06	-2.987713e-06	-1.159686e-09	-2.120600e+01	-7.526586e+01
1.160000e-06	-2.949487e-06	-1.162168e-09	-2.093468e+01	-7.493856e+01
1.170000e-06	-2.911051e-06	-1.163943e-09	-2.066188e+01	-7.460707e+01
1.180000e-06	-2.872433e-06	-1.162708e-09	-2.038778e+01	-7.427278e+01
1.190000e-06	-2.833481e-06	-1.155851e-09	-2.011130e+01	-7.393705e+01
1.200000e-06	-2.794190e-06	-1.147462e-09	-1.983243e+01	-7.360117e+01
1.210000e-06	-2.754698e-06	-1.136574e-09	-1.955212e+01	-7.326630e+01
1.220000e-06	-2.715047e-06	-1.129270e-09	-1.927069e+01	-7.293336e+01
1.230000e-06	-2.675363e-06	-1.124547e-09	-1.898902e+01	-7.260305e+01
1.240000e-06	-2.635521e-06	-1.123434e-09	-1.870623e+01	-7.227573e+01
1.250000e-06	-2.595580e-06	-1.118431e-09	-1.842275e+01	-7.195152e+01
1.260000e-06	-2.555588e-06	-1.114401e-09	-1.813889e+01	-7.163018e+01
1.270000e-06	-2.515515e-06	-1.109684e-09	-1.785446e+01	-7.131124e+01
1.280000e-06	-2.475373e-06	-1.105126e-09	-1.756955e+01	-7.099396e+01
1.290000e-06	-2.435148e-06	-1.097702e-09	-1.728404e+01	-7.067741e+01
1.300000e-06	-2.394756e-06	-1.090484e-09	-1.699735e+01	-7.036051e+01
1.310000e-06	-2.354099e-06	-1.083082e-09	-1.670878e+01	-7.004210e+01
1.320000e-06	-2.313209e-06	-1.077843e-09	-1.641855e+01	-6.972101e+01
1.330000e-06	-2.272221e-06	-1.073554e-09	-1.612763e+01	-6.939611e+01
1.340000e-06	-2.230986e-06	-1.071141e-09	-1.583495e+01	-6.906636e+01
1.350000e-06	-2.189259e-06	-1.068342e-09	-1.553878e+01	-6.873088e+01
1.360000e-06	-2.147094e-06	-1.066559e-09	-1.523951e+01	-6.838896e+01
1.370000e-06	-2.104721e-06	-1.062396e-09	-1.493876e+01	-6.804007e+01
1.380000e-06	-2.062345e-06	-1.056094e-09	-1.463798e+01	-6.768390e+01
1.390000e-06	-2.019759e-06	-1.050507e-09	-1.433572e+01	-6.732035e+01
1.400000e-06	-1.976721e-06	-1.044659e-09	-1.403025e+01	-6.694948e+01
1.410000e-06	-1.933484e-06	-1.036724e-09	-1.372336e+01	-6.657152e+01
1.420000e-06	-1.890231e-06	-1.029311e-09	-1.341636e+01	-6.618677e+01
1.430000e-06	-1.846881e-06	-1.025132e-09	-1.310868e+01	-6.579565e+01
1.440000e-06	-1.803374e-06	-1.021664e-09	-1.279988e+01	-6.539857e+01
1.450000e-06	-1.759688e-06	-1.017076e-09	-1.248981e+01	-6.499591e+01
1.460000e-06	-1.715816e-06	-1.010263e-09	-1.217841e+01	-6.458800e+01
1.470000e-06	-1.671832e-06	-1.005786e-09	-1.186623e+01	-6.417509e+01
1.480000e-06	-1.627828e-06	-1.001310e-09	-1.155390e+01	-6.375726e+01
1.490000e-06	-1.583818e-06	-9.946563e-10	-1.124153e+01	-6.333450e+01
1.500000e-06	-1.539770e-06	-9.856033e-10	-1.092888e+01	-6.290664e+01
1.510000e-06	-1.495598e-06	-9.788028e-10	-1.061536e+01	-6.247339e+01
1.520000e-06	-1.451371e-06	-9.707747e-10	-1.030145e+01	-6.203435e+01
1.530000e-06	-1.407098e-06	-9.593858e-10	-9.987215e+00	-6.158903e+01
1.540000e-06	-1.362743e-06	-9.441527e-10	-9.672395e+00	-6.113691e+01
1.550000e-06	-1.318341e-06	-9.344092e-10	-9.357239e+00	-6.067746e+01
1.560000e-06	-1.273843e-06	-9.301731e-10	-9.041402e+00	-6.021017e+01
1.570000e-06	-1.229178e-06	-9.302649e-10	-8.724383e+00	-5.973462e+01
1.580000e-06	-1.184440e-06	-9.285536e-10	-8.406847e+00	-5.925046e+01
1.590000e-06	-1.139724e-06	-9.221730e-10	-8.089463e+00	-5.875750e+01
1.600000e-06	-1.094900e-06	-9.121635e-10	-7.771315e+00	-5.825565e+01
1.610000e-06	-1.049943e-06	-8.984535e-10	-7.452220e+00	-5.774499e+01
1.620000e-06	-1.004850e-06	-8.815379e-10	-7.132162e+00	-5.722570e+01
1.630000e-06	-9.596877e-07	-8.669246e-10	-6.811611e+00	-5.669808e+01
1.640000e-06	-9.144728e-07	-8.580121e-10	-6.490688e+00	-5.616250e+01
1.650000e-06	-8.691655e-07	-8.556085e-10	-6.169109e+00	-5.561934e+01
1.660000e-06	-8.238592e-07	-8.507494e-10	-5.847536e+00	-5.506897e+01
1.670000e-06	-7.785064e-07	-8.452852e-10	-5.525634e+00	-5.451169e+01
1.680000e-06	-7.330840e-07	-8.407644e-10	-5.203238e+00	-5.394763e+01
1.690000e-06	-6.875563e-07	-8.309058e-10	-4.880094e+00	-5.337678e+01
1.700000e-06	-6.419540e-07	-8.137067e-10	-4.556421e+00	-5.279887e+01
1.710000e-06	-5.963643e-07	-7.958890e-10	-4.232837e+00	-5.221337e+01
1.720000e-06	-5.507599e-07	-7.848259e-10	-3.909149e+00	-5.161947e+01
1.730000e-06	-5.050872e-07	-7.784089e-10	-3.584976e+00	-5.101606e+01
1.740000e-06	-4.593615e-07	-7.732007e-10	-3.260428e+00	-5.040172e+01
1.750000e-06	-4.135980e-07	-7.675748e-10	-2.935610e+00	-4.977477e+01
1.760000e-06	-3.677716e-07	-7.612396e-10	-2.610347e+00	-4.913329e+01
1.770000e-06	-3.219120e-07	-7.500697e-10	-2.284847e+00	-4.847518e+01
1.780000e-06	-2.760544e-07	-7.352511e-10	-1.959362e+00	-4.779820e+01
1.790000e-06	-2.301653e-07	-7.180257e-10	-1.633653e+00	-4.710006e+01
1.800000e-06	-1.842684e-07	-7.029151e-10	-1.307889e+00	-4.637849e+01
1.810000e-06	-1.383801e-07	-6.899213e-10	-9.821857e-01	-4.563131e+01
1.820000e-06	-9.243969e-08	-6.770643e-10	-6.561126e-01	-4.485651e+01
1.830000e-06	-4.654578e-08	-6.636202e-10	-3.303697e-01	-4.405230e+01
1.840000e-06	-7.217334e-10	-6.548146e-10	-5.122674e-03	-4.321718e+01
1.850000e-06	4.510252e-08	-6.501786e-10	3.201258e-01	-4.234997e+01
1.860000e-06	9.099373e-08	-6.424434e-10	6.458496e-01	-4.144986e+01
1.870000e-06	1.368587e-07	-6.253656e-10	9.713874e-01	-4.051638e+01
1.880000e-06	1.827203e-07	-6.068628e-10	1.296901e+00	-3.954946e+01
1.890000e-06	2.286092e-07	-5.901598e-10	1.622608e+00	-3.854932e+01
1.900000e-06	2.744436e-07	-5.724701e-10	1.947928e+00	-3.751651e+01
1.910000e-06	3.202398e-07	-5.520600e-10	2.272978e+00	-3.645182e+01
1.920000e-06	3.660453e-07	-5.331192e-10	2.598093e+00	-3.535624e+01
1.930000e-06	4.118320e-07	-5.190849e-10	2.923076e+00	-3.423086e+01
1.940000e-06	4.575816e-07	-5.055835e-10	3.247794e+00	-3.307684e+01
1.950000e-06	5.033356e-07	-4.873714e-10	3.572544e+00	-3.189532e+01
1.960000e-06	5.490257e-07	-4.673846e-10	3.896840e+00	-3.068736e+01
1.970000e-06	5.946234e-07	-4.495281e-10	4.220481e+00	-2.945389e+01
1.980000e-06	6.402168e-07	-4.319498e-10	4.544091e+00	-2.819566e+01
1.990000e-06	6.858330e-07	-4.106617e-10	4.867863e+00	-2.691318e+01
2.000000e-06	7.313845e-07	-3.886461e-10	5.191175e+00	-2.560677e+01
2.010000e-06	7.768214e-07	-3.696026e-10	5.513674e+00	-2.427648e+01
2.020000e-06	8.221169e-07	-3.516967e-10	5.835170e+00	-2.292216e+01
2.030000e-06	8.674153e-07	-3.319047e-10	6.156686e+00	-2.154343e+01
2.040000e-06	9.126671e-07	-3.101342e-10	6.477872e+00	-2.013978e+01
2.050000e-06	9.577994e-07	-2.903914e-10	6.798209e+00	-1.871056e+01
2.060000e-06	1.002850e-06	-2.694308e-10	7.117967e+00	-1.725506e+01
2.070000e-06	1.047808e-06	-2.442295e-10	7.437068e+00	-1.577254e+01
2.080000e-06	1.092765e-06	-2.147205e-10	7.756161e+00	-1.426233e+01
2.090000e-06	1.137553e-06	-1.877542e-10	8.074055e+00	-1.272383e+01
2.100000e-06	1.182247e-06	-1.658070e-10	8.391277e+00	-1.115659e+01
2.110000e-06	1.226889e-06	-1.422945e-10	8.708134e+00	-9.560348e+00
2.120000e-06	1.271341e-06	-1.150083e-10	9.023645e+00	-7.935034e+00
2.130000e-06	1.315745e-06	-9.002808e-11	9.338811e+00	-6.280815e+00
2.140000e-06	1.360124e-06	-6.806385e-11	9.653806e+00	-4.598093e+00
2.150000e-06	1.404391e-06	-4.416318e-11	9.967998e+00	-2.887507e+00
2.160000e-06	1.448636e-06	-1.502258e-11	1.028204e+01	-1.149922e+00
2.170000e-06	1.492878e-06	1.657958e-11	1.059606e+01	6.135894e-01
2.180000e-06	1.537012e-06	4.431842e-11	1.090931e+01	2.401766e+00
2.190000e-06	1.581068e-06	6.869490e-11	1.122200e+01	4.213186e+00
2.200000e-06	1.625112e-06	9.511664e-11	1.153462e+01	6.046292e+00
2.210000e-06	1.669167e-06	1.223732e-10	1.184731e+01	7.899419e+00
2.220000e-06	1.713172e-06	1.496078e-10	1.215964e+01	9.770808e+00
2.230000e-06	1.757064e-06	1.796108e-10	1.247118e+01	1.165863e+01
2.240000e-06	1.800838e-06	2.149168e-10	1.278188e+01	1.356099e+01
2.250000e-06	1.844465e-06	2.514190e-10	1.309153e+01	1.547594e+01
2.260000e-06	1.887926e-06	2.841762e-10	1.340000e+01	1.740146e+01
2.270000e-06	1.931287e-06	3.128622e-10	1.370777e+01	1.933547e+01
2.280000e-06	1.974449e-06	3.417715e-10	1.401412e+01	2.127580e+01
2.290000e-06	2.017405e-06	3.718488e-10	1.431901e+01	2.322019e+01
2.300000e-06	2.060206e-06	3.993308e-10	1.462280e+01	2.516625e+01
2.310000e-06	2.102768e-06	4.257204e-10	1.492490e+01	2.711149e+01
2.320000e-06	2.145032e-06	4.562866e-10	1.522487e+01	2.905328e+01
2.330000e-06	2.186947e-06	4.895401e-10	1.552238e+01	3.098885e+01
2.340000e-06	2.228514e-06	5.202180e-10	1.581741e+01	3.291529e+01
2.350000e-06	2.269875e-06	5.490719e-10	1.611098e+01	3.482958e+01
2.360000e-06	2.311033e-06	5.785578e-10	1.640310e+01	3.672864e+01
2.370000e-06	2.351821e-06	6.121616e-10	1.669261e+01	3.860928e+01
2.380000e-06	2.392338e-06	6.442457e-10	1.698019e+01	4.046835e+01
2.390000e-06	2.432767e-06	6.693186e-10	1.726714e+01	4.230270e+01
2.400000e-06	2.473023e-06	6.913130e-10	1.755287e+01	4.410929e+01
2.410000e-06	2.513153e-06	7.158730e-10	1.783770e+01	4.588526e+01
2.420000e-06	2.553247e-06	7.445645e-10	1.812227e+01	4.762793e+01
2.430000e-06	2.593175e-06	7.743555e-10	1.840568e+01	4.933491e+01
2.440000e-06	2.633018e-06	8.029510e-10	1.868847e+01	5.100413e+01
2.450000e-06	2.672826e-06	8.311936e-10	1.897101e+01	5.263391e+01
2.460000e-06	2.712483e-06	8.593547e-10	1.925250e+01	5.422294e+01
2.470000e-06	2.751919e-06	8.823497e-10	1.953240e+01	5.577033e+01
2.480000e-06	2.791118e-06	8.980037e-10	1.981062e+01	5.727561e+01
2.490000e-06	2.830071e-06	9.139808e-10	2.008710e+01	5.873872e+01
2.500000e-06	2.868848e-06	9.346321e-10	2.036233e+01	6.015996e+01
2.510000e-06	2.907552e-06	9.599866e-10	2.063704e+01	6.153997e+01
2.520000e-06	2.946050e-06	9.877635e-10	2.091029e+01	6.287964e+01
2.530000e-06	2.984286e-06	1.015308e-09	2.118168e+01	6.418010e+01
2.540000e-06	3.022327e-06	1.040806e-09	2.145169e+01	6.544261e+01
2.550000e-06	3.060199e-06	1.059163e-09	2.172049e+01	6.666846e+01
2.560000e-06	3.097878e-06	1.069956e-09	2.198793e+01	6.785899e+01
2.570000e-06	3.135273e-06	1.077369e-09	2.225334e+01	6.901542e+01
2.580000e-06	3.172406e-06	1.087862e-09	2.251690e+01	7.013886e+01
2.590000e-06	3.209348e-06	1.104435e-09	2.277911e+01	7.123021e+01
2.600000e-06	3.246071e-06	1.125683e-09	2.303976e+01	7.229020e+01
2.610000e-06	3.282569e-06	1.150696e-09	2.329881e+01	7.331930e+01
2.620000e-06	3.318881e-06	1.176194e-09	2.355655e+01	7.431776e+01
2.630000e-06	3.355023e-06	1.194411e-09	2.381307e+01	7.528561e+01
2.640000e-06	3.391041e-06	1.202739e-09	2.406872e+01	7.622269e+01
2.650000e-06	3.426945e-06	1.204991e-09	2.432356e+01	7.712872e+01
2.660000e-06	3.462727e-06	1.206788e-09	2.457753e+01	7.800330e+01
2.670000e-06	3.498293e-06	1.213645e-09	2.482997e+01	7.884603e+01
2.680000e-06	3.533721e-06	1.223006e-09	2.508142e+01	7.965653e+01
2.690000e-06	3.569005e-06	1.236931e-09	2.533186e+01	8.043452e+01
2.700000e-06	3.603805e-06	1.257914e-09	2.557886e+01	8.117987e+01
2.710000e-06	3.637990e-06	1.277922e-09	2.582150e+01	8.189265e+01
2.720000e-06	3.671621e-06	1.289153e-09	2.606020e+01	8.257317e+01
2.730000e-06	3.704805e-06	1.294247e-09	2.629573e+01	8.322199e+01
2.740000e-06	3.737697e-06	1.299920e-09	2.652919e+01	8.383994e+01
2.750000e-06	3.770336e-06	1.306249e-09	2.676086e+01	8.442811e+01
2.760000e-06	3.802737e-06	1.311243e-09	2.699083e+01	8.498779e+01
2.770000e-06	3.834850e-06	1.314836e-09	2.721876e+01	8.552050e+01
2.780000e-06	3.866766e-06	1.324637e-09	2.744529e+01	8.602787e+01
2.790000e-06	3.898535e-06	1.340166e-09	2.767078e+01	8.651162e+01
2.800000e-06	3.930055e-06	1.349703e-09	2.789450e+01	8.697347e+01
2.810000e-06	3.961351e-06	1.352067e-09	2.811663e+01	8.741509e+01
2.820000e-06	3.992354e-06	1.352539e-09	2.833668e+01	8.783804e+01
2.830000e-06	4.023067e-06	1.356495e-09	2.855467e+01	8.824369e+01
2.840000e-06	4.053539e-06	1.362349e-09	2.877095e+01	8.863320e+01
2.850000e-06	4.083787e-06	1.365489e-09	2.898565e+01	8.900746e+01
2.860000e-06	4.113769e-06	1.367393e-09	2.919845e+01	8.936710e+01
2.870000e-06	4.143472e-06	1.373841e-09	2.940928e+01	8.971246e+01
2.880000e-06	4.172912e-06	1.383729e-09	2.961824e+01	9.004362e+01
2.890000e-06	4.202098e-06	1.386250e-09	2.982539e+01	9.036042e+01
2.900000e-06	4.230963e-06	1.384720e-09	3.003026e+01	9.066251e+01
