# Temperatura_=_16.2
# Concentracion g/m^3_=_4090.0
# C_Vs_to_Am_M_A/Vsm_=_65563218390.804596
# pendiente_HvsI_1/m_=_3716.3
# ordenada_HvsI_A/m_=_1297.0
# frecuencia_Hz_=_135086.48965514847

Tiempo_(s)	Campo_(V.s)	Magnetizacion_(V.s)	Campo_(kA/m)	Magnetizacion_(A/m)
0.000000e+00	-5.411539e-06	-1.247364e-09	-3.838567e+01	-8.321643e+01
1.000000e-08	-5.411596e-06	-1.240616e-09	-3.838607e+01	-8.313538e+01
2.000000e-08	-5.411361e-06	-1.235389e-09	-3.838441e+01	-8.303750e+01
3.000000e-08	-5.410858e-06	-1.233578e-09	-3.838083e+01	-8.292223e+01
4.000000e-08	-5.410114e-06	-1.236032e-09	-3.837556e+01	-8.278990e+01
5.000000e-08	-5.408847e-06	-1.243301e-09	-3.836657e+01	-8.264176e+01
6.000000e-08	-5.406903e-06	-1.263981e-09	-3.835279e+01	-8.247997e+01
7.000000e-08	-5.404303e-06	-1.272656e-09	-3.833434e+01	-8.230755e+01
8.000000e-08	-5.401014e-06	-1.234125e-09	-3.831101e+01	-8.212830e+01
9.000000e-08	-5.397244e-06	-1.157210e-09	-3.828427e+01	-8.194663e+01
1.000000e-07	-5.393105e-06	-1.187399e-09	-3.825491e+01	-8.176741e+01
1.100000e-07	-5.388746e-06	-1.262359e-09	-3.822399e+01	-8.159576e+01
1.200000e-07	-5.384240e-06	-1.305295e-09	-3.819203e+01	-8.143681e+01
1.300000e-07	-5.379425e-06	-1.146786e-09	-3.815787e+01	-8.129549e+01
1.400000e-07	-5.374236e-06	-1.186760e-09	-3.812106e+01	-8.117630e+01
1.500000e-07	-5.368650e-06	-1.298582e-09	-3.808144e+01	-8.108309e+01
1.600000e-07	-5.362704e-06	-1.352656e-09	-3.803927e+01	-8.101885e+01
1.700000e-07	-5.356368e-06	-1.132914e-09	-3.799432e+01	-8.098560e+01
1.800000e-07	-5.349604e-06	-1.086721e-09	-3.794635e+01	-8.098423e+01
1.900000e-07	-5.342455e-06	-1.238274e-09	-3.789564e+01	-8.101448e+01
2.000000e-07	-5.335092e-06	-1.293835e-09	-3.784341e+01	-8.107487e+01
2.100000e-07	-5.327539e-06	-1.185124e-09	-3.778983e+01	-8.116279e+01
2.200000e-07	-5.319685e-06	-1.164247e-09	-3.773412e+01	-8.127457e+01
2.300000e-07	-5.311456e-06	-1.290281e-09	-3.767575e+01	-8.140561e+01
2.400000e-07	-5.302793e-06	-1.242209e-09	-3.761430e+01	-8.155056e+01
2.500000e-07	-5.293520e-06	-1.201507e-09	-3.754852e+01	-8.170356e+01
2.600000e-07	-5.283524e-06	-1.229087e-09	-3.747762e+01	-8.185843e+01
2.700000e-07	-5.273086e-06	-1.312506e-09	-3.740358e+01	-8.200894e+01
2.800000e-07	-5.262181e-06	-1.205553e-09	-3.732623e+01	-8.214905e+01
2.900000e-07	-5.250745e-06	-1.203763e-09	-3.724511e+01	-8.227315e+01
3.000000e-07	-5.238831e-06	-1.274494e-09	-3.716060e+01	-8.237623e+01
3.100000e-07	-5.226507e-06	-1.294006e-09	-3.707318e+01	-8.245414e+01
3.200000e-07	-5.213727e-06	-1.160803e-09	-3.698253e+01	-8.250363e+01
3.300000e-07	-5.200657e-06	-1.217880e-09	-3.688982e+01	-8.252253e+01
3.400000e-07	-5.187396e-06	-1.290303e-09	-3.679576e+01	-8.250973e+01
3.500000e-07	-5.173779e-06	-1.289483e-09	-3.669917e+01	-8.246520e+01
3.600000e-07	-5.159728e-06	-1.212446e-09	-3.659950e+01	-8.238993e+01
3.700000e-07	-5.145090e-06	-1.269581e-09	-3.649567e+01	-8.228584e+01
3.800000e-07	-5.129847e-06	-1.250900e-09	-3.638754e+01	-8.215561e+01
3.900000e-07	-5.114064e-06	-1.228116e-09	-3.627559e+01	-8.200256e+01
4.000000e-07	-5.097730e-06	-1.229228e-09	-3.615973e+01	-8.183040e+01
4.100000e-07	-5.080828e-06	-1.245815e-09	-3.603983e+01	-8.164308e+01
4.200000e-07	-5.063605e-06	-1.209043e-09	-3.591767e+01	-8.144458e+01
4.300000e-07	-5.046352e-06	-1.243536e-09	-3.579528e+01	-8.123869e+01
4.400000e-07	-5.028870e-06	-1.293983e-09	-3.567128e+01	-8.102885e+01
4.500000e-07	-5.011031e-06	-1.241514e-09	-3.554474e+01	-8.081806e+01
4.600000e-07	-4.992913e-06	-1.198215e-09	-3.541623e+01	-8.060867e+01
4.700000e-07	-4.974444e-06	-1.223003e-09	-3.528522e+01	-8.040240e+01
4.800000e-07	-4.955501e-06	-1.243670e-09	-3.515086e+01	-8.020027e+01
4.900000e-07	-4.936157e-06	-1.190585e-09	-3.501364e+01	-8.000262e+01
5.000000e-07	-4.916507e-06	-1.191656e-09	-3.487426e+01	-7.980914e+01
5.100000e-07	-4.896542e-06	-1.202273e-09	-3.473264e+01	-7.961900e+01
5.200000e-07	-4.876356e-06	-1.232249e-09	-3.458946e+01	-7.943090e+01
5.300000e-07	-4.856001e-06	-1.218758e-09	-3.444507e+01	-7.924327e+01
5.400000e-07	-4.835349e-06	-1.211110e-09	-3.429858e+01	-7.905435e+01
5.500000e-07	-4.814275e-06	-1.180184e-09	-3.414909e+01	-7.886238e+01
5.600000e-07	-4.792828e-06	-1.210910e-09	-3.399697e+01	-7.866574e+01
5.700000e-07	-4.771051e-06	-1.204253e-09	-3.384249e+01	-7.846304e+01
5.800000e-07	-4.748932e-06	-1.181863e-09	-3.368560e+01	-7.825328e+01
5.900000e-07	-4.726524e-06	-1.153431e-09	-3.352665e+01	-7.803590e+01
6.000000e-07	-4.703829e-06	-1.188119e-09	-3.336567e+01	-7.781080e+01
6.100000e-07	-4.680841e-06	-1.194784e-09	-3.320261e+01	-7.757843e+01
6.200000e-07	-4.657576e-06	-1.193525e-09	-3.303759e+01	-7.733970e+01
6.300000e-07	-4.633978e-06	-1.163878e-09	-3.287019e+01	-7.709597e+01
6.400000e-07	-4.610083e-06	-1.174046e-09	-3.270070e+01	-7.684893e+01
6.500000e-07	-4.585981e-06	-1.188464e-09	-3.252973e+01	-7.660057e+01
6.600000e-07	-4.561696e-06	-1.191361e-09	-3.235747e+01	-7.635299e+01
6.700000e-07	-4.537037e-06	-1.154925e-09	-3.218257e+01	-7.610830e+01
6.800000e-07	-4.511897e-06	-1.151221e-09	-3.200424e+01	-7.586852e+01
6.900000e-07	-4.486307e-06	-1.165214e-09	-3.182272e+01	-7.563541e+01
7.000000e-07	-4.460212e-06	-1.166976e-09	-3.163762e+01	-7.541040e+01
7.100000e-07	-4.433677e-06	-1.144297e-09	-3.144940e+01	-7.519447e+01
7.200000e-07	-4.406774e-06	-1.137117e-09	-3.125857e+01	-7.498813e+01
7.300000e-07	-4.379401e-06	-1.152885e-09	-3.106441e+01	-7.479134e+01
7.400000e-07	-4.351689e-06	-1.164612e-09	-3.086784e+01	-7.460356e+01
7.500000e-07	-4.323765e-06	-1.153205e-09	-3.066976e+01	-7.442371e+01
7.600000e-07	-4.295617e-06	-1.129272e-09	-3.047010e+01	-7.425030e+01
7.700000e-07	-4.267290e-06	-1.133585e-09	-3.026917e+01	-7.408145e+01
7.800000e-07	-4.238747e-06	-1.138140e-09	-3.006670e+01	-7.391503e+01
7.900000e-07	-4.209990e-06	-1.130690e-09	-2.986272e+01	-7.374875e+01
8.000000e-07	-4.180933e-06	-1.107878e-09	-2.965661e+01	-7.358033e+01
8.100000e-07	-4.151502e-06	-1.112310e-09	-2.944785e+01	-7.340755e+01
8.200000e-07	-4.121800e-06	-1.119642e-09	-2.923716e+01	-7.322844e+01
8.300000e-07	-4.091804e-06	-1.126888e-09	-2.902439e+01	-7.304132e+01
8.400000e-07	-4.061454e-06	-1.108019e-09	-2.880911e+01	-7.284495e+01
8.500000e-07	-4.030909e-06	-1.104018e-09	-2.859245e+01	-7.263853e+01
8.600000e-07	-4.000149e-06	-1.103609e-09	-2.837425e+01	-7.242176e+01
8.700000e-07	-3.969083e-06	-1.108915e-09	-2.815389e+01	-7.219486e+01
8.800000e-07	-3.937763e-06	-1.089066e-09	-2.793173e+01	-7.195851e+01
8.900000e-07	-3.906228e-06	-1.080417e-09	-2.770805e+01	-7.171383e+01
9.000000e-07	-3.874506e-06	-1.077420e-09	-2.748303e+01	-7.146228e+01
9.100000e-07	-3.842568e-06	-1.090040e-09	-2.725649e+01	-7.120560e+01
9.200000e-07	-3.810412e-06	-1.084534e-09	-2.702839e+01	-7.094565e+01
9.300000e-07	-3.778002e-06	-1.082779e-09	-2.679850e+01	-7.068437e+01
9.400000e-07	-3.745286e-06	-1.083791e-09	-2.656644e+01	-7.042360e+01
9.500000e-07	-3.712264e-06	-1.095060e-09	-2.633220e+01	-7.016499e+01
9.600000e-07	-3.678880e-06	-1.088708e-09	-2.609540e+01	-6.990994e+01
9.700000e-07	-3.645049e-06	-1.071473e-09	-2.585543e+01	-6.965948e+01
9.800000e-07	-3.610835e-06	-1.057208e-09	-2.561274e+01	-6.941422e+01
9.900000e-07	-3.576173e-06	-1.058197e-09	-2.536687e+01	-6.917436e+01
1.000000e-06	-3.541142e-06	-1.056462e-09	-2.511838e+01	-6.893963e+01
1.010000e-06	-3.505918e-06	-1.053482e-09	-2.486853e+01	-6.870933e+01
1.020000e-06	-3.470458e-06	-1.056706e-09	-2.461700e+01	-6.848241e+01
1.030000e-06	-3.434771e-06	-1.065597e-09	-2.436386e+01	-6.825750e+01
1.040000e-06	-3.398955e-06	-1.068808e-09	-2.410980e+01	-6.803300e+01
1.050000e-06	-3.362969e-06	-1.055919e-09	-2.385455e+01	-6.780719e+01
1.060000e-06	-3.326750e-06	-1.040530e-09	-2.359763e+01	-6.757832e+01
1.070000e-06	-3.290329e-06	-1.029380e-09	-2.333929e+01	-6.734472e+01
1.080000e-06	-3.253679e-06	-1.027946e-09	-2.307932e+01	-6.710490e+01
1.090000e-06	-3.216881e-06	-1.023868e-09	-2.281830e+01	-6.685762e+01
1.100000e-06	-3.179905e-06	-1.025656e-09	-2.255602e+01	-6.660200e+01
1.110000e-06	-3.142676e-06	-1.026978e-09	-2.229195e+01	-6.633751e+01
1.120000e-06	-3.105126e-06	-1.031772e-09	-2.202559e+01	-6.606405e+01
1.130000e-06	-3.067274e-06	-1.022500e-09	-2.175709e+01	-6.578190e+01
1.140000e-06	-3.029261e-06	-1.012646e-09	-2.148745e+01	-6.549177e+01
1.150000e-06	-2.991024e-06	-1.004203e-09	-2.121623e+01	-6.519468e+01
1.160000e-06	-2.952643e-06	-1.004556e-09	-2.094398e+01	-6.489196e+01
1.170000e-06	-2.914158e-06	-9.980316e-10	-2.067100e+01	-6.458514e+01
1.180000e-06	-2.875427e-06	-9.925845e-10	-2.039627e+01	-6.427587e+01
1.190000e-06	-2.836371e-06	-9.851782e-10	-2.011923e+01	-6.396581e+01
1.200000e-06	-2.797050e-06	-9.872558e-10	-1.984031e+01	-6.365658e+01
1.210000e-06	-2.757577e-06	-9.877802e-10	-1.956032e+01	-6.334962e+01
1.220000e-06	-2.718005e-06	-9.860745e-10	-1.927962e+01	-6.304613e+01
1.230000e-06	-2.678296e-06	-9.780465e-10	-1.899795e+01	-6.274705e+01
1.240000e-06	-2.638392e-06	-9.742339e-10	-1.871491e+01	-6.245293e+01
1.250000e-06	-2.598358e-06	-9.688436e-10	-1.843093e+01	-6.216399e+01
1.260000e-06	-2.558235e-06	-9.640715e-10	-1.814633e+01	-6.188005e+01
1.270000e-06	-2.518042e-06	-9.572168e-10	-1.786123e+01	-6.160058e+01
1.280000e-06	-2.477823e-06	-9.534854e-10	-1.757594e+01	-6.132474e+01
1.290000e-06	-2.437450e-06	-9.496418e-10	-1.728956e+01	-6.105141e+01
1.300000e-06	-2.396928e-06	-9.440295e-10	-1.700213e+01	-6.077926e+01
1.310000e-06	-2.356202e-06	-9.370651e-10	-1.671325e+01	-6.050685e+01
1.320000e-06	-2.315281e-06	-9.326302e-10	-1.642298e+01	-6.023268e+01
1.330000e-06	-2.274240e-06	-9.320421e-10	-1.613187e+01	-5.995527e+01
1.340000e-06	-2.232940e-06	-9.287967e-10	-1.583891e+01	-5.967324e+01
1.350000e-06	-2.191289e-06	-9.229723e-10	-1.554347e+01	-5.938541e+01
1.360000e-06	-2.149244e-06	-9.158692e-10	-1.524523e+01	-5.909076e+01
1.370000e-06	-2.106966e-06	-9.117414e-10	-1.494534e+01	-5.878856e+01
1.380000e-06	-2.064461e-06	-9.055551e-10	-1.464384e+01	-5.847835e+01
1.390000e-06	-2.021655e-06	-8.992353e-10	-1.434021e+01	-5.815992e+01
1.400000e-06	-1.978674e-06	-8.917167e-10	-1.403533e+01	-5.783334e+01
1.410000e-06	-1.935525e-06	-8.866779e-10	-1.372926e+01	-5.749888e+01
1.420000e-06	-1.892171e-06	-8.813655e-10	-1.342174e+01	-5.715701e+01
1.430000e-06	-1.848582e-06	-8.788991e-10	-1.311254e+01	-5.680831e+01
1.440000e-06	-1.804835e-06	-8.762549e-10	-1.280223e+01	-5.645344e+01
1.450000e-06	-1.761024e-06	-8.737079e-10	-1.249147e+01	-5.609305e+01
1.460000e-06	-1.717183e-06	-8.665520e-10	-1.218049e+01	-5.572775e+01
1.470000e-06	-1.673269e-06	-8.614960e-10	-1.186900e+01	-5.535802e+01
1.480000e-06	-1.629216e-06	-8.536171e-10	-1.155652e+01	-5.498421e+01
1.490000e-06	-1.585165e-06	-8.451100e-10	-1.124405e+01	-5.460646e+01
1.500000e-06	-1.541071e-06	-8.375428e-10	-1.093128e+01	-5.422472e+01
1.510000e-06	-1.496854e-06	-8.347594e-10	-1.061763e+01	-5.383874e+01
1.520000e-06	-1.452536e-06	-8.297392e-10	-1.030328e+01	-5.344805e+01
1.530000e-06	-1.408139e-06	-8.226449e-10	-9.988353e+00	-5.305205e+01
1.540000e-06	-1.363660e-06	-8.129783e-10	-9.672847e+00	-5.264996e+01
1.550000e-06	-1.319144e-06	-8.045078e-10	-9.357087e+00	-5.224094e+01
1.560000e-06	-1.274550e-06	-7.971212e-10	-9.040762e+00	-5.182411e+01
1.570000e-06	-1.229835e-06	-7.926928e-10	-8.723587e+00	-5.139860e+01
1.580000e-06	-1.185134e-06	-7.863109e-10	-8.406512e+00	-5.096360e+01
1.590000e-06	-1.140421e-06	-7.786765e-10	-8.089345e+00	-5.051843e+01
1.600000e-06	-1.095575e-06	-7.718457e-10	-7.771244e+00	-5.006255e+01
1.610000e-06	-1.050607e-06	-7.662981e-10	-7.452272e+00	-4.959560e+01
1.620000e-06	-1.005497e-06	-7.576898e-10	-7.132292e+00	-4.911738e+01
1.630000e-06	-9.603279e-07	-7.465040e-10	-6.811893e+00	-4.862792e+01
1.640000e-06	-9.151685e-07	-7.371557e-10	-6.491564e+00	-4.812736e+01
1.650000e-06	-8.699311e-07	-7.298272e-10	-6.170682e+00	-4.761602e+01
1.660000e-06	-8.245745e-07	-7.226742e-10	-5.848954e+00	-4.709427e+01
1.670000e-06	-7.791976e-07	-7.147042e-10	-5.527082e+00	-4.656256e+01
1.680000e-06	-7.337764e-07	-7.066968e-10	-5.204896e+00	-4.602126e+01
1.690000e-06	-6.882443e-07	-6.976998e-10	-4.881923e+00	-4.547070e+01
1.700000e-06	-6.425805e-07	-6.896526e-10	-4.558016e+00	-4.491103e+01
1.710000e-06	-5.968624e-07	-6.800972e-10	-4.233724e+00	-4.434220e+01
1.720000e-06	-5.512173e-07	-6.713528e-10	-3.909950e+00	-4.376392e+01
1.730000e-06	-5.055011e-07	-6.627499e-10	-3.585671e+00	-4.317560e+01
1.740000e-06	-4.597900e-07	-6.539893e-10	-3.261428e+00	-4.257632e+01
1.750000e-06	-4.140435e-07	-6.428710e-10	-2.936934e+00	-4.196487e+01
1.760000e-06	-3.681713e-07	-6.323264e-10	-2.611549e+00	-4.133972e+01
1.770000e-06	-3.223805e-07	-6.202881e-10	-2.286742e+00	-4.069907e+01
1.780000e-06	-2.765816e-07	-6.113053e-10	-1.961876e+00	-4.004090e+01
1.790000e-06	-2.306482e-07	-6.014295e-10	-1.636057e+00	-3.936299e+01
1.800000e-06	-1.847241e-07	-5.912764e-10	-1.310303e+00	-3.866304e+01
1.810000e-06	-1.388425e-07	-5.795984e-10	-9.848517e-01	-3.793872e+01
1.820000e-06	-9.290011e-08	-5.686622e-10	-6.589683e-01	-3.718775e+01
1.830000e-06	-4.694417e-08	-5.562841e-10	-3.329891e-01	-3.640798e+01
1.840000e-06	-1.082176e-09	-5.412625e-10	-7.676196e-03	-3.559747e+01
1.850000e-06	4.475913e-08	-5.265254e-10	3.174899e-01	-3.475458e+01
1.860000e-06	9.067590e-08	-5.159046e-10	6.431913e-01	-3.387796e+01
1.870000e-06	1.365906e-07	-5.053216e-10	9.688779e-01	-3.296666e+01
1.880000e-06	1.824580e-07	-4.917289e-10	1.294229e+00	-3.202010e+01
1.890000e-06	2.283121e-07	-4.769866e-10	1.619486e+00	-3.103810e+01
1.900000e-06	2.742262e-07	-4.598788e-10	1.945169e+00	-3.002089e+01
1.910000e-06	3.202048e-07	-4.393730e-10	2.271309e+00	-2.896902e+01
1.920000e-06	3.661173e-07	-4.177511e-10	2.596980e+00	-2.788336e+01
1.930000e-06	4.119243e-07	-3.968908e-10	2.921902e+00	-2.676507e+01
1.940000e-06	4.576160e-07	-3.783435e-10	3.246007e+00	-2.561544e+01
1.950000e-06	5.033009e-07	-3.633384e-10	3.570064e+00	-2.443594e+01
1.960000e-06	5.490600e-07	-3.488732e-10	3.894647e+00	-2.322805e+01
1.970000e-06	5.947474e-07	-3.309535e-10	4.218721e+00	-2.199323e+01
1.980000e-06	6.402966e-07	-3.096197e-10	4.541816e+00	-2.073289e+01
1.990000e-06	6.858375e-07	-2.864627e-10	4.864851e+00	-1.944825e+01
2.000000e-06	7.313711e-07	-2.632004e-10	5.187835e+00	-1.814038e+01
2.010000e-06	7.768183e-07	-2.411853e-10	5.510205e+00	-1.681015e+01
2.020000e-06	8.222254e-07	-2.190495e-10	5.832292e+00	-1.545817e+01
2.030000e-06	8.675721e-07	-1.981219e-10	6.153949e+00	-1.408485e+01
2.040000e-06	9.128403e-07	-1.778913e-10	6.475050e+00	-1.269039e+01
2.050000e-06	9.579768e-07	-1.581402e-10	6.795216e+00	-1.127480e+01
2.060000e-06	1.003084e-06	-1.364259e-10	7.115173e+00	-9.837968e+00
2.070000e-06	1.048167e-06	-1.116877e-10	7.434963e+00	-8.379670e+00
2.080000e-06	1.093099e-06	-8.353311e-11	7.753677e+00	-6.899655e+00
2.090000e-06	1.137942e-06	-5.577970e-11	8.071760e+00	-5.397685e+00
2.100000e-06	1.182710e-06	-2.984942e-11	8.389315e+00	-3.873593e+00
2.110000e-06	1.227342e-06	-6.997095e-12	8.705906e+00	-2.327336e+00
2.120000e-06	1.271877e-06	1.566672e-11	9.021802e+00	-7.590375e-01
2.130000e-06	1.316403e-06	3.827415e-11	9.337639e+00	8.309762e-01
2.140000e-06	1.360886e-06	6.068027e-11	9.653174e+00	2.442148e+00
2.150000e-06	1.405270e-06	8.490134e-11	9.968003e+00	4.073678e+00
2.160000e-06	1.449544e-06	1.109814e-10	1.028205e+01	5.724513e+00
2.170000e-06	1.493744e-06	1.391711e-10	1.059558e+01	7.393361e+00
2.180000e-06	1.537862e-06	1.662063e-10	1.090851e+01	9.078699e+00
2.190000e-06	1.581945e-06	1.895349e-10	1.122121e+01	1.077880e+01
2.200000e-06	1.626048e-06	2.126485e-10	1.153404e+01	1.249177e+01
2.210000e-06	1.670096e-06	2.369338e-10	1.184649e+01	1.421555e+01
2.220000e-06	1.714027e-06	2.630649e-10	1.215810e+01	1.594801e+01
2.230000e-06	1.757883e-06	2.910249e-10	1.246919e+01	1.768691e+01
2.240000e-06	1.801647e-06	3.221361e-10	1.277962e+01	1.942999e+01
2.250000e-06	1.845323e-06	3.546050e-10	1.308943e+01	2.117498e+01
2.260000e-06	1.888940e-06	3.846300e-10	1.339882e+01	2.291960e+01
2.270000e-06	1.932370e-06	4.115950e-10	1.370688e+01	2.466160e+01
2.280000e-06	1.975657e-06	4.368364e-10	1.401392e+01	2.639879e+01
2.290000e-06	2.018825e-06	4.622095e-10	1.432013e+01	2.812898e+01
2.300000e-06	2.061755e-06	4.871913e-10	1.462465e+01	2.985004e+01
2.310000e-06	2.104327e-06	5.112004e-10	1.492662e+01	3.155987e+01
2.320000e-06	2.146563e-06	5.377622e-10	1.522622e+01	3.325641e+01
2.330000e-06	2.188657e-06	5.663426e-10	1.552480e+01	3.493761e+01
2.340000e-06	2.230457e-06	5.910364e-10	1.582130e+01	3.660143e+01
2.350000e-06	2.271833e-06	6.126885e-10	1.611479e+01	3.824585e+01
2.360000e-06	2.312935e-06	6.356363e-10	1.640634e+01	3.986886e+01
2.370000e-06	2.353741e-06	6.611030e-10	1.669579e+01	4.146847e+01
2.380000e-06	2.394354e-06	6.841815e-10	1.698387e+01	4.304271e+01
2.390000e-06	2.434936e-06	7.045251e-10	1.727173e+01	4.458964e+01
2.400000e-06	2.475351e-06	7.263951e-10	1.755841e+01	4.610741e+01
2.410000e-06	2.515569e-06	7.519172e-10	1.784368e+01	4.759422e+01
2.420000e-06	2.555683e-06	7.783157e-10	1.812822e+01	4.904842e+01
2.430000e-06	2.595724e-06	8.036213e-10	1.841225e+01	5.046847e+01
2.440000e-06	2.635742e-06	8.245768e-10	1.869611e+01	5.185302e+01
2.450000e-06	2.675688e-06	8.421317e-10	1.897946e+01	5.320090e+01
2.460000e-06	2.715346e-06	8.625434e-10	1.926076e+01	5.451118e+01
2.470000e-06	2.754737e-06	8.813211e-10	1.954018e+01	5.578313e+01
2.480000e-06	2.793999e-06	8.981375e-10	1.981868e+01	5.701630e+01
2.490000e-06	2.833155e-06	9.162818e-10	2.009642e+01	5.821048e+01
2.500000e-06	2.872086e-06	9.348699e-10	2.037257e+01	5.936570e+01
2.510000e-06	2.910689e-06	9.553398e-10	2.064639e+01	6.048221e+01
2.520000e-06	2.949037e-06	9.773085e-10	2.091840e+01	6.156050e+01
2.530000e-06	2.987168e-06	9.973571e-10	2.118888e+01	6.260121e+01
2.540000e-06	3.025204e-06	1.013550e-09	2.145868e+01	6.360515e+01
2.550000e-06	3.063189e-06	1.027264e-09	2.172812e+01	6.457325e+01
2.560000e-06	3.101030e-06	1.039839e-09	2.199653e+01	6.550651e+01
2.570000e-06	3.138545e-06	1.049499e-09	2.226264e+01	6.640598e+01
2.580000e-06	3.175717e-06	1.058119e-09	2.252631e+01	6.727271e+01
2.590000e-06	3.212686e-06	1.072397e-09	2.278854e+01	6.810775e+01
2.600000e-06	3.249432e-06	1.090756e-09	2.304920e+01	6.891211e+01
2.610000e-06	3.285979e-06	1.109031e-09	2.330844e+01	6.968672e+01
2.620000e-06	3.322384e-06	1.124915e-09	2.356667e+01	7.043249e+01
2.630000e-06	3.358650e-06	1.137502e-09	2.382391e+01	7.115023e+01
2.640000e-06	3.394764e-06	1.145895e-09	2.408008e+01	7.184071e+01
2.650000e-06	3.430728e-06	1.148459e-09	2.433518e+01	7.250467e+01
2.660000e-06	3.466541e-06	1.149629e-09	2.458922e+01	7.314281e+01
2.670000e-06	3.502135e-06	1.155703e-09	2.484170e+01	7.375584e+01
2.680000e-06	3.537459e-06	1.165480e-09	2.509226e+01	7.434449e+01
2.690000e-06	3.572319e-06	1.177848e-09	2.533953e+01	7.490952e+01
2.700000e-06	3.606757e-06	1.192219e-09	2.558381e+01	7.545177e+01
2.710000e-06	3.640781e-06	1.205857e-09	2.582515e+01	7.597212e+01
2.720000e-06	3.674305e-06	1.215139e-09	2.606295e+01	7.647156e+01
2.730000e-06	3.707454e-06	1.221653e-09	2.629808e+01	7.695114e+01
2.740000e-06	3.740318e-06	1.226467e-09	2.653120e+01	7.741197e+01
2.750000e-06	3.772973e-06	1.229488e-09	2.676283e+01	7.785522e+01
2.760000e-06	3.805373e-06	1.233256e-09	2.699265e+01	7.828206e+01
2.770000e-06	3.837547e-06	1.238439e-09	2.722087e+01	7.869367e+01
2.780000e-06	3.869516e-06	1.245853e-09	2.744764e+01	7.909118e+01
2.790000e-06	3.901327e-06	1.254969e-09	2.767328e+01	7.947562e+01
2.800000e-06	3.932939e-06	1.260653e-09	2.789752e+01	7.984792e+01
2.810000e-06	3.964304e-06	1.263013e-09	2.812000e+01	8.020882e+01
2.820000e-06	3.995460e-06	1.267409e-09	2.834099e+01	8.055890e+01
2.830000e-06	4.026329e-06	1.272903e-09	2.855996e+01	8.089852e+01
2.840000e-06	4.056802e-06	1.274878e-09	2.877612e+01	8.122784e+01
2.850000e-06	4.086992e-06	1.272913e-09	2.899026e+01	8.154677e+01
2.860000e-06	4.117022e-06	1.274432e-09	2.920327e+01	8.185504e+01
2.870000e-06	4.146784e-06	1.280710e-09	2.941438e+01	8.215218e+01
2.880000e-06	4.176206e-06	1.285910e-09	2.962308e+01	8.243757e+01
2.890000e-06	4.205296e-06	1.288039e-09	2.982943e+01	8.271051e+01
2.900000e-06	4.234060e-06	1.290549e-09	3.003345e+01	8.297022e+01
