# Temperatura_=_-10.85
# Concentracion g/m^3_=_1620.0
# C_Vs_to_Am_M_A/Vsm_=_65563218390.804596
# pendiente_HvsI_1/m_=_3716.3
# ordenada_HvsI_A/m_=_1297.0
# frecuencia_Hz_=_135100.66741884578

Tiempo_(s)	Campo_(V.s)	Magnetizacion_(V.s)	Campo_(kA/m)	Magnetizacion_(A/m)
0.000000e+00	-5.525364e-06	-1.092525e-09	-3.837875e+01	-7.146992e+01
1.000000e-08	-5.525402e-06	-1.089823e-09	-3.837901e+01	-7.144521e+01
2.000000e-08	-5.525240e-06	-1.090328e-09	-3.837789e+01	-7.142178e+01
3.000000e-08	-5.524643e-06	-1.091980e-09	-3.837375e+01	-7.139934e+01
4.000000e-08	-5.523457e-06	-1.092242e-09	-3.836550e+01	-7.137759e+01
5.000000e-08	-5.521683e-06	-1.087563e-09	-3.835318e+01	-7.135617e+01
6.000000e-08	-5.519234e-06	-1.077612e-09	-3.833618e+01	-7.133467e+01
7.000000e-08	-5.516224e-06	-1.065597e-09	-3.831527e+01	-7.131267e+01
8.000000e-08	-5.512850e-06	-1.090641e-09	-3.829183e+01	-7.128973e+01
9.000000e-08	-5.509059e-06	-1.141788e-09	-3.826550e+01	-7.126538e+01
1.000000e-07	-5.504831e-06	-1.108965e-09	-3.823613e+01	-7.123914e+01
1.100000e-07	-5.500326e-06	-1.029814e-09	-3.820484e+01	-7.121054e+01
1.200000e-07	-5.495660e-06	-1.008213e-09	-3.817243e+01	-7.117912e+01
1.300000e-07	-5.490690e-06	-1.102903e-09	-3.813791e+01	-7.114443e+01
1.400000e-07	-5.485276e-06	-1.137156e-09	-3.810030e+01	-7.110605e+01
1.500000e-07	-5.479500e-06	-1.049229e-09	-3.806018e+01	-7.106361e+01
1.600000e-07	-5.473469e-06	-1.028083e-09	-3.801829e+01	-7.101675e+01
1.700000e-07	-5.467004e-06	-1.084237e-09	-3.797339e+01	-7.096520e+01
1.800000e-07	-5.460000e-06	-1.140409e-09	-3.792474e+01	-7.090872e+01
1.900000e-07	-5.452602e-06	-1.037694e-09	-3.787335e+01	-7.084714e+01
2.000000e-07	-5.444967e-06	-1.014239e-09	-3.782032e+01	-7.078036e+01
2.100000e-07	-5.437107e-06	-1.064786e-09	-3.776572e+01	-7.070832e+01
2.200000e-07	-5.428966e-06	-1.134659e-09	-3.770918e+01	-7.063107e+01
2.300000e-07	-5.420557e-06	-1.078681e-09	-3.765077e+01	-7.054871e+01
2.400000e-07	-5.411685e-06	-1.043394e-09	-3.758915e+01	-7.046139e+01
2.500000e-07	-5.402004e-06	-1.054413e-09	-3.752190e+01	-7.036934e+01
2.600000e-07	-5.391628e-06	-1.078240e-09	-3.744983e+01	-7.027285e+01
2.700000e-07	-5.380728e-06	-1.062577e-09	-3.737412e+01	-7.017227e+01
2.800000e-07	-5.369345e-06	-1.044819e-09	-3.729505e+01	-7.006798e+01
2.900000e-07	-5.357592e-06	-1.064382e-09	-3.721342e+01	-6.996041e+01
3.000000e-07	-5.345547e-06	-1.071135e-09	-3.712976e+01	-6.985001e+01
3.100000e-07	-5.333099e-06	-1.061559e-09	-3.704330e+01	-6.973729e+01
3.200000e-07	-5.320147e-06	-1.030544e-09	-3.695333e+01	-6.962273e+01
3.300000e-07	-5.306809e-06	-1.058644e-09	-3.686068e+01	-6.950684e+01
3.400000e-07	-5.293144e-06	-1.065988e-09	-3.676577e+01	-6.939012e+01
3.500000e-07	-5.279105e-06	-1.054822e-09	-3.666825e+01	-6.927307e+01
3.600000e-07	-5.264543e-06	-1.037689e-09	-3.656711e+01	-6.915616e+01
3.700000e-07	-5.249435e-06	-1.077310e-09	-3.646217e+01	-6.903982e+01
3.800000e-07	-5.233739e-06	-1.056147e-09	-3.635315e+01	-6.892448e+01
3.900000e-07	-5.217484e-06	-1.030277e-09	-3.624024e+01	-6.881050e+01
4.000000e-07	-5.200869e-06	-1.046483e-09	-3.612484e+01	-6.869821e+01
4.100000e-07	-5.183944e-06	-1.082414e-09	-3.600728e+01	-6.858789e+01
4.200000e-07	-5.166698e-06	-1.026473e-09	-3.588748e+01	-6.847977e+01
4.300000e-07	-5.149226e-06	-1.026461e-09	-3.576612e+01	-6.837403e+01
4.400000e-07	-5.131475e-06	-1.075845e-09	-3.564283e+01	-6.827080e+01
4.500000e-07	-5.113249e-06	-1.061036e-09	-3.551624e+01	-6.817017e+01
4.600000e-07	-5.094499e-06	-9.966069e-10	-3.538600e+01	-6.807216e+01
4.700000e-07	-5.075410e-06	-1.038993e-09	-3.525341e+01	-6.797676e+01
4.800000e-07	-5.056088e-06	-1.063959e-09	-3.511920e+01	-6.788394e+01
4.900000e-07	-5.036488e-06	-1.017601e-09	-3.498306e+01	-6.779362e+01
5.000000e-07	-5.016688e-06	-1.018826e-09	-3.484552e+01	-6.770568e+01
5.100000e-07	-4.996697e-06	-1.066105e-09	-3.470667e+01	-6.762000e+01
5.200000e-07	-4.976298e-06	-1.029035e-09	-3.456498e+01	-6.753644e+01
5.300000e-07	-4.955477e-06	-1.009444e-09	-3.442036e+01	-6.745485e+01
5.400000e-07	-4.934309e-06	-1.056899e-09	-3.427333e+01	-6.737508e+01
5.500000e-07	-4.912808e-06	-1.042419e-09	-3.412398e+01	-6.729698e+01
5.600000e-07	-4.891029e-06	-9.938633e-10	-3.397271e+01	-6.722040e+01
5.700000e-07	-4.868940e-06	-1.028050e-09	-3.381928e+01	-6.714523e+01
5.800000e-07	-4.846519e-06	-1.053120e-09	-3.366355e+01	-6.707135e+01
5.900000e-07	-4.823754e-06	-1.008853e-09	-3.350542e+01	-6.699868e+01
6.000000e-07	-4.800606e-06	-1.012199e-09	-3.334464e+01	-6.692715e+01
6.100000e-07	-4.777175e-06	-1.037756e-09	-3.318189e+01	-6.685672e+01
6.200000e-07	-4.753517e-06	-1.014048e-09	-3.301756e+01	-6.678736e+01
6.300000e-07	-4.729582e-06	-9.987088e-10	-3.285131e+01	-6.671908e+01
6.400000e-07	-4.705374e-06	-1.027375e-09	-3.268316e+01	-6.665190e+01
6.500000e-07	-4.680833e-06	-1.014089e-09	-3.251270e+01	-6.658584e+01
6.600000e-07	-4.655723e-06	-1.002086e-09	-3.233829e+01	-6.652097e+01
6.700000e-07	-4.630052e-06	-1.018552e-09	-3.215998e+01	-6.645733e+01
6.800000e-07	-4.603818e-06	-1.023662e-09	-3.197777e+01	-6.639496e+01
6.900000e-07	-4.576980e-06	-9.988675e-10	-3.179135e+01	-6.633393e+01
7.000000e-07	-4.549785e-06	-1.006580e-09	-3.160246e+01	-6.627427e+01
7.100000e-07	-4.522332e-06	-1.008371e-09	-3.141177e+01	-6.621599e+01
7.200000e-07	-4.494684e-06	-9.982898e-10	-3.121973e+01	-6.615910e+01
7.300000e-07	-4.466901e-06	-9.952708e-10	-3.102675e+01	-6.610356e+01
7.400000e-07	-4.438937e-06	-1.005396e-09	-3.083252e+01	-6.604930e+01
7.500000e-07	-4.410737e-06	-9.935465e-10	-3.063664e+01	-6.599623e+01
7.600000e-07	-4.382185e-06	-9.913725e-10	-3.043832e+01	-6.594418e+01
7.700000e-07	-4.353298e-06	-9.941028e-10	-3.023767e+01	-6.589297e+01
7.800000e-07	-4.324102e-06	-9.898319e-10	-3.003488e+01	-6.584237e+01
7.900000e-07	-4.294615e-06	-9.839546e-10	-2.983007e+01	-6.579209e+01
8.000000e-07	-4.264858e-06	-9.890206e-10	-2.962337e+01	-6.574181e+01
8.100000e-07	-4.234764e-06	-9.805268e-10	-2.941435e+01	-6.569117e+01
8.200000e-07	-4.204235e-06	-9.703510e-10	-2.920229e+01	-6.563975e+01
8.300000e-07	-4.173386e-06	-9.728679e-10	-2.898802e+01	-6.558713e+01
8.400000e-07	-4.142423e-06	-9.754844e-10	-2.877295e+01	-6.553284e+01
8.500000e-07	-4.111205e-06	-9.695148e-10	-2.855611e+01	-6.547640e+01
8.600000e-07	-4.079739e-06	-9.685043e-10	-2.833755e+01	-6.541733e+01
8.700000e-07	-4.048193e-06	-9.689385e-10	-2.811843e+01	-6.535514e+01
8.800000e-07	-4.016533e-06	-9.584042e-10	-2.789853e+01	-6.528934e+01
8.900000e-07	-3.984623e-06	-9.540812e-10	-2.767688e+01	-6.521948e+01
9.000000e-07	-3.952444e-06	-9.553657e-10	-2.745337e+01	-6.514512e+01
9.100000e-07	-3.919986e-06	-9.525312e-10	-2.722792e+01	-6.506585e+01
9.200000e-07	-3.887097e-06	-9.483151e-10	-2.699947e+01	-6.498135e+01
9.300000e-07	-3.853750e-06	-9.561506e-10	-2.676785e+01	-6.489130e+01
9.400000e-07	-3.819917e-06	-9.553129e-10	-2.653285e+01	-6.479548e+01
9.500000e-07	-3.785540e-06	-9.482368e-10	-2.629407e+01	-6.469373e+01
9.600000e-07	-3.750703e-06	-9.438602e-10	-2.605209e+01	-6.458597e+01
9.700000e-07	-3.715515e-06	-9.463001e-10	-2.580768e+01	-6.447218e+01
9.800000e-07	-3.680088e-06	-9.393772e-10	-2.556160e+01	-6.435245e+01
9.900000e-07	-3.644523e-06	-9.351533e-10	-2.531457e+01	-6.422694e+01
1.000000e-06	-3.608852e-06	-9.325801e-10	-2.506680e+01	-6.409587e+01
1.010000e-06	-3.573079e-06	-9.313163e-10	-2.481833e+01	-6.395958e+01
1.020000e-06	-3.537183e-06	-9.264231e-10	-2.456900e+01	-6.381844e+01
1.030000e-06	-3.501057e-06	-9.281100e-10	-2.431807e+01	-6.367291e+01
1.040000e-06	-3.464650e-06	-9.259402e-10	-2.406519e+01	-6.352350e+01
1.050000e-06	-3.427959e-06	-9.213533e-10	-2.381034e+01	-6.337079e+01
1.060000e-06	-3.390985e-06	-9.193826e-10	-2.355352e+01	-6.321536e+01
1.070000e-06	-3.353761e-06	-9.206668e-10	-2.329496e+01	-6.305786e+01
1.080000e-06	-3.316305e-06	-9.146215e-10	-2.303480e+01	-6.289891e+01
1.090000e-06	-3.278605e-06	-9.095162e-10	-2.277294e+01	-6.273917e+01
1.100000e-06	-3.240744e-06	-9.067450e-10	-2.250995e+01	-6.257926e+01
1.110000e-06	-3.202669e-06	-9.009610e-10	-2.224549e+01	-6.241978e+01
1.120000e-06	-3.164338e-06	-8.952642e-10	-2.197925e+01	-6.226131e+01
1.130000e-06	-3.125798e-06	-8.962051e-10	-2.171155e+01	-6.210435e+01
1.140000e-06	-3.086958e-06	-8.984180e-10	-2.144177e+01	-6.194936e+01
1.150000e-06	-3.047901e-06	-8.969406e-10	-2.117049e+01	-6.179669e+01
1.160000e-06	-3.008752e-06	-8.951568e-10	-2.089856e+01	-6.164666e+01
1.170000e-06	-2.969409e-06	-8.924781e-10	-2.062529e+01	-6.149944e+01
1.180000e-06	-2.929869e-06	-8.914983e-10	-2.035064e+01	-6.135513e+01
1.190000e-06	-2.890228e-06	-8.908376e-10	-2.007530e+01	-6.121374e+01
1.200000e-06	-2.850459e-06	-8.917260e-10	-1.979907e+01	-6.107514e+01
1.210000e-06	-2.810524e-06	-8.917179e-10	-1.952168e+01	-6.093912e+01
1.220000e-06	-2.770363e-06	-8.921891e-10	-1.924273e+01	-6.080535e+01
1.230000e-06	-2.730117e-06	-8.924991e-10	-1.896318e+01	-6.067342e+01
1.240000e-06	-2.689806e-06	-8.920114e-10	-1.868319e+01	-6.054279e+01
1.250000e-06	-2.649240e-06	-8.870850e-10	-1.840141e+01	-6.041286e+01
1.260000e-06	-2.608402e-06	-8.820290e-10	-1.811776e+01	-6.028293e+01
1.270000e-06	-2.567214e-06	-8.760656e-10	-1.783167e+01	-6.015224e+01
1.280000e-06	-2.525692e-06	-8.708656e-10	-1.754326e+01	-6.001997e+01
1.290000e-06	-2.483935e-06	-8.654282e-10	-1.725322e+01	-5.988526e+01
1.300000e-06	-2.441913e-06	-8.653018e-10	-1.696134e+01	-5.974721e+01
1.310000e-06	-2.399482e-06	-8.644979e-10	-1.666661e+01	-5.960488e+01
1.320000e-06	-2.356701e-06	-8.627059e-10	-1.636946e+01	-5.945736e+01
1.330000e-06	-2.313726e-06	-8.583049e-10	-1.607096e+01	-5.930373e+01
1.340000e-06	-2.270573e-06	-8.542081e-10	-1.577122e+01	-5.914307e+01
1.350000e-06	-2.227237e-06	-8.508906e-10	-1.547022e+01	-5.897453e+01
1.360000e-06	-2.183751e-06	-8.477094e-10	-1.516817e+01	-5.879728e+01
1.370000e-06	-2.140150e-06	-8.439956e-10	-1.486532e+01	-5.861053e+01
1.380000e-06	-2.096452e-06	-8.403680e-10	-1.456179e+01	-5.841359e+01
1.390000e-06	-2.052650e-06	-8.369958e-10	-1.425755e+01	-5.820580e+01
1.400000e-06	-2.008764e-06	-8.340025e-10	-1.395272e+01	-5.798659e+01
1.410000e-06	-1.964878e-06	-8.288800e-10	-1.364789e+01	-5.775546e+01
1.420000e-06	-1.920937e-06	-8.216136e-10	-1.334268e+01	-5.751200e+01
1.430000e-06	-1.876911e-06	-8.159772e-10	-1.303688e+01	-5.725585e+01
1.440000e-06	-1.832800e-06	-8.113124e-10	-1.273048e+01	-5.698674e+01
1.450000e-06	-1.788588e-06	-8.067703e-10	-1.242339e+01	-5.670448e+01
1.460000e-06	-1.744197e-06	-8.017884e-10	-1.211506e+01	-5.640891e+01
1.470000e-06	-1.699640e-06	-7.971908e-10	-1.180557e+01	-5.609995e+01
1.480000e-06	-1.655038e-06	-7.895398e-10	-1.149577e+01	-5.577756e+01
1.490000e-06	-1.610317e-06	-7.791292e-10	-1.118514e+01	-5.544172e+01
1.500000e-06	-1.565474e-06	-7.694089e-10	-1.087366e+01	-5.509244e+01
1.510000e-06	-1.520397e-06	-7.604808e-10	-1.056056e+01	-5.472975e+01
1.520000e-06	-1.475104e-06	-7.517852e-10	-1.024596e+01	-5.435367e+01
1.530000e-06	-1.429776e-06	-7.455357e-10	-9.931117e+00	-5.396419e+01
1.540000e-06	-1.384317e-06	-7.396671e-10	-9.615362e+00	-5.356131e+01
1.550000e-06	-1.338681e-06	-7.331813e-10	-9.298372e+00	-5.314495e+01
1.560000e-06	-1.292997e-06	-7.271548e-10	-8.981059e+00	-5.271500e+01
1.570000e-06	-1.247350e-06	-7.214426e-10	-8.663996e+00	-5.227129e+01
1.580000e-06	-1.201673e-06	-7.109703e-10	-8.346725e+00	-5.181357e+01
1.590000e-06	-1.155904e-06	-6.983299e-10	-8.028817e+00	-5.134153e+01
1.600000e-06	-1.109987e-06	-6.889063e-10	-7.709885e+00	-5.085476e+01
1.610000e-06	-1.063968e-06	-6.850582e-10	-7.390242e+00	-5.035276e+01
1.620000e-06	-1.017888e-06	-6.840443e-10	-7.070174e+00	-4.983496e+01
1.630000e-06	-9.717640e-07	-6.825818e-10	-6.749798e+00	-4.930067e+01
1.640000e-06	-9.256130e-07	-6.762416e-10	-6.429236e+00	-4.874915e+01
1.650000e-06	-8.793334e-07	-6.640133e-10	-6.107782e+00	-4.817954e+01
1.660000e-06	-8.329334e-07	-6.482918e-10	-5.785491e+00	-4.759092e+01
1.670000e-06	-7.864983e-07	-6.320841e-10	-5.462956e+00	-4.698228e+01
1.680000e-06	-7.399918e-07	-6.173455e-10	-5.139926e+00	-4.635255e+01
1.690000e-06	-6.934767e-07	-6.067108e-10	-4.816836e+00	-4.570063e+01
1.700000e-06	-6.469587e-07	-5.990364e-10	-4.493725e+00	-4.502533e+01
1.710000e-06	-6.004248e-07	-5.942051e-10	-4.170505e+00	-4.432548e+01
1.720000e-06	-5.538081e-07	-5.887159e-10	-3.846708e+00	-4.359985e+01
1.730000e-06	-5.071064e-07	-5.775639e-10	-3.522322e+00	-4.284724e+01
1.740000e-06	-4.604129e-07	-5.613969e-10	-3.197993e+00	-4.206644e+01
1.750000e-06	-4.136554e-07	-5.439456e-10	-2.873218e+00	-4.125627e+01
1.760000e-06	-3.669021e-07	-5.277686e-10	-2.548474e+00	-4.041561e+01
1.770000e-06	-3.201556e-07	-5.146322e-10	-2.223776e+00	-3.954337e+01
1.780000e-06	-2.733361e-07	-5.039276e-10	-1.898571e+00	-3.863854e+01
1.790000e-06	-2.264749e-07	-4.923001e-10	-1.573077e+00	-3.770020e+01
1.800000e-06	-1.796049e-07	-4.821364e-10	-1.247522e+00	-3.672752e+01
1.810000e-06	-1.326695e-07	-4.694209e-10	-9.215121e-01	-3.571977e+01
1.820000e-06	-8.582565e-08	-4.554151e-10	-5.961383e-01	-3.467634e+01
1.830000e-06	-3.906948e-08	-4.398444e-10	-2.713736e-01	-3.359675e+01
1.840000e-06	7.813501e-09	-4.237354e-10	5.427197e-02	-3.248065e+01
1.850000e-06	5.469970e-08	-4.087837e-10	3.799399e-01	-3.132784e+01
1.860000e-06	1.014808e-07	-3.928845e-10	7.048775e-01	-3.013823e+01
1.870000e-06	1.483139e-07	-3.760182e-10	1.030177e+00	-2.891192e+01
1.880000e-06	1.952536e-07	-3.580348e-10	1.356217e+00	-2.764913e+01
1.890000e-06	2.421600e-07	-3.389553e-10	1.682025e+00	-2.635024e+01
1.900000e-06	2.890107e-07	-3.177005e-10	2.007446e+00	-2.501577e+01
1.910000e-06	3.358560e-07	-2.974121e-10	2.332830e+00	-2.364640e+01
1.920000e-06	3.826749e-07	-2.789071e-10	2.658030e+00	-2.224294e+01
1.930000e-06	4.295175e-07	-2.606157e-10	2.983395e+00	-2.080634e+01
1.940000e-06	4.762638e-07	-2.415610e-10	3.308092e+00	-1.933769e+01
1.950000e-06	5.228632e-07	-2.218128e-10	3.631767e+00	-1.783822e+01
1.960000e-06	5.694199e-07	-2.024244e-10	3.955146e+00	-1.630924e+01
1.970000e-06	6.159030e-07	-1.806524e-10	4.278015e+00	-1.475222e+01
1.980000e-06	6.623587e-07	-1.572631e-10	4.600692e+00	-1.316871e+01
1.990000e-06	7.086942e-07	-1.344911e-10	4.922535e+00	-1.156037e+01
2.000000e-06	7.549884e-07	-1.098691e-10	5.244091e+00	-9.928951e+00
2.010000e-06	8.013213e-07	-8.705281e-11	5.565916e+00	-8.276285e+00
2.020000e-06	8.475917e-07	-6.524388e-11	5.887307e+00	-6.604279e+00
2.030000e-06	8.938394e-07	-4.336725e-11	6.208539e+00	-4.914909e+00
2.040000e-06	9.400155e-07	-2.140388e-11	6.529275e+00	-3.210209e+00
2.050000e-06	9.861342e-07	2.043358e-12	6.849612e+00	-1.492264e+00
2.060000e-06	1.032171e-06	2.661703e-11	7.169378e+00	2.367989e-01
2.070000e-06	1.078097e-06	5.291405e-11	7.488379e+00	1.974816e+00
2.080000e-06	1.123954e-06	7.700947e-11	7.806900e+00	3.719598e+00
2.090000e-06	1.169758e-06	1.010853e-10	8.125050e+00	5.468936e+00
2.100000e-06	1.215517e-06	1.272573e-10	8.442887e+00	7.220611e+00
2.110000e-06	1.261114e-06	1.532000e-10	8.759603e+00	8.972398e+00
2.120000e-06	1.306627e-06	1.785095e-10	9.075728e+00	1.072208e+01
2.130000e-06	1.352133e-06	2.034408e-10	9.391809e+00	1.246745e+01
2.140000e-06	1.397523e-06	2.266939e-10	9.707085e+00	1.420632e+01
2.150000e-06	1.442838e-06	2.488000e-10	1.002184e+01	1.593653e+01
2.160000e-06	1.488068e-06	2.709526e-10	1.033601e+01	1.765596e+01
2.170000e-06	1.533211e-06	2.929510e-10	1.064957e+01	1.936253e+01
2.180000e-06	1.578231e-06	3.166346e-10	1.096227e+01	2.105421e+01
2.190000e-06	1.623037e-06	3.416584e-10	1.127349e+01	2.272904e+01
2.200000e-06	1.667684e-06	3.670878e-10	1.158360e+01	2.438512e+01
2.210000e-06	1.712192e-06	3.926965e-10	1.189276e+01	2.602061e+01
2.220000e-06	1.756534e-06	4.164563e-10	1.220075e+01	2.763379e+01
2.230000e-06	1.800747e-06	4.363185e-10	1.250785e+01	2.922299e+01
2.240000e-06	1.844841e-06	4.534631e-10	1.281412e+01	3.078666e+01
2.250000e-06	1.888837e-06	4.709182e-10	1.311972e+01	3.232334e+01
2.260000e-06	1.932775e-06	4.917117e-10	1.342490e+01	3.383170e+01
2.270000e-06	1.976634e-06	5.142031e-10	1.372955e+01	3.531050e+01
2.280000e-06	2.020478e-06	5.342606e-10	1.403408e+01	3.675862e+01
2.290000e-06	2.064286e-06	5.523863e-10	1.433837e+01	3.817507e+01
2.300000e-06	2.107981e-06	5.698657e-10	1.464187e+01	3.955898e+01
2.310000e-06	2.151610e-06	5.877620e-10	1.494491e+01	4.090962e+01
2.320000e-06	2.195173e-06	6.045283e-10	1.524750e+01	4.222635e+01
2.330000e-06	2.238595e-06	6.198458e-10	1.554911e+01	4.350870e+01
2.340000e-06	2.281844e-06	6.371676e-10	1.584951e+01	4.475630e+01
2.350000e-06	2.324904e-06	6.552071e-10	1.614861e+01	4.596889e+01
2.360000e-06	2.367738e-06	6.718004e-10	1.644613e+01	4.714636e+01
2.370000e-06	2.410287e-06	6.858571e-10	1.674166e+01	4.828868e+01
2.380000e-06	2.452505e-06	6.962942e-10	1.703491e+01	4.939595e+01
2.390000e-06	2.494353e-06	7.082930e-10	1.732558e+01	5.046837e+01
2.400000e-06	2.535950e-06	7.240354e-10	1.761451e+01	5.150621e+01
2.410000e-06	2.577346e-06	7.419430e-10	1.790205e+01	5.250985e+01
2.420000e-06	2.618345e-06	7.570835e-10	1.818682e+01	5.347974e+01
2.430000e-06	2.658997e-06	7.685034e-10	1.846919e+01	5.441638e+01
2.440000e-06	2.699459e-06	7.781231e-10	1.875023e+01	5.532036e+01
2.450000e-06	2.739706e-06	7.868706e-10	1.902979e+01	5.619230e+01
2.460000e-06	2.779806e-06	7.970353e-10	1.930831e+01	5.703284e+01
2.470000e-06	2.819763e-06	8.077567e-10	1.958586e+01	5.784268e+01
2.480000e-06	2.859544e-06	8.170424e-10	1.986217e+01	5.862253e+01
2.490000e-06	2.899233e-06	8.252182e-10	2.013785e+01	5.937310e+01
2.500000e-06	2.938829e-06	8.335356e-10	2.041288e+01	6.009513e+01
2.510000e-06	2.978290e-06	8.424175e-10	2.068698e+01	6.078933e+01
2.520000e-06	3.017612e-06	8.507565e-10	2.096010e+01	6.145642e+01
2.530000e-06	3.056769e-06	8.576889e-10	2.123208e+01	6.209709e+01
2.540000e-06	3.095615e-06	8.645636e-10	2.150190e+01	6.271203e+01
2.550000e-06	3.134121e-06	8.722430e-10	2.176936e+01	6.330190e+01
2.560000e-06	3.172479e-06	8.802458e-10	2.203579e+01	6.386733e+01
2.570000e-06	3.210652e-06	8.896698e-10	2.230094e+01	6.440893e+01
2.580000e-06	3.248531e-06	8.995891e-10	2.256405e+01	6.492731e+01
2.590000e-06	3.286209e-06	9.072803e-10	2.282575e+01	6.542303e+01
2.600000e-06	3.323713e-06	9.141666e-10	2.308625e+01	6.589663e+01
2.610000e-06	3.361002e-06	9.211685e-10	2.334526e+01	6.634866e+01
2.620000e-06	3.398080e-06	9.275995e-10	2.360280e+01	6.677962e+01
2.630000e-06	3.434837e-06	9.339884e-10	2.385812e+01	6.719003e+01
2.640000e-06	3.471273e-06	9.415170e-10	2.411119e+01	6.758039e+01
2.650000e-06	3.507549e-06	9.478403e-10	2.436316e+01	6.795122e+01
2.660000e-06	3.543692e-06	9.534763e-10	2.461421e+01	6.830301e+01
2.670000e-06	3.579626e-06	9.609043e-10	2.486380e+01	6.863629e+01
2.680000e-06	3.615384e-06	9.681589e-10	2.511218e+01	6.895159e+01
2.690000e-06	3.651015e-06	9.733226e-10	2.535967e+01	6.924946e+01
2.700000e-06	3.686554e-06	9.775156e-10	2.560652e+01	6.953048e+01
2.710000e-06	3.721957e-06	9.833996e-10	2.585242e+01	6.979524e+01
2.720000e-06	3.756969e-06	9.908168e-10	2.609562e+01	7.004435e+01
2.730000e-06	3.791496e-06	9.966109e-10	2.633544e+01	7.027847e+01
2.740000e-06	3.825636e-06	1.002310e-09	2.657257e+01	7.049827e+01
2.750000e-06	3.859490e-06	1.006178e-09	2.680772e+01	7.070444e+01
2.760000e-06	3.892911e-06	1.009105e-09	2.703986e+01	7.089770e+01
2.770000e-06	3.925856e-06	1.011263e-09	2.726870e+01	7.107880e+01
2.780000e-06	3.958425e-06	1.014132e-09	2.749491e+01	7.124848e+01
2.790000e-06	3.990595e-06	1.020293e-09	2.771836e+01	7.140752e+01
2.800000e-06	4.022462e-06	1.025691e-09	2.793971e+01	7.155668e+01
2.810000e-06	4.054207e-06	1.029053e-09	2.816021e+01	7.169673e+01
2.820000e-06	4.085873e-06	1.032485e-09	2.838016e+01	7.182844e+01
2.830000e-06	4.117262e-06	1.035774e-09	2.859819e+01	7.195254e+01
2.840000e-06	4.148346e-06	1.036805e-09	2.881409e+01	7.206976e+01
2.850000e-06	4.179179e-06	1.034643e-09	2.902825e+01	7.218079e+01
2.860000e-06	4.209736e-06	1.032926e-09	2.924050e+01	7.228629e+01
2.870000e-06	4.240004e-06	1.035346e-09	2.945074e+01	7.238686e+01
2.880000e-06	4.269984e-06	1.039856e-09	2.965898e+01	7.248307e+01
2.890000e-06	4.299667e-06	1.045031e-09	2.986515e+01	7.257542e+01
2.900000e-06	4.329071e-06	1.047949e-09	3.006940e+01	7.266436e+01
