# Temperatura_=_12.77
# Concentracion g/m^3_=_1620.0
# C_Vs_to_Am_M_A/Vsm_=_65563218390.804596
# pendiente_HvsI_1/m_=_3716.3
# ordenada_HvsI_A/m_=_1297.0
# frecuencia_Hz_=_135095.01287621915

Tiempo_(s)	Campo_(V.s)	Magnetizacion_(V.s)	Campo_(kA/m)	Magnetizacion_(A/m)
0.000000e+00	-5.530985e-06	-1.698672e-09	-3.837870e+01	-1.109899e+02
1.000000e-08	-5.531278e-06	-1.696136e-09	-3.838073e+01	-1.109181e+02
2.000000e-08	-5.531375e-06	-1.693382e-09	-3.838140e+01	-1.108467e+02
3.000000e-08	-5.531169e-06	-1.694236e-09	-3.837997e+01	-1.107765e+02
4.000000e-08	-5.530512e-06	-1.696930e-09	-3.837541e+01	-1.107084e+02
5.000000e-08	-5.529265e-06	-1.696187e-09	-3.836676e+01	-1.106430e+02
6.000000e-08	-5.527483e-06	-1.688589e-09	-3.835440e+01	-1.105810e+02
7.000000e-08	-5.525248e-06	-1.675523e-09	-3.833889e+01	-1.105230e+02
8.000000e-08	-5.522338e-06	-1.685765e-09	-3.831869e+01	-1.104693e+02
9.000000e-08	-5.518839e-06	-1.756976e-09	-3.829442e+01	-1.104202e+02
1.000000e-07	-5.514903e-06	-1.778475e-09	-3.826710e+01	-1.103759e+02
1.100000e-07	-5.510570e-06	-1.668433e-09	-3.823704e+01	-1.103362e+02
1.200000e-07	-5.506013e-06	-1.610683e-09	-3.820542e+01	-1.103011e+02
1.300000e-07	-5.501267e-06	-1.661683e-09	-3.817248e+01	-1.102701e+02
1.400000e-07	-5.496167e-06	-1.732290e-09	-3.813710e+01	-1.102429e+02
1.500000e-07	-5.490692e-06	-1.691506e-09	-3.809911e+01	-1.102188e+02
1.600000e-07	-5.484929e-06	-1.636739e-09	-3.805912e+01	-1.101971e+02
1.700000e-07	-5.478722e-06	-1.708407e-09	-3.801605e+01	-1.101768e+02
1.800000e-07	-5.471996e-06	-1.728234e-09	-3.796938e+01	-1.101572e+02
1.900000e-07	-5.464925e-06	-1.691658e-09	-3.792032e+01	-1.101371e+02
2.000000e-07	-5.457648e-06	-1.608409e-09	-3.786982e+01	-1.101155e+02
2.100000e-07	-5.450084e-06	-1.657896e-09	-3.781733e+01	-1.100911e+02
2.200000e-07	-5.442149e-06	-1.712630e-09	-3.776227e+01	-1.100630e+02
2.300000e-07	-5.433985e-06	-1.722983e-09	-3.770562e+01	-1.100298e+02
2.400000e-07	-5.425566e-06	-1.665661e-09	-3.764721e+01	-1.099905e+02
2.500000e-07	-5.416561e-06	-1.660673e-09	-3.758473e+01	-1.099441e+02
2.600000e-07	-5.406669e-06	-1.672154e-09	-3.751608e+01	-1.098894e+02
2.700000e-07	-5.396088e-06	-1.674852e-09	-3.744267e+01	-1.098256e+02
2.800000e-07	-5.384982e-06	-1.663951e-09	-3.736560e+01	-1.097518e+02
2.900000e-07	-5.373468e-06	-1.670752e-09	-3.728571e+01	-1.096674e+02
3.000000e-07	-5.361610e-06	-1.692159e-09	-3.720343e+01	-1.095718e+02
3.100000e-07	-5.349398e-06	-1.674031e-09	-3.711869e+01	-1.094645e+02
3.200000e-07	-5.336769e-06	-1.656125e-09	-3.703106e+01	-1.093453e+02
3.300000e-07	-5.323675e-06	-1.646645e-09	-3.694020e+01	-1.092141e+02
3.400000e-07	-5.310303e-06	-1.682006e-09	-3.684742e+01	-1.090709e+02
3.500000e-07	-5.296589e-06	-1.659239e-09	-3.675226e+01	-1.089159e+02
3.600000e-07	-5.282376e-06	-1.651563e-09	-3.665364e+01	-1.087494e+02
3.700000e-07	-5.267652e-06	-1.673605e-09	-3.655147e+01	-1.085719e+02
3.800000e-07	-5.252450e-06	-1.685421e-09	-3.644598e+01	-1.083842e+02
3.900000e-07	-5.236669e-06	-1.621211e-09	-3.633648e+01	-1.081868e+02
4.000000e-07	-5.220460e-06	-1.634810e-09	-3.622401e+01	-1.079807e+02
4.100000e-07	-5.203981e-06	-1.671998e-09	-3.610967e+01	-1.077667e+02
4.200000e-07	-5.187102e-06	-1.638053e-09	-3.599254e+01	-1.075459e+02
4.300000e-07	-5.169801e-06	-1.596969e-09	-3.587249e+01	-1.073194e+02
4.400000e-07	-5.152251e-06	-1.667768e-09	-3.575072e+01	-1.070881e+02
4.500000e-07	-5.134439e-06	-1.659682e-09	-3.562712e+01	-1.068532e+02
4.600000e-07	-5.116081e-06	-1.586194e-09	-3.549974e+01	-1.066157e+02
4.700000e-07	-5.097201e-06	-1.605920e-09	-3.536873e+01	-1.063767e+02
4.800000e-07	-5.078100e-06	-1.657877e-09	-3.523619e+01	-1.061371e+02
4.900000e-07	-5.058718e-06	-1.593364e-09	-3.510171e+01	-1.058979e+02
5.000000e-07	-5.039044e-06	-1.586483e-09	-3.496519e+01	-1.056599e+02
5.100000e-07	-5.019244e-06	-1.641141e-09	-3.482780e+01	-1.054238e+02
5.200000e-07	-4.999142e-06	-1.595570e-09	-3.468831e+01	-1.051902e+02
5.300000e-07	-4.978658e-06	-1.548314e-09	-3.454618e+01	-1.049595e+02
5.400000e-07	-4.957866e-06	-1.617065e-09	-3.440191e+01	-1.047322e+02
5.500000e-07	-4.936683e-06	-1.608279e-09	-3.425492e+01	-1.045085e+02
5.600000e-07	-4.915033e-06	-1.532173e-09	-3.410470e+01	-1.042885e+02
5.700000e-07	-4.893062e-06	-1.573679e-09	-3.395224e+01	-1.040721e+02
5.800000e-07	-4.870867e-06	-1.613896e-09	-3.379823e+01	-1.038592e+02
5.900000e-07	-4.848357e-06	-1.552346e-09	-3.364204e+01	-1.036495e+02
6.000000e-07	-4.825467e-06	-1.549559e-09	-3.348321e+01	-1.034426e+02
6.100000e-07	-4.802278e-06	-1.595000e-09	-3.332231e+01	-1.032380e+02
6.200000e-07	-4.778856e-06	-1.545675e-09	-3.315978e+01	-1.030350e+02
6.300000e-07	-4.755219e-06	-1.521635e-09	-3.299577e+01	-1.028332e+02
6.400000e-07	-4.731382e-06	-1.566604e-09	-3.283037e+01	-1.026316e+02
6.500000e-07	-4.707149e-06	-1.557375e-09	-3.266222e+01	-1.024297e+02
6.600000e-07	-4.682459e-06	-1.517860e-09	-3.249089e+01	-1.022265e+02
6.700000e-07	-4.657357e-06	-1.550568e-09	-3.231672e+01	-1.020213e+02
6.800000e-07	-4.631774e-06	-1.548492e-09	-3.213920e+01	-1.018132e+02
6.900000e-07	-4.605502e-06	-1.512061e-09	-3.195691e+01	-1.016015e+02
7.000000e-07	-4.578598e-06	-1.520992e-09	-3.177022e+01	-1.013854e+02
7.100000e-07	-4.551381e-06	-1.540445e-09	-3.158137e+01	-1.011643e+02
7.200000e-07	-4.523909e-06	-1.504964e-09	-3.139074e+01	-1.009375e+02
7.300000e-07	-4.496248e-06	-1.503547e-09	-3.119881e+01	-1.007043e+02
7.400000e-07	-4.468463e-06	-1.521042e-09	-3.100601e+01	-1.004643e+02
7.500000e-07	-4.440459e-06	-1.503301e-09	-3.081170e+01	-1.002170e+02
7.600000e-07	-4.412143e-06	-1.482361e-09	-3.061521e+01	-9.996222e+01
7.700000e-07	-4.383533e-06	-1.497437e-09	-3.041669e+01	-9.969954e+01
7.800000e-07	-4.354633e-06	-1.488171e-09	-3.021616e+01	-9.942885e+01
7.900000e-07	-4.325373e-06	-1.471470e-09	-3.001313e+01	-9.915005e+01
8.000000e-07	-4.295818e-06	-1.479255e-09	-2.980805e+01	-9.886315e+01
8.100000e-07	-4.266044e-06	-1.476911e-09	-2.960146e+01	-9.856822e+01
8.200000e-07	-4.235967e-06	-1.447709e-09	-2.939276e+01	-9.826541e+01
8.300000e-07	-4.205518e-06	-1.442111e-09	-2.918147e+01	-9.795492e+01
8.400000e-07	-4.174779e-06	-1.444131e-09	-2.896818e+01	-9.763701e+01
8.500000e-07	-4.143791e-06	-1.427285e-09	-2.875316e+01	-9.731200e+01
8.600000e-07	-4.112548e-06	-1.423360e-09	-2.853637e+01	-9.698023e+01
8.700000e-07	-4.081100e-06	-1.432350e-09	-2.831816e+01	-9.664207e+01
8.800000e-07	-4.049495e-06	-1.422092e-09	-2.809885e+01	-9.629791e+01
8.900000e-07	-4.017747e-06	-1.408513e-09	-2.787856e+01	-9.594815e+01
9.000000e-07	-3.985846e-06	-1.412861e-09	-2.765720e+01	-9.559318e+01
9.100000e-07	-3.953653e-06	-1.403908e-09	-2.743382e+01	-9.523338e+01
9.200000e-07	-3.921098e-06	-1.388973e-09	-2.720793e+01	-9.486913e+01
9.300000e-07	-3.888178e-06	-1.390390e-09	-2.697950e+01	-9.450078e+01
9.400000e-07	-3.854808e-06	-1.394975e-09	-2.674795e+01	-9.412863e+01
9.500000e-07	-3.820861e-06	-1.381658e-09	-2.651240e+01	-9.375298e+01
9.600000e-07	-3.786316e-06	-1.378460e-09	-2.627270e+01	-9.337408e+01
9.700000e-07	-3.751362e-06	-1.378274e-09	-2.603015e+01	-9.299214e+01
9.800000e-07	-3.716118e-06	-1.367124e-09	-2.578560e+01	-9.260734e+01
9.900000e-07	-3.680636e-06	-1.353554e-09	-2.553939e+01	-9.221981e+01
1.000000e-06	-3.645014e-06	-1.352725e-09	-2.529222e+01	-9.182967e+01
1.010000e-06	-3.609303e-06	-1.341461e-09	-2.504443e+01	-9.143698e+01
1.020000e-06	-3.573463e-06	-1.329767e-09	-2.479574e+01	-9.104179e+01
1.030000e-06	-3.537476e-06	-1.328449e-09	-2.454603e+01	-9.064411e+01
1.040000e-06	-3.501296e-06	-1.329302e-09	-2.429498e+01	-9.024392e+01
1.050000e-06	-3.464788e-06	-1.318146e-09	-2.404165e+01	-8.984121e+01
1.060000e-06	-3.428002e-06	-1.312972e-09	-2.378640e+01	-8.943592e+01
1.070000e-06	-3.391007e-06	-1.310893e-09	-2.352970e+01	-8.902801e+01
1.080000e-06	-3.353734e-06	-1.301561e-09	-2.327107e+01	-8.861742e+01
1.090000e-06	-3.316235e-06	-1.289760e-09	-2.301087e+01	-8.820407e+01
1.100000e-06	-3.278534e-06	-1.284183e-09	-2.274927e+01	-8.778791e+01
1.110000e-06	-3.240590e-06	-1.273705e-09	-2.248598e+01	-8.736886e+01
1.120000e-06	-3.202436e-06	-1.260556e-09	-2.222123e+01	-8.694687e+01
1.130000e-06	-3.163999e-06	-1.253586e-09	-2.195453e+01	-8.652186e+01
1.140000e-06	-3.125317e-06	-1.248927e-09	-2.168612e+01	-8.609379e+01
1.150000e-06	-3.086491e-06	-1.242761e-09	-2.141671e+01	-8.566258e+01
1.160000e-06	-3.047431e-06	-1.239439e-09	-2.114568e+01	-8.522818e+01
1.170000e-06	-3.008131e-06	-1.234968e-09	-2.087298e+01	-8.479053e+01
1.180000e-06	-2.968731e-06	-1.221239e-09	-2.059959e+01	-8.434956e+01
1.190000e-06	-2.929262e-06	-1.210299e-09	-2.032572e+01	-8.390518e+01
1.200000e-06	-2.889618e-06	-1.205333e-09	-2.005064e+01	-8.345730e+01
1.210000e-06	-2.849816e-06	-1.198965e-09	-1.977445e+01	-8.300580e+01
1.220000e-06	-2.809904e-06	-1.190405e-09	-1.949751e+01	-8.255056e+01
1.230000e-06	-2.769849e-06	-1.185967e-09	-1.921958e+01	-8.209141e+01
1.240000e-06	-2.729588e-06	-1.178455e-09	-1.894021e+01	-8.162817e+01
1.250000e-06	-2.689116e-06	-1.169234e-09	-1.865938e+01	-8.116059e+01
1.260000e-06	-2.648367e-06	-1.161516e-09	-1.837663e+01	-8.068844e+01
1.270000e-06	-2.607363e-06	-1.154069e-09	-1.809211e+01	-8.021140e+01
1.280000e-06	-2.566152e-06	-1.143230e-09	-1.780616e+01	-7.972913e+01
1.290000e-06	-2.524672e-06	-1.133489e-09	-1.751833e+01	-7.924126e+01
1.300000e-06	-2.482812e-06	-1.123730e-09	-1.722787e+01	-7.874736e+01
1.310000e-06	-2.440615e-06	-1.115222e-09	-1.693507e+01	-7.824697e+01
1.320000e-06	-2.398115e-06	-1.105809e-09	-1.664017e+01	-7.773959e+01
1.330000e-06	-2.355291e-06	-1.098838e-09	-1.634302e+01	-7.722469e+01
1.340000e-06	-2.312184e-06	-1.088905e-09	-1.604391e+01	-7.670170e+01
1.350000e-06	-2.268890e-06	-1.080110e-09	-1.574350e+01	-7.617003e+01
1.360000e-06	-2.225477e-06	-1.074171e-09	-1.544226e+01	-7.562907e+01
1.370000e-06	-2.181926e-06	-1.070018e-09	-1.514007e+01	-7.507819e+01
1.380000e-06	-2.138275e-06	-1.063885e-09	-1.483718e+01	-7.451676e+01
1.390000e-06	-2.094553e-06	-1.054917e-09	-1.453379e+01	-7.394414e+01
1.400000e-06	-2.050796e-06	-1.043301e-09	-1.423017e+01	-7.335969e+01
1.410000e-06	-2.006969e-06	-1.030164e-09	-1.392606e+01	-7.276279e+01
1.420000e-06	-1.963069e-06	-1.015358e-09	-1.362145e+01	-7.215283e+01
1.430000e-06	-1.919110e-06	-1.001806e-09	-1.331643e+01	-7.152922e+01
1.440000e-06	-1.875038e-06	-9.923198e-10	-1.301062e+01	-7.089142e+01
1.450000e-06	-1.830858e-06	-9.829968e-10	-1.270405e+01	-7.023888e+01
1.460000e-06	-1.786509e-06	-9.738963e-10	-1.239632e+01	-6.957111e+01
1.470000e-06	-1.741963e-06	-9.631584e-10	-1.208723e+01	-6.888767e+01
1.480000e-06	-1.697294e-06	-9.508449e-10	-1.177727e+01	-6.818812e+01
1.490000e-06	-1.652457e-06	-9.368278e-10	-1.146616e+01	-6.747209e+01
1.500000e-06	-1.607508e-06	-9.218471e-10	-1.115426e+01	-6.673923e+01
1.510000e-06	-1.562457e-06	-9.066824e-10	-1.084166e+01	-6.598923e+01
1.520000e-06	-1.517236e-06	-8.948100e-10	-1.052788e+01	-6.522180e+01
1.530000e-06	-1.471807e-06	-8.854930e-10	-1.021265e+01	-6.443668e+01
1.540000e-06	-1.426325e-06	-8.732725e-10	-9.897057e+00	-6.363363e+01
1.550000e-06	-1.380852e-06	-8.586669e-10	-9.581527e+00	-6.281242e+01
1.560000e-06	-1.335232e-06	-8.454081e-10	-9.264981e+00	-6.197283e+01
1.570000e-06	-1.289591e-06	-8.342689e-10	-8.948286e+00	-6.111463e+01
1.580000e-06	-1.243947e-06	-8.237932e-10	-8.631568e+00	-6.023756e+01
1.590000e-06	-1.198098e-06	-8.099941e-10	-8.313429e+00	-5.934137e+01
1.600000e-06	-1.152188e-06	-7.932731e-10	-7.994866e+00	-5.842577e+01
1.610000e-06	-1.106332e-06	-7.763833e-10	-7.676679e+00	-5.749041e+01
1.620000e-06	-1.060330e-06	-7.615058e-10	-7.357477e+00	-5.653492e+01
1.630000e-06	-1.014260e-06	-7.497043e-10	-7.037803e+00	-5.555887e+01
1.640000e-06	-9.681505e-07	-7.400056e-10	-6.717854e+00	-5.456178e+01
1.650000e-06	-9.218600e-07	-7.264393e-10	-6.396652e+00	-5.354308e+01
1.660000e-06	-8.754790e-07	-7.106760e-10	-6.074821e+00	-5.250217e+01
1.670000e-06	-8.291127e-07	-6.945033e-10	-5.753092e+00	-5.143836e+01
1.680000e-06	-7.827161e-07	-6.770791e-10	-5.431153e+00	-5.035090e+01
1.690000e-06	-7.363234e-07	-6.597966e-10	-5.109240e+00	-4.923897e+01
1.700000e-06	-6.898387e-07	-6.420932e-10	-4.786690e+00	-4.810171e+01
1.710000e-06	-6.432099e-07	-6.260923e-10	-4.463139e+00	-4.693819e+01
1.720000e-06	-5.965662e-07	-6.129964e-10	-4.139485e+00	-4.574742e+01
1.730000e-06	-5.499667e-07	-5.975881e-10	-3.816138e+00	-4.452840e+01
1.740000e-06	-5.033712e-07	-5.768429e-10	-3.492819e+00	-4.328008e+01
1.750000e-06	-4.566515e-07	-5.525866e-10	-3.168638e+00	-4.200143e+01
1.760000e-06	-4.098335e-07	-5.290785e-10	-2.843774e+00	-4.069138e+01
1.770000e-06	-3.629972e-07	-5.071587e-10	-2.518784e+00	-3.934889e+01
1.780000e-06	-3.160685e-07	-4.894604e-10	-2.193153e+00	-3.797298e+01
1.790000e-06	-2.691057e-07	-4.723311e-10	-1.867285e+00	-3.656268e+01
1.800000e-06	-2.222226e-07	-4.524296e-10	-1.541970e+00	-3.511711e+01
1.810000e-06	-1.753043e-07	-4.312873e-10	-1.216411e+00	-3.363547e+01
1.820000e-06	-1.283721e-07	-4.099720e-10	-8.907554e-01	-3.211705e+01
1.830000e-06	-8.144415e-08	-3.877082e-10	-5.651290e-01	-3.056127e+01
1.840000e-06	-3.450019e-08	-3.654474e-10	-2.393918e-01	-2.896769e+01
1.850000e-06	1.239915e-08	-3.439172e-10	8.603590e-02	-2.733600e+01
1.860000e-06	5.933004e-08	-3.220780e-10	4.116825e-01	-2.566606e+01
1.870000e-06	1.062652e-07	-2.984810e-10	7.373586e-01	-2.395793e+01
1.880000e-06	1.531423e-07	-2.723019e-10	1.062632e+00	-2.221181e+01
1.890000e-06	2.000549e-07	-2.461540e-10	1.388152e+00	-2.042814e+01
1.900000e-06	2.469693e-07	-2.193245e-10	1.713684e+00	-1.860753e+01
1.910000e-06	2.938796e-07	-1.906292e-10	2.039187e+00	-1.675081e+01
1.920000e-06	3.408374e-07	-1.611030e-10	2.365021e+00	-1.485902e+01
1.930000e-06	3.877313e-07	-1.316973e-10	2.690411e+00	-1.293339e+01
1.940000e-06	4.345433e-07	-1.038251e-10	3.015232e+00	-1.097538e+01
1.950000e-06	4.813581e-07	-7.608630e-11	3.340074e+00	-8.986628e+00
1.960000e-06	5.281035e-07	-4.939371e-11	3.664433e+00	-6.968975e+00
1.970000e-06	5.747637e-07	-2.495686e-11	3.988201e+00	-4.924445e+00
1.980000e-06	6.213400e-07	8.683150e-13	4.311387e+00	-2.855235e+00
1.990000e-06	6.678277e-07	2.825016e-11	4.633959e+00	-7.637005e-01
2.000000e-06	7.142552e-07	5.914133e-11	4.956112e+00	1.347658e+00
2.010000e-06	7.605890e-07	9.396328e-11	5.277616e+00	3.476210e+00
2.020000e-06	8.069192e-07	1.297031e-10	5.599094e+00	5.619216e+00
2.030000e-06	8.532928e-07	1.624372e-10	5.920874e+00	7.773840e+00
2.040000e-06	8.995605e-07	1.922823e-10	6.241919e+00	9.937176e+00
2.050000e-06	9.456631e-07	2.198224e-10	6.561818e+00	1.210626e+01
2.060000e-06	9.916163e-07	2.465981e-10	6.880681e+00	1.427809e+01
2.070000e-06	1.037504e-06	2.763713e-10	7.199089e+00	1.644966e+01
2.080000e-06	1.083444e-06	3.101681e-10	7.517858e+00	1.861797e+01
2.090000e-06	1.129359e-06	3.435501e-10	7.836455e+00	2.078001e+01
2.100000e-06	1.175148e-06	3.748787e-10	8.154178e+00	2.293287e+01
2.110000e-06	1.220817e-06	4.060285e-10	8.471072e+00	2.507365e+01
2.120000e-06	1.266480e-06	4.366699e-10	8.787918e+00	2.719955e+01
2.130000e-06	1.312046e-06	4.670595e-10	9.104097e+00	2.930785e+01
2.140000e-06	1.357410e-06	4.959567e-10	9.418871e+00	3.139597e+01
2.150000e-06	1.402781e-06	5.229387e-10	9.733694e+00	3.346141e+01
2.160000e-06	1.448152e-06	5.494742e-10	1.004852e+01	3.550183e+01
2.170000e-06	1.493382e-06	5.765519e-10	1.036236e+01	3.751501e+01
2.180000e-06	1.538596e-06	6.044463e-10	1.067609e+01	3.949890e+01
2.190000e-06	1.583715e-06	6.312071e-10	1.098917e+01	4.145161e+01
2.200000e-06	1.628659e-06	6.577793e-10	1.130102e+01	4.337141e+01
2.210000e-06	1.673412e-06	6.862483e-10	1.161156e+01	4.525672e+01
2.220000e-06	1.717876e-06	7.133218e-10	1.192009e+01	4.710617e+01
2.230000e-06	1.762157e-06	7.392059e-10	1.222735e+01	4.891854e+01
2.240000e-06	1.806412e-06	7.634573e-10	1.253443e+01	5.069278e+01
2.250000e-06	1.850613e-06	7.839009e-10	1.284113e+01	5.242803e+01
2.260000e-06	1.894684e-06	8.026201e-10	1.314693e+01	5.412360e+01
2.270000e-06	1.938650e-06	8.220551e-10	1.345201e+01	5.577896e+01
2.280000e-06	1.982522e-06	8.423864e-10	1.375643e+01	5.739374e+01
2.290000e-06	2.026356e-06	8.630228e-10	1.406059e+01	5.896774e+01
2.300000e-06	2.070167e-06	8.837398e-10	1.436459e+01	6.050092e+01
2.310000e-06	2.113937e-06	9.046898e-10	1.466830e+01	6.199336e+01
2.320000e-06	2.157651e-06	9.258163e-10	1.497162e+01	6.344529e+01
2.330000e-06	2.201246e-06	9.473477e-10	1.527412e+01	6.485708e+01
2.340000e-06	2.244757e-06	9.681325e-10	1.557604e+01	6.622922e+01
2.350000e-06	2.288121e-06	9.884531e-10	1.587694e+01	6.756229e+01
2.360000e-06	2.331253e-06	1.007822e-09	1.617622e+01	6.885698e+01
2.370000e-06	2.374128e-06	1.024593e-09	1.647373e+01	7.011410e+01
2.380000e-06	2.416751e-06	1.039528e-09	1.676948e+01	7.133449e+01
2.390000e-06	2.459160e-06	1.052680e-09	1.706375e+01	7.251909e+01
2.400000e-06	2.501266e-06	1.066833e-09	1.735592e+01	7.366890e+01
2.410000e-06	2.542893e-06	1.081960e-09	1.764477e+01	7.478496e+01
2.420000e-06	2.584119e-06	1.098371e-09	1.793082e+01	7.586834e+01
2.430000e-06	2.625117e-06	1.114197e-09	1.821530e+01	7.692015e+01
2.440000e-06	2.665840e-06	1.127155e-09	1.849787e+01	7.794149e+01
2.450000e-06	2.706250e-06	1.138367e-09	1.877827e+01	7.893348e+01
2.460000e-06	2.746413e-06	1.148171e-09	1.905696e+01	7.989724e+01
2.470000e-06	2.786482e-06	1.158842e-09	1.933499e+01	8.083385e+01
2.480000e-06	2.826440e-06	1.169431e-09	1.961225e+01	8.174439e+01
2.490000e-06	2.866262e-06	1.179475e-09	1.988857e+01	8.262989e+01
2.500000e-06	2.905950e-06	1.192571e-09	2.016396e+01	8.349134e+01
2.510000e-06	2.945510e-06	1.206235e-09	2.043846e+01	8.432969e+01
2.520000e-06	2.984951e-06	1.219264e-09	2.071214e+01	8.514582e+01
2.530000e-06	3.024250e-06	1.231934e-09	2.098482e+01	8.594057e+01
2.540000e-06	3.063409e-06	1.242338e-09	2.125655e+01	8.671469e+01
2.550000e-06	3.102256e-06	1.252131e-09	2.152610e+01	8.746890e+01
2.560000e-06	3.140826e-06	1.261654e-09	2.179373e+01	8.820381e+01
2.570000e-06	3.179144e-06	1.271119e-09	2.205962e+01	8.892000e+01
2.580000e-06	3.217196e-06	1.279912e-09	2.232365e+01	8.961797e+01
2.590000e-06	3.255120e-06	1.287921e-09	2.258680e+01	9.029815e+01
2.600000e-06	3.292917e-06	1.293908e-09	2.284907e+01	9.096092e+01
2.610000e-06	3.330440e-06	1.300487e-09	2.310944e+01	9.160658e+01
2.620000e-06	3.367711e-06	1.310003e-09	2.336806e+01	9.223542e+01
2.630000e-06	3.404798e-06	1.320794e-09	2.362539e+01	9.284764e+01
2.640000e-06	3.441683e-06	1.333125e-09	2.388133e+01	9.344343e+01
2.650000e-06	3.478310e-06	1.345569e-09	2.413548e+01	9.402295e+01
2.660000e-06	3.514608e-06	1.356684e-09	2.438735e+01	9.458632e+01
2.670000e-06	3.550684e-06	1.363872e-09	2.463768e+01	9.513367e+01
2.680000e-06	3.586604e-06	1.367736e-09	2.488692e+01	9.566512e+01
2.690000e-06	3.622419e-06	1.371164e-09	2.513543e+01	9.618077e+01
2.700000e-06	3.658142e-06	1.377789e-09	2.538331e+01	9.668077e+01
2.710000e-06	3.693677e-06	1.388551e-09	2.562988e+01	9.716526e+01
2.720000e-06	3.728945e-06	1.400230e-09	2.587460e+01	9.763444e+01
2.730000e-06	3.763936e-06	1.412406e-09	2.611740e+01	9.808851e+01
2.740000e-06	3.798667e-06	1.421657e-09	2.635839e+01	9.852773e+01
2.750000e-06	3.833006e-06	1.427286e-09	2.659667e+01	9.895240e+01
2.760000e-06	3.866769e-06	1.428780e-09	2.683094e+01	9.936289e+01
2.770000e-06	3.900026e-06	1.430139e-09	2.706171e+01	9.975958e+01
2.780000e-06	3.932814e-06	1.434374e-09	2.728922e+01	1.001429e+02
2.790000e-06	3.965228e-06	1.440837e-09	2.751414e+01	1.005134e+02
2.800000e-06	3.997403e-06	1.450748e-09	2.773739e+01	1.008717e+02
2.810000e-06	4.029358e-06	1.460206e-09	2.795912e+01	1.012182e+02
2.820000e-06	4.061132e-06	1.467217e-09	2.817960e+01	1.015537e+02
2.830000e-06	4.092767e-06	1.472864e-09	2.839911e+01	1.018788e+02
2.840000e-06	4.124277e-06	1.477167e-09	2.861775e+01	1.021942e+02
2.850000e-06	4.155600e-06	1.480306e-09	2.883510e+01	1.025006e+02
2.860000e-06	4.186540e-06	1.481151e-09	2.904979e+01	1.027987e+02
2.870000e-06	4.217081e-06	1.483375e-09	2.926171e+01	1.030892e+02
2.880000e-06	4.247338e-06	1.487977e-09	2.947166e+01	1.033729e+02
2.890000e-06	4.277258e-06	1.494087e-09	2.967926e+01	1.036504e+02
2.900000e-06	4.306902e-06	1.500772e-09	2.988496e+01	1.039223e+02
