# Temperatura_=_8.9
# Concentracion g/m^3_=_1620.0
# C_Vs_to_Am_M_A/Vsm_=_65563218390.804596
# pendiente_HvsI_1/m_=_3716.3
# ordenada_HvsI_A/m_=_1297.0
# frecuencia_Hz_=_135098.71017457504

Tiempo_(s)	Campo_(V.s)	Magnetizacion_(V.s)	Campo_(kA/m)	Magnetizacion_(A/m)
0.000000e+00	-5.536762e-06	-1.576441e-09	-3.837799e+01	-1.037679e+02
1.000000e-08	-5.536909e-06	-1.577909e-09	-3.837902e+01	-1.037599e+02
2.000000e-08	-5.536770e-06	-1.584609e-09	-3.837805e+01	-1.037539e+02
3.000000e-08	-5.536167e-06	-1.591279e-09	-3.837387e+01	-1.037498e+02
4.000000e-08	-5.535105e-06	-1.592694e-09	-3.836651e+01	-1.037471e+02
5.000000e-08	-5.533539e-06	-1.587580e-09	-3.835565e+01	-1.037455e+02
6.000000e-08	-5.531353e-06	-1.580645e-09	-3.834050e+01	-1.037446e+02
7.000000e-08	-5.528557e-06	-1.585419e-09	-3.832112e+01	-1.037438e+02
8.000000e-08	-5.525200e-06	-1.583314e-09	-3.829786e+01	-1.037426e+02
9.000000e-08	-5.521355e-06	-1.566284e-09	-3.827120e+01	-1.037404e+02
1.000000e-07	-5.517115e-06	-1.594592e-09	-3.824181e+01	-1.037366e+02
1.100000e-07	-5.512637e-06	-1.623230e-09	-3.821078e+01	-1.037305e+02
1.200000e-07	-5.507962e-06	-1.580491e-09	-3.817837e+01	-1.037214e+02
1.300000e-07	-5.503022e-06	-1.539760e-09	-3.814412e+01	-1.037087e+02
1.400000e-07	-5.497758e-06	-1.569659e-09	-3.810764e+01	-1.036916e+02
1.500000e-07	-5.492069e-06	-1.628056e-09	-3.806821e+01	-1.036695e+02
1.600000e-07	-5.485885e-06	-1.574848e-09	-3.802534e+01	-1.036418e+02
1.700000e-07	-5.479286e-06	-1.536317e-09	-3.797960e+01	-1.036079e+02
1.800000e-07	-5.472361e-06	-1.567279e-09	-3.793160e+01	-1.035671e+02
1.900000e-07	-5.465159e-06	-1.618652e-09	-3.788168e+01	-1.035189e+02
2.000000e-07	-5.457587e-06	-1.581119e-09	-3.782919e+01	-1.034628e+02
2.100000e-07	-5.449694e-06	-1.565674e-09	-3.777448e+01	-1.033985e+02
2.200000e-07	-5.441596e-06	-1.593574e-09	-3.771835e+01	-1.033255e+02
2.300000e-07	-5.433172e-06	-1.620848e-09	-3.765996e+01	-1.032437e+02
2.400000e-07	-5.424178e-06	-1.586444e-09	-3.759762e+01	-1.031527e+02
2.500000e-07	-5.414558e-06	-1.561909e-09	-3.753094e+01	-1.030526e+02
2.600000e-07	-5.404324e-06	-1.571412e-09	-3.746000e+01	-1.029431e+02
2.700000e-07	-5.393509e-06	-1.574416e-09	-3.738504e+01	-1.028245e+02
2.800000e-07	-5.382215e-06	-1.560927e-09	-3.730675e+01	-1.026967e+02
2.900000e-07	-5.370499e-06	-1.549228e-09	-3.722555e+01	-1.025600e+02
3.000000e-07	-5.358393e-06	-1.568470e-09	-3.714163e+01	-1.024147e+02
3.100000e-07	-5.345913e-06	-1.570490e-09	-3.705513e+01	-1.022610e+02
3.200000e-07	-5.333011e-06	-1.573135e-09	-3.696570e+01	-1.020994e+02
3.300000e-07	-5.319644e-06	-1.544769e-09	-3.687305e+01	-1.019304e+02
3.400000e-07	-5.305975e-06	-1.551383e-09	-3.677830e+01	-1.017544e+02
3.500000e-07	-5.291940e-06	-1.561838e-09	-3.668102e+01	-1.015719e+02
3.600000e-07	-5.277465e-06	-1.557451e-09	-3.658068e+01	-1.013836e+02
3.700000e-07	-5.262488e-06	-1.520556e-09	-3.647687e+01	-1.011901e+02
3.800000e-07	-5.246980e-06	-1.547113e-09	-3.636938e+01	-1.009919e+02
3.900000e-07	-5.230993e-06	-1.559651e-09	-3.625856e+01	-1.007898e+02
4.000000e-07	-5.214497e-06	-1.517103e-09	-3.614422e+01	-1.005843e+02
4.100000e-07	-5.197617e-06	-1.506038e-09	-3.602722e+01	-1.003761e+02
4.200000e-07	-5.180571e-06	-1.563835e-09	-3.590906e+01	-1.001657e+02
4.300000e-07	-5.163221e-06	-1.536907e-09	-3.578880e+01	-9.995383e+01
4.400000e-07	-5.145439e-06	-1.489087e-09	-3.566554e+01	-9.974099e+01
4.500000e-07	-5.127279e-06	-1.534187e-09	-3.553967e+01	-9.952771e+01
4.600000e-07	-5.108654e-06	-1.559702e-09	-3.541057e+01	-9.931448e+01
4.700000e-07	-5.089587e-06	-1.484424e-09	-3.527841e+01	-9.910174e+01
4.800000e-07	-5.070236e-06	-1.488275e-09	-3.514427e+01	-9.888988e+01
4.900000e-07	-5.050707e-06	-1.541728e-09	-3.500891e+01	-9.867926e+01
5.000000e-07	-5.030978e-06	-1.502677e-09	-3.487216e+01	-9.847017e+01
5.100000e-07	-5.011006e-06	-1.471497e-09	-3.473372e+01	-9.826283e+01
5.200000e-07	-4.990677e-06	-1.527057e-09	-3.459281e+01	-9.805744e+01
5.300000e-07	-4.969911e-06	-1.515996e-09	-3.444887e+01	-9.785413e+01
5.400000e-07	-4.948796e-06	-1.465912e-09	-3.430252e+01	-9.765297e+01
5.500000e-07	-4.927336e-06	-1.506842e-09	-3.415377e+01	-9.745399e+01
5.600000e-07	-4.905496e-06	-1.520303e-09	-3.400238e+01	-9.725717e+01
5.700000e-07	-4.883289e-06	-1.458244e-09	-3.384846e+01	-9.706243e+01
5.800000e-07	-4.860788e-06	-1.462907e-09	-3.369249e+01	-9.686967e+01
5.900000e-07	-4.838020e-06	-1.505000e-09	-3.353467e+01	-9.667872e+01
6.000000e-07	-4.814899e-06	-1.466091e-09	-3.337441e+01	-9.648941e+01
6.100000e-07	-4.791448e-06	-1.449801e-09	-3.321186e+01	-9.630152e+01
6.200000e-07	-4.767781e-06	-1.484522e-09	-3.304782e+01	-9.611478e+01
6.300000e-07	-4.743894e-06	-1.474566e-09	-3.288224e+01	-9.592893e+01
6.400000e-07	-4.719761e-06	-1.441855e-09	-3.271496e+01	-9.574369e+01
6.500000e-07	-4.695242e-06	-1.462075e-09	-3.254501e+01	-9.555873e+01
6.600000e-07	-4.670213e-06	-1.461707e-09	-3.237152e+01	-9.537373e+01
6.700000e-07	-4.644618e-06	-1.437564e-09	-3.219411e+01	-9.518837e+01
6.800000e-07	-4.618495e-06	-1.438655e-09	-3.201304e+01	-9.500230e+01
6.900000e-07	-4.591938e-06	-1.450813e-09	-3.182896e+01	-9.481519e+01
7.000000e-07	-4.564917e-06	-1.434849e-09	-3.164166e+01	-9.462670e+01
7.100000e-07	-4.537553e-06	-1.434229e-09	-3.145199e+01	-9.443648e+01
7.200000e-07	-4.509965e-06	-1.440393e-09	-3.126076e+01	-9.424421e+01
7.300000e-07	-4.482175e-06	-1.434285e-09	-3.106814e+01	-9.404956e+01
7.400000e-07	-4.454203e-06	-1.425959e-09	-3.087425e+01	-9.385220e+01
7.500000e-07	-4.425997e-06	-1.429614e-09	-3.067874e+01	-9.365184e+01
7.600000e-07	-4.397479e-06	-1.420803e-09	-3.048107e+01	-9.344817e+01
7.700000e-07	-4.368601e-06	-1.411619e-09	-3.028090e+01	-9.324091e+01
7.800000e-07	-4.339415e-06	-1.411233e-09	-3.007860e+01	-9.302979e+01
7.900000e-07	-4.309992e-06	-1.409015e-09	-2.987465e+01	-9.281454e+01
8.000000e-07	-4.280245e-06	-1.400976e-09	-2.966846e+01	-9.259494e+01
8.100000e-07	-4.250090e-06	-1.398264e-09	-2.945944e+01	-9.237075e+01
8.200000e-07	-4.219720e-06	-1.392550e-09	-2.924893e+01	-9.214177e+01
8.300000e-07	-4.189191e-06	-1.381655e-09	-2.903733e+01	-9.190781e+01
8.400000e-07	-4.158329e-06	-1.381182e-09	-2.882340e+01	-9.166870e+01
8.500000e-07	-4.127184e-06	-1.383856e-09	-2.860753e+01	-9.142428e+01
8.600000e-07	-4.095824e-06	-1.377756e-09	-2.839015e+01	-9.117442e+01
8.700000e-07	-4.064266e-06	-1.368441e-09	-2.817141e+01	-9.091902e+01
8.800000e-07	-4.032460e-06	-1.365046e-09	-2.795095e+01	-9.065799e+01
8.900000e-07	-4.000439e-06	-1.355353e-09	-2.772899e+01	-9.039127e+01
9.000000e-07	-3.968272e-06	-1.347103e-09	-2.750603e+01	-9.011881e+01
9.100000e-07	-3.935732e-06	-1.345324e-09	-2.728047e+01	-8.984059e+01
9.200000e-07	-3.902813e-06	-1.344080e-09	-2.705230e+01	-8.955663e+01
9.300000e-07	-3.869501e-06	-1.337047e-09	-2.682139e+01	-8.926696e+01
9.400000e-07	-3.835605e-06	-1.338187e-09	-2.658645e+01	-8.897164e+01
9.500000e-07	-3.801216e-06	-1.333592e-09	-2.634808e+01	-8.867074e+01
9.600000e-07	-3.766399e-06	-1.323770e-09	-2.610674e+01	-8.836438e+01
9.700000e-07	-3.731270e-06	-1.314384e-09	-2.586325e+01	-8.805268e+01
9.800000e-07	-3.695947e-06	-1.311732e-09	-2.561841e+01	-8.773579e+01
9.900000e-07	-3.660412e-06	-1.301461e-09	-2.537210e+01	-8.741390e+01
1.000000e-06	-3.624763e-06	-1.291643e-09	-2.512500e+01	-8.708718e+01
1.010000e-06	-3.588961e-06	-1.289148e-09	-2.487684e+01	-8.675586e+01
1.020000e-06	-3.552983e-06	-1.288590e-09	-2.462746e+01	-8.642014e+01
1.030000e-06	-3.516846e-06	-1.286410e-09	-2.437697e+01	-8.608027e+01
1.040000e-06	-3.480475e-06	-1.286704e-09	-2.412487e+01	-8.573648e+01
1.050000e-06	-3.443850e-06	-1.282357e-09	-2.387100e+01	-8.538901e+01
1.060000e-06	-3.406894e-06	-1.273153e-09	-2.361484e+01	-8.503811e+01
1.070000e-06	-3.369662e-06	-1.263870e-09	-2.335677e+01	-8.468401e+01
1.080000e-06	-3.332209e-06	-1.257650e-09	-2.309716e+01	-8.432695e+01
1.090000e-06	-3.294472e-06	-1.248466e-09	-2.283559e+01	-8.396714e+01
1.100000e-06	-3.256549e-06	-1.240575e-09	-2.257272e+01	-8.360477e+01
1.110000e-06	-3.218416e-06	-1.237097e-09	-2.230841e+01	-8.324002e+01
1.120000e-06	-3.179968e-06	-1.232302e-09	-2.204191e+01	-8.287303e+01
1.130000e-06	-3.141310e-06	-1.228249e-09	-2.177395e+01	-8.250391e+01
1.140000e-06	-3.102542e-06	-1.223770e-09	-2.150523e+01	-8.213275e+01
1.150000e-06	-3.063560e-06	-1.218795e-09	-2.123503e+01	-8.175958e+01
1.160000e-06	-3.024330e-06	-1.208681e-09	-2.096310e+01	-8.138439e+01
1.170000e-06	-2.984946e-06	-1.198425e-09	-2.069012e+01	-8.100713e+01
1.180000e-06	-2.945439e-06	-1.192643e-09	-2.041627e+01	-8.062771e+01
1.190000e-06	-2.905773e-06	-1.191480e-09	-2.014133e+01	-8.024597e+01
1.200000e-06	-2.865926e-06	-1.188005e-09	-1.986513e+01	-7.986173e+01
1.210000e-06	-2.825959e-06	-1.182326e-09	-1.958810e+01	-7.947472e+01
1.220000e-06	-2.785915e-06	-1.174503e-09	-1.931054e+01	-7.908466e+01
1.230000e-06	-2.745727e-06	-1.169657e-09	-1.903197e+01	-7.869119e+01
1.240000e-06	-2.705260e-06	-1.163062e-09	-1.875147e+01	-7.829392e+01
1.250000e-06	-2.664539e-06	-1.155020e-09	-1.846922e+01	-7.789242e+01
1.260000e-06	-2.623530e-06	-1.146807e-09	-1.818496e+01	-7.748622e+01
1.270000e-06	-2.582236e-06	-1.138589e-09	-1.789874e+01	-7.707479e+01
1.280000e-06	-2.540562e-06	-1.128313e-09	-1.760987e+01	-7.665761e+01
1.290000e-06	-2.498613e-06	-1.118338e-09	-1.731910e+01	-7.623409e+01
1.300000e-06	-2.456513e-06	-1.109475e-09	-1.702729e+01	-7.580366e+01
1.310000e-06	-2.414040e-06	-1.103318e-09	-1.673289e+01	-7.536570e+01
1.320000e-06	-2.371268e-06	-1.098288e-09	-1.643642e+01	-7.491961e+01
1.330000e-06	-2.328266e-06	-1.091122e-09	-1.613834e+01	-7.446477e+01
1.340000e-06	-2.285029e-06	-1.082038e-09	-1.583865e+01	-7.400057e+01
1.350000e-06	-2.241656e-06	-1.076318e-09	-1.553801e+01	-7.352642e+01
1.360000e-06	-2.198138e-06	-1.070999e-09	-1.523637e+01	-7.304171e+01
1.370000e-06	-2.154505e-06	-1.062033e-09	-1.493392e+01	-7.254589e+01
1.380000e-06	-2.110788e-06	-1.049812e-09	-1.463090e+01	-7.203842e+01
1.390000e-06	-2.066976e-06	-1.037896e-09	-1.432721e+01	-7.151878e+01
1.400000e-06	-2.023120e-06	-1.028106e-09	-1.402323e+01	-7.098649e+01
1.410000e-06	-1.979216e-06	-1.019922e-09	-1.371891e+01	-7.044110e+01
1.420000e-06	-1.935257e-06	-1.011838e-09	-1.341421e+01	-6.988220e+01
1.430000e-06	-1.891221e-06	-1.004490e-09	-1.310897e+01	-6.930942e+01
1.440000e-06	-1.847013e-06	-9.974630e-10	-1.280255e+01	-6.872242e+01
1.450000e-06	-1.802661e-06	-9.878907e-10	-1.249512e+01	-6.812090e+01
1.460000e-06	-1.758199e-06	-9.755416e-10	-1.218694e+01	-6.750459e+01
1.470000e-06	-1.713581e-06	-9.590005e-10	-1.187767e+01	-6.687324e+01
1.480000e-06	-1.668788e-06	-9.404711e-10	-1.156718e+01	-6.622665e+01
1.490000e-06	-1.623889e-06	-9.235903e-10	-1.125596e+01	-6.556461e+01
1.500000e-06	-1.578910e-06	-9.103962e-10	-1.094419e+01	-6.488695e+01
1.510000e-06	-1.533785e-06	-9.001720e-10	-1.063141e+01	-6.419351e+01
1.520000e-06	-1.488542e-06	-8.937126e-10	-1.031781e+01	-6.348411e+01
1.530000e-06	-1.443165e-06	-8.845342e-10	-1.000328e+01	-6.275857e+01
1.540000e-06	-1.397690e-06	-8.706998e-10	-9.688072e+00	-6.201672e+01
1.550000e-06	-1.352136e-06	-8.546643e-10	-9.372313e+00	-6.125836e+01
1.560000e-06	-1.306506e-06	-8.407457e-10	-9.056030e+00	-6.048323e+01
1.570000e-06	-1.260777e-06	-8.276933e-10	-8.739062e+00	-5.969109e+01
1.580000e-06	-1.214952e-06	-8.152709e-10	-8.421423e+00	-5.888161e+01
1.590000e-06	-1.169068e-06	-8.022687e-10	-8.103381e+00	-5.805445e+01
1.600000e-06	-1.123097e-06	-7.902928e-10	-7.784735e+00	-5.720918e+01
1.610000e-06	-1.077004e-06	-7.794117e-10	-7.465237e+00	-5.634533e+01
1.620000e-06	-1.030796e-06	-7.696195e-10	-7.144949e+00	-5.546238e+01
1.630000e-06	-9.845538e-07	-7.607845e-10	-6.824422e+00	-5.455972e+01
1.640000e-06	-9.382136e-07	-7.478352e-10	-6.503216e+00	-5.363669e+01
1.650000e-06	-8.918419e-07	-7.287045e-10	-6.181791e+00	-5.269255e+01
1.660000e-06	-8.454396e-07	-7.088054e-10	-5.860154e+00	-5.172649e+01
1.670000e-06	-7.989059e-07	-6.891360e-10	-5.537606e+00	-5.073767e+01
1.680000e-06	-7.523594e-07	-6.703674e-10	-5.214969e+00	-4.972514e+01
1.690000e-06	-7.058145e-07	-6.540554e-10	-4.892344e+00	-4.868794e+01
1.700000e-06	-6.591458e-07	-6.370450e-10	-4.568861e+00	-4.762505e+01
1.710000e-06	-6.124349e-07	-6.211009e-10	-4.245085e+00	-4.653539e+01
1.720000e-06	-5.657635e-07	-6.050542e-10	-3.921582e+00	-4.541788e+01
1.730000e-06	-5.189885e-07	-5.864128e-10	-3.597362e+00	-4.427140e+01
1.740000e-06	-4.721210e-07	-5.655869e-10	-3.272501e+00	-4.309485e+01
1.750000e-06	-4.252014e-07	-5.444464e-10	-2.947278e+00	-4.188711e+01
1.760000e-06	-3.782715e-07	-5.228847e-10	-2.621984e+00	-4.064710e+01
1.770000e-06	-3.313821e-07	-5.009757e-10	-2.296971e+00	-3.937376e+01
1.780000e-06	-2.845160e-07	-4.799386e-10	-1.972119e+00	-3.806611e+01
1.790000e-06	-2.376677e-07	-4.594690e-10	-1.647391e+00	-3.672320e+01
1.800000e-06	-1.907046e-07	-4.396634e-10	-1.321867e+00	-3.534419e+01
1.810000e-06	-1.436396e-07	-4.214387e-10	-9.956363e-01	-3.392833e+01
1.820000e-06	-9.665339e-08	-4.031246e-10	-6.699517e-01	-3.247497e+01
1.830000e-06	-4.969407e-08	-3.826761e-10	-3.444538e-01	-3.098360e+01
1.840000e-06	-2.754684e-09	-3.612350e-10	-1.909406e-02	-2.945385e+01
1.850000e-06	4.417053e-08	-3.403236e-10	3.061675e-01	-2.788549e+01
1.860000e-06	9.113248e-08	-3.182413e-10	6.316836e-01	-2.627849e+01
1.870000e-06	1.380688e-07	-2.934782e-10	9.570220e-01	-2.463295e+01
1.880000e-06	1.850649e-07	-2.670346e-10	1.282775e+00	-2.294919e+01
1.890000e-06	2.320170e-07	-2.406479e-10	1.608223e+00	-2.122769e+01
1.900000e-06	2.789054e-07	-2.137032e-10	1.933229e+00	-1.946914e+01
1.910000e-06	3.258817e-07	-1.885338e-10	2.258845e+00	-1.767445e+01
1.920000e-06	3.727785e-07	-1.637253e-10	2.583910e+00	-1.584469e+01
1.930000e-06	4.195714e-07	-1.377527e-10	2.908254e+00	-1.398117e+01
1.940000e-06	4.663506e-07	-1.105208e-10	3.232503e+00	-1.208535e+01
1.950000e-06	5.130531e-07	-8.303648e-11	3.556221e+00	-1.015894e+01
1.960000e-06	5.597302e-07	-5.640730e-11	3.879763e+00	-8.203792e+00
1.970000e-06	6.064116e-07	-2.908536e-11	4.203334e+00	-6.221949e+00
1.980000e-06	6.530229e-07	-5.795473e-13	4.526420e+00	-4.215622e+00
1.990000e-06	6.995931e-07	3.059154e-11	4.849221e+00	-2.187176e+00
2.000000e-06	7.461065e-07	6.472981e-11	5.171628e+00	-1.391140e-01
2.010000e-06	7.925840e-07	9.760384e-11	5.493786e+00	1.925934e+00
2.020000e-06	8.389980e-07	1.263278e-10	5.815504e+00	4.005231e+00
2.030000e-06	8.852890e-07	1.526483e-10	6.136369e+00	6.095948e+00
2.040000e-06	9.315452e-07	1.785749e-10	6.456993e+00	8.195186e+00
2.050000e-06	9.778123e-07	2.071119e-10	6.777694e+00	1.029999e+01
2.060000e-06	1.024025e-06	2.376530e-10	7.098019e+00	1.240738e+01
2.070000e-06	1.070089e-06	2.687852e-10	7.417306e+00	1.451436e+01
2.080000e-06	1.116063e-06	3.015603e-10	7.735975e+00	1.661793e+01
2.090000e-06	1.161975e-06	3.349459e-10	8.054217e+00	1.871514e+01
2.100000e-06	1.207754e-06	3.660709e-10	8.371530e+00	2.080306e+01
2.110000e-06	1.253501e-06	3.938457e-10	8.688628e+00	2.287886e+01
2.120000e-06	1.299281e-06	4.204601e-10	9.005948e+00	2.493976e+01
2.130000e-06	1.344944e-06	4.472919e-10	9.322460e+00	2.698310e+01
2.140000e-06	1.390444e-06	4.722478e-10	9.637848e+00	2.900632e+01
2.150000e-06	1.435755e-06	4.984977e-10	9.951916e+00	3.100701e+01
2.160000e-06	1.480957e-06	5.278760e-10	1.026523e+01	3.298290e+01
2.170000e-06	1.526126e-06	5.563188e-10	1.057832e+01	3.493185e+01
2.180000e-06	1.571099e-06	5.845604e-10	1.089005e+01	3.685192e+01
2.190000e-06	1.616021e-06	6.135219e-10	1.120143e+01	3.874130e+01
2.200000e-06	1.660867e-06	6.413127e-10	1.151228e+01	4.059839e+01
2.210000e-06	1.705533e-06	6.678416e-10	1.182188e+01	4.242175e+01
2.220000e-06	1.750035e-06	6.939122e-10	1.213034e+01	4.421014e+01
2.230000e-06	1.794332e-06	7.184683e-10	1.243739e+01	4.596248e+01
2.240000e-06	1.838591e-06	7.394435e-10	1.274417e+01	4.767789e+01
2.250000e-06	1.882769e-06	7.587842e-10	1.305039e+01	4.935564e+01
2.260000e-06	1.926815e-06	7.796666e-10	1.335569e+01	5.099521e+01
2.270000e-06	1.970784e-06	8.019749e-10	1.366047e+01	5.259621e+01
2.280000e-06	2.014630e-06	8.248141e-10	1.396439e+01	5.415843e+01
2.290000e-06	2.058361e-06	8.464711e-10	1.426751e+01	5.568179e+01
2.300000e-06	2.102045e-06	8.666323e-10	1.457030e+01	5.716636e+01
2.310000e-06	2.145729e-06	8.866275e-10	1.487309e+01	5.861234e+01
2.320000e-06	2.189362e-06	9.049848e-10	1.517554e+01	6.002004e+01
2.330000e-06	2.232931e-06	9.217391e-10	1.547754e+01	6.138987e+01
2.340000e-06	2.276453e-06	9.395975e-10	1.577921e+01	6.272234e+01
2.350000e-06	2.319794e-06	9.589030e-10	1.607962e+01	6.401803e+01
2.360000e-06	2.362858e-06	9.791497e-10	1.637812e+01	6.527760e+01
2.370000e-06	2.405675e-06	9.977690e-10	1.667491e+01	6.650175e+01
2.380000e-06	2.448266e-06	1.012748e-09	1.697012e+01	6.769123e+01
2.390000e-06	2.490603e-06	1.028477e-09	1.726358e+01	6.884682e+01
2.400000e-06	2.532654e-06	1.044906e-09	1.755506e+01	6.996933e+01
2.410000e-06	2.574328e-06	1.060295e-09	1.784392e+01	7.105956e+01
2.420000e-06	2.615607e-06	1.073174e-09	1.813005e+01	7.211834e+01
2.430000e-06	2.656592e-06	1.084344e-09	1.841413e+01	7.314648e+01
2.440000e-06	2.697279e-06	1.094598e-09	1.869616e+01	7.414477e+01
2.450000e-06	2.737671e-06	1.104445e-09	1.897613e+01	7.511401e+01
2.460000e-06	2.777829e-06	1.116948e-09	1.925449e+01	7.605496e+01
2.470000e-06	2.817788e-06	1.130723e-09	1.953146e+01	7.696835e+01
2.480000e-06	2.857642e-06	1.143685e-09	1.980771e+01	7.785490e+01
2.490000e-06	2.897433e-06	1.155157e-09	2.008352e+01	7.871528e+01
2.500000e-06	2.937116e-06	1.166059e-09	2.035858e+01	7.955016e+01
2.510000e-06	2.976648e-06	1.177102e-09	2.063260e+01	8.036015e+01
2.520000e-06	3.016080e-06	1.186725e-09	2.090592e+01	8.114587e+01
2.530000e-06	3.055363e-06	1.193179e-09	2.117821e+01	8.190787e+01
2.540000e-06	3.094370e-06	1.199188e-09	2.144859e+01	8.264673e+01
2.550000e-06	3.133062e-06	1.206975e-09	2.171678e+01	8.336297e+01
2.560000e-06	3.171527e-06	1.216416e-09	2.198340e+01	8.405711e+01
2.570000e-06	3.209844e-06	1.228792e-09	2.224899e+01	8.472967e+01
2.580000e-06	3.247890e-06	1.241016e-09	2.251271e+01	8.538114e+01
2.590000e-06	3.285646e-06	1.253202e-09	2.277441e+01	8.601203e+01
2.600000e-06	3.323252e-06	1.263335e-09	2.303508e+01	8.662284e+01
2.610000e-06	3.360765e-06	1.271315e-09	2.329510e+01	8.721408e+01
2.620000e-06	3.398006e-06	1.277673e-09	2.355324e+01	8.778624e+01
2.630000e-06	3.434923e-06	1.281977e-09	2.380913e+01	8.833987e+01
2.640000e-06	3.471625e-06	1.288124e-09	2.406352e+01	8.887549e+01
2.650000e-06	3.508064e-06	1.295245e-09	2.431610e+01	8.939364e+01
2.660000e-06	3.544167e-06	1.305749e-09	2.456635e+01	8.989490e+01
2.670000e-06	3.580059e-06	1.316392e-09	2.481513e+01	9.037983e+01
2.680000e-06	3.615900e-06	1.326289e-09	2.506356e+01	9.084903e+01
2.690000e-06	3.651629e-06	1.333307e-09	2.531122e+01	9.130310e+01
2.700000e-06	3.687173e-06	1.337341e-09	2.555759e+01	9.174265e+01
2.710000e-06	3.722534e-06	1.341469e-09	2.580270e+01	9.216831e+01
2.720000e-06	3.757731e-06	1.347914e-09	2.604666e+01	9.258071e+01
2.730000e-06	3.792641e-06	1.354903e-09	2.628864e+01	9.298047e+01
2.740000e-06	3.827063e-06	1.361843e-09	2.652724e+01	9.336823e+01
2.750000e-06	3.861037e-06	1.366875e-09	2.676273e+01	9.374460e+01
2.760000e-06	3.894534e-06	1.369412e-09	2.699491e+01	9.411019e+01
2.770000e-06	3.927513e-06	1.372256e-09	2.722351e+01	9.446560e+01
2.780000e-06	3.960117e-06	1.376533e-09	2.744950e+01	9.481140e+01
2.790000e-06	3.992403e-06	1.385856e-09	2.767329e+01	9.514814e+01
2.800000e-06	4.024376e-06	1.398892e-09	2.789491e+01	9.547635e+01
2.810000e-06	4.056142e-06	1.409497e-09	2.811509e+01	9.579649e+01
2.820000e-06	4.087807e-06	1.414669e-09	2.833458e+01	9.610903e+01
2.830000e-06	4.119330e-06	1.414357e-09	2.855308e+01	9.641437e+01
2.840000e-06	4.150661e-06	1.412113e-09	2.877025e+01	9.671287e+01
2.850000e-06	4.181708e-06	1.410958e-09	2.898546e+01	9.700485e+01
2.860000e-06	4.212402e-06	1.412647e-09	2.919821e+01	9.729058e+01
2.870000e-06	4.242716e-06	1.419768e-09	2.940833e+01	9.757029e+01
2.880000e-06	4.272712e-06	1.430314e-09	2.961625e+01	9.784416e+01
2.890000e-06	4.302455e-06	1.440686e-09	2.982241e+01	9.811231e+01
2.900000e-06	4.331970e-06	1.443881e-09	3.002700e+01	9.837483e+01
