# Temperatura_=_-0.66
# Concentracion g/m^3_=_1620.0
# C_Vs_to_Am_M_A/Vsm_=_65563218390.804596
# pendiente_HvsI_1/m_=_3716.3
# ordenada_HvsI_A/m_=_1297.0
# frecuencia_Hz_=_135101.4983051293

Tiempo_(s)	Campo_(V.s)	Magnetizacion_(V.s)	Campo_(kA/m)	Magnetizacion_(A/m)
0.000000e+00	-5.528663e-06	-1.375616e-09	-3.837278e+01	-8.906186e+01
1.000000e-08	-5.528863e-06	-1.373678e-09	-3.837417e+01	-8.898163e+01
2.000000e-08	-5.528859e-06	-1.369495e-09	-3.837414e+01	-8.890590e+01
3.000000e-08	-5.528521e-06	-1.367279e-09	-3.837180e+01	-8.883538e+01
4.000000e-08	-5.527630e-06	-1.366574e-09	-3.836561e+01	-8.877070e+01
5.000000e-08	-5.526166e-06	-1.366662e-09	-3.835545e+01	-8.871243e+01
6.000000e-08	-5.524161e-06	-1.369363e-09	-3.834153e+01	-8.866101e+01
7.000000e-08	-5.521567e-06	-1.363013e-09	-3.832353e+01	-8.861680e+01
8.000000e-08	-5.518458e-06	-1.359546e-09	-3.830195e+01	-8.858006e+01
9.000000e-08	-5.514853e-06	-1.389261e-09	-3.827693e+01	-8.855091e+01
1.000000e-07	-5.510805e-06	-1.417093e-09	-3.824883e+01	-8.852934e+01
1.100000e-07	-5.506488e-06	-1.396284e-09	-3.821887e+01	-8.851526e+01
1.200000e-07	-5.501896e-06	-1.332503e-09	-3.818700e+01	-8.850841e+01
1.300000e-07	-5.496999e-06	-1.311411e-09	-3.815301e+01	-8.850844e+01
1.400000e-07	-5.491762e-06	-1.368467e-09	-3.811666e+01	-8.851487e+01
1.500000e-07	-5.486110e-06	-1.395230e-09	-3.807743e+01	-8.852711e+01
1.600000e-07	-5.480118e-06	-1.370328e-09	-3.803584e+01	-8.854448e+01
1.700000e-07	-5.473719e-06	-1.330177e-09	-3.799143e+01	-8.856619e+01
1.800000e-07	-5.466905e-06	-1.362054e-09	-3.794414e+01	-8.859138e+01
1.900000e-07	-5.459763e-06	-1.383267e-09	-3.789456e+01	-8.861912e+01
2.000000e-07	-5.452320e-06	-1.364836e-09	-3.784291e+01	-8.864843e+01
2.100000e-07	-5.444633e-06	-1.354146e-09	-3.778955e+01	-8.867830e+01
2.200000e-07	-5.436612e-06	-1.398463e-09	-3.773388e+01	-8.870767e+01
2.300000e-07	-5.428306e-06	-1.424040e-09	-3.767623e+01	-8.873549e+01
2.400000e-07	-5.419594e-06	-1.391720e-09	-3.761577e+01	-8.876072e+01
2.500000e-07	-5.410238e-06	-1.354191e-09	-3.755083e+01	-8.878233e+01
2.600000e-07	-5.400169e-06	-1.363055e-09	-3.748094e+01	-8.879935e+01
2.700000e-07	-5.389494e-06	-1.392851e-09	-3.740685e+01	-8.881084e+01
2.800000e-07	-5.378354e-06	-1.388854e-09	-3.732953e+01	-8.881594e+01
2.900000e-07	-5.366771e-06	-1.374375e-09	-3.724913e+01	-8.881385e+01
3.000000e-07	-5.354802e-06	-1.372402e-09	-3.716606e+01	-8.880387e+01
3.100000e-07	-5.342487e-06	-1.383985e-09	-3.708059e+01	-8.878540e+01
3.200000e-07	-5.329802e-06	-1.364995e-09	-3.699255e+01	-8.875792e+01
3.300000e-07	-5.316625e-06	-1.351960e-09	-3.690109e+01	-8.872105e+01
3.400000e-07	-5.303042e-06	-1.359425e-09	-3.680681e+01	-8.867450e+01
3.500000e-07	-5.289085e-06	-1.377436e-09	-3.670994e+01	-8.861808e+01
3.600000e-07	-5.274601e-06	-1.369523e-09	-3.660941e+01	-8.855175e+01
3.700000e-07	-5.259776e-06	-1.369752e-09	-3.650651e+01	-8.847553e+01
3.800000e-07	-5.244625e-06	-1.368091e-09	-3.640136e+01	-8.838960e+01
3.900000e-07	-5.228921e-06	-1.352535e-09	-3.629236e+01	-8.829419e+01
4.000000e-07	-5.212620e-06	-1.333865e-09	-3.617922e+01	-8.818964e+01
4.100000e-07	-5.195870e-06	-1.349707e-09	-3.606296e+01	-8.807640e+01
4.200000e-07	-5.178853e-06	-1.354181e-09	-3.594485e+01	-8.795494e+01
4.300000e-07	-5.161573e-06	-1.337659e-09	-3.582492e+01	-8.782585e+01
4.400000e-07	-5.143949e-06	-1.335548e-09	-3.570260e+01	-8.768972e+01
4.500000e-07	-5.125862e-06	-1.351978e-09	-3.557706e+01	-8.754723e+01
4.600000e-07	-5.107303e-06	-1.335358e-09	-3.544825e+01	-8.739904e+01
4.700000e-07	-5.088376e-06	-1.316633e-09	-3.531688e+01	-8.724587e+01
4.800000e-07	-5.069134e-06	-1.325957e-09	-3.518333e+01	-8.708841e+01
4.900000e-07	-5.049611e-06	-1.329986e-09	-3.504782e+01	-8.692736e+01
5.000000e-07	-5.029833e-06	-1.315205e-09	-3.491055e+01	-8.676341e+01
5.100000e-07	-5.009841e-06	-1.319726e-09	-3.477179e+01	-8.659719e+01
5.200000e-07	-4.989615e-06	-1.325519e-09	-3.463141e+01	-8.642934e+01
5.300000e-07	-4.969108e-06	-1.309584e-09	-3.448908e+01	-8.626041e+01
5.400000e-07	-4.948189e-06	-1.304291e-09	-3.434389e+01	-8.609092e+01
5.500000e-07	-4.926824e-06	-1.311815e-09	-3.419559e+01	-8.592134e+01
5.600000e-07	-4.905115e-06	-1.304122e-09	-3.404492e+01	-8.575205e+01
5.700000e-07	-4.883115e-06	-1.295293e-09	-3.389223e+01	-8.558340e+01
5.800000e-07	-4.860787e-06	-1.304653e-09	-3.373725e+01	-8.541565e+01
5.900000e-07	-4.838101e-06	-1.303483e-09	-3.357980e+01	-8.524899e+01
6.000000e-07	-4.815038e-06	-1.292752e-09	-3.341973e+01	-8.508356e+01
6.100000e-07	-4.791684e-06	-1.285542e-09	-3.325763e+01	-8.491942e+01
6.200000e-07	-4.768120e-06	-1.280052e-09	-3.309408e+01	-8.475658e+01
6.300000e-07	-4.744274e-06	-1.274542e-09	-3.292857e+01	-8.459498e+01
6.400000e-07	-4.720209e-06	-1.282275e-09	-3.276154e+01	-8.443451e+01
6.500000e-07	-4.695851e-06	-1.281478e-09	-3.259249e+01	-8.427502e+01
6.600000e-07	-4.671081e-06	-1.277376e-09	-3.242056e+01	-8.411632e+01
6.700000e-07	-4.645840e-06	-1.278079e-09	-3.224537e+01	-8.395816e+01
6.800000e-07	-4.620026e-06	-1.276071e-09	-3.206620e+01	-8.380028e+01
6.900000e-07	-4.593629e-06	-1.263628e-09	-3.188299e+01	-8.364241e+01
7.000000e-07	-4.566674e-06	-1.263074e-09	-3.169591e+01	-8.348424e+01
7.100000e-07	-4.539377e-06	-1.262016e-09	-3.150644e+01	-8.332547e+01
7.200000e-07	-4.511848e-06	-1.254999e-09	-3.131537e+01	-8.316577e+01
7.300000e-07	-4.484122e-06	-1.253931e-09	-3.112294e+01	-8.300486e+01
7.400000e-07	-4.456236e-06	-1.257011e-09	-3.092938e+01	-8.284242e+01
7.500000e-07	-4.428093e-06	-1.246101e-09	-3.073405e+01	-8.267819e+01
7.600000e-07	-4.399715e-06	-1.239603e-09	-3.053709e+01	-8.251189e+01
7.700000e-07	-4.371057e-06	-1.241659e-09	-3.033819e+01	-8.234328e+01
7.800000e-07	-4.342028e-06	-1.237810e-09	-3.013671e+01	-8.217215e+01
7.900000e-07	-4.312672e-06	-1.231571e-09	-2.993295e+01	-8.199832e+01
8.000000e-07	-4.283017e-06	-1.233909e-09	-2.972712e+01	-8.182162e+01
8.100000e-07	-4.253038e-06	-1.229507e-09	-2.951905e+01	-8.164193e+01
8.200000e-07	-4.222818e-06	-1.215380e-09	-2.930931e+01	-8.145916e+01
8.300000e-07	-4.192365e-06	-1.210118e-09	-2.909794e+01	-8.127325e+01
8.400000e-07	-4.161656e-06	-1.211633e-09	-2.888480e+01	-8.108416e+01
8.500000e-07	-4.130586e-06	-1.209541e-09	-2.866915e+01	-8.089189e+01
8.600000e-07	-4.099214e-06	-1.207419e-09	-2.845141e+01	-8.069645e+01
8.700000e-07	-4.067706e-06	-1.207604e-09	-2.823272e+01	-8.049791e+01
8.800000e-07	-4.036019e-06	-1.201127e-09	-2.801279e+01	-8.029632e+01
8.900000e-07	-4.004139e-06	-1.194215e-09	-2.779152e+01	-8.009177e+01
9.000000e-07	-3.972024e-06	-1.191432e-09	-2.756862e+01	-7.988436e+01
9.100000e-07	-3.939590e-06	-1.188491e-09	-2.734350e+01	-7.967421e+01
9.200000e-07	-3.906815e-06	-1.180956e-09	-2.711603e+01	-7.946145e+01
9.300000e-07	-3.873694e-06	-1.179406e-09	-2.688614e+01	-7.924619e+01
9.400000e-07	-3.840093e-06	-1.178500e-09	-2.665293e+01	-7.902856e+01
9.500000e-07	-3.806043e-06	-1.172757e-09	-2.641660e+01	-7.880870e+01
9.600000e-07	-3.771565e-06	-1.164629e-09	-2.617730e+01	-7.858672e+01
9.700000e-07	-3.736714e-06	-1.160859e-09	-2.593541e+01	-7.836274e+01
9.800000e-07	-3.701586e-06	-1.154939e-09	-2.569159e+01	-7.813686e+01
9.900000e-07	-3.666159e-06	-1.147939e-09	-2.544570e+01	-7.790916e+01
1.000000e-06	-3.630538e-06	-1.141307e-09	-2.519847e+01	-7.767973e+01
1.010000e-06	-3.594766e-06	-1.138167e-09	-2.495018e+01	-7.744861e+01
1.020000e-06	-3.558815e-06	-1.133909e-09	-2.470066e+01	-7.721585e+01
1.030000e-06	-3.522725e-06	-1.128265e-09	-2.445017e+01	-7.698144e+01
1.040000e-06	-3.486415e-06	-1.123011e-09	-2.419816e+01	-7.674539e+01
1.050000e-06	-3.449814e-06	-1.119341e-09	-2.394412e+01	-7.650767e+01
1.060000e-06	-3.412941e-06	-1.116370e-09	-2.368819e+01	-7.626820e+01
1.070000e-06	-3.375814e-06	-1.113910e-09	-2.343050e+01	-7.602693e+01
1.080000e-06	-3.338463e-06	-1.108658e-09	-2.317126e+01	-7.578373e+01
1.090000e-06	-3.300876e-06	-1.100956e-09	-2.291038e+01	-7.553849e+01
1.100000e-06	-3.263105e-06	-1.094537e-09	-2.264823e+01	-7.529105e+01
1.110000e-06	-3.225118e-06	-1.089473e-09	-2.238457e+01	-7.504124e+01
1.120000e-06	-3.186862e-06	-1.083578e-09	-2.211905e+01	-7.478887e+01
1.130000e-06	-3.148427e-06	-1.077432e-09	-2.185228e+01	-7.453373e+01
1.140000e-06	-3.109799e-06	-1.073294e-09	-2.158418e+01	-7.427558e+01
1.150000e-06	-3.070966e-06	-1.071037e-09	-2.131465e+01	-7.401419e+01
1.160000e-06	-3.031948e-06	-1.068690e-09	-2.104383e+01	-7.374929e+01
1.170000e-06	-2.992708e-06	-1.062710e-09	-2.077148e+01	-7.348062e+01
1.180000e-06	-2.953281e-06	-1.055864e-09	-2.049783e+01	-7.320790e+01
1.190000e-06	-2.913697e-06	-1.051040e-09	-2.022309e+01	-7.293084e+01
1.200000e-06	-2.873984e-06	-1.047927e-09	-1.994745e+01	-7.264917e+01
1.210000e-06	-2.834128e-06	-1.043025e-09	-1.967083e+01	-7.236259e+01
1.220000e-06	-2.794139e-06	-1.037372e-09	-1.939328e+01	-7.207082e+01
1.230000e-06	-2.754005e-06	-1.032026e-09	-1.911472e+01	-7.177358e+01
1.240000e-06	-2.713594e-06	-1.029149e-09	-1.883424e+01	-7.147060e+01
1.250000e-06	-2.672956e-06	-1.025080e-09	-1.855218e+01	-7.116163e+01
1.260000e-06	-2.632233e-06	-1.021906e-09	-1.826953e+01	-7.084640e+01
1.270000e-06	-2.591255e-06	-1.018382e-09	-1.798512e+01	-7.052470e+01
1.280000e-06	-2.549919e-06	-1.012074e-09	-1.769821e+01	-7.019630e+01
1.290000e-06	-2.508343e-06	-1.003434e-09	-1.740965e+01	-6.986101e+01
1.300000e-06	-2.466476e-06	-9.946480e-10	-1.711906e+01	-6.951865e+01
1.310000e-06	-2.424301e-06	-9.869989e-10	-1.682634e+01	-6.916906e+01
1.320000e-06	-2.381888e-06	-9.792786e-10	-1.653197e+01	-6.881210e+01
1.330000e-06	-2.339124e-06	-9.714713e-10	-1.623516e+01	-6.844767e+01
1.340000e-06	-2.296060e-06	-9.690518e-10	-1.593626e+01	-6.807565e+01
1.350000e-06	-2.252864e-06	-9.704532e-10	-1.563645e+01	-6.769598e+01
1.360000e-06	-2.209479e-06	-9.697049e-10	-1.533533e+01	-6.730859e+01
1.370000e-06	-2.165895e-06	-9.627249e-10	-1.503282e+01	-6.691343e+01
1.380000e-06	-2.122239e-06	-9.518061e-10	-1.472982e+01	-6.651046e+01
1.390000e-06	-2.078464e-06	-9.396116e-10	-1.442599e+01	-6.609966e+01
1.400000e-06	-2.034586e-06	-9.303201e-10	-1.412145e+01	-6.568099e+01
1.410000e-06	-1.990683e-06	-9.252290e-10	-1.381673e+01	-6.525443e+01
1.420000e-06	-1.946679e-06	-9.201723e-10	-1.351131e+01	-6.481993e+01
1.430000e-06	-1.902601e-06	-9.162558e-10	-1.320538e+01	-6.437745e+01
1.440000e-06	-1.858446e-06	-9.117792e-10	-1.289891e+01	-6.392692e+01
1.450000e-06	-1.814150e-06	-9.043651e-10	-1.259147e+01	-6.346823e+01
1.460000e-06	-1.769720e-06	-8.942110e-10	-1.228309e+01	-6.300126e+01
1.470000e-06	-1.725173e-06	-8.812933e-10	-1.197390e+01	-6.252585e+01
1.480000e-06	-1.680524e-06	-8.674576e-10	-1.166401e+01	-6.204178e+01
1.490000e-06	-1.635768e-06	-8.551370e-10	-1.135337e+01	-6.154879e+01
1.500000e-06	-1.590778e-06	-8.452861e-10	-1.104111e+01	-6.104657e+01
1.510000e-06	-1.545558e-06	-8.384911e-10	-1.072725e+01	-6.053472e+01
1.520000e-06	-1.500262e-06	-8.330229e-10	-1.041287e+01	-6.001281e+01
1.530000e-06	-1.454940e-06	-8.271930e-10	-1.009830e+01	-5.948031e+01
1.540000e-06	-1.409643e-06	-8.156617e-10	-9.783905e+00	-5.893664e+01
1.550000e-06	-1.364257e-06	-8.004675e-10	-9.468893e+00	-5.838111e+01
1.560000e-06	-1.318675e-06	-7.863238e-10	-9.152521e+00	-5.781297e+01
1.570000e-06	-1.272979e-06	-7.758400e-10	-8.835362e+00	-5.723141e+01
1.580000e-06	-1.227224e-06	-7.673396e-10	-8.517788e+00	-5.663550e+01
1.590000e-06	-1.181389e-06	-7.594498e-10	-8.199666e+00	-5.602427e+01
1.600000e-06	-1.135452e-06	-7.536999e-10	-7.880826e+00	-5.539666e+01
1.610000e-06	-1.089446e-06	-7.468343e-10	-7.561514e+00	-5.475154e+01
1.620000e-06	-1.043311e-06	-7.365822e-10	-7.241305e+00	-5.408773e+01
1.630000e-06	-9.971182e-07	-7.243287e-10	-6.920696e+00	-5.340397e+01
1.640000e-06	-9.509495e-07	-7.119178e-10	-6.600253e+00	-5.269898e+01
1.650000e-06	-9.046876e-07	-7.003397e-10	-6.279163e+00	-5.197142e+01
1.660000e-06	-8.582936e-07	-6.884178e-10	-5.957157e+00	-5.121994e+01
1.670000e-06	-8.118290e-07	-6.761001e-10	-5.634660e+00	-5.044314e+01
1.680000e-06	-7.652991e-07	-6.651233e-10	-5.311710e+00	-4.963964e+01
1.690000e-06	-7.188466e-07	-6.538224e-10	-4.989297e+00	-4.880807e+01
1.700000e-06	-6.723824e-07	-6.387955e-10	-4.666803e+00	-4.794707e+01
1.710000e-06	-6.258025e-07	-6.226164e-10	-4.343506e+00	-4.705530e+01
1.720000e-06	-5.791908e-07	-6.062833e-10	-4.019988e+00	-4.613149e+01
1.730000e-06	-5.325621e-07	-5.873789e-10	-3.696353e+00	-4.517441e+01
1.740000e-06	-4.859281e-07	-5.669896e-10	-3.372680e+00	-4.418291e+01
1.750000e-06	-4.392645e-07	-5.496356e-10	-3.048802e+00	-4.315592e+01
1.760000e-06	-3.924633e-07	-5.336303e-10	-2.723969e+00	-4.209248e+01
1.770000e-06	-3.455578e-07	-5.167761e-10	-2.398413e+00	-4.099173e+01
1.780000e-06	-2.987642e-07	-5.017973e-10	-2.073632e+00	-3.985293e+01
1.790000e-06	-2.519715e-07	-4.848146e-10	-1.748858e+00	-3.867546e+01
1.800000e-06	-2.050061e-07	-4.668131e-10	-1.422886e+00	-3.745887e+01
1.810000e-06	-1.580229e-07	-4.493171e-10	-1.096789e+00	-3.620281e+01
1.820000e-06	-1.110477e-07	-4.307452e-10	-7.707484e-01	-3.490712e+01
1.830000e-06	-6.402974e-08	-4.105545e-10	-4.444111e-01	-3.357178e+01
1.840000e-06	-1.711685e-08	-3.903245e-10	-1.188029e-01	-3.219693e+01
1.850000e-06	2.971794e-08	-3.714920e-10	2.062633e-01	-3.078288e+01
1.860000e-06	7.658831e-08	-3.512499e-10	5.315763e-01	-2.933009e+01
1.870000e-06	1.235120e-07	-3.312517e-10	8.572596e-01	-2.783919e+01
1.880000e-06	1.704485e-07	-3.122556e-10	1.183032e+00	-2.631097e+01
1.890000e-06	2.173955e-07	-2.920442e-10	1.508876e+00	-2.474639e+01
1.900000e-06	2.643342e-07	-2.678311e-10	1.834664e+00	-2.314653e+01
1.910000e-06	3.112013e-07	-2.420668e-10	2.159954e+00	-2.151264e+01
1.920000e-06	3.580486e-07	-2.160621e-10	2.485107e+00	-1.984611e+01
1.930000e-06	4.049363e-07	-1.913748e-10	2.810541e+00	-1.814844e+01
1.940000e-06	4.517694e-07	-1.694570e-10	3.135595e+00	-1.642128e+01
1.950000e-06	4.985285e-07	-1.483991e-10	3.460136e+00	-1.466638e+01
1.960000e-06	5.452332e-07	-1.277557e-10	3.784299e+00	-1.288559e+01
1.970000e-06	5.918850e-07	-1.053754e-10	4.108095e+00	-1.108086e+01
1.980000e-06	6.385013e-07	-7.984121e-11	4.431645e+00	-9.254225e+00
1.990000e-06	6.850161e-07	-5.154711e-11	4.754490e+00	-7.407791e+00
2.000000e-06	7.313866e-07	-2.164488e-11	5.076334e+00	-5.543723e+00
2.010000e-06	7.777119e-07	6.405800e-12	5.397863e+00	-3.664239e+00
2.020000e-06	8.240686e-07	3.217452e-11	5.719611e+00	-1.771597e+00
2.030000e-06	8.703505e-07	5.641008e-11	6.040840e+00	1.319128e-01
2.040000e-06	9.164876e-07	8.048455e-11	6.361063e+00	2.043984e+00
2.050000e-06	9.626303e-07	1.058344e-10	6.681326e+00	3.962298e+00
2.060000e-06	1.008747e-06	1.325715e-10	7.001410e+00	5.884535e+00
2.070000e-06	1.054785e-06	1.602981e-10	7.320947e+00	7.808387e+00
2.080000e-06	1.100755e-06	1.867313e-10	7.640008e+00	9.731559e+00
2.090000e-06	1.146633e-06	2.141755e-10	7.958433e+00	1.165178e+01
2.100000e-06	1.192454e-06	2.421973e-10	8.276464e+00	1.356683e+01
2.110000e-06	1.238248e-06	2.698767e-10	8.594304e+00	1.547450e+01
2.120000e-06	1.283996e-06	2.977486e-10	8.911827e+00	1.737265e+01
2.130000e-06	1.329576e-06	3.259493e-10	9.228183e+00	1.925919e+01
2.140000e-06	1.374984e-06	3.522950e-10	9.543346e+00	2.113208e+01
2.150000e-06	1.420317e-06	3.760446e-10	9.857988e+00	2.298937e+01
2.160000e-06	1.465606e-06	3.997750e-10	1.017233e+01	2.482916e+01
2.170000e-06	1.510807e-06	4.247799e-10	1.048606e+01	2.664963e+01
2.180000e-06	1.555854e-06	4.498133e-10	1.079872e+01	2.844905e+01
2.190000e-06	1.600793e-06	4.759845e-10	1.111062e+01	3.022578e+01
2.200000e-06	1.645629e-06	5.022516e-10	1.142182e+01	3.197825e+01
2.210000e-06	1.690297e-06	5.262089e-10	1.173184e+01	3.370501e+01
2.220000e-06	1.734803e-06	5.493325e-10	1.204074e+01	3.540470e+01
2.230000e-06	1.779219e-06	5.728447e-10	1.234903e+01	3.707606e+01
2.240000e-06	1.823492e-06	5.964830e-10	1.265631e+01	3.871794e+01
2.250000e-06	1.867602e-06	6.182020e-10	1.296246e+01	4.032928e+01
2.260000e-06	1.911623e-06	6.370237e-10	1.326800e+01	4.190917e+01
2.270000e-06	1.955550e-06	6.558909e-10	1.357288e+01	4.345676e+01
2.280000e-06	1.999428e-06	6.755986e-10	1.387743e+01	4.497137e+01
2.290000e-06	2.043251e-06	6.955426e-10	1.418158e+01	4.645239e+01
2.300000e-06	2.087017e-06	7.155617e-10	1.448536e+01	4.789935e+01
2.310000e-06	2.130750e-06	7.355400e-10	1.478889e+01	4.931188e+01
2.320000e-06	2.174381e-06	7.557163e-10	1.509172e+01	5.068973e+01
2.330000e-06	2.217933e-06	7.754638e-10	1.539401e+01	5.203276e+01
2.340000e-06	2.261438e-06	7.946140e-10	1.569596e+01	5.334093e+01
2.350000e-06	2.304790e-06	8.127105e-10	1.599685e+01	5.461432e+01
2.360000e-06	2.347899e-06	8.293294e-10	1.629606e+01	5.585309e+01
2.370000e-06	2.390722e-06	8.441201e-10	1.659328e+01	5.705752e+01
2.380000e-06	2.433248e-06	8.586739e-10	1.688844e+01	5.822795e+01
2.390000e-06	2.475418e-06	8.747399e-10	1.718113e+01	5.936483e+01
2.400000e-06	2.517249e-06	8.919940e-10	1.747146e+01	6.046866e+01
2.410000e-06	2.558710e-06	9.090291e-10	1.775923e+01	6.154002e+01
2.420000e-06	2.599887e-06	9.233389e-10	1.804503e+01	6.257956e+01
2.430000e-06	2.640880e-06	9.338977e-10	1.832955e+01	6.358796e+01
2.440000e-06	2.681522e-06	9.427029e-10	1.861163e+01	6.456595e+01
2.450000e-06	2.721908e-06	9.512105e-10	1.889194e+01	6.551429e+01
2.460000e-06	2.762132e-06	9.613549e-10	1.917112e+01	6.643377e+01
2.470000e-06	2.802142e-06	9.733570e-10	1.944882e+01	6.732517e+01
2.480000e-06	2.842058e-06	9.863428e-10	1.972587e+01	6.818931e+01
2.490000e-06	2.881933e-06	9.990922e-10	2.000263e+01	6.902697e+01
2.500000e-06	2.921677e-06	1.010505e-09	2.027848e+01	6.983895e+01
2.510000e-06	2.961255e-06	1.020641e-09	2.055317e+01	7.062600e+01
2.520000e-06	3.000687e-06	1.029198e-09	2.082686e+01	7.138886e+01
2.530000e-06	3.039921e-06	1.038005e-09	2.109918e+01	7.212825e+01
2.540000e-06	3.078884e-06	1.048576e-09	2.136960e+01	7.284481e+01
2.550000e-06	3.117585e-06	1.058397e-09	2.163822e+01	7.353919e+01
2.560000e-06	3.156050e-06	1.067064e-09	2.190519e+01	7.421196e+01
2.570000e-06	3.194307e-06	1.076468e-09	2.217072e+01	7.486365e+01
2.580000e-06	3.232381e-06	1.085774e-09	2.243498e+01	7.549476e+01
2.590000e-06	3.270297e-06	1.093257e-09	2.269814e+01	7.610573e+01
2.600000e-06	3.308044e-06	1.100538e-09	2.296014e+01	7.669696e+01
2.610000e-06	3.345595e-06	1.108880e-09	2.322076e+01	7.726880e+01
2.620000e-06	3.382865e-06	1.117023e-09	2.347944e+01	7.782157e+01
2.630000e-06	3.419781e-06	1.125092e-09	2.373567e+01	7.835557e+01
2.640000e-06	3.456385e-06	1.134275e-09	2.398972e+01	7.887105e+01
2.650000e-06	3.492782e-06	1.143229e-09	2.424235e+01	7.936825e+01
2.660000e-06	3.529001e-06	1.149844e-09	2.449373e+01	7.984740e+01
2.670000e-06	3.565033e-06	1.156090e-09	2.474382e+01	8.030871e+01
2.680000e-06	3.600949e-06	1.161609e-09	2.499310e+01	8.075239e+01
2.690000e-06	3.636689e-06	1.164861e-09	2.524116e+01	8.117867e+01
2.700000e-06	3.672264e-06	1.168869e-09	2.548808e+01	8.158779e+01
2.710000e-06	3.707685e-06	1.174140e-09	2.573392e+01	8.197999e+01
2.720000e-06	3.742764e-06	1.181949e-09	2.597740e+01	8.235555e+01
2.730000e-06	3.777468e-06	1.189448e-09	2.621826e+01	8.271479e+01
2.740000e-06	3.811849e-06	1.196975e-09	2.645689e+01	8.305805e+01
2.750000e-06	3.845769e-06	1.202588e-09	2.669232e+01	8.338571e+01
2.760000e-06	3.879146e-06	1.203672e-09	2.692398e+01	8.369819e+01
2.770000e-06	3.912145e-06	1.203852e-09	2.715302e+01	8.399597e+01
2.780000e-06	3.944790e-06	1.205591e-09	2.737960e+01	8.427955e+01
2.790000e-06	3.977051e-06	1.212155e-09	2.760351e+01	8.454949e+01
2.800000e-06	4.009137e-06	1.222013e-09	2.782621e+01	8.480637e+01
2.810000e-06	4.041111e-06	1.230001e-09	2.804813e+01	8.505083e+01
2.820000e-06	4.072894e-06	1.235367e-09	2.826873e+01	8.528351e+01
2.830000e-06	4.104470e-06	1.239400e-09	2.848789e+01	8.550511e+01
2.840000e-06	4.135784e-06	1.240790e-09	2.870523e+01	8.571633e+01
2.850000e-06	4.166810e-06	1.239982e-09	2.892057e+01	8.591790e+01
2.860000e-06	4.197516e-06	1.239070e-09	2.913369e+01	8.611054e+01
2.870000e-06	4.227898e-06	1.242109e-09	2.934456e+01	8.629497e+01
2.880000e-06	4.258016e-06	1.248048e-09	2.955360e+01	8.647191e+01
2.890000e-06	4.287898e-06	1.253514e-09	2.976100e+01	8.664205e+01
2.900000e-06	4.317484e-06	1.256554e-09	2.996635e+01	8.680608e+01
