# Temperatura_=_14.92
# Concentracion g/m^3_=_1620.0
# C_Vs_to_Am_M_A/Vsm_=_65563218390.804596
# pendiente_HvsI_1/m_=_3716.3
# ordenada_HvsI_A/m_=_1297.0
# frecuencia_Hz_=_135094.931770613

Tiempo_(s)	Campo_(V.s)	Magnetizacion_(V.s)	Campo_(kA/m)	Magnetizacion_(A/m)
0.000000e+00	-5.526096e-06	-1.608860e-09	-3.837762e+01	-1.053151e+02
1.000000e-08	-5.526323e-06	-1.604878e-09	-3.837920e+01	-1.052786e+02
2.000000e-08	-5.526349e-06	-1.600167e-09	-3.837937e+01	-1.052435e+02
3.000000e-08	-5.526110e-06	-1.596895e-09	-3.837772e+01	-1.052102e+02
4.000000e-08	-5.525448e-06	-1.595413e-09	-3.837312e+01	-1.051785e+02
5.000000e-08	-5.524330e-06	-1.593900e-09	-3.836535e+01	-1.051486e+02
6.000000e-08	-5.522656e-06	-1.587953e-09	-3.835373e+01	-1.051203e+02
7.000000e-08	-5.520326e-06	-1.580370e-09	-3.833755e+01	-1.050935e+02
8.000000e-08	-5.517294e-06	-1.584505e-09	-3.831649e+01	-1.050680e+02
9.000000e-08	-5.513716e-06	-1.629205e-09	-3.829164e+01	-1.050435e+02
1.000000e-07	-5.509845e-06	-1.670098e-09	-3.826476e+01	-1.050198e+02
1.100000e-07	-5.505625e-06	-1.633881e-09	-3.823545e+01	-1.049963e+02
1.200000e-07	-5.501181e-06	-1.524172e-09	-3.820459e+01	-1.049725e+02
1.300000e-07	-5.496513e-06	-1.520094e-09	-3.817217e+01	-1.049481e+02
1.400000e-07	-5.491418e-06	-1.601266e-09	-3.813678e+01	-1.049223e+02
1.500000e-07	-5.485921e-06	-1.630685e-09	-3.809861e+01	-1.048946e+02
1.600000e-07	-5.480086e-06	-1.563408e-09	-3.805809e+01	-1.048643e+02
1.700000e-07	-5.473942e-06	-1.542855e-09	-3.801542e+01	-1.048308e+02
1.800000e-07	-5.467358e-06	-1.620369e-09	-3.796970e+01	-1.047934e+02
1.900000e-07	-5.460251e-06	-1.633131e-09	-3.792034e+01	-1.047513e+02
2.000000e-07	-5.452786e-06	-1.555696e-09	-3.786850e+01	-1.047039e+02
2.100000e-07	-5.445080e-06	-1.521930e-09	-3.781498e+01	-1.046506e+02
2.200000e-07	-5.437098e-06	-1.590944e-09	-3.775955e+01	-1.045907e+02
2.300000e-07	-5.428863e-06	-1.625530e-09	-3.770236e+01	-1.045236e+02
2.400000e-07	-5.420405e-06	-1.583837e-09	-3.764362e+01	-1.044489e+02
2.500000e-07	-5.411501e-06	-1.538282e-09	-3.758178e+01	-1.043660e+02
2.600000e-07	-5.401798e-06	-1.566565e-09	-3.751439e+01	-1.042746e+02
2.700000e-07	-5.391345e-06	-1.584410e-09	-3.744180e+01	-1.041742e+02
2.800000e-07	-5.380367e-06	-1.574695e-09	-3.736556e+01	-1.040647e+02
2.900000e-07	-5.368857e-06	-1.555802e-09	-3.728562e+01	-1.039459e+02
3.000000e-07	-5.356973e-06	-1.577776e-09	-3.720309e+01	-1.038177e+02
3.100000e-07	-5.344821e-06	-1.582090e-09	-3.711870e+01	-1.036800e+02
3.200000e-07	-5.332283e-06	-1.560378e-09	-3.703163e+01	-1.035331e+02
3.300000e-07	-5.319265e-06	-1.536569e-09	-3.694122e+01	-1.033770e+02
3.400000e-07	-5.305784e-06	-1.549698e-09	-3.684760e+01	-1.032121e+02
3.500000e-07	-5.291985e-06	-1.565786e-09	-3.675177e+01	-1.030386e+02
3.600000e-07	-5.277858e-06	-1.549032e-09	-3.665366e+01	-1.028569e+02
3.700000e-07	-5.263305e-06	-1.545172e-09	-3.655259e+01	-1.026676e+02
3.800000e-07	-5.248295e-06	-1.567538e-09	-3.644835e+01	-1.024710e+02
3.900000e-07	-5.232655e-06	-1.559099e-09	-3.633973e+01	-1.022679e+02
4.000000e-07	-5.216296e-06	-1.520259e-09	-3.622612e+01	-1.020588e+02
4.100000e-07	-5.199464e-06	-1.545365e-09	-3.610923e+01	-1.018442e+02
4.200000e-07	-5.182501e-06	-1.565713e-09	-3.599142e+01	-1.016249e+02
4.300000e-07	-5.165286e-06	-1.521605e-09	-3.587187e+01	-1.014015e+02
4.400000e-07	-5.147694e-06	-1.507557e-09	-3.574969e+01	-1.011747e+02
4.500000e-07	-5.129831e-06	-1.563335e-09	-3.562564e+01	-1.009449e+02
4.600000e-07	-5.111580e-06	-1.532676e-09	-3.549889e+01	-1.007130e+02
4.700000e-07	-5.092812e-06	-1.471115e-09	-3.536855e+01	-1.004793e+02
4.800000e-07	-5.073591e-06	-1.508961e-09	-3.523506e+01	-1.002444e+02
4.900000e-07	-5.054095e-06	-1.541920e-09	-3.509967e+01	-1.000088e+02
5.000000e-07	-5.034343e-06	-1.480896e-09	-3.496250e+01	-9.977295e+01
5.100000e-07	-5.014411e-06	-1.486270e-09	-3.482407e+01	-9.953713e+01
5.200000e-07	-4.994277e-06	-1.531892e-09	-3.468424e+01	-9.930167e+01
5.300000e-07	-4.973823e-06	-1.488295e-09	-3.454220e+01	-9.906678e+01
5.400000e-07	-4.953052e-06	-1.460816e-09	-3.439794e+01	-9.883264e+01
5.500000e-07	-4.931871e-06	-1.514229e-09	-3.425084e+01	-9.859934e+01
5.600000e-07	-4.910318e-06	-1.491390e-09	-3.410116e+01	-9.836693e+01
5.700000e-07	-4.888417e-06	-1.438761e-09	-3.394907e+01	-9.813539e+01
5.800000e-07	-4.866206e-06	-1.482437e-09	-3.379482e+01	-9.790463e+01
5.900000e-07	-4.843724e-06	-1.504235e-09	-3.363868e+01	-9.767454e+01
6.000000e-07	-4.820886e-06	-1.453154e-09	-3.348008e+01	-9.744495e+01
6.100000e-07	-4.797656e-06	-1.462154e-09	-3.331875e+01	-9.721565e+01
6.200000e-07	-4.774084e-06	-1.488146e-09	-3.315505e+01	-9.698639e+01
6.300000e-07	-4.750307e-06	-1.446512e-09	-3.298992e+01	-9.675693e+01
6.400000e-07	-4.726347e-06	-1.437498e-09	-3.282353e+01	-9.652698e+01
6.500000e-07	-4.702143e-06	-1.466187e-09	-3.265543e+01	-9.629624e+01
6.600000e-07	-4.677506e-06	-1.446886e-09	-3.248434e+01	-9.606444e+01
6.700000e-07	-4.652368e-06	-1.430766e-09	-3.230975e+01	-9.583127e+01
6.800000e-07	-4.626710e-06	-1.456251e-09	-3.213157e+01	-9.559646e+01
6.900000e-07	-4.600532e-06	-1.447553e-09	-3.194976e+01	-9.535974e+01
7.000000e-07	-4.573905e-06	-1.426216e-09	-3.176485e+01	-9.512087e+01
7.100000e-07	-4.546824e-06	-1.437444e-09	-3.157677e+01	-9.487962e+01
7.200000e-07	-4.519331e-06	-1.435678e-09	-3.138584e+01	-9.463579e+01
7.300000e-07	-4.491560e-06	-1.414640e-09	-3.119297e+01	-9.438920e+01
7.400000e-07	-4.463655e-06	-1.421514e-09	-3.099918e+01	-9.413972e+01
7.500000e-07	-4.435607e-06	-1.420130e-09	-3.080440e+01	-9.388723e+01
7.600000e-07	-4.407276e-06	-1.399709e-09	-3.060764e+01	-9.363163e+01
7.700000e-07	-4.378686e-06	-1.396378e-09	-3.040909e+01	-9.337286e+01
7.800000e-07	-4.349769e-06	-1.403664e-09	-3.020827e+01	-9.311089e+01
7.900000e-07	-4.320476e-06	-1.392394e-09	-3.000483e+01	-9.284568e+01
8.000000e-07	-4.290938e-06	-1.391731e-09	-2.979970e+01	-9.257725e+01
8.100000e-07	-4.261116e-06	-1.398194e-09	-2.959259e+01	-9.230559e+01
8.200000e-07	-4.231032e-06	-1.384406e-09	-2.938366e+01	-9.203074e+01
8.300000e-07	-4.200662e-06	-1.367804e-09	-2.917275e+01	-9.175271e+01
8.400000e-07	-4.169995e-06	-1.370852e-09	-2.895977e+01	-9.147153e+01
8.500000e-07	-4.139033e-06	-1.368449e-09	-2.874475e+01	-9.118722e+01
8.600000e-07	-4.107691e-06	-1.358520e-09	-2.852708e+01	-9.089981e+01
8.700000e-07	-4.076132e-06	-1.359925e-09	-2.830791e+01	-9.060930e+01
8.800000e-07	-4.044416e-06	-1.360311e-09	-2.808765e+01	-9.031568e+01
8.900000e-07	-4.012495e-06	-1.348891e-09	-2.786597e+01	-9.001895e+01
9.000000e-07	-3.980387e-06	-1.343696e-09	-2.764298e+01	-8.971907e+01
9.100000e-07	-3.948110e-06	-1.344119e-09	-2.741883e+01	-8.941599e+01
9.200000e-07	-3.915566e-06	-1.333462e-09	-2.719281e+01	-8.910965e+01
9.300000e-07	-3.882638e-06	-1.324611e-09	-2.696414e+01	-8.879995e+01
9.400000e-07	-3.849312e-06	-1.327298e-09	-2.673269e+01	-8.848682e+01
9.500000e-07	-3.815595e-06	-1.324015e-09	-2.649854e+01	-8.817014e+01
9.600000e-07	-3.781494e-06	-1.310384e-09	-2.626171e+01	-8.784978e+01
9.700000e-07	-3.746894e-06	-1.306034e-09	-2.602142e+01	-8.752563e+01
9.800000e-07	-3.711818e-06	-1.303767e-09	-2.577783e+01	-8.719755e+01
9.900000e-07	-3.676391e-06	-1.295289e-09	-2.553179e+01	-8.686541e+01
1.000000e-06	-3.640733e-06	-1.287483e-09	-2.528416e+01	-8.652908e+01
1.010000e-06	-3.604923e-06	-1.283123e-09	-2.503546e+01	-8.618843e+01
1.020000e-06	-3.568979e-06	-1.274732e-09	-2.478584e+01	-8.584335e+01
1.030000e-06	-3.532884e-06	-1.266767e-09	-2.453517e+01	-8.549375e+01
1.040000e-06	-3.496620e-06	-1.264371e-09	-2.428332e+01	-8.513953e+01
1.050000e-06	-3.460194e-06	-1.259059e-09	-2.403034e+01	-8.478062e+01
1.060000e-06	-3.423542e-06	-1.246719e-09	-2.377581e+01	-8.441699e+01
1.070000e-06	-3.386603e-06	-1.241217e-09	-2.351927e+01	-8.404859e+01
1.080000e-06	-3.349364e-06	-1.237511e-09	-2.326066e+01	-8.367544e+01
1.090000e-06	-3.311881e-06	-1.230604e-09	-2.300034e+01	-8.329754e+01
1.100000e-06	-3.274178e-06	-1.226363e-09	-2.273850e+01	-8.291494e+01
1.110000e-06	-3.236235e-06	-1.224256e-09	-2.247500e+01	-8.252769e+01
1.120000e-06	-3.198107e-06	-1.212862e-09	-2.221021e+01	-8.213585e+01
1.130000e-06	-3.159747e-06	-1.199228e-09	-2.194380e+01	-8.173953e+01
1.140000e-06	-3.121141e-06	-1.190130e-09	-2.167569e+01	-8.133880e+01
1.150000e-06	-3.082259e-06	-1.180848e-09	-2.140566e+01	-8.093376e+01
1.160000e-06	-3.043145e-06	-1.171232e-09	-2.113403e+01	-8.052452e+01
1.170000e-06	-3.003850e-06	-1.164376e-09	-2.086113e+01	-8.011117e+01
1.180000e-06	-2.964401e-06	-1.158580e-09	-2.058717e+01	-7.969377e+01
1.190000e-06	-2.924823e-06	-1.154849e-09	-2.031231e+01	-7.927239e+01
1.200000e-06	-2.885088e-06	-1.152428e-09	-2.003635e+01	-7.884707e+01
1.210000e-06	-2.845205e-06	-1.146010e-09	-1.975937e+01	-7.841782e+01
1.220000e-06	-2.805207e-06	-1.137226e-09	-1.948159e+01	-7.798460e+01
1.230000e-06	-2.765174e-06	-1.130335e-09	-1.920357e+01	-7.754736e+01
1.240000e-06	-2.724968e-06	-1.125713e-09	-1.892435e+01	-7.710599e+01
1.250000e-06	-2.684490e-06	-1.119742e-09	-1.864324e+01	-7.666033e+01
1.260000e-06	-2.643869e-06	-1.114271e-09	-1.836114e+01	-7.621020e+01
1.270000e-06	-2.603035e-06	-1.107485e-09	-1.807755e+01	-7.575533e+01
1.280000e-06	-2.561905e-06	-1.098436e-09	-1.779191e+01	-7.529544e+01
1.290000e-06	-2.520578e-06	-1.088674e-09	-1.750491e+01	-7.483016e+01
1.300000e-06	-2.478987e-06	-1.079207e-09	-1.721607e+01	-7.435912e+01
1.310000e-06	-2.436979e-06	-1.070221e-09	-1.692433e+01	-7.388186e+01
1.320000e-06	-2.394608e-06	-1.062546e-09	-1.663007e+01	-7.339791e+01
1.330000e-06	-2.351957e-06	-1.055113e-09	-1.633386e+01	-7.290675e+01
1.340000e-06	-2.309005e-06	-1.046076e-09	-1.603557e+01	-7.240783e+01
1.350000e-06	-2.265855e-06	-1.038321e-09	-1.573590e+01	-7.190057e+01
1.360000e-06	-2.222551e-06	-1.032696e-09	-1.543516e+01	-7.138438e+01
1.370000e-06	-2.179074e-06	-1.027106e-09	-1.513323e+01	-7.085865e+01
1.380000e-06	-2.135419e-06	-1.019449e-09	-1.483005e+01	-7.032276e+01
1.390000e-06	-2.091636e-06	-1.008496e-09	-1.452599e+01	-6.977611e+01
1.400000e-06	-2.047770e-06	-9.982603e-10	-1.422135e+01	-6.921809e+01
1.410000e-06	-2.003824e-06	-9.897488e-10	-1.391615e+01	-6.864812e+01
1.420000e-06	-1.959830e-06	-9.824453e-10	-1.361062e+01	-6.806561e+01
1.430000e-06	-1.915733e-06	-9.736729e-10	-1.330438e+01	-6.747003e+01
1.440000e-06	-1.871545e-06	-9.647735e-10	-1.299750e+01	-6.686086e+01
1.450000e-06	-1.827341e-06	-9.535536e-10	-1.269051e+01	-6.623764e+01
1.460000e-06	-1.783040e-06	-9.408695e-10	-1.238285e+01	-6.559990e+01
1.470000e-06	-1.738599e-06	-9.285396e-10	-1.207422e+01	-6.494725e+01
1.480000e-06	-1.694091e-06	-9.164235e-10	-1.176512e+01	-6.427931e+01
1.490000e-06	-1.649437e-06	-9.047269e-10	-1.145500e+01	-6.359576e+01
1.500000e-06	-1.604694e-06	-8.906741e-10	-1.114427e+01	-6.289628e+01
1.510000e-06	-1.559839e-06	-8.758328e-10	-1.083277e+01	-6.218061e+01
1.520000e-06	-1.514726e-06	-8.643091e-10	-1.051947e+01	-6.144851e+01
1.530000e-06	-1.469447e-06	-8.548861e-10	-1.020501e+01	-6.069972e+01
1.540000e-06	-1.424108e-06	-8.431770e-10	-9.890139e+00	-5.993404e+01
1.550000e-06	-1.378726e-06	-8.270556e-10	-9.574976e+00	-5.915125e+01
1.560000e-06	-1.333216e-06	-8.086844e-10	-9.258918e+00	-5.835112e+01
1.570000e-06	-1.287624e-06	-7.920341e-10	-8.942291e+00	-5.753341e+01
1.580000e-06	-1.241956e-06	-7.785754e-10	-8.625130e+00	-5.669785e+01
1.590000e-06	-1.196110e-06	-7.671284e-10	-8.306740e+00	-5.584414e+01
1.600000e-06	-1.150166e-06	-7.563243e-10	-7.987667e+00	-5.497194e+01
1.610000e-06	-1.104232e-06	-7.432312e-10	-7.668670e+00	-5.408086e+01
1.620000e-06	-1.058255e-06	-7.305931e-10	-7.349365e+00	-5.317045e+01
1.630000e-06	-1.012156e-06	-7.176378e-10	-7.029216e+00	-5.224018e+01
1.640000e-06	-9.660390e-07	-7.050848e-10	-6.708946e+00	-5.128947e+01
1.650000e-06	-9.199245e-07	-6.895839e-10	-6.388690e+00	-5.031765e+01
1.660000e-06	-8.736846e-07	-6.719779e-10	-6.067563e+00	-4.932400e+01
1.670000e-06	-8.273102e-07	-6.556936e-10	-5.745502e+00	-4.830768e+01
1.680000e-06	-7.808207e-07	-6.391419e-10	-5.422642e+00	-4.726782e+01
1.690000e-06	-7.343575e-07	-6.233403e-10	-5.099965e+00	-4.620344e+01
1.700000e-06	-6.879686e-07	-6.052951e-10	-4.777803e+00	-4.511352e+01
1.710000e-06	-6.415468e-07	-5.867079e-10	-4.455413e+00	-4.399697e+01
1.720000e-06	-5.950459e-07	-5.700956e-10	-4.132474e+00	-4.285266e+01
1.730000e-06	-5.485441e-07	-5.521834e-10	-3.809528e+00	-4.167939e+01
1.740000e-06	-5.019394e-07	-5.316355e-10	-3.485867e+00	-4.047599e+01
1.750000e-06	-4.552617e-07	-5.102620e-10	-3.161700e+00	-3.924123e+01
1.760000e-06	-4.085946e-07	-4.877944e-10	-2.837607e+00	-3.797390e+01
1.770000e-06	-3.618420e-07	-4.638371e-10	-2.512920e+00	-3.667284e+01
1.780000e-06	-3.151144e-07	-4.424342e-10	-2.188406e+00	-3.533690e+01
1.790000e-06	-2.683569e-07	-4.251377e-10	-1.863684e+00	-3.396501e+01
1.800000e-06	-2.214925e-07	-4.075171e-10	-1.538221e+00	-3.255617e+01
1.810000e-06	-1.746184e-07	-3.906620e-10	-1.212689e+00	-3.110949e+01
1.820000e-06	-1.277838e-07	-3.719168e-10	-8.874327e-01	-2.962419e+01
1.830000e-06	-8.100187e-08	-3.490244e-10	-5.625416e-01	-2.809965e+01
1.840000e-06	-3.426512e-08	-3.241002e-10	-2.379644e-01	-2.653537e+01
1.850000e-06	1.258017e-08	-2.989849e-10	8.736676e-02	-2.493106e+01
1.860000e-06	5.948356e-08	-2.758632e-10	4.131013e-01	-2.328660e+01
1.870000e-06	1.062756e-07	-2.537383e-10	7.380622e-01	-2.160208e+01
1.880000e-06	1.530213e-07	-2.299513e-10	1.062702e+00	-1.987780e+01
1.890000e-06	1.997838e-07	-2.066269e-10	1.387458e+00	-1.811427e+01
1.900000e-06	2.466043e-07	-1.808200e-10	1.712617e+00	-1.631224e+01
1.910000e-06	2.934098e-07	-1.528102e-10	2.037672e+00	-1.447270e+01
1.920000e-06	3.402026e-07	-1.248000e-10	2.362638e+00	-1.259687e+01
1.930000e-06	3.869561e-07	-9.702138e-11	2.687332e+00	-1.068619e+01
1.940000e-06	4.336266e-07	-7.147952e-11	3.011449e+00	-8.742330e+00
1.950000e-06	4.802261e-07	-4.537595e-11	3.335073e+00	-6.767202e+00
1.960000e-06	5.266806e-07	-1.799056e-11	3.657690e+00	-4.762908e+00
1.970000e-06	5.731308e-07	9.081063e-12	3.980277e+00	-2.731760e+00
1.980000e-06	6.196142e-07	3.658462e-11	4.303095e+00	-6.762522e-01
1.990000e-06	6.660043e-07	6.252869e-11	4.625265e+00	1.400953e+00
2.000000e-06	7.123551e-07	9.151639e-11	4.947162e+00	3.497043e+00
2.010000e-06	7.587104e-07	1.249239e-10	5.269091e+00	5.609073e+00
2.020000e-06	8.050288e-07	1.573384e-10	5.590762e+00	7.733994e+00
2.030000e-06	8.513039e-07	1.883739e-10	5.912133e+00	9.868669e+00
2.040000e-06	8.974789e-07	2.173608e-10	6.232809e+00	1.200990e+01
2.050000e-06	9.435887e-07	2.450987e-10	6.553033e+00	1.415445e+01
2.060000e-06	9.896701e-07	2.737690e-10	6.873059e+00	1.629908e+01
2.070000e-06	1.035726e-06	3.044971e-10	7.192905e+00	1.844054e+01
2.080000e-06	1.081771e-06	3.367590e-10	7.512683e+00	2.057563e+01
2.090000e-06	1.127709e-06	3.684920e-10	7.831713e+00	2.270121e+01
2.100000e-06	1.173543e-06	3.991952e-10	8.150018e+00	2.481420e+01
2.110000e-06	1.219389e-06	4.294319e-10	8.468409e+00	2.691164e+01
2.120000e-06	1.265073e-06	4.579943e-10	8.785677e+00	2.899069e+01
2.130000e-06	1.310558e-06	4.855797e-10	9.101560e+00	3.104862e+01
2.140000e-06	1.356035e-06	5.118349e-10	9.417389e+00	3.308288e+01
2.150000e-06	1.401374e-06	5.367330e-10	9.732258e+00	3.509107e+01
2.160000e-06	1.446536e-06	5.629200e-10	1.004590e+01	3.707095e+01
2.170000e-06	1.491674e-06	5.909153e-10	1.035938e+01	3.902051e+01
2.180000e-06	1.536716e-06	6.193144e-10	1.067218e+01	4.093788e+01
2.190000e-06	1.581643e-06	6.462191e-10	1.098419e+01	4.282142e+01
2.200000e-06	1.626404e-06	6.708032e-10	1.129505e+01	4.466966e+01
2.210000e-06	1.670989e-06	6.943863e-10	1.160468e+01	4.648137e+01
2.220000e-06	1.715536e-06	7.173508e-10	1.191405e+01	4.825546e+01
2.230000e-06	1.759977e-06	7.416697e-10	1.222268e+01	4.999109e+01
2.240000e-06	1.804276e-06	7.654206e-10	1.253033e+01	5.168756e+01
2.250000e-06	1.848472e-06	7.877130e-10	1.283727e+01	5.334438e+01
2.260000e-06	1.892587e-06	8.091409e-10	1.314363e+01	5.496122e+01
2.270000e-06	1.936646e-06	8.297080e-10	1.344961e+01	5.653791e+01
2.280000e-06	1.980644e-06	8.509545e-10	1.375517e+01	5.807444e+01
2.290000e-06	2.024567e-06	8.716963e-10	1.406021e+01	5.957093e+01
2.300000e-06	2.068436e-06	8.913752e-10	1.436487e+01	6.102763e+01
2.310000e-06	2.112270e-06	9.096983e-10	1.466929e+01	6.244491e+01
2.320000e-06	2.156057e-06	9.277416e-10	1.497338e+01	6.382325e+01
2.330000e-06	2.199714e-06	9.453692e-10	1.527657e+01	6.516319e+01
2.340000e-06	2.243196e-06	9.624467e-10	1.557854e+01	6.646538e+01
2.350000e-06	2.286492e-06	9.808007e-10	1.587922e+01	6.773053e+01
2.360000e-06	2.329553e-06	9.998202e-10	1.617827e+01	6.895938e+01
2.370000e-06	2.372263e-06	1.018159e-09	1.647489e+01	7.015274e+01
2.380000e-06	2.414783e-06	1.035558e-09	1.677018e+01	7.131144e+01
2.390000e-06	2.457176e-06	1.051809e-09	1.706459e+01	7.243632e+01
2.400000e-06	2.499097e-06	1.068248e-09	1.735572e+01	7.352826e+01
2.410000e-06	2.540548e-06	1.082786e-09	1.764359e+01	7.458812e+01
2.420000e-06	2.581619e-06	1.095439e-09	1.792882e+01	7.561677e+01
2.430000e-06	2.622385e-06	1.105581e-09	1.821193e+01	7.661507e+01
2.440000e-06	2.662974e-06	1.116520e-09	1.849382e+01	7.758385e+01
2.450000e-06	2.703431e-06	1.129931e-09	1.877478e+01	7.852395e+01
2.460000e-06	2.743766e-06	1.143899e-09	1.905490e+01	7.943616e+01
2.470000e-06	2.783933e-06	1.158011e-09	1.933385e+01	8.032126e+01
2.480000e-06	2.823934e-06	1.168386e-09	1.961165e+01	8.118001e+01
2.490000e-06	2.863819e-06	1.175707e-09	1.988864e+01	8.201312e+01
2.500000e-06	2.903700e-06	1.183941e-09	2.016561e+01	8.282128e+01
2.510000e-06	2.943375e-06	1.194014e-09	2.044114e+01	8.360517e+01
2.520000e-06	2.982793e-06	1.205818e-09	2.071490e+01	8.436541e+01
2.530000e-06	3.022066e-06	1.217042e-09	2.098764e+01	8.510261e+01
2.540000e-06	3.061072e-06	1.227100e-09	2.125852e+01	8.581736e+01
2.550000e-06	3.099787e-06	1.237839e-09	2.152740e+01	8.651022e+01
2.560000e-06	3.138210e-06	1.246783e-09	2.179423e+01	8.718171e+01
2.570000e-06	3.176529e-06	1.253917e-09	2.206035e+01	8.783236e+01
2.580000e-06	3.214793e-06	1.262817e-09	2.232609e+01	8.846267e+01
2.590000e-06	3.252845e-06	1.272286e-09	2.259035e+01	8.907312e+01
2.600000e-06	3.290595e-06	1.280411e-09	2.285252e+01	8.966418e+01
2.610000e-06	3.328157e-06	1.288130e-09	2.311338e+01	9.023631e+01
2.620000e-06	3.365472e-06	1.295228e-09	2.337252e+01	9.078997e+01
2.630000e-06	3.402432e-06	1.301658e-09	2.362920e+01	9.132561e+01
2.640000e-06	3.439125e-06	1.309204e-09	2.388403e+01	9.184366e+01
2.650000e-06	3.475567e-06	1.318710e-09	2.413711e+01	9.234457e+01
2.660000e-06	3.511812e-06	1.328234e-09	2.438882e+01	9.282879e+01
2.670000e-06	3.547913e-06	1.336240e-09	2.463954e+01	9.329675e+01
2.680000e-06	3.583883e-06	1.343284e-09	2.488934e+01	9.374891e+01
2.690000e-06	3.619713e-06	1.350281e-09	2.513818e+01	9.418571e+01
2.700000e-06	3.655425e-06	1.355523e-09	2.538619e+01	9.460761e+01
2.710000e-06	3.691050e-06	1.360310e-09	2.563360e+01	9.501507e+01
2.720000e-06	3.726476e-06	1.365827e-09	2.587962e+01	9.540855e+01
2.730000e-06	3.761519e-06	1.370269e-09	2.612299e+01	9.578853e+01
2.740000e-06	3.796102e-06	1.374389e-09	2.636316e+01	9.615547e+01
2.750000e-06	3.830132e-06	1.379216e-09	2.659949e+01	9.650986e+01
2.760000e-06	3.863532e-06	1.383372e-09	2.683145e+01	9.685217e+01
2.770000e-06	3.896439e-06	1.388363e-09	2.705998e+01	9.718289e+01
2.780000e-06	3.929124e-06	1.393667e-09	2.728697e+01	9.750250e+01
2.790000e-06	3.961597e-06	1.397976e-09	2.751249e+01	9.781148e+01
2.800000e-06	3.993843e-06	1.403378e-09	2.773643e+01	9.811031e+01
2.810000e-06	4.025913e-06	1.408288e-09	2.795915e+01	9.839946e+01
2.820000e-06	4.057763e-06	1.411536e-09	2.818034e+01	9.867940e+01
2.830000e-06	4.089428e-06	1.415267e-09	2.840025e+01	9.895059e+01
2.840000e-06	4.120873e-06	1.419606e-09	2.861863e+01	9.921346e+01
2.850000e-06	4.151957e-06	1.423346e-09	2.883450e+01	9.946845e+01
2.860000e-06	4.182757e-06	1.424976e-09	2.904840e+01	9.971596e+01
2.870000e-06	4.213343e-06	1.428201e-09	2.926082e+01	9.995640e+01
2.880000e-06	4.243564e-06	1.433909e-09	2.947070e+01	1.001901e+02
2.890000e-06	4.273479e-06	1.438086e-09	2.967845e+01	1.004175e+02
2.900000e-06	4.303019e-06	1.442331e-09	2.988360e+01	1.006389e+02
