# Temperatura_=_13.6
# Concentracion g/m^3_=_1620.0
# C_Vs_to_Am_M_A/Vsm_=_65563218390.804596
# pendiente_HvsI_1/m_=_3716.3
# ordenada_HvsI_A/m_=_1297.0
# frecuencia_Hz_=_135097.62276036805

Tiempo_(s)	Campo_(V.s)	Magnetizacion_(V.s)	Campo_(kA/m)	Magnetizacion_(A/m)
0.000000e+00	-5.538038e-06	-1.646238e-09	-3.836153e+01	-1.079461e+02
1.000000e-08	-5.538036e-06	-1.638570e-09	-3.836152e+01	-1.078905e+02
2.000000e-08	-5.537722e-06	-1.635553e-09	-3.835935e+01	-1.078367e+02
3.000000e-08	-5.537102e-06	-1.636981e-09	-3.835505e+01	-1.077853e+02
4.000000e-08	-5.536040e-06	-1.641970e-09	-3.834769e+01	-1.077365e+02
5.000000e-08	-5.534398e-06	-1.648561e-09	-3.833632e+01	-1.076906e+02
6.000000e-08	-5.532160e-06	-1.667710e-09	-3.832082e+01	-1.076477e+02
7.000000e-08	-5.529300e-06	-1.661875e-09	-3.830101e+01	-1.076077e+02
8.000000e-08	-5.525865e-06	-1.610081e-09	-3.827721e+01	-1.075706e+02
9.000000e-08	-5.522005e-06	-1.611732e-09	-3.825048e+01	-1.075359e+02
1.000000e-07	-5.517860e-06	-1.715761e-09	-3.822177e+01	-1.075034e+02
1.100000e-07	-5.513383e-06	-1.696679e-09	-3.819075e+01	-1.074724e+02
1.200000e-07	-5.508598e-06	-1.560395e-09	-3.815761e+01	-1.074423e+02
1.300000e-07	-5.503629e-06	-1.538291e-09	-3.812319e+01	-1.074123e+02
1.400000e-07	-5.498345e-06	-1.695648e-09	-3.808659e+01	-1.073817e+02
1.500000e-07	-5.492594e-06	-1.739044e-09	-3.804675e+01	-1.073495e+02
1.600000e-07	-5.486359e-06	-1.593521e-09	-3.800356e+01	-1.073147e+02
1.700000e-07	-5.479754e-06	-1.552429e-09	-3.795781e+01	-1.072764e+02
1.800000e-07	-5.472807e-06	-1.680644e-09	-3.790968e+01	-1.072334e+02
1.900000e-07	-5.465409e-06	-1.701294e-09	-3.785844e+01	-1.071850e+02
2.000000e-07	-5.457655e-06	-1.588652e-09	-3.780473e+01	-1.071299e+02
2.100000e-07	-5.449757e-06	-1.569340e-09	-3.775002e+01	-1.070674e+02
2.200000e-07	-5.441613e-06	-1.669429e-09	-3.769361e+01	-1.069966e+02
2.300000e-07	-5.433006e-06	-1.705003e-09	-3.763398e+01	-1.069167e+02
2.400000e-07	-5.423902e-06	-1.631140e-09	-3.757092e+01	-1.068271e+02
2.500000e-07	-5.414127e-06	-1.602072e-09	-3.750322e+01	-1.067272e+02
2.600000e-07	-5.403573e-06	-1.643744e-09	-3.743011e+01	-1.066167e+02
2.700000e-07	-5.392554e-06	-1.664051e-09	-3.735378e+01	-1.064953e+02
2.800000e-07	-5.381218e-06	-1.614028e-09	-3.727526e+01	-1.063628e+02
2.900000e-07	-5.369419e-06	-1.602306e-09	-3.719353e+01	-1.062193e+02
3.000000e-07	-5.357203e-06	-1.637668e-09	-3.710890e+01	-1.060651e+02
3.100000e-07	-5.344611e-06	-1.666634e-09	-3.702168e+01	-1.059005e+02
3.200000e-07	-5.331642e-06	-1.617898e-09	-3.693184e+01	-1.057260e+02
3.300000e-07	-5.318258e-06	-1.584122e-09	-3.683913e+01	-1.055422e+02
3.400000e-07	-5.304460e-06	-1.623278e-09	-3.674356e+01	-1.053499e+02
3.500000e-07	-5.290256e-06	-1.650941e-09	-3.664517e+01	-1.051499e+02
3.600000e-07	-5.275589e-06	-1.587976e-09	-3.654357e+01	-1.049432e+02
3.700000e-07	-5.260460e-06	-1.588049e-09	-3.643877e+01	-1.047309e+02
3.800000e-07	-5.244857e-06	-1.664992e-09	-3.633069e+01	-1.045140e+02
3.900000e-07	-5.228643e-06	-1.623693e-09	-3.621838e+01	-1.042936e+02
4.000000e-07	-5.211923e-06	-1.542375e-09	-3.610256e+01	-1.040709e+02
4.100000e-07	-5.194986e-06	-1.625104e-09	-3.598524e+01	-1.038470e+02
4.200000e-07	-5.177796e-06	-1.667138e-09	-3.586617e+01	-1.036228e+02
4.300000e-07	-5.160143e-06	-1.539316e-09	-3.574389e+01	-1.033994e+02
4.400000e-07	-5.142124e-06	-1.548805e-09	-3.561907e+01	-1.031778e+02
4.500000e-07	-5.123848e-06	-1.674657e-09	-3.549248e+01	-1.029587e+02
4.600000e-07	-5.105178e-06	-1.591982e-09	-3.536315e+01	-1.027429e+02
4.700000e-07	-5.086071e-06	-1.492174e-09	-3.523079e+01	-1.025308e+02
4.800000e-07	-5.066648e-06	-1.608055e-09	-3.509626e+01	-1.023231e+02
4.900000e-07	-5.047011e-06	-1.624458e-09	-3.496023e+01	-1.021199e+02
5.000000e-07	-5.027147e-06	-1.506862e-09	-3.482263e+01	-1.019213e+02
5.100000e-07	-5.007060e-06	-1.566574e-09	-3.468350e+01	-1.017274e+02
5.200000e-07	-4.986632e-06	-1.636242e-09	-3.454199e+01	-1.015380e+02
5.300000e-07	-4.965849e-06	-1.516494e-09	-3.439803e+01	-1.013527e+02
5.400000e-07	-4.944715e-06	-1.513598e-09	-3.425163e+01	-1.011712e+02
5.500000e-07	-4.923202e-06	-1.624845e-09	-3.410261e+01	-1.009928e+02
5.600000e-07	-4.901382e-06	-1.554192e-09	-3.395147e+01	-1.008169e+02
5.700000e-07	-4.879203e-06	-1.481713e-09	-3.379784e+01	-1.006425e+02
5.800000e-07	-4.856698e-06	-1.581038e-09	-3.364194e+01	-1.004690e+02
5.900000e-07	-4.833806e-06	-1.578322e-09	-3.348338e+01	-1.002953e+02
6.000000e-07	-4.810513e-06	-1.485872e-09	-3.332203e+01	-1.001206e+02
6.100000e-07	-4.786936e-06	-1.529177e-09	-3.315871e+01	-9.994369e+01
6.200000e-07	-4.763095e-06	-1.564621e-09	-3.299357e+01	-9.976377e+01
6.300000e-07	-4.739052e-06	-1.494620e-09	-3.282702e+01	-9.957983e+01
6.400000e-07	-4.714786e-06	-1.500835e-09	-3.265893e+01	-9.939098e+01
6.500000e-07	-4.690136e-06	-1.541013e-09	-3.248818e+01	-9.919638e+01
6.600000e-07	-4.665026e-06	-1.500105e-09	-3.231425e+01	-9.899527e+01
6.700000e-07	-4.639409e-06	-1.483991e-09	-3.213680e+01	-9.878698e+01
6.800000e-07	-4.613203e-06	-1.517802e-09	-3.195528e+01	-9.857097e+01
6.900000e-07	-4.586612e-06	-1.498739e-09	-3.177108e+01	-9.834680e+01
7.000000e-07	-4.559571e-06	-1.477524e-09	-3.158377e+01	-9.811415e+01
7.100000e-07	-4.532032e-06	-1.497096e-09	-3.139301e+01	-9.787284e+01
7.200000e-07	-4.504307e-06	-1.489077e-09	-3.120096e+01	-9.762280e+01
7.300000e-07	-4.476455e-06	-1.467276e-09	-3.100804e+01	-9.736411e+01
7.400000e-07	-4.448407e-06	-1.476030e-09	-3.081375e+01	-9.709696e+01
7.500000e-07	-4.420122e-06	-1.473472e-09	-3.061782e+01	-9.682163e+01
7.600000e-07	-4.391554e-06	-1.453039e-09	-3.041993e+01	-9.653854e+01
7.700000e-07	-4.362661e-06	-1.455419e-09	-3.021979e+01	-9.624817e+01
7.800000e-07	-4.333479e-06	-1.456538e-09	-3.001765e+01	-9.595108e+01
7.900000e-07	-4.303999e-06	-1.441078e-09	-2.981345e+01	-9.564789e+01
8.000000e-07	-4.274107e-06	-1.442236e-09	-2.960639e+01	-9.533927e+01
8.100000e-07	-4.243904e-06	-1.445256e-09	-2.939717e+01	-9.502588e+01
8.200000e-07	-4.213459e-06	-1.420555e-09	-2.918628e+01	-9.470843e+01
8.300000e-07	-4.182708e-06	-1.407403e-09	-2.897327e+01	-9.438758e+01
8.400000e-07	-4.151666e-06	-1.418884e-09	-2.875825e+01	-9.406396e+01
8.500000e-07	-4.120415e-06	-1.416169e-09	-2.854177e+01	-9.373819e+01
8.600000e-07	-4.088907e-06	-1.401688e-09	-2.832352e+01	-9.341077e+01
8.700000e-07	-4.057190e-06	-1.403876e-09	-2.810383e+01	-9.308218e+01
8.800000e-07	-4.025363e-06	-1.397206e-09	-2.788336e+01	-9.275279e+01
8.900000e-07	-3.993380e-06	-1.375164e-09	-2.766182e+01	-9.242287e+01
9.000000e-07	-3.961200e-06	-1.371347e-09	-2.743891e+01	-9.209262e+01
9.100000e-07	-3.928603e-06	-1.375929e-09	-2.721311e+01	-9.176209e+01
9.200000e-07	-3.895544e-06	-1.362436e-09	-2.698411e+01	-9.143129e+01
9.300000e-07	-3.862136e-06	-1.356645e-09	-2.675270e+01	-9.110008e+01
9.400000e-07	-3.828252e-06	-1.364315e-09	-2.651799e+01	-9.076826e+01
9.500000e-07	-3.793791e-06	-1.354401e-09	-2.627928e+01	-9.043551e+01
9.600000e-07	-3.758935e-06	-1.334915e-09	-2.603784e+01	-9.010147e+01
9.700000e-07	-3.723792e-06	-1.333071e-09	-2.579440e+01	-8.976569e+01
9.800000e-07	-3.688361e-06	-1.330669e-09	-2.554897e+01	-8.942767e+01
9.900000e-07	-3.652727e-06	-1.317456e-09	-2.530214e+01	-8.908688e+01
1.000000e-06	-3.616955e-06	-1.315066e-09	-2.505435e+01	-8.874277e+01
1.010000e-06	-3.581068e-06	-1.319033e-09	-2.480576e+01	-8.839476e+01
1.020000e-06	-3.545049e-06	-1.309433e-09	-2.455627e+01	-8.804232e+01
1.030000e-06	-3.508801e-06	-1.299880e-09	-2.430517e+01	-8.768490e+01
1.040000e-06	-3.472275e-06	-1.298249e-09	-2.405216e+01	-8.732202e+01
1.050000e-06	-3.435466e-06	-1.288900e-09	-2.379719e+01	-8.695324e+01
1.060000e-06	-3.398456e-06	-1.277503e-09	-2.354082e+01	-8.657818e+01
1.070000e-06	-3.361263e-06	-1.277305e-09	-2.328319e+01	-8.619653e+01
1.080000e-06	-3.323718e-06	-1.276143e-09	-2.302312e+01	-8.580807e+01
1.090000e-06	-3.285832e-06	-1.266542e-09	-2.276069e+01	-8.541267e+01
1.100000e-06	-3.247778e-06	-1.259187e-09	-2.249709e+01	-8.501027e+01
1.110000e-06	-3.209557e-06	-1.250863e-09	-2.223233e+01	-8.460092e+01
1.120000e-06	-3.171074e-06	-1.234406e-09	-2.196577e+01	-8.418475e+01
1.130000e-06	-3.132352e-06	-1.219214e-09	-2.169755e+01	-8.376197e+01
1.140000e-06	-3.093471e-06	-1.214066e-09	-2.142822e+01	-8.333286e+01
1.150000e-06	-3.054405e-06	-1.210541e-09	-2.115761e+01	-8.289777e+01
1.160000e-06	-3.015208e-06	-1.205117e-09	-2.088610e+01	-8.245711e+01
1.170000e-06	-2.975912e-06	-1.201279e-09	-2.061390e+01	-8.201133e+01
1.180000e-06	-2.936484e-06	-1.197985e-09	-2.034078e+01	-8.156090e+01
1.190000e-06	-2.896863e-06	-1.189932e-09	-2.006633e+01	-8.110630e+01
1.200000e-06	-2.857047e-06	-1.179417e-09	-1.979053e+01	-8.064802e+01
1.210000e-06	-2.817106e-06	-1.169306e-09	-1.951386e+01	-8.018651e+01
1.220000e-06	-2.776974e-06	-1.159030e-09	-1.923587e+01	-7.972219e+01
1.230000e-06	-2.736672e-06	-1.152512e-09	-1.895671e+01	-7.925543e+01
1.240000e-06	-2.696211e-06	-1.149592e-09	-1.867643e+01	-7.878654e+01
1.250000e-06	-2.655414e-06	-1.143680e-09	-1.839383e+01	-7.831572e+01
1.260000e-06	-2.614305e-06	-1.134372e-09	-1.810907e+01	-7.784312e+01
1.270000e-06	-2.572983e-06	-1.123673e-09	-1.782284e+01	-7.736875e+01
1.280000e-06	-2.531395e-06	-1.112475e-09	-1.753477e+01	-7.689253e+01
1.290000e-06	-2.489515e-06	-1.099406e-09	-1.724466e+01	-7.641427e+01
1.300000e-06	-2.447295e-06	-1.090219e-09	-1.695221e+01	-7.593365e+01
1.310000e-06	-2.404853e-06	-1.084783e-09	-1.665822e+01	-7.545025e+01
1.320000e-06	-2.362248e-06	-1.078443e-09	-1.636310e+01	-7.496351e+01
1.330000e-06	-2.319294e-06	-1.069297e-09	-1.606556e+01	-7.447280e+01
1.340000e-06	-2.276115e-06	-1.060211e-09	-1.576646e+01	-7.397735e+01
1.350000e-06	-2.232728e-06	-1.052383e-09	-1.546593e+01	-7.347634e+01
1.360000e-06	-2.189106e-06	-1.043299e-09	-1.516375e+01	-7.296883e+01
1.370000e-06	-2.145432e-06	-1.032707e-09	-1.486123e+01	-7.245386e+01
1.380000e-06	-2.101714e-06	-1.022274e-09	-1.455840e+01	-7.193037e+01
1.390000e-06	-2.057922e-06	-1.011507e-09	-1.425506e+01	-7.139732e+01
1.400000e-06	-2.013999e-06	-1.001224e-09	-1.395080e+01	-7.085360e+01
1.410000e-06	-1.969992e-06	-9.917556e-10	-1.364597e+01	-7.029813e+01
1.420000e-06	-1.925891e-06	-9.793161e-10	-1.334049e+01	-6.972985e+01
1.430000e-06	-1.881692e-06	-9.701540e-10	-1.303433e+01	-6.914770e+01
1.440000e-06	-1.837398e-06	-9.631583e-10	-1.272751e+01	-6.855068e+01
1.450000e-06	-1.793017e-06	-9.556589e-10	-1.242008e+01	-6.793787e+01
1.460000e-06	-1.748560e-06	-9.424866e-10	-1.211213e+01	-6.730837e+01
1.470000e-06	-1.703938e-06	-9.273246e-10	-1.180304e+01	-6.666140e+01
1.480000e-06	-1.659201e-06	-9.129317e-10	-1.149315e+01	-6.599625e+01
1.490000e-06	-1.614289e-06	-8.979466e-10	-1.118205e+01	-6.531228e+01
1.500000e-06	-1.569111e-06	-8.841575e-10	-1.086910e+01	-6.460898e+01
1.510000e-06	-1.523763e-06	-8.733028e-10	-1.055498e+01	-6.388589e+01
1.520000e-06	-1.478409e-06	-8.640436e-10	-1.024082e+01	-6.314266e+01
1.530000e-06	-1.433027e-06	-8.526970e-10	-9.926463e+00	-6.237902e+01
1.540000e-06	-1.387492e-06	-8.378327e-10	-9.611045e+00	-6.159476e+01
1.550000e-06	-1.341830e-06	-8.228398e-10	-9.294744e+00	-6.078975e+01
1.560000e-06	-1.296081e-06	-8.085817e-10	-8.977846e+00	-5.996388e+01
1.570000e-06	-1.250254e-06	-7.955621e-10	-8.660410e+00	-5.911711e+01
1.580000e-06	-1.204429e-06	-7.834402e-10	-8.342979e+00	-5.824941e+01
1.590000e-06	-1.158593e-06	-7.695017e-10	-8.025478e+00	-5.736076e+01
1.600000e-06	-1.112618e-06	-7.551749e-10	-7.707012e+00	-5.645110e+01
1.610000e-06	-1.066513e-06	-7.395457e-10	-7.387646e+00	-5.552040e+01
1.620000e-06	-1.020352e-06	-7.263001e-10	-7.067892e+00	-5.456854e+01
1.630000e-06	-9.741375e-07	-7.155836e-10	-6.747770e+00	-5.359537e+01
1.640000e-06	-9.278839e-07	-7.024150e-10	-6.427376e+00	-5.260066e+01
1.650000e-06	-8.815332e-07	-6.848733e-10	-6.106308e+00	-5.158412e+01
1.660000e-06	-8.350499e-07	-6.656578e-10	-5.784322e+00	-5.054535e+01
1.670000e-06	-7.885103e-07	-6.455747e-10	-5.461946e+00	-4.948387e+01
1.680000e-06	-7.419724e-07	-6.276169e-10	-5.139582e+00	-4.839908e+01
1.690000e-06	-6.954187e-07	-6.123106e-10	-4.817108e+00	-4.729032e+01
1.700000e-06	-6.488311e-07	-5.974224e-10	-4.494400e+00	-4.615678e+01
1.710000e-06	-6.022107e-07	-5.820688e-10	-4.171464e+00	-4.499760e+01
1.720000e-06	-5.554735e-07	-5.662781e-10	-3.847719e+00	-4.381181e+01
1.730000e-06	-5.086471e-07	-5.465401e-10	-3.523357e+00	-4.259836e+01
1.740000e-06	-4.618549e-07	-5.250044e-10	-3.199231e+00	-4.135617e+01
1.750000e-06	-4.150660e-07	-5.036641e-10	-2.875128e+00	-4.008409e+01
1.760000e-06	-3.682100e-07	-4.819329e-10	-2.550560e+00	-3.878093e+01
1.770000e-06	-3.213375e-07	-4.610888e-10	-2.225879e+00	-3.744553e+01
1.780000e-06	-2.744601e-07	-4.409082e-10	-1.901162e+00	-3.607672e+01
1.790000e-06	-2.275649e-07	-4.229215e-10	-1.576324e+00	-3.467336e+01
1.800000e-06	-1.806216e-07	-4.060619e-10	-1.251151e+00	-3.323441e+01
1.810000e-06	-1.335997e-07	-3.870398e-10	-9.254343e-01	-3.175887e+01
1.820000e-06	-8.657798e-08	-3.668997e-10	-5.997186e-01	-3.024590e+01
1.830000e-06	-3.963690e-08	-3.446869e-10	-2.745616e-01	-2.869475e+01
1.840000e-06	7.305359e-09	-3.197054e-10	5.060362e-02	-2.710486e+01
1.850000e-06	5.427657e-08	-2.951465e-10	3.759693e-01	-2.547583e+01
1.860000e-06	1.012149e-07	-2.707304e-10	7.011076e-01	-2.380747e+01
1.870000e-06	1.481852e-07	-2.453783e-10	1.026467e+00	-2.209978e+01
1.880000e-06	1.951568e-07	-2.200721e-10	1.351835e+00	-2.035302e+01
1.890000e-06	2.421064e-07	-1.958901e-10	1.677051e+00	-1.856767e+01
1.900000e-06	2.891205e-07	-1.709444e-10	2.002714e+00	-1.674446e+01
1.910000e-06	3.361093e-07	-1.415142e-10	2.328202e+00	-1.488437e+01
1.920000e-06	3.829894e-07	-1.093609e-10	2.652936e+00	-1.298863e+01
1.930000e-06	4.298415e-07	-8.092332e-11	2.977477e+00	-1.105871e+01
1.940000e-06	4.766732e-07	-5.332406e-11	3.301876e+00	-9.096354e+00
1.950000e-06	5.234730e-07	-2.584915e-11	3.626054e+00	-7.103506e+00
1.960000e-06	5.703124e-07	-5.202814e-13	3.950507e+00	-5.082348e+00
1.970000e-06	6.171353e-07	2.486957e-11	4.274846e+00	-3.035267e+00
1.980000e-06	6.638012e-07	5.181566e-11	4.598096e+00	-9.648325e-01
1.990000e-06	7.103149e-07	8.307828e-11	4.920293e+00	1.126214e+00
2.000000e-06	7.567510e-07	1.184352e-10	5.241952e+00	3.234990e+00
2.010000e-06	8.031806e-07	1.516815e-10	5.563566e+00	5.358490e+00
2.020000e-06	8.496059e-07	1.813915e-10	5.885150e+00	7.493616e+00
2.030000e-06	8.960091e-07	2.090928e-10	6.206581e+00	9.637199e+00
2.040000e-06	9.423313e-07	2.358232e-10	6.527451e+00	1.178603e+01
2.050000e-06	9.884924e-07	2.637356e-10	6.847205e+00	1.393689e+01
2.060000e-06	1.034565e-06	2.942612e-10	7.166345e+00	1.608655e+01
2.070000e-06	1.080607e-06	3.269003e-10	7.485278e+00	1.823185e+01
2.080000e-06	1.126627e-06	3.584540e-10	7.804052e+00	2.036967e+01
2.090000e-06	1.172634e-06	3.890201e-10	8.122741e+00	2.249696e+01
2.100000e-06	1.218537e-06	4.204425e-10	8.440704e+00	2.461081e+01
2.110000e-06	1.264278e-06	4.511126e-10	8.757552e+00	2.670841e+01
2.120000e-06	1.309933e-06	4.807809e-10	9.073800e+00	2.878709e+01
2.130000e-06	1.355471e-06	5.099359e-10	9.389234e+00	3.084433e+01
2.140000e-06	1.400940e-06	5.370869e-10	9.704199e+00	3.287779e+01
2.150000e-06	1.446358e-06	5.636287e-10	1.001880e+01	3.488530e+01
2.160000e-06	1.491583e-06	5.916327e-10	1.033207e+01	3.686486e+01
2.170000e-06	1.536676e-06	6.204549e-10	1.064443e+01	3.881467e+01
2.180000e-06	1.581781e-06	6.485169e-10	1.095686e+01	4.073312e+01
2.190000e-06	1.626777e-06	6.756126e-10	1.126855e+01	4.261876e+01
2.200000e-06	1.671550e-06	7.016661e-10	1.157869e+01	4.447035e+01
2.210000e-06	1.716162e-06	7.261280e-10	1.188772e+01	4.628683e+01
2.220000e-06	1.760680e-06	7.491781e-10	1.219608e+01	4.806730e+01
2.230000e-06	1.805075e-06	7.702566e-10	1.250360e+01	4.981103e+01
2.240000e-06	1.849322e-06	7.906152e-10	1.281010e+01	5.151746e+01
2.250000e-06	1.893507e-06	8.128166e-10	1.311616e+01	5.318617e+01
2.260000e-06	1.937605e-06	8.362788e-10	1.342163e+01	5.481686e+01
2.270000e-06	1.981590e-06	8.587493e-10	1.372631e+01	5.640940e+01
2.280000e-06	2.025514e-06	8.789552e-10	1.403057e+01	5.796372e+01
2.290000e-06	2.069390e-06	8.986345e-10	1.433450e+01	5.947991e+01
2.300000e-06	2.113178e-06	9.180196e-10	1.463781e+01	6.095811e+01
2.310000e-06	2.156879e-06	9.356747e-10	1.494052e+01	6.239857e+01
2.320000e-06	2.200529e-06	9.531001e-10	1.524288e+01	6.380159e+01
2.330000e-06	2.244126e-06	9.710922e-10	1.554488e+01	6.516756e+01
2.340000e-06	2.287603e-06	9.890492e-10	1.584604e+01	6.649691e+01
2.350000e-06	2.330880e-06	1.006855e-09	1.614581e+01	6.779012e+01
2.360000e-06	2.373937e-06	1.023923e-09	1.644406e+01	6.904770e+01
2.370000e-06	2.416695e-06	1.039936e-09	1.674025e+01	7.027021e+01
2.380000e-06	2.459149e-06	1.053448e-09	1.703432e+01	7.145823e+01
2.390000e-06	2.501324e-06	1.067589e-09	1.732646e+01	7.261235e+01
2.400000e-06	2.543157e-06	1.083547e-09	1.761624e+01	7.373321e+01
2.410000e-06	2.584648e-06	1.098838e-09	1.790364e+01	7.482143e+01
2.420000e-06	2.625811e-06	1.112261e-09	1.818878e+01	7.587767e+01
2.430000e-06	2.666741e-06	1.124213e-09	1.847230e+01	7.690259e+01
2.440000e-06	2.707385e-06	1.134949e-09	1.875383e+01	7.789686e+01
2.450000e-06	2.747743e-06	1.147320e-09	1.903339e+01	7.886115e+01
2.460000e-06	2.787895e-06	1.161830e-09	1.931152e+01	7.979614e+01
2.470000e-06	2.827864e-06	1.174515e-09	1.958838e+01	8.070252e+01
2.480000e-06	2.867795e-06	1.185706e-09	1.986498e+01	8.158098e+01
2.490000e-06	2.907644e-06	1.194855e-09	2.014101e+01	8.243221e+01
2.500000e-06	2.947289e-06	1.203402e-09	2.041563e+01	8.325690e+01
2.510000e-06	2.986780e-06	1.212892e-09	2.068918e+01	8.405574e+01
2.520000e-06	3.026093e-06	1.223009e-09	2.096149e+01	8.482944e+01
2.530000e-06	3.065177e-06	1.233230e-09	2.123223e+01	8.557867e+01
2.540000e-06	3.104030e-06	1.243435e-09	2.150136e+01	8.630413e+01
2.550000e-06	3.142678e-06	1.252668e-09	2.176907e+01	8.700650e+01
2.560000e-06	3.181132e-06	1.261120e-09	2.203544e+01	8.768646e+01
2.570000e-06	3.219335e-06	1.270046e-09	2.230007e+01	8.834468e+01
2.580000e-06	3.257300e-06	1.278702e-09	2.256305e+01	8.898181e+01
2.590000e-06	3.295088e-06	1.287848e-09	2.282480e+01	8.959851e+01
2.600000e-06	3.332681e-06	1.296252e-09	2.308521e+01	9.019543e+01
2.610000e-06	3.369982e-06	1.304794e-09	2.334359e+01	9.077320e+01
2.620000e-06	3.407027e-06	1.313709e-09	2.360020e+01	9.133242e+01
2.630000e-06	3.443836e-06	1.322953e-09	2.385517e+01	9.187372e+01
2.640000e-06	3.480378e-06	1.332293e-09	2.410830e+01	9.239767e+01
2.650000e-06	3.516731e-06	1.339865e-09	2.436010e+01	9.290486e+01
2.660000e-06	3.552897e-06	1.346555e-09	2.461063e+01	9.339586e+01
2.670000e-06	3.588882e-06	1.352999e-09	2.485989e+01	9.387122e+01
2.680000e-06	3.624730e-06	1.359670e-09	2.510821e+01	9.433148e+01
2.690000e-06	3.660441e-06	1.366491e-09	2.535557e+01	9.477717e+01
2.700000e-06	3.696004e-06	1.372229e-09	2.560192e+01	9.520881e+01
2.710000e-06	3.731400e-06	1.378826e-09	2.584710e+01	9.562692e+01
2.720000e-06	3.766565e-06	1.386083e-09	2.609069e+01	9.603200e+01
2.730000e-06	3.801309e-06	1.392551e-09	2.633135e+01	9.642454e+01
2.740000e-06	3.835618e-06	1.399695e-09	2.656901e+01	9.680505e+01
2.750000e-06	3.869517e-06	1.405765e-09	2.680382e+01	9.717399e+01
2.760000e-06	3.902823e-06	1.411427e-09	2.703453e+01	9.753186e+01
2.770000e-06	3.935613e-06	1.416597e-09	2.726167e+01	9.787913e+01
2.780000e-06	3.968097e-06	1.422994e-09	2.748668e+01	9.821628e+01
2.790000e-06	4.000347e-06	1.430658e-09	2.771007e+01	9.854378e+01
2.800000e-06	4.032365e-06	1.435940e-09	2.793186e+01	9.886209e+01
2.810000e-06	4.064179e-06	1.438609e-09	2.815223e+01	9.917167e+01
2.820000e-06	4.095838e-06	1.441879e-09	2.837153e+01	9.947297e+01
2.830000e-06	4.127271e-06	1.446316e-09	2.858927e+01	9.976644e+01
2.840000e-06	4.158496e-06	1.449834e-09	2.880556e+01	1.000525e+02
2.850000e-06	4.189502e-06	1.450287e-09	2.902034e+01	1.003315e+02
2.860000e-06	4.220157e-06	1.451101e-09	2.923268e+01	1.006040e+02
2.870000e-06	4.250476e-06	1.456158e-09	2.944270e+01	1.008702e+02
2.880000e-06	4.280482e-06	1.462736e-09	2.965055e+01	1.011306e+02
2.890000e-06	4.310169e-06	1.468954e-09	2.985619e+01	1.013854e+02
2.900000e-06	4.339566e-06	1.471887e-09	3.005982e+01	1.016350e+02
