# Temperatura_=_12.06
# Concentracion g/m^3_=_1620.0
# C_Vs_to_Am_M_A/Vsm_=_65563218390.804596
# pendiente_HvsI_1/m_=_3716.3
# ordenada_HvsI_A/m_=_1297.0
# frecuencia_Hz_=_135096.99990355517

Tiempo_(s)	Campo_(V.s)	Magnetizacion_(V.s)	Campo_(kA/m)	Magnetizacion_(A/m)
0.000000e+00	-5.530699e-06	-1.651443e-09	-3.837248e+01	-1.081838e+02
1.000000e-08	-5.530994e-06	-1.647843e-09	-3.837453e+01	-1.081261e+02
2.000000e-08	-5.531053e-06	-1.644607e-09	-3.837494e+01	-1.080745e+02
3.000000e-08	-5.530795e-06	-1.642481e-09	-3.837315e+01	-1.080296e+02
4.000000e-08	-5.530118e-06	-1.641936e-09	-3.836845e+01	-1.079917e+02
5.000000e-08	-5.528853e-06	-1.640663e-09	-3.835968e+01	-1.079612e+02
6.000000e-08	-5.527053e-06	-1.634370e-09	-3.834719e+01	-1.079382e+02
7.000000e-08	-5.524652e-06	-1.629030e-09	-3.833053e+01	-1.079225e+02
8.000000e-08	-5.521605e-06	-1.638595e-09	-3.830939e+01	-1.079139e+02
9.000000e-08	-5.518111e-06	-1.686052e-09	-3.828515e+01	-1.079120e+02
1.000000e-07	-5.514169e-06	-1.707904e-09	-3.825780e+01	-1.079162e+02
1.100000e-07	-5.509875e-06	-1.651589e-09	-3.822801e+01	-1.079258e+02
1.200000e-07	-5.505423e-06	-1.567843e-09	-3.819711e+01	-1.079398e+02
1.300000e-07	-5.500836e-06	-1.596014e-09	-3.816529e+01	-1.079572e+02
1.400000e-07	-5.495827e-06	-1.659368e-09	-3.813053e+01	-1.079768e+02
1.500000e-07	-5.490323e-06	-1.666795e-09	-3.809235e+01	-1.079974e+02
1.600000e-07	-5.484479e-06	-1.599319e-09	-3.805180e+01	-1.080174e+02
1.700000e-07	-5.478268e-06	-1.616141e-09	-3.800871e+01	-1.080356e+02
1.800000e-07	-5.471645e-06	-1.662482e-09	-3.796276e+01	-1.080505e+02
1.900000e-07	-5.464601e-06	-1.664696e-09	-3.791389e+01	-1.080605e+02
2.000000e-07	-5.457214e-06	-1.592375e-09	-3.786263e+01	-1.080642e+02
2.100000e-07	-5.449533e-06	-1.591906e-09	-3.780935e+01	-1.080602e+02
2.200000e-07	-5.441536e-06	-1.654791e-09	-3.775386e+01	-1.080471e+02
2.300000e-07	-5.433289e-06	-1.684254e-09	-3.769664e+01	-1.080237e+02
2.400000e-07	-5.424823e-06	-1.643610e-09	-3.763791e+01	-1.079888e+02
2.500000e-07	-5.415830e-06	-1.610168e-09	-3.757551e+01	-1.079415e+02
2.600000e-07	-5.406058e-06	-1.635686e-09	-3.750771e+01	-1.078808e+02
2.700000e-07	-5.395557e-06	-1.642405e-09	-3.743486e+01	-1.078061e+02
2.800000e-07	-5.384561e-06	-1.632894e-09	-3.735857e+01	-1.077169e+02
2.900000e-07	-5.373157e-06	-1.620448e-09	-3.727944e+01	-1.076130e+02
3.000000e-07	-5.361280e-06	-1.646111e-09	-3.719704e+01	-1.074941e+02
3.100000e-07	-5.349041e-06	-1.630954e-09	-3.711212e+01	-1.073604e+02
3.200000e-07	-5.336386e-06	-1.620437e-09	-3.702432e+01	-1.072122e+02
3.300000e-07	-5.323302e-06	-1.601530e-09	-3.693354e+01	-1.070501e+02
3.400000e-07	-5.309939e-06	-1.624971e-09	-3.684083e+01	-1.068745e+02
3.500000e-07	-5.296203e-06	-1.612532e-09	-3.674553e+01	-1.066865e+02
3.600000e-07	-5.282055e-06	-1.610056e-09	-3.664737e+01	-1.064869e+02
3.700000e-07	-5.267422e-06	-1.610227e-09	-3.654584e+01	-1.062770e+02
3.800000e-07	-5.252201e-06	-1.623981e-09	-3.644024e+01	-1.060579e+02
3.900000e-07	-5.236450e-06	-1.593868e-09	-3.633096e+01	-1.058309e+02
4.000000e-07	-5.220163e-06	-1.588869e-09	-3.621796e+01	-1.055975e+02
4.100000e-07	-5.203407e-06	-1.609729e-09	-3.610170e+01	-1.053591e+02
4.200000e-07	-5.186369e-06	-1.604207e-09	-3.598349e+01	-1.051170e+02
4.300000e-07	-5.169000e-06	-1.568947e-09	-3.586299e+01	-1.048727e+02
4.400000e-07	-5.151383e-06	-1.588446e-09	-3.574075e+01	-1.046276e+02
4.500000e-07	-5.133565e-06	-1.612454e-09	-3.561713e+01	-1.043829e+02
4.600000e-07	-5.115304e-06	-1.574180e-09	-3.549044e+01	-1.041399e+02
4.700000e-07	-5.096535e-06	-1.553042e-09	-3.536021e+01	-1.038995e+02
4.800000e-07	-5.077346e-06	-1.585755e-09	-3.522708e+01	-1.036629e+02
4.900000e-07	-5.057841e-06	-1.581095e-09	-3.509175e+01	-1.034307e+02
5.000000e-07	-5.038090e-06	-1.545801e-09	-3.495472e+01	-1.032036e+02
5.100000e-07	-5.018169e-06	-1.569642e-09	-3.481650e+01	-1.029820e+02
5.200000e-07	-4.998081e-06	-1.580935e-09	-3.467713e+01	-1.027664e+02
5.300000e-07	-4.977630e-06	-1.548805e-09	-3.453524e+01	-1.025566e+02
5.400000e-07	-4.956744e-06	-1.552048e-09	-3.439033e+01	-1.023528e+02
5.500000e-07	-4.935484e-06	-1.578920e-09	-3.424283e+01	-1.021547e+02
5.600000e-07	-4.913853e-06	-1.540026e-09	-3.409275e+01	-1.019618e+02
5.700000e-07	-4.891921e-06	-1.522963e-09	-3.394058e+01	-1.017736e+02
5.800000e-07	-4.869729e-06	-1.555200e-09	-3.378661e+01	-1.015895e+02
5.900000e-07	-4.847231e-06	-1.553426e-09	-3.363052e+01	-1.014085e+02
6.000000e-07	-4.824326e-06	-1.518851e-09	-3.347161e+01	-1.012298e+02
6.100000e-07	-4.801052e-06	-1.537201e-09	-3.331013e+01	-1.010523e+02
6.200000e-07	-4.777556e-06	-1.541732e-09	-3.314711e+01	-1.008751e+02
6.300000e-07	-4.753858e-06	-1.514610e-09	-3.298269e+01	-1.006971e+02
6.400000e-07	-4.729894e-06	-1.512900e-09	-3.281643e+01	-1.005170e+02
6.500000e-07	-4.705603e-06	-1.530566e-09	-3.264789e+01	-1.003338e+02
6.600000e-07	-4.680956e-06	-1.510759e-09	-3.247689e+01	-1.001466e+02
6.700000e-07	-4.655790e-06	-1.506173e-09	-3.230228e+01	-9.995409e+01
6.800000e-07	-4.630042e-06	-1.518053e-09	-3.212365e+01	-9.975550e+01
6.900000e-07	-4.603742e-06	-1.509620e-09	-3.194117e+01	-9.954993e+01
7.000000e-07	-4.576836e-06	-1.492824e-09	-3.175449e+01	-9.933662e+01
7.100000e-07	-4.549591e-06	-1.501979e-09	-3.156547e+01	-9.911493e+01
7.200000e-07	-4.522119e-06	-1.500488e-09	-3.137487e+01	-9.888431e+01
7.300000e-07	-4.494409e-06	-1.487481e-09	-3.118261e+01	-9.864439e+01
7.400000e-07	-4.466514e-06	-1.486322e-09	-3.098907e+01	-9.839489e+01
7.500000e-07	-4.438436e-06	-1.484004e-09	-3.079427e+01	-9.813568e+01
7.600000e-07	-4.410153e-06	-1.466890e-09	-3.059803e+01	-9.786676e+01
7.700000e-07	-4.381590e-06	-1.460515e-09	-3.039987e+01	-9.758825e+01
7.800000e-07	-4.352689e-06	-1.463921e-09	-3.019934e+01	-9.730039e+01
7.900000e-07	-4.323425e-06	-1.455665e-09	-2.999631e+01	-9.700352e+01
8.000000e-07	-4.293910e-06	-1.450137e-09	-2.979153e+01	-9.669807e+01
8.100000e-07	-4.264160e-06	-1.448683e-09	-2.958512e+01	-9.638456e+01
8.200000e-07	-4.234066e-06	-1.437501e-09	-2.937633e+01	-9.606357e+01
8.300000e-07	-4.203692e-06	-1.421008e-09	-2.916559e+01	-9.573572e+01
8.400000e-07	-4.173063e-06	-1.416931e-09	-2.895309e+01	-9.540167e+01
8.500000e-07	-4.142010e-06	-1.410098e-09	-2.873764e+01	-9.506208e+01
8.600000e-07	-4.110615e-06	-1.403502e-09	-2.851981e+01	-9.471763e+01
8.700000e-07	-4.079079e-06	-1.399498e-09	-2.830101e+01	-9.436896e+01
8.800000e-07	-4.047414e-06	-1.395009e-09	-2.808132e+01	-9.401668e+01
8.900000e-07	-4.015613e-06	-1.382839e-09	-2.786068e+01	-9.366136e+01
9.000000e-07	-3.983656e-06	-1.377569e-09	-2.763896e+01	-9.330351e+01
9.100000e-07	-3.951520e-06	-1.371893e-09	-2.741600e+01	-9.294356e+01
9.200000e-07	-3.918993e-06	-1.363130e-09	-2.719032e+01	-9.258188e+01
9.300000e-07	-3.885918e-06	-1.356517e-09	-2.696085e+01	-9.221873e+01
9.400000e-07	-3.852380e-06	-1.357917e-09	-2.672815e+01	-9.185432e+01
9.500000e-07	-3.818418e-06	-1.350572e-09	-2.649253e+01	-9.148876e+01
9.600000e-07	-3.784005e-06	-1.341123e-09	-2.625376e+01	-9.112206e+01
9.700000e-07	-3.749144e-06	-1.334865e-09	-2.601190e+01	-9.075416e+01
9.800000e-07	-3.713965e-06	-1.329297e-09	-2.576782e+01	-9.038493e+01
9.900000e-07	-3.678552e-06	-1.319087e-09	-2.552212e+01	-9.001416e+01
1.000000e-06	-3.642954e-06	-1.312714e-09	-2.527514e+01	-8.964159e+01
1.010000e-06	-3.607220e-06	-1.306894e-09	-2.502722e+01	-8.926692e+01
1.020000e-06	-3.571364e-06	-1.299583e-09	-2.477844e+01	-8.888977e+01
1.030000e-06	-3.535358e-06	-1.293379e-09	-2.452863e+01	-8.850979e+01
1.040000e-06	-3.499154e-06	-1.290764e-09	-2.427744e+01	-8.812657e+01
1.050000e-06	-3.462661e-06	-1.284991e-09	-2.402425e+01	-8.773973e+01
1.060000e-06	-3.425828e-06	-1.275478e-09	-2.376870e+01	-8.734888e+01
1.070000e-06	-3.388755e-06	-1.269449e-09	-2.351149e+01	-8.695365e+01
1.080000e-06	-3.351536e-06	-1.263644e-09	-2.325326e+01	-8.655372e+01
1.090000e-06	-3.314130e-06	-1.255160e-09	-2.299373e+01	-8.614878e+01
1.100000e-06	-3.276433e-06	-1.247527e-09	-2.273219e+01	-8.573860e+01
1.110000e-06	-3.238424e-06	-1.242320e-09	-2.246847e+01	-8.532298e+01
1.120000e-06	-3.200219e-06	-1.233769e-09	-2.220341e+01	-8.490177e+01
1.130000e-06	-3.161797e-06	-1.226533e-09	-2.193683e+01	-8.447491e+01
1.140000e-06	-3.123178e-06	-1.220342e-09	-2.166888e+01	-8.404236e+01
1.150000e-06	-3.084349e-06	-1.212615e-09	-2.139948e+01	-8.360417e+01
1.160000e-06	-3.045284e-06	-1.202414e-09	-2.112845e+01	-8.316041e+01
1.170000e-06	-3.006063e-06	-1.194242e-09	-2.085634e+01	-8.271123e+01
1.180000e-06	-2.966653e-06	-1.186231e-09	-2.058290e+01	-8.225679e+01
1.190000e-06	-2.927077e-06	-1.181034e-09	-2.030832e+01	-8.179730e+01
1.200000e-06	-2.887348e-06	-1.175037e-09	-2.003268e+01	-8.133298e+01
1.210000e-06	-2.847481e-06	-1.168258e-09	-1.975608e+01	-8.086406e+01
1.220000e-06	-2.807537e-06	-1.159093e-09	-1.947894e+01	-8.039079e+01
1.230000e-06	-2.767483e-06	-1.152800e-09	-1.920104e+01	-7.991339e+01
1.240000e-06	-2.727296e-06	-1.149040e-09	-1.892223e+01	-7.943206e+01
1.250000e-06	-2.686857e-06	-1.143605e-09	-1.864166e+01	-7.894696e+01
1.260000e-06	-2.646148e-06	-1.134672e-09	-1.835921e+01	-7.845822e+01
1.270000e-06	-2.605294e-06	-1.126461e-09	-1.807576e+01	-7.796589e+01
1.280000e-06	-2.564253e-06	-1.118096e-09	-1.779102e+01	-7.747000e+01
1.290000e-06	-2.522774e-06	-1.107990e-09	-1.750323e+01	-7.697046e+01
1.300000e-06	-2.480837e-06	-1.096942e-09	-1.721227e+01	-7.646714e+01
1.310000e-06	-2.438584e-06	-1.087699e-09	-1.691911e+01	-7.595982e+01
1.320000e-06	-2.396058e-06	-1.078472e-09	-1.662406e+01	-7.544818e+01
1.330000e-06	-2.353284e-06	-1.071345e-09	-1.632729e+01	-7.493186e+01
1.340000e-06	-2.310236e-06	-1.063713e-09	-1.602862e+01	-7.441037e+01
1.350000e-06	-2.266988e-06	-1.056288e-09	-1.572856e+01	-7.388319e+01
1.360000e-06	-2.223566e-06	-1.049696e-09	-1.542730e+01	-7.334969e+01
1.370000e-06	-2.180026e-06	-1.041050e-09	-1.512521e+01	-7.280920e+01
1.380000e-06	-2.136427e-06	-1.029682e-09	-1.482272e+01	-7.226097e+01
1.390000e-06	-2.092730e-06	-1.016458e-09	-1.451955e+01	-7.170423e+01
1.400000e-06	-2.048947e-06	-1.004584e-09	-1.421578e+01	-7.113816e+01
1.410000e-06	-2.005087e-06	-9.936342e-10	-1.391147e+01	-7.056190e+01
1.420000e-06	-1.961170e-06	-9.826444e-10	-1.360677e+01	-6.997459e+01
1.430000e-06	-1.917174e-06	-9.718472e-10	-1.330152e+01	-6.937537e+01
1.440000e-06	-1.873058e-06	-9.627271e-10	-1.299544e+01	-6.876338e+01
1.450000e-06	-1.828873e-06	-9.520290e-10	-1.268888e+01	-6.813776e+01
1.460000e-06	-1.784501e-06	-9.408035e-10	-1.238102e+01	-6.749772e+01
1.470000e-06	-1.740018e-06	-9.288926e-10	-1.207240e+01	-6.684246e+01
1.480000e-06	-1.695475e-06	-9.172674e-10	-1.176335e+01	-6.617125e+01
1.490000e-06	-1.650728e-06	-9.046117e-10	-1.145290e+01	-6.548342e+01
1.500000e-06	-1.605746e-06	-8.899540e-10	-1.114081e+01	-6.477832e+01
1.510000e-06	-1.560615e-06	-8.740975e-10	-1.082768e+01	-6.405539e+01
1.520000e-06	-1.515484e-06	-8.604833e-10	-1.051456e+01	-6.331411e+01
1.530000e-06	-1.470237e-06	-8.478652e-10	-1.020064e+01	-6.255402e+01
1.540000e-06	-1.424803e-06	-8.373279e-10	-9.885408e+00	-6.177473e+01
1.550000e-06	-1.379233e-06	-8.258223e-10	-9.569238e+00	-6.097586e+01
1.560000e-06	-1.333569e-06	-8.112602e-10	-9.252423e+00	-6.015712e+01
1.570000e-06	-1.287893e-06	-7.960161e-10	-8.935514e+00	-5.931824e+01
1.580000e-06	-1.242133e-06	-7.814598e-10	-8.618029e+00	-5.845895e+01
1.590000e-06	-1.196227e-06	-7.664270e-10	-8.299531e+00	-5.757904e+01
1.600000e-06	-1.150248e-06	-7.516405e-10	-7.980523e+00	-5.667828e+01
1.610000e-06	-1.104224e-06	-7.382965e-10	-7.661206e+00	-5.575645e+01
1.620000e-06	-1.058159e-06	-7.283750e-10	-7.341598e+00	-5.481331e+01
1.630000e-06	-1.012062e-06	-7.178626e-10	-7.021776e+00	-5.384858e+01
1.640000e-06	-9.659314e-07	-7.052102e-10	-6.701718e+00	-5.286196e+01
1.650000e-06	-9.196858e-07	-6.889164e-10	-6.380862e+00	-5.185312e+01
1.660000e-06	-8.732805e-07	-6.694516e-10	-6.058898e+00	-5.082165e+01
1.670000e-06	-8.268029e-07	-6.485226e-10	-5.736432e+00	-4.976708e+01
1.680000e-06	-7.803104e-07	-6.296404e-10	-5.413863e+00	-4.868889e+01
1.690000e-06	-7.338156e-07	-6.145046e-10	-5.091278e+00	-4.758648e+01
1.700000e-06	-6.873007e-07	-5.990255e-10	-4.768553e+00	-4.645920e+01
1.710000e-06	-6.407081e-07	-5.852289e-10	-4.445290e+00	-4.530630e+01
1.720000e-06	-5.940399e-07	-5.735255e-10	-4.121502e+00	-4.412699e+01
1.730000e-06	-5.473938e-07	-5.582960e-10	-3.797867e+00	-4.292041e+01
1.740000e-06	-5.006948e-07	-5.351216e-10	-3.473865e+00	-4.168566e+01
1.750000e-06	-4.539044e-07	-5.096232e-10	-3.149229e+00	-4.042178e+01
1.760000e-06	-4.070964e-07	-4.845725e-10	-2.824471e+00	-3.912779e+01
1.770000e-06	-3.602344e-07	-4.628550e-10	-2.499338e+00	-3.780271e+01
1.780000e-06	-3.133316e-07	-4.465747e-10	-2.173923e+00	-3.644555e+01
1.790000e-06	-2.664815e-07	-4.328366e-10	-1.848872e+00	-3.505532e+01
1.800000e-06	-2.196517e-07	-4.166411e-10	-1.523963e+00	-3.363111e+01
1.810000e-06	-1.727131e-07	-3.980541e-10	-1.198299e+00	-3.217202e+01
1.820000e-06	-1.257421e-07	-3.764629e-10	-8.724096e-01	-3.067728e+01
1.830000e-06	-7.880010e-08	-3.529246e-10	-5.467221e-01	-2.914616e+01
1.840000e-06	-3.186326e-08	-3.288540e-10	-2.210701e-01	-2.757810e+01
1.850000e-06	1.509228e-08	-3.059573e-10	1.047116e-01	-2.597264e+01
1.860000e-06	6.207112e-08	-2.845100e-10	4.306550e-01	-2.432948e+01
1.870000e-06	1.090683e-07	-2.633073e-10	7.567257e-01	-2.264851e+01
1.880000e-06	1.560402e-07	-2.425279e-10	1.082621e+00	-2.092979e+01
1.890000e-06	2.029800e-07	-2.204619e-10	1.408294e+00	-1.917358e+01
1.900000e-06	2.498421e-07	-1.961057e-10	1.733427e+00	-1.738035e+01
1.910000e-06	2.966626e-07	-1.702951e-10	2.058271e+00	-1.555079e+01
1.920000e-06	3.435481e-07	-1.418659e-10	2.383567e+00	-1.368581e+01
1.930000e-06	3.904055e-07	-1.123766e-10	2.708668e+00	-1.178656e+01
1.940000e-06	4.372003e-07	-8.551881e-11	3.033335e+00	-9.854398e+00
1.950000e-06	4.839354e-07	-6.032461e-11	3.357587e+00	-7.890909e+00
1.960000e-06	5.306108e-07	-3.467324e-11	3.681425e+00	-5.897903e+00
1.970000e-06	5.772040e-07	-7.860166e-12	4.004693e+00	-3.877392e+00
1.980000e-06	6.237501e-07	1.925377e-11	4.327634e+00	-1.831586e+00
1.990000e-06	6.702618e-07	4.573829e-11	4.650336e+00	2.371207e-01
2.000000e-06	7.167428e-07	7.467561e-11	4.972825e+00	2.326170e+00
2.010000e-06	7.631905e-07	1.075298e-10	5.295084e+00	4.432854e+00
2.020000e-06	8.095555e-07	1.390651e-10	5.616768e+00	6.554338e+00
2.030000e-06	8.558150e-07	1.699792e-10	5.937721e+00	8.687683e+00
2.040000e-06	9.020372e-07	1.994373e-10	6.258414e+00	1.082986e+01
2.050000e-06	9.482099e-07	2.259645e-10	6.578765e+00	1.297780e+01
2.060000e-06	9.942432e-07	2.533695e-10	6.898148e+00	1.512838e+01
2.070000e-06	1.040250e-06	2.839098e-10	7.217347e+00	1.727847e+01
2.080000e-06	1.086241e-06	3.173460e-10	7.536435e+00	1.942496e+01
2.090000e-06	1.132121e-06	3.490091e-10	7.854756e+00	2.156477e+01
2.100000e-06	1.177877e-06	3.783362e-10	8.172214e+00	2.369489e+01
2.110000e-06	1.223635e-06	4.073514e-10	8.489687e+00	2.581240e+01
2.120000e-06	1.269332e-06	4.363210e-10	8.806740e+00	2.791444e+01
2.130000e-06	1.314840e-06	4.663891e-10	9.122475e+00	2.999833e+01
2.140000e-06	1.360325e-06	4.941146e-10	9.438059e+00	3.206147e+01
2.150000e-06	1.405762e-06	5.209945e-10	9.753300e+00	3.410146e+01
2.160000e-06	1.451061e-06	5.496556e-10	1.006759e+01	3.611603e+01
2.170000e-06	1.496278e-06	5.794347e-10	1.038131e+01	3.810309e+01
2.180000e-06	1.541396e-06	6.113724e-10	1.069434e+01	4.006075e+01
2.190000e-06	1.586411e-06	6.430353e-10	1.100666e+01	4.198729e+01
2.200000e-06	1.631214e-06	6.720070e-10	1.131751e+01	4.388117e+01
2.210000e-06	1.675821e-06	6.979636e-10	1.162699e+01	4.574106e+01
2.220000e-06	1.720330e-06	7.195300e-10	1.193580e+01	4.756583e+01
2.230000e-06	1.764853e-06	7.412600e-10	1.224471e+01	4.935449e+01
2.240000e-06	1.809367e-06	7.645562e-10	1.255355e+01	5.110628e+01
2.250000e-06	1.853597e-06	7.876038e-10	1.286042e+01	5.282059e+01
2.260000e-06	1.897620e-06	8.105450e-10	1.316585e+01	5.449697e+01
2.270000e-06	1.941612e-06	8.326124e-10	1.347108e+01	5.613515e+01
2.280000e-06	1.985581e-06	8.550258e-10	1.377614e+01	5.773497e+01
2.290000e-06	2.029451e-06	8.764652e-10	1.408051e+01	5.929644e+01
2.300000e-06	2.073272e-06	8.962347e-10	1.438455e+01	6.081967e+01
2.310000e-06	2.117067e-06	9.152971e-10	1.468840e+01	6.230488e+01
2.320000e-06	2.160761e-06	9.335520e-10	1.499155e+01	6.375239e+01
2.330000e-06	2.204335e-06	9.511729e-10	1.529387e+01	6.516261e+01
2.340000e-06	2.247752e-06	9.689394e-10	1.559511e+01	6.653601e+01
2.350000e-06	2.290958e-06	9.879467e-10	1.589487e+01	6.787313e+01
2.360000e-06	2.333997e-06	1.008154e-09	1.619348e+01	6.917453e+01
2.370000e-06	2.376904e-06	1.026102e-09	1.649117e+01	7.044084e+01
2.380000e-06	2.419492e-06	1.040651e-09	1.678665e+01	7.167270e+01
2.390000e-06	2.461733e-06	1.052528e-09	1.707973e+01	7.287076e+01
2.400000e-06	2.503780e-06	1.065559e-09	1.737145e+01	7.403569e+01
2.410000e-06	2.545520e-06	1.080786e-09	1.766105e+01	7.516815e+01
2.420000e-06	2.586781e-06	1.097171e-09	1.794732e+01	7.626881e+01
2.430000e-06	2.627687e-06	1.111986e-09	1.823113e+01	7.733830e+01
2.440000e-06	2.668498e-06	1.123965e-09	1.851428e+01	7.837728e+01
2.450000e-06	2.709169e-06	1.137475e-09	1.879645e+01	7.938634e+01
2.460000e-06	2.749555e-06	1.150749e-09	1.907666e+01	8.036609e+01
2.470000e-06	2.789693e-06	1.164960e-09	1.935514e+01	8.131710e+01
2.480000e-06	2.829626e-06	1.177578e-09	1.963220e+01	8.223992e+01
2.490000e-06	2.869452e-06	1.187965e-09	1.990851e+01	8.313509e+01
2.500000e-06	2.909190e-06	1.199090e-09	2.018422e+01	8.400310e+01
2.510000e-06	2.948752e-06	1.210871e-09	2.045870e+01	8.484446e+01
2.520000e-06	2.988132e-06	1.223117e-09	2.073192e+01	8.565965e+01
2.530000e-06	3.027353e-06	1.233471e-09	2.100405e+01	8.644913e+01
2.540000e-06	3.066408e-06	1.244421e-09	2.127501e+01	8.721336e+01
2.550000e-06	3.105290e-06	1.255466e-09	2.154478e+01	8.795279e+01
2.560000e-06	3.143863e-06	1.265200e-09	2.181241e+01	8.866788e+01
2.570000e-06	3.182152e-06	1.273335e-09	2.207806e+01	8.935909e+01
2.580000e-06	3.220259e-06	1.281438e-09	2.234244e+01	9.002689e+01
2.590000e-06	3.258136e-06	1.290293e-09	2.260524e+01	9.067174e+01
2.600000e-06	3.295865e-06	1.299116e-09	2.286700e+01	9.129415e+01
2.610000e-06	3.333401e-06	1.310175e-09	2.312743e+01	9.189463e+01
2.620000e-06	3.370699e-06	1.320256e-09	2.338621e+01	9.247371e+01
2.630000e-06	3.407769e-06	1.327017e-09	2.364340e+01	9.303196e+01
2.640000e-06	3.444550e-06	1.334441e-09	2.389860e+01	9.356997e+01
2.650000e-06	3.481085e-06	1.343052e-09	2.415208e+01	9.408835e+01
2.660000e-06	3.517412e-06	1.352832e-09	2.440412e+01	9.458775e+01
2.670000e-06	3.553533e-06	1.362001e-09	2.465473e+01	9.506887e+01
2.680000e-06	3.589502e-06	1.371474e-09	2.490428e+01	9.553239e+01
2.690000e-06	3.625334e-06	1.378432e-09	2.515289e+01	9.597908e+01
2.700000e-06	3.660963e-06	1.383580e-09	2.540009e+01	9.640970e+01
2.710000e-06	3.696439e-06	1.388871e-09	2.564622e+01	9.682505e+01
2.720000e-06	3.731733e-06	1.394904e-09	2.589109e+01	9.722593e+01
2.730000e-06	3.766729e-06	1.402703e-09	2.613390e+01	9.761321e+01
2.740000e-06	3.801294e-06	1.410960e-09	2.637372e+01	9.798771e+01
2.750000e-06	3.835326e-06	1.420641e-09	2.660984e+01	9.835032e+01
2.760000e-06	3.868960e-06	1.427523e-09	2.684319e+01	9.870188e+01
2.770000e-06	3.902165e-06	1.432351e-09	2.707357e+01	9.904326e+01
2.780000e-06	3.934881e-06	1.437495e-09	2.730055e+01	9.937532e+01
2.790000e-06	3.967228e-06	1.442736e-09	2.752498e+01	9.969888e+01
2.800000e-06	3.999296e-06	1.449788e-09	2.774747e+01	1.000148e+02
2.810000e-06	4.031177e-06	1.458053e-09	2.796866e+01	1.003237e+02
2.820000e-06	4.062911e-06	1.464029e-09	2.818884e+01	1.006266e+02
2.830000e-06	4.094533e-06	1.468679e-09	2.840824e+01	1.009239e+02
2.840000e-06	4.125937e-06	1.472927e-09	2.862612e+01	1.012164e+02
2.850000e-06	4.157016e-06	1.476298e-09	2.884175e+01	1.015047e+02
2.860000e-06	4.187754e-06	1.476974e-09	2.905501e+01	1.017892e+02
2.870000e-06	4.218172e-06	1.479548e-09	2.926605e+01	1.020704e+02
2.880000e-06	4.248291e-06	1.485786e-09	2.947502e+01	1.023487e+02
2.890000e-06	4.278134e-06	1.491470e-09	2.968208e+01	1.026243e+02
2.900000e-06	4.307744e-06	1.498492e-09	2.988751e+01	1.028975e+02
