# Temperatura_=_-21.55
# Concentracion g/m^3_=_1620.0
# C_Vs_to_Am_M_A/Vsm_=_65563218390.804596
# pendiente_HvsI_1/m_=_3716.3
# ordenada_HvsI_A/m_=_1297.0
# frecuencia_Hz_=_135106.50905602478

Tiempo_(s)	Campo_(V.s)	Magnetizacion_(V.s)	Campo_(kA/m)	Magnetizacion_(A/m)
0.000000e+00	-5.510618e-06	-8.437055e-10	-3.837225e+01	-5.480004e+01
1.000000e-08	-5.510801e-06	-8.392855e-10	-3.837352e+01	-5.480722e+01
2.000000e-08	-5.510750e-06	-8.350179e-10	-3.837317e+01	-5.482200e+01
3.000000e-08	-5.510261e-06	-8.346801e-10	-3.836976e+01	-5.484432e+01
4.000000e-08	-5.509233e-06	-8.406726e-10	-3.836260e+01	-5.487403e+01
5.000000e-08	-5.507633e-06	-8.532882e-10	-3.835146e+01	-5.491083e+01
6.000000e-08	-5.505436e-06	-8.515954e-10	-3.833617e+01	-5.495433e+01
7.000000e-08	-5.502607e-06	-8.098149e-10	-3.831647e+01	-5.500404e+01
8.000000e-08	-5.499276e-06	-7.649385e-10	-3.829327e+01	-5.505935e+01
9.000000e-08	-5.495629e-06	-8.344054e-10	-3.826787e+01	-5.511955e+01
1.000000e-07	-5.491623e-06	-9.434876e-10	-3.823998e+01	-5.518386e+01
1.100000e-07	-5.487152e-06	-8.708003e-10	-3.820885e+01	-5.525142e+01
1.200000e-07	-5.482458e-06	-7.135854e-10	-3.817617e+01	-5.532131e+01
1.300000e-07	-5.477735e-06	-7.649619e-10	-3.814328e+01	-5.539256e+01
1.400000e-07	-5.472665e-06	-9.017626e-10	-3.810797e+01	-5.546417e+01
1.500000e-07	-5.467091e-06	-9.060696e-10	-3.806916e+01	-5.553514e+01
1.600000e-07	-5.461108e-06	-7.176469e-10	-3.802749e+01	-5.560447e+01
1.700000e-07	-5.454783e-06	-7.605223e-10	-3.798345e+01	-5.567116e+01
1.800000e-07	-5.447988e-06	-8.987381e-10	-3.793614e+01	-5.573428e+01
1.900000e-07	-5.440751e-06	-9.212307e-10	-3.788574e+01	-5.579293e+01
2.000000e-07	-5.433290e-06	-7.744707e-10	-3.783379e+01	-5.584630e+01
2.100000e-07	-5.425595e-06	-7.582668e-10	-3.778020e+01	-5.589363e+01
2.200000e-07	-5.417551e-06	-8.483437e-10	-3.772419e+01	-5.593429e+01
2.300000e-07	-5.409214e-06	-8.649046e-10	-3.766614e+01	-5.596773e+01
2.400000e-07	-5.400479e-06	-7.961881e-10	-3.760532e+01	-5.599354e+01
2.500000e-07	-5.391042e-06	-7.765710e-10	-3.753960e+01	-5.601141e+01
2.600000e-07	-5.380807e-06	-8.397118e-10	-3.746833e+01	-5.602117e+01
2.700000e-07	-5.370063e-06	-8.372716e-10	-3.739352e+01	-5.602276e+01
2.800000e-07	-5.358920e-06	-8.025888e-10	-3.731592e+01	-5.601627e+01
2.900000e-07	-5.347322e-06	-7.791077e-10	-3.723517e+01	-5.600191e+01
3.000000e-07	-5.335414e-06	-8.437744e-10	-3.715224e+01	-5.597999e+01
3.100000e-07	-5.323169e-06	-8.370416e-10	-3.706698e+01	-5.595096e+01
3.200000e-07	-5.310413e-06	-8.098505e-10	-3.697816e+01	-5.591536e+01
3.300000e-07	-5.297163e-06	-7.754323e-10	-3.688589e+01	-5.587384e+01
3.400000e-07	-5.283618e-06	-8.509402e-10	-3.679158e+01	-5.582711e+01
3.500000e-07	-5.269678e-06	-8.388318e-10	-3.669450e+01	-5.577598e+01
3.600000e-07	-5.255137e-06	-7.970217e-10	-3.659325e+01	-5.572128e+01
3.700000e-07	-5.240069e-06	-8.051502e-10	-3.648832e+01	-5.566391e+01
3.800000e-07	-5.224720e-06	-8.698805e-10	-3.638144e+01	-5.560478e+01
3.900000e-07	-5.208795e-06	-7.935596e-10	-3.627056e+01	-5.554481e+01
4.000000e-07	-5.192225e-06	-7.677223e-10	-3.615518e+01	-5.548492e+01
4.100000e-07	-5.175375e-06	-8.631490e-10	-3.603784e+01	-5.542600e+01
4.200000e-07	-5.158222e-06	-8.647905e-10	-3.591840e+01	-5.536892e+01
4.300000e-07	-5.140716e-06	-7.482752e-10	-3.579650e+01	-5.531449e+01
4.400000e-07	-5.122964e-06	-8.129721e-10	-3.567288e+01	-5.526346e+01
4.500000e-07	-5.104860e-06	-9.049103e-10	-3.554682e+01	-5.521650e+01
4.600000e-07	-5.086232e-06	-7.924054e-10	-3.541711e+01	-5.517424e+01
4.700000e-07	-5.067200e-06	-7.500606e-10	-3.528458e+01	-5.513717e+01
4.800000e-07	-5.047952e-06	-8.708018e-10	-3.515055e+01	-5.510574e+01
4.900000e-07	-5.028497e-06	-8.423844e-10	-3.501508e+01	-5.508026e+01
5.000000e-07	-5.008771e-06	-7.531237e-10	-3.487772e+01	-5.506097e+01
5.100000e-07	-4.988795e-06	-8.497229e-10	-3.473863e+01	-5.504800e+01
5.200000e-07	-4.968548e-06	-8.662975e-10	-3.459764e+01	-5.504140e+01
5.300000e-07	-4.947893e-06	-7.533093e-10	-3.445381e+01	-5.504113e+01
5.400000e-07	-4.926887e-06	-8.034055e-10	-3.430754e+01	-5.504703e+01
5.500000e-07	-4.905567e-06	-9.000138e-10	-3.415908e+01	-5.505891e+01
5.600000e-07	-4.883872e-06	-7.946920e-10	-3.400801e+01	-5.507647e+01
5.700000e-07	-4.861875e-06	-7.710054e-10	-3.385484e+01	-5.509937e+01
5.800000e-07	-4.839587e-06	-8.685305e-10	-3.369964e+01	-5.512720e+01
5.900000e-07	-4.816900e-06	-8.360906e-10	-3.354166e+01	-5.515952e+01
6.000000e-07	-4.793885e-06	-7.646917e-10	-3.338140e+01	-5.519585e+01
6.100000e-07	-4.770649e-06	-8.435443e-10	-3.321960e+01	-5.523569e+01
6.200000e-07	-4.747143e-06	-8.475221e-10	-3.305592e+01	-5.527852e+01
6.300000e-07	-4.723412e-06	-7.886122e-10	-3.289068e+01	-5.532383e+01
6.400000e-07	-4.699402e-06	-8.216092e-10	-3.272349e+01	-5.537110e+01
6.500000e-07	-4.674959e-06	-8.557554e-10	-3.255328e+01	-5.541985e+01
6.600000e-07	-4.650067e-06	-8.046354e-10	-3.237995e+01	-5.546959e+01
6.700000e-07	-4.624701e-06	-8.202107e-10	-3.220331e+01	-5.551988e+01
6.800000e-07	-4.598765e-06	-8.491848e-10	-3.202272e+01	-5.557031e+01
6.900000e-07	-4.572275e-06	-8.178656e-10	-3.183825e+01	-5.562052e+01
7.000000e-07	-4.545352e-06	-8.085302e-10	-3.165078e+01	-5.567018e+01
7.100000e-07	-4.518128e-06	-8.424103e-10	-3.146122e+01	-5.571900e+01
7.200000e-07	-4.490686e-06	-8.274530e-10	-3.127013e+01	-5.576676e+01
7.300000e-07	-4.463069e-06	-8.189243e-10	-3.107782e+01	-5.581325e+01
7.400000e-07	-4.435217e-06	-8.395564e-10	-3.088388e+01	-5.585833e+01
7.500000e-07	-4.407143e-06	-8.330275e-10	-3.068839e+01	-5.590190e+01
7.600000e-07	-4.378795e-06	-8.159646e-10	-3.049099e+01	-5.594389e+01
7.700000e-07	-4.350123e-06	-8.271239e-10	-3.029134e+01	-5.598427e+01
7.800000e-07	-4.321141e-06	-8.237010e-10	-3.008953e+01	-5.602304e+01
7.900000e-07	-4.291823e-06	-8.098348e-10	-2.988538e+01	-5.606022e+01
8.000000e-07	-4.262153e-06	-8.254848e-10	-2.967878e+01	-5.609585e+01
8.100000e-07	-4.232252e-06	-8.328290e-10	-2.947056e+01	-5.613001e+01
8.200000e-07	-4.202170e-06	-8.167832e-10	-2.926109e+01	-5.616275e+01
8.300000e-07	-4.171800e-06	-8.156128e-10	-2.904962e+01	-5.619415e+01
8.400000e-07	-4.141064e-06	-8.315091e-10	-2.883560e+01	-5.622429e+01
8.500000e-07	-4.109943e-06	-8.179544e-10	-2.861889e+01	-5.625323e+01
8.600000e-07	-4.078631e-06	-8.124237e-10	-2.840085e+01	-5.628104e+01
8.700000e-07	-4.047233e-06	-8.201111e-10	-2.818222e+01	-5.630776e+01
8.800000e-07	-4.015659e-06	-8.184101e-10	-2.796235e+01	-5.633343e+01
8.900000e-07	-3.983878e-06	-8.031791e-10	-2.774105e+01	-5.635807e+01
9.000000e-07	-3.951845e-06	-8.150734e-10	-2.751800e+01	-5.638169e+01
9.100000e-07	-3.919476e-06	-8.208667e-10	-2.729260e+01	-5.640426e+01
9.200000e-07	-3.886709e-06	-8.120343e-10	-2.706443e+01	-5.642574e+01
9.300000e-07	-3.853476e-06	-8.135609e-10	-2.683302e+01	-5.644610e+01
9.400000e-07	-3.819720e-06	-8.246162e-10	-2.659797e+01	-5.646527e+01
9.500000e-07	-3.785457e-06	-8.117698e-10	-2.635938e+01	-5.648316e+01
9.600000e-07	-3.750853e-06	-8.041320e-10	-2.611842e+01	-5.649969e+01
9.700000e-07	-3.715929e-06	-8.116111e-10	-2.587524e+01	-5.651477e+01
9.800000e-07	-3.680690e-06	-8.139892e-10	-2.562985e+01	-5.652829e+01
9.900000e-07	-3.645239e-06	-8.053108e-10	-2.538300e+01	-5.654016e+01
1.000000e-06	-3.609645e-06	-8.125555e-10	-2.513515e+01	-5.655028e+01
1.010000e-06	-3.573968e-06	-8.185258e-10	-2.488672e+01	-5.655855e+01
1.020000e-06	-3.538159e-06	-8.121224e-10	-2.463737e+01	-5.656491e+01
1.030000e-06	-3.502191e-06	-8.102682e-10	-2.438691e+01	-5.656928e+01
1.040000e-06	-3.466007e-06	-8.162574e-10	-2.413495e+01	-5.657161e+01
1.050000e-06	-3.429610e-06	-8.125211e-10	-2.388151e+01	-5.657187e+01
1.060000e-06	-3.392971e-06	-8.096494e-10	-2.362637e+01	-5.657004e+01
1.070000e-06	-3.355960e-06	-8.179694e-10	-2.336866e+01	-5.656613e+01
1.080000e-06	-3.318627e-06	-8.173536e-10	-2.310870e+01	-5.656016e+01
1.090000e-06	-3.281055e-06	-8.107349e-10	-2.284707e+01	-5.655218e+01
1.100000e-06	-3.243258e-06	-8.117363e-10	-2.258387e+01	-5.654227e+01
1.110000e-06	-3.205233e-06	-8.132623e-10	-2.231909e+01	-5.653051e+01
1.120000e-06	-3.167004e-06	-8.059068e-10	-2.205289e+01	-5.651700e+01
1.130000e-06	-3.128623e-06	-8.068338e-10	-2.178563e+01	-5.650186e+01
1.140000e-06	-3.090046e-06	-8.130447e-10	-2.151701e+01	-5.648522e+01
1.150000e-06	-3.051168e-06	-8.164931e-10	-2.124629e+01	-5.646723e+01
1.160000e-06	-3.012067e-06	-8.155652e-10	-2.097401e+01	-5.644803e+01
1.170000e-06	-2.972864e-06	-8.179809e-10	-2.070104e+01	-5.642775e+01
1.180000e-06	-2.933503e-06	-8.164735e-10	-2.042695e+01	-5.640655e+01
1.190000e-06	-2.893947e-06	-8.158045e-10	-2.015150e+01	-5.638455e+01
1.200000e-06	-2.854281e-06	-8.151802e-10	-1.987530e+01	-5.636187e+01
1.210000e-06	-2.814528e-06	-8.161389e-10	-1.959849e+01	-5.633862e+01
1.220000e-06	-2.774633e-06	-8.154062e-10	-1.932068e+01	-5.631487e+01
1.230000e-06	-2.734543e-06	-8.197559e-10	-1.904153e+01	-5.629069e+01
1.240000e-06	-2.694303e-06	-8.214109e-10	-1.876132e+01	-5.626610e+01
1.250000e-06	-2.653921e-06	-8.209688e-10	-1.848013e+01	-5.624109e+01
1.260000e-06	-2.613294e-06	-8.193025e-10	-1.819723e+01	-5.621563e+01
1.270000e-06	-2.572342e-06	-8.187618e-10	-1.791207e+01	-5.618964e+01
1.280000e-06	-2.531126e-06	-8.148716e-10	-1.762506e+01	-5.616300e+01
1.290000e-06	-2.489637e-06	-8.106116e-10	-1.733616e+01	-5.613556e+01
1.300000e-06	-2.447780e-06	-8.098200e-10	-1.704470e+01	-5.610711e+01
1.310000e-06	-2.405581e-06	-8.100665e-10	-1.675085e+01	-5.607743e+01
1.320000e-06	-2.363063e-06	-8.101334e-10	-1.645478e+01	-5.604623e+01
1.330000e-06	-2.320332e-06	-8.123936e-10	-1.615723e+01	-5.601318e+01
1.340000e-06	-2.277416e-06	-8.144465e-10	-1.585840e+01	-5.597793e+01
1.350000e-06	-2.234234e-06	-8.138013e-10	-1.555771e+01	-5.594009e+01
1.360000e-06	-2.190881e-06	-8.122165e-10	-1.525583e+01	-5.589921e+01
1.370000e-06	-2.147401e-06	-8.090959e-10	-1.495306e+01	-5.585483e+01
1.380000e-06	-2.103816e-06	-8.045484e-10	-1.464956e+01	-5.580646e+01
1.390000e-06	-2.060191e-06	-7.987392e-10	-1.434579e+01	-5.575357e+01
1.400000e-06	-2.016501e-06	-7.963703e-10	-1.404156e+01	-5.569561e+01
1.410000e-06	-1.972719e-06	-7.935983e-10	-1.373669e+01	-5.563201e+01
1.420000e-06	-1.928863e-06	-7.926425e-10	-1.343131e+01	-5.556218e+01
1.430000e-06	-1.884956e-06	-7.955420e-10	-1.312557e+01	-5.548552e+01
1.440000e-06	-1.840932e-06	-7.997466e-10	-1.281901e+01	-5.540142e+01
1.450000e-06	-1.796807e-06	-7.956911e-10	-1.251176e+01	-5.530923e+01
1.460000e-06	-1.752647e-06	-7.870856e-10	-1.220426e+01	-5.520834e+01
1.470000e-06	-1.708336e-06	-7.787985e-10	-1.189571e+01	-5.509809e+01
1.480000e-06	-1.663770e-06	-7.731564e-10	-1.158538e+01	-5.497785e+01
1.490000e-06	-1.619056e-06	-7.674614e-10	-1.127402e+01	-5.484697e+01
1.500000e-06	-1.574248e-06	-7.642413e-10	-1.096201e+01	-5.470480e+01
1.510000e-06	-1.529255e-06	-7.629176e-10	-1.064871e+01	-5.455071e+01
1.520000e-06	-1.484123e-06	-7.618112e-10	-1.033444e+01	-5.438404e+01
1.530000e-06	-1.438889e-06	-7.602437e-10	-1.001946e+01	-5.420415e+01
1.540000e-06	-1.393575e-06	-7.578752e-10	-9.703922e+00	-5.401042e+01
1.550000e-06	-1.348216e-06	-7.518362e-10	-9.388071e+00	-5.380219e+01
1.560000e-06	-1.302760e-06	-7.438895e-10	-9.071547e+00	-5.357883e+01
1.570000e-06	-1.257196e-06	-7.372914e-10	-8.754272e+00	-5.333972e+01
1.580000e-06	-1.211584e-06	-7.312814e-10	-8.436661e+00	-5.308420e+01
1.590000e-06	-1.165921e-06	-7.281911e-10	-8.118689e+00	-5.281166e+01
1.600000e-06	-1.120150e-06	-7.264809e-10	-7.799977e+00	-5.252144e+01
1.610000e-06	-1.074303e-06	-7.234779e-10	-7.480728e+00	-5.221292e+01
1.620000e-06	-1.028357e-06	-7.202593e-10	-7.160791e+00	-5.188545e+01
1.630000e-06	-9.823042e-07	-7.174091e-10	-6.840108e+00	-5.153837e+01
1.640000e-06	-9.362086e-07	-7.117719e-10	-6.519129e+00	-5.117105e+01
1.650000e-06	-8.900862e-07	-7.031086e-10	-6.197964e+00	-5.078282e+01
1.660000e-06	-8.439101e-07	-6.948348e-10	-5.876424e+00	-5.037301e+01
1.670000e-06	-7.976291e-07	-6.867768e-10	-5.554154e+00	-4.994096e+01
1.680000e-06	-7.512015e-07	-6.790315e-10	-5.230864e+00	-4.948599e+01
1.690000e-06	-7.047925e-07	-6.728361e-10	-4.907703e+00	-4.900741e+01
1.700000e-06	-6.584064e-07	-6.676140e-10	-4.584700e+00	-4.850455e+01
1.710000e-06	-6.119673e-07	-6.621808e-10	-4.261330e+00	-4.797671e+01
1.720000e-06	-5.655871e-07	-6.531277e-10	-3.938369e+00	-4.742319e+01
1.730000e-06	-5.191058e-07	-6.417529e-10	-3.614705e+00	-4.684332e+01
1.740000e-06	-4.724897e-07	-6.282186e-10	-3.290101e+00	-4.623638e+01
1.750000e-06	-4.258843e-07	-6.152409e-10	-2.965573e+00	-4.560172e+01
1.760000e-06	-3.792662e-07	-6.051607e-10	-2.640956e+00	-4.493864e+01
1.770000e-06	-3.325873e-07	-5.973310e-10	-2.315915e+00	-4.424649e+01
1.780000e-06	-2.858669e-07	-5.902213e-10	-1.990585e+00	-4.352463e+01
1.790000e-06	-2.391118e-07	-5.810959e-10	-1.665014e+00	-4.277242e+01
1.800000e-06	-1.923138e-07	-5.695125e-10	-1.339144e+00	-4.198929e+01
1.810000e-06	-1.455515e-07	-5.552860e-10	-1.013523e+00	-4.117466e+01
1.820000e-06	-9.880491e-08	-5.400946e-10	-6.880112e-01	-4.032802e+01
1.830000e-06	-5.205413e-08	-5.270744e-10	-3.624701e-01	-3.944888e+01
1.840000e-06	-5.275149e-09	-5.186731e-10	-3.673260e-02	-3.853683e+01
1.850000e-06	4.150554e-08	-5.115720e-10	2.890168e-01	-3.759149e+01
1.860000e-06	8.825992e-08	-5.013374e-10	6.145829e-01	-3.661257e+01
1.870000e-06	1.350702e-07	-4.878251e-10	9.405383e-01	-3.559984e+01
1.880000e-06	1.818646e-07	-4.702245e-10	1.266383e+00	-3.455314e+01
1.890000e-06	2.286063e-07	-4.496632e-10	1.591861e+00	-3.347242e+01
1.900000e-06	2.753693e-07	-4.293115e-10	1.917487e+00	-3.235771e+01
1.910000e-06	3.221765e-07	-4.126599e-10	2.243421e+00	-3.120913e+01
1.920000e-06	3.689697e-07	-3.996271e-10	2.569258e+00	-3.002693e+01
1.930000e-06	4.156615e-07	-3.887783e-10	2.894388e+00	-2.881146e+01
1.940000e-06	4.622559e-07	-3.769178e-10	3.218840e+00	-2.756317e+01
1.950000e-06	5.087511e-07	-3.608814e-10	3.542601e+00	-2.628267e+01
1.960000e-06	5.552355e-07	-3.419720e-10	3.866288e+00	-2.497065e+01
1.970000e-06	6.017449e-07	-3.210324e-10	4.190148e+00	-2.362797e+01
1.980000e-06	6.480873e-07	-2.997589e-10	4.512845e+00	-2.225559e+01
1.990000e-06	6.943635e-07	-2.783411e-10	4.835082e+00	-2.085463e+01
2.000000e-06	7.406566e-07	-2.569974e-10	5.157436e+00	-1.942630e+01
2.010000e-06	7.868442e-07	-2.383172e-10	5.479056e+00	-1.797199e+01
2.020000e-06	8.329487e-07	-2.212916e-10	5.800096e+00	-1.649318e+01
2.030000e-06	8.790341e-07	-2.031998e-10	6.121004e+00	-1.499150e+01
2.040000e-06	9.250205e-07	-1.838562e-10	6.441223e+00	-1.346868e+01
2.050000e-06	9.709120e-07	-1.620051e-10	6.760780e+00	-1.192657e+01
2.060000e-06	1.016879e-06	-1.360019e-10	7.080864e+00	-1.036713e+01
2.070000e-06	1.062781e-06	-1.094763e-10	7.400496e+00	-8.792428e+00
2.080000e-06	1.108506e-06	-8.461645e-11	7.718891e+00	-7.204594e+00
2.090000e-06	1.154191e-06	-6.175072e-11	8.037011e+00	-5.605854e+00
2.100000e-06	1.199847e-06	-4.080669e-11	8.354933e+00	-3.998492e+00
2.110000e-06	1.245455e-06	-2.094419e-11	8.672510e+00	-2.384848e+00
2.120000e-06	1.290941e-06	5.209206e-14	8.989249e+00	-7.672986e-01
2.130000e-06	1.336333e-06	2.216367e-11	9.305330e+00	8.517551e-01
2.140000e-06	1.381684e-06	4.348159e-11	9.621121e+00	2.469902e+00
2.150000e-06	1.426905e-06	6.514466e-11	9.936012e+00	4.084735e+00
2.160000e-06	1.471988e-06	8.828899e-11	1.024993e+01	5.693870e+00
2.170000e-06	1.516960e-06	1.117179e-10	1.056310e+01	7.294956e+00
2.180000e-06	1.561820e-06	1.348719e-10	1.087546e+01	8.885693e+00
2.190000e-06	1.606516e-06	1.578351e-10	1.118670e+01	1.046385e+01
2.200000e-06	1.651121e-06	1.816941e-10	1.149730e+01	1.202726e+01
2.210000e-06	1.695642e-06	2.062467e-10	1.180731e+01	1.357386e+01
2.220000e-06	1.739970e-06	2.295286e-10	1.211599e+01	1.510170e+01
2.230000e-06	1.784128e-06	2.487437e-10	1.242347e+01	1.660892e+01
2.240000e-06	1.828208e-06	2.637942e-10	1.273041e+01	1.809379e+01
2.250000e-06	1.872181e-06	2.796151e-10	1.303661e+01	1.955473e+01
2.260000e-06	1.916033e-06	2.993712e-10	1.334197e+01	2.099028e+01
2.270000e-06	1.959818e-06	3.214768e-10	1.364686e+01	2.239911e+01
2.280000e-06	2.003527e-06	3.425585e-10	1.395122e+01	2.378007e+01
2.290000e-06	2.047180e-06	3.606431e-10	1.425519e+01	2.513213e+01
2.300000e-06	2.090775e-06	3.770769e-10	1.455876e+01	2.645441e+01
2.310000e-06	2.134332e-06	3.938990e-10	1.486206e+01	2.774619e+01
2.320000e-06	2.177824e-06	4.102723e-10	1.516491e+01	2.900686e+01
2.330000e-06	2.221167e-06	4.258406e-10	1.546672e+01	3.023596e+01
2.340000e-06	2.264391e-06	4.418914e-10	1.576770e+01	3.143317e+01
2.350000e-06	2.307413e-06	4.587918e-10	1.606728e+01	3.259828e+01
2.360000e-06	2.350165e-06	4.756439e-10	1.636497e+01	3.373117e+01
2.370000e-06	2.392680e-06	4.923096e-10	1.666102e+01	3.483185e+01
2.380000e-06	2.434883e-06	5.061895e-10	1.695490e+01	3.590042e+01
2.390000e-06	2.476870e-06	5.187185e-10	1.724726e+01	3.693702e+01
2.400000e-06	2.518569e-06	5.328086e-10	1.753763e+01	3.794189e+01
2.410000e-06	2.559823e-06	5.483316e-10	1.782489e+01	3.891531e+01
2.420000e-06	2.600735e-06	5.621982e-10	1.810977e+01	3.985762e+01
2.430000e-06	2.641423e-06	5.727671e-10	1.839310e+01	4.076918e+01
2.440000e-06	2.681875e-06	5.813506e-10	1.867478e+01	4.165035e+01
2.450000e-06	2.722091e-06	5.896712e-10	1.895482e+01	4.250153e+01
2.460000e-06	2.762132e-06	5.996331e-10	1.923363e+01	4.332313e+01
2.470000e-06	2.802013e-06	6.110369e-10	1.951134e+01	4.411552e+01
2.480000e-06	2.841801e-06	6.214768e-10	1.978840e+01	4.487908e+01
2.490000e-06	2.881480e-06	6.308663e-10	2.006470e+01	4.561419e+01
2.500000e-06	2.921036e-06	6.413214e-10	2.034014e+01	4.632118e+01
2.510000e-06	2.960416e-06	6.516414e-10	2.061435e+01	4.700039e+01
2.520000e-06	2.999579e-06	6.592810e-10	2.088706e+01	4.765211e+01
2.530000e-06	3.038560e-06	6.625187e-10	2.115849e+01	4.827664e+01
2.540000e-06	3.077271e-06	6.653974e-10	2.142805e+01	4.887425e+01
2.550000e-06	3.115705e-06	6.710885e-10	2.169568e+01	4.944520e+01
2.560000e-06	3.153910e-06	6.779754e-10	2.196171e+01	4.998974e+01
2.570000e-06	3.191880e-06	6.858557e-10	2.222611e+01	5.050814e+01
2.580000e-06	3.229718e-06	6.924386e-10	2.248959e+01	5.100064e+01
2.590000e-06	3.267450e-06	6.967687e-10	2.275233e+01	5.146753e+01
2.600000e-06	3.304997e-06	7.019463e-10	2.301378e+01	5.190911e+01
2.610000e-06	3.342280e-06	7.082807e-10	2.327340e+01	5.232572e+01
2.620000e-06	3.379331e-06	7.143481e-10	2.353139e+01	5.271771e+01
2.630000e-06	3.416166e-06	7.193228e-10	2.378789e+01	5.308553e+01
2.640000e-06	3.452747e-06	7.243250e-10	2.404262e+01	5.342963e+01
2.650000e-06	3.489093e-06	7.290317e-10	2.429570e+01	5.375056e+01
2.660000e-06	3.525188e-06	7.328872e-10	2.454705e+01	5.404892e+01
2.670000e-06	3.561068e-06	7.368907e-10	2.479689e+01	5.432539e+01
2.680000e-06	3.596815e-06	7.413435e-10	2.504581e+01	5.458071e+01
2.690000e-06	3.632434e-06	7.458918e-10	2.529384e+01	5.481570e+01
2.700000e-06	3.667879e-06	7.502445e-10	2.554065e+01	5.503126e+01
2.710000e-06	3.703139e-06	7.541005e-10	2.578618e+01	5.522836e+01
2.720000e-06	3.738163e-06	7.573120e-10	2.603006e+01	5.540803e+01
2.730000e-06	3.772857e-06	7.605284e-10	2.627165e+01	5.557137e+01
2.740000e-06	3.807148e-06	7.659866e-10	2.651043e+01	5.571953e+01
2.750000e-06	3.840929e-06	7.711487e-10	2.674566e+01	5.585372e+01
2.760000e-06	3.874272e-06	7.743499e-10	2.697783e+01	5.597515e+01
2.770000e-06	3.907253e-06	7.757952e-10	2.720749e+01	5.608510e+01
2.780000e-06	3.939768e-06	7.779790e-10	2.743390e+01	5.618483e+01
2.790000e-06	3.971852e-06	7.820160e-10	2.765732e+01	5.627560e+01
2.800000e-06	4.003700e-06	7.865124e-10	2.787908e+01	5.635867e+01
2.810000e-06	4.035415e-06	7.895873e-10	2.809992e+01	5.643525e+01
2.820000e-06	4.066959e-06	7.914915e-10	2.831957e+01	5.650652e+01
2.830000e-06	4.098342e-06	7.936083e-10	2.853811e+01	5.657359e+01
2.840000e-06	4.129541e-06	7.931502e-10	2.875536e+01	5.663750e+01
2.850000e-06	4.160458e-06	7.896121e-10	2.897064e+01	5.669922e+01
2.860000e-06	4.191061e-06	7.868943e-10	2.918374e+01	5.675961e+01
2.870000e-06	4.221348e-06	7.889040e-10	2.939464e+01	5.681941e+01
2.880000e-06	4.251278e-06	7.932076e-10	2.960305e+01	5.687928e+01
2.890000e-06	4.280891e-06	7.963168e-10	2.980925e+01	5.693973e+01
2.900000e-06	4.310273e-06	7.958335e-10	3.001385e+01	5.700116e+01
