# Temperatura_=_-2.29
# Concentracion g/m^3_=_1620.0
# C_Vs_to_Am_M_A/Vsm_=_65563218390.804596
# pendiente_HvsI_1/m_=_3716.3
# ordenada_HvsI_A/m_=_1297.0
# frecuencia_Hz_=_135099.10560127455

Tiempo_(s)	Campo_(V.s)	Magnetizacion_(V.s)	Campo_(kA/m)	Magnetizacion_(A/m)
0.000000e+00	-5.524327e-06	-1.394119e-09	-3.837932e+01	-9.034471e+01
1.000000e-08	-5.524426e-06	-1.390765e-09	-3.838001e+01	-9.028285e+01
2.000000e-08	-5.524256e-06	-1.389150e-09	-3.837883e+01	-9.021983e+01
3.000000e-08	-5.523654e-06	-1.388745e-09	-3.837464e+01	-9.015618e+01
4.000000e-08	-5.522538e-06	-1.391029e-09	-3.836689e+01	-9.009243e+01
5.000000e-08	-5.520888e-06	-1.391179e-09	-3.835543e+01	-9.002914e+01
6.000000e-08	-5.518720e-06	-1.384482e-09	-3.834037e+01	-8.996684e+01
7.000000e-08	-5.516062e-06	-1.374759e-09	-3.832190e+01	-8.990606e+01
8.000000e-08	-5.512847e-06	-1.385361e-09	-3.829956e+01	-8.984728e+01
9.000000e-08	-5.509034e-06	-1.431800e-09	-3.827308e+01	-8.979094e+01
1.000000e-07	-5.504808e-06	-1.460706e-09	-3.824371e+01	-8.973742e+01
1.100000e-07	-5.500355e-06	-1.392398e-09	-3.821278e+01	-8.968702e+01
1.200000e-07	-5.495697e-06	-1.286429e-09	-3.818042e+01	-8.963999e+01
1.300000e-07	-5.490783e-06	-1.327405e-09	-3.814628e+01	-8.959645e+01
1.400000e-07	-5.485451e-06	-1.430371e-09	-3.810924e+01	-8.955646e+01
1.500000e-07	-5.479704e-06	-1.427566e-09	-3.806931e+01	-8.951996e+01
1.600000e-07	-5.473645e-06	-1.336297e-09	-3.802721e+01	-8.948680e+01
1.700000e-07	-5.467184e-06	-1.342964e-09	-3.798233e+01	-8.945674e+01
1.800000e-07	-5.460207e-06	-1.442479e-09	-3.793386e+01	-8.942942e+01
1.900000e-07	-5.452819e-06	-1.410957e-09	-3.788253e+01	-8.940439e+01
2.000000e-07	-5.445193e-06	-1.320984e-09	-3.782955e+01	-8.938112e+01
2.100000e-07	-5.437336e-06	-1.311871e-09	-3.777496e+01	-8.935901e+01
2.200000e-07	-5.429212e-06	-1.397486e-09	-3.771852e+01	-8.933737e+01
2.300000e-07	-5.420843e-06	-1.397338e-09	-3.766038e+01	-8.931547e+01
2.400000e-07	-5.412053e-06	-1.335831e-09	-3.759931e+01	-8.929252e+01
2.500000e-07	-5.402527e-06	-1.310671e-09	-3.753313e+01	-8.926773e+01
2.600000e-07	-5.392271e-06	-1.349627e-09	-3.746188e+01	-8.924027e+01
2.700000e-07	-5.381461e-06	-1.361918e-09	-3.738678e+01	-8.920931e+01
2.800000e-07	-5.370219e-06	-1.342069e-09	-3.730868e+01	-8.917408e+01
2.900000e-07	-5.358530e-06	-1.332890e-09	-3.722747e+01	-8.913379e+01
3.000000e-07	-5.346413e-06	-1.353945e-09	-3.714329e+01	-8.908773e+01
3.100000e-07	-5.333939e-06	-1.366034e-09	-3.705663e+01	-8.903526e+01
3.200000e-07	-5.321043e-06	-1.342305e-09	-3.696704e+01	-8.897579e+01
3.300000e-07	-5.307696e-06	-1.325335e-09	-3.687431e+01	-8.890885e+01
3.400000e-07	-5.293981e-06	-1.342091e-09	-3.677903e+01	-8.883404e+01
3.500000e-07	-5.279936e-06	-1.363455e-09	-3.668146e+01	-8.875110e+01
3.600000e-07	-5.265514e-06	-1.333562e-09	-3.658126e+01	-8.865984e+01
3.700000e-07	-5.250650e-06	-1.324495e-09	-3.647800e+01	-8.856022e+01
3.800000e-07	-5.235202e-06	-1.350229e-09	-3.637067e+01	-8.845231e+01
3.900000e-07	-5.219143e-06	-1.342496e-09	-3.625911e+01	-8.833628e+01
4.000000e-07	-5.202575e-06	-1.301144e-09	-3.614400e+01	-8.821244e+01
4.100000e-07	-5.185676e-06	-1.329991e-09	-3.602660e+01	-8.808117e+01
4.200000e-07	-5.168577e-06	-1.341629e-09	-3.590780e+01	-8.794298e+01
4.300000e-07	-5.151158e-06	-1.286763e-09	-3.578679e+01	-8.779845e+01
4.400000e-07	-5.133361e-06	-1.285733e-09	-3.566315e+01	-8.764823e+01
4.500000e-07	-5.115223e-06	-1.352171e-09	-3.553714e+01	-8.749306e+01
4.600000e-07	-5.096765e-06	-1.319102e-09	-3.540891e+01	-8.733370e+01
4.700000e-07	-5.077908e-06	-1.268511e-09	-3.527790e+01	-8.717095e+01
4.800000e-07	-5.058588e-06	-1.316042e-09	-3.514368e+01	-8.700563e+01
4.900000e-07	-5.038942e-06	-1.336393e-09	-3.500719e+01	-8.683854e+01
5.000000e-07	-5.019130e-06	-1.270699e-09	-3.486955e+01	-8.667050e+01
5.100000e-07	-4.999127e-06	-1.283168e-09	-3.473058e+01	-8.650224e+01
5.200000e-07	-4.978810e-06	-1.319064e-09	-3.458943e+01	-8.633450e+01
5.300000e-07	-4.958172e-06	-1.273394e-09	-3.444605e+01	-8.616792e+01
5.400000e-07	-4.937213e-06	-1.267960e-09	-3.430044e+01	-8.600308e+01
5.500000e-07	-4.915828e-06	-1.326384e-09	-3.415188e+01	-8.584046e+01
5.600000e-07	-4.894048e-06	-1.293005e-09	-3.400056e+01	-8.568045e+01
5.700000e-07	-4.871984e-06	-1.244318e-09	-3.384728e+01	-8.552336e+01
5.800000e-07	-4.849637e-06	-1.287757e-09	-3.369202e+01	-8.536936e+01
5.900000e-07	-4.826852e-06	-1.294148e-09	-3.353373e+01	-8.521853e+01
6.000000e-07	-4.803574e-06	-1.243594e-09	-3.337201e+01	-8.507084e+01
6.100000e-07	-4.780012e-06	-1.263413e-09	-3.320831e+01	-8.492615e+01
6.200000e-07	-4.756361e-06	-1.289704e-09	-3.304400e+01	-8.478422e+01
6.300000e-07	-4.732561e-06	-1.252251e-09	-3.287866e+01	-8.464472e+01
6.400000e-07	-4.708488e-06	-1.250047e-09	-3.271141e+01	-8.450722e+01
6.500000e-07	-4.684032e-06	-1.276242e-09	-3.254151e+01	-8.437123e+01
6.600000e-07	-4.659117e-06	-1.258834e-09	-3.236842e+01	-8.423620e+01
6.700000e-07	-4.633800e-06	-1.246337e-09	-3.219253e+01	-8.410151e+01
6.800000e-07	-4.608039e-06	-1.267517e-09	-3.201356e+01	-8.396652e+01
6.900000e-07	-4.581611e-06	-1.255439e-09	-3.182996e+01	-8.383056e+01
7.000000e-07	-4.554604e-06	-1.238333e-09	-3.164233e+01	-8.369297e+01
7.100000e-07	-4.527227e-06	-1.249457e-09	-3.145214e+01	-8.355308e+01
7.200000e-07	-4.499569e-06	-1.248171e-09	-3.125999e+01	-8.341025e+01
7.300000e-07	-4.471758e-06	-1.228926e-09	-3.106678e+01	-8.326387e+01
7.400000e-07	-4.443813e-06	-1.235995e-09	-3.087263e+01	-8.311338e+01
7.500000e-07	-4.415708e-06	-1.237598e-09	-3.067737e+01	-8.295831e+01
7.600000e-07	-4.387352e-06	-1.223322e-09	-3.048038e+01	-8.279821e+01
7.700000e-07	-4.358646e-06	-1.221237e-09	-3.028095e+01	-8.263274e+01
7.800000e-07	-4.329567e-06	-1.224724e-09	-3.007893e+01	-8.246163e+01
7.900000e-07	-4.300208e-06	-1.211048e-09	-2.987496e+01	-8.228472e+01
8.000000e-07	-4.270560e-06	-1.206116e-09	-2.966898e+01	-8.210190e+01
8.100000e-07	-4.240532e-06	-1.205650e-09	-2.946037e+01	-8.191318e+01
8.200000e-07	-4.210202e-06	-1.190921e-09	-2.924966e+01	-8.171864e+01
8.300000e-07	-4.179568e-06	-1.178810e-09	-2.903684e+01	-8.151846e+01
8.400000e-07	-4.148592e-06	-1.187123e-09	-2.882163e+01	-8.131288e+01
8.500000e-07	-4.117409e-06	-1.189708e-09	-2.860499e+01	-8.110220e+01
8.600000e-07	-4.086097e-06	-1.183456e-09	-2.838746e+01	-8.088681e+01
8.700000e-07	-4.054549e-06	-1.182701e-09	-2.816829e+01	-8.066711e+01
8.800000e-07	-4.022722e-06	-1.179591e-09	-2.794717e+01	-8.044356e+01
8.900000e-07	-3.990694e-06	-1.164777e-09	-2.772466e+01	-8.021664e+01
9.000000e-07	-3.958494e-06	-1.156886e-09	-2.750096e+01	-7.998684e+01
9.100000e-07	-3.925988e-06	-1.157128e-09	-2.727513e+01	-7.975464e+01
9.200000e-07	-3.893131e-06	-1.150307e-09	-2.704686e+01	-7.952052e+01
9.300000e-07	-3.859846e-06	-1.149482e-09	-2.681562e+01	-7.928492e+01
9.400000e-07	-3.826066e-06	-1.156915e-09	-2.658094e+01	-7.904825e+01
9.500000e-07	-3.791762e-06	-1.157696e-09	-2.634262e+01	-7.881088e+01
9.600000e-07	-3.757052e-06	-1.147707e-09	-2.610147e+01	-7.857311e+01
9.700000e-07	-3.722035e-06	-1.143908e-09	-2.585821e+01	-7.833517e+01
9.800000e-07	-3.686701e-06	-1.138027e-09	-2.561272e+01	-7.809725e+01
9.900000e-07	-3.651174e-06	-1.126511e-09	-2.536591e+01	-7.785945e+01
1.000000e-06	-3.615434e-06	-1.119349e-09	-2.511761e+01	-7.762178e+01
1.010000e-06	-3.579529e-06	-1.119939e-09	-2.486816e+01	-7.738419e+01
1.020000e-06	-3.543540e-06	-1.117730e-09	-2.461814e+01	-7.714655e+01
1.030000e-06	-3.507391e-06	-1.113855e-09	-2.436700e+01	-7.690867e+01
1.040000e-06	-3.471011e-06	-1.112313e-09	-2.411426e+01	-7.667029e+01
1.050000e-06	-3.434393e-06	-1.109409e-09	-2.385986e+01	-7.643106e+01
1.060000e-06	-3.397473e-06	-1.102796e-09	-2.360337e+01	-7.619063e+01
1.070000e-06	-3.360276e-06	-1.099853e-09	-2.334495e+01	-7.594855e+01
1.080000e-06	-3.322827e-06	-1.094928e-09	-2.308478e+01	-7.570439e+01
1.090000e-06	-3.285138e-06	-1.088625e-09	-2.282293e+01	-7.545765e+01
1.100000e-06	-3.247292e-06	-1.084678e-09	-2.256000e+01	-7.520785e+01
1.110000e-06	-3.209229e-06	-1.082480e-09	-2.229557e+01	-7.495449e+01
1.120000e-06	-3.170892e-06	-1.075634e-09	-2.202923e+01	-7.469708e+01
1.130000e-06	-3.132335e-06	-1.069975e-09	-2.176136e+01	-7.443515e+01
1.140000e-06	-3.093567e-06	-1.069272e-09	-2.149203e+01	-7.416826e+01
1.150000e-06	-3.054572e-06	-1.066505e-09	-2.122112e+01	-7.389601e+01
1.160000e-06	-3.015399e-06	-1.058588e-09	-2.094897e+01	-7.361804e+01
1.170000e-06	-2.976106e-06	-1.051630e-09	-2.067599e+01	-7.333402e+01
1.180000e-06	-2.936684e-06	-1.047480e-09	-2.040211e+01	-7.304372e+01
1.190000e-06	-2.897073e-06	-1.041502e-09	-2.012692e+01	-7.274691e+01
1.200000e-06	-2.857263e-06	-1.036585e-09	-1.985035e+01	-7.244348e+01
1.210000e-06	-2.817333e-06	-1.033881e-09	-1.957294e+01	-7.213333e+01
1.220000e-06	-2.777310e-06	-1.030126e-09	-1.929489e+01	-7.181644e+01
1.230000e-06	-2.737125e-06	-1.028181e-09	-1.901571e+01	-7.149284e+01
1.240000e-06	-2.696664e-06	-1.026063e-09	-1.873462e+01	-7.116261e+01
1.250000e-06	-2.655900e-06	-1.019450e-09	-1.845141e+01	-7.082587e+01
1.260000e-06	-2.614996e-06	-1.010951e-09	-1.816724e+01	-7.048278e+01
1.270000e-06	-2.574035e-06	-1.002779e-09	-1.788267e+01	-7.013353e+01
1.280000e-06	-2.532847e-06	-9.967870e-10	-1.759652e+01	-6.977832e+01
1.290000e-06	-2.491327e-06	-9.902150e-10	-1.730807e+01	-6.941737e+01
1.300000e-06	-2.449428e-06	-9.862063e-10	-1.701698e+01	-6.905088e+01
1.310000e-06	-2.407137e-06	-9.827300e-10	-1.672317e+01	-6.867905e+01
1.320000e-06	-2.364560e-06	-9.788241e-10	-1.642738e+01	-6.830207e+01
1.330000e-06	-2.321714e-06	-9.718328e-10	-1.612971e+01	-6.792008e+01
1.340000e-06	-2.278607e-06	-9.632527e-10	-1.583023e+01	-6.753319e+01
1.350000e-06	-2.235296e-06	-9.565119e-10	-1.552934e+01	-6.714145e+01
1.360000e-06	-2.191830e-06	-9.512992e-10	-1.522736e+01	-6.674487e+01
1.370000e-06	-2.148224e-06	-9.456717e-10	-1.492442e+01	-6.634338e+01
1.380000e-06	-2.104535e-06	-9.402679e-10	-1.462090e+01	-6.593686e+01
1.390000e-06	-2.060781e-06	-9.334057e-10	-1.431693e+01	-6.552510e+01
1.400000e-06	-2.016953e-06	-9.250519e-10	-1.401244e+01	-6.510783e+01
1.410000e-06	-1.973109e-06	-9.149229e-10	-1.370784e+01	-6.468470e+01
1.420000e-06	-1.929175e-06	-9.038632e-10	-1.340261e+01	-6.425528e+01
1.430000e-06	-1.885140e-06	-8.952727e-10	-1.309669e+01	-6.381908e+01
1.440000e-06	-1.841052e-06	-8.900058e-10	-1.279039e+01	-6.337553e+01
1.450000e-06	-1.796852e-06	-8.862298e-10	-1.248332e+01	-6.292400e+01
1.460000e-06	-1.752481e-06	-8.816371e-10	-1.217506e+01	-6.246380e+01
1.470000e-06	-1.707930e-06	-8.740772e-10	-1.186556e+01	-6.199417e+01
1.480000e-06	-1.663272e-06	-8.649389e-10	-1.155530e+01	-6.151433e+01
1.490000e-06	-1.618546e-06	-8.529276e-10	-1.124457e+01	-6.102344e+01
1.500000e-06	-1.573652e-06	-8.386141e-10	-1.093268e+01	-6.052062e+01
1.510000e-06	-1.528595e-06	-8.267122e-10	-1.061965e+01	-6.000499e+01
1.520000e-06	-1.483450e-06	-8.184451e-10	-1.030602e+01	-5.947563e+01
1.530000e-06	-1.438210e-06	-8.106381e-10	-9.991721e+00	-5.893164e+01
1.540000e-06	-1.392895e-06	-8.028222e-10	-9.676898e+00	-5.837207e+01
1.550000e-06	-1.347387e-06	-7.945761e-10	-9.360741e+00	-5.779602e+01
1.560000e-06	-1.301754e-06	-7.843866e-10	-9.043710e+00	-5.720257e+01
1.570000e-06	-1.256112e-06	-7.747823e-10	-8.726622e+00	-5.659084e+01
1.580000e-06	-1.210323e-06	-7.648103e-10	-8.408515e+00	-5.595994e+01
1.590000e-06	-1.164497e-06	-7.527057e-10	-8.090145e+00	-5.530903e+01
1.600000e-06	-1.118643e-06	-7.413500e-10	-7.771579e+00	-5.463727e+01
1.610000e-06	-1.072675e-06	-7.329375e-10	-7.452227e+00	-5.394387e+01
1.620000e-06	-1.026639e-06	-7.259744e-10	-7.132399e+00	-5.322804e+01
1.630000e-06	-9.804752e-07	-7.197153e-10	-6.811684e+00	-5.248904e+01
1.640000e-06	-9.342596e-07	-7.108442e-10	-6.490609e+00	-5.172615e+01
1.650000e-06	-8.880098e-07	-6.977465e-10	-6.169296e+00	-5.093866e+01
1.660000e-06	-8.416792e-07	-6.809413e-10	-5.847422e+00	-5.012591e+01
1.670000e-06	-7.952538e-07	-6.634464e-10	-5.524890e+00	-4.928722e+01
1.680000e-06	-7.488167e-07	-6.475920e-10	-5.202277e+00	-4.842196e+01
1.690000e-06	-7.023675e-07	-6.335824e-10	-4.879578e+00	-4.752950e+01
1.700000e-06	-6.557974e-07	-6.193108e-10	-4.556041e+00	-4.660924e+01
1.710000e-06	-6.092390e-07	-6.058046e-10	-4.232584e+00	-4.566056e+01
1.720000e-06	-5.627026e-07	-5.925880e-10	-3.909280e+00	-4.468287e+01
1.730000e-06	-5.161156e-07	-5.772995e-10	-3.585625e+00	-4.367559e+01
1.740000e-06	-4.694250e-07	-5.596374e-10	-3.261250e+00	-4.263814e+01
1.750000e-06	-4.226495e-07	-5.411369e-10	-2.936285e+00	-4.156996e+01
1.760000e-06	-3.758650e-07	-5.234567e-10	-2.611258e+00	-4.047050e+01
1.770000e-06	-3.290745e-07	-5.077462e-10	-2.286189e+00	-3.933922e+01
1.780000e-06	-2.822904e-07	-4.927957e-10	-1.961165e+00	-3.817561e+01
1.790000e-06	-2.354754e-07	-4.776719e-10	-1.635925e+00	-3.697918e+01
1.800000e-06	-1.886701e-07	-4.621476e-10	-1.310753e+00	-3.574948e+01
1.810000e-06	-1.418974e-07	-4.452910e-10	-9.858081e-01	-3.448609e+01
1.820000e-06	-9.506389e-08	-4.259866e-10	-6.604401e-01	-3.318866e+01
1.830000e-06	-4.809609e-08	-4.048170e-10	-3.341394e-01	-3.185686e+01
1.840000e-06	-1.035867e-09	-3.855883e-10	-7.196511e-03	-3.049048e+01
1.850000e-06	4.588882e-08	-3.679978e-10	3.188048e-01	-2.908935e+01
1.860000e-06	9.268136e-08	-3.505747e-10	6.438880e-01	-2.765341e+01
1.870000e-06	1.394312e-07	-3.323328e-10	9.686744e-01	-2.618269e+01
1.880000e-06	1.862238e-07	-3.137688e-10	1.293758e+00	-2.467734e+01
1.890000e-06	2.330672e-07	-2.922806e-10	1.619195e+00	-2.313763e+01
1.900000e-06	2.799182e-07	-2.676138e-10	1.944684e+00	-2.156395e+01
1.910000e-06	3.267872e-07	-2.424021e-10	2.270298e+00	-1.995686e+01
1.920000e-06	3.736198e-07	-2.169413e-10	2.595660e+00	-1.831702e+01
1.930000e-06	4.204123e-07	-1.934463e-10	2.920743e+00	-1.664529e+01
1.940000e-06	4.671881e-07	-1.722637e-10	3.245709e+00	-1.494266e+01
1.950000e-06	5.138756e-07	-1.512506e-10	3.570063e+00	-1.321029e+01
1.960000e-06	5.603862e-07	-1.290899e-10	3.893187e+00	-1.144951e+01
1.970000e-06	6.068319e-07	-1.043697e-10	4.215861e+00	-9.661791e+00
1.980000e-06	6.532884e-07	-7.845098e-11	4.538610e+00	-7.848783e+00
1.990000e-06	6.997110e-07	-5.148704e-11	4.861123e+00	-6.012282e+00
2.000000e-06	7.460910e-07	-2.434531e-11	5.183340e+00	-4.154236e+00
2.010000e-06	7.924056e-07	1.803405e-12	5.505103e+00	-2.276730e+00
2.020000e-06	8.386276e-07	2.715498e-11	5.826222e+00	-3.819809e-01
2.030000e-06	8.848421e-07	5.133590e-11	6.147289e+00	1.527678e+00
2.040000e-06	9.310402e-07	7.628087e-11	6.468243e+00	3.449808e+00
2.050000e-06	9.771721e-07	1.022086e-10	6.788736e+00	5.381883e+00
2.060000e-06	1.023176e-06	1.293963e-10	7.108341e+00	7.321302e+00
2.070000e-06	1.069071e-06	1.570084e-10	7.427185e+00	9.265409e+00
2.080000e-06	1.114874e-06	1.831398e-10	7.745394e+00	1.121151e+01
2.090000e-06	1.160661e-06	2.084594e-10	8.063495e+00	1.315689e+01
2.100000e-06	1.206458e-06	2.356919e-10	8.381664e+00	1.509884e+01
2.110000e-06	1.252128e-06	2.663795e-10	8.698948e+00	1.703467e+01
2.120000e-06	1.297707e-06	2.986918e-10	9.015596e+00	1.896171e+01
2.130000e-06	1.343225e-06	3.278331e-10	9.331825e+00	2.087735e+01
2.140000e-06	1.388667e-06	3.506203e-10	9.647525e+00	2.277908e+01
2.150000e-06	1.434004e-06	3.707809e-10	9.962500e+00	2.466445e+01
2.160000e-06	1.479238e-06	3.925043e-10	1.027676e+01	2.653111e+01
2.170000e-06	1.524388e-06	4.167904e-10	1.059043e+01	2.837685e+01
2.180000e-06	1.569410e-06	4.439004e-10	1.090321e+01	3.019956e+01
2.190000e-06	1.614213e-06	4.718482e-10	1.121447e+01	3.199731e+01
2.200000e-06	1.658937e-06	4.999544e-10	1.152518e+01	3.376827e+01
2.210000e-06	1.703603e-06	5.273389e-10	1.183549e+01	3.551081e+01
2.220000e-06	1.748119e-06	5.526050e-10	1.214476e+01	3.722343e+01
2.230000e-06	1.792522e-06	5.742056e-10	1.245324e+01	3.890482e+01
2.240000e-06	1.836727e-06	5.930538e-10	1.276035e+01	4.055380e+01
2.250000e-06	1.880770e-06	6.120152e-10	1.306633e+01	4.216938e+01
2.260000e-06	1.924729e-06	6.324240e-10	1.337173e+01	4.375073e+01
2.270000e-06	1.968652e-06	6.543176e-10	1.367687e+01	4.529719e+01
2.280000e-06	2.012504e-06	6.772229e-10	1.398153e+01	4.680823e+01
2.290000e-06	2.056271e-06	6.994645e-10	1.428559e+01	4.828347e+01
2.300000e-06	2.099996e-06	7.202060e-10	1.458936e+01	4.972269e+01
2.310000e-06	2.143657e-06	7.393900e-10	1.489269e+01	5.112579e+01
2.320000e-06	2.187284e-06	7.572147e-10	1.519578e+01	5.249279e+01
2.330000e-06	2.230838e-06	7.755122e-10	1.549836e+01	5.382382e+01
2.340000e-06	2.274194e-06	7.932786e-10	1.579957e+01	5.511913e+01
2.350000e-06	2.317297e-06	8.101058e-10	1.609902e+01	5.637902e+01
2.360000e-06	2.360228e-06	8.267820e-10	1.639728e+01	5.760392e+01
2.370000e-06	2.402895e-06	8.420877e-10	1.669370e+01	5.879430e+01
2.380000e-06	2.445209e-06	8.551441e-10	1.698767e+01	5.995068e+01
2.390000e-06	2.487197e-06	8.681679e-10	1.727938e+01	6.107366e+01
2.400000e-06	2.528776e-06	8.813894e-10	1.756824e+01	6.216384e+01
2.410000e-06	2.569987e-06	8.948709e-10	1.785454e+01	6.322188e+01
2.420000e-06	2.610950e-06	9.076691e-10	1.813913e+01	6.424845e+01
2.430000e-06	2.651751e-06	9.203148e-10	1.842259e+01	6.524423e+01
2.440000e-06	2.692315e-06	9.319846e-10	1.870440e+01	6.620991e+01
2.450000e-06	2.732605e-06	9.427325e-10	1.898431e+01	6.714617e+01
2.460000e-06	2.772718e-06	9.552091e-10	1.926298e+01	6.805369e+01
2.470000e-06	2.812697e-06	9.673058e-10	1.954073e+01	6.893316e+01
2.480000e-06	2.852543e-06	9.774772e-10	1.981756e+01	6.978522e+01
2.490000e-06	2.892239e-06	9.881179e-10	2.009333e+01	7.061051e+01
2.500000e-06	2.931815e-06	9.987194e-10	2.036828e+01	7.140966e+01
2.510000e-06	2.971270e-06	1.008864e-09	2.064239e+01	7.218327e+01
2.520000e-06	3.010568e-06	1.019484e-09	2.091541e+01	7.293191e+01
2.530000e-06	3.049659e-06	1.029894e-09	2.118698e+01	7.365616e+01
2.540000e-06	3.088428e-06	1.040100e-09	2.145633e+01	7.435653e+01
2.550000e-06	3.126966e-06	1.048661e-09	2.172406e+01	7.503356e+01
2.560000e-06	3.165300e-06	1.056954e-09	2.199038e+01	7.568774e+01
2.570000e-06	3.203395e-06	1.066388e-09	2.225504e+01	7.631955e+01
2.580000e-06	3.241321e-06	1.074691e-09	2.251853e+01	7.692947e+01
2.590000e-06	3.279091e-06	1.080598e-09	2.278093e+01	7.751795e+01
2.600000e-06	3.316713e-06	1.086127e-09	2.304230e+01	7.808544e+01
2.610000e-06	3.354115e-06	1.093587e-09	2.330214e+01	7.863238e+01
2.620000e-06	3.391202e-06	1.102433e-09	2.355980e+01	7.915920e+01
2.630000e-06	3.428058e-06	1.111735e-09	2.381585e+01	7.966634e+01
2.640000e-06	3.464663e-06	1.121488e-09	2.407016e+01	8.015423e+01
2.650000e-06	3.500906e-06	1.129975e-09	2.432195e+01	8.062331e+01
2.660000e-06	3.536915e-06	1.135647e-09	2.457211e+01	8.107402e+01
2.670000e-06	3.572829e-06	1.140020e-09	2.482162e+01	8.150682e+01
2.680000e-06	3.608650e-06	1.146548e-09	2.507048e+01	8.192216e+01
2.690000e-06	3.644314e-06	1.153805e-09	2.531825e+01	8.232052e+01
2.700000e-06	3.679887e-06	1.160355e-09	2.556539e+01	8.270239e+01
2.710000e-06	3.715319e-06	1.167389e-09	2.581155e+01	8.306826e+01
2.720000e-06	3.750417e-06	1.174723e-09	2.605538e+01	8.341866e+01
2.730000e-06	3.785134e-06	1.181839e-09	2.629657e+01	8.375411e+01
2.740000e-06	3.819515e-06	1.188434e-09	2.653543e+01	8.407518e+01
2.750000e-06	3.853430e-06	1.191961e-09	2.677105e+01	8.438243e+01
2.760000e-06	3.886729e-06	1.194202e-09	2.700239e+01	8.467644e+01
2.770000e-06	3.919480e-06	1.197714e-09	2.722992e+01	8.495781e+01
2.780000e-06	3.951834e-06	1.201781e-09	2.745469e+01	8.522717e+01
2.790000e-06	3.983924e-06	1.207728e-09	2.767763e+01	8.548513e+01
2.800000e-06	4.015829e-06	1.215316e-09	2.789928e+01	8.573233e+01
2.810000e-06	4.047600e-06	1.220427e-09	2.812001e+01	8.596943e+01
2.820000e-06	4.079254e-06	1.224432e-09	2.833992e+01	8.619708e+01
2.830000e-06	4.110774e-06	1.228577e-09	2.855890e+01	8.641592e+01
2.840000e-06	4.142118e-06	1.230467e-09	2.877666e+01	8.662660e+01
2.850000e-06	4.173178e-06	1.230081e-09	2.899244e+01	8.682978e+01
2.860000e-06	4.203787e-06	1.230288e-09	2.920509e+01	8.702609e+01
2.870000e-06	4.234007e-06	1.233965e-09	2.941504e+01	8.721614e+01
2.880000e-06	4.263985e-06	1.239707e-09	2.962331e+01	8.740053e+01
2.890000e-06	4.293761e-06	1.246169e-09	2.983017e+01	8.757983e+01
2.900000e-06	4.323299e-06	1.249628e-09	3.003538e+01	8.775460e+01
