# Temperatura_=_12.2
# Concentracion g/m^3_=_1620.0
# C_Vs_to_Am_M_A/Vsm_=_65563218390.804596
# pendiente_HvsI_1/m_=_3716.3
# ordenada_HvsI_A/m_=_1297.0
# frecuencia_Hz_=_135096.70493830027

Tiempo_(s)	Campo_(V.s)	Magnetizacion_(V.s)	Campo_(kA/m)	Magnetizacion_(A/m)
0.000000e+00	-5.539446e-06	-1.657215e-09	-3.837471e+01	-1.088110e+02
1.000000e-08	-5.539637e-06	-1.653420e-09	-3.837603e+01	-1.087376e+02
2.000000e-08	-5.539502e-06	-1.650234e-09	-3.837510e+01	-1.086682e+02
3.000000e-08	-5.538996e-06	-1.648985e-09	-3.837159e+01	-1.086034e+02
4.000000e-08	-5.538068e-06	-1.646856e-09	-3.836517e+01	-1.085437e+02
5.000000e-08	-5.536639e-06	-1.641478e-09	-3.835527e+01	-1.084895e+02
6.000000e-08	-5.534601e-06	-1.627562e-09	-3.834115e+01	-1.084412e+02
7.000000e-08	-5.531912e-06	-1.613832e-09	-3.832252e+01	-1.083990e+02
8.000000e-08	-5.528686e-06	-1.661722e-09	-3.830017e+01	-1.083628e+02
9.000000e-08	-5.524974e-06	-1.743340e-09	-3.827446e+01	-1.083327e+02
1.000000e-07	-5.520767e-06	-1.713588e-09	-3.824531e+01	-1.083084e+02
1.100000e-07	-5.516280e-06	-1.591457e-09	-3.821423e+01	-1.082894e+02
1.200000e-07	-5.511694e-06	-1.549552e-09	-3.818246e+01	-1.082754e+02
1.300000e-07	-5.506830e-06	-1.644667e-09	-3.814876e+01	-1.082656e+02
1.400000e-07	-5.501561e-06	-1.694899e-09	-3.811226e+01	-1.082592e+02
1.500000e-07	-5.495990e-06	-1.610674e-09	-3.807367e+01	-1.082555e+02
1.600000e-07	-5.490082e-06	-1.582168e-09	-3.803274e+01	-1.082534e+02
1.700000e-07	-5.483671e-06	-1.652850e-09	-3.798833e+01	-1.082519e+02
1.800000e-07	-5.476791e-06	-1.713953e-09	-3.794067e+01	-1.082498e+02
1.900000e-07	-5.469567e-06	-1.620154e-09	-3.789062e+01	-1.082460e+02
2.000000e-07	-5.462012e-06	-1.579037e-09	-3.783829e+01	-1.082392e+02
2.100000e-07	-5.454126e-06	-1.633467e-09	-3.778365e+01	-1.082284e+02
2.200000e-07	-5.445993e-06	-1.713610e-09	-3.772731e+01	-1.082122e+02
2.300000e-07	-5.437684e-06	-1.673400e-09	-3.766975e+01	-1.081897e+02
2.400000e-07	-5.429042e-06	-1.620049e-09	-3.760988e+01	-1.081595e+02
2.500000e-07	-5.419597e-06	-1.622449e-09	-3.754446e+01	-1.081209e+02
2.600000e-07	-5.409358e-06	-1.652184e-09	-3.747352e+01	-1.080727e+02
2.700000e-07	-5.398577e-06	-1.639159e-09	-3.739883e+01	-1.080143e+02
2.800000e-07	-5.387394e-06	-1.621939e-09	-3.732136e+01	-1.079448e+02
2.900000e-07	-5.375807e-06	-1.644105e-09	-3.724109e+01	-1.078638e+02
3.000000e-07	-5.363814e-06	-1.659016e-09	-3.715801e+01	-1.077707e+02
3.100000e-07	-5.351468e-06	-1.640474e-09	-3.707248e+01	-1.076654e+02
3.200000e-07	-5.338616e-06	-1.600988e-09	-3.698345e+01	-1.075477e+02
3.300000e-07	-5.325326e-06	-1.632888e-09	-3.689139e+01	-1.074175e+02
3.400000e-07	-5.311706e-06	-1.646548e-09	-3.679704e+01	-1.072752e+02
3.500000e-07	-5.297673e-06	-1.624378e-09	-3.669982e+01	-1.071208e+02
3.600000e-07	-5.283218e-06	-1.602755e-09	-3.659968e+01	-1.069550e+02
3.700000e-07	-5.268387e-06	-1.646798e-09	-3.649694e+01	-1.067782e+02
3.800000e-07	-5.253031e-06	-1.614491e-09	-3.639056e+01	-1.065912e+02
3.900000e-07	-5.237082e-06	-1.577786e-09	-3.628007e+01	-1.063946e+02
4.000000e-07	-5.220625e-06	-1.612740e-09	-3.616607e+01	-1.061894e+02
4.100000e-07	-5.203814e-06	-1.644272e-09	-3.604961e+01	-1.059765e+02
4.200000e-07	-5.186673e-06	-1.570586e-09	-3.593087e+01	-1.057569e+02
4.300000e-07	-5.169317e-06	-1.574020e-09	-3.581063e+01	-1.055315e+02
4.400000e-07	-5.151714e-06	-1.636811e-09	-3.568868e+01	-1.053013e+02
4.500000e-07	-5.133604e-06	-1.604400e-09	-3.556322e+01	-1.050674e+02
4.600000e-07	-5.114992e-06	-1.539656e-09	-3.543429e+01	-1.048308e+02
4.700000e-07	-5.096100e-06	-1.596288e-09	-3.530341e+01	-1.045922e+02
4.800000e-07	-5.076886e-06	-1.609214e-09	-3.517031e+01	-1.043528e+02
4.900000e-07	-5.057298e-06	-1.549710e-09	-3.503461e+01	-1.041131e+02
5.000000e-07	-5.037556e-06	-1.567509e-09	-3.489785e+01	-1.038740e+02
5.100000e-07	-5.017568e-06	-1.603929e-09	-3.475938e+01	-1.036361e+02
5.200000e-07	-4.997111e-06	-1.541940e-09	-3.461767e+01	-1.033999e+02
5.300000e-07	-4.976276e-06	-1.538658e-09	-3.447333e+01	-1.031658e+02
5.400000e-07	-4.955177e-06	-1.600002e-09	-3.432717e+01	-1.029342e+02
5.500000e-07	-4.933766e-06	-1.562573e-09	-3.417884e+01	-1.027052e+02
5.600000e-07	-4.912034e-06	-1.514674e-09	-3.402829e+01	-1.024789e+02
5.700000e-07	-4.890052e-06	-1.561031e-09	-3.387601e+01	-1.022553e+02
5.800000e-07	-4.867691e-06	-1.566115e-09	-3.372110e+01	-1.020343e+02
5.900000e-07	-4.844883e-06	-1.514269e-09	-3.356310e+01	-1.018156e+02
6.000000e-07	-4.821753e-06	-1.538123e-09	-3.340287e+01	-1.015990e+02
6.100000e-07	-4.798408e-06	-1.558894e-09	-3.324114e+01	-1.013841e+02
6.200000e-07	-4.774808e-06	-1.521551e-09	-3.307766e+01	-1.011704e+02
6.300000e-07	-4.750972e-06	-1.517121e-09	-3.291253e+01	-1.009574e+02
6.400000e-07	-4.726949e-06	-1.545010e-09	-3.274611e+01	-1.007447e+02
6.500000e-07	-4.702573e-06	-1.513799e-09	-3.257725e+01	-1.005316e+02
6.600000e-07	-4.677702e-06	-1.501807e-09	-3.240495e+01	-1.003177e+02
6.700000e-07	-4.652251e-06	-1.522044e-09	-3.222864e+01	-1.001022e+02
6.800000e-07	-4.626179e-06	-1.510699e-09	-3.204802e+01	-9.988467e+01
6.900000e-07	-4.599571e-06	-1.486468e-09	-3.186370e+01	-9.966457e+01
7.000000e-07	-4.572481e-06	-1.507510e-09	-3.167603e+01	-9.944137e+01
7.100000e-07	-4.545049e-06	-1.503684e-09	-3.148599e+01	-9.921459e+01
7.200000e-07	-4.517455e-06	-1.483390e-09	-3.129483e+01	-9.898381e+01
7.300000e-07	-4.489690e-06	-1.487106e-09	-3.110249e+01	-9.874866e+01
7.400000e-07	-4.461748e-06	-1.493773e-09	-3.090892e+01	-9.850880e+01
7.500000e-07	-4.433565e-06	-1.468589e-09	-3.071368e+01	-9.826397e+01
7.600000e-07	-4.405104e-06	-1.464064e-09	-3.051652e+01	-9.801397e+01
7.700000e-07	-4.376339e-06	-1.469334e-09	-3.031724e+01	-9.775863e+01
7.800000e-07	-4.347269e-06	-1.458069e-09	-3.011586e+01	-9.749785e+01
7.900000e-07	-4.317927e-06	-1.455398e-09	-2.991259e+01	-9.723157e+01
8.000000e-07	-4.288232e-06	-1.470315e-09	-2.970688e+01	-9.695980e+01
8.100000e-07	-4.258180e-06	-1.458094e-09	-2.949869e+01	-9.668255e+01
8.200000e-07	-4.227854e-06	-1.435584e-09	-2.928861e+01	-9.639988e+01
8.300000e-07	-4.197209e-06	-1.436791e-09	-2.907632e+01	-9.611188e+01
8.400000e-07	-4.166216e-06	-1.434287e-09	-2.886161e+01	-9.581865e+01
8.500000e-07	-4.135037e-06	-1.419327e-09	-2.864562e+01	-9.552029e+01
8.600000e-07	-4.103717e-06	-1.421087e-09	-2.842865e+01	-9.521692e+01
8.700000e-07	-4.072124e-06	-1.423090e-09	-2.820978e+01	-9.490865e+01
8.800000e-07	-4.040296e-06	-1.405423e-09	-2.798930e+01	-9.459556e+01
8.900000e-07	-4.008321e-06	-1.397915e-09	-2.776779e+01	-9.427774e+01
9.000000e-07	-3.976163e-06	-1.397673e-09	-2.754502e+01	-9.395525e+01
9.100000e-07	-3.943746e-06	-1.385966e-09	-2.732044e+01	-9.362812e+01
9.200000e-07	-3.910921e-06	-1.372524e-09	-2.709305e+01	-9.329635e+01
9.300000e-07	-3.877565e-06	-1.376846e-09	-2.686197e+01	-9.295993e+01
9.400000e-07	-3.843764e-06	-1.370994e-09	-2.662781e+01	-9.261881e+01
9.500000e-07	-3.809565e-06	-1.358670e-09	-2.639090e+01	-9.227290e+01
9.600000e-07	-3.774944e-06	-1.354000e-09	-2.615106e+01	-9.192210e+01
9.700000e-07	-3.739960e-06	-1.349958e-09	-2.590871e+01	-9.156629e+01
9.800000e-07	-3.704710e-06	-1.334089e-09	-2.566451e+01	-9.120533e+01
9.900000e-07	-3.669220e-06	-1.329369e-09	-2.541866e+01	-9.083905e+01
1.000000e-06	-3.633529e-06	-1.328577e-09	-2.517140e+01	-9.046730e+01
1.010000e-06	-3.597665e-06	-1.320483e-09	-2.492295e+01	-9.008992e+01
1.020000e-06	-3.561641e-06	-1.311896e-09	-2.467339e+01	-8.970673e+01
1.030000e-06	-3.525533e-06	-1.312859e-09	-2.442326e+01	-8.931759e+01
1.040000e-06	-3.489231e-06	-1.305466e-09	-2.417177e+01	-8.892238e+01
1.050000e-06	-3.452632e-06	-1.294204e-09	-2.391823e+01	-8.852096e+01
1.060000e-06	-3.415645e-06	-1.287940e-09	-2.366200e+01	-8.811327e+01
1.070000e-06	-3.378391e-06	-1.281607e-09	-2.340393e+01	-8.769925e+01
1.080000e-06	-3.341011e-06	-1.268720e-09	-2.314498e+01	-8.727889e+01
1.090000e-06	-3.303349e-06	-1.260377e-09	-2.288407e+01	-8.685220e+01
1.100000e-06	-3.265389e-06	-1.254925e-09	-2.262110e+01	-8.641925e+01
1.110000e-06	-3.227211e-06	-1.245892e-09	-2.235662e+01	-8.598013e+01
1.120000e-06	-3.188836e-06	-1.237878e-09	-2.209078e+01	-8.553498e+01
1.130000e-06	-3.150247e-06	-1.232862e-09	-2.182345e+01	-8.508398e+01
1.140000e-06	-3.111456e-06	-1.224484e-09	-2.155472e+01	-8.462733e+01
1.150000e-06	-3.072475e-06	-1.214145e-09	-2.128468e+01	-8.416527e+01
1.160000e-06	-3.033333e-06	-1.208125e-09	-2.101352e+01	-8.369806e+01
1.170000e-06	-2.994008e-06	-1.199389e-09	-2.074110e+01	-8.322597e+01
1.180000e-06	-2.954519e-06	-1.190194e-09	-2.046754e+01	-8.274928e+01
1.190000e-06	-2.914888e-06	-1.185824e-09	-2.019299e+01	-8.226829e+01
1.200000e-06	-2.875074e-06	-1.182794e-09	-1.991718e+01	-8.178327e+01
1.210000e-06	-2.835113e-06	-1.175744e-09	-1.964035e+01	-8.129449e+01
1.220000e-06	-2.795022e-06	-1.170388e-09	-1.936261e+01	-8.080218e+01
1.230000e-06	-2.754802e-06	-1.164789e-09	-1.908399e+01	-8.030656e+01
1.240000e-06	-2.714383e-06	-1.156337e-09	-1.880399e+01	-7.980780e+01
1.250000e-06	-2.673765e-06	-1.145597e-09	-1.852260e+01	-7.930601e+01
1.260000e-06	-2.632922e-06	-1.139574e-09	-1.823966e+01	-7.880127e+01
1.270000e-06	-2.591794e-06	-1.132349e-09	-1.795474e+01	-7.829360e+01
1.280000e-06	-2.550439e-06	-1.123385e-09	-1.766826e+01	-7.778293e+01
1.290000e-06	-2.508710e-06	-1.114419e-09	-1.737918e+01	-7.726914e+01
1.300000e-06	-2.466549e-06	-1.106306e-09	-1.708710e+01	-7.675206e+01
1.310000e-06	-2.424221e-06	-1.097168e-09	-1.679388e+01	-7.623141e+01
1.320000e-06	-2.381649e-06	-1.089174e-09	-1.649896e+01	-7.570687e+01
1.330000e-06	-2.338696e-06	-1.079457e-09	-1.620140e+01	-7.517805e+01
1.340000e-06	-2.295481e-06	-1.067785e-09	-1.590202e+01	-7.464447e+01
1.350000e-06	-2.252075e-06	-1.057635e-09	-1.560133e+01	-7.410562e+01
1.360000e-06	-2.208510e-06	-1.051599e-09	-1.529954e+01	-7.356091e+01
1.370000e-06	-2.164843e-06	-1.044249e-09	-1.499703e+01	-7.300972e+01
1.380000e-06	-2.121119e-06	-1.034871e-09	-1.469413e+01	-7.245137e+01
1.390000e-06	-2.077308e-06	-1.025004e-09	-1.439063e+01	-7.188514e+01
1.400000e-06	-2.033405e-06	-1.015337e-09	-1.408649e+01	-7.131031e+01
1.410000e-06	-1.989386e-06	-1.003859e-09	-1.378154e+01	-7.072611e+01
1.420000e-06	-1.945289e-06	-9.922347e-10	-1.347606e+01	-7.013177e+01
1.430000e-06	-1.901119e-06	-9.825179e-10	-1.317007e+01	-6.952652e+01
1.440000e-06	-1.856879e-06	-9.719517e-10	-1.286360e+01	-6.890957e+01
1.450000e-06	-1.812531e-06	-9.597709e-10	-1.255637e+01	-6.828017e+01
1.460000e-06	-1.768062e-06	-9.451043e-10	-1.224831e+01	-6.763757e+01
1.470000e-06	-1.723449e-06	-9.306942e-10	-1.193925e+01	-6.698103e+01
1.480000e-06	-1.678643e-06	-9.185048e-10	-1.162886e+01	-6.630986e+01
1.490000e-06	-1.633729e-06	-9.063546e-10	-1.131772e+01	-6.562337e+01
1.500000e-06	-1.588746e-06	-8.927967e-10	-1.100609e+01	-6.492092e+01
1.510000e-06	-1.543632e-06	-8.798365e-10	-1.069357e+01	-6.420189e+01
1.520000e-06	-1.498329e-06	-8.672693e-10	-1.037973e+01	-6.346568e+01
1.530000e-06	-1.452890e-06	-8.547253e-10	-1.006495e+01	-6.271174e+01
1.540000e-06	-1.407397e-06	-8.428532e-10	-9.749793e+00	-6.193953e+01
1.550000e-06	-1.361847e-06	-8.299367e-10	-9.434243e+00	-6.114852e+01
1.560000e-06	-1.316197e-06	-8.159722e-10	-9.118001e+00	-6.033822e+01
1.570000e-06	-1.270436e-06	-8.035628e-10	-8.800989e+00	-5.950814e+01
1.580000e-06	-1.224551e-06	-7.898835e-10	-8.483122e+00	-5.865778e+01
1.590000e-06	-1.178561e-06	-7.745060e-10	-8.164524e+00	-5.778665e+01
1.600000e-06	-1.132473e-06	-7.576597e-10	-7.845246e+00	-5.689426e+01
1.610000e-06	-1.086366e-06	-7.422401e-10	-7.525840e+00	-5.598010e+01
1.620000e-06	-1.040282e-06	-7.290319e-10	-7.206589e+00	-5.504363e+01
1.630000e-06	-9.941297e-07	-7.198687e-10	-6.886869e+00	-5.408429e+01
1.640000e-06	-9.478660e-07	-7.092618e-10	-6.566376e+00	-5.310149e+01
1.650000e-06	-9.014977e-07	-6.927423e-10	-6.245158e+00	-5.209461e+01
1.660000e-06	-8.550942e-07	-6.718006e-10	-5.923696e+00	-5.106298e+01
1.670000e-06	-8.086780e-07	-6.507817e-10	-5.602146e+00	-5.000591e+01
1.680000e-06	-7.621542e-07	-6.312621e-10	-5.279850e+00	-4.892265e+01
1.690000e-06	-7.155628e-07	-6.133214e-10	-4.957087e+00	-4.781244e+01
1.700000e-06	-6.689103e-07	-5.963970e-10	-4.633900e+00	-4.667446e+01
1.710000e-06	-6.223126e-07	-5.803100e-10	-4.311093e+00	-4.550789e+01
1.720000e-06	-5.757531e-07	-5.663273e-10	-3.988550e+00	-4.431186e+01
1.730000e-06	-5.290319e-07	-5.506206e-10	-3.664888e+00	-4.308550e+01
1.740000e-06	-4.821896e-07	-5.296814e-10	-3.340386e+00	-4.182794e+01
1.750000e-06	-4.352880e-07	-5.049025e-10	-3.015473e+00	-4.053830e+01
1.760000e-06	-3.882650e-07	-4.802562e-10	-2.689720e+00	-3.921575e+01
1.770000e-06	-3.412381e-07	-4.570477e-10	-2.363939e+00	-3.785945e+01
1.780000e-06	-2.942808e-07	-4.366307e-10	-2.038641e+00	-3.646864e+01
1.790000e-06	-2.473132e-07	-4.180419e-10	-1.713271e+00	-3.504260e+01
1.800000e-06	-2.003018e-07	-4.013290e-10	-1.387598e+00	-3.358070e+01
1.810000e-06	-1.532828e-07	-3.841889e-10	-1.061872e+00	-3.208238e+01
1.820000e-06	-1.063468e-07	-3.651218e-10	-7.367216e-01	-3.054720e+01
1.830000e-06	-5.933220e-08	-3.444532e-10	-4.110259e-01	-2.897484e+01
1.840000e-06	-1.228297e-08	-3.207097e-10	-8.509075e-02	-2.736510e+01
1.850000e-06	3.466833e-08	-2.949439e-10	2.401661e-01	-2.571793e+01
1.860000e-06	8.165989e-08	-2.705824e-10	5.657018e-01	-2.403344e+01
1.870000e-06	1.287297e-07	-2.469349e-10	8.917794e-01	-2.231191e+01
1.880000e-06	1.756981e-07	-2.236924e-10	1.217155e+00	-2.055379e+01
1.890000e-06	2.226815e-07	-2.014760e-10	1.542634e+00	-1.875970e+01
1.900000e-06	2.696688e-07	-1.788148e-10	1.868141e+00	-1.693047e+01
1.910000e-06	3.165251e-07	-1.530806e-10	2.192739e+00	-1.506710e+01
1.920000e-06	3.633121e-07	-1.237151e-10	2.516858e+00	-1.317079e+01
1.930000e-06	4.101361e-07	-9.442113e-11	2.841232e+00	-1.124293e+01
1.940000e-06	4.569201e-07	-6.673646e-11	3.165331e+00	-9.285070e+00
1.950000e-06	5.036149e-07	-4.054325e-11	3.488810e+00	-7.298973e+00
1.960000e-06	5.502941e-07	-1.532832e-11	3.812182e+00	-5.286552e+00
1.970000e-06	5.968848e-07	9.833611e-12	4.134941e+00	-3.249887e+00
1.980000e-06	6.434903e-07	3.535278e-11	4.457802e+00	-1.191203e+00
1.990000e-06	6.901481e-07	6.223422e-11	4.781026e+00	8.871362e-01
2.000000e-06	7.367592e-07	9.276898e-11	5.103926e+00	2.982646e+00
2.010000e-06	7.832612e-07	1.247594e-10	5.426070e+00	5.092738e+00
2.020000e-06	8.296877e-07	1.555529e-10	5.747691e+00	7.214735e+00
2.030000e-06	8.760411e-07	1.848280e-10	6.068806e+00	9.345891e+00
2.040000e-06	9.223033e-07	2.128168e-10	6.389289e+00	1.148341e+01
2.050000e-06	9.684198e-07	2.403010e-10	6.708763e+00	1.362446e+01
2.060000e-06	1.014451e-06	2.688987e-10	7.027647e+00	1.576619e+01
2.070000e-06	1.060509e-06	3.005292e-10	7.346711e+00	1.790577e+01
2.080000e-06	1.106544e-06	3.327422e-10	7.665626e+00	2.004038e+01
2.090000e-06	1.152520e-06	3.626896e-10	7.984127e+00	2.216725e+01
2.100000e-06	1.198427e-06	3.919252e-10	8.302146e+00	2.428366e+01
2.110000e-06	1.244208e-06	4.206914e-10	8.619299e+00	2.638696e+01
2.120000e-06	1.289860e-06	4.485827e-10	8.935554e+00	2.847462e+01
2.130000e-06	1.335504e-06	4.755835e-10	9.251754e+00	3.054416e+01
2.140000e-06	1.381099e-06	5.022675e-10	9.567614e+00	3.259327e+01
2.150000e-06	1.426569e-06	5.307873e-10	9.882606e+00	3.461973e+01
2.160000e-06	1.471954e-06	5.591344e-10	1.019701e+01	3.662147e+01
2.170000e-06	1.517242e-06	5.861681e-10	1.051075e+01	3.859655e+01
2.180000e-06	1.562426e-06	6.141287e-10	1.082376e+01	4.054320e+01
2.190000e-06	1.607504e-06	6.425806e-10	1.113604e+01	4.245978e+01
2.200000e-06	1.652432e-06	6.703941e-10	1.144728e+01	4.434483e+01
2.210000e-06	1.697145e-06	6.981656e-10	1.175704e+01	4.619703e+01
2.220000e-06	1.741629e-06	7.258421e-10	1.206520e+01	4.801523e+01
2.230000e-06	1.786005e-06	7.492751e-10	1.237262e+01	4.979843e+01
2.240000e-06	1.830370e-06	7.682020e-10	1.267995e+01	5.154579e+01
2.250000e-06	1.874624e-06	7.874464e-10	1.298653e+01	5.325663e+01
2.260000e-06	1.918774e-06	8.086714e-10	1.329238e+01	5.493038e+01
2.270000e-06	1.962849e-06	8.331391e-10	1.359771e+01	5.656666e+01
2.280000e-06	2.006791e-06	8.592359e-10	1.390212e+01	5.816519e+01
2.290000e-06	2.050633e-06	8.828771e-10	1.420583e+01	5.972583e+01
2.300000e-06	2.094399e-06	9.038866e-10	1.450902e+01	6.124857e+01
2.310000e-06	2.138104e-06	9.199007e-10	1.481179e+01	6.273348e+01
2.320000e-06	2.181764e-06	9.336451e-10	1.511425e+01	6.418078e+01
2.330000e-06	2.225329e-06	9.503615e-10	1.541605e+01	6.559073e+01
2.340000e-06	2.268799e-06	9.736169e-10	1.571719e+01	6.696372e+01
2.350000e-06	2.312136e-06	9.997601e-10	1.601741e+01	6.830020e+01
2.360000e-06	2.355223e-06	1.023564e-09	1.631589e+01	6.960068e+01
2.370000e-06	2.398056e-06	1.043098e-09	1.661262e+01	7.086573e+01
2.380000e-06	2.440663e-06	1.056008e-09	1.690778e+01	7.209598e+01
2.390000e-06	2.482858e-06	1.065694e-09	1.720009e+01	7.329209e+01
2.400000e-06	2.524680e-06	1.077028e-09	1.748981e+01	7.445476e+01
2.410000e-06	2.566254e-06	1.091761e-09	1.777782e+01	7.558471e+01
2.420000e-06	2.607519e-06	1.107997e-09	1.806368e+01	7.668268e+01
2.430000e-06	2.648556e-06	1.124607e-09	1.834797e+01	7.774941e+01
2.440000e-06	2.689274e-06	1.141016e-09	1.863004e+01	7.878565e+01
2.450000e-06	2.729715e-06	1.156827e-09	1.891020e+01	7.979216e+01
2.460000e-06	2.770009e-06	1.169205e-09	1.918933e+01	8.076968e+01
2.470000e-06	2.810131e-06	1.178557e-09	1.946728e+01	8.171893e+01
2.480000e-06	2.850056e-06	1.185494e-09	1.974386e+01	8.264062e+01
2.490000e-06	2.889838e-06	1.193279e-09	2.001946e+01	8.353544e+01
2.500000e-06	2.929553e-06	1.205948e-09	2.029458e+01	8.440406e+01
2.510000e-06	2.969182e-06	1.221954e-09	2.056912e+01	8.524713e+01
2.520000e-06	3.008625e-06	1.236557e-09	2.084236e+01	8.606524e+01
2.530000e-06	3.047848e-06	1.246357e-09	2.111407e+01	8.685900e+01
2.540000e-06	3.086852e-06	1.252787e-09	2.138428e+01	8.762896e+01
2.550000e-06	3.125570e-06	1.258155e-09	2.165250e+01	8.837564e+01
2.560000e-06	3.164100e-06	1.264639e-09	2.191942e+01	8.909955e+01
2.570000e-06	3.202442e-06	1.274667e-09	2.218503e+01	8.980117e+01
2.580000e-06	3.240571e-06	1.285460e-09	2.244917e+01	9.048096e+01
2.590000e-06	3.278476e-06	1.294536e-09	2.271176e+01	9.113935e+01
2.600000e-06	3.316155e-06	1.302912e-09	2.297278e+01	9.177677e+01
2.610000e-06	3.353672e-06	1.311843e-09	2.323269e+01	9.239361e+01
2.620000e-06	3.390974e-06	1.320373e-09	2.349109e+01	9.299029e+01
2.630000e-06	3.428011e-06	1.327942e-09	2.374767e+01	9.356720e+01
2.640000e-06	3.464696e-06	1.335826e-09	2.400181e+01	9.412474e+01
2.650000e-06	3.501103e-06	1.343927e-09	2.425402e+01	9.466330e+01
2.660000e-06	3.537329e-06	1.351542e-09	2.450497e+01	9.518330e+01
2.670000e-06	3.573346e-06	1.359583e-09	2.475448e+01	9.568516e+01
2.680000e-06	3.609202e-06	1.368906e-09	2.500288e+01	9.616932e+01
2.690000e-06	3.644937e-06	1.376164e-09	2.525043e+01	9.663625e+01
2.700000e-06	3.680560e-06	1.382781e-09	2.549721e+01	9.708643e+01
2.710000e-06	3.716046e-06	1.390200e-09	2.574304e+01	9.752037e+01
2.720000e-06	3.751321e-06	1.397604e-09	2.598741e+01	9.793862e+01
2.730000e-06	3.786283e-06	1.404681e-09	2.622961e+01	9.834174e+01
2.740000e-06	3.820877e-06	1.412679e-09	2.646926e+01	9.873034e+01
2.750000e-06	3.855061e-06	1.420227e-09	2.670607e+01	9.910504e+01
2.760000e-06	3.888692e-06	1.425050e-09	2.693906e+01	9.946650e+01
2.770000e-06	3.921784e-06	1.430913e-09	2.716830e+01	9.981540e+01
2.780000e-06	3.954494e-06	1.438848e-09	2.739490e+01	1.001525e+02
2.790000e-06	3.986845e-06	1.447095e-09	2.761901e+01	1.004784e+02
2.800000e-06	4.018896e-06	1.455478e-09	2.784104e+01	1.007939e+02
2.810000e-06	4.050759e-06	1.460544e-09	2.806178e+01	1.010998e+02
2.820000e-06	4.082477e-06	1.463006e-09	2.828151e+01	1.013967e+02
2.830000e-06	4.114076e-06	1.466223e-09	2.850041e+01	1.016855e+02
2.840000e-06	4.145529e-06	1.470168e-09	2.871830e+01	1.019669e+02
2.850000e-06	4.176654e-06	1.474520e-09	2.893392e+01	1.022415e+02
2.860000e-06	4.207354e-06	1.479589e-09	2.914660e+01	1.025100e+02
2.870000e-06	4.237733e-06	1.487425e-09	2.935705e+01	1.027731e+02
2.880000e-06	4.267814e-06	1.495924e-09	2.956543e+01	1.030314e+02
2.890000e-06	4.297635e-06	1.501361e-09	2.977202e+01	1.032854e+02
2.900000e-06	4.327212e-06	1.502621e-09	2.997692e+01	1.035357e+02
