# Temperatura_=_11.25
# Concentracion g/m^3_=_1620.0
# C_Vs_to_Am_M_A/Vsm_=_65563218390.804596
# pendiente_HvsI_1/m_=_3716.3
# ordenada_HvsI_A/m_=_1297.0
# frecuencia_Hz_=_135095.35056031513

Tiempo_(s)	Campo_(V.s)	Magnetizacion_(V.s)	Campo_(kA/m)	Magnetizacion_(A/m)
0.000000e+00	-5.517392e-06	-1.631753e-09	-3.837029e+01	-1.072878e+02
1.000000e-08	-5.517481e-06	-1.626142e-09	-3.837090e+01	-1.072093e+02
2.000000e-08	-5.517288e-06	-1.622707e-09	-3.836957e+01	-1.071305e+02
3.000000e-08	-5.516654e-06	-1.622513e-09	-3.836516e+01	-1.070525e+02
4.000000e-08	-5.515485e-06	-1.624273e-09	-3.835703e+01	-1.069761e+02
5.000000e-08	-5.513876e-06	-1.623250e-09	-3.834584e+01	-1.069022e+02
6.000000e-08	-5.511647e-06	-1.619912e-09	-3.833034e+01	-1.068315e+02
7.000000e-08	-5.508722e-06	-1.608155e-09	-3.830999e+01	-1.067647e+02
8.000000e-08	-5.505264e-06	-1.619782e-09	-3.828594e+01	-1.067024e+02
9.000000e-08	-5.501360e-06	-1.675933e-09	-3.825879e+01	-1.066449e+02
1.000000e-07	-5.497102e-06	-1.674682e-09	-3.822918e+01	-1.065926e+02
1.100000e-07	-5.492555e-06	-1.582365e-09	-3.819756e+01	-1.065455e+02
1.200000e-07	-5.487791e-06	-1.510168e-09	-3.816443e+01	-1.065038e+02
1.300000e-07	-5.482827e-06	-1.592496e-09	-3.812990e+01	-1.064672e+02
1.400000e-07	-5.477459e-06	-1.676266e-09	-3.809258e+01	-1.064353e+02
1.500000e-07	-5.471612e-06	-1.630319e-09	-3.805191e+01	-1.064078e+02
1.600000e-07	-5.465403e-06	-1.568834e-09	-3.800873e+01	-1.063839e+02
1.700000e-07	-5.458788e-06	-1.595304e-09	-3.796273e+01	-1.063629e+02
1.800000e-07	-5.451691e-06	-1.665646e-09	-3.791337e+01	-1.063440e+02
1.900000e-07	-5.444277e-06	-1.616224e-09	-3.786182e+01	-1.063261e+02
2.000000e-07	-5.436685e-06	-1.573706e-09	-3.780901e+01	-1.063081e+02
2.100000e-07	-5.428836e-06	-1.603711e-09	-3.775443e+01	-1.062889e+02
2.200000e-07	-5.420672e-06	-1.677011e-09	-3.769766e+01	-1.062674e+02
2.300000e-07	-5.412159e-06	-1.649636e-09	-3.763845e+01	-1.062423e+02
2.400000e-07	-5.403173e-06	-1.598200e-09	-3.757596e+01	-1.062123e+02
2.500000e-07	-5.393447e-06	-1.590840e-09	-3.750832e+01	-1.061764e+02
2.600000e-07	-5.383081e-06	-1.628165e-09	-3.743623e+01	-1.061333e+02
2.700000e-07	-5.372184e-06	-1.623947e-09	-3.736045e+01	-1.060820e+02
2.800000e-07	-5.360804e-06	-1.603155e-09	-3.728131e+01	-1.060215e+02
2.900000e-07	-5.349072e-06	-1.605064e-09	-3.719972e+01	-1.059510e+02
3.000000e-07	-5.336927e-06	-1.617846e-09	-3.711525e+01	-1.058697e+02
3.100000e-07	-5.324421e-06	-1.617252e-09	-3.702829e+01	-1.057770e+02
3.200000e-07	-5.311514e-06	-1.591160e-09	-3.693852e+01	-1.056724e+02
3.300000e-07	-5.298151e-06	-1.594761e-09	-3.684559e+01	-1.055558e+02
3.400000e-07	-5.284424e-06	-1.614478e-09	-3.675013e+01	-1.054269e+02
3.500000e-07	-5.270349e-06	-1.619159e-09	-3.665224e+01	-1.052858e+02
3.600000e-07	-5.255808e-06	-1.599239e-09	-3.655112e+01	-1.051327e+02
3.700000e-07	-5.240763e-06	-1.611171e-09	-3.644649e+01	-1.049680e+02
3.800000e-07	-5.225148e-06	-1.602234e-09	-3.633790e+01	-1.047923e+02
3.900000e-07	-5.208943e-06	-1.565446e-09	-3.622520e+01	-1.046061e+02
4.000000e-07	-5.192345e-06	-1.564336e-09	-3.610977e+01	-1.044102e+02
4.100000e-07	-5.175449e-06	-1.615246e-09	-3.599227e+01	-1.042056e+02
4.200000e-07	-5.158305e-06	-1.588956e-09	-3.587304e+01	-1.039932e+02
4.300000e-07	-5.140823e-06	-1.556748e-09	-3.575147e+01	-1.037741e+02
4.400000e-07	-5.122905e-06	-1.595111e-09	-3.562686e+01	-1.035493e+02
4.500000e-07	-5.104577e-06	-1.615513e-09	-3.549940e+01	-1.033200e+02
4.600000e-07	-5.085802e-06	-1.539763e-09	-3.536883e+01	-1.030873e+02
4.700000e-07	-5.066649e-06	-1.540903e-09	-3.523563e+01	-1.028522e+02
4.800000e-07	-5.047300e-06	-1.591232e-09	-3.510107e+01	-1.026159e+02
4.900000e-07	-5.027739e-06	-1.562943e-09	-3.496503e+01	-1.023794e+02
5.000000e-07	-5.007920e-06	-1.527171e-09	-3.482720e+01	-1.021435e+02
5.100000e-07	-4.987874e-06	-1.579242e-09	-3.468779e+01	-1.019090e+02
5.200000e-07	-4.967456e-06	-1.571838e-09	-3.454580e+01	-1.016767e+02
5.300000e-07	-4.946667e-06	-1.521085e-09	-3.440123e+01	-1.014471e+02
5.400000e-07	-4.925532e-06	-1.545316e-09	-3.425424e+01	-1.012207e+02
5.500000e-07	-4.904078e-06	-1.568281e-09	-3.410504e+01	-1.009978e+02
5.600000e-07	-4.882349e-06	-1.515907e-09	-3.395393e+01	-1.007786e+02
5.700000e-07	-4.860224e-06	-1.515772e-09	-3.380006e+01	-1.005630e+02
5.800000e-07	-4.837687e-06	-1.555119e-09	-3.364333e+01	-1.003510e+02
5.900000e-07	-4.814827e-06	-1.525376e-09	-3.348435e+01	-1.001423e+02
6.000000e-07	-4.791718e-06	-1.499684e-09	-3.332364e+01	-9.993662e+01
6.100000e-07	-4.768416e-06	-1.528451e-09	-3.316159e+01	-9.973340e+01
6.200000e-07	-4.744871e-06	-1.520627e-09	-3.299785e+01	-9.953210e+01
6.300000e-07	-4.720983e-06	-1.488875e-09	-3.283172e+01	-9.933205e+01
6.400000e-07	-4.696833e-06	-1.508915e-09	-3.266377e+01	-9.913254e+01
6.500000e-07	-4.672367e-06	-1.513709e-09	-3.249362e+01	-9.893279e+01
6.600000e-07	-4.647385e-06	-1.492420e-09	-3.231989e+01	-9.873200e+01
6.700000e-07	-4.621845e-06	-1.496922e-09	-3.214227e+01	-9.852936e+01
6.800000e-07	-4.595668e-06	-1.506544e-09	-3.196023e+01	-9.832406e+01
6.900000e-07	-4.568931e-06	-1.478734e-09	-3.177429e+01	-9.811531e+01
7.000000e-07	-4.541810e-06	-1.474274e-09	-3.158567e+01	-9.790236e+01
7.100000e-07	-4.514400e-06	-1.482504e-09	-3.139505e+01	-9.768454e+01
7.200000e-07	-4.486822e-06	-1.474983e-09	-3.120326e+01	-9.746121e+01
7.300000e-07	-4.459125e-06	-1.467374e-09	-3.101065e+01	-9.723184e+01
7.400000e-07	-4.431230e-06	-1.475195e-09	-3.081666e+01	-9.699597e+01
7.500000e-07	-4.403053e-06	-1.463289e-09	-3.062070e+01	-9.675325e+01
7.600000e-07	-4.374520e-06	-1.455412e-09	-3.042227e+01	-9.650342e+01
7.700000e-07	-4.345687e-06	-1.456557e-09	-3.022175e+01	-9.624634e+01
7.800000e-07	-4.316556e-06	-1.449188e-09	-3.001917e+01	-9.598194e+01
7.900000e-07	-4.287063e-06	-1.434554e-09	-2.981405e+01	-9.571029e+01
8.000000e-07	-4.257346e-06	-1.436439e-09	-2.960739e+01	-9.543152e+01
8.100000e-07	-4.227359e-06	-1.428880e-09	-2.939885e+01	-9.514588e+01
8.200000e-07	-4.196956e-06	-1.413873e-09	-2.918741e+01	-9.485367e+01
8.300000e-07	-4.166322e-06	-1.412177e-09	-2.897438e+01	-9.455527e+01
8.400000e-07	-4.135523e-06	-1.417852e-09	-2.876019e+01	-9.425113e+01
8.500000e-07	-4.104449e-06	-1.409806e-09	-2.854408e+01	-9.394172e+01
8.600000e-07	-4.073221e-06	-1.401273e-09	-2.832691e+01	-9.362756e+01
8.700000e-07	-4.041790e-06	-1.397887e-09	-2.810832e+01	-9.330918e+01
8.800000e-07	-4.010095e-06	-1.386333e-09	-2.788791e+01	-9.298710e+01
8.900000e-07	-3.978181e-06	-1.375011e-09	-2.766596e+01	-9.266186e+01
9.000000e-07	-3.945991e-06	-1.374567e-09	-2.744210e+01	-9.233393e+01
9.100000e-07	-3.913471e-06	-1.372181e-09	-2.721594e+01	-9.200379e+01
9.200000e-07	-3.880543e-06	-1.360877e-09	-2.698694e+01	-9.167186e+01
9.300000e-07	-3.847229e-06	-1.358922e-09	-2.675526e+01	-9.133848e+01
9.400000e-07	-3.813462e-06	-1.359001e-09	-2.652044e+01	-9.100396e+01
9.500000e-07	-3.779191e-06	-1.349515e-09	-2.628210e+01	-9.066853e+01
9.600000e-07	-3.744550e-06	-1.338238e-09	-2.604119e+01	-9.033234e+01
9.700000e-07	-3.709509e-06	-1.337340e-09	-2.579750e+01	-8.999546e+01
9.800000e-07	-3.674150e-06	-1.329528e-09	-2.555160e+01	-8.965791e+01
9.900000e-07	-3.638692e-06	-1.317337e-09	-2.530501e+01	-8.931961e+01
1.000000e-06	-3.603102e-06	-1.309844e-09	-2.505750e+01	-8.898042e+01
1.010000e-06	-3.567366e-06	-1.308592e-09	-2.480898e+01	-8.864012e+01
1.020000e-06	-3.531488e-06	-1.300521e-09	-2.455947e+01	-8.829846e+01
1.030000e-06	-3.495385e-06	-1.297741e-09	-2.430839e+01	-8.795510e+01
1.040000e-06	-3.459035e-06	-1.297148e-09	-2.405560e+01	-8.760969e+01
1.050000e-06	-3.422381e-06	-1.291815e-09	-2.380069e+01	-8.726181e+01
1.060000e-06	-3.385429e-06	-1.283260e-09	-2.354371e+01	-8.691105e+01
1.070000e-06	-3.348263e-06	-1.278347e-09	-2.328524e+01	-8.655695e+01
1.080000e-06	-3.310841e-06	-1.269414e-09	-2.302500e+01	-8.619907e+01
1.090000e-06	-3.273172e-06	-1.260037e-09	-2.276303e+01	-8.583697e+01
1.100000e-06	-3.235334e-06	-1.253948e-09	-2.249989e+01	-8.547020e+01
1.110000e-06	-3.197293e-06	-1.248938e-09	-2.223534e+01	-8.509835e+01
1.120000e-06	-3.159004e-06	-1.240050e-09	-2.196905e+01	-8.472104e+01
1.130000e-06	-3.120488e-06	-1.235101e-09	-2.170120e+01	-8.433791e+01
1.140000e-06	-3.081709e-06	-1.232534e-09	-2.143151e+01	-8.394865e+01
1.150000e-06	-3.042706e-06	-1.226244e-09	-2.116027e+01	-8.355298e+01
1.160000e-06	-3.003578e-06	-1.216858e-09	-2.088816e+01	-8.315069e+01
1.170000e-06	-2.964350e-06	-1.208069e-09	-2.061535e+01	-8.274158e+01
1.180000e-06	-2.924981e-06	-1.204011e-09	-2.034156e+01	-8.232552e+01
1.190000e-06	-2.885442e-06	-1.200641e-09	-2.006659e+01	-8.190242e+01
1.200000e-06	-2.845775e-06	-1.195962e-09	-1.979073e+01	-8.147221e+01
1.210000e-06	-2.805983e-06	-1.188326e-09	-1.951400e+01	-8.103488e+01
1.220000e-06	-2.766023e-06	-1.180472e-09	-1.923610e+01	-8.059044e+01
1.230000e-06	-2.725866e-06	-1.173386e-09	-1.895683e+01	-8.013892e+01
1.240000e-06	-2.685542e-06	-1.166814e-09	-1.867640e+01	-7.968036e+01
1.250000e-06	-2.644932e-06	-1.160209e-09	-1.839398e+01	-7.921483e+01
1.260000e-06	-2.604031e-06	-1.153833e-09	-1.810954e+01	-7.874239e+01
1.270000e-06	-2.562824e-06	-1.145082e-09	-1.782296e+01	-7.826310e+01
1.280000e-06	-2.521317e-06	-1.135659e-09	-1.753431e+01	-7.777699e+01
1.290000e-06	-2.479615e-06	-1.123079e-09	-1.724429e+01	-7.728410e+01
1.300000e-06	-2.437606e-06	-1.112876e-09	-1.695215e+01	-7.678441e+01
1.310000e-06	-2.395316e-06	-1.105309e-09	-1.665805e+01	-7.627791e+01
1.320000e-06	-2.352696e-06	-1.098988e-09	-1.636165e+01	-7.576451e+01
1.330000e-06	-2.309801e-06	-1.090504e-09	-1.606334e+01	-7.524410e+01
1.340000e-06	-2.266738e-06	-1.084273e-09	-1.576386e+01	-7.471653e+01
1.350000e-06	-2.223501e-06	-1.078652e-09	-1.546317e+01	-7.418160e+01
1.360000e-06	-2.180123e-06	-1.070041e-09	-1.516150e+01	-7.363906e+01
1.370000e-06	-2.136600e-06	-1.058544e-09	-1.485882e+01	-7.308861e+01
1.380000e-06	-2.092998e-06	-1.046410e-09	-1.455560e+01	-7.252992e+01
1.390000e-06	-2.049322e-06	-1.033035e-09	-1.425185e+01	-7.196258e+01
1.400000e-06	-2.005572e-06	-1.022754e-09	-1.394760e+01	-7.138618e+01
1.410000e-06	-1.961746e-06	-1.014764e-09	-1.364281e+01	-7.080025e+01
1.420000e-06	-1.917814e-06	-1.005378e-09	-1.333729e+01	-7.020427e+01
1.430000e-06	-1.873784e-06	-9.954906e-10	-1.303109e+01	-6.959773e+01
1.440000e-06	-1.829667e-06	-9.865490e-10	-1.272428e+01	-6.898005e+01
1.450000e-06	-1.785462e-06	-9.768497e-10	-1.241686e+01	-6.835066e+01
1.460000e-06	-1.741156e-06	-9.641539e-10	-1.210874e+01	-6.770895e+01
1.470000e-06	-1.696672e-06	-9.506320e-10	-1.179938e+01	-6.705431e+01
1.480000e-06	-1.652029e-06	-9.373007e-10	-1.148891e+01	-6.638611e+01
1.490000e-06	-1.607287e-06	-9.213270e-10	-1.117775e+01	-6.570374e+01
1.500000e-06	-1.562389e-06	-9.054511e-10	-1.086552e+01	-6.500655e+01
1.510000e-06	-1.517398e-06	-8.929452e-10	-1.055263e+01	-6.429391e+01
1.520000e-06	-1.472242e-06	-8.803503e-10	-1.023859e+01	-6.356519e+01
1.530000e-06	-1.426856e-06	-8.676932e-10	-9.922960e+00	-6.281976e+01
1.540000e-06	-1.381438e-06	-8.558571e-10	-9.607109e+00	-6.205700e+01
1.550000e-06	-1.335997e-06	-8.461833e-10	-9.291090e+00	-6.127626e+01
1.560000e-06	-1.290411e-06	-8.359414e-10	-8.974069e+00	-6.047694e+01
1.570000e-06	-1.244784e-06	-8.249936e-10	-8.656759e+00	-5.965839e+01
1.580000e-06	-1.199114e-06	-8.107321e-10	-8.339147e+00	-5.881999e+01
1.590000e-06	-1.153384e-06	-7.953123e-10	-8.021120e+00	-5.796109e+01
1.600000e-06	-1.107670e-06	-7.816891e-10	-7.703206e+00	-5.708106e+01
1.610000e-06	-1.061839e-06	-7.695841e-10	-7.384478e+00	-5.617922e+01
1.620000e-06	-1.015848e-06	-7.580423e-10	-7.064640e+00	-5.525491e+01
1.630000e-06	-9.698187e-07	-7.478399e-10	-6.744531e+00	-5.430744e+01
1.640000e-06	-9.237113e-07	-7.355051e-10	-6.423881e+00	-5.333610e+01
1.650000e-06	-8.774023e-07	-7.195212e-10	-6.101828e+00	-5.234016e+01
1.660000e-06	-8.310368e-07	-7.009109e-10	-5.779383e+00	-5.131887e+01
1.670000e-06	-7.847250e-07	-6.815099e-10	-5.457311e+00	-5.027147e+01
1.680000e-06	-7.383176e-07	-6.631965e-10	-5.134574e+00	-4.919717e+01
1.690000e-06	-6.918293e-07	-6.441845e-10	-4.811274e+00	-4.809516e+01
1.700000e-06	-6.453093e-07	-6.240605e-10	-4.487755e+00	-4.696464e+01
1.710000e-06	-5.987572e-07	-6.062292e-10	-4.164012e+00	-4.580479e+01
1.720000e-06	-5.522587e-07	-5.895122e-10	-3.840641e+00	-4.461477e+01
1.730000e-06	-5.056763e-07	-5.697492e-10	-3.516688e+00	-4.339377e+01
1.740000e-06	-4.589341e-07	-5.502160e-10	-3.191622e+00	-4.214099e+01
1.750000e-06	-4.122378e-07	-5.297734e-10	-2.866877e+00	-4.085564e+01
1.760000e-06	-3.655639e-07	-5.078587e-10	-2.542287e+00	-3.953697e+01
1.770000e-06	-3.188552e-07	-4.867612e-10	-2.217454e+00	-3.818429e+01
1.780000e-06	-2.720690e-07	-4.664888e-10	-1.892083e+00	-3.679693e+01
1.790000e-06	-2.251788e-07	-4.450353e-10	-1.565989e+00	-3.537432e+01
1.800000e-06	-1.783290e-07	-4.228537e-10	-1.240176e+00	-3.391596e+01
1.810000e-06	-1.315875e-07	-4.026493e-10	-9.151152e-01	-3.242144e+01
1.820000e-06	-8.480882e-08	-3.825938e-10	-5.897966e-01	-3.089044e+01
1.830000e-06	-3.795425e-08	-3.619208e-10	-2.639500e-01	-2.932278e+01
1.840000e-06	8.860090e-09	-3.404934e-10	6.161683e-02	-2.771839e+01
1.850000e-06	5.560848e-08	-3.173835e-10	3.867250e-01	-2.607735e+01
1.860000e-06	1.023458e-07	-2.939283e-10	7.117561e-01	-2.439987e+01
1.870000e-06	1.491266e-07	-2.698182e-10	1.037090e+00	-2.268633e+01
1.880000e-06	1.958813e-07	-2.453067e-10	1.362242e+00	-2.093725e+01
1.890000e-06	2.426701e-07	-2.189953e-10	1.687631e+00	-1.915334e+01
1.900000e-06	2.894663e-07	-1.911553e-10	2.013072e+00	-1.733546e+01
1.910000e-06	3.362141e-07	-1.644832e-10	2.338176e+00	-1.548464e+01
1.920000e-06	3.828945e-07	-1.362142e-10	2.662811e+00	-1.360209e+01
1.930000e-06	4.295139e-07	-1.091437e-10	2.987022e+00	-1.168919e+01
1.940000e-06	4.761678e-07	-8.256171e-11	3.311473e+00	-9.747466e+00
1.950000e-06	5.228074e-07	-5.729919e-11	3.635825e+00	-7.778623e+00
1.960000e-06	5.693758e-07	-3.347198e-11	3.959681e+00	-5.784507e+00
1.970000e-06	6.158767e-07	-8.265539e-12	4.283068e+00	-3.767108e+00
1.980000e-06	6.622709e-07	1.986876e-11	4.605713e+00	-1.728549e+00
1.990000e-06	7.085274e-07	5.266556e-11	4.927401e+00	3.289263e-01
2.000000e-06	7.547526e-07	8.713582e-11	5.248870e+00	2.402967e+00
2.010000e-06	8.009718e-07	1.200520e-10	5.570298e+00	4.491126e+00
2.020000e-06	8.470717e-07	1.496997e-10	5.890896e+00	6.590880e+00
2.030000e-06	8.930797e-07	1.769198e-10	6.210856e+00	8.699640e+00
2.040000e-06	9.391106e-07	2.024261e-10	6.530974e+00	1.081477e+01
2.050000e-06	9.851430e-07	2.295349e-10	6.851103e+00	1.293359e+01
2.060000e-06	1.031048e-06	2.595344e-10	7.170347e+00	1.505343e+01
2.070000e-06	1.076845e-06	2.923195e-10	7.488835e+00	1.717158e+01
2.080000e-06	1.122667e-06	3.278284e-10	7.807503e+00	1.928539e+01
2.090000e-06	1.168413e-06	3.608023e-10	8.125638e+00	2.139220e+01
2.100000e-06	1.214044e-06	3.900412e-10	8.442976e+00	2.348941e+01
2.110000e-06	1.259590e-06	4.182261e-10	8.759722e+00	2.557448e+01
2.120000e-06	1.305071e-06	4.467096e-10	9.076021e+00	2.764494e+01
2.130000e-06	1.350496e-06	4.733502e-10	9.391926e+00	2.969839e+01
2.140000e-06	1.395827e-06	4.961189e-10	9.707171e+00	3.173254e+01
2.150000e-06	1.441069e-06	5.204519e-10	1.002181e+01	3.374518e+01
2.160000e-06	1.486191e-06	5.485136e-10	1.033560e+01	3.573423e+01
2.170000e-06	1.531193e-06	5.783381e-10	1.064857e+01	3.769772e+01
2.180000e-06	1.576026e-06	6.090892e-10	1.096036e+01	3.963380e+01
2.190000e-06	1.620722e-06	6.388929e-10	1.127119e+01	4.154075e+01
2.200000e-06	1.665341e-06	6.658479e-10	1.158149e+01	4.341700e+01
2.210000e-06	1.709816e-06	6.910310e-10	1.189079e+01	4.526110e+01
2.220000e-06	1.754105e-06	7.156061e-10	1.219879e+01	4.707174e+01
2.230000e-06	1.798291e-06	7.385270e-10	1.250608e+01	4.884775e+01
2.240000e-06	1.842366e-06	7.597462e-10	1.281260e+01	5.058811e+01
2.250000e-06	1.886274e-06	7.801692e-10	1.311795e+01	5.229194e+01
2.260000e-06	1.930085e-06	8.014895e-10	1.342263e+01	5.395849e+01
2.270000e-06	1.973836e-06	8.243820e-10	1.372690e+01	5.558716e+01
2.280000e-06	2.017522e-06	8.470583e-10	1.403071e+01	5.717747e+01
2.290000e-06	2.061193e-06	8.698099e-10	1.433441e+01	5.872908e+01
2.300000e-06	2.104801e-06	8.917706e-10	1.463768e+01	6.024180e+01
2.310000e-06	2.148306e-06	9.122044e-10	1.494023e+01	6.171553e+01
2.320000e-06	2.191762e-06	9.314162e-10	1.524245e+01	6.315032e+01
2.330000e-06	2.235151e-06	9.506210e-10	1.554419e+01	6.454631e+01
2.340000e-06	2.278458e-06	9.703906e-10	1.584536e+01	6.590377e+01
2.350000e-06	2.321589e-06	9.893232e-10	1.614532e+01	6.722307e+01
2.360000e-06	2.364470e-06	1.006429e-09	1.644353e+01	6.850468e+01
2.370000e-06	2.407020e-06	1.022338e-09	1.673944e+01	6.974914e+01
2.380000e-06	2.449260e-06	1.037588e-09	1.703320e+01	7.095711e+01
2.390000e-06	2.491173e-06	1.053184e-09	1.732468e+01	7.212929e+01
2.400000e-06	2.532733e-06	1.070221e-09	1.761370e+01	7.326648e+01
2.410000e-06	2.574017e-06	1.086991e-09	1.790081e+01	7.436950e+01
2.420000e-06	2.614968e-06	1.100377e-09	1.818560e+01	7.543925e+01
2.430000e-06	2.655693e-06	1.112208e-09	1.846882e+01	7.647668e+01
2.440000e-06	2.696205e-06	1.123264e-09	1.875055e+01	7.748273e+01
2.450000e-06	2.736402e-06	1.133054e-09	1.903010e+01	7.845841e+01
2.460000e-06	2.776351e-06	1.144798e-09	1.930792e+01	7.940470e+01
2.470000e-06	2.816185e-06	1.156802e-09	1.958495e+01	8.032262e+01
2.480000e-06	2.855929e-06	1.166882e-09	1.986135e+01	8.121317e+01
2.490000e-06	2.895584e-06	1.177295e-09	2.013712e+01	8.207732e+01
2.500000e-06	2.935191e-06	1.189432e-09	2.041257e+01	8.291604e+01
2.510000e-06	2.974681e-06	1.202550e-09	2.068719e+01	8.373026e+01
2.520000e-06	3.013991e-06	1.214618e-09	2.096057e+01	8.452087e+01
2.530000e-06	3.053041e-06	1.226082e-09	2.123214e+01	8.528873e+01
2.540000e-06	3.091785e-06	1.236842e-09	2.150158e+01	8.603461e+01
2.550000e-06	3.130350e-06	1.244009e-09	2.176979e+01	8.675927e+01
2.560000e-06	3.168725e-06	1.249722e-09	2.203666e+01	8.746339e+01
2.570000e-06	3.206823e-06	1.256666e-09	2.230161e+01	8.814759e+01
2.580000e-06	3.244706e-06	1.265912e-09	2.256507e+01	8.881242e+01
2.590000e-06	3.282442e-06	1.276676e-09	2.282750e+01	8.945839e+01
2.600000e-06	3.319925e-06	1.288056e-09	2.308817e+01	9.008591e+01
2.610000e-06	3.357105e-06	1.299673e-09	2.334674e+01	9.069538e+01
2.620000e-06	3.394114e-06	1.308920e-09	2.360411e+01	9.128711e+01
2.630000e-06	3.430867e-06	1.316579e-09	2.385970e+01	9.186136e+01
2.640000e-06	3.467300e-06	1.322946e-09	2.411308e+01	9.241837e+01
2.650000e-06	3.503508e-06	1.327874e-09	2.436488e+01	9.295833e+01
2.660000e-06	3.539514e-06	1.334165e-09	2.461528e+01	9.348139e+01
2.670000e-06	3.575357e-06	1.341805e-09	2.486455e+01	9.398771e+01
2.680000e-06	3.611081e-06	1.350929e-09	2.511299e+01	9.447740e+01
2.690000e-06	3.646704e-06	1.361321e-09	2.536073e+01	9.495061e+01
2.700000e-06	3.682212e-06	1.371841e-09	2.560767e+01	9.540746e+01
2.710000e-06	3.717540e-06	1.380870e-09	2.585335e+01	9.584812e+01
2.720000e-06	3.752593e-06	1.387960e-09	2.609712e+01	9.627277e+01
2.730000e-06	3.787248e-06	1.393351e-09	2.633813e+01	9.668162e+01
2.740000e-06	3.821523e-06	1.396799e-09	2.657649e+01	9.707494e+01
2.750000e-06	3.855281e-06	1.396790e-09	2.681126e+01	9.745304e+01
2.760000e-06	3.888487e-06	1.397671e-09	2.704219e+01	9.781628e+01
2.770000e-06	3.921329e-06	1.402566e-09	2.727059e+01	9.816508e+01
2.780000e-06	3.953820e-06	1.410162e-09	2.749654e+01	9.849994e+01
2.790000e-06	3.985927e-06	1.420768e-09	2.771983e+01	9.882139e+01
2.800000e-06	4.017773e-06	1.430831e-09	2.794130e+01	9.913006e+01
2.810000e-06	4.049511e-06	1.436365e-09	2.816202e+01	9.942660e+01
2.820000e-06	4.081150e-06	1.440254e-09	2.838205e+01	9.971175e+01
2.830000e-06	4.112616e-06	1.443370e-09	2.860088e+01	9.998627e+01
2.840000e-06	4.143751e-06	1.444319e-09	2.881740e+01	1.002510e+02
2.850000e-06	4.174530e-06	1.445350e-09	2.903146e+01	1.005067e+02
2.860000e-06	4.204972e-06	1.449204e-09	2.924316e+01	1.007544e+02
2.870000e-06	4.235118e-06	1.455418e-09	2.945281e+01	1.009949e+02
2.880000e-06	4.264990e-06	1.460557e-09	2.966055e+01	1.012290e+02
2.890000e-06	4.294586e-06	1.465690e-09	2.986638e+01	1.014576e+02
2.900000e-06	4.323982e-06	1.467905e-09	3.007081e+01	1.016817e+02
