# Temperatura_=_-9.2
# Concentracion g/m^3_=_1620.0
# C_Vs_to_Am_M_A/Vsm_=_65563218390.804596
# pendiente_HvsI_1/m_=_3716.3
# ordenada_HvsI_A/m_=_1297.0
# frecuencia_Hz_=_135102.38861251716

Tiempo_(s)	Campo_(V.s)	Magnetizacion_(V.s)	Campo_(kA/m)	Magnetizacion_(A/m)
0.000000e+00	-5.532776e-06	-1.159438e-09	-3.836228e+01	-7.597810e+01
1.000000e-08	-5.533023e-06	-1.158196e-09	-3.836399e+01	-7.591081e+01
2.000000e-08	-5.533013e-06	-1.155227e-09	-3.836392e+01	-7.584771e+01
3.000000e-08	-5.532753e-06	-1.152311e-09	-3.836212e+01	-7.578899e+01
4.000000e-08	-5.532012e-06	-1.150336e-09	-3.835699e+01	-7.573477e+01
5.000000e-08	-5.530595e-06	-1.147159e-09	-3.834716e+01	-7.568509e+01
6.000000e-08	-5.528572e-06	-1.142110e-09	-3.833313e+01	-7.563990e+01
7.000000e-08	-5.526063e-06	-1.147120e-09	-3.831574e+01	-7.559906e+01
8.000000e-08	-5.523064e-06	-1.153083e-09	-3.829494e+01	-7.556235e+01
9.000000e-08	-5.519536e-06	-1.147355e-09	-3.827048e+01	-7.552945e+01
1.000000e-07	-5.515539e-06	-1.154133e-09	-3.824277e+01	-7.549996e+01
1.100000e-07	-5.511225e-06	-1.166534e-09	-3.821286e+01	-7.547341e+01
1.200000e-07	-5.506681e-06	-1.150894e-09	-3.818135e+01	-7.544924e+01
1.300000e-07	-5.501884e-06	-1.125617e-09	-3.814809e+01	-7.542684e+01
1.400000e-07	-5.496839e-06	-1.121337e-09	-3.811311e+01	-7.540553e+01
1.500000e-07	-5.491464e-06	-1.168821e-09	-3.807584e+01	-7.538460e+01
1.600000e-07	-5.485638e-06	-1.161852e-09	-3.803545e+01	-7.536329e+01
1.700000e-07	-5.479424e-06	-1.138718e-09	-3.799236e+01	-7.534083e+01
1.800000e-07	-5.472750e-06	-1.131673e-09	-3.794608e+01	-7.531644e+01
1.900000e-07	-5.465609e-06	-1.162198e-09	-3.789657e+01	-7.528934e+01
2.000000e-07	-5.458152e-06	-1.148669e-09	-3.784487e+01	-7.525878e+01
2.100000e-07	-5.450422e-06	-1.118609e-09	-3.779127e+01	-7.522404e+01
2.200000e-07	-5.442506e-06	-1.135208e-09	-3.773638e+01	-7.518443e+01
2.300000e-07	-5.434363e-06	-1.171720e-09	-3.767992e+01	-7.513932e+01
2.400000e-07	-5.425694e-06	-1.177852e-09	-3.761982e+01	-7.508818e+01
2.500000e-07	-5.416459e-06	-1.148427e-09	-3.755578e+01	-7.503051e+01
2.600000e-07	-5.406571e-06	-1.151019e-09	-3.748722e+01	-7.496592e+01
2.700000e-07	-5.395916e-06	-1.157780e-09	-3.741334e+01	-7.489414e+01
2.800000e-07	-5.384688e-06	-1.161956e-09	-3.733549e+01	-7.481494e+01
2.900000e-07	-5.373023e-06	-1.141255e-09	-3.725461e+01	-7.472825e+01
3.000000e-07	-5.361011e-06	-1.143280e-09	-3.717133e+01	-7.463407e+01
3.100000e-07	-5.348673e-06	-1.143405e-09	-3.708578e+01	-7.453251e+01
3.200000e-07	-5.335962e-06	-1.149355e-09	-3.699764e+01	-7.442381e+01
3.300000e-07	-5.322821e-06	-1.134152e-09	-3.690653e+01	-7.430826e+01
3.400000e-07	-5.309310e-06	-1.133530e-09	-3.681285e+01	-7.418630e+01
3.500000e-07	-5.295413e-06	-1.137588e-09	-3.671649e+01	-7.405840e+01
3.600000e-07	-5.281074e-06	-1.146845e-09	-3.661707e+01	-7.392515e+01
3.700000e-07	-5.266298e-06	-1.137897e-09	-3.651462e+01	-7.378720e+01
3.800000e-07	-5.251055e-06	-1.140334e-09	-3.640893e+01	-7.364524e+01
3.900000e-07	-5.235309e-06	-1.145290e-09	-3.629976e+01	-7.350002e+01
4.000000e-07	-5.219108e-06	-1.134907e-09	-3.618742e+01	-7.335232e+01
4.100000e-07	-5.202442e-06	-1.117302e-09	-3.607187e+01	-7.320294e+01
4.200000e-07	-5.185414e-06	-1.131580e-09	-3.595380e+01	-7.305269e+01
4.300000e-07	-5.168167e-06	-1.139221e-09	-3.583422e+01	-7.290237e+01
4.400000e-07	-5.150655e-06	-1.119503e-09	-3.571280e+01	-7.275275e+01
4.500000e-07	-5.132793e-06	-1.119390e-09	-3.558894e+01	-7.260459e+01
4.600000e-07	-5.114413e-06	-1.135114e-09	-3.546151e+01	-7.245860e+01
4.700000e-07	-5.095511e-06	-1.120305e-09	-3.533044e+01	-7.231544e+01
4.800000e-07	-5.076249e-06	-1.095673e-09	-3.519689e+01	-7.217570e+01
4.900000e-07	-5.056764e-06	-1.110694e-09	-3.506178e+01	-7.203990e+01
5.000000e-07	-5.037080e-06	-1.115437e-09	-3.492531e+01	-7.190849e+01
5.100000e-07	-5.017223e-06	-1.099722e-09	-3.478763e+01	-7.178184e+01
5.200000e-07	-4.997093e-06	-1.101421e-09	-3.464805e+01	-7.166024e+01
5.300000e-07	-4.976534e-06	-1.116380e-09	-3.450550e+01	-7.154387e+01
5.400000e-07	-4.955543e-06	-1.099173e-09	-3.435995e+01	-7.143285e+01
5.500000e-07	-4.934228e-06	-1.091223e-09	-3.421217e+01	-7.132720e+01
5.600000e-07	-4.912582e-06	-1.100792e-09	-3.406208e+01	-7.122685e+01
5.700000e-07	-4.890621e-06	-1.097881e-09	-3.390981e+01	-7.113168e+01
5.800000e-07	-4.868392e-06	-1.083427e-09	-3.375568e+01	-7.104145e+01
5.900000e-07	-4.845756e-06	-1.096688e-09	-3.359873e+01	-7.095590e+01
6.000000e-07	-4.822756e-06	-1.101486e-09	-3.343926e+01	-7.087466e+01
6.100000e-07	-4.799466e-06	-1.085977e-09	-3.327777e+01	-7.079736e+01
6.200000e-07	-4.775907e-06	-1.077380e-09	-3.311443e+01	-7.072354e+01
6.300000e-07	-4.752191e-06	-1.082535e-09	-3.294999e+01	-7.065273e+01
6.400000e-07	-4.728214e-06	-1.075660e-09	-3.278374e+01	-7.058442e+01
6.500000e-07	-4.703823e-06	-1.074244e-09	-3.261462e+01	-7.051809e+01
6.600000e-07	-4.679009e-06	-1.081654e-09	-3.244257e+01	-7.045321e+01
6.700000e-07	-4.653670e-06	-1.086727e-09	-3.226688e+01	-7.038925e+01
6.800000e-07	-4.627727e-06	-1.081369e-09	-3.208700e+01	-7.032568e+01
6.900000e-07	-4.601263e-06	-1.082209e-09	-3.190351e+01	-7.026200e+01
7.000000e-07	-4.574392e-06	-1.082301e-09	-3.171719e+01	-7.019772e+01
7.100000e-07	-4.547194e-06	-1.078666e-09	-3.152861e+01	-7.013238e+01
7.200000e-07	-4.519748e-06	-1.076400e-09	-3.133831e+01	-7.006555e+01
7.300000e-07	-4.492084e-06	-1.078881e-09	-3.114650e+01	-6.999684e+01
7.400000e-07	-4.464213e-06	-1.078777e-09	-3.095325e+01	-6.992591e+01
7.500000e-07	-4.436157e-06	-1.073541e-09	-3.075872e+01	-6.985244e+01
7.600000e-07	-4.407856e-06	-1.068493e-09	-3.056249e+01	-6.977617e+01
7.700000e-07	-4.379177e-06	-1.064670e-09	-3.036364e+01	-6.969688e+01
7.800000e-07	-4.350084e-06	-1.063159e-09	-3.016192e+01	-6.961438e+01
7.900000e-07	-4.320678e-06	-1.060496e-09	-2.995803e+01	-6.952854e+01
8.000000e-07	-4.291048e-06	-1.061196e-09	-2.975259e+01	-6.943925e+01
8.100000e-07	-4.261123e-06	-1.058966e-09	-2.954510e+01	-6.934645e+01
8.200000e-07	-4.230938e-06	-1.051630e-09	-2.933580e+01	-6.925011e+01
8.300000e-07	-4.200561e-06	-1.041307e-09	-2.912518e+01	-6.915022e+01
8.400000e-07	-4.169881e-06	-1.038096e-09	-2.891245e+01	-6.904681e+01
8.500000e-07	-4.138863e-06	-1.037660e-09	-2.869739e+01	-6.893992e+01
8.600000e-07	-4.107647e-06	-1.039625e-09	-2.848095e+01	-6.882961e+01
8.700000e-07	-4.076261e-06	-1.038293e-09	-2.826333e+01	-6.871595e+01
8.800000e-07	-4.044615e-06	-1.034522e-09	-2.804391e+01	-6.859904e+01
8.900000e-07	-4.012748e-06	-1.029812e-09	-2.782296e+01	-6.847896e+01
9.000000e-07	-3.980718e-06	-1.027627e-09	-2.760087e+01	-6.835581e+01
9.100000e-07	-3.948432e-06	-1.023341e-09	-2.737701e+01	-6.822969e+01
9.200000e-07	-3.915802e-06	-1.019424e-09	-2.715076e+01	-6.810069e+01
9.300000e-07	-3.882711e-06	-1.014819e-09	-2.692133e+01	-6.796890e+01
9.400000e-07	-3.849131e-06	-1.013167e-09	-2.668849e+01	-6.783441e+01
9.500000e-07	-3.815108e-06	-1.010025e-09	-2.645259e+01	-6.769730e+01
9.600000e-07	-3.780587e-06	-1.007866e-09	-2.621323e+01	-6.755764e+01
9.700000e-07	-3.745658e-06	-1.002142e-09	-2.597105e+01	-6.741551e+01
9.800000e-07	-3.710377e-06	-9.972502e-10	-2.572642e+01	-6.727096e+01
9.900000e-07	-3.674848e-06	-9.928354e-10	-2.548007e+01	-6.712405e+01
1.000000e-06	-3.639227e-06	-9.877938e-10	-2.523310e+01	-6.697483e+01
1.010000e-06	-3.603547e-06	-9.841025e-10	-2.498570e+01	-6.682335e+01
1.020000e-06	-3.567781e-06	-9.842792e-10	-2.473771e+01	-6.666964e+01
1.030000e-06	-3.531799e-06	-9.855435e-10	-2.448822e+01	-6.651375e+01
1.040000e-06	-3.495548e-06	-9.845782e-10	-2.423687e+01	-6.635572e+01
1.050000e-06	-3.458992e-06	-9.815516e-10	-2.398341e+01	-6.619558e+01
1.060000e-06	-3.422136e-06	-9.764452e-10	-2.372787e+01	-6.603336e+01
1.070000e-06	-3.384992e-06	-9.697168e-10	-2.347032e+01	-6.586910e+01
1.080000e-06	-3.347554e-06	-9.649360e-10	-2.321074e+01	-6.570284e+01
1.090000e-06	-3.309959e-06	-9.622704e-10	-2.295006e+01	-6.553460e+01
1.100000e-06	-3.272180e-06	-9.588741e-10	-2.268812e+01	-6.536442e+01
1.110000e-06	-3.234223e-06	-9.569079e-10	-2.242494e+01	-6.519233e+01
1.120000e-06	-3.196136e-06	-9.541398e-10	-2.216086e+01	-6.501837e+01
1.130000e-06	-3.157770e-06	-9.495883e-10	-2.189484e+01	-6.484254e+01
1.140000e-06	-3.119089e-06	-9.430973e-10	-2.162665e+01	-6.466488e+01
1.150000e-06	-3.080202e-06	-9.403769e-10	-2.135701e+01	-6.448538e+01
1.160000e-06	-3.041091e-06	-9.385671e-10	-2.108583e+01	-6.430406e+01
1.170000e-06	-3.001789e-06	-9.357134e-10	-2.081333e+01	-6.412090e+01
1.180000e-06	-2.962374e-06	-9.323176e-10	-2.054004e+01	-6.393587e+01
1.190000e-06	-2.922781e-06	-9.313489e-10	-2.026552e+01	-6.374894e+01
1.200000e-06	-2.883019e-06	-9.307223e-10	-1.998982e+01	-6.356005e+01
1.210000e-06	-2.843164e-06	-9.282383e-10	-1.971348e+01	-6.336911e+01
1.220000e-06	-2.803224e-06	-9.225964e-10	-1.943655e+01	-6.317603e+01
1.230000e-06	-2.763160e-06	-9.198820e-10	-1.915876e+01	-6.298070e+01
1.240000e-06	-2.722926e-06	-9.184626e-10	-1.887979e+01	-6.278295e+01
1.250000e-06	-2.682454e-06	-9.172328e-10	-1.859917e+01	-6.258263e+01
1.260000e-06	-2.641625e-06	-9.135428e-10	-1.831608e+01	-6.237954e+01
1.270000e-06	-2.600478e-06	-9.083732e-10	-1.803078e+01	-6.217346e+01
1.280000e-06	-2.559085e-06	-9.029859e-10	-1.774378e+01	-6.196415e+01
1.290000e-06	-2.517418e-06	-8.992014e-10	-1.745487e+01	-6.175133e+01
1.300000e-06	-2.475360e-06	-8.962284e-10	-1.716326e+01	-6.153473e+01
1.310000e-06	-2.432933e-06	-8.923404e-10	-1.686909e+01	-6.131402e+01
1.320000e-06	-2.390320e-06	-8.879178e-10	-1.657362e+01	-6.108890e+01
1.330000e-06	-2.347437e-06	-8.847784e-10	-1.627628e+01	-6.085899e+01
1.340000e-06	-2.304277e-06	-8.815381e-10	-1.597703e+01	-6.062396e+01
1.350000e-06	-2.260985e-06	-8.801295e-10	-1.567686e+01	-6.038343e+01
1.360000e-06	-2.217642e-06	-8.801800e-10	-1.537633e+01	-6.013701e+01
1.370000e-06	-2.174231e-06	-8.773912e-10	-1.507534e+01	-5.988432e+01
1.380000e-06	-2.130695e-06	-8.719193e-10	-1.477347e+01	-5.962497e+01
1.390000e-06	-2.087048e-06	-8.649653e-10	-1.447084e+01	-5.935855e+01
1.400000e-06	-2.043331e-06	-8.585329e-10	-1.416773e+01	-5.908468e+01
1.410000e-06	-1.999521e-06	-8.518321e-10	-1.386396e+01	-5.880296e+01
1.420000e-06	-1.955551e-06	-8.462850e-10	-1.355909e+01	-5.851299e+01
1.430000e-06	-1.911453e-06	-8.418349e-10	-1.325333e+01	-5.821438e+01
1.440000e-06	-1.867253e-06	-8.360062e-10	-1.294686e+01	-5.790675e+01
1.450000e-06	-1.822995e-06	-8.277199e-10	-1.263999e+01	-5.758971e+01
1.460000e-06	-1.778630e-06	-8.201716e-10	-1.233238e+01	-5.726287e+01
1.470000e-06	-1.734073e-06	-8.110686e-10	-1.202344e+01	-5.692585e+01
1.480000e-06	-1.689394e-06	-8.019686e-10	-1.171365e+01	-5.657827e+01
1.490000e-06	-1.644561e-06	-7.952656e-10	-1.140280e+01	-5.621973e+01
1.500000e-06	-1.599545e-06	-7.889747e-10	-1.109067e+01	-5.584984e+01
1.510000e-06	-1.554361e-06	-7.810943e-10	-1.077738e+01	-5.546819e+01
1.520000e-06	-1.509064e-06	-7.737259e-10	-1.046331e+01	-5.507436e+01
1.530000e-06	-1.463716e-06	-7.653276e-10	-1.014888e+01	-5.466792e+01
1.540000e-06	-1.418296e-06	-7.542992e-10	-9.833953e+00	-5.424840e+01
1.550000e-06	-1.372821e-06	-7.419632e-10	-9.518649e+00	-5.381532e+01
1.560000e-06	-1.327264e-06	-7.330876e-10	-9.202770e+00	-5.336818e+01
1.570000e-06	-1.281627e-06	-7.267642e-10	-8.886342e+00	-5.290643e+01
1.580000e-06	-1.235880e-06	-7.212574e-10	-8.569147e+00	-5.242948e+01
1.590000e-06	-1.190009e-06	-7.157273e-10	-8.251097e+00	-5.193673e+01
1.600000e-06	-1.144166e-06	-7.096752e-10	-7.933236e+00	-5.142750e+01
1.610000e-06	-1.098247e-06	-7.032647e-10	-7.614850e+00	-5.090112e+01
1.620000e-06	-1.052161e-06	-6.968748e-10	-7.295304e+00	-5.035682e+01
1.630000e-06	-1.006013e-06	-6.904592e-10	-6.975330e+00	-4.979382e+01
1.640000e-06	-9.598306e-07	-6.823846e-10	-6.655121e+00	-4.921129e+01
1.650000e-06	-9.136231e-07	-6.724430e-10	-6.334735e+00	-4.860837e+01
1.660000e-06	-8.673189e-07	-6.614707e-10	-6.013678e+00	-4.798413e+01
1.670000e-06	-8.209091e-07	-6.503222e-10	-5.691889e+00	-4.733764e+01
1.680000e-06	-7.744321e-07	-6.382865e-10	-5.369634e+00	-4.666792e+01
1.690000e-06	-7.279476e-07	-6.235927e-10	-5.047327e+00	-4.597397e+01
1.700000e-06	-6.814068e-07	-6.086027e-10	-4.724630e+00	-4.525477e+01
1.710000e-06	-6.347796e-07	-5.956857e-10	-4.401334e+00	-4.450929e+01
1.720000e-06	-5.881985e-07	-5.848298e-10	-4.078358e+00	-4.373650e+01
1.730000e-06	-5.415814e-07	-5.742202e-10	-3.755131e+00	-4.293538e+01
1.740000e-06	-4.948797e-07	-5.609341e-10	-3.431318e+00	-4.210490e+01
1.750000e-06	-4.481132e-07	-5.463134e-10	-3.107056e+00	-4.124409e+01
1.760000e-06	-4.012802e-07	-5.304475e-10	-2.782333e+00	-4.035199e+01
1.770000e-06	-3.544819e-07	-5.141567e-10	-2.457850e+00	-3.942770e+01
1.780000e-06	-3.076756e-07	-4.991144e-10	-2.133312e+00	-3.847036e+01
1.790000e-06	-2.608379e-07	-4.852262e-10	-1.808556e+00	-3.747921e+01
1.800000e-06	-2.138662e-07	-4.713614e-10	-1.482871e+00	-3.645354e+01
1.810000e-06	-1.668287e-07	-4.586626e-10	-1.156730e+00	-3.539274e+01
1.820000e-06	-1.198870e-07	-4.448514e-10	-8.312538e-01	-3.429628e+01
1.830000e-06	-7.297806e-08	-4.289028e-10	-5.060037e-01	-3.316376e+01
1.840000e-06	-2.611374e-08	-4.111638e-10	-1.810633e-01	-3.199489e+01
1.850000e-06	2.069701e-08	-3.928463e-10	1.435057e-01	-3.078950e+01
1.860000e-06	6.751369e-08	-3.757756e-10	4.681157e-01	-2.954754e+01
1.870000e-06	1.144430e-07	-3.578838e-10	7.935065e-01	-2.826912e+01
1.880000e-06	1.614630e-07	-3.390255e-10	1.119526e+00	-2.695447e+01
1.890000e-06	2.084932e-07	-3.219283e-10	1.445617e+00	-2.560396e+01
1.900000e-06	2.554594e-07	-3.044277e-10	1.771264e+00	-2.421813e+01
1.910000e-06	3.023884e-07	-2.846900e-10	2.096652e+00	-2.279764e+01
1.920000e-06	3.493204e-07	-2.627857e-10	2.422062e+00	-2.134333e+01
1.930000e-06	3.962300e-07	-2.406275e-10	2.747317e+00	-1.985614e+01
1.940000e-06	4.430203e-07	-2.190675e-10	3.071744e+00	-1.833719e+01
1.950000e-06	4.897360e-07	-1.981598e-10	3.395653e+00	-1.678773e+01
1.960000e-06	5.363987e-07	-1.793031e-10	3.719196e+00	-1.520914e+01
1.970000e-06	5.829758e-07	-1.607855e-10	4.042145e+00	-1.360292e+01
1.980000e-06	6.295520e-07	-1.414880e-10	4.365087e+00	-1.197072e+01
1.990000e-06	6.760472e-07	-1.205277e-10	4.687469e+00	-1.031427e+01
2.000000e-06	7.225204e-07	-9.618550e-11	5.009697e+00	-8.635437e+00
2.010000e-06	7.689994e-07	-6.974670e-11	5.331966e+00	-6.936160e+00
2.020000e-06	8.154265e-07	-4.392004e-11	5.653875e+00	-5.218476e+00
2.030000e-06	8.617335e-07	-1.825269e-11	5.974951e+00	-3.484496e+00
2.040000e-06	9.079817e-07	6.008115e-12	6.295619e+00	-1.736395e+00
2.050000e-06	9.542182e-07	2.818614e-11	6.616206e+00	2.359821e-02
2.060000e-06	1.000372e-06	5.004300e-11	6.936222e+00	1.793211e+00
2.070000e-06	1.046419e-06	7.317948e-11	7.255493e+00	3.570140e+00
2.080000e-06	1.092325e-06	9.665326e-11	7.573789e+00	5.352065e+00
2.090000e-06	1.138157e-06	1.208606e-10	7.891575e+00	7.136656e+00
2.100000e-06	1.183972e-06	1.472238e-10	8.209235e+00	8.921588e+00
2.110000e-06	1.229791e-06	1.740908e-10	8.526933e+00	1.070455e+01
2.120000e-06	1.275464e-06	2.000057e-10	8.843609e+00	1.248326e+01
2.130000e-06	1.320996e-06	2.257115e-10	9.159312e+00	1.425547e+01
2.140000e-06	1.366519e-06	2.498511e-10	9.474950e+00	1.601898e+01
2.150000e-06	1.412004e-06	2.712657e-10	9.790326e+00	1.777164e+01
2.160000e-06	1.457341e-06	2.919290e-10	1.010468e+01	1.951139e+01
2.170000e-06	1.502468e-06	3.151978e-10	1.041757e+01	2.123620e+01
2.180000e-06	1.547423e-06	3.400520e-10	1.072928e+01	2.294417e+01
2.190000e-06	1.592339e-06	3.640391e-10	1.104071e+01	2.463346e+01
2.200000e-06	1.637256e-06	3.889131e-10	1.135214e+01	2.630233e+01
2.210000e-06	1.682018e-06	4.143633e-10	1.166251e+01	2.794916e+01
2.220000e-06	1.726618e-06	4.380717e-10	1.197175e+01	2.957241e+01
2.230000e-06	1.771023e-06	4.598134e-10	1.227964e+01	3.117066e+01
2.240000e-06	1.815279e-06	4.802882e-10	1.258649e+01	3.274262e+01
2.250000e-06	1.859453e-06	4.985764e-10	1.289278e+01	3.428710e+01
2.260000e-06	1.903486e-06	5.156510e-10	1.319809e+01	3.580303e+01
2.270000e-06	1.947410e-06	5.357010e-10	1.350264e+01	3.728946e+01
2.280000e-06	1.991279e-06	5.591844e-10	1.380682e+01	3.874557e+01
2.290000e-06	2.035138e-06	5.814300e-10	1.411091e+01	4.017064e+01
2.300000e-06	2.078941e-06	6.014224e-10	1.441463e+01	4.156408e+01
2.310000e-06	2.122659e-06	6.196376e-10	1.471775e+01	4.292541e+01
2.320000e-06	2.166290e-06	6.361776e-10	1.502028e+01	4.425426e+01
2.330000e-06	2.209835e-06	6.536139e-10	1.532220e+01	4.555037e+01
2.340000e-06	2.253276e-06	6.731621e-10	1.562341e+01	4.681358e+01
2.350000e-06	2.296555e-06	6.935507e-10	1.592349e+01	4.804381e+01
2.360000e-06	2.339683e-06	7.134720e-10	1.622252e+01	4.924110e+01
2.370000e-06	2.382584e-06	7.316629e-10	1.651998e+01	5.040556e+01
2.380000e-06	2.425264e-06	7.479881e-10	1.681591e+01	5.153736e+01
2.390000e-06	2.467684e-06	7.620216e-10	1.711003e+01	5.263678e+01
2.400000e-06	2.509779e-06	7.748071e-10	1.740191e+01	5.370411e+01
2.410000e-06	2.551568e-06	7.878113e-10	1.769166e+01	5.473975e+01
2.420000e-06	2.592996e-06	8.003444e-10	1.797891e+01	5.574409e+01
2.430000e-06	2.634003e-06	8.119925e-10	1.826323e+01	5.671761e+01
2.440000e-06	2.674654e-06	8.239641e-10	1.854509e+01	5.766079e+01
2.450000e-06	2.715173e-06	8.362349e-10	1.882604e+01	5.857414e+01
2.460000e-06	2.755553e-06	8.477028e-10	1.910602e+01	5.945818e+01
2.470000e-06	2.795729e-06	8.598552e-10	1.938458e+01	6.031347e+01
2.480000e-06	2.835731e-06	8.724339e-10	1.966194e+01	6.114053e+01
2.490000e-06	2.875540e-06	8.830417e-10	1.993796e+01	6.193992e+01
2.500000e-06	2.915229e-06	8.926838e-10	2.021315e+01	6.271216e+01
2.510000e-06	2.954837e-06	9.010405e-10	2.048778e+01	6.345778e+01
2.520000e-06	2.994275e-06	9.101679e-10	2.076123e+01	6.417730e+01
2.530000e-06	3.033564e-06	9.187411e-10	2.103365e+01	6.487120e+01
2.540000e-06	3.072627e-06	9.249244e-10	2.130449e+01	6.553997e+01
2.550000e-06	3.111459e-06	9.322245e-10	2.157374e+01	6.618406e+01
2.560000e-06	3.150080e-06	9.398106e-10	2.184153e+01	6.680392e+01
2.570000e-06	3.188448e-06	9.493285e-10	2.210756e+01	6.739998e+01
2.580000e-06	3.226574e-06	9.583747e-10	2.237191e+01	6.797265e+01
2.590000e-06	3.264494e-06	9.669021e-10	2.263483e+01	6.852232e+01
2.600000e-06	3.302175e-06	9.734723e-10	2.289609e+01	6.904939e+01
2.610000e-06	3.339590e-06	9.783031e-10	2.315552e+01	6.955424e+01
2.620000e-06	3.376772e-06	9.841348e-10	2.341332e+01	7.003725e+01
2.630000e-06	3.413790e-06	9.928776e-10	2.367000e+01	7.049881e+01
2.640000e-06	3.450657e-06	1.002665e-09	2.392562e+01	7.093932e+01
2.650000e-06	3.487182e-06	1.010748e-09	2.417887e+01	7.135917e+01
2.660000e-06	3.523437e-06	1.016397e-09	2.443025e+01	7.175880e+01
2.670000e-06	3.559532e-06	1.021023e-09	2.468052e+01	7.213864e+01
2.680000e-06	3.595441e-06	1.024923e-09	2.492949e+01	7.249917e+01
2.690000e-06	3.631233e-06	1.027163e-09	2.517767e+01	7.284088e+01
2.700000e-06	3.666892e-06	1.031144e-09	2.542491e+01	7.316431e+01
2.710000e-06	3.702376e-06	1.036672e-09	2.567094e+01	7.347003e+01
2.720000e-06	3.737720e-06	1.042270e-09	2.591601e+01	7.375862e+01
2.730000e-06	3.772853e-06	1.046006e-09	2.615961e+01	7.403074e+01
2.740000e-06	3.807554e-06	1.050030e-09	2.640022e+01	7.428706e+01
2.750000e-06	3.841738e-06	1.055117e-09	2.663723e+01	7.452828e+01
2.760000e-06	3.875531e-06	1.059848e-09	2.687154e+01	7.475515e+01
2.770000e-06	3.908858e-06	1.064959e-09	2.710262e+01	7.496844e+01
2.780000e-06	3.941621e-06	1.069755e-09	2.732979e+01	7.516896e+01
2.790000e-06	3.973997e-06	1.074847e-09	2.755427e+01	7.535753e+01
2.800000e-06	4.006165e-06	1.079909e-09	2.777731e+01	7.553497e+01
2.810000e-06	4.038102e-06	1.083357e-09	2.799875e+01	7.570214e+01
2.820000e-06	4.069827e-06	1.086966e-09	2.821872e+01	7.585989e+01
2.830000e-06	4.101353e-06	1.091062e-09	2.843731e+01	7.600906e+01
2.840000e-06	4.132650e-06	1.094383e-09	2.865431e+01	7.615048e+01
2.850000e-06	4.163746e-06	1.095548e-09	2.886992e+01	7.628496e+01
2.860000e-06	4.194577e-06	1.096511e-09	2.908369e+01	7.641327e+01
2.870000e-06	4.225053e-06	1.097861e-09	2.929500e+01	7.653618e+01
2.880000e-06	4.255221e-06	1.100889e-09	2.950417e+01	7.665436e+01
2.890000e-06	4.285105e-06	1.104200e-09	2.971138e+01	7.676848e+01
2.900000e-06	4.314687e-06	1.107319e-09	2.991649e+01	7.687912e+01
