# Temperatura_=_11.1
# Concentracion g/m^3_=_1620.0
# C_Vs_to_Am_M_A/Vsm_=_65563218390.804596
# pendiente_HvsI_1/m_=_3716.3
# ordenada_HvsI_A/m_=_1297.0
# frecuencia_Hz_=_135095.48089719616

Tiempo_(s)	Campo_(V.s)	Magnetizacion_(V.s)	Campo_(kA/m)	Magnetizacion_(A/m)
0.000000e+00	-5.534433e-06	-1.635364e-09	-3.838085e+01	-1.073465e+02
1.000000e-08	-5.534624e-06	-1.632807e-09	-3.838218e+01	-1.072882e+02
2.000000e-08	-5.534522e-06	-1.631419e-09	-3.838147e+01	-1.072329e+02
3.000000e-08	-5.533927e-06	-1.630468e-09	-3.837734e+01	-1.071807e+02
4.000000e-08	-5.532700e-06	-1.629061e-09	-3.836883e+01	-1.071319e+02
5.000000e-08	-5.530839e-06	-1.624122e-09	-3.835592e+01	-1.070866e+02
6.000000e-08	-5.528330e-06	-1.612277e-09	-3.833853e+01	-1.070447e+02
7.000000e-08	-5.525317e-06	-1.619948e-09	-3.831763e+01	-1.070061e+02
8.000000e-08	-5.521915e-06	-1.687581e-09	-3.829404e+01	-1.069706e+02
9.000000e-08	-5.518070e-06	-1.724796e-09	-3.826738e+01	-1.069377e+02
1.000000e-07	-5.513815e-06	-1.634950e-09	-3.823787e+01	-1.069071e+02
1.100000e-07	-5.509350e-06	-1.510095e-09	-3.820690e+01	-1.068781e+02
1.200000e-07	-5.504758e-06	-1.558277e-09	-3.817506e+01	-1.068500e+02
1.300000e-07	-5.499805e-06	-1.686113e-09	-3.814071e+01	-1.068222e+02
1.400000e-07	-5.494330e-06	-1.691608e-09	-3.810274e+01	-1.067937e+02
1.500000e-07	-5.488454e-06	-1.563474e-09	-3.806199e+01	-1.067638e+02
1.600000e-07	-5.482336e-06	-1.579602e-09	-3.801956e+01	-1.067315e+02
1.700000e-07	-5.475756e-06	-1.666456e-09	-3.797393e+01	-1.066959e+02
1.800000e-07	-5.468642e-06	-1.693462e-09	-3.792460e+01	-1.066562e+02
1.900000e-07	-5.461261e-06	-1.561416e-09	-3.787341e+01	-1.066113e+02
2.000000e-07	-5.453672e-06	-1.552749e-09	-3.782078e+01	-1.065604e+02
2.100000e-07	-5.445792e-06	-1.649980e-09	-3.776613e+01	-1.065027e+02
2.200000e-07	-5.437624e-06	-1.714617e-09	-3.770949e+01	-1.064375e+02
2.300000e-07	-5.429131e-06	-1.639872e-09	-3.765059e+01	-1.063641e+02
2.400000e-07	-5.420093e-06	-1.580879e-09	-3.758791e+01	-1.062818e+02
2.500000e-07	-5.410221e-06	-1.628181e-09	-3.751945e+01	-1.061903e+02
2.600000e-07	-5.399667e-06	-1.655794e-09	-3.744626e+01	-1.060891e+02
2.700000e-07	-5.388746e-06	-1.627314e-09	-3.737052e+01	-1.059779e+02
2.800000e-07	-5.377431e-06	-1.591452e-09	-3.729205e+01	-1.058568e+02
2.900000e-07	-5.365694e-06	-1.637014e-09	-3.721066e+01	-1.057255e+02
3.000000e-07	-5.353588e-06	-1.632681e-09	-3.712670e+01	-1.055843e+02
3.100000e-07	-5.341067e-06	-1.608814e-09	-3.703987e+01	-1.054334e+02
3.200000e-07	-5.328088e-06	-1.578767e-09	-3.694987e+01	-1.052732e+02
3.300000e-07	-5.314715e-06	-1.639598e-09	-3.685713e+01	-1.051040e+02
3.400000e-07	-5.300955e-06	-1.626892e-09	-3.676170e+01	-1.049265e+02
3.500000e-07	-5.286781e-06	-1.603045e-09	-3.666340e+01	-1.047413e+02
3.600000e-07	-5.272137e-06	-1.587126e-09	-3.656185e+01	-1.045490e+02
3.700000e-07	-5.257099e-06	-1.623537e-09	-3.645757e+01	-1.043505e+02
3.800000e-07	-5.241487e-06	-1.577004e-09	-3.634930e+01	-1.041466e+02
3.900000e-07	-5.225264e-06	-1.570217e-09	-3.623679e+01	-1.039381e+02
4.000000e-07	-5.208688e-06	-1.609098e-09	-3.612184e+01	-1.037258e+02
4.100000e-07	-5.191813e-06	-1.613071e-09	-3.600481e+01	-1.035106e+02
4.200000e-07	-5.174616e-06	-1.552752e-09	-3.588555e+01	-1.032933e+02
4.300000e-07	-5.157108e-06	-1.582380e-09	-3.576413e+01	-1.030747e+02
4.400000e-07	-5.139233e-06	-1.627689e-09	-3.564017e+01	-1.028555e+02
4.500000e-07	-5.120916e-06	-1.573202e-09	-3.551314e+01	-1.026364e+02
4.600000e-07	-5.102176e-06	-1.534967e-09	-3.538319e+01	-1.024180e+02
4.700000e-07	-5.083114e-06	-1.589063e-09	-3.525099e+01	-1.022008e+02
4.800000e-07	-5.063788e-06	-1.591708e-09	-3.511696e+01	-1.019852e+02
4.900000e-07	-5.044200e-06	-1.536342e-09	-3.498112e+01	-1.017715e+02
5.000000e-07	-5.024394e-06	-1.558355e-09	-3.484377e+01	-1.015600e+02
5.100000e-07	-5.004365e-06	-1.574306e-09	-3.470487e+01	-1.013508e+02
5.200000e-07	-4.984002e-06	-1.533488e-09	-3.456366e+01	-1.011438e+02
5.300000e-07	-4.963220e-06	-1.539510e-09	-3.441954e+01	-1.009391e+02
5.400000e-07	-4.942053e-06	-1.587834e-09	-3.427274e+01	-1.007364e+02
5.500000e-07	-4.920555e-06	-1.544332e-09	-3.412366e+01	-1.005355e+02
5.600000e-07	-4.898776e-06	-1.511835e-09	-3.397262e+01	-1.003361e+02
5.700000e-07	-4.876648e-06	-1.546077e-09	-3.381917e+01	-1.001376e+02
5.800000e-07	-4.854030e-06	-1.551685e-09	-3.366231e+01	-9.993971e+01
5.900000e-07	-4.831090e-06	-1.507280e-09	-3.350323e+01	-9.974183e+01
6.000000e-07	-4.807995e-06	-1.526014e-09	-3.334306e+01	-9.954340e+01
6.100000e-07	-4.784611e-06	-1.539639e-09	-3.318090e+01	-9.934384e+01
6.200000e-07	-4.760971e-06	-1.517021e-09	-3.301695e+01	-9.914254e+01
6.300000e-07	-4.737148e-06	-1.506845e-09	-3.285175e+01	-9.893890e+01
6.400000e-07	-4.712921e-06	-1.526778e-09	-3.268373e+01	-9.873232e+01
6.500000e-07	-4.688199e-06	-1.508891e-09	-3.251229e+01	-9.852224e+01
6.600000e-07	-4.662967e-06	-1.503504e-09	-3.233730e+01	-9.830810e+01
6.700000e-07	-4.637115e-06	-1.511748e-09	-3.215802e+01	-9.808942e+01
6.800000e-07	-4.610785e-06	-1.508399e-09	-3.197543e+01	-9.786573e+01
6.900000e-07	-4.584043e-06	-1.490844e-09	-3.178997e+01	-9.763665e+01
7.000000e-07	-4.556908e-06	-1.496962e-09	-3.160179e+01	-9.740182e+01
7.100000e-07	-4.529529e-06	-1.493625e-09	-3.141192e+01	-9.716099e+01
7.200000e-07	-4.501955e-06	-1.484369e-09	-3.122070e+01	-9.691393e+01
7.300000e-07	-4.474210e-06	-1.482108e-09	-3.102829e+01	-9.666051e+01
7.400000e-07	-4.446252e-06	-1.482489e-09	-3.083440e+01	-9.640065e+01
7.500000e-07	-4.417959e-06	-1.470535e-09	-3.063819e+01	-9.613434e+01
7.600000e-07	-4.389335e-06	-1.460801e-09	-3.043969e+01	-9.586162e+01
7.700000e-07	-4.360380e-06	-1.453299e-09	-3.023889e+01	-9.558260e+01
7.800000e-07	-4.331127e-06	-1.444777e-09	-3.003602e+01	-9.529743e+01
7.900000e-07	-4.301619e-06	-1.442824e-09	-2.983139e+01	-9.500631e+01
8.000000e-07	-4.271858e-06	-1.440687e-09	-2.962500e+01	-9.470947e+01
8.100000e-07	-4.241886e-06	-1.431790e-09	-2.941714e+01	-9.440717e+01
8.200000e-07	-4.211590e-06	-1.420736e-09	-2.920704e+01	-9.409971e+01
8.300000e-07	-4.180927e-06	-1.421560e-09	-2.899440e+01	-9.378738e+01
8.400000e-07	-4.150009e-06	-1.415418e-09	-2.877998e+01	-9.347049e+01
8.500000e-07	-4.118838e-06	-1.410218e-09	-2.856381e+01	-9.314935e+01
8.600000e-07	-4.087432e-06	-1.407941e-09	-2.834601e+01	-9.282427e+01
8.700000e-07	-4.055838e-06	-1.405859e-09	-2.812691e+01	-9.249554e+01
8.800000e-07	-4.024061e-06	-1.392074e-09	-2.790654e+01	-9.216344e+01
8.900000e-07	-3.992053e-06	-1.387490e-09	-2.768457e+01	-9.182821e+01
9.000000e-07	-3.959756e-06	-1.381960e-09	-2.746059e+01	-9.149009e+01
9.100000e-07	-3.927092e-06	-1.373430e-09	-2.723407e+01	-9.114928e+01
9.200000e-07	-3.894057e-06	-1.365661e-09	-2.700498e+01	-9.080595e+01
9.300000e-07	-3.860558e-06	-1.370028e-09	-2.677266e+01	-9.046023e+01
9.400000e-07	-3.826521e-06	-1.363592e-09	-2.653662e+01	-9.011223e+01
9.500000e-07	-3.792028e-06	-1.354757e-09	-2.629741e+01	-8.976203e+01
9.600000e-07	-3.757193e-06	-1.349092e-09	-2.605583e+01	-8.940967e+01
9.700000e-07	-3.722154e-06	-1.343212e-09	-2.581284e+01	-8.905517e+01
9.800000e-07	-3.686903e-06	-1.328263e-09	-2.556838e+01	-8.869853e+01
9.900000e-07	-3.651443e-06	-1.321194e-09	-2.532246e+01	-8.833970e+01
1.000000e-06	-3.615798e-06	-1.316706e-09	-2.507527e+01	-8.797864e+01
1.010000e-06	-3.579985e-06	-1.311467e-09	-2.482691e+01	-8.761529e+01
1.020000e-06	-3.543992e-06	-1.306110e-09	-2.457730e+01	-8.724954e+01
1.030000e-06	-3.507791e-06	-1.305617e-09	-2.432625e+01	-8.688132e+01
1.040000e-06	-3.471340e-06	-1.299698e-09	-2.407346e+01	-8.651051e+01
1.050000e-06	-3.434603e-06	-1.288804e-09	-2.381870e+01	-8.613701e+01
1.060000e-06	-3.397643e-06	-1.281283e-09	-2.356238e+01	-8.576070e+01
1.070000e-06	-3.360464e-06	-1.274039e-09	-2.330455e+01	-8.538147e+01
1.080000e-06	-3.322984e-06	-1.264847e-09	-2.304463e+01	-8.499921e+01
1.090000e-06	-3.285278e-06	-1.257392e-09	-2.278314e+01	-8.461379e+01
1.100000e-06	-3.247415e-06	-1.252246e-09	-2.252056e+01	-8.422510e+01
1.110000e-06	-3.209314e-06	-1.242908e-09	-2.225634e+01	-8.383304e+01
1.120000e-06	-3.170921e-06	-1.235520e-09	-2.199008e+01	-8.343747e+01
1.130000e-06	-3.132356e-06	-1.229356e-09	-2.172264e+01	-8.303830e+01
1.140000e-06	-3.093491e-06	-1.224919e-09	-2.145311e+01	-8.263539e+01
1.150000e-06	-3.054281e-06	-1.217970e-09	-2.118119e+01	-8.222863e+01
1.160000e-06	-3.014976e-06	-1.211451e-09	-2.090862e+01	-8.181788e+01
1.170000e-06	-2.975570e-06	-1.200946e-09	-2.063534e+01	-8.140301e+01
1.180000e-06	-2.936100e-06	-1.192443e-09	-2.036162e+01	-8.098386e+01
1.190000e-06	-2.896542e-06	-1.186074e-09	-2.008729e+01	-8.056028e+01
1.200000e-06	-2.856804e-06	-1.181953e-09	-1.981171e+01	-8.013209e+01
1.210000e-06	-2.816902e-06	-1.174385e-09	-1.953499e+01	-7.969909e+01
1.220000e-06	-2.776830e-06	-1.169138e-09	-1.925710e+01	-7.926108e+01
1.230000e-06	-2.736486e-06	-1.165617e-09	-1.897731e+01	-7.881783e+01
1.240000e-06	-2.695860e-06	-1.159863e-09	-1.869558e+01	-7.836908e+01
1.250000e-06	-2.655058e-06	-1.149851e-09	-1.841262e+01	-7.791458e+01
1.260000e-06	-2.614088e-06	-1.140997e-09	-1.812849e+01	-7.745403e+01
1.270000e-06	-2.572792e-06	-1.131597e-09	-1.784210e+01	-7.698713e+01
1.280000e-06	-2.531114e-06	-1.122742e-09	-1.755307e+01	-7.651355e+01
1.290000e-06	-2.489146e-06	-1.113901e-09	-1.726203e+01	-7.603296e+01
1.300000e-06	-2.446894e-06	-1.106598e-09	-1.696901e+01	-7.554499e+01
1.310000e-06	-2.404307e-06	-1.097111e-09	-1.667367e+01	-7.504930e+01
1.320000e-06	-2.361425e-06	-1.088841e-09	-1.637629e+01	-7.454550e+01
1.330000e-06	-2.318351e-06	-1.080710e-09	-1.607758e+01	-7.403321e+01
1.340000e-06	-2.275162e-06	-1.074055e-09	-1.577806e+01	-7.351206e+01
1.350000e-06	-2.231860e-06	-1.068007e-09	-1.547777e+01	-7.298166e+01
1.360000e-06	-2.188409e-06	-1.058670e-09	-1.517645e+01	-7.244163e+01
1.370000e-06	-2.144853e-06	-1.047803e-09	-1.487438e+01	-7.189160e+01
1.380000e-06	-2.101195e-06	-1.035944e-09	-1.457162e+01	-7.133119e+01
1.390000e-06	-2.057360e-06	-1.023420e-09	-1.426763e+01	-7.076005e+01
1.400000e-06	-2.013375e-06	-1.012652e-09	-1.396260e+01	-7.017784e+01
1.410000e-06	-1.969469e-06	-1.002790e-09	-1.365811e+01	-6.958421e+01
1.420000e-06	-1.925532e-06	-9.916178e-10	-1.335341e+01	-6.897885e+01
1.430000e-06	-1.881365e-06	-9.833067e-10	-1.304712e+01	-6.836143e+01
1.440000e-06	-1.837137e-06	-9.740899e-10	-1.274040e+01	-6.773166e+01
1.450000e-06	-1.792868e-06	-9.616818e-10	-1.243340e+01	-6.708923e+01
1.460000e-06	-1.748450e-06	-9.464523e-10	-1.212536e+01	-6.643387e+01
1.470000e-06	-1.703910e-06	-9.328591e-10	-1.181648e+01	-6.576528e+01
1.480000e-06	-1.659210e-06	-9.192537e-10	-1.150649e+01	-6.508318e+01
1.490000e-06	-1.614339e-06	-9.046531e-10	-1.119531e+01	-6.438727e+01
1.500000e-06	-1.569318e-06	-8.890951e-10	-1.088309e+01	-6.367725e+01
1.510000e-06	-1.524102e-06	-8.760381e-10	-1.056953e+01	-6.295281e+01
1.520000e-06	-1.478747e-06	-8.637084e-10	-1.025499e+01	-6.221360e+01
1.530000e-06	-1.433329e-06	-8.513621e-10	-9.940025e+00	-6.145926e+01
1.540000e-06	-1.387880e-06	-8.381076e-10	-9.624838e+00	-6.068940e+01
1.550000e-06	-1.342354e-06	-8.259996e-10	-9.309119e+00	-5.990358e+01
1.560000e-06	-1.296680e-06	-8.126866e-10	-8.992374e+00	-5.910134e+01
1.570000e-06	-1.250880e-06	-8.010330e-10	-8.674750e+00	-5.828216e+01
1.580000e-06	-1.205005e-06	-7.884659e-10	-8.356611e+00	-5.744547e+01
1.590000e-06	-1.159093e-06	-7.735557e-10	-8.038219e+00	-5.659067e+01
1.600000e-06	-1.113092e-06	-7.582756e-10	-7.719207e+00	-5.571707e+01
1.610000e-06	-1.066995e-06	-7.457833e-10	-7.399524e+00	-5.482396e+01
1.620000e-06	-1.020908e-06	-7.357414e-10	-7.079913e+00	-5.391056e+01
1.630000e-06	-9.748480e-07	-7.254309e-10	-6.760493e+00	-5.297604e+01
1.640000e-06	-9.286732e-07	-7.113233e-10	-6.440274e+00	-5.201951e+01
1.650000e-06	-8.823291e-07	-6.935835e-10	-6.118882e+00	-5.104003e+01
1.660000e-06	-8.358932e-07	-6.734484e-10	-5.796852e+00	-5.003665e+01
1.670000e-06	-7.893608e-07	-6.524547e-10	-5.474154e+00	-4.900833e+01
1.680000e-06	-7.427073e-07	-6.351786e-10	-5.150616e+00	-4.795405e+01
1.690000e-06	-6.960273e-07	-6.168610e-10	-4.826894e+00	-4.687273e+01
1.700000e-06	-6.494007e-07	-5.989660e-10	-4.503542e+00	-4.576330e+01
1.710000e-06	-6.027527e-07	-5.850257e-10	-4.180042e+00	-4.462468e+01
1.720000e-06	-5.559713e-07	-5.702780e-10	-3.855617e+00	-4.345578e+01
1.730000e-06	-5.091934e-07	-5.494303e-10	-3.531215e+00	-4.225556e+01
1.740000e-06	-4.624177e-07	-5.270437e-10	-3.206830e+00	-4.102299e+01
1.750000e-06	-4.155236e-07	-5.053304e-10	-2.881623e+00	-3.975710e+01
1.760000e-06	-3.686661e-07	-4.833438e-10	-2.556670e+00	-3.845695e+01
1.770000e-06	-3.218043e-07	-4.630962e-10	-2.231687e+00	-3.712169e+01
1.780000e-06	-2.748511e-07	-4.456598e-10	-1.906070e+00	-3.575055e+01
1.790000e-06	-2.278113e-07	-4.272851e-10	-1.579853e+00	-3.434285e+01
1.800000e-06	-1.808665e-07	-4.077541e-10	-1.254294e+00	-3.289800e+01
1.810000e-06	-1.340300e-07	-3.865652e-10	-9.294876e-01	-3.141557e+01
1.820000e-06	-8.712668e-08	-3.649388e-10	-6.042166e-01	-2.989521e+01
1.830000e-06	-4.023227e-08	-3.430953e-10	-2.790076e-01	-2.833672e+01
1.840000e-06	6.636520e-09	-3.218332e-10	4.602374e-02	-2.674007e+01
1.850000e-06	5.351506e-08	-3.006323e-10	3.711227e-01	-2.510535e+01
1.860000e-06	1.004073e-07	-2.781777e-10	6.963165e-01	-2.343283e+01
1.870000e-06	1.473138e-07	-2.541827e-10	1.021610e+00	-2.172294e+01
1.880000e-06	1.942096e-07	-2.303634e-10	1.346828e+00	-1.997627e+01
1.890000e-06	2.411304e-07	-2.059799e-10	1.672220e+00	-1.819358e+01
1.900000e-06	2.880830e-07	-1.795086e-10	1.997833e+00	-1.637582e+01
1.910000e-06	3.349866e-07	-1.527787e-10	2.323105e+00	-1.452410e+01
1.920000e-06	3.818992e-07	-1.266662e-10	2.648441e+00	-1.263969e+01
1.930000e-06	4.287334e-07	-1.018922e-10	2.973232e+00	-1.072403e+01
1.940000e-06	4.754501e-07	-7.634858e-11	3.297208e+00	-8.778728e+00
1.950000e-06	5.221482e-07	-4.976616e-11	3.621056e+00	-6.805550e+00
1.960000e-06	5.687267e-07	-2.386720e-11	3.944074e+00	-4.806402e+00
1.970000e-06	6.152857e-07	2.867856e-12	4.266958e+00	-2.783334e+00
1.980000e-06	6.619189e-07	3.106581e-11	4.590354e+00	-7.385279e-01
1.990000e-06	7.084849e-07	6.240800e-11	4.913286e+00	1.325713e+00
2.000000e-06	7.549810e-07	9.557852e-11	5.235733e+00	3.406977e+00
2.010000e-06	8.014329e-07	1.256629e-10	5.557873e+00	5.502752e+00
2.020000e-06	8.478519e-07	1.535021e-10	5.879786e+00	7.610442e+00
2.030000e-06	8.942295e-07	1.801430e-10	6.201411e+00	9.727380e+00
2.040000e-06	9.404954e-07	2.064123e-10	6.522261e+00	1.185084e+01
2.050000e-06	9.867158e-07	2.346863e-10	6.842795e+00	1.397805e+01
2.060000e-06	1.032878e-06	2.656383e-10	7.162927e+00	1.610621e+01
2.070000e-06	1.078943e-06	2.981467e-10	7.482385e+00	1.823252e+01
2.080000e-06	1.124921e-06	3.299693e-10	7.801239e+00	2.035415e+01
2.090000e-06	1.170813e-06	3.606006e-10	8.119493e+00	2.246831e+01
2.100000e-06	1.216599e-06	3.911312e-10	8.437020e+00	2.457225e+01
2.110000e-06	1.262267e-06	4.212977e-10	8.753720e+00	2.666323e+01
2.120000e-06	1.307838e-06	4.515385e-10	9.069753e+00	2.873862e+01
2.130000e-06	1.353404e-06	4.791702e-10	9.385751e+00	3.079581e+01
2.140000e-06	1.398916e-06	5.036502e-10	9.701374e+00	3.283234e+01
2.150000e-06	1.444324e-06	5.289566e-10	1.001628e+01	3.484580e+01
2.160000e-06	1.489554e-06	5.560259e-10	1.032993e+01	3.683392e+01
2.170000e-06	1.534648e-06	5.827557e-10	1.064266e+01	3.879457e+01
2.180000e-06	1.579690e-06	6.085659e-10	1.095502e+01	4.072573e+01
2.190000e-06	1.624608e-06	6.357471e-10	1.126653e+01	4.262556e+01
2.200000e-06	1.669419e-06	6.643147e-10	1.157729e+01	4.449234e+01
2.210000e-06	1.714094e-06	6.912404e-10	1.188711e+01	4.632455e+01
2.220000e-06	1.758610e-06	7.169384e-10	1.219582e+01	4.812082e+01
2.230000e-06	1.802940e-06	7.398184e-10	1.250325e+01	4.987998e+01
2.240000e-06	1.847116e-06	7.594349e-10	1.280960e+01	5.160102e+01
2.250000e-06	1.891201e-06	7.784523e-10	1.311533e+01	5.328312e+01
2.260000e-06	1.935188e-06	7.993969e-10	1.342038e+01	5.492564e+01
2.270000e-06	1.979030e-06	8.224079e-10	1.372442e+01	5.652814e+01
2.280000e-06	2.022778e-06	8.446715e-10	1.402780e+01	5.809033e+01
2.290000e-06	2.066494e-06	8.667352e-10	1.433097e+01	5.961214e+01
2.300000e-06	2.110160e-06	8.893278e-10	1.463379e+01	6.109363e+01
2.310000e-06	2.153777e-06	9.106165e-10	1.493627e+01	6.253503e+01
2.320000e-06	2.197350e-06	9.291602e-10	1.523845e+01	6.393675e+01
2.330000e-06	2.240856e-06	9.454723e-10	1.554015e+01	6.529931e+01
2.340000e-06	2.284183e-06	9.610032e-10	1.584063e+01	6.662339e+01
2.350000e-06	2.327344e-06	9.778876e-10	1.613995e+01	6.790977e+01
2.360000e-06	2.370322e-06	9.961693e-10	1.643800e+01	6.915934e+01
2.370000e-06	2.413007e-06	1.013806e-09	1.673401e+01	7.037309e+01
2.380000e-06	2.455408e-06	1.029402e-09	1.702806e+01	7.155208e+01
2.390000e-06	2.497507e-06	1.045494e-09	1.732001e+01	7.269742e+01
2.400000e-06	2.539284e-06	1.060807e-09	1.760973e+01	7.381028e+01
2.410000e-06	2.580667e-06	1.073648e-09	1.789672e+01	7.489183e+01
2.420000e-06	2.621723e-06	1.085466e-09	1.818144e+01	7.594328e+01
2.430000e-06	2.662539e-06	1.096853e-09	1.846450e+01	7.696581e+01
2.440000e-06	2.703084e-06	1.107483e-09	1.874567e+01	7.796059e+01
2.450000e-06	2.743353e-06	1.118916e-09	1.902494e+01	7.892876e+01
2.460000e-06	2.783480e-06	1.133500e-09	1.930321e+01	7.987140e+01
2.470000e-06	2.823509e-06	1.148521e-09	1.958081e+01	8.078954e+01
2.480000e-06	2.863395e-06	1.161741e-09	1.985742e+01	8.168414e+01
2.490000e-06	2.903138e-06	1.174116e-09	2.013303e+01	8.255607e+01
2.500000e-06	2.942730e-06	1.183954e-09	2.040760e+01	8.340612e+01
2.510000e-06	2.982211e-06	1.192550e-09	2.068140e+01	8.423499e+01
2.520000e-06	3.021563e-06	1.201747e-09	2.095430e+01	8.504328e+01
2.530000e-06	3.060793e-06	1.211684e-09	2.122636e+01	8.583152e+01
2.540000e-06	3.099801e-06	1.222283e-09	2.149687e+01	8.660011e+01
2.550000e-06	3.138506e-06	1.231068e-09	2.176529e+01	8.734938e+01
2.560000e-06	3.176943e-06	1.240645e-09	2.203185e+01	8.807957e+01
2.570000e-06	3.215135e-06	1.252203e-09	2.229671e+01	8.879084e+01
2.580000e-06	3.253078e-06	1.262261e-09	2.255983e+01	8.948329e+01
2.590000e-06	3.290858e-06	1.270700e-09	2.282184e+01	9.015694e+01
2.600000e-06	3.328477e-06	1.279034e-09	2.308272e+01	9.081177e+01
2.610000e-06	3.365862e-06	1.288285e-09	2.334199e+01	9.144772e+01
2.620000e-06	3.402958e-06	1.297857e-09	2.359924e+01	9.206471e+01
2.630000e-06	3.439689e-06	1.308075e-09	2.385397e+01	9.266265e+01
2.640000e-06	3.476122e-06	1.318412e-09	2.410663e+01	9.324144e+01
2.650000e-06	3.512344e-06	1.325026e-09	2.435783e+01	9.380100e+01
2.660000e-06	3.548425e-06	1.330330e-09	2.460804e+01	9.434128e+01
2.670000e-06	3.584337e-06	1.337871e-09	2.485709e+01	9.486227e+01
2.680000e-06	3.620082e-06	1.346365e-09	2.510498e+01	9.536402e+01
2.690000e-06	3.655744e-06	1.354432e-09	2.535229e+01	9.584663e+01
2.700000e-06	3.691322e-06	1.362525e-09	2.559903e+01	9.631027e+01
2.710000e-06	3.726717e-06	1.370635e-09	2.584448e+01	9.675520e+01
2.720000e-06	3.761918e-06	1.379409e-09	2.608860e+01	9.718175e+01
2.730000e-06	3.796819e-06	1.387724e-09	2.633064e+01	9.759035e+01
2.740000e-06	3.831300e-06	1.395165e-09	2.656976e+01	9.798149e+01
2.750000e-06	3.865240e-06	1.399856e-09	2.680513e+01	9.835579e+01
2.760000e-06	3.898570e-06	1.403987e-09	2.703627e+01	9.871391e+01
2.770000e-06	3.931446e-06	1.408964e-09	2.726426e+01	9.905661e+01
2.780000e-06	3.963951e-06	1.415735e-09	2.748969e+01	9.938473e+01
2.790000e-06	3.996141e-06	1.426205e-09	2.771292e+01	9.969914e+01
2.800000e-06	4.028123e-06	1.433890e-09	2.793471e+01	1.000008e+02
2.810000e-06	4.059896e-06	1.436919e-09	2.815505e+01	1.002907e+02
2.820000e-06	4.091473e-06	1.440696e-09	2.837404e+01	1.005698e+02
2.830000e-06	4.122859e-06	1.446225e-09	2.859170e+01	1.008392e+02
2.840000e-06	4.154006e-06	1.450928e-09	2.880770e+01	1.010999e+02
2.850000e-06	4.184887e-06	1.453610e-09	2.902186e+01	1.013528e+02
2.860000e-06	4.215472e-06	1.456940e-09	2.923396e+01	1.015990e+02
2.870000e-06	4.245733e-06	1.459608e-09	2.944382e+01	1.018395e+02
2.880000e-06	4.275637e-06	1.460697e-09	2.965120e+01	1.020750e+02
2.890000e-06	4.305204e-06	1.464072e-09	2.985625e+01	1.023063e+02
2.900000e-06	4.334537e-06	1.467727e-09	3.005967e+01	1.025342e+02
