# Temperatura_=_5.07
# Concentracion g/m^3_=_1620.0
# C_Vs_to_Am_M_A/Vsm_=_65563218390.804596
# pendiente_HvsI_1/m_=_3716.3
# ordenada_HvsI_A/m_=_1297.0
# frecuencia_Hz_=_135096.10767197097

Tiempo_(s)	Campo_(V.s)	Magnetizacion_(V.s)	Campo_(kA/m)	Magnetizacion_(A/m)
0.000000e+00	-5.530987e-06	-1.471883e-09	-3.837170e+01	-9.751152e+01
1.000000e-08	-5.531193e-06	-1.469285e-09	-3.837313e+01	-9.745222e+01
2.000000e-08	-5.531194e-06	-1.470848e-09	-3.837314e+01	-9.739624e+01
3.000000e-08	-5.530919e-06	-1.475356e-09	-3.837123e+01	-9.734419e+01
4.000000e-08	-5.530192e-06	-1.482702e-09	-3.836620e+01	-9.729656e+01
5.000000e-08	-5.528923e-06	-1.483693e-09	-3.835739e+01	-9.725382e+01
6.000000e-08	-5.527034e-06	-1.468158e-09	-3.834428e+01	-9.721629e+01
7.000000e-08	-5.524506e-06	-1.435734e-09	-3.832674e+01	-9.718425e+01
8.000000e-08	-5.521415e-06	-1.453657e-09	-3.830530e+01	-9.715782e+01
9.000000e-08	-5.517844e-06	-1.561262e-09	-3.828053e+01	-9.713704e+01
1.000000e-07	-5.513763e-06	-1.622709e-09	-3.825221e+01	-9.712181e+01
1.100000e-07	-5.509366e-06	-1.482195e-09	-3.822171e+01	-9.711191e+01
1.200000e-07	-5.504891e-06	-1.357655e-09	-3.819067e+01	-9.710699e+01
1.300000e-07	-5.500196e-06	-1.399949e-09	-3.815809e+01	-9.710660e+01
1.400000e-07	-5.495124e-06	-1.552311e-09	-3.812290e+01	-9.711015e+01
1.500000e-07	-5.489566e-06	-1.496136e-09	-3.808435e+01	-9.711695e+01
1.600000e-07	-5.483604e-06	-1.400060e-09	-3.804299e+01	-9.712622e+01
1.700000e-07	-5.477304e-06	-1.428065e-09	-3.799927e+01	-9.713706e+01
1.800000e-07	-5.470565e-06	-1.558515e-09	-3.795252e+01	-9.714852e+01
1.900000e-07	-5.463398e-06	-1.521515e-09	-3.790281e+01	-9.715959e+01
2.000000e-07	-5.455961e-06	-1.400383e-09	-3.785121e+01	-9.716919e+01
2.100000e-07	-5.448278e-06	-1.399306e-09	-3.779790e+01	-9.717625e+01
2.200000e-07	-5.440266e-06	-1.511083e-09	-3.774232e+01	-9.717964e+01
2.300000e-07	-5.431967e-06	-1.546848e-09	-3.768475e+01	-9.717829e+01
2.400000e-07	-5.423361e-06	-1.467615e-09	-3.762505e+01	-9.717113e+01
2.500000e-07	-5.414059e-06	-1.447009e-09	-3.756051e+01	-9.715714e+01
2.600000e-07	-5.403937e-06	-1.470806e-09	-3.749029e+01	-9.713535e+01
2.700000e-07	-5.393277e-06	-1.494520e-09	-3.741633e+01	-9.710491e+01
2.800000e-07	-5.382203e-06	-1.445250e-09	-3.733951e+01	-9.706502e+01
2.900000e-07	-5.370711e-06	-1.451675e-09	-3.725978e+01	-9.701501e+01
3.000000e-07	-5.358806e-06	-1.470905e-09	-3.717719e+01	-9.695432e+01
3.100000e-07	-5.346497e-06	-1.496828e-09	-3.709179e+01	-9.688254e+01
3.200000e-07	-5.333733e-06	-1.440005e-09	-3.700324e+01	-9.679938e+01
3.300000e-07	-5.320550e-06	-1.444981e-09	-3.691178e+01	-9.670469e+01
3.400000e-07	-5.307026e-06	-1.468419e-09	-3.681796e+01	-9.659846e+01
3.500000e-07	-5.293111e-06	-1.486324e-09	-3.672142e+01	-9.648083e+01
3.600000e-07	-5.278748e-06	-1.439608e-09	-3.662178e+01	-9.635208e+01
3.700000e-07	-5.264054e-06	-1.466738e-09	-3.651983e+01	-9.621262e+01
3.800000e-07	-5.248910e-06	-1.472750e-09	-3.641477e+01	-9.606299e+01
3.900000e-07	-5.233047e-06	-1.434218e-09	-3.630472e+01	-9.590383e+01
4.000000e-07	-5.216580e-06	-1.422445e-09	-3.619048e+01	-9.573588e+01
4.100000e-07	-5.199928e-06	-1.475308e-09	-3.607495e+01	-9.556000e+01
4.200000e-07	-5.183043e-06	-1.447184e-09	-3.595781e+01	-9.537708e+01
4.300000e-07	-5.165720e-06	-1.392910e-09	-3.583764e+01	-9.518809e+01
4.400000e-07	-5.148138e-06	-1.444795e-09	-3.571566e+01	-9.499403e+01
4.500000e-07	-5.130211e-06	-1.477011e-09	-3.559129e+01	-9.479593e+01
4.600000e-07	-5.111757e-06	-1.410331e-09	-3.546326e+01	-9.459478e+01
4.700000e-07	-5.092840e-06	-1.394647e-09	-3.533203e+01	-9.439161e+01
4.800000e-07	-5.073566e-06	-1.450751e-09	-3.519831e+01	-9.418737e+01
4.900000e-07	-5.054003e-06	-1.422959e-09	-3.506259e+01	-9.398297e+01
5.000000e-07	-5.034226e-06	-1.393846e-09	-3.492539e+01	-9.377927e+01
5.100000e-07	-5.014331e-06	-1.425662e-09	-3.478736e+01	-9.357703e+01
5.200000e-07	-4.994142e-06	-1.420109e-09	-3.464730e+01	-9.337692e+01
5.300000e-07	-4.973517e-06	-1.374477e-09	-3.450421e+01	-9.317952e+01
5.400000e-07	-4.952521e-06	-1.423103e-09	-3.435855e+01	-9.298529e+01
5.500000e-07	-4.931249e-06	-1.443863e-09	-3.421097e+01	-9.279457e+01
5.600000e-07	-4.909661e-06	-1.392053e-09	-3.406120e+01	-9.260760e+01
5.700000e-07	-4.887733e-06	-1.376690e-09	-3.390908e+01	-9.242449e+01
5.800000e-07	-4.865431e-06	-1.418595e-09	-3.375436e+01	-9.224522e+01
5.900000e-07	-4.842637e-06	-1.388587e-09	-3.359622e+01	-9.206969e+01
6.000000e-07	-4.819502e-06	-1.369211e-09	-3.343572e+01	-9.189766e+01
6.100000e-07	-4.796174e-06	-1.393442e-09	-3.327388e+01	-9.172882e+01
6.200000e-07	-4.772683e-06	-1.397352e-09	-3.311091e+01	-9.156276e+01
6.300000e-07	-4.748974e-06	-1.369523e-09	-3.294643e+01	-9.139898e+01
6.400000e-07	-4.725003e-06	-1.387218e-09	-3.278012e+01	-9.123694e+01
6.500000e-07	-4.700673e-06	-1.390060e-09	-3.261133e+01	-9.107604e+01
6.600000e-07	-4.675961e-06	-1.372589e-09	-3.243989e+01	-9.091564e+01
6.700000e-07	-4.650764e-06	-1.374515e-09	-3.226508e+01	-9.075507e+01
6.800000e-07	-4.624930e-06	-1.386173e-09	-3.208585e+01	-9.059366e+01
6.900000e-07	-4.598505e-06	-1.369909e-09	-3.190253e+01	-9.043076e+01
7.000000e-07	-4.571578e-06	-1.367604e-09	-3.171572e+01	-9.026572e+01
7.100000e-07	-4.544242e-06	-1.372250e-09	-3.152608e+01	-9.009793e+01
7.200000e-07	-4.516664e-06	-1.361158e-09	-3.133476e+01	-8.992681e+01
7.300000e-07	-4.488950e-06	-1.352294e-09	-3.114249e+01	-8.975185e+01
7.400000e-07	-4.461053e-06	-1.357571e-09	-3.094894e+01	-8.957260e+01
7.500000e-07	-4.432925e-06	-1.353174e-09	-3.075381e+01	-8.938865e+01
7.600000e-07	-4.404568e-06	-1.340991e-09	-3.055707e+01	-8.919970e+01
7.700000e-07	-4.375957e-06	-1.340339e-09	-3.035859e+01	-8.900549e+01
7.800000e-07	-4.346986e-06	-1.333981e-09	-3.015760e+01	-8.880585e+01
7.900000e-07	-4.317637e-06	-1.328808e-09	-2.995399e+01	-8.860069e+01
8.000000e-07	-4.288008e-06	-1.330675e-09	-2.974843e+01	-8.838997e+01
8.100000e-07	-4.258117e-06	-1.327802e-09	-2.954106e+01	-8.817374e+01
8.200000e-07	-4.227978e-06	-1.308632e-09	-2.933197e+01	-8.795210e+01
8.300000e-07	-4.197556e-06	-1.307024e-09	-2.912092e+01	-8.772519e+01
8.400000e-07	-4.166767e-06	-1.310144e-09	-2.890731e+01	-8.749321e+01
8.500000e-07	-4.135574e-06	-1.306901e-09	-2.869091e+01	-8.725639e+01
8.600000e-07	-4.104165e-06	-1.300004e-09	-2.847300e+01	-8.701499e+01
8.700000e-07	-4.072671e-06	-1.300225e-09	-2.825452e+01	-8.676928e+01
8.800000e-07	-4.040963e-06	-1.285700e-09	-2.803453e+01	-8.651953e+01
8.900000e-07	-4.009065e-06	-1.274637e-09	-2.781324e+01	-8.626602e+01
9.000000e-07	-3.977038e-06	-1.270960e-09	-2.759105e+01	-8.600900e+01
9.100000e-07	-3.944720e-06	-1.267162e-09	-2.736684e+01	-8.574871e+01
9.200000e-07	-3.912003e-06	-1.254517e-09	-2.713987e+01	-8.548534e+01
9.300000e-07	-3.878854e-06	-1.258406e-09	-2.690989e+01	-8.521907e+01
9.400000e-07	-3.845181e-06	-1.263423e-09	-2.667628e+01	-8.495002e+01
9.500000e-07	-3.811101e-06	-1.259978e-09	-2.643985e+01	-8.467825e+01
9.600000e-07	-3.776661e-06	-1.250315e-09	-2.620092e+01	-8.440380e+01
9.700000e-07	-3.741796e-06	-1.247961e-09	-2.595904e+01	-8.412664e+01
9.800000e-07	-3.706576e-06	-1.237206e-09	-2.571469e+01	-8.384669e+01
9.900000e-07	-3.671118e-06	-1.224295e-09	-2.546870e+01	-8.356382e+01
1.000000e-06	-3.635455e-06	-1.218812e-09	-2.522128e+01	-8.327787e+01
1.010000e-06	-3.599633e-06	-1.217576e-09	-2.497277e+01	-8.298863e+01
1.020000e-06	-3.563713e-06	-1.212727e-09	-2.472357e+01	-8.269583e+01
1.030000e-06	-3.527684e-06	-1.211590e-09	-2.447362e+01	-8.239922e+01
1.040000e-06	-3.491403e-06	-1.211882e-09	-2.422191e+01	-8.209849e+01
1.050000e-06	-3.454805e-06	-1.201325e-09	-2.396801e+01	-8.179334e+01
1.060000e-06	-3.417997e-06	-1.188652e-09	-2.371265e+01	-8.148344e+01
1.070000e-06	-3.380926e-06	-1.180935e-09	-2.345547e+01	-8.116850e+01
1.080000e-06	-3.343554e-06	-1.175899e-09	-2.319620e+01	-8.084821e+01
1.090000e-06	-3.305937e-06	-1.169244e-09	-2.293523e+01	-8.052229e+01
1.100000e-06	-3.268116e-06	-1.168455e-09	-2.267284e+01	-8.019051e+01
1.110000e-06	-3.230104e-06	-1.162860e-09	-2.240913e+01	-7.985263e+01
1.120000e-06	-3.191795e-06	-1.155674e-09	-2.214336e+01	-7.950849e+01
1.130000e-06	-3.153249e-06	-1.148338e-09	-2.187594e+01	-7.915795e+01
1.140000e-06	-3.114559e-06	-1.144950e-09	-2.160752e+01	-7.880094e+01
1.150000e-06	-3.075658e-06	-1.139881e-09	-2.133765e+01	-7.843742e+01
1.160000e-06	-3.036503e-06	-1.136121e-09	-2.106600e+01	-7.806740e+01
1.170000e-06	-2.997132e-06	-1.131737e-09	-2.079286e+01	-7.769096e+01
1.180000e-06	-2.957665e-06	-1.124166e-09	-2.051906e+01	-7.730819e+01
1.190000e-06	-2.918086e-06	-1.114060e-09	-2.024448e+01	-7.691927e+01
1.200000e-06	-2.878332e-06	-1.106231e-09	-1.996868e+01	-7.652438e+01
1.210000e-06	-2.838438e-06	-1.097962e-09	-1.969191e+01	-7.612374e+01
1.220000e-06	-2.798462e-06	-1.093435e-09	-1.941458e+01	-7.571760e+01
1.230000e-06	-2.758447e-06	-1.092309e-09	-1.913697e+01	-7.530623e+01
1.240000e-06	-2.718254e-06	-1.092713e-09	-1.885813e+01	-7.488988e+01
1.250000e-06	-2.677803e-06	-1.087772e-09	-1.857749e+01	-7.446885e+01
1.260000e-06	-2.637064e-06	-1.081573e-09	-1.829486e+01	-7.404336e+01
1.270000e-06	-2.595921e-06	-1.072082e-09	-1.800943e+01	-7.361366e+01
1.280000e-06	-2.554441e-06	-1.059986e-09	-1.772166e+01	-7.317996e+01
1.290000e-06	-2.512616e-06	-1.046219e-09	-1.743150e+01	-7.274240e+01
1.300000e-06	-2.470528e-06	-1.038819e-09	-1.713951e+01	-7.230110e+01
1.310000e-06	-2.428269e-06	-1.035030e-09	-1.684633e+01	-7.185612e+01
1.320000e-06	-2.385756e-06	-1.031116e-09	-1.655139e+01	-7.140746e+01
1.330000e-06	-2.342936e-06	-1.026310e-09	-1.625432e+01	-7.095502e+01
1.340000e-06	-2.299861e-06	-1.018850e-09	-1.595549e+01	-7.049868e+01
1.350000e-06	-2.256548e-06	-1.011962e-09	-1.565500e+01	-7.003821e+01
1.360000e-06	-2.212998e-06	-1.003835e-09	-1.535287e+01	-6.957330e+01
1.370000e-06	-2.169344e-06	-9.938618e-10	-1.505001e+01	-6.910359e+01
1.380000e-06	-2.125606e-06	-9.837464e-10	-1.474658e+01	-6.862863e+01
1.390000e-06	-2.081867e-06	-9.737497e-10	-1.444313e+01	-6.814789e+01
1.400000e-06	-2.038086e-06	-9.656169e-10	-1.413940e+01	-6.766080e+01
1.410000e-06	-1.994139e-06	-9.588006e-10	-1.383452e+01	-6.716669e+01
1.420000e-06	-1.950112e-06	-9.502893e-10	-1.352907e+01	-6.666488e+01
1.430000e-06	-1.906018e-06	-9.413887e-10	-1.322317e+01	-6.615461e+01
1.440000e-06	-1.861809e-06	-9.314942e-10	-1.291646e+01	-6.563507e+01
1.450000e-06	-1.817517e-06	-9.219544e-10	-1.260918e+01	-6.510546e+01
1.460000e-06	-1.773053e-06	-9.106519e-10	-1.230071e+01	-6.456492e+01
1.470000e-06	-1.728389e-06	-9.009661e-10	-1.199085e+01	-6.401259e+01
1.480000e-06	-1.683619e-06	-8.915594e-10	-1.168025e+01	-6.344760e+01
1.490000e-06	-1.638692e-06	-8.809720e-10	-1.136857e+01	-6.286908e+01
1.500000e-06	-1.593704e-06	-8.677296e-10	-1.105646e+01	-6.227618e+01
1.510000e-06	-1.548683e-06	-8.548455e-10	-1.074413e+01	-6.166806e+01
1.520000e-06	-1.503547e-06	-8.413176e-10	-1.043099e+01	-6.104389e+01
1.530000e-06	-1.458325e-06	-8.283711e-10	-1.011726e+01	-6.040288e+01
1.540000e-06	-1.412975e-06	-8.145755e-10	-9.802637e+00	-5.974428e+01
1.550000e-06	-1.367498e-06	-8.018948e-10	-9.487138e+00	-5.906734e+01
1.560000e-06	-1.321881e-06	-7.905723e-10	-9.170662e+00	-5.837137e+01
1.570000e-06	-1.276183e-06	-7.814780e-10	-8.853635e+00	-5.765571e+01
1.580000e-06	-1.230449e-06	-7.718337e-10	-8.536349e+00	-5.691973e+01
1.590000e-06	-1.184636e-06	-7.592932e-10	-8.218519e+00	-5.616283e+01
1.600000e-06	-1.138789e-06	-7.432945e-10	-7.900450e+00	-5.538443e+01
1.610000e-06	-1.092950e-06	-7.271142e-10	-7.582436e+00	-5.458399e+01
1.620000e-06	-1.046959e-06	-7.153851e-10	-7.263371e+00	-5.376097e+01
1.630000e-06	-1.000723e-06	-7.070301e-10	-6.942604e+00	-5.291485e+01
1.640000e-06	-9.544181e-07	-6.984554e-10	-6.621359e+00	-5.204512e+01
1.650000e-06	-9.080796e-07	-6.873918e-10	-6.299882e+00	-5.115126e+01
1.660000e-06	-8.616892e-07	-6.743671e-10	-5.978044e+00	-5.023276e+01
1.670000e-06	-8.152749e-07	-6.571755e-10	-5.656041e+00	-4.928909e+01
1.680000e-06	-7.688498e-07	-6.359188e-10	-5.333963e+00	-4.831971e+01
1.690000e-06	-7.223873e-07	-6.141929e-10	-5.011625e+00	-4.732405e+01
1.700000e-06	-6.758593e-07	-5.955994e-10	-4.688833e+00	-4.630153e+01
1.710000e-06	-6.292202e-07	-5.815679e-10	-4.365271e+00	-4.525154e+01
1.720000e-06	-5.825359e-07	-5.700043e-10	-4.041394e+00	-4.417345e+01
1.730000e-06	-5.359046e-07	-5.574995e-10	-3.717885e+00	-4.306661e+01
1.740000e-06	-4.891978e-07	-5.428431e-10	-3.393852e+00	-4.193034e+01
1.750000e-06	-4.424086e-07	-5.247073e-10	-3.069248e+00	-4.076396e+01
1.760000e-06	-3.956242e-07	-5.055552e-10	-2.744678e+00	-3.956675e+01
1.770000e-06	-3.488097e-07	-4.856018e-10	-2.419898e+00	-3.833802e+01
1.780000e-06	-3.019799e-07	-4.647466e-10	-2.095012e+00	-3.707707e+01
1.790000e-06	-2.550395e-07	-4.440491e-10	-1.769359e+00	-3.578322e+01
1.800000e-06	-2.080032e-07	-4.265601e-10	-1.443040e+00	-3.445581e+01
1.810000e-06	-1.609962e-07	-4.087603e-10	-1.116925e+00	-3.309424e+01
1.820000e-06	-1.140024e-07	-3.888768e-10	-7.909016e-01	-3.169795e+01
1.830000e-06	-6.702227e-08	-3.702067e-10	-4.649729e-01	-3.026645e+01
1.840000e-06	-2.002774e-08	-3.511578e-10	-1.389442e-01	-2.879934e+01
1.850000e-06	2.694887e-08	-3.306211e-10	1.869602e-01	-2.729631e+01
1.860000e-06	7.388589e-08	-3.107950e-10	5.125899e-01	-2.575719e+01
1.870000e-06	1.208586e-07	-2.885155e-10	8.384674e-01	-2.418190e+01
1.880000e-06	1.677592e-07	-2.657030e-10	1.163844e+00	-2.257053e+01
1.890000e-06	2.146608e-07	-2.414491e-10	1.489228e+00	-2.092333e+01
1.900000e-06	2.615620e-07	-2.183478e-10	1.814609e+00	-1.924068e+01
1.910000e-06	3.083846e-07	-1.951664e-10	2.139445e+00	-1.752319e+01
1.920000e-06	3.552726e-07	-1.694674e-10	2.464735e+00	-1.577160e+01
1.930000e-06	4.021147e-07	-1.448543e-10	2.789706e+00	-1.398689e+01
1.940000e-06	4.489152e-07	-1.205333e-10	3.114388e+00	-1.217019e+01
1.950000e-06	4.957132e-07	-9.669043e-11	3.439054e+00	-1.032287e+01
1.960000e-06	5.424434e-07	-7.291982e-11	3.763249e+00	-8.446452e+00
1.970000e-06	5.890549e-07	-4.928680e-11	4.086620e+00	-6.542682e+00
1.980000e-06	6.355813e-07	-2.298784e-11	4.409401e+00	-4.613476e+00
1.990000e-06	6.820874e-07	5.690818e-12	4.732041e+00	-2.660934e+00
2.000000e-06	7.285719e-07	3.686180e-11	5.054531e+00	-6.873187e-01
2.010000e-06	7.750167e-07	6.762758e-11	5.376746e+00	1.304950e+00
2.020000e-06	8.213899e-07	9.709689e-11	5.698465e+00	3.313316e+00
2.030000e-06	8.676832e-07	1.230320e-10	6.019628e+00	5.335100e+00
2.040000e-06	9.139362e-07	1.445074e-10	6.340513e+00	7.367521e+00
2.050000e-06	9.601829e-07	1.660129e-10	6.661353e+00	9.407715e+00
2.060000e-06	1.006375e-06	1.915815e-10	6.981813e+00	1.145276e+01
2.070000e-06	1.052402e-06	2.226816e-10	7.301131e+00	1.349968e+01
2.080000e-06	1.098324e-06	2.575129e-10	7.619719e+00	1.554551e+01
2.090000e-06	1.144226e-06	2.909431e-10	7.938168e+00	1.758726e+01
2.100000e-06	1.190010e-06	3.215860e-10	8.255799e+00	1.962200e+01
2.110000e-06	1.235710e-06	3.479911e-10	8.572848e+00	2.164684e+01
2.120000e-06	1.281335e-06	3.737255e-10	8.889376e+00	2.365894e+01
2.130000e-06	1.326828e-06	4.008098e-10	9.204982e+00	2.565558e+01
2.140000e-06	1.372321e-06	4.277449e-10	9.520596e+00	2.763416e+01
2.150000e-06	1.417764e-06	4.541572e-10	9.835862e+00	2.959219e+01
2.160000e-06	1.463057e-06	4.802891e-10	1.015009e+01	3.152733e+01
2.170000e-06	1.508240e-06	5.055005e-10	1.046355e+01	3.343740e+01
2.180000e-06	1.553208e-06	5.297396e-10	1.077552e+01	3.532040e+01
2.190000e-06	1.598056e-06	5.566333e-10	1.108665e+01	3.717451e+01
2.200000e-06	1.642833e-06	5.843171e-10	1.139730e+01	3.899809e+01
2.210000e-06	1.687499e-06	6.109337e-10	1.170717e+01	4.078968e+01
2.220000e-06	1.732037e-06	6.360692e-10	1.201616e+01	4.254805e+01
2.230000e-06	1.776420e-06	6.600398e-10	1.232407e+01	4.427213e+01
2.240000e-06	1.820678e-06	6.817281e-10	1.263112e+01	4.596105e+01
2.250000e-06	1.864791e-06	7.016519e-10	1.293715e+01	4.761413e+01
2.260000e-06	1.908817e-06	7.204747e-10	1.324259e+01	4.923088e+01
2.270000e-06	1.952795e-06	7.387333e-10	1.354768e+01	5.081095e+01
2.280000e-06	1.996704e-06	7.588311e-10	1.385231e+01	5.235417e+01
2.290000e-06	2.040562e-06	7.804476e-10	1.415657e+01	5.386053e+01
2.300000e-06	2.084360e-06	8.012512e-10	1.446043e+01	5.533014e+01
2.310000e-06	2.128089e-06	8.220741e-10	1.476380e+01	5.676323e+01
2.320000e-06	2.171707e-06	8.412980e-10	1.506641e+01	5.816014e+01
2.330000e-06	2.215176e-06	8.588495e-10	1.536798e+01	5.952131e+01
2.340000e-06	2.258583e-06	8.754323e-10	1.566912e+01	6.084724e+01
2.350000e-06	2.301910e-06	8.919040e-10	1.596970e+01	6.213851e+01
2.360000e-06	2.345095e-06	9.088445e-10	1.626930e+01	6.339574e+01
2.370000e-06	2.388072e-06	9.259563e-10	1.656746e+01	6.461958e+01
2.380000e-06	2.430667e-06	9.419081e-10	1.686296e+01	6.581071e+01
2.390000e-06	2.472874e-06	9.574671e-10	1.715578e+01	6.696980e+01
2.400000e-06	2.514790e-06	9.739917e-10	1.744658e+01	6.809753e+01
2.410000e-06	2.556298e-06	9.891113e-10	1.773454e+01	6.919456e+01
2.420000e-06	2.597501e-06	1.002922e-09	1.802039e+01	7.026154e+01
2.430000e-06	2.638521e-06	1.016562e-09	1.830497e+01	7.129907e+01
2.440000e-06	2.679311e-06	1.028430e-09	1.858796e+01	7.230772e+01
2.450000e-06	2.719833e-06	1.039011e-09	1.886908e+01	7.328804e+01
2.460000e-06	2.760081e-06	1.049862e-09	1.914831e+01	7.424051e+01
2.470000e-06	2.800163e-06	1.060379e-09	1.942637e+01	7.516558e+01
2.480000e-06	2.840119e-06	1.069149e-09	1.970357e+01	7.606366e+01
2.490000e-06	2.879973e-06	1.077718e-09	1.998007e+01	7.693510e+01
2.500000e-06	2.919680e-06	1.089710e-09	2.025553e+01	7.778024e+01
2.510000e-06	2.959289e-06	1.104342e-09	2.053033e+01	7.859937e+01
2.520000e-06	2.998805e-06	1.117752e-09	2.080447e+01	7.939273e+01
2.530000e-06	3.038095e-06	1.128274e-09	2.107705e+01	8.016057e+01
2.540000e-06	3.077235e-06	1.136309e-09	2.134858e+01	8.090311e+01
2.550000e-06	3.116165e-06	1.141369e-09	2.161867e+01	8.162054e+01
2.560000e-06	3.154745e-06	1.146451e-09	2.188632e+01	8.231309e+01
2.570000e-06	3.193061e-06	1.154207e-09	2.215214e+01	8.298094e+01
2.580000e-06	3.231135e-06	1.164053e-09	2.241629e+01	8.362432e+01
2.590000e-06	3.268978e-06	1.175551e-09	2.267882e+01	8.424348e+01
2.600000e-06	3.306681e-06	1.187692e-09	2.294039e+01	8.483867e+01
2.610000e-06	3.344247e-06	1.198572e-09	2.320101e+01	8.541020e+01
2.620000e-06	3.381557e-06	1.207640e-09	2.345985e+01	8.595840e+01
2.630000e-06	3.418472e-06	1.214097e-09	2.371595e+01	8.648365e+01
2.640000e-06	3.455071e-06	1.219039e-09	2.396986e+01	8.698639e+01
2.650000e-06	3.491507e-06	1.223557e-09	2.422263e+01	8.746709e+01
2.660000e-06	3.527708e-06	1.228378e-09	2.447378e+01	8.792631e+01
2.670000e-06	3.563688e-06	1.234844e-09	2.472340e+01	8.836462e+01
2.680000e-06	3.599531e-06	1.242429e-09	2.497206e+01	8.878268e+01
2.690000e-06	3.635267e-06	1.250104e-09	2.521998e+01	8.918120e+01
2.700000e-06	3.670903e-06	1.258561e-09	2.546721e+01	8.956094e+01
2.710000e-06	3.706301e-06	1.267583e-09	2.571279e+01	8.992272e+01
2.720000e-06	3.741421e-06	1.276298e-09	2.595643e+01	9.026739e+01
2.730000e-06	3.776306e-06	1.284728e-09	2.619846e+01	9.059585e+01
2.740000e-06	3.810819e-06	1.291591e-09	2.643789e+01	9.090905e+01
2.750000e-06	3.844851e-06	1.295648e-09	2.667399e+01	9.120796e+01
2.760000e-06	3.878452e-06	1.299003e-09	2.690710e+01	9.149356e+01
2.770000e-06	3.911569e-06	1.302407e-09	2.713685e+01	9.176687e+01
2.780000e-06	3.944202e-06	1.306251e-09	2.736325e+01	9.202889e+01
2.790000e-06	3.976558e-06	1.312939e-09	2.758772e+01	9.228063e+01
2.800000e-06	4.008653e-06	1.321162e-09	2.781038e+01	9.252309e+01
2.810000e-06	4.040499e-06	1.328883e-09	2.803132e+01	9.275724e+01
2.820000e-06	4.072251e-06	1.333020e-09	2.825160e+01	9.298402e+01
2.830000e-06	4.103898e-06	1.336809e-09	2.847115e+01	9.320434e+01
2.840000e-06	4.135289e-06	1.341966e-09	2.868893e+01	9.341905e+01
2.850000e-06	4.166361e-06	1.343370e-09	2.890449e+01	9.362895e+01
2.860000e-06	4.197123e-06	1.342058e-09	2.911791e+01	9.383476e+01
2.870000e-06	4.227571e-06	1.342092e-09	2.932915e+01	9.403716e+01
2.880000e-06	4.257709e-06	1.347996e-09	2.953823e+01	9.423672e+01
2.890000e-06	4.287578e-06	1.354417e-09	2.974545e+01	9.443395e+01
2.900000e-06	4.317178e-06	1.361259e-09	2.995080e+01	9.462926e+01
