# Temperatura_=_14.8
# Concentracion g/m^3_=_1620.0
# C_Vs_to_Am_M_A/Vsm_=_65563218390.804596
# pendiente_HvsI_1/m_=_3716.3
# ordenada_HvsI_A/m_=_1297.0
# frecuencia_Hz_=_135093.20139077114

Tiempo_(s)	Campo_(V.s)	Magnetizacion_(V.s)	Campo_(kA/m)	Magnetizacion_(A/m)
0.000000e+00	-5.536797e-06	-1.610171e-09	-3.838158e+01	-1.056925e+02
1.000000e-08	-5.537000e-06	-1.608904e-09	-3.838299e+01	-1.056767e+02
2.000000e-08	-5.537005e-06	-1.608807e-09	-3.838302e+01	-1.056633e+02
3.000000e-08	-5.536635e-06	-1.610615e-09	-3.838046e+01	-1.056524e+02
4.000000e-08	-5.535772e-06	-1.611900e-09	-3.837447e+01	-1.056440e+02
5.000000e-08	-5.534299e-06	-1.608437e-09	-3.836426e+01	-1.056378e+02
6.000000e-08	-5.532290e-06	-1.597510e-09	-3.835034e+01	-1.056335e+02
7.000000e-08	-5.529736e-06	-1.588123e-09	-3.833263e+01	-1.056310e+02
8.000000e-08	-5.526537e-06	-1.616882e-09	-3.831046e+01	-1.056296e+02
9.000000e-08	-5.522950e-06	-1.671998e-09	-3.828559e+01	-1.056289e+02
1.000000e-07	-5.518899e-06	-1.662315e-09	-3.825751e+01	-1.056282e+02
1.100000e-07	-5.514450e-06	-1.567431e-09	-3.822667e+01	-1.056270e+02
1.200000e-07	-5.509896e-06	-1.527473e-09	-3.819510e+01	-1.056245e+02
1.300000e-07	-5.505112e-06	-1.598205e-09	-3.816194e+01	-1.056198e+02
1.400000e-07	-5.499883e-06	-1.634314e-09	-3.812569e+01	-1.056122e+02
1.500000e-07	-5.494208e-06	-1.577285e-09	-3.808635e+01	-1.056008e+02
1.600000e-07	-5.488267e-06	-1.552488e-09	-3.804516e+01	-1.055848e+02
1.700000e-07	-5.482007e-06	-1.623971e-09	-3.800177e+01	-1.055633e+02
1.800000e-07	-5.475216e-06	-1.661912e-09	-3.795469e+01	-1.055355e+02
1.900000e-07	-5.468011e-06	-1.579184e-09	-3.790475e+01	-1.055006e+02
2.000000e-07	-5.460549e-06	-1.538417e-09	-3.785302e+01	-1.054578e+02
2.100000e-07	-5.452841e-06	-1.580248e-09	-3.779959e+01	-1.054064e+02
2.200000e-07	-5.444883e-06	-1.640420e-09	-3.774443e+01	-1.053459e+02
2.300000e-07	-5.436631e-06	-1.608121e-09	-3.768722e+01	-1.052755e+02
2.400000e-07	-5.427987e-06	-1.564763e-09	-3.762730e+01	-1.051950e+02
2.500000e-07	-5.418634e-06	-1.567853e-09	-3.756246e+01	-1.051039e+02
2.600000e-07	-5.408574e-06	-1.587187e-09	-3.749273e+01	-1.050020e+02
2.700000e-07	-5.398030e-06	-1.565356e-09	-3.741964e+01	-1.048891e+02
2.800000e-07	-5.387009e-06	-1.547405e-09	-3.734324e+01	-1.047652e+02
2.900000e-07	-5.375490e-06	-1.568013e-09	-3.726339e+01	-1.046303e+02
3.000000e-07	-5.363600e-06	-1.581801e-09	-3.718096e+01	-1.044847e+02
3.100000e-07	-5.351331e-06	-1.553524e-09	-3.709591e+01	-1.043285e+02
3.200000e-07	-5.338479e-06	-1.525712e-09	-3.700682e+01	-1.041622e+02
3.300000e-07	-5.325258e-06	-1.554280e-09	-3.691517e+01	-1.039862e+02
3.400000e-07	-5.311776e-06	-1.566907e-09	-3.682171e+01	-1.038011e+02
3.500000e-07	-5.297824e-06	-1.541814e-09	-3.672500e+01	-1.036075e+02
3.600000e-07	-5.283388e-06	-1.530516e-09	-3.662492e+01	-1.034061e+02
3.700000e-07	-5.268585e-06	-1.566220e-09	-3.652231e+01	-1.031976e+02
3.800000e-07	-5.253260e-06	-1.548304e-09	-3.641608e+01	-1.029828e+02
3.900000e-07	-5.237350e-06	-1.511264e-09	-3.630579e+01	-1.027625e+02
4.000000e-07	-5.220960e-06	-1.532386e-09	-3.619217e+01	-1.025374e+02
4.100000e-07	-5.204222e-06	-1.560455e-09	-3.607614e+01	-1.023084e+02
4.200000e-07	-5.187151e-06	-1.512533e-09	-3.595780e+01	-1.020763e+02
4.300000e-07	-5.169700e-06	-1.510963e-09	-3.583683e+01	-1.018417e+02
4.400000e-07	-5.151959e-06	-1.559496e-09	-3.571385e+01	-1.016055e+02
4.500000e-07	-5.133798e-06	-1.533168e-09	-3.558795e+01	-1.013683e+02
4.600000e-07	-5.115122e-06	-1.474145e-09	-3.545849e+01	-1.011307e+02
4.700000e-07	-5.096112e-06	-1.512888e-09	-3.532671e+01	-1.008933e+02
4.800000e-07	-5.076810e-06	-1.532087e-09	-3.519291e+01	-1.006566e+02
4.900000e-07	-5.057277e-06	-1.487986e-09	-3.505750e+01	-1.004210e+02
5.000000e-07	-5.037591e-06	-1.497051e-09	-3.492104e+01	-1.001868e+02
5.100000e-07	-5.017659e-06	-1.529470e-09	-3.478287e+01	-9.995432e+01
5.200000e-07	-4.997382e-06	-1.481237e-09	-3.464231e+01	-9.972369e+01
5.300000e-07	-4.976738e-06	-1.472168e-09	-3.449920e+01	-9.949507e+01
5.400000e-07	-4.955798e-06	-1.522274e-09	-3.435404e+01	-9.926847e+01
5.500000e-07	-4.934442e-06	-1.494711e-09	-3.420600e+01	-9.904388e+01
5.600000e-07	-4.912715e-06	-1.447555e-09	-3.405539e+01	-9.882121e+01
5.700000e-07	-4.890761e-06	-1.488368e-09	-3.390320e+01	-9.860031e+01
5.800000e-07	-4.868459e-06	-1.500730e-09	-3.374860e+01	-9.838098e+01
5.900000e-07	-4.845771e-06	-1.453510e-09	-3.359133e+01	-9.816298e+01
6.000000e-07	-4.822726e-06	-1.465889e-09	-3.343158e+01	-9.794606e+01
6.100000e-07	-4.799409e-06	-1.489482e-09	-3.326994e+01	-9.772989e+01
6.200000e-07	-4.775788e-06	-1.453045e-09	-3.310620e+01	-9.751416e+01
6.300000e-07	-4.751911e-06	-1.444268e-09	-3.294068e+01	-9.729854e+01
6.400000e-07	-4.727868e-06	-1.471295e-09	-3.277401e+01	-9.708269e+01
6.500000e-07	-4.703412e-06	-1.450632e-09	-3.260448e+01	-9.686627e+01
6.600000e-07	-4.678497e-06	-1.437745e-09	-3.243177e+01	-9.664895e+01
6.700000e-07	-4.653179e-06	-1.460869e-09	-3.225626e+01	-9.643040e+01
6.800000e-07	-4.627301e-06	-1.457099e-09	-3.207687e+01	-9.621033e+01
6.900000e-07	-4.600825e-06	-1.430638e-09	-3.189334e+01	-9.598844e+01
7.000000e-07	-4.573948e-06	-1.442605e-09	-3.170703e+01	-9.576446e+01
7.100000e-07	-4.546761e-06	-1.443496e-09	-3.151856e+01	-9.553814e+01
7.200000e-07	-4.519205e-06	-1.421940e-09	-3.132754e+01	-9.530928e+01
7.300000e-07	-4.491431e-06	-1.423423e-09	-3.113501e+01	-9.507765e+01
7.400000e-07	-4.463550e-06	-1.435348e-09	-3.094174e+01	-9.484308e+01
7.500000e-07	-4.435444e-06	-1.415057e-09	-3.074690e+01	-9.460540e+01
7.600000e-07	-4.407049e-06	-1.404352e-09	-3.055007e+01	-9.436448e+01
7.700000e-07	-4.378234e-06	-1.408693e-09	-3.035031e+01	-9.412017e+01
7.800000e-07	-4.349066e-06	-1.397270e-09	-3.014812e+01	-9.387236e+01
7.900000e-07	-4.319718e-06	-1.384078e-09	-2.994468e+01	-9.362093e+01
8.000000e-07	-4.290133e-06	-1.390614e-09	-2.973959e+01	-9.336577e+01
8.100000e-07	-4.260218e-06	-1.384460e-09	-2.953222e+01	-9.310678e+01
8.200000e-07	-4.230023e-06	-1.370407e-09	-2.932290e+01	-9.284386e+01
8.300000e-07	-4.199551e-06	-1.371761e-09	-2.911167e+01	-9.257689e+01
8.400000e-07	-4.168696e-06	-1.371520e-09	-2.889778e+01	-9.230577e+01
8.500000e-07	-4.137526e-06	-1.357163e-09	-2.868171e+01	-9.203037e+01
8.600000e-07	-4.106142e-06	-1.353704e-09	-2.846415e+01	-9.175058e+01
8.700000e-07	-4.074625e-06	-1.351386e-09	-2.824567e+01	-9.146626e+01
8.800000e-07	-4.042957e-06	-1.332598e-09	-2.802615e+01	-9.117729e+01
8.900000e-07	-4.011082e-06	-1.323386e-09	-2.780519e+01	-9.088351e+01
9.000000e-07	-3.978929e-06	-1.326784e-09	-2.758230e+01	-9.058481e+01
9.100000e-07	-3.946403e-06	-1.321707e-09	-2.735682e+01	-9.028103e+01
9.200000e-07	-3.913621e-06	-1.314257e-09	-2.712958e+01	-8.997204e+01
9.300000e-07	-3.880556e-06	-1.319908e-09	-2.690037e+01	-8.965771e+01
9.400000e-07	-3.847142e-06	-1.313879e-09	-2.666874e+01	-8.933793e+01
9.500000e-07	-3.813260e-06	-1.299077e-09	-2.643387e+01	-8.901259e+01
9.600000e-07	-3.778795e-06	-1.292599e-09	-2.619495e+01	-8.868160e+01
9.700000e-07	-3.743906e-06	-1.287332e-09	-2.595310e+01	-8.834490e+01
9.800000e-07	-3.708665e-06	-1.273512e-09	-2.570880e+01	-8.800245e+01
9.900000e-07	-3.673119e-06	-1.267756e-09	-2.546240e+01	-8.765423e+01
1.000000e-06	-3.637388e-06	-1.266117e-09	-2.521471e+01	-8.730026e+01
1.010000e-06	-3.601572e-06	-1.259335e-09	-2.496643e+01	-8.694059e+01
1.020000e-06	-3.565616e-06	-1.253330e-09	-2.471717e+01	-8.657529e+01
1.030000e-06	-3.529460e-06	-1.252068e-09	-2.446653e+01	-8.620448e+01
1.040000e-06	-3.493062e-06	-1.243487e-09	-2.421422e+01	-8.582830e+01
1.050000e-06	-3.456369e-06	-1.233457e-09	-2.395987e+01	-8.544692e+01
1.060000e-06	-3.419480e-06	-1.229577e-09	-2.370415e+01	-8.506057e+01
1.070000e-06	-3.382363e-06	-1.225898e-09	-2.344685e+01	-8.466945e+01
1.080000e-06	-3.344966e-06	-1.216344e-09	-2.318761e+01	-8.427383e+01
1.090000e-06	-3.307320e-06	-1.210733e-09	-2.292664e+01	-8.387398e+01
1.100000e-06	-3.269436e-06	-1.203883e-09	-2.266403e+01	-8.347017e+01
1.110000e-06	-3.231323e-06	-1.194224e-09	-2.239982e+01	-8.306269e+01
1.120000e-06	-3.192964e-06	-1.185224e-09	-2.213392e+01	-8.265183e+01
1.130000e-06	-3.154398e-06	-1.181176e-09	-2.186657e+01	-8.223786e+01
1.140000e-06	-3.115666e-06	-1.176179e-09	-2.159808e+01	-8.182105e+01
1.150000e-06	-3.076752e-06	-1.169948e-09	-2.132833e+01	-8.140165e+01
1.160000e-06	-3.037594e-06	-1.165342e-09	-2.105688e+01	-8.097985e+01
1.170000e-06	-2.998278e-06	-1.157287e-09	-2.078434e+01	-8.055586e+01
1.180000e-06	-2.958853e-06	-1.146347e-09	-2.051104e+01	-8.012979e+01
1.190000e-06	-2.919225e-06	-1.139577e-09	-2.023633e+01	-7.970175e+01
1.200000e-06	-2.879421e-06	-1.136950e-09	-1.996041e+01	-7.927177e+01
1.210000e-06	-2.839504e-06	-1.132278e-09	-1.968370e+01	-7.883985e+01
1.220000e-06	-2.799452e-06	-1.130586e-09	-1.940605e+01	-7.840590e+01
1.230000e-06	-2.759223e-06	-1.129188e-09	-1.912718e+01	-7.796981e+01
1.240000e-06	-2.718817e-06	-1.123445e-09	-1.884708e+01	-7.753136e+01
1.250000e-06	-2.678141e-06	-1.113562e-09	-1.856511e+01	-7.709032e+01
1.260000e-06	-2.637196e-06	-1.105893e-09	-1.828128e+01	-7.664636e+01
1.270000e-06	-2.596075e-06	-1.098394e-09	-1.799623e+01	-7.619913e+01
1.280000e-06	-2.554650e-06	-1.089871e-09	-1.770906e+01	-7.574818e+01
1.290000e-06	-2.512898e-06	-1.082146e-09	-1.741964e+01	-7.529306e+01
1.300000e-06	-2.470886e-06	-1.077265e-09	-1.712841e+01	-7.483324e+01
1.310000e-06	-2.428637e-06	-1.070822e-09	-1.683553e+01	-7.436817e+01
1.320000e-06	-2.386068e-06	-1.065817e-09	-1.654044e+01	-7.389726e+01
1.330000e-06	-2.343202e-06	-1.059889e-09	-1.624329e+01	-7.341991e+01
1.340000e-06	-2.300184e-06	-1.051162e-09	-1.594508e+01	-7.293546e+01
1.350000e-06	-2.257004e-06	-1.042785e-09	-1.564575e+01	-7.244330e+01
1.360000e-06	-2.213667e-06	-1.037465e-09	-1.534534e+01	-7.194277e+01
1.370000e-06	-2.170102e-06	-1.031434e-09	-1.504334e+01	-7.143322e+01
1.380000e-06	-2.126369e-06	-1.022001e-09	-1.474018e+01	-7.091404e+01
1.390000e-06	-2.082599e-06	-1.011348e-09	-1.443677e+01	-7.038459e+01
1.400000e-06	-2.038765e-06	-1.003443e-09	-1.413290e+01	-6.984428e+01
1.410000e-06	-1.994802e-06	-9.938046e-10	-1.382815e+01	-6.929254e+01
1.420000e-06	-1.950690e-06	-9.818132e-10	-1.352236e+01	-6.872882e+01
1.430000e-06	-1.906566e-06	-9.701219e-10	-1.321649e+01	-6.815259e+01
1.440000e-06	-1.862335e-06	-9.588939e-10	-1.290987e+01	-6.756337e+01
1.450000e-06	-1.817939e-06	-9.466830e-10	-1.260212e+01	-6.696069e+01
1.460000e-06	-1.773465e-06	-9.348481e-10	-1.229382e+01	-6.634413e+01
1.470000e-06	-1.728868e-06	-9.222271e-10	-1.198467e+01	-6.571326e+01
1.480000e-06	-1.684083e-06	-9.084530e-10	-1.167422e+01	-6.506771e+01
1.490000e-06	-1.639147e-06	-8.949691e-10	-1.136272e+01	-6.440711e+01
1.500000e-06	-1.594109e-06	-8.791515e-10	-1.105051e+01	-6.373108e+01
1.510000e-06	-1.548973e-06	-8.652740e-10	-1.073762e+01	-6.303928e+01
1.520000e-06	-1.503779e-06	-8.552046e-10	-1.042433e+01	-6.233135e+01
1.530000e-06	-1.458456e-06	-8.457642e-10	-1.011015e+01	-6.160691e+01
1.540000e-06	-1.413063e-06	-8.330289e-10	-9.795479e+00	-6.086558e+01
1.550000e-06	-1.367528e-06	-8.183271e-10	-9.479831e+00	-6.010695e+01
1.560000e-06	-1.321864e-06	-8.016332e-10	-9.163283e+00	-5.933059e+01
1.570000e-06	-1.276175e-06	-7.861850e-10	-8.846564e+00	-5.853600e+01
1.580000e-06	-1.230402e-06	-7.718516e-10	-8.529258e+00	-5.772268e+01
1.590000e-06	-1.184524e-06	-7.563592e-10	-8.211226e+00	-5.689005e+01
1.600000e-06	-1.138562e-06	-7.421828e-10	-7.892618e+00	-5.603748e+01
1.610000e-06	-1.092576e-06	-7.299030e-10	-7.573836e+00	-5.516430e+01
1.620000e-06	-1.046457e-06	-7.198671e-10	-7.254136e+00	-5.426976e+01
1.630000e-06	-1.000270e-06	-7.113823e-10	-6.933966e+00	-5.335307e+01
1.640000e-06	-9.540447e-07	-6.996940e-10	-6.613525e+00	-5.241338e+01
1.650000e-06	-9.077350e-07	-6.829955e-10	-6.292501e+00	-5.144977e+01
1.660000e-06	-8.613447e-07	-6.638087e-10	-5.970920e+00	-5.046130e+01
1.670000e-06	-8.147073e-07	-6.435123e-10	-5.647625e+00	-4.944695e+01
1.680000e-06	-7.680513e-07	-6.245103e-10	-5.324201e+00	-4.840569e+01
1.690000e-06	-7.215257e-07	-6.084376e-10	-5.001682e+00	-4.733645e+01
1.700000e-06	-6.749646e-07	-5.924087e-10	-4.678916e+00	-4.623816e+01
1.710000e-06	-6.283283e-07	-5.781397e-10	-4.355629e+00	-4.510971e+01
1.720000e-06	-5.816172e-07	-5.673238e-10	-4.031823e+00	-4.395002e+01
1.730000e-06	-5.348460e-07	-5.536573e-10	-3.707601e+00	-4.275804e+01
1.740000e-06	-4.880694e-07	-5.326813e-10	-3.383342e+00	-4.153271e+01
1.750000e-06	-4.413837e-07	-5.090821e-10	-3.059712e+00	-4.027307e+01
1.760000e-06	-3.946617e-07	-4.841612e-10	-2.735831e+00	-3.897818e+01
1.770000e-06	-3.477522e-07	-4.609614e-10	-2.410650e+00	-3.764719e+01
1.780000e-06	-3.008178e-07	-4.412366e-10	-2.085296e+00	-3.627936e+01
1.790000e-06	-2.538958e-07	-4.218736e-10	-1.760029e+00	-3.487403e+01
1.800000e-06	-2.069460e-07	-4.024016e-10	-1.434569e+00	-3.343067e+01
1.810000e-06	-1.600726e-07	-3.832354e-10	-1.109638e+00	-3.194888e+01
1.820000e-06	-1.132016e-07	-3.637761e-10	-7.847237e-01	-3.042839e+01
1.830000e-06	-6.624254e-08	-3.417468e-10	-4.591993e-01	-2.886910e+01
1.840000e-06	-1.932191e-08	-3.180255e-10	-1.339413e-01	-2.727107e+01
1.850000e-06	2.756792e-08	-2.950725e-10	1.911033e-01	-2.563450e+01
1.860000e-06	7.454463e-08	-2.740803e-10	5.167502e-01	-2.395980e+01
1.870000e-06	1.214544e-07	-2.525390e-10	8.419330e-01	-2.224754e+01
1.880000e-06	1.683498e-07	-2.304498e-10	1.167016e+00	-2.049846e+01
1.890000e-06	2.152597e-07	-2.068379e-10	1.492200e+00	-1.871351e+01
1.900000e-06	2.621409e-07	-1.804011e-10	1.817184e+00	-1.689379e+01
1.910000e-06	3.090742e-07	-1.532369e-10	2.142530e+00	-1.504059e+01
1.920000e-06	3.560445e-07	-1.266256e-10	2.468133e+00	-1.315536e+01
1.930000e-06	4.029339e-07	-9.977100e-11	2.793175e+00	-1.123972e+01
1.940000e-06	4.496686e-07	-7.311194e-11	3.117144e+00	-9.295467e+00
1.950000e-06	4.964574e-07	-4.641917e-11	3.441488e+00	-7.324509e+00
1.960000e-06	5.432998e-07	-1.938239e-11	3.766204e+00	-5.328915e+00
1.970000e-06	5.899631e-07	9.186848e-12	4.089678e+00	-3.310873e+00
1.980000e-06	6.365645e-07	3.906751e-11	4.412723e+00	-1.272685e+00
1.990000e-06	6.832378e-07	6.981556e-11	4.736266e+00	7.832473e-01
2.000000e-06	7.298622e-07	1.029002e-10	5.059471e+00	2.854436e+00
2.010000e-06	7.763936e-07	1.336993e-10	5.382031e+00	4.938320e+00
2.020000e-06	8.228716e-07	1.608796e-10	5.704221e+00	7.032284e+00
2.030000e-06	8.692329e-07	1.867057e-10	6.025601e+00	9.133668e+00
2.040000e-06	9.154376e-07	2.124961e-10	6.345897e+00	1.123978e+01
2.050000e-06	9.615931e-07	2.402206e-10	6.665851e+00	1.334793e+01
2.060000e-06	1.007764e-06	2.709119e-10	6.985914e+00	1.545541e+01
2.070000e-06	1.053849e-06	3.032486e-10	7.305375e+00	1.755954e+01
2.080000e-06	1.099818e-06	3.353568e-10	7.624035e+00	1.965766e+01
2.090000e-06	1.145770e-06	3.657898e-10	7.942584e+00	2.174716e+01
2.100000e-06	1.191693e-06	3.950893e-10	8.260924e+00	2.382547e+01
2.110000e-06	1.237521e-06	4.250867e-10	8.578609e+00	2.589011e+01
2.120000e-06	1.283288e-06	4.552811e-10	8.895866e+00	2.793865e+01
2.130000e-06	1.328934e-06	4.860549e-10	9.212293e+00	2.996876e+01
2.140000e-06	1.374416e-06	5.129133e-10	9.527580e+00	3.197820e+01
2.150000e-06	1.419771e-06	5.371939e-10	9.841981e+00	3.396484e+01
2.160000e-06	1.465084e-06	5.635946e-10	1.015609e+01	3.592665e+01
2.170000e-06	1.510365e-06	5.876185e-10	1.046999e+01	3.786174e+01
2.180000e-06	1.555505e-06	6.131238e-10	1.078291e+01	3.976832e+01
2.190000e-06	1.600531e-06	6.406510e-10	1.109502e+01	4.164475e+01
2.200000e-06	1.645424e-06	6.713092e-10	1.140623e+01	4.348949e+01
2.210000e-06	1.690108e-06	6.999129e-10	1.171598e+01	4.530119e+01
2.220000e-06	1.734651e-06	7.248216e-10	1.202476e+01	4.707859e+01
2.230000e-06	1.779109e-06	7.493556e-10	1.233295e+01	4.882059e+01
2.240000e-06	1.823413e-06	7.703901e-10	1.264007e+01	5.052623e+01
2.250000e-06	1.867570e-06	7.899878e-10	1.294617e+01	5.219471e+01
2.260000e-06	1.911629e-06	8.113311e-10	1.325159e+01	5.382533e+01
2.270000e-06	1.955652e-06	8.324268e-10	1.355676e+01	5.541758e+01
2.280000e-06	1.999646e-06	8.547950e-10	1.386173e+01	5.697105e+01
2.290000e-06	2.043575e-06	8.770792e-10	1.416625e+01	5.848548e+01
2.300000e-06	2.087434e-06	8.986557e-10	1.447028e+01	5.996074e+01
2.310000e-06	2.131258e-06	9.181238e-10	1.477407e+01	6.139682e+01
2.320000e-06	2.174999e-06	9.335431e-10	1.507729e+01	6.279384e+01
2.330000e-06	2.218634e-06	9.479770e-10	1.537978e+01	6.415203e+01
2.340000e-06	2.262194e-06	9.638634e-10	1.568173e+01	6.547173e+01
2.350000e-06	2.305534e-06	9.830953e-10	1.598217e+01	6.675338e+01
2.360000e-06	2.348631e-06	1.001810e-09	1.628092e+01	6.799752e+01
2.370000e-06	2.391393e-06	1.020237e-09	1.657735e+01	6.920477e+01
2.380000e-06	2.433732e-06	1.039762e-09	1.687085e+01	7.037583e+01
2.390000e-06	2.475818e-06	1.058876e-09	1.716260e+01	7.151146e+01
2.400000e-06	2.517624e-06	1.074901e-09	1.745240e+01	7.261248e+01
2.410000e-06	2.559090e-06	1.087208e-09	1.773984e+01	7.367977e+01
2.420000e-06	2.600372e-06	1.095338e-09	1.802601e+01	7.471424e+01
2.430000e-06	2.641416e-06	1.102142e-09	1.831053e+01	7.571684e+01
2.440000e-06	2.682139e-06	1.111584e-09	1.859283e+01	7.668851e+01
2.450000e-06	2.722542e-06	1.125491e-09	1.887291e+01	7.763025e+01
2.460000e-06	2.762753e-06	1.142346e-09	1.915165e+01	7.854301e+01
2.470000e-06	2.802937e-06	1.159877e-09	1.943022e+01	7.942776e+01
2.480000e-06	2.842990e-06	1.171628e-09	1.970786e+01	8.028547e+01
2.490000e-06	2.882899e-06	1.177160e-09	1.998451e+01	8.111706e+01
2.500000e-06	2.922705e-06	1.182050e-09	2.026046e+01	8.192343e+01
2.510000e-06	2.962323e-06	1.189603e-09	2.053509e+01	8.270546e+01
2.520000e-06	3.001696e-06	1.198559e-09	2.080803e+01	8.346397e+01
2.530000e-06	3.041003e-06	1.208844e-09	2.108051e+01	8.419975e+01
2.540000e-06	3.080139e-06	1.223113e-09	2.135180e+01	8.491355e+01
2.550000e-06	3.118994e-06	1.237793e-09	2.162115e+01	8.560607e+01
2.560000e-06	3.157584e-06	1.247595e-09	2.188866e+01	8.627796e+01
2.570000e-06	3.195885e-06	1.253993e-09	2.215416e+01	8.692983e+01
2.580000e-06	3.234018e-06	1.259526e-09	2.241850e+01	8.756224e+01
2.590000e-06	3.271982e-06	1.267689e-09	2.268168e+01	8.817570e+01
2.600000e-06	3.309784e-06	1.277110e-09	2.294372e+01	8.877070e+01
2.610000e-06	3.347375e-06	1.287001e-09	2.320431e+01	8.934768e+01
2.620000e-06	3.384683e-06	1.296993e-09	2.346293e+01	8.990706e+01
2.630000e-06	3.421706e-06	1.304289e-09	2.371958e+01	9.044923e+01
2.640000e-06	3.458449e-06	1.309249e-09	2.397428e+01	9.097457e+01
2.650000e-06	3.494952e-06	1.313269e-09	2.422733e+01	9.148342e+01
2.660000e-06	3.531268e-06	1.317925e-09	2.447907e+01	9.197615e+01
2.670000e-06	3.567393e-06	1.324066e-09	2.472949e+01	9.245309e+01
2.680000e-06	3.603367e-06	1.332685e-09	2.497887e+01	9.291461e+01
2.690000e-06	3.639233e-06	1.342924e-09	2.522749e+01	9.336107e+01
2.700000e-06	3.674938e-06	1.353720e-09	2.547500e+01	9.379284e+01
2.710000e-06	3.710442e-06	1.361824e-09	2.572112e+01	9.421032e+01
2.720000e-06	3.745750e-06	1.366843e-09	2.596588e+01	9.461393e+01
2.730000e-06	3.780647e-06	1.371402e-09	2.620779e+01	9.500411e+01
2.740000e-06	3.815030e-06	1.377111e-09	2.644614e+01	9.538132e+01
2.750000e-06	3.848981e-06	1.381750e-09	2.668149e+01	9.574606e+01
2.760000e-06	3.882466e-06	1.386059e-09	2.691361e+01	9.609884e+01
2.770000e-06	3.915536e-06	1.392824e-09	2.714285e+01	9.644021e+01
2.780000e-06	3.948179e-06	1.402544e-09	2.736913e+01	9.677073e+01
2.790000e-06	3.980485e-06	1.412749e-09	2.759308e+01	9.709098e+01
2.800000e-06	4.012583e-06	1.421070e-09	2.781559e+01	9.740157e+01
2.810000e-06	4.044514e-06	1.426608e-09	2.803694e+01	9.770309e+01
2.820000e-06	4.076382e-06	1.428202e-09	2.825785e+01	9.799614e+01
2.830000e-06	4.108091e-06	1.429040e-09	2.847766e+01	9.828134e+01
2.840000e-06	4.139493e-06	1.432130e-09	2.869534e+01	9.855927e+01
2.850000e-06	4.170623e-06	1.435649e-09	2.891114e+01	9.883051e+01
2.860000e-06	4.201467e-06	1.439282e-09	2.912495e+01	9.909561e+01
2.870000e-06	4.231915e-06	1.446065e-09	2.933602e+01	9.935508e+01
2.880000e-06	4.262024e-06	1.453408e-09	2.954474e+01	9.960940e+01
2.890000e-06	4.291921e-06	1.458384e-09	2.975199e+01	9.985900e+01
2.900000e-06	4.321520e-06	1.463590e-09	2.995717e+01	1.001043e+02
