# Temperatura_=_-21.94
# Concentracion g/m^3_=_1620.0
# C_Vs_to_Am_M_A/Vsm_=_65563218390.804596
# pendiente_HvsI_1/m_=_3716.3
# ordenada_HvsI_A/m_=_1297.0
# frecuencia_Hz_=_135104.44191494575

Tiempo_(s)	Campo_(V.s)	Magnetizacion_(V.s)	Campo_(kA/m)	Magnetizacion_(A/m)
0.000000e+00	-5.530597e-06	-8.315725e-10	-3.836919e+01	-5.470583e+01
1.000000e-08	-5.530822e-06	-8.252825e-10	-3.837075e+01	-5.466484e+01
2.000000e-08	-5.530828e-06	-8.200232e-10	-3.837079e+01	-5.462465e+01
3.000000e-08	-5.530544e-06	-8.176351e-10	-3.836882e+01	-5.458575e+01
4.000000e-08	-5.529892e-06	-8.204212e-10	-3.836430e+01	-5.454865e+01
5.000000e-08	-5.528709e-06	-8.251051e-10	-3.835609e+01	-5.451387e+01
6.000000e-08	-5.526830e-06	-8.288877e-10	-3.834305e+01	-5.448189e+01
7.000000e-08	-5.524267e-06	-8.160037e-10	-3.832528e+01	-5.445318e+01
8.000000e-08	-5.521200e-06	-7.808819e-10	-3.830400e+01	-5.442818e+01
9.000000e-08	-5.517688e-06	-7.877937e-10	-3.827963e+01	-5.440726e+01
1.000000e-07	-5.513751e-06	-8.782154e-10	-3.825232e+01	-5.439076e+01
1.100000e-07	-5.509487e-06	-9.125763e-10	-3.822274e+01	-5.437893e+01
1.200000e-07	-5.504930e-06	-7.893129e-10	-3.819112e+01	-5.437197e+01
1.300000e-07	-5.500209e-06	-7.103640e-10	-3.815837e+01	-5.436998e+01
1.400000e-07	-5.495254e-06	-8.004938e-10	-3.812399e+01	-5.437302e+01
1.500000e-07	-5.489807e-06	-9.164920e-10	-3.808621e+01	-5.438102e+01
1.600000e-07	-5.483870e-06	-8.209629e-10	-3.804502e+01	-5.439385e+01
1.700000e-07	-5.477601e-06	-7.036856e-10	-3.800153e+01	-5.441130e+01
1.800000e-07	-5.470974e-06	-7.655877e-10	-3.795555e+01	-5.443308e+01
1.900000e-07	-5.463920e-06	-8.911989e-10	-3.790661e+01	-5.445882e+01
2.000000e-07	-5.456475e-06	-8.502023e-10	-3.785496e+01	-5.448808e+01
2.100000e-07	-5.448798e-06	-7.529834e-10	-3.780170e+01	-5.452037e+01
2.200000e-07	-5.440910e-06	-7.928297e-10	-3.774697e+01	-5.455514e+01
2.300000e-07	-5.432717e-06	-8.786271e-10	-3.769013e+01	-5.459180e+01
2.400000e-07	-5.424185e-06	-8.628913e-10	-3.763094e+01	-5.462973e+01
2.500000e-07	-5.415122e-06	-7.884349e-10	-3.756807e+01	-5.466830e+01
2.600000e-07	-5.405331e-06	-8.013843e-10	-3.750014e+01	-5.470686e+01
2.700000e-07	-5.394815e-06	-8.536391e-10	-3.742718e+01	-5.474478e+01
2.800000e-07	-5.383749e-06	-8.535432e-10	-3.735041e+01	-5.478144e+01
2.900000e-07	-5.372282e-06	-8.049693e-10	-3.727086e+01	-5.481625e+01
3.000000e-07	-5.360435e-06	-8.173305e-10	-3.718867e+01	-5.484866e+01
3.100000e-07	-5.348203e-06	-8.578617e-10	-3.710381e+01	-5.487820e+01
3.200000e-07	-5.335560e-06	-8.564551e-10	-3.701610e+01	-5.490443e+01
3.300000e-07	-5.322491e-06	-8.034412e-10	-3.692543e+01	-5.492700e+01
3.400000e-07	-5.308965e-06	-8.243499e-10	-3.683159e+01	-5.494562e+01
3.500000e-07	-5.295021e-06	-8.700104e-10	-3.673485e+01	-5.496011e+01
3.600000e-07	-5.280694e-06	-8.546849e-10	-3.663545e+01	-5.497037e+01
3.700000e-07	-5.265872e-06	-8.099787e-10	-3.653263e+01	-5.497638e+01
3.800000e-07	-5.250591e-06	-8.463892e-10	-3.642661e+01	-5.497821e+01
3.900000e-07	-5.234818e-06	-8.547373e-10	-3.631719e+01	-5.497605e+01
4.000000e-07	-5.218544e-06	-8.075669e-10	-3.620428e+01	-5.497014e+01
4.100000e-07	-5.201950e-06	-8.274634e-10	-3.608916e+01	-5.496082e+01
4.200000e-07	-5.185074e-06	-8.887851e-10	-3.597208e+01	-5.494851e+01
4.300000e-07	-5.167825e-06	-8.345546e-10	-3.585241e+01	-5.493369e+01
4.400000e-07	-5.150159e-06	-7.847093e-10	-3.572985e+01	-5.491689e+01
4.500000e-07	-5.132136e-06	-8.620919e-10	-3.560482e+01	-5.489872e+01
4.600000e-07	-5.113710e-06	-8.746663e-10	-3.547699e+01	-5.487980e+01
4.700000e-07	-5.094830e-06	-7.917130e-10	-3.534600e+01	-5.486079e+01
4.800000e-07	-5.075609e-06	-8.144443e-10	-3.521265e+01	-5.484235e+01
4.900000e-07	-5.056161e-06	-8.795594e-10	-3.507773e+01	-5.482516e+01
5.000000e-07	-5.036454e-06	-8.223843e-10	-3.494101e+01	-5.480987e+01
5.100000e-07	-5.016491e-06	-8.064663e-10	-3.480252e+01	-5.479714e+01
5.200000e-07	-4.996309e-06	-8.681944e-10	-3.466250e+01	-5.478756e+01
5.300000e-07	-4.975812e-06	-8.358636e-10	-3.452030e+01	-5.478169e+01
5.400000e-07	-4.954907e-06	-7.826021e-10	-3.437527e+01	-5.478003e+01
5.500000e-07	-4.933688e-06	-8.561023e-10	-3.422806e+01	-5.478304e+01
5.600000e-07	-4.912136e-06	-8.746608e-10	-3.407854e+01	-5.479107e+01
5.700000e-07	-4.890176e-06	-8.054143e-10	-3.392619e+01	-5.480441e+01
5.800000e-07	-4.867890e-06	-8.207050e-10	-3.377158e+01	-5.482328e+01
5.900000e-07	-4.845268e-06	-8.686996e-10	-3.361463e+01	-5.484781e+01
6.000000e-07	-4.822201e-06	-8.217404e-10	-3.345461e+01	-5.487801e+01
6.100000e-07	-4.798828e-06	-8.120647e-10	-3.329245e+01	-5.491386e+01
6.200000e-07	-4.775270e-06	-8.574261e-10	-3.312901e+01	-5.495520e+01
6.300000e-07	-4.751493e-06	-8.427978e-10	-3.296406e+01	-5.500182e+01
6.400000e-07	-4.727524e-06	-8.159077e-10	-3.279777e+01	-5.505343e+01
6.500000e-07	-4.703199e-06	-8.449075e-10	-3.262902e+01	-5.510966e+01
6.600000e-07	-4.678539e-06	-8.404725e-10	-3.245793e+01	-5.517007e+01
6.700000e-07	-4.653473e-06	-8.175086e-10	-3.228404e+01	-5.523418e+01
6.800000e-07	-4.627835e-06	-8.358770e-10	-3.210617e+01	-5.530144e+01
6.900000e-07	-4.601625e-06	-8.425053e-10	-3.192433e+01	-5.537130e+01
7.000000e-07	-4.574863e-06	-8.193247e-10	-3.173867e+01	-5.544314e+01
7.100000e-07	-4.547661e-06	-8.295091e-10	-3.154995e+01	-5.551636e+01
7.200000e-07	-4.520161e-06	-8.462324e-10	-3.135917e+01	-5.559032e+01
7.300000e-07	-4.492512e-06	-8.332673e-10	-3.116735e+01	-5.566441e+01
7.400000e-07	-4.464684e-06	-8.325225e-10	-3.097429e+01	-5.573802e+01
7.500000e-07	-4.436626e-06	-8.436749e-10	-3.077963e+01	-5.581059e+01
7.600000e-07	-4.408348e-06	-8.361413e-10	-3.058345e+01	-5.588155e+01
7.700000e-07	-4.379735e-06	-8.344052e-10	-3.038495e+01	-5.595042e+01
7.800000e-07	-4.350740e-06	-8.455847e-10	-3.018379e+01	-5.601674e+01
7.900000e-07	-4.321377e-06	-8.377908e-10	-2.998008e+01	-5.608010e+01
8.000000e-07	-4.291691e-06	-8.346398e-10	-2.977413e+01	-5.614019e+01
8.100000e-07	-4.261811e-06	-8.476096e-10	-2.956683e+01	-5.619672e+01
8.200000e-07	-4.231679e-06	-8.464588e-10	-2.935779e+01	-5.624950e+01
8.300000e-07	-4.201201e-06	-8.329413e-10	-2.914635e+01	-5.629839e+01
8.400000e-07	-4.170401e-06	-8.434339e-10	-2.893266e+01	-5.634334e+01
8.500000e-07	-4.139393e-06	-8.536478e-10	-2.871754e+01	-5.638435e+01
8.600000e-07	-4.108152e-06	-8.449233e-10	-2.850080e+01	-5.642150e+01
8.700000e-07	-4.076679e-06	-8.406080e-10	-2.828245e+01	-5.645493e+01
8.800000e-07	-4.045086e-06	-8.469463e-10	-2.806327e+01	-5.648484e+01
8.900000e-07	-4.013316e-06	-8.407508e-10	-2.784287e+01	-5.651148e+01
9.000000e-07	-3.981365e-06	-8.407866e-10	-2.762120e+01	-5.653515e+01
9.100000e-07	-3.949106e-06	-8.513381e-10	-2.739740e+01	-5.655621e+01
9.200000e-07	-3.916477e-06	-8.536068e-10	-2.717103e+01	-5.657503e+01
9.300000e-07	-3.883453e-06	-8.452533e-10	-2.694193e+01	-5.659201e+01
9.400000e-07	-3.849976e-06	-8.496339e-10	-2.670967e+01	-5.660759e+01
9.500000e-07	-3.816130e-06	-8.503850e-10	-2.647486e+01	-5.662220e+01
9.600000e-07	-3.781792e-06	-8.398101e-10	-2.623664e+01	-5.663628e+01
9.700000e-07	-3.746910e-06	-8.410937e-10	-2.599465e+01	-5.665027e+01
9.800000e-07	-3.711731e-06	-8.512900e-10	-2.575059e+01	-5.666460e+01
9.900000e-07	-3.676368e-06	-8.492973e-10	-2.550525e+01	-5.667965e+01
1.000000e-06	-3.640734e-06	-8.446178e-10	-2.525803e+01	-5.669582e+01
1.010000e-06	-3.604913e-06	-8.485897e-10	-2.500952e+01	-5.671345e+01
1.020000e-06	-3.569022e-06	-8.483337e-10	-2.476053e+01	-5.673284e+01
1.030000e-06	-3.533002e-06	-8.435655e-10	-2.451063e+01	-5.675425e+01
1.040000e-06	-3.496747e-06	-8.480111e-10	-2.425910e+01	-5.677790e+01
1.050000e-06	-3.460241e-06	-8.544947e-10	-2.400584e+01	-5.680395e+01
1.060000e-06	-3.423500e-06	-8.516658e-10	-2.375094e+01	-5.683251e+01
1.070000e-06	-3.386472e-06	-8.515355e-10	-2.349406e+01	-5.686362e+01
1.080000e-06	-3.349172e-06	-8.543922e-10	-2.323529e+01	-5.689730e+01
1.090000e-06	-3.311637e-06	-8.509395e-10	-2.297489e+01	-5.693347e+01
1.100000e-06	-3.273894e-06	-8.481545e-10	-2.271303e+01	-5.697201e+01
1.110000e-06	-3.235905e-06	-8.532547e-10	-2.244949e+01	-5.701275e+01
1.120000e-06	-3.197654e-06	-8.536561e-10	-2.218411e+01	-5.705546e+01
1.130000e-06	-3.159240e-06	-8.523973e-10	-2.191761e+01	-5.709987e+01
1.140000e-06	-3.120676e-06	-8.560856e-10	-2.165007e+01	-5.714564e+01
1.150000e-06	-3.081894e-06	-8.602761e-10	-2.138102e+01	-5.719240e+01
1.160000e-06	-3.042909e-06	-8.572448e-10	-2.111055e+01	-5.723974e+01
1.170000e-06	-3.003651e-06	-8.539487e-10	-2.083819e+01	-5.728720e+01
1.180000e-06	-2.964187e-06	-8.531296e-10	-2.056441e+01	-5.733431e+01
1.190000e-06	-2.924709e-06	-8.552791e-10	-2.029052e+01	-5.738056e+01
1.200000e-06	-2.885071e-06	-8.598881e-10	-2.001553e+01	-5.742542e+01
1.210000e-06	-2.845219e-06	-8.655616e-10	-1.973905e+01	-5.746835e+01
1.220000e-06	-2.805232e-06	-8.684214e-10	-1.946164e+01	-5.750878e+01
1.230000e-06	-2.765079e-06	-8.700381e-10	-1.918307e+01	-5.754616e+01
1.240000e-06	-2.724791e-06	-8.720990e-10	-1.890357e+01	-5.757993e+01
1.250000e-06	-2.684338e-06	-8.712511e-10	-1.862292e+01	-5.760952e+01
1.260000e-06	-2.643600e-06	-8.666540e-10	-1.834030e+01	-5.763438e+01
1.270000e-06	-2.602573e-06	-8.642149e-10	-1.805566e+01	-5.765398e+01
1.280000e-06	-2.561238e-06	-8.640363e-10	-1.776890e+01	-5.766780e+01
1.290000e-06	-2.519539e-06	-8.635570e-10	-1.747961e+01	-5.767535e+01
1.300000e-06	-2.477480e-06	-8.631314e-10	-1.718782e+01	-5.767614e+01
1.310000e-06	-2.435093e-06	-8.641145e-10	-1.689375e+01	-5.766974e+01
1.320000e-06	-2.392453e-06	-8.650727e-10	-1.659793e+01	-5.765572e+01
1.330000e-06	-2.349618e-06	-8.636927e-10	-1.630076e+01	-5.763371e+01
1.340000e-06	-2.306616e-06	-8.614816e-10	-1.600243e+01	-5.760334e+01
1.350000e-06	-2.263467e-06	-8.611299e-10	-1.570308e+01	-5.756432e+01
1.360000e-06	-2.220151e-06	-8.631567e-10	-1.540257e+01	-5.751635e+01
1.370000e-06	-2.176632e-06	-8.661740e-10	-1.510065e+01	-5.745918e+01
1.380000e-06	-2.132930e-06	-8.681053e-10	-1.479746e+01	-5.739261e+01
1.390000e-06	-2.089138e-06	-8.643336e-10	-1.449365e+01	-5.731644e+01
1.400000e-06	-2.045321e-06	-8.593759e-10	-1.418966e+01	-5.723052e+01
1.410000e-06	-2.001441e-06	-8.561742e-10	-1.388524e+01	-5.713472e+01
1.420000e-06	-1.957443e-06	-8.522367e-10	-1.358000e+01	-5.702894e+01
1.430000e-06	-1.913350e-06	-8.469560e-10	-1.327410e+01	-5.691310e+01
1.440000e-06	-1.869207e-06	-8.442412e-10	-1.296785e+01	-5.678712e+01
1.450000e-06	-1.825068e-06	-8.421879e-10	-1.266163e+01	-5.665096e+01
1.460000e-06	-1.780770e-06	-8.393707e-10	-1.235431e+01	-5.650455e+01
1.470000e-06	-1.736277e-06	-8.354541e-10	-1.204563e+01	-5.634785e+01
1.480000e-06	-1.691700e-06	-8.316572e-10	-1.173637e+01	-5.618081e+01
1.490000e-06	-1.647008e-06	-8.258384e-10	-1.142632e+01	-5.600336e+01
1.500000e-06	-1.602170e-06	-8.169574e-10	-1.111525e+01	-5.581542e+01
1.510000e-06	-1.557175e-06	-8.084959e-10	-1.080309e+01	-5.561689e+01
1.520000e-06	-1.512004e-06	-8.039248e-10	-1.048971e+01	-5.540763e+01
1.530000e-06	-1.466674e-06	-8.027184e-10	-1.017523e+01	-5.518748e+01
1.540000e-06	-1.421269e-06	-8.017660e-10	-9.860225e+00	-5.495625e+01
1.550000e-06	-1.375770e-06	-7.977304e-10	-9.544573e+00	-5.471367e+01
1.560000e-06	-1.330157e-06	-7.919853e-10	-9.228123e+00	-5.445946e+01
1.570000e-06	-1.284484e-06	-7.858872e-10	-8.911261e+00	-5.419327e+01
1.580000e-06	-1.238812e-06	-7.788700e-10	-8.594411e+00	-5.391469e+01
1.590000e-06	-1.193005e-06	-7.712979e-10	-8.276619e+00	-5.362325e+01
1.600000e-06	-1.147083e-06	-7.639574e-10	-7.958029e+00	-5.331843e+01
1.610000e-06	-1.101141e-06	-7.586736e-10	-7.639299e+00	-5.299964e+01
1.620000e-06	-1.055058e-06	-7.561719e-10	-7.319593e+00	-5.266623e+01
1.630000e-06	-1.008811e-06	-7.551543e-10	-6.998747e+00	-5.231747e+01
1.640000e-06	-9.625126e-07	-7.513860e-10	-6.677549e+00	-5.195260e+01
1.650000e-06	-9.163141e-07	-7.432842e-10	-6.357040e+00	-5.157076e+01
1.660000e-06	-8.701137e-07	-7.321467e-10	-6.036520e+00	-5.117107e+01
1.670000e-06	-8.237397e-07	-7.202052e-10	-5.714794e+00	-5.075259e+01
1.680000e-06	-7.772785e-07	-7.101706e-10	-5.392464e+00	-5.031431e+01
1.690000e-06	-7.308146e-07	-7.040150e-10	-5.070115e+00	-4.985520e+01
1.700000e-06	-6.843514e-07	-6.986831e-10	-4.747771e+00	-4.937420e+01
1.710000e-06	-6.378534e-07	-6.929668e-10	-4.425185e+00	-4.887021e+01
1.720000e-06	-5.912293e-07	-6.867112e-10	-4.101725e+00	-4.834212e+01
1.730000e-06	-5.444754e-07	-6.768271e-10	-3.777364e+00	-4.778881e+01
1.740000e-06	-4.975926e-07	-6.631256e-10	-3.452109e+00	-4.720916e+01
1.750000e-06	-4.506808e-07	-6.493953e-10	-3.126653e+00	-4.660206e+01
1.760000e-06	-4.038455e-07	-6.359605e-10	-2.801727e+00	-4.596643e+01
1.770000e-06	-3.570015e-07	-6.236046e-10	-2.476741e+00	-4.530122e+01
1.780000e-06	-3.101513e-07	-6.142267e-10	-2.151712e+00	-4.460541e+01
1.790000e-06	-2.633181e-07	-6.059909e-10	-1.826801e+00	-4.387804e+01
1.800000e-06	-2.164429e-07	-5.967109e-10	-1.501599e+00	-4.311822e+01
1.810000e-06	-1.695322e-07	-5.859809e-10	-1.176150e+00	-4.232513e+01
1.820000e-06	-1.225750e-07	-5.738304e-10	-8.503792e-01	-4.149803e+01
1.830000e-06	-7.558134e-08	-5.610744e-10	-5.243547e-01	-4.063628e+01
1.840000e-06	-2.862592e-08	-5.476254e-10	-1.985958e-01	-3.973932e+01
1.850000e-06	1.835932e-08	-5.342322e-10	1.273700e-01	-3.880673e+01
1.860000e-06	6.544138e-08	-5.208509e-10	4.540075e-01	-3.783818e+01
1.870000e-06	1.124327e-07	-5.065080e-10	7.800157e-01	-3.683347e+01
1.880000e-06	1.592610e-07	-4.896421e-10	1.104893e+00	-3.579253e+01
1.890000e-06	2.060238e-07	-4.712652e-10	1.429315e+00	-3.471542e+01
1.900000e-06	2.528229e-07	-4.530344e-10	1.753990e+00	-3.360231e+01
1.910000e-06	2.997059e-07	-4.337001e-10	2.079246e+00	-3.245355e+01
1.920000e-06	3.465828e-07	-4.141638e-10	2.404460e+00	-3.126959e+01
1.930000e-06	3.933910e-07	-3.960268e-10	2.729198e+00	-3.005103e+01
1.940000e-06	4.401469e-07	-3.778713e-10	3.053572e+00	-2.879860e+01
1.950000e-06	4.868346e-07	-3.592963e-10	3.377474e+00	-2.751317e+01
1.960000e-06	5.334309e-07	-3.416369e-10	3.700742e+00	-2.619573e+01
1.970000e-06	5.800437e-07	-3.242342e-10	4.024124e+00	-2.484741e+01
1.980000e-06	6.266842e-07	-3.063089e-10	4.347698e+00	-2.346945e+01
1.990000e-06	6.733003e-07	-2.871419e-10	4.671102e+00	-2.206322e+01
2.000000e-06	7.198882e-07	-2.651042e-10	4.994312e+00	-2.063018e+01
2.010000e-06	7.663547e-07	-2.413967e-10	5.316679e+00	-1.917191e+01
2.020000e-06	8.126543e-07	-2.193600e-10	5.637888e+00	-1.769009e+01
2.030000e-06	8.588137e-07	-1.990398e-10	5.958125e+00	-1.618647e+01
2.040000e-06	9.049088e-07	-1.792945e-10	6.277915e+00	-1.466290e+01
2.050000e-06	9.510650e-07	-1.588380e-10	6.598129e+00	-1.312129e+01
2.060000e-06	9.972350e-07	-1.366650e-10	6.918439e+00	-1.156362e+01
2.070000e-06	1.043337e-06	-1.134170e-10	7.238278e+00	-9.991934e+00
2.080000e-06	1.089339e-06	-9.045100e-11	7.557424e+00	-8.408314e+00
2.090000e-06	1.135225e-06	-6.808589e-11	7.875764e+00	-6.814883e+00
2.100000e-06	1.181025e-06	-4.613546e-11	8.193504e+00	-5.213794e+00
2.110000e-06	1.226715e-06	-2.391490e-11	8.510482e+00	-3.607222e+00
2.120000e-06	1.272351e-06	-1.891387e-12	8.827090e+00	-1.997356e+00
2.130000e-06	1.317947e-06	1.966094e-11	9.143420e+00	-3.863864e-01
2.140000e-06	1.363467e-06	4.031084e-11	9.459219e+00	1.223498e+00
2.150000e-06	1.408861e-06	5.993500e-11	9.774148e+00	2.830121e+00
2.160000e-06	1.454138e-06	7.966596e-11	1.008826e+01	4.431328e+00
2.170000e-06	1.499303e-06	1.014241e-10	1.040160e+01	6.024992e+00
2.180000e-06	1.544402e-06	1.253183e-10	1.071447e+01	7.609023e+00
2.190000e-06	1.589417e-06	1.491998e-10	1.102677e+01	9.181375e+00
2.200000e-06	1.634220e-06	1.721076e-10	1.133760e+01	1.074005e+01
2.210000e-06	1.678850e-06	1.956742e-10	1.164723e+01	1.228312e+01
2.220000e-06	1.723370e-06	2.196402e-10	1.195609e+01	1.380870e+01
2.230000e-06	1.767759e-06	2.426722e-10	1.226404e+01	1.531501e+01
2.240000e-06	1.812034e-06	2.632827e-10	1.257121e+01	1.680032e+01
2.250000e-06	1.856245e-06	2.805698e-10	1.287792e+01	1.826299e+01
2.260000e-06	1.900361e-06	2.959603e-10	1.318399e+01	1.970149e+01
2.270000e-06	1.944353e-06	3.115176e-10	1.348919e+01	2.111437e+01
2.280000e-06	1.988242e-06	3.294654e-10	1.379367e+01	2.250028e+01
2.290000e-06	2.032101e-06	3.490576e-10	1.409795e+01	2.385798e+01
2.300000e-06	2.075956e-06	3.680984e-10	1.440220e+01	2.518634e+01
2.310000e-06	2.119755e-06	3.868572e-10	1.470606e+01	2.648435e+01
2.320000e-06	2.163435e-06	4.054339e-10	1.500909e+01	2.775111e+01
2.330000e-06	2.207008e-06	4.214435e-10	1.531138e+01	2.898584e+01
2.340000e-06	2.250504e-06	4.346925e-10	1.561315e+01	3.018787e+01
2.350000e-06	2.293794e-06	4.480192e-10	1.591347e+01	3.135667e+01
2.360000e-06	2.336812e-06	4.635249e-10	1.621192e+01	3.249182e+01
2.370000e-06	2.379645e-06	4.806915e-10	1.650908e+01	3.359302e+01
2.380000e-06	2.422161e-06	4.982414e-10	1.680403e+01	3.466009e+01
2.390000e-06	2.464394e-06	5.148997e-10	1.709703e+01	3.569297e+01
2.400000e-06	2.506370e-06	5.309999e-10	1.738825e+01	3.669169e+01
2.410000e-06	2.547973e-06	5.458837e-10	1.767687e+01	3.765642e+01
2.420000e-06	2.589260e-06	5.563132e-10	1.796331e+01	3.858741e+01
2.430000e-06	2.630257e-06	5.633613e-10	1.824773e+01	3.948501e+01
2.440000e-06	2.670977e-06	5.707291e-10	1.853023e+01	4.034968e+01
2.450000e-06	2.711476e-06	5.792759e-10	1.881119e+01	4.118193e+01
2.460000e-06	2.751787e-06	5.902263e-10	1.909085e+01	4.198237e+01
2.470000e-06	2.791946e-06	6.034180e-10	1.936946e+01	4.275167e+01
2.480000e-06	2.832003e-06	6.156353e-10	1.964737e+01	4.349055e+01
2.490000e-06	2.871896e-06	6.244069e-10	1.992413e+01	4.419979e+01
2.500000e-06	2.911601e-06	6.319408e-10	2.019959e+01	4.488019e+01
2.510000e-06	2.951232e-06	6.397624e-10	2.047453e+01	4.553261e+01
2.520000e-06	2.990743e-06	6.479314e-10	2.074864e+01	4.615791e+01
2.530000e-06	3.030005e-06	6.563646e-10	2.102103e+01	4.675696e+01
2.540000e-06	3.069063e-06	6.654908e-10	2.129200e+01	4.733065e+01
2.550000e-06	3.107946e-06	6.751677e-10	2.156175e+01	4.787985e+01
2.560000e-06	3.146571e-06	6.832951e-10	2.182972e+01	4.840542e+01
2.570000e-06	3.184927e-06	6.898673e-10	2.209582e+01	4.890822e+01
2.580000e-06	3.223079e-06	6.955534e-10	2.236050e+01	4.938906e+01
2.590000e-06	3.261080e-06	7.004407e-10	2.262414e+01	4.984873e+01
2.600000e-06	3.298883e-06	7.049711e-10	2.288640e+01	5.028799e+01
2.610000e-06	3.336445e-06	7.109740e-10	2.314699e+01	5.070756e+01
2.620000e-06	3.373805e-06	7.192543e-10	2.340618e+01	5.110812e+01
2.630000e-06	3.410924e-06	7.273041e-10	2.366370e+01	5.149030e+01
2.640000e-06	3.447699e-06	7.345111e-10	2.391883e+01	5.185472e+01
2.650000e-06	3.484163e-06	7.412280e-10	2.417180e+01	5.220193e+01
2.660000e-06	3.520345e-06	7.456964e-10	2.442282e+01	5.253244e+01
2.670000e-06	3.556295e-06	7.486165e-10	2.467223e+01	5.284676e+01
2.680000e-06	3.592161e-06	7.525402e-10	2.492105e+01	5.314532e+01
2.690000e-06	3.627913e-06	7.580744e-10	2.516909e+01	5.342857e+01
2.700000e-06	3.663560e-06	7.644134e-10	2.541640e+01	5.369690e+01
2.710000e-06	3.699067e-06	7.715334e-10	2.566273e+01	5.395070e+01
2.720000e-06	3.734306e-06	7.773109e-10	2.590721e+01	5.419034e+01
2.730000e-06	3.769291e-06	7.803039e-10	2.614991e+01	5.441619e+01
2.740000e-06	3.803904e-06	7.822079e-10	2.639005e+01	5.462861e+01
2.750000e-06	3.838034e-06	7.848832e-10	2.662683e+01	5.482796e+01
2.760000e-06	3.871674e-06	7.857555e-10	2.686021e+01	5.501462e+01
2.770000e-06	3.904832e-06	7.852285e-10	2.709025e+01	5.518897e+01
2.780000e-06	3.937557e-06	7.875031e-10	2.731728e+01	5.535140e+01
2.790000e-06	3.969909e-06	7.935567e-10	2.754173e+01	5.550234e+01
2.800000e-06	4.002014e-06	8.009557e-10	2.776446e+01	5.564222e+01
2.810000e-06	4.033955e-06	8.075100e-10	2.798605e+01	5.577149e+01
2.820000e-06	4.065746e-06	8.110224e-10	2.820661e+01	5.589065e+01
2.830000e-06	4.097361e-06	8.112544e-10	2.842594e+01	5.600019e+01
2.840000e-06	4.128802e-06	8.116063e-10	2.864406e+01	5.610064e+01
2.850000e-06	4.159974e-06	8.113037e-10	2.886033e+01	5.619253e+01
2.860000e-06	4.190843e-06	8.092755e-10	2.907448e+01	5.627642e+01
2.870000e-06	4.221358e-06	8.108292e-10	2.928619e+01	5.635287e+01
2.880000e-06	4.251521e-06	8.154838e-10	2.949544e+01	5.642246e+01
2.890000e-06	4.281428e-06	8.194521e-10	2.970293e+01	5.648575e+01
2.900000e-06	4.311136e-06	8.235475e-10	2.990903e+01	5.654332e+01
