# Temperatura_=_14.73
# Concentracion g/m^3_=_1620.0
# C_Vs_to_Am_M_A/Vsm_=_65563218390.804596
# pendiente_HvsI_1/m_=_3716.3
# ordenada_HvsI_A/m_=_1297.0
# frecuencia_Hz_=_135094.9862146596

Tiempo_(s)	Campo_(V.s)	Magnetizacion_(V.s)	Campo_(kA/m)	Magnetizacion_(A/m)
0.000000e+00	-5.531190e-06	-1.621618e-09	-3.838145e+01	-1.072704e+02
1.000000e-08	-5.531346e-06	-1.621888e-09	-3.838253e+01	-1.072024e+02
2.000000e-08	-5.531271e-06	-1.623071e-09	-3.838201e+01	-1.071352e+02
3.000000e-08	-5.530899e-06	-1.623385e-09	-3.837943e+01	-1.070695e+02
4.000000e-08	-5.530048e-06	-1.624642e-09	-3.837353e+01	-1.070055e+02
5.000000e-08	-5.528629e-06	-1.626483e-09	-3.836368e+01	-1.069439e+02
6.000000e-08	-5.526608e-06	-1.625495e-09	-3.834966e+01	-1.068850e+02
7.000000e-08	-5.523876e-06	-1.607831e-09	-3.833070e+01	-1.068291e+02
8.000000e-08	-5.520582e-06	-1.587070e-09	-3.830784e+01	-1.067764e+02
9.000000e-08	-5.516949e-06	-1.625479e-09	-3.828263e+01	-1.067270e+02
1.000000e-07	-5.513045e-06	-1.662481e-09	-3.825554e+01	-1.066810e+02
1.100000e-07	-5.508792e-06	-1.670264e-09	-3.822603e+01	-1.066384e+02
1.200000e-07	-5.504245e-06	-1.536492e-09	-3.819448e+01	-1.065988e+02
1.300000e-07	-5.499473e-06	-1.588719e-09	-3.816136e+01	-1.065620e+02
1.400000e-07	-5.494279e-06	-1.633118e-09	-3.812532e+01	-1.065277e+02
1.500000e-07	-5.488696e-06	-1.676683e-09	-3.808658e+01	-1.064953e+02
1.600000e-07	-5.482721e-06	-1.569870e-09	-3.804512e+01	-1.064641e+02
1.700000e-07	-5.476319e-06	-1.556848e-09	-3.800070e+01	-1.064336e+02
1.800000e-07	-5.469498e-06	-1.653505e-09	-3.795337e+01	-1.064029e+02
1.900000e-07	-5.462271e-06	-1.655294e-09	-3.790322e+01	-1.063711e+02
2.000000e-07	-5.454790e-06	-1.605705e-09	-3.785130e+01	-1.063374e+02
2.100000e-07	-5.447030e-06	-1.563663e-09	-3.779745e+01	-1.063009e+02
2.200000e-07	-5.438960e-06	-1.666350e-09	-3.774146e+01	-1.062604e+02
2.300000e-07	-5.430666e-06	-1.664687e-09	-3.768390e+01	-1.062152e+02
2.400000e-07	-5.422063e-06	-1.649389e-09	-3.762421e+01	-1.061642e+02
2.500000e-07	-5.412757e-06	-1.590062e-09	-3.755964e+01	-1.061065e+02
2.600000e-07	-5.402658e-06	-1.662866e-09	-3.748955e+01	-1.060411e+02
2.700000e-07	-5.391979e-06	-1.641271e-09	-3.741545e+01	-1.059674e+02
2.800000e-07	-5.380884e-06	-1.636182e-09	-3.733846e+01	-1.058845e+02
2.900000e-07	-5.369320e-06	-1.596650e-09	-3.725822e+01	-1.057917e+02
3.000000e-07	-5.357329e-06	-1.648853e-09	-3.717501e+01	-1.056886e+02
3.100000e-07	-5.344943e-06	-1.633255e-09	-3.708907e+01	-1.055746e+02
3.200000e-07	-5.332115e-06	-1.623426e-09	-3.700005e+01	-1.054495e+02
3.300000e-07	-5.318872e-06	-1.601389e-09	-3.690816e+01	-1.053131e+02
3.400000e-07	-5.305324e-06	-1.650006e-09	-3.681414e+01	-1.051652e+02
3.500000e-07	-5.291403e-06	-1.641990e-09	-3.671755e+01	-1.050060e+02
3.600000e-07	-5.277083e-06	-1.614939e-09	-3.661818e+01	-1.048357e+02
3.700000e-07	-5.262334e-06	-1.602796e-09	-3.651583e+01	-1.046545e+02
3.800000e-07	-5.246940e-06	-1.632027e-09	-3.640901e+01	-1.044630e+02
3.900000e-07	-5.230921e-06	-1.599015e-09	-3.629786e+01	-1.042616e+02
4.000000e-07	-5.214534e-06	-1.564849e-09	-3.618414e+01	-1.040511e+02
4.100000e-07	-5.197854e-06	-1.614498e-09	-3.606840e+01	-1.038320e+02
4.200000e-07	-5.180816e-06	-1.613652e-09	-3.595017e+01	-1.036053e+02
4.300000e-07	-5.163399e-06	-1.567022e-09	-3.582931e+01	-1.033719e+02
4.400000e-07	-5.145640e-06	-1.562881e-09	-3.570608e+01	-1.031325e+02
4.500000e-07	-5.127578e-06	-1.631025e-09	-3.558075e+01	-1.028881e+02
4.600000e-07	-5.109040e-06	-1.564148e-09	-3.545211e+01	-1.026398e+02
4.700000e-07	-5.090146e-06	-1.540952e-09	-3.532100e+01	-1.023883e+02
4.800000e-07	-5.071004e-06	-1.574586e-09	-3.518818e+01	-1.021346e+02
4.900000e-07	-5.051543e-06	-1.588690e-09	-3.505314e+01	-1.018796e+02
5.000000e-07	-5.031808e-06	-1.516844e-09	-3.491619e+01	-1.016241e+02
5.100000e-07	-5.011870e-06	-1.566756e-09	-3.477784e+01	-1.013688e+02
5.200000e-07	-4.991582e-06	-1.569000e-09	-3.463706e+01	-1.011144e+02
5.300000e-07	-4.970840e-06	-1.523292e-09	-3.449313e+01	-1.008614e+02
5.400000e-07	-4.949765e-06	-1.522872e-09	-3.434689e+01	-1.006103e+02
5.500000e-07	-4.928419e-06	-1.592397e-09	-3.419877e+01	-1.003616e+02
5.600000e-07	-4.906768e-06	-1.529895e-09	-3.404853e+01	-1.001155e+02
5.700000e-07	-4.884781e-06	-1.504283e-09	-3.389596e+01	-9.987213e+01
5.800000e-07	-4.862435e-06	-1.542210e-09	-3.374090e+01	-9.963164e+01
5.900000e-07	-4.839669e-06	-1.538279e-09	-3.358292e+01	-9.939398e+01
6.000000e-07	-4.816479e-06	-1.481655e-09	-3.342200e+01	-9.915902e+01
6.100000e-07	-4.793100e-06	-1.516099e-09	-3.325978e+01	-9.892656e+01
6.200000e-07	-4.769545e-06	-1.524065e-09	-3.309632e+01	-9.869630e+01
6.300000e-07	-4.745721e-06	-1.486952e-09	-3.293101e+01	-9.846788e+01
6.400000e-07	-4.721641e-06	-1.493544e-09	-3.276392e+01	-9.824087e+01
6.500000e-07	-4.697222e-06	-1.515312e-09	-3.259447e+01	-9.801480e+01
6.600000e-07	-4.672343e-06	-1.487139e-09	-3.242183e+01	-9.778916e+01
6.700000e-07	-4.646945e-06	-1.479541e-09	-3.224559e+01	-9.756340e+01
6.800000e-07	-4.621062e-06	-1.498764e-09	-3.206599e+01	-9.733696e+01
6.900000e-07	-4.594652e-06	-1.474488e-09	-3.188272e+01	-9.710927e+01
7.000000e-07	-4.567686e-06	-1.460586e-09	-3.169561e+01	-9.687978e+01
7.100000e-07	-4.540340e-06	-1.469930e-09	-3.150585e+01	-9.664795e+01
7.200000e-07	-4.512746e-06	-1.468077e-09	-3.131437e+01	-9.641326e+01
7.300000e-07	-4.484907e-06	-1.447191e-09	-3.112120e+01	-9.617521e+01
7.400000e-07	-4.456947e-06	-1.463350e-09	-3.092718e+01	-9.593337e+01
7.500000e-07	-4.428874e-06	-1.457518e-09	-3.073238e+01	-9.568733e+01
7.600000e-07	-4.400473e-06	-1.446491e-09	-3.053530e+01	-9.543673e+01
7.700000e-07	-4.371692e-06	-1.436730e-09	-3.033558e+01	-9.518127e+01
7.800000e-07	-4.342582e-06	-1.441430e-09	-3.013359e+01	-9.492071e+01
7.900000e-07	-4.313207e-06	-1.419166e-09	-2.992975e+01	-9.465482e+01
8.000000e-07	-4.283610e-06	-1.420981e-09	-2.972438e+01	-9.438348e+01
8.100000e-07	-4.253748e-06	-1.416447e-09	-2.951716e+01	-9.410657e+01
8.200000e-07	-4.223558e-06	-1.408453e-09	-2.930767e+01	-9.382404e+01
8.300000e-07	-4.193018e-06	-1.393719e-09	-2.909575e+01	-9.353587e+01
8.400000e-07	-4.162162e-06	-1.407659e-09	-2.888164e+01	-9.324209e+01
8.500000e-07	-4.131008e-06	-1.400479e-09	-2.866545e+01	-9.294274e+01
8.600000e-07	-4.099640e-06	-1.394748e-09	-2.844779e+01	-9.263789e+01
8.700000e-07	-4.068087e-06	-1.388635e-09	-2.822884e+01	-9.232765e+01
8.800000e-07	-4.036341e-06	-1.384108e-09	-2.800855e+01	-9.201213e+01
8.900000e-07	-4.004402e-06	-1.364088e-09	-2.778693e+01	-9.169143e+01
9.000000e-07	-3.972277e-06	-1.360605e-09	-2.756400e+01	-9.136569e+01
9.100000e-07	-3.939870e-06	-1.359233e-09	-2.733913e+01	-9.103503e+01
9.200000e-07	-3.907114e-06	-1.351873e-09	-2.711183e+01	-9.069955e+01
9.300000e-07	-3.873923e-06	-1.348674e-09	-2.688152e+01	-9.035938e+01
9.400000e-07	-3.840286e-06	-1.355007e-09	-2.664811e+01	-9.001461e+01
9.500000e-07	-3.806194e-06	-1.348013e-09	-2.641154e+01	-8.966533e+01
9.600000e-07	-3.771555e-06	-1.334310e-09	-2.617118e+01	-8.931162e+01
9.700000e-07	-3.736512e-06	-1.330782e-09	-2.592801e+01	-8.895354e+01
9.800000e-07	-3.701233e-06	-1.319588e-09	-2.568321e+01	-8.859114e+01
9.900000e-07	-3.665806e-06	-1.304535e-09	-2.543737e+01	-8.822446e+01
1.000000e-06	-3.630243e-06	-1.295162e-09	-2.519060e+01	-8.785354e+01
1.010000e-06	-3.594523e-06	-1.294968e-09	-2.494274e+01	-8.747840e+01
1.020000e-06	-3.558593e-06	-1.282708e-09	-2.469341e+01	-8.709906e+01
1.030000e-06	-3.522465e-06	-1.279978e-09	-2.444272e+01	-8.671554e+01
1.040000e-06	-3.486131e-06	-1.277524e-09	-2.419059e+01	-8.632784e+01
1.050000e-06	-3.449559e-06	-1.271199e-09	-2.393682e+01	-8.593600e+01
1.060000e-06	-3.412688e-06	-1.256384e-09	-2.368097e+01	-8.554002e+01
1.070000e-06	-3.375513e-06	-1.255088e-09	-2.342300e+01	-8.513993e+01
1.080000e-06	-3.338096e-06	-1.244944e-09	-2.316336e+01	-8.473576e+01
1.090000e-06	-3.300481e-06	-1.234956e-09	-2.290235e+01	-8.432756e+01
1.100000e-06	-3.262647e-06	-1.226531e-09	-2.263982e+01	-8.391535e+01
1.110000e-06	-3.224607e-06	-1.223791e-09	-2.237585e+01	-8.349920e+01
1.120000e-06	-3.186407e-06	-1.210366e-09	-2.211078e+01	-8.307915e+01
1.130000e-06	-3.148000e-06	-1.204167e-09	-2.184427e+01	-8.265526e+01
1.140000e-06	-3.109393e-06	-1.199284e-09	-2.157637e+01	-8.222757e+01
1.150000e-06	-3.070542e-06	-1.194541e-09	-2.130678e+01	-8.179614e+01
1.160000e-06	-3.031456e-06	-1.185099e-09	-2.103556e+01	-8.136100e+01
1.170000e-06	-2.992207e-06	-1.180880e-09	-2.076321e+01	-8.092219e+01
1.180000e-06	-2.952731e-06	-1.171811e-09	-2.048928e+01	-8.047971e+01
1.190000e-06	-2.913057e-06	-1.163691e-09	-2.021398e+01	-8.003355e+01
1.200000e-06	-2.873279e-06	-1.156748e-09	-1.993795e+01	-7.958368e+01
1.210000e-06	-2.833398e-06	-1.150353e-09	-1.966122e+01	-7.913004e+01
1.220000e-06	-2.793335e-06	-1.142120e-09	-1.938321e+01	-7.867252e+01
1.230000e-06	-2.753202e-06	-1.138043e-09	-1.910473e+01	-7.821099e+01
1.240000e-06	-2.713002e-06	-1.137403e-09	-1.882578e+01	-7.774528e+01
1.250000e-06	-2.672541e-06	-1.131968e-09	-1.854501e+01	-7.727517e+01
1.260000e-06	-2.631832e-06	-1.126183e-09	-1.826253e+01	-7.680040e+01
1.270000e-06	-2.590791e-06	-1.119277e-09	-1.797774e+01	-7.632067e+01
1.280000e-06	-2.549309e-06	-1.109181e-09	-1.768990e+01	-7.583564e+01
1.290000e-06	-2.507515e-06	-1.093683e-09	-1.739989e+01	-7.534492e+01
1.300000e-06	-2.465480e-06	-1.082035e-09	-1.710820e+01	-7.484808e+01
1.310000e-06	-2.423138e-06	-1.073866e-09	-1.681438e+01	-7.434466e+01
1.320000e-06	-2.380517e-06	-1.067475e-09	-1.651863e+01	-7.383419e+01
1.330000e-06	-2.337612e-06	-1.060691e-09	-1.622091e+01	-7.331613e+01
1.340000e-06	-2.294486e-06	-1.055162e-09	-1.592165e+01	-7.278995e+01
1.350000e-06	-2.251226e-06	-1.047045e-09	-1.562147e+01	-7.225511e+01
1.360000e-06	-2.207859e-06	-1.043307e-09	-1.532054e+01	-7.171105e+01
1.370000e-06	-2.164325e-06	-1.035719e-09	-1.501846e+01	-7.115721e+01
1.380000e-06	-2.120620e-06	-1.025976e-09	-1.471518e+01	-7.059305e+01
1.390000e-06	-2.076880e-06	-1.010405e-09	-1.441167e+01	-7.001802e+01
1.400000e-06	-2.033095e-06	-9.985807e-10	-1.410784e+01	-6.943161e+01
1.410000e-06	-1.989193e-06	-9.855628e-10	-1.380320e+01	-6.883333e+01
1.420000e-06	-1.945201e-06	-9.752573e-10	-1.349793e+01	-6.822272e+01
1.430000e-06	-1.901136e-06	-9.675537e-10	-1.319216e+01	-6.759935e+01
1.440000e-06	-1.857018e-06	-9.620400e-10	-1.288602e+01	-6.696284e+01
1.450000e-06	-1.812800e-06	-9.526661e-10	-1.257919e+01	-6.631283e+01
1.460000e-06	-1.768480e-06	-9.405322e-10	-1.227165e+01	-6.564900e+01
1.470000e-06	-1.724018e-06	-9.249244e-10	-1.196313e+01	-6.497109e+01
1.480000e-06	-1.679352e-06	-9.105806e-10	-1.165318e+01	-6.427885e+01
1.490000e-06	-1.634487e-06	-8.939182e-10	-1.134186e+01	-6.357208e+01
1.500000e-06	-1.589457e-06	-8.760367e-10	-1.102939e+01	-6.285057e+01
1.510000e-06	-1.544256e-06	-8.611625e-10	-1.071574e+01	-6.211418e+01
1.520000e-06	-1.499009e-06	-8.516003e-10	-1.040177e+01	-6.136274e+01
1.530000e-06	-1.453704e-06	-8.436153e-10	-1.008739e+01	-6.059610e+01
1.540000e-06	-1.408162e-06	-8.340566e-10	-9.771366e+00	-5.981410e+01
1.550000e-06	-1.362583e-06	-8.218918e-10	-9.455094e+00	-5.901655e+01
1.560000e-06	-1.316984e-06	-8.086136e-10	-9.138675e+00	-5.820324e+01
1.570000e-06	-1.271194e-06	-7.942571e-10	-8.820935e+00	-5.737393e+01
1.580000e-06	-1.225319e-06	-7.786206e-10	-8.502601e+00	-5.652831e+01
1.590000e-06	-1.179419e-06	-7.621521e-10	-8.184100e+00	-5.566604e+01
1.600000e-06	-1.133461e-06	-7.463239e-10	-7.865190e+00	-5.478667e+01
1.610000e-06	-1.087433e-06	-7.333036e-10	-7.545798e+00	-5.388970e+01
1.620000e-06	-1.041301e-06	-7.220673e-10	-7.225687e+00	-5.297455e+01
1.630000e-06	-9.951420e-07	-7.144357e-10	-6.905384e+00	-5.204053e+01
1.640000e-06	-9.489165e-07	-7.039468e-10	-6.584621e+00	-5.108688e+01
1.650000e-06	-9.026562e-07	-6.911203e-10	-6.263617e+00	-5.011274e+01
1.660000e-06	-8.563978e-07	-6.727881e-10	-5.942625e+00	-4.911714e+01
1.670000e-06	-8.100220e-07	-6.523332e-10	-5.620819e+00	-4.809905e+01
1.680000e-06	-7.635208e-07	-6.309739e-10	-5.298143e+00	-4.705733e+01
1.690000e-06	-7.169480e-07	-6.123216e-10	-4.974970e+00	-4.599079e+01
1.700000e-06	-6.703345e-07	-5.919384e-10	-4.651515e+00	-4.489814e+01
1.710000e-06	-6.237199e-07	-5.752890e-10	-4.328052e+00	-4.377808e+01
1.720000e-06	-5.771558e-07	-5.583207e-10	-4.004939e+00	-4.262923e+01
1.730000e-06	-5.305500e-07	-5.404063e-10	-3.681537e+00	-4.145021e+01
1.740000e-06	-4.838340e-07	-5.197563e-10	-3.357370e+00	-4.023963e+01
1.750000e-06	-4.369974e-07	-4.981182e-10	-3.032366e+00	-3.899612e+01
1.760000e-06	-3.901579e-07	-4.759794e-10	-2.707342e+00	-3.771833e+01
1.770000e-06	-3.433434e-07	-4.555853e-10	-2.382492e+00	-3.640499e+01
1.780000e-06	-2.964450e-07	-4.376999e-10	-2.057060e+00	-3.505488e+01
1.790000e-06	-2.495072e-07	-4.194179e-10	-1.731354e+00	-3.366691e+01
1.800000e-06	-2.025207e-07	-4.003769e-10	-1.405310e+00	-3.224008e+01
1.810000e-06	-1.556006e-07	-3.799943e-10	-1.079727e+00	-3.077356e+01
1.820000e-06	-1.087286e-07	-3.583570e-10	-7.544784e-01	-2.926665e+01
1.830000e-06	-6.180686e-08	-3.367254e-10	-4.288836e-01	-2.771886e+01
1.840000e-06	-1.492111e-08	-3.158261e-10	-1.035390e-01	-2.612988e+01
1.850000e-06	3.196434e-08	-2.959847e-10	2.218036e-01	-2.449960e+01
1.860000e-06	7.884849e-08	-2.777275e-10	5.471371e-01	-2.282814e+01
1.870000e-06	1.256673e-07	-2.556119e-10	8.720175e-01	-2.111586e+01
1.880000e-06	1.725287e-07	-2.303873e-10	1.197193e+00	-1.936335e+01
1.890000e-06	2.194718e-07	-2.028828e-10	1.522935e+00	-1.757142e+01
1.900000e-06	2.664244e-07	-1.734256e-10	1.848744e+00	-1.574115e+01
1.910000e-06	3.133159e-07	-1.411274e-10	2.174129e+00	-1.387383e+01
1.920000e-06	3.601873e-07	-1.113741e-10	2.499374e+00	-1.197102e+01
1.930000e-06	4.071494e-07	-8.436700e-11	2.825248e+00	-1.003445e+01
1.940000e-06	4.540087e-07	-5.837717e-11	3.150409e+00	-8.066124e+00
1.950000e-06	5.007435e-07	-3.256693e-11	3.474706e+00	-6.068199e+00
1.960000e-06	5.474664e-07	-7.435099e-12	3.798921e+00	-4.043037e+00
1.970000e-06	5.940666e-07	1.931702e-11	4.122284e+00	-1.993160e+00
1.980000e-06	6.405938e-07	4.719161e-11	4.445141e+00	7.875997e-02
1.990000e-06	6.871571e-07	7.711816e-11	4.768248e+00	2.169929e+00
2.000000e-06	7.336594e-07	1.107045e-10	5.090932e+00	4.277448e+00
2.010000e-06	7.801379e-07	1.450593e-10	5.413451e+00	6.398340e+00
2.020000e-06	8.265691e-07	1.764259e-10	5.735641e+00	8.529567e+00
2.030000e-06	8.728501e-07	2.046990e-10	6.056789e+00	1.066806e+01
2.040000e-06	9.191634e-07	2.300118e-10	6.378162e+00	1.281074e+01
2.050000e-06	9.654522e-07	2.562034e-10	6.699364e+00	1.495454e+01
2.060000e-06	1.011546e-06	2.842366e-10	7.019213e+00	1.709643e+01
2.070000e-06	1.057580e-06	3.147691e-10	7.338645e+00	1.923342e+01
2.080000e-06	1.103550e-06	3.485001e-10	7.657638e+00	2.136259e+01
2.090000e-06	1.149373e-06	3.825379e-10	7.975610e+00	2.348114e+01
2.100000e-06	1.195177e-06	4.155020e-10	8.293447e+00	2.558634e+01
2.110000e-06	1.240984e-06	4.463845e-10	8.611304e+00	2.767560e+01
2.120000e-06	1.286671e-06	4.749391e-10	8.928331e+00	2.974643e+01
2.130000e-06	1.332215e-06	5.015736e-10	9.244362e+00	3.179652e+01
2.140000e-06	1.377617e-06	5.260895e-10	9.559417e+00	3.382367e+01
2.150000e-06	1.422943e-06	5.492096e-10	9.873936e+00	3.582584e+01
2.160000e-06	1.468207e-06	5.736766e-10	1.018802e+01	3.780116e+01
2.170000e-06	1.513353e-06	5.996258e-10	1.050130e+01	3.974789e+01
2.180000e-06	1.558438e-06	6.285128e-10	1.081415e+01	4.166446e+01
2.190000e-06	1.603383e-06	6.595366e-10	1.112603e+01	4.354945e+01
2.200000e-06	1.648099e-06	6.905650e-10	1.143632e+01	4.540159e+01
2.210000e-06	1.692675e-06	7.190498e-10	1.174563e+01	4.721976e+01
2.220000e-06	1.737178e-06	7.435804e-10	1.205444e+01	4.900299e+01
2.230000e-06	1.781541e-06	7.652943e-10	1.236228e+01	5.075042e+01
2.240000e-06	1.825834e-06	7.864001e-10	1.266963e+01	5.246135e+01
2.250000e-06	1.870120e-06	8.069391e-10	1.297694e+01	5.413518e+01
2.260000e-06	1.914233e-06	8.273272e-10	1.328304e+01	5.577145e+01
2.270000e-06	1.958161e-06	8.486429e-10	1.358786e+01	5.736979e+01
2.280000e-06	2.002047e-06	8.719569e-10	1.389240e+01	5.892996e+01
2.290000e-06	2.045887e-06	8.929155e-10	1.419661e+01	6.045178e+01
2.300000e-06	2.089620e-06	9.107592e-10	1.450007e+01	6.193521e+01
2.310000e-06	2.133288e-06	9.287270e-10	1.480309e+01	6.338027e+01
2.320000e-06	2.176881e-06	9.482458e-10	1.510558e+01	6.478706e+01
2.330000e-06	2.220372e-06	9.673980e-10	1.540737e+01	6.615577e+01
2.340000e-06	2.263679e-06	9.858002e-10	1.570788e+01	6.748668e+01
2.350000e-06	2.306845e-06	1.005597e-09	1.600741e+01	6.878011e+01
2.360000e-06	2.349841e-06	1.025448e-09	1.630577e+01	7.003647e+01
2.370000e-06	2.392573e-06	1.042134e-09	1.660229e+01	7.125623e+01
2.380000e-06	2.435054e-06	1.055675e-09	1.689707e+01	7.243992e+01
2.390000e-06	2.477187e-06	1.070619e-09	1.718944e+01	7.358813e+01
2.400000e-06	2.518932e-06	1.087109e-09	1.747911e+01	7.470152e+01
2.410000e-06	2.560416e-06	1.103457e-09	1.776697e+01	7.578078e+01
2.420000e-06	2.601722e-06	1.119645e-09	1.805360e+01	7.682668e+01
2.430000e-06	2.642733e-06	1.134404e-09	1.833817e+01	7.784001e+01
2.440000e-06	2.683413e-06	1.145702e-09	1.862045e+01	7.882162e+01
2.450000e-06	2.723884e-06	1.153666e-09	1.890129e+01	7.977239e+01
2.460000e-06	2.764197e-06	1.163490e-09	1.918102e+01	8.069324e+01
2.470000e-06	2.804334e-06	1.176124e-09	1.945954e+01	8.158512e+01
2.480000e-06	2.844288e-06	1.187813e-09	1.973678e+01	8.244899e+01
2.490000e-06	2.884068e-06	1.199568e-09	2.001282e+01	8.328584e+01
2.500000e-06	2.923719e-06	1.212468e-09	2.028796e+01	8.409666e+01
2.510000e-06	2.963263e-06	1.225527e-09	2.056237e+01	8.488244e+01
2.520000e-06	3.002681e-06	1.236849e-09	2.083589e+01	8.564418e+01
2.530000e-06	3.041845e-06	1.244693e-09	2.110765e+01	8.638285e+01
2.540000e-06	3.080762e-06	1.249841e-09	2.137770e+01	8.709940e+01
2.550000e-06	3.119509e-06	1.255936e-09	2.164657e+01	8.779476e+01
2.560000e-06	3.158026e-06	1.263311e-09	2.191384e+01	8.846982e+01
2.570000e-06	3.196316e-06	1.272392e-09	2.217954e+01	8.912543e+01
2.580000e-06	3.234373e-06	1.282527e-09	2.244362e+01	8.976239e+01
2.590000e-06	3.272198e-06	1.292689e-09	2.270609e+01	9.038146e+01
2.600000e-06	3.309845e-06	1.300781e-09	2.296733e+01	9.098332e+01
2.610000e-06	3.347297e-06	1.307287e-09	2.322721e+01	9.156860e+01
2.620000e-06	3.384523e-06	1.314586e-09	2.348553e+01	9.213788e+01
2.630000e-06	3.421498e-06	1.323378e-09	2.374210e+01	9.269165e+01
2.640000e-06	3.458191e-06	1.333503e-09	2.399671e+01	9.323037e+01
2.650000e-06	3.494604e-06	1.342532e-09	2.424939e+01	9.375441e+01
2.660000e-06	3.530810e-06	1.348967e-09	2.450062e+01	9.426409e+01
2.670000e-06	3.566875e-06	1.353825e-09	2.475088e+01	9.475968e+01
2.680000e-06	3.602751e-06	1.359709e-09	2.499983e+01	9.524139e+01
2.690000e-06	3.638435e-06	1.366314e-09	2.524744e+01	9.570941e+01
2.700000e-06	3.673977e-06	1.374975e-09	2.549408e+01	9.616387e+01
2.710000e-06	3.709305e-06	1.385022e-09	2.573922e+01	9.660487e+01
2.720000e-06	3.744390e-06	1.394979e-09	2.598268e+01	9.703252e+01
2.730000e-06	3.779252e-06	1.402427e-09	2.622458e+01	9.744688e+01
2.740000e-06	3.813779e-06	1.406970e-09	2.646418e+01	9.784803e+01
2.750000e-06	3.847819e-06	1.410940e-09	2.670038e+01	9.823607e+01
2.760000e-06	3.881312e-06	1.413635e-09	2.693279e+01	9.861108e+01
2.770000e-06	3.914328e-06	1.417209e-09	2.716189e+01	9.897319e+01
2.780000e-06	3.947086e-06	1.422037e-09	2.738920e+01	9.932257e+01
2.790000e-06	3.979553e-06	1.427796e-09	2.761449e+01	9.965939e+01
2.800000e-06	4.011680e-06	1.436857e-09	2.783743e+01	9.998389e+01
2.810000e-06	4.043600e-06	1.445064e-09	2.805892e+01	1.002964e+02
2.820000e-06	4.075324e-06	1.452597e-09	2.827906e+01	1.005971e+02
2.830000e-06	4.106881e-06	1.458454e-09	2.849804e+01	1.008866e+02
2.840000e-06	4.138152e-06	1.461876e-09	2.871503e+01	1.011652e+02
2.850000e-06	4.169076e-06	1.462978e-09	2.892961e+01	1.014335e+02
2.860000e-06	4.199733e-06	1.462903e-09	2.914234e+01	1.016918e+02
2.870000e-06	4.230118e-06	1.465493e-09	2.935319e+01	1.019409e+02
2.880000e-06	4.260211e-06	1.471173e-09	2.956201e+01	1.021814e+02
2.890000e-06	4.290036e-06	1.478445e-09	2.976896e+01	1.024139e+02
2.900000e-06	4.319606e-06	1.483801e-09	2.997416e+01	1.026390e+02
