# Temperatura_=_15.3
# Concentracion g/m^3_=_1620.0
# C_Vs_to_Am_M_A/Vsm_=_65563218390.804596
# pendiente_HvsI_1/m_=_3716.3
# ordenada_HvsI_A/m_=_1297.0
# frecuencia_Hz_=_135093.8208372315

Tiempo_(s)	Campo_(V.s)	Magnetizacion_(V.s)	Campo_(kA/m)	Magnetizacion_(A/m)
0.000000e+00	-5.531739e-06	-1.581832e-09	-3.837930e+01	-1.030101e+02
1.000000e-08	-5.531986e-06	-1.579599e-09	-3.838101e+01	-1.029538e+02
2.000000e-08	-5.531980e-06	-1.577250e-09	-3.838097e+01	-1.029000e+02
3.000000e-08	-5.531560e-06	-1.574984e-09	-3.837806e+01	-1.028490e+02
4.000000e-08	-5.530783e-06	-1.574108e-09	-3.837267e+01	-1.028012e+02
5.000000e-08	-5.529468e-06	-1.573688e-09	-3.836355e+01	-1.027565e+02
6.000000e-08	-5.527431e-06	-1.579164e-09	-3.834941e+01	-1.027153e+02
7.000000e-08	-5.524798e-06	-1.610939e-09	-3.833115e+01	-1.026774e+02
8.000000e-08	-5.521713e-06	-1.597844e-09	-3.830974e+01	-1.026427e+02
9.000000e-08	-5.518152e-06	-1.523367e-09	-3.828503e+01	-1.026111e+02
1.000000e-07	-5.514179e-06	-1.524509e-09	-3.825747e+01	-1.025822e+02
1.100000e-07	-5.509896e-06	-1.606531e-09	-3.822775e+01	-1.025556e+02
1.200000e-07	-5.505302e-06	-1.581909e-09	-3.819588e+01	-1.025308e+02
1.300000e-07	-5.500420e-06	-1.521658e-09	-3.816201e+01	-1.025072e+02
1.400000e-07	-5.495251e-06	-1.505544e-09	-3.812615e+01	-1.024841e+02
1.500000e-07	-5.489770e-06	-1.634030e-09	-3.808812e+01	-1.024607e+02
1.600000e-07	-5.483800e-06	-1.611542e-09	-3.804670e+01	-1.024363e+02
1.700000e-07	-5.477481e-06	-1.531037e-09	-3.800286e+01	-1.024100e+02
1.800000e-07	-5.470749e-06	-1.516871e-09	-3.795615e+01	-1.023810e+02
1.900000e-07	-5.463581e-06	-1.606039e-09	-3.790642e+01	-1.023482e+02
2.000000e-07	-5.456169e-06	-1.579008e-09	-3.785500e+01	-1.023109e+02
2.100000e-07	-5.448421e-06	-1.528954e-09	-3.780124e+01	-1.022682e+02
2.200000e-07	-5.440361e-06	-1.537704e-09	-3.774532e+01	-1.022191e+02
2.300000e-07	-5.432055e-06	-1.594279e-09	-3.768769e+01	-1.021629e+02
2.400000e-07	-5.423273e-06	-1.576871e-09	-3.762677e+01	-1.020989e+02
2.500000e-07	-5.413885e-06	-1.528943e-09	-3.756163e+01	-1.020263e+02
2.600000e-07	-5.403982e-06	-1.538435e-09	-3.749292e+01	-1.019445e+02
2.700000e-07	-5.393532e-06	-1.552102e-09	-3.742042e+01	-1.018532e+02
2.800000e-07	-5.382489e-06	-1.561014e-09	-3.734380e+01	-1.017517e+02
2.900000e-07	-5.370987e-06	-1.519375e-09	-3.726400e+01	-1.016400e+02
3.000000e-07	-5.359077e-06	-1.520806e-09	-3.718137e+01	-1.015177e+02
3.100000e-07	-5.346766e-06	-1.516138e-09	-3.709596e+01	-1.013849e+02
3.200000e-07	-5.334148e-06	-1.563031e-09	-3.700841e+01	-1.012415e+02
3.300000e-07	-5.321047e-06	-1.514286e-09	-3.691752e+01	-1.010878e+02
3.400000e-07	-5.307414e-06	-1.515139e-09	-3.682293e+01	-1.009241e+02
3.500000e-07	-5.293459e-06	-1.539141e-09	-3.672611e+01	-1.007506e+02
3.600000e-07	-5.279150e-06	-1.556238e-09	-3.662684e+01	-1.005680e+02
3.700000e-07	-5.264195e-06	-1.472680e-09	-3.652308e+01	-1.003767e+02
3.800000e-07	-5.248803e-06	-1.513529e-09	-3.641629e+01	-1.001774e+02
3.900000e-07	-5.233066e-06	-1.551839e-09	-3.630711e+01	-9.997085e+01
4.000000e-07	-5.216757e-06	-1.484130e-09	-3.619396e+01	-9.975781e+01
4.100000e-07	-5.200045e-06	-1.448561e-09	-3.607801e+01	-9.953908e+01
4.200000e-07	-5.183074e-06	-1.564351e-09	-3.596026e+01	-9.931547e+01
4.300000e-07	-5.165788e-06	-1.534324e-09	-3.584033e+01	-9.908785e+01
4.400000e-07	-5.148069e-06	-1.424515e-09	-3.571740e+01	-9.885703e+01
4.500000e-07	-5.129888e-06	-1.495845e-09	-3.559125e+01	-9.862384e+01
4.600000e-07	-5.111394e-06	-1.561111e-09	-3.546294e+01	-9.838906e+01
4.700000e-07	-5.092554e-06	-1.435681e-09	-3.533223e+01	-9.815344e+01
4.800000e-07	-5.073362e-06	-1.436290e-09	-3.519907e+01	-9.791765e+01
4.900000e-07	-5.053925e-06	-1.549279e-09	-3.506422e+01	-9.768232e+01
5.000000e-07	-5.034223e-06	-1.471966e-09	-3.492753e+01	-9.744798e+01
5.100000e-07	-5.014243e-06	-1.407151e-09	-3.478891e+01	-9.721511e+01
5.200000e-07	-4.994040e-06	-1.518300e-09	-3.464874e+01	-9.698406e+01
5.300000e-07	-4.973510e-06	-1.503703e-09	-3.450630e+01	-9.675514e+01
5.400000e-07	-4.952553e-06	-1.385100e-09	-3.436090e+01	-9.652853e+01
5.500000e-07	-4.931242e-06	-1.459993e-09	-3.421304e+01	-9.630432e+01
5.600000e-07	-4.909604e-06	-1.507925e-09	-3.406292e+01	-9.608254e+01
5.700000e-07	-4.887678e-06	-1.408763e-09	-3.391080e+01	-9.586311e+01
5.800000e-07	-4.865517e-06	-1.418358e-09	-3.375704e+01	-9.564586e+01
5.900000e-07	-4.843000e-06	-1.503622e-09	-3.360082e+01	-9.543058e+01
6.000000e-07	-4.820044e-06	-1.431299e-09	-3.344155e+01	-9.521695e+01
6.100000e-07	-4.796758e-06	-1.403160e-09	-3.327999e+01	-9.500462e+01
6.200000e-07	-4.773232e-06	-1.463052e-09	-3.311677e+01	-9.479319e+01
6.300000e-07	-4.749441e-06	-1.438659e-09	-3.295171e+01	-9.458221e+01
6.400000e-07	-4.725294e-06	-1.387358e-09	-3.278417e+01	-9.437122e+01
6.500000e-07	-4.700847e-06	-1.441194e-09	-3.261456e+01	-9.415972e+01
6.600000e-07	-4.676079e-06	-1.437818e-09	-3.244272e+01	-9.394722e+01
6.700000e-07	-4.650846e-06	-1.399299e-09	-3.226765e+01	-9.373322e+01
6.800000e-07	-4.625101e-06	-1.418740e-09	-3.208904e+01	-9.351724e+01
6.900000e-07	-4.598860e-06	-1.435567e-09	-3.190697e+01	-9.329883e+01
7.000000e-07	-4.572089e-06	-1.394748e-09	-3.172124e+01	-9.307756e+01
7.100000e-07	-4.544935e-06	-1.402867e-09	-3.153284e+01	-9.285304e+01
7.200000e-07	-4.517489e-06	-1.414896e-09	-3.134242e+01	-9.262490e+01
7.300000e-07	-4.489752e-06	-1.394590e-09	-3.114998e+01	-9.239286e+01
7.400000e-07	-4.461814e-06	-1.389799e-09	-3.095615e+01	-9.215665e+01
7.500000e-07	-4.433700e-06	-1.406386e-09	-3.076109e+01	-9.191608e+01
7.600000e-07	-4.405390e-06	-1.387885e-09	-3.056467e+01	-9.167099e+01
7.700000e-07	-4.376775e-06	-1.377696e-09	-3.036614e+01	-9.142129e+01
7.800000e-07	-4.347784e-06	-1.388181e-09	-3.016500e+01	-9.116692e+01
7.900000e-07	-4.318455e-06	-1.374012e-09	-2.996152e+01	-9.090788e+01
8.000000e-07	-4.288822e-06	-1.356040e-09	-2.975592e+01	-9.064422e+01
8.100000e-07	-4.258884e-06	-1.363910e-09	-2.954821e+01	-9.037602e+01
8.200000e-07	-4.228691e-06	-1.361669e-09	-2.933873e+01	-9.010339e+01
8.300000e-07	-4.198243e-06	-1.338599e-09	-2.912749e+01	-8.982646e+01
8.400000e-07	-4.167562e-06	-1.343131e-09	-2.891462e+01	-8.954540e+01
8.500000e-07	-4.136604e-06	-1.351946e-09	-2.869983e+01	-8.926038e+01
8.600000e-07	-4.105284e-06	-1.337965e-09	-2.848253e+01	-8.897159e+01
8.700000e-07	-4.073739e-06	-1.325576e-09	-2.826367e+01	-8.867921e+01
8.800000e-07	-4.042076e-06	-1.333438e-09	-2.804399e+01	-8.838342e+01
8.900000e-07	-4.010136e-06	-1.321021e-09	-2.782239e+01	-8.808439e+01
9.000000e-07	-3.977921e-06	-1.309905e-09	-2.759889e+01	-8.778227e+01
9.100000e-07	-3.945470e-06	-1.313312e-09	-2.737374e+01	-8.747720e+01
9.200000e-07	-3.912682e-06	-1.312563e-09	-2.714626e+01	-8.716929e+01
9.300000e-07	-3.879617e-06	-1.292675e-09	-2.691685e+01	-8.685862e+01
9.400000e-07	-3.846090e-06	-1.294241e-09	-2.668424e+01	-8.654526e+01
9.500000e-07	-3.811992e-06	-1.297108e-09	-2.644766e+01	-8.622924e+01
9.600000e-07	-3.777456e-06	-1.287845e-09	-2.620806e+01	-8.591055e+01
9.700000e-07	-3.742559e-06	-1.277229e-09	-2.596594e+01	-8.558917e+01
9.800000e-07	-3.707373e-06	-1.280072e-09	-2.572182e+01	-8.526503e+01
9.900000e-07	-3.671948e-06	-1.266195e-09	-2.547604e+01	-8.493807e+01
1.000000e-06	-3.636343e-06	-1.249267e-09	-2.522901e+01	-8.460817e+01
1.010000e-06	-3.600594e-06	-1.246182e-09	-2.498098e+01	-8.427522e+01
1.020000e-06	-3.564668e-06	-1.245922e-09	-2.473173e+01	-8.393907e+01
1.030000e-06	-3.528609e-06	-1.235215e-09	-2.448155e+01	-8.359956e+01
1.040000e-06	-3.492315e-06	-1.234654e-09	-2.422975e+01	-8.325655e+01
1.050000e-06	-3.455757e-06	-1.233205e-09	-2.397611e+01	-8.290986e+01
1.060000e-06	-3.419101e-06	-1.220328e-09	-2.372178e+01	-8.255933e+01
1.070000e-06	-3.382187e-06	-1.209430e-09	-2.346568e+01	-8.220479e+01
1.080000e-06	-3.344903e-06	-1.207131e-09	-2.320700e+01	-8.184608e+01
1.090000e-06	-3.307283e-06	-1.199464e-09	-2.294599e+01	-8.148304e+01
1.100000e-06	-3.269348e-06	-1.187331e-09	-2.268279e+01	-8.111555e+01
1.110000e-06	-3.231191e-06	-1.184081e-09	-2.241806e+01	-8.074346e+01
1.120000e-06	-3.192844e-06	-1.177157e-09	-2.215201e+01	-8.036667e+01
1.130000e-06	-3.154340e-06	-1.165627e-09	-2.188487e+01	-7.998507e+01
1.140000e-06	-3.115662e-06	-1.157721e-09	-2.161652e+01	-7.959858e+01
1.150000e-06	-3.076748e-06	-1.156670e-09	-2.134654e+01	-7.920711e+01
1.160000e-06	-3.037693e-06	-1.150118e-09	-2.107557e+01	-7.881062e+01
1.170000e-06	-2.998506e-06	-1.144280e-09	-2.080369e+01	-7.840904e+01
1.180000e-06	-2.959191e-06	-1.139310e-09	-2.053092e+01	-7.800234e+01
1.190000e-06	-2.919755e-06	-1.134859e-09	-2.025731e+01	-7.759047e+01
1.200000e-06	-2.880055e-06	-1.128110e-09	-1.998187e+01	-7.717341e+01
1.210000e-06	-2.840162e-06	-1.123915e-09	-1.970509e+01	-7.675111e+01
1.220000e-06	-2.800156e-06	-1.115536e-09	-1.942753e+01	-7.632355e+01
1.230000e-06	-2.759948e-06	-1.109034e-09	-1.914857e+01	-7.589067e+01
1.240000e-06	-2.719530e-06	-1.104792e-09	-1.886815e+01	-7.545243e+01
1.250000e-06	-2.678893e-06	-1.100278e-09	-1.858621e+01	-7.500876e+01
1.260000e-06	-2.638083e-06	-1.094350e-09	-1.830307e+01	-7.455959e+01
1.270000e-06	-2.596932e-06	-1.088545e-09	-1.801756e+01	-7.410480e+01
1.280000e-06	-2.555502e-06	-1.080713e-09	-1.773012e+01	-7.364430e+01
1.290000e-06	-2.513864e-06	-1.071504e-09	-1.744123e+01	-7.317794e+01
1.300000e-06	-2.471903e-06	-1.059385e-09	-1.715011e+01	-7.270558e+01
1.310000e-06	-2.429693e-06	-1.051855e-09	-1.685726e+01	-7.222702e+01
1.320000e-06	-2.387207e-06	-1.044749e-09	-1.656248e+01	-7.174207e+01
1.330000e-06	-2.344423e-06	-1.036796e-09	-1.626565e+01	-7.125052e+01
1.340000e-06	-2.301395e-06	-1.026835e-09	-1.596712e+01	-7.075211e+01
1.350000e-06	-2.258193e-06	-1.019732e-09	-1.566738e+01	-7.024658e+01
1.360000e-06	-2.214797e-06	-1.015462e-09	-1.536630e+01	-6.973366e+01
1.370000e-06	-2.171194e-06	-1.010018e-09	-1.506378e+01	-6.921305e+01
1.380000e-06	-2.127473e-06	-1.002625e-09	-1.476044e+01	-6.868444e+01
1.390000e-06	-2.083728e-06	-9.945624e-10	-1.445694e+01	-6.814750e+01
1.400000e-06	-2.039926e-06	-9.862205e-10	-1.415304e+01	-6.760190e+01
1.410000e-06	-1.996029e-06	-9.765479e-10	-1.384849e+01	-6.704730e+01
1.420000e-06	-1.952033e-06	-9.667819e-10	-1.354324e+01	-6.648333e+01
1.430000e-06	-1.907914e-06	-9.563174e-10	-1.323714e+01	-6.590964e+01
1.440000e-06	-1.863665e-06	-9.462258e-10	-1.293014e+01	-6.532586e+01
1.450000e-06	-1.819306e-06	-9.375853e-10	-1.262238e+01	-6.473161e+01
1.460000e-06	-1.774915e-06	-9.291602e-10	-1.231439e+01	-6.412652e+01
1.470000e-06	-1.730411e-06	-9.173721e-10	-1.200562e+01	-6.351019e+01
1.480000e-06	-1.685727e-06	-9.047380e-10	-1.169560e+01	-6.288222e+01
1.490000e-06	-1.640952e-06	-8.909291e-10	-1.138495e+01	-6.224220e+01
1.500000e-06	-1.596015e-06	-8.758452e-10	-1.107318e+01	-6.158969e+01
1.510000e-06	-1.550922e-06	-8.597992e-10	-1.076032e+01	-6.092426e+01
1.520000e-06	-1.505705e-06	-8.474582e-10	-1.044661e+01	-6.024544e+01
1.530000e-06	-1.460416e-06	-8.364599e-10	-1.013239e+01	-5.955272e+01
1.540000e-06	-1.415040e-06	-8.267783e-10	-9.817574e+00	-5.884559e+01
1.550000e-06	-1.369505e-06	-8.139773e-10	-9.501649e+00	-5.812348e+01
1.560000e-06	-1.323833e-06	-8.014556e-10	-9.184779e+00	-5.738579e+01
1.570000e-06	-1.278134e-06	-7.879203e-10	-8.867713e+00	-5.663188e+01
1.580000e-06	-1.232397e-06	-7.729157e-10	-8.550393e+00	-5.586105e+01
1.590000e-06	-1.186648e-06	-7.554391e-10	-8.232984e+00	-5.507257e+01
1.600000e-06	-1.140776e-06	-7.389031e-10	-7.914726e+00	-5.426562e+01
1.610000e-06	-1.094633e-06	-7.262335e-10	-7.594583e+00	-5.343936e+01
1.620000e-06	-1.048503e-06	-7.155944e-10	-7.274532e+00	-5.259286e+01
1.630000e-06	-1.002421e-06	-7.050762e-10	-6.954817e+00	-5.172515e+01
1.640000e-06	-9.562059e-07	-6.947775e-10	-6.634173e+00	-5.083520e+01
1.650000e-06	-9.099274e-07	-6.815377e-10	-6.313092e+00	-4.992192e+01
1.660000e-06	-8.636082e-07	-6.647935e-10	-5.991729e+00	-4.898415e+01
1.670000e-06	-8.172337e-07	-6.449309e-10	-5.669982e+00	-4.802072e+01
1.680000e-06	-7.707988e-07	-6.245787e-10	-5.347816e+00	-4.703039e+01
1.690000e-06	-7.242774e-07	-6.087989e-10	-5.025049e+00	-4.601189e+01
1.700000e-06	-6.777458e-07	-5.930242e-10	-4.702213e+00	-4.496393e+01
1.710000e-06	-6.311754e-07	-5.771398e-10	-4.379106e+00	-4.388521e+01
1.720000e-06	-5.845336e-07	-5.616847e-10	-4.055505e+00	-4.277440e+01
1.730000e-06	-5.378643e-07	-5.449017e-10	-3.731712e+00	-4.163023e+01
1.740000e-06	-4.911186e-07	-5.235149e-10	-3.407390e+00	-4.045141e+01
1.750000e-06	-4.443072e-07	-5.012928e-10	-3.082612e+00	-3.923671e+01
1.760000e-06	-3.975136e-07	-4.814741e-10	-2.757957e+00	-3.798496e+01
1.770000e-06	-3.506494e-07	-4.614603e-10	-2.432812e+00	-3.669505e+01
1.780000e-06	-3.037765e-07	-4.421768e-10	-2.107607e+00	-3.536596e+01
1.790000e-06	-2.568704e-07	-4.233066e-10	-1.782171e+00	-3.399679e+01
1.800000e-06	-2.099633e-07	-4.036702e-10	-1.456729e+00	-3.258676e+01
1.810000e-06	-1.631254e-07	-3.831596e-10	-1.131767e+00	-3.113520e+01
1.820000e-06	-1.162142e-07	-3.604292e-10	-8.062963e-01	-2.964162e+01
1.830000e-06	-6.929550e-08	-3.377937e-10	-4.807734e-01	-2.810570e+01
1.840000e-06	-2.238293e-08	-3.147263e-10	-1.552932e-01	-2.652728e+01
1.850000e-06	2.448277e-08	-2.926601e-10	1.698619e-01	-2.490641e+01
1.860000e-06	7.138905e-08	-2.724657e-10	4.952985e-01	-2.324333e+01
1.870000e-06	1.183472e-07	-2.503544e-10	8.210949e-01	-2.153851e+01
1.880000e-06	1.652171e-07	-2.250107e-10	1.146279e+00	-1.979262e+01
1.890000e-06	2.120382e-07	-1.994832e-10	1.471125e+00	-1.800654e+01
1.900000e-06	2.588079e-07	-1.725396e-10	1.795614e+00	-1.618142e+01
1.910000e-06	3.056624e-07	-1.436443e-10	2.120691e+00	-1.431857e+01
1.920000e-06	3.524610e-07	-1.151221e-10	2.445381e+00	-1.241958e+01
1.930000e-06	3.991697e-07	-8.786844e-11	2.769446e+00	-1.048621e+01
1.940000e-06	4.459290e-07	-6.134719e-11	3.093863e+00	-8.520460e+00
1.950000e-06	4.926702e-07	-3.458376e-11	3.418155e+00	-6.524508e+00
1.960000e-06	5.393021e-07	-5.852333e-12	3.741688e+00	-4.500731e+00
1.970000e-06	5.857660e-07	2.150094e-11	4.064055e+00	-2.451677e+00
1.980000e-06	6.322405e-07	4.694711e-11	4.386496e+00	-3.800518e-01
1.990000e-06	6.788022e-07	7.470756e-11	4.709542e+00	1.711297e+00
2.000000e-06	7.253240e-07	1.056697e-10	5.032311e+00	3.819400e+00
2.010000e-06	7.717182e-07	1.392021e-10	5.354195e+00	5.941183e+00
2.020000e-06	8.180155e-07	1.716032e-10	5.675406e+00	8.073490e+00
2.030000e-06	8.641654e-07	2.026050e-10	5.995595e+00	1.021311e+01
2.040000e-06	9.102913e-07	2.314965e-10	6.315617e+00	1.235678e+01
2.050000e-06	9.564476e-07	2.588403e-10	6.635850e+00	1.450123e+01
2.060000e-06	1.002502e-06	2.871729e-10	6.955375e+00	1.664321e+01
2.070000e-06	1.048542e-06	3.174718e-10	7.274801e+00	1.877946e+01
2.080000e-06	1.094542e-06	3.498667e-10	7.593951e+00	2.090682e+01
2.090000e-06	1.140443e-06	3.820224e-10	7.912413e+00	2.302216e+01
2.100000e-06	1.186281e-06	4.118034e-10	8.230439e+00	2.512246e+01
2.110000e-06	1.232017e-06	4.412082e-10	8.547755e+00	2.720479e+01
2.120000e-06	1.277619e-06	4.701747e-10	8.864147e+00	2.926638e+01
2.130000e-06	1.323121e-06	4.976835e-10	9.179834e+00	3.130458e+01
2.140000e-06	1.368584e-06	5.239245e-10	9.495258e+00	3.331689e+01
2.150000e-06	1.414024e-06	5.487364e-10	9.810523e+00	3.530098e+01
2.160000e-06	1.459352e-06	5.726969e-10	1.012501e+01	3.725473e+01
2.170000e-06	1.504604e-06	5.989791e-10	1.043897e+01	3.917616e+01
2.180000e-06	1.549785e-06	6.273713e-10	1.075243e+01	4.106351e+01
2.190000e-06	1.594740e-06	6.547793e-10	1.106433e+01	4.291523e+01
2.200000e-06	1.639526e-06	6.808095e-10	1.137506e+01	4.472994e+01
2.210000e-06	1.684192e-06	7.070650e-10	1.168495e+01	4.650649e+01
2.220000e-06	1.728666e-06	7.332000e-10	1.199351e+01	4.824392e+01
2.230000e-06	1.773006e-06	7.562375e-10	1.230114e+01	4.994145e+01
2.240000e-06	1.817314e-06	7.769836e-10	1.260856e+01	5.159853e+01
2.250000e-06	1.861555e-06	7.983215e-10	1.291550e+01	5.321476e+01
2.260000e-06	1.905658e-06	8.197024e-10	1.322149e+01	5.478995e+01
2.270000e-06	1.949669e-06	8.402908e-10	1.352684e+01	5.632406e+01
2.280000e-06	1.993586e-06	8.619546e-10	1.383153e+01	5.781722e+01
2.290000e-06	2.037403e-06	8.836060e-10	1.413553e+01	5.926970e+01
2.300000e-06	2.081170e-06	9.035095e-10	1.443919e+01	6.068193e+01
2.310000e-06	2.124869e-06	9.228134e-10	1.474238e+01	6.205444e+01
2.320000e-06	2.168497e-06	9.410310e-10	1.504507e+01	6.338788e+01
2.330000e-06	2.212091e-06	9.571809e-10	1.534753e+01	6.468300e+01
2.340000e-06	2.255668e-06	9.743063e-10	1.564987e+01	6.594065e+01
2.350000e-06	2.299009e-06	9.933483e-10	1.595057e+01	6.716172e+01
2.360000e-06	2.342027e-06	1.011208e-09	1.624902e+01	6.834719e+01
2.370000e-06	2.384818e-06	1.026929e-09	1.654591e+01	6.949807e+01
2.380000e-06	2.427331e-06	1.041632e-09	1.684087e+01	7.061540e+01
2.390000e-06	2.469602e-06	1.055316e-09	1.713415e+01	7.170024e+01
2.400000e-06	2.511493e-06	1.069615e-09	1.742478e+01	7.275366e+01
2.410000e-06	2.552954e-06	1.084245e-09	1.771244e+01	7.377673e+01
2.420000e-06	2.594147e-06	1.097863e-09	1.799824e+01	7.477051e+01
2.430000e-06	2.635086e-06	1.109578e-09	1.828228e+01	7.573603e+01
2.440000e-06	2.675744e-06	1.120166e-09	1.856436e+01	7.667428e+01
2.450000e-06	2.716127e-06	1.131569e-09	1.884454e+01	7.758624e+01
2.460000e-06	2.756308e-06	1.143731e-09	1.912332e+01	7.847280e+01
2.470000e-06	2.796374e-06	1.155645e-09	1.940129e+01	7.933486e+01
2.480000e-06	2.836323e-06	1.165289e-09	1.967846e+01	8.017320e+01
2.490000e-06	2.876108e-06	1.173562e-09	1.995449e+01	8.098860e+01
2.500000e-06	2.915805e-06	1.184765e-09	2.022991e+01	8.178175e+01
2.510000e-06	2.955406e-06	1.197056e-09	2.050466e+01	8.255328e+01
2.520000e-06	2.994775e-06	1.208171e-09	2.077780e+01	8.330377e+01
2.530000e-06	3.034021e-06	1.217061e-09	2.105009e+01	8.403373e+01
2.540000e-06	3.073116e-06	1.224234e-09	2.132134e+01	8.474363e+01
2.550000e-06	3.111937e-06	1.231207e-09	2.159068e+01	8.543387e+01
2.560000e-06	3.150518e-06	1.237467e-09	2.185835e+01	8.610481e+01
2.570000e-06	3.188877e-06	1.245340e-09	2.212449e+01	8.675675e+01
2.580000e-06	3.226996e-06	1.253835e-09	2.238895e+01	8.738996e+01
2.590000e-06	3.264884e-06	1.261834e-09	2.265182e+01	8.800468e+01
2.600000e-06	3.302593e-06	1.269031e-09	2.291345e+01	8.860112e+01
2.610000e-06	3.340112e-06	1.276742e-09	2.317375e+01	8.917945e+01
2.620000e-06	3.377415e-06	1.285881e-09	2.343256e+01	8.973985e+01
2.630000e-06	3.414426e-06	1.294363e-09	2.368935e+01	9.028246e+01
2.640000e-06	3.451207e-06	1.302457e-09	2.394454e+01	9.080745e+01
2.650000e-06	3.487716e-06	1.310232e-09	2.419783e+01	9.131497e+01
2.660000e-06	3.523900e-06	1.316690e-09	2.444888e+01	9.180519e+01
2.670000e-06	3.559919e-06	1.323398e-09	2.469878e+01	9.227829e+01
2.680000e-06	3.595798e-06	1.329195e-09	2.494771e+01	9.273448e+01
2.690000e-06	3.631566e-06	1.333699e-09	2.519587e+01	9.317398e+01
2.700000e-06	3.667247e-06	1.339018e-09	2.544343e+01	9.359707e+01
2.710000e-06	3.702778e-06	1.347550e-09	2.568994e+01	9.400402e+01
2.720000e-06	3.738055e-06	1.359424e-09	2.593470e+01	9.439517e+01
2.730000e-06	3.773005e-06	1.370473e-09	2.617718e+01	9.477089e+01
2.740000e-06	3.807546e-06	1.378144e-09	2.641682e+01	9.513158e+01
2.750000e-06	3.841592e-06	1.382478e-09	2.665303e+01	9.547768e+01
2.760000e-06	3.875100e-06	1.382528e-09	2.688551e+01	9.580966e+01
2.770000e-06	3.908099e-06	1.381455e-09	2.711446e+01	9.612806e+01
2.780000e-06	3.940725e-06	1.383075e-09	2.734082e+01	9.643340e+01
2.790000e-06	3.973079e-06	1.388911e-09	2.756529e+01	9.672626e+01
2.800000e-06	4.005198e-06	1.398352e-09	2.778814e+01	9.700725e+01
2.810000e-06	4.037165e-06	1.407878e-09	2.800992e+01	9.727697e+01
2.820000e-06	4.069001e-06	1.415479e-09	2.823080e+01	9.753606e+01
2.830000e-06	4.100654e-06	1.420004e-09	2.845041e+01	9.778516e+01
2.840000e-06	4.132087e-06	1.422854e-09	2.866850e+01	9.802491e+01
2.850000e-06	4.163272e-06	1.424147e-09	2.888486e+01	9.825594e+01
2.860000e-06	4.194087e-06	1.422655e-09	2.909865e+01	9.847886e+01
2.870000e-06	4.224495e-06	1.423841e-09	2.930962e+01	9.869429e+01
2.880000e-06	4.254650e-06	1.430543e-09	2.951884e+01	9.890280e+01
2.890000e-06	4.284543e-06	1.437278e-09	2.972624e+01	9.910493e+01
2.900000e-06	4.314153e-06	1.442287e-09	2.993167e+01	9.930119e+01
