# Temperatura_=_-7.0
# Concentracion g/m^3_=_1620.0
# C_Vs_to_Am_M_A/Vsm_=_65563218390.804596
# pendiente_HvsI_1/m_=_3716.3
# ordenada_HvsI_A/m_=_1297.0
# frecuencia_Hz_=_135103.56716463043

Tiempo_(s)	Campo_(V.s)	Magnetizacion_(V.s)	Campo_(kA/m)	Magnetizacion_(A/m)
0.000000e+00	-5.521908e-06	-1.327272e-09	-3.836423e+01	-8.569621e+01
1.000000e-08	-5.522151e-06	-1.320996e-09	-3.836591e+01	-8.561094e+01
2.000000e-08	-5.522149e-06	-1.313822e-09	-3.836590e+01	-8.552677e+01
3.000000e-08	-5.521833e-06	-1.310858e-09	-3.836370e+01	-8.544403e+01
4.000000e-08	-5.521084e-06	-1.312729e-09	-3.835850e+01	-8.536301e+01
5.000000e-08	-5.519882e-06	-1.317235e-09	-3.835015e+01	-8.528396e+01
6.000000e-08	-5.518123e-06	-1.324841e-09	-3.833793e+01	-8.520709e+01
7.000000e-08	-5.515647e-06	-1.341799e-09	-3.832073e+01	-8.513258e+01
8.000000e-08	-5.512625e-06	-1.340581e-09	-3.829973e+01	-8.506052e+01
9.000000e-08	-5.509149e-06	-1.304162e-09	-3.827558e+01	-8.499095e+01
1.000000e-07	-5.505272e-06	-1.286414e-09	-3.824865e+01	-8.492386e+01
1.100000e-07	-5.501094e-06	-1.323557e-09	-3.821962e+01	-8.485917e+01
1.200000e-07	-5.496715e-06	-1.352449e-09	-3.818919e+01	-8.479672e+01
1.300000e-07	-5.492051e-06	-1.309647e-09	-3.815679e+01	-8.473632e+01
1.400000e-07	-5.486961e-06	-1.262302e-09	-3.812142e+01	-8.467767e+01
1.500000e-07	-5.481549e-06	-1.322635e-09	-3.808383e+01	-8.462047e+01
1.600000e-07	-5.475709e-06	-1.367287e-09	-3.804325e+01	-8.456432e+01
1.700000e-07	-5.469438e-06	-1.336389e-09	-3.799968e+01	-8.450879e+01
1.800000e-07	-5.462822e-06	-1.263046e-09	-3.795372e+01	-8.445343e+01
1.900000e-07	-5.455817e-06	-1.297029e-09	-3.790505e+01	-8.439771e+01
2.000000e-07	-5.448458e-06	-1.322030e-09	-3.785393e+01	-8.434113e+01
2.100000e-07	-5.440792e-06	-1.304356e-09	-3.780066e+01	-8.428313e+01
2.200000e-07	-5.432864e-06	-1.273435e-09	-3.774558e+01	-8.422318e+01
2.300000e-07	-5.424657e-06	-1.300363e-09	-3.768856e+01	-8.416073e+01
2.400000e-07	-5.416068e-06	-1.312944e-09	-3.762889e+01	-8.409525e+01
2.500000e-07	-5.406946e-06	-1.282729e-09	-3.756551e+01	-8.402624e+01
2.600000e-07	-5.397182e-06	-1.266641e-09	-3.749768e+01	-8.395321e+01
2.700000e-07	-5.386744e-06	-1.274258e-09	-3.742515e+01	-8.387573e+01
2.800000e-07	-5.375685e-06	-1.290963e-09	-3.734832e+01	-8.379340e+01
2.900000e-07	-5.364130e-06	-1.274438e-09	-3.726804e+01	-8.370589e+01
3.000000e-07	-5.352208e-06	-1.270413e-09	-3.718521e+01	-8.361292e+01
3.100000e-07	-5.339961e-06	-1.268148e-09	-3.710012e+01	-8.351426e+01
3.200000e-07	-5.327344e-06	-1.290478e-09	-3.701246e+01	-8.340976e+01
3.300000e-07	-5.314285e-06	-1.277514e-09	-3.692174e+01	-8.329934e+01
3.400000e-07	-5.300846e-06	-1.272104e-09	-3.682837e+01	-8.318297e+01
3.500000e-07	-5.287083e-06	-1.265785e-09	-3.673275e+01	-8.306071e+01
3.600000e-07	-5.272980e-06	-1.285450e-09	-3.663477e+01	-8.293268e+01
3.700000e-07	-5.258359e-06	-1.268768e-09	-3.653319e+01	-8.279905e+01
3.800000e-07	-5.243146e-06	-1.263594e-09	-3.642749e+01	-8.266005e+01
3.900000e-07	-5.227401e-06	-1.268843e-09	-3.631810e+01	-8.251599e+01
4.000000e-07	-5.211074e-06	-1.268595e-09	-3.620467e+01	-8.236720e+01
4.100000e-07	-5.194412e-06	-1.234418e-09	-3.608890e+01	-8.221405e+01
4.200000e-07	-5.177522e-06	-1.249022e-09	-3.597155e+01	-8.205697e+01
4.300000e-07	-5.160313e-06	-1.271966e-09	-3.585199e+01	-8.189640e+01
4.400000e-07	-5.142810e-06	-1.247113e-09	-3.573039e+01	-8.173278e+01
4.500000e-07	-5.124944e-06	-1.223470e-09	-3.560627e+01	-8.156660e+01
4.600000e-07	-5.106643e-06	-1.255940e-09	-3.547912e+01	-8.139831e+01
4.700000e-07	-5.087995e-06	-1.255565e-09	-3.534956e+01	-8.122838e+01
4.800000e-07	-5.068970e-06	-1.217011e-09	-3.521738e+01	-8.105726e+01
4.900000e-07	-5.049578e-06	-1.222925e-09	-3.508265e+01	-8.088538e+01
5.000000e-07	-5.029969e-06	-1.239722e-09	-3.494641e+01	-8.071313e+01
5.100000e-07	-5.010137e-06	-1.214777e-09	-3.480863e+01	-8.054088e+01
5.200000e-07	-4.990094e-06	-1.210957e-09	-3.466937e+01	-8.036897e+01
5.300000e-07	-4.969785e-06	-1.238435e-09	-3.452828e+01	-8.019767e+01
5.400000e-07	-4.949026e-06	-1.217467e-09	-3.438405e+01	-8.002723e+01
5.500000e-07	-4.927813e-06	-1.198180e-09	-3.423667e+01	-7.985784e+01
5.600000e-07	-4.906301e-06	-1.222004e-09	-3.408721e+01	-7.968966e+01
5.700000e-07	-4.884504e-06	-1.226035e-09	-3.393577e+01	-7.952277e+01
5.800000e-07	-4.862365e-06	-1.194616e-09	-3.378196e+01	-7.935722e+01
5.900000e-07	-4.839875e-06	-1.205027e-09	-3.362571e+01	-7.919303e+01
6.000000e-07	-4.816957e-06	-1.217123e-09	-3.346648e+01	-7.903016e+01
6.100000e-07	-4.793633e-06	-1.197937e-09	-3.330444e+01	-7.886853e+01
6.200000e-07	-4.770063e-06	-1.186729e-09	-3.314068e+01	-7.870802e+01
6.300000e-07	-4.746301e-06	-1.201729e-09	-3.297559e+01	-7.854850e+01
6.400000e-07	-4.722332e-06	-1.191610e-09	-3.280906e+01	-7.838979e+01
6.500000e-07	-4.698122e-06	-1.183193e-09	-3.264086e+01	-7.823171e+01
6.600000e-07	-4.673609e-06	-1.189032e-09	-3.247055e+01	-7.807405e+01
6.700000e-07	-4.648577e-06	-1.191721e-09	-3.229664e+01	-7.791659e+01
6.800000e-07	-4.622922e-06	-1.178056e-09	-3.211839e+01	-7.775912e+01
6.900000e-07	-4.596737e-06	-1.178497e-09	-3.193647e+01	-7.760141e+01
7.000000e-07	-4.570107e-06	-1.175410e-09	-3.175146e+01	-7.744325e+01
7.100000e-07	-4.542956e-06	-1.168122e-09	-3.156282e+01	-7.728443e+01
7.200000e-07	-4.515404e-06	-1.164869e-09	-3.137140e+01	-7.712476e+01
7.300000e-07	-4.487716e-06	-1.169185e-09	-3.117904e+01	-7.696404e+01
7.400000e-07	-4.459904e-06	-1.166308e-09	-3.098581e+01	-7.680212e+01
7.500000e-07	-4.431937e-06	-1.163143e-09	-3.079150e+01	-7.663886e+01
7.600000e-07	-4.403732e-06	-1.160050e-09	-3.059554e+01	-7.647413e+01
7.700000e-07	-4.375164e-06	-1.156313e-09	-3.039706e+01	-7.630781e+01
7.800000e-07	-4.346238e-06	-1.150901e-09	-3.019610e+01	-7.613984e+01
7.900000e-07	-4.317036e-06	-1.144479e-09	-2.999321e+01	-7.597014e+01
8.000000e-07	-4.287525e-06	-1.137258e-09	-2.978818e+01	-7.579867e+01
8.100000e-07	-4.257720e-06	-1.132455e-09	-2.958111e+01	-7.562539e+01
8.200000e-07	-4.227632e-06	-1.130410e-09	-2.937206e+01	-7.545029e+01
8.300000e-07	-4.197298e-06	-1.125185e-09	-2.916131e+01	-7.527335e+01
8.400000e-07	-4.166669e-06	-1.123583e-09	-2.894852e+01	-7.509457e+01
8.500000e-07	-4.135778e-06	-1.124595e-09	-2.873390e+01	-7.491396e+01
8.600000e-07	-4.104665e-06	-1.126147e-09	-2.851773e+01	-7.473152e+01
8.700000e-07	-4.073292e-06	-1.118577e-09	-2.829976e+01	-7.454726e+01
8.800000e-07	-4.041681e-06	-1.111113e-09	-2.808014e+01	-7.436116e+01
8.900000e-07	-4.009858e-06	-1.103645e-09	-2.785904e+01	-7.417322e+01
9.000000e-07	-3.977851e-06	-1.099074e-09	-2.763667e+01	-7.398342e+01
9.100000e-07	-3.945673e-06	-1.098021e-09	-2.741311e+01	-7.379172e+01
9.200000e-07	-3.913226e-06	-1.102676e-09	-2.718768e+01	-7.359808e+01
9.300000e-07	-3.880310e-06	-1.101774e-09	-2.695899e+01	-7.340245e+01
9.400000e-07	-3.846943e-06	-1.098818e-09	-2.672718e+01	-7.320473e+01
9.500000e-07	-3.813171e-06	-1.094497e-09	-2.649254e+01	-7.300485e+01
9.600000e-07	-3.778976e-06	-1.090734e-09	-2.625496e+01	-7.280271e+01
9.700000e-07	-3.744244e-06	-1.083124e-09	-2.601366e+01	-7.259817e+01
9.800000e-07	-3.709031e-06	-1.079822e-09	-2.576901e+01	-7.239112e+01
9.900000e-07	-3.673569e-06	-1.076525e-09	-2.552264e+01	-7.218140e+01
1.000000e-06	-3.637964e-06	-1.071121e-09	-2.527527e+01	-7.196889e+01
1.010000e-06	-3.602265e-06	-1.063827e-09	-2.502724e+01	-7.175342e+01
1.020000e-06	-3.566407e-06	-1.061983e-09	-2.477811e+01	-7.153483e+01
1.030000e-06	-3.530395e-06	-1.059129e-09	-2.452791e+01	-7.131299e+01
1.040000e-06	-3.494274e-06	-1.054490e-09	-2.427696e+01	-7.108773e+01
1.050000e-06	-3.457870e-06	-1.051317e-09	-2.402403e+01	-7.085892e+01
1.060000e-06	-3.421165e-06	-1.048813e-09	-2.376902e+01	-7.062643e+01
1.070000e-06	-3.384227e-06	-1.043599e-09	-2.351239e+01	-7.039014e+01
1.080000e-06	-3.346936e-06	-1.037496e-09	-2.325331e+01	-7.014994e+01
1.090000e-06	-3.309378e-06	-1.031816e-09	-2.299236e+01	-6.990576e+01
1.100000e-06	-3.271658e-06	-1.025963e-09	-2.273030e+01	-6.965752e+01
1.110000e-06	-3.233760e-06	-1.021111e-09	-2.246700e+01	-6.940517e+01
1.120000e-06	-3.195626e-06	-1.016763e-09	-2.220206e+01	-6.914871e+01
1.130000e-06	-3.157256e-06	-1.012677e-09	-2.193547e+01	-6.888811e+01
1.140000e-06	-3.118716e-06	-1.007580e-09	-2.166771e+01	-6.862341e+01
1.150000e-06	-3.079884e-06	-1.006118e-09	-2.139792e+01	-6.835463e+01
1.160000e-06	-3.040865e-06	-1.004406e-09	-2.112683e+01	-6.808183e+01
1.170000e-06	-3.001748e-06	-1.000207e-09	-2.085506e+01	-6.780509e+01
1.180000e-06	-2.962396e-06	-9.935709e-10	-2.058166e+01	-6.752448e+01
1.190000e-06	-2.922884e-06	-9.899982e-10	-2.030714e+01	-6.724010e+01
1.200000e-06	-2.883244e-06	-9.853025e-10	-2.003174e+01	-6.695204e+01
1.210000e-06	-2.843488e-06	-9.793094e-10	-1.975553e+01	-6.666042e+01
1.220000e-06	-2.803667e-06	-9.738455e-10	-1.947886e+01	-6.636532e+01
1.230000e-06	-2.763706e-06	-9.703659e-10	-1.920124e+01	-6.606685e+01
1.240000e-06	-2.723496e-06	-9.682917e-10	-1.892187e+01	-6.576509e+01
1.250000e-06	-2.683070e-06	-9.682613e-10	-1.864100e+01	-6.546010e+01
1.260000e-06	-2.642468e-06	-9.659214e-10	-1.835892e+01	-6.515194e+01
1.270000e-06	-2.601563e-06	-9.601117e-10	-1.807472e+01	-6.484064e+01
1.280000e-06	-2.560351e-06	-9.513214e-10	-1.778840e+01	-6.452620e+01
1.290000e-06	-2.518936e-06	-9.427446e-10	-1.750066e+01	-6.420858e+01
1.300000e-06	-2.477295e-06	-9.349253e-10	-1.721135e+01	-6.388773e+01
1.310000e-06	-2.435315e-06	-9.292023e-10	-1.691969e+01	-6.356354e+01
1.320000e-06	-2.393063e-06	-9.237328e-10	-1.662614e+01	-6.323589e+01
1.330000e-06	-2.350517e-06	-9.197437e-10	-1.633054e+01	-6.290460e+01
1.340000e-06	-2.307626e-06	-9.156462e-10	-1.603255e+01	-6.256946e+01
1.350000e-06	-2.264452e-06	-9.120488e-10	-1.573260e+01	-6.223021e+01
1.360000e-06	-2.221093e-06	-9.091769e-10	-1.543136e+01	-6.188656e+01
1.370000e-06	-2.177670e-06	-9.050004e-10	-1.512967e+01	-6.153819e+01
1.380000e-06	-2.134098e-06	-8.973241e-10	-1.482694e+01	-6.118471e+01
1.390000e-06	-2.090378e-06	-8.862985e-10	-1.452319e+01	-6.082573e+01
1.400000e-06	-2.046545e-06	-8.747125e-10	-1.421866e+01	-6.046080e+01
1.410000e-06	-2.002613e-06	-8.648929e-10	-1.391343e+01	-6.008947e+01
1.420000e-06	-1.958648e-06	-8.570071e-10	-1.360798e+01	-5.971123e+01
1.430000e-06	-1.914679e-06	-8.496634e-10	-1.330250e+01	-5.932555e+01
1.440000e-06	-1.870636e-06	-8.441817e-10	-1.299651e+01	-5.893189e+01
1.450000e-06	-1.826506e-06	-8.394653e-10	-1.268990e+01	-5.852969e+01
1.460000e-06	-1.782244e-06	-8.334985e-10	-1.238239e+01	-5.811836e+01
1.470000e-06	-1.737818e-06	-8.236608e-10	-1.207373e+01	-5.769731e+01
1.480000e-06	-1.693293e-06	-8.116440e-10	-1.176439e+01	-5.726593e+01
1.490000e-06	-1.648660e-06	-7.990478e-10	-1.145430e+01	-5.682361e+01
1.500000e-06	-1.603890e-06	-7.864819e-10	-1.114325e+01	-5.636971e+01
1.510000e-06	-1.558971e-06	-7.749599e-10	-1.083117e+01	-5.590362e+01
1.520000e-06	-1.513905e-06	-7.665794e-10	-1.051807e+01	-5.542470e+01
1.530000e-06	-1.468652e-06	-7.605324e-10	-1.020367e+01	-5.493231e+01
1.540000e-06	-1.423330e-06	-7.555370e-10	-9.888782e+00	-5.442582e+01
1.550000e-06	-1.377976e-06	-7.479375e-10	-9.573683e+00	-5.390458e+01
1.560000e-06	-1.332458e-06	-7.383455e-10	-9.257439e+00	-5.336795e+01
1.570000e-06	-1.286825e-06	-7.275299e-10	-8.940397e+00	-5.281527e+01
1.580000e-06	-1.241181e-06	-7.180138e-10	-8.623282e+00	-5.224590e+01
1.590000e-06	-1.195486e-06	-7.079980e-10	-8.305808e+00	-5.165915e+01
1.600000e-06	-1.149669e-06	-6.968304e-10	-7.987487e+00	-5.105437e+01
1.610000e-06	-1.103799e-06	-6.872472e-10	-7.668797e+00	-5.043086e+01
1.620000e-06	-1.057885e-06	-6.800302e-10	-7.349801e+00	-4.978794e+01
1.630000e-06	-1.011843e-06	-6.743226e-10	-7.029921e+00	-4.912489e+01
1.640000e-06	-9.657213e-07	-6.687510e-10	-6.709483e+00	-4.844099e+01
1.650000e-06	-9.195571e-07	-6.595355e-10	-6.388751e+00	-4.773551e+01
1.660000e-06	-8.733032e-07	-6.464537e-10	-6.067396e+00	-4.700767e+01
1.670000e-06	-8.269392e-07	-6.321381e-10	-5.745276e+00	-4.625672e+01
1.680000e-06	-7.804476e-07	-6.158555e-10	-5.422269e+00	-4.548186e+01
1.690000e-06	-7.339162e-07	-5.990931e-10	-5.098985e+00	-4.468229e+01
1.700000e-06	-6.873582e-07	-5.822286e-10	-4.775517e+00	-4.385719e+01
1.710000e-06	-6.407952e-07	-5.667848e-10	-4.452014e+00	-4.300573e+01
1.720000e-06	-5.942858e-07	-5.544417e-10	-4.128884e+00	-4.212708e+01
1.730000e-06	-5.476557e-07	-5.414548e-10	-3.804914e+00	-4.122039e+01
1.740000e-06	-5.009138e-07	-5.266089e-10	-3.480168e+00	-4.028483e+01
1.750000e-06	-4.540662e-07	-5.114400e-10	-3.154689e+00	-3.931956e+01
1.760000e-06	-4.071616e-07	-4.955425e-10	-2.828812e+00	-3.832378e+01
1.770000e-06	-3.603999e-07	-4.772282e-10	-2.503928e+00	-3.729668e+01
1.780000e-06	-3.137372e-07	-4.589721e-10	-2.179733e+00	-3.623751e+01
1.790000e-06	-2.670380e-07	-4.427101e-10	-1.855284e+00	-3.514553e+01
1.800000e-06	-2.202371e-07	-4.263662e-10	-1.530128e+00	-3.402008e+01
1.810000e-06	-1.733578e-07	-4.109594e-10	-1.204427e+00	-3.286052e+01
1.820000e-06	-1.264920e-07	-3.956353e-10	-8.788210e-01	-3.166632e+01
1.830000e-06	-7.966254e-08	-3.795305e-10	-5.534666e-01	-3.043698e+01
1.840000e-06	-3.281620e-08	-3.631775e-10	-2.279951e-01	-2.917213e+01
1.850000e-06	1.400231e-08	-3.469100e-10	9.728300e-02	-2.787148e+01
1.860000e-06	6.087595e-08	-3.275560e-10	4.229442e-01	-2.653484e+01
1.870000e-06	1.078012e-07	-3.056861e-10	7.489640e-01	-2.516215e+01
1.880000e-06	1.546671e-07	-2.840353e-10	1.074571e+00	-2.375347e+01
1.890000e-06	2.015231e-07	-2.628278e-10	1.400110e+00	-2.230899e+01
1.900000e-06	2.483452e-07	-2.412825e-10	1.725413e+00	-2.082904e+01
1.910000e-06	2.951020e-07	-2.191815e-10	2.050263e+00	-1.931411e+01
1.920000e-06	3.418443e-07	-1.965211e-10	2.375011e+00	-1.776481e+01
1.930000e-06	3.885957e-07	-1.746681e-10	2.699823e+00	-1.618195e+01
1.940000e-06	4.353458e-07	-1.549093e-10	3.024625e+00	-1.456645e+01
1.950000e-06	4.820526e-07	-1.345312e-10	3.349128e+00	-1.291942e+01
1.960000e-06	5.286712e-07	-1.121178e-10	3.673017e+00	-1.124211e+01
1.970000e-06	5.752260e-07	-9.005259e-11	3.996463e+00	-9.535929e+00
1.980000e-06	6.217179e-07	-6.820486e-11	4.319472e+00	-7.802451e+00
1.990000e-06	6.681552e-07	-4.491194e-11	4.642102e+00	-6.043378e+00
2.000000e-06	7.146109e-07	-1.818798e-11	4.964859e+00	-4.260561e+00
2.010000e-06	7.609442e-07	1.018021e-11	5.286766e+00	-2.455980e+00
2.020000e-06	8.071255e-07	3.738091e-11	5.607617e+00	-6.317381e-01
2.030000e-06	8.533759e-07	6.416625e-11	5.928948e+00	1.209949e+00
2.040000e-06	8.996236e-07	8.908707e-11	6.250261e+00	3.066765e+00
2.050000e-06	9.458037e-07	1.140737e-10	6.571103e+00	4.936310e+00
2.060000e-06	9.919450e-07	1.400601e-10	6.891676e+00	6.816107e+00
2.070000e-06	1.037929e-06	1.677307e-10	7.211158e+00	8.703622e+00
2.080000e-06	1.083823e-06	1.958162e-10	7.530008e+00	1.059628e+01
2.090000e-06	1.129713e-06	2.213417e-10	7.848840e+00	1.249147e+01
2.100000e-06	1.175466e-06	2.475263e-10	8.166717e+00	1.438658e+01
2.110000e-06	1.221102e-06	2.759093e-10	8.483779e+00	1.627900e+01
2.120000e-06	1.266737e-06	3.053806e-10	8.800832e+00	1.816613e+01
2.130000e-06	1.312281e-06	3.345696e-10	9.117255e+00	2.004542e+01
2.140000e-06	1.357696e-06	3.603711e-10	9.432784e+00	2.191437e+01
2.150000e-06	1.403047e-06	3.835972e-10	9.747865e+00	2.377053e+01
2.160000e-06	1.448291e-06	4.046875e-10	1.006220e+01	2.561154e+01
2.170000e-06	1.493425e-06	4.247562e-10	1.037578e+01	2.743515e+01
2.180000e-06	1.538456e-06	4.480943e-10	1.068864e+01	2.923920e+01
2.190000e-06	1.583381e-06	4.763907e-10	1.100076e+01	3.102163e+01
2.200000e-06	1.628123e-06	5.065669e-10	1.131161e+01	3.278054e+01
2.210000e-06	1.672724e-06	5.365961e-10	1.162148e+01	3.451414e+01
2.220000e-06	1.717262e-06	5.645241e-10	1.193091e+01	3.622079e+01
2.230000e-06	1.761608e-06	5.880236e-10	1.223902e+01	3.789899e+01
2.240000e-06	1.805822e-06	6.059743e-10	1.254620e+01	3.954741e+01
2.250000e-06	1.850023e-06	6.206662e-10	1.285330e+01	4.116485e+01
2.260000e-06	1.894161e-06	6.361492e-10	1.315995e+01	4.275028e+01
2.270000e-06	1.938190e-06	6.557750e-10	1.346584e+01	4.430282e+01
2.280000e-06	1.982130e-06	6.797324e-10	1.377112e+01	4.582172e+01
2.290000e-06	2.025986e-06	7.046151e-10	1.407582e+01	4.730643e+01
2.300000e-06	2.069750e-06	7.284264e-10	1.437988e+01	4.875648e+01
2.310000e-06	2.113402e-06	7.490780e-10	1.468315e+01	5.017159e+01
2.320000e-06	2.156951e-06	7.652134e-10	1.498572e+01	5.155159e+01
2.330000e-06	2.200411e-06	7.788101e-10	1.528766e+01	5.289642e+01
2.340000e-06	2.243707e-06	7.928528e-10	1.558847e+01	5.420616e+01
2.350000e-06	2.286773e-06	8.091361e-10	1.588767e+01	5.548098e+01
2.360000e-06	2.329623e-06	8.276354e-10	1.618538e+01	5.672115e+01
2.370000e-06	2.372308e-06	8.465587e-10	1.648194e+01	5.792702e+01
2.380000e-06	2.414815e-06	8.657666e-10	1.677726e+01	5.909901e+01
2.390000e-06	2.456994e-06	8.831907e-10	1.707031e+01	6.023762e+01
2.400000e-06	2.498935e-06	8.988704e-10	1.736170e+01	6.134338e+01
2.410000e-06	2.540625e-06	9.129326e-10	1.765135e+01	6.241688e+01
2.420000e-06	2.581891e-06	9.257299e-10	1.793805e+01	6.345873e+01
2.430000e-06	2.622866e-06	9.363279e-10	1.822273e+01	6.446957e+01
2.440000e-06	2.663617e-06	9.464891e-10	1.850585e+01	6.545005e+01
2.450000e-06	2.704175e-06	9.579567e-10	1.878763e+01	6.640082e+01
2.460000e-06	2.744519e-06	9.709314e-10	1.906793e+01	6.732254e+01
2.470000e-06	2.784686e-06	9.851640e-10	1.934699e+01	6.821583e+01
2.480000e-06	2.824769e-06	9.972299e-10	1.962547e+01	6.908134e+01
2.490000e-06	2.864664e-06	1.006706e-09	1.990265e+01	6.991966e+01
2.500000e-06	2.904415e-06	1.016422e-09	2.017883e+01	7.073138e+01
2.510000e-06	2.944041e-06	1.027047e-09	2.045414e+01	7.151704e+01
2.520000e-06	2.983439e-06	1.037826e-09	2.072786e+01	7.227718e+01
2.530000e-06	3.022583e-06	1.048241e-09	2.099982e+01	7.301230e+01
2.540000e-06	3.061526e-06	1.057065e-09	2.127038e+01	7.372286e+01
2.550000e-06	3.100305e-06	1.063607e-09	2.153980e+01	7.440930e+01
2.560000e-06	3.138856e-06	1.069226e-09	2.180764e+01	7.507205e+01
2.570000e-06	3.177142e-06	1.075045e-09	2.207364e+01	7.571150e+01
2.580000e-06	3.215238e-06	1.082052e-09	2.233832e+01	7.632802e+01
2.590000e-06	3.253134e-06	1.090675e-09	2.260160e+01	7.692199e+01
2.600000e-06	3.290799e-06	1.099581e-09	2.286329e+01	7.749376e+01
2.610000e-06	3.328246e-06	1.109449e-09	2.312345e+01	7.804367e+01
2.620000e-06	3.365428e-06	1.119238e-09	2.338178e+01	7.857208e+01
2.630000e-06	3.402382e-06	1.128298e-09	2.363853e+01	7.907935e+01
2.640000e-06	3.439138e-06	1.136854e-09	2.389389e+01	7.956584e+01
2.650000e-06	3.475613e-06	1.143614e-09	2.414731e+01	8.003195e+01
2.660000e-06	3.511839e-06	1.147278e-09	2.439899e+01	8.047807e+01
2.670000e-06	3.547892e-06	1.149579e-09	2.464948e+01	8.090463e+01
2.680000e-06	3.583791e-06	1.153250e-09	2.489889e+01	8.131209e+01
2.690000e-06	3.619582e-06	1.159716e-09	2.514755e+01	8.170094e+01
2.700000e-06	3.655237e-06	1.168075e-09	2.539527e+01	8.207170e+01
2.710000e-06	3.690606e-06	1.176491e-09	2.564100e+01	8.242493e+01
2.720000e-06	3.725670e-06	1.183845e-09	2.588461e+01	8.276122e+01
2.730000e-06	3.760535e-06	1.189650e-09	2.612684e+01	8.308119e+01
2.740000e-06	3.795038e-06	1.193949e-09	2.636655e+01	8.338550e+01
2.750000e-06	3.828989e-06	1.197990e-09	2.660244e+01	8.367484e+01
2.760000e-06	3.862462e-06	1.200203e-09	2.683500e+01	8.394991e+01
2.770000e-06	3.895549e-06	1.201865e-09	2.706487e+01	8.421147e+01
2.780000e-06	3.928299e-06	1.206096e-09	2.729241e+01	8.446026e+01
2.790000e-06	3.960730e-06	1.213503e-09	2.751773e+01	8.469706e+01
2.800000e-06	3.992876e-06	1.223407e-09	2.774107e+01	8.492264e+01
2.810000e-06	4.024811e-06	1.231123e-09	2.796294e+01	8.513777e+01
2.820000e-06	4.056542e-06	1.235410e-09	2.818339e+01	8.534323e+01
2.830000e-06	4.088062e-06	1.239058e-09	2.840238e+01	8.553976e+01
2.840000e-06	4.119385e-06	1.241116e-09	2.862001e+01	8.572810e+01
2.850000e-06	4.150472e-06	1.240632e-09	2.883598e+01	8.590896e+01
2.860000e-06	4.181281e-06	1.238546e-09	2.905003e+01	8.608299e+01
2.870000e-06	4.211750e-06	1.238290e-09	2.926172e+01	8.625082e+01
2.880000e-06	4.241850e-06	1.242454e-09	2.947085e+01	8.641302e+01
2.890000e-06	4.271696e-06	1.248731e-09	2.967820e+01	8.657012e+01
2.900000e-06	4.301322e-06	1.256213e-09	2.988404e+01	8.672256e+01
