# Temperatura_=_-17.5
# Concentracion g/m^3_=_1620.0
# C_Vs_to_Am_M_A/Vsm_=_65563218390.804596
# pendiente_HvsI_1/m_=_3716.3
# ordenada_HvsI_A/m_=_1297.0
# frecuencia_Hz_=_135108.35304661508

Tiempo_(s)	Campo_(V.s)	Magnetizacion_(V.s)	Campo_(kA/m)	Magnetizacion_(A/m)
0.000000e+00	-5.520944e-06	-8.979317e-10	-3.836701e+01	-5.922495e+01
1.000000e-08	-5.521091e-06	-8.905883e-10	-3.836803e+01	-5.920259e+01
2.000000e-08	-5.520972e-06	-8.881406e-10	-3.836720e+01	-5.918552e+01
3.000000e-08	-5.520340e-06	-8.880141e-10	-3.836281e+01	-5.917403e+01
4.000000e-08	-5.519156e-06	-8.879662e-10	-3.835459e+01	-5.916834e+01
5.000000e-08	-5.517534e-06	-8.876385e-10	-3.834331e+01	-5.916860e+01
6.000000e-08	-5.515414e-06	-8.800082e-10	-3.832858e+01	-5.917484e+01
7.000000e-08	-5.512780e-06	-8.785289e-10	-3.831027e+01	-5.918701e+01
8.000000e-08	-5.509574e-06	-9.084992e-10	-3.828799e+01	-5.920497e+01
9.000000e-08	-5.505779e-06	-9.304447e-10	-3.826162e+01	-5.922846e+01
1.000000e-07	-5.501540e-06	-8.934736e-10	-3.823216e+01	-5.925713e+01
1.100000e-07	-5.497046e-06	-8.440843e-10	-3.820093e+01	-5.929053e+01
1.200000e-07	-5.492420e-06	-8.460879e-10	-3.816878e+01	-5.932811e+01
1.300000e-07	-5.487560e-06	-8.868703e-10	-3.813501e+01	-5.936925e+01
1.400000e-07	-5.482274e-06	-8.965758e-10	-3.809828e+01	-5.941323e+01
1.500000e-07	-5.476557e-06	-8.652065e-10	-3.805855e+01	-5.945929e+01
1.600000e-07	-5.470463e-06	-8.736909e-10	-3.801620e+01	-5.950659e+01
1.700000e-07	-5.463927e-06	-8.978669e-10	-3.797078e+01	-5.955426e+01
1.800000e-07	-5.456999e-06	-9.184254e-10	-3.792263e+01	-5.960139e+01
1.900000e-07	-5.449807e-06	-8.799015e-10	-3.787265e+01	-5.964707e+01
2.000000e-07	-5.442334e-06	-8.717764e-10	-3.782072e+01	-5.969036e+01
2.100000e-07	-5.434560e-06	-8.993277e-10	-3.776669e+01	-5.973039e+01
2.200000e-07	-5.426494e-06	-9.375674e-10	-3.771064e+01	-5.976627e+01
2.300000e-07	-5.418079e-06	-9.209478e-10	-3.765216e+01	-5.979718e+01
2.400000e-07	-5.409169e-06	-9.005685e-10	-3.759024e+01	-5.982238e+01
2.500000e-07	-5.399606e-06	-9.085215e-10	-3.752378e+01	-5.984117e+01
2.600000e-07	-5.389397e-06	-9.186442e-10	-3.745284e+01	-5.985297e+01
2.700000e-07	-5.378661e-06	-9.053791e-10	-3.737823e+01	-5.985730e+01
2.800000e-07	-5.367429e-06	-8.949721e-10	-3.730017e+01	-5.985377e+01
2.900000e-07	-5.355812e-06	-9.095071e-10	-3.721944e+01	-5.984213e+01
3.000000e-07	-5.343844e-06	-9.051036e-10	-3.713628e+01	-5.982225e+01
3.100000e-07	-5.331440e-06	-8.966831e-10	-3.705007e+01	-5.979413e+01
3.200000e-07	-5.318582e-06	-8.948980e-10	-3.696072e+01	-5.975789e+01
3.300000e-07	-5.305340e-06	-9.231606e-10	-3.686870e+01	-5.971380e+01
3.400000e-07	-5.291782e-06	-9.155190e-10	-3.677448e+01	-5.966225e+01
3.500000e-07	-5.277834e-06	-9.071829e-10	-3.667755e+01	-5.960372e+01
3.600000e-07	-5.263400e-06	-9.111210e-10	-3.657724e+01	-5.953885e+01
3.700000e-07	-5.248330e-06	-9.214671e-10	-3.647252e+01	-5.946837e+01
3.800000e-07	-5.232620e-06	-8.959733e-10	-3.636334e+01	-5.939307e+01
3.900000e-07	-5.216483e-06	-9.044916e-10	-3.625120e+01	-5.931387e+01
4.000000e-07	-5.200030e-06	-9.228400e-10	-3.613686e+01	-5.923171e+01
4.100000e-07	-5.183250e-06	-9.124481e-10	-3.602025e+01	-5.914760e+01
4.200000e-07	-5.166104e-06	-8.931957e-10	-3.590110e+01	-5.906258e+01
4.300000e-07	-5.148621e-06	-9.186987e-10	-3.577960e+01	-5.897769e+01
4.400000e-07	-5.130914e-06	-9.191757e-10	-3.565655e+01	-5.889400e+01
4.500000e-07	-5.112808e-06	-8.899285e-10	-3.553073e+01	-5.881251e+01
4.600000e-07	-5.094173e-06	-8.940148e-10	-3.540123e+01	-5.873421e+01
4.700000e-07	-5.075147e-06	-9.138342e-10	-3.526901e+01	-5.866004e+01
4.800000e-07	-5.055838e-06	-8.904866e-10	-3.513482e+01	-5.859085e+01
4.900000e-07	-5.036332e-06	-8.843484e-10	-3.499927e+01	-5.852742e+01
5.000000e-07	-5.016687e-06	-9.074789e-10	-3.486274e+01	-5.847043e+01
5.100000e-07	-4.996809e-06	-8.931813e-10	-3.472460e+01	-5.842044e+01
5.200000e-07	-4.976499e-06	-8.731213e-10	-3.458347e+01	-5.837790e+01
5.300000e-07	-4.955762e-06	-9.012093e-10	-3.443936e+01	-5.834315e+01
5.400000e-07	-4.934714e-06	-9.101218e-10	-3.429309e+01	-5.831638e+01
5.500000e-07	-4.913382e-06	-8.808712e-10	-3.414484e+01	-5.829767e+01
5.600000e-07	-4.891713e-06	-8.867073e-10	-3.399426e+01	-5.828695e+01
5.700000e-07	-4.869688e-06	-9.013430e-10	-3.384119e+01	-5.828403e+01
5.800000e-07	-4.847269e-06	-8.814892e-10	-3.368540e+01	-5.828861e+01
5.900000e-07	-4.824520e-06	-8.757494e-10	-3.352731e+01	-5.830027e+01
6.000000e-07	-4.801523e-06	-8.978435e-10	-3.336749e+01	-5.831846e+01
6.100000e-07	-4.778256e-06	-8.886152e-10	-3.320580e+01	-5.834257e+01
6.200000e-07	-4.754723e-06	-8.775720e-10	-3.304227e+01	-5.837188e+01
6.300000e-07	-4.730949e-06	-8.891620e-10	-3.287705e+01	-5.840560e+01
6.400000e-07	-4.706843e-06	-8.911770e-10	-3.270953e+01	-5.844291e+01
6.500000e-07	-4.682290e-06	-8.760957e-10	-3.253890e+01	-5.848292e+01
6.600000e-07	-4.657252e-06	-8.843674e-10	-3.236490e+01	-5.852472e+01
6.700000e-07	-4.631689e-06	-8.918380e-10	-3.218725e+01	-5.856742e+01
6.800000e-07	-4.605603e-06	-8.867328e-10	-3.200598e+01	-5.861010e+01
6.900000e-07	-4.579041e-06	-8.863546e-10	-3.182139e+01	-5.865187e+01
7.000000e-07	-4.552081e-06	-8.938436e-10	-3.163403e+01	-5.869190e+01
7.100000e-07	-4.524814e-06	-8.860391e-10	-3.144454e+01	-5.872938e+01
7.200000e-07	-4.497317e-06	-8.828775e-10	-3.125346e+01	-5.876359e+01
7.300000e-07	-4.469609e-06	-8.859050e-10	-3.106090e+01	-5.879385e+01
7.400000e-07	-4.441680e-06	-8.871254e-10	-3.086682e+01	-5.881959e+01
7.500000e-07	-4.413446e-06	-8.835612e-10	-3.067061e+01	-5.884031e+01
7.600000e-07	-4.384950e-06	-8.858834e-10	-3.047258e+01	-5.885564e+01
7.700000e-07	-4.356192e-06	-8.860061e-10	-3.027273e+01	-5.886526e+01
7.800000e-07	-4.327071e-06	-8.836317e-10	-3.007036e+01	-5.886898e+01
7.900000e-07	-4.297623e-06	-8.832255e-10	-2.986572e+01	-5.886672e+01
8.000000e-07	-4.267897e-06	-8.823192e-10	-2.965913e+01	-5.885846e+01
8.100000e-07	-4.237922e-06	-8.754766e-10	-2.945083e+01	-5.884432e+01
8.200000e-07	-4.207603e-06	-8.722585e-10	-2.924013e+01	-5.882449e+01
8.300000e-07	-4.177028e-06	-8.743530e-10	-2.902766e+01	-5.879922e+01
8.400000e-07	-4.146239e-06	-8.755461e-10	-2.881369e+01	-5.876888e+01
8.500000e-07	-4.115127e-06	-8.790274e-10	-2.859748e+01	-5.873386e+01
8.600000e-07	-4.083770e-06	-8.823283e-10	-2.837957e+01	-5.869464e+01
8.700000e-07	-4.052243e-06	-8.779783e-10	-2.816048e+01	-5.865173e+01
8.800000e-07	-4.020632e-06	-8.698324e-10	-2.794080e+01	-5.860567e+01
8.900000e-07	-3.988835e-06	-8.693741e-10	-2.771984e+01	-5.855702e+01
9.000000e-07	-3.956752e-06	-8.681277e-10	-2.749688e+01	-5.850636e+01
9.100000e-07	-3.924427e-06	-8.670549e-10	-2.727224e+01	-5.845427e+01
9.200000e-07	-3.891753e-06	-8.704126e-10	-2.704518e+01	-5.840130e+01
9.300000e-07	-3.858505e-06	-8.749904e-10	-2.681413e+01	-5.834801e+01
9.400000e-07	-3.824753e-06	-8.702281e-10	-2.657957e+01	-5.829490e+01
9.500000e-07	-3.790518e-06	-8.671351e-10	-2.634166e+01	-5.824245e+01
9.600000e-07	-3.755793e-06	-8.665959e-10	-2.610034e+01	-5.819110e+01
9.700000e-07	-3.720758e-06	-8.641892e-10	-2.585687e+01	-5.814121e+01
9.800000e-07	-3.685472e-06	-8.599531e-10	-2.561166e+01	-5.809311e+01
9.900000e-07	-3.650016e-06	-8.602701e-10	-2.536526e+01	-5.804708e+01
1.000000e-06	-3.614380e-06	-8.574707e-10	-2.511761e+01	-5.800331e+01
1.010000e-06	-3.578545e-06	-8.542581e-10	-2.486858e+01	-5.796196e+01
1.020000e-06	-3.542606e-06	-8.537011e-10	-2.461883e+01	-5.792310e+01
1.030000e-06	-3.506533e-06	-8.551493e-10	-2.436815e+01	-5.788677e+01
1.040000e-06	-3.470242e-06	-8.546412e-10	-2.411595e+01	-5.785294e+01
1.050000e-06	-3.433689e-06	-8.562222e-10	-2.386193e+01	-5.782152e+01
1.060000e-06	-3.396871e-06	-8.573065e-10	-2.360607e+01	-5.779239e+01
1.070000e-06	-3.359778e-06	-8.543272e-10	-2.334829e+01	-5.776537e+01
1.080000e-06	-3.322470e-06	-8.502408e-10	-2.308903e+01	-5.774026e+01
1.090000e-06	-3.284987e-06	-8.500215e-10	-2.282855e+01	-5.771681e+01
1.100000e-06	-3.247214e-06	-8.505798e-10	-2.256605e+01	-5.769475e+01
1.110000e-06	-3.209130e-06	-8.484357e-10	-2.230139e+01	-5.767380e+01
1.120000e-06	-3.170867e-06	-8.466420e-10	-2.203548e+01	-5.765364e+01
1.130000e-06	-3.132380e-06	-8.457859e-10	-2.176802e+01	-5.763396e+01
1.140000e-06	-3.093664e-06	-8.450352e-10	-2.149897e+01	-5.761444e+01
1.150000e-06	-3.054771e-06	-8.465813e-10	-2.122869e+01	-5.759475e+01
1.160000e-06	-3.015677e-06	-8.477861e-10	-2.095701e+01	-5.757458e+01
1.170000e-06	-2.976425e-06	-8.460607e-10	-2.068424e+01	-5.755360e+01
1.180000e-06	-2.936999e-06	-8.455271e-10	-2.041026e+01	-5.753150e+01
1.190000e-06	-2.897469e-06	-8.451914e-10	-2.013555e+01	-5.750798e+01
1.200000e-06	-2.857808e-06	-8.448405e-10	-1.985993e+01	-5.748275e+01
1.210000e-06	-2.817883e-06	-8.427664e-10	-1.958247e+01	-5.745553e+01
1.220000e-06	-2.777788e-06	-8.413597e-10	-1.930384e+01	-5.742604e+01
1.230000e-06	-2.737562e-06	-8.411656e-10	-1.902429e+01	-5.739401e+01
1.240000e-06	-2.697135e-06	-8.410148e-10	-1.874335e+01	-5.735919e+01
1.250000e-06	-2.656456e-06	-8.406740e-10	-1.846066e+01	-5.732131e+01
1.260000e-06	-2.615499e-06	-8.421644e-10	-1.817603e+01	-5.728012e+01
1.270000e-06	-2.574356e-06	-8.410384e-10	-1.789012e+01	-5.723536e+01
1.280000e-06	-2.532961e-06	-8.388720e-10	-1.760245e+01	-5.718678e+01
1.290000e-06	-2.491272e-06	-8.361686e-10	-1.731273e+01	-5.713411e+01
1.300000e-06	-2.449276e-06	-8.336968e-10	-1.702089e+01	-5.707708e+01
1.310000e-06	-2.406901e-06	-8.292797e-10	-1.672641e+01	-5.701540e+01
1.320000e-06	-2.364158e-06	-8.262237e-10	-1.642938e+01	-5.694878e+01
1.330000e-06	-2.321154e-06	-8.239268e-10	-1.613053e+01	-5.687690e+01
1.340000e-06	-2.278036e-06	-8.218443e-10	-1.583088e+01	-5.679944e+01
1.350000e-06	-2.234760e-06	-8.232219e-10	-1.553015e+01	-5.671605e+01
1.360000e-06	-2.191345e-06	-8.268048e-10	-1.522844e+01	-5.662638e+01
1.370000e-06	-2.147870e-06	-8.272611e-10	-1.492631e+01	-5.653006e+01
1.380000e-06	-2.104317e-06	-8.239026e-10	-1.462365e+01	-5.642668e+01
1.390000e-06	-2.060649e-06	-8.197445e-10	-1.432018e+01	-5.631585e+01
1.400000e-06	-2.016850e-06	-8.152604e-10	-1.401581e+01	-5.619715e+01
1.410000e-06	-1.972985e-06	-8.097793e-10	-1.371097e+01	-5.607014e+01
1.420000e-06	-1.929067e-06	-8.044719e-10	-1.340577e+01	-5.593439e+01
1.430000e-06	-1.885067e-06	-8.023140e-10	-1.310000e+01	-5.578946e+01
1.440000e-06	-1.840942e-06	-8.006590e-10	-1.279336e+01	-5.563489e+01
1.450000e-06	-1.796650e-06	-7.985944e-10	-1.248556e+01	-5.547024e+01
1.460000e-06	-1.752255e-06	-7.955536e-10	-1.217704e+01	-5.529506e+01
1.470000e-06	-1.707777e-06	-7.898245e-10	-1.186795e+01	-5.510890e+01
1.480000e-06	-1.663120e-06	-7.816717e-10	-1.155761e+01	-5.491132e+01
1.490000e-06	-1.618276e-06	-7.736128e-10	-1.124598e+01	-5.470190e+01
1.500000e-06	-1.573326e-06	-7.659378e-10	-1.093360e+01	-5.448020e+01
1.510000e-06	-1.528274e-06	-7.608790e-10	-1.062052e+01	-5.424580e+01
1.520000e-06	-1.483047e-06	-7.588510e-10	-1.030623e+01	-5.399831e+01
1.530000e-06	-1.437727e-06	-7.590629e-10	-9.991278e+00	-5.373731e+01
1.540000e-06	-1.392343e-06	-7.585454e-10	-9.675889e+00	-5.346241e+01
1.550000e-06	-1.346834e-06	-7.550259e-10	-9.359628e+00	-5.317323e+01
1.560000e-06	-1.301290e-06	-7.493235e-10	-9.043131e+00	-5.286938e+01
1.570000e-06	-1.255749e-06	-7.435465e-10	-8.726650e+00	-5.255048e+01
1.580000e-06	-1.210127e-06	-7.375202e-10	-8.409602e+00	-5.221613e+01
1.590000e-06	-1.164390e-06	-7.316073e-10	-8.091759e+00	-5.186593e+01
1.600000e-06	-1.118582e-06	-7.266755e-10	-7.773423e+00	-5.149949e+01
1.610000e-06	-1.072659e-06	-7.216938e-10	-7.454291e+00	-5.111637e+01
1.620000e-06	-1.026630e-06	-7.169961e-10	-7.134420e+00	-5.071613e+01
1.630000e-06	-9.805564e-07	-7.115218e-10	-6.814236e+00	-5.029831e+01
1.640000e-06	-9.344365e-07	-7.031570e-10	-6.493732e+00	-4.986240e+01
1.650000e-06	-8.882015e-07	-6.927878e-10	-6.172429e+00	-4.940788e+01
1.660000e-06	-8.418597e-07	-6.843586e-10	-5.850383e+00	-4.893419e+01
1.670000e-06	-7.954994e-07	-6.775980e-10	-5.528209e+00	-4.844072e+01
1.680000e-06	-7.491131e-07	-6.689138e-10	-5.205854e+00	-4.792682e+01
1.690000e-06	-7.026513e-07	-6.601004e-10	-4.882974e+00	-4.739182e+01
1.700000e-06	-6.561011e-07	-6.487203e-10	-4.559480e+00	-4.683499e+01
1.710000e-06	-6.095595e-07	-6.379078e-10	-4.236046e+00	-4.625557e+01
1.720000e-06	-5.629856e-07	-6.290462e-10	-3.912387e+00	-4.565275e+01
1.730000e-06	-5.163510e-07	-6.184514e-10	-3.588307e+00	-4.502569e+01
1.740000e-06	-4.696589e-07	-6.090321e-10	-3.263827e+00	-4.437352e+01
1.750000e-06	-4.229777e-07	-6.006924e-10	-2.939423e+00	-4.369535e+01
1.760000e-06	-3.762693e-07	-5.902870e-10	-2.614829e+00	-4.299026e+01
1.770000e-06	-3.294450e-07	-5.792362e-10	-2.289431e+00	-4.225734e+01
1.780000e-06	-2.825388e-07	-5.681595e-10	-1.963463e+00	-4.149565e+01
1.790000e-06	-2.355863e-07	-5.565925e-10	-1.637173e+00	-4.070429e+01
1.800000e-06	-1.886606e-07	-5.447411e-10	-1.311070e+00	-3.988236e+01
1.810000e-06	-1.417171e-07	-5.328916e-10	-9.848424e-01	-3.902900e+01
1.820000e-06	-9.483321e-08	-5.209282e-10	-6.590297e-01	-3.814338e+01
1.830000e-06	-4.806007e-08	-5.081562e-10	-3.339865e-01	-3.722475e+01
1.840000e-06	-1.243477e-09	-4.960665e-10	-8.641365e-03	-3.627239e+01
1.850000e-06	4.568233e-08	-4.833274e-10	3.174628e-01	-3.528571e+01
1.860000e-06	9.262352e-08	-4.680997e-10	6.436738e-01	-3.426418e+01
1.870000e-06	1.395372e-07	-4.504598e-10	9.696940e-01	-3.320738e+01
1.880000e-06	1.864737e-07	-4.328890e-10	1.295872e+00	-3.211502e+01
1.890000e-06	2.334180e-07	-4.154958e-10	1.622105e+00	-3.098693e+01
1.900000e-06	2.802958e-07	-3.983207e-10	1.947875e+00	-2.982306e+01
1.910000e-06	3.271659e-07	-3.814811e-10	2.273593e+00	-2.862355e+01
1.920000e-06	3.740656e-07	-3.632450e-10	2.599515e+00	-2.738864e+01
1.930000e-06	4.208531e-07	-3.445479e-10	2.924658e+00	-2.611876e+01
1.940000e-06	4.675262e-07	-3.260593e-10	3.249006e+00	-2.481451e+01
1.950000e-06	5.141289e-07	-3.052384e-10	3.572865e+00	-2.347663e+01
1.960000e-06	5.605855e-07	-2.841713e-10	3.895709e+00	-2.210605e+01
1.970000e-06	6.069429e-07	-2.652720e-10	4.217863e+00	-2.070385e+01
1.980000e-06	6.532532e-07	-2.484205e-10	4.539689e+00	-1.927128e+01
1.990000e-06	6.995227e-07	-2.303816e-10	4.861232e+00	-1.780974e+01
2.000000e-06	7.458361e-07	-2.092138e-10	5.183081e+00	-1.632080e+01
2.010000e-06	7.921728e-07	-1.860210e-10	5.505091e+00	-1.480616e+01
2.020000e-06	8.384798e-07	-1.620650e-10	5.826895e+00	-1.326768e+01
2.030000e-06	8.847123e-07	-1.378137e-10	6.148181e+00	-1.170730e+01
2.040000e-06	9.308490e-07	-1.150078e-10	6.468801e+00	-1.012713e+01
2.050000e-06	9.769111e-07	-9.422733e-11	6.788903e+00	-8.529346e+00
2.060000e-06	1.022893e-06	-7.378780e-11	7.108445e+00	-6.916222e+00
2.070000e-06	1.068813e-06	-5.197988e-11	7.427559e+00	-5.290107e+00
2.080000e-06	1.114630e-06	-2.962486e-11	7.745959e+00	-3.653408e+00
2.090000e-06	1.160353e-06	-5.977214e-12	8.063706e+00	-2.008577e+00
2.100000e-06	1.206051e-06	2.087563e-11	8.381279e+00	-3.580925e-01
2.110000e-06	1.251684e-06	4.801344e-11	8.698396e+00	1.295553e+00
2.120000e-06	1.297184e-06	7.215278e-11	9.014596e+00	2.949870e+00
2.130000e-06	1.342552e-06	9.251166e-11	9.329875e+00	4.602387e+00
2.140000e-06	1.387888e-06	1.107636e-10	9.644931e+00	6.250663e+00
2.150000e-06	1.433203e-06	1.298508e-10	9.959835e+00	7.892303e+00
2.160000e-06	1.478398e-06	1.508159e-10	1.027391e+01	9.524971e+00
2.170000e-06	1.523541e-06	1.733805e-10	1.058763e+01	1.114640e+01
2.180000e-06	1.568545e-06	1.977069e-10	1.090038e+01	1.275441e+01
2.190000e-06	1.613371e-06	2.218068e-10	1.121189e+01	1.434690e+01
2.200000e-06	1.658067e-06	2.450389e-10	1.152250e+01	1.592188e+01
2.210000e-06	1.702627e-06	2.658613e-10	1.183216e+01	1.747746e+01
2.220000e-06	1.747051e-06	2.853946e-10	1.214088e+01	1.901187e+01
2.230000e-06	1.791287e-06	3.052341e-10	1.244829e+01	2.052345e+01
2.240000e-06	1.835401e-06	3.238127e-10	1.275485e+01	2.201067e+01
2.250000e-06	1.879392e-06	3.406123e-10	1.306057e+01	2.347212e+01
2.260000e-06	1.923238e-06	3.576105e-10	1.336527e+01	2.490651e+01
2.270000e-06	1.967039e-06	3.761393e-10	1.366966e+01	2.631269e+01
2.280000e-06	2.010812e-06	3.956108e-10	1.397385e+01	2.768963e+01
2.290000e-06	2.054508e-06	4.140916e-10	1.427751e+01	2.903641e+01
2.300000e-06	2.098151e-06	4.315578e-10	1.458080e+01	3.035224e+01
2.310000e-06	2.141759e-06	4.475712e-10	1.488384e+01	3.163646e+01
2.320000e-06	2.185310e-06	4.627733e-10	1.518650e+01	3.288851e+01
2.330000e-06	2.228756e-06	4.792578e-10	1.548842e+01	3.410795e+01
2.340000e-06	2.272014e-06	4.965974e-10	1.578904e+01	3.529442e+01
2.350000e-06	2.315092e-06	5.133910e-10	1.608840e+01	3.644770e+01
2.360000e-06	2.358058e-06	5.310493e-10	1.638698e+01	3.756762e+01
2.370000e-06	2.400802e-06	5.459995e-10	1.668403e+01	3.865414e+01
2.380000e-06	2.443221e-06	5.569654e-10	1.697881e+01	3.970727e+01
2.390000e-06	2.485218e-06	5.688038e-10	1.727066e+01	4.072711e+01
2.400000e-06	2.526786e-06	5.807257e-10	1.755954e+01	4.171384e+01
2.410000e-06	2.568084e-06	5.933844e-10	1.784653e+01	4.266770e+01
2.420000e-06	2.609112e-06	6.058013e-10	1.813165e+01	4.358897e+01
2.430000e-06	2.649824e-06	6.183971e-10	1.841457e+01	4.447802e+01
2.440000e-06	2.690302e-06	6.313700e-10	1.869587e+01	4.533525e+01
2.450000e-06	2.730592e-06	6.446931e-10	1.897586e+01	4.616112e+01
2.460000e-06	2.770695e-06	6.574481e-10	1.925454e+01	4.695610e+01
2.470000e-06	2.810658e-06	6.667885e-10	1.953226e+01	4.772074e+01
2.480000e-06	2.850504e-06	6.727173e-10	1.980917e+01	4.845560e+01
2.490000e-06	2.890183e-06	6.797635e-10	2.008491e+01	4.916128e+01
2.500000e-06	2.929728e-06	6.886099e-10	2.035972e+01	4.983838e+01
2.510000e-06	2.969179e-06	6.984610e-10	2.063389e+01	5.048757e+01
2.520000e-06	3.008475e-06	7.091781e-10	2.090696e+01	5.110950e+01
2.530000e-06	3.047565e-06	7.194602e-10	2.117862e+01	5.170487e+01
2.540000e-06	3.086434e-06	7.285554e-10	2.144873e+01	5.227438e+01
2.550000e-06	3.125064e-06	7.359656e-10	2.171719e+01	5.281873e+01
2.560000e-06	3.163421e-06	7.411857e-10	2.198374e+01	5.333867e+01
2.570000e-06	3.201508e-06	7.460629e-10	2.224842e+01	5.383492e+01
2.580000e-06	3.239366e-06	7.525092e-10	2.251151e+01	5.430824e+01
2.590000e-06	3.277061e-06	7.593715e-10	2.277346e+01	5.475938e+01
2.600000e-06	3.314617e-06	7.662751e-10	2.303445e+01	5.518909e+01
2.610000e-06	3.351967e-06	7.755056e-10	2.329401e+01	5.559814e+01
2.620000e-06	3.389068e-06	7.853539e-10	2.355184e+01	5.598728e+01
2.630000e-06	3.425971e-06	7.935239e-10	2.380829e+01	5.635727e+01
2.640000e-06	3.462551e-06	8.007038e-10	2.406250e+01	5.670888e+01
2.650000e-06	3.498779e-06	8.049440e-10	2.431426e+01	5.704284e+01
2.660000e-06	3.534833e-06	8.074086e-10	2.456482e+01	5.735991e+01
2.670000e-06	3.570695e-06	8.101376e-10	2.481403e+01	5.766082e+01
2.680000e-06	3.606438e-06	8.125923e-10	2.506243e+01	5.794630e+01
2.690000e-06	3.642109e-06	8.163961e-10	2.531031e+01	5.821705e+01
2.700000e-06	3.677626e-06	8.227272e-10	2.555713e+01	5.847379e+01
2.710000e-06	3.713035e-06	8.305909e-10	2.580320e+01	5.871719e+01
2.720000e-06	3.748291e-06	8.378721e-10	2.604821e+01	5.894792e+01
2.730000e-06	3.783118e-06	8.428540e-10	2.629024e+01	5.916662e+01
2.740000e-06	3.817434e-06	8.474867e-10	2.652871e+01	5.937391e+01
2.750000e-06	3.851308e-06	8.485466e-10	2.676411e+01	5.957039e+01
2.760000e-06	3.884644e-06	8.478978e-10	2.699577e+01	5.975664e+01
2.770000e-06	3.917442e-06	8.503430e-10	2.722370e+01	5.993321e+01
2.780000e-06	3.949870e-06	8.556985e-10	2.744905e+01	6.010060e+01
2.790000e-06	3.982026e-06	8.626802e-10	2.767252e+01	6.025930e+01
2.800000e-06	4.013918e-06	8.688111e-10	2.789414e+01	6.040978e+01
2.810000e-06	4.045652e-06	8.707596e-10	2.811468e+01	6.055245e+01
2.820000e-06	4.077276e-06	8.709895e-10	2.833444e+01	6.068770e+01
2.830000e-06	4.108739e-06	8.701773e-10	2.855309e+01	6.081589e+01
2.840000e-06	4.139983e-06	8.684276e-10	2.877022e+01	6.093734e+01
2.850000e-06	4.170871e-06	8.674292e-10	2.898487e+01	6.105233e+01
2.860000e-06	4.201392e-06	8.695523e-10	2.919697e+01	6.116112e+01
2.870000e-06	4.231632e-06	8.736053e-10	2.940712e+01	6.126393e+01
2.880000e-06	4.261521e-06	8.759659e-10	2.961483e+01	6.136093e+01
2.890000e-06	4.291093e-06	8.769820e-10	2.982034e+01	6.145228e+01
2.900000e-06	4.320460e-06	8.752703e-10	3.002442e+01	6.153809e+01
