# Temperatura_=_-6.7
# Concentracion g/m^3_=_1620.0
# C_Vs_to_Am_M_A/Vsm_=_65563218390.804596
# pendiente_HvsI_1/m_=_3716.3
# ordenada_HvsI_A/m_=_1297.0
# frecuencia_Hz_=_135101.92169335924

Tiempo_(s)	Campo_(V.s)	Magnetizacion_(V.s)	Campo_(kA/m)	Magnetizacion_(A/m)
0.000000e+00	-5.519548e-06	-1.306894e-09	-3.837220e+01	-8.382121e+01
1.000000e-08	-5.519597e-06	-1.304322e-09	-3.837254e+01	-8.374823e+01
2.000000e-08	-5.519383e-06	-1.304042e-09	-3.837105e+01	-8.367436e+01
3.000000e-08	-5.518709e-06	-1.302741e-09	-3.836636e+01	-8.359972e+01
4.000000e-08	-5.517514e-06	-1.302016e-09	-3.835805e+01	-8.352446e+01
5.000000e-08	-5.515793e-06	-1.312155e-09	-3.834609e+01	-8.344871e+01
6.000000e-08	-5.513538e-06	-1.328825e-09	-3.833042e+01	-8.337262e+01
7.000000e-08	-5.510755e-06	-1.317052e-09	-3.831107e+01	-8.329633e+01
8.000000e-08	-5.507435e-06	-1.257296e-09	-3.828799e+01	-8.321996e+01
9.000000e-08	-5.503717e-06	-1.226689e-09	-3.826214e+01	-8.314364e+01
1.000000e-07	-5.499711e-06	-1.273690e-09	-3.823429e+01	-8.306749e+01
1.100000e-07	-5.495411e-06	-1.357524e-09	-3.820439e+01	-8.299160e+01
1.200000e-07	-5.490754e-06	-1.315370e-09	-3.817202e+01	-8.291606e+01
1.300000e-07	-5.485762e-06	-1.234255e-09	-3.813732e+01	-8.284094e+01
1.400000e-07	-5.480444e-06	-1.267618e-09	-3.810035e+01	-8.276630e+01
1.500000e-07	-5.474723e-06	-1.353931e-09	-3.806057e+01	-8.269217e+01
1.600000e-07	-5.468559e-06	-1.343036e-09	-3.801772e+01	-8.261859e+01
1.700000e-07	-5.461990e-06	-1.228688e-09	-3.797205e+01	-8.254556e+01
1.800000e-07	-5.455126e-06	-1.242161e-09	-3.792433e+01	-8.247306e+01
1.900000e-07	-5.447958e-06	-1.309068e-09	-3.787450e+01	-8.240106e+01
2.000000e-07	-5.440365e-06	-1.307502e-09	-3.782171e+01	-8.232954e+01
2.100000e-07	-5.432451e-06	-1.233240e-09	-3.776669e+01	-8.225843e+01
2.200000e-07	-5.424316e-06	-1.233162e-09	-3.771014e+01	-8.218765e+01
2.300000e-07	-5.415786e-06	-1.264655e-09	-3.765084e+01	-8.211714e+01
2.400000e-07	-5.406648e-06	-1.252073e-09	-3.758731e+01	-8.204680e+01
2.500000e-07	-5.396951e-06	-1.215240e-09	-3.751990e+01	-8.197652e+01
2.600000e-07	-5.386714e-06	-1.220890e-09	-3.744873e+01	-8.190621e+01
2.700000e-07	-5.375836e-06	-1.248888e-09	-3.737310e+01	-8.183575e+01
2.800000e-07	-5.364504e-06	-1.244912e-09	-3.729432e+01	-8.176502e+01
2.900000e-07	-5.352755e-06	-1.226814e-09	-3.721265e+01	-8.169390e+01
3.000000e-07	-5.340524e-06	-1.225676e-09	-3.712761e+01	-8.162228e+01
3.100000e-07	-5.327938e-06	-1.245779e-09	-3.704011e+01	-8.155003e+01
3.200000e-07	-5.315044e-06	-1.241645e-09	-3.695048e+01	-8.147703e+01
3.300000e-07	-5.301779e-06	-1.227652e-09	-3.685826e+01	-8.140316e+01
3.400000e-07	-5.288034e-06	-1.223444e-09	-3.676270e+01	-8.132831e+01
3.500000e-07	-5.273855e-06	-1.244947e-09	-3.666413e+01	-8.125236e+01
3.600000e-07	-5.259297e-06	-1.247071e-09	-3.656292e+01	-8.117520e+01
3.700000e-07	-5.244228e-06	-1.232235e-09	-3.645816e+01	-8.109674e+01
3.800000e-07	-5.228650e-06	-1.228011e-09	-3.634986e+01	-8.101687e+01
3.900000e-07	-5.212657e-06	-1.233371e-09	-3.623868e+01	-8.093549e+01
4.000000e-07	-5.196256e-06	-1.202757e-09	-3.612466e+01	-8.085251e+01
4.100000e-07	-5.179440e-06	-1.204933e-09	-3.600775e+01	-8.076786e+01
4.200000e-07	-5.162285e-06	-1.245433e-09	-3.588848e+01	-8.068144e+01
4.300000e-07	-5.144873e-06	-1.243982e-09	-3.576744e+01	-8.059319e+01
4.400000e-07	-5.127061e-06	-1.199166e-09	-3.564361e+01	-8.050303e+01
4.500000e-07	-5.108749e-06	-1.226172e-09	-3.551630e+01	-8.041091e+01
4.600000e-07	-5.090071e-06	-1.254685e-09	-3.538645e+01	-8.031676e+01
4.700000e-07	-5.071061e-06	-1.205402e-09	-3.525429e+01	-8.022053e+01
4.800000e-07	-5.051692e-06	-1.179690e-09	-3.511964e+01	-8.012217e+01
4.900000e-07	-5.032057e-06	-1.223533e-09	-3.498313e+01	-8.002164e+01
5.000000e-07	-5.012214e-06	-1.217670e-09	-3.484519e+01	-7.991891e+01
5.100000e-07	-4.992125e-06	-1.188684e-09	-3.470552e+01	-7.981395e+01
5.200000e-07	-4.971754e-06	-1.219969e-09	-3.456390e+01	-7.970674e+01
5.300000e-07	-4.951092e-06	-1.225127e-09	-3.442026e+01	-7.959725e+01
5.400000e-07	-4.930018e-06	-1.174624e-09	-3.427375e+01	-7.948549e+01
5.500000e-07	-4.908557e-06	-1.189990e-09	-3.412456e+01	-7.937145e+01
5.600000e-07	-4.886801e-06	-1.229406e-09	-3.397331e+01	-7.925514e+01
5.700000e-07	-4.864685e-06	-1.189636e-09	-3.381956e+01	-7.913657e+01
5.800000e-07	-4.842168e-06	-1.163728e-09	-3.366301e+01	-7.901576e+01
5.900000e-07	-4.819304e-06	-1.195283e-09	-3.350406e+01	-7.889274e+01
6.000000e-07	-4.796194e-06	-1.187329e-09	-3.334340e+01	-7.876754e+01
6.100000e-07	-4.772836e-06	-1.153748e-09	-3.318101e+01	-7.864020e+01
6.200000e-07	-4.749197e-06	-1.174356e-09	-3.301668e+01	-7.851078e+01
6.300000e-07	-4.725251e-06	-1.189451e-09	-3.285020e+01	-7.837931e+01
6.400000e-07	-4.700946e-06	-1.168076e-09	-3.268123e+01	-7.824586e+01
6.500000e-07	-4.676274e-06	-1.167283e-09	-3.250971e+01	-7.811048e+01
6.600000e-07	-4.651274e-06	-1.182069e-09	-3.233591e+01	-7.797323e+01
6.700000e-07	-4.625762e-06	-1.165238e-09	-3.215855e+01	-7.783418e+01
6.800000e-07	-4.599591e-06	-1.151458e-09	-3.197661e+01	-7.769338e+01
6.900000e-07	-4.572937e-06	-1.158796e-09	-3.179131e+01	-7.755088e+01
7.000000e-07	-4.545972e-06	-1.160845e-09	-3.160384e+01	-7.740675e+01
7.100000e-07	-4.518760e-06	-1.150717e-09	-3.141466e+01	-7.726102e+01
7.200000e-07	-4.491283e-06	-1.157560e-09	-3.122364e+01	-7.711375e+01
7.300000e-07	-4.463534e-06	-1.162878e-09	-3.103073e+01	-7.696496e+01
7.400000e-07	-4.435509e-06	-1.152638e-09	-3.083590e+01	-7.681467e+01
7.500000e-07	-4.407267e-06	-1.140186e-09	-3.063956e+01	-7.666291e+01
7.600000e-07	-4.378837e-06	-1.142334e-09	-3.044191e+01	-7.650967e+01
7.700000e-07	-4.350066e-06	-1.141312e-09	-3.024190e+01	-7.635494e+01
7.800000e-07	-4.320965e-06	-1.134120e-09	-3.003958e+01	-7.619870e+01
7.900000e-07	-4.291509e-06	-1.131062e-09	-2.983480e+01	-7.604091e+01
8.000000e-07	-4.261699e-06	-1.130551e-09	-2.962756e+01	-7.588154e+01
8.100000e-07	-4.231619e-06	-1.122012e-09	-2.941845e+01	-7.572051e+01
8.200000e-07	-4.201288e-06	-1.111801e-09	-2.920758e+01	-7.555775e+01
8.300000e-07	-4.170700e-06	-1.106762e-09	-2.899494e+01	-7.539319e+01
8.400000e-07	-4.139756e-06	-1.106108e-09	-2.877981e+01	-7.522674e+01
8.500000e-07	-4.108559e-06	-1.110057e-09	-2.856293e+01	-7.505829e+01
8.600000e-07	-4.077227e-06	-1.112075e-09	-2.834510e+01	-7.488774e+01
8.700000e-07	-4.045691e-06	-1.104884e-09	-2.812586e+01	-7.471498e+01
8.800000e-07	-4.013962e-06	-1.093667e-09	-2.790528e+01	-7.453991e+01
8.900000e-07	-3.982043e-06	-1.085804e-09	-2.768338e+01	-7.436241e+01
9.000000e-07	-3.949830e-06	-1.080158e-09	-2.745943e+01	-7.418238e+01
9.100000e-07	-3.917250e-06	-1.078317e-09	-2.723293e+01	-7.399972e+01
9.200000e-07	-3.884254e-06	-1.079424e-09	-2.700354e+01	-7.381433e+01
9.300000e-07	-3.850874e-06	-1.080217e-09	-2.677149e+01	-7.362614e+01
9.400000e-07	-3.817098e-06	-1.078836e-09	-2.653667e+01	-7.343506e+01
9.500000e-07	-3.782766e-06	-1.077840e-09	-2.629799e+01	-7.324105e+01
9.600000e-07	-3.747948e-06	-1.071131e-09	-2.605594e+01	-7.304406e+01
9.700000e-07	-3.712853e-06	-1.063002e-09	-2.581195e+01	-7.284407e+01
9.800000e-07	-3.677497e-06	-1.055956e-09	-2.556616e+01	-7.264106e+01
9.900000e-07	-3.641989e-06	-1.050707e-09	-2.531931e+01	-7.243505e+01
1.000000e-06	-3.606378e-06	-1.040585e-09	-2.507173e+01	-7.222605e+01
1.010000e-06	-3.570578e-06	-1.037089e-09	-2.482285e+01	-7.201412e+01
1.020000e-06	-3.534614e-06	-1.039704e-09	-2.457283e+01	-7.179932e+01
1.030000e-06	-3.498532e-06	-1.039839e-09	-2.432198e+01	-7.158170e+01
1.040000e-06	-3.462183e-06	-1.036250e-09	-2.406928e+01	-7.136136e+01
1.050000e-06	-3.425506e-06	-1.031150e-09	-2.381430e+01	-7.113840e+01
1.060000e-06	-3.388583e-06	-1.022478e-09	-2.355761e+01	-7.091291e+01
1.070000e-06	-3.351379e-06	-1.011933e-09	-2.329897e+01	-7.068499e+01
1.080000e-06	-3.313968e-06	-1.004657e-09	-2.303889e+01	-7.045476e+01
1.090000e-06	-3.276370e-06	-9.996006e-10	-2.277750e+01	-7.022232e+01
1.100000e-06	-3.238480e-06	-9.949773e-10	-2.251409e+01	-6.998775e+01
1.110000e-06	-3.200385e-06	-9.913403e-10	-2.224925e+01	-6.975116e+01
1.120000e-06	-3.162075e-06	-9.888317e-10	-2.198292e+01	-6.951260e+01
1.130000e-06	-3.123577e-06	-9.845768e-10	-2.171527e+01	-6.927214e+01
1.140000e-06	-3.084935e-06	-9.803683e-10	-2.144664e+01	-6.902980e+01
1.150000e-06	-3.046126e-06	-9.786069e-10	-2.117683e+01	-6.878560e+01
1.160000e-06	-3.007164e-06	-9.706423e-10	-2.090597e+01	-6.853950e+01
1.170000e-06	-2.967932e-06	-9.587419e-10	-2.063322e+01	-6.829147e+01
1.180000e-06	-2.928478e-06	-9.536377e-10	-2.035894e+01	-6.804143e+01
1.190000e-06	-2.888936e-06	-9.516203e-10	-2.008404e+01	-6.778925e+01
1.200000e-06	-2.849271e-06	-9.482589e-10	-1.980829e+01	-6.753480e+01
1.210000e-06	-2.809430e-06	-9.446742e-10	-1.953131e+01	-6.727788e+01
1.220000e-06	-2.769486e-06	-9.445043e-10	-1.925362e+01	-6.701830e+01
1.230000e-06	-2.729362e-06	-9.427476e-10	-1.897467e+01	-6.675580e+01
1.240000e-06	-2.688980e-06	-9.391777e-10	-1.869393e+01	-6.649010e+01
1.250000e-06	-2.648337e-06	-9.373347e-10	-1.841138e+01	-6.622089e+01
1.260000e-06	-2.607528e-06	-9.337940e-10	-1.812767e+01	-6.594786e+01
1.270000e-06	-2.566555e-06	-9.259990e-10	-1.784283e+01	-6.567064e+01
1.280000e-06	-2.525191e-06	-9.171778e-10	-1.755527e+01	-6.538886e+01
1.290000e-06	-2.483416e-06	-9.082292e-10	-1.726484e+01	-6.510213e+01
1.300000e-06	-2.441327e-06	-9.010857e-10	-1.697223e+01	-6.481005e+01
1.310000e-06	-2.398849e-06	-8.943287e-10	-1.667693e+01	-6.451222e+01
1.320000e-06	-2.355994e-06	-8.917675e-10	-1.637900e+01	-6.420823e+01
1.330000e-06	-2.313009e-06	-8.893453e-10	-1.608016e+01	-6.389767e+01
1.340000e-06	-2.269928e-06	-8.857252e-10	-1.578066e+01	-6.358014e+01
1.350000e-06	-2.226635e-06	-8.860951e-10	-1.547969e+01	-6.325524e+01
1.360000e-06	-2.183197e-06	-8.849490e-10	-1.517770e+01	-6.292261e+01
1.370000e-06	-2.139642e-06	-8.774868e-10	-1.487491e+01	-6.258187e+01
1.380000e-06	-2.095937e-06	-8.670037e-10	-1.457106e+01	-6.223268e+01
1.390000e-06	-2.052150e-06	-8.563124e-10	-1.426666e+01	-6.187471e+01
1.400000e-06	-2.008330e-06	-8.464345e-10	-1.396202e+01	-6.150764e+01
1.410000e-06	-1.964486e-06	-8.401261e-10	-1.365722e+01	-6.113119e+01
1.420000e-06	-1.920574e-06	-8.377936e-10	-1.335194e+01	-6.074509e+01
1.430000e-06	-1.876529e-06	-8.379684e-10	-1.304573e+01	-6.034908e+01
1.440000e-06	-1.832366e-06	-8.352649e-10	-1.273871e+01	-5.994292e+01
1.450000e-06	-1.788173e-06	-8.290393e-10	-1.243147e+01	-5.952639e+01
1.460000e-06	-1.743868e-06	-8.182087e-10	-1.212346e+01	-5.909926e+01
1.470000e-06	-1.699407e-06	-8.044566e-10	-1.181437e+01	-5.866131e+01
1.480000e-06	-1.654782e-06	-7.917049e-10	-1.150413e+01	-5.821234e+01
1.490000e-06	-1.609896e-06	-7.804210e-10	-1.119209e+01	-5.775211e+01
1.500000e-06	-1.564896e-06	-7.698822e-10	-1.087924e+01	-5.728038e+01
1.510000e-06	-1.519865e-06	-7.629136e-10	-1.056618e+01	-5.679689e+01
1.520000e-06	-1.474752e-06	-7.583807e-10	-1.025255e+01	-5.630137e+01
1.530000e-06	-1.429558e-06	-7.517756e-10	-9.938368e+00	-5.579349e+01
1.540000e-06	-1.384207e-06	-7.424265e-10	-9.623080e+00	-5.527290e+01
1.550000e-06	-1.338737e-06	-7.306190e-10	-9.306973e+00	-5.473922e+01
1.560000e-06	-1.293217e-06	-7.191559e-10	-8.990512e+00	-5.419199e+01
1.570000e-06	-1.247603e-06	-7.092361e-10	-8.673404e+00	-5.363072e+01
1.580000e-06	-1.201897e-06	-6.989427e-10	-8.355651e+00	-5.305487e+01
1.590000e-06	-1.156108e-06	-6.904099e-10	-8.037329e+00	-5.246381e+01
1.600000e-06	-1.110264e-06	-6.829736e-10	-7.718616e+00	-5.185688e+01
1.610000e-06	-1.064350e-06	-6.759149e-10	-7.399420e+00	-5.123335e+01
1.620000e-06	-1.018421e-06	-6.700595e-10	-7.080120e+00	-5.059241e+01
1.630000e-06	-9.724130e-07	-6.652978e-10	-6.760268e+00	-4.993321e+01
1.640000e-06	-9.262771e-07	-6.578950e-10	-6.439529e+00	-4.925484e+01
1.650000e-06	-8.800603e-07	-6.466817e-10	-6.118227e+00	-4.855633e+01
1.660000e-06	-8.337876e-07	-6.334403e-10	-5.796537e+00	-4.783666e+01
1.670000e-06	-7.874678e-07	-6.195034e-10	-5.474519e+00	-4.709477e+01
1.680000e-06	-7.411305e-07	-6.058533e-10	-5.152379e+00	-4.632957e+01
1.690000e-06	-6.948477e-07	-5.917189e-10	-4.830619e+00	-4.553992e+01
1.700000e-06	-6.484708e-07	-5.765848e-10	-4.508204e+00	-4.472468e+01
1.710000e-06	-6.019456e-07	-5.654861e-10	-4.184758e+00	-4.388271e+01
1.720000e-06	-5.553650e-07	-5.564768e-10	-3.860928e+00	-4.301285e+01
1.730000e-06	-5.088001e-07	-5.439282e-10	-3.537206e+00	-4.211397e+01
1.740000e-06	-4.622036e-07	-5.310443e-10	-3.213264e+00	-4.118496e+01
1.750000e-06	-4.155378e-07	-5.162525e-10	-2.888841e+00	-4.022475e+01
1.760000e-06	-3.688099e-07	-4.988967e-10	-2.563986e+00	-3.923231e+01
1.770000e-06	-3.219588e-07	-4.783555e-10	-2.238275e+00	-3.820668e+01
1.780000e-06	-2.750680e-07	-4.569366e-10	-1.912288e+00	-3.714699e+01
1.790000e-06	-2.282177e-07	-4.391164e-10	-1.586582e+00	-3.605241e+01
1.800000e-06	-1.812995e-07	-4.259733e-10	-1.260404e+00	-3.492226e+01
1.810000e-06	-1.343857e-07	-4.153192e-10	-9.342569e-01	-3.375593e+01
1.820000e-06	-8.754135e-08	-4.038009e-10	-6.085923e-01	-3.255294e+01
1.830000e-06	-4.069748e-08	-3.889513e-10	-2.829311e-01	-3.131294e+01
1.840000e-06	6.146867e-09	-3.694647e-10	4.273335e-02	-3.003570e+01
1.850000e-06	5.300360e-08	-3.474933e-10	3.684839e-01	-2.872114e+01
1.860000e-06	9.987649e-08	-3.258458e-10	6.943468e-01	-2.736932e+01
1.870000e-06	1.467358e-07	-3.051140e-10	1.020115e+00	-2.598045e+01
1.880000e-06	1.935206e-07	-2.870653e-10	1.345366e+00	-2.455488e+01
1.890000e-06	2.403170e-07	-2.702241e-10	1.670697e+00	-2.309314e+01
1.900000e-06	2.870969e-07	-2.511461e-10	1.995913e+00	-2.159589e+01
1.910000e-06	3.337987e-07	-2.287962e-10	2.320587e+00	-2.006396e+01
1.920000e-06	3.804425e-07	-2.046260e-10	2.644857e+00	-1.849831e+01
1.930000e-06	4.270475e-07	-1.806605e-10	2.968857e+00	-1.690008e+01
1.940000e-06	4.736484e-07	-1.549083e-10	3.292829e+00	-1.527051e+01
1.950000e-06	5.201897e-07	-1.301256e-10	3.616387e+00	-1.361101e+01
1.960000e-06	5.666795e-07	-1.090838e-10	3.939587e+00	-1.192311e+01
1.970000e-06	6.131458e-07	-8.972648e-11	4.262623e+00	-1.020847e+01
1.980000e-06	6.595722e-07	-7.020115e-11	4.585382e+00	-8.468857e+00
1.990000e-06	7.059609e-07	-4.544112e-11	4.907879e+00	-6.706153e+00
2.000000e-06	7.522854e-07	-1.617236e-11	5.229929e+00	-4.922333e+00
2.010000e-06	7.985233e-07	1.289217e-11	5.551378e+00	-3.119461e+00
2.020000e-06	8.447517e-07	4.053281e-11	5.872759e+00	-1.299680e+00
2.030000e-06	8.909516e-07	6.554326e-11	6.193944e+00	5.347995e-01
2.040000e-06	9.370604e-07	8.663035e-11	6.514495e+00	2.381712e+00
2.050000e-06	9.829671e-07	1.064282e-10	6.833641e+00	4.238745e+00
2.060000e-06	1.028748e-06	1.288761e-10	7.151909e+00	6.103550e+00
2.070000e-06	1.074619e-06	1.551180e-10	7.470808e+00	7.973755e+00
2.080000e-06	1.120495e-06	1.842684e-10	7.789739e+00	9.846974e+00
2.090000e-06	1.166299e-06	2.155919e-10	8.108173e+00	1.172082e+01
2.100000e-06	1.212047e-06	2.466349e-10	8.426213e+00	1.359290e+01
2.110000e-06	1.257707e-06	2.746629e-10	8.743644e+00	1.546086e+01
2.120000e-06	1.303195e-06	2.988624e-10	9.059879e+00	1.732237e+01
2.130000e-06	1.348581e-06	3.189795e-10	9.375410e+00	1.917510e+01
2.140000e-06	1.393956e-06	3.361782e-10	9.690855e+00	2.101682e+01
2.150000e-06	1.439215e-06	3.549831e-10	1.000550e+01	2.284531e+01
2.160000e-06	1.484391e-06	3.790537e-10	1.031956e+01	2.465844e+01
2.170000e-06	1.529551e-06	4.053347e-10	1.063352e+01	2.645414e+01
2.180000e-06	1.574574e-06	4.314204e-10	1.094653e+01	2.823041e+01
2.190000e-06	1.619338e-06	4.574009e-10	1.125772e+01	2.998536e+01
2.200000e-06	1.663945e-06	4.828474e-10	1.156784e+01	3.171715e+01
2.210000e-06	1.708491e-06	5.066141e-10	1.187752e+01	3.342409e+01
2.220000e-06	1.752982e-06	5.298936e-10	1.218683e+01	3.510455e+01
2.230000e-06	1.797351e-06	5.524773e-10	1.249528e+01	3.675702e+01
2.240000e-06	1.841570e-06	5.740291e-10	1.280270e+01	3.838013e+01
2.250000e-06	1.885658e-06	5.942804e-10	1.310919e+01	3.997259e+01
2.260000e-06	1.929600e-06	6.131639e-10	1.341469e+01	4.153324e+01
2.270000e-06	1.973475e-06	6.313519e-10	1.371971e+01	4.306107e+01
2.280000e-06	2.017265e-06	6.495062e-10	1.402413e+01	4.455516e+01
2.290000e-06	2.060950e-06	6.691015e-10	1.432783e+01	4.601474e+01
2.300000e-06	2.104548e-06	6.902939e-10	1.463093e+01	4.743915e+01
2.310000e-06	2.148062e-06	7.108506e-10	1.493344e+01	4.882787e+01
2.320000e-06	2.191513e-06	7.296209e-10	1.523552e+01	5.018050e+01
2.330000e-06	2.234880e-06	7.468785e-10	1.553701e+01	5.149677e+01
2.340000e-06	2.278073e-06	7.633310e-10	1.583728e+01	5.277654e+01
2.350000e-06	2.321034e-06	7.794430e-10	1.613595e+01	5.401976e+01
2.360000e-06	2.363756e-06	7.951193e-10	1.643296e+01	5.522651e+01
2.370000e-06	2.406212e-06	8.099489e-10	1.672812e+01	5.639701e+01
2.380000e-06	2.448419e-06	8.244064e-10	1.702154e+01	5.753152e+01
2.390000e-06	2.490353e-06	8.422367e-10	1.731307e+01	5.863047e+01
2.400000e-06	2.532006e-06	8.614251e-10	1.760264e+01	5.969432e+01
2.410000e-06	2.573347e-06	8.784019e-10	1.789005e+01	6.072365e+01
2.420000e-06	2.614349e-06	8.903377e-10	1.817510e+01	6.171910e+01
2.430000e-06	2.655122e-06	8.993231e-10	1.845855e+01	6.268139e+01
2.440000e-06	2.695645e-06	9.066244e-10	1.874027e+01	6.361128e+01
2.450000e-06	2.735892e-06	9.125626e-10	1.902007e+01	6.450959e+01
2.460000e-06	2.775966e-06	9.210484e-10	1.929867e+01	6.537718e+01
2.470000e-06	2.815872e-06	9.329962e-10	1.957609e+01	6.621492e+01
2.480000e-06	2.855611e-06	9.463155e-10	1.985236e+01	6.702374e+01
2.490000e-06	2.895250e-06	9.608811e-10	2.012794e+01	6.780455e+01
2.500000e-06	2.934770e-06	9.741412e-10	2.040268e+01	6.855828e+01
2.510000e-06	2.974178e-06	9.836866e-10	2.067665e+01	6.928583e+01
2.520000e-06	3.013445e-06	9.905409e-10	2.094963e+01	6.998811e+01
2.530000e-06	3.052469e-06	9.960483e-10	2.122093e+01	7.066600e+01
2.540000e-06	3.091224e-06	1.002960e-09	2.149036e+01	7.132037e+01
2.550000e-06	3.129695e-06	1.010608e-09	2.175781e+01	7.195203e+01
2.560000e-06	3.167976e-06	1.019751e-09	2.202394e+01	7.256177e+01
2.570000e-06	3.206118e-06	1.031151e-09	2.228910e+01	7.315034e+01
2.580000e-06	3.243996e-06	1.042249e-09	2.255243e+01	7.371843e+01
2.590000e-06	3.281648e-06	1.050837e-09	2.281420e+01	7.426670e+01
2.600000e-06	3.319217e-06	1.057825e-09	2.307538e+01	7.479577e+01
2.610000e-06	3.356603e-06	1.064005e-09	2.333528e+01	7.530619e+01
2.620000e-06	3.393678e-06	1.068877e-09	2.359303e+01	7.579849e+01
2.630000e-06	3.430444e-06	1.074697e-09	2.384863e+01	7.627313e+01
2.640000e-06	3.466918e-06	1.081099e-09	2.410220e+01	7.673055e+01
2.650000e-06	3.503215e-06	1.086003e-09	2.435454e+01	7.717114e+01
2.660000e-06	3.539314e-06	1.090380e-09	2.460550e+01	7.759528e+01
2.670000e-06	3.575146e-06	1.094391e-09	2.485461e+01	7.800330e+01
2.680000e-06	3.610782e-06	1.099796e-09	2.510235e+01	7.839550e+01
2.690000e-06	3.646342e-06	1.106449e-09	2.534957e+01	7.877220e+01
2.700000e-06	3.681805e-06	1.113141e-09	2.559611e+01	7.913366e+01
2.710000e-06	3.717052e-06	1.120284e-09	2.584115e+01	7.948017e+01
2.720000e-06	3.752046e-06	1.128430e-09	2.608443e+01	7.981201e+01
2.730000e-06	3.786762e-06	1.134951e-09	2.632577e+01	8.012946e+01
2.740000e-06	3.821075e-06	1.137700e-09	2.656432e+01	8.043280e+01
2.750000e-06	3.854926e-06	1.136974e-09	2.679966e+01	8.072236e+01
2.760000e-06	3.888321e-06	1.136407e-09	2.703182e+01	8.099844e+01
2.770000e-06	3.921282e-06	1.136965e-09	2.726096e+01	8.126140e+01
2.780000e-06	3.953853e-06	1.141091e-09	2.748740e+01	8.151161e+01
2.790000e-06	3.986053e-06	1.150165e-09	2.771125e+01	8.174946e+01
2.800000e-06	4.017966e-06	1.159439e-09	2.793312e+01	8.197537e+01
2.810000e-06	4.049680e-06	1.166008e-09	2.815359e+01	8.218979e+01
2.820000e-06	4.081223e-06	1.170391e-09	2.837289e+01	8.239320e+01
2.830000e-06	4.112594e-06	1.172787e-09	2.859098e+01	8.258608e+01
2.840000e-06	4.143763e-06	1.171200e-09	2.880766e+01	8.276896e+01
2.850000e-06	4.174684e-06	1.166486e-09	2.902263e+01	8.294237e+01
2.860000e-06	4.205356e-06	1.164712e-09	2.923586e+01	8.310687e+01
2.870000e-06	4.235654e-06	1.169188e-09	2.944650e+01	8.326300e+01
2.880000e-06	4.265580e-06	1.177733e-09	2.965455e+01	8.341134e+01
2.890000e-06	4.295324e-06	1.187349e-09	2.986132e+01	8.355245e+01
2.900000e-06	4.324742e-06	1.192683e-09	3.006584e+01	8.368688e+01
