# Temperatura_=_5.1
# Concentracion g/m^3_=_1620.0
# C_Vs_to_Am_M_A/Vsm_=_65563218390.804596
# pendiente_HvsI_1/m_=_3716.3
# ordenada_HvsI_A/m_=_1297.0
# frecuencia_Hz_=_135098.61550812997

Tiempo_(s)	Campo_(V.s)	Magnetizacion_(V.s)	Campo_(kA/m)	Magnetizacion_(A/m)
0.000000e+00	-5.560173e-06	-1.552292e-09	-3.837310e+01	-1.006075e+02
1.000000e-08	-5.560376e-06	-1.545251e-09	-3.837450e+01	-1.005154e+02
2.000000e-08	-5.560280e-06	-1.541070e-09	-3.837383e+01	-1.004254e+02
3.000000e-08	-5.559852e-06	-1.542432e-09	-3.837088e+01	-1.003385e+02
4.000000e-08	-5.558920e-06	-1.544375e-09	-3.836445e+01	-1.002559e+02
5.000000e-08	-5.557468e-06	-1.542444e-09	-3.835443e+01	-1.001786e+02
6.000000e-08	-5.555519e-06	-1.533003e-09	-3.834098e+01	-1.001075e+02
7.000000e-08	-5.553069e-06	-1.529999e-09	-3.832407e+01	-1.000436e+02
8.000000e-08	-5.550027e-06	-1.548997e-09	-3.830308e+01	-9.998737e+01
9.000000e-08	-5.546448e-06	-1.575498e-09	-3.827837e+01	-9.993943e+01
1.000000e-07	-5.542477e-06	-1.572627e-09	-3.825097e+01	-9.990011e+01
1.100000e-07	-5.538130e-06	-1.553936e-09	-3.822097e+01	-9.986957e+01
1.200000e-07	-5.533529e-06	-1.487681e-09	-3.818922e+01	-9.984778e+01
1.300000e-07	-5.528719e-06	-1.502511e-09	-3.815602e+01	-9.983449e+01
1.400000e-07	-5.523537e-06	-1.523673e-09	-3.812025e+01	-9.982926e+01
1.500000e-07	-5.517959e-06	-1.546293e-09	-3.808176e+01	-9.983147e+01
1.600000e-07	-5.511997e-06	-1.508654e-09	-3.804062e+01	-9.984028e+01
1.700000e-07	-5.505646e-06	-1.501671e-09	-3.799679e+01	-9.985469e+01
1.800000e-07	-5.498897e-06	-1.549917e-09	-3.795021e+01	-9.987353e+01
1.900000e-07	-5.491756e-06	-1.558931e-09	-3.790092e+01	-9.989550e+01
2.000000e-07	-5.484258e-06	-1.522229e-09	-3.784917e+01	-9.991916e+01
2.100000e-07	-5.476479e-06	-1.496914e-09	-3.779549e+01	-9.994299e+01
2.200000e-07	-5.468385e-06	-1.541424e-09	-3.773963e+01	-9.996540e+01
2.300000e-07	-5.459923e-06	-1.557335e-09	-3.768123e+01	-9.998475e+01
2.400000e-07	-5.451017e-06	-1.542467e-09	-3.761976e+01	-9.999940e+01
2.500000e-07	-5.441529e-06	-1.515089e-09	-3.755428e+01	-1.000077e+02
2.600000e-07	-5.431299e-06	-1.541421e-09	-3.748368e+01	-1.000082e+02
2.700000e-07	-5.420424e-06	-1.535940e-09	-3.740863e+01	-9.999925e+01
2.800000e-07	-5.409173e-06	-1.535469e-09	-3.733098e+01	-9.997956e+01
2.900000e-07	-5.397562e-06	-1.532473e-09	-3.725085e+01	-9.994787e+01
3.000000e-07	-5.385532e-06	-1.555100e-09	-3.716782e+01	-9.990309e+01
3.100000e-07	-5.373040e-06	-1.541601e-09	-3.708161e+01	-9.984431e+01
3.200000e-07	-5.360193e-06	-1.539535e-09	-3.699295e+01	-9.977082e+01
3.300000e-07	-5.346973e-06	-1.532568e-09	-3.690171e+01	-9.968211e+01
3.400000e-07	-5.333327e-06	-1.536038e-09	-3.680754e+01	-9.957789e+01
3.500000e-07	-5.319232e-06	-1.526219e-09	-3.671026e+01	-9.945808e+01
3.600000e-07	-5.304828e-06	-1.531207e-09	-3.661086e+01	-9.932284e+01
3.700000e-07	-5.290027e-06	-1.517409e-09	-3.650870e+01	-9.917252e+01
3.800000e-07	-5.274617e-06	-1.519214e-09	-3.640235e+01	-9.900770e+01
3.900000e-07	-5.258667e-06	-1.527103e-09	-3.629228e+01	-9.882914e+01
4.000000e-07	-5.242301e-06	-1.519293e-09	-3.617933e+01	-9.863778e+01
4.100000e-07	-5.225597e-06	-1.506252e-09	-3.606405e+01	-9.843472e+01
4.200000e-07	-5.208561e-06	-1.518735e-09	-3.594647e+01	-9.822120e+01
4.300000e-07	-5.191216e-06	-1.525480e-09	-3.582677e+01	-9.799856e+01
4.400000e-07	-5.173507e-06	-1.498146e-09	-3.570455e+01	-9.776822e+01
4.500000e-07	-5.155335e-06	-1.506431e-09	-3.557914e+01	-9.753167e+01
4.600000e-07	-5.136724e-06	-1.519801e-09	-3.545070e+01	-9.729041e+01
4.700000e-07	-5.117678e-06	-1.494588e-09	-3.531926e+01	-9.704594e+01
4.800000e-07	-5.098337e-06	-1.469373e-09	-3.518577e+01	-9.679973e+01
4.900000e-07	-5.078758e-06	-1.506454e-09	-3.505065e+01	-9.655319e+01
5.000000e-07	-5.058909e-06	-1.502655e-09	-3.491366e+01	-9.630765e+01
5.100000e-07	-5.038853e-06	-1.474592e-09	-3.477525e+01	-9.606432e+01
5.200000e-07	-5.018513e-06	-1.480163e-09	-3.463487e+01	-9.582429e+01
5.300000e-07	-4.997789e-06	-1.500967e-09	-3.449185e+01	-9.558849e+01
5.400000e-07	-4.976662e-06	-1.471064e-09	-3.434604e+01	-9.535770e+01
5.500000e-07	-4.955162e-06	-1.470494e-09	-3.419766e+01	-9.513254e+01
5.600000e-07	-4.933328e-06	-1.478333e-09	-3.404698e+01	-9.491343e+01
5.700000e-07	-4.911164e-06	-1.459644e-09	-3.389401e+01	-9.470062e+01
5.800000e-07	-4.888627e-06	-1.444741e-09	-3.373848e+01	-9.449418e+01
5.900000e-07	-4.865770e-06	-1.472864e-09	-3.358073e+01	-9.429401e+01
6.000000e-07	-4.842558e-06	-1.466535e-09	-3.342054e+01	-9.409983e+01
6.100000e-07	-4.819035e-06	-1.452037e-09	-3.325819e+01	-9.391124e+01
6.200000e-07	-4.795319e-06	-1.458954e-09	-3.309452e+01	-9.372765e+01
6.300000e-07	-4.771415e-06	-1.460665e-09	-3.292955e+01	-9.354840e+01
6.400000e-07	-4.747288e-06	-1.439315e-09	-3.276304e+01	-9.337270e+01
6.500000e-07	-4.722748e-06	-1.440103e-09	-3.259367e+01	-9.319968e+01
6.600000e-07	-4.697797e-06	-1.444703e-09	-3.242148e+01	-9.302841e+01
6.700000e-07	-4.672341e-06	-1.436450e-09	-3.224579e+01	-9.285794e+01
6.800000e-07	-4.646107e-06	-1.435162e-09	-3.206474e+01	-9.268730e+01
6.900000e-07	-4.619300e-06	-1.437405e-09	-3.187974e+01	-9.251551e+01
7.000000e-07	-4.592215e-06	-1.433198e-09	-3.169281e+01	-9.234165e+01
7.100000e-07	-4.564887e-06	-1.430124e-09	-3.150421e+01	-9.216482e+01
7.200000e-07	-4.537322e-06	-1.428766e-09	-3.131397e+01	-9.198421e+01
7.300000e-07	-4.509613e-06	-1.422809e-09	-3.112274e+01	-9.179909e+01
7.400000e-07	-4.481694e-06	-1.423980e-09	-3.093006e+01	-9.160881e+01
7.500000e-07	-4.453523e-06	-1.422144e-09	-3.073564e+01	-9.141284e+01
7.600000e-07	-4.425004e-06	-1.415389e-09	-3.053882e+01	-9.121075e+01
7.700000e-07	-4.396150e-06	-1.406727e-09	-3.033968e+01	-9.100224e+01
7.800000e-07	-4.367038e-06	-1.403511e-09	-3.013877e+01	-9.078711e+01
7.900000e-07	-4.337561e-06	-1.391969e-09	-2.993533e+01	-9.056530e+01
8.000000e-07	-4.307773e-06	-1.391839e-09	-2.972976e+01	-9.033682e+01
8.100000e-07	-4.277720e-06	-1.391408e-09	-2.952235e+01	-9.010183e+01
8.200000e-07	-4.247364e-06	-1.387465e-09	-2.931285e+01	-8.986054e+01
8.300000e-07	-4.216753e-06	-1.378037e-09	-2.910159e+01	-8.961326e+01
8.400000e-07	-4.185829e-06	-1.375569e-09	-2.888817e+01	-8.936036e+01
8.500000e-07	-4.154564e-06	-1.366311e-09	-2.867240e+01	-8.910226e+01
8.600000e-07	-4.123094e-06	-1.357152e-09	-2.845521e+01	-8.883943e+01
8.700000e-07	-4.091403e-06	-1.348689e-09	-2.823649e+01	-8.857232e+01
8.800000e-07	-4.059535e-06	-1.344621e-09	-2.801657e+01	-8.830143e+01
8.900000e-07	-4.027494e-06	-1.337359e-09	-2.779543e+01	-8.802721e+01
9.000000e-07	-3.995186e-06	-1.335601e-09	-2.757246e+01	-8.775009e+01
9.100000e-07	-3.962510e-06	-1.332868e-09	-2.734695e+01	-8.747047e+01
9.200000e-07	-3.929457e-06	-1.330133e-09	-2.711884e+01	-8.718867e+01
9.300000e-07	-3.895945e-06	-1.324452e-09	-2.688756e+01	-8.690499e+01
9.400000e-07	-3.861928e-06	-1.318579e-09	-2.665280e+01	-8.661960e+01
9.500000e-07	-3.827503e-06	-1.310225e-09	-2.641521e+01	-8.633264e+01
9.600000e-07	-3.792622e-06	-1.301879e-09	-2.617448e+01	-8.604414e+01
9.700000e-07	-3.757383e-06	-1.292879e-09	-2.593128e+01	-8.575405e+01
9.800000e-07	-3.721921e-06	-1.286288e-09	-2.568655e+01	-8.546227e+01
9.900000e-07	-3.686270e-06	-1.282271e-09	-2.544050e+01	-8.516858e+01
1.000000e-06	-3.650500e-06	-1.276773e-09	-2.519364e+01	-8.487271e+01
1.010000e-06	-3.614662e-06	-1.273462e-09	-2.494631e+01	-8.457434e+01
1.020000e-06	-3.578680e-06	-1.270767e-09	-2.469798e+01	-8.427308e+01
1.030000e-06	-3.542470e-06	-1.268027e-09	-2.444808e+01	-8.396850e+01
1.040000e-06	-3.506040e-06	-1.260695e-09	-2.419666e+01	-8.366014e+01
1.050000e-06	-3.469245e-06	-1.251438e-09	-2.394272e+01	-8.334754e+01
1.060000e-06	-3.432131e-06	-1.240468e-09	-2.368658e+01	-8.303022e+01
1.070000e-06	-3.394869e-06	-1.234093e-09	-2.342943e+01	-8.270773e+01
1.080000e-06	-3.357318e-06	-1.229016e-09	-2.317027e+01	-8.237961e+01
1.090000e-06	-3.319520e-06	-1.225753e-09	-2.290941e+01	-8.204547e+01
1.100000e-06	-3.281537e-06	-1.218353e-09	-2.264727e+01	-8.170495e+01
1.110000e-06	-3.243252e-06	-1.210545e-09	-2.238305e+01	-8.135774e+01
1.120000e-06	-3.204744e-06	-1.201703e-09	-2.211729e+01	-8.100362e+01
1.130000e-06	-3.166059e-06	-1.194736e-09	-2.185030e+01	-8.064240e+01
1.140000e-06	-3.127093e-06	-1.186778e-09	-2.158139e+01	-8.027400e+01
1.150000e-06	-3.087904e-06	-1.181760e-09	-2.131093e+01	-7.989839e+01
1.160000e-06	-3.048581e-06	-1.175670e-09	-2.103954e+01	-7.951562e+01
1.170000e-06	-3.009125e-06	-1.168812e-09	-2.076724e+01	-7.912581e+01
1.180000e-06	-2.969528e-06	-1.160975e-09	-2.049396e+01	-7.872915e+01
1.190000e-06	-2.929809e-06	-1.157493e-09	-2.021985e+01	-7.832588e+01
1.200000e-06	-2.889948e-06	-1.152043e-09	-1.994475e+01	-7.791630e+01
1.210000e-06	-2.849953e-06	-1.143598e-09	-1.966873e+01	-7.750073e+01
1.220000e-06	-2.809752e-06	-1.135711e-09	-1.939128e+01	-7.707955e+01
1.230000e-06	-2.769360e-06	-1.130961e-09	-1.911252e+01	-7.665311e+01
1.240000e-06	-2.728901e-06	-1.124665e-09	-1.883330e+01	-7.622180e+01
1.250000e-06	-2.688235e-06	-1.118063e-09	-1.855264e+01	-7.578597e+01
1.260000e-06	-2.647261e-06	-1.113324e-09	-1.826987e+01	-7.534596e+01
1.270000e-06	-2.605875e-06	-1.104399e-09	-1.798424e+01	-7.490207e+01
1.280000e-06	-2.564082e-06	-1.092236e-09	-1.769581e+01	-7.445453e+01
1.290000e-06	-2.521977e-06	-1.081137e-09	-1.740523e+01	-7.400351e+01
1.300000e-06	-2.479535e-06	-1.072265e-09	-1.711231e+01	-7.354914e+01
1.310000e-06	-2.436872e-06	-1.064989e-09	-1.681788e+01	-7.309143e+01
1.320000e-06	-2.393982e-06	-1.060660e-09	-1.652188e+01	-7.263031e+01
1.330000e-06	-2.350856e-06	-1.056730e-09	-1.622425e+01	-7.216563e+01
1.340000e-06	-2.307552e-06	-1.047912e-09	-1.592539e+01	-7.169714e+01
1.350000e-06	-2.264048e-06	-1.037922e-09	-1.562515e+01	-7.122449e+01
1.360000e-06	-2.220367e-06	-1.030457e-09	-1.532369e+01	-7.074724e+01
1.370000e-06	-2.176601e-06	-1.020488e-09	-1.502164e+01	-7.026486e+01
1.380000e-06	-2.132795e-06	-1.011050e-09	-1.471932e+01	-6.977675e+01
1.390000e-06	-2.088918e-06	-1.003330e-09	-1.441651e+01	-6.928221e+01
1.400000e-06	-2.044970e-06	-9.958748e-10	-1.411320e+01	-6.878050e+01
1.410000e-06	-2.000954e-06	-9.862198e-10	-1.380943e+01	-6.827081e+01
1.420000e-06	-1.956797e-06	-9.768535e-10	-1.350468e+01	-6.775230e+01
1.430000e-06	-1.912538e-06	-9.671035e-10	-1.319923e+01	-6.722409e+01
1.440000e-06	-1.868195e-06	-9.572481e-10	-1.289320e+01	-6.668527e+01
1.450000e-06	-1.823651e-06	-9.449151e-10	-1.258578e+01	-6.613496e+01
1.460000e-06	-1.778991e-06	-9.325687e-10	-1.227757e+01	-6.557225e+01
1.470000e-06	-1.734172e-06	-9.198501e-10	-1.196825e+01	-6.499627e+01
1.480000e-06	-1.689149e-06	-9.085274e-10	-1.165753e+01	-6.440618e+01
1.490000e-06	-1.644013e-06	-8.970914e-10	-1.134603e+01	-6.380117e+01
1.500000e-06	-1.598735e-06	-8.845283e-10	-1.103355e+01	-6.318046e+01
1.510000e-06	-1.553314e-06	-8.715296e-10	-1.072008e+01	-6.254336e+01
1.520000e-06	-1.507810e-06	-8.590170e-10	-1.040603e+01	-6.188921e+01
1.530000e-06	-1.462239e-06	-8.465875e-10	-1.009153e+01	-6.121741e+01
1.540000e-06	-1.416606e-06	-8.354038e-10	-9.776595e+00	-6.052741e+01
1.550000e-06	-1.370871e-06	-8.242340e-10	-9.460961e+00	-5.981874e+01
1.560000e-06	-1.325075e-06	-8.126436e-10	-9.144901e+00	-5.909096e+01
1.570000e-06	-1.279241e-06	-7.992815e-10	-8.828581e+00	-5.834368e+01
1.580000e-06	-1.233287e-06	-7.851338e-10	-8.511433e+00	-5.757654e+01
1.590000e-06	-1.187256e-06	-7.700932e-10	-8.193753e+00	-5.678922e+01
1.600000e-06	-1.141175e-06	-7.555537e-10	-7.875728e+00	-5.598142e+01
1.610000e-06	-1.094972e-06	-7.440241e-10	-7.556866e+00	-5.515282e+01
1.620000e-06	-1.048616e-06	-7.357911e-10	-7.236942e+00	-5.430313e+01
1.630000e-06	-1.002190e-06	-7.270410e-10	-6.916534e+00	-5.343201e+01
1.640000e-06	-9.557179e-07	-7.146924e-10	-6.595812e+00	-5.253913e+01
1.650000e-06	-9.091743e-07	-6.979648e-10	-6.274595e+00	-5.162407e+01
1.660000e-06	-8.625983e-07	-6.765752e-10	-5.953155e+00	-5.068641e+01
1.670000e-06	-8.158897e-07	-6.541716e-10	-5.630798e+00	-4.972565e+01
1.680000e-06	-7.691288e-07	-6.341553e-10	-5.308082e+00	-4.874122e+01
1.690000e-06	-7.223728e-07	-6.193068e-10	-4.985400e+00	-4.773248e+01
1.700000e-06	-6.754703e-07	-6.047291e-10	-4.661705e+00	-4.669874e+01
1.710000e-06	-6.285707e-07	-5.932099e-10	-4.338032e+00	-4.563921e+01
1.720000e-06	-5.816538e-07	-5.813048e-10	-4.014238e+00	-4.455306e+01
1.730000e-06	-5.345879e-07	-5.634685e-10	-3.689416e+00	-4.343936e+01
1.740000e-06	-4.874936e-07	-5.403209e-10	-3.364399e+00	-4.229716e+01
1.750000e-06	-4.404516e-07	-5.163321e-10	-3.039742e+00	-4.112543e+01
1.760000e-06	-3.933847e-07	-4.944183e-10	-2.714913e+00	-3.992313e+01
1.770000e-06	-3.462150e-07	-4.758890e-10	-2.389376e+00	-3.868919e+01
1.780000e-06	-2.990244e-07	-4.613241e-10	-2.063694e+00	-3.742253e+01
1.790000e-06	-2.518668e-07	-4.457857e-10	-1.738239e+00	-3.612210e+01
1.800000e-06	-2.046110e-07	-4.279397e-10	-1.412107e+00	-3.478689e+01
1.810000e-06	-1.572883e-07	-4.110293e-10	-1.085513e+00	-3.341593e+01
1.820000e-06	-1.100265e-07	-3.928404e-10	-7.593389e-01	-3.200833e+01
1.830000e-06	-6.281986e-08	-3.719318e-10	-4.335464e-01	-3.056333e+01
1.840000e-06	-1.564605e-08	-3.509314e-10	-1.079800e-01	-2.908025e+01
1.850000e-06	3.148850e-08	-3.306676e-10	2.173154e-01	-2.755860e+01
1.860000e-06	7.863117e-08	-3.094056e-10	5.426669e-01	-2.599802e+01
1.870000e-06	1.258439e-07	-2.866505e-10	8.685017e-01	-2.439834e+01
1.880000e-06	1.730849e-07	-2.632345e-10	1.194532e+00	-2.275961e+01
1.890000e-06	2.203124e-07	-2.392271e-10	1.520468e+00	-2.108206e+01
1.900000e-06	2.675165e-07	-2.158801e-10	1.846244e+00	-1.936617e+01
1.910000e-06	3.146368e-07	-1.936321e-10	2.171441e+00	-1.761264e+01
1.920000e-06	3.616687e-07	-1.702425e-10	2.496028e+00	-1.582242e+01
1.930000e-06	4.087153e-07	-1.448162e-10	2.820716e+00	-1.399670e+01
1.940000e-06	4.557363e-07	-1.181037e-10	3.145229e+00	-1.213690e+01
1.950000e-06	5.027172e-07	-9.095865e-11	3.469463e+00	-1.024468e+01
1.960000e-06	5.496866e-07	-6.422859e-11	3.793619e+00	-8.321933e+00
1.970000e-06	5.965703e-07	-3.808296e-11	4.117183e+00	-6.370768e+00
1.980000e-06	6.433929e-07	-1.283397e-11	4.440325e+00	-4.393494e+00
1.990000e-06	6.902627e-07	1.536134e-11	4.763794e+00	-2.392608e+00
2.000000e-06	7.370781e-07	4.766252e-11	5.086887e+00	-3.707727e-01
2.010000e-06	7.837751e-07	7.891905e-11	5.409162e+00	1.669202e+00
2.020000e-06	8.303738e-07	1.075987e-10	5.730760e+00	3.724384e+00
2.030000e-06	8.768701e-07	1.348781e-10	6.051650e+00	5.791744e+00
2.040000e-06	9.233664e-07	1.622651e-10	6.372541e+00	7.868182e+00
2.050000e-06	9.698354e-07	1.911260e-10	6.693243e+00	9.950552e+00
2.060000e-06	1.016117e-06	2.204255e-10	7.012650e+00	1.203569e+01
2.070000e-06	1.062261e-06	2.513204e-10	7.331109e+00	1.412043e+01
2.080000e-06	1.108382e-06	2.836224e-10	7.649414e+00	1.620167e+01
2.090000e-06	1.154430e-06	3.158466e-10	7.967206e+00	1.827631e+01
2.100000e-06	1.200380e-06	3.458405e-10	8.284327e+00	2.034139e+01
2.110000e-06	1.246286e-06	3.744150e-10	8.601143e+00	2.239401e+01
2.120000e-06	1.292083e-06	4.029198e-10	8.917210e+00	2.443142e+01
2.130000e-06	1.337812e-06	4.298272e-10	9.232806e+00	2.645098e+01
2.140000e-06	1.383489e-06	4.551377e-10	9.548044e+00	2.845022e+01
2.150000e-06	1.429098e-06	4.805759e-10	9.862807e+00	3.042684e+01
2.160000e-06	1.474711e-06	5.076173e-10	1.017760e+01	3.237870e+01
2.170000e-06	1.520206e-06	5.354502e-10	1.049158e+01	3.430384e+01
2.180000e-06	1.565503e-06	5.634448e-10	1.080420e+01	3.620050e+01
2.190000e-06	1.610636e-06	5.928888e-10	1.111568e+01	3.806710e+01
2.200000e-06	1.655740e-06	6.215613e-10	1.142696e+01	3.990224e+01
2.210000e-06	1.700743e-06	6.474323e-10	1.173755e+01	4.170471e+01
2.220000e-06	1.745526e-06	6.709817e-10	1.204661e+01	4.347347e+01
2.230000e-06	1.790156e-06	6.915680e-10	1.235462e+01	4.520768e+01
2.240000e-06	1.834652e-06	7.125486e-10	1.266171e+01	4.690661e+01
2.250000e-06	1.878995e-06	7.349010e-10	1.296774e+01	4.856974e+01
2.260000e-06	1.923138e-06	7.577343e-10	1.327239e+01	5.019666e+01
2.270000e-06	1.967150e-06	7.803915e-10	1.357613e+01	5.178711e+01
2.280000e-06	2.011117e-06	8.044485e-10	1.387957e+01	5.334092e+01
2.290000e-06	2.055014e-06	8.268868e-10	1.418252e+01	5.485807e+01
2.300000e-06	2.098865e-06	8.451219e-10	1.448515e+01	5.633862e+01
2.310000e-06	2.142674e-06	8.613596e-10	1.478750e+01	5.778271e+01
2.320000e-06	2.186395e-06	8.774052e-10	1.508923e+01	5.919055e+01
2.330000e-06	2.230011e-06	8.935688e-10	1.539024e+01	6.056243e+01
2.340000e-06	2.273578e-06	9.104234e-10	1.569092e+01	6.189870e+01
2.350000e-06	2.317087e-06	9.300925e-10	1.599119e+01	6.319973e+01
2.360000e-06	2.360377e-06	9.522445e-10	1.628996e+01	6.446596e+01
2.370000e-06	2.403408e-06	9.741510e-10	1.658693e+01	6.569784e+01
2.380000e-06	2.446266e-06	9.920518e-10	1.688271e+01	6.689586e+01
2.390000e-06	2.488819e-06	1.005968e-09	1.717639e+01	6.806052e+01
2.400000e-06	2.531019e-06	1.017908e-09	1.746763e+01	6.919235e+01
2.410000e-06	2.573000e-06	1.030789e-09	1.775736e+01	7.029188e+01
2.420000e-06	2.614740e-06	1.043392e-09	1.804542e+01	7.135967e+01
2.430000e-06	2.656118e-06	1.055405e-09	1.833099e+01	7.239629e+01
2.440000e-06	2.697140e-06	1.068541e-09	1.861410e+01	7.340230e+01
2.450000e-06	2.737796e-06	1.082038e-09	1.889468e+01	7.437829e+01
2.460000e-06	2.778151e-06	1.095596e-09	1.917319e+01	7.532484e+01
2.470000e-06	2.818369e-06	1.109679e-09	1.945075e+01	7.624256e+01
2.480000e-06	2.858415e-06	1.121927e-09	1.972713e+01	7.713206e+01
2.490000e-06	2.898298e-06	1.130583e-09	2.000238e+01	7.799393e+01
2.500000e-06	2.938021e-06	1.138820e-09	2.027652e+01	7.882881e+01
2.510000e-06	2.977598e-06	1.148993e-09	2.054966e+01	7.963731e+01
2.520000e-06	3.017050e-06	1.160324e-09	2.082193e+01	8.042007e+01
2.530000e-06	3.056446e-06	1.171275e-09	2.109382e+01	8.117773e+01
2.540000e-06	3.095739e-06	1.181881e-09	2.136500e+01	8.191091e+01
2.550000e-06	3.134730e-06	1.191389e-09	2.163410e+01	8.262026e+01
2.560000e-06	3.173468e-06	1.198870e-09	2.190144e+01	8.330640e+01
2.570000e-06	3.211956e-06	1.206763e-09	2.216707e+01	8.396998e+01
2.580000e-06	3.250128e-06	1.215738e-09	2.243050e+01	8.461162e+01
2.590000e-06	3.288083e-06	1.225885e-09	2.269245e+01	8.523194e+01
2.600000e-06	3.325916e-06	1.235971e-09	2.295355e+01	8.583156e+01
2.610000e-06	3.363617e-06	1.244393e-09	2.321374e+01	8.641106e+01
2.620000e-06	3.401122e-06	1.251388e-09	2.347257e+01	8.697105e+01
2.630000e-06	3.438368e-06	1.258259e-09	2.372963e+01	8.751209e+01
2.640000e-06	3.475279e-06	1.264999e-09	2.398437e+01	8.803475e+01
2.650000e-06	3.511856e-06	1.270287e-09	2.423680e+01	8.853957e+01
2.660000e-06	3.548166e-06	1.276393e-09	2.448739e+01	8.902708e+01
2.670000e-06	3.584238e-06	1.284664e-09	2.473634e+01	8.949780e+01
2.680000e-06	3.620154e-06	1.295035e-09	2.498421e+01	8.995222e+01
2.690000e-06	3.656002e-06	1.304510e-09	2.523161e+01	9.039084e+01
2.700000e-06	3.691766e-06	1.312599e-09	2.547843e+01	9.081414e+01
2.710000e-06	3.727383e-06	1.319922e-09	2.572424e+01	9.122258e+01
2.720000e-06	3.762801e-06	1.323669e-09	2.596867e+01	9.161664e+01
2.730000e-06	3.797943e-06	1.325925e-09	2.621121e+01	9.199678e+01
2.740000e-06	3.832761e-06	1.331066e-09	2.645150e+01	9.236347e+01
2.750000e-06	3.867224e-06	1.338069e-09	2.668934e+01	9.271717e+01
2.760000e-06	3.901196e-06	1.344152e-09	2.692380e+01	9.305835e+01
2.770000e-06	3.934712e-06	1.350109e-09	2.715511e+01	9.338751e+01
2.780000e-06	3.967670e-06	1.357060e-09	2.738257e+01	9.370513e+01
2.790000e-06	4.000026e-06	1.364852e-09	2.760587e+01	9.401172e+01
2.800000e-06	4.032080e-06	1.372500e-09	2.782709e+01	9.430780e+01
2.810000e-06	4.063968e-06	1.377538e-09	2.804716e+01	9.459390e+01
2.820000e-06	4.095740e-06	1.380736e-09	2.826643e+01	9.487056e+01
2.830000e-06	4.127428e-06	1.384217e-09	2.848512e+01	9.513836e+01
2.840000e-06	4.158936e-06	1.388833e-09	2.870257e+01	9.539785e+01
2.850000e-06	4.190163e-06	1.391674e-09	2.891808e+01	9.564961e+01
2.860000e-06	4.221025e-06	1.393041e-09	2.913107e+01	9.589422e+01
2.870000e-06	4.251508e-06	1.397140e-09	2.934145e+01	9.613225e+01
2.880000e-06	4.281740e-06	1.404205e-09	2.955009e+01	9.636426e+01
2.890000e-06	4.311721e-06	1.411434e-09	2.975701e+01	9.659082e+01
2.900000e-06	4.341400e-06	1.416116e-09	2.996183e+01	9.681244e+01
