# Temperatura_=_1.54
# Concentracion g/m^3_=_1620.0
# C_Vs_to_Am_M_A/Vsm_=_65563218390.804596
# pendiente_HvsI_1/m_=_3716.3
# ordenada_HvsI_A/m_=_1297.0
# frecuencia_Hz_=_135101.2033476421

Tiempo_(s)	Campo_(V.s)	Magnetizacion_(V.s)	Campo_(kA/m)	Magnetizacion_(A/m)
0.000000e+00	-5.510213e-06	-1.413293e-09	-3.837797e+01	-9.215005e+01
1.000000e-08	-5.510385e-06	-1.413769e-09	-3.837917e+01	-9.208300e+01
2.000000e-08	-5.510298e-06	-1.414692e-09	-3.837856e+01	-9.201935e+01
3.000000e-08	-5.509910e-06	-1.415092e-09	-3.837586e+01	-9.195946e+01
4.000000e-08	-5.509119e-06	-1.413648e-09	-3.837035e+01	-9.190361e+01
5.000000e-08	-5.507926e-06	-1.410403e-09	-3.836205e+01	-9.185198e+01
6.000000e-08	-5.506198e-06	-1.406460e-09	-3.835001e+01	-9.180468e+01
7.000000e-08	-5.503860e-06	-1.419434e-09	-3.833372e+01	-9.176172e+01
8.000000e-08	-5.500984e-06	-1.445170e-09	-3.831370e+01	-9.172300e+01
9.000000e-08	-5.497557e-06	-1.433992e-09	-3.828982e+01	-9.168835e+01
1.000000e-07	-5.493629e-06	-1.375518e-09	-3.826247e+01	-9.165750e+01
1.100000e-07	-5.489387e-06	-1.366336e-09	-3.823292e+01	-9.163010e+01
1.200000e-07	-5.484905e-06	-1.418109e-09	-3.820171e+01	-9.160573e+01
1.300000e-07	-5.480138e-06	-1.436739e-09	-3.816850e+01	-9.158387e+01
1.400000e-07	-5.474996e-06	-1.365474e-09	-3.813269e+01	-9.156398e+01
1.500000e-07	-5.469503e-06	-1.374882e-09	-3.809444e+01	-9.154544e+01
1.600000e-07	-5.463685e-06	-1.432889e-09	-3.805391e+01	-9.152760e+01
1.700000e-07	-5.457441e-06	-1.457308e-09	-3.801042e+01	-9.150977e+01
1.800000e-07	-5.450692e-06	-1.377976e-09	-3.796342e+01	-9.149126e+01
1.900000e-07	-5.443553e-06	-1.349027e-09	-3.791369e+01	-9.147134e+01
2.000000e-07	-5.436088e-06	-1.394068e-09	-3.786170e+01	-9.144931e+01
2.100000e-07	-5.428352e-06	-1.435270e-09	-3.780782e+01	-9.142447e+01
2.200000e-07	-5.420417e-06	-1.437405e-09	-3.775255e+01	-9.139616e+01
2.300000e-07	-5.412251e-06	-1.419155e-09	-3.769568e+01	-9.136374e+01
2.400000e-07	-5.403637e-06	-1.422491e-09	-3.763568e+01	-9.132662e+01
2.500000e-07	-5.394399e-06	-1.408805e-09	-3.757134e+01	-9.128424e+01
2.600000e-07	-5.384542e-06	-1.397583e-09	-3.750269e+01	-9.123614e+01
2.700000e-07	-5.374080e-06	-1.373647e-09	-3.742982e+01	-9.118187e+01
2.800000e-07	-5.363107e-06	-1.397075e-09	-3.735340e+01	-9.112110e+01
2.900000e-07	-5.351720e-06	-1.401389e-09	-3.727409e+01	-9.105352e+01
3.000000e-07	-5.339983e-06	-1.395816e-09	-3.719234e+01	-9.097894e+01
3.100000e-07	-5.327772e-06	-1.363442e-09	-3.710729e+01	-9.089722e+01
3.200000e-07	-5.315069e-06	-1.385455e-09	-3.701882e+01	-9.080828e+01
3.300000e-07	-5.302018e-06	-1.399362e-09	-3.692792e+01	-9.071213e+01
3.400000e-07	-5.288636e-06	-1.388151e-09	-3.683471e+01	-9.060884e+01
3.500000e-07	-5.274804e-06	-1.363668e-09	-3.673838e+01	-9.049856e+01
3.600000e-07	-5.260589e-06	-1.396079e-09	-3.663937e+01	-9.038148e+01
3.700000e-07	-5.246134e-06	-1.400033e-09	-3.653869e+01	-9.025786e+01
3.800000e-07	-5.231138e-06	-1.369757e-09	-3.643425e+01	-9.012800e+01
3.900000e-07	-5.215403e-06	-1.370522e-09	-3.632466e+01	-8.999225e+01
4.000000e-07	-5.199200e-06	-1.399607e-09	-3.621180e+01	-8.985099e+01
4.100000e-07	-5.182689e-06	-1.365139e-09	-3.609681e+01	-8.970463e+01
4.200000e-07	-5.165805e-06	-1.346747e-09	-3.597921e+01	-8.955363e+01
4.300000e-07	-5.148616e-06	-1.398100e-09	-3.585949e+01	-8.939843e+01
4.400000e-07	-5.131077e-06	-1.391369e-09	-3.573734e+01	-8.923950e+01
4.500000e-07	-5.113080e-06	-1.328895e-09	-3.561199e+01	-8.907731e+01
4.600000e-07	-5.094709e-06	-1.346625e-09	-3.548404e+01	-8.891233e+01
4.700000e-07	-5.075988e-06	-1.394404e-09	-3.535365e+01	-8.874503e+01
4.800000e-07	-5.056930e-06	-1.341123e-09	-3.522091e+01	-8.857586e+01
4.900000e-07	-5.037511e-06	-1.326979e-09	-3.508566e+01	-8.840526e+01
5.000000e-07	-5.017782e-06	-1.378903e-09	-3.494825e+01	-8.823363e+01
5.100000e-07	-4.997913e-06	-1.364315e-09	-3.480986e+01	-8.806136e+01
5.200000e-07	-4.977824e-06	-1.313801e-09	-3.466995e+01	-8.788882e+01
5.300000e-07	-4.957337e-06	-1.362726e-09	-3.452726e+01	-8.771634e+01
5.400000e-07	-4.936458e-06	-1.370195e-09	-3.438184e+01	-8.754421e+01
5.500000e-07	-4.915199e-06	-1.309208e-09	-3.423377e+01	-8.737270e+01
5.600000e-07	-4.893620e-06	-1.317239e-09	-3.408347e+01	-8.720204e+01
5.700000e-07	-4.871820e-06	-1.369819e-09	-3.393164e+01	-8.703240e+01
5.800000e-07	-4.849688e-06	-1.326758e-09	-3.377750e+01	-8.686396e+01
5.900000e-07	-4.827160e-06	-1.303796e-09	-3.362059e+01	-8.669681e+01
6.000000e-07	-4.804259e-06	-1.339595e-09	-3.346109e+01	-8.653103e+01
6.100000e-07	-4.780999e-06	-1.326372e-09	-3.329908e+01	-8.636666e+01
6.200000e-07	-4.757467e-06	-1.285134e-09	-3.313519e+01	-8.620370e+01
6.300000e-07	-4.733784e-06	-1.316740e-09	-3.297024e+01	-8.604210e+01
6.400000e-07	-4.709881e-06	-1.329785e-09	-3.280376e+01	-8.588180e+01
6.500000e-07	-4.685626e-06	-1.298803e-09	-3.263483e+01	-8.572267e+01
6.600000e-07	-4.661000e-06	-1.300213e-09	-3.246331e+01	-8.556457e+01
6.700000e-07	-4.635920e-06	-1.317707e-09	-3.228862e+01	-8.540733e+01
6.800000e-07	-4.610357e-06	-1.292985e-09	-3.211059e+01	-8.525072e+01
6.900000e-07	-4.584306e-06	-1.283793e-09	-3.192914e+01	-8.509452e+01
7.000000e-07	-4.557737e-06	-1.301588e-09	-3.174409e+01	-8.493844e+01
7.100000e-07	-4.530660e-06	-1.294759e-09	-3.155551e+01	-8.478219e+01
7.200000e-07	-4.503220e-06	-1.282256e-09	-3.136439e+01	-8.462547e+01
7.300000e-07	-4.475582e-06	-1.291235e-09	-3.117189e+01	-8.446792e+01
7.400000e-07	-4.447703e-06	-1.291706e-09	-3.097772e+01	-8.430920e+01
7.500000e-07	-4.419616e-06	-1.271613e-09	-3.078209e+01	-8.414894e+01
7.600000e-07	-4.391378e-06	-1.270318e-09	-3.058542e+01	-8.398675e+01
7.700000e-07	-4.362833e-06	-1.274904e-09	-3.038661e+01	-8.382227e+01
7.800000e-07	-4.333930e-06	-1.274061e-09	-3.018530e+01	-8.365510e+01
7.900000e-07	-4.304720e-06	-1.272291e-09	-2.998186e+01	-8.348486e+01
8.000000e-07	-4.275268e-06	-1.272637e-09	-2.977673e+01	-8.331118e+01
8.100000e-07	-4.245582e-06	-1.259867e-09	-2.956997e+01	-8.313370e+01
8.200000e-07	-4.215541e-06	-1.252793e-09	-2.936074e+01	-8.295207e+01
8.300000e-07	-4.185185e-06	-1.251714e-09	-2.914931e+01	-8.276597e+01
8.400000e-07	-4.154470e-06	-1.248501e-09	-2.893538e+01	-8.257510e+01
8.500000e-07	-4.123370e-06	-1.242956e-09	-2.871878e+01	-8.237920e+01
8.600000e-07	-4.092124e-06	-1.249002e-09	-2.850115e+01	-8.217804e+01
8.700000e-07	-4.060740e-06	-1.243454e-09	-2.828256e+01	-8.197142e+01
8.800000e-07	-4.029102e-06	-1.230897e-09	-2.806221e+01	-8.175919e+01
8.900000e-07	-3.997263e-06	-1.222455e-09	-2.784046e+01	-8.154124e+01
9.000000e-07	-3.965254e-06	-1.219180e-09	-2.761752e+01	-8.131753e+01
9.100000e-07	-3.933056e-06	-1.209493e-09	-2.739327e+01	-8.108802e+01
9.200000e-07	-3.900607e-06	-1.210895e-09	-2.716726e+01	-8.085276e+01
9.300000e-07	-3.867774e-06	-1.216273e-09	-2.693858e+01	-8.061184e+01
9.400000e-07	-3.834455e-06	-1.211617e-09	-2.670652e+01	-8.036539e+01
9.500000e-07	-3.800615e-06	-1.204624e-09	-2.647083e+01	-8.011359e+01
9.600000e-07	-3.766377e-06	-1.203598e-09	-2.623236e+01	-7.985666e+01
9.700000e-07	-3.731743e-06	-1.194896e-09	-2.599114e+01	-7.959486e+01
9.800000e-07	-3.696633e-06	-1.182475e-09	-2.574661e+01	-7.932849e+01
9.900000e-07	-3.661159e-06	-1.179000e-09	-2.549953e+01	-7.905788e+01
1.000000e-06	-3.625532e-06	-1.175735e-09	-2.525139e+01	-7.878338e+01
1.010000e-06	-3.589808e-06	-1.166178e-09	-2.500258e+01	-7.850537e+01
1.020000e-06	-3.553942e-06	-1.164101e-09	-2.475278e+01	-7.822422e+01
1.030000e-06	-3.517971e-06	-1.167773e-09	-2.450224e+01	-7.794033e+01
1.040000e-06	-3.481850e-06	-1.161853e-09	-2.425067e+01	-7.765408e+01
1.050000e-06	-3.445463e-06	-1.154178e-09	-2.399723e+01	-7.736583e+01
1.060000e-06	-3.408776e-06	-1.148635e-09	-2.374171e+01	-7.707595e+01
1.070000e-06	-3.371820e-06	-1.140382e-09	-2.348432e+01	-7.678477e+01
1.080000e-06	-3.334658e-06	-1.129165e-09	-2.322549e+01	-7.649257e+01
1.090000e-06	-3.297291e-06	-1.126029e-09	-2.296523e+01	-7.619962e+01
1.100000e-06	-3.259682e-06	-1.122265e-09	-2.270330e+01	-7.590612e+01
1.110000e-06	-3.221908e-06	-1.116284e-09	-2.244020e+01	-7.561224e+01
1.120000e-06	-3.183986e-06	-1.112395e-09	-2.217608e+01	-7.531808e+01
1.130000e-06	-3.145774e-06	-1.110963e-09	-2.190994e+01	-7.502369e+01
1.140000e-06	-3.107227e-06	-1.102289e-09	-2.164146e+01	-7.472904e+01
1.150000e-06	-3.068569e-06	-1.094091e-09	-2.137221e+01	-7.443407e+01
1.160000e-06	-3.029717e-06	-1.088989e-09	-2.110162e+01	-7.413862e+01
1.170000e-06	-2.990510e-06	-1.082816e-09	-2.082855e+01	-7.384250e+01
1.180000e-06	-2.951131e-06	-1.074715e-09	-2.055428e+01	-7.354544e+01
1.190000e-06	-2.911637e-06	-1.072109e-09	-2.027920e+01	-7.324712e+01
1.200000e-06	-2.871989e-06	-1.070414e-09	-2.000306e+01	-7.294717e+01
1.210000e-06	-2.832185e-06	-1.066260e-09	-1.972583e+01	-7.264516e+01
1.220000e-06	-2.792287e-06	-1.061309e-09	-1.944794e+01	-7.234062e+01
1.230000e-06	-2.752324e-06	-1.058345e-09	-1.916961e+01	-7.203307e+01
1.240000e-06	-2.712188e-06	-1.053605e-09	-1.889007e+01	-7.172197e+01
1.250000e-06	-2.671901e-06	-1.047510e-09	-1.860947e+01	-7.140677e+01
1.260000e-06	-2.631469e-06	-1.042248e-09	-1.832786e+01	-7.108690e+01
1.270000e-06	-2.590783e-06	-1.035589e-09	-1.804449e+01	-7.076181e+01
1.280000e-06	-2.549763e-06	-1.028123e-09	-1.775879e+01	-7.043091e+01
1.290000e-06	-2.508429e-06	-1.022580e-09	-1.747091e+01	-7.009366e+01
1.300000e-06	-2.466880e-06	-1.015739e-09	-1.718152e+01	-6.974951e+01
1.310000e-06	-2.425064e-06	-1.007789e-09	-1.689028e+01	-6.939794e+01
1.320000e-06	-2.382907e-06	-1.002296e-09	-1.659666e+01	-6.903847e+01
1.330000e-06	-2.340454e-06	-9.995505e-10	-1.630098e+01	-6.867064e+01
1.340000e-06	-2.297722e-06	-9.945625e-10	-1.600336e+01	-6.829403e+01
1.350000e-06	-2.254677e-06	-9.885039e-10	-1.570355e+01	-6.790825e+01
1.360000e-06	-2.211424e-06	-9.848629e-10	-1.540230e+01	-6.751297e+01
1.370000e-06	-2.167985e-06	-9.788012e-10	-1.509976e+01	-6.710789e+01
1.380000e-06	-2.124350e-06	-9.702695e-10	-1.479584e+01	-6.669275e+01
1.390000e-06	-2.080607e-06	-9.607512e-10	-1.449118e+01	-6.626733e+01
1.400000e-06	-2.036812e-06	-9.523016e-10	-1.418615e+01	-6.583144e+01
1.410000e-06	-1.992933e-06	-9.439590e-10	-1.388054e+01	-6.538494e+01
1.420000e-06	-1.948946e-06	-9.359359e-10	-1.357418e+01	-6.492769e+01
1.430000e-06	-1.904925e-06	-9.283459e-10	-1.326758e+01	-6.445958e+01
1.440000e-06	-1.860833e-06	-9.229167e-10	-1.296048e+01	-6.398052e+01
1.450000e-06	-1.816664e-06	-9.155153e-10	-1.265285e+01	-6.349041e+01
1.460000e-06	-1.772413e-06	-9.069684e-10	-1.234464e+01	-6.298916e+01
1.470000e-06	-1.728076e-06	-8.962584e-10	-1.203584e+01	-6.247666e+01
1.480000e-06	-1.683615e-06	-8.846319e-10	-1.172618e+01	-6.195278e+01
1.490000e-06	-1.638997e-06	-8.728699e-10	-1.141542e+01	-6.141738e+01
1.500000e-06	-1.594290e-06	-8.609195e-10	-1.110404e+01	-6.087027e+01
1.510000e-06	-1.549400e-06	-8.488582e-10	-1.079139e+01	-6.031121e+01
1.520000e-06	-1.504392e-06	-8.397691e-10	-1.047791e+01	-5.973993e+01
1.530000e-06	-1.459395e-06	-8.319568e-10	-1.016451e+01	-5.915610e+01
1.540000e-06	-1.414250e-06	-8.237154e-10	-9.850082e+00	-5.855932e+01
1.550000e-06	-1.368931e-06	-8.151025e-10	-9.534438e+00	-5.794913e+01
1.560000e-06	-1.323529e-06	-8.042564e-10	-9.218217e+00	-5.732501e+01
1.570000e-06	-1.278034e-06	-7.904476e-10	-8.901353e+00	-5.668638e+01
1.580000e-06	-1.232418e-06	-7.769348e-10	-8.583645e+00	-5.603257e+01
1.590000e-06	-1.186719e-06	-7.651178e-10	-8.265355e+00	-5.536286e+01
1.600000e-06	-1.140954e-06	-7.556923e-10	-7.946606e+00	-5.467646e+01
1.610000e-06	-1.095143e-06	-7.480653e-10	-7.627537e+00	-5.397251e+01
1.620000e-06	-1.049254e-06	-7.411649e-10	-7.307926e+00	-5.325011e+01
1.630000e-06	-1.003268e-06	-7.334022e-10	-6.987642e+00	-5.250828e+01
1.640000e-06	-9.572355e-07	-7.241988e-10	-6.667030e+00	-5.174603e+01
1.650000e-06	-9.111385e-07	-7.118650e-10	-6.345971e+00	-5.096231e+01
1.660000e-06	-8.649511e-07	-6.956940e-10	-6.024281e+00	-5.015604e+01
1.670000e-06	-8.186889e-07	-6.794846e-10	-5.702070e+00	-4.932614e+01
1.680000e-06	-7.724196e-07	-6.637607e-10	-5.379810e+00	-4.847149e+01
1.690000e-06	-7.261681e-07	-6.496006e-10	-5.057674e+00	-4.759099e+01
1.700000e-06	-6.797969e-07	-6.344995e-10	-4.734704e+00	-4.668354e+01
1.710000e-06	-6.333405e-07	-6.200619e-10	-4.411141e+00	-4.574805e+01
1.720000e-06	-5.869178e-07	-6.050629e-10	-4.087812e+00	-4.478348e+01
1.730000e-06	-5.404033e-07	-5.893153e-10	-3.763844e+00	-4.378881e+01
1.740000e-06	-4.938627e-07	-5.728524e-10	-3.439694e+00	-4.276308e+01
1.750000e-06	-4.473746e-07	-5.556375e-10	-3.115910e+00	-4.170537e+01
1.760000e-06	-4.008101e-07	-5.365411e-10	-2.791594e+00	-4.061484e+01
1.770000e-06	-3.541791e-07	-5.162829e-10	-2.466815e+00	-3.949072e+01
1.780000e-06	-3.075613e-07	-4.970210e-10	-2.142128e+00	-3.833230e+01
1.790000e-06	-2.608665e-07	-4.787741e-10	-1.816904e+00	-3.713900e+01
1.800000e-06	-2.141612e-07	-4.614669e-10	-1.491607e+00	-3.591029e+01
1.810000e-06	-1.675677e-07	-4.459168e-10	-1.167089e+00	-3.464575e+01
1.820000e-06	-1.209895e-07	-4.299370e-10	-8.426772e-01	-3.334508e+01
1.830000e-06	-7.436346e-08	-4.117427e-10	-5.179326e-01	-3.200808e+01
1.840000e-06	-2.769378e-08	-3.927357e-10	-1.928839e-01	-3.063464e+01
1.850000e-06	1.895867e-08	-3.734148e-10	1.320449e-01	-2.922478e+01
1.860000e-06	6.561466e-08	-3.535423e-10	4.569983e-01	-2.777865e+01
1.870000e-06	1.123452e-07	-3.324080e-10	7.824710e-01	-2.629649e+01
1.880000e-06	1.590016e-07	-3.104926e-10	1.107427e+00	-2.477867e+01
1.890000e-06	2.055537e-07	-2.885835e-10	1.431657e+00	-2.322570e+01
1.900000e-06	2.521968e-07	-2.655553e-10	1.756520e+00	-2.163817e+01
1.910000e-06	2.989034e-07	-2.407313e-10	2.081826e+00	-2.001684e+01
1.920000e-06	3.456018e-07	-2.150536e-10	2.407075e+00	-1.836255e+01
1.930000e-06	3.923024e-07	-1.896671e-10	2.732339e+00	-1.667629e+01
1.940000e-06	4.389744e-07	-1.679656e-10	3.057404e+00	-1.495917e+01
1.950000e-06	4.855875e-07	-1.473646e-10	3.382058e+00	-1.321240e+01
1.960000e-06	5.321258e-07	-1.244890e-10	3.706192e+00	-1.143734e+01
1.970000e-06	5.786303e-07	-1.001266e-10	4.030091e+00	-9.635438e+00
1.980000e-06	6.250257e-07	-7.353329e-11	4.353229e+00	-7.808289e+00
1.990000e-06	6.713199e-07	-4.468899e-11	4.675663e+00	-5.957585e+00
2.000000e-06	7.176608e-07	-1.497788e-11	4.998422e+00	-4.085137e+00
2.010000e-06	7.639352e-07	1.378540e-11	5.320717e+00	-2.192864e+00
2.020000e-06	8.100468e-07	3.921206e-11	5.641879e+00	-2.827879e-01
2.030000e-06	8.561691e-07	6.328848e-11	5.963115e+00	1.642966e+00
2.040000e-06	9.023174e-07	8.760080e-11	6.284532e+00	3.582180e+00
2.050000e-06	9.483859e-07	1.139778e-10	6.605394e+00	5.532549e+00
2.060000e-06	9.943796e-07	1.432506e-10	6.925735e+00	7.491687e+00
2.070000e-06	1.040355e-06	1.737499e-10	7.245949e+00	9.457136e+00
2.080000e-06	1.086357e-06	2.043625e-10	7.566345e+00	1.142638e+01
2.090000e-06	1.132276e-06	2.350049e-10	7.886169e+00	1.339685e+01
2.100000e-06	1.178049e-06	2.637984e-10	8.204970e+00	1.536593e+01
2.110000e-06	1.223670e-06	2.890800e-10	8.522712e+00	1.733100e+01
2.120000e-06	1.269035e-06	3.146037e-10	8.838677e+00	1.928941e+01
2.130000e-06	1.314369e-06	3.418626e-10	9.154423e+00	2.123851e+01
2.140000e-06	1.359719e-06	3.677733e-10	9.470277e+00	2.317568e+01
2.150000e-06	1.404878e-06	3.929203e-10	9.784808e+00	2.509832e+01
2.160000e-06	1.449967e-06	4.181239e-10	1.009884e+01	2.700389e+01
2.170000e-06	1.495022e-06	4.442802e-10	1.041265e+01	2.888992e+01
2.180000e-06	1.539919e-06	4.712092e-10	1.072535e+01	3.075401e+01
2.190000e-06	1.584621e-06	4.983809e-10	1.103669e+01	3.259387e+01
2.200000e-06	1.629226e-06	5.244412e-10	1.134736e+01	3.440731e+01
2.210000e-06	1.673741e-06	5.482457e-10	1.165740e+01	3.619228e+01
2.220000e-06	1.718127e-06	5.709824e-10	1.196655e+01	3.794689e+01
2.230000e-06	1.762420e-06	5.938738e-10	1.227505e+01	3.966937e+01
2.240000e-06	1.806636e-06	6.168823e-10	1.258301e+01	4.135815e+01
2.250000e-06	1.850782e-06	6.394723e-10	1.289047e+01	4.301183e+01
2.260000e-06	1.894841e-06	6.603715e-10	1.319734e+01	4.462918e+01
2.270000e-06	1.938795e-06	6.795218e-10	1.350348e+01	4.620920e+01
2.280000e-06	1.982679e-06	7.000387e-10	1.380912e+01	4.775104e+01
2.290000e-06	2.026503e-06	7.214477e-10	1.411435e+01	4.925410e+01
2.300000e-06	2.070279e-06	7.432030e-10	1.441924e+01	5.071793e+01
2.310000e-06	2.113975e-06	7.642898e-10	1.472358e+01	5.214232e+01
2.320000e-06	2.157570e-06	7.835275e-10	1.502721e+01	5.352722e+01
2.330000e-06	2.201066e-06	8.000042e-10	1.533016e+01	5.487277e+01
2.340000e-06	2.244404e-06	8.164730e-10	1.563200e+01	5.617929e+01
2.350000e-06	2.287477e-06	8.340614e-10	1.593200e+01	5.744727e+01
2.360000e-06	2.330218e-06	8.510095e-10	1.622969e+01	5.867732e+01
2.370000e-06	2.372646e-06	8.669584e-10	1.652519e+01	5.987023e+01
2.380000e-06	2.414730e-06	8.812013e-10	1.681830e+01	6.102685e+01
2.390000e-06	2.456532e-06	8.937932e-10	1.710945e+01	6.214818e+01
2.400000e-06	2.498154e-06	9.083072e-10	1.739934e+01	6.323527e+01
2.410000e-06	2.539481e-06	9.247931e-10	1.768718e+01	6.428924e+01
2.420000e-06	2.580503e-06	9.405331e-10	1.797289e+01	6.531126e+01
2.430000e-06	2.621342e-06	9.527236e-10	1.825733e+01	6.630252e+01
2.440000e-06	2.661974e-06	9.616435e-10	1.854033e+01	6.726420e+01
2.450000e-06	2.702341e-06	9.687121e-10	1.882148e+01	6.819747e+01
2.460000e-06	2.742498e-06	9.780079e-10	1.910117e+01	6.910350e+01
2.470000e-06	2.782525e-06	9.915766e-10	1.937995e+01	6.998336e+01
2.480000e-06	2.822447e-06	1.006503e-09	1.965801e+01	7.083811e+01
2.490000e-06	2.862297e-06	1.020304e-09	1.993556e+01	7.166870e+01
2.500000e-06	2.902011e-06	1.033055e-09	2.021216e+01	7.247603e+01
2.510000e-06	2.941515e-06	1.044868e-09	2.048730e+01	7.326088e+01
2.520000e-06	2.980846e-06	1.053312e-09	2.076123e+01	7.402396e+01
2.530000e-06	3.019995e-06	1.059881e-09	2.103390e+01	7.476587e+01
2.540000e-06	3.058874e-06	1.067340e-09	2.130469e+01	7.548712e+01
2.550000e-06	3.097495e-06	1.075342e-09	2.157368e+01	7.618811e+01
2.560000e-06	3.135912e-06	1.082627e-09	2.184125e+01	7.686915e+01
2.570000e-06	3.174118e-06	1.091732e-09	2.210735e+01	7.753049e+01
2.580000e-06	3.212111e-06	1.102335e-09	2.237196e+01	7.817227e+01
2.590000e-06	3.249865e-06	1.112595e-09	2.263492e+01	7.879458e+01
2.600000e-06	3.287395e-06	1.122046e-09	2.289631e+01	7.939746e+01
2.610000e-06	3.324764e-06	1.130090e-09	2.315659e+01	7.998089e+01
2.620000e-06	3.361920e-06	1.137286e-09	2.341537e+01	8.054484e+01
2.630000e-06	3.398772e-06	1.144080e-09	2.367204e+01	8.108925e+01
2.640000e-06	3.435342e-06	1.150440e-09	2.392674e+01	8.161406e+01
2.650000e-06	3.471688e-06	1.155513e-09	2.417989e+01	8.211924e+01
2.660000e-06	3.507884e-06	1.160592e-09	2.443199e+01	8.260478e+01
2.670000e-06	3.543979e-06	1.168961e-09	2.468339e+01	8.307070e+01
2.680000e-06	3.579949e-06	1.177904e-09	2.493391e+01	8.351708e+01
2.690000e-06	3.615708e-06	1.185174e-09	2.518298e+01	8.394406e+01
2.700000e-06	3.651310e-06	1.190886e-09	2.543094e+01	8.435186e+01
2.710000e-06	3.686720e-06	1.195480e-09	2.567756e+01	8.474077e+01
2.720000e-06	3.721782e-06	1.199905e-09	2.592176e+01	8.511116e+01
2.730000e-06	3.756469e-06	1.205297e-09	2.616335e+01	8.546349e+01
2.740000e-06	3.790803e-06	1.210858e-09	2.640249e+01	8.579832e+01
2.750000e-06	3.824604e-06	1.216031e-09	2.663791e+01	8.611626e+01
2.760000e-06	3.857871e-06	1.220366e-09	2.686961e+01	8.641804e+01
2.770000e-06	3.890844e-06	1.224507e-09	2.709926e+01	8.670444e+01
2.780000e-06	3.923466e-06	1.228856e-09	2.732647e+01	8.697632e+01
2.790000e-06	3.955798e-06	1.235127e-09	2.755166e+01	8.723458e+01
2.800000e-06	3.987970e-06	1.244644e-09	2.777573e+01	8.748018e+01
2.810000e-06	4.019973e-06	1.252705e-09	2.799863e+01	8.771412e+01
2.820000e-06	4.051795e-06	1.256364e-09	2.822026e+01	8.793741e+01
2.830000e-06	4.083369e-06	1.258532e-09	2.844018e+01	8.815107e+01
2.840000e-06	4.114627e-06	1.260402e-09	2.865788e+01	8.835611e+01
2.850000e-06	4.145604e-06	1.260562e-09	2.887363e+01	8.855351e+01
2.860000e-06	4.176265e-06	1.260340e-09	2.908719e+01	8.874424e+01
2.870000e-06	4.206619e-06	1.263085e-09	2.929860e+01	8.892920e+01
2.880000e-06	4.236744e-06	1.268387e-09	2.950841e+01	8.910921e+01
2.890000e-06	4.266612e-06	1.273762e-09	2.971644e+01	8.928506e+01
2.900000e-06	4.296211e-06	1.278391e-09	2.992259e+01	8.945742e+01
