# Temperatura_=_-26.8
# Concentracion g/m^3_=_1620.0
# C_Vs_to_Am_M_A/Vsm_=_65563218390.804596
# pendiente_HvsI_1/m_=_3716.3
# ordenada_HvsI_A/m_=_1297.0
# frecuencia_Hz_=_135108.12568085972

Tiempo_(s)	Campo_(V.s)	Magnetizacion_(V.s)	Campo_(kA/m)	Magnetizacion_(A/m)
0.000000e+00	-5.525617e-06	-8.370983e-10	-3.836733e+01	-5.355610e+01
1.000000e-08	-5.525714e-06	-8.391045e-10	-3.836801e+01	-5.356148e+01
2.000000e-08	-5.525491e-06	-8.411157e-10	-3.836646e+01	-5.357236e+01
3.000000e-08	-5.524933e-06	-8.408471e-10	-3.836258e+01	-5.358861e+01
4.000000e-08	-5.523927e-06	-8.390942e-10	-3.835560e+01	-5.361002e+01
5.000000e-08	-5.522398e-06	-8.358380e-10	-3.834498e+01	-5.363627e+01
6.000000e-08	-5.520243e-06	-8.406416e-10	-3.833002e+01	-5.366698e+01
7.000000e-08	-5.517424e-06	-8.632359e-10	-3.831045e+01	-5.370168e+01
8.000000e-08	-5.514033e-06	-8.569687e-10	-3.828690e+01	-5.373981e+01
9.000000e-08	-5.510188e-06	-7.929109e-10	-3.826021e+01	-5.378076e+01
1.000000e-07	-5.506027e-06	-7.881862e-10	-3.823131e+01	-5.382387e+01
1.100000e-07	-5.501613e-06	-8.723223e-10	-3.820066e+01	-5.386841e+01
1.200000e-07	-5.496948e-06	-8.853901e-10	-3.816827e+01	-5.391362e+01
1.300000e-07	-5.491970e-06	-8.113141e-10	-3.813371e+01	-5.395875e+01
1.400000e-07	-5.486670e-06	-7.662399e-10	-3.809691e+01	-5.400300e+01
1.500000e-07	-5.481029e-06	-8.628243e-10	-3.805773e+01	-5.404560e+01
1.600000e-07	-5.474968e-06	-8.816642e-10	-3.801565e+01	-5.408580e+01
1.700000e-07	-5.468497e-06	-7.969749e-10	-3.797072e+01	-5.412287e+01
1.800000e-07	-5.461586e-06	-7.602456e-10	-3.792273e+01	-5.415615e+01
1.900000e-07	-5.454263e-06	-8.338813e-10	-3.787189e+01	-5.418502e+01
2.000000e-07	-5.446690e-06	-8.885246e-10	-3.781930e+01	-5.420894e+01
2.100000e-07	-5.438937e-06	-8.455014e-10	-3.776547e+01	-5.422745e+01
2.200000e-07	-5.430856e-06	-8.176257e-10	-3.770936e+01	-5.424018e+01
2.300000e-07	-5.422377e-06	-8.226026e-10	-3.765048e+01	-5.424685e+01
2.400000e-07	-5.413445e-06	-8.356873e-10	-3.758846e+01	-5.424731e+01
2.500000e-07	-5.403893e-06	-8.091643e-10	-3.752214e+01	-5.424147e+01
2.600000e-07	-5.393663e-06	-8.102440e-10	-3.745111e+01	-5.422939e+01
2.700000e-07	-5.382876e-06	-8.241452e-10	-3.737621e+01	-5.421122e+01
2.800000e-07	-5.371675e-06	-8.332759e-10	-3.729843e+01	-5.418720e+01
2.900000e-07	-5.360029e-06	-8.025942e-10	-3.721757e+01	-5.415770e+01
3.000000e-07	-5.347967e-06	-7.910951e-10	-3.713382e+01	-5.412317e+01
3.100000e-07	-5.335469e-06	-8.021216e-10	-3.704704e+01	-5.408413e+01
3.200000e-07	-5.322576e-06	-8.247564e-10	-3.695751e+01	-5.404120e+01
3.300000e-07	-5.309354e-06	-8.037651e-10	-3.686571e+01	-5.399506e+01
3.400000e-07	-5.295624e-06	-7.959497e-10	-3.677037e+01	-5.394643e+01
3.500000e-07	-5.281435e-06	-8.276676e-10	-3.667185e+01	-5.389609e+01
3.600000e-07	-5.266904e-06	-8.355626e-10	-3.657095e+01	-5.384485e+01
3.700000e-07	-5.251725e-06	-7.866489e-10	-3.646555e+01	-5.379351e+01
3.800000e-07	-5.235987e-06	-7.902421e-10	-3.635627e+01	-5.374289e+01
3.900000e-07	-5.219985e-06	-8.337450e-10	-3.624517e+01	-5.369380e+01
4.000000e-07	-5.203528e-06	-8.010535e-10	-3.613090e+01	-5.364703e+01
4.100000e-07	-5.186647e-06	-7.763536e-10	-3.601368e+01	-5.360331e+01
4.200000e-07	-5.169522e-06	-8.438960e-10	-3.589477e+01	-5.356335e+01
4.300000e-07	-5.152014e-06	-8.567084e-10	-3.577321e+01	-5.352777e+01
4.400000e-07	-5.134125e-06	-7.769983e-10	-3.564900e+01	-5.349715e+01
4.500000e-07	-5.115898e-06	-7.960719e-10	-3.552244e+01	-5.347199e+01
4.600000e-07	-5.097233e-06	-8.528207e-10	-3.539283e+01	-5.345270e+01
4.700000e-07	-5.078213e-06	-8.062050e-10	-3.526077e+01	-5.343962e+01
4.800000e-07	-5.058954e-06	-7.765444e-10	-3.512704e+01	-5.343298e+01
4.900000e-07	-5.039487e-06	-8.434311e-10	-3.499187e+01	-5.343295e+01
5.000000e-07	-5.019757e-06	-8.364853e-10	-3.485487e+01	-5.343960e+01
5.100000e-07	-4.999700e-06	-7.968123e-10	-3.471561e+01	-5.345290e+01
5.200000e-07	-4.979320e-06	-8.417537e-10	-3.457410e+01	-5.347275e+01
5.300000e-07	-4.958675e-06	-8.581004e-10	-3.443075e+01	-5.349899e+01
5.400000e-07	-4.937671e-06	-7.925612e-10	-3.428491e+01	-5.353136e+01
5.500000e-07	-4.916238e-06	-8.129237e-10	-3.413609e+01	-5.356956e+01
5.600000e-07	-4.894477e-06	-8.631690e-10	-3.398499e+01	-5.361321e+01
5.700000e-07	-4.872343e-06	-8.247590e-10	-3.383130e+01	-5.366190e+01
5.800000e-07	-4.849870e-06	-8.041602e-10	-3.367526e+01	-5.371518e+01
5.900000e-07	-4.827122e-06	-8.528665e-10	-3.351731e+01	-5.377257e+01
6.000000e-07	-4.803983e-06	-8.374519e-10	-3.335664e+01	-5.383356e+01
6.100000e-07	-4.780550e-06	-8.021979e-10	-3.319393e+01	-5.389765e+01
6.200000e-07	-4.756960e-06	-8.307952e-10	-3.303014e+01	-5.396430e+01
6.300000e-07	-4.733139e-06	-8.459927e-10	-3.286474e+01	-5.403301e+01
6.400000e-07	-4.708966e-06	-8.174434e-10	-3.269689e+01	-5.410327e+01
6.500000e-07	-4.684419e-06	-8.254487e-10	-3.252644e+01	-5.417461e+01
6.600000e-07	-4.659543e-06	-8.447082e-10	-3.235372e+01	-5.424658e+01
6.700000e-07	-4.634118e-06	-8.273473e-10	-3.217718e+01	-5.431873e+01
6.800000e-07	-4.608049e-06	-8.207142e-10	-3.199617e+01	-5.439069e+01
6.900000e-07	-4.581487e-06	-8.396291e-10	-3.181173e+01	-5.446209e+01
7.000000e-07	-4.554518e-06	-8.386261e-10	-3.162447e+01	-5.453262e+01
7.100000e-07	-4.527190e-06	-8.294991e-10	-3.143472e+01	-5.460199e+01
7.200000e-07	-4.499585e-06	-8.412647e-10	-3.124304e+01	-5.466997e+01
7.300000e-07	-4.471827e-06	-8.434136e-10	-3.105030e+01	-5.473634e+01
7.400000e-07	-4.443923e-06	-8.337993e-10	-3.085655e+01	-5.480096e+01
7.500000e-07	-4.415751e-06	-8.350270e-10	-3.066094e+01	-5.486367e+01
7.600000e-07	-4.387274e-06	-8.413452e-10	-3.046320e+01	-5.492438e+01
7.700000e-07	-4.358565e-06	-8.365224e-10	-3.026386e+01	-5.498302e+01
7.800000e-07	-4.329532e-06	-8.374151e-10	-3.006227e+01	-5.503952e+01
7.900000e-07	-4.300120e-06	-8.385298e-10	-2.985805e+01	-5.509388e+01
8.000000e-07	-4.270380e-06	-8.329657e-10	-2.965155e+01	-5.514606e+01
8.100000e-07	-4.240387e-06	-8.277388e-10	-2.944329e+01	-5.519608e+01
8.200000e-07	-4.210098e-06	-8.324707e-10	-2.923298e+01	-5.524393e+01
8.300000e-07	-4.179476e-06	-8.303584e-10	-2.902035e+01	-5.528963e+01
8.400000e-07	-4.148569e-06	-8.307002e-10	-2.880575e+01	-5.533321e+01
8.500000e-07	-4.117455e-06	-8.366674e-10	-2.858971e+01	-5.537468e+01
8.600000e-07	-4.086158e-06	-8.361535e-10	-2.837240e+01	-5.541406e+01
8.700000e-07	-4.054607e-06	-8.249662e-10	-2.815332e+01	-5.545136e+01
8.800000e-07	-4.022833e-06	-8.215674e-10	-2.793270e+01	-5.548660e+01
8.900000e-07	-3.990901e-06	-8.202138e-10	-2.771098e+01	-5.551979e+01
9.000000e-07	-3.958711e-06	-8.182766e-10	-2.748747e+01	-5.555094e+01
9.100000e-07	-3.926162e-06	-8.246609e-10	-2.726146e+01	-5.558004e+01
9.200000e-07	-3.893262e-06	-8.325046e-10	-2.703302e+01	-5.560710e+01
9.300000e-07	-3.859983e-06	-8.278598e-10	-2.680194e+01	-5.563211e+01
9.400000e-07	-3.826183e-06	-8.253849e-10	-2.656725e+01	-5.565508e+01
9.500000e-07	-3.791884e-06	-8.294074e-10	-2.632909e+01	-5.567602e+01
9.600000e-07	-3.757293e-06	-8.271188e-10	-2.608891e+01	-5.569492e+01
9.700000e-07	-3.722343e-06	-8.238805e-10	-2.584623e+01	-5.571180e+01
9.800000e-07	-3.687060e-06	-8.283532e-10	-2.560124e+01	-5.572668e+01
9.900000e-07	-3.651578e-06	-8.288364e-10	-2.535488e+01	-5.573959e+01
1.000000e-06	-3.615977e-06	-8.215324e-10	-2.510767e+01	-5.575056e+01
1.010000e-06	-3.580255e-06	-8.226317e-10	-2.485964e+01	-5.575964e+01
1.020000e-06	-3.544344e-06	-8.272662e-10	-2.461029e+01	-5.576690e+01
1.030000e-06	-3.508207e-06	-8.274528e-10	-2.435937e+01	-5.577239e+01
1.040000e-06	-3.471811e-06	-8.274747e-10	-2.410666e+01	-5.577621e+01
1.050000e-06	-3.435188e-06	-8.291034e-10	-2.385236e+01	-5.577843e+01
1.060000e-06	-3.398321e-06	-8.248710e-10	-2.359638e+01	-5.577917e+01
1.070000e-06	-3.361164e-06	-8.204609e-10	-2.333837e+01	-5.577852e+01
1.080000e-06	-3.323753e-06	-8.188126e-10	-2.307861e+01	-5.577658e+01
1.090000e-06	-3.286159e-06	-8.184891e-10	-2.281757e+01	-5.577348e+01
1.100000e-06	-3.248342e-06	-8.190768e-10	-2.255499e+01	-5.576932e+01
1.110000e-06	-3.210310e-06	-8.238663e-10	-2.229091e+01	-5.576419e+01
1.120000e-06	-3.172057e-06	-8.257444e-10	-2.202530e+01	-5.575821e+01
1.130000e-06	-3.133518e-06	-8.227155e-10	-2.175770e+01	-5.575146e+01
1.140000e-06	-3.094776e-06	-8.197806e-10	-2.148870e+01	-5.574400e+01
1.150000e-06	-3.055922e-06	-8.211571e-10	-2.121891e+01	-5.573590e+01
1.160000e-06	-3.016916e-06	-8.200600e-10	-2.094808e+01	-5.572719e+01
1.170000e-06	-2.977693e-06	-8.193791e-10	-2.067573e+01	-5.571788e+01
1.180000e-06	-2.938231e-06	-8.226456e-10	-2.040172e+01	-5.570797e+01
1.190000e-06	-2.898567e-06	-8.270151e-10	-2.012632e+01	-5.569742e+01
1.200000e-06	-2.858724e-06	-8.271594e-10	-1.984966e+01	-5.568616e+01
1.210000e-06	-2.818786e-06	-8.255913e-10	-1.957235e+01	-5.567410e+01
1.220000e-06	-2.778767e-06	-8.235559e-10	-1.929448e+01	-5.566112e+01
1.230000e-06	-2.738476e-06	-8.211481e-10	-1.901471e+01	-5.564707e+01
1.240000e-06	-2.698029e-06	-8.199869e-10	-1.873387e+01	-5.563177e+01
1.250000e-06	-2.657526e-06	-8.210122e-10	-1.845263e+01	-5.561501e+01
1.260000e-06	-2.616726e-06	-8.227157e-10	-1.816934e+01	-5.559658e+01
1.270000e-06	-2.575545e-06	-8.245335e-10	-1.788340e+01	-5.557621e+01
1.280000e-06	-2.534054e-06	-8.273711e-10	-1.759530e+01	-5.555364e+01
1.290000e-06	-2.492289e-06	-8.274388e-10	-1.730531e+01	-5.552857e+01
1.300000e-06	-2.450184e-06	-8.249773e-10	-1.701295e+01	-5.550072e+01
1.310000e-06	-2.407707e-06	-8.219718e-10	-1.671801e+01	-5.546976e+01
1.320000e-06	-2.364973e-06	-8.207401e-10	-1.642128e+01	-5.543537e+01
1.330000e-06	-2.322008e-06	-8.189256e-10	-1.612296e+01	-5.539723e+01
1.340000e-06	-2.278750e-06	-8.173104e-10	-1.582259e+01	-5.535502e+01
1.350000e-06	-2.235362e-06	-8.187329e-10	-1.552132e+01	-5.530840e+01
1.360000e-06	-2.191941e-06	-8.213767e-10	-1.521983e+01	-5.525705e+01
1.370000e-06	-2.148405e-06	-8.190900e-10	-1.491753e+01	-5.520065e+01
1.380000e-06	-2.104744e-06	-8.137086e-10	-1.461437e+01	-5.513890e+01
1.390000e-06	-2.060991e-06	-8.073616e-10	-1.431057e+01	-5.507147e+01
1.400000e-06	-2.017165e-06	-8.021347e-10	-1.400626e+01	-5.499808e+01
1.410000e-06	-1.973267e-06	-8.002246e-10	-1.370145e+01	-5.491843e+01
1.420000e-06	-1.929276e-06	-8.017407e-10	-1.339600e+01	-5.483222e+01
1.430000e-06	-1.885191e-06	-8.046480e-10	-1.308990e+01	-5.473918e+01
1.440000e-06	-1.840985e-06	-8.075723e-10	-1.278295e+01	-5.463901e+01
1.450000e-06	-1.796647e-06	-8.078844e-10	-1.247509e+01	-5.453142e+01
1.460000e-06	-1.752193e-06	-8.050603e-10	-1.216642e+01	-5.441612e+01
1.470000e-06	-1.707707e-06	-7.978814e-10	-1.185753e+01	-5.429281e+01
1.480000e-06	-1.663116e-06	-7.887651e-10	-1.154791e+01	-5.416117e+01
1.490000e-06	-1.618371e-06	-7.786982e-10	-1.123722e+01	-5.402086e+01
1.500000e-06	-1.573541e-06	-7.688287e-10	-1.092594e+01	-5.387151e+01
1.510000e-06	-1.528506e-06	-7.650764e-10	-1.061324e+01	-5.371276e+01
1.520000e-06	-1.483289e-06	-7.663385e-10	-1.029928e+01	-5.354417e+01
1.530000e-06	-1.437972e-06	-7.671756e-10	-9.984614e+00	-5.336530e+01
1.540000e-06	-1.392528e-06	-7.639502e-10	-9.669071e+00	-5.317566e+01
1.550000e-06	-1.347004e-06	-7.567860e-10	-9.352975e+00	-5.297471e+01
1.560000e-06	-1.301464e-06	-7.484336e-10	-9.036768e+00	-5.276188e+01
1.570000e-06	-1.255856e-06	-7.403802e-10	-8.720086e+00	-5.253655e+01
1.580000e-06	-1.210099e-06	-7.335698e-10	-8.402368e+00	-5.229806e+01
1.590000e-06	-1.164228e-06	-7.297642e-10	-8.083866e+00	-5.204567e+01
1.600000e-06	-1.118244e-06	-7.285877e-10	-7.764574e+00	-5.177864e+01
1.610000e-06	-1.072212e-06	-7.292243e-10	-7.444944e+00	-5.149616e+01
1.620000e-06	-1.026169e-06	-7.273658e-10	-7.125244e+00	-5.119737e+01
1.630000e-06	-9.799938e-07	-7.227804e-10	-6.804625e+00	-5.088138e+01
1.640000e-06	-9.338261e-07	-7.157734e-10	-6.484058e+00	-5.054729e+01
1.650000e-06	-8.876601e-07	-7.062107e-10	-6.163503e+00	-5.019411e+01
1.660000e-06	-8.414266e-07	-6.981681e-10	-5.842478e+00	-4.982089e+01
1.670000e-06	-7.951080e-07	-6.915593e-10	-5.520863e+00	-4.942662e+01
1.680000e-06	-7.486584e-07	-6.856881e-10	-5.198339e+00	-4.901029e+01
1.690000e-06	-7.021988e-07	-6.789874e-10	-4.875744e+00	-4.857088e+01
1.700000e-06	-6.557091e-07	-6.706687e-10	-4.552942e+00	-4.810739e+01
1.710000e-06	-6.091841e-07	-6.640837e-10	-4.229894e+00	-4.761882e+01
1.720000e-06	-5.626994e-07	-6.559857e-10	-3.907125e+00	-4.710418e+01
1.730000e-06	-5.161461e-07	-6.453105e-10	-3.583881e+00	-4.656253e+01
1.740000e-06	-4.694632e-07	-6.374181e-10	-3.259736e+00	-4.599293e+01
1.750000e-06	-4.227129e-07	-6.304316e-10	-2.935123e+00	-4.539453e+01
1.760000e-06	-3.758880e-07	-6.198071e-10	-2.609993e+00	-4.476649e+01
1.770000e-06	-3.290319e-07	-6.075920e-10	-2.284645e+00	-4.410804e+01
1.780000e-06	-2.822264e-07	-5.969045e-10	-1.959650e+00	-4.341849e+01
1.790000e-06	-2.354652e-07	-5.857377e-10	-1.634962e+00	-4.269719e+01
1.800000e-06	-1.887195e-07	-5.746209e-10	-1.310381e+00	-4.194359e+01
1.810000e-06	-1.419345e-07	-5.661203e-10	-9.855278e-01	-4.115720e+01
1.820000e-06	-9.509642e-08	-5.564659e-10	-6.603057e-01	-4.033764e+01
1.830000e-06	-4.823668e-08	-5.434387e-10	-3.349332e-01	-3.948458e+01
1.840000e-06	-1.368092e-09	-5.303999e-10	-9.499400e-03	-3.859782e+01
1.850000e-06	4.548323e-08	-5.189658e-10	3.158146e-01	-3.767722e+01
1.860000e-06	9.234484e-08	-5.067637e-10	6.412000e-01	-3.672274e+01
1.870000e-06	1.391888e-07	-4.923503e-10	9.664625e-01	-3.573445e+01
1.880000e-06	1.860386e-07	-4.769715e-10	1.291766e+00	-3.471250e+01
1.890000e-06	2.329007e-07	-4.608163e-10	1.617155e+00	-3.365713e+01
1.900000e-06	2.797517e-07	-4.435788e-10	1.942467e+00	-3.256869e+01
1.910000e-06	3.266340e-07	-4.259768e-10	2.267996e+00	-3.144760e+01
1.920000e-06	3.734648e-07	-4.080342e-10	2.593167e+00	-3.029440e+01
1.930000e-06	4.201634e-07	-3.915098e-10	2.917421e+00	-2.910969e+01
1.940000e-06	4.667698e-07	-3.754723e-10	3.241034e+00	-2.789418e+01
1.950000e-06	5.134170e-07	-3.579836e-10	3.564931e+00	-2.664866e+01
1.960000e-06	5.601186e-07	-3.398516e-10	3.889205e+00	-2.537400e+01
1.970000e-06	6.068017e-07	-3.216100e-10	4.213351e+00	-2.407117e+01
1.980000e-06	6.533626e-07	-3.033330e-10	4.536648e+00	-2.274119e+01
1.990000e-06	6.998125e-07	-2.827245e-10	4.859175e+00	-2.138520e+01
2.000000e-06	7.462565e-07	-2.590269e-10	5.181661e+00	-2.000438e+01
2.010000e-06	7.926176e-07	-2.368359e-10	5.503571e+00	-1.860002e+01
2.020000e-06	8.388860e-07	-2.185936e-10	5.824838e+00	-1.717346e+01
2.030000e-06	8.850712e-07	-2.015795e-10	6.145526e+00	-1.572612e+01
2.040000e-06	9.311774e-07	-1.852753e-10	6.465666e+00	-1.425950e+01
2.050000e-06	9.772414e-07	-1.676506e-10	6.785514e+00	-1.277514e+01
2.060000e-06	1.023210e-06	-1.459180e-10	7.104696e+00	-1.127468e+01
2.070000e-06	1.069084e-06	-1.220683e-10	7.423224e+00	-9.759806e+00
2.080000e-06	1.114917e-06	-9.810966e-11	7.741467e+00	-8.232253e+00
2.090000e-06	1.160691e-06	-7.368176e-11	8.059304e+00	-6.693823e+00
2.100000e-06	1.206423e-06	-4.914511e-11	8.376844e+00	-5.146368e+00
2.110000e-06	1.252118e-06	-2.783699e-11	8.694129e+00	-3.591783e+00
2.120000e-06	1.297708e-06	-8.235171e-12	9.010689e+00	-2.032005e+00
2.130000e-06	1.343204e-06	1.250050e-11	9.326591e+00	-4.690053e-01
2.140000e-06	1.388589e-06	3.287183e-11	9.641718e+00	1.095217e+00
2.150000e-06	1.433864e-06	5.415732e-11	9.956092e+00	2.658642e+00
2.160000e-06	1.479087e-06	7.731863e-11	1.027010e+01	4.219236e+00
2.170000e-06	1.524240e-06	1.003569e-10	1.058362e+01	5.774962e+00
2.180000e-06	1.569240e-06	1.235784e-10	1.089608e+01	7.323786e+00
2.190000e-06	1.614023e-06	1.473204e-10	1.120703e+01	8.863687e+00
2.200000e-06	1.658685e-06	1.706834e-10	1.151714e+01	1.039267e+01
2.210000e-06	1.703236e-06	1.923752e-10	1.182648e+01	1.190876e+01
2.220000e-06	1.747622e-06	2.146872e-10	1.213468e+01	1.341005e+01
2.230000e-06	1.791876e-06	2.360532e-10	1.244196e+01	1.489466e+01
2.240000e-06	1.836040e-06	2.540080e-10	1.274861e+01	1.636079e+01
2.250000e-06	1.880150e-06	2.720011e-10	1.305489e+01	1.780670e+01
2.260000e-06	1.924148e-06	2.909729e-10	1.336040e+01	1.923074e+01
2.270000e-06	1.968039e-06	3.104181e-10	1.366515e+01	2.063134e+01
2.280000e-06	2.011915e-06	3.304882e-10	1.396981e+01	2.200704e+01
2.290000e-06	2.055753e-06	3.508877e-10	1.427420e+01	2.335647e+01
2.300000e-06	2.099495e-06	3.696482e-10	1.457792e+01	2.467840e+01
2.310000e-06	2.143135e-06	3.863635e-10	1.488094e+01	2.597168e+01
2.320000e-06	2.186673e-06	4.019644e-10	1.518325e+01	2.723530e+01
2.330000e-06	2.230136e-06	4.175656e-10	1.548504e+01	2.846837e+01
2.340000e-06	2.273480e-06	4.354853e-10	1.578600e+01	2.967014e+01
2.350000e-06	2.316673e-06	4.542726e-10	1.608591e+01	3.083996e+01
2.360000e-06	2.359683e-06	4.719469e-10	1.638455e+01	3.197731e+01
2.370000e-06	2.402316e-06	4.864673e-10	1.668058e+01	3.308182e+01
2.380000e-06	2.444597e-06	4.962988e-10	1.697415e+01	3.415321e+01
2.390000e-06	2.486587e-06	5.055389e-10	1.726571e+01	3.519132e+01
2.400000e-06	2.528216e-06	5.168459e-10	1.755477e+01	3.619611e+01
2.410000e-06	2.569530e-06	5.321587e-10	1.784163e+01	3.716763e+01
2.420000e-06	2.610610e-06	5.481806e-10	1.812687e+01	3.810605e+01
2.430000e-06	2.651428e-06	5.632168e-10	1.841029e+01	3.901160e+01
2.440000e-06	2.691949e-06	5.750149e-10	1.869165e+01	3.988461e+01
2.450000e-06	2.732241e-06	5.821698e-10	1.897142e+01	4.072547e+01
2.460000e-06	2.772333e-06	5.887454e-10	1.924980e+01	4.153464e+01
2.470000e-06	2.812282e-06	5.963722e-10	1.952719e+01	4.231263e+01
2.480000e-06	2.852157e-06	6.045708e-10	1.980406e+01	4.305999e+01
2.490000e-06	2.891952e-06	6.137111e-10	2.008038e+01	4.377732e+01
2.500000e-06	2.931627e-06	6.252147e-10	2.035587e+01	4.446523e+01
2.510000e-06	2.971153e-06	6.380678e-10	2.063032e+01	4.512437e+01
2.520000e-06	3.010467e-06	6.487571e-10	2.090329e+01	4.575540e+01
2.530000e-06	3.049573e-06	6.550889e-10	2.117483e+01	4.635897e+01
2.540000e-06	3.088428e-06	6.583833e-10	2.144462e+01	4.693575e+01
2.550000e-06	3.127007e-06	6.606950e-10	2.171250e+01	4.748641e+01
2.560000e-06	3.165366e-06	6.638094e-10	2.197884e+01	4.801162e+01
2.570000e-06	3.203524e-06	6.716714e-10	2.224379e+01	4.851203e+01
2.580000e-06	3.241496e-06	6.826605e-10	2.250745e+01	4.898829e+01
2.590000e-06	3.279280e-06	6.932269e-10	2.276981e+01	4.944104e+01
2.600000e-06	3.316831e-06	7.029435e-10	2.303055e+01	4.987093e+01
2.610000e-06	3.354149e-06	7.100305e-10	2.328966e+01	5.027857e+01
2.620000e-06	3.391163e-06	7.161593e-10	2.354667e+01	5.066460e+01
2.630000e-06	3.427938e-06	7.187676e-10	2.380202e+01	5.102965e+01
2.640000e-06	3.464538e-06	7.195466e-10	2.405615e+01	5.137433e+01
2.650000e-06	3.500888e-06	7.205251e-10	2.430855e+01	5.169928e+01
2.660000e-06	3.537010e-06	7.248182e-10	2.455936e+01	5.200514e+01
2.670000e-06	3.572958e-06	7.341409e-10	2.480897e+01	5.229255e+01
2.680000e-06	3.608786e-06	7.435010e-10	2.505774e+01	5.256219e+01
2.690000e-06	3.644470e-06	7.505481e-10	2.530552e+01	5.281471e+01
2.700000e-06	3.680012e-06	7.530754e-10	2.555230e+01	5.305082e+01
2.710000e-06	3.715436e-06	7.524018e-10	2.579828e+01	5.327123e+01
2.720000e-06	3.750678e-06	7.506827e-10	2.604298e+01	5.347666e+01
2.730000e-06	3.785539e-06	7.507702e-10	2.628504e+01	5.366786e+01
2.740000e-06	3.819899e-06	7.553844e-10	2.652362e+01	5.384560e+01
2.750000e-06	3.853676e-06	7.614245e-10	2.675815e+01	5.401066e+01
2.760000e-06	3.886913e-06	7.683802e-10	2.698893e+01	5.416381e+01
2.770000e-06	3.919733e-06	7.745418e-10	2.721682e+01	5.430587e+01
2.780000e-06	3.952237e-06	7.785106e-10	2.744251e+01	5.443763e+01
2.790000e-06	3.984467e-06	7.820571e-10	2.766630e+01	5.455989e+01
2.800000e-06	4.016436e-06	7.837581e-10	2.788828e+01	5.467344e+01
2.810000e-06	4.048261e-06	7.837852e-10	2.810925e+01	5.477906e+01
2.820000e-06	4.079936e-06	7.847736e-10	2.832919e+01	5.487750e+01
2.830000e-06	4.111459e-06	7.888032e-10	2.854807e+01	5.496949e+01
2.840000e-06	4.142776e-06	7.931479e-10	2.876552e+01	5.505572e+01
2.850000e-06	4.173729e-06	7.954475e-10	2.898045e+01	5.513685e+01
2.860000e-06	4.204317e-06	7.971430e-10	2.919284e+01	5.521347e+01
2.870000e-06	4.234578e-06	7.999007e-10	2.940295e+01	5.528614e+01
2.880000e-06	4.264582e-06	8.017388e-10	2.961129e+01	5.535534e+01
2.890000e-06	4.294384e-06	8.025487e-10	2.981822e+01	5.542149e+01
2.900000e-06	4.323869e-06	8.010247e-10	3.002295e+01	5.548497e+01
