# Temperatura_=_-9.84
# Concentracion g/m^3_=_1620.0
# C_Vs_to_Am_M_A/Vsm_=_65563218390.804596
# pendiente_HvsI_1/m_=_3716.3
# ordenada_HvsI_A/m_=_1297.0
# frecuencia_Hz_=_135104.94850467774

Tiempo_(s)	Campo_(V.s)	Magnetizacion_(V.s)	Campo_(kA/m)	Magnetizacion_(A/m)
0.000000e+00	-5.532886e-06	-1.097733e-09	-3.836985e+01	-7.227218e+01
1.000000e-08	-5.533048e-06	-1.090732e-09	-3.837098e+01	-7.221492e+01
2.000000e-08	-5.533034e-06	-1.087409e-09	-3.837088e+01	-7.216006e+01
3.000000e-08	-5.532666e-06	-1.088124e-09	-3.836833e+01	-7.210777e+01
4.000000e-08	-5.531799e-06	-1.091039e-09	-3.836231e+01	-7.205817e+01
5.000000e-08	-5.530431e-06	-1.091287e-09	-3.835283e+01	-7.201133e+01
6.000000e-08	-5.528475e-06	-1.085081e-09	-3.833926e+01	-7.196725e+01
7.000000e-08	-5.525935e-06	-1.075232e-09	-3.832165e+01	-7.192589e+01
8.000000e-08	-5.522880e-06	-1.071613e-09	-3.830046e+01	-7.188716e+01
9.000000e-08	-5.519238e-06	-1.094333e-09	-3.827521e+01	-7.185091e+01
1.000000e-07	-5.515146e-06	-1.142111e-09	-3.824683e+01	-7.181693e+01
1.100000e-07	-5.510765e-06	-1.117308e-09	-3.821645e+01	-7.178496e+01
1.200000e-07	-5.506157e-06	-1.033878e-09	-3.818449e+01	-7.175472e+01
1.300000e-07	-5.501389e-06	-1.018483e-09	-3.815142e+01	-7.172587e+01
1.400000e-07	-5.496282e-06	-1.090051e-09	-3.811601e+01	-7.169802e+01
1.500000e-07	-5.490705e-06	-1.130416e-09	-3.807734e+01	-7.167078e+01
1.600000e-07	-5.484707e-06	-1.060556e-09	-3.803574e+01	-7.164371e+01
1.700000e-07	-5.478330e-06	-1.024773e-09	-3.799151e+01	-7.161638e+01
1.800000e-07	-5.471610e-06	-1.095577e-09	-3.794491e+01	-7.158834e+01
1.900000e-07	-5.464478e-06	-1.125342e-09	-3.789545e+01	-7.155912e+01
2.000000e-07	-5.456946e-06	-1.077523e-09	-3.784322e+01	-7.152828e+01
2.100000e-07	-5.449172e-06	-1.044092e-09	-3.778931e+01	-7.149539e+01
2.200000e-07	-5.441209e-06	-1.100804e-09	-3.773408e+01	-7.146004e+01
2.300000e-07	-5.432942e-06	-1.127939e-09	-3.767675e+01	-7.142183e+01
2.400000e-07	-5.424307e-06	-1.092153e-09	-3.761687e+01	-7.138041e+01
2.500000e-07	-5.415100e-06	-1.058604e-09	-3.755302e+01	-7.133547e+01
2.600000e-07	-5.405035e-06	-1.085722e-09	-3.748322e+01	-7.128675e+01
2.700000e-07	-5.394320e-06	-1.101111e-09	-3.740891e+01	-7.123400e+01
2.800000e-07	-5.383277e-06	-1.082192e-09	-3.733233e+01	-7.117708e+01
2.900000e-07	-5.371813e-06	-1.057917e-09	-3.725283e+01	-7.111585e+01
3.000000e-07	-5.359878e-06	-1.063507e-09	-3.717007e+01	-7.105025e+01
3.100000e-07	-5.347575e-06	-1.077614e-09	-3.708474e+01	-7.098029e+01
3.200000e-07	-5.334896e-06	-1.066705e-09	-3.699682e+01	-7.090600e+01
3.300000e-07	-5.321785e-06	-1.052999e-09	-3.690590e+01	-7.082749e+01
3.400000e-07	-5.308234e-06	-1.066932e-09	-3.681192e+01	-7.074492e+01
3.500000e-07	-5.294331e-06	-1.096121e-09	-3.671550e+01	-7.065849e+01
3.600000e-07	-5.280014e-06	-1.070365e-09	-3.661622e+01	-7.056845e+01
3.700000e-07	-5.265249e-06	-1.049189e-09	-3.651383e+01	-7.047508e+01
3.800000e-07	-5.250053e-06	-1.061608e-09	-3.640844e+01	-7.037870e+01
3.900000e-07	-5.234268e-06	-1.062819e-09	-3.629897e+01	-7.027968e+01
4.000000e-07	-5.217874e-06	-1.028476e-09	-3.618528e+01	-7.017838e+01
4.100000e-07	-5.201032e-06	-1.059792e-09	-3.606848e+01	-7.007520e+01
4.200000e-07	-5.183926e-06	-1.095578e-09	-3.594986e+01	-6.997054e+01
4.300000e-07	-5.166558e-06	-1.052000e-09	-3.582942e+01	-6.986481e+01
4.400000e-07	-5.148871e-06	-1.029930e-09	-3.570675e+01	-6.975841e+01
4.500000e-07	-5.130897e-06	-1.082786e-09	-3.558211e+01	-6.965175e+01
4.600000e-07	-5.112517e-06	-1.060818e-09	-3.545465e+01	-6.954519e+01
4.700000e-07	-5.093629e-06	-1.004625e-09	-3.532366e+01	-6.943911e+01
4.800000e-07	-5.074345e-06	-1.041723e-09	-3.518993e+01	-6.933385e+01
4.900000e-07	-5.054808e-06	-1.074229e-09	-3.505445e+01	-6.922970e+01
5.000000e-07	-5.035055e-06	-1.018069e-09	-3.491746e+01	-6.912695e+01
5.100000e-07	-5.015103e-06	-1.024772e-09	-3.477909e+01	-6.902584e+01
5.200000e-07	-4.994897e-06	-1.066545e-09	-3.463897e+01	-6.892656e+01
5.300000e-07	-4.974304e-06	-1.022414e-09	-3.449616e+01	-6.882928e+01
5.400000e-07	-4.953357e-06	-9.970267e-10	-3.435090e+01	-6.873411e+01
5.500000e-07	-4.932076e-06	-1.054724e-09	-3.420331e+01	-6.864113e+01
5.600000e-07	-4.910444e-06	-1.042427e-09	-3.405330e+01	-6.855038e+01
5.700000e-07	-4.888480e-06	-9.969664e-10	-3.390098e+01	-6.846186e+01
5.800000e-07	-4.866157e-06	-1.035422e-09	-3.374617e+01	-6.837552e+01
5.900000e-07	-4.843502e-06	-1.053271e-09	-3.358907e+01	-6.829129e+01
6.000000e-07	-4.820465e-06	-1.006249e-09	-3.342931e+01	-6.820906e+01
6.100000e-07	-4.797056e-06	-1.013267e-09	-3.326696e+01	-6.812869e+01
6.200000e-07	-4.773462e-06	-1.042163e-09	-3.310334e+01	-6.805003e+01
6.300000e-07	-4.749730e-06	-1.011780e-09	-3.293877e+01	-6.797288e+01
6.400000e-07	-4.725735e-06	-1.004439e-09	-3.277236e+01	-6.789705e+01
6.500000e-07	-4.701412e-06	-1.030196e-09	-3.260369e+01	-6.782232e+01
6.600000e-07	-4.676736e-06	-1.018722e-09	-3.243256e+01	-6.774847e+01
6.700000e-07	-4.651509e-06	-1.006359e-09	-3.225762e+01	-6.767529e+01
6.800000e-07	-4.625663e-06	-1.028458e-09	-3.207837e+01	-6.760254e+01
6.900000e-07	-4.599258e-06	-1.022070e-09	-3.189526e+01	-6.753001e+01
7.000000e-07	-4.572319e-06	-1.004547e-09	-3.170844e+01	-6.745748e+01
7.100000e-07	-4.544963e-06	-1.011915e-09	-3.151874e+01	-6.738475e+01
7.200000e-07	-4.517384e-06	-1.014107e-09	-3.132748e+01	-6.731165e+01
7.300000e-07	-4.489684e-06	-9.959456e-10	-3.113538e+01	-6.723799e+01
7.400000e-07	-4.461794e-06	-1.000807e-09	-3.094196e+01	-6.716363e+01
7.500000e-07	-4.433688e-06	-1.007680e-09	-3.074706e+01	-6.708844e+01
7.600000e-07	-4.405359e-06	-1.000104e-09	-3.055060e+01	-6.701230e+01
7.700000e-07	-4.376738e-06	-1.001671e-09	-3.035211e+01	-6.693514e+01
7.800000e-07	-4.347746e-06	-1.011114e-09	-3.015106e+01	-6.685687e+01
7.900000e-07	-4.318417e-06	-1.001490e-09	-2.994767e+01	-6.677745e+01
8.000000e-07	-4.288755e-06	-9.924443e-10	-2.974196e+01	-6.669686e+01
8.100000e-07	-4.258867e-06	-9.902826e-10	-2.953469e+01	-6.661509e+01
8.200000e-07	-4.228792e-06	-9.792619e-10	-2.932613e+01	-6.653214e+01
8.300000e-07	-4.198368e-06	-9.698440e-10	-2.911514e+01	-6.644804e+01
8.400000e-07	-4.167548e-06	-9.826727e-10	-2.890141e+01	-6.636282e+01
8.500000e-07	-4.136390e-06	-9.927927e-10	-2.868533e+01	-6.627651e+01
8.600000e-07	-4.105079e-06	-9.890987e-10	-2.846819e+01	-6.618919e+01
8.700000e-07	-4.073602e-06	-9.884246e-10	-2.824991e+01	-6.610088e+01
8.800000e-07	-4.041888e-06	-9.860371e-10	-2.802997e+01	-6.601165e+01
8.900000e-07	-4.009963e-06	-9.722722e-10	-2.780858e+01	-6.592156e+01
9.000000e-07	-3.977811e-06	-9.641791e-10	-2.758561e+01	-6.583064e+01
9.100000e-07	-3.945411e-06	-9.651256e-10	-2.736092e+01	-6.573894e+01
9.200000e-07	-3.912721e-06	-9.621326e-10	-2.713422e+01	-6.564649e+01
9.300000e-07	-3.879665e-06	-9.625363e-10	-2.690498e+01	-6.555331e+01
9.400000e-07	-3.846144e-06	-9.715091e-10	-2.667251e+01	-6.545939e+01
9.500000e-07	-3.812143e-06	-9.746470e-10	-2.643672e+01	-6.536474e+01
9.600000e-07	-3.777589e-06	-9.638441e-10	-2.619709e+01	-6.526932e+01
9.700000e-07	-3.742588e-06	-9.602968e-10	-2.595437e+01	-6.517309e+01
9.800000e-07	-3.707353e-06	-9.572544e-10	-2.571002e+01	-6.507599e+01
9.900000e-07	-3.671839e-06	-9.472967e-10	-2.546373e+01	-6.497794e+01
1.000000e-06	-3.636128e-06	-9.413894e-10	-2.521608e+01	-6.487884e+01
1.010000e-06	-3.600344e-06	-9.465215e-10	-2.496792e+01	-6.477858e+01
1.020000e-06	-3.564448e-06	-9.463421e-10	-2.471899e+01	-6.467701e+01
1.030000e-06	-3.528371e-06	-9.453587e-10	-2.446880e+01	-6.457401e+01
1.040000e-06	-3.492042e-06	-9.486537e-10	-2.421686e+01	-6.446940e+01
1.050000e-06	-3.455516e-06	-9.473745e-10	-2.396356e+01	-6.436302e+01
1.060000e-06	-3.418760e-06	-9.376543e-10	-2.370866e+01	-6.425468e+01
1.070000e-06	-3.381665e-06	-9.320130e-10	-2.345141e+01	-6.414419e+01
1.080000e-06	-3.344263e-06	-9.290946e-10	-2.319203e+01	-6.403135e+01
1.090000e-06	-3.306633e-06	-9.228913e-10	-2.293108e+01	-6.391597e+01
1.100000e-06	-3.268832e-06	-9.196372e-10	-2.266893e+01	-6.379784e+01
1.110000e-06	-3.230872e-06	-9.236994e-10	-2.240568e+01	-6.367676e+01
1.120000e-06	-3.192644e-06	-9.220161e-10	-2.214057e+01	-6.355253e+01
1.130000e-06	-3.154137e-06	-9.156316e-10	-2.187354e+01	-6.342495e+01
1.140000e-06	-3.115489e-06	-9.123918e-10	-2.160551e+01	-6.329384e+01
1.150000e-06	-3.076597e-06	-9.111981e-10	-2.133580e+01	-6.315902e+01
1.160000e-06	-3.037429e-06	-9.079061e-10	-2.106418e+01	-6.302030e+01
1.170000e-06	-2.998118e-06	-9.045547e-10	-2.079156e+01	-6.287754e+01
1.180000e-06	-2.958631e-06	-9.038433e-10	-2.051773e+01	-6.273059e+01
1.190000e-06	-2.918976e-06	-9.033164e-10	-2.024272e+01	-6.257930e+01
1.200000e-06	-2.879227e-06	-9.035890e-10	-1.996707e+01	-6.242355e+01
1.210000e-06	-2.839377e-06	-9.018969e-10	-1.969071e+01	-6.226323e+01
1.220000e-06	-2.799375e-06	-8.976000e-10	-1.941330e+01	-6.209824e+01
1.230000e-06	-2.759242e-06	-8.931617e-10	-1.913499e+01	-6.192849e+01
1.240000e-06	-2.718979e-06	-8.910902e-10	-1.885577e+01	-6.175390e+01
1.250000e-06	-2.678457e-06	-8.885058e-10	-1.857476e+01	-6.157440e+01
1.260000e-06	-2.637625e-06	-8.868315e-10	-1.829159e+01	-6.138994e+01
1.270000e-06	-2.596575e-06	-8.861357e-10	-1.800691e+01	-6.120045e+01
1.280000e-06	-2.555221e-06	-8.851211e-10	-1.772013e+01	-6.100589e+01
1.290000e-06	-2.513502e-06	-8.793840e-10	-1.743081e+01	-6.080620e+01
1.300000e-06	-2.471561e-06	-8.731137e-10	-1.713996e+01	-6.060134e+01
1.310000e-06	-2.429295e-06	-8.674263e-10	-1.684685e+01	-6.039127e+01
1.320000e-06	-2.386597e-06	-8.615913e-10	-1.655074e+01	-6.017591e+01
1.330000e-06	-2.343607e-06	-8.571375e-10	-1.625261e+01	-5.995522e+01
1.340000e-06	-2.300474e-06	-8.563571e-10	-1.595349e+01	-5.972911e+01
1.350000e-06	-2.257204e-06	-8.574831e-10	-1.565342e+01	-5.949750e+01
1.360000e-06	-2.213735e-06	-8.577312e-10	-1.535196e+01	-5.926030e+01
1.370000e-06	-2.170078e-06	-8.561254e-10	-1.504921e+01	-5.901738e+01
1.380000e-06	-2.126323e-06	-8.526997e-10	-1.474577e+01	-5.876861e+01
1.390000e-06	-2.082540e-06	-8.466091e-10	-1.444215e+01	-5.851383e+01
1.400000e-06	-2.038747e-06	-8.411853e-10	-1.413845e+01	-5.825286e+01
1.410000e-06	-1.994904e-06	-8.367115e-10	-1.383440e+01	-5.798548e+01
1.420000e-06	-1.951001e-06	-8.320509e-10	-1.352994e+01	-5.771147e+01
1.430000e-06	-1.906963e-06	-8.280253e-10	-1.322454e+01	-5.743055e+01
1.440000e-06	-1.862794e-06	-8.259705e-10	-1.291824e+01	-5.714243e+01
1.450000e-06	-1.818498e-06	-8.233473e-10	-1.261105e+01	-5.684678e+01
1.460000e-06	-1.774023e-06	-8.187390e-10	-1.230262e+01	-5.654324e+01
1.470000e-06	-1.729438e-06	-8.132927e-10	-1.199343e+01	-5.623143e+01
1.480000e-06	-1.684778e-06	-8.064043e-10	-1.168372e+01	-5.591090e+01
1.490000e-06	-1.639987e-06	-7.965249e-10	-1.137310e+01	-5.558121e+01
1.500000e-06	-1.594949e-06	-7.847811e-10	-1.106077e+01	-5.524185e+01
1.510000e-06	-1.549797e-06	-7.751003e-10	-1.074764e+01	-5.489229e+01
1.520000e-06	-1.504605e-06	-7.674333e-10	-1.043424e+01	-5.453198e+01
1.530000e-06	-1.459249e-06	-7.609203e-10	-1.011971e+01	-5.416032e+01
1.540000e-06	-1.413726e-06	-7.533335e-10	-9.804006e+00	-5.377667e+01
1.550000e-06	-1.368150e-06	-7.469838e-10	-9.487941e+00	-5.338037e+01
1.560000e-06	-1.322512e-06	-7.418435e-10	-9.171449e+00	-5.297073e+01
1.570000e-06	-1.276753e-06	-7.358380e-10	-8.854118e+00	-5.254704e+01
1.580000e-06	-1.230937e-06	-7.264857e-10	-8.536388e+00	-5.210852e+01
1.590000e-06	-1.185082e-06	-7.147250e-10	-8.218390e+00	-5.165442e+01
1.600000e-06	-1.139196e-06	-7.038133e-10	-7.900178e+00	-5.118391e+01
1.610000e-06	-1.093283e-06	-6.960672e-10	-7.581775e+00	-5.069617e+01
1.620000e-06	-1.047238e-06	-6.904636e-10	-7.262460e+00	-5.019035e+01
1.630000e-06	-1.001061e-06	-6.852489e-10	-6.942231e+00	-4.966558e+01
1.640000e-06	-9.548277e-07	-6.805981e-10	-6.621607e+00	-4.912095e+01
1.650000e-06	-9.085389e-07	-6.730538e-10	-6.300600e+00	-4.855557e+01
1.660000e-06	-8.621357e-07	-6.594277e-10	-5.978800e+00	-4.796851e+01
1.670000e-06	-8.156213e-07	-6.431101e-10	-5.656229e+00	-4.735885e+01
1.680000e-06	-7.691057e-07	-6.278830e-10	-5.333649e+00	-4.672563e+01
1.690000e-06	-7.225698e-07	-6.147589e-10	-5.010929e+00	-4.606793e+01
1.700000e-06	-6.760073e-07	-6.039737e-10	-4.688024e+00	-4.538478e+01
1.710000e-06	-6.294384e-07	-5.943617e-10	-4.365074e+00	-4.467527e+01
1.720000e-06	-5.828655e-07	-5.851338e-10	-4.042097e+00	-4.393845e+01
1.730000e-06	-5.362325e-07	-5.729448e-10	-3.718703e+00	-4.317340e+01
1.740000e-06	-4.895221e-07	-5.559650e-10	-3.394773e+00	-4.237923e+01
1.750000e-06	-4.427808e-07	-5.394096e-10	-3.070628e+00	-4.155506e+01
1.760000e-06	-3.959468e-07	-5.228860e-10	-2.745840e+00	-4.070003e+01
1.770000e-06	-3.490598e-07	-5.094671e-10	-2.420685e+00	-3.981334e+01
1.780000e-06	-3.021099e-07	-4.992238e-10	-2.095094e+00	-3.889421e+01
1.790000e-06	-2.551005e-07	-4.880877e-10	-1.769089e+00	-3.794191e+01
1.800000e-06	-2.081917e-07	-4.753716e-10	-1.443783e+00	-3.695578e+01
1.810000e-06	-1.612548e-07	-4.587406e-10	-1.118281e+00	-3.593521e+01
1.820000e-06	-1.142894e-07	-4.398544e-10	-7.925823e-01	-3.487967e+01
1.830000e-06	-6.734985e-08	-4.214519e-10	-4.670625e-01	-3.378868e+01
1.840000e-06	-2.034811e-08	-4.086270e-10	-1.411115e-01	-3.266188e+01
1.850000e-06	2.661917e-08	-3.984794e-10	1.846005e-01	-3.149898e+01
1.860000e-06	7.357705e-08	-3.881673e-10	5.102474e-01	-3.029980e+01
1.870000e-06	1.205338e-07	-3.731826e-10	8.358863e-01	-2.906427e+01
1.880000e-06	1.674792e-07	-3.544222e-10	1.161446e+00	-2.779242e+01
1.890000e-06	2.143542e-07	-3.326967e-10	1.486519e+00	-2.648440e+01
1.900000e-06	2.611974e-07	-3.085186e-10	1.811370e+00	-2.514051e+01
1.910000e-06	3.081729e-07	-2.851055e-10	2.137140e+00	-2.376117e+01
1.920000e-06	3.551631e-07	-2.639532e-10	2.463011e+00	-2.234692e+01
1.930000e-06	4.020148e-07	-2.462152e-10	2.787921e+00	-2.089847e+01
1.940000e-06	4.487517e-07	-2.295352e-10	3.112035e+00	-1.941665e+01
1.950000e-06	4.954742e-07	-2.109902e-10	3.436050e+00	-1.790246e+01
1.960000e-06	5.421435e-07	-1.902209e-10	3.759696e+00	-1.635704e+01
1.970000e-06	5.887337e-07	-1.694445e-10	4.082793e+00	-1.478165e+01
1.980000e-06	6.352999e-07	-1.497195e-10	4.405723e+00	-1.317775e+01
1.990000e-06	6.818309e-07	-1.291291e-10	4.728409e+00	-1.154690e+01
2.000000e-06	7.283638e-07	-1.050078e-10	5.051110e+00	-9.890820e+00
2.010000e-06	7.748000e-07	-7.849275e-11	5.373139e+00	-8.211363e+00
2.020000e-06	8.210978e-07	-5.250321e-11	5.694208e+00	-6.510512e+00
2.030000e-06	8.674164e-07	-2.850160e-11	6.015421e+00	-4.790367e+00
2.040000e-06	9.138031e-07	-7.436380e-12	6.337107e+00	-3.053146e+00
2.050000e-06	9.600617e-07	1.077279e-11	6.657904e+00	-1.301166e+00
2.060000e-06	1.006109e-06	2.950615e-11	6.977238e+00	4.631649e-01
2.070000e-06	1.052114e-06	5.217719e-11	7.296278e+00	2.237361e+00
2.080000e-06	1.098102e-06	7.902951e-11	7.615196e+00	4.018871e+00
2.090000e-06	1.144070e-06	1.062437e-10	7.933978e+00	5.805095e+00
2.100000e-06	1.189956e-06	1.330210e-10	8.252190e+00	7.593397e+00
2.110000e-06	1.235674e-06	1.586188e-10	8.569240e+00	9.381123e+00
2.120000e-06	1.281369e-06	1.831780e-10	8.886129e+00	1.116562e+01
2.130000e-06	1.326969e-06	2.062760e-10	9.202360e+00	1.294423e+01
2.140000e-06	1.372437e-06	2.280073e-10	9.517673e+00	1.471436e+01
2.150000e-06	1.417834e-06	2.490625e-10	9.832493e+00	1.647343e+01
2.160000e-06	1.463118e-06	2.722557e-10	1.014654e+01	1.821895e+01
2.170000e-06	1.508322e-06	2.980492e-10	1.046002e+01	1.994848e+01
2.180000e-06	1.553385e-06	3.236410e-10	1.077253e+01	2.165969e+01
2.190000e-06	1.598308e-06	3.474525e-10	1.108406e+01	2.335037e+01
2.200000e-06	1.643145e-06	3.706361e-10	1.139500e+01	2.501840e+01
2.210000e-06	1.687798e-06	3.937874e-10	1.170466e+01	2.666182e+01
2.220000e-06	1.732235e-06	4.174069e-10	1.201283e+01	2.827879e+01
2.230000e-06	1.776556e-06	4.403830e-10	1.232019e+01	2.986765e+01
2.240000e-06	1.820800e-06	4.613486e-10	1.262701e+01	3.142686e+01
2.250000e-06	1.864984e-06	4.797459e-10	1.293342e+01	3.295509e+01
2.260000e-06	1.909035e-06	4.983059e-10	1.323891e+01	3.445113e+01
2.270000e-06	1.952965e-06	5.180190e-10	1.354356e+01	3.591398e+01
2.280000e-06	1.996864e-06	5.364613e-10	1.384800e+01	3.734280e+01
2.290000e-06	2.040682e-06	5.545675e-10	1.415187e+01	3.873691e+01
2.300000e-06	2.084417e-06	5.739647e-10	1.445517e+01	4.009581e+01
2.310000e-06	2.128109e-06	5.936240e-10	1.475816e+01	4.141914e+01
2.320000e-06	2.171722e-06	6.122926e-10	1.506062e+01	4.270673e+01
2.330000e-06	2.215239e-06	6.311609e-10	1.536239e+01	4.395852e+01
2.340000e-06	2.258665e-06	6.496828e-10	1.566355e+01	4.517461e+01
2.350000e-06	2.301924e-06	6.658126e-10	1.596355e+01	4.635524e+01
2.360000e-06	2.344994e-06	6.801881e-10	1.626223e+01	4.750073e+01
2.370000e-06	2.387898e-06	6.938384e-10	1.655976e+01	4.861153e+01
2.380000e-06	2.430537e-06	7.053984e-10	1.685546e+01	4.968818e+01
2.390000e-06	2.472789e-06	7.179567e-10	1.714848e+01	5.073129e+01
2.400000e-06	2.514687e-06	7.335881e-10	1.743903e+01	5.174153e+01
2.410000e-06	2.556286e-06	7.502670e-10	1.772752e+01	5.271965e+01
2.420000e-06	2.597617e-06	7.656837e-10	1.801414e+01	5.366641e+01
2.430000e-06	2.638663e-06	7.785126e-10	1.829879e+01	5.458259e+01
2.440000e-06	2.679387e-06	7.883390e-10	1.858120e+01	5.546900e+01
2.450000e-06	2.719875e-06	7.954008e-10	1.886198e+01	5.632646e+01
2.460000e-06	2.760259e-06	8.021006e-10	1.914204e+01	5.715575e+01
2.470000e-06	2.800484e-06	8.118544e-10	1.942100e+01	5.795765e+01
2.480000e-06	2.840527e-06	8.224652e-10	1.969869e+01	5.873291e+01
2.490000e-06	2.880432e-06	8.327597e-10	1.997542e+01	5.948226e+01
2.500000e-06	2.920136e-06	8.434600e-10	2.025076e+01	6.020636e+01
2.510000e-06	2.959729e-06	8.536054e-10	2.052534e+01	6.090585e+01
2.520000e-06	2.999158e-06	8.622872e-10	2.079877e+01	6.158132e+01
2.530000e-06	3.038262e-06	8.695430e-10	2.106996e+01	6.223329e+01
2.540000e-06	3.077239e-06	8.765404e-10	2.134026e+01	6.286227e+01
2.550000e-06	3.116082e-06	8.846470e-10	2.160963e+01	6.346869e+01
2.560000e-06	3.154603e-06	8.919815e-10	2.187677e+01	6.405295e+01
2.570000e-06	3.192929e-06	8.977007e-10	2.214255e+01	6.461540e+01
2.580000e-06	3.231040e-06	9.035579e-10	2.240685e+01	6.515637e+01
2.590000e-06	3.268905e-06	9.097852e-10	2.266944e+01	6.567615e+01
2.600000e-06	3.306645e-06	9.158509e-10	2.293116e+01	6.617500e+01
2.610000e-06	3.344179e-06	9.222345e-10	2.319145e+01	6.665317e+01
2.620000e-06	3.381411e-06	9.296691e-10	2.344965e+01	6.711089e+01
2.630000e-06	3.418417e-06	9.371825e-10	2.370628e+01	6.754840e+01
2.640000e-06	3.455224e-06	9.444128e-10	2.396154e+01	6.796594e+01
2.650000e-06	3.491802e-06	9.500600e-10	2.421520e+01	6.836375e+01
2.660000e-06	3.528091e-06	9.532104e-10	2.446686e+01	6.874209e+01
2.670000e-06	3.564133e-06	9.545971e-10	2.471680e+01	6.910127e+01
2.680000e-06	3.600041e-06	9.571361e-10	2.496582e+01	6.944159e+01
2.690000e-06	3.635795e-06	9.613242e-10	2.521377e+01	6.976340e+01
2.700000e-06	3.671376e-06	9.657314e-10	2.546052e+01	7.006711e+01
2.710000e-06	3.706798e-06	9.715771e-10	2.570616e+01	7.035313e+01
2.720000e-06	3.741996e-06	9.791121e-10	2.595026e+01	7.062194e+01
2.730000e-06	3.776850e-06	9.862528e-10	2.619197e+01	7.087407e+01
2.740000e-06	3.811287e-06	9.924202e-10	2.643078e+01	7.111006e+01
2.750000e-06	3.845309e-06	9.967623e-10	2.666672e+01	7.133053e+01
2.760000e-06	3.878865e-06	9.999419e-10	2.689943e+01	7.153612e+01
2.770000e-06	3.911996e-06	1.002349e-09	2.712919e+01	7.172750e+01
2.780000e-06	3.944760e-06	1.004228e-09	2.735640e+01	7.190539e+01
2.790000e-06	3.977166e-06	1.008973e-09	2.758114e+01	7.207052e+01
2.800000e-06	4.009289e-06	1.016170e-09	2.780390e+01	7.222365e+01
2.810000e-06	4.041179e-06	1.021448e-09	2.802506e+01	7.236555e+01
2.820000e-06	4.072905e-06	1.024641e-09	2.824507e+01	7.249701e+01
2.830000e-06	4.104459e-06	1.027520e-09	2.846390e+01	7.261881e+01
2.840000e-06	4.135790e-06	1.029010e-09	2.868117e+01	7.273171e+01
2.850000e-06	4.166811e-06	1.027821e-09	2.889630e+01	7.283648e+01
2.860000e-06	4.197488e-06	1.025190e-09	2.910904e+01	7.293385e+01
2.870000e-06	4.227923e-06	1.025336e-09	2.932010e+01	7.302454e+01
2.880000e-06	4.258138e-06	1.029263e-09	2.952964e+01	7.310922e+01
2.890000e-06	4.288037e-06	1.033378e-09	2.973698e+01	7.318853e+01
2.900000e-06	4.317643e-06	1.034844e-09	2.994230e+01	7.326305e+01
