# Temperatura_=_14.4
# Concentracion g/m^3_=_1620.0
# C_Vs_to_Am_M_A/Vsm_=_65563218390.804596
# pendiente_HvsI_1/m_=_3716.3
# ordenada_HvsI_A/m_=_1297.0
# frecuencia_Hz_=_135094.40259738747

Tiempo_(s)	Campo_(V.s)	Magnetizacion_(V.s)	Campo_(kA/m)	Magnetizacion_(A/m)
0.000000e+00	-5.526221e-06	-1.624975e-09	-3.837851e+01	-1.065716e+02
1.000000e-08	-5.526491e-06	-1.622451e-09	-3.838039e+01	-1.064698e+02
2.000000e-08	-5.526496e-06	-1.620371e-09	-3.838043e+01	-1.063721e+02
3.000000e-08	-5.526077e-06	-1.621043e-09	-3.837751e+01	-1.062797e+02
4.000000e-08	-5.525160e-06	-1.621264e-09	-3.837114e+01	-1.061935e+02
5.000000e-08	-5.523713e-06	-1.615028e-09	-3.836110e+01	-1.061145e+02
6.000000e-08	-5.521665e-06	-1.599733e-09	-3.834688e+01	-1.060434e+02
7.000000e-08	-5.519119e-06	-1.588153e-09	-3.832920e+01	-1.059807e+02
8.000000e-08	-5.516116e-06	-1.616175e-09	-3.830833e+01	-1.059269e+02
9.000000e-08	-5.512632e-06	-1.691596e-09	-3.828414e+01	-1.058821e+02
1.000000e-07	-5.508683e-06	-1.687682e-09	-3.825671e+01	-1.058464e+02
1.100000e-07	-5.504426e-06	-1.566464e-09	-3.822715e+01	-1.058196e+02
1.200000e-07	-5.499945e-06	-1.500364e-09	-3.819603e+01	-1.058013e+02
1.300000e-07	-5.495072e-06	-1.620327e-09	-3.816219e+01	-1.057908e+02
1.400000e-07	-5.489824e-06	-1.676277e-09	-3.812574e+01	-1.057875e+02
1.500000e-07	-5.484233e-06	-1.609990e-09	-3.808691e+01	-1.057903e+02
1.600000e-07	-5.478312e-06	-1.522537e-09	-3.804580e+01	-1.057981e+02
1.700000e-07	-5.472025e-06	-1.619278e-09	-3.800213e+01	-1.058097e+02
1.800000e-07	-5.465113e-06	-1.675605e-09	-3.795413e+01	-1.058235e+02
1.900000e-07	-5.457806e-06	-1.597940e-09	-3.790339e+01	-1.058382e+02
2.000000e-07	-5.450362e-06	-1.524425e-09	-3.785169e+01	-1.058521e+02
2.100000e-07	-5.442671e-06	-1.603581e-09	-3.779827e+01	-1.058636e+02
2.200000e-07	-5.434707e-06	-1.706706e-09	-3.774297e+01	-1.058710e+02
2.300000e-07	-5.426530e-06	-1.672983e-09	-3.768618e+01	-1.058728e+02
2.400000e-07	-5.417973e-06	-1.608838e-09	-3.762675e+01	-1.058673e+02
2.500000e-07	-5.408737e-06	-1.606523e-09	-3.756261e+01	-1.058530e+02
2.600000e-07	-5.398670e-06	-1.656970e-09	-3.749270e+01	-1.058285e+02
2.700000e-07	-5.388005e-06	-1.629535e-09	-3.741863e+01	-1.057924e+02
2.800000e-07	-5.376882e-06	-1.611894e-09	-3.734139e+01	-1.057437e+02
2.900000e-07	-5.365168e-06	-1.615644e-09	-3.726003e+01	-1.056813e+02
3.000000e-07	-5.353128e-06	-1.655882e-09	-3.717642e+01	-1.056044e+02
3.100000e-07	-5.340827e-06	-1.628943e-09	-3.709099e+01	-1.055124e+02
3.200000e-07	-5.328000e-06	-1.614121e-09	-3.700191e+01	-1.054048e+02
3.300000e-07	-5.314764e-06	-1.613678e-09	-3.690999e+01	-1.052815e+02
3.400000e-07	-5.301319e-06	-1.653914e-09	-3.681661e+01	-1.051425e+02
3.500000e-07	-5.287514e-06	-1.616418e-09	-3.672074e+01	-1.049879e+02
3.600000e-07	-5.273132e-06	-1.594577e-09	-3.662086e+01	-1.048182e+02
3.700000e-07	-5.258251e-06	-1.618033e-09	-3.651752e+01	-1.046339e+02
3.800000e-07	-5.242946e-06	-1.629115e-09	-3.641122e+01	-1.044360e+02
3.900000e-07	-5.226998e-06	-1.562590e-09	-3.630047e+01	-1.042251e+02
4.000000e-07	-5.210527e-06	-1.578163e-09	-3.618608e+01	-1.040026e+02
4.100000e-07	-5.193812e-06	-1.634133e-09	-3.607000e+01	-1.037694e+02
4.200000e-07	-5.176771e-06	-1.581464e-09	-3.595165e+01	-1.035269e+02
4.300000e-07	-5.159357e-06	-1.535624e-09	-3.583072e+01	-1.032765e+02
4.400000e-07	-5.141690e-06	-1.613025e-09	-3.570802e+01	-1.030194e+02
4.500000e-07	-5.123654e-06	-1.618504e-09	-3.558276e+01	-1.027572e+02
4.600000e-07	-5.105183e-06	-1.508545e-09	-3.545448e+01	-1.024911e+02
4.700000e-07	-5.086286e-06	-1.539013e-09	-3.532325e+01	-1.022225e+02
4.800000e-07	-5.066983e-06	-1.607275e-09	-3.518919e+01	-1.019526e+02
4.900000e-07	-5.047429e-06	-1.533224e-09	-3.505340e+01	-1.016827e+02
5.000000e-07	-5.027722e-06	-1.497925e-09	-3.491654e+01	-1.014139e+02
5.100000e-07	-5.007832e-06	-1.590308e-09	-3.477841e+01	-1.011470e+02
5.200000e-07	-4.987592e-06	-1.550741e-09	-3.463784e+01	-1.008829e+02
5.300000e-07	-4.966890e-06	-1.487849e-09	-3.449407e+01	-1.006224e+02
5.400000e-07	-4.945877e-06	-1.563143e-09	-3.434814e+01	-1.003658e+02
5.500000e-07	-4.924614e-06	-1.581395e-09	-3.420047e+01	-1.001136e+02
5.600000e-07	-4.902988e-06	-1.471383e-09	-3.405029e+01	-9.986594e+01
5.700000e-07	-4.881058e-06	-1.505303e-09	-3.389799e+01	-9.962290e+01
5.800000e-07	-4.858718e-06	-1.568052e-09	-3.374284e+01	-9.938436e+01
5.900000e-07	-4.835931e-06	-1.499239e-09	-3.358458e+01	-9.915007e+01
6.000000e-07	-4.812836e-06	-1.475154e-09	-3.342419e+01	-9.891964e+01
6.100000e-07	-4.789416e-06	-1.549878e-09	-3.326155e+01	-9.869259e+01
6.200000e-07	-4.765816e-06	-1.512496e-09	-3.309765e+01	-9.846830e+01
6.300000e-07	-4.742057e-06	-1.462693e-09	-3.293265e+01	-9.824609e+01
6.400000e-07	-4.718078e-06	-1.509375e-09	-3.276612e+01	-9.802520e+01
6.500000e-07	-4.693806e-06	-1.512469e-09	-3.259755e+01	-9.780484e+01
6.600000e-07	-4.669021e-06	-1.456529e-09	-3.242543e+01	-9.758418e+01
6.700000e-07	-4.643669e-06	-1.484355e-09	-3.224937e+01	-9.736237e+01
6.800000e-07	-4.617765e-06	-1.504088e-09	-3.206947e+01	-9.713859e+01
6.900000e-07	-4.591320e-06	-1.457122e-09	-3.188581e+01	-9.691204e+01
7.000000e-07	-4.564398e-06	-1.453962e-09	-3.169884e+01	-9.668195e+01
7.100000e-07	-4.537094e-06	-1.482545e-09	-3.150923e+01	-9.644763e+01
7.200000e-07	-4.509531e-06	-1.455870e-09	-3.131781e+01	-9.620843e+01
7.300000e-07	-4.481830e-06	-1.441282e-09	-3.112543e+01	-9.596380e+01
7.400000e-07	-4.453963e-06	-1.464935e-09	-3.093190e+01	-9.571328e+01
7.500000e-07	-4.425886e-06	-1.449472e-09	-3.073690e+01	-9.545649e+01
7.600000e-07	-4.397569e-06	-1.423021e-09	-3.054025e+01	-9.519313e+01
7.700000e-07	-4.368967e-06	-1.430324e-09	-3.034161e+01	-9.492304e+01
7.800000e-07	-4.340012e-06	-1.429429e-09	-3.014053e+01	-9.464611e+01
7.900000e-07	-4.310679e-06	-1.407716e-09	-2.993682e+01	-9.436234e+01
8.000000e-07	-4.281079e-06	-1.418721e-09	-2.973125e+01	-9.407181e+01
8.100000e-07	-4.251263e-06	-1.422813e-09	-2.952418e+01	-9.377468e+01
8.200000e-07	-4.221134e-06	-1.401685e-09	-2.931494e+01	-9.347117e+01
8.300000e-07	-4.190618e-06	-1.395438e-09	-2.910301e+01	-9.316156e+01
8.400000e-07	-4.159806e-06	-1.406728e-09	-2.888903e+01	-9.284616e+01
8.500000e-07	-4.128676e-06	-1.389341e-09	-2.867284e+01	-9.252535e+01
8.600000e-07	-4.097273e-06	-1.377303e-09	-2.845476e+01	-9.219948e+01
8.700000e-07	-4.065737e-06	-1.381760e-09	-2.823574e+01	-9.186896e+01
8.800000e-07	-4.034153e-06	-1.375769e-09	-2.801640e+01	-9.153416e+01
8.900000e-07	-4.002332e-06	-1.358292e-09	-2.779540e+01	-9.119547e+01
9.000000e-07	-3.970252e-06	-1.363292e-09	-2.757261e+01	-9.085322e+01
9.100000e-07	-3.938022e-06	-1.358375e-09	-2.734879e+01	-9.050774e+01
9.200000e-07	-3.905439e-06	-1.344003e-09	-2.712250e+01	-9.015931e+01
9.300000e-07	-3.872370e-06	-1.343554e-09	-2.689285e+01	-8.980818e+01
9.400000e-07	-3.838788e-06	-1.347911e-09	-2.665963e+01	-8.945453e+01
9.500000e-07	-3.804694e-06	-1.332037e-09	-2.642285e+01	-8.909852e+01
9.600000e-07	-3.770141e-06	-1.321394e-09	-2.618289e+01	-8.874022e+01
9.700000e-07	-3.735243e-06	-1.320264e-09	-2.594053e+01	-8.837970e+01
9.800000e-07	-3.699977e-06	-1.308426e-09	-2.569561e+01	-8.801695e+01
9.900000e-07	-3.664397e-06	-1.294324e-09	-2.544851e+01	-8.765192e+01
1.000000e-06	-3.628689e-06	-1.294832e-09	-2.520053e+01	-8.728453e+01
1.010000e-06	-3.592930e-06	-1.293524e-09	-2.495219e+01	-8.691467e+01
1.020000e-06	-3.557072e-06	-1.283841e-09	-2.470316e+01	-8.654220e+01
1.030000e-06	-3.521092e-06	-1.283813e-09	-2.445329e+01	-8.616695e+01
1.040000e-06	-3.484903e-06	-1.283139e-09	-2.420196e+01	-8.578876e+01
1.050000e-06	-3.448425e-06	-1.268869e-09	-2.394863e+01	-8.540745e+01
1.060000e-06	-3.411610e-06	-1.254947e-09	-2.369295e+01	-8.502283e+01
1.070000e-06	-3.374544e-06	-1.251325e-09	-2.343554e+01	-8.463475e+01
1.080000e-06	-3.337281e-06	-1.245054e-09	-2.317676e+01	-8.424305e+01
1.090000e-06	-3.299674e-06	-1.237460e-09	-2.291558e+01	-8.384758e+01
1.100000e-06	-3.261821e-06	-1.235283e-09	-2.265270e+01	-8.344824e+01
1.110000e-06	-3.223778e-06	-1.229393e-09	-2.238850e+01	-8.304492e+01
1.120000e-06	-3.185502e-06	-1.214921e-09	-2.212268e+01	-8.263757e+01
1.130000e-06	-3.147044e-06	-1.207745e-09	-2.185560e+01	-8.222613e+01
1.140000e-06	-3.108323e-06	-1.203462e-09	-2.158669e+01	-8.181059e+01
1.150000e-06	-3.069351e-06	-1.197747e-09	-2.131604e+01	-8.139094e+01
1.160000e-06	-3.030243e-06	-1.191880e-09	-2.104444e+01	-8.096720e+01
1.170000e-06	-2.990989e-06	-1.189116e-09	-2.077183e+01	-8.053940e+01
1.180000e-06	-2.951531e-06	-1.178890e-09	-2.049780e+01	-8.010758e+01
1.190000e-06	-2.911931e-06	-1.168249e-09	-2.022279e+01	-7.967176e+01
1.200000e-06	-2.872230e-06	-1.160775e-09	-1.994707e+01	-7.923197e+01
1.210000e-06	-2.832395e-06	-1.153046e-09	-1.967042e+01	-7.878824e+01
1.220000e-06	-2.792392e-06	-1.143652e-09	-1.939261e+01	-7.834054e+01
1.230000e-06	-2.752251e-06	-1.144721e-09	-1.911384e+01	-7.788884e+01
1.240000e-06	-2.712031e-06	-1.146786e-09	-1.883452e+01	-7.743308e+01
1.250000e-06	-2.671671e-06	-1.140994e-09	-1.855423e+01	-7.697315e+01
1.260000e-06	-2.631091e-06	-1.129645e-09	-1.827241e+01	-7.650888e+01
1.270000e-06	-2.590167e-06	-1.116841e-09	-1.798820e+01	-7.604008e+01
1.280000e-06	-2.548866e-06	-1.102438e-09	-1.770137e+01	-7.556650e+01
1.290000e-06	-2.507332e-06	-1.092687e-09	-1.741292e+01	-7.508782e+01
1.300000e-06	-2.465496e-06	-1.087939e-09	-1.712239e+01	-7.460368e+01
1.310000e-06	-2.423311e-06	-1.084230e-09	-1.682942e+01	-7.411367e+01
1.320000e-06	-2.380849e-06	-1.080367e-09	-1.653452e+01	-7.361734e+01
1.330000e-06	-2.338086e-06	-1.076360e-09	-1.623755e+01	-7.311416e+01
1.340000e-06	-2.295056e-06	-1.070364e-09	-1.593871e+01	-7.260359e+01
1.350000e-06	-2.251818e-06	-1.061192e-09	-1.563843e+01	-7.208505e+01
1.360000e-06	-2.208414e-06	-1.054074e-09	-1.533700e+01	-7.155793e+01
1.370000e-06	-2.164902e-06	-1.044154e-09	-1.503481e+01	-7.102159e+01
1.380000e-06	-2.121312e-06	-1.030470e-09	-1.473209e+01	-7.047540e+01
1.390000e-06	-2.077595e-06	-1.016213e-09	-1.442849e+01	-6.991871e+01
1.400000e-06	-2.033829e-06	-1.004131e-09	-1.412454e+01	-6.935088e+01
1.410000e-06	-1.990041e-06	-9.957253e-10	-1.382044e+01	-6.877129e+01
1.420000e-06	-1.946167e-06	-9.887301e-10	-1.351574e+01	-6.817933e+01
1.430000e-06	-1.902165e-06	-9.812817e-10	-1.321016e+01	-6.757442e+01
1.440000e-06	-1.858067e-06	-9.742393e-10	-1.290391e+01	-6.695604e+01
1.450000e-06	-1.813865e-06	-9.611147e-10	-1.259693e+01	-6.632367e+01
1.460000e-06	-1.769468e-06	-9.441800e-10	-1.228861e+01	-6.567686e+01
1.470000e-06	-1.724961e-06	-9.249288e-10	-1.197951e+01	-6.501521e+01
1.480000e-06	-1.680300e-06	-9.076118e-10	-1.166935e+01	-6.433834e+01
1.490000e-06	-1.635488e-06	-8.918915e-10	-1.135814e+01	-6.364593e+01
1.500000e-06	-1.590570e-06	-8.789384e-10	-1.104620e+01	-6.293771e+01
1.510000e-06	-1.545537e-06	-8.706180e-10	-1.073345e+01	-6.221344e+01
1.520000e-06	-1.500373e-06	-8.621843e-10	-1.041979e+01	-6.147290e+01
1.530000e-06	-1.454983e-06	-8.521372e-10	-1.010457e+01	-6.071590e+01
1.540000e-06	-1.409526e-06	-8.401916e-10	-9.788881e+00	-5.994228e+01
1.550000e-06	-1.364012e-06	-8.236115e-10	-9.472794e+00	-5.915186e+01
1.560000e-06	-1.318364e-06	-8.064494e-10	-9.155779e+00	-5.834448e+01
1.570000e-06	-1.272698e-06	-7.902935e-10	-8.838638e+00	-5.751993e+01
1.580000e-06	-1.226962e-06	-7.768425e-10	-8.521006e+00	-5.667800e+01
1.590000e-06	-1.181097e-06	-7.645671e-10	-8.202488e+00	-5.581843e+01
1.600000e-06	-1.135230e-06	-7.545953e-10	-7.883948e+00	-5.494090e+01
1.610000e-06	-1.089337e-06	-7.462752e-10	-7.565228e+00	-5.404504e+01
1.620000e-06	-1.043333e-06	-7.358954e-10	-7.245739e+00	-5.313039e+01
1.630000e-06	-9.973450e-07	-7.227337e-10	-6.926364e+00	-5.219644e+01
1.640000e-06	-9.513305e-07	-7.059614e-10	-6.606803e+00	-5.124257e+01
1.650000e-06	-9.050931e-07	-6.881437e-10	-6.285693e+00	-5.026807e+01
1.660000e-06	-8.587347e-07	-6.692409e-10	-5.963743e+00	-4.927214e+01
1.670000e-06	-8.123206e-07	-6.512430e-10	-5.641406e+00	-4.825391e+01
1.680000e-06	-7.659065e-07	-6.348585e-10	-5.319070e+00	-4.721238e+01
1.690000e-06	-7.195030e-07	-6.199379e-10	-4.996807e+00	-4.614648e+01
1.700000e-06	-6.730334e-07	-6.033740e-10	-4.674084e+00	-4.505508e+01
1.710000e-06	-6.265281e-07	-5.859565e-10	-4.351114e+00	-4.393695e+01
1.720000e-06	-5.799784e-07	-5.684717e-10	-4.027836e+00	-4.279083e+01
1.730000e-06	-5.333469e-07	-5.507669e-10	-3.703989e+00	-4.161539e+01
1.740000e-06	-4.866159e-07	-5.315932e-10	-3.379451e+00	-4.040930e+01
1.750000e-06	-4.398419e-07	-5.118989e-10	-3.054615e+00	-3.917121e+01
1.760000e-06	-3.930288e-07	-4.912635e-10	-2.729508e+00	-3.789978e+01
1.770000e-06	-3.461849e-07	-4.694654e-10	-2.404186e+00	-3.659370e+01
1.780000e-06	-2.993706e-07	-4.480227e-10	-2.079070e+00	-3.525174e+01
1.790000e-06	-2.525661e-07	-4.278122e-10	-1.754022e+00	-3.387270e+01
1.800000e-06	-2.056798e-07	-4.089818e-10	-1.428405e+00	-3.245553e+01
1.810000e-06	-1.587450e-07	-3.895807e-10	-1.102453e+00	-3.099927e+01
1.820000e-06	-1.118439e-07	-3.704258e-10	-7.767337e-01	-2.950311e+01
1.830000e-06	-6.504080e-08	-3.516752e-10	-4.516955e-01	-2.796640e+01
1.840000e-06	-1.826518e-08	-3.324612e-10	-1.268481e-01	-2.638869e+01
1.850000e-06	2.856265e-08	-3.131150e-10	1.983620e-01	-2.476970e+01
1.860000e-06	7.545194e-08	-2.927799e-10	5.239988e-01	-2.310938e+01
1.870000e-06	1.223259e-07	-2.675973e-10	8.495291e-01	-2.140791e+01
1.880000e-06	1.691116e-07	-2.394750e-10	1.174447e+00	-1.966569e+01
1.890000e-06	2.159272e-07	-2.127312e-10	1.499572e+00	-1.788336e+01
1.900000e-06	2.627447e-07	-1.861873e-10	1.824710e+00	-1.606183e+01
1.910000e-06	3.094936e-07	-1.590795e-10	2.149372e+00	-1.420223e+01
1.920000e-06	3.562149e-07	-1.330000e-10	2.473842e+00	-1.230593e+01
1.930000e-06	4.029358e-07	-1.095890e-10	2.798309e+00	-1.037456e+01
1.940000e-06	4.497096e-07	-8.437772e-11	3.123145e+00	-8.409966e+00
1.950000e-06	4.964395e-07	-5.600505e-11	3.447674e+00	-6.414202e+00
1.960000e-06	5.431015e-07	-2.585259e-11	3.771733e+00	-4.389538e+00
1.970000e-06	5.897040e-07	5.209012e-12	4.095378e+00	-2.338426e+00
1.980000e-06	6.361952e-07	3.662531e-11	4.418250e+00	-2.634864e-01
1.990000e-06	6.826766e-07	6.870147e-11	4.741055e+00	1.832513e+00
2.000000e-06	7.291267e-07	1.009750e-10	5.063641e+00	3.946678e+00
2.010000e-06	7.755309e-07	1.296982e-10	5.385909e+00	6.076011e+00
2.020000e-06	8.218821e-07	1.558552e-10	5.707809e+00	8.217437e+00
2.030000e-06	8.681418e-07	1.835670e-10	6.029074e+00	1.036782e+01
2.040000e-06	9.143779e-07	2.116471e-10	6.350174e+00	1.252400e+01
2.050000e-06	9.605116e-07	2.409685e-10	6.670564e+00	1.468281e+01
2.060000e-06	1.006523e-06	2.721225e-10	6.990101e+00	1.684109e+01
2.070000e-06	1.052587e-06	3.057645e-10	7.310008e+00	1.899572e+01
2.080000e-06	1.098626e-06	3.397004e-10	7.629743e+00	2.114364e+01
2.090000e-06	1.144462e-06	3.711553e-10	7.948064e+00	2.328187e+01
2.100000e-06	1.190133e-06	4.006304e-10	8.265240e+00	2.540753e+01
2.110000e-06	1.235768e-06	4.297713e-10	8.582164e+00	2.751785e+01
2.120000e-06	1.281346e-06	4.576387e-10	8.898695e+00	2.961017e+01
2.130000e-06	1.326855e-06	4.857286e-10	9.214749e+00	3.168199e+01
2.140000e-06	1.372300e-06	5.127160e-10	9.530354e+00	3.373095e+01
2.150000e-06	1.417645e-06	5.397064e-10	9.845266e+00	3.575484e+01
2.160000e-06	1.462929e-06	5.688859e-10	1.015975e+01	3.775162e+01
2.170000e-06	1.508137e-06	5.985106e-10	1.047371e+01	3.971941e+01
2.180000e-06	1.553174e-06	6.272183e-10	1.078648e+01	4.165651e+01
2.190000e-06	1.598008e-06	6.549115e-10	1.109785e+01	4.356137e+01
2.200000e-06	1.642750e-06	6.812575e-10	1.140857e+01	4.543262e+01
2.210000e-06	1.687333e-06	7.064953e-10	1.171820e+01	4.726906e+01
2.220000e-06	1.731828e-06	7.318143e-10	1.202720e+01	4.906964e+01
2.230000e-06	1.776277e-06	7.569716e-10	1.233589e+01	5.083346e+01
2.240000e-06	1.820591e-06	7.800240e-10	1.264364e+01	5.255978e+01
2.250000e-06	1.864754e-06	8.011869e-10	1.295035e+01	5.424802e+01
2.260000e-06	1.908797e-06	8.228132e-10	1.325622e+01	5.589771e+01
2.270000e-06	1.952776e-06	8.451171e-10	1.356165e+01	5.750853e+01
2.280000e-06	1.996627e-06	8.687068e-10	1.386618e+01	5.908027e+01
2.290000e-06	2.040427e-06	8.900969e-10	1.417036e+01	6.061283e+01
2.300000e-06	2.084224e-06	9.093920e-10	1.447452e+01	6.210625e+01
2.310000e-06	2.127957e-06	9.293520e-10	1.477824e+01	6.356063e+01
2.320000e-06	2.171573e-06	9.493143e-10	1.508115e+01	6.497620e+01
2.330000e-06	2.215115e-06	9.686804e-10	1.538353e+01	6.635324e+01
2.340000e-06	2.258586e-06	9.841075e-10	1.568543e+01	6.769215e+01
2.350000e-06	2.301846e-06	9.981245e-10	1.598587e+01	6.899337e+01
2.360000e-06	2.344768e-06	1.013239e-09	1.628395e+01	7.025743e+01
2.370000e-06	2.387396e-06	1.033614e-09	1.657999e+01	7.148490e+01
2.380000e-06	2.429777e-06	1.054856e-09	1.687432e+01	7.267643e+01
2.390000e-06	2.471844e-06	1.074500e-09	1.716647e+01	7.383270e+01
2.400000e-06	2.513646e-06	1.092721e-09	1.745678e+01	7.495445e+01
2.410000e-06	2.555198e-06	1.107026e-09	1.774534e+01	7.604244e+01
2.420000e-06	2.596498e-06	1.117326e-09	1.803216e+01	7.709748e+01
2.430000e-06	2.637463e-06	1.124348e-09	1.831666e+01	7.812040e+01
2.440000e-06	2.678089e-06	1.132397e-09	1.859880e+01	7.911206e+01
2.450000e-06	2.718552e-06	1.142658e-09	1.887980e+01	8.007333e+01
2.460000e-06	2.758767e-06	1.156472e-09	1.915909e+01	8.100510e+01
2.470000e-06	2.798766e-06	1.175247e-09	1.943688e+01	8.190824e+01
2.480000e-06	2.838703e-06	1.193591e-09	1.971423e+01	8.278366e+01
2.490000e-06	2.878507e-06	1.207480e-09	1.999066e+01	8.363224e+01
2.500000e-06	2.918153e-06	1.218715e-09	2.026599e+01	8.445484e+01
2.510000e-06	2.957708e-06	1.223149e-09	2.054070e+01	8.525233e+01
2.520000e-06	2.997113e-06	1.228791e-09	2.081436e+01	8.602555e+01
2.530000e-06	3.036301e-06	1.236622e-09	2.108651e+01	8.677529e+01
2.540000e-06	3.075270e-06	1.246301e-09	2.135714e+01	8.750235e+01
2.550000e-06	3.114009e-06	1.258784e-09	2.162618e+01	8.820747e+01
2.560000e-06	3.152510e-06	1.272029e-09	2.189356e+01	8.889136e+01
2.570000e-06	3.190738e-06	1.284105e-09	2.215904e+01	8.955468e+01
2.580000e-06	3.228753e-06	1.292820e-09	2.242305e+01	9.019807e+01
2.590000e-06	3.266650e-06	1.300654e-09	2.268624e+01	9.082212e+01
2.600000e-06	3.304367e-06	1.307113e-09	2.294818e+01	9.142735e+01
2.610000e-06	3.341839e-06	1.312695e-09	2.320841e+01	9.201428e+01
2.620000e-06	3.379048e-06	1.320379e-09	2.346682e+01	9.258337e+01
2.630000e-06	3.416017e-06	1.330169e-09	2.372356e+01	9.313503e+01
2.640000e-06	3.452751e-06	1.342042e-09	2.397867e+01	9.366967e+01
2.650000e-06	3.489166e-06	1.353343e-09	2.423157e+01	9.418764e+01
2.660000e-06	3.525372e-06	1.362032e-09	2.448302e+01	9.468928e+01
2.670000e-06	3.561413e-06	1.367184e-09	2.473331e+01	9.517489e+01
2.680000e-06	3.597279e-06	1.370541e-09	2.498239e+01	9.564479e+01
2.690000e-06	3.632994e-06	1.373868e-09	2.523042e+01	9.609927e+01
2.700000e-06	3.668537e-06	1.379811e-09	2.547727e+01	9.653863e+01
2.710000e-06	3.703966e-06	1.388928e-09	2.572332e+01	9.696315e+01
2.720000e-06	3.739150e-06	1.397180e-09	2.596766e+01	9.737316e+01
2.730000e-06	3.773881e-06	1.404130e-09	2.620886e+01	9.776899e+01
2.740000e-06	3.808159e-06	1.409509e-09	2.644691e+01	9.815097e+01
2.750000e-06	3.842180e-06	1.413496e-09	2.668318e+01	9.851950e+01
2.760000e-06	3.875752e-06	1.415623e-09	2.691633e+01	9.887498e+01
2.770000e-06	3.908732e-06	1.418739e-09	2.714537e+01	9.921784e+01
2.780000e-06	3.941311e-06	1.424014e-09	2.737163e+01	9.954858e+01
2.790000e-06	3.973556e-06	1.431845e-09	2.759556e+01	9.986770e+01
2.800000e-06	4.005581e-06	1.442378e-09	2.781797e+01	1.001758e+02
2.810000e-06	4.037460e-06	1.451630e-09	2.803936e+01	1.004733e+02
2.820000e-06	4.069165e-06	1.457515e-09	2.825955e+01	1.007610e+02
2.830000e-06	4.100728e-06	1.462551e-09	2.847875e+01	1.010394e+02
2.840000e-06	4.132142e-06	1.465760e-09	2.869691e+01	1.013092e+02
2.850000e-06	4.163293e-06	1.466332e-09	2.891325e+01	1.015711e+02
2.860000e-06	4.194052e-06	1.467105e-09	2.912687e+01	1.018256e+02
2.870000e-06	4.224431e-06	1.471633e-09	2.933784e+01	1.020736e+02
2.880000e-06	4.254534e-06	1.479110e-09	2.954690e+01	1.023155e+02
2.890000e-06	4.284383e-06	1.487615e-09	2.975419e+01	1.025521e+02
2.900000e-06	4.313944e-06	1.495668e-09	2.995949e+01	1.027838e+02
