# Temperatura_=_-14.58
# Concentracion g/m^3_=_1620.0
# C_Vs_to_Am_M_A/Vsm_=_65563218390.804596
# pendiente_HvsI_1/m_=_3716.3
# ordenada_HvsI_A/m_=_1297.0
# frecuencia_Hz_=_135106.27028273983

Tiempo_(s)	Campo_(V.s)	Magnetizacion_(V.s)	Campo_(kA/m)	Magnetizacion_(A/m)
0.000000e+00	-5.527311e-06	-9.961943e-10	-3.836311e+01	-6.495988e+01
1.000000e-08	-5.527577e-06	-9.960626e-10	-3.836495e+01	-6.495361e+01
2.000000e-08	-5.527522e-06	-9.962095e-10	-3.836458e+01	-6.494966e+01
3.000000e-08	-5.527101e-06	-9.952374e-10	-3.836166e+01	-6.494787e+01
4.000000e-08	-5.526216e-06	-9.960370e-10	-3.835551e+01	-6.494805e+01
5.000000e-08	-5.524815e-06	-9.986140e-10	-3.834579e+01	-6.494998e+01
6.000000e-08	-5.522840e-06	-1.005419e-09	-3.833208e+01	-6.495338e+01
7.000000e-08	-5.520318e-06	-9.908894e-10	-3.831457e+01	-6.495795e+01
8.000000e-08	-5.517288e-06	-9.624237e-10	-3.829355e+01	-6.496335e+01
9.000000e-08	-5.513751e-06	-9.833879e-10	-3.826900e+01	-6.496920e+01
1.000000e-07	-5.509785e-06	-1.050063e-09	-3.824147e+01	-6.497511e+01
1.100000e-07	-5.505383e-06	-1.038706e-09	-3.821092e+01	-6.498067e+01
1.200000e-07	-5.500763e-06	-9.813521e-10	-3.817885e+01	-6.498546e+01
1.300000e-07	-5.495959e-06	-9.172642e-10	-3.814551e+01	-6.498904e+01
1.400000e-07	-5.490802e-06	-9.954626e-10	-3.810972e+01	-6.499100e+01
1.500000e-07	-5.485209e-06	-1.027015e-09	-3.807090e+01	-6.499091e+01
1.600000e-07	-5.479227e-06	-9.861988e-10	-3.802937e+01	-6.498839e+01
1.700000e-07	-5.472915e-06	-9.312425e-10	-3.798557e+01	-6.498307e+01
1.800000e-07	-5.466193e-06	-9.806339e-10	-3.793891e+01	-6.497460e+01
1.900000e-07	-5.459023e-06	-1.041560e-09	-3.788915e+01	-6.496270e+01
2.000000e-07	-5.451489e-06	-1.012641e-09	-3.783686e+01	-6.494711e+01
2.100000e-07	-5.443649e-06	-9.780111e-10	-3.778244e+01	-6.492762e+01
2.200000e-07	-5.435517e-06	-9.865638e-10	-3.772600e+01	-6.490409e+01
2.300000e-07	-5.427117e-06	-1.027268e-09	-3.766770e+01	-6.487643e+01
2.400000e-07	-5.418377e-06	-9.873933e-10	-3.760704e+01	-6.484459e+01
2.500000e-07	-5.409152e-06	-9.725145e-10	-3.754301e+01	-6.480861e+01
2.600000e-07	-5.399188e-06	-9.729139e-10	-3.747385e+01	-6.476856e+01
2.700000e-07	-5.388594e-06	-1.015752e-09	-3.740032e+01	-6.472456e+01
2.800000e-07	-5.377456e-06	-9.904259e-10	-3.732302e+01	-6.467682e+01
2.900000e-07	-5.365779e-06	-9.731388e-10	-3.724198e+01	-6.462555e+01
3.000000e-07	-5.353727e-06	-9.663619e-10	-3.715832e+01	-6.457103e+01
3.100000e-07	-5.341419e-06	-9.985878e-10	-3.707290e+01	-6.451357e+01
3.200000e-07	-5.328757e-06	-9.701541e-10	-3.698502e+01	-6.445351e+01
3.300000e-07	-5.315635e-06	-9.569553e-10	-3.689395e+01	-6.439120e+01
3.400000e-07	-5.302150e-06	-9.720713e-10	-3.680035e+01	-6.432702e+01
3.500000e-07	-5.288248e-06	-9.995524e-10	-3.670386e+01	-6.426133e+01
3.600000e-07	-5.273732e-06	-9.786906e-10	-3.660311e+01	-6.419453e+01
3.700000e-07	-5.258665e-06	-9.755400e-10	-3.649853e+01	-6.412696e+01
3.800000e-07	-5.243150e-06	-9.824676e-10	-3.639085e+01	-6.405898e+01
3.900000e-07	-5.227156e-06	-9.667392e-10	-3.627984e+01	-6.399091e+01
4.000000e-07	-5.210712e-06	-9.556400e-10	-3.616571e+01	-6.392305e+01
4.100000e-07	-5.193876e-06	-9.812642e-10	-3.604886e+01	-6.385565e+01
4.200000e-07	-5.176762e-06	-9.926298e-10	-3.593007e+01	-6.378895e+01
4.300000e-07	-5.159358e-06	-9.600282e-10	-3.580928e+01	-6.372312e+01
4.400000e-07	-5.141665e-06	-9.694684e-10	-3.568648e+01	-6.365830e+01
4.500000e-07	-5.123662e-06	-9.870325e-10	-3.556152e+01	-6.359459e+01
4.600000e-07	-5.105241e-06	-9.739045e-10	-3.543367e+01	-6.353206e+01
4.700000e-07	-5.086418e-06	-9.520385e-10	-3.530303e+01	-6.347070e+01
4.800000e-07	-5.067253e-06	-9.724455e-10	-3.517001e+01	-6.341051e+01
4.900000e-07	-5.047822e-06	-9.653037e-10	-3.503515e+01	-6.335144e+01
5.000000e-07	-5.028182e-06	-9.629625e-10	-3.489884e+01	-6.329339e+01
5.100000e-07	-5.008295e-06	-9.695328e-10	-3.476080e+01	-6.323627e+01
5.200000e-07	-4.988124e-06	-9.709399e-10	-3.462081e+01	-6.317995e+01
5.300000e-07	-4.967645e-06	-9.441033e-10	-3.447867e+01	-6.312431e+01
5.400000e-07	-4.946809e-06	-9.546949e-10	-3.433405e+01	-6.306921e+01
5.500000e-07	-4.925569e-06	-9.660943e-10	-3.418663e+01	-6.301451e+01
5.600000e-07	-4.903935e-06	-9.633238e-10	-3.403648e+01	-6.296010e+01
5.700000e-07	-4.881874e-06	-9.527478e-10	-3.388336e+01	-6.290586e+01
5.800000e-07	-4.859488e-06	-9.622119e-10	-3.372799e+01	-6.285171e+01
5.900000e-07	-4.836804e-06	-9.589309e-10	-3.357055e+01	-6.279758e+01
6.000000e-07	-4.813796e-06	-9.592534e-10	-3.341085e+01	-6.274343e+01
6.100000e-07	-4.790535e-06	-9.522340e-10	-3.324941e+01	-6.268926e+01
6.200000e-07	-4.767019e-06	-9.475826e-10	-3.308619e+01	-6.263508e+01
6.300000e-07	-4.743270e-06	-9.470984e-10	-3.292136e+01	-6.258095e+01
6.400000e-07	-4.719252e-06	-9.487908e-10	-3.275466e+01	-6.252696e+01
6.500000e-07	-4.694861e-06	-9.390242e-10	-3.258537e+01	-6.247322e+01
6.600000e-07	-4.670007e-06	-9.372736e-10	-3.241287e+01	-6.241986e+01
6.700000e-07	-4.644623e-06	-9.438354e-10	-3.223669e+01	-6.236705e+01
6.800000e-07	-4.618775e-06	-9.433246e-10	-3.205728e+01	-6.231496e+01
6.900000e-07	-4.592412e-06	-9.415771e-10	-3.187431e+01	-6.226378e+01
7.000000e-07	-4.565504e-06	-9.472569e-10	-3.168755e+01	-6.221370e+01
7.100000e-07	-4.538182e-06	-9.436250e-10	-3.149792e+01	-6.216489e+01
7.200000e-07	-4.510573e-06	-9.318469e-10	-3.130629e+01	-6.211753e+01
7.300000e-07	-4.482840e-06	-9.311152e-10	-3.111381e+01	-6.207178e+01
7.400000e-07	-4.454953e-06	-9.284666e-10	-3.092026e+01	-6.202777e+01
7.500000e-07	-4.426788e-06	-9.250798e-10	-3.072477e+01	-6.198560e+01
7.600000e-07	-4.398361e-06	-9.288262e-10	-3.052747e+01	-6.194531e+01
7.700000e-07	-4.369702e-06	-9.400468e-10	-3.032856e+01	-6.190695e+01
7.800000e-07	-4.340741e-06	-9.320668e-10	-3.012755e+01	-6.187046e+01
7.900000e-07	-4.311427e-06	-9.256077e-10	-2.992409e+01	-6.183579e+01
8.000000e-07	-4.281817e-06	-9.244276e-10	-2.971858e+01	-6.180278e+01
8.100000e-07	-4.251929e-06	-9.219149e-10	-2.951113e+01	-6.177127e+01
8.200000e-07	-4.221766e-06	-9.068304e-10	-2.930179e+01	-6.174102e+01
8.300000e-07	-4.191316e-06	-9.073706e-10	-2.909044e+01	-6.171175e+01
8.400000e-07	-4.160527e-06	-9.135586e-10	-2.887675e+01	-6.168314e+01
8.500000e-07	-4.129479e-06	-9.171861e-10	-2.866126e+01	-6.165481e+01
8.600000e-07	-4.098255e-06	-9.145332e-10	-2.844454e+01	-6.162638e+01
8.700000e-07	-4.066809e-06	-9.148005e-10	-2.822629e+01	-6.159742e+01
8.800000e-07	-4.035172e-06	-9.058097e-10	-2.800670e+01	-6.156750e+01
8.900000e-07	-4.003333e-06	-8.982441e-10	-2.778572e+01	-6.153618e+01
9.000000e-07	-3.971253e-06	-8.947964e-10	-2.756307e+01	-6.150301e+01
9.100000e-07	-3.938880e-06	-8.958993e-10	-2.733838e+01	-6.146758e+01
9.200000e-07	-3.906099e-06	-8.944489e-10	-2.711085e+01	-6.142949e+01
9.300000e-07	-3.872906e-06	-8.992037e-10	-2.688047e+01	-6.138836e+01
9.400000e-07	-3.839362e-06	-9.038141e-10	-2.664766e+01	-6.134389e+01
9.500000e-07	-3.805346e-06	-9.029249e-10	-2.641156e+01	-6.129581e+01
9.600000e-07	-3.770758e-06	-8.977059e-10	-2.617150e+01	-6.124390e+01
9.700000e-07	-3.735782e-06	-8.939215e-10	-2.592874e+01	-6.118805e+01
9.800000e-07	-3.700516e-06	-8.885810e-10	-2.568397e+01	-6.112817e+01
9.900000e-07	-3.665004e-06	-8.825271e-10	-2.543750e+01	-6.106430e+01
1.000000e-06	-3.629358e-06	-8.826165e-10	-2.519009e+01	-6.099651e+01
1.010000e-06	-3.593612e-06	-8.852592e-10	-2.494199e+01	-6.092499e+01
1.020000e-06	-3.557766e-06	-8.882060e-10	-2.469320e+01	-6.084998e+01
1.030000e-06	-3.521759e-06	-8.890565e-10	-2.444328e+01	-6.077180e+01
1.040000e-06	-3.485520e-06	-8.898368e-10	-2.419177e+01	-6.069085e+01
1.050000e-06	-3.449006e-06	-8.856202e-10	-2.393833e+01	-6.060757e+01
1.060000e-06	-3.412291e-06	-8.825019e-10	-2.368350e+01	-6.052246e+01
1.070000e-06	-3.375356e-06	-8.795573e-10	-2.342715e+01	-6.043607e+01
1.080000e-06	-3.338099e-06	-8.788635e-10	-2.316856e+01	-6.034897e+01
1.090000e-06	-3.300604e-06	-8.773322e-10	-2.290833e+01	-6.026173e+01
1.100000e-06	-3.262870e-06	-8.781539e-10	-2.264643e+01	-6.017494e+01
1.110000e-06	-3.224834e-06	-8.755105e-10	-2.238243e+01	-6.008917e+01
1.120000e-06	-3.186510e-06	-8.722831e-10	-2.211644e+01	-6.000497e+01
1.130000e-06	-3.147987e-06	-8.685174e-10	-2.184906e+01	-5.992284e+01
1.140000e-06	-3.109316e-06	-8.676161e-10	-2.158067e+01	-5.984321e+01
1.150000e-06	-3.070457e-06	-8.664657e-10	-2.131096e+01	-5.976648e+01
1.160000e-06	-3.031356e-06	-8.663252e-10	-2.103957e+01	-5.969293e+01
1.170000e-06	-2.992034e-06	-8.635851e-10	-2.076665e+01	-5.962276e+01
1.180000e-06	-2.952550e-06	-8.630354e-10	-2.049260e+01	-5.955609e+01
1.190000e-06	-2.912907e-06	-8.629839e-10	-2.021746e+01	-5.949289e+01
1.200000e-06	-2.873132e-06	-8.663339e-10	-1.994139e+01	-5.943307e+01
1.210000e-06	-2.833222e-06	-8.687657e-10	-1.966439e+01	-5.937638e+01
1.220000e-06	-2.793161e-06	-8.679947e-10	-1.938634e+01	-5.932248e+01
1.230000e-06	-2.753016e-06	-8.659355e-10	-1.910771e+01	-5.927091e+01
1.240000e-06	-2.712682e-06	-8.657747e-10	-1.882777e+01	-5.922109e+01
1.250000e-06	-2.672075e-06	-8.646702e-10	-1.854593e+01	-5.917236e+01
1.260000e-06	-2.631303e-06	-8.625023e-10	-1.826294e+01	-5.912394e+01
1.270000e-06	-2.590298e-06	-8.618300e-10	-1.797834e+01	-5.907499e+01
1.280000e-06	-2.548936e-06	-8.592644e-10	-1.769126e+01	-5.902459e+01
1.290000e-06	-2.507266e-06	-8.569554e-10	-1.740205e+01	-5.897175e+01
1.300000e-06	-2.465354e-06	-8.557030e-10	-1.711115e+01	-5.891545e+01
1.310000e-06	-2.423063e-06	-8.538385e-10	-1.681763e+01	-5.885465e+01
1.320000e-06	-2.380419e-06	-8.501809e-10	-1.652165e+01	-5.878829e+01
1.330000e-06	-2.337564e-06	-8.487308e-10	-1.622420e+01	-5.871532e+01
1.340000e-06	-2.294533e-06	-8.472830e-10	-1.592554e+01	-5.863470e+01
1.350000e-06	-2.251347e-06	-8.476838e-10	-1.562581e+01	-5.854544e+01
1.360000e-06	-2.207952e-06	-8.512406e-10	-1.532461e+01	-5.844661e+01
1.370000e-06	-2.164439e-06	-8.553515e-10	-1.502260e+01	-5.833733e+01
1.380000e-06	-2.120858e-06	-8.542483e-10	-1.472013e+01	-5.821682e+01
1.390000e-06	-2.077155e-06	-8.506010e-10	-1.441680e+01	-5.808435e+01
1.400000e-06	-2.033338e-06	-8.457430e-10	-1.411268e+01	-5.793932e+01
1.410000e-06	-1.989412e-06	-8.404838e-10	-1.380780e+01	-5.778123e+01
1.420000e-06	-1.945468e-06	-8.337279e-10	-1.350280e+01	-5.760965e+01
1.430000e-06	-1.901547e-06	-8.295009e-10	-1.319797e+01	-5.742430e+01
1.440000e-06	-1.857489e-06	-8.270306e-10	-1.289218e+01	-5.722496e+01
1.450000e-06	-1.813265e-06	-8.254225e-10	-1.258523e+01	-5.701155e+01
1.460000e-06	-1.768934e-06	-8.220923e-10	-1.227754e+01	-5.678403e+01
1.470000e-06	-1.724422e-06	-8.157744e-10	-1.196860e+01	-5.654249e+01
1.480000e-06	-1.679709e-06	-8.069932e-10	-1.165827e+01	-5.628707e+01
1.490000e-06	-1.634872e-06	-7.975549e-10	-1.134707e+01	-5.601794e+01
1.500000e-06	-1.589956e-06	-7.880435e-10	-1.103532e+01	-5.573536e+01
1.510000e-06	-1.544881e-06	-7.800864e-10	-1.072247e+01	-5.543959e+01
1.520000e-06	-1.499671e-06	-7.746188e-10	-1.040869e+01	-5.513088e+01
1.530000e-06	-1.454435e-06	-7.710324e-10	-1.009472e+01	-5.480950e+01
1.540000e-06	-1.409075e-06	-7.669633e-10	-9.779895e+00	-5.447568e+01
1.550000e-06	-1.363606e-06	-7.619835e-10	-9.464307e+00	-5.412961e+01
1.560000e-06	-1.318096e-06	-7.565091e-10	-9.148439e+00	-5.377142e+01
1.570000e-06	-1.272486e-06	-7.496513e-10	-8.831877e+00	-5.340116e+01
1.580000e-06	-1.226797e-06	-7.427967e-10	-8.514766e+00	-5.301878e+01
1.590000e-06	-1.181008e-06	-7.356499e-10	-8.196959e+00	-5.262415e+01
1.600000e-06	-1.135070e-06	-7.289012e-10	-7.878120e+00	-5.221700e+01
1.610000e-06	-1.089039e-06	-7.215574e-10	-7.558634e+00	-5.179695e+01
1.620000e-06	-1.042991e-06	-7.143699e-10	-7.239033e+00	-5.136350e+01
1.630000e-06	-9.968769e-07	-7.087560e-10	-6.918970e+00	-5.091601e+01
1.640000e-06	-9.506519e-07	-7.043851e-10	-6.598139e+00	-5.045371e+01
1.650000e-06	-9.043663e-07	-6.972365e-10	-6.276887e+00	-4.997570e+01
1.660000e-06	-8.579919e-07	-6.868241e-10	-5.955019e+00	-4.948096e+01
1.670000e-06	-8.115945e-07	-6.754933e-10	-5.632990e+00	-4.896836e+01
1.680000e-06	-7.652059e-07	-6.645381e-10	-5.311023e+00	-4.843666e+01
1.690000e-06	-7.187876e-07	-6.544920e-10	-4.988851e+00	-4.788451e+01
1.700000e-06	-6.722014e-07	-6.475259e-10	-4.665512e+00	-4.731052e+01
1.710000e-06	-6.255745e-07	-6.443143e-10	-4.341891e+00	-4.671321e+01
1.720000e-06	-5.789695e-07	-6.398853e-10	-4.018422e+00	-4.609106e+01
1.730000e-06	-5.322801e-07	-6.304644e-10	-3.694368e+00	-4.544255e+01
1.740000e-06	-4.856177e-07	-6.183196e-10	-3.370501e+00	-4.476612e+01
1.750000e-06	-4.389188e-07	-6.037098e-10	-3.046380e+00	-4.406027e+01
1.760000e-06	-3.921570e-07	-5.883973e-10	-2.721823e+00	-4.332350e+01
1.770000e-06	-3.453373e-07	-5.737320e-10	-2.396864e+00	-4.255440e+01
1.780000e-06	-2.984695e-07	-5.606924e-10	-2.071571e+00	-4.175162e+01
1.790000e-06	-2.515872e-07	-5.491713e-10	-1.746178e+00	-4.091391e+01
1.800000e-06	-2.047166e-07	-5.396159e-10	-1.420866e+00	-4.004017e+01
1.810000e-06	-1.578364e-07	-5.277870e-10	-1.095487e+00	-3.912938e+01
1.820000e-06	-1.109326e-07	-5.128055e-10	-7.699439e-01	-3.818070e+01
1.830000e-06	-6.405825e-08	-4.988035e-10	-4.446057e-01	-3.719344e+01
1.840000e-06	-1.715237e-08	-4.855503e-10	-1.190485e-01	-3.616709e+01
1.850000e-06	2.985662e-08	-4.708478e-10	2.072243e-01	-3.510130e+01
1.860000e-06	7.687869e-08	-4.550248e-10	5.335878e-01	-3.399593e+01
1.870000e-06	1.237898e-07	-4.404038e-10	8.591811e-01	-3.285099e+01
1.880000e-06	1.706712e-07	-4.253043e-10	1.184569e+00	-3.166671e+01
1.890000e-06	2.176058e-07	-4.081969e-10	1.510325e+00	-3.044350e+01
1.900000e-06	2.645387e-07	-3.877852e-10	1.836070e+00	-2.918193e+01
1.910000e-06	3.113817e-07	-3.668680e-10	2.161190e+00	-2.788277e+01
1.920000e-06	3.581742e-07	-3.445055e-10	2.485960e+00	-2.654695e+01
1.930000e-06	4.050003e-07	-3.222764e-10	2.810964e+00	-2.517558e+01
1.940000e-06	4.517926e-07	-3.028383e-10	3.135732e+00	-2.376989e+01
1.950000e-06	4.984764e-07	-2.852891e-10	3.459749e+00	-2.233127e+01
1.960000e-06	5.450345e-07	-2.692073e-10	3.782892e+00	-2.086123e+01
1.970000e-06	5.914889e-07	-2.516970e-10	4.105315e+00	-1.936141e+01
1.980000e-06	6.378828e-07	-2.333161e-10	4.427319e+00	-1.783353e+01
1.990000e-06	6.842596e-07	-2.118017e-10	4.749204e+00	-1.627940e+01
2.000000e-06	7.306090e-07	-1.855853e-10	5.070899e+00	-1.470094e+01
2.010000e-06	7.769623e-07	-1.583449e-10	5.392621e+00	-1.310008e+01
2.020000e-06	8.233152e-07	-1.342383e-10	5.714340e+00	-1.147885e+01
2.030000e-06	8.696102e-07	-1.147891e-10	6.035657e+00	-9.839290e+00
2.040000e-06	9.158030e-07	-9.742933e-11	6.356265e+00	-8.183484e+00
2.050000e-06	9.619444e-07	-7.832030e-11	6.676516e+00	-6.513532e+00
2.060000e-06	1.008027e-06	-5.549382e-11	6.996361e+00	-4.831546e+00
2.070000e-06	1.053999e-06	-2.804905e-11	7.315434e+00	-3.139645e+00
2.080000e-06	1.099878e-06	1.217913e-14	7.633864e+00	-1.439942e+00
2.090000e-06	1.145703e-06	2.798149e-11	7.951918e+00	2.654555e-01
2.100000e-06	1.191510e-06	5.713169e-11	8.269851e+00	1.974452e+00
2.110000e-06	1.237186e-06	8.306938e-11	8.586869e+00	3.684970e+00
2.120000e-06	1.282769e-06	1.047552e-10	8.903244e+00	5.394951e+00
2.130000e-06	1.328329e-06	1.249123e-10	9.219461e+00	7.102360e+00
2.140000e-06	1.373813e-06	1.451155e-10	9.535152e+00	8.805186e+00
2.150000e-06	1.419234e-06	1.652330e-10	9.850398e+00	1.050145e+01
2.160000e-06	1.464570e-06	1.890194e-10	1.016507e+01	1.218919e+01
2.170000e-06	1.509820e-06	2.151616e-10	1.047913e+01	1.386648e+01
2.180000e-06	1.554944e-06	2.413982e-10	1.079231e+01	1.553145e+01
2.190000e-06	1.599873e-06	2.662749e-10	1.110415e+01	1.718224e+01
2.200000e-06	1.644677e-06	2.890107e-10	1.141512e+01	1.881703e+01
2.210000e-06	1.689366e-06	3.093121e-10	1.172529e+01	2.043405e+01
2.220000e-06	1.733858e-06	3.280659e-10	1.203409e+01	2.203159e+01
2.230000e-06	1.778177e-06	3.481019e-10	1.234170e+01	2.360797e+01
2.240000e-06	1.822385e-06	3.696291e-10	1.264853e+01	2.516157e+01
2.250000e-06	1.866462e-06	3.916184e-10	1.295445e+01	2.669085e+01
2.260000e-06	1.910410e-06	4.138136e-10	1.325948e+01	2.819431e+01
2.270000e-06	1.954253e-06	4.351799e-10	1.356378e+01	2.967055e+01
2.280000e-06	1.998025e-06	4.547028e-10	1.386759e+01	3.111823e+01
2.290000e-06	2.041780e-06	4.716267e-10	1.417127e+01	3.253611e+01
2.300000e-06	2.085502e-06	4.867691e-10	1.447473e+01	3.392304e+01
2.310000e-06	2.129160e-06	5.017155e-10	1.477775e+01	3.527797e+01
2.320000e-06	2.172762e-06	5.188053e-10	1.508037e+01	3.659996e+01
2.330000e-06	2.216278e-06	5.389051e-10	1.538240e+01	3.788818e+01
2.340000e-06	2.259658e-06	5.588916e-10	1.568349e+01	3.914191e+01
2.350000e-06	2.302850e-06	5.780716e-10	1.598327e+01	4.036056e+01
2.360000e-06	2.345790e-06	5.961648e-10	1.628130e+01	4.154367e+01
2.370000e-06	2.388533e-06	6.104324e-10	1.657797e+01	4.269090e+01
2.380000e-06	2.431115e-06	6.201650e-10	1.687351e+01	4.380204e+01
2.390000e-06	2.473353e-06	6.302533e-10	1.716667e+01	4.487699e+01
2.400000e-06	2.515242e-06	6.429611e-10	1.745740e+01	4.591581e+01
2.410000e-06	2.556849e-06	6.582462e-10	1.774619e+01	4.691866e+01
2.420000e-06	2.598094e-06	6.737139e-10	1.803245e+01	4.788582e+01
2.430000e-06	2.638982e-06	6.868768e-10	1.831624e+01	4.881769e+01
2.440000e-06	2.679578e-06	6.978877e-10	1.859801e+01	4.971478e+01
2.450000e-06	2.719946e-06	7.079608e-10	1.887818e+01	5.057768e+01
2.460000e-06	2.760114e-06	7.170909e-10	1.915698e+01	5.140708e+01
2.470000e-06	2.800143e-06	7.263514e-10	1.943480e+01	5.220376e+01
2.480000e-06	2.840054e-06	7.364463e-10	1.971181e+01	5.296855e+01
2.490000e-06	2.879857e-06	7.469578e-10	1.998807e+01	5.370233e+01
2.500000e-06	2.919554e-06	7.574062e-10	2.026359e+01	5.440605e+01
2.510000e-06	2.959116e-06	7.681837e-10	2.053818e+01	5.508068e+01
2.520000e-06	2.998506e-06	7.788664e-10	2.081157e+01	5.572721e+01
2.530000e-06	3.037667e-06	7.868042e-10	2.108337e+01	5.634664e+01
2.540000e-06	3.076626e-06	7.931651e-10	2.135377e+01	5.693995e+01
2.550000e-06	3.115416e-06	7.990747e-10	2.162300e+01	5.750815e+01
2.560000e-06	3.153951e-06	8.053267e-10	2.189046e+01	5.805220e+01
2.570000e-06	3.192234e-06	8.131615e-10	2.215617e+01	5.857303e+01
2.580000e-06	3.230308e-06	8.205467e-10	2.242043e+01	5.907153e+01
2.590000e-06	3.268151e-06	8.269769e-10	2.268308e+01	5.954858e+01
2.600000e-06	3.305801e-06	8.331928e-10	2.294440e+01	6.000496e+01
2.610000e-06	3.343258e-06	8.391073e-10	2.320437e+01	6.044145e+01
2.620000e-06	3.380457e-06	8.446628e-10	2.346256e+01	6.085875e+01
2.630000e-06	3.417375e-06	8.505392e-10	2.371879e+01	6.125751e+01
2.640000e-06	3.454035e-06	8.574102e-10	2.397323e+01	6.163833e+01
2.650000e-06	3.490460e-06	8.631969e-10	2.422605e+01	6.200178e+01
2.660000e-06	3.526712e-06	8.681951e-10	2.447766e+01	6.234835e+01
2.670000e-06	3.562754e-06	8.729836e-10	2.472781e+01	6.267852e+01
2.680000e-06	3.598594e-06	8.769631e-10	2.497657e+01	6.299273e+01
2.690000e-06	3.634335e-06	8.832354e-10	2.522464e+01	6.329137e+01
2.700000e-06	3.669931e-06	8.902895e-10	2.547170e+01	6.357483e+01
2.710000e-06	3.705356e-06	8.955780e-10	2.571757e+01	6.384347e+01
2.720000e-06	3.740556e-06	9.009062e-10	2.596188e+01	6.409765e+01
2.730000e-06	3.775531e-06	9.044864e-10	2.620463e+01	6.433773e+01
2.740000e-06	3.810143e-06	9.074922e-10	2.644486e+01	6.456407e+01
2.750000e-06	3.844252e-06	9.104446e-10	2.668159e+01	6.477704e+01
2.760000e-06	3.877842e-06	9.135310e-10	2.691473e+01	6.497702e+01
2.770000e-06	3.910822e-06	9.176157e-10	2.714363e+01	6.516442e+01
2.780000e-06	3.943363e-06	9.218249e-10	2.736949e+01	6.533967e+01
2.790000e-06	3.975643e-06	9.267567e-10	2.759353e+01	6.550323e+01
2.800000e-06	4.007716e-06	9.317993e-10	2.781614e+01	6.565556e+01
2.810000e-06	4.039591e-06	9.344023e-10	2.803738e+01	6.579719e+01
2.820000e-06	4.071246e-06	9.355756e-10	2.825708e+01	6.592863e+01
2.830000e-06	4.102724e-06	9.379687e-10	2.847556e+01	6.605046e+01
2.840000e-06	4.134033e-06	9.405474e-10	2.869286e+01	6.616324e+01
2.850000e-06	4.165126e-06	9.409569e-10	2.890867e+01	6.626756e+01
2.860000e-06	4.195952e-06	9.411779e-10	2.912262e+01	6.636403e+01
2.870000e-06	4.226417e-06	9.435061e-10	2.933406e+01	6.645324e+01
2.880000e-06	4.256493e-06	9.456101e-10	2.954282e+01	6.653581e+01
2.890000e-06	4.286288e-06	9.459416e-10	2.974961e+01	6.661231e+01
2.900000e-06	4.315826e-06	9.445065e-10	2.995462e+01	6.668333e+01
