# Temperatura_=_13.57
# Concentracion g/m^3_=_1620.0
# C_Vs_to_Am_M_A/Vsm_=_65563218390.804596
# pendiente_HvsI_1/m_=_3716.3
# ordenada_HvsI_A/m_=_1297.0
# frecuencia_Hz_=_135093.83820694176

Tiempo_(s)	Campo_(V.s)	Magnetizacion_(V.s)	Campo_(kA/m)	Magnetizacion_(A/m)
0.000000e+00	-5.541383e-06	-1.693384e-09	-3.837039e+01	-1.120184e+02
1.000000e-08	-5.541662e-06	-1.690910e-09	-3.837233e+01	-1.119598e+02
2.000000e-08	-5.541655e-06	-1.689126e-09	-3.837228e+01	-1.119041e+02
3.000000e-08	-5.541236e-06	-1.687691e-09	-3.836938e+01	-1.118519e+02
4.000000e-08	-5.540355e-06	-1.688898e-09	-3.836328e+01	-1.118035e+02
5.000000e-08	-5.538952e-06	-1.688509e-09	-3.835356e+01	-1.117593e+02
6.000000e-08	-5.536881e-06	-1.687225e-09	-3.833922e+01	-1.117193e+02
7.000000e-08	-5.534169e-06	-1.677430e-09	-3.832044e+01	-1.116836e+02
8.000000e-08	-5.530983e-06	-1.682486e-09	-3.829838e+01	-1.116520e+02
9.000000e-08	-5.527320e-06	-1.723291e-09	-3.827302e+01	-1.116243e+02
1.000000e-07	-5.523227e-06	-1.750445e-09	-3.824468e+01	-1.116000e+02
1.100000e-07	-5.518867e-06	-1.685870e-09	-3.821449e+01	-1.115786e+02
1.200000e-07	-5.514389e-06	-1.648081e-09	-3.818348e+01	-1.115594e+02
1.300000e-07	-5.509680e-06	-1.634719e-09	-3.815087e+01	-1.115416e+02
1.400000e-07	-5.504504e-06	-1.727302e-09	-3.811503e+01	-1.115243e+02
1.500000e-07	-5.498859e-06	-1.696937e-09	-3.807594e+01	-1.115066e+02
1.600000e-07	-5.492844e-06	-1.653901e-09	-3.803429e+01	-1.114874e+02
1.700000e-07	-5.486482e-06	-1.633487e-09	-3.799024e+01	-1.114657e+02
1.800000e-07	-5.479724e-06	-1.702053e-09	-3.794345e+01	-1.114402e+02
1.900000e-07	-5.472486e-06	-1.704765e-09	-3.789333e+01	-1.114099e+02
2.000000e-07	-5.464936e-06	-1.670946e-09	-3.784105e+01	-1.113736e+02
2.100000e-07	-5.457233e-06	-1.678604e-09	-3.778771e+01	-1.113303e+02
2.200000e-07	-5.449203e-06	-1.725433e-09	-3.773211e+01	-1.112790e+02
2.300000e-07	-5.440870e-06	-1.727716e-09	-3.767441e+01	-1.112187e+02
2.400000e-07	-5.432158e-06	-1.677036e-09	-3.761409e+01	-1.111485e+02
2.500000e-07	-5.422751e-06	-1.679647e-09	-3.754895e+01	-1.110677e+02
2.600000e-07	-5.412654e-06	-1.688555e-09	-3.747903e+01	-1.109756e+02
2.700000e-07	-5.401993e-06	-1.714491e-09	-3.740521e+01	-1.108718e+02
2.800000e-07	-5.390885e-06	-1.675042e-09	-3.732830e+01	-1.107559e+02
2.900000e-07	-5.379395e-06	-1.674481e-09	-3.724874e+01	-1.106277e+02
3.000000e-07	-5.367486e-06	-1.664350e-09	-3.716627e+01	-1.104870e+02
3.100000e-07	-5.355206e-06	-1.691041e-09	-3.708125e+01	-1.103341e+02
3.200000e-07	-5.342493e-06	-1.646253e-09	-3.699321e+01	-1.101690e+02
3.300000e-07	-5.329350e-06	-1.658096e-09	-3.690221e+01	-1.099922e+02
3.400000e-07	-5.315810e-06	-1.664622e-09	-3.680845e+01	-1.098042e+02
3.500000e-07	-5.301921e-06	-1.689557e-09	-3.671228e+01	-1.096055e+02
3.600000e-07	-5.287595e-06	-1.647008e-09	-3.661309e+01	-1.093969e+02
3.700000e-07	-5.272746e-06	-1.664409e-09	-3.651027e+01	-1.091792e+02
3.800000e-07	-5.257409e-06	-1.650809e-09	-3.640406e+01	-1.089532e+02
3.900000e-07	-5.241510e-06	-1.634101e-09	-3.629398e+01	-1.087199e+02
4.000000e-07	-5.225093e-06	-1.630304e-09	-3.618030e+01	-1.084803e+02
4.100000e-07	-5.208365e-06	-1.670749e-09	-3.606447e+01	-1.082353e+02
4.200000e-07	-5.191268e-06	-1.646035e-09	-3.594608e+01	-1.079859e+02
4.300000e-07	-5.173850e-06	-1.614269e-09	-3.582548e+01	-1.077331e+02
4.400000e-07	-5.156199e-06	-1.643868e-09	-3.570325e+01	-1.074778e+02
4.500000e-07	-5.138180e-06	-1.644705e-09	-3.557848e+01	-1.072208e+02
4.600000e-07	-5.119623e-06	-1.599653e-09	-3.544999e+01	-1.069630e+02
4.700000e-07	-5.100677e-06	-1.600589e-09	-3.531880e+01	-1.067051e+02
4.800000e-07	-5.081449e-06	-1.631628e-09	-3.518566e+01	-1.064477e+02
4.900000e-07	-5.061887e-06	-1.597953e-09	-3.505021e+01	-1.061913e+02
5.000000e-07	-5.042110e-06	-1.593858e-09	-3.491326e+01	-1.059363e+02
5.100000e-07	-5.022104e-06	-1.617467e-09	-3.477474e+01	-1.056830e+02
5.200000e-07	-5.001799e-06	-1.602561e-09	-3.463413e+01	-1.054316e+02
5.300000e-07	-4.981100e-06	-1.565195e-09	-3.449081e+01	-1.051821e+02
5.400000e-07	-4.960033e-06	-1.599497e-09	-3.434493e+01	-1.049346e+02
5.500000e-07	-4.938602e-06	-1.597525e-09	-3.419654e+01	-1.046888e+02
5.600000e-07	-4.916790e-06	-1.571811e-09	-3.404551e+01	-1.044446e+02
5.700000e-07	-4.894709e-06	-1.569771e-09	-3.389261e+01	-1.042016e+02
5.800000e-07	-4.872356e-06	-1.588861e-09	-3.373783e+01	-1.039594e+02
5.900000e-07	-4.849584e-06	-1.557499e-09	-3.358015e+01	-1.037176e+02
6.000000e-07	-4.826472e-06	-1.559437e-09	-3.342011e+01	-1.034756e+02
6.100000e-07	-4.803011e-06	-1.564337e-09	-3.325766e+01	-1.032330e+02
6.200000e-07	-4.779240e-06	-1.553516e-09	-3.309306e+01	-1.029891e+02
6.300000e-07	-4.755335e-06	-1.539836e-09	-3.292753e+01	-1.027435e+02
6.400000e-07	-4.731232e-06	-1.556881e-09	-3.276064e+01	-1.024955e+02
6.500000e-07	-4.706759e-06	-1.539819e-09	-3.259118e+01	-1.022447e+02
6.600000e-07	-4.681853e-06	-1.531487e-09	-3.241872e+01	-1.019906e+02
6.700000e-07	-4.656465e-06	-1.536696e-09	-3.224292e+01	-1.017327e+02
6.800000e-07	-4.630550e-06	-1.532197e-09	-3.206348e+01	-1.014706e+02
6.900000e-07	-4.604110e-06	-1.515011e-09	-3.188040e+01	-1.012041e+02
7.000000e-07	-4.577146e-06	-1.524915e-09	-3.169370e+01	-1.009328e+02
7.100000e-07	-4.549811e-06	-1.523229e-09	-3.150442e+01	-1.006565e+02
7.200000e-07	-4.522253e-06	-1.509854e-09	-3.131360e+01	-1.003753e+02
7.300000e-07	-4.494491e-06	-1.509032e-09	-3.112136e+01	-1.000889e+02
7.400000e-07	-4.466502e-06	-1.507530e-09	-3.092756e+01	-9.979750e+01
7.500000e-07	-4.438254e-06	-1.492133e-09	-3.073196e+01	-9.950113e+01
7.600000e-07	-4.409811e-06	-1.487777e-09	-3.053501e+01	-9.919993e+01
7.700000e-07	-4.381096e-06	-1.490432e-09	-3.033618e+01	-9.889413e+01
7.800000e-07	-4.352047e-06	-1.473283e-09	-3.013503e+01	-9.858396e+01
7.900000e-07	-4.322672e-06	-1.467121e-09	-2.993163e+01	-9.826972e+01
8.000000e-07	-4.292929e-06	-1.470397e-09	-2.972568e+01	-9.795169e+01
8.100000e-07	-4.262974e-06	-1.464820e-09	-2.951826e+01	-9.763021e+01
8.200000e-07	-4.232784e-06	-1.446953e-09	-2.930922e+01	-9.730560e+01
8.300000e-07	-4.202168e-06	-1.448237e-09	-2.909722e+01	-9.697818e+01
8.400000e-07	-4.171230e-06	-1.443004e-09	-2.888300e+01	-9.664823e+01
8.500000e-07	-4.140064e-06	-1.437597e-09	-2.866719e+01	-9.631605e+01
8.600000e-07	-4.108655e-06	-1.434317e-09	-2.844970e+01	-9.598185e+01
8.700000e-07	-4.077078e-06	-1.435525e-09	-2.823106e+01	-9.564585e+01
8.800000e-07	-4.045341e-06	-1.419541e-09	-2.801130e+01	-9.530819e+01
8.900000e-07	-4.013418e-06	-1.412505e-09	-2.779025e+01	-9.496898e+01
9.000000e-07	-3.981304e-06	-1.408423e-09	-2.756789e+01	-9.462825e+01
9.100000e-07	-3.948943e-06	-1.402918e-09	-2.734381e+01	-9.428599e+01
9.200000e-07	-3.916205e-06	-1.391002e-09	-2.711712e+01	-9.394215e+01
9.300000e-07	-3.882957e-06	-1.393974e-09	-2.688690e+01	-9.359660e+01
9.400000e-07	-3.849071e-06	-1.389706e-09	-2.665226e+01	-9.324917e+01
9.500000e-07	-3.814727e-06	-1.380313e-09	-2.641445e+01	-9.289965e+01
9.600000e-07	-3.780011e-06	-1.372415e-09	-2.617407e+01	-9.254780e+01
9.700000e-07	-3.744913e-06	-1.368778e-09	-2.593103e+01	-9.219333e+01
9.800000e-07	-3.709622e-06	-1.358068e-09	-2.568667e+01	-9.183593e+01
9.900000e-07	-3.674168e-06	-1.353736e-09	-2.544118e+01	-9.147529e+01
1.000000e-06	-3.638501e-06	-1.349171e-09	-2.519420e+01	-9.111107e+01
1.010000e-06	-3.602643e-06	-1.341461e-09	-2.494591e+01	-9.074296e+01
1.020000e-06	-3.566671e-06	-1.331521e-09	-2.469683e+01	-9.037063e+01
1.030000e-06	-3.530592e-06	-1.327643e-09	-2.444700e+01	-8.999379e+01
1.040000e-06	-3.494189e-06	-1.321575e-09	-2.419494e+01	-8.961218e+01
1.050000e-06	-3.457476e-06	-1.310314e-09	-2.394072e+01	-8.922554e+01
1.060000e-06	-3.420607e-06	-1.304388e-09	-2.368543e+01	-8.883370e+01
1.070000e-06	-3.383556e-06	-1.298583e-09	-2.342887e+01	-8.843648e+01
1.080000e-06	-3.346226e-06	-1.289476e-09	-2.317039e+01	-8.803378e+01
1.090000e-06	-3.308541e-06	-1.279779e-09	-2.290945e+01	-8.762554e+01
1.100000e-06	-3.270657e-06	-1.274621e-09	-2.264713e+01	-8.721173e+01
1.110000e-06	-3.232577e-06	-1.266194e-09	-2.238345e+01	-8.679240e+01
1.120000e-06	-3.194195e-06	-1.261586e-09	-2.211768e+01	-8.636760e+01
1.130000e-06	-3.155639e-06	-1.255401e-09	-2.185070e+01	-8.593746e+01
1.140000e-06	-3.116862e-06	-1.249957e-09	-2.158220e+01	-8.550211e+01
1.150000e-06	-3.077823e-06	-1.241230e-09	-2.131188e+01	-8.506173e+01
1.160000e-06	-3.038734e-06	-1.234015e-09	-2.104121e+01	-8.461650e+01
1.170000e-06	-2.999466e-06	-1.222101e-09	-2.076931e+01	-8.416663e+01
1.180000e-06	-2.959910e-06	-1.215954e-09	-2.049541e+01	-8.371232e+01
1.190000e-06	-2.920235e-06	-1.214496e-09	-2.022069e+01	-8.325376e+01
1.200000e-06	-2.880450e-06	-1.213961e-09	-1.994520e+01	-8.279112e+01
1.210000e-06	-2.840482e-06	-1.207553e-09	-1.966845e+01	-8.232457e+01
1.220000e-06	-2.800337e-06	-1.201781e-09	-1.939048e+01	-8.185421e+01
1.230000e-06	-2.760059e-06	-1.192794e-09	-1.911157e+01	-8.138012e+01
1.240000e-06	-2.719612e-06	-1.183259e-09	-1.883151e+01	-8.090233e+01
1.250000e-06	-2.678916e-06	-1.172597e-09	-1.854972e+01	-8.042081e+01
1.260000e-06	-2.637999e-06	-1.164959e-09	-1.826639e+01	-7.993546e+01
1.270000e-06	-2.596757e-06	-1.155096e-09	-1.798082e+01	-7.944612e+01
1.280000e-06	-2.555215e-06	-1.147331e-09	-1.769316e+01	-7.895257e+01
1.290000e-06	-2.513498e-06	-1.138949e-09	-1.740431e+01	-7.845453e+01
1.300000e-06	-2.471433e-06	-1.129106e-09	-1.711303e+01	-7.795162e+01
1.310000e-06	-2.429025e-06	-1.119026e-09	-1.681938e+01	-7.744342e+01
1.320000e-06	-2.386380e-06	-1.111098e-09	-1.652410e+01	-7.692945e+01
1.330000e-06	-2.343433e-06	-1.101676e-09	-1.622672e+01	-7.640916e+01
1.340000e-06	-2.300282e-06	-1.092371e-09	-1.592793e+01	-7.588196e+01
1.350000e-06	-2.257051e-06	-1.086227e-09	-1.562858e+01	-7.534720e+01
1.360000e-06	-2.213647e-06	-1.079130e-09	-1.532803e+01	-7.480420e+01
1.370000e-06	-2.170101e-06	-1.068905e-09	-1.502650e+01	-7.425227e+01
1.380000e-06	-2.126390e-06	-1.056918e-09	-1.472384e+01	-7.369066e+01
1.390000e-06	-2.082546e-06	-1.045454e-09	-1.442025e+01	-7.311865e+01
1.400000e-06	-2.038670e-06	-1.033627e-09	-1.411644e+01	-7.253549e+01
1.410000e-06	-1.994732e-06	-1.023459e-09	-1.381220e+01	-7.194044e+01
1.420000e-06	-1.950719e-06	-1.012997e-09	-1.350743e+01	-7.133279e+01
1.430000e-06	-1.906604e-06	-1.004395e-09	-1.320196e+01	-7.071183e+01
1.440000e-06	-1.862367e-06	-9.956806e-10	-1.289565e+01	-7.007690e+01
1.450000e-06	-1.818047e-06	-9.866256e-10	-1.258877e+01	-6.942734e+01
1.460000e-06	-1.773636e-06	-9.740972e-10	-1.228125e+01	-6.876256e+01
1.470000e-06	-1.729083e-06	-9.614317e-10	-1.197275e+01	-6.808198e+01
1.480000e-06	-1.684338e-06	-9.493182e-10	-1.166292e+01	-6.738509e+01
1.490000e-06	-1.639390e-06	-9.369847e-10	-1.135169e+01	-6.667140e+01
1.500000e-06	-1.594301e-06	-9.188861e-10	-1.103947e+01	-6.594045e+01
1.510000e-06	-1.549088e-06	-9.031737e-10	-1.072640e+01	-6.519184e+01
1.520000e-06	-1.503825e-06	-8.919487e-10	-1.041299e+01	-6.442518e+01
1.530000e-06	-1.458471e-06	-8.839482e-10	-1.009894e+01	-6.364011e+01
1.540000e-06	-1.413012e-06	-8.732205e-10	-9.784166e+00	-6.283630e+01
1.550000e-06	-1.367467e-06	-8.610849e-10	-9.468802e+00	-6.201342e+01
1.560000e-06	-1.321877e-06	-8.462019e-10	-9.153117e+00	-6.117114e+01
1.570000e-06	-1.276224e-06	-8.298036e-10	-8.837006e+00	-6.030915e+01
1.580000e-06	-1.230449e-06	-8.135849e-10	-8.520045e+00	-5.942708e+01
1.590000e-06	-1.184549e-06	-7.989301e-10	-8.202217e+00	-5.852459e+01
1.600000e-06	-1.138533e-06	-7.850229e-10	-7.883582e+00	-5.760129e+01
1.610000e-06	-1.092517e-06	-7.738473e-10	-7.564956e+00	-5.665673e+01
1.620000e-06	-1.046492e-06	-7.638420e-10	-7.246264e+00	-5.569046e+01
1.630000e-06	-1.000308e-06	-7.544780e-10	-6.926469e+00	-5.470194e+01
1.640000e-06	-9.539373e-07	-7.430008e-10	-6.605382e+00	-5.369062e+01
1.650000e-06	-9.074581e-07	-7.252825e-10	-6.283544e+00	-5.265584e+01
1.660000e-06	-8.608766e-07	-7.045195e-10	-5.960998e+00	-5.159694e+01
1.670000e-06	-8.142768e-07	-6.835454e-10	-5.638326e+00	-5.051317e+01
1.680000e-06	-7.676854e-07	-6.647048e-10	-5.315711e+00	-4.940373e+01
1.690000e-06	-7.209689e-07	-6.467338e-10	-4.992231e+00	-4.826777e+01
1.700000e-06	-6.742247e-07	-6.307153e-10	-4.668558e+00	-4.710441e+01
1.710000e-06	-6.275629e-07	-6.137561e-10	-4.345456e+00	-4.591272e+01
1.720000e-06	-5.808642e-07	-5.955111e-10	-4.022099e+00	-4.469176e+01
1.730000e-06	-5.340516e-07	-5.732309e-10	-3.697952e+00	-4.344054e+01
1.740000e-06	-4.872624e-07	-5.496052e-10	-3.373969e+00	-4.215810e+01
1.750000e-06	-4.405042e-07	-5.276372e-10	-3.050199e+00	-4.084349e+01
1.760000e-06	-3.936686e-07	-5.083668e-10	-2.725893e+00	-3.949576e+01
1.770000e-06	-3.467512e-07	-4.901775e-10	-2.401022e+00	-3.811403e+01
1.780000e-06	-2.997760e-07	-4.716617e-10	-2.075749e+00	-3.669745e+01
1.790000e-06	-2.528091e-07	-4.510323e-10	-1.750535e+00	-3.524526e+01
1.800000e-06	-2.058836e-07	-4.293516e-10	-1.425607e+00	-3.375678e+01
1.810000e-06	-1.588127e-07	-4.058440e-10	-1.099673e+00	-3.223144e+01
1.820000e-06	-1.116207e-07	-3.833500e-10	-7.728989e-01	-3.066879e+01
1.830000e-06	-6.448983e-08	-3.629382e-10	-4.465493e-01	-2.906851e+01
1.840000e-06	-1.735570e-08	-3.433812e-10	-1.201767e-01	-2.743042e+01
1.850000e-06	2.976012e-08	-3.231052e-10	2.060691e-01	-2.575451e+01
1.860000e-06	7.680288e-08	-3.007724e-10	5.318089e-01	-2.404093e+01
1.870000e-06	1.238387e-07	-2.740175e-10	8.575010e-01	-2.229003e+01
1.880000e-06	1.708557e-07	-2.436614e-10	1.183062e+00	-2.050231e+01
1.890000e-06	2.177588e-07	-2.136587e-10	1.507835e+00	-1.867847e+01
1.900000e-06	2.646448e-07	-1.850771e-10	1.832489e+00	-1.681943e+01
1.910000e-06	3.115742e-07	-1.578637e-10	2.157445e+00	-1.492626e+01
1.920000e-06	3.584878e-07	-1.324453e-10	2.482290e+00	-1.300025e+01
1.930000e-06	4.054100e-07	-1.086604e-10	2.807195e+00	-1.104287e+01
1.940000e-06	4.523381e-07	-8.572756e-11	3.132141e+00	-9.055750e+00
1.950000e-06	4.992248e-07	-5.988568e-11	3.456800e+00	-7.040726e+00
1.960000e-06	5.459871e-07	-2.948402e-11	3.780598e+00	-4.999780e+00
1.970000e-06	5.926232e-07	3.464921e-12	4.103522e+00	-2.935050e+00
1.980000e-06	6.393161e-07	3.713146e-11	4.426839e+00	-8.488149e-01
1.990000e-06	6.860014e-07	6.973917e-11	4.750104e+00	1.256519e+00
2.000000e-06	7.326245e-07	1.009289e-10	5.072938e+00	3.378436e+00
2.010000e-06	7.791570e-07	1.287684e-10	5.395145e+00	5.514323e+00
2.020000e-06	8.255986e-07	1.554010e-10	5.716722e+00	7.661488e+00
2.030000e-06	8.720386e-07	1.834311e-10	6.038288e+00	9.817180e+00
2.040000e-06	9.183968e-07	2.136849e-10	6.359288e+00	1.197860e+01
2.050000e-06	9.645605e-07	2.449981e-10	6.678940e+00	1.414293e+01
2.060000e-06	1.010590e-06	2.774297e-10	6.997664e+00	1.630732e+01
2.070000e-06	1.056687e-06	3.093743e-10	7.316855e+00	1.846896e+01
2.080000e-06	1.102772e-06	3.411696e-10	7.635964e+00	2.062505e+01
2.090000e-06	1.148673e-06	3.720984e-10	7.953798e+00	2.277282e+01
2.100000e-06	1.194463e-06	4.024800e-10	8.270861e+00	2.490956e+01
2.110000e-06	1.240227e-06	4.328224e-10	8.587751e+00	2.703264e+01
2.120000e-06	1.285843e-06	4.638019e-10	8.903609e+00	2.913951e+01
2.130000e-06	1.331353e-06	4.944650e-10	9.218735e+00	3.122770e+01
2.140000e-06	1.376823e-06	5.220594e-10	9.533583e+00	3.329487e+01
2.150000e-06	1.422228e-06	5.480679e-10	9.847985e+00	3.533878e+01
2.160000e-06	1.467524e-06	5.756860e-10	1.016163e+01	3.735732e+01
2.170000e-06	1.512730e-06	6.039179e-10	1.047465e+01	3.934851e+01
2.180000e-06	1.557935e-06	6.326423e-10	1.078766e+01	4.131052e+01
2.190000e-06	1.603036e-06	6.617072e-10	1.109996e+01	4.324165e+01
2.200000e-06	1.647957e-06	6.904467e-10	1.141101e+01	4.514036e+01
2.210000e-06	1.692685e-06	7.176867e-10	1.172072e+01	4.700527e+01
2.220000e-06	1.737250e-06	7.416047e-10	1.202930e+01	4.883512e+01
2.230000e-06	1.781672e-06	7.646333e-10	1.233689e+01	5.062884e+01
2.240000e-06	1.825961e-06	7.865392e-10	1.264357e+01	5.238551e+01
2.250000e-06	1.870197e-06	8.086012e-10	1.294987e+01	5.410435e+01
2.260000e-06	1.914299e-06	8.326508e-10	1.325525e+01	5.578475e+01
2.270000e-06	1.958250e-06	8.566871e-10	1.355958e+01	5.742623e+01
2.280000e-06	2.002170e-06	8.790188e-10	1.386370e+01	5.902847e+01
2.290000e-06	2.046059e-06	8.994520e-10	1.416760e+01	6.059128e+01
2.300000e-06	2.089909e-06	9.192203e-10	1.447123e+01	6.211463e+01
2.310000e-06	2.133698e-06	9.380688e-10	1.477444e+01	6.359860e+01
2.320000e-06	2.177371e-06	9.565002e-10	1.507684e+01	6.504340e+01
2.330000e-06	2.220914e-06	9.771271e-10	1.537835e+01	6.644934e+01
2.340000e-06	2.264348e-06	9.971607e-10	1.567910e+01	6.781688e+01
2.350000e-06	2.307640e-06	1.016971e-09	1.597888e+01	6.914654e+01
2.360000e-06	2.350683e-06	1.036828e-09	1.627692e+01	7.043896e+01
2.370000e-06	2.393504e-06	1.053885e-09	1.657342e+01	7.169484e+01
2.380000e-06	2.436005e-06	1.068030e-09	1.686772e+01	7.291497e+01
2.390000e-06	2.478181e-06	1.082726e-09	1.715976e+01	7.410019e+01
2.400000e-06	2.520184e-06	1.099789e-09	1.745060e+01	7.525141e+01
2.410000e-06	2.561943e-06	1.116770e-09	1.773975e+01	7.636957e+01
2.420000e-06	2.603331e-06	1.133503e-09	1.802634e+01	7.745565e+01
2.430000e-06	2.644419e-06	1.148509e-09	1.831084e+01	7.851064e+01
2.440000e-06	2.685275e-06	1.161134e-09	1.859374e+01	7.953555e+01
2.450000e-06	2.725860e-06	1.172772e-09	1.887477e+01	8.053139e+01
2.460000e-06	2.766255e-06	1.184890e-09	1.915448e+01	8.149916e+01
2.470000e-06	2.806447e-06	1.198858e-09	1.943278e+01	8.243986e+01
2.480000e-06	2.846426e-06	1.213141e-09	1.970961e+01	8.335443e+01
2.490000e-06	2.886272e-06	1.226340e-09	1.998552e+01	8.424381e+01
2.500000e-06	2.926035e-06	1.239091e-09	2.026085e+01	8.510889e+01
2.510000e-06	2.965572e-06	1.250253e-09	2.053462e+01	8.595050e+01
2.520000e-06	3.004907e-06	1.258968e-09	2.080699e+01	8.676944e+01
2.530000e-06	3.044194e-06	1.265721e-09	2.107902e+01	8.756644e+01
2.540000e-06	3.083261e-06	1.272820e-09	2.134953e+01	8.834217e+01
2.550000e-06	3.121978e-06	1.281567e-09	2.161762e+01	8.909725e+01
2.560000e-06	3.160497e-06	1.290937e-09	2.188434e+01	8.983225e+01
2.570000e-06	3.198831e-06	1.302331e-09	2.214978e+01	9.054766e+01
2.580000e-06	3.236958e-06	1.314643e-09	2.241378e+01	9.124392e+01
2.590000e-06	3.274905e-06	1.326423e-09	2.267654e+01	9.192141e+01
2.600000e-06	3.312634e-06	1.336132e-09	2.293779e+01	9.258049e+01
2.610000e-06	3.350102e-06	1.344294e-09	2.319723e+01	9.322144e+01
2.620000e-06	3.387299e-06	1.352367e-09	2.345479e+01	9.384452e+01
2.630000e-06	3.424278e-06	1.360085e-09	2.371085e+01	9.444995e+01
2.640000e-06	3.461007e-06	1.368013e-09	2.396518e+01	9.503795e+01
2.650000e-06	3.497511e-06	1.375739e-09	2.421794e+01	9.560868e+01
2.660000e-06	3.533784e-06	1.383941e-09	2.446911e+01	9.616234e+01
2.670000e-06	3.569865e-06	1.392269e-09	2.471895e+01	9.669910e+01
2.680000e-06	3.605796e-06	1.399068e-09	2.496774e+01	9.721914e+01
2.690000e-06	3.641596e-06	1.406062e-09	2.521564e+01	9.772268e+01
2.700000e-06	3.677257e-06	1.412828e-09	2.546256e+01	9.820994e+01
2.710000e-06	3.712709e-06	1.417967e-09	2.570804e+01	9.868117e+01
2.720000e-06	3.747992e-06	1.423429e-09	2.595235e+01	9.913668e+01
2.730000e-06	3.783057e-06	1.429672e-09	2.619516e+01	9.957679e+01
2.740000e-06	3.817707e-06	1.438102e-09	2.643509e+01	1.000019e+02
2.750000e-06	3.851815e-06	1.446377e-09	2.667126e+01	1.004124e+02
2.760000e-06	3.885434e-06	1.452617e-09	2.690405e+01	1.008088e+02
2.770000e-06	3.918555e-06	1.458073e-09	2.713339e+01	1.011915e+02
2.780000e-06	3.951290e-06	1.463534e-09	2.736006e+01	1.015613e+02
2.790000e-06	3.983730e-06	1.470100e-09	2.758469e+01	1.019186e+02
2.800000e-06	4.015881e-06	1.476656e-09	2.780731e+01	1.022640e+02
2.810000e-06	4.047871e-06	1.482201e-09	2.802882e+01	1.025984e+02
2.820000e-06	4.079701e-06	1.485981e-09	2.824922e+01	1.029223e+02
2.830000e-06	4.111297e-06	1.491028e-09	2.846800e+01	1.032365e+02
2.840000e-06	4.142657e-06	1.497724e-09	2.868515e+01	1.035417e+02
2.850000e-06	4.173846e-06	1.502373e-09	2.890111e+01	1.038386e+02
2.860000e-06	4.204741e-06	1.504113e-09	2.911504e+01	1.041280e+02
2.870000e-06	4.235281e-06	1.506048e-09	2.932651e+01	1.044104e+02
2.880000e-06	4.265540e-06	1.510145e-09	2.953603e+01	1.046866e+02
2.890000e-06	4.295528e-06	1.515221e-09	2.974368e+01	1.049572e+02
2.900000e-06	4.325214e-06	1.519932e-09	2.994924e+01	1.052227e+02
