# Temperatura_=_-10.3
# Concentracion g/m^3_=_1620.0
# C_Vs_to_Am_M_A/Vsm_=_65563218390.804596
# pendiente_HvsI_1/m_=_3716.3
# ordenada_HvsI_A/m_=_1297.0
# frecuencia_Hz_=_135104.61955511826

Tiempo_(s)	Campo_(V.s)	Magnetizacion_(V.s)	Campo_(kA/m)	Magnetizacion_(A/m)
0.000000e+00	-5.510268e-06	-1.095739e-09	-3.838626e+01	-7.170263e+01
1.000000e-08	-5.510372e-06	-1.088376e-09	-3.838698e+01	-7.166552e+01
2.000000e-08	-5.510191e-06	-1.082968e-09	-3.838572e+01	-7.163092e+01
3.000000e-08	-5.509802e-06	-1.082601e-09	-3.838301e+01	-7.159857e+01
4.000000e-08	-5.509048e-06	-1.085010e-09	-3.837776e+01	-7.156814e+01
5.000000e-08	-5.507637e-06	-1.085347e-09	-3.836793e+01	-7.153926e+01
6.000000e-08	-5.505620e-06	-1.081131e-09	-3.835388e+01	-7.151146e+01
7.000000e-08	-5.503074e-06	-1.081796e-09	-3.833614e+01	-7.148427e+01
8.000000e-08	-5.499939e-06	-1.085086e-09	-3.831430e+01	-7.145715e+01
9.000000e-08	-5.496344e-06	-1.086328e-09	-3.828926e+01	-7.142955e+01
1.000000e-07	-5.492379e-06	-1.101107e-09	-3.826163e+01	-7.140088e+01
1.100000e-07	-5.488062e-06	-1.113478e-09	-3.823156e+01	-7.137056e+01
1.200000e-07	-5.483487e-06	-1.073879e-09	-3.819970e+01	-7.133801e+01
1.300000e-07	-5.478669e-06	-1.036576e-09	-3.816613e+01	-7.130264e+01
1.400000e-07	-5.473536e-06	-1.060099e-09	-3.813037e+01	-7.126392e+01
1.500000e-07	-5.468039e-06	-1.114318e-09	-3.809207e+01	-7.122133e+01
1.600000e-07	-5.462111e-06	-1.087485e-09	-3.805078e+01	-7.117440e+01
1.700000e-07	-5.455718e-06	-1.032869e-09	-3.800624e+01	-7.112271e+01
1.800000e-07	-5.448913e-06	-1.050910e-09	-3.795884e+01	-7.106592e+01
1.900000e-07	-5.441718e-06	-1.120689e-09	-3.790872e+01	-7.100374e+01
2.000000e-07	-5.434157e-06	-1.100804e-09	-3.785604e+01	-7.093597e+01
2.100000e-07	-5.426387e-06	-1.056487e-09	-3.780191e+01	-7.086248e+01
2.200000e-07	-5.418408e-06	-1.063638e-09	-3.774633e+01	-7.078324e+01
2.300000e-07	-5.410069e-06	-1.108016e-09	-3.768824e+01	-7.069830e+01
2.400000e-07	-5.401279e-06	-1.089761e-09	-3.762701e+01	-7.060778e+01
2.500000e-07	-5.392011e-06	-1.050839e-09	-3.756244e+01	-7.051191e+01
2.600000e-07	-5.382113e-06	-1.051374e-09	-3.749349e+01	-7.041099e+01
2.700000e-07	-5.371488e-06	-1.080828e-09	-3.741947e+01	-7.030540e+01
2.800000e-07	-5.360304e-06	-1.074078e-09	-3.734156e+01	-7.019557e+01
2.900000e-07	-5.348771e-06	-1.045142e-09	-3.726122e+01	-7.008202e+01
3.000000e-07	-5.336858e-06	-1.045073e-09	-3.717823e+01	-6.996532e+01
3.100000e-07	-5.324514e-06	-1.053210e-09	-3.709224e+01	-6.984607e+01
3.200000e-07	-5.311799e-06	-1.055153e-09	-3.700366e+01	-6.972491e+01
3.300000e-07	-5.298688e-06	-1.033414e-09	-3.691232e+01	-6.960251e+01
3.400000e-07	-5.285177e-06	-1.044921e-09	-3.681820e+01	-6.947954e+01
3.500000e-07	-5.271269e-06	-1.065384e-09	-3.672131e+01	-6.935668e+01
3.600000e-07	-5.256937e-06	-1.075654e-09	-3.662148e+01	-6.923459e+01
3.700000e-07	-5.242196e-06	-1.038696e-09	-3.651878e+01	-6.911391e+01
3.800000e-07	-5.227050e-06	-1.038843e-09	-3.641327e+01	-6.899525e+01
3.900000e-07	-5.211411e-06	-1.051014e-09	-3.630432e+01	-6.887918e+01
4.000000e-07	-5.195101e-06	-1.038396e-09	-3.619071e+01	-6.876620e+01
4.100000e-07	-5.178217e-06	-1.016967e-09	-3.607309e+01	-6.865677e+01
4.200000e-07	-5.161049e-06	-1.054618e-09	-3.595349e+01	-6.855127e+01
4.300000e-07	-5.143656e-06	-1.059059e-09	-3.583232e+01	-6.845001e+01
4.400000e-07	-5.125936e-06	-1.020174e-09	-3.570888e+01	-6.835323e+01
4.500000e-07	-5.107833e-06	-1.025802e-09	-3.558277e+01	-6.826110e+01
4.600000e-07	-5.089350e-06	-1.060195e-09	-3.545401e+01	-6.817368e+01
4.700000e-07	-5.070533e-06	-1.020581e-09	-3.532293e+01	-6.809099e+01
4.800000e-07	-5.051311e-06	-9.977067e-10	-3.518902e+01	-6.801295e+01
4.900000e-07	-5.031714e-06	-1.038536e-09	-3.505250e+01	-6.793941e+01
5.000000e-07	-5.011920e-06	-1.038493e-09	-3.491461e+01	-6.787016e+01
5.100000e-07	-4.991903e-06	-9.992450e-10	-3.477517e+01	-6.780492e+01
5.200000e-07	-4.971609e-06	-1.022450e-09	-3.463379e+01	-6.774337e+01
5.300000e-07	-4.951050e-06	-1.038695e-09	-3.449057e+01	-6.768512e+01
5.400000e-07	-4.930144e-06	-1.000507e-09	-3.434493e+01	-6.762975e+01
5.500000e-07	-4.908854e-06	-1.011026e-09	-3.419662e+01	-6.757682e+01
5.600000e-07	-4.887267e-06	-1.044964e-09	-3.404624e+01	-6.752585e+01
5.700000e-07	-4.865344e-06	-1.011391e-09	-3.389351e+01	-6.747636e+01
5.800000e-07	-4.843112e-06	-9.870408e-10	-3.373864e+01	-6.742787e+01
5.900000e-07	-4.820590e-06	-1.021369e-09	-3.358174e+01	-6.737989e+01
6.000000e-07	-4.797724e-06	-1.015299e-09	-3.342245e+01	-6.733196e+01
6.100000e-07	-4.774425e-06	-9.912102e-10	-3.326014e+01	-6.728361e+01
6.200000e-07	-4.750755e-06	-1.010928e-09	-3.309525e+01	-6.723444e+01
6.300000e-07	-4.726896e-06	-1.024202e-09	-3.292904e+01	-6.718404e+01
6.400000e-07	-4.702878e-06	-9.976988e-10	-3.276173e+01	-6.713207e+01
6.500000e-07	-4.678623e-06	-9.992606e-10	-3.259276e+01	-6.707820e+01
6.600000e-07	-4.653987e-06	-1.007434e-09	-3.242113e+01	-6.702217e+01
6.700000e-07	-4.628866e-06	-9.983063e-10	-3.224614e+01	-6.696376e+01
6.800000e-07	-4.603234e-06	-9.974924e-10	-3.206757e+01	-6.690278e+01
6.900000e-07	-4.577044e-06	-1.010910e-09	-3.188512e+01	-6.683909e+01
7.000000e-07	-4.550309e-06	-1.005398e-09	-3.169888e+01	-6.677261e+01
7.100000e-07	-4.523142e-06	-1.005883e-09	-3.150963e+01	-6.670328e+01
7.200000e-07	-4.495636e-06	-1.008559e-09	-3.131801e+01	-6.663108e+01
7.300000e-07	-4.467882e-06	-1.001540e-09	-3.112467e+01	-6.655603e+01
7.400000e-07	-4.439958e-06	-9.925910e-10	-3.093014e+01	-6.647819e+01
7.500000e-07	-4.411870e-06	-9.950130e-10	-3.073447e+01	-6.639763e+01
7.600000e-07	-4.383595e-06	-9.903514e-10	-3.053750e+01	-6.631443e+01
7.700000e-07	-4.355049e-06	-9.888291e-10	-3.033864e+01	-6.622871e+01
7.800000e-07	-4.326086e-06	-9.912064e-10	-3.013687e+01	-6.614059e+01
7.900000e-07	-4.296804e-06	-9.880680e-10	-2.993289e+01	-6.605019e+01
8.000000e-07	-4.267254e-06	-9.814075e-10	-2.972703e+01	-6.595764e+01
8.100000e-07	-4.237371e-06	-9.825951e-10	-2.951886e+01	-6.586306e+01
8.200000e-07	-4.207211e-06	-9.788228e-10	-2.930875e+01	-6.576657e+01
8.300000e-07	-4.176778e-06	-9.687445e-10	-2.909675e+01	-6.566828e+01
8.400000e-07	-4.146031e-06	-9.691192e-10	-2.888255e+01	-6.556828e+01
8.500000e-07	-4.114982e-06	-9.745285e-10	-2.866626e+01	-6.546668e+01
8.600000e-07	-4.083685e-06	-9.729369e-10	-2.844823e+01	-6.536353e+01
8.700000e-07	-4.052122e-06	-9.697817e-10	-2.822835e+01	-6.525891e+01
8.800000e-07	-4.020386e-06	-9.711337e-10	-2.800727e+01	-6.515285e+01
8.900000e-07	-3.988554e-06	-9.650931e-10	-2.778552e+01	-6.504541e+01
9.000000e-07	-3.956485e-06	-9.571930e-10	-2.756212e+01	-6.493660e+01
9.100000e-07	-3.924151e-06	-9.571503e-10	-2.733687e+01	-6.482645e+01
9.200000e-07	-3.891612e-06	-9.589201e-10	-2.711019e+01	-6.471498e+01
9.300000e-07	-3.858751e-06	-9.533250e-10	-2.688127e+01	-6.460218e+01
9.400000e-07	-3.825438e-06	-9.546628e-10	-2.664920e+01	-6.448809e+01
9.500000e-07	-3.791616e-06	-9.558926e-10	-2.641359e+01	-6.437271e+01
9.600000e-07	-3.757283e-06	-9.514050e-10	-2.617441e+01	-6.425607e+01
9.700000e-07	-3.722501e-06	-9.444347e-10	-2.593211e+01	-6.413819e+01
9.800000e-07	-3.687387e-06	-9.429038e-10	-2.568750e+01	-6.401911e+01
9.900000e-07	-3.652085e-06	-9.376537e-10	-2.544157e+01	-6.389888e+01
1.000000e-06	-3.616584e-06	-9.332533e-10	-2.519426e+01	-6.377755e+01
1.010000e-06	-3.580859e-06	-9.337691e-10	-2.494539e+01	-6.365520e+01
1.020000e-06	-3.544982e-06	-9.362186e-10	-2.469546e+01	-6.353191e+01
1.030000e-06	-3.508957e-06	-9.328422e-10	-2.444449e+01	-6.340778e+01
1.040000e-06	-3.472714e-06	-9.311578e-10	-2.419202e+01	-6.328291e+01
1.050000e-06	-3.436260e-06	-9.279348e-10	-2.393807e+01	-6.315740e+01
1.060000e-06	-3.399604e-06	-9.233908e-10	-2.368271e+01	-6.303137e+01
1.070000e-06	-3.362698e-06	-9.197658e-10	-2.342561e+01	-6.290493e+01
1.080000e-06	-3.325464e-06	-9.182813e-10	-2.316623e+01	-6.277819e+01
1.090000e-06	-3.287947e-06	-9.145094e-10	-2.290487e+01	-6.265124e+01
1.100000e-06	-3.250223e-06	-9.115104e-10	-2.264207e+01	-6.252419e+01
1.110000e-06	-3.212333e-06	-9.102575e-10	-2.237812e+01	-6.239709e+01
1.120000e-06	-3.174252e-06	-9.056486e-10	-2.211284e+01	-6.227000e+01
1.130000e-06	-3.135873e-06	-8.980707e-10	-2.184547e+01	-6.214292e+01
1.140000e-06	-3.097302e-06	-8.946444e-10	-2.157678e+01	-6.201585e+01
1.150000e-06	-3.058561e-06	-8.958848e-10	-2.130690e+01	-6.188874e+01
1.160000e-06	-3.019567e-06	-8.945524e-10	-2.103525e+01	-6.176150e+01
1.170000e-06	-2.980346e-06	-8.907355e-10	-2.076203e+01	-6.163399e+01
1.180000e-06	-2.940941e-06	-8.866303e-10	-2.048752e+01	-6.150603e+01
1.190000e-06	-2.901379e-06	-8.851705e-10	-2.021192e+01	-6.137739e+01
1.200000e-06	-2.861666e-06	-8.850067e-10	-1.993526e+01	-6.124780e+01
1.210000e-06	-2.821837e-06	-8.850438e-10	-1.965780e+01	-6.111693e+01
1.220000e-06	-2.781861e-06	-8.830779e-10	-1.937931e+01	-6.098440e+01
1.230000e-06	-2.741789e-06	-8.813330e-10	-1.910016e+01	-6.084981e+01
1.240000e-06	-2.701643e-06	-8.776394e-10	-1.882049e+01	-6.071268e+01
1.250000e-06	-2.661230e-06	-8.746299e-10	-1.853897e+01	-6.057252e+01
1.260000e-06	-2.620546e-06	-8.705834e-10	-1.825555e+01	-6.042880e+01
1.270000e-06	-2.579744e-06	-8.667648e-10	-1.797131e+01	-6.028094e+01
1.280000e-06	-2.538790e-06	-8.625796e-10	-1.768601e+01	-6.012837e+01
1.290000e-06	-2.497576e-06	-8.597340e-10	-1.739890e+01	-5.997048e+01
1.300000e-06	-2.456002e-06	-8.570502e-10	-1.710928e+01	-5.980667e+01
1.310000e-06	-2.414107e-06	-8.535968e-10	-1.681743e+01	-5.963631e+01
1.320000e-06	-2.371880e-06	-8.498746e-10	-1.652326e+01	-5.945882e+01
1.330000e-06	-2.329375e-06	-8.458109e-10	-1.622716e+01	-5.927359e+01
1.340000e-06	-2.286666e-06	-8.398241e-10	-1.592963e+01	-5.908005e+01
1.350000e-06	-2.243650e-06	-8.350517e-10	-1.562997e+01	-5.887766e+01
1.360000e-06	-2.200367e-06	-8.335351e-10	-1.532845e+01	-5.866591e+01
1.370000e-06	-2.156914e-06	-8.347768e-10	-1.502574e+01	-5.844432e+01
1.380000e-06	-2.113318e-06	-8.334102e-10	-1.472204e+01	-5.821246e+01
1.390000e-06	-2.069602e-06	-8.296010e-10	-1.441749e+01	-5.796994e+01
1.400000e-06	-2.025826e-06	-8.256758e-10	-1.411254e+01	-5.771644e+01
1.410000e-06	-1.981976e-06	-8.195619e-10	-1.380707e+01	-5.745166e+01
1.420000e-06	-1.938021e-06	-8.114026e-10	-1.350087e+01	-5.717537e+01
1.430000e-06	-1.893967e-06	-8.052008e-10	-1.319397e+01	-5.688739e+01
1.440000e-06	-1.849864e-06	-8.009196e-10	-1.288674e+01	-5.658757e+01
1.450000e-06	-1.805705e-06	-7.980645e-10	-1.257911e+01	-5.627581e+01
1.460000e-06	-1.761446e-06	-7.964000e-10	-1.227079e+01	-5.595206e+01
1.470000e-06	-1.717071e-06	-7.929903e-10	-1.196165e+01	-5.561629e+01
1.480000e-06	-1.672560e-06	-7.861933e-10	-1.165157e+01	-5.526850e+01
1.490000e-06	-1.627937e-06	-7.757629e-10	-1.134072e+01	-5.490870e+01
1.500000e-06	-1.583206e-06	-7.629278e-10	-1.102911e+01	-5.453693e+01
1.510000e-06	-1.538323e-06	-7.499744e-10	-1.071644e+01	-5.415320e+01
1.520000e-06	-1.493275e-06	-7.411478e-10	-1.040262e+01	-5.375754e+01
1.530000e-06	-1.448143e-06	-7.358956e-10	-1.008822e+01	-5.334993e+01
1.540000e-06	-1.402927e-06	-7.318567e-10	-9.773229e+00	-5.293036e+01
1.550000e-06	-1.357559e-06	-7.262093e-10	-9.457182e+00	-5.249876e+01
1.560000e-06	-1.312098e-06	-7.201959e-10	-9.140488e+00	-5.205501e+01
1.570000e-06	-1.266600e-06	-7.127783e-10	-8.823531e+00	-5.159894e+01
1.580000e-06	-1.220961e-06	-7.027896e-10	-8.505598e+00	-5.113033e+01
1.590000e-06	-1.175238e-06	-6.919690e-10	-8.187074e+00	-5.064887e+01
1.600000e-06	-1.129484e-06	-6.830119e-10	-7.868340e+00	-5.015420e+01
1.610000e-06	-1.083638e-06	-6.773399e-10	-7.548961e+00	-4.964585e+01
1.620000e-06	-1.037688e-06	-6.753885e-10	-7.228860e+00	-4.912331e+01
1.630000e-06	-9.916333e-07	-6.748151e-10	-6.908029e+00	-4.858594e+01
1.640000e-06	-9.455428e-07	-6.718316e-10	-6.586948e+00	-4.803305e+01
1.650000e-06	-8.994067e-07	-6.629172e-10	-6.265549e+00	-4.746386e+01
1.660000e-06	-8.531993e-07	-6.490222e-10	-5.943654e+00	-4.687749e+01
1.670000e-06	-8.069989e-07	-6.320450e-10	-5.621808e+00	-4.627302e+01
1.680000e-06	-7.607847e-07	-6.155465e-10	-5.299865e+00	-4.564943e+01
1.690000e-06	-7.145371e-07	-6.028941e-10	-4.977690e+00	-4.500565e+01
1.700000e-06	-6.681943e-07	-5.936292e-10	-4.654851e+00	-4.434055e+01
1.710000e-06	-6.217442e-07	-5.878295e-10	-4.331265e+00	-4.365297e+01
1.720000e-06	-5.753252e-07	-5.835422e-10	-4.007896e+00	-4.294169e+01
1.730000e-06	-5.288887e-07	-5.734791e-10	-3.684404e+00	-4.220549e+01
1.740000e-06	-4.824451e-07	-5.572869e-10	-3.360864e+00	-4.144313e+01
1.750000e-06	-4.359721e-07	-5.389451e-10	-3.037119e+00	-4.065338e+01
1.760000e-06	-3.894519e-07	-5.202406e-10	-2.713044e+00	-3.983500e+01
1.770000e-06	-3.428376e-07	-5.044743e-10	-2.388314e+00	-3.898682e+01
1.780000e-06	-2.960976e-07	-4.927893e-10	-2.062709e+00	-3.810767e+01
1.790000e-06	-2.493282e-07	-4.833916e-10	-1.736899e+00	-3.719646e+01
1.800000e-06	-2.025325e-07	-4.742437e-10	-1.410905e+00	-3.625217e+01
1.810000e-06	-1.557084e-07	-4.625461e-10	-1.084714e+00	-3.527385e+01
1.820000e-06	-1.088608e-07	-4.467674e-10	-7.583587e-01	-3.426066e+01
1.830000e-06	-6.210882e-08	-4.280707e-10	-4.326696e-01	-3.321184e+01
1.840000e-06	-1.542025e-08	-4.094206e-10	-1.074223e-01	-3.212677e+01
1.850000e-06	3.135631e-08	-3.926340e-10	2.184379e-01	-3.100493e+01
1.860000e-06	7.820026e-08	-3.780131e-10	5.447676e-01	-2.984597e+01
1.870000e-06	1.249761e-07	-3.638598e-10	8.706230e-01	-2.864964e+01
1.880000e-06	1.716288e-07	-3.472683e-10	1.195620e+00	-2.741587e+01
1.890000e-06	2.182132e-07	-3.283852e-10	1.520142e+00	-2.614473e+01
1.900000e-06	2.648614e-07	-3.070448e-10	1.845108e+00	-2.483643e+01
1.910000e-06	3.115900e-07	-2.852598e-10	2.170634e+00	-2.349137e+01
1.920000e-06	3.582239e-07	-2.632893e-10	2.495500e+00	-2.211009e+01
1.930000e-06	4.047916e-07	-2.428325e-10	2.819905e+00	-2.069329e+01
1.940000e-06	4.513570e-07	-2.253906e-10	3.144294e+00	-1.924184e+01
1.950000e-06	4.979309e-07	-2.081208e-10	3.468743e+00	-1.775676e+01
1.960000e-06	5.444985e-07	-1.890566e-10	3.793147e+00	-1.623923e+01
1.970000e-06	5.909505e-07	-1.692291e-10	4.116747e+00	-1.469057e+01
1.980000e-06	6.372814e-07	-1.485618e-10	4.439502e+00	-1.311226e+01
1.990000e-06	6.835909e-07	-1.261361e-10	4.762109e+00	-1.150589e+01
2.000000e-06	7.298872e-07	-1.012069e-10	5.084623e+00	-9.873222e+00
2.010000e-06	7.760850e-07	-7.653365e-11	5.406452e+00	-8.216104e+00
2.020000e-06	8.221624e-07	-5.488918e-11	5.727442e+00	-6.536518e+00
2.030000e-06	8.681465e-07	-3.522430e-11	6.047781e+00	-4.836549e+00
2.040000e-06	9.141613e-07	-1.640622e-11	6.368335e+00	-3.118378e+00
2.050000e-06	9.602380e-07	3.920585e-12	6.689319e+00	-1.384269e+00
2.060000e-06	1.006258e-06	2.754349e-11	7.009906e+00	3.634351e-01
2.070000e-06	1.052153e-06	5.263443e-11	7.329629e+00	2.122330e+00
2.080000e-06	1.097936e-06	7.714827e-11	7.648565e+00	3.889957e+00
2.090000e-06	1.143657e-06	1.030166e-10	7.967075e+00	5.663818e+00
2.100000e-06	1.189347e-06	1.290399e-10	8.285368e+00	7.441385e+00
2.110000e-06	1.234931e-06	1.524085e-10	8.602917e+00	9.220114e+00
2.120000e-06	1.280432e-06	1.760564e-10	8.919888e+00	1.099745e+01
2.130000e-06	1.325877e-06	2.005211e-10	9.236474e+00	1.277087e+01
2.140000e-06	1.371125e-06	2.226402e-10	9.551690e+00	1.453783e+01
2.150000e-06	1.416168e-06	2.435673e-10	9.865473e+00	1.629584e+01
2.160000e-06	1.461149e-06	2.652188e-10	1.017883e+01	1.804247e+01
2.170000e-06	1.506094e-06	2.873293e-10	1.049192e+01	1.977532e+01
2.180000e-06	1.550920e-06	3.107041e-10	1.080420e+01	2.149207e+01
2.190000e-06	1.595620e-06	3.354538e-10	1.111559e+01	2.319046e+01
2.200000e-06	1.640200e-06	3.596815e-10	1.142615e+01	2.486834e+01
2.210000e-06	1.684663e-06	3.832140e-10	1.173589e+01	2.652366e+01
2.220000e-06	1.729007e-06	4.062051e-10	1.204480e+01	2.815445e+01
2.230000e-06	1.773275e-06	4.273433e-10	1.235319e+01	2.975888e+01
2.240000e-06	1.817464e-06	4.460602e-10	1.266103e+01	3.133525e+01
2.250000e-06	1.861540e-06	4.648788e-10	1.296807e+01	3.288198e+01
2.260000e-06	1.905558e-06	4.849578e-10	1.327471e+01	3.439761e+01
2.270000e-06	1.949526e-06	5.060293e-10	1.358101e+01	3.588087e+01
2.280000e-06	1.993408e-06	5.263288e-10	1.388670e+01	3.733058e+01
2.290000e-06	2.037245e-06	5.434617e-10	1.419209e+01	3.874576e+01
2.300000e-06	2.081049e-06	5.592453e-10	1.449724e+01	4.012556e+01
2.310000e-06	2.124753e-06	5.763027e-10	1.480169e+01	4.146928e+01
2.320000e-06	2.168341e-06	5.937859e-10	1.510534e+01	4.277638e+01
2.330000e-06	2.211767e-06	6.111290e-10	1.540786e+01	4.404647e+01
2.340000e-06	2.254986e-06	6.300871e-10	1.570894e+01	4.527930e+01
2.350000e-06	2.298004e-06	6.497307e-10	1.600862e+01	4.647477e+01
2.360000e-06	2.340763e-06	6.674655e-10	1.630649e+01	4.763293e+01
2.370000e-06	2.383268e-06	6.833596e-10	1.660259e+01	4.875395e+01
2.380000e-06	2.425410e-06	6.960117e-10	1.689617e+01	4.983812e+01
2.390000e-06	2.467194e-06	7.069559e-10	1.718725e+01	5.088586e+01
2.400000e-06	2.508659e-06	7.205452e-10	1.747611e+01	5.189768e+01
2.410000e-06	2.549747e-06	7.356609e-10	1.776234e+01	5.287422e+01
2.420000e-06	2.590589e-06	7.494904e-10	1.804686e+01	5.381619e+01
2.430000e-06	2.631330e-06	7.614873e-10	1.833067e+01	5.472436e+01
2.440000e-06	2.671943e-06	7.721651e-10	1.861360e+01	5.559959e+01
2.450000e-06	2.712280e-06	7.824115e-10	1.889459e+01	5.644279e+01
2.460000e-06	2.752456e-06	7.934653e-10	1.917447e+01	5.725492e+01
2.470000e-06	2.792510e-06	8.055155e-10	1.945350e+01	5.803697e+01
2.480000e-06	2.832403e-06	8.174013e-10	1.973141e+01	5.878993e+01
2.490000e-06	2.872198e-06	8.283909e-10	2.000863e+01	5.951484e+01
2.500000e-06	2.911846e-06	8.384937e-10	2.028484e+01	6.021271e+01
2.510000e-06	2.951350e-06	8.476788e-10	2.056003e+01	6.088457e+01
2.520000e-06	2.990641e-06	8.559868e-10	2.083374e+01	6.153141e+01
2.530000e-06	3.029614e-06	8.630849e-10	2.110524e+01	6.215421e+01
2.540000e-06	3.068367e-06	8.701754e-10	2.137521e+01	6.275392e+01
2.550000e-06	3.106905e-06	8.784290e-10	2.164368e+01	6.333144e+01
2.560000e-06	3.145210e-06	8.875686e-10	2.191052e+01	6.388766e+01
2.570000e-06	3.183328e-06	8.973559e-10	2.217606e+01	6.442340e+01
2.580000e-06	3.221219e-06	9.068783e-10	2.244002e+01	6.493943e+01
2.590000e-06	3.258977e-06	9.150066e-10	2.270305e+01	6.543650e+01
2.600000e-06	3.296593e-06	9.220551e-10	2.296510e+01	6.591528e+01
2.610000e-06	3.333933e-06	9.281792e-10	2.322523e+01	6.637641e+01
2.620000e-06	3.370941e-06	9.339552e-10	2.348303e+01	6.682047e+01
2.630000e-06	3.407637e-06	9.406396e-10	2.373867e+01	6.724800e+01
2.640000e-06	3.444134e-06	9.467103e-10	2.399292e+01	6.765951e+01
2.650000e-06	3.480452e-06	9.520588e-10	2.424592e+01	6.805544e+01
2.660000e-06	3.516617e-06	9.578170e-10	2.449786e+01	6.843623e+01
2.670000e-06	3.552663e-06	9.630685e-10	2.474896e+01	6.880224e+01
2.680000e-06	3.588549e-06	9.675512e-10	2.499896e+01	6.915385e+01
2.690000e-06	3.624267e-06	9.732529e-10	2.524778e+01	6.949138e+01
2.700000e-06	3.659793e-06	9.799714e-10	2.549527e+01	6.981514e+01
2.710000e-06	3.695111e-06	9.864896e-10	2.574130e+01	7.012544e+01
2.720000e-06	3.730154e-06	9.935567e-10	2.598543e+01	7.042256e+01
2.730000e-06	3.764773e-06	9.984098e-10	2.622659e+01	7.070677e+01
2.740000e-06	3.798924e-06	1.001236e-09	2.646450e+01	7.097833e+01
2.750000e-06	3.832629e-06	1.004293e-09	2.669930e+01	7.123752e+01
2.760000e-06	3.865884e-06	1.007182e-09	2.693096e+01	7.148461e+01
2.770000e-06	3.898703e-06	1.009573e-09	2.715959e+01	7.171984e+01
2.780000e-06	3.931140e-06	1.013364e-09	2.738556e+01	7.194351e+01
2.790000e-06	3.963320e-06	1.019740e-09	2.760973e+01	7.215587e+01
2.800000e-06	3.995300e-06	1.026342e-09	2.783252e+01	7.235720e+01
2.810000e-06	4.027149e-06	1.030254e-09	2.805438e+01	7.254778e+01
2.820000e-06	4.058897e-06	1.032697e-09	2.827555e+01	7.272790e+01
2.830000e-06	4.090467e-06	1.034575e-09	2.849548e+01	7.289783e+01
2.840000e-06	4.121799e-06	1.034306e-09	2.871374e+01	7.305786e+01
2.850000e-06	4.152811e-06	1.032207e-09	2.892978e+01	7.320827e+01
2.860000e-06	4.183435e-06	1.031016e-09	2.914312e+01	7.334936e+01
2.870000e-06	4.213688e-06	1.033794e-09	2.935388e+01	7.348139e+01
2.880000e-06	4.243638e-06	1.038731e-09	2.956252e+01	7.360464e+01
2.890000e-06	4.273353e-06	1.043216e-09	2.976952e+01	7.371939e+01
2.900000e-06	4.302809e-06	1.046111e-09	2.997472e+01	7.382588e+01
