# Temperatura_=_-11.5
# Concentracion g/m^3_=_1620.0
# C_Vs_to_Am_M_A/Vsm_=_65563218390.804596
# pendiente_HvsI_1/m_=_3716.3
# ordenada_HvsI_A/m_=_1297.0
# frecuencia_Hz_=_135107.78087166857

Tiempo_(s)	Campo_(V.s)	Magnetizacion_(V.s)	Campo_(kA/m)	Magnetizacion_(A/m)
0.000000e+00	-5.510898e-06	-1.052626e-09	-3.836118e+01	-6.912813e+01
1.000000e-08	-5.511064e-06	-1.051325e-09	-3.836233e+01	-6.910326e+01
2.000000e-08	-5.510854e-06	-1.052940e-09	-3.836087e+01	-6.908176e+01
3.000000e-08	-5.510216e-06	-1.053212e-09	-3.835643e+01	-6.906315e+01
4.000000e-08	-5.509001e-06	-1.049926e-09	-3.834797e+01	-6.904689e+01
5.000000e-08	-5.507151e-06	-1.044336e-09	-3.833509e+01	-6.903236e+01
6.000000e-08	-5.504796e-06	-1.041358e-09	-3.831870e+01	-6.901892e+01
7.000000e-08	-5.501944e-06	-1.067026e-09	-3.829885e+01	-6.900588e+01
8.000000e-08	-5.498607e-06	-1.098971e-09	-3.827562e+01	-6.899255e+01
9.000000e-08	-5.494820e-06	-1.049633e-09	-3.824926e+01	-6.897820e+01
1.000000e-07	-5.490626e-06	-9.767264e-10	-3.822006e+01	-6.896215e+01
1.100000e-07	-5.486196e-06	-1.006092e-09	-3.818923e+01	-6.894371e+01
1.200000e-07	-5.481494e-06	-1.083495e-09	-3.815650e+01	-6.892223e+01
1.300000e-07	-5.476410e-06	-1.069850e-09	-3.812111e+01	-6.889711e+01
1.400000e-07	-5.470974e-06	-1.006196e-09	-3.808327e+01	-6.886780e+01
1.500000e-07	-5.465191e-06	-1.008123e-09	-3.804301e+01	-6.883382e+01
1.600000e-07	-5.459022e-06	-1.091374e-09	-3.800007e+01	-6.879478e+01
1.700000e-07	-5.452356e-06	-1.076680e-09	-3.795367e+01	-6.875035e+01
1.800000e-07	-5.445306e-06	-1.019110e-09	-3.790460e+01	-6.870030e+01
1.900000e-07	-5.438029e-06	-9.774102e-10	-3.785393e+01	-6.864450e+01
2.000000e-07	-5.430464e-06	-1.032140e-09	-3.780128e+01	-6.858288e+01
2.100000e-07	-5.422686e-06	-1.077862e-09	-3.774714e+01	-6.851552e+01
2.200000e-07	-5.414680e-06	-1.075482e-09	-3.769141e+01	-6.844253e+01
2.300000e-07	-5.406211e-06	-1.034695e-09	-3.763245e+01	-6.836415e+01
2.400000e-07	-5.397079e-06	-1.030822e-09	-3.756889e+01	-6.828068e+01
2.500000e-07	-5.387255e-06	-1.044924e-09	-3.750050e+01	-6.819252e+01
2.600000e-07	-5.376910e-06	-1.021463e-09	-3.742849e+01	-6.810010e+01
2.700000e-07	-5.366087e-06	-1.012317e-09	-3.735315e+01	-6.800394e+01
2.800000e-07	-5.354753e-06	-1.028836e-09	-3.727425e+01	-6.790459e+01
2.900000e-07	-5.342989e-06	-1.048495e-09	-3.719237e+01	-6.780264e+01
3.000000e-07	-5.330810e-06	-1.010552e-09	-3.710759e+01	-6.769870e+01
3.100000e-07	-5.318187e-06	-1.000700e-09	-3.701973e+01	-6.759341e+01
3.200000e-07	-5.305220e-06	-1.024656e-09	-3.692946e+01	-6.748738e+01
3.300000e-07	-5.291955e-06	-1.044353e-09	-3.683712e+01	-6.738125e+01
3.400000e-07	-5.278228e-06	-9.928594e-10	-3.674157e+01	-6.727560e+01
3.500000e-07	-5.264055e-06	-1.000472e-09	-3.664291e+01	-6.717100e+01
3.600000e-07	-5.249660e-06	-1.025323e-09	-3.654270e+01	-6.706799e+01
3.700000e-07	-5.234780e-06	-1.016851e-09	-3.643913e+01	-6.696705e+01
3.800000e-07	-5.219068e-06	-9.832301e-10	-3.632976e+01	-6.686860e+01
3.900000e-07	-5.202852e-06	-1.030224e-09	-3.621688e+01	-6.677301e+01
4.000000e-07	-5.186347e-06	-1.016918e-09	-3.610199e+01	-6.668060e+01
4.100000e-07	-5.169574e-06	-9.653933e-10	-3.598523e+01	-6.659161e+01
4.200000e-07	-5.152492e-06	-9.936812e-10	-3.586632e+01	-6.650622e+01
4.300000e-07	-5.135068e-06	-1.044579e-09	-3.574504e+01	-6.642454e+01
4.400000e-07	-5.117187e-06	-9.811893e-10	-3.562056e+01	-6.634664e+01
4.500000e-07	-5.098830e-06	-9.547789e-10	-3.549279e+01	-6.627250e+01
4.600000e-07	-5.080150e-06	-1.021141e-09	-3.536276e+01	-6.620208e+01
4.700000e-07	-5.061179e-06	-1.001509e-09	-3.523070e+01	-6.613526e+01
4.800000e-07	-5.041913e-06	-9.462494e-10	-3.509659e+01	-6.607191e+01
4.900000e-07	-5.022319e-06	-9.961697e-10	-3.496019e+01	-6.601182e+01
5.000000e-07	-5.002508e-06	-1.018050e-09	-3.482229e+01	-6.595480e+01
5.100000e-07	-4.982438e-06	-9.449752e-10	-3.468259e+01	-6.590060e+01
5.200000e-07	-4.961999e-06	-9.706346e-10	-3.454031e+01	-6.584898e+01
5.300000e-07	-4.941189e-06	-1.032510e-09	-3.439545e+01	-6.579967e+01
5.400000e-07	-4.920013e-06	-9.802523e-10	-3.424805e+01	-6.575243e+01
5.500000e-07	-4.898521e-06	-9.421458e-10	-3.409844e+01	-6.570698e+01
5.600000e-07	-4.876756e-06	-1.005937e-09	-3.394694e+01	-6.566310e+01
5.700000e-07	-4.854677e-06	-9.927307e-10	-3.379324e+01	-6.562053e+01
5.800000e-07	-4.832242e-06	-9.478050e-10	-3.363708e+01	-6.557908e+01
5.900000e-07	-4.809455e-06	-9.832165e-10	-3.347846e+01	-6.553854e+01
6.000000e-07	-4.786366e-06	-1.005352e-09	-3.331774e+01	-6.549874e+01
6.100000e-07	-4.762971e-06	-9.541210e-10	-3.315488e+01	-6.545953e+01
6.200000e-07	-4.739334e-06	-9.626187e-10	-3.299034e+01	-6.542077e+01
6.300000e-07	-4.715524e-06	-9.891680e-10	-3.282461e+01	-6.538234e+01
6.400000e-07	-4.691476e-06	-9.647824e-10	-3.265720e+01	-6.534416e+01
6.500000e-07	-4.667023e-06	-9.521623e-10	-3.248699e+01	-6.530614e+01
6.600000e-07	-4.642107e-06	-9.818126e-10	-3.231355e+01	-6.526820e+01
6.700000e-07	-4.616680e-06	-9.713063e-10	-3.213655e+01	-6.523029e+01
6.800000e-07	-4.590628e-06	-9.563856e-10	-3.195521e+01	-6.519233e+01
6.900000e-07	-4.563962e-06	-9.718754e-10	-3.176959e+01	-6.515425e+01
7.000000e-07	-4.536883e-06	-9.759185e-10	-3.158109e+01	-6.511599e+01
7.100000e-07	-4.509578e-06	-9.546853e-10	-3.139102e+01	-6.507746e+01
7.200000e-07	-4.482038e-06	-9.590924e-10	-3.119932e+01	-6.503856e+01
7.300000e-07	-4.454313e-06	-9.691164e-10	-3.100632e+01	-6.499918e+01
7.400000e-07	-4.426369e-06	-9.623327e-10	-3.081181e+01	-6.495917e+01
7.500000e-07	-4.398151e-06	-9.565485e-10	-3.061538e+01	-6.491837e+01
7.600000e-07	-4.369746e-06	-9.589336e-10	-3.041766e+01	-6.487660e+01
7.700000e-07	-4.341019e-06	-9.530740e-10	-3.021769e+01	-6.483366e+01
7.800000e-07	-4.311884e-06	-9.483817e-10	-3.001488e+01	-6.478931e+01
7.900000e-07	-4.282501e-06	-9.537567e-10	-2.981035e+01	-6.474331e+01
8.000000e-07	-4.252846e-06	-9.504206e-10	-2.960392e+01	-6.469539e+01
8.100000e-07	-4.222884e-06	-9.442003e-10	-2.939535e+01	-6.464526e+01
8.200000e-07	-4.192673e-06	-9.439521e-10	-2.918505e+01	-6.459264e+01
8.300000e-07	-4.162086e-06	-9.437586e-10	-2.897214e+01	-6.453724e+01
8.400000e-07	-4.131133e-06	-9.366583e-10	-2.875668e+01	-6.447875e+01
8.500000e-07	-4.100021e-06	-9.420587e-10	-2.854011e+01	-6.441689e+01
8.600000e-07	-4.068723e-06	-9.431584e-10	-2.832224e+01	-6.435140e+01
8.700000e-07	-4.037195e-06	-9.343036e-10	-2.810278e+01	-6.428201e+01
8.800000e-07	-4.005469e-06	-9.282148e-10	-2.788194e+01	-6.420850e+01
8.900000e-07	-3.973526e-06	-9.314974e-10	-2.765958e+01	-6.413069e+01
9.000000e-07	-3.941324e-06	-9.234028e-10	-2.743543e+01	-6.404841e+01
9.100000e-07	-3.908806e-06	-9.215414e-10	-2.720907e+01	-6.396156e+01
9.200000e-07	-3.875928e-06	-9.302087e-10	-2.698021e+01	-6.387008e+01
9.300000e-07	-3.842629e-06	-9.316279e-10	-2.674841e+01	-6.377395e+01
9.400000e-07	-3.808839e-06	-9.237655e-10	-2.651320e+01	-6.367322e+01
9.500000e-07	-3.774565e-06	-9.256972e-10	-2.627462e+01	-6.356799e+01
9.600000e-07	-3.739888e-06	-9.226307e-10	-2.603324e+01	-6.345840e+01
9.700000e-07	-3.704875e-06	-9.117917e-10	-2.578951e+01	-6.334468e+01
9.800000e-07	-3.669576e-06	-9.073445e-10	-2.554379e+01	-6.322706e+01
9.900000e-07	-3.634084e-06	-9.109999e-10	-2.529674e+01	-6.310586e+01
1.000000e-06	-3.598434e-06	-9.034681e-10	-2.504858e+01	-6.298143e+01
1.010000e-06	-3.562678e-06	-8.988910e-10	-2.479968e+01	-6.285414e+01
1.020000e-06	-3.526868e-06	-9.043622e-10	-2.455041e+01	-6.272441e+01
1.030000e-06	-3.490873e-06	-9.036772e-10	-2.429985e+01	-6.259268e+01
1.040000e-06	-3.454617e-06	-8.966627e-10	-2.404747e+01	-6.245939e+01
1.050000e-06	-3.418071e-06	-8.950252e-10	-2.379308e+01	-6.232500e+01
1.060000e-06	-3.381146e-06	-8.938387e-10	-2.353605e+01	-6.218994e+01
1.070000e-06	-3.343975e-06	-8.880578e-10	-2.327730e+01	-6.205466e+01
1.080000e-06	-3.306702e-06	-8.847336e-10	-2.301784e+01	-6.191955e+01
1.090000e-06	-3.269185e-06	-8.847981e-10	-2.275669e+01	-6.178498e+01
1.100000e-06	-3.231335e-06	-8.809120e-10	-2.249322e+01	-6.165130e+01
1.110000e-06	-3.193237e-06	-8.764890e-10	-2.222802e+01	-6.151877e+01
1.120000e-06	-3.154970e-06	-8.764280e-10	-2.196164e+01	-6.138762e+01
1.130000e-06	-3.116515e-06	-8.730211e-10	-2.169395e+01	-6.125801e+01
1.140000e-06	-3.077812e-06	-8.693546e-10	-2.142455e+01	-6.113002e+01
1.150000e-06	-3.038869e-06	-8.687174e-10	-2.115347e+01	-6.100368e+01
1.160000e-06	-2.999751e-06	-8.677034e-10	-2.088116e+01	-6.087891e+01
1.170000e-06	-2.960428e-06	-8.619475e-10	-2.060744e+01	-6.075559e+01
1.180000e-06	-2.920954e-06	-8.623313e-10	-2.033267e+01	-6.063350e+01
1.190000e-06	-2.881405e-06	-8.648686e-10	-2.005737e+01	-6.051236e+01
1.200000e-06	-2.841705e-06	-8.638397e-10	-1.978101e+01	-6.039181e+01
1.210000e-06	-2.801884e-06	-8.609361e-10	-1.950382e+01	-6.027142e+01
1.220000e-06	-2.761933e-06	-8.605645e-10	-1.922572e+01	-6.015072e+01
1.230000e-06	-2.721847e-06	-8.594330e-10	-1.894668e+01	-6.002915e+01
1.240000e-06	-2.681611e-06	-8.587612e-10	-1.866660e+01	-5.990615e+01
1.250000e-06	-2.641132e-06	-8.594580e-10	-1.838483e+01	-5.978107e+01
1.260000e-06	-2.600444e-06	-8.596472e-10	-1.810160e+01	-5.965327e+01
1.270000e-06	-2.559508e-06	-8.533043e-10	-1.781665e+01	-5.952207e+01
1.280000e-06	-2.518187e-06	-8.465596e-10	-1.752901e+01	-5.938679e+01
1.290000e-06	-2.476513e-06	-8.411708e-10	-1.723892e+01	-5.924674e+01
1.300000e-06	-2.434494e-06	-8.359552e-10	-1.694643e+01	-5.910124e+01
1.310000e-06	-2.392134e-06	-8.315461e-10	-1.665156e+01	-5.894963e+01
1.320000e-06	-2.349498e-06	-8.315315e-10	-1.635477e+01	-5.879128e+01
1.330000e-06	-2.306610e-06	-8.304313e-10	-1.605623e+01	-5.862558e+01
1.340000e-06	-2.263486e-06	-8.275739e-10	-1.575605e+01	-5.845196e+01
1.350000e-06	-2.220174e-06	-8.292009e-10	-1.545456e+01	-5.826990e+01
1.360000e-06	-2.176773e-06	-8.298941e-10	-1.515245e+01	-5.807892e+01
1.370000e-06	-2.133249e-06	-8.246363e-10	-1.484948e+01	-5.787859e+01
1.380000e-06	-2.089594e-06	-8.169060e-10	-1.454559e+01	-5.766854e+01
1.390000e-06	-2.045885e-06	-8.112726e-10	-1.424133e+01	-5.744845e+01
1.400000e-06	-2.002119e-06	-8.057501e-10	-1.393668e+01	-5.721803e+01
1.410000e-06	-1.958286e-06	-8.002912e-10	-1.363157e+01	-5.697708e+01
1.420000e-06	-1.914406e-06	-7.982233e-10	-1.332612e+01	-5.672539e+01
1.430000e-06	-1.870491e-06	-7.982220e-10	-1.302042e+01	-5.646284e+01
1.440000e-06	-1.826507e-06	-7.944284e-10	-1.271426e+01	-5.618931e+01
1.450000e-06	-1.782362e-06	-7.885494e-10	-1.240696e+01	-5.590471e+01
1.460000e-06	-1.738029e-06	-7.813981e-10	-1.209836e+01	-5.560899e+01
1.470000e-06	-1.693559e-06	-7.730756e-10	-1.178881e+01	-5.530208e+01
1.480000e-06	-1.648912e-06	-7.657079e-10	-1.147802e+01	-5.498393e+01
1.490000e-06	-1.604138e-06	-7.585173e-10	-1.116635e+01	-5.465449e+01
1.500000e-06	-1.559246e-06	-7.513740e-10	-1.085386e+01	-5.431368e+01
1.510000e-06	-1.514212e-06	-7.465231e-10	-1.054038e+01	-5.396140e+01
1.520000e-06	-1.469091e-06	-7.401744e-10	-1.022629e+01	-5.359752e+01
1.530000e-06	-1.423858e-06	-7.317951e-10	-9.911429e+00	-5.322187e+01
1.540000e-06	-1.378566e-06	-7.225872e-10	-9.596153e+00	-5.283424e+01
1.550000e-06	-1.333162e-06	-7.166316e-10	-9.280096e+00	-5.243437e+01
1.560000e-06	-1.287583e-06	-7.123100e-10	-8.962821e+00	-5.202191e+01
1.570000e-06	-1.241948e-06	-7.073336e-10	-8.645159e+00	-5.159648e+01
1.580000e-06	-1.196278e-06	-6.990423e-10	-8.327253e+00	-5.115764e+01
1.590000e-06	-1.150571e-06	-6.878387e-10	-8.009090e+00	-5.070485e+01
1.600000e-06	-1.104792e-06	-6.782663e-10	-7.690422e+00	-5.023753e+01
1.610000e-06	-1.058977e-06	-6.727588e-10	-7.371503e+00	-4.975501e+01
1.620000e-06	-1.013159e-06	-6.695153e-10	-7.052565e+00	-4.925658e+01
1.630000e-06	-9.672687e-07	-6.660711e-10	-6.733125e+00	-4.874143e+01
1.640000e-06	-9.212523e-07	-6.609128e-10	-6.412806e+00	-4.820873e+01
1.650000e-06	-8.751297e-07	-6.519410e-10	-6.091749e+00	-4.765757e+01
1.660000e-06	-8.289715e-07	-6.392708e-10	-5.770443e+00	-4.708698e+01
1.670000e-06	-7.827411e-07	-6.247182e-10	-5.448635e+00	-4.649598e+01
1.680000e-06	-7.364351e-07	-6.118344e-10	-5.126300e+00	-4.588351e+01
1.690000e-06	-6.900979e-07	-6.012042e-10	-4.803748e+00	-4.524853e+01
1.700000e-06	-6.436813e-07	-5.918055e-10	-4.480644e+00	-4.458994e+01
1.710000e-06	-5.972441e-07	-5.848056e-10	-4.157396e+00	-4.390666e+01
1.720000e-06	-5.508451e-07	-5.765434e-10	-3.834415e+00	-4.319757e+01
1.730000e-06	-5.044068e-07	-5.636986e-10	-3.511159e+00	-4.246160e+01
1.740000e-06	-4.579121e-07	-5.495233e-10	-3.187511e+00	-4.169768e+01
1.750000e-06	-4.113298e-07	-5.352165e-10	-2.863253e+00	-4.090475e+01
1.760000e-06	-3.646351e-07	-5.203390e-10	-2.538212e+00	-4.008182e+01
1.770000e-06	-3.178872e-07	-5.070858e-10	-2.212802e+00	-3.922792e+01
1.780000e-06	-2.712218e-07	-4.951112e-10	-1.887966e+00	-3.834215e+01
1.790000e-06	-2.245276e-07	-4.819340e-10	-1.562929e+00	-3.742366e+01
1.800000e-06	-1.776969e-07	-4.687184e-10	-1.236942e+00	-3.647168e+01
1.810000e-06	-1.309172e-07	-4.550241e-10	-9.113103e-01	-3.548554e+01
1.820000e-06	-8.422847e-08	-4.396724e-10	-5.863116e-01	-3.446463e+01
1.830000e-06	-3.756150e-08	-4.227594e-10	-2.614644e-01	-3.340846e+01
1.840000e-06	9.103264e-09	-4.071969e-10	6.336752e-02	-3.231662e+01
1.850000e-06	5.583291e-08	-3.935673e-10	3.886510e-01	-3.118883e+01
1.860000e-06	1.025627e-07	-3.793674e-10	7.139356e-01	-3.002492e+01
1.870000e-06	1.492365e-07	-3.627845e-10	1.038830e+00	-2.882485e+01
1.880000e-06	1.959394e-07	-3.458681e-10	1.363928e+00	-2.758868e+01
1.890000e-06	2.426209e-07	-3.285396e-10	1.688876e+00	-2.631663e+01
1.900000e-06	2.892880e-07	-3.089349e-10	2.013724e+00	-2.500904e+01
1.910000e-06	3.359620e-07	-2.882410e-10	2.338620e+00	-2.366640e+01
1.920000e-06	3.825243e-07	-2.687668e-10	2.662739e+00	-2.228931e+01
1.930000e-06	4.290549e-07	-2.507460e-10	2.986637e+00	-2.087856e+01
1.940000e-06	4.756579e-07	-2.318545e-10	3.311038e+00	-1.943503e+01
1.950000e-06	5.222935e-07	-2.117684e-10	3.635667e+00	-1.795978e+01
1.960000e-06	5.688435e-07	-1.920730e-10	3.959700e+00	-1.645399e+01
1.970000e-06	6.153077e-07	-1.726768e-10	4.283136e+00	-1.491900e+01
1.980000e-06	6.617286e-07	-1.518638e-10	4.606271e+00	-1.335628e+01
1.990000e-06	7.080552e-07	-1.278604e-10	4.928749e+00	-1.176741e+01
2.000000e-06	7.543069e-07	-1.027539e-10	5.250705e+00	-1.015413e+01
2.010000e-06	8.005550e-07	-7.924868e-11	5.572636e+00	-8.518307e+00
2.020000e-06	8.467236e-07	-5.795382e-11	5.894015e+00	-6.861898e+00
2.030000e-06	8.928106e-07	-3.828116e-11	6.214825e+00	-5.186988e+00
2.040000e-06	9.389350e-07	-1.826093e-11	6.535895e+00	-3.495759e+00
2.050000e-06	9.849209e-07	3.726957e-12	6.856002e+00	-1.790484e+00
2.060000e-06	1.030776e-06	2.861219e-11	7.175195e+00	-7.351568e-02
2.070000e-06	1.076602e-06	5.574863e-11	7.494190e+00	1.652724e+00
2.080000e-06	1.122364e-06	8.257740e-11	7.812737e+00	3.385758e+00
2.090000e-06	1.168059e-06	1.075010e-10	8.130823e+00	5.123068e+00
2.100000e-06	1.213703e-06	1.310977e-10	8.448546e+00	6.862106e+00
2.110000e-06	1.259294e-06	1.539139e-10	8.765906e+00	8.600312e+00
2.120000e-06	1.304764e-06	1.767574e-10	9.082416e+00	1.033513e+01
2.130000e-06	1.350130e-06	2.000098e-10	9.398209e+00	1.206401e+01
2.140000e-06	1.395465e-06	2.223398e-10	9.713783e+00	1.378446e+01
2.150000e-06	1.440686e-06	2.443602e-10	1.002857e+01	1.549401e+01
2.160000e-06	1.485735e-06	2.670184e-10	1.034215e+01	1.719028e+01
2.170000e-06	1.530646e-06	2.889898e-10	1.065478e+01	1.887093e+01
2.180000e-06	1.575500e-06	3.115637e-10	1.096700e+01	2.053376e+01
2.190000e-06	1.620279e-06	3.340093e-10	1.127871e+01	2.217664e+01
2.200000e-06	1.664879e-06	3.566312e-10	1.158917e+01	2.379758e+01
2.210000e-06	1.709361e-06	3.796428e-10	1.189881e+01	2.539470e+01
2.220000e-06	1.753685e-06	4.020829e-10	1.220734e+01	2.696629e+01
2.230000e-06	1.797811e-06	4.230130e-10	1.251450e+01	2.851076e+01
2.240000e-06	1.841851e-06	4.423499e-10	1.282106e+01	3.002667e+01
2.250000e-06	1.885819e-06	4.598461e-10	1.312712e+01	3.151277e+01
2.260000e-06	1.929733e-06	4.767505e-10	1.343280e+01	3.296794e+01
2.270000e-06	1.973622e-06	4.949982e-10	1.373832e+01	3.439124e+01
2.280000e-06	2.017435e-06	5.136929e-10	1.404330e+01	3.578189e+01
2.290000e-06	2.061137e-06	5.324485e-10	1.434751e+01	3.713926e+01
2.300000e-06	2.104798e-06	5.515421e-10	1.465143e+01	3.846289e+01
2.310000e-06	2.148406e-06	5.694647e-10	1.495498e+01	3.975245e+01
2.320000e-06	2.191863e-06	5.863984e-10	1.525749e+01	4.100776e+01
2.330000e-06	2.235141e-06	6.033286e-10	1.555874e+01	4.222878e+01
2.340000e-06	2.278279e-06	6.204112e-10	1.585902e+01	4.341557e+01
2.350000e-06	2.321286e-06	6.370281e-10	1.615839e+01	4.456833e+01
2.360000e-06	2.364095e-06	6.520357e-10	1.645639e+01	4.568734e+01
2.370000e-06	2.406604e-06	6.656088e-10	1.675229e+01	4.677295e+01
2.380000e-06	2.448761e-06	6.771064e-10	1.704574e+01	4.782560e+01
2.390000e-06	2.490597e-06	6.891574e-10	1.733697e+01	4.884580e+01
2.400000e-06	2.532149e-06	7.027665e-10	1.762621e+01	4.983408e+01
2.410000e-06	2.573395e-06	7.179472e-10	1.791332e+01	5.079102e+01
2.420000e-06	2.614265e-06	7.312525e-10	1.819781e+01	5.171720e+01
2.430000e-06	2.654823e-06	7.417174e-10	1.848013e+01	5.261323e+01
2.440000e-06	2.695254e-06	7.501272e-10	1.876157e+01	5.347971e+01
2.450000e-06	2.735576e-06	7.584871e-10	1.904225e+01	5.431722e+01
2.460000e-06	2.775616e-06	7.696350e-10	1.932097e+01	5.512635e+01
2.470000e-06	2.815461e-06	7.810417e-10	1.959833e+01	5.590763e+01
2.480000e-06	2.855290e-06	7.910793e-10	1.987558e+01	5.666159e+01
2.490000e-06	2.895021e-06	8.012970e-10	2.015215e+01	5.738871e+01
2.500000e-06	2.934581e-06	8.114706e-10	2.042752e+01	5.808944e+01
2.510000e-06	2.973900e-06	8.201710e-10	2.070122e+01	5.876422e+01
2.520000e-06	3.012984e-06	8.277939e-10	2.097328e+01	5.941342e+01
2.530000e-06	3.051855e-06	8.353889e-10	2.124386e+01	6.003742e+01
2.540000e-06	3.090505e-06	8.435274e-10	2.151290e+01	6.063655e+01
2.550000e-06	3.128940e-06	8.507358e-10	2.178045e+01	6.121113e+01
2.560000e-06	3.167200e-06	8.572783e-10	2.204677e+01	6.176149e+01
2.570000e-06	3.205303e-06	8.636170e-10	2.231200e+01	6.228792e+01
2.580000e-06	3.243187e-06	8.694771e-10	2.257572e+01	6.279074e+01
2.590000e-06	3.280856e-06	8.751597e-10	2.283793e+01	6.327028e+01
2.600000e-06	3.318323e-06	8.814840e-10	2.309873e+01	6.372688e+01
2.610000e-06	3.355602e-06	8.882980e-10	2.335824e+01	6.416091e+01
2.620000e-06	3.392650e-06	8.950364e-10	2.361612e+01	6.457279e+01
2.630000e-06	3.429415e-06	9.027289e-10	2.387204e+01	6.496296e+01
2.640000e-06	3.465846e-06	9.097590e-10	2.412564e+01	6.533193e+01
2.650000e-06	3.501987e-06	9.140468e-10	2.437722e+01	6.568023e+01
2.660000e-06	3.537937e-06	9.179372e-10	2.462746e+01	6.600848e+01
2.670000e-06	3.573748e-06	9.222530e-10	2.487674e+01	6.631734e+01
2.680000e-06	3.609430e-06	9.247778e-10	2.512512e+01	6.660753e+01
2.690000e-06	3.644942e-06	9.272398e-10	2.537232e+01	6.687981e+01
2.700000e-06	3.680283e-06	9.325973e-10	2.561833e+01	6.713502e+01
2.710000e-06	3.715439e-06	9.400269e-10	2.586305e+01	6.737404e+01
2.720000e-06	3.750295e-06	9.480448e-10	2.610568e+01	6.759779e+01
2.730000e-06	3.784718e-06	9.553220e-10	2.634530e+01	6.780722e+01
2.740000e-06	3.818690e-06	9.608902e-10	2.658177e+01	6.800331e+01
2.750000e-06	3.852255e-06	9.613147e-10	2.681542e+01	6.818709e+01
2.760000e-06	3.885416e-06	9.592549e-10	2.704625e+01	6.835955e+01
2.770000e-06	3.918106e-06	9.596782e-10	2.727380e+01	6.852171e+01
2.780000e-06	3.950404e-06	9.635494e-10	2.749863e+01	6.867458e+01
2.790000e-06	3.982506e-06	9.703451e-10	2.772209e+01	6.881912e+01
2.800000e-06	4.014454e-06	9.763984e-10	2.794448e+01	6.895628e+01
2.810000e-06	4.046222e-06	9.791255e-10	2.816562e+01	6.908696e+01
2.820000e-06	4.077729e-06	9.811420e-10	2.838494e+01	6.921199e+01
2.830000e-06	4.108974e-06	9.832392e-10	2.860243e+01	6.933216e+01
2.840000e-06	4.140057e-06	9.831351e-10	2.881880e+01	6.944816e+01
2.850000e-06	4.170819e-06	9.808306e-10	2.903293e+01	6.956063e+01
2.860000e-06	4.201186e-06	9.798539e-10	2.924432e+01	6.967009e+01
2.870000e-06	4.231334e-06	9.818789e-10	2.945417e+01	6.977699e+01
2.880000e-06	4.261290e-06	9.856910e-10	2.966270e+01	6.988171e+01
2.890000e-06	4.290989e-06	9.903022e-10	2.986943e+01	6.998449e+01
2.900000e-06	4.320373e-06	9.925288e-10	3.007397e+01	7.008553e+01
