# Temperatura_=_-14.33
# Concentracion g/m^3_=_1620.0
# C_Vs_to_Am_M_A/Vsm_=_65563218390.804596
# pendiente_HvsI_1/m_=_3716.3
# ordenada_HvsI_A/m_=_1297.0
# frecuencia_Hz_=_135107.19243734112

Tiempo_(s)	Campo_(V.s)	Magnetizacion_(V.s)	Campo_(kA/m)	Magnetizacion_(A/m)
0.000000e+00	-5.532179e-06	-1.050021e-09	-3.836721e+01	-6.875219e+01
1.000000e-08	-5.532181e-06	-1.049403e-09	-3.836723e+01	-6.874534e+01
2.000000e-08	-5.531921e-06	-1.050085e-09	-3.836542e+01	-6.874232e+01
3.000000e-08	-5.531266e-06	-1.051021e-09	-3.836088e+01	-6.874277e+01
4.000000e-08	-5.530162e-06	-1.049802e-09	-3.835322e+01	-6.874629e+01
5.000000e-08	-5.528406e-06	-1.043453e-09	-3.834105e+01	-6.875235e+01
6.000000e-08	-5.526057e-06	-1.035729e-09	-3.832475e+01	-6.876040e+01
7.000000e-08	-5.523248e-06	-1.047960e-09	-3.830527e+01	-6.876982e+01
8.000000e-08	-5.519901e-06	-1.082542e-09	-3.828206e+01	-6.877992e+01
9.000000e-08	-5.516023e-06	-1.073227e-09	-3.825517e+01	-6.879001e+01
1.000000e-07	-5.511721e-06	-1.019026e-09	-3.822533e+01	-6.879935e+01
1.100000e-07	-5.507282e-06	-1.019894e-09	-3.819454e+01	-6.880720e+01
1.200000e-07	-5.502617e-06	-1.062597e-09	-3.816220e+01	-6.881280e+01
1.300000e-07	-5.497474e-06	-1.052371e-09	-3.812652e+01	-6.881542e+01
1.400000e-07	-5.491977e-06	-1.017781e-09	-3.808840e+01	-6.881436e+01
1.500000e-07	-5.486196e-06	-1.011391e-09	-3.804831e+01	-6.880894e+01
1.600000e-07	-5.480030e-06	-1.057436e-09	-3.800554e+01	-6.879854e+01
1.700000e-07	-5.473423e-06	-1.032260e-09	-3.795972e+01	-6.878261e+01
1.800000e-07	-5.466405e-06	-1.004270e-09	-3.791106e+01	-6.876064e+01
1.900000e-07	-5.459111e-06	-1.007507e-09	-3.786047e+01	-6.873223e+01
2.000000e-07	-5.451518e-06	-1.036342e-09	-3.780781e+01	-6.869705e+01
2.100000e-07	-5.443487e-06	-1.053392e-09	-3.775211e+01	-6.865487e+01
2.200000e-07	-5.435165e-06	-1.039212e-09	-3.769439e+01	-6.860556e+01
2.300000e-07	-5.426660e-06	-1.027186e-09	-3.763541e+01	-6.854907e+01
2.400000e-07	-5.417674e-06	-1.006880e-09	-3.757309e+01	-6.848546e+01
2.500000e-07	-5.407899e-06	-1.006831e-09	-3.750530e+01	-6.841489e+01
2.600000e-07	-5.397450e-06	-1.005365e-09	-3.743283e+01	-6.833762e+01
2.700000e-07	-5.386552e-06	-1.014158e-09	-3.735725e+01	-6.825399e+01
2.800000e-07	-5.375227e-06	-1.012452e-09	-3.727871e+01	-6.816444e+01
2.900000e-07	-5.363506e-06	-1.019771e-09	-3.719742e+01	-6.806946e+01
3.000000e-07	-5.351414e-06	-1.001705e-09	-3.711356e+01	-6.796964e+01
3.100000e-07	-5.338843e-06	-9.921651e-10	-3.702637e+01	-6.786562e+01
3.200000e-07	-5.325793e-06	-9.918530e-10	-3.693587e+01	-6.775808e+01
3.300000e-07	-5.312401e-06	-1.003794e-09	-3.684299e+01	-6.764774e+01
3.400000e-07	-5.298630e-06	-9.839166e-10	-3.674748e+01	-6.753536e+01
3.500000e-07	-5.284321e-06	-9.894994e-10	-3.664825e+01	-6.742170e+01
3.600000e-07	-5.269565e-06	-1.013219e-09	-3.654591e+01	-6.730751e+01
3.700000e-07	-5.254344e-06	-9.962685e-10	-3.644035e+01	-6.719357e+01
3.800000e-07	-5.238540e-06	-9.593216e-10	-3.633074e+01	-6.708060e+01
3.900000e-07	-5.222401e-06	-9.919723e-10	-3.621882e+01	-6.696930e+01
4.000000e-07	-5.205871e-06	-1.006016e-09	-3.610418e+01	-6.686034e+01
4.100000e-07	-5.188866e-06	-9.575660e-10	-3.598624e+01	-6.675432e+01
4.200000e-07	-5.171566e-06	-9.674122e-10	-3.586626e+01	-6.665179e+01
4.300000e-07	-5.154065e-06	-1.024084e-09	-3.574489e+01	-6.655323e+01
4.400000e-07	-5.136270e-06	-9.862558e-10	-3.562147e+01	-6.645907e+01
4.500000e-07	-5.117948e-06	-9.374460e-10	-3.549441e+01	-6.636962e+01
4.600000e-07	-5.099181e-06	-9.973145e-10	-3.536425e+01	-6.628516e+01
4.700000e-07	-5.080112e-06	-1.004377e-09	-3.523200e+01	-6.620586e+01
4.800000e-07	-5.060702e-06	-9.397859e-10	-3.509739e+01	-6.613182e+01
4.900000e-07	-5.041055e-06	-9.657273e-10	-3.496113e+01	-6.606306e+01
5.000000e-07	-5.021260e-06	-1.019264e-09	-3.482385e+01	-6.599954e+01
5.100000e-07	-5.001183e-06	-9.607850e-10	-3.468461e+01	-6.594113e+01
5.200000e-07	-4.980717e-06	-9.518629e-10	-3.454267e+01	-6.588764e+01
5.300000e-07	-4.959869e-06	-1.013278e-09	-3.439808e+01	-6.583882e+01
5.400000e-07	-4.938638e-06	-9.849957e-10	-3.425084e+01	-6.579438e+01
5.500000e-07	-4.917023e-06	-9.339495e-10	-3.410094e+01	-6.575396e+01
5.600000e-07	-4.895134e-06	-9.878238e-10	-3.394913e+01	-6.571718e+01
5.700000e-07	-4.872980e-06	-9.938655e-10	-3.379549e+01	-6.568363e+01
5.800000e-07	-4.850367e-06	-9.419175e-10	-3.363866e+01	-6.565286e+01
5.900000e-07	-4.827387e-06	-9.667866e-10	-3.347928e+01	-6.562443e+01
6.000000e-07	-4.804178e-06	-1.004641e-09	-3.331833e+01	-6.559787e+01
6.100000e-07	-4.780671e-06	-9.605980e-10	-3.315530e+01	-6.557275e+01
6.200000e-07	-4.756929e-06	-9.574446e-10	-3.299064e+01	-6.554860e+01
6.300000e-07	-4.733028e-06	-9.938955e-10	-3.282488e+01	-6.552500e+01
6.400000e-07	-4.708864e-06	-9.727642e-10	-3.265729e+01	-6.550155e+01
6.500000e-07	-4.684267e-06	-9.490121e-10	-3.248671e+01	-6.547787e+01
6.600000e-07	-4.659185e-06	-9.807721e-10	-3.231276e+01	-6.545360e+01
6.700000e-07	-4.633580e-06	-9.830101e-10	-3.213518e+01	-6.542844e+01
6.800000e-07	-4.607415e-06	-9.606722e-10	-3.195371e+01	-6.540210e+01
6.900000e-07	-4.580735e-06	-9.771487e-10	-3.176868e+01	-6.537435e+01
7.000000e-07	-4.553595e-06	-9.876891e-10	-3.158046e+01	-6.534500e+01
7.100000e-07	-4.526100e-06	-9.651245e-10	-3.138977e+01	-6.531389e+01
7.200000e-07	-4.498432e-06	-9.634323e-10	-3.119789e+01	-6.528090e+01
7.300000e-07	-4.470621e-06	-9.758368e-10	-3.100501e+01	-6.524596e+01
7.400000e-07	-4.442568e-06	-9.641197e-10	-3.081045e+01	-6.520902e+01
7.500000e-07	-4.414281e-06	-9.584475e-10	-3.061428e+01	-6.517008e+01
7.600000e-07	-4.385738e-06	-9.689748e-10	-3.041632e+01	-6.512916e+01
7.700000e-07	-4.356875e-06	-9.681991e-10	-3.021615e+01	-6.508630e+01
7.800000e-07	-4.327667e-06	-9.606612e-10	-3.001358e+01	-6.504159e+01
7.900000e-07	-4.298096e-06	-9.684960e-10	-2.980850e+01	-6.499511e+01
8.000000e-07	-4.268265e-06	-9.658665e-10	-2.960162e+01	-6.494696e+01
8.100000e-07	-4.238226e-06	-9.545536e-10	-2.939329e+01	-6.489727e+01
8.200000e-07	-4.207855e-06	-9.534566e-10	-2.918266e+01	-6.484615e+01
8.300000e-07	-4.177134e-06	-9.565452e-10	-2.896960e+01	-6.479373e+01
8.400000e-07	-4.146086e-06	-9.496327e-10	-2.875427e+01	-6.474015e+01
8.500000e-07	-4.114787e-06	-9.540747e-10	-2.853720e+01	-6.468551e+01
8.600000e-07	-4.083381e-06	-9.590685e-10	-2.831939e+01	-6.462993e+01
8.700000e-07	-4.051782e-06	-9.509391e-10	-2.810025e+01	-6.457353e+01
8.800000e-07	-4.019962e-06	-9.440985e-10	-2.787956e+01	-6.451638e+01
8.900000e-07	-3.987954e-06	-9.489072e-10	-2.765758e+01	-6.445858e+01
9.000000e-07	-3.955700e-06	-9.443301e-10	-2.743389e+01	-6.440017e+01
9.100000e-07	-3.923151e-06	-9.398761e-10	-2.720816e+01	-6.434122e+01
9.200000e-07	-3.890178e-06	-9.457190e-10	-2.697948e+01	-6.428175e+01
9.300000e-07	-3.856744e-06	-9.502352e-10	-2.674760e+01	-6.422177e+01
9.400000e-07	-3.822835e-06	-9.453409e-10	-2.651243e+01	-6.416128e+01
9.500000e-07	-3.788465e-06	-9.467867e-10	-2.627406e+01	-6.410027e+01
9.600000e-07	-3.753721e-06	-9.469177e-10	-2.603311e+01	-6.403869e+01
9.700000e-07	-3.718616e-06	-9.369487e-10	-2.578965e+01	-6.397650e+01
9.800000e-07	-3.683180e-06	-9.307868e-10	-2.554388e+01	-6.391364e+01
9.900000e-07	-3.647511e-06	-9.324123e-10	-2.529651e+01	-6.385002e+01
1.000000e-06	-3.611738e-06	-9.311931e-10	-2.504842e+01	-6.378556e+01
1.010000e-06	-3.575883e-06	-9.308388e-10	-2.479975e+01	-6.372017e+01
1.020000e-06	-3.539902e-06	-9.374848e-10	-2.455022e+01	-6.365373e+01
1.030000e-06	-3.503720e-06	-9.370950e-10	-2.429928e+01	-6.358615e+01
1.040000e-06	-3.467265e-06	-9.265974e-10	-2.404645e+01	-6.351729e+01
1.050000e-06	-3.430532e-06	-9.203035e-10	-2.379170e+01	-6.344704e+01
1.060000e-06	-3.393568e-06	-9.190047e-10	-2.353535e+01	-6.337528e+01
1.070000e-06	-3.356363e-06	-9.148707e-10	-2.327732e+01	-6.330188e+01
1.080000e-06	-3.318898e-06	-9.153480e-10	-2.301749e+01	-6.322671e+01
1.090000e-06	-3.281218e-06	-9.212657e-10	-2.275617e+01	-6.314964e+01
1.100000e-06	-3.243287e-06	-9.247017e-10	-2.249310e+01	-6.307055e+01
1.110000e-06	-3.205121e-06	-9.221583e-10	-2.222841e+01	-6.298931e+01
1.120000e-06	-3.166697e-06	-9.202028e-10	-2.196193e+01	-6.290580e+01
1.130000e-06	-3.128003e-06	-9.143273e-10	-2.169358e+01	-6.281989e+01
1.140000e-06	-3.089075e-06	-9.075251e-10	-2.142360e+01	-6.273146e+01
1.150000e-06	-3.049922e-06	-9.066060e-10	-2.115207e+01	-6.264040e+01
1.160000e-06	-3.010630e-06	-9.113166e-10	-2.087956e+01	-6.254658e+01
1.170000e-06	-2.971234e-06	-9.121676e-10	-2.060634e+01	-6.244990e+01
1.180000e-06	-2.931728e-06	-9.132480e-10	-2.033236e+01	-6.235024e+01
1.190000e-06	-2.892063e-06	-9.141374e-10	-2.005727e+01	-6.224750e+01
1.200000e-06	-2.852210e-06	-9.104281e-10	-1.978087e+01	-6.214155e+01
1.210000e-06	-2.812240e-06	-9.040911e-10	-1.950368e+01	-6.203229e+01
1.220000e-06	-2.772137e-06	-9.019165e-10	-1.922555e+01	-6.191963e+01
1.230000e-06	-2.731856e-06	-9.014183e-10	-1.894619e+01	-6.180344e+01
1.240000e-06	-2.691381e-06	-9.015926e-10	-1.866548e+01	-6.168362e+01
1.250000e-06	-2.650707e-06	-9.030670e-10	-1.838340e+01	-6.156007e+01
1.260000e-06	-2.609810e-06	-9.050010e-10	-1.809976e+01	-6.143268e+01
1.270000e-06	-2.568642e-06	-9.037227e-10	-1.781425e+01	-6.130134e+01
1.280000e-06	-2.527147e-06	-9.003607e-10	-1.752647e+01	-6.116593e+01
1.290000e-06	-2.485349e-06	-8.968160e-10	-1.723659e+01	-6.102635e+01
1.300000e-06	-2.443214e-06	-8.916787e-10	-1.694438e+01	-6.088246e+01
1.310000e-06	-2.400667e-06	-8.862750e-10	-1.664930e+01	-6.073416e+01
1.320000e-06	-2.357843e-06	-8.846943e-10	-1.635230e+01	-6.058130e+01
1.330000e-06	-2.314849e-06	-8.835308e-10	-1.605413e+01	-6.042374e+01
1.340000e-06	-2.271660e-06	-8.809743e-10	-1.575460e+01	-6.026135e+01
1.350000e-06	-2.228264e-06	-8.826019e-10	-1.545364e+01	-6.009396e+01
1.360000e-06	-2.184734e-06	-8.833193e-10	-1.515175e+01	-5.992140e+01
1.370000e-06	-2.141138e-06	-8.817260e-10	-1.484939e+01	-5.974350e+01
1.380000e-06	-2.097493e-06	-8.775859e-10	-1.454670e+01	-5.956004e+01
1.390000e-06	-2.053732e-06	-8.722154e-10	-1.424321e+01	-5.937083e+01
1.400000e-06	-2.009871e-06	-8.652152e-10	-1.393902e+01	-5.917561e+01
1.410000e-06	-1.965974e-06	-8.588758e-10	-1.363458e+01	-5.897413e+01
1.420000e-06	-1.922007e-06	-8.534356e-10	-1.332966e+01	-5.876612e+01
1.430000e-06	-1.877916e-06	-8.501538e-10	-1.302387e+01	-5.855126e+01
1.440000e-06	-1.833763e-06	-8.494633e-10	-1.271766e+01	-5.832923e+01
1.450000e-06	-1.789521e-06	-8.482665e-10	-1.241083e+01	-5.809965e+01
1.460000e-06	-1.745149e-06	-8.430544e-10	-1.210310e+01	-5.786215e+01
1.470000e-06	-1.700667e-06	-8.357963e-10	-1.179461e+01	-5.761629e+01
1.480000e-06	-1.655888e-06	-8.275881e-10	-1.148405e+01	-5.736161e+01
1.490000e-06	-1.610888e-06	-8.171581e-10	-1.117196e+01	-5.709762e+01
1.500000e-06	-1.565788e-06	-8.071747e-10	-1.085918e+01	-5.682378e+01
1.510000e-06	-1.520592e-06	-8.018826e-10	-1.054573e+01	-5.653953e+01
1.520000e-06	-1.475378e-06	-7.990763e-10	-1.023216e+01	-5.624427e+01
1.530000e-06	-1.429994e-06	-7.965374e-10	-9.917409e+00	-5.593734e+01
1.540000e-06	-1.384401e-06	-7.930926e-10	-9.601210e+00	-5.561807e+01
1.550000e-06	-1.338749e-06	-7.861211e-10	-9.284602e+00	-5.528573e+01
1.560000e-06	-1.293091e-06	-7.774761e-10	-8.967947e+00	-5.493959e+01
1.570000e-06	-1.247354e-06	-7.684232e-10	-8.650749e+00	-5.457884e+01
1.580000e-06	-1.201541e-06	-7.585721e-10	-8.333023e+00	-5.420267e+01
1.590000e-06	-1.155642e-06	-7.501212e-10	-8.014698e+00	-5.381023e+01
1.600000e-06	-1.109666e-06	-7.458383e-10	-7.695847e+00	-5.340063e+01
1.610000e-06	-1.063675e-06	-7.433259e-10	-7.376885e+00	-5.297297e+01
1.620000e-06	-1.017643e-06	-7.389188e-10	-7.057637e+00	-5.252633e+01
1.630000e-06	-9.715091e-07	-7.311080e-10	-6.737688e+00	-5.205975e+01
1.640000e-06	-9.252668e-07	-7.196827e-10	-6.416985e+00	-5.157227e+01
1.650000e-06	-8.789423e-07	-7.050332e-10	-6.095711e+00	-5.106293e+01
1.660000e-06	-8.326170e-07	-6.903200e-10	-5.774433e+00	-5.053073e+01
1.670000e-06	-7.863018e-07	-6.787544e-10	-5.453224e+00	-4.997471e+01
1.680000e-06	-7.398928e-07	-6.714855e-10	-5.131365e+00	-4.939386e+01
1.690000e-06	-6.934060e-07	-6.654887e-10	-4.808965e+00	-4.878723e+01
1.700000e-06	-6.468743e-07	-6.581984e-10	-4.486255e+00	-4.815385e+01
1.710000e-06	-6.002809e-07	-6.510748e-10	-4.163117e+00	-4.749278e+01
1.720000e-06	-5.536812e-07	-6.429079e-10	-3.839934e+00	-4.680308e+01
1.730000e-06	-5.070503e-07	-6.292620e-10	-3.516536e+00	-4.608388e+01
1.740000e-06	-4.602423e-07	-6.124962e-10	-3.191909e+00	-4.533431e+01
1.750000e-06	-4.133403e-07	-5.960955e-10	-2.866631e+00	-4.455354e+01
1.760000e-06	-3.665146e-07	-5.825972e-10	-2.541882e+00	-4.374081e+01
1.770000e-06	-3.198037e-07	-5.735531e-10	-2.217929e+00	-4.289538e+01
1.780000e-06	-2.729654e-07	-5.659607e-10	-1.893092e+00	-4.201658e+01
1.790000e-06	-2.259356e-07	-5.552583e-10	-1.566927e+00	-4.110381e+01
1.800000e-06	-1.789101e-07	-5.412819e-10	-1.240792e+00	-4.015653e+01
1.810000e-06	-1.319302e-07	-5.257423e-10	-9.149727e-01	-3.917426e+01
1.820000e-06	-8.489396e-08	-5.093336e-10	-5.887635e-01	-3.815661e+01
1.830000e-06	-3.784846e-08	-4.926541e-10	-2.624897e-01	-3.710328e+01
1.840000e-06	9.093045e-09	-4.773179e-10	6.306282e-02	-3.601406e+01
1.850000e-06	5.603881e-08	-4.635765e-10	3.886449e-01	-3.488880e+01
1.860000e-06	1.029955e-07	-4.498788e-10	7.143025e-01	-3.372750e+01
1.870000e-06	1.499095e-07	-4.338781e-10	1.039664e+00	-3.253021e+01
1.880000e-06	1.968284e-07	-4.135926e-10	1.365060e+00	-3.129714e+01
1.890000e-06	2.437743e-07	-3.909484e-10	1.690643e+00	-3.002857e+01
1.900000e-06	2.907137e-07	-3.690242e-10	2.016181e+00	-2.872491e+01
1.910000e-06	3.376665e-07	-3.505532e-10	2.341812e+00	-2.738670e+01
1.920000e-06	3.845933e-07	-3.348062e-10	2.667262e+00	-2.601457e+01
1.930000e-06	4.313817e-07	-3.189707e-10	2.991753e+00	-2.460930e+01
1.940000e-06	4.780728e-07	-3.000985e-10	3.315569e+00	-2.317179e+01
1.950000e-06	5.247580e-07	-2.779786e-10	3.639344e+00	-2.170305e+01
1.960000e-06	5.713930e-07	-2.549437e-10	3.962771e+00	-2.020422e+01
1.970000e-06	6.179776e-07	-2.334367e-10	4.285848e+00	-1.867657e+01
1.980000e-06	6.645113e-07	-2.141492e-10	4.608572e+00	-1.712148e+01
1.990000e-06	7.110079e-07	-1.942031e-10	4.931040e+00	-1.554047e+01
2.000000e-06	7.574687e-07	-1.718707e-10	5.253258e+00	-1.393515e+01
2.010000e-06	8.038444e-07	-1.482066e-10	5.574886e+00	-1.230724e+01
2.020000e-06	8.501083e-07	-1.245285e-10	5.895740e+00	-1.065860e+01
2.030000e-06	8.963161e-07	-1.014121e-10	6.216204e+00	-8.991147e+00
2.040000e-06	9.425191e-07	-7.846821e-11	6.536634e+00	-7.306910e+00
2.050000e-06	9.886980e-07	-5.389746e-11	6.856898e+00	-5.607996e+00
2.060000e-06	1.034801e-06	-2.712936e-11	7.176635e+00	-3.896586e+00
2.070000e-06	1.080787e-06	-9.515708e-13	7.495558e+00	-2.174923e+00
2.080000e-06	1.126714e-06	2.390646e-11	7.814075e+00	-4.453041e-01
2.090000e-06	1.172543e-06	4.863837e-11	8.131916e+00	1.289935e+00
2.100000e-06	1.218314e-06	7.341171e-11	8.449350e+00	3.028429e+00
2.110000e-06	1.264046e-06	9.778593e-11	8.766511e+00	4.767798e+00
2.120000e-06	1.309664e-06	1.214846e-10	9.082891e+00	6.505656e+00
2.130000e-06	1.355192e-06	1.446528e-10	9.398636e+00	8.239630e+00
2.140000e-06	1.400631e-06	1.671636e-10	9.713772e+00	9.967369e+00
2.150000e-06	1.445986e-06	1.912357e-10	1.002832e+01	1.168656e+01
2.160000e-06	1.491294e-06	2.173654e-10	1.034254e+01	1.339493e+01
2.170000e-06	1.536513e-06	2.427807e-10	1.065615e+01	1.509029e+01
2.180000e-06	1.581571e-06	2.669326e-10	1.096864e+01	1.677050e+01
2.190000e-06	1.626479e-06	2.889175e-10	1.128009e+01	1.843351e+01
2.200000e-06	1.671249e-06	3.094966e-10	1.159058e+01	2.007738e+01
2.210000e-06	1.715881e-06	3.309822e-10	1.190012e+01	2.170025e+01
2.220000e-06	1.760349e-06	3.551402e-10	1.220852e+01	2.330040e+01
2.230000e-06	1.804684e-06	3.803575e-10	1.251599e+01	2.487621e+01
2.240000e-06	1.848874e-06	4.041147e-10	1.282246e+01	2.642619e+01
2.250000e-06	1.892928e-06	4.260919e-10	1.312799e+01	2.794899e+01
2.260000e-06	1.936914e-06	4.467507e-10	1.343304e+01	2.944337e+01
2.270000e-06	1.980883e-06	4.653717e-10	1.373798e+01	3.090824e+01
2.280000e-06	2.024811e-06	4.809701e-10	1.404263e+01	3.234265e+01
2.290000e-06	2.068615e-06	4.959320e-10	1.434642e+01	3.374577e+01
2.300000e-06	2.112355e-06	5.129771e-10	1.464977e+01	3.511692e+01
2.310000e-06	2.156049e-06	5.323578e-10	1.495280e+01	3.645553e+01
2.320000e-06	2.199606e-06	5.528398e-10	1.525489e+01	3.776116e+01
2.330000e-06	2.242999e-06	5.723771e-10	1.555583e+01	3.903348e+01
2.340000e-06	2.286288e-06	5.903173e-10	1.585605e+01	4.027228e+01
2.350000e-06	2.329352e-06	6.063031e-10	1.615471e+01	4.147746e+01
2.360000e-06	2.372090e-06	6.204130e-10	1.645111e+01	4.264898e+01
2.370000e-06	2.414565e-06	6.335343e-10	1.674569e+01	4.378692e+01
2.380000e-06	2.456897e-06	6.456907e-10	1.703927e+01	4.489142e+01
2.390000e-06	2.498986e-06	6.592073e-10	1.733117e+01	4.596269e+01
2.400000e-06	2.540768e-06	6.734177e-10	1.762094e+01	4.700101e+01
2.410000e-06	2.582292e-06	6.877007e-10	1.790892e+01	4.800669e+01
2.420000e-06	2.623392e-06	7.007802e-10	1.819396e+01	4.898008e+01
2.430000e-06	2.664204e-06	7.118064e-10	1.847700e+01	4.992159e+01
2.440000e-06	2.704755e-06	7.210027e-10	1.875823e+01	5.083162e+01
2.450000e-06	2.744979e-06	7.292339e-10	1.903720e+01	5.171063e+01
2.460000e-06	2.785022e-06	7.391867e-10	1.931491e+01	5.255905e+01
2.470000e-06	2.824956e-06	7.498662e-10	1.959186e+01	5.337735e+01
2.480000e-06	2.864767e-06	7.587889e-10	1.986796e+01	5.416599e+01
2.490000e-06	2.904475e-06	7.670368e-10	2.014335e+01	5.492545e+01
2.500000e-06	2.944084e-06	7.761427e-10	2.041805e+01	5.565619e+01
2.510000e-06	2.983584e-06	7.860214e-10	2.069199e+01	5.635869e+01
2.520000e-06	3.022917e-06	7.957380e-10	2.096477e+01	5.703341e+01
2.530000e-06	3.062026e-06	8.039010e-10	2.123601e+01	5.768084e+01
2.540000e-06	3.100927e-06	8.117936e-10	2.150580e+01	5.830145e+01
2.550000e-06	3.139568e-06	8.196367e-10	2.177378e+01	5.889573e+01
2.560000e-06	3.177965e-06	8.256579e-10	2.204008e+01	5.946419e+01
2.570000e-06	3.216129e-06	8.315038e-10	2.230475e+01	6.000733e+01
2.580000e-06	3.254005e-06	8.387969e-10	2.256744e+01	6.052568e+01
2.590000e-06	3.291688e-06	8.464879e-10	2.282878e+01	6.101981e+01
2.600000e-06	3.329285e-06	8.534513e-10	2.308952e+01	6.149029e+01
2.610000e-06	3.366619e-06	8.593024e-10	2.334844e+01	6.193772e+01
2.620000e-06	3.403604e-06	8.642117e-10	2.360495e+01	6.236276e+01
2.630000e-06	3.440369e-06	8.683700e-10	2.385993e+01	6.276608e+01
2.640000e-06	3.476937e-06	8.720697e-10	2.411353e+01	6.314840e+01
2.650000e-06	3.513274e-06	8.760396e-10	2.436554e+01	6.351046e+01
2.660000e-06	3.549370e-06	8.809469e-10	2.461588e+01	6.385307e+01
2.670000e-06	3.585261e-06	8.865397e-10	2.486479e+01	6.417705e+01
2.680000e-06	3.621027e-06	8.917532e-10	2.511284e+01	6.448328e+01
2.690000e-06	3.656716e-06	8.963078e-10	2.536035e+01	6.477264e+01
2.700000e-06	3.692236e-06	9.021126e-10	2.560669e+01	6.504607e+01
2.710000e-06	3.727542e-06	9.093315e-10	2.585155e+01	6.530452e+01
2.720000e-06	3.762597e-06	9.172579e-10	2.609467e+01	6.554896e+01
2.730000e-06	3.797262e-06	9.223302e-10	2.633508e+01	6.578038e+01
2.740000e-06	3.831511e-06	9.266220e-10	2.657261e+01	6.599977e+01
2.750000e-06	3.865234e-06	9.273182e-10	2.680648e+01	6.620811e+01
2.760000e-06	3.898412e-06	9.264234e-10	2.703658e+01	6.640638e+01
2.770000e-06	3.931214e-06	9.276564e-10	2.726408e+01	6.659552e+01
2.780000e-06	3.963663e-06	9.320156e-10	2.748912e+01	6.677646e+01
2.790000e-06	3.995851e-06	9.405593e-10	2.771235e+01	6.695008e+01
2.800000e-06	4.027876e-06	9.468361e-10	2.793445e+01	6.711723e+01
2.810000e-06	4.059712e-06	9.490639e-10	2.815524e+01	6.727867e+01
2.820000e-06	4.091398e-06	9.490250e-10	2.837500e+01	6.743514e+01
2.830000e-06	4.122884e-06	9.483131e-10	2.859336e+01	6.758729e+01
2.840000e-06	4.154128e-06	9.473236e-10	2.881004e+01	6.773567e+01
2.850000e-06	4.185074e-06	9.486064e-10	2.902466e+01	6.788080e+01
2.860000e-06	4.215680e-06	9.528888e-10	2.923692e+01	6.802309e+01
2.870000e-06	4.245914e-06	9.597962e-10	2.944661e+01	6.816285e+01
2.880000e-06	4.275819e-06	9.656608e-10	2.965401e+01	6.830034e+01
2.890000e-06	4.305505e-06	9.693059e-10	2.985988e+01	6.843570e+01
2.900000e-06	4.334932e-06	9.694140e-10	3.006397e+01	6.856901e+01
