# Temperatura_=_9.4
# Concentracion g/m^3_=_1620.0
# C_Vs_to_Am_M_A/Vsm_=_65563218390.804596
# pendiente_HvsI_1/m_=_3716.3
# ordenada_HvsI_A/m_=_1297.0
# frecuencia_Hz_=_135096.5582734412

Tiempo_(s)	Campo_(V.s)	Magnetizacion_(V.s)	Campo_(kA/m)	Magnetizacion_(A/m)
0.000000e+00	-5.544219e-06	-1.519152e-09	-3.838711e+01	-9.918425e+01
1.000000e-08	-5.544347e-06	-1.519651e-09	-3.838800e+01	-9.911403e+01
2.000000e-08	-5.544086e-06	-1.522416e-09	-3.838619e+01	-9.904728e+01
3.000000e-08	-5.543325e-06	-1.524082e-09	-3.838092e+01	-9.898438e+01
4.000000e-08	-5.542040e-06	-1.522531e-09	-3.837203e+01	-9.892566e+01
5.000000e-08	-5.540210e-06	-1.517951e-09	-3.835936e+01	-9.887133e+01
6.000000e-08	-5.537816e-06	-1.521510e-09	-3.834278e+01	-9.882152e+01
7.000000e-08	-5.534910e-06	-1.524844e-09	-3.832266e+01	-9.877624e+01
8.000000e-08	-5.531541e-06	-1.533730e-09	-3.829933e+01	-9.873539e+01
9.000000e-08	-5.527751e-06	-1.537925e-09	-3.827309e+01	-9.869879e+01
1.000000e-07	-5.523511e-06	-1.517002e-09	-3.824373e+01	-9.866610e+01
1.100000e-07	-5.518984e-06	-1.451666e-09	-3.821239e+01	-9.863692e+01
1.200000e-07	-5.514361e-06	-1.451160e-09	-3.818038e+01	-9.861072e+01
1.300000e-07	-5.509376e-06	-1.503496e-09	-3.814587e+01	-9.858691e+01
1.400000e-07	-5.503941e-06	-1.577298e-09	-3.810824e+01	-9.856478e+01
1.500000e-07	-5.498057e-06	-1.515715e-09	-3.806749e+01	-9.854357e+01
1.600000e-07	-5.491813e-06	-1.469344e-09	-3.802426e+01	-9.852245e+01
1.700000e-07	-5.485251e-06	-1.486613e-09	-3.797883e+01	-9.850056e+01
1.800000e-07	-5.478302e-06	-1.561746e-09	-3.793072e+01	-9.847699e+01
1.900000e-07	-5.471011e-06	-1.524541e-09	-3.788024e+01	-9.845083e+01
2.000000e-07	-5.463446e-06	-1.476934e-09	-3.782786e+01	-9.842115e+01
2.100000e-07	-5.455614e-06	-1.499108e-09	-3.777363e+01	-9.838705e+01
2.200000e-07	-5.447287e-06	-1.576329e-09	-3.771597e+01	-9.834767e+01
2.300000e-07	-5.438501e-06	-1.565826e-09	-3.765514e+01	-9.830218e+01
2.400000e-07	-5.429309e-06	-1.507332e-09	-3.759150e+01	-9.824982e+01
2.500000e-07	-5.419407e-06	-1.510409e-09	-3.752294e+01	-9.818989e+01
2.600000e-07	-5.408830e-06	-1.543398e-09	-3.744970e+01	-9.812180e+01
2.700000e-07	-5.397806e-06	-1.552348e-09	-3.737337e+01	-9.804503e+01
2.800000e-07	-5.386392e-06	-1.510265e-09	-3.729435e+01	-9.795920e+01
2.900000e-07	-5.374637e-06	-1.520684e-09	-3.721296e+01	-9.786400e+01
3.000000e-07	-5.362510e-06	-1.519716e-09	-3.712899e+01	-9.775925e+01
3.100000e-07	-5.349949e-06	-1.523254e-09	-3.704203e+01	-9.764490e+01
3.200000e-07	-5.336976e-06	-1.483740e-09	-3.695220e+01	-9.752101e+01
3.300000e-07	-5.323640e-06	-1.512680e-09	-3.685987e+01	-9.738774e+01
3.400000e-07	-5.309856e-06	-1.518037e-09	-3.676443e+01	-9.724537e+01
3.500000e-07	-5.295640e-06	-1.527559e-09	-3.666600e+01	-9.709429e+01
3.600000e-07	-5.281008e-06	-1.495301e-09	-3.656469e+01	-9.693497e+01
3.700000e-07	-5.265904e-06	-1.509527e-09	-3.646011e+01	-9.676797e+01
3.800000e-07	-5.250224e-06	-1.493249e-09	-3.635155e+01	-9.659392e+01
3.900000e-07	-5.233955e-06	-1.483721e-09	-3.623890e+01	-9.641352e+01
4.000000e-07	-5.217341e-06	-1.474891e-09	-3.612387e+01	-9.622751e+01
4.100000e-07	-5.200494e-06	-1.492388e-09	-3.600723e+01	-9.603665e+01
4.200000e-07	-5.183422e-06	-1.480370e-09	-3.588903e+01	-9.584173e+01
4.300000e-07	-5.165994e-06	-1.478483e-09	-3.576836e+01	-9.564354e+01
4.400000e-07	-5.148054e-06	-1.490041e-09	-3.564414e+01	-9.544284e+01
4.500000e-07	-5.129650e-06	-1.490440e-09	-3.551671e+01	-9.524040e+01
4.600000e-07	-5.110871e-06	-1.459823e-09	-3.538670e+01	-9.503691e+01
4.700000e-07	-5.091732e-06	-1.448056e-09	-3.525418e+01	-9.483303e+01
4.800000e-07	-5.072293e-06	-1.452873e-09	-3.511959e+01	-9.462934e+01
4.900000e-07	-5.052718e-06	-1.449600e-09	-3.498405e+01	-9.442637e+01
5.000000e-07	-5.032942e-06	-1.445672e-09	-3.484713e+01	-9.422456e+01
5.100000e-07	-5.012803e-06	-1.441050e-09	-3.470769e+01	-9.402424e+01
5.200000e-07	-4.992197e-06	-1.442420e-09	-3.456502e+01	-9.382570e+01
5.300000e-07	-4.971215e-06	-1.444749e-09	-3.441975e+01	-9.362909e+01
5.400000e-07	-4.950010e-06	-1.450950e-09	-3.427292e+01	-9.343448e+01
5.500000e-07	-4.928505e-06	-1.434980e-09	-3.412402e+01	-9.324188e+01
5.600000e-07	-4.906764e-06	-1.423870e-09	-3.397350e+01	-9.305117e+01
5.700000e-07	-4.884731e-06	-1.412364e-09	-3.382095e+01	-9.286217e+01
5.800000e-07	-4.862153e-06	-1.414732e-09	-3.366461e+01	-9.267463e+01
5.900000e-07	-4.839108e-06	-1.415269e-09	-3.350506e+01	-9.248822e+01
6.000000e-07	-4.815828e-06	-1.419715e-09	-3.334387e+01	-9.230255e+01
6.100000e-07	-4.792322e-06	-1.407871e-09	-3.318112e+01	-9.211721e+01
6.200000e-07	-4.768557e-06	-1.411093e-09	-3.301658e+01	-9.193171e+01
6.300000e-07	-4.744625e-06	-1.411153e-09	-3.285088e+01	-9.174557e+01
6.400000e-07	-4.720408e-06	-1.406290e-09	-3.268321e+01	-9.155828e+01
6.500000e-07	-4.695697e-06	-1.392886e-09	-3.251211e+01	-9.136934e+01
6.600000e-07	-4.670385e-06	-1.403337e-09	-3.233685e+01	-9.117824e+01
6.700000e-07	-4.644531e-06	-1.397749e-09	-3.215784e+01	-9.098449e+01
6.800000e-07	-4.618186e-06	-1.386318e-09	-3.197544e+01	-9.078764e+01
6.900000e-07	-4.591497e-06	-1.382978e-09	-3.179065e+01	-9.058728e+01
7.000000e-07	-4.564522e-06	-1.388688e-09	-3.160388e+01	-9.038302e+01
7.100000e-07	-4.537189e-06	-1.370999e-09	-3.141463e+01	-9.017454e+01
7.200000e-07	-4.509634e-06	-1.364814e-09	-3.122384e+01	-8.996157e+01
7.300000e-07	-4.481898e-06	-1.370376e-09	-3.103181e+01	-8.974390e+01
7.400000e-07	-4.453920e-06	-1.368768e-09	-3.083809e+01	-8.952137e+01
7.500000e-07	-4.425638e-06	-1.358318e-09	-3.064227e+01	-8.929389e+01
7.600000e-07	-4.396991e-06	-1.361285e-09	-3.044393e+01	-8.906143e+01
7.700000e-07	-4.368012e-06	-1.359241e-09	-3.024328e+01	-8.882402e+01
7.800000e-07	-4.338741e-06	-1.345578e-09	-3.004062e+01	-8.858173e+01
7.900000e-07	-4.309189e-06	-1.341614e-09	-2.983600e+01	-8.833469e+01
8.000000e-07	-4.279362e-06	-1.341290e-09	-2.962948e+01	-8.808308e+01
8.100000e-07	-4.249265e-06	-1.328755e-09	-2.942110e+01	-8.782710e+01
8.200000e-07	-4.218994e-06	-1.315474e-09	-2.921150e+01	-8.756699e+01
8.300000e-07	-4.188331e-06	-1.318892e-09	-2.899921e+01	-8.730302e+01
8.400000e-07	-4.157255e-06	-1.318480e-09	-2.878404e+01	-8.703548e+01
8.500000e-07	-4.125965e-06	-1.315719e-09	-2.856739e+01	-8.676463e+01
8.600000e-07	-4.094447e-06	-1.313648e-09	-2.834917e+01	-8.649078e+01
8.700000e-07	-4.062789e-06	-1.311247e-09	-2.812997e+01	-8.621420e+01
8.800000e-07	-4.030936e-06	-1.297451e-09	-2.790943e+01	-8.593516e+01
8.900000e-07	-3.998808e-06	-1.291171e-09	-2.768698e+01	-8.565391e+01
9.000000e-07	-3.966422e-06	-1.285277e-09	-2.746275e+01	-8.537066e+01
9.100000e-07	-3.933764e-06	-1.280225e-09	-2.723663e+01	-8.508562e+01
9.200000e-07	-3.900705e-06	-1.276608e-09	-2.700774e+01	-8.479893e+01
9.300000e-07	-3.867082e-06	-1.281477e-09	-2.677493e+01	-8.451073e+01
9.400000e-07	-3.832948e-06	-1.276314e-09	-2.653860e+01	-8.422109e+01
9.500000e-07	-3.798480e-06	-1.269715e-09	-2.629995e+01	-8.393006e+01
9.600000e-07	-3.763676e-06	-1.262997e-09	-2.605897e+01	-8.363765e+01
9.700000e-07	-3.728548e-06	-1.257910e-09	-2.581575e+01	-8.334382e+01
9.800000e-07	-3.693191e-06	-1.246513e-09	-2.557095e+01	-8.304851e+01
9.900000e-07	-3.657677e-06	-1.238917e-09	-2.532506e+01	-8.275163e+01
1.000000e-06	-3.622046e-06	-1.229940e-09	-2.507836e+01	-8.245303e+01
1.010000e-06	-3.586257e-06	-1.224461e-09	-2.483056e+01	-8.215258e+01
1.020000e-06	-3.550238e-06	-1.222455e-09	-2.458117e+01	-8.185008e+01
1.030000e-06	-3.513974e-06	-1.223451e-09	-2.433008e+01	-8.154535e+01
1.040000e-06	-3.477429e-06	-1.218509e-09	-2.407705e+01	-8.123818e+01
1.050000e-06	-3.440604e-06	-1.210238e-09	-2.382208e+01	-8.092834e+01
1.060000e-06	-3.403546e-06	-1.202921e-09	-2.356550e+01	-8.061563e+01
1.070000e-06	-3.366244e-06	-1.194568e-09	-2.330723e+01	-8.029983e+01
1.080000e-06	-3.328693e-06	-1.185926e-09	-2.304723e+01	-7.998070e+01
1.090000e-06	-3.290893e-06	-1.178176e-09	-2.278551e+01	-7.965804e+01
1.100000e-06	-3.252838e-06	-1.169179e-09	-2.252203e+01	-7.933166e+01
1.110000e-06	-3.214519e-06	-1.157720e-09	-2.225671e+01	-7.900135e+01
1.120000e-06	-3.175972e-06	-1.150458e-09	-2.198982e+01	-7.866694e+01
1.130000e-06	-3.137228e-06	-1.145708e-09	-2.172157e+01	-7.832826e+01
1.140000e-06	-3.098257e-06	-1.143483e-09	-2.145174e+01	-7.798516e+01
1.150000e-06	-3.059122e-06	-1.141676e-09	-2.118077e+01	-7.763750e+01
1.160000e-06	-3.019844e-06	-1.137997e-09	-2.090882e+01	-7.728514e+01
1.170000e-06	-2.980414e-06	-1.125978e-09	-2.063582e+01	-7.692798e+01
1.180000e-06	-2.940870e-06	-1.117331e-09	-2.036202e+01	-7.656590e+01
1.190000e-06	-2.901162e-06	-1.113797e-09	-2.008709e+01	-7.619880e+01
1.200000e-06	-2.861293e-06	-1.111462e-09	-1.981104e+01	-7.582658e+01
1.210000e-06	-2.821311e-06	-1.106372e-09	-1.953422e+01	-7.544913e+01
1.220000e-06	-2.781180e-06	-1.104682e-09	-1.925636e+01	-7.506636e+01
1.230000e-06	-2.740875e-06	-1.102446e-09	-1.897729e+01	-7.467816e+01
1.240000e-06	-2.700354e-06	-1.096677e-09	-1.869674e+01	-7.428442e+01
1.250000e-06	-2.659473e-06	-1.086645e-09	-1.841368e+01	-7.388501e+01
1.260000e-06	-2.618259e-06	-1.079000e-09	-1.812832e+01	-7.347980e+01
1.270000e-06	-2.576867e-06	-1.067219e-09	-1.784173e+01	-7.306864e+01
1.280000e-06	-2.535343e-06	-1.059116e-09	-1.755423e+01	-7.265136e+01
1.290000e-06	-2.493452e-06	-1.051982e-09	-1.726418e+01	-7.222780e+01
1.300000e-06	-2.451136e-06	-1.045000e-09	-1.697120e+01	-7.179775e+01
1.310000e-06	-2.408547e-06	-1.035106e-09	-1.667632e+01	-7.136101e+01
1.320000e-06	-2.365742e-06	-1.026046e-09	-1.637994e+01	-7.091736e+01
1.330000e-06	-2.322714e-06	-1.015994e-09	-1.608203e+01	-7.046655e+01
1.340000e-06	-2.279453e-06	-1.007324e-09	-1.578249e+01	-7.000833e+01
1.350000e-06	-2.236040e-06	-1.006484e-09	-1.548191e+01	-6.954245e+01
1.360000e-06	-2.192467e-06	-1.006455e-09	-1.518022e+01	-6.906861e+01
1.370000e-06	-2.148792e-06	-1.002120e-09	-1.487783e+01	-6.858656e+01
1.380000e-06	-2.105049e-06	-9.914533e-10	-1.457496e+01	-6.809598e+01
1.390000e-06	-2.061251e-06	-9.792415e-10	-1.427171e+01	-6.759660e+01
1.400000e-06	-2.017368e-06	-9.666484e-10	-1.396787e+01	-6.708811e+01
1.410000e-06	-1.973391e-06	-9.541234e-10	-1.366338e+01	-6.657022e+01
1.420000e-06	-1.929291e-06	-9.446132e-10	-1.335804e+01	-6.604262e+01
1.430000e-06	-1.885011e-06	-9.403025e-10	-1.305145e+01	-6.550501e+01
1.440000e-06	-1.840637e-06	-9.368174e-10	-1.274422e+01	-6.495709e+01
1.450000e-06	-1.796208e-06	-9.327579e-10	-1.243660e+01	-6.439854e+01
1.460000e-06	-1.751628e-06	-9.223148e-10	-1.212794e+01	-6.382907e+01
1.470000e-06	-1.706863e-06	-9.106395e-10	-1.181799e+01	-6.324835e+01
1.480000e-06	-1.662011e-06	-8.962808e-10	-1.150744e+01	-6.265606e+01
1.490000e-06	-1.617031e-06	-8.797542e-10	-1.119602e+01	-6.205186e+01
1.500000e-06	-1.571925e-06	-8.641081e-10	-1.088371e+01	-6.143541e+01
1.510000e-06	-1.526655e-06	-8.530484e-10	-1.057027e+01	-6.080631e+01
1.520000e-06	-1.481170e-06	-8.458703e-10	-1.025534e+01	-6.016419e+01
1.530000e-06	-1.435608e-06	-8.373077e-10	-9.939876e+00	-5.950860e+01
1.540000e-06	-1.389968e-06	-8.280990e-10	-9.623875e+00	-5.883910e+01
1.550000e-06	-1.344287e-06	-8.168176e-10	-9.307587e+00	-5.815517e+01
1.560000e-06	-1.298636e-06	-8.046047e-10	-8.991505e+00	-5.745626e+01
1.570000e-06	-1.252935e-06	-7.939903e-10	-8.675083e+00	-5.674179e+01
1.580000e-06	-1.207164e-06	-7.808268e-10	-8.358175e+00	-5.601108e+01
1.590000e-06	-1.161192e-06	-7.659332e-10	-8.039870e+00	-5.526344e+01
1.600000e-06	-1.115003e-06	-7.491424e-10	-7.720066e+00	-5.449810e+01
1.610000e-06	-1.068812e-06	-7.355470e-10	-7.400247e+00	-5.371420e+01
1.620000e-06	-1.022515e-06	-7.241572e-10	-7.079699e+00	-5.291086e+01
1.630000e-06	-9.761895e-07	-7.190176e-10	-6.758950e+00	-5.208712e+01
1.640000e-06	-9.299006e-07	-7.124500e-10	-6.438454e+00	-5.124193e+01
1.650000e-06	-8.834393e-07	-7.018708e-10	-6.116765e+00	-5.037423e+01
1.660000e-06	-8.369490e-07	-6.883269e-10	-5.794875e+00	-4.948287e+01
1.670000e-06	-7.904584e-07	-6.709752e-10	-5.472983e+00	-4.856666e+01
1.680000e-06	-7.438719e-07	-6.534902e-10	-5.150427e+00	-4.762436e+01
1.690000e-06	-6.972172e-07	-6.328858e-10	-4.827399e+00	-4.665472e+01
1.700000e-06	-6.505119e-07	-6.105192e-10	-4.504020e+00	-4.565645e+01
1.710000e-06	-6.037852e-07	-5.933521e-10	-4.180493e+00	-4.462824e+01
1.720000e-06	-5.570067e-07	-5.817173e-10	-3.856608e+00	-4.356881e+01
1.730000e-06	-5.101559e-07	-5.697497e-10	-3.532222e+00	-4.247685e+01
1.740000e-06	-4.632148e-07	-5.554592e-10	-3.207211e+00	-4.135113e+01
1.750000e-06	-4.161722e-07	-5.373284e-10	-2.881497e+00	-4.019043e+01
1.760000e-06	-3.692096e-07	-5.139191e-10	-2.556336e+00	-3.899360e+01
1.770000e-06	-3.222249e-07	-4.904828e-10	-2.231024e+00	-3.775957e+01
1.780000e-06	-2.751413e-07	-4.670784e-10	-1.905025e+00	-3.648735e+01
1.790000e-06	-2.280955e-07	-4.435327e-10	-1.579290e+00	-3.517607e+01
1.800000e-06	-1.810062e-07	-4.253144e-10	-1.253252e+00	-3.382498e+01
1.810000e-06	-1.339727e-07	-4.091425e-10	-9.276011e-01	-3.243347e+01
1.820000e-06	-8.694737e-08	-3.929398e-10	-6.020069e-01	-3.100107e+01
1.830000e-06	-3.982484e-08	-3.738729e-10	-2.757396e-01	-2.952749e+01
1.840000e-06	7.279997e-09	-3.546237e-10	5.040531e-02	-2.801261e+01
1.850000e-06	5.428515e-08	-3.333721e-10	3.758600e-01	-2.645648e+01
1.860000e-06	1.012331e-07	-3.080419e-10	7.009184e-01	-2.485936e+01
1.870000e-06	1.482677e-07	-2.825100e-10	1.026577e+00	-2.322171e+01
1.880000e-06	1.953601e-07	-2.602519e-10	1.352636e+00	-2.154417e+01
1.890000e-06	2.423951e-07	-2.379940e-10	1.678297e+00	-1.982762e+01
1.900000e-06	2.893613e-07	-2.114806e-10	2.003482e+00	-1.807312e+01
1.910000e-06	3.363336e-07	-1.828014e-10	2.328709e+00	-1.628193e+01
1.920000e-06	3.832917e-07	-1.550591e-10	2.653839e+00	-1.445553e+01
1.930000e-06	4.301940e-07	-1.288371e-10	2.978581e+00	-1.259558e+01
1.940000e-06	4.771306e-07	-1.036937e-10	3.303561e+00	-1.070393e+01
1.950000e-06	5.240122e-07	-7.721550e-11	3.628161e+00	-8.782591e+00
1.960000e-06	5.707784e-07	-5.339266e-11	3.951960e+00	-6.833752e+00
1.970000e-06	6.175296e-07	-3.077360e-11	4.275657e+00	-4.859748e+00
1.980000e-06	6.641474e-07	-6.709644e-12	4.598429e+00	-2.863049e+00
1.990000e-06	7.106718e-07	2.144670e-11	4.920556e+00	-8.462443e-01
2.000000e-06	7.572133e-07	5.434747e-11	5.242800e+00	1.187973e+00
2.010000e-06	8.037579e-07	8.784844e-11	5.565066e+00	3.236826e+00
2.020000e-06	8.502524e-07	1.188575e-10	5.886985e+00	5.297467e+00
2.030000e-06	8.966521e-07	1.452607e-10	6.208248e+00	7.367004e+00
2.040000e-06	9.429859e-07	1.683307e-10	6.529054e+00	9.442510e+00
2.050000e-06	9.891942e-07	1.933494e-10	6.848991e+00	1.152105e+01
2.060000e-06	1.035325e-06	2.192587e-10	7.168395e+00	1.359969e+01
2.070000e-06	1.081440e-06	2.485743e-10	7.487685e+00	1.567552e+01
2.080000e-06	1.127521e-06	2.815948e-10	7.806741e+00	1.774569e+01
2.090000e-06	1.173487e-06	3.149148e-10	8.124997e+00	1.980737e+01
2.100000e-06	1.219317e-06	3.488201e-10	8.442320e+00	2.185783e+01
2.110000e-06	1.265052e-06	3.788793e-10	8.758980e+00	2.389442e+01
2.120000e-06	1.310696e-06	4.046514e-10	9.075008e+00	2.591459e+01
2.130000e-06	1.356299e-06	4.265084e-10	9.390757e+00	2.791589e+01
2.140000e-06	1.401816e-06	4.474069e-10	9.705904e+00	2.989601e+01
2.150000e-06	1.447287e-06	4.714696e-10	1.002074e+01	3.185275e+01
2.160000e-06	1.492699e-06	4.981881e-10	1.033517e+01	3.378406e+01
2.170000e-06	1.537932e-06	5.270732e-10	1.064835e+01	3.568803e+01
2.180000e-06	1.583063e-06	5.557446e-10	1.096083e+01	3.756290e+01
2.190000e-06	1.628099e-06	5.821586e-10	1.127265e+01	3.940707e+01
2.200000e-06	1.672937e-06	6.076723e-10	1.158310e+01	4.121908e+01
2.210000e-06	1.717559e-06	6.346310e-10	1.189205e+01	4.299763e+01
2.220000e-06	1.762044e-06	6.613248e-10	1.220006e+01	4.474158e+01
2.230000e-06	1.806446e-06	6.832543e-10	1.250749e+01	4.644994e+01
2.240000e-06	1.850737e-06	7.028291e-10	1.281415e+01	4.812189e+01
2.250000e-06	1.894853e-06	7.219714e-10	1.311960e+01	4.975672e+01
2.260000e-06	1.938844e-06	7.427675e-10	1.342419e+01	5.135390e+01
2.270000e-06	1.982795e-06	7.644209e-10	1.372849e+01	5.291302e+01
2.280000e-06	2.026651e-06	7.868077e-10	1.403214e+01	5.443383e+01
2.290000e-06	2.070416e-06	8.098267e-10	1.433516e+01	5.591617e+01
2.300000e-06	2.114150e-06	8.309137e-10	1.463797e+01	5.736005e+01
2.310000e-06	2.157852e-06	8.513720e-10	1.494055e+01	5.876554e+01
2.320000e-06	2.201496e-06	8.703577e-10	1.524274e+01	6.013287e+01
2.330000e-06	2.245072e-06	8.876685e-10	1.554445e+01	6.146234e+01
2.340000e-06	2.288559e-06	9.046691e-10	1.584554e+01	6.275435e+01
2.350000e-06	2.331889e-06	9.231108e-10	1.614555e+01	6.400938e+01
2.360000e-06	2.374988e-06	9.426940e-10	1.644397e+01	6.522799e+01
2.370000e-06	2.417752e-06	9.608989e-10	1.674006e+01	6.641081e+01
2.380000e-06	2.460206e-06	9.784322e-10	1.703399e+01	6.755852e+01
2.390000e-06	2.502397e-06	9.953743e-10	1.732612e+01	6.867186e+01
2.400000e-06	2.544265e-06	1.012062e-09	1.761600e+01	6.975161e+01
2.410000e-06	2.585827e-06	1.029369e-09	1.790377e+01	7.079858e+01
2.420000e-06	2.627064e-06	1.043762e-09	1.818929e+01	7.181361e+01
2.430000e-06	2.668024e-06	1.055162e-09	1.847289e+01	7.279756e+01
2.440000e-06	2.708688e-06	1.065280e-09	1.875444e+01	7.375130e+01
2.450000e-06	2.749042e-06	1.076443e-09	1.903384e+01	7.467571e+01
2.460000e-06	2.789206e-06	1.089105e-09	1.931193e+01	7.557164e+01
2.470000e-06	2.829228e-06	1.100392e-09	1.958903e+01	7.643996e+01
2.480000e-06	2.869148e-06	1.110474e-09	1.986543e+01	7.728152e+01
2.490000e-06	2.908926e-06	1.122027e-09	2.014085e+01	7.809715e+01
2.500000e-06	2.948603e-06	1.134595e-09	2.041556e+01	7.888763e+01
2.510000e-06	2.988149e-06	1.146813e-09	2.068937e+01	7.965375e+01
2.520000e-06	3.027509e-06	1.158009e-09	2.096189e+01	8.039624e+01
2.530000e-06	3.066670e-06	1.166407e-09	2.123304e+01	8.111581e+01
2.540000e-06	3.105626e-06	1.173835e-09	2.150276e+01	8.181312e+01
2.550000e-06	3.144387e-06	1.181086e-09	2.177113e+01	8.248879e+01
2.560000e-06	3.182887e-06	1.188878e-09	2.203770e+01	8.314341e+01
2.570000e-06	3.221237e-06	1.197442e-09	2.230323e+01	8.377754e+01
2.580000e-06	3.259353e-06	1.206591e-09	2.256713e+01	8.439168e+01
2.590000e-06	3.297151e-06	1.217328e-09	2.282885e+01	8.498630e+01
2.600000e-06	3.334698e-06	1.228468e-09	2.308881e+01	8.556186e+01
2.610000e-06	3.372011e-06	1.239345e-09	2.334716e+01	8.611874e+01
2.620000e-06	3.409149e-06	1.249456e-09	2.360430e+01	8.665735e+01
2.630000e-06	3.446087e-06	1.256482e-09	2.386005e+01	8.717803e+01
2.640000e-06	3.482759e-06	1.260612e-09	2.411396e+01	8.768112e+01
2.650000e-06	3.519211e-06	1.263217e-09	2.436634e+01	8.816695e+01
2.660000e-06	3.555432e-06	1.267296e-09	2.461713e+01	8.863584e+01
2.670000e-06	3.591425e-06	1.274855e-09	2.486634e+01	8.908810e+01
2.680000e-06	3.627287e-06	1.283888e-09	2.511464e+01	8.952404e+01
2.690000e-06	3.662979e-06	1.292258e-09	2.536176e+01	8.994397e+01
2.700000e-06	3.698507e-06	1.299446e-09	2.560775e+01	9.034823e+01
2.710000e-06	3.733896e-06	1.306302e-09	2.585278e+01	9.073717e+01
2.720000e-06	3.769115e-06	1.311932e-09	2.609663e+01	9.111113e+01
2.730000e-06	3.804085e-06	1.315522e-09	2.633876e+01	9.147051e+01
2.740000e-06	3.838639e-06	1.318892e-09	2.657800e+01	9.181571e+01
2.750000e-06	3.872639e-06	1.321062e-09	2.681341e+01	9.214716e+01
2.760000e-06	3.906064e-06	1.324186e-09	2.704484e+01	9.246534e+01
2.770000e-06	3.939030e-06	1.329651e-09	2.727309e+01	9.277071e+01
2.780000e-06	3.971608e-06	1.337388e-09	2.749865e+01	9.306381e+01
2.790000e-06	4.003873e-06	1.345169e-09	2.772205e+01	9.334518e+01
2.800000e-06	4.035955e-06	1.351271e-09	2.794418e+01	9.361536e+01
2.810000e-06	4.067829e-06	1.354323e-09	2.816487e+01	9.387496e+01
2.820000e-06	4.099506e-06	1.355784e-09	2.838420e+01	9.412457e+01
2.830000e-06	4.131012e-06	1.358761e-09	2.860233e+01	9.436480e+01
2.840000e-06	4.162288e-06	1.361151e-09	2.881888e+01	9.459627e+01
2.850000e-06	4.193324e-06	1.361572e-09	2.903377e+01	9.481960e+01
2.860000e-06	4.224031e-06	1.362816e-09	2.924638e+01	9.503540e+01
2.870000e-06	4.254357e-06	1.368126e-09	2.945636e+01	9.524427e+01
2.880000e-06	4.284346e-06	1.372868e-09	2.966399e+01	9.544681e+01
2.890000e-06	4.313958e-06	1.375171e-09	2.986902e+01	9.564356e+01
2.900000e-06	4.343270e-06	1.374035e-09	3.007197e+01	9.583505e+01
