# Temperatura_=_-8.2
# Concentracion g/m^3_=_1620.0
# C_Vs_to_Am_M_A/Vsm_=_65563218390.804596
# pendiente_HvsI_1/m_=_3716.3
# ordenada_HvsI_A/m_=_1297.0
# frecuencia_Hz_=_135102.73372270042

Tiempo_(s)	Campo_(V.s)	Magnetizacion_(V.s)	Campo_(kA/m)	Magnetizacion_(A/m)
0.000000e+00	-5.543093e-06	-1.220378e-09	-3.836843e+01	-8.120000e+01
1.000000e-08	-5.543228e-06	-1.218720e-09	-3.836937e+01	-8.115313e+01
2.000000e-08	-5.543122e-06	-1.218847e-09	-3.836863e+01	-8.110823e+01
3.000000e-08	-5.542709e-06	-1.219397e-09	-3.836578e+01	-8.106557e+01
4.000000e-08	-5.541740e-06	-1.218333e-09	-3.835907e+01	-8.102532e+01
5.000000e-08	-5.540230e-06	-1.212027e-09	-3.834861e+01	-8.098764e+01
6.000000e-08	-5.538212e-06	-1.198540e-09	-3.833465e+01	-8.095259e+01
7.000000e-08	-5.535532e-06	-1.193071e-09	-3.831610e+01	-8.092018e+01
8.000000e-08	-5.532331e-06	-1.232725e-09	-3.829394e+01	-8.089035e+01
9.000000e-08	-5.528704e-06	-1.286164e-09	-3.826883e+01	-8.086296e+01
1.000000e-07	-5.524625e-06	-1.250601e-09	-3.824060e+01	-8.083781e+01
1.100000e-07	-5.520257e-06	-1.156351e-09	-3.821037e+01	-8.081460e+01
1.200000e-07	-5.515747e-06	-1.147692e-09	-3.817915e+01	-8.079299e+01
1.300000e-07	-5.510957e-06	-1.215137e-09	-3.814600e+01	-8.077255e+01
1.400000e-07	-5.505648e-06	-1.252482e-09	-3.810924e+01	-8.075280e+01
1.500000e-07	-5.499959e-06	-1.176230e-09	-3.806987e+01	-8.073320e+01
1.600000e-07	-5.494008e-06	-1.170876e-09	-3.802867e+01	-8.071316e+01
1.700000e-07	-5.487643e-06	-1.222092e-09	-3.798462e+01	-8.069205e+01
1.800000e-07	-5.480801e-06	-1.255062e-09	-3.793726e+01	-8.066922e+01
1.900000e-07	-5.473588e-06	-1.193613e-09	-3.788733e+01	-8.064399e+01
2.000000e-07	-5.466132e-06	-1.168328e-09	-3.783572e+01	-8.061567e+01
2.100000e-07	-5.458389e-06	-1.212296e-09	-3.778213e+01	-8.058359e+01
2.200000e-07	-5.450349e-06	-1.249155e-09	-3.772648e+01	-8.054708e+01
2.300000e-07	-5.442036e-06	-1.219011e-09	-3.766893e+01	-8.050550e+01
2.400000e-07	-5.433360e-06	-1.176705e-09	-3.760888e+01	-8.045825e+01
2.500000e-07	-5.424018e-06	-1.195919e-09	-3.754421e+01	-8.040478e+01
2.600000e-07	-5.413893e-06	-1.216055e-09	-3.747413e+01	-8.034461e+01
2.700000e-07	-5.403213e-06	-1.220485e-09	-3.740020e+01	-8.027731e+01
2.800000e-07	-5.392122e-06	-1.205508e-09	-3.732343e+01	-8.020253e+01
2.900000e-07	-5.380618e-06	-1.225210e-09	-3.724381e+01	-8.012004e+01
3.000000e-07	-5.368688e-06	-1.224470e-09	-3.716123e+01	-8.002965e+01
3.100000e-07	-5.356324e-06	-1.212439e-09	-3.707565e+01	-7.993130e+01
3.200000e-07	-5.343458e-06	-1.189987e-09	-3.698659e+01	-7.982502e+01
3.300000e-07	-5.330241e-06	-1.219613e-09	-3.689510e+01	-7.971094e+01
3.400000e-07	-5.316730e-06	-1.223751e-09	-3.680158e+01	-7.958929e+01
3.500000e-07	-5.302686e-06	-1.214025e-09	-3.670437e+01	-7.946040e+01
3.600000e-07	-5.288186e-06	-1.207242e-09	-3.660401e+01	-7.932468e+01
3.700000e-07	-5.273317e-06	-1.231034e-09	-3.650108e+01	-7.918264e+01
3.800000e-07	-5.257900e-06	-1.201672e-09	-3.639437e+01	-7.903488e+01
3.900000e-07	-5.241944e-06	-1.189559e-09	-3.628393e+01	-7.888205e+01
4.000000e-07	-5.225594e-06	-1.217812e-09	-3.617076e+01	-7.872488e+01
4.100000e-07	-5.208883e-06	-1.225359e-09	-3.605508e+01	-7.856415e+01
4.200000e-07	-5.191705e-06	-1.179813e-09	-3.593618e+01	-7.840068e+01
4.300000e-07	-5.174182e-06	-1.189474e-09	-3.581489e+01	-7.823531e+01
4.400000e-07	-5.156460e-06	-1.225509e-09	-3.569222e+01	-7.806891e+01
4.500000e-07	-5.138337e-06	-1.194216e-09	-3.556677e+01	-7.790234e+01
4.600000e-07	-5.119712e-06	-1.165467e-09	-3.543786e+01	-7.773647e+01
4.700000e-07	-5.100700e-06	-1.197457e-09	-3.530626e+01	-7.757211e+01
4.800000e-07	-5.081399e-06	-1.202908e-09	-3.517266e+01	-7.741006e+01
4.900000e-07	-5.061909e-06	-1.168603e-09	-3.503775e+01	-7.725108e+01
5.000000e-07	-5.042205e-06	-1.188642e-09	-3.490137e+01	-7.709585e+01
5.100000e-07	-5.022219e-06	-1.197784e-09	-3.476302e+01	-7.694498e+01
5.200000e-07	-5.001924e-06	-1.164324e-09	-3.462255e+01	-7.679901e+01
5.300000e-07	-4.981260e-06	-1.168346e-09	-3.447952e+01	-7.665840e+01
5.400000e-07	-4.960149e-06	-1.206498e-09	-3.433338e+01	-7.652351e+01
5.500000e-07	-4.938636e-06	-1.177972e-09	-3.418447e+01	-7.639458e+01
5.600000e-07	-4.916867e-06	-1.158039e-09	-3.403380e+01	-7.627179e+01
5.700000e-07	-4.894854e-06	-1.182616e-09	-3.388142e+01	-7.615518e+01
5.800000e-07	-4.872429e-06	-1.181793e-09	-3.372620e+01	-7.604471e+01
5.900000e-07	-4.849582e-06	-1.149149e-09	-3.356806e+01	-7.594023e+01
6.000000e-07	-4.826445e-06	-1.166983e-09	-3.340790e+01	-7.584149e+01
6.100000e-07	-4.803009e-06	-1.175237e-09	-3.324569e+01	-7.574816e+01
6.200000e-07	-4.779356e-06	-1.151805e-09	-3.308197e+01	-7.565979e+01
6.300000e-07	-4.755576e-06	-1.148922e-09	-3.291736e+01	-7.557589e+01
6.400000e-07	-4.731466e-06	-1.167354e-09	-3.275048e+01	-7.549588e+01
6.500000e-07	-4.706924e-06	-1.149395e-09	-3.258060e+01	-7.541911e+01
6.600000e-07	-4.682050e-06	-1.145790e-09	-3.240843e+01	-7.534489e+01
6.700000e-07	-4.656679e-06	-1.163816e-09	-3.223281e+01	-7.527249e+01
6.800000e-07	-4.630672e-06	-1.159699e-09	-3.205280e+01	-7.520114e+01
6.900000e-07	-4.604086e-06	-1.144478e-09	-3.186877e+01	-7.513007e+01
7.000000e-07	-4.577039e-06	-1.155647e-09	-3.168156e+01	-7.505850e+01
7.100000e-07	-4.549708e-06	-1.154338e-09	-3.149237e+01	-7.498563e+01
7.200000e-07	-4.522194e-06	-1.137568e-09	-3.130193e+01	-7.491071e+01
7.300000e-07	-4.494463e-06	-1.137823e-09	-3.110998e+01	-7.483301e+01
7.400000e-07	-4.466477e-06	-1.143556e-09	-3.091627e+01	-7.475182e+01
7.500000e-07	-4.438285e-06	-1.133699e-09	-3.072113e+01	-7.466651e+01
7.600000e-07	-4.409852e-06	-1.131159e-09	-3.052431e+01	-7.457646e+01
7.700000e-07	-4.381081e-06	-1.137021e-09	-3.032516e+01	-7.448116e+01
7.800000e-07	-4.351917e-06	-1.127151e-09	-3.012330e+01	-7.438013e+01
7.900000e-07	-4.322499e-06	-1.120806e-09	-2.991967e+01	-7.427298e+01
8.000000e-07	-4.292810e-06	-1.122007e-09	-2.971417e+01	-7.415940e+01
8.100000e-07	-4.262757e-06	-1.115604e-09	-2.950615e+01	-7.403916e+01
8.200000e-07	-4.232471e-06	-1.101493e-09	-2.929651e+01	-7.391208e+01
8.300000e-07	-4.201902e-06	-1.104440e-09	-2.908491e+01	-7.377810e+01
8.400000e-07	-4.170981e-06	-1.106281e-09	-2.887089e+01	-7.363720e+01
8.500000e-07	-4.139788e-06	-1.103792e-09	-2.865497e+01	-7.348947e+01
8.600000e-07	-4.108388e-06	-1.105383e-09	-2.843762e+01	-7.333505e+01
8.700000e-07	-4.076831e-06	-1.105694e-09	-2.821920e+01	-7.317413e+01
8.800000e-07	-4.045071e-06	-1.090648e-09	-2.799936e+01	-7.300699e+01
8.900000e-07	-4.013086e-06	-1.083548e-09	-2.777796e+01	-7.283396e+01
9.000000e-07	-3.980899e-06	-1.081357e-09	-2.755517e+01	-7.265538e+01
9.100000e-07	-3.948400e-06	-1.075594e-09	-2.733022e+01	-7.247168e+01
9.200000e-07	-3.915492e-06	-1.069932e-09	-2.710243e+01	-7.228328e+01
9.300000e-07	-3.882153e-06	-1.074290e-09	-2.687166e+01	-7.209064e+01
9.400000e-07	-3.848302e-06	-1.071412e-09	-2.663735e+01	-7.189423e+01
9.500000e-07	-3.813958e-06	-1.064037e-09	-2.639963e+01	-7.169453e+01
9.600000e-07	-3.779217e-06	-1.060971e-09	-2.615915e+01	-7.149202e+01
9.700000e-07	-3.744124e-06	-1.057227e-09	-2.591624e+01	-7.128716e+01
9.800000e-07	-3.708773e-06	-1.048654e-09	-2.567155e+01	-7.108040e+01
9.900000e-07	-3.673253e-06	-1.047279e-09	-2.542569e+01	-7.087217e+01
1.000000e-06	-3.637595e-06	-1.046212e-09	-2.517887e+01	-7.066286e+01
1.010000e-06	-3.601784e-06	-1.039491e-09	-2.493099e+01	-7.045284e+01
1.020000e-06	-3.565828e-06	-1.034525e-09	-2.468211e+01	-7.024243e+01
1.030000e-06	-3.529706e-06	-1.033147e-09	-2.443208e+01	-7.003192e+01
1.040000e-06	-3.493339e-06	-1.029663e-09	-2.418035e+01	-6.982153e+01
1.050000e-06	-3.456650e-06	-1.022885e-09	-2.392640e+01	-6.961147e+01
1.060000e-06	-3.419702e-06	-1.019391e-09	-2.367065e+01	-6.940186e+01
1.070000e-06	-3.382565e-06	-1.014867e-09	-2.341359e+01	-6.919280e+01
1.080000e-06	-3.345210e-06	-1.008763e-09	-2.315503e+01	-6.898432e+01
1.090000e-06	-3.307640e-06	-1.006184e-09	-2.289497e+01	-6.877642e+01
1.100000e-06	-3.269797e-06	-1.006070e-09	-2.263303e+01	-6.856904e+01
1.110000e-06	-3.231724e-06	-1.000219e-09	-2.236949e+01	-6.836208e+01
1.120000e-06	-3.193401e-06	-9.933173e-10	-2.210423e+01	-6.815538e+01
1.130000e-06	-3.154763e-06	-9.884863e-10	-2.183678e+01	-6.794876e+01
1.140000e-06	-3.115896e-06	-9.836305e-10	-2.156775e+01	-6.774201e+01
1.150000e-06	-3.076853e-06	-9.784106e-10	-2.129750e+01	-6.753486e+01
1.160000e-06	-3.037627e-06	-9.775816e-10	-2.102599e+01	-6.732703e+01
1.170000e-06	-2.998190e-06	-9.754338e-10	-2.075300e+01	-6.711820e+01
1.180000e-06	-2.958622e-06	-9.746622e-10	-2.047912e+01	-6.690804e+01
1.190000e-06	-2.918949e-06	-9.749056e-10	-2.020451e+01	-6.669621e+01
1.200000e-06	-2.879143e-06	-9.735893e-10	-1.992898e+01	-6.648233e+01
1.210000e-06	-2.839235e-06	-9.659650e-10	-1.965275e+01	-6.626602e+01
1.220000e-06	-2.799252e-06	-9.580905e-10	-1.937599e+01	-6.604691e+01
1.230000e-06	-2.759047e-06	-9.529454e-10	-1.909769e+01	-6.582461e+01
1.240000e-06	-2.718558e-06	-9.511190e-10	-1.881744e+01	-6.559873e+01
1.250000e-06	-2.677859e-06	-9.500445e-10	-1.853572e+01	-6.536888e+01
1.260000e-06	-2.636953e-06	-9.496668e-10	-1.825258e+01	-6.513469e+01
1.270000e-06	-2.595757e-06	-9.474185e-10	-1.796743e+01	-6.489577e+01
1.280000e-06	-2.554181e-06	-9.412641e-10	-1.767964e+01	-6.465175e+01
1.290000e-06	-2.512218e-06	-9.329661e-10	-1.738919e+01	-6.440228e+01
1.300000e-06	-2.469862e-06	-9.255743e-10	-1.709601e+01	-6.414701e+01
1.310000e-06	-2.427285e-06	-9.184654e-10	-1.680129e+01	-6.388560e+01
1.320000e-06	-2.384540e-06	-9.142925e-10	-1.650542e+01	-6.361771e+01
1.330000e-06	-2.341537e-06	-9.126448e-10	-1.620775e+01	-6.334302e+01
1.340000e-06	-2.298224e-06	-9.095591e-10	-1.590795e+01	-6.306124e+01
1.350000e-06	-2.254750e-06	-9.062007e-10	-1.560703e+01	-6.277206e+01
1.360000e-06	-2.211227e-06	-9.029947e-10	-1.530577e+01	-6.247518e+01
1.370000e-06	-2.167573e-06	-8.976082e-10	-1.500361e+01	-6.217032e+01
1.380000e-06	-2.123793e-06	-8.888373e-10	-1.470057e+01	-6.185720e+01
1.390000e-06	-2.079929e-06	-8.805511e-10	-1.439695e+01	-6.153555e+01
1.400000e-06	-2.036003e-06	-8.739321e-10	-1.409290e+01	-6.120509e+01
1.410000e-06	-1.992009e-06	-8.680173e-10	-1.378838e+01	-6.086556e+01
1.420000e-06	-1.947961e-06	-8.606676e-10	-1.348348e+01	-6.051668e+01
1.430000e-06	-1.903830e-06	-8.544106e-10	-1.317802e+01	-6.015818e+01
1.440000e-06	-1.859519e-06	-8.472800e-10	-1.287131e+01	-5.978977e+01
1.450000e-06	-1.815006e-06	-8.395734e-10	-1.256319e+01	-5.941117e+01
1.460000e-06	-1.770405e-06	-8.322260e-10	-1.225447e+01	-5.902209e+01
1.470000e-06	-1.725773e-06	-8.242453e-10	-1.194554e+01	-5.862220e+01
1.480000e-06	-1.680965e-06	-8.153186e-10	-1.163538e+01	-5.821119e+01
1.490000e-06	-1.635977e-06	-8.058321e-10	-1.132398e+01	-5.778873e+01
1.500000e-06	-1.590938e-06	-7.952626e-10	-1.101223e+01	-5.735446e+01
1.510000e-06	-1.545765e-06	-7.859597e-10	-1.069954e+01	-5.690799e+01
1.520000e-06	-1.500332e-06	-7.781371e-10	-1.038507e+01	-5.644895e+01
1.530000e-06	-1.454806e-06	-7.693333e-10	-1.006994e+01	-5.597690e+01
1.540000e-06	-1.409297e-06	-7.562318e-10	-9.754939e+00	-5.549141e+01
1.550000e-06	-1.363749e-06	-7.421316e-10	-9.439662e+00	-5.499200e+01
1.560000e-06	-1.318151e-06	-7.307899e-10	-9.124035e+00	-5.447816e+01
1.570000e-06	-1.272446e-06	-7.245068e-10	-8.807676e+00	-5.394938e+01
1.580000e-06	-1.226638e-06	-7.191620e-10	-8.490602e+00	-5.340510e+01
1.590000e-06	-1.180740e-06	-7.125472e-10	-8.172902e+00	-5.284472e+01
1.600000e-06	-1.134716e-06	-7.048689e-10	-7.854330e+00	-5.226762e+01
1.610000e-06	-1.088581e-06	-6.972964e-10	-7.534991e+00	-5.167315e+01
1.620000e-06	-1.042374e-06	-6.908010e-10	-7.215154e+00	-5.106062e+01
1.630000e-06	-9.960977e-07	-6.849694e-10	-6.894835e+00	-5.042932e+01
1.640000e-06	-9.497204e-07	-6.766697e-10	-6.573818e+00	-4.977850e+01
1.650000e-06	-9.032402e-07	-6.646282e-10	-6.252089e+00	-4.910739e+01
1.660000e-06	-8.567176e-07	-6.528462e-10	-5.930067e+00	-4.841519e+01
1.670000e-06	-8.102061e-07	-6.397513e-10	-5.608121e+00	-4.770107e+01
1.680000e-06	-7.636617e-07	-6.261581e-10	-5.285948e+00	-4.696418e+01
1.690000e-06	-7.170572e-07	-6.121485e-10	-4.963359e+00	-4.620366e+01
1.700000e-06	-6.704233e-07	-5.977376e-10	-4.640567e+00	-4.541863e+01
1.710000e-06	-6.236947e-07	-5.844691e-10	-4.317118e+00	-4.460820e+01
1.720000e-06	-5.768306e-07	-5.729139e-10	-3.992732e+00	-4.377148e+01
1.730000e-06	-5.299190e-07	-5.609438e-10	-3.668018e+00	-4.290758e+01
1.740000e-06	-4.829987e-07	-5.472235e-10	-3.343242e+00	-4.201561e+01
1.750000e-06	-4.361298e-07	-5.326858e-10	-3.018823e+00	-4.109470e+01
1.760000e-06	-3.892780e-07	-5.179279e-10	-2.694522e+00	-4.014399e+01
1.770000e-06	-3.422989e-07	-5.025660e-10	-2.369340e+00	-3.916267e+01
1.780000e-06	-2.952574e-07	-4.878991e-10	-2.043726e+00	-3.814996e+01
1.790000e-06	-2.481608e-07	-4.734527e-10	-1.717730e+00	-3.710510e+01
1.800000e-06	-2.010370e-07	-4.582980e-10	-1.391547e+00	-3.602741e+01
1.810000e-06	-1.539226e-07	-4.416886e-10	-1.065428e+00	-3.491627e+01
1.820000e-06	-1.067354e-07	-4.250678e-10	-7.388062e-01	-3.377111e+01
1.830000e-06	-5.961891e-08	-4.085473e-10	-4.126729e-01	-3.259147e+01
1.840000e-06	-1.258687e-08	-3.918280e-10	-8.712440e-02	-3.137694e+01
1.850000e-06	3.442164e-08	-3.750949e-10	2.382613e-01	-3.012723e+01
1.860000e-06	8.135927e-08	-3.586981e-10	5.631563e-01	-2.884215e+01
1.870000e-06	1.283111e-07	-3.412401e-10	8.881495e-01	-2.752163e+01
1.880000e-06	1.753657e-07	-3.216581e-10	1.213855e+00	-2.616570e+01
1.890000e-06	2.224535e-07	-3.015815e-10	1.539789e+00	-2.477451e+01
1.900000e-06	2.694961e-07	-2.809592e-10	1.865410e+00	-2.334838e+01
1.910000e-06	3.165087e-07	-2.595124e-10	2.190824e+00	-2.188773e+01
1.920000e-06	3.634944e-07	-2.388739e-10	2.516052e+00	-2.039313e+01
1.930000e-06	4.104831e-07	-2.182316e-10	2.841301e+00	-1.886528e+01
1.940000e-06	4.574073e-07	-1.971033e-10	3.166102e+00	-1.730506e+01
1.950000e-06	5.041902e-07	-1.748519e-10	3.489926e+00	-1.571347e+01
1.960000e-06	5.509536e-07	-1.518174e-10	3.813616e+00	-1.409165e+01
1.970000e-06	5.977049e-07	-1.300545e-10	4.137221e+00	-1.244091e+01
1.980000e-06	6.443344e-07	-1.097404e-10	4.459983e+00	-1.076267e+01
1.990000e-06	6.909687e-07	-8.777351e-11	4.782779e+00	-9.058517e+00
2.000000e-06	7.376362e-07	-6.079007e-11	5.105804e+00	-7.330153e+00
2.010000e-06	7.842117e-07	-3.205425e-11	5.428192e+00	-5.579414e+00
2.020000e-06	8.307078e-07	-3.066486e-12	5.750031e+00	-3.808252e+00
2.030000e-06	8.771660e-07	2.581714e-11	6.071608e+00	-2.018730e+00
2.040000e-06	9.235352e-07	5.134150e-11	6.392568e+00	-2.130115e-01
2.050000e-06	9.697239e-07	7.370874e-11	6.712279e+00	1.606650e+00
2.060000e-06	1.015814e-06	9.464772e-11	7.031310e+00	3.437922e+00
2.070000e-06	1.061885e-06	1.160661e-10	7.350206e+00	5.278408e+00
2.080000e-06	1.107874e-06	1.405974e-10	7.668530e+00	7.125657e+00
2.090000e-06	1.153752e-06	1.683902e-10	7.986096e+00	8.977180e+00
2.100000e-06	1.199587e-06	1.993824e-10	8.303357e+00	1.083046e+01
2.110000e-06	1.245366e-06	2.296874e-10	8.620232e+00	1.268297e+01
2.120000e-06	1.291036e-06	2.580803e-10	8.936349e+00	1.453220e+01
2.130000e-06	1.336599e-06	2.840711e-10	9.251734e+00	1.637562e+01
2.140000e-06	1.382064e-06	3.062777e-10	9.566430e+00	1.821078e+01
2.150000e-06	1.427487e-06	3.265567e-10	9.880846e+00	2.003524e+01
2.160000e-06	1.472901e-06	3.483620e-10	1.019519e+01	2.184664e+01
2.170000e-06	1.518258e-06	3.729053e-10	1.050915e+01	2.364269e+01
2.180000e-06	1.563486e-06	3.991133e-10	1.082221e+01	2.542116e+01
2.190000e-06	1.608539e-06	4.256564e-10	1.113406e+01	2.717994e+01
2.200000e-06	1.653435e-06	4.510960e-10	1.144482e+01	2.891703e+01
2.210000e-06	1.698195e-06	4.736220e-10	1.175464e+01	3.063052e+01
2.220000e-06	1.742798e-06	4.953902e-10	1.206338e+01	3.231866e+01
2.230000e-06	1.787269e-06	5.169622e-10	1.237120e+01	3.397978e+01
2.240000e-06	1.831596e-06	5.381154e-10	1.267803e+01	3.561240e+01
2.250000e-06	1.875787e-06	5.590640e-10	1.298390e+01	3.721513e+01
2.260000e-06	1.919909e-06	5.793018e-10	1.328931e+01	3.878676e+01
2.270000e-06	1.963937e-06	5.991277e-10	1.359407e+01	4.032620e+01
2.280000e-06	2.007859e-06	6.184292e-10	1.389809e+01	4.183253e+01
2.290000e-06	2.051739e-06	6.371140e-10	1.420182e+01	4.330495e+01
2.300000e-06	2.095563e-06	6.560368e-10	1.450516e+01	4.474280e+01
2.310000e-06	2.139351e-06	6.756564e-10	1.480826e+01	4.614558e+01
2.320000e-06	2.183124e-06	6.952495e-10	1.511125e+01	4.751290e+01
2.330000e-06	2.226805e-06	7.144053e-10	1.541360e+01	4.884452e+01
2.340000e-06	2.270367e-06	7.323520e-10	1.571513e+01	5.014031e+01
2.350000e-06	2.313773e-06	7.498944e-10	1.601558e+01	5.140024e+01
2.360000e-06	2.356962e-06	7.669755e-10	1.631452e+01	5.262442e+01
2.370000e-06	2.399907e-06	7.827286e-10	1.661179e+01	5.381302e+01
2.380000e-06	2.442533e-06	7.951243e-10	1.690684e+01	5.496632e+01
2.390000e-06	2.484824e-06	8.080894e-10	1.719957e+01	5.608469e+01
2.400000e-06	2.526813e-06	8.209311e-10	1.749021e+01	5.716854e+01
2.410000e-06	2.568382e-06	8.340215e-10	1.777794e+01	5.821837e+01
2.420000e-06	2.609581e-06	8.466759e-10	1.806312e+01	5.923471e+01
2.430000e-06	2.650503e-06	8.592493e-10	1.834637e+01	6.021815e+01
2.440000e-06	2.691130e-06	8.717533e-10	1.862759e+01	6.116931e+01
2.450000e-06	2.731601e-06	8.846121e-10	1.890772e+01	6.208883e+01
2.460000e-06	2.771933e-06	8.979971e-10	1.918689e+01	6.297738e+01
2.470000e-06	2.812053e-06	9.095395e-10	1.946460e+01	6.383563e+01
2.480000e-06	2.852016e-06	9.194476e-10	1.974122e+01	6.466426e+01
2.490000e-06	2.891898e-06	9.282482e-10	2.001727e+01	6.546397e+01
2.500000e-06	2.931636e-06	9.365555e-10	2.029233e+01	6.623542e+01
2.510000e-06	2.971266e-06	9.455413e-10	2.056665e+01	6.697930e+01
2.520000e-06	3.010754e-06	9.560989e-10	2.083997e+01	6.769627e+01
2.530000e-06	3.050021e-06	9.660407e-10	2.111177e+01	6.838697e+01
2.540000e-06	3.089100e-06	9.740162e-10	2.138227e+01	6.905204e+01
2.550000e-06	3.127965e-06	9.820052e-10	2.165129e+01	6.969212e+01
2.560000e-06	3.166577e-06	9.898302e-10	2.191855e+01	7.030781e+01
2.570000e-06	3.204943e-06	9.950807e-10	2.218412e+01	7.089971e+01
2.580000e-06	3.243098e-06	1.001876e-09	2.244823e+01	7.146841e+01
2.590000e-06	3.281035e-06	1.010623e-09	2.271082e+01	7.201448e+01
2.600000e-06	3.318786e-06	1.020680e-09	2.297212e+01	7.253850e+01
2.610000e-06	3.356309e-06	1.029953e-09	2.323185e+01	7.304104e+01
2.620000e-06	3.393599e-06	1.038527e-09	2.348996e+01	7.352266e+01
2.630000e-06	3.430612e-06	1.046219e-09	2.374617e+01	7.398393e+01
2.640000e-06	3.467335e-06	1.053955e-09	2.400036e+01	7.442541e+01
2.650000e-06	3.503837e-06	1.060957e-09	2.425302e+01	7.484770e+01
2.660000e-06	3.540059e-06	1.065322e-09	2.450374e+01	7.525137e+01
2.670000e-06	3.576073e-06	1.067928e-09	2.475303e+01	7.563702e+01
2.680000e-06	3.611970e-06	1.071507e-09	2.500150e+01	7.600526e+01
2.690000e-06	3.647750e-06	1.076983e-09	2.524917e+01	7.635671e+01
2.700000e-06	3.683399e-06	1.083806e-09	2.549592e+01	7.669200e+01
2.710000e-06	3.718891e-06	1.091655e-09	2.574159e+01	7.701180e+01
2.720000e-06	3.754246e-06	1.098996e-09	2.598631e+01	7.731675e+01
2.730000e-06	3.789323e-06	1.105151e-09	2.622911e+01	7.760754e+01
2.740000e-06	3.823982e-06	1.109998e-09	2.646901e+01	7.788485e+01
2.750000e-06	3.858191e-06	1.112942e-09	2.670580e+01	7.814937e+01
2.760000e-06	3.891873e-06	1.115389e-09	2.693894e+01	7.840179e+01
2.770000e-06	3.925021e-06	1.118466e-09	2.716839e+01	7.864282e+01
2.780000e-06	3.957745e-06	1.122993e-09	2.739490e+01	7.887313e+01
2.790000e-06	3.990117e-06	1.128896e-09	2.761897e+01	7.909343e+01
2.800000e-06	4.022215e-06	1.134541e-09	2.784115e+01	7.930438e+01
2.810000e-06	4.054134e-06	1.139189e-09	2.806209e+01	7.950662e+01
2.820000e-06	4.085949e-06	1.143463e-09	2.828231e+01	7.970080e+01
2.830000e-06	4.117622e-06	1.146878e-09	2.850155e+01	7.988751e+01
2.840000e-06	4.148975e-06	1.148201e-09	2.871856e+01	8.006732e+01
2.850000e-06	4.180014e-06	1.146928e-09	2.893341e+01	8.024076e+01
2.860000e-06	4.210818e-06	1.144465e-09	2.914663e+01	8.040831e+01
2.870000e-06	4.241251e-06	1.146124e-09	2.935728e+01	8.057043e+01
2.880000e-06	4.271315e-06	1.150586e-09	2.956538e+01	8.072749e+01
2.890000e-06	4.301145e-06	1.155833e-09	2.977186e+01	8.087984e+01
2.900000e-06	4.330759e-06	1.160674e-09	2.997685e+01	8.102776e+01
