# Temperatura_=_-15.1
# Concentracion g/m^3_=_1620.0
# C_Vs_to_Am_M_A/Vsm_=_65563218390.804596
# pendiente_HvsI_1/m_=_3716.3
# ordenada_HvsI_A/m_=_1297.0
# frecuencia_Hz_=_135105.3015292337

Tiempo_(s)	Campo_(V.s)	Magnetizacion_(V.s)	Campo_(kA/m)	Magnetizacion_(A/m)
0.000000e+00	-5.527386e-06	-9.348073e-10	-3.836135e+01	-6.220026e+01
1.000000e-08	-5.527443e-06	-9.323209e-10	-3.836175e+01	-6.217545e+01
2.000000e-08	-5.527255e-06	-9.291154e-10	-3.836044e+01	-6.215813e+01
3.000000e-08	-5.526719e-06	-9.254407e-10	-3.835672e+01	-6.214863e+01
4.000000e-08	-5.525767e-06	-9.210595e-10	-3.835012e+01	-6.214717e+01
5.000000e-08	-5.524216e-06	-9.178737e-10	-3.833935e+01	-6.215382e+01
6.000000e-08	-5.522010e-06	-9.156106e-10	-3.832404e+01	-6.216851e+01
7.000000e-08	-5.519280e-06	-9.391836e-10	-3.830509e+01	-6.219102e+01
8.000000e-08	-5.516055e-06	-9.881385e-10	-3.828271e+01	-6.222099e+01
9.000000e-08	-5.512262e-06	-9.697963e-10	-3.825639e+01	-6.225789e+01
1.000000e-07	-5.508026e-06	-8.789631e-10	-3.822699e+01	-6.230109e+01
1.100000e-07	-5.503555e-06	-8.801369e-10	-3.819596e+01	-6.234980e+01
1.200000e-07	-5.498858e-06	-9.328911e-10	-3.816336e+01	-6.240314e+01
1.300000e-07	-5.493811e-06	-9.530491e-10	-3.812833e+01	-6.246009e+01
1.400000e-07	-5.488375e-06	-8.831035e-10	-3.809060e+01	-6.251958e+01
1.500000e-07	-5.482677e-06	-8.748994e-10	-3.805106e+01	-6.258046e+01
1.600000e-07	-5.476655e-06	-9.508350e-10	-3.800926e+01	-6.264153e+01
1.700000e-07	-5.470068e-06	-9.650256e-10	-3.796355e+01	-6.270156e+01
1.800000e-07	-5.462979e-06	-9.385837e-10	-3.791435e+01	-6.275933e+01
1.900000e-07	-5.455607e-06	-8.976195e-10	-3.786319e+01	-6.281364e+01
2.000000e-07	-5.447920e-06	-9.291289e-10	-3.780984e+01	-6.286331e+01
2.100000e-07	-5.439958e-06	-9.412440e-10	-3.775458e+01	-6.290725e+01
2.200000e-07	-5.431847e-06	-9.551320e-10	-3.769828e+01	-6.294445e+01
2.300000e-07	-5.423470e-06	-9.337971e-10	-3.764015e+01	-6.297398e+01
2.400000e-07	-5.414538e-06	-9.460812e-10	-3.757816e+01	-6.299507e+01
2.500000e-07	-5.404870e-06	-9.615911e-10	-3.751106e+01	-6.300706e+01
2.600000e-07	-5.394554e-06	-9.695300e-10	-3.743947e+01	-6.300943e+01
2.700000e-07	-5.383688e-06	-9.450074e-10	-3.736405e+01	-6.300185e+01
2.800000e-07	-5.372290e-06	-9.421879e-10	-3.728495e+01	-6.298414e+01
2.900000e-07	-5.360495e-06	-9.577426e-10	-3.720309e+01	-6.295626e+01
3.000000e-07	-5.348402e-06	-9.549139e-10	-3.711916e+01	-6.291838e+01
3.100000e-07	-5.335852e-06	-9.336645e-10	-3.703206e+01	-6.287082e+01
3.200000e-07	-5.322855e-06	-9.496636e-10	-3.694186e+01	-6.281404e+01
3.300000e-07	-5.309536e-06	-9.919193e-10	-3.684942e+01	-6.274867e+01
3.400000e-07	-5.295809e-06	-9.717802e-10	-3.675415e+01	-6.267547e+01
3.500000e-07	-5.281556e-06	-9.511267e-10	-3.665523e+01	-6.259531e+01
3.600000e-07	-5.266834e-06	-9.710553e-10	-3.655306e+01	-6.250918e+01
3.700000e-07	-5.251616e-06	-9.653892e-10	-3.644744e+01	-6.241815e+01
3.800000e-07	-5.235751e-06	-9.223443e-10	-3.633734e+01	-6.232335e+01
3.900000e-07	-5.219404e-06	-9.652128e-10	-3.622389e+01	-6.222596e+01
4.000000e-07	-5.202750e-06	-9.898197e-10	-3.610830e+01	-6.212718e+01
4.100000e-07	-5.185761e-06	-9.290406e-10	-3.599039e+01	-6.202820e+01
4.200000e-07	-5.168477e-06	-9.241914e-10	-3.587044e+01	-6.193019e+01
4.300000e-07	-5.150948e-06	-1.007923e-09	-3.574878e+01	-6.183429e+01
4.400000e-07	-5.133126e-06	-9.568723e-10	-3.562510e+01	-6.174157e+01
4.500000e-07	-5.114887e-06	-8.878460e-10	-3.549851e+01	-6.165300e+01
4.600000e-07	-5.096179e-06	-9.549595e-10	-3.536867e+01	-6.156947e+01
4.700000e-07	-5.077110e-06	-9.846382e-10	-3.523633e+01	-6.149175e+01
4.800000e-07	-5.057728e-06	-8.915654e-10	-3.510181e+01	-6.142049e+01
4.900000e-07	-5.038101e-06	-9.298963e-10	-3.496560e+01	-6.135621e+01
5.000000e-07	-5.018287e-06	-1.003168e-09	-3.482809e+01	-6.129927e+01
5.100000e-07	-4.998179e-06	-9.289884e-10	-3.468853e+01	-6.124991e+01
5.200000e-07	-4.977725e-06	-8.932630e-10	-3.454658e+01	-6.120821e+01
5.300000e-07	-4.956949e-06	-9.879410e-10	-3.440239e+01	-6.117412e+01
5.400000e-07	-4.935843e-06	-9.596382e-10	-3.425590e+01	-6.114746e+01
5.500000e-07	-4.914319e-06	-8.893097e-10	-3.410652e+01	-6.112789e+01
5.600000e-07	-4.892387e-06	-9.540870e-10	-3.395431e+01	-6.111500e+01
5.700000e-07	-4.870176e-06	-9.799713e-10	-3.380016e+01	-6.110823e+01
5.800000e-07	-4.847653e-06	-9.055374e-10	-3.364384e+01	-6.110697e+01
5.900000e-07	-4.824810e-06	-9.306505e-10	-3.348531e+01	-6.111050e+01
6.000000e-07	-4.801671e-06	-9.793834e-10	-3.332472e+01	-6.111805e+01
6.100000e-07	-4.778189e-06	-9.205664e-10	-3.316175e+01	-6.112883e+01
6.200000e-07	-4.754468e-06	-9.051791e-10	-3.299712e+01	-6.114200e+01
6.300000e-07	-4.730571e-06	-9.569285e-10	-3.283127e+01	-6.115672e+01
6.400000e-07	-4.706388e-06	-9.370239e-10	-3.266343e+01	-6.117217e+01
6.500000e-07	-4.681823e-06	-9.075493e-10	-3.249294e+01	-6.118756e+01
6.600000e-07	-4.656781e-06	-9.517632e-10	-3.231915e+01	-6.120212e+01
6.700000e-07	-4.631240e-06	-9.518720e-10	-3.214189e+01	-6.121515e+01
6.800000e-07	-4.605179e-06	-9.172035e-10	-3.196102e+01	-6.122603e+01
6.900000e-07	-4.578552e-06	-9.322726e-10	-3.177622e+01	-6.123419e+01
7.000000e-07	-4.551432e-06	-9.532595e-10	-3.158800e+01	-6.123917e+01
7.100000e-07	-4.523946e-06	-9.246598e-10	-3.139724e+01	-6.124060e+01
7.200000e-07	-4.496269e-06	-9.246257e-10	-3.120516e+01	-6.123818e+01
7.300000e-07	-4.468466e-06	-9.412005e-10	-3.101220e+01	-6.123173e+01
7.400000e-07	-4.440445e-06	-9.335815e-10	-3.081773e+01	-6.122116e+01
7.500000e-07	-4.412194e-06	-9.253131e-10	-3.062166e+01	-6.120647e+01
7.600000e-07	-4.383699e-06	-9.382427e-10	-3.042390e+01	-6.118775e+01
7.700000e-07	-4.354900e-06	-9.297594e-10	-3.022402e+01	-6.116517e+01
7.800000e-07	-4.325727e-06	-9.196837e-10	-3.002155e+01	-6.113898e+01
7.900000e-07	-4.296246e-06	-9.266286e-10	-2.981695e+01	-6.110946e+01
8.000000e-07	-4.266528e-06	-9.281227e-10	-2.961070e+01	-6.107699e+01
8.100000e-07	-4.236540e-06	-9.144145e-10	-2.940257e+01	-6.104195e+01
8.200000e-07	-4.206253e-06	-9.183397e-10	-2.919238e+01	-6.100477e+01
8.300000e-07	-4.175660e-06	-9.217037e-10	-2.898006e+01	-6.096590e+01
8.400000e-07	-4.144729e-06	-9.133634e-10	-2.876539e+01	-6.092576e+01
8.500000e-07	-4.113435e-06	-9.144987e-10	-2.854820e+01	-6.088482e+01
8.600000e-07	-4.081910e-06	-9.237468e-10	-2.832941e+01	-6.084347e+01
8.700000e-07	-4.050204e-06	-9.126543e-10	-2.810936e+01	-6.080213e+01
8.800000e-07	-4.018317e-06	-9.021286e-10	-2.788806e+01	-6.076113e+01
8.900000e-07	-3.986276e-06	-9.086905e-10	-2.766569e+01	-6.072080e+01
9.000000e-07	-3.954017e-06	-9.070540e-10	-2.744180e+01	-6.068140e+01
9.100000e-07	-3.921475e-06	-9.015405e-10	-2.721595e+01	-6.064313e+01
9.200000e-07	-3.888571e-06	-9.089035e-10	-2.698759e+01	-6.060614e+01
9.300000e-07	-3.855199e-06	-9.134393e-10	-2.675598e+01	-6.057053e+01
9.400000e-07	-3.821405e-06	-9.027354e-10	-2.652144e+01	-6.053632e+01
9.500000e-07	-3.787224e-06	-9.021997e-10	-2.628422e+01	-6.050348e+01
9.600000e-07	-3.752549e-06	-9.071695e-10	-2.604357e+01	-6.047194e+01
9.700000e-07	-3.717448e-06	-9.024263e-10	-2.579995e+01	-6.044157e+01
9.800000e-07	-3.682108e-06	-8.978168e-10	-2.555469e+01	-6.041218e+01
9.900000e-07	-3.646588e-06	-9.066697e-10	-2.530817e+01	-6.038356e+01
1.000000e-06	-3.610884e-06	-9.047238e-10	-2.506038e+01	-6.035546e+01
1.010000e-06	-3.575010e-06	-9.000786e-10	-2.481140e+01	-6.032761e+01
1.020000e-06	-3.538999e-06	-9.043955e-10	-2.456148e+01	-6.029971e+01
1.030000e-06	-3.502777e-06	-9.064626e-10	-2.431009e+01	-6.027146e+01
1.040000e-06	-3.466312e-06	-8.982810e-10	-2.405701e+01	-6.024256e+01
1.050000e-06	-3.429701e-06	-8.952055e-10	-2.380293e+01	-6.021270e+01
1.060000e-06	-3.392829e-06	-8.971047e-10	-2.354702e+01	-6.018160e+01
1.070000e-06	-3.355579e-06	-8.942686e-10	-2.328850e+01	-6.014897e+01
1.080000e-06	-3.318068e-06	-8.905788e-10	-2.302816e+01	-6.011456e+01
1.090000e-06	-3.280357e-06	-8.947383e-10	-2.276645e+01	-6.007814e+01
1.100000e-06	-3.242416e-06	-8.939582e-10	-2.250313e+01	-6.003950e+01
1.110000e-06	-3.204262e-06	-8.887945e-10	-2.223833e+01	-5.999847e+01
1.120000e-06	-3.165902e-06	-8.880045e-10	-2.197210e+01	-5.995490e+01
1.130000e-06	-3.127349e-06	-8.884118e-10	-2.170453e+01	-5.990868e+01
1.140000e-06	-3.088537e-06	-8.835071e-10	-2.143517e+01	-5.985970e+01
1.150000e-06	-3.049468e-06	-8.840672e-10	-2.116402e+01	-5.980791e+01
1.160000e-06	-3.010263e-06	-8.879264e-10	-2.089193e+01	-5.975326e+01
1.170000e-06	-2.970827e-06	-8.861969e-10	-2.061823e+01	-5.969571e+01
1.180000e-06	-2.931219e-06	-8.837357e-10	-2.034334e+01	-5.963526e+01
1.190000e-06	-2.891538e-06	-8.840160e-10	-2.006795e+01	-5.957189e+01
1.200000e-06	-2.851725e-06	-8.809388e-10	-1.979164e+01	-5.950559e+01
1.210000e-06	-2.811812e-06	-8.761226e-10	-1.951463e+01	-5.943635e+01
1.220000e-06	-2.771660e-06	-8.766799e-10	-1.923597e+01	-5.936416e+01
1.230000e-06	-2.731257e-06	-8.783348e-10	-1.895556e+01	-5.928897e+01
1.240000e-06	-2.690794e-06	-8.772884e-10	-1.867474e+01	-5.921073e+01
1.250000e-06	-2.650252e-06	-8.752764e-10	-1.839337e+01	-5.912937e+01
1.260000e-06	-2.609464e-06	-8.749253e-10	-1.811029e+01	-5.904477e+01
1.270000e-06	-2.568388e-06	-8.697928e-10	-1.782521e+01	-5.895681e+01
1.280000e-06	-2.527031e-06	-8.647867e-10	-1.753818e+01	-5.886532e+01
1.290000e-06	-2.485356e-06	-8.640421e-10	-1.724895e+01	-5.877009e+01
1.300000e-06	-2.443306e-06	-8.638520e-10	-1.695712e+01	-5.867090e+01
1.310000e-06	-2.400901e-06	-8.593847e-10	-1.666281e+01	-5.856748e+01
1.320000e-06	-2.358235e-06	-8.565924e-10	-1.636670e+01	-5.845952e+01
1.330000e-06	-2.315340e-06	-8.527461e-10	-1.606900e+01	-5.834670e+01
1.340000e-06	-2.272232e-06	-8.468956e-10	-1.576982e+01	-5.822867e+01
1.350000e-06	-2.228923e-06	-8.450282e-10	-1.546924e+01	-5.810505e+01
1.360000e-06	-2.185454e-06	-8.467781e-10	-1.516756e+01	-5.797543e+01
1.370000e-06	-2.141821e-06	-8.438707e-10	-1.486474e+01	-5.783941e+01
1.380000e-06	-2.098098e-06	-8.383035e-10	-1.456129e+01	-5.769655e+01
1.390000e-06	-2.054377e-06	-8.342944e-10	-1.425785e+01	-5.754643e+01
1.400000e-06	-2.010588e-06	-8.306225e-10	-1.395395e+01	-5.738860e+01
1.410000e-06	-1.966688e-06	-8.256737e-10	-1.364927e+01	-5.722264e+01
1.420000e-06	-1.922696e-06	-8.220266e-10	-1.334396e+01	-5.704811e+01
1.430000e-06	-1.878610e-06	-8.217550e-10	-1.303799e+01	-5.686459e+01
1.440000e-06	-1.834398e-06	-8.209856e-10	-1.273115e+01	-5.667168e+01
1.450000e-06	-1.790057e-06	-8.179813e-10	-1.242341e+01	-5.646897e+01
1.460000e-06	-1.745586e-06	-8.128477e-10	-1.211477e+01	-5.625607e+01
1.470000e-06	-1.700973e-06	-8.059405e-10	-1.180515e+01	-5.603261e+01
1.480000e-06	-1.656199e-06	-7.985522e-10	-1.149441e+01	-5.579823e+01
1.490000e-06	-1.611309e-06	-7.908739e-10	-1.118286e+01	-5.555258e+01
1.500000e-06	-1.566357e-06	-7.845421e-10	-1.087089e+01	-5.529532e+01
1.510000e-06	-1.521247e-06	-7.791882e-10	-1.055781e+01	-5.502610e+01
1.520000e-06	-1.475988e-06	-7.723917e-10	-1.024370e+01	-5.474459e+01
1.530000e-06	-1.430616e-06	-7.654300e-10	-9.928809e+00	-5.445045e+01
1.540000e-06	-1.385131e-06	-7.575118e-10	-9.613133e+00	-5.414332e+01
1.550000e-06	-1.339569e-06	-7.486182e-10	-9.296921e+00	-5.382284e+01
1.560000e-06	-1.293898e-06	-7.419673e-10	-8.979953e+00	-5.348862e+01
1.570000e-06	-1.248184e-06	-7.372229e-10	-8.662692e+00	-5.314025e+01
1.580000e-06	-1.202496e-06	-7.317738e-10	-8.345605e+00	-5.277729e+01
1.590000e-06	-1.156694e-06	-7.276463e-10	-8.027727e+00	-5.239925e+01
1.600000e-06	-1.110704e-06	-7.230430e-10	-7.708542e+00	-5.200563e+01
1.610000e-06	-1.064652e-06	-7.181655e-10	-7.388931e+00	-5.159585e+01
1.620000e-06	-1.018570e-06	-7.117557e-10	-7.069114e+00	-5.116930e+01
1.630000e-06	-9.724261e-07	-7.078398e-10	-6.748864e+00	-5.072531e+01
1.640000e-06	-9.261946e-07	-7.024734e-10	-6.428007e+00	-5.026318e+01
1.650000e-06	-8.799098e-07	-6.937388e-10	-6.106779e+00	-4.978213e+01
1.660000e-06	-8.336193e-07	-6.825938e-10	-5.785513e+00	-4.928135e+01
1.670000e-06	-7.872624e-07	-6.706478e-10	-5.463785e+00	-4.875997e+01
1.680000e-06	-7.407455e-07	-6.581570e-10	-5.140947e+00	-4.821709e+01
1.690000e-06	-6.941490e-07	-6.470858e-10	-4.817556e+00	-4.765175e+01
1.700000e-06	-6.476360e-07	-6.397975e-10	-4.494745e+00	-4.706297e+01
1.710000e-06	-6.010641e-07	-6.351372e-10	-4.171525e+00	-4.644974e+01
1.720000e-06	-5.543573e-07	-6.307864e-10	-3.847369e+00	-4.581103e+01
1.730000e-06	-5.076709e-07	-6.207796e-10	-3.523355e+00	-4.514582e+01
1.740000e-06	-4.609844e-07	-6.086927e-10	-3.199339e+00	-4.445306e+01
1.750000e-06	-4.142152e-07	-5.964678e-10	-2.874750e+00	-4.373173e+01
1.760000e-06	-3.674022e-07	-5.813304e-10	-2.549857e+00	-4.298083e+01
1.770000e-06	-3.205334e-07	-5.682541e-10	-2.224577e+00	-4.219940e+01
1.780000e-06	-2.736223e-07	-5.592582e-10	-1.899002e+00	-4.138652e+01
1.790000e-06	-2.266961e-07	-5.510001e-10	-1.573324e+00	-4.054132e+01
1.800000e-06	-1.797167e-07	-5.434336e-10	-1.247276e+00	-3.966303e+01
1.810000e-06	-1.326970e-07	-5.325225e-10	-9.209484e-01	-3.875092e+01
1.820000e-06	-8.573734e-08	-5.183398e-10	-5.950372e-01	-3.780438e+01
1.830000e-06	-3.886748e-08	-5.011670e-10	-2.697494e-01	-3.682289e+01
1.840000e-06	7.904629e-09	-4.842472e-10	5.485997e-02	-3.580605e+01
1.850000e-06	5.469025e-08	-4.662372e-10	3.795631e-01	-3.475357e+01
1.860000e-06	1.015900e-07	-4.499812e-10	7.050587e-01	-3.366528e+01
1.870000e-06	1.484436e-07	-4.347440e-10	1.030233e+00	-3.254114e+01
1.880000e-06	1.952517e-07	-4.205799e-10	1.355092e+00	-3.138127e+01
1.890000e-06	2.420876e-07	-4.092531e-10	1.680145e+00	-3.018591e+01
1.900000e-06	2.889476e-07	-3.951710e-10	2.005364e+00	-2.895543e+01
1.910000e-06	3.358396e-07	-3.770408e-10	2.330805e+00	-2.769037e+01
1.920000e-06	3.826967e-07	-3.543596e-10	2.656004e+00	-2.639140e+01
1.930000e-06	4.294762e-07	-3.305583e-10	2.980665e+00	-2.505931e+01
1.940000e-06	4.761581e-07	-3.074088e-10	3.304648e+00	-2.369507e+01
1.950000e-06	5.227171e-07	-2.870819e-10	3.627778e+00	-2.229975e+01
1.960000e-06	5.692860e-07	-2.717386e-10	3.950978e+00	-2.087457e+01
1.970000e-06	6.158540e-07	-2.581682e-10	4.274171e+00	-1.942086e+01
1.980000e-06	6.623076e-07	-2.429447e-10	4.596569e+00	-1.794007e+01
1.990000e-06	7.087524e-07	-2.220544e-10	4.918907e+00	-1.643378e+01
2.000000e-06	7.552061e-07	-1.943281e-10	5.241306e+00	-1.490366e+01
2.010000e-06	8.015911e-07	-1.666391e-10	5.563229e+00	-1.335146e+01
2.020000e-06	8.479043e-07	-1.419756e-10	5.884654e+00	-1.177906e+01
2.030000e-06	8.941994e-07	-1.213392e-10	6.205953e+00	-1.018837e+01
2.040000e-06	9.404158e-07	-1.043836e-10	6.526705e+00	-8.581418e+00
2.050000e-06	9.865042e-07	-8.718237e-11	6.846570e+00	-6.960255e+00
2.060000e-06	1.032495e-06	-6.813433e-11	7.165758e+00	-5.327005e+00
2.070000e-06	1.078395e-06	-4.514757e-11	7.484315e+00	-3.683828e+00
2.080000e-06	1.124221e-06	-1.930755e-11	7.802359e+00	-2.032921e+00
2.090000e-06	1.169945e-06	6.074478e-12	8.119688e+00	-3.765038e-01
2.100000e-06	1.215670e-06	3.040689e-11	8.437033e+00	1.283186e+00
2.110000e-06	1.261413e-06	5.385089e-11	8.754498e+00	2.943905e+00
2.120000e-06	1.307018e-06	7.664038e-11	9.071011e+00	4.603412e+00
2.130000e-06	1.352488e-06	9.818681e-11	9.386581e+00	6.259477e+00
2.140000e-06	1.397871e-06	1.182198e-10	9.701548e+00	7.909888e+00
2.150000e-06	1.443173e-06	1.388496e-10	1.001596e+01	9.552465e+00
2.160000e-06	1.488359e-06	1.607292e-10	1.032956e+01	1.118506e+01
2.170000e-06	1.533413e-06	1.839939e-10	1.064225e+01	1.280558e+01
2.180000e-06	1.578350e-06	2.077226e-10	1.095412e+01	1.441196e+01
2.190000e-06	1.623130e-06	2.306057e-10	1.126490e+01	1.600224e+01
2.200000e-06	1.667804e-06	2.535080e-10	1.157495e+01	1.757449e+01
2.210000e-06	1.712362e-06	2.748994e-10	1.188419e+01	1.912689e+01
2.220000e-06	1.756731e-06	2.942798e-10	1.219213e+01	2.065767e+01
2.230000e-06	1.800966e-06	3.124251e-10	1.249912e+01	2.216518e+01
2.240000e-06	1.845122e-06	3.292767e-10	1.280558e+01	2.364786e+01
2.250000e-06	1.889240e-06	3.464543e-10	1.311176e+01	2.510426e+01
2.260000e-06	1.933294e-06	3.661358e-10	1.341751e+01	2.653304e+01
2.270000e-06	1.977245e-06	3.871153e-10	1.372254e+01	2.793297e+01
2.280000e-06	2.021146e-06	4.081749e-10	1.402723e+01	2.930296e+01
2.290000e-06	2.065016e-06	4.277015e-10	1.433169e+01	3.064203e+01
2.300000e-06	2.108814e-06	4.459364e-10	1.463566e+01	3.194933e+01
2.310000e-06	2.152524e-06	4.637967e-10	1.493902e+01	3.322414e+01
2.320000e-06	2.196171e-06	4.808466e-10	1.524194e+01	3.446589e+01
2.330000e-06	2.239715e-06	4.976381e-10	1.554414e+01	3.567411e+01
2.340000e-06	2.283047e-06	5.148253e-10	1.584488e+01	3.684850e+01
2.350000e-06	2.326142e-06	5.321082e-10	1.614397e+01	3.798884e+01
2.360000e-06	2.368969e-06	5.481344e-10	1.644120e+01	3.909509e+01
2.370000e-06	2.411522e-06	5.629084e-10	1.673653e+01	4.016728e+01
2.380000e-06	2.453805e-06	5.746695e-10	1.702998e+01	4.120560e+01
2.390000e-06	2.495785e-06	5.848351e-10	1.732133e+01	4.221031e+01
2.400000e-06	2.537321e-06	5.959468e-10	1.760960e+01	4.318179e+01
2.410000e-06	2.578509e-06	6.088924e-10	1.789546e+01	4.412051e+01
2.420000e-06	2.619512e-06	6.210795e-10	1.818003e+01	4.502702e+01
2.430000e-06	2.660224e-06	6.315755e-10	1.846258e+01	4.590195e+01
2.440000e-06	2.700663e-06	6.427452e-10	1.874323e+01	4.674598e+01
2.450000e-06	2.740941e-06	6.535811e-10	1.902277e+01	4.755985e+01
2.460000e-06	2.781096e-06	6.627499e-10	1.930146e+01	4.834433e+01
2.470000e-06	2.821123e-06	6.711805e-10	1.957925e+01	4.910024e+01
2.480000e-06	2.861022e-06	6.795932e-10	1.985616e+01	4.982838e+01
2.490000e-06	2.900783e-06	6.883382e-10	2.013211e+01	5.052960e+01
2.500000e-06	2.940428e-06	6.970659e-10	2.040726e+01	5.120471e+01
2.510000e-06	2.979910e-06	7.062760e-10	2.068127e+01	5.185453e+01
2.520000e-06	3.019126e-06	7.150953e-10	2.095344e+01	5.247985e+01
2.530000e-06	3.058144e-06	7.229319e-10	2.122423e+01	5.308143e+01
2.540000e-06	3.097009e-06	7.303443e-10	2.149396e+01	5.366002e+01
2.550000e-06	3.135648e-06	7.368651e-10	2.176213e+01	5.421628e+01
2.560000e-06	3.174042e-06	7.440679e-10	2.202859e+01	5.475087e+01
2.570000e-06	3.212171e-06	7.518535e-10	2.229322e+01	5.526440e+01
2.580000e-06	3.250095e-06	7.598666e-10	2.255642e+01	5.575740e+01
2.590000e-06	3.287897e-06	7.687964e-10	2.281877e+01	5.623040e+01
2.600000e-06	3.325515e-06	7.768749e-10	2.307985e+01	5.668386e+01
2.610000e-06	3.362881e-06	7.840478e-10	2.333918e+01	5.711820e+01
2.620000e-06	3.399947e-06	7.898304e-10	2.359642e+01	5.753382e+01
2.630000e-06	3.436719e-06	7.954463e-10	2.385163e+01	5.793105e+01
2.640000e-06	3.473218e-06	8.026055e-10	2.410495e+01	5.831025e+01
2.650000e-06	3.509488e-06	8.081196e-10	2.435667e+01	5.867173e+01
2.660000e-06	3.545569e-06	8.126279e-10	2.460708e+01	5.901578e+01
2.670000e-06	3.581511e-06	8.178008e-10	2.485652e+01	5.934272e+01
2.680000e-06	3.617348e-06	8.224515e-10	2.510524e+01	5.965286e+01
2.690000e-06	3.653001e-06	8.248427e-10	2.535268e+01	5.994650e+01
2.700000e-06	3.688475e-06	8.275949e-10	2.559888e+01	6.022400e+01
2.710000e-06	3.723764e-06	8.325313e-10	2.584379e+01	6.048573e+01
2.720000e-06	3.758803e-06	8.396867e-10	2.608697e+01	6.073209e+01
2.730000e-06	3.793482e-06	8.474338e-10	2.632765e+01	6.096351e+01
2.740000e-06	3.827707e-06	8.530771e-10	2.656518e+01	6.118048e+01
2.750000e-06	3.861444e-06	8.553908e-10	2.679932e+01	6.138353e+01
2.760000e-06	3.894688e-06	8.567711e-10	2.703004e+01	6.157323e+01
2.770000e-06	3.927437e-06	8.592875e-10	2.725733e+01	6.175018e+01
2.780000e-06	3.959796e-06	8.640517e-10	2.748191e+01	6.191505e+01
2.790000e-06	3.991957e-06	8.709230e-10	2.770511e+01	6.206854e+01
2.800000e-06	4.023976e-06	8.760473e-10	2.792733e+01	6.221139e+01
2.810000e-06	4.055809e-06	8.777402e-10	2.814826e+01	6.234434e+01
2.820000e-06	4.087446e-06	8.785357e-10	2.836783e+01	6.246820e+01
2.830000e-06	4.118885e-06	8.786911e-10	2.858602e+01	6.258375e+01
2.840000e-06	4.150008e-06	8.780254e-10	2.880203e+01	6.269180e+01
2.850000e-06	4.180845e-06	8.768674e-10	2.901604e+01	6.279314e+01
2.860000e-06	4.211409e-06	8.778779e-10	2.922816e+01	6.288857e+01
2.870000e-06	4.241621e-06	8.837994e-10	2.943784e+01	6.297883e+01
2.880000e-06	4.271578e-06	8.904013e-10	2.964575e+01	6.306465e+01
2.890000e-06	4.301258e-06	8.960114e-10	2.985173e+01	6.314670e+01
2.900000e-06	4.330610e-06	8.970152e-10	3.005544e+01	6.322561e+01
