# Temperatura_=_12.7
# Concentracion g/m^3_=_1620.0
# C_Vs_to_Am_M_A/Vsm_=_65563218390.804596
# pendiente_HvsI_1/m_=_3716.3
# ordenada_HvsI_A/m_=_1297.0
# frecuencia_Hz_=_135097.10542135988

Tiempo_(s)	Campo_(V.s)	Magnetizacion_(V.s)	Campo_(kA/m)	Magnetizacion_(A/m)
0.000000e+00	-5.519775e-06	-1.671216e-09	-3.837033e+01	-1.091284e+02
1.000000e-08	-5.519919e-06	-1.669411e-09	-3.837133e+01	-1.090530e+02
2.000000e-08	-5.519892e-06	-1.669493e-09	-3.837114e+01	-1.089791e+02
3.000000e-08	-5.519592e-06	-1.671226e-09	-3.836905e+01	-1.089077e+02
4.000000e-08	-5.518851e-06	-1.673363e-09	-3.836391e+01	-1.088396e+02
5.000000e-08	-5.517500e-06	-1.668910e-09	-3.835452e+01	-1.087752e+02
6.000000e-08	-5.515509e-06	-1.652372e-09	-3.834068e+01	-1.087154e+02
7.000000e-08	-5.512978e-06	-1.630371e-09	-3.832308e+01	-1.086604e+02
8.000000e-08	-5.509975e-06	-1.678501e-09	-3.830221e+01	-1.086106e+02
9.000000e-08	-5.506487e-06	-1.765607e-09	-3.827796e+01	-1.085662e+02
1.000000e-07	-5.502407e-06	-1.722446e-09	-3.824960e+01	-1.085272e+02
1.100000e-07	-5.497964e-06	-1.569318e-09	-3.821872e+01	-1.084936e+02
1.200000e-07	-5.493486e-06	-1.584155e-09	-3.818758e+01	-1.084650e+02
1.300000e-07	-5.488816e-06	-1.694539e-09	-3.815512e+01	-1.084411e+02
1.400000e-07	-5.483677e-06	-1.737142e-09	-3.811940e+01	-1.084212e+02
1.500000e-07	-5.478098e-06	-1.590075e-09	-3.808061e+01	-1.084048e+02
1.600000e-07	-5.472198e-06	-1.603518e-09	-3.803960e+01	-1.083910e+02
1.700000e-07	-5.465810e-06	-1.705821e-09	-3.799520e+01	-1.083790e+02
1.800000e-07	-5.458919e-06	-1.742875e-09	-3.794730e+01	-1.083677e+02
1.900000e-07	-5.451680e-06	-1.622800e-09	-3.789697e+01	-1.083560e+02
2.000000e-07	-5.444155e-06	-1.573693e-09	-3.784467e+01	-1.083430e+02
2.100000e-07	-5.436380e-06	-1.648198e-09	-3.779062e+01	-1.083273e+02
2.200000e-07	-5.428361e-06	-1.716568e-09	-3.773487e+01	-1.083078e+02
2.300000e-07	-5.420184e-06	-1.696283e-09	-3.767803e+01	-1.082834e+02
2.400000e-07	-5.411567e-06	-1.644254e-09	-3.761813e+01	-1.082530e+02
2.500000e-07	-5.402258e-06	-1.674640e-09	-3.755342e+01	-1.082154e+02
2.600000e-07	-5.392311e-06	-1.688382e-09	-3.748427e+01	-1.081697e+02
2.700000e-07	-5.381867e-06	-1.670612e-09	-3.741167e+01	-1.081149e+02
2.800000e-07	-5.370946e-06	-1.618462e-09	-3.733575e+01	-1.080503e+02
2.900000e-07	-5.359448e-06	-1.664246e-09	-3.725583e+01	-1.079751e+02
3.000000e-07	-5.347527e-06	-1.672267e-09	-3.717296e+01	-1.078888e+02
3.100000e-07	-5.335236e-06	-1.658326e-09	-3.708752e+01	-1.077910e+02
3.200000e-07	-5.322519e-06	-1.609362e-09	-3.699912e+01	-1.076813e+02
3.300000e-07	-5.309453e-06	-1.673323e-09	-3.690829e+01	-1.075596e+02
3.400000e-07	-5.296068e-06	-1.677439e-09	-3.681524e+01	-1.074260e+02
3.500000e-07	-5.282234e-06	-1.636997e-09	-3.671908e+01	-1.072807e+02
3.600000e-07	-5.267941e-06	-1.614541e-09	-3.661973e+01	-1.071239e+02
3.700000e-07	-5.253344e-06	-1.679410e-09	-3.651826e+01	-1.069560e+02
3.800000e-07	-5.238146e-06	-1.634095e-09	-3.641260e+01	-1.067778e+02
3.900000e-07	-5.222128e-06	-1.593409e-09	-3.630126e+01	-1.065897e+02
4.000000e-07	-5.205724e-06	-1.653778e-09	-3.618723e+01	-1.063927e+02
4.100000e-07	-5.189028e-06	-1.668155e-09	-3.607117e+01	-1.061875e+02
4.200000e-07	-5.171989e-06	-1.567369e-09	-3.595272e+01	-1.059752e+02
4.300000e-07	-5.154693e-06	-1.599047e-09	-3.583249e+01	-1.057566e+02
4.400000e-07	-5.137116e-06	-1.694974e-09	-3.571030e+01	-1.055328e+02
4.500000e-07	-5.119185e-06	-1.612366e-09	-3.558565e+01	-1.053047e+02
4.600000e-07	-5.100667e-06	-1.544768e-09	-3.545693e+01	-1.050735e+02
4.700000e-07	-5.081744e-06	-1.636206e-09	-3.532539e+01	-1.048399e+02
4.800000e-07	-5.062576e-06	-1.633986e-09	-3.519214e+01	-1.046050e+02
4.900000e-07	-5.043083e-06	-1.528037e-09	-3.505664e+01	-1.043696e+02
5.000000e-07	-5.023347e-06	-1.593823e-09	-3.491945e+01	-1.041345e+02
5.100000e-07	-5.003411e-06	-1.644158e-09	-3.478086e+01	-1.039003e+02
5.200000e-07	-4.983202e-06	-1.550050e-09	-3.464038e+01	-1.036676e+02
5.300000e-07	-4.962640e-06	-1.553618e-09	-3.449744e+01	-1.034369e+02
5.400000e-07	-4.941714e-06	-1.654708e-09	-3.435198e+01	-1.032086e+02
5.500000e-07	-4.920436e-06	-1.574618e-09	-3.420406e+01	-1.029828e+02
5.600000e-07	-4.898818e-06	-1.509749e-09	-3.405379e+01	-1.027598e+02
5.700000e-07	-4.876875e-06	-1.585836e-09	-3.390125e+01	-1.025393e+02
5.800000e-07	-4.854568e-06	-1.591998e-09	-3.374619e+01	-1.023214e+02
5.900000e-07	-4.831870e-06	-1.509075e-09	-3.358840e+01	-1.021058e+02
6.000000e-07	-4.808843e-06	-1.558778e-09	-3.342833e+01	-1.018921e+02
6.100000e-07	-4.785538e-06	-1.587447e-09	-3.326633e+01	-1.016799e+02
6.200000e-07	-4.761924e-06	-1.524828e-09	-3.310218e+01	-1.014686e+02
6.300000e-07	-4.738019e-06	-1.518295e-09	-3.293601e+01	-1.012576e+02
6.400000e-07	-4.713966e-06	-1.563713e-09	-3.276881e+01	-1.010462e+02
6.500000e-07	-4.689727e-06	-1.523771e-09	-3.260031e+01	-1.008338e+02
6.600000e-07	-4.665183e-06	-1.510021e-09	-3.242969e+01	-1.006195e+02
6.700000e-07	-4.640115e-06	-1.542872e-09	-3.225544e+01	-1.004027e+02
6.800000e-07	-4.614340e-06	-1.528879e-09	-3.207626e+01	-1.001824e+02
6.900000e-07	-4.588022e-06	-1.495466e-09	-3.189331e+01	-9.995803e+01
7.000000e-07	-4.561295e-06	-1.515990e-09	-3.170752e+01	-9.972876e+01
7.100000e-07	-4.534156e-06	-1.515469e-09	-3.151887e+01	-9.949389e+01
7.200000e-07	-4.506675e-06	-1.490586e-09	-3.132784e+01	-9.925279e+01
7.300000e-07	-4.478966e-06	-1.498512e-09	-3.113522e+01	-9.900484e+01
7.400000e-07	-4.451117e-06	-1.512099e-09	-3.094163e+01	-9.874953e+01
7.500000e-07	-4.423039e-06	-1.496487e-09	-3.074645e+01	-9.848639e+01
7.600000e-07	-4.394658e-06	-1.486468e-09	-3.054916e+01	-9.821506e+01
7.700000e-07	-4.366000e-06	-1.485411e-09	-3.034994e+01	-9.793525e+01
7.800000e-07	-4.337046e-06	-1.466323e-09	-3.014867e+01	-9.764675e+01
7.900000e-07	-4.307698e-06	-1.460967e-09	-2.994466e+01	-9.734944e+01
8.000000e-07	-4.277995e-06	-1.466822e-09	-2.973818e+01	-9.704330e+01
8.100000e-07	-4.248118e-06	-1.459954e-09	-2.953049e+01	-9.672839e+01
8.200000e-07	-4.218048e-06	-1.442839e-09	-2.932146e+01	-9.640483e+01
8.300000e-07	-4.187675e-06	-1.447273e-09	-2.911033e+01	-9.607285e+01
8.400000e-07	-4.156885e-06	-1.439585e-09	-2.889629e+01	-9.573272e+01
8.500000e-07	-4.125761e-06	-1.427119e-09	-2.867994e+01	-9.538479e+01
8.600000e-07	-4.094362e-06	-1.427585e-09	-2.846167e+01	-9.502944e+01
8.700000e-07	-4.062744e-06	-1.433010e-09	-2.824188e+01	-9.466714e+01
8.800000e-07	-4.031051e-06	-1.412472e-09	-2.802157e+01	-9.429836e+01
8.900000e-07	-3.999197e-06	-1.404738e-09	-2.780014e+01	-9.392360e+01
9.000000e-07	-3.967093e-06	-1.401557e-09	-2.757697e+01	-9.354341e+01
9.100000e-07	-3.934710e-06	-1.388559e-09	-2.735186e+01	-9.315832e+01
9.200000e-07	-3.901989e-06	-1.376829e-09	-2.712440e+01	-9.276887e+01
9.300000e-07	-3.868901e-06	-1.387990e-09	-2.689439e+01	-9.237561e+01
9.400000e-07	-3.835367e-06	-1.384666e-09	-2.666129e+01	-9.197905e+01
9.500000e-07	-3.801349e-06	-1.372481e-09	-2.642481e+01	-9.157970e+01
9.600000e-07	-3.766906e-06	-1.369903e-09	-2.618538e+01	-9.117804e+01
9.700000e-07	-3.732076e-06	-1.365875e-09	-2.594326e+01	-9.077449e+01
9.800000e-07	-3.696945e-06	-1.343676e-09	-2.569906e+01	-9.036948e+01
9.900000e-07	-3.661584e-06	-1.333884e-09	-2.545324e+01	-8.996336e+01
1.000000e-06	-3.625959e-06	-1.333021e-09	-2.520560e+01	-8.955643e+01
1.010000e-06	-3.590163e-06	-1.322487e-09	-2.495677e+01	-8.914898e+01
1.020000e-06	-3.554274e-06	-1.317604e-09	-2.470729e+01	-8.874122e+01
1.030000e-06	-3.518233e-06	-1.325101e-09	-2.445675e+01	-8.833330e+01
1.040000e-06	-3.481997e-06	-1.323079e-09	-2.420486e+01	-8.792534e+01
1.050000e-06	-3.445576e-06	-1.308286e-09	-2.395168e+01	-8.751740e+01
1.060000e-06	-3.408929e-06	-1.300785e-09	-2.369693e+01	-8.710949e+01
1.070000e-06	-3.371917e-06	-1.289979e-09	-2.343964e+01	-8.670155e+01
1.080000e-06	-3.334630e-06	-1.274566e-09	-2.318045e+01	-8.629350e+01
1.090000e-06	-3.297167e-06	-1.264951e-09	-2.292002e+01	-8.588519e+01
1.100000e-06	-3.259440e-06	-1.262693e-09	-2.265777e+01	-8.547643e+01
1.110000e-06	-3.221510e-06	-1.252505e-09	-2.239410e+01	-8.506700e+01
1.120000e-06	-3.183440e-06	-1.244674e-09	-2.212946e+01	-8.465661e+01
1.130000e-06	-3.145098e-06	-1.243450e-09	-2.186293e+01	-8.424495e+01
1.140000e-06	-3.106487e-06	-1.239232e-09	-2.159453e+01	-8.383169e+01
1.150000e-06	-3.067647e-06	-1.225997e-09	-2.132453e+01	-8.341644e+01
1.160000e-06	-3.028597e-06	-1.217220e-09	-2.105308e+01	-8.299879e+01
1.170000e-06	-2.989336e-06	-1.206717e-09	-2.078016e+01	-8.257831e+01
1.180000e-06	-2.949867e-06	-1.195776e-09	-2.050580e+01	-8.215453e+01
1.190000e-06	-2.910290e-06	-1.187973e-09	-2.023068e+01	-8.172699e+01
1.200000e-06	-2.870572e-06	-1.186870e-09	-1.995458e+01	-8.129518e+01
1.210000e-06	-2.830711e-06	-1.179706e-09	-1.967749e+01	-8.085861e+01
1.220000e-06	-2.790712e-06	-1.173591e-09	-1.939944e+01	-8.041676e+01
1.230000e-06	-2.750545e-06	-1.170348e-09	-1.912022e+01	-7.996910e+01
1.240000e-06	-2.710247e-06	-1.164546e-09	-1.884010e+01	-7.951512e+01
1.250000e-06	-2.669814e-06	-1.155348e-09	-1.855903e+01	-7.905429e+01
1.260000e-06	-2.629202e-06	-1.148642e-09	-1.827671e+01	-7.858610e+01
1.270000e-06	-2.588332e-06	-1.140265e-09	-1.799261e+01	-7.811003e+01
1.280000e-06	-2.547062e-06	-1.128940e-09	-1.770573e+01	-7.762561e+01
1.290000e-06	-2.505513e-06	-1.118697e-09	-1.741690e+01	-7.713234e+01
1.300000e-06	-2.463728e-06	-1.110978e-09	-1.712644e+01	-7.662978e+01
1.310000e-06	-2.421666e-06	-1.101109e-09	-1.683404e+01	-7.611748e+01
1.320000e-06	-2.379342e-06	-1.091642e-09	-1.653983e+01	-7.559503e+01
1.330000e-06	-2.336720e-06	-1.083776e-09	-1.624355e+01	-7.506206e+01
1.340000e-06	-2.293817e-06	-1.076033e-09	-1.594531e+01	-7.451820e+01
1.350000e-06	-2.250576e-06	-1.069138e-09	-1.564472e+01	-7.396315e+01
1.360000e-06	-2.207140e-06	-1.062707e-09	-1.534278e+01	-7.339660e+01
1.370000e-06	-2.163634e-06	-1.053621e-09	-1.504035e+01	-7.281832e+01
1.380000e-06	-2.119998e-06	-1.040076e-09	-1.473702e+01	-7.222807e+01
1.390000e-06	-2.076261e-06	-1.025484e-09	-1.443298e+01	-7.162567e+01
1.400000e-06	-2.032439e-06	-1.011046e-09	-1.412836e+01	-7.101097e+01
1.410000e-06	-1.988501e-06	-9.982291e-10	-1.382293e+01	-7.038383e+01
1.420000e-06	-1.944508e-06	-9.859941e-10	-1.351711e+01	-6.974415e+01
1.430000e-06	-1.900456e-06	-9.790194e-10	-1.321089e+01	-6.909186e+01
1.440000e-06	-1.856322e-06	-9.733660e-10	-1.290409e+01	-6.842690e+01
1.450000e-06	-1.812126e-06	-9.662550e-10	-1.259687e+01	-6.774921e+01
1.460000e-06	-1.767829e-06	-9.542325e-10	-1.228894e+01	-6.705876e+01
1.470000e-06	-1.723415e-06	-9.379762e-10	-1.198020e+01	-6.635549e+01
1.480000e-06	-1.678847e-06	-9.194040e-10	-1.167039e+01	-6.563938e+01
1.490000e-06	-1.634062e-06	-9.020801e-10	-1.135907e+01	-6.491034e+01
1.500000e-06	-1.589171e-06	-8.844020e-10	-1.104701e+01	-6.416831e+01
1.510000e-06	-1.544233e-06	-8.707293e-10	-1.073463e+01	-6.341317e+01
1.520000e-06	-1.499158e-06	-8.607590e-10	-1.042129e+01	-6.264476e+01
1.530000e-06	-1.453934e-06	-8.530682e-10	-1.010692e+01	-6.186290e+01
1.540000e-06	-1.408611e-06	-8.432619e-10	-9.791860e+00	-6.106735e+01
1.550000e-06	-1.363207e-06	-8.322174e-10	-9.476237e+00	-6.025779e+01
1.560000e-06	-1.317759e-06	-8.177386e-10	-9.160309e+00	-5.943387e+01
1.570000e-06	-1.272197e-06	-8.027374e-10	-8.843587e+00	-5.859514e+01
1.580000e-06	-1.226575e-06	-7.873302e-10	-8.526451e+00	-5.774110e+01
1.590000e-06	-1.180889e-06	-7.703083e-10	-8.208871e+00	-5.687116e+01
1.600000e-06	-1.135062e-06	-7.528819e-10	-7.890303e+00	-5.598465e+01
1.610000e-06	-1.089230e-06	-7.411962e-10	-7.571707e+00	-5.508084e+01
1.620000e-06	-1.043267e-06	-7.330627e-10	-7.252198e+00	-5.415889e+01
1.630000e-06	-9.971590e-07	-7.250534e-10	-6.931681e+00	-5.321790e+01
1.640000e-06	-9.510425e-07	-7.162088e-10	-6.611106e+00	-5.225690e+01
1.650000e-06	-9.049299e-07	-7.022140e-10	-6.290557e+00	-5.127484e+01
1.660000e-06	-8.587960e-07	-6.834709e-10	-5.969860e+00	-5.027063e+01
1.670000e-06	-8.125462e-07	-6.616883e-10	-5.648358e+00	-4.924309e+01
1.680000e-06	-7.662427e-07	-6.422450e-10	-5.326483e+00	-4.819103e+01
1.690000e-06	-7.199334e-07	-6.249112e-10	-5.004567e+00	-4.711321e+01
1.700000e-06	-6.735582e-07	-6.080635e-10	-4.682193e+00	-4.600837e+01
1.710000e-06	-6.271129e-07	-5.907698e-10	-4.359332e+00	-4.487524e+01
1.720000e-06	-5.806710e-07	-5.746803e-10	-4.036494e+00	-4.371255e+01
1.730000e-06	-5.341365e-07	-5.574736e-10	-3.713013e+00	-4.251905e+01
1.740000e-06	-4.875190e-07	-5.388446e-10	-3.388955e+00	-4.129353e+01
1.750000e-06	-4.408471e-07	-5.186304e-10	-3.064518e+00	-4.003481e+01
1.760000e-06	-3.940911e-07	-4.969430e-10	-2.739496e+00	-3.874181e+01
1.770000e-06	-3.473243e-07	-4.729157e-10	-2.414400e+00	-3.741348e+01
1.780000e-06	-3.005322e-07	-4.496218e-10	-2.089129e+00	-3.604889e+01
1.790000e-06	-2.537801e-07	-4.272995e-10	-1.764134e+00	-3.464722e+01
1.800000e-06	-2.070058e-07	-4.058871e-10	-1.438986e+00	-3.320775e+01
1.810000e-06	-1.601991e-07	-3.861403e-10	-1.113613e+00	-3.172991e+01
1.820000e-06	-1.133884e-07	-3.678092e-10	-7.882118e-01	-3.021327e+01
1.830000e-06	-6.651384e-08	-3.485134e-10	-4.623663e-01	-2.865754e+01
1.840000e-06	-1.966239e-08	-3.293373e-10	-1.366818e-01	-2.706260e+01
1.850000e-06	2.713786e-08	-3.083543e-10	1.886470e-01	-2.542852e+01
1.860000e-06	7.397276e-08	-2.843056e-10	5.142165e-01	-2.375550e+01
1.870000e-06	1.208216e-07	-2.578242e-10	8.398827e-01	-2.204397e+01
1.880000e-06	1.676600e-07	-2.296356e-10	1.165477e+00	-2.029450e+01
1.890000e-06	2.144452e-07	-2.024225e-10	1.490701e+00	-1.850787e+01
1.900000e-06	2.611413e-07	-1.749514e-10	1.815305e+00	-1.668502e+01
1.910000e-06	3.077597e-07	-1.461909e-10	2.139370e+00	-1.482709e+01
1.920000e-06	3.543820e-07	-1.175441e-10	2.463462e+00	-1.293539e+01
1.930000e-06	4.010299e-07	-9.198356e-11	2.787731e+00	-1.101138e+01
1.940000e-06	4.476635e-07	-6.793867e-11	3.111901e+00	-9.056714e+00
1.950000e-06	4.942579e-07	-4.228596e-11	3.435799e+00	-7.073180e+00
1.960000e-06	5.408023e-07	-1.451413e-11	3.759349e+00	-5.062720e+00
1.970000e-06	5.872032e-07	1.477326e-11	4.081902e+00	-3.027411e+00
1.980000e-06	6.334607e-07	4.264475e-11	4.403458e+00	-9.694544e-01
1.990000e-06	6.797182e-07	7.146887e-11	4.725013e+00	1.108833e+00
2.000000e-06	7.259927e-07	1.038906e-10	5.046687e+00	3.205035e+00
2.010000e-06	7.723369e-07	1.365353e-10	5.368846e+00	5.316647e+00
2.020000e-06	8.187110e-07	1.658838e-10	5.691213e+00	7.441087e+00
2.030000e-06	8.649516e-07	1.925322e-10	6.012650e+00	9.575713e+00
2.040000e-06	9.110777e-07	2.186756e-10	6.333293e+00	1.171784e+01
2.050000e-06	9.571648e-07	2.446512e-10	6.653664e+00	1.386473e+01
2.060000e-06	1.003181e-06	2.722597e-10	6.973540e+00	1.601364e+01
2.070000e-06	1.049118e-06	3.037550e-10	7.292867e+00	1.816182e+01
2.080000e-06	1.094965e-06	3.376901e-10	7.611569e+00	2.030652e+01
2.090000e-06	1.140752e-06	3.707729e-10	7.929860e+00	2.244500e+01
2.100000e-06	1.186484e-06	4.029610e-10	8.247757e+00	2.457457e+01
2.110000e-06	1.232086e-06	4.326973e-10	8.564760e+00	2.669255e+01
2.120000e-06	1.277639e-06	4.589174e-10	8.881415e+00	2.879634e+01
2.130000e-06	1.323159e-06	4.857504e-10	9.197846e+00	3.088341e+01
2.140000e-06	1.368499e-06	5.126655e-10	9.513026e+00	3.295128e+01
2.150000e-06	1.413666e-06	5.371816e-10	9.826998e+00	3.499759e+01
2.160000e-06	1.458809e-06	5.631749e-10	1.014081e+01	3.702003e+01
2.170000e-06	1.503976e-06	5.920340e-10	1.045479e+01	3.901645e+01
2.180000e-06	1.548987e-06	6.225904e-10	1.076768e+01	4.098477e+01
2.190000e-06	1.593775e-06	6.525566e-10	1.107902e+01	4.292307e+01
2.200000e-06	1.638483e-06	6.818561e-10	1.138980e+01	4.482952e+01
2.210000e-06	1.683139e-06	7.090793e-10	1.170023e+01	4.670246e+01
2.220000e-06	1.727629e-06	7.340820e-10	1.200949e+01	4.854037e+01
2.230000e-06	1.772016e-06	7.573483e-10	1.231804e+01	5.034187e+01
2.240000e-06	1.816288e-06	7.769351e-10	1.262580e+01	5.210574e+01
2.250000e-06	1.860376e-06	7.956480e-10	1.293227e+01	5.383092e+01
2.260000e-06	1.904408e-06	8.166827e-10	1.323836e+01	5.551651e+01
2.270000e-06	1.948393e-06	8.391542e-10	1.354412e+01	5.716176e+01
2.280000e-06	1.992324e-06	8.630668e-10	1.384950e+01	5.876613e+01
2.290000e-06	2.036227e-06	8.871240e-10	1.415469e+01	6.032919e+01
2.300000e-06	2.080062e-06	9.091567e-10	1.445941e+01	6.185071e+01
2.310000e-06	2.123841e-06	9.291990e-10	1.476373e+01	6.333061e+01
2.320000e-06	2.167562e-06	9.480484e-10	1.506766e+01	6.476898e+01
2.330000e-06	2.211117e-06	9.658894e-10	1.537042e+01	6.616605e+01
2.340000e-06	2.254397e-06	9.834498e-10	1.567128e+01	6.752220e+01
2.350000e-06	2.297484e-06	1.001446e-09	1.597080e+01	6.883796e+01
2.360000e-06	2.340411e-06	1.019300e-09	1.626921e+01	7.011399e+01
2.370000e-06	2.383136e-06	1.037087e-09	1.656620e+01	7.135105e+01
2.380000e-06	2.425524e-06	1.054248e-09	1.686086e+01	7.255006e+01
2.390000e-06	2.467365e-06	1.070507e-09	1.715172e+01	7.371198e+01
2.400000e-06	2.508847e-06	1.087002e-09	1.744008e+01	7.483791e+01
2.410000e-06	2.550149e-06	1.104162e-09	1.772718e+01	7.592899e+01
2.420000e-06	2.591261e-06	1.119707e-09	1.801297e+01	7.698643e+01
2.430000e-06	2.632137e-06	1.132085e-09	1.829712e+01	7.801148e+01
2.440000e-06	2.672820e-06	1.141961e-09	1.857992e+01	7.900544e+01
2.450000e-06	2.713332e-06	1.152027e-09	1.886154e+01	7.996958e+01
2.460000e-06	2.753586e-06	1.164261e-09	1.914136e+01	8.090522e+01
2.470000e-06	2.793595e-06	1.177542e-09	1.941948e+01	8.181364e+01
2.480000e-06	2.833485e-06	1.190673e-09	1.969677e+01	8.269608e+01
2.490000e-06	2.873298e-06	1.203247e-09	1.997353e+01	8.355375e+01
2.500000e-06	2.913052e-06	1.215419e-09	2.024988e+01	8.438783e+01
2.510000e-06	2.952694e-06	1.227236e-09	2.052545e+01	8.519939e+01
2.520000e-06	2.992069e-06	1.238651e-09	2.079916e+01	8.598945e+01
2.530000e-06	3.031222e-06	1.248749e-09	2.107133e+01	8.675895e+01
2.540000e-06	3.070193e-06	1.257811e-09	2.134223e+01	8.750874e+01
2.550000e-06	3.108946e-06	1.266691e-09	2.161162e+01	8.823956e+01
2.560000e-06	3.147446e-06	1.274166e-09	2.187925e+01	8.895208e+01
2.570000e-06	3.185689e-06	1.282792e-09	2.214510e+01	8.964685e+01
2.580000e-06	3.223759e-06	1.294389e-09	2.240973e+01	9.032433e+01
2.590000e-06	3.261651e-06	1.307101e-09	2.267314e+01	9.098491e+01
2.600000e-06	3.299245e-06	1.319635e-09	2.293447e+01	9.162886e+01
2.610000e-06	3.336658e-06	1.330066e-09	2.319454e+01	9.225640e+01
2.620000e-06	3.373920e-06	1.339117e-09	2.345357e+01	9.286764e+01
2.630000e-06	3.410805e-06	1.347380e-09	2.370997e+01	9.346267e+01
2.640000e-06	3.447360e-06	1.355912e-09	2.396408e+01	9.404151e+01
2.650000e-06	3.483709e-06	1.363340e-09	2.421676e+01	9.460412e+01
2.660000e-06	3.519876e-06	1.368644e-09	2.446817e+01	9.515047e+01
2.670000e-06	3.555921e-06	1.376076e-09	2.471874e+01	9.568049e+01
2.680000e-06	3.591855e-06	1.385951e-09	2.496853e+01	9.619412e+01
2.690000e-06	3.627646e-06	1.395116e-09	2.521733e+01	9.669130e+01
2.700000e-06	3.663283e-06	1.403838e-09	2.546505e+01	9.717200e+01
2.710000e-06	3.698755e-06	1.413721e-09	2.571163e+01	9.763623e+01
2.720000e-06	3.734019e-06	1.421606e-09	2.595677e+01	9.808404e+01
2.730000e-06	3.768865e-06	1.424790e-09	2.619900e+01	9.851555e+01
2.740000e-06	3.803246e-06	1.426579e-09	2.643800e+01	9.893092e+01
2.750000e-06	3.837161e-06	1.430566e-09	2.667376e+01	9.933039e+01
2.760000e-06	3.870512e-06	1.434165e-09	2.690559e+01	9.971429e+01
2.770000e-06	3.903412e-06	1.437513e-09	2.713429e+01	1.000830e+02
2.780000e-06	3.935986e-06	1.443593e-09	2.736073e+01	1.004370e+02
2.790000e-06	3.968285e-06	1.453149e-09	2.758526e+01	1.007768e+02
2.800000e-06	4.000349e-06	1.463700e-09	2.780814e+01	1.011031e+02
2.810000e-06	4.032251e-06	1.471013e-09	2.802991e+01	1.014165e+02
2.820000e-06	4.064026e-06	1.475110e-09	2.825079e+01	1.017178e+02
2.830000e-06	4.095688e-06	1.479010e-09	2.847089e+01	1.020078e+02
2.840000e-06	4.127051e-06	1.482082e-09	2.868891e+01	1.022872e+02
2.850000e-06	4.158009e-06	1.482549e-09	2.890411e+01	1.025571e+02
2.860000e-06	4.188676e-06	1.481535e-09	2.911729e+01	1.028182e+02
2.870000e-06	4.219027e-06	1.483402e-09	2.932827e+01	1.030714e+02
2.880000e-06	4.249073e-06	1.487469e-09	2.953714e+01	1.033176e+02
2.890000e-06	4.278833e-06	1.493366e-09	2.974401e+01	1.035576e+02
2.900000e-06	4.308325e-06	1.500886e-09	2.994902e+01	1.037923e+02
