# Temperatura_=_15.6
# Concentracion g/m^3_=_1620.0
# C_Vs_to_Am_M_A/Vsm_=_65563218390.804596
# pendiente_HvsI_1/m_=_3716.3
# ordenada_HvsI_A/m_=_1297.0
# frecuencia_Hz_=_135095.40394675615

Tiempo_(s)	Campo_(V.s)	Magnetizacion_(V.s)	Campo_(kA/m)	Magnetizacion_(A/m)
0.000000e+00	-5.530586e-06	-1.535577e-09	-3.836376e+01	-1.004520e+02
1.000000e-08	-5.530906e-06	-1.532754e-09	-3.836599e+01	-1.004421e+02
2.000000e-08	-5.530940e-06	-1.528347e-09	-3.836622e+01	-1.004364e+02
3.000000e-08	-5.530653e-06	-1.525831e-09	-3.836423e+01	-1.004348e+02
4.000000e-08	-5.529971e-06	-1.525469e-09	-3.835950e+01	-1.004367e+02
5.000000e-08	-5.528807e-06	-1.528316e-09	-3.835142e+01	-1.004417e+02
6.000000e-08	-5.527048e-06	-1.534714e-09	-3.833922e+01	-1.004493e+02
7.000000e-08	-5.524711e-06	-1.536541e-09	-3.832301e+01	-1.004586e+02
8.000000e-08	-5.521831e-06	-1.537485e-09	-3.830304e+01	-1.004688e+02
9.000000e-08	-5.518510e-06	-1.512435e-09	-3.828000e+01	-1.004790e+02
1.000000e-07	-5.514767e-06	-1.485935e-09	-3.825403e+01	-1.004882e+02
1.100000e-07	-5.510604e-06	-1.504688e-09	-3.822515e+01	-1.004953e+02
1.200000e-07	-5.506140e-06	-1.586323e-09	-3.819419e+01	-1.004991e+02
1.300000e-07	-5.501393e-06	-1.524727e-09	-3.816127e+01	-1.004986e+02
1.400000e-07	-5.496389e-06	-1.486181e-09	-3.812655e+01	-1.004926e+02
1.500000e-07	-5.491027e-06	-1.481522e-09	-3.808936e+01	-1.004800e+02
1.600000e-07	-5.485271e-06	-1.582647e-09	-3.804943e+01	-1.004598e+02
1.700000e-07	-5.479078e-06	-1.535801e-09	-3.800647e+01	-1.004310e+02
1.800000e-07	-5.472424e-06	-1.466870e-09	-3.796031e+01	-1.003926e+02
1.900000e-07	-5.465401e-06	-1.515414e-09	-3.791160e+01	-1.003438e+02
2.000000e-07	-5.457986e-06	-1.565189e-09	-3.786016e+01	-1.002840e+02
2.100000e-07	-5.450260e-06	-1.544332e-09	-3.780657e+01	-1.002127e+02
2.200000e-07	-5.442335e-06	-1.483199e-09	-3.775160e+01	-1.001294e+02
2.300000e-07	-5.434105e-06	-1.535093e-09	-3.769451e+01	-1.000339e+02
2.400000e-07	-5.425482e-06	-1.540528e-09	-3.763469e+01	-9.992605e+01
2.500000e-07	-5.416327e-06	-1.530135e-09	-3.757119e+01	-9.980603e+01
2.600000e-07	-5.406609e-06	-1.484757e-09	-3.750378e+01	-9.967403e+01
2.700000e-07	-5.396233e-06	-1.520007e-09	-3.743181e+01	-9.953048e+01
2.800000e-07	-5.385181e-06	-1.505570e-09	-3.735514e+01	-9.937592e+01
2.900000e-07	-5.373731e-06	-1.512854e-09	-3.727572e+01	-9.921106e+01
3.000000e-07	-5.361916e-06	-1.477546e-09	-3.719376e+01	-9.903671e+01
3.100000e-07	-5.349701e-06	-1.496389e-09	-3.710903e+01	-9.885382e+01
3.200000e-07	-5.337068e-06	-1.486394e-09	-3.702139e+01	-9.866343e+01
3.300000e-07	-5.324138e-06	-1.505180e-09	-3.693170e+01	-9.846665e+01
3.400000e-07	-5.310819e-06	-1.476457e-09	-3.683932e+01	-9.826465e+01
3.500000e-07	-5.297115e-06	-1.474727e-09	-3.674426e+01	-9.805862e+01
3.600000e-07	-5.283011e-06	-1.492435e-09	-3.664642e+01	-9.784978e+01
3.700000e-07	-5.268417e-06	-1.496371e-09	-3.654519e+01	-9.763934e+01
3.800000e-07	-5.253245e-06	-1.454041e-09	-3.643994e+01	-9.742845e+01
3.900000e-07	-5.237526e-06	-1.470541e-09	-3.633091e+01	-9.721823e+01
4.000000e-07	-5.221348e-06	-1.504396e-09	-3.621869e+01	-9.700973e+01
4.100000e-07	-5.204701e-06	-1.451532e-09	-3.610321e+01	-9.680388e+01
4.200000e-07	-5.187743e-06	-1.438884e-09	-3.598558e+01	-9.660154e+01
4.300000e-07	-5.170520e-06	-1.504684e-09	-3.586611e+01	-9.640341e+01
4.400000e-07	-5.153004e-06	-1.492079e-09	-3.574461e+01	-9.621009e+01
4.500000e-07	-5.135064e-06	-1.400999e-09	-3.562016e+01	-9.602202e+01
4.600000e-07	-5.116751e-06	-1.463261e-09	-3.549314e+01	-9.583951e+01
4.700000e-07	-5.098123e-06	-1.505540e-09	-3.536392e+01	-9.566270e+01
4.800000e-07	-5.079060e-06	-1.426742e-09	-3.523169e+01	-9.549160e+01
4.900000e-07	-5.059653e-06	-1.406009e-09	-3.509706e+01	-9.532609e+01
5.000000e-07	-5.040039e-06	-1.501351e-09	-3.496101e+01	-9.516589e+01
5.100000e-07	-5.020190e-06	-1.449577e-09	-3.482332e+01	-9.501060e+01
5.200000e-07	-5.000096e-06	-1.401107e-09	-3.468394e+01	-9.485972e+01
5.300000e-07	-4.979701e-06	-1.462786e-09	-3.454247e+01	-9.471264e+01
5.400000e-07	-4.958898e-06	-1.467647e-09	-3.439816e+01	-9.456866e+01
5.500000e-07	-4.937623e-06	-1.377488e-09	-3.425058e+01	-9.442701e+01
5.600000e-07	-4.916022e-06	-1.429219e-09	-3.410075e+01	-9.428689e+01
5.700000e-07	-4.894193e-06	-1.466094e-09	-3.394933e+01	-9.414744e+01
5.800000e-07	-4.872038e-06	-1.395473e-09	-3.379564e+01	-9.400780e+01
5.900000e-07	-4.849495e-06	-1.384514e-09	-3.363927e+01	-9.386713e+01
6.000000e-07	-4.826572e-06	-1.453544e-09	-3.348027e+01	-9.372458e+01
6.100000e-07	-4.803314e-06	-1.409516e-09	-3.331893e+01	-9.357936e+01
6.200000e-07	-4.779808e-06	-1.373533e-09	-3.315588e+01	-9.343073e+01
6.300000e-07	-4.756093e-06	-1.416002e-09	-3.299137e+01	-9.327799e+01
6.400000e-07	-4.732168e-06	-1.415490e-09	-3.282542e+01	-9.312056e+01
6.500000e-07	-4.707922e-06	-1.372536e-09	-3.265723e+01	-9.295790e+01
6.600000e-07	-4.683274e-06	-1.396313e-09	-3.248625e+01	-9.278960e+01
6.700000e-07	-4.658129e-06	-1.412212e-09	-3.231183e+01	-9.261532e+01
6.800000e-07	-4.632435e-06	-1.378715e-09	-3.213360e+01	-9.243483e+01
6.900000e-07	-4.606126e-06	-1.373427e-09	-3.195111e+01	-9.224799e+01
7.000000e-07	-4.579244e-06	-1.384480e-09	-3.176463e+01	-9.205476e+01
7.100000e-07	-4.552026e-06	-1.371280e-09	-3.157583e+01	-9.185518e+01
7.200000e-07	-4.524565e-06	-1.359659e-09	-3.138534e+01	-9.164939e+01
7.300000e-07	-4.496867e-06	-1.373400e-09	-3.119321e+01	-9.143758e+01
7.400000e-07	-4.468992e-06	-1.370148e-09	-3.099985e+01	-9.122001e+01
7.500000e-07	-4.440917e-06	-1.363021e-09	-3.080511e+01	-9.099701e+01
7.600000e-07	-4.412573e-06	-1.356280e-09	-3.060850e+01	-9.076893e+01
7.700000e-07	-4.383991e-06	-1.354555e-09	-3.041023e+01	-9.053614e+01
7.800000e-07	-4.355064e-06	-1.339668e-09	-3.020958e+01	-9.029905e+01
7.900000e-07	-4.325816e-06	-1.336486e-09	-3.000669e+01	-9.005805e+01
8.000000e-07	-4.296326e-06	-1.333868e-09	-2.980213e+01	-8.981354e+01
8.100000e-07	-4.266508e-06	-1.337114e-09	-2.959529e+01	-8.956588e+01
8.200000e-07	-4.236374e-06	-1.332553e-09	-2.938626e+01	-8.931542e+01
8.300000e-07	-4.205899e-06	-1.331982e-09	-2.917487e+01	-8.906245e+01
8.400000e-07	-4.175058e-06	-1.317803e-09	-2.896093e+01	-8.880723e+01
8.500000e-07	-4.143941e-06	-1.314475e-09	-2.874509e+01	-8.854996e+01
8.600000e-07	-4.112566e-06	-1.311418e-09	-2.852745e+01	-8.829080e+01
8.700000e-07	-4.081016e-06	-1.307130e-09	-2.830860e+01	-8.802984e+01
8.800000e-07	-4.049366e-06	-1.295230e-09	-2.808905e+01	-8.776712e+01
8.900000e-07	-4.017567e-06	-1.295723e-09	-2.786848e+01	-8.750262e+01
9.000000e-07	-3.985537e-06	-1.290477e-09	-2.764629e+01	-8.723628e+01
9.100000e-07	-3.953258e-06	-1.285972e-09	-2.742239e+01	-8.696798e+01
9.200000e-07	-3.920739e-06	-1.286133e-09	-2.719681e+01	-8.669759e+01
9.300000e-07	-3.887835e-06	-1.287270e-09	-2.696857e+01	-8.642491e+01
9.400000e-07	-3.854401e-06	-1.277456e-09	-2.673665e+01	-8.614974e+01
9.500000e-07	-3.820487e-06	-1.271993e-09	-2.650140e+01	-8.587187e+01
9.600000e-07	-3.786100e-06	-1.270371e-09	-2.626287e+01	-8.559107e+01
9.700000e-07	-3.751324e-06	-1.262156e-09	-2.602164e+01	-8.530712e+01
9.800000e-07	-3.716188e-06	-1.254195e-09	-2.577791e+01	-8.501980e+01
9.900000e-07	-3.680743e-06	-1.253443e-09	-2.553204e+01	-8.472894e+01
1.000000e-06	-3.645121e-06	-1.251763e-09	-2.528495e+01	-8.443436e+01
1.010000e-06	-3.609337e-06	-1.242090e-09	-2.503672e+01	-8.413594e+01
1.020000e-06	-3.573399e-06	-1.239943e-09	-2.478744e+01	-8.383357e+01
1.030000e-06	-3.537346e-06	-1.235672e-09	-2.453735e+01	-8.352722e+01
1.040000e-06	-3.501174e-06	-1.227520e-09	-2.428643e+01	-8.321688e+01
1.050000e-06	-3.464702e-06	-1.217917e-09	-2.403344e+01	-8.290257e+01
1.060000e-06	-3.427979e-06	-1.215509e-09	-2.377871e+01	-8.258436e+01
1.070000e-06	-3.390990e-06	-1.207441e-09	-2.352212e+01	-8.226238e+01
1.080000e-06	-3.353707e-06	-1.201554e-09	-2.326350e+01	-8.193677e+01
1.090000e-06	-3.316174e-06	-1.197271e-09	-2.300315e+01	-8.160769e+01
1.100000e-06	-3.278395e-06	-1.195341e-09	-2.274109e+01	-8.127535e+01
1.110000e-06	-3.240461e-06	-1.186538e-09	-2.247796e+01	-8.093993e+01
1.120000e-06	-3.202276e-06	-1.180874e-09	-2.221308e+01	-8.060165e+01
1.130000e-06	-3.163787e-06	-1.173768e-09	-2.194610e+01	-8.026070e+01
1.140000e-06	-3.125150e-06	-1.167315e-09	-2.167809e+01	-7.991724e+01
1.150000e-06	-3.086360e-06	-1.161220e-09	-2.140902e+01	-7.957144e+01
1.160000e-06	-3.047324e-06	-1.162337e-09	-2.113824e+01	-7.922339e+01
1.170000e-06	-3.008026e-06	-1.156566e-09	-2.086564e+01	-7.887316e+01
1.180000e-06	-2.968588e-06	-1.146582e-09	-2.059207e+01	-7.852073e+01
1.190000e-06	-2.929016e-06	-1.140807e-09	-2.031757e+01	-7.816605e+01
1.200000e-06	-2.889259e-06	-1.138295e-09	-2.004179e+01	-7.780897e+01
1.210000e-06	-2.849402e-06	-1.130645e-09	-1.976532e+01	-7.744929e+01
1.220000e-06	-2.809455e-06	-1.124496e-09	-1.948822e+01	-7.708671e+01
1.230000e-06	-2.769387e-06	-1.120478e-09	-1.921028e+01	-7.672086e+01
1.240000e-06	-2.729143e-06	-1.115777e-09	-1.893112e+01	-7.635129e+01
1.250000e-06	-2.688739e-06	-1.110893e-09	-1.865085e+01	-7.597746e+01
1.260000e-06	-2.648048e-06	-1.105650e-09	-1.836860e+01	-7.559879e+01
1.270000e-06	-2.607081e-06	-1.096283e-09	-1.808442e+01	-7.521461e+01
1.280000e-06	-2.565872e-06	-1.083812e-09	-1.779857e+01	-7.482419e+01
1.290000e-06	-2.524348e-06	-1.075886e-09	-1.751053e+01	-7.442676e+01
1.300000e-06	-2.482568e-06	-1.071186e-09	-1.722072e+01	-7.402152e+01
1.310000e-06	-2.440438e-06	-1.065869e-09	-1.692848e+01	-7.360764e+01
1.320000e-06	-2.397932e-06	-1.058130e-09	-1.663363e+01	-7.318428e+01
1.330000e-06	-2.355134e-06	-1.052764e-09	-1.633675e+01	-7.275059e+01
1.340000e-06	-2.312108e-06	-1.041917e-09	-1.603830e+01	-7.230576e+01
1.350000e-06	-2.268911e-06	-1.031621e-09	-1.573865e+01	-7.184897e+01
1.360000e-06	-2.225568e-06	-1.025387e-09	-1.543800e+01	-7.137947e+01
1.370000e-06	-2.182113e-06	-1.020949e-09	-1.513656e+01	-7.089656e+01
1.380000e-06	-2.138454e-06	-1.011697e-09	-1.483372e+01	-7.039959e+01
1.390000e-06	-2.094680e-06	-1.000308e-09	-1.453007e+01	-6.988798e+01
1.400000e-06	-2.050869e-06	-9.889948e-10	-1.422617e+01	-6.936125e+01
1.410000e-06	-2.006984e-06	-9.779818e-10	-1.392176e+01	-6.881898e+01
1.420000e-06	-1.962999e-06	-9.669615e-10	-1.361664e+01	-6.826086e+01
1.430000e-06	-1.918910e-06	-9.601997e-10	-1.331082e+01	-6.768663e+01
1.440000e-06	-1.874759e-06	-9.539047e-10	-1.300455e+01	-6.709616e+01
1.450000e-06	-1.830496e-06	-9.464738e-10	-1.269752e+01	-6.648938e+01
1.460000e-06	-1.786110e-06	-9.359048e-10	-1.238962e+01	-6.586630e+01
1.470000e-06	-1.741680e-06	-9.227635e-10	-1.208143e+01	-6.522699e+01
1.480000e-06	-1.697122e-06	-9.092442e-10	-1.177235e+01	-6.457161e+01
1.490000e-06	-1.652326e-06	-8.948675e-10	-1.146161e+01	-6.390032e+01
1.500000e-06	-1.607453e-06	-8.794824e-10	-1.115035e+01	-6.321336e+01
1.510000e-06	-1.562520e-06	-8.650976e-10	-1.083866e+01	-6.251094e+01
1.520000e-06	-1.517386e-06	-8.550743e-10	-1.052558e+01	-6.179332e+01
1.530000e-06	-1.472030e-06	-8.496352e-10	-1.021097e+01	-6.106072e+01
1.540000e-06	-1.426529e-06	-8.387983e-10	-9.895341e+00	-6.031332e+01
1.550000e-06	-1.381024e-06	-8.246488e-10	-9.579687e+00	-5.955127e+01
1.560000e-06	-1.335497e-06	-8.062948e-10	-9.263884e+00	-5.877465e+01
1.570000e-06	-1.289883e-06	-7.911437e-10	-8.947474e+00	-5.798347e+01
1.580000e-06	-1.244203e-06	-7.795357e-10	-8.630604e+00	-5.717763e+01
1.590000e-06	-1.198427e-06	-7.671606e-10	-8.313071e+00	-5.635694e+01
1.600000e-06	-1.152581e-06	-7.558935e-10	-7.995058e+00	-5.552108e+01
1.610000e-06	-1.106653e-06	-7.472438e-10	-7.676470e+00	-5.466963e+01
1.620000e-06	-1.060512e-06	-7.388178e-10	-7.356403e+00	-5.380202e+01
1.630000e-06	-1.014272e-06	-7.279402e-10	-7.035655e+00	-5.291755e+01
1.640000e-06	-9.680176e-07	-7.166285e-10	-6.714804e+00	-5.201540e+01
1.650000e-06	-9.216711e-07	-7.024995e-10	-6.393314e+00	-5.109461e+01
1.660000e-06	-8.752444e-07	-6.880054e-10	-6.071268e+00	-5.015411e+01
1.670000e-06	-8.287764e-07	-6.713804e-10	-5.748935e+00	-4.919270e+01
1.680000e-06	-7.823465e-07	-6.555658e-10	-5.426867e+00	-4.820909e+01
1.690000e-06	-7.358912e-07	-6.386545e-10	-5.104623e+00	-4.720188e+01
1.700000e-06	-6.893408e-07	-6.195678e-10	-4.781719e+00	-4.616962e+01
1.710000e-06	-6.427430e-07	-6.005855e-10	-4.458486e+00	-4.511078e+01
1.720000e-06	-5.960981e-07	-5.855330e-10	-4.134927e+00	-4.402381e+01
1.730000e-06	-5.493944e-07	-5.720052e-10	-3.810959e+00	-4.290714e+01
1.740000e-06	-5.026821e-07	-5.565603e-10	-3.486932e+00	-4.175920e+01
1.750000e-06	-4.559287e-07	-5.381196e-10	-3.162620e+00	-4.057847e+01
1.760000e-06	-4.091227e-07	-5.162595e-10	-2.837943e+00	-3.936347e+01
1.770000e-06	-3.621695e-07	-4.907828e-10	-2.512244e+00	-3.811279e+01
1.780000e-06	-3.151602e-07	-4.693213e-10	-2.186158e+00	-3.682514e+01
1.790000e-06	-2.682697e-07	-4.512274e-10	-1.860895e+00	-3.549934e+01
1.800000e-06	-2.213694e-07	-4.332618e-10	-1.535563e+00	-3.413436e+01
1.810000e-06	-1.743743e-07	-4.153942e-10	-1.209575e+00	-3.272932e+01
1.820000e-06	-1.273894e-07	-3.960766e-10	-8.836566e-01	-3.128355e+01
1.830000e-06	-8.044911e-08	-3.737752e-10	-5.580477e-01	-2.979653e+01
1.840000e-06	-3.350545e-08	-3.509873e-10	-2.324157e-01	-2.826799e+01
1.850000e-06	1.344724e-08	-3.284181e-10	9.327885e-02	-2.669787e+01
1.860000e-06	6.040849e-08	-3.084528e-10	4.190328e-01	-2.508632e+01
1.870000e-06	1.072939e-07	-2.880535e-10	7.442608e-01	-2.343373e+01
1.880000e-06	1.540794e-07	-2.648947e-10	1.068796e+00	-2.174074e+01
1.890000e-06	2.009045e-07	-2.401853e-10	1.393605e+00	-2.000821e+01
1.900000e-06	2.478576e-07	-2.139259e-10	1.719303e+00	-1.823723e+01
1.910000e-06	2.948471e-07	-1.873258e-10	2.045253e+00	-1.642911e+01
1.920000e-06	3.418046e-07	-1.615212e-10	2.370980e+00	-1.458539e+01
1.930000e-06	3.886509e-07	-1.372488e-10	2.695937e+00	-1.270780e+01
1.940000e-06	4.354293e-07	-1.130782e-10	3.020422e+00	-1.079828e+01
1.950000e-06	4.821447e-07	-8.775565e-11	3.344471e+00	-8.858943e+00
1.960000e-06	5.288147e-07	-5.961537e-11	3.668205e+00	-6.892058e+00
1.970000e-06	5.755106e-07	-2.868494e-11	3.992118e+00	-4.900046e+00
1.980000e-06	6.221883e-07	2.478357e-12	4.315906e+00	-2.885456e+00
1.990000e-06	6.687102e-07	3.257853e-11	4.638611e+00	-8.509425e-01
2.000000e-06	7.150984e-07	6.318209e-11	4.960390e+00	1.200747e+00
2.010000e-06	7.614725e-07	9.334255e-11	5.282072e+00	3.266795e+00
2.020000e-06	8.078126e-07	1.210945e-10	5.603517e+00	5.344335e+00
2.030000e-06	8.541482e-07	1.475599e-10	5.924931e+00	7.430467e+00
2.040000e-06	9.004283e-07	1.749261e-10	6.245960e+00	9.522275e+00
2.050000e-06	9.466344e-07	2.031921e-10	6.566476e+00	1.161685e+01
2.060000e-06	9.927533e-07	2.331755e-10	6.886387e+00	1.371130e+01
2.070000e-06	1.038764e-06	2.634970e-10	7.205547e+00	1.580278e+01
2.080000e-06	1.084716e-06	2.944793e-10	7.524298e+00	1.788847e+01
2.090000e-06	1.130636e-06	3.232531e-10	7.842833e+00	1.996564e+01
2.100000e-06	1.176479e-06	3.525503e-10	8.160831e+00	2.203162e+01
2.110000e-06	1.222243e-06	3.829810e-10	8.478280e+00	2.408384e+01
2.120000e-06	1.267924e-06	4.120060e-10	8.795154e+00	2.611982e+01
2.130000e-06	1.313487e-06	4.394654e-10	9.111207e+00	2.813717e+01
2.140000e-06	1.358965e-06	4.653973e-10	9.426674e+00	3.013363e+01
2.150000e-06	1.404386e-06	4.891566e-10	9.741742e+00	3.210706e+01
2.160000e-06	1.449744e-06	5.141030e-10	1.005638e+01	3.405542e+01
2.170000e-06	1.494938e-06	5.421273e-10	1.036987e+01	3.597683e+01
2.180000e-06	1.539909e-06	5.703361e-10	1.068182e+01	3.786950e+01
2.190000e-06	1.584803e-06	5.965859e-10	1.099323e+01	3.973181e+01
2.200000e-06	1.629681e-06	6.217375e-10	1.130453e+01	4.156225e+01
2.210000e-06	1.674441e-06	6.461312e-10	1.161502e+01	4.335945e+01
2.220000e-06	1.719002e-06	6.679973e-10	1.192413e+01	4.512218e+01
2.230000e-06	1.763413e-06	6.895332e-10	1.223219e+01	4.684935e+01
2.240000e-06	1.807764e-06	7.116687e-10	1.253983e+01	4.853998e+01
2.250000e-06	1.851984e-06	7.334250e-10	1.284657e+01	5.019325e+01
2.260000e-06	1.896126e-06	7.537488e-10	1.315277e+01	5.180846e+01
2.270000e-06	1.940209e-06	7.739369e-10	1.345856e+01	5.338505e+01
2.280000e-06	1.984193e-06	7.960802e-10	1.376366e+01	5.492257e+01
2.290000e-06	2.028114e-06	8.187271e-10	1.406833e+01	5.642072e+01
2.300000e-06	2.071982e-06	8.391301e-10	1.437262e+01	5.787931e+01
2.310000e-06	2.115781e-06	8.565407e-10	1.467644e+01	5.929826e+01
2.320000e-06	2.159456e-06	8.720229e-10	1.497940e+01	6.067762e+01
2.330000e-06	2.202991e-06	8.885294e-10	1.528139e+01	6.201755e+01
2.340000e-06	2.246473e-06	9.069421e-10	1.558301e+01	6.331830e+01
2.350000e-06	2.289902e-06	9.263779e-10	1.588426e+01	6.458025e+01
2.360000e-06	2.333074e-06	9.454037e-10	1.618373e+01	6.580385e+01
2.370000e-06	2.375935e-06	9.632566e-10	1.648104e+01	6.698964e+01
2.380000e-06	2.418513e-06	9.787050e-10	1.677639e+01	6.813826e+01
2.390000e-06	2.460794e-06	9.920168e-10	1.706968e+01	6.925040e+01
2.400000e-06	2.502699e-06	1.005744e-09	1.736036e+01	7.032684e+01
2.410000e-06	2.544193e-06	1.020298e-09	1.764819e+01	7.136840e+01
2.420000e-06	2.585441e-06	1.034902e-09	1.793431e+01	7.237596e+01
2.430000e-06	2.626524e-06	1.047514e-09	1.821929e+01	7.335043e+01
2.440000e-06	2.667347e-06	1.059060e-09	1.850246e+01	7.429276e+01
2.450000e-06	2.707898e-06	1.070733e-09	1.878375e+01	7.520392e+01
2.460000e-06	2.748229e-06	1.082020e-09	1.906352e+01	7.608490e+01
2.470000e-06	2.788347e-06	1.092572e-09	1.934180e+01	7.693668e+01
2.480000e-06	2.828356e-06	1.102673e-09	1.961933e+01	7.776026e+01
2.490000e-06	2.868257e-06	1.114359e-09	1.989611e+01	7.855661e+01
2.500000e-06	2.907995e-06	1.127376e-09	2.017175e+01	7.932669e+01
2.510000e-06	2.947519e-06	1.138954e-09	2.044592e+01	8.007143e+01
2.520000e-06	2.986919e-06	1.148847e-09	2.071922e+01	8.079174e+01
2.530000e-06	3.026236e-06	1.157392e-09	2.099195e+01	8.148849e+01
2.540000e-06	3.065304e-06	1.165037e-09	2.126295e+01	8.216250e+01
2.550000e-06	3.104086e-06	1.173950e-09	2.153197e+01	8.281457e+01
2.560000e-06	3.142637e-06	1.183156e-09	2.179939e+01	8.344543e+01
2.570000e-06	3.180990e-06	1.194504e-09	2.206543e+01	8.405580e+01
2.580000e-06	3.219159e-06	1.206510e-09	2.233020e+01	8.464632e+01
2.590000e-06	3.257146e-06	1.217476e-09	2.259369e+01	8.521761e+01
2.600000e-06	3.294944e-06	1.227352e-09	2.285589e+01	8.577023e+01
2.610000e-06	3.332528e-06	1.233623e-09	2.311660e+01	8.630474e+01
2.620000e-06	3.369942e-06	1.238810e-09	2.337613e+01	8.682163e+01
2.630000e-06	3.407136e-06	1.244442e-09	2.363412e+01	8.732138e+01
2.640000e-06	3.443991e-06	1.252695e-09	2.388978e+01	8.780443e+01
2.650000e-06	3.480550e-06	1.262847e-09	2.414337e+01	8.827122e+01
2.660000e-06	3.516883e-06	1.270544e-09	2.439540e+01	8.872217e+01
2.670000e-06	3.552985e-06	1.277544e-09	2.464583e+01	8.915771e+01
2.680000e-06	3.588878e-06	1.283669e-09	2.489480e+01	8.957823e+01
2.690000e-06	3.624652e-06	1.288176e-09	2.514296e+01	8.998417e+01
2.700000e-06	3.660296e-06	1.292903e-09	2.539021e+01	9.037594e+01
2.710000e-06	3.695780e-06	1.298844e-09	2.563635e+01	9.075399e+01
2.720000e-06	3.730995e-06	1.305966e-09	2.588063e+01	9.111878e+01
2.730000e-06	3.765992e-06	1.311910e-09	2.612339e+01	9.147078e+01
2.740000e-06	3.800713e-06	1.317031e-09	2.636423e+01	9.181049e+01
2.750000e-06	3.834899e-06	1.323394e-09	2.660137e+01	9.213843e+01
2.760000e-06	3.868585e-06	1.328629e-09	2.683504e+01	9.245513e+01
2.770000e-06	3.901875e-06	1.332546e-09	2.706596e+01	9.276115e+01
2.780000e-06	3.934786e-06	1.335928e-09	2.729425e+01	9.305706e+01
2.790000e-06	3.967360e-06	1.340193e-09	2.752021e+01	9.334345e+01
2.800000e-06	3.999561e-06	1.348225e-09	2.774357e+01	9.362090e+01
2.810000e-06	4.031474e-06	1.356805e-09	2.796494e+01	9.389001e+01
2.820000e-06	4.063281e-06	1.361108e-09	2.818558e+01	9.415136e+01
2.830000e-06	4.094860e-06	1.364634e-09	2.840463e+01	9.440553e+01
2.840000e-06	4.126136e-06	1.368645e-09	2.862158e+01	9.465308e+01
2.850000e-06	4.157239e-06	1.370522e-09	2.883733e+01	9.489453e+01
2.860000e-06	4.188096e-06	1.370716e-09	2.905137e+01	9.513039e+01
2.870000e-06	4.218627e-06	1.373699e-09	2.926316e+01	9.536112e+01
2.880000e-06	4.248791e-06	1.380457e-09	2.947239e+01	9.558712e+01
2.890000e-06	4.278666e-06	1.386791e-09	2.967963e+01	9.580876e+01
2.900000e-06	4.308326e-06	1.393312e-09	2.988537e+01	9.602634e+01
