# Temperatura_=_-13.1
# Concentracion g/m^3_=_1620.0
# C_Vs_to_Am_M_A/Vsm_=_65563218390.804596
# pendiente_HvsI_1/m_=_3716.3
# ordenada_HvsI_A/m_=_1297.0
# frecuencia_Hz_=_135107.20174978426

Tiempo_(s)	Campo_(V.s)	Magnetizacion_(V.s)	Campo_(kA/m)	Magnetizacion_(A/m)
0.000000e+00	-5.511133e-06	-9.916764e-10	-3.837724e+01	-6.494320e+01
1.000000e-08	-5.511370e-06	-9.896433e-10	-3.837888e+01	-6.490245e+01
2.000000e-08	-5.511319e-06	-9.883807e-10	-3.837853e+01	-6.486603e+01
3.000000e-08	-5.510928e-06	-9.895987e-10	-3.837580e+01	-6.483437e+01
4.000000e-08	-5.510114e-06	-9.918527e-10	-3.837014e+01	-6.480780e+01
5.000000e-08	-5.508751e-06	-9.919854e-10	-3.836065e+01	-6.478657e+01
6.000000e-08	-5.506804e-06	-9.954071e-10	-3.834709e+01	-6.477088e+01
7.000000e-08	-5.504201e-06	-9.988873e-10	-3.832896e+01	-6.476079e+01
8.000000e-08	-5.501041e-06	-9.959908e-10	-3.830695e+01	-6.475630e+01
9.000000e-08	-5.497481e-06	-9.805090e-10	-3.828217e+01	-6.475727e+01
1.000000e-07	-5.493498e-06	-9.691272e-10	-3.825443e+01	-6.476350e+01
1.100000e-07	-5.489200e-06	-9.757582e-10	-3.822450e+01	-6.477465e+01
1.200000e-07	-5.484686e-06	-1.021063e-09	-3.819307e+01	-6.479029e+01
1.300000e-07	-5.479851e-06	-9.711771e-10	-3.815940e+01	-6.480990e+01
1.400000e-07	-5.474684e-06	-9.514353e-10	-3.812342e+01	-6.483286e+01
1.500000e-07	-5.469187e-06	-9.711836e-10	-3.808514e+01	-6.485849e+01
1.600000e-07	-5.463324e-06	-1.015189e-09	-3.804431e+01	-6.488602e+01
1.700000e-07	-5.457023e-06	-9.957418e-10	-3.800043e+01	-6.491464e+01
1.800000e-07	-5.450276e-06	-9.405389e-10	-3.795345e+01	-6.494348e+01
1.900000e-07	-5.443171e-06	-9.884257e-10	-3.790397e+01	-6.497167e+01
2.000000e-07	-5.435703e-06	-1.006747e-09	-3.785197e+01	-6.499831e+01
2.100000e-07	-5.427927e-06	-1.012234e-09	-3.779782e+01	-6.502250e+01
2.200000e-07	-5.419845e-06	-9.656174e-10	-3.774154e+01	-6.504339e+01
2.300000e-07	-5.411483e-06	-9.944969e-10	-3.768331e+01	-6.506012e+01
2.400000e-07	-5.402706e-06	-9.864082e-10	-3.762220e+01	-6.507193e+01
2.500000e-07	-5.393422e-06	-9.921150e-10	-3.755755e+01	-6.507810e+01
2.600000e-07	-5.383588e-06	-9.690525e-10	-3.748906e+01	-6.507799e+01
2.700000e-07	-5.373065e-06	-9.902522e-10	-3.741579e+01	-6.507107e+01
2.800000e-07	-5.361946e-06	-9.886808e-10	-3.733836e+01	-6.505691e+01
2.900000e-07	-5.350370e-06	-9.855373e-10	-3.725775e+01	-6.503516e+01
3.000000e-07	-5.338426e-06	-9.675155e-10	-3.717457e+01	-6.500562e+01
3.100000e-07	-5.326069e-06	-9.757804e-10	-3.708853e+01	-6.496821e+01
3.200000e-07	-5.313258e-06	-9.886607e-10	-3.699931e+01	-6.492294e+01
3.300000e-07	-5.300118e-06	-9.875105e-10	-3.690781e+01	-6.486999e+01
3.400000e-07	-5.286696e-06	-9.826277e-10	-3.681435e+01	-6.480961e+01
3.500000e-07	-5.272866e-06	-9.752804e-10	-3.671804e+01	-6.474220e+01
3.600000e-07	-5.258511e-06	-9.962026e-10	-3.661808e+01	-6.466824e+01
3.700000e-07	-5.243748e-06	-9.819663e-10	-3.651528e+01	-6.458834e+01
3.800000e-07	-5.228504e-06	-9.668025e-10	-3.640912e+01	-6.450316e+01
3.900000e-07	-5.212668e-06	-9.732503e-10	-3.629885e+01	-6.441346e+01
4.000000e-07	-5.196411e-06	-1.003096e-09	-3.618564e+01	-6.432005e+01
4.100000e-07	-5.179757e-06	-9.617966e-10	-3.606967e+01	-6.422378e+01
4.200000e-07	-5.162727e-06	-9.598177e-10	-3.595108e+01	-6.412555e+01
4.300000e-07	-5.145441e-06	-9.968198e-10	-3.583071e+01	-6.402626e+01
4.400000e-07	-5.127930e-06	-9.947364e-10	-3.570877e+01	-6.392682e+01
4.500000e-07	-5.110029e-06	-9.283484e-10	-3.558411e+01	-6.382812e+01
4.600000e-07	-5.091639e-06	-9.666723e-10	-3.545605e+01	-6.373101e+01
4.700000e-07	-5.072847e-06	-9.944153e-10	-3.532519e+01	-6.363633e+01
4.800000e-07	-5.053711e-06	-9.419201e-10	-3.519194e+01	-6.354482e+01
4.900000e-07	-5.034246e-06	-9.217221e-10	-3.505639e+01	-6.345718e+01
5.000000e-07	-5.014541e-06	-9.979003e-10	-3.491918e+01	-6.337404e+01
5.100000e-07	-4.994584e-06	-9.745771e-10	-3.478020e+01	-6.329593e+01
5.200000e-07	-4.974379e-06	-9.320073e-10	-3.463950e+01	-6.322329e+01
5.300000e-07	-4.953868e-06	-9.739824e-10	-3.449667e+01	-6.315647e+01
5.400000e-07	-4.932902e-06	-9.870260e-10	-3.435068e+01	-6.309572e+01
5.500000e-07	-4.911558e-06	-9.213085e-10	-3.420204e+01	-6.304118e+01
5.600000e-07	-4.889986e-06	-9.473567e-10	-3.405182e+01	-6.299292e+01
5.700000e-07	-4.868155e-06	-9.883684e-10	-3.389980e+01	-6.295089e+01
5.800000e-07	-4.845952e-06	-9.416392e-10	-3.374519e+01	-6.291496e+01
5.900000e-07	-4.823316e-06	-9.296643e-10	-3.358757e+01	-6.288491e+01
6.000000e-07	-4.800346e-06	-9.825753e-10	-3.342761e+01	-6.286045e+01
6.100000e-07	-4.777105e-06	-9.615011e-10	-3.326577e+01	-6.284122e+01
6.200000e-07	-4.753584e-06	-9.235176e-10	-3.310198e+01	-6.282679e+01
6.300000e-07	-4.729805e-06	-9.606507e-10	-3.293639e+01	-6.281669e+01
6.400000e-07	-4.705757e-06	-9.642796e-10	-3.276893e+01	-6.281041e+01
6.500000e-07	-4.681434e-06	-9.309414e-10	-3.259955e+01	-6.280741e+01
6.600000e-07	-4.656829e-06	-9.435101e-10	-3.242822e+01	-6.280713e+01
6.700000e-07	-4.631680e-06	-9.706262e-10	-3.225309e+01	-6.280899e+01
6.800000e-07	-4.605847e-06	-9.474518e-10	-3.207320e+01	-6.281242e+01
6.900000e-07	-4.579490e-06	-9.447744e-10	-3.188966e+01	-6.281687e+01
7.000000e-07	-4.552702e-06	-9.565245e-10	-3.170312e+01	-6.282180e+01
7.100000e-07	-4.525540e-06	-9.500076e-10	-3.151398e+01	-6.282667e+01
7.200000e-07	-4.498077e-06	-9.334851e-10	-3.132273e+01	-6.283100e+01
7.300000e-07	-4.470401e-06	-9.464521e-10	-3.113001e+01	-6.283434e+01
7.400000e-07	-4.442593e-06	-9.460407e-10	-3.093637e+01	-6.283628e+01
7.500000e-07	-4.414593e-06	-9.422279e-10	-3.074139e+01	-6.283643e+01
7.600000e-07	-4.386301e-06	-9.410313e-10	-3.054437e+01	-6.283448e+01
7.700000e-07	-4.357776e-06	-9.472879e-10	-3.034574e+01	-6.283014e+01
7.800000e-07	-4.328933e-06	-9.367580e-10	-3.014488e+01	-6.282317e+01
7.900000e-07	-4.299689e-06	-9.314212e-10	-2.994125e+01	-6.281338e+01
8.000000e-07	-4.270158e-06	-9.281807e-10	-2.973560e+01	-6.280061e+01
8.100000e-07	-4.240360e-06	-9.314711e-10	-2.952810e+01	-6.278474e+01
8.200000e-07	-4.210280e-06	-9.282775e-10	-2.931863e+01	-6.276570e+01
8.300000e-07	-4.179880e-06	-9.314250e-10	-2.910694e+01	-6.274343e+01
8.400000e-07	-4.149139e-06	-9.314162e-10	-2.889288e+01	-6.271792e+01
8.500000e-07	-4.118166e-06	-9.324634e-10	-2.867719e+01	-6.268917e+01
8.600000e-07	-4.086967e-06	-9.320534e-10	-2.845993e+01	-6.265720e+01
8.700000e-07	-4.055479e-06	-9.276840e-10	-2.824067e+01	-6.262205e+01
8.800000e-07	-4.023812e-06	-9.194261e-10	-2.802015e+01	-6.258378e+01
8.900000e-07	-3.992036e-06	-9.168161e-10	-2.779887e+01	-6.254244e+01
9.000000e-07	-3.960082e-06	-9.165824e-10	-2.757636e+01	-6.249812e+01
9.100000e-07	-3.927862e-06	-9.140885e-10	-2.735199e+01	-6.245088e+01
9.200000e-07	-3.895317e-06	-9.188071e-10	-2.712536e+01	-6.240081e+01
9.300000e-07	-3.862453e-06	-9.208612e-10	-2.689652e+01	-6.234798e+01
9.400000e-07	-3.829151e-06	-9.157685e-10	-2.666461e+01	-6.229249e+01
9.500000e-07	-3.795338e-06	-9.103868e-10	-2.642915e+01	-6.223440e+01
9.600000e-07	-3.761066e-06	-9.127626e-10	-2.619050e+01	-6.217382e+01
9.700000e-07	-3.726372e-06	-9.065229e-10	-2.594890e+01	-6.211081e+01
9.800000e-07	-3.691383e-06	-9.043582e-10	-2.570525e+01	-6.204548e+01
9.900000e-07	-3.656128e-06	-9.074960e-10	-2.545975e+01	-6.197790e+01
1.000000e-06	-3.620571e-06	-9.108590e-10	-2.521215e+01	-6.190818e+01
1.010000e-06	-3.584830e-06	-9.045343e-10	-2.496327e+01	-6.183641e+01
1.020000e-06	-3.548988e-06	-9.047697e-10	-2.471368e+01	-6.176270e+01
1.030000e-06	-3.513051e-06	-9.027032e-10	-2.446342e+01	-6.168714e+01
1.040000e-06	-3.476957e-06	-8.985337e-10	-2.421208e+01	-6.160986e+01
1.050000e-06	-3.440604e-06	-8.950636e-10	-2.395893e+01	-6.153096e+01
1.060000e-06	-3.404002e-06	-8.987729e-10	-2.370405e+01	-6.145059e+01
1.070000e-06	-3.367176e-06	-8.968267e-10	-2.344761e+01	-6.136885e+01
1.080000e-06	-3.330066e-06	-8.955280e-10	-2.318919e+01	-6.128588e+01
1.090000e-06	-3.292665e-06	-8.930993e-10	-2.292875e+01	-6.120180e+01
1.100000e-06	-3.255030e-06	-8.891281e-10	-2.266667e+01	-6.111673e+01
1.110000e-06	-3.217096e-06	-8.809992e-10	-2.240251e+01	-6.103080e+01
1.120000e-06	-3.178916e-06	-8.775890e-10	-2.213665e+01	-6.094412e+01
1.130000e-06	-3.140599e-06	-8.760883e-10	-2.186982e+01	-6.085677e+01
1.140000e-06	-3.102070e-06	-8.754133e-10	-2.160152e+01	-6.076883e+01
1.150000e-06	-3.063260e-06	-8.771434e-10	-2.133126e+01	-6.068035e+01
1.160000e-06	-3.024170e-06	-8.802615e-10	-2.105906e+01	-6.059138e+01
1.170000e-06	-2.984845e-06	-8.783502e-10	-2.078522e+01	-6.050190e+01
1.180000e-06	-2.945381e-06	-8.734489e-10	-2.051041e+01	-6.041188e+01
1.190000e-06	-2.905885e-06	-8.711821e-10	-2.023537e+01	-6.032126e+01
1.200000e-06	-2.866257e-06	-8.675629e-10	-1.995942e+01	-6.022991e+01
1.210000e-06	-2.826468e-06	-8.627523e-10	-1.968235e+01	-6.013769e+01
1.220000e-06	-2.786575e-06	-8.604335e-10	-1.940455e+01	-6.004440e+01
1.230000e-06	-2.746525e-06	-8.637516e-10	-1.912566e+01	-5.994979e+01
1.240000e-06	-2.706310e-06	-8.667807e-10	-1.884561e+01	-5.985357e+01
1.250000e-06	-2.665865e-06	-8.688900e-10	-1.856397e+01	-5.975542e+01
1.260000e-06	-2.625289e-06	-8.672300e-10	-1.828142e+01	-5.965495e+01
1.270000e-06	-2.584560e-06	-8.630294e-10	-1.799780e+01	-5.955174e+01
1.280000e-06	-2.543450e-06	-8.536226e-10	-1.771153e+01	-5.944535e+01
1.290000e-06	-2.502050e-06	-8.472449e-10	-1.742324e+01	-5.933528e+01
1.300000e-06	-2.460362e-06	-8.417375e-10	-1.713293e+01	-5.922101e+01
1.310000e-06	-2.418285e-06	-8.390618e-10	-1.683993e+01	-5.910200e+01
1.320000e-06	-2.375869e-06	-8.395293e-10	-1.654456e+01	-5.897771e+01
1.330000e-06	-2.333218e-06	-8.441603e-10	-1.624756e+01	-5.884756e+01
1.340000e-06	-2.290404e-06	-8.451922e-10	-1.594942e+01	-5.871098e+01
1.350000e-06	-2.247387e-06	-8.435549e-10	-1.564987e+01	-5.856741e+01
1.360000e-06	-2.204206e-06	-8.410439e-10	-1.534917e+01	-5.841629e+01
1.370000e-06	-2.160839e-06	-8.375593e-10	-1.504719e+01	-5.825709e+01
1.380000e-06	-2.117263e-06	-8.300649e-10	-1.474374e+01	-5.808928e+01
1.390000e-06	-2.073589e-06	-8.243866e-10	-1.443961e+01	-5.791238e+01
1.400000e-06	-2.029809e-06	-8.203119e-10	-1.413475e+01	-5.772594e+01
1.410000e-06	-1.985978e-06	-8.168129e-10	-1.382953e+01	-5.752954e+01
1.420000e-06	-1.942115e-06	-8.149147e-10	-1.352408e+01	-5.732281e+01
1.430000e-06	-1.898190e-06	-8.167739e-10	-1.321820e+01	-5.710539e+01
1.440000e-06	-1.854204e-06	-8.176733e-10	-1.291190e+01	-5.687702e+01
1.450000e-06	-1.810114e-06	-8.123635e-10	-1.260488e+01	-5.663742e+01
1.460000e-06	-1.765915e-06	-8.042005e-10	-1.229710e+01	-5.638638e+01
1.470000e-06	-1.721539e-06	-7.939610e-10	-1.198808e+01	-5.612373e+01
1.480000e-06	-1.677042e-06	-7.824491e-10	-1.167822e+01	-5.584932e+01
1.490000e-06	-1.632443e-06	-7.741741e-10	-1.136765e+01	-5.556302e+01
1.500000e-06	-1.587677e-06	-7.708011e-10	-1.105592e+01	-5.526472e+01
1.510000e-06	-1.542780e-06	-7.670783e-10	-1.074328e+01	-5.495434e+01
1.520000e-06	-1.497762e-06	-7.636082e-10	-1.042979e+01	-5.463177e+01
1.530000e-06	-1.452637e-06	-7.583880e-10	-1.011556e+01	-5.429691e+01
1.540000e-06	-1.407392e-06	-7.494286e-10	-9.800492e+00	-5.394966e+01
1.550000e-06	-1.362049e-06	-7.388516e-10	-9.484739e+00	-5.358985e+01
1.560000e-06	-1.316653e-06	-7.289590e-10	-9.168622e+00	-5.321731e+01
1.570000e-06	-1.271157e-06	-7.192444e-10	-8.851811e+00	-5.283181e+01
1.580000e-06	-1.225586e-06	-7.112545e-10	-8.534469e+00	-5.243307e+01
1.590000e-06	-1.179945e-06	-7.054212e-10	-8.216645e+00	-5.202074e+01
1.600000e-06	-1.134220e-06	-7.010387e-10	-7.898233e+00	-5.159442e+01
1.610000e-06	-1.088452e-06	-6.962620e-10	-7.579525e+00	-5.115362e+01
1.620000e-06	-1.042602e-06	-6.904499e-10	-7.260247e+00	-5.069776e+01
1.630000e-06	-9.966428e-07	-6.816231e-10	-6.940205e+00	-5.022619e+01
1.640000e-06	-9.505978e-07	-6.720718e-10	-6.619567e+00	-4.973820e+01
1.650000e-06	-9.044104e-07	-6.616848e-10	-6.297938e+00	-4.923295e+01
1.660000e-06	-8.581588e-07	-6.521424e-10	-5.975860e+00	-4.870954e+01
1.670000e-06	-8.119435e-07	-6.426209e-10	-5.654036e+00	-4.816702e+01
1.680000e-06	-7.657250e-07	-6.347532e-10	-5.332190e+00	-4.760431e+01
1.690000e-06	-7.194633e-07	-6.275490e-10	-5.010043e+00	-4.702033e+01
1.700000e-06	-6.731053e-07	-6.191002e-10	-4.687225e+00	-4.641390e+01
1.710000e-06	-6.266588e-07	-6.084916e-10	-4.363791e+00	-4.578381e+01
1.720000e-06	-5.802316e-07	-5.983036e-10	-4.040491e+00	-4.512882e+01
1.730000e-06	-5.338178e-07	-5.867187e-10	-3.717285e+00	-4.444767e+01
1.740000e-06	-4.872742e-07	-5.724135e-10	-3.393175e+00	-4.373910e+01
1.750000e-06	-4.405598e-07	-5.590895e-10	-3.067875e+00	-4.300185e+01
1.760000e-06	-3.938247e-07	-5.481665e-10	-2.742431e+00	-4.223470e+01
1.770000e-06	-3.471928e-07	-5.380809e-10	-2.417706e+00	-4.143646e+01
1.780000e-06	-3.005771e-07	-5.273624e-10	-2.093094e+00	-4.060600e+01
1.790000e-06	-2.539399e-07	-5.152120e-10	-1.768332e+00	-3.974227e+01
1.800000e-06	-2.071902e-07	-5.011809e-10	-1.442786e+00	-3.884430e+01
1.810000e-06	-1.604274e-07	-4.855497e-10	-1.117149e+00	-3.791121e+01
1.820000e-06	-1.137253e-07	-4.707952e-10	-7.919355e-01	-3.694227e+01
1.830000e-06	-6.708594e-08	-4.582700e-10	-4.671586e-01	-3.593684e+01
1.840000e-06	-2.047969e-08	-4.463987e-10	-1.426121e-01	-3.489445e+01
1.850000e-06	2.620044e-08	-4.369263e-10	1.824489e-01	-3.381475e+01
1.860000e-06	7.291715e-08	-4.263729e-10	5.077647e-01	-3.269755e+01
1.870000e-06	1.196988e-07	-4.107332e-10	8.335326e-01	-3.154285e+01
1.880000e-06	1.664392e-07	-3.912149e-10	1.159013e+00	-3.035077e+01
1.890000e-06	2.131189e-07	-3.721800e-10	1.484071e+00	-2.912162e+01
1.900000e-06	2.598409e-07	-3.530019e-10	1.809424e+00	-2.785588e+01
1.910000e-06	3.065873e-07	-3.331330e-10	2.134946e+00	-2.655419e+01
1.920000e-06	3.532543e-07	-3.140485e-10	2.459915e+00	-2.521735e+01
1.930000e-06	3.999110e-07	-2.969243e-10	2.784814e+00	-2.384632e+01
1.940000e-06	4.465935e-07	-2.800446e-10	3.109891e+00	-2.244222e+01
1.950000e-06	4.931515e-07	-2.632149e-10	3.434102e+00	-2.100629e+01
1.960000e-06	5.396245e-07	-2.447388e-10	3.757720e+00	-1.953993e+01
1.970000e-06	5.860302e-07	-2.243070e-10	4.080870e+00	-1.804466e+01
1.980000e-06	6.323753e-07	-2.023029e-10	4.403598e+00	-1.652212e+01
1.990000e-06	6.786502e-07	-1.786446e-10	4.725837e+00	-1.497404e+01
2.000000e-06	7.248069e-07	-1.538136e-10	5.047253e+00	-1.340225e+01
2.010000e-06	7.709471e-07	-1.299819e-10	5.368554e+00	-1.180869e+01
2.020000e-06	8.171283e-07	-1.079729e-10	5.690141e+00	-1.019532e+01
2.030000e-06	8.633059e-07	-8.702461e-11	6.011702e+00	-8.564206e+00
2.040000e-06	9.094380e-07	-6.576779e-11	6.332947e+00	-6.917433e+00
2.050000e-06	9.554706e-07	-4.369757e-11	6.653499e+00	-5.257136e+00
2.060000e-06	1.001423e-06	-2.006554e-11	6.973495e+00	-3.585474e+00
2.070000e-06	1.047294e-06	5.988534e-12	7.292916e+00	-1.904623e+00
2.080000e-06	1.093100e-06	3.209987e-11	7.611895e+00	-2.167666e-01
2.090000e-06	1.138851e-06	5.635376e-11	7.930486e+00	1.475912e+00
2.100000e-06	1.184536e-06	8.054078e-11	8.248616e+00	3.171237e+00
2.110000e-06	1.230166e-06	1.046119e-10	8.566365e+00	4.867052e+00
2.120000e-06	1.275640e-06	1.277426e-10	8.883024e+00	6.561220e+00
2.130000e-06	1.321015e-06	1.512356e-10	9.198996e+00	8.251633e+00
2.140000e-06	1.366363e-06	1.731481e-10	9.514784e+00	9.936220e+00
2.150000e-06	1.411562e-06	1.933935e-10	9.829527e+00	1.161295e+01
2.160000e-06	1.456645e-06	2.139025e-10	1.014347e+01	1.327982e+01
2.170000e-06	1.501669e-06	2.346523e-10	1.045700e+01	1.493491e+01
2.180000e-06	1.546516e-06	2.555351e-10	1.076929e+01	1.657632e+01
2.190000e-06	1.591190e-06	2.781494e-10	1.108038e+01	1.820221e+01
2.200000e-06	1.635799e-06	3.016093e-10	1.139103e+01	1.981083e+01
2.210000e-06	1.680287e-06	3.239598e-10	1.170082e+01	2.140046e+01
2.220000e-06	1.724588e-06	3.451157e-10	1.200931e+01	2.296947e+01
2.230000e-06	1.768765e-06	3.662668e-10	1.231694e+01	2.451629e+01
2.240000e-06	1.812880e-06	3.854216e-10	1.262414e+01	2.603943e+01
2.250000e-06	1.856980e-06	4.028211e-10	1.293123e+01	2.753748e+01
2.260000e-06	1.900987e-06	4.198754e-10	1.323768e+01	2.900912e+01
2.270000e-06	1.944888e-06	4.381949e-10	1.354339e+01	3.045313e+01
2.280000e-06	1.988747e-06	4.576103e-10	1.384881e+01	3.186834e+01
2.290000e-06	2.032527e-06	4.763748e-10	1.415367e+01	3.325373e+01
2.300000e-06	2.076210e-06	4.941738e-10	1.445786e+01	3.460836e+01
2.310000e-06	2.119840e-06	5.108077e-10	1.476168e+01	3.593137e+01
2.320000e-06	2.163375e-06	5.277269e-10	1.506484e+01	3.722204e+01
2.330000e-06	2.206781e-06	5.450138e-10	1.536710e+01	3.847975e+01
2.340000e-06	2.250061e-06	5.610473e-10	1.566849e+01	3.970400e+01
2.350000e-06	2.293106e-06	5.771519e-10	1.596823e+01	4.089439e+01
2.360000e-06	2.335899e-06	5.939564e-10	1.626623e+01	4.205064e+01
2.370000e-06	2.378472e-06	6.099942e-10	1.656269e+01	4.317259e+01
2.380000e-06	2.420747e-06	6.245068e-10	1.685707e+01	4.426018e+01
2.390000e-06	2.462644e-06	6.376952e-10	1.714882e+01	4.531349e+01
2.400000e-06	2.504199e-06	6.512231e-10	1.743820e+01	4.633266e+01
2.410000e-06	2.545487e-06	6.648996e-10	1.772571e+01	4.731799e+01
2.420000e-06	2.586504e-06	6.781348e-10	1.801134e+01	4.826984e+01
2.430000e-06	2.627275e-06	6.893189e-10	1.829525e+01	4.918867e+01
2.440000e-06	2.667762e-06	6.986048e-10	1.857718e+01	5.007503e+01
2.450000e-06	2.707940e-06	7.083165e-10	1.885696e+01	5.092954e+01
2.460000e-06	2.747924e-06	7.185955e-10	1.913540e+01	5.175291e+01
2.470000e-06	2.787832e-06	7.286976e-10	1.941330e+01	5.254588e+01
2.480000e-06	2.827691e-06	7.385700e-10	1.969086e+01	5.330925e+01
2.490000e-06	2.867479e-06	7.483571e-10	1.996793e+01	5.404385e+01
2.500000e-06	2.907126e-06	7.578132e-10	2.024402e+01	5.475056e+01
2.510000e-06	2.946605e-06	7.660776e-10	2.051893e+01	5.543026e+01
2.520000e-06	2.985893e-06	7.752032e-10	2.079252e+01	5.608382e+01
2.530000e-06	3.024971e-06	7.846636e-10	2.106464e+01	5.671214e+01
2.540000e-06	3.063899e-06	7.925977e-10	2.133572e+01	5.731608e+01
2.550000e-06	3.102625e-06	8.000265e-10	2.160539e+01	5.789649e+01
2.560000e-06	3.141038e-06	8.065116e-10	2.187288e+01	5.845418e+01
2.570000e-06	3.179165e-06	8.124040e-10	2.213838e+01	5.898994e+01
2.580000e-06	3.217114e-06	8.184787e-10	2.240264e+01	5.950449e+01
2.590000e-06	3.254915e-06	8.242857e-10	2.266587e+01	5.999852e+01
2.600000e-06	3.292519e-06	8.307078e-10	2.292773e+01	6.047268e+01
2.610000e-06	3.329886e-06	8.386181e-10	2.318794e+01	6.092754e+01
2.620000e-06	3.367034e-06	8.470312e-10	2.344662e+01	6.136363e+01
2.630000e-06	3.403926e-06	8.547773e-10	2.370352e+01	6.178143e+01
2.640000e-06	3.440526e-06	8.605156e-10	2.395839e+01	6.218137e+01
2.650000e-06	3.476884e-06	8.658130e-10	2.421157e+01	6.256383e+01
2.660000e-06	3.513040e-06	8.711716e-10	2.446335e+01	6.292915e+01
2.670000e-06	3.548989e-06	8.747737e-10	2.471368e+01	6.327764e+01
2.680000e-06	3.584770e-06	8.791448e-10	2.496284e+01	6.360958e+01
2.690000e-06	3.620481e-06	8.866040e-10	2.521152e+01	6.392521e+01
2.700000e-06	3.656060e-06	8.952605e-10	2.545928e+01	6.422478e+01
2.710000e-06	3.691405e-06	9.031754e-10	2.570541e+01	6.450853e+01
2.720000e-06	3.726516e-06	9.103346e-10	2.594990e+01	6.477668e+01
2.730000e-06	3.761248e-06	9.160938e-10	2.619177e+01	6.502949e+01
2.740000e-06	3.795544e-06	9.202662e-10	2.643059e+01	6.526722e+01
2.750000e-06	3.829464e-06	9.235061e-10	2.666679e+01	6.549016e+01
2.760000e-06	3.862879e-06	9.251813e-10	2.689948e+01	6.569862e+01
2.770000e-06	3.895781e-06	9.270623e-10	2.712860e+01	6.589296e+01
2.780000e-06	3.928285e-06	9.313093e-10	2.735494e+01	6.607358e+01
2.790000e-06	3.960496e-06	9.369937e-10	2.757924e+01	6.624090e+01
2.800000e-06	3.992502e-06	9.423832e-10	2.780212e+01	6.639540e+01
2.810000e-06	4.024345e-06	9.460007e-10	2.802386e+01	6.653761e+01
2.820000e-06	4.056040e-06	9.492560e-10	2.824457e+01	6.666808e+01
2.830000e-06	4.087549e-06	9.528920e-10	2.846399e+01	6.678743e+01
2.840000e-06	4.118794e-06	9.541203e-10	2.868156e+01	6.689628e+01
2.850000e-06	4.149769e-06	9.533586e-10	2.889726e+01	6.699532e+01
2.860000e-06	4.180477e-06	9.527366e-10	2.911110e+01	6.708522e+01
2.870000e-06	4.210862e-06	9.542169e-10	2.932269e+01	6.716670e+01
2.880000e-06	4.240925e-06	9.573904e-10	2.953203e+01	6.724047e+01
2.890000e-06	4.270727e-06	9.605898e-10	2.973956e+01	6.730725e+01
2.900000e-06	4.300279e-06	9.637825e-10	2.994535e+01	6.736775e+01
