# Temperatura_=_-9.9
# Concentracion g/m^3_=_1620.0
# C_Vs_to_Am_M_A/Vsm_=_65563218390.804596
# pendiente_HvsI_1/m_=_3716.3
# ordenada_HvsI_A/m_=_1297.0
# frecuencia_Hz_=_135105.25120007675

Tiempo_(s)	Campo_(V.s)	Magnetizacion_(V.s)	Campo_(kA/m)	Magnetizacion_(A/m)
0.000000e+00	-5.523654e-06	-1.114997e-09	-3.836543e+01	-7.399326e+01
1.000000e-08	-5.523898e-06	-1.111624e-09	-3.836713e+01	-7.393969e+01
2.000000e-08	-5.523923e-06	-1.108992e-09	-3.836730e+01	-7.389185e+01
3.000000e-08	-5.523639e-06	-1.108787e-09	-3.836533e+01	-7.384998e+01
4.000000e-08	-5.522948e-06	-1.111451e-09	-3.836053e+01	-7.381420e+01
5.000000e-08	-5.521764e-06	-1.112602e-09	-3.835230e+01	-7.378451e+01
6.000000e-08	-5.519993e-06	-1.107894e-09	-3.834000e+01	-7.376078e+01
7.000000e-08	-5.517642e-06	-1.102504e-09	-3.832368e+01	-7.374279e+01
8.000000e-08	-5.514711e-06	-1.087947e-09	-3.830332e+01	-7.373016e+01
9.000000e-08	-5.511203e-06	-1.109758e-09	-3.827896e+01	-7.372241e+01
1.000000e-07	-5.507252e-06	-1.168388e-09	-3.825151e+01	-7.371896e+01
1.100000e-07	-5.502980e-06	-1.161311e-09	-3.822184e+01	-7.371910e+01
1.200000e-07	-5.498540e-06	-1.045164e-09	-3.819100e+01	-7.372207e+01
1.300000e-07	-5.493965e-06	-1.055585e-09	-3.815922e+01	-7.372700e+01
1.400000e-07	-5.489047e-06	-1.102105e-09	-3.812506e+01	-7.373296e+01
1.500000e-07	-5.483688e-06	-1.178464e-09	-3.808785e+01	-7.373900e+01
1.600000e-07	-5.477873e-06	-1.066635e-09	-3.804745e+01	-7.374410e+01
1.700000e-07	-5.471705e-06	-1.061853e-09	-3.800461e+01	-7.374725e+01
1.800000e-07	-5.465120e-06	-1.125940e-09	-3.795888e+01	-7.374746e+01
1.900000e-07	-5.458069e-06	-1.180418e-09	-3.790990e+01	-7.374373e+01
2.000000e-07	-5.450694e-06	-1.103032e-09	-3.785868e+01	-7.373513e+01
2.100000e-07	-5.443066e-06	-1.049615e-09	-3.780570e+01	-7.372078e+01
2.200000e-07	-5.435172e-06	-1.106157e-09	-3.775087e+01	-7.369987e+01
2.300000e-07	-5.426960e-06	-1.144733e-09	-3.769383e+01	-7.367168e+01
2.400000e-07	-5.418422e-06	-1.131308e-09	-3.763453e+01	-7.363561e+01
2.500000e-07	-5.409416e-06	-1.069425e-09	-3.757198e+01	-7.359115e+01
2.600000e-07	-5.399561e-06	-1.102369e-09	-3.750353e+01	-7.353794e+01
2.700000e-07	-5.389036e-06	-1.108045e-09	-3.743042e+01	-7.347573e+01
2.800000e-07	-5.378194e-06	-1.121773e-09	-3.735512e+01	-7.340441e+01
2.900000e-07	-5.366885e-06	-1.066154e-09	-3.727657e+01	-7.332403e+01
3.000000e-07	-5.355153e-06	-1.102119e-09	-3.719508e+01	-7.323474e+01
3.100000e-07	-5.343097e-06	-1.101322e-09	-3.711135e+01	-7.313685e+01
3.200000e-07	-5.330634e-06	-1.111197e-09	-3.702478e+01	-7.303081e+01
3.300000e-07	-5.317722e-06	-1.050224e-09	-3.693510e+01	-7.291716e+01
3.400000e-07	-5.304441e-06	-1.099197e-09	-3.684286e+01	-7.279657e+01
3.500000e-07	-5.290750e-06	-1.111596e-09	-3.674776e+01	-7.266982e+01
3.600000e-07	-5.276575e-06	-1.093983e-09	-3.664931e+01	-7.253775e+01
3.700000e-07	-5.261857e-06	-1.055329e-09	-3.654708e+01	-7.240131e+01
3.800000e-07	-5.246780e-06	-1.112663e-09	-3.644236e+01	-7.226147e+01
3.900000e-07	-5.231161e-06	-1.088213e-09	-3.633388e+01	-7.211926e+01
4.000000e-07	-5.214917e-06	-1.049740e-09	-3.622105e+01	-7.197573e+01
4.100000e-07	-5.198330e-06	-1.090339e-09	-3.610584e+01	-7.183191e+01
4.200000e-07	-5.181450e-06	-1.122848e-09	-3.598860e+01	-7.168885e+01
4.300000e-07	-5.164224e-06	-1.048547e-09	-3.586895e+01	-7.154755e+01
4.400000e-07	-5.146650e-06	-1.051158e-09	-3.574689e+01	-7.140896e+01
4.500000e-07	-5.128791e-06	-1.143133e-09	-3.562285e+01	-7.127397e+01
4.600000e-07	-5.110430e-06	-1.089645e-09	-3.549532e+01	-7.114339e+01
4.700000e-07	-5.091594e-06	-1.028946e-09	-3.536449e+01	-7.101795e+01
4.800000e-07	-5.072482e-06	-1.089292e-09	-3.523175e+01	-7.089827e+01
4.900000e-07	-5.053040e-06	-1.105342e-09	-3.509671e+01	-7.078485e+01
5.000000e-07	-5.033338e-06	-1.013532e-09	-3.495987e+01	-7.067810e+01
5.100000e-07	-5.013523e-06	-1.067494e-09	-3.482223e+01	-7.057828e+01
5.200000e-07	-4.993494e-06	-1.113150e-09	-3.468312e+01	-7.048553e+01
5.300000e-07	-4.973128e-06	-1.046512e-09	-3.454167e+01	-7.039988e+01
5.400000e-07	-4.952387e-06	-1.039196e-09	-3.439761e+01	-7.032122e+01
5.500000e-07	-4.931294e-06	-1.130999e-09	-3.425110e+01	-7.024934e+01
5.600000e-07	-4.909833e-06	-1.066596e-09	-3.410204e+01	-7.018390e+01
5.700000e-07	-4.888056e-06	-1.016890e-09	-3.395079e+01	-7.012447e+01
5.800000e-07	-4.866000e-06	-1.072870e-09	-3.379759e+01	-7.007050e+01
5.900000e-07	-4.843541e-06	-1.082761e-09	-3.364160e+01	-7.002137e+01
6.000000e-07	-4.820669e-06	-1.020710e-09	-3.348274e+01	-6.997640e+01
6.100000e-07	-4.797465e-06	-1.069914e-09	-3.332157e+01	-6.993483e+01
6.200000e-07	-4.774001e-06	-1.087506e-09	-3.315860e+01	-6.989587e+01
6.300000e-07	-4.750330e-06	-1.042674e-09	-3.299419e+01	-6.985867e+01
6.400000e-07	-4.726432e-06	-1.045710e-09	-3.282820e+01	-6.982240e+01
6.500000e-07	-4.702238e-06	-1.078891e-09	-3.266015e+01	-6.978620e+01
6.600000e-07	-4.677644e-06	-1.038869e-09	-3.248933e+01	-6.974924e+01
6.700000e-07	-4.652610e-06	-1.038436e-09	-3.231546e+01	-6.971071e+01
6.800000e-07	-4.627043e-06	-1.066845e-09	-3.213788e+01	-6.966982e+01
6.900000e-07	-4.600861e-06	-1.051834e-09	-3.195602e+01	-6.962585e+01
7.000000e-07	-4.574200e-06	-1.038406e-09	-3.177085e+01	-6.957813e+01
7.100000e-07	-4.547136e-06	-1.063966e-09	-3.158287e+01	-6.952606e+01
7.200000e-07	-4.519698e-06	-1.057545e-09	-3.139229e+01	-6.946913e+01
7.300000e-07	-4.492017e-06	-1.038344e-09	-3.120003e+01	-6.940688e+01
7.400000e-07	-4.464184e-06	-1.051000e-09	-3.100672e+01	-6.933897e+01
7.500000e-07	-4.436175e-06	-1.048507e-09	-3.081217e+01	-6.926513e+01
7.600000e-07	-4.407954e-06	-1.034286e-09	-3.061616e+01	-6.918519e+01
7.700000e-07	-4.379470e-06	-1.037826e-09	-3.041832e+01	-6.909906e+01
7.800000e-07	-4.350597e-06	-1.045003e-09	-3.021778e+01	-6.900675e+01
7.900000e-07	-4.321334e-06	-1.028898e-09	-3.001453e+01	-6.890834e+01
8.000000e-07	-4.291808e-06	-1.036048e-09	-2.980944e+01	-6.880400e+01
8.100000e-07	-4.262031e-06	-1.041127e-09	-2.960263e+01	-6.869398e+01
8.200000e-07	-4.231928e-06	-1.027022e-09	-2.939354e+01	-6.857858e+01
8.300000e-07	-4.201513e-06	-1.007932e-09	-2.918229e+01	-6.845816e+01
8.400000e-07	-4.170774e-06	-1.019267e-09	-2.896879e+01	-6.833314e+01
8.500000e-07	-4.139751e-06	-1.014272e-09	-2.875331e+01	-6.820396e+01
8.600000e-07	-4.108497e-06	-1.011168e-09	-2.853623e+01	-6.807113e+01
8.700000e-07	-4.077013e-06	-1.016301e-09	-2.831756e+01	-6.793512e+01
8.800000e-07	-4.045365e-06	-1.020990e-09	-2.809774e+01	-6.779647e+01
8.900000e-07	-4.013534e-06	-1.003036e-09	-2.787665e+01	-6.765567e+01
9.000000e-07	-3.981527e-06	-1.002269e-09	-2.765434e+01	-6.751323e+01
9.100000e-07	-3.949264e-06	-1.000858e-09	-2.743026e+01	-6.736964e+01
9.200000e-07	-3.916653e-06	-9.905099e-10	-2.720375e+01	-6.722535e+01
9.300000e-07	-3.883714e-06	-9.818635e-10	-2.697496e+01	-6.708078e+01
9.400000e-07	-3.850460e-06	-9.938648e-10	-2.674399e+01	-6.693631e+01
9.500000e-07	-3.816723e-06	-9.908305e-10	-2.650967e+01	-6.679228e+01
9.600000e-07	-3.782412e-06	-9.839445e-10	-2.627135e+01	-6.664897e+01
9.700000e-07	-3.747681e-06	-9.859899e-10	-2.603012e+01	-6.650661e+01
9.800000e-07	-3.712569e-06	-9.852836e-10	-2.578625e+01	-6.636537e+01
9.900000e-07	-3.677164e-06	-9.698309e-10	-2.554034e+01	-6.622535e+01
1.000000e-06	-3.641587e-06	-9.636097e-10	-2.529323e+01	-6.608661e+01
1.010000e-06	-3.605864e-06	-9.635545e-10	-2.504511e+01	-6.594914e+01
1.020000e-06	-3.570018e-06	-9.550484e-10	-2.479614e+01	-6.581287e+01
1.030000e-06	-3.534087e-06	-9.539553e-10	-2.454657e+01	-6.567767e+01
1.040000e-06	-3.497957e-06	-9.627316e-10	-2.429563e+01	-6.554338e+01
1.050000e-06	-3.461533e-06	-9.643213e-10	-2.404264e+01	-6.540978e+01
1.060000e-06	-3.424881e-06	-9.538395e-10	-2.378807e+01	-6.527659e+01
1.070000e-06	-3.387972e-06	-9.514929e-10	-2.353171e+01	-6.514351e+01
1.080000e-06	-3.350806e-06	-9.455551e-10	-2.327357e+01	-6.501022e+01
1.090000e-06	-3.313430e-06	-9.380294e-10	-2.301396e+01	-6.487633e+01
1.100000e-06	-3.275849e-06	-9.339210e-10	-2.275294e+01	-6.474149e+01
1.110000e-06	-3.238013e-06	-9.384130e-10	-2.249014e+01	-6.460528e+01
1.120000e-06	-3.199923e-06	-9.357196e-10	-2.222559e+01	-6.446730e+01
1.130000e-06	-3.161598e-06	-9.358242e-10	-2.195939e+01	-6.432714e+01
1.140000e-06	-3.122988e-06	-9.370863e-10	-2.169122e+01	-6.418441e+01
1.150000e-06	-3.084123e-06	-9.352222e-10	-2.142128e+01	-6.403870e+01
1.160000e-06	-3.045028e-06	-9.254369e-10	-2.114973e+01	-6.388964e+01
1.170000e-06	-3.005792e-06	-9.193765e-10	-2.087722e+01	-6.373687e+01
1.180000e-06	-2.966452e-06	-9.120723e-10	-2.060397e+01	-6.358003e+01
1.190000e-06	-2.926952e-06	-9.113999e-10	-2.032962e+01	-6.341883e+01
1.200000e-06	-2.887311e-06	-9.135327e-10	-2.005429e+01	-6.325297e+01
1.210000e-06	-2.847563e-06	-9.167546e-10	-1.977821e+01	-6.308219e+01
1.220000e-06	-2.807703e-06	-9.145222e-10	-1.950136e+01	-6.290628e+01
1.230000e-06	-2.767666e-06	-9.129023e-10	-1.922327e+01	-6.272504e+01
1.240000e-06	-2.727383e-06	-9.087616e-10	-1.894348e+01	-6.253830e+01
1.250000e-06	-2.686873e-06	-9.035624e-10	-1.866211e+01	-6.234593e+01
1.260000e-06	-2.646176e-06	-8.984958e-10	-1.837945e+01	-6.214784e+01
1.270000e-06	-2.605309e-06	-8.957369e-10	-1.809560e+01	-6.194394e+01
1.280000e-06	-2.564208e-06	-8.912347e-10	-1.781012e+01	-6.173418e+01
1.290000e-06	-2.522751e-06	-8.829116e-10	-1.752217e+01	-6.151854e+01
1.300000e-06	-2.481014e-06	-8.758547e-10	-1.723229e+01	-6.129699e+01
1.310000e-06	-2.439030e-06	-8.715721e-10	-1.694068e+01	-6.106955e+01
1.320000e-06	-2.396723e-06	-8.660841e-10	-1.664683e+01	-6.083621e+01
1.330000e-06	-2.354103e-06	-8.599332e-10	-1.635080e+01	-6.059699e+01
1.340000e-06	-2.311204e-06	-8.569176e-10	-1.605284e+01	-6.035189e+01
1.350000e-06	-2.268079e-06	-8.548808e-10	-1.575331e+01	-6.010093e+01
1.360000e-06	-2.224743e-06	-8.538693e-10	-1.545232e+01	-5.984408e+01
1.370000e-06	-2.181256e-06	-8.519297e-10	-1.515027e+01	-5.958134e+01
1.380000e-06	-2.137697e-06	-8.491587e-10	-1.484772e+01	-5.931266e+01
1.390000e-06	-2.094041e-06	-8.409675e-10	-1.454450e+01	-5.903797e+01
1.400000e-06	-2.050296e-06	-8.313195e-10	-1.424067e+01	-5.875716e+01
1.410000e-06	-2.006483e-06	-8.241761e-10	-1.393635e+01	-5.847010e+01
1.420000e-06	-1.962590e-06	-8.196252e-10	-1.363149e+01	-5.817663e+01
1.430000e-06	-1.918579e-06	-8.138828e-10	-1.332580e+01	-5.787653e+01
1.440000e-06	-1.874423e-06	-8.107578e-10	-1.301911e+01	-5.756955e+01
1.450000e-06	-1.830215e-06	-8.062094e-10	-1.271205e+01	-5.725538e+01
1.460000e-06	-1.785955e-06	-8.018418e-10	-1.240464e+01	-5.693368e+01
1.470000e-06	-1.741555e-06	-7.955861e-10	-1.209625e+01	-5.660405e+01
1.480000e-06	-1.696901e-06	-7.872426e-10	-1.178610e+01	-5.626605e+01
1.490000e-06	-1.652101e-06	-7.764049e-10	-1.147493e+01	-5.591919e+01
1.500000e-06	-1.607238e-06	-7.658965e-10	-1.116333e+01	-5.556291e+01
1.510000e-06	-1.562203e-06	-7.573265e-10	-1.085053e+01	-5.519664e+01
1.520000e-06	-1.517078e-06	-7.516199e-10	-1.053711e+01	-5.481974e+01
1.530000e-06	-1.471888e-06	-7.456209e-10	-1.022324e+01	-5.443153e+01
1.540000e-06	-1.426606e-06	-7.399737e-10	-9.908721e+00	-5.403129e+01
1.550000e-06	-1.381288e-06	-7.331691e-10	-9.593958e+00	-5.361827e+01
1.560000e-06	-1.335842e-06	-7.250418e-10	-9.278305e+00	-5.319168e+01
1.570000e-06	-1.290234e-06	-7.154540e-10	-8.961531e+00	-5.275070e+01
1.580000e-06	-1.244569e-06	-7.079299e-10	-8.644353e+00	-5.229448e+01
1.590000e-06	-1.198858e-06	-6.996160e-10	-8.326862e+00	-5.182215e+01
1.600000e-06	-1.153073e-06	-6.902846e-10	-8.008856e+00	-5.133283e+01
1.610000e-06	-1.107170e-06	-6.835510e-10	-7.690029e+00	-5.082562e+01
1.620000e-06	-1.061096e-06	-6.787282e-10	-7.370013e+00	-5.029961e+01
1.630000e-06	-1.014913e-06	-6.749073e-10	-7.049241e+00	-4.975387e+01
1.640000e-06	-9.687456e-07	-6.710131e-10	-6.728580e+00	-4.918751e+01
1.650000e-06	-9.225792e-07	-6.646946e-10	-6.407924e+00	-4.859960e+01
1.660000e-06	-8.763545e-07	-6.538747e-10	-6.086862e+00	-4.798925e+01
1.670000e-06	-8.301008e-07	-6.422236e-10	-5.765600e+00	-4.735557e+01
1.680000e-06	-7.837591e-07	-6.285678e-10	-5.443726e+00	-4.669767e+01
1.690000e-06	-7.372925e-07	-6.153296e-10	-5.120985e+00	-4.601471e+01
1.700000e-06	-6.907726e-07	-6.035980e-10	-4.797873e+00	-4.530585e+01
1.710000e-06	-6.442375e-07	-5.928887e-10	-4.474656e+00	-4.457028e+01
1.720000e-06	-5.976461e-07	-5.853806e-10	-4.151048e+00	-4.380723e+01
1.730000e-06	-5.509481e-07	-5.763844e-10	-3.826700e+00	-4.301594e+01
1.740000e-06	-5.042273e-07	-5.623726e-10	-3.502193e+00	-4.219571e+01
1.750000e-06	-4.575463e-07	-5.439591e-10	-3.177962e+00	-4.134585e+01
1.760000e-06	-4.108774e-07	-5.255059e-10	-2.853816e+00	-4.046574e+01
1.770000e-06	-3.641379e-07	-5.090818e-10	-2.529179e+00	-3.955477e+01
1.780000e-06	-3.173489e-07	-4.947108e-10	-2.204198e+00	-3.861239e+01
1.790000e-06	-2.704977e-07	-4.842688e-10	-1.878786e+00	-3.763811e+01
1.800000e-06	-2.235546e-07	-4.720714e-10	-1.552734e+00	-3.663147e+01
1.810000e-06	-1.766277e-07	-4.591526e-10	-1.226797e+00	-3.559207e+01
1.820000e-06	-1.297158e-07	-4.434453e-10	-9.009619e-01	-3.451956e+01
1.830000e-06	-8.283312e-08	-4.269394e-10	-5.753309e-01	-3.341365e+01
1.840000e-06	-3.600680e-08	-4.111027e-10	-2.500910e-01	-3.227413e+01
1.850000e-06	1.087889e-08	-3.965298e-10	7.556112e-02	-3.110084e+01
1.860000e-06	5.783267e-08	-3.832780e-10	4.016862e-01	-2.989368e+01
1.870000e-06	1.046904e-07	-3.696294e-10	7.271443e-01	-2.865265e+01
1.880000e-06	1.515038e-07	-3.527894e-10	1.052294e+00	-2.737781e+01
1.890000e-06	1.983447e-07	-3.329759e-10	1.377636e+00	-2.606932e+01
1.900000e-06	2.450918e-07	-3.114181e-10	1.702325e+00	-2.472740e+01
1.910000e-06	2.917764e-07	-2.909478e-10	2.026580e+00	-2.335240e+01
1.920000e-06	3.384904e-07	-2.713609e-10	2.351040e+00	-2.194475e+01
1.930000e-06	3.851984e-07	-2.520699e-10	2.675458e+00	-2.050498e+01
1.940000e-06	4.318437e-07	-2.333000e-10	2.999441e+00	-1.903373e+01
1.950000e-06	4.784377e-07	-2.148088e-10	3.323066e+00	-1.753175e+01
1.960000e-06	5.250978e-07	-1.941764e-10	3.647152e+00	-1.599993e+01
1.970000e-06	5.717711e-07	-1.716074e-10	3.971329e+00	-1.443924e+01
1.980000e-06	6.182868e-07	-1.486477e-10	4.294411e+00	-1.285080e+01
1.990000e-06	6.646700e-07	-1.263169e-10	4.616573e+00	-1.123585e+01
2.000000e-06	7.109857e-07	-1.036065e-10	4.938266e+00	-9.595751e+00
2.010000e-06	7.573035e-07	-7.853970e-11	5.259974e+00	-7.931995e+00
2.020000e-06	8.037072e-07	-5.401746e-11	5.582279e+00	-6.246196e+00
2.030000e-06	8.500743e-07	-3.173280e-11	5.904329e+00	-4.540093e+00
2.040000e-06	8.963228e-07	-1.110373e-11	6.225556e+00	-2.815542e+00
2.050000e-06	9.425228e-07	1.096339e-11	6.546445e+00	-1.074518e+00
2.060000e-06	9.886749e-07	3.468630e-11	6.867002e+00	6.808977e-01
2.070000e-06	1.034751e-06	5.879093e-11	7.187034e+00	2.448521e+00
2.080000e-06	1.080731e-06	8.382938e-11	7.506391e+00	4.226074e+00
2.090000e-06	1.126646e-06	1.109814e-10	7.825300e+00	6.011198e+00
2.100000e-06	1.172497e-06	1.388866e-10	8.143768e+00	7.801460e+00
2.110000e-06	1.218295e-06	1.672558e-10	8.461867e+00	9.594370e+00
2.120000e-06	1.263984e-06	1.940184e-10	8.779207e+00	1.138739e+01
2.130000e-06	1.309598e-06	2.194953e-10	9.096022e+00	1.317796e+01
2.140000e-06	1.355125e-06	2.403825e-10	9.412238e+00	1.496350e+01
2.150000e-06	1.400488e-06	2.582431e-10	9.727318e+00	1.674143e+01
2.160000e-06	1.445758e-06	2.790586e-10	1.004174e+01	1.850919e+01
2.170000e-06	1.490898e-06	3.042991e-10	1.035527e+01	2.026425e+01
2.180000e-06	1.535928e-06	3.327610e-10	1.066804e+01	2.200414e+01
2.190000e-06	1.580904e-06	3.604993e-10	1.098042e+01	2.372646e+01
2.200000e-06	1.625726e-06	3.842584e-10	1.129174e+01	2.542890e+01
2.210000e-06	1.670388e-06	4.051218e-10	1.160195e+01	2.710923e+01
2.220000e-06	1.714872e-06	4.238606e-10	1.191092e+01	2.876536e+01
2.230000e-06	1.759199e-06	4.422123e-10	1.221880e+01	3.039533e+01
2.240000e-06	1.803455e-06	4.619672e-10	1.252619e+01	3.199730e+01
2.250000e-06	1.847621e-06	4.832948e-10	1.283295e+01	3.356961e+01
2.260000e-06	1.891651e-06	5.058493e-10	1.313877e+01	3.511075e+01
2.270000e-06	1.935591e-06	5.279267e-10	1.344396e+01	3.661938e+01
2.280000e-06	1.979517e-06	5.486993e-10	1.374905e+01	3.809434e+01
2.290000e-06	2.023402e-06	5.668333e-10	1.405386e+01	3.953465e+01
2.300000e-06	2.067220e-06	5.828184e-10	1.435821e+01	4.093951e+01
2.310000e-06	2.110979e-06	5.989128e-10	1.466215e+01	4.230830e+01
2.320000e-06	2.154685e-06	6.168306e-10	1.496571e+01	4.364057e+01
2.330000e-06	2.198187e-06	6.365260e-10	1.526786e+01	4.493606e+01
2.340000e-06	2.241551e-06	6.563088e-10	1.556906e+01	4.619465e+01
2.350000e-06	2.284767e-06	6.756312e-10	1.586922e+01	4.741641e+01
2.360000e-06	2.327764e-06	6.941595e-10	1.616786e+01	4.860151e+01
2.370000e-06	2.370567e-06	7.096558e-10	1.646516e+01	4.975031e+01
2.380000e-06	2.412993e-06	7.226180e-10	1.675983e+01	5.086324e+01
2.390000e-06	2.455041e-06	7.346673e-10	1.705188e+01	5.194086e+01
2.400000e-06	2.496797e-06	7.484220e-10	1.734191e+01	5.298383e+01
2.410000e-06	2.538328e-06	7.637052e-10	1.763037e+01	5.399286e+01
2.420000e-06	2.579607e-06	7.785676e-10	1.791708e+01	5.496875e+01
2.430000e-06	2.620494e-06	7.915980e-10	1.820107e+01	5.591233e+01
2.440000e-06	2.661046e-06	8.038513e-10	1.848272e+01	5.682445e+01
2.450000e-06	2.701412e-06	8.148007e-10	1.876309e+01	5.770598e+01
2.460000e-06	2.741620e-06	8.238555e-10	1.904237e+01	5.855782e+01
2.470000e-06	2.781743e-06	8.341832e-10	1.932104e+01	5.938080e+01
2.480000e-06	2.821758e-06	8.451148e-10	1.959898e+01	6.017578e+01
2.490000e-06	2.861603e-06	8.547897e-10	1.987573e+01	6.094356e+01
2.500000e-06	2.901313e-06	8.647003e-10	2.015154e+01	6.168489e+01
2.510000e-06	2.940866e-06	8.742466e-10	2.042626e+01	6.240050e+01
2.520000e-06	2.980290e-06	8.832680e-10	2.070009e+01	6.309105e+01
2.530000e-06	3.019597e-06	8.916591e-10	2.097310e+01	6.375713e+01
2.540000e-06	3.058711e-06	8.981030e-10	2.124477e+01	6.439930e+01
2.550000e-06	3.097607e-06	9.038420e-10	2.151493e+01	6.501804e+01
2.560000e-06	3.136214e-06	9.088550e-10	2.178308e+01	6.561380e+01
2.570000e-06	3.174571e-06	9.154419e-10	2.204950e+01	6.618696e+01
2.580000e-06	3.212721e-06	9.258538e-10	2.231447e+01	6.673786e+01
2.590000e-06	3.250635e-06	9.376506e-10	2.257781e+01	6.726682e+01
2.600000e-06	3.288311e-06	9.468522e-10	2.283950e+01	6.777411e+01
2.610000e-06	3.325796e-06	9.531870e-10	2.309985e+01	6.825999e+01
2.620000e-06	3.363129e-06	9.605156e-10	2.335916e+01	6.872471e+01
2.630000e-06	3.400270e-06	9.677663e-10	2.361713e+01	6.916853e+01
2.640000e-06	3.437161e-06	9.740976e-10	2.387336e+01	6.959169e+01
2.650000e-06	3.473692e-06	9.808226e-10	2.412709e+01	6.999448e+01
2.660000e-06	3.509915e-06	9.867160e-10	2.437869e+01	7.037720e+01
2.670000e-06	3.545943e-06	9.927604e-10	2.462892e+01	7.074020e+01
2.680000e-06	3.581836e-06	1.000335e-09	2.487822e+01	7.108387e+01
2.690000e-06	3.617630e-06	1.007447e-09	2.512684e+01	7.140865e+01
2.700000e-06	3.653316e-06	1.011656e-09	2.537470e+01	7.171502e+01
2.710000e-06	3.688822e-06	1.014631e-09	2.562131e+01	7.200356e+01
2.720000e-06	3.724155e-06	1.018160e-09	2.586673e+01	7.227486e+01
2.730000e-06	3.759288e-06	1.023653e-09	2.611075e+01	7.252961e+01
2.740000e-06	3.794055e-06	1.029400e-09	2.635222e+01	7.276854e+01
2.750000e-06	3.828275e-06	1.034873e-09	2.658990e+01	7.299244e+01
2.760000e-06	3.861917e-06	1.037246e-09	2.682357e+01	7.320216e+01
2.770000e-06	3.895127e-06	1.037886e-09	2.705424e+01	7.339857e+01
2.780000e-06	3.927950e-06	1.039801e-09	2.728222e+01	7.358260e+01
2.790000e-06	3.960327e-06	1.045363e-09	2.750710e+01	7.375520e+01
2.800000e-06	3.992421e-06	1.054061e-09	2.773001e+01	7.391734e+01
2.810000e-06	4.024376e-06	1.060822e-09	2.795196e+01	7.406998e+01
2.820000e-06	4.056142e-06	1.065910e-09	2.817259e+01	7.421408e+01
2.830000e-06	4.087775e-06	1.068761e-09	2.839231e+01	7.435060e+01
2.840000e-06	4.119212e-06	1.069932e-09	2.861065e+01	7.448045e+01
2.850000e-06	4.150369e-06	1.069552e-09	2.882706e+01	7.460448e+01
2.860000e-06	4.181237e-06	1.067367e-09	2.904146e+01	7.472353e+01
2.870000e-06	4.211718e-06	1.066951e-09	2.925317e+01	7.483835e+01
2.880000e-06	4.241820e-06	1.070034e-09	2.946225e+01	7.494960e+01
2.890000e-06	4.271673e-06	1.073697e-09	2.966960e+01	7.505789e+01
2.900000e-06	4.301279e-06	1.076892e-09	2.987523e+01	7.516371e+01
