# Temperatura_=_-11.4
# Concentracion g/m^3_=_1620.0
# C_Vs_to_Am_M_A/Vsm_=_65563218390.804596
# pendiente_HvsI_1/m_=_3716.3
# ordenada_HvsI_A/m_=_1297.0
# frecuencia_Hz_=_135105.63380466128

Tiempo_(s)	Campo_(V.s)	Magnetizacion_(V.s)	Campo_(kA/m)	Magnetizacion_(A/m)
0.000000e+00	-5.556210e-06	-1.098502e-09	-3.836394e+01	-7.315386e+01
1.000000e-08	-5.556439e-06	-1.097080e-09	-3.836552e+01	-7.312067e+01
2.000000e-08	-5.556415e-06	-1.097814e-09	-3.836535e+01	-7.309170e+01
3.000000e-08	-5.555995e-06	-1.100941e-09	-3.836245e+01	-7.306677e+01
4.000000e-08	-5.555025e-06	-1.104880e-09	-3.835576e+01	-7.304558e+01
5.000000e-08	-5.553379e-06	-1.104306e-09	-3.834439e+01	-7.302773e+01
6.000000e-08	-5.551134e-06	-1.094675e-09	-3.832889e+01	-7.301274e+01
7.000000e-08	-5.548335e-06	-1.066657e-09	-3.830957e+01	-7.300006e+01
8.000000e-08	-5.544992e-06	-1.068132e-09	-3.828649e+01	-7.298905e+01
9.000000e-08	-5.541218e-06	-1.171890e-09	-3.826043e+01	-7.297900e+01
1.000000e-07	-5.537017e-06	-1.251412e-09	-3.823142e+01	-7.296918e+01
1.100000e-07	-5.532460e-06	-1.081271e-09	-3.819995e+01	-7.295879e+01
1.200000e-07	-5.527774e-06	-9.436022e-10	-3.816760e+01	-7.294705e+01
1.300000e-07	-5.522931e-06	-1.024736e-09	-3.813416e+01	-7.293313e+01
1.400000e-07	-5.517667e-06	-1.215095e-09	-3.809782e+01	-7.291623e+01
1.500000e-07	-5.511929e-06	-1.142905e-09	-3.805819e+01	-7.289560e+01
1.600000e-07	-5.505875e-06	-9.662750e-10	-3.801639e+01	-7.287048e+01
1.700000e-07	-5.499463e-06	-1.039859e-09	-3.797212e+01	-7.284020e+01
1.800000e-07	-5.492477e-06	-1.202223e-09	-3.792389e+01	-7.280416e+01
1.900000e-07	-5.485083e-06	-1.168508e-09	-3.787283e+01	-7.276182e+01
2.000000e-07	-5.477533e-06	-9.981653e-10	-3.782070e+01	-7.271276e+01
2.100000e-07	-5.469778e-06	-1.024653e-09	-3.776715e+01	-7.265664e+01
2.200000e-07	-5.461688e-06	-1.130123e-09	-3.771130e+01	-7.259324e+01
2.300000e-07	-5.453318e-06	-1.143284e-09	-3.765351e+01	-7.252245e+01
2.400000e-07	-5.444448e-06	-1.035902e-09	-3.759226e+01	-7.244429e+01
2.500000e-07	-5.434726e-06	-1.035129e-09	-3.752513e+01	-7.235888e+01
2.600000e-07	-5.424277e-06	-1.088692e-09	-3.745298e+01	-7.226648e+01
2.700000e-07	-5.413294e-06	-1.108168e-09	-3.737715e+01	-7.216743e+01
2.800000e-07	-5.401875e-06	-1.046170e-09	-3.729830e+01	-7.206222e+01
2.900000e-07	-5.390069e-06	-1.047659e-09	-3.721678e+01	-7.195141e+01
3.000000e-07	-5.377949e-06	-1.100806e-09	-3.713311e+01	-7.183565e+01
3.100000e-07	-5.365529e-06	-1.112244e-09	-3.704735e+01	-7.171569e+01
3.200000e-07	-5.352639e-06	-1.042001e-09	-3.695835e+01	-7.159233e+01
3.300000e-07	-5.339285e-06	-1.036764e-09	-3.686614e+01	-7.146642e+01
3.400000e-07	-5.325596e-06	-1.118300e-09	-3.677162e+01	-7.133884e+01
3.500000e-07	-5.311531e-06	-1.112465e-09	-3.667450e+01	-7.121051e+01
3.600000e-07	-5.296874e-06	-1.035518e-09	-3.657331e+01	-7.108232e+01
3.700000e-07	-5.281768e-06	-1.072304e-09	-3.646900e+01	-7.095519e+01
3.800000e-07	-5.266228e-06	-1.122141e-09	-3.636170e+01	-7.082997e+01
3.900000e-07	-5.250027e-06	-1.032400e-09	-3.624984e+01	-7.070749e+01
4.000000e-07	-5.233382e-06	-1.024346e-09	-3.613491e+01	-7.058852e+01
4.100000e-07	-5.216541e-06	-1.138564e-09	-3.601863e+01	-7.047374e+01
4.200000e-07	-5.199381e-06	-1.094800e-09	-3.590014e+01	-7.036376e+01
4.300000e-07	-5.181801e-06	-9.742354e-10	-3.577876e+01	-7.025911e+01
4.400000e-07	-5.163946e-06	-1.094299e-09	-3.565548e+01	-7.016019e+01
4.500000e-07	-5.145753e-06	-1.160757e-09	-3.552986e+01	-7.006732e+01
4.600000e-07	-5.127011e-06	-1.010121e-09	-3.540046e+01	-6.998068e+01
4.700000e-07	-5.107793e-06	-9.989555e-10	-3.526776e+01	-6.990037e+01
4.800000e-07	-5.088343e-06	-1.142320e-09	-3.513346e+01	-6.982634e+01
4.900000e-07	-5.068719e-06	-1.054604e-09	-3.499796e+01	-6.975847e+01
5.000000e-07	-5.048928e-06	-9.820283e-10	-3.486131e+01	-6.969651e+01
5.100000e-07	-5.028920e-06	-1.108881e-09	-3.472316e+01	-6.964010e+01
5.200000e-07	-5.008544e-06	-1.101045e-09	-3.458247e+01	-6.958882e+01
5.300000e-07	-4.987686e-06	-9.750471e-10	-3.443846e+01	-6.954215e+01
5.400000e-07	-4.966450e-06	-1.079376e-09	-3.429183e+01	-6.949949e+01
5.500000e-07	-4.944905e-06	-1.145031e-09	-3.414307e+01	-6.946021e+01
5.600000e-07	-4.922985e-06	-1.008841e-09	-3.399172e+01	-6.942361e+01
5.700000e-07	-4.900777e-06	-1.006588e-09	-3.383838e+01	-6.938897e+01
5.800000e-07	-4.878252e-06	-1.117153e-09	-3.368285e+01	-6.935555e+01
5.900000e-07	-4.855308e-06	-1.045604e-09	-3.352442e+01	-6.932260e+01
6.000000e-07	-4.832040e-06	-9.984018e-10	-3.336377e+01	-6.928941e+01
6.100000e-07	-4.808544e-06	-1.087086e-09	-3.320154e+01	-6.925525e+01
6.200000e-07	-4.784894e-06	-1.072008e-09	-3.303824e+01	-6.921945e+01
6.300000e-07	-4.761066e-06	-1.008090e-09	-3.287371e+01	-6.918138e+01
6.400000e-07	-4.736957e-06	-1.060563e-09	-3.270725e+01	-6.914047e+01
6.500000e-07	-4.712356e-06	-1.073378e-09	-3.253739e+01	-6.909622e+01
6.600000e-07	-4.687116e-06	-1.018780e-09	-3.236311e+01	-6.904818e+01
6.700000e-07	-4.661315e-06	-1.046572e-09	-3.218496e+01	-6.899601e+01
6.800000e-07	-4.634960e-06	-1.069437e-09	-3.200299e+01	-6.893941e+01
6.900000e-07	-4.608089e-06	-1.028707e-09	-3.181746e+01	-6.887819e+01
7.000000e-07	-4.580867e-06	-1.032023e-09	-3.162949e+01	-6.881224e+01
7.100000e-07	-4.553422e-06	-1.059249e-09	-3.144000e+01	-6.874153e+01
7.200000e-07	-4.525829e-06	-1.031915e-09	-3.124948e+01	-6.866608e+01
7.300000e-07	-4.498093e-06	-1.029245e-09	-3.105796e+01	-6.858603e+01
7.400000e-07	-4.470120e-06	-1.049890e-09	-3.086482e+01	-6.850154e+01
7.500000e-07	-4.441849e-06	-1.039095e-09	-3.066962e+01	-6.841285e+01
7.600000e-07	-4.413207e-06	-1.026517e-09	-3.047185e+01	-6.832026e+01
7.700000e-07	-4.384215e-06	-1.040885e-09	-3.027167e+01	-6.822409e+01
7.800000e-07	-4.354952e-06	-1.024227e-09	-3.006962e+01	-6.812470e+01
7.900000e-07	-4.325437e-06	-1.010791e-09	-2.986583e+01	-6.802248e+01
8.000000e-07	-4.295689e-06	-1.026568e-09	-2.966043e+01	-6.791782e+01
8.100000e-07	-4.265657e-06	-1.027475e-09	-2.945306e+01	-6.781110e+01
8.200000e-07	-4.235195e-06	-1.002101e-09	-2.924274e+01	-6.770273e+01
8.300000e-07	-4.204325e-06	-1.010923e-09	-2.902959e+01	-6.759307e+01
8.400000e-07	-4.173244e-06	-1.025060e-09	-2.881498e+01	-6.748246e+01
8.500000e-07	-4.142037e-06	-1.011569e-09	-2.859951e+01	-6.737121e+01
8.600000e-07	-4.110663e-06	-1.002664e-09	-2.838288e+01	-6.725961e+01
8.700000e-07	-4.079046e-06	-1.012023e-09	-2.816457e+01	-6.714788e+01
8.800000e-07	-4.047265e-06	-9.967202e-10	-2.794514e+01	-6.703619e+01
8.900000e-07	-4.015288e-06	-9.811441e-10	-2.772435e+01	-6.692470e+01
9.000000e-07	-3.982964e-06	-9.910256e-10	-2.750116e+01	-6.681347e+01
9.100000e-07	-3.950285e-06	-9.913493e-10	-2.727552e+01	-6.670253e+01
9.200000e-07	-3.917137e-06	-9.767348e-10	-2.704664e+01	-6.659188e+01
9.300000e-07	-3.883433e-06	-9.857649e-10	-2.681393e+01	-6.648143e+01
9.400000e-07	-3.849256e-06	-9.986763e-10	-2.657794e+01	-6.637109e+01
9.500000e-07	-3.814657e-06	-9.842004e-10	-2.633905e+01	-6.626069e+01
9.600000e-07	-3.779677e-06	-9.774779e-10	-2.609752e+01	-6.615006e+01
9.700000e-07	-3.744387e-06	-9.862036e-10	-2.585385e+01	-6.603899e+01
9.800000e-07	-3.708878e-06	-9.771785e-10	-2.560867e+01	-6.592725e+01
9.900000e-07	-3.673276e-06	-9.601394e-10	-2.536285e+01	-6.581459e+01
1.000000e-06	-3.637595e-06	-9.664801e-10	-2.511649e+01	-6.570076e+01
1.010000e-06	-3.601769e-06	-9.705845e-10	-2.486912e+01	-6.558551e+01
1.020000e-06	-3.565723e-06	-9.627051e-10	-2.462023e+01	-6.546859e+01
1.030000e-06	-3.529463e-06	-9.660095e-10	-2.436987e+01	-6.534977e+01
1.040000e-06	-3.492931e-06	-9.753839e-10	-2.411762e+01	-6.522885e+01
1.050000e-06	-3.456029e-06	-9.651777e-10	-2.386283e+01	-6.510561e+01
1.060000e-06	-3.418836e-06	-9.575744e-10	-2.360602e+01	-6.497992e+01
1.070000e-06	-3.381407e-06	-9.589259e-10	-2.334759e+01	-6.485163e+01
1.080000e-06	-3.343760e-06	-9.525113e-10	-2.308765e+01	-6.472066e+01
1.090000e-06	-3.305911e-06	-9.422157e-10	-2.282631e+01	-6.458693e+01
1.100000e-06	-3.267886e-06	-9.465042e-10	-2.256376e+01	-6.445042e+01
1.110000e-06	-3.229600e-06	-9.468767e-10	-2.229941e+01	-6.431114e+01
1.120000e-06	-3.191027e-06	-9.398716e-10	-2.203307e+01	-6.416912e+01
1.130000e-06	-3.152272e-06	-9.390322e-10	-2.176548e+01	-6.402444e+01
1.140000e-06	-3.113337e-06	-9.436398e-10	-2.149665e+01	-6.387718e+01
1.150000e-06	-3.074143e-06	-9.405831e-10	-2.122602e+01	-6.372746e+01
1.160000e-06	-3.034784e-06	-9.355891e-10	-2.095426e+01	-6.357541e+01
1.170000e-06	-2.995365e-06	-9.324391e-10	-2.068208e+01	-6.342115e+01
1.180000e-06	-2.955847e-06	-9.292659e-10	-2.040923e+01	-6.326482e+01
1.190000e-06	-2.916192e-06	-9.256518e-10	-2.013542e+01	-6.310656e+01
1.200000e-06	-2.876388e-06	-9.252373e-10	-1.986058e+01	-6.294648e+01
1.210000e-06	-2.836487e-06	-9.243934e-10	-1.958508e+01	-6.278468e+01
1.220000e-06	-2.796351e-06	-9.212941e-10	-1.930796e+01	-6.262124e+01
1.230000e-06	-2.755881e-06	-9.218903e-10	-1.902852e+01	-6.245620e+01
1.240000e-06	-2.715162e-06	-9.218611e-10	-1.874737e+01	-6.228956e+01
1.250000e-06	-2.674257e-06	-9.179387e-10	-1.846493e+01	-6.212128e+01
1.260000e-06	-2.633130e-06	-9.134026e-10	-1.818096e+01	-6.195127e+01
1.270000e-06	-2.591590e-06	-9.100845e-10	-1.789414e+01	-6.177940e+01
1.280000e-06	-2.549627e-06	-9.036579e-10	-1.760440e+01	-6.160547e+01
1.290000e-06	-2.507330e-06	-8.952630e-10	-1.731235e+01	-6.142923e+01
1.300000e-06	-2.464788e-06	-8.904863e-10	-1.701861e+01	-6.125037e+01
1.310000e-06	-2.422058e-06	-8.889671e-10	-1.672357e+01	-6.106853e+01
1.320000e-06	-2.379054e-06	-8.871962e-10	-1.642665e+01	-6.088329e+01
1.330000e-06	-2.335852e-06	-8.862405e-10	-1.612835e+01	-6.069418e+01
1.340000e-06	-2.292532e-06	-8.857006e-10	-1.582924e+01	-6.050068e+01
1.350000e-06	-2.249087e-06	-8.847360e-10	-1.552926e+01	-6.030223e+01
1.360000e-06	-2.205554e-06	-8.818702e-10	-1.522868e+01	-6.009820e+01
1.370000e-06	-2.161954e-06	-8.770397e-10	-1.492764e+01	-5.988798e+01
1.380000e-06	-2.118255e-06	-8.700869e-10	-1.462591e+01	-5.967087e+01
1.390000e-06	-2.074440e-06	-8.656261e-10	-1.432338e+01	-5.944620e+01
1.400000e-06	-2.030556e-06	-8.626996e-10	-1.402037e+01	-5.921325e+01
1.410000e-06	-1.986586e-06	-8.603978e-10	-1.371677e+01	-5.897130e+01
1.420000e-06	-1.942546e-06	-8.548972e-10	-1.341269e+01	-5.871965e+01
1.430000e-06	-1.898374e-06	-8.514542e-10	-1.310770e+01	-5.845756e+01
1.440000e-06	-1.853933e-06	-8.486535e-10	-1.280084e+01	-5.818436e+01
1.450000e-06	-1.809328e-06	-8.456007e-10	-1.249286e+01	-5.789934e+01
1.460000e-06	-1.764602e-06	-8.400857e-10	-1.218404e+01	-5.760185e+01
1.470000e-06	-1.719768e-06	-8.324907e-10	-1.187447e+01	-5.729125e+01
1.480000e-06	-1.674786e-06	-8.229325e-10	-1.156389e+01	-5.696693e+01
1.490000e-06	-1.629621e-06	-8.102191e-10	-1.125204e+01	-5.662834e+01
1.500000e-06	-1.584323e-06	-7.958331e-10	-1.093927e+01	-5.627492e+01
1.510000e-06	-1.538915e-06	-7.873596e-10	-1.062574e+01	-5.590618e+01
1.520000e-06	-1.493490e-06	-7.829356e-10	-1.031209e+01	-5.552166e+01
1.530000e-06	-1.447995e-06	-7.790653e-10	-9.997964e+00	-5.512092e+01
1.540000e-06	-1.402367e-06	-7.759780e-10	-9.682919e+00	-5.470357e+01
1.550000e-06	-1.356670e-06	-7.708145e-10	-9.367393e+00	-5.426923e+01
1.560000e-06	-1.310911e-06	-7.627931e-10	-9.051444e+00	-5.381758e+01
1.570000e-06	-1.265059e-06	-7.523024e-10	-8.734845e+00	-5.334828e+01
1.580000e-06	-1.219065e-06	-7.420055e-10	-8.417272e+00	-5.286103e+01
1.590000e-06	-1.173012e-06	-7.299891e-10	-8.099294e+00	-5.235552e+01
1.600000e-06	-1.126961e-06	-7.189749e-10	-7.781322e+00	-5.183148e+01
1.610000e-06	-1.080804e-06	-7.123748e-10	-7.462621e+00	-5.128859e+01
1.620000e-06	-1.034571e-06	-7.103612e-10	-7.143401e+00	-5.072656e+01
1.630000e-06	-9.882672e-07	-7.077460e-10	-6.823685e+00	-5.014505e+01
1.640000e-06	-9.418161e-07	-7.020647e-10	-6.502954e+00	-4.954373e+01
1.650000e-06	-8.952118e-07	-6.917632e-10	-6.181165e+00	-4.892220e+01
1.660000e-06	-8.484714e-07	-6.769339e-10	-5.858437e+00	-4.828008e+01
1.670000e-06	-8.016844e-07	-6.592871e-10	-5.535387e+00	-4.761690e+01
1.680000e-06	-7.548939e-07	-6.425130e-10	-5.212313e+00	-4.693217e+01
1.690000e-06	-7.080502e-07	-6.280757e-10	-4.888871e+00	-4.622537e+01
1.700000e-06	-6.611177e-07	-6.166359e-10	-4.564817e+00	-4.549590e+01
1.710000e-06	-6.141217e-07	-6.082426e-10	-4.240324e+00	-4.474315e+01
1.720000e-06	-5.671984e-07	-6.011913e-10	-3.916332e+00	-4.396643e+01
1.730000e-06	-5.202500e-07	-5.909448e-10	-3.592168e+00	-4.316502e+01
1.740000e-06	-4.732255e-07	-5.781809e-10	-3.267478e+00	-4.233817e+01
1.750000e-06	-4.261562e-07	-5.627918e-10	-2.942479e+00	-4.148509e+01
1.760000e-06	-3.790504e-07	-5.446337e-10	-2.617228e+00	-4.060495e+01
1.770000e-06	-3.320109e-07	-5.285433e-10	-2.292435e+00	-3.969691e+01
1.780000e-06	-2.849828e-07	-5.147118e-10	-1.967719e+00	-3.876011e+01
1.790000e-06	-2.378480e-07	-4.998445e-10	-1.642268e+00	-3.779369e+01
1.800000e-06	-1.906266e-07	-4.862860e-10	-1.316219e+00	-3.679680e+01
1.810000e-06	-1.434547e-07	-4.743791e-10	-9.905109e-01	-3.576863e+01
1.820000e-06	-9.636456e-08	-4.611898e-10	-6.653680e-01	-3.470837e+01
1.830000e-06	-4.928589e-08	-4.458510e-10	-3.403041e-01	-3.361528e+01
1.840000e-06	-2.193360e-09	-4.308365e-10	-1.514449e-02	-3.248867e+01
1.850000e-06	4.486944e-08	-4.155822e-10	3.098099e-01	-3.132793e+01
1.860000e-06	9.194290e-08	-3.973557e-10	6.348378e-01	-3.013255e+01
1.870000e-06	1.390685e-07	-3.758911e-10	9.602256e-01	-2.890210e+01
1.880000e-06	1.861290e-07	-3.553640e-10	1.285164e+00	-2.763629e+01
1.890000e-06	2.332028e-07	-3.364938e-10	1.610195e+00	-2.633494e+01
1.900000e-06	2.803434e-07	-3.178664e-10	1.935686e+00	-2.499803e+01
1.910000e-06	3.274140e-07	-3.005494e-10	2.260694e+00	-2.362567e+01
1.920000e-06	3.745157e-07	-2.828388e-10	2.585917e+00	-2.221815e+01
1.930000e-06	4.215859e-07	-2.637388e-10	2.910922e+00	-2.077593e+01
1.940000e-06	4.685119e-07	-2.418462e-10	3.234932e+00	-1.929964e+01
1.950000e-06	5.153932e-07	-2.183101e-10	3.558634e+00	-1.779009e+01
1.960000e-06	5.622293e-07	-1.968085e-10	3.882023e+00	-1.624827e+01
1.970000e-06	6.090368e-07	-1.766230e-10	4.205214e+00	-1.467537e+01
1.980000e-06	6.558554e-07	-1.560977e-10	4.528482e+00	-1.307276e+01
1.990000e-06	7.025768e-07	-1.328797e-10	4.851079e+00	-1.144199e+01
2.000000e-06	7.492414e-07	-1.066480e-10	5.173284e+00	-9.784783e+00
2.010000e-06	7.959089e-07	-8.267541e-11	5.495509e+00	-8.103036e+00
2.020000e-06	8.425566e-07	-5.998654e-11	5.817597e+00	-6.398807e+00
2.030000e-06	8.891398e-07	-3.754540e-11	6.139240e+00	-4.674301e+00
2.040000e-06	9.355650e-07	-1.642505e-11	6.459792e+00	-2.931864e+00
2.050000e-06	9.819231e-07	4.970944e-12	6.779881e+00	-1.173959e+00
2.060000e-06	1.028263e-06	2.954854e-11	7.099841e+00	5.968418e-01
2.070000e-06	1.074529e-06	5.751884e-11	7.419294e+00	2.377878e+00
2.080000e-06	1.120736e-06	8.564259e-11	7.738339e+00	4.166419e+00
2.090000e-06	1.166782e-06	1.139061e-10	8.056273e+00	5.959685e+00
2.100000e-06	1.212647e-06	1.392816e-10	8.372956e+00	7.754864e+00
2.110000e-06	1.258419e-06	1.614332e-10	8.688999e+00	9.549137e+00
2.120000e-06	1.304133e-06	1.832272e-10	9.004644e+00	1.133969e+01
2.130000e-06	1.349830e-06	2.068791e-10	9.320169e+00	1.312375e+01
2.140000e-06	1.395447e-06	2.299810e-10	9.635139e+00	1.489859e+01
2.150000e-06	1.440961e-06	2.530486e-10	9.949400e+00	1.666155e+01
2.160000e-06	1.486393e-06	2.780845e-10	1.026309e+01	1.841007e+01
2.170000e-06	1.531768e-06	3.011149e-10	1.057639e+01	2.014170e+01
2.180000e-06	1.577038e-06	3.254675e-10	1.088897e+01	2.185409e+01
2.190000e-06	1.622164e-06	3.523285e-10	1.120055e+01	2.354507e+01
2.200000e-06	1.667157e-06	3.790804e-10	1.151121e+01	2.521257e+01
2.210000e-06	1.712036e-06	4.040149e-10	1.182109e+01	2.685474e+01
2.220000e-06	1.756813e-06	4.258686e-10	1.213026e+01	2.846985e+01
2.230000e-06	1.801448e-06	4.452802e-10	1.243845e+01	3.005639e+01
2.240000e-06	1.845867e-06	4.630974e-10	1.274515e+01	3.161300e+01
2.250000e-06	1.890084e-06	4.798822e-10	1.305045e+01	3.313853e+01
2.260000e-06	1.934178e-06	4.973806e-10	1.335491e+01	3.463199e+01
2.270000e-06	1.978160e-06	5.183412e-10	1.365860e+01	3.609261e+01
2.280000e-06	2.022037e-06	5.441164e-10	1.396155e+01	3.751976e+01
2.290000e-06	2.065852e-06	5.675163e-10	1.426408e+01	3.891300e+01
2.300000e-06	2.109608e-06	5.850191e-10	1.456620e+01	4.027207e+01
2.310000e-06	2.153270e-06	5.982606e-10	1.486767e+01	4.159684e+01
2.320000e-06	2.196874e-06	6.105127e-10	1.516874e+01	4.288733e+01
2.330000e-06	2.240443e-06	6.254613e-10	1.546957e+01	4.414369e+01
2.340000e-06	2.283922e-06	6.444752e-10	1.576979e+01	4.536620e+01
2.350000e-06	2.327300e-06	6.658662e-10	1.606930e+01	4.655523e+01
2.360000e-06	2.370589e-06	6.865642e-10	1.636819e+01	4.771123e+01
2.370000e-06	2.413732e-06	7.034218e-10	1.666609e+01	4.883475e+01
2.380000e-06	2.456641e-06	7.151285e-10	1.696236e+01	4.992635e+01
2.390000e-06	2.499152e-06	7.264345e-10	1.725589e+01	5.098668e+01
2.400000e-06	2.541329e-06	7.405122e-10	1.754710e+01	5.201638e+01
2.410000e-06	2.583290e-06	7.570530e-10	1.783683e+01	5.301612e+01
2.420000e-06	2.624930e-06	7.715295e-10	1.812434e+01	5.398656e+01
2.430000e-06	2.666221e-06	7.842030e-10	1.840945e+01	5.492836e+01
2.440000e-06	2.707193e-06	7.963494e-10	1.869235e+01	5.584215e+01
2.450000e-06	2.747848e-06	8.051026e-10	1.897305e+01	5.672853e+01
2.460000e-06	2.788243e-06	8.126180e-10	1.925197e+01	5.758805e+01
2.470000e-06	2.828450e-06	8.227329e-10	1.952959e+01	5.842123e+01
2.480000e-06	2.868479e-06	8.356488e-10	1.980597e+01	5.922854e+01
2.490000e-06	2.908294e-06	8.491307e-10	2.008088e+01	6.001040e+01
2.500000e-06	2.947972e-06	8.615421e-10	2.035485e+01	6.076718e+01
2.510000e-06	2.987579e-06	8.714719e-10	2.062833e+01	6.149919e+01
2.520000e-06	3.027051e-06	8.782705e-10	2.090087e+01	6.220671e+01
2.530000e-06	3.066429e-06	8.831704e-10	2.117276e+01	6.288998e+01
2.540000e-06	3.105669e-06	8.902286e-10	2.144370e+01	6.354920e+01
2.550000e-06	3.144598e-06	8.996733e-10	2.171249e+01	6.418455e+01
2.560000e-06	3.183229e-06	9.100572e-10	2.197923e+01	6.479618e+01
2.570000e-06	3.221666e-06	9.202657e-10	2.224462e+01	6.538423e+01
2.580000e-06	3.259872e-06	9.290934e-10	2.250842e+01	6.594886e+01
2.590000e-06	3.297776e-06	9.368530e-10	2.277014e+01	6.649022e+01
2.600000e-06	3.335425e-06	9.424944e-10	2.303010e+01	6.700849e+01
2.610000e-06	3.372898e-06	9.486231e-10	2.328884e+01	6.750386e+01
2.620000e-06	3.410195e-06	9.565182e-10	2.354636e+01	6.797658e+01
2.630000e-06	3.447289e-06	9.651593e-10	2.380248e+01	6.842693e+01
2.640000e-06	3.484159e-06	9.744305e-10	2.405706e+01	6.885524e+01
2.650000e-06	3.520684e-06	9.817381e-10	2.430926e+01	6.926192e+01
2.660000e-06	3.556888e-06	9.849949e-10	2.455923e+01	6.964741e+01
2.670000e-06	3.592917e-06	9.861887e-10	2.480800e+01	7.001224e+01
2.680000e-06	3.628771e-06	9.883699e-10	2.505556e+01	7.035699e+01
2.690000e-06	3.664454e-06	9.936961e-10	2.530194e+01	7.068232e+01
2.700000e-06	3.700020e-06	1.001108e-09	2.554751e+01	7.098895e+01
2.710000e-06	3.735498e-06	1.009932e-09	2.579248e+01	7.127767e+01
2.720000e-06	3.770855e-06	1.019456e-09	2.603661e+01	7.154930e+01
2.730000e-06	3.805969e-06	1.026629e-09	2.627906e+01	7.180475e+01
2.740000e-06	3.840704e-06	1.030757e-09	2.651889e+01	7.204495e+01
2.750000e-06	3.874944e-06	1.030927e-09	2.675531e+01	7.227085e+01
2.760000e-06	3.908722e-06	1.027353e-09	2.698854e+01	7.248346e+01
2.770000e-06	3.942014e-06	1.025753e-09	2.721841e+01	7.268378e+01
2.780000e-06	3.974891e-06	1.029229e-09	2.744542e+01	7.287282e+01
2.790000e-06	4.007381e-06	1.039506e-09	2.766975e+01	7.305156e+01
2.800000e-06	4.039479e-06	1.050541e-09	2.789138e+01	7.322099e+01
2.810000e-06	4.071351e-06	1.056799e-09	2.811144e+01	7.338205e+01
2.820000e-06	4.103037e-06	1.059301e-09	2.833023e+01	7.353562e+01
2.830000e-06	4.134583e-06	1.058467e-09	2.854804e+01	7.368255e+01
2.840000e-06	4.166004e-06	1.055993e-09	2.876499e+01	7.382361e+01
2.850000e-06	4.197183e-06	1.050774e-09	2.898027e+01	7.395949e+01
2.860000e-06	4.228061e-06	1.050354e-09	2.919348e+01	7.409080e+01
2.870000e-06	4.258617e-06	1.056529e-09	2.940446e+01	7.421809e+01
2.880000e-06	4.288781e-06	1.063762e-09	2.961273e+01	7.434176e+01
2.890000e-06	4.318552e-06	1.070187e-09	2.981829e+01	7.446217e+01
2.900000e-06	4.348020e-06	1.070851e-09	3.002175e+01	7.457955e+01
