# Temperatura_=_-20.58
# Concentracion g/m^3_=_1620.0
# C_Vs_to_Am_M_A/Vsm_=_65563218390.804596
# pendiente_HvsI_1/m_=_3716.3
# ordenada_HvsI_A/m_=_1297.0
# frecuencia_Hz_=_135108.45514279354

Tiempo_(s)	Campo_(V.s)	Magnetizacion_(V.s)	Campo_(kA/m)	Magnetizacion_(A/m)
0.000000e+00	-5.529468e-06	-8.475096e-10	-3.837030e+01	-5.590844e+01
1.000000e-08	-5.529658e-06	-8.455420e-10	-3.837162e+01	-5.591048e+01
2.000000e-08	-5.529560e-06	-8.466211e-10	-3.837094e+01	-5.591540e+01
3.000000e-08	-5.529036e-06	-8.492748e-10	-3.836731e+01	-5.592325e+01
4.000000e-08	-5.527975e-06	-8.494683e-10	-3.835994e+01	-5.593403e+01
5.000000e-08	-5.526305e-06	-8.451321e-10	-3.834836e+01	-5.594769e+01
6.000000e-08	-5.524007e-06	-8.362180e-10	-3.833241e+01	-5.596409e+01
7.000000e-08	-5.521192e-06	-8.399922e-10	-3.831287e+01	-5.598307e+01
8.000000e-08	-5.517988e-06	-8.792823e-10	-3.829064e+01	-5.600436e+01
9.000000e-08	-5.514330e-06	-8.788118e-10	-3.826526e+01	-5.602767e+01
1.000000e-07	-5.510213e-06	-8.109576e-10	-3.823669e+01	-5.605263e+01
1.100000e-07	-5.505868e-06	-7.989384e-10	-3.820654e+01	-5.607882e+01
1.200000e-07	-5.501304e-06	-8.461480e-10	-3.817487e+01	-5.610578e+01
1.300000e-07	-5.496338e-06	-8.603953e-10	-3.814041e+01	-5.613301e+01
1.400000e-07	-5.491027e-06	-8.231451e-10	-3.810356e+01	-5.615999e+01
1.500000e-07	-5.485383e-06	-7.881993e-10	-3.806439e+01	-5.618615e+01
1.600000e-07	-5.479352e-06	-8.510528e-10	-3.802254e+01	-5.621095e+01
1.700000e-07	-5.472928e-06	-8.354574e-10	-3.797796e+01	-5.623381e+01
1.800000e-07	-5.466155e-06	-8.446454e-10	-3.793096e+01	-5.625418e+01
1.900000e-07	-5.458968e-06	-8.144881e-10	-3.788109e+01	-5.627153e+01
2.000000e-07	-5.451413e-06	-8.416853e-10	-3.782866e+01	-5.628536e+01
2.100000e-07	-5.443616e-06	-8.271231e-10	-3.777456e+01	-5.629521e+01
2.200000e-07	-5.435575e-06	-8.360034e-10	-3.771876e+01	-5.630067e+01
2.300000e-07	-5.427218e-06	-8.195502e-10	-3.766077e+01	-5.630139e+01
2.400000e-07	-5.418304e-06	-8.214695e-10	-3.759891e+01	-5.629707e+01
2.500000e-07	-5.408678e-06	-8.295364e-10	-3.753211e+01	-5.628752e+01
2.600000e-07	-5.398496e-06	-8.379063e-10	-3.746146e+01	-5.627260e+01
2.700000e-07	-5.387701e-06	-8.406919e-10	-3.738655e+01	-5.625225e+01
2.800000e-07	-5.376326e-06	-8.308101e-10	-3.730762e+01	-5.622652e+01
2.900000e-07	-5.364639e-06	-8.475763e-10	-3.722652e+01	-5.619553e+01
3.000000e-07	-5.352623e-06	-8.326854e-10	-3.714314e+01	-5.615948e+01
3.100000e-07	-5.340196e-06	-8.348804e-10	-3.705690e+01	-5.611865e+01
3.200000e-07	-5.327332e-06	-8.235162e-10	-3.696763e+01	-5.607343e+01
3.300000e-07	-5.314159e-06	-8.652360e-10	-3.687622e+01	-5.602424e+01
3.400000e-07	-5.300577e-06	-8.336772e-10	-3.678197e+01	-5.597160e+01
3.500000e-07	-5.286444e-06	-8.395427e-10	-3.668390e+01	-5.591607e+01
3.600000e-07	-5.271936e-06	-8.450556e-10	-3.658323e+01	-5.585828e+01
3.700000e-07	-5.256921e-06	-8.521434e-10	-3.647904e+01	-5.579888e+01
3.800000e-07	-5.241245e-06	-7.981976e-10	-3.637026e+01	-5.573856e+01
3.900000e-07	-5.225124e-06	-8.473421e-10	-3.625839e+01	-5.567804e+01
4.000000e-07	-5.208684e-06	-8.669412e-10	-3.614431e+01	-5.561802e+01
4.100000e-07	-5.191910e-06	-8.182302e-10	-3.602791e+01	-5.555922e+01
4.200000e-07	-5.174760e-06	-8.013426e-10	-3.590890e+01	-5.550234e+01
4.300000e-07	-5.157304e-06	-8.798083e-10	-3.578777e+01	-5.544806e+01
4.400000e-07	-5.139553e-06	-8.437695e-10	-3.566459e+01	-5.539701e+01
4.500000e-07	-5.121391e-06	-7.862653e-10	-3.553856e+01	-5.534979e+01
4.600000e-07	-5.102863e-06	-8.461383e-10	-3.540999e+01	-5.530692e+01
4.700000e-07	-5.083959e-06	-8.751533e-10	-3.527881e+01	-5.526890e+01
4.800000e-07	-5.064624e-06	-7.928056e-10	-3.514464e+01	-5.523613e+01
4.900000e-07	-5.045069e-06	-8.163673e-10	-3.500895e+01	-5.520895e+01
5.000000e-07	-5.025386e-06	-8.821972e-10	-3.487236e+01	-5.518760e+01
5.100000e-07	-5.005399e-06	-8.209496e-10	-3.473366e+01	-5.517228e+01
5.200000e-07	-4.985006e-06	-7.921627e-10	-3.459215e+01	-5.516309e+01
5.300000e-07	-4.964306e-06	-8.661018e-10	-3.444851e+01	-5.516003e+01
5.400000e-07	-4.943250e-06	-8.480834e-10	-3.430240e+01	-5.516305e+01
5.500000e-07	-4.921784e-06	-7.819595e-10	-3.415344e+01	-5.517202e+01
5.600000e-07	-4.900056e-06	-8.379092e-10	-3.400266e+01	-5.518673e+01
5.700000e-07	-4.878035e-06	-8.587008e-10	-3.384986e+01	-5.520692e+01
5.800000e-07	-4.855611e-06	-8.033275e-10	-3.369425e+01	-5.523225e+01
5.900000e-07	-4.832810e-06	-8.182138e-10	-3.353603e+01	-5.526234e+01
6.000000e-07	-4.809689e-06	-8.675635e-10	-3.337559e+01	-5.529678e+01
6.100000e-07	-4.786299e-06	-8.205745e-10	-3.321327e+01	-5.533512e+01
6.200000e-07	-4.762708e-06	-8.092147e-10	-3.304958e+01	-5.537685e+01
6.300000e-07	-4.738935e-06	-8.442616e-10	-3.288461e+01	-5.542151e+01
6.400000e-07	-4.714794e-06	-8.363104e-10	-3.271709e+01	-5.546856e+01
6.500000e-07	-4.690125e-06	-8.044632e-10	-3.254590e+01	-5.551753e+01
6.600000e-07	-4.665001e-06	-8.369837e-10	-3.237156e+01	-5.556790e+01
6.700000e-07	-4.639440e-06	-8.426984e-10	-3.219419e+01	-5.561921e+01
6.800000e-07	-4.613306e-06	-8.236093e-10	-3.201284e+01	-5.567101e+01
6.900000e-07	-4.586669e-06	-8.238908e-10	-3.182799e+01	-5.572288e+01
7.000000e-07	-4.559767e-06	-8.423605e-10	-3.164132e+01	-5.577445e+01
7.100000e-07	-4.532595e-06	-8.268835e-10	-3.145276e+01	-5.582536e+01
7.200000e-07	-4.505107e-06	-8.267253e-10	-3.126202e+01	-5.587534e+01
7.300000e-07	-4.477364e-06	-8.371630e-10	-3.106950e+01	-5.592413e+01
7.400000e-07	-4.449430e-06	-8.434707e-10	-3.087566e+01	-5.597155e+01
7.500000e-07	-4.421322e-06	-8.378192e-10	-3.068062e+01	-5.601744e+01
7.600000e-07	-4.392917e-06	-8.434723e-10	-3.048350e+01	-5.606171e+01
7.700000e-07	-4.364128e-06	-8.441613e-10	-3.028373e+01	-5.610432e+01
7.800000e-07	-4.334996e-06	-8.394995e-10	-3.008157e+01	-5.614526e+01
7.900000e-07	-4.305542e-06	-8.372668e-10	-2.987719e+01	-5.618457e+01
8.000000e-07	-4.275791e-06	-8.382877e-10	-2.967074e+01	-5.622233e+01
8.100000e-07	-4.245779e-06	-8.329120e-10	-2.946248e+01	-5.625864e+01
8.200000e-07	-4.215497e-06	-8.282728e-10	-2.925235e+01	-5.629365e+01
8.300000e-07	-4.184896e-06	-8.308309e-10	-2.903999e+01	-5.632751e+01
8.400000e-07	-4.153932e-06	-8.299721e-10	-2.882513e+01	-5.636040e+01
8.500000e-07	-4.122657e-06	-8.332634e-10	-2.860810e+01	-5.639250e+01
8.600000e-07	-4.091205e-06	-8.374123e-10	-2.838985e+01	-5.642401e+01
8.700000e-07	-4.059646e-06	-8.369887e-10	-2.817086e+01	-5.645510e+01
8.800000e-07	-4.027924e-06	-8.300611e-10	-2.795073e+01	-5.648598e+01
8.900000e-07	-3.995969e-06	-8.341851e-10	-2.772899e+01	-5.651680e+01
9.000000e-07	-3.963730e-06	-8.291197e-10	-2.750528e+01	-5.654771e+01
9.100000e-07	-3.931160e-06	-8.261183e-10	-2.727926e+01	-5.657887e+01
9.200000e-07	-3.898219e-06	-8.302504e-10	-2.705068e+01	-5.661037e+01
9.300000e-07	-3.864883e-06	-8.382634e-10	-2.681935e+01	-5.664229e+01
9.400000e-07	-3.831069e-06	-8.329095e-10	-2.658471e+01	-5.667470e+01
9.500000e-07	-3.796733e-06	-8.382704e-10	-2.634644e+01	-5.670763e+01
9.600000e-07	-3.761990e-06	-8.424471e-10	-2.610535e+01	-5.674105e+01
9.700000e-07	-3.726948e-06	-8.402673e-10	-2.586219e+01	-5.677495e+01
9.800000e-07	-3.691686e-06	-8.341695e-10	-2.561749e+01	-5.680926e+01
9.900000e-07	-3.656242e-06	-8.387887e-10	-2.537154e+01	-5.684388e+01
1.000000e-06	-3.620629e-06	-8.367174e-10	-2.512442e+01	-5.687869e+01
1.010000e-06	-3.584863e-06	-8.351306e-10	-2.487623e+01	-5.691356e+01
1.020000e-06	-3.548973e-06	-8.388412e-10	-2.462717e+01	-5.694831e+01
1.030000e-06	-3.512903e-06	-8.459105e-10	-2.437688e+01	-5.698277e+01
1.040000e-06	-3.476465e-06	-8.428462e-10	-2.412402e+01	-5.701673e+01
1.050000e-06	-3.439755e-06	-8.417144e-10	-2.386929e+01	-5.704998e+01
1.060000e-06	-3.402893e-06	-8.443739e-10	-2.361349e+01	-5.708232e+01
1.070000e-06	-3.365754e-06	-8.439873e-10	-2.335577e+01	-5.711352e+01
1.080000e-06	-3.328372e-06	-8.426858e-10	-2.309637e+01	-5.714336e+01
1.090000e-06	-3.290829e-06	-8.464263e-10	-2.283585e+01	-5.717162e+01
1.100000e-06	-3.253049e-06	-8.476109e-10	-2.257369e+01	-5.719808e+01
1.110000e-06	-3.214990e-06	-8.422370e-10	-2.230959e+01	-5.722254e+01
1.120000e-06	-3.176701e-06	-8.406618e-10	-2.204389e+01	-5.724481e+01
1.130000e-06	-3.138195e-06	-8.402998e-10	-2.177669e+01	-5.726470e+01
1.140000e-06	-3.099454e-06	-8.383611e-10	-2.150786e+01	-5.728205e+01
1.150000e-06	-3.060525e-06	-8.382418e-10	-2.123772e+01	-5.729670e+01
1.160000e-06	-3.021435e-06	-8.431618e-10	-2.096646e+01	-5.730852e+01
1.170000e-06	-2.982161e-06	-8.438874e-10	-2.069393e+01	-5.731737e+01
1.180000e-06	-2.942738e-06	-8.461226e-10	-2.042036e+01	-5.732317e+01
1.190000e-06	-2.903171e-06	-8.492650e-10	-2.014580e+01	-5.732580e+01
1.200000e-06	-2.863471e-06	-8.505004e-10	-1.987031e+01	-5.732520e+01
1.210000e-06	-2.823645e-06	-8.457946e-10	-1.959395e+01	-5.732130e+01
1.220000e-06	-2.783577e-06	-8.445839e-10	-1.931591e+01	-5.731403e+01
1.230000e-06	-2.743318e-06	-8.456416e-10	-1.903654e+01	-5.730335e+01
1.240000e-06	-2.702921e-06	-8.481651e-10	-1.875622e+01	-5.728921e+01
1.250000e-06	-2.662289e-06	-8.491144e-10	-1.847426e+01	-5.727157e+01
1.260000e-06	-2.621369e-06	-8.532699e-10	-1.819031e+01	-5.725039e+01
1.270000e-06	-2.580174e-06	-8.505077e-10	-1.790444e+01	-5.722562e+01
1.280000e-06	-2.538668e-06	-8.460608e-10	-1.761643e+01	-5.719720e+01
1.290000e-06	-2.496797e-06	-8.424646e-10	-1.732588e+01	-5.716509e+01
1.300000e-06	-2.454660e-06	-8.406342e-10	-1.703347e+01	-5.712920e+01
1.310000e-06	-2.412237e-06	-8.372913e-10	-1.673909e+01	-5.708946e+01
1.320000e-06	-2.369513e-06	-8.377081e-10	-1.644262e+01	-5.704576e+01
1.330000e-06	-2.326557e-06	-8.391626e-10	-1.614454e+01	-5.699799e+01
1.340000e-06	-2.283374e-06	-8.404922e-10	-1.584488e+01	-5.694602e+01
1.350000e-06	-2.240022e-06	-8.438635e-10	-1.554405e+01	-5.688967e+01
1.360000e-06	-2.196560e-06	-8.469509e-10	-1.524246e+01	-5.682878e+01
1.370000e-06	-2.152981e-06	-8.465872e-10	-1.494005e+01	-5.676313e+01
1.380000e-06	-2.109325e-06	-8.428985e-10	-1.463711e+01	-5.669250e+01
1.390000e-06	-2.065593e-06	-8.376472e-10	-1.433365e+01	-5.661664e+01
1.400000e-06	-2.021815e-06	-8.315178e-10	-1.402986e+01	-5.653525e+01
1.410000e-06	-1.977973e-06	-8.267298e-10	-1.372563e+01	-5.644804e+01
1.420000e-06	-1.934033e-06	-8.234094e-10	-1.342072e+01	-5.635466e+01
1.430000e-06	-1.889945e-06	-8.232430e-10	-1.311478e+01	-5.625476e+01
1.440000e-06	-1.845761e-06	-8.225828e-10	-1.280818e+01	-5.614796e+01
1.450000e-06	-1.801468e-06	-8.219237e-10	-1.250082e+01	-5.603384e+01
1.460000e-06	-1.756989e-06	-8.191028e-10	-1.219217e+01	-5.591196e+01
1.470000e-06	-1.712460e-06	-8.145744e-10	-1.188317e+01	-5.578186e+01
1.480000e-06	-1.667809e-06	-8.072546e-10	-1.157333e+01	-5.564306e+01
1.490000e-06	-1.622940e-06	-7.993737e-10	-1.126197e+01	-5.549504e+01
1.500000e-06	-1.577892e-06	-7.911682e-10	-1.094937e+01	-5.533728e+01
1.510000e-06	-1.532712e-06	-7.876211e-10	-1.063585e+01	-5.516921e+01
1.520000e-06	-1.487422e-06	-7.874886e-10	-1.032158e+01	-5.499026e+01
1.530000e-06	-1.442029e-06	-7.873299e-10	-1.000659e+01	-5.479983e+01
1.540000e-06	-1.396587e-06	-7.867355e-10	-9.691253e+00	-5.459729e+01
1.550000e-06	-1.351105e-06	-7.851607e-10	-9.375645e+00	-5.438201e+01
1.560000e-06	-1.305517e-06	-7.801208e-10	-9.059293e+00	-5.415332e+01
1.570000e-06	-1.259820e-06	-7.710319e-10	-8.742191e+00	-5.391053e+01
1.580000e-06	-1.214006e-06	-7.602118e-10	-8.424278e+00	-5.365294e+01
1.590000e-06	-1.168154e-06	-7.517953e-10	-8.106103e+00	-5.337983e+01
1.600000e-06	-1.122350e-06	-7.464458e-10	-7.788258e+00	-5.309045e+01
1.610000e-06	-1.076456e-06	-7.455397e-10	-7.469789e+00	-5.278405e+01
1.620000e-06	-1.030409e-06	-7.457517e-10	-7.150254e+00	-5.245984e+01
1.630000e-06	-9.842689e-07	-7.427132e-10	-6.830078e+00	-5.211704e+01
1.640000e-06	-9.379907e-07	-7.338341e-10	-6.508942e+00	-5.175482e+01
1.650000e-06	-8.915791e-07	-7.224702e-10	-6.186882e+00	-5.137236e+01
1.660000e-06	-8.451428e-07	-7.126860e-10	-5.864649e+00	-5.096882e+01
1.670000e-06	-7.986833e-07	-7.066042e-10	-5.542255e+00	-5.054336e+01
1.680000e-06	-7.522038e-07	-7.035067e-10	-5.219722e+00	-5.009510e+01
1.690000e-06	-7.057252e-07	-7.001621e-10	-4.897197e+00	-4.962318e+01
1.700000e-06	-6.591752e-07	-6.921999e-10	-4.574175e+00	-4.912674e+01
1.710000e-06	-6.125288e-07	-6.823676e-10	-4.250484e+00	-4.860489e+01
1.720000e-06	-5.658485e-07	-6.704111e-10	-3.926559e+00	-4.805677e+01
1.730000e-06	-5.191442e-07	-6.556806e-10	-3.602466e+00	-4.748151e+01
1.740000e-06	-4.724241e-07	-6.427328e-10	-3.278264e+00	-4.687826e+01
1.750000e-06	-4.256606e-07	-6.318747e-10	-2.953761e+00	-4.624618e+01
1.760000e-06	-3.788809e-07	-6.230244e-10	-2.629145e+00	-4.558446e+01
1.770000e-06	-3.321134e-07	-6.134675e-10	-2.304614e+00	-4.489229e+01
1.780000e-06	-2.852503e-07	-6.029852e-10	-1.979420e+00	-4.416892e+01
1.790000e-06	-2.383165e-07	-5.914534e-10	-1.653736e+00	-4.341363e+01
1.800000e-06	-1.914046e-07	-5.787028e-10	-1.328202e+00	-4.262573e+01
1.810000e-06	-1.444784e-07	-5.646794e-10	-1.002570e+00	-4.180460e+01
1.820000e-06	-9.749359e-08	-5.526288e-10	-6.765314e-01	-4.094966e+01
1.830000e-06	-5.051920e-08	-5.415262e-10	-3.505649e-01	-4.006041e+01
1.840000e-06	-3.551495e-09	-5.303714e-10	-2.464468e-02	-3.913640e+01
1.850000e-06	4.336871e-08	-5.187022e-10	3.009459e-01	-3.817727e+01
1.860000e-06	9.016980e-08	-5.060608e-10	6.257099e-01	-3.718275e+01
1.870000e-06	1.370177e-07	-4.909580e-10	9.507984e-01	-3.615266e+01
1.880000e-06	1.838789e-07	-4.747798e-10	1.275980e+00	-3.508689e+01
1.890000e-06	2.306429e-07	-4.585744e-10	1.600486e+00	-3.398547e+01
1.900000e-06	2.773999e-07	-4.410357e-10	1.924945e+00	-3.284853e+01
1.910000e-06	3.241736e-07	-4.216726e-10	2.249518e+00	-3.167629e+01
1.920000e-06	3.710074e-07	-4.021061e-10	2.574509e+00	-3.046911e+01
1.930000e-06	4.177984e-07	-3.853262e-10	2.899203e+00	-2.922749e+01
1.940000e-06	4.645176e-07	-3.698245e-10	3.223399e+00	-2.795201e+01
1.950000e-06	5.112201e-07	-3.517250e-10	3.547479e+00	-2.664343e+01
1.960000e-06	5.579039e-07	-3.341987e-10	3.871429e+00	-2.530260e+01
1.970000e-06	6.046170e-07	-3.156188e-10	4.195582e+00	-2.393053e+01
1.980000e-06	6.512345e-07	-2.979496e-10	4.519072e+00	-2.252834e+01
1.990000e-06	6.976771e-07	-2.778168e-10	4.841349e+00	-2.109731e+01
2.000000e-06	7.440665e-07	-2.527049e-10	5.163256e+00	-1.963881e+01
2.010000e-06	7.904860e-07	-2.274042e-10	5.485372e+00	-1.815437e+01
2.020000e-06	8.369013e-07	-2.037408e-10	5.807459e+00	-1.664563e+01
2.030000e-06	8.831866e-07	-1.823240e-10	6.128644e+00	-1.511434e+01
2.040000e-06	9.293424e-07	-1.623511e-10	6.448930e+00	-1.356238e+01
2.050000e-06	9.754611e-07	-1.432832e-10	6.768958e+00	-1.199170e+01
2.060000e-06	1.021450e-06	-1.219119e-10	7.088085e+00	-1.040438e+01
2.070000e-06	1.067367e-06	-9.779732e-11	7.406719e+00	-8.802568e+00
2.080000e-06	1.113283e-06	-7.240634e-11	7.725341e+00	-7.188491e+00
2.090000e-06	1.159028e-06	-4.830218e-11	8.042771e+00	-5.564441e+00
2.100000e-06	1.204670e-06	-2.494825e-11	8.359496e+00	-3.932764e+00
2.110000e-06	1.250375e-06	-2.560987e-12	8.676653e+00	-2.295846e+00
2.120000e-06	1.295990e-06	1.943976e-11	8.993184e+00	-6.561033e-01
2.130000e-06	1.341414e-06	4.199489e-11	9.308395e+00	9.840350e-01
2.140000e-06	1.386787e-06	6.373538e-11	9.623250e+00	2.622137e+00
2.150000e-06	1.432145e-06	8.305297e-11	9.937996e+00	4.255782e+00
2.160000e-06	1.477402e-06	1.050633e-10	1.025205e+01	5.882575e+00
2.170000e-06	1.522562e-06	1.277758e-10	1.056542e+01	7.500163e+00
2.180000e-06	1.567644e-06	1.520032e-10	1.087826e+01	9.106240e+00
2.190000e-06	1.612604e-06	1.766884e-10	1.119025e+01	1.069857e+01
2.200000e-06	1.657348e-06	1.998911e-10	1.150074e+01	1.227499e+01
2.210000e-06	1.701893e-06	2.209911e-10	1.180984e+01	1.383343e+01
2.220000e-06	1.746299e-06	2.420848e-10	1.211799e+01	1.537192e+01
2.230000e-06	1.790561e-06	2.628650e-10	1.242513e+01	1.688859e+01
2.240000e-06	1.834690e-06	2.812639e-10	1.273136e+01	1.838169e+01
2.250000e-06	1.878719e-06	2.988484e-10	1.303688e+01	1.984961e+01
2.260000e-06	1.922656e-06	3.180543e-10	1.334177e+01	2.129086e+01
2.270000e-06	1.966468e-06	3.382049e-10	1.364579e+01	2.270408e+01
2.280000e-06	2.010195e-06	3.563829e-10	1.394922e+01	2.408806e+01
2.290000e-06	2.053913e-06	3.726010e-10	1.425259e+01	2.544173e+01
2.300000e-06	2.097581e-06	3.881093e-10	1.455562e+01	2.676416e+01
2.310000e-06	2.141178e-06	4.049185e-10	1.485815e+01	2.805457e+01
2.320000e-06	2.184729e-06	4.232751e-10	1.516036e+01	2.931230e+01
2.330000e-06	2.228193e-06	4.429770e-10	1.546196e+01	3.053686e+01
2.340000e-06	2.271568e-06	4.621543e-10	1.576295e+01	3.172786e+01
2.350000e-06	2.314799e-06	4.801668e-10	1.606294e+01	3.288506e+01
2.360000e-06	2.357891e-06	4.952165e-10	1.636197e+01	3.400832e+01
2.370000e-06	2.400824e-06	5.084569e-10	1.665990e+01	3.509763e+01
2.380000e-06	2.443477e-06	5.192002e-10	1.695587e+01	3.615308e+01
2.390000e-06	2.485723e-06	5.314190e-10	1.724903e+01	3.717484e+01
2.400000e-06	2.527567e-06	5.460555e-10	1.753939e+01	3.816318e+01
2.410000e-06	2.569113e-06	5.619331e-10	1.782769e+01	3.911844e+01
2.420000e-06	2.610436e-06	5.762046e-10	1.811444e+01	4.004104e+01
2.430000e-06	2.651497e-06	5.873886e-10	1.839937e+01	4.093144e+01
2.440000e-06	2.692198e-06	5.956399e-10	1.868181e+01	4.179013e+01
2.450000e-06	2.732628e-06	6.033301e-10	1.896236e+01	4.261768e+01
2.460000e-06	2.772775e-06	6.121352e-10	1.924095e+01	4.341464e+01
2.470000e-06	2.812699e-06	6.217046e-10	1.951799e+01	4.418162e+01
2.480000e-06	2.852512e-06	6.313172e-10	1.979427e+01	4.491920e+01
2.490000e-06	2.892243e-06	6.414787e-10	2.006997e+01	4.562801e+01
2.500000e-06	2.931848e-06	6.507029e-10	2.034480e+01	4.630864e+01
2.510000e-06	2.971280e-06	6.578467e-10	2.061842e+01	4.696169e+01
2.520000e-06	3.010608e-06	6.637194e-10	2.089133e+01	4.758776e+01
2.530000e-06	3.049759e-06	6.683278e-10	2.116301e+01	4.818741e+01
2.540000e-06	3.088672e-06	6.737670e-10	2.143304e+01	4.876121e+01
2.550000e-06	3.127374e-06	6.806831e-10	2.170160e+01	4.930970e+01
2.560000e-06	3.165923e-06	6.872493e-10	2.196910e+01	4.983342e+01
2.570000e-06	3.204247e-06	6.940045e-10	2.223504e+01	5.033287e+01
2.580000e-06	3.242234e-06	7.016829e-10	2.249864e+01	5.080858e+01
2.590000e-06	3.279974e-06	7.085862e-10	2.276053e+01	5.126104e+01
2.600000e-06	3.317516e-06	7.148386e-10	2.302104e+01	5.169074e+01
2.610000e-06	3.354901e-06	7.202010e-10	2.328046e+01	5.209817e+01
2.620000e-06	3.392138e-06	7.257781e-10	2.353886e+01	5.248384e+01
2.630000e-06	3.429118e-06	7.324599e-10	2.379547e+01	5.284824e+01
2.640000e-06	3.465788e-06	7.399326e-10	2.404994e+01	5.319189e+01
2.650000e-06	3.502151e-06	7.462098e-10	2.430227e+01	5.351532e+01
2.660000e-06	3.538224e-06	7.496534e-10	2.455258e+01	5.381909e+01
2.670000e-06	3.574073e-06	7.508157e-10	2.480135e+01	5.410378e+01
2.680000e-06	3.609809e-06	7.532272e-10	2.504933e+01	5.436999e+01
2.690000e-06	3.645458e-06	7.576154e-10	2.529671e+01	5.461837e+01
2.700000e-06	3.680996e-06	7.628369e-10	2.554331e+01	5.484957e+01
2.710000e-06	3.716408e-06	7.687932e-10	2.578905e+01	5.506431e+01
2.720000e-06	3.751628e-06	7.749553e-10	2.603344e+01	5.526331e+01
2.730000e-06	3.786559e-06	7.790987e-10	2.627584e+01	5.544734e+01
2.740000e-06	3.821066e-06	7.828488e-10	2.651530e+01	5.561720e+01
2.750000e-06	3.855062e-06	7.847791e-10	2.675120e+01	5.577370e+01
2.760000e-06	3.888605e-06	7.860586e-10	2.698396e+01	5.591769e+01
2.770000e-06	3.921664e-06	7.880638e-10	2.721336e+01	5.605002e+01
2.780000e-06	3.954239e-06	7.911544e-10	2.743941e+01	5.617158e+01
2.790000e-06	3.986467e-06	7.957130e-10	2.766305e+01	5.628323e+01
2.800000e-06	4.018416e-06	7.999638e-10	2.788475e+01	5.638584e+01
2.810000e-06	4.050151e-06	8.027338e-10	2.810497e+01	5.648029e+01
2.820000e-06	4.081742e-06	8.048779e-10	2.832419e+01	5.656742e+01
2.830000e-06	4.113220e-06	8.066698e-10	2.854262e+01	5.664804e+01
2.840000e-06	4.144537e-06	8.077564e-10	2.875994e+01	5.672295e+01
2.850000e-06	4.175536e-06	8.082926e-10	2.897504e+01	5.679289e+01
2.860000e-06	4.206164e-06	8.091278e-10	2.918758e+01	5.685855e+01
2.870000e-06	4.236467e-06	8.113559e-10	2.939786e+01	5.692057e+01
2.880000e-06	4.266461e-06	8.129952e-10	2.960599e+01	5.697953e+01
2.890000e-06	4.296219e-06	8.136432e-10	2.981249e+01	5.703595e+01
2.900000e-06	4.325776e-06	8.117227e-10	3.001760e+01	5.709024e+01
