# Temperatura_=_-18.76
# Concentracion g/m^3_=_1620.0
# C_Vs_to_Am_M_A/Vsm_=_65563218390.804596
# pendiente_HvsI_1/m_=_3716.3
# ordenada_HvsI_A/m_=_1297.0
# frecuencia_Hz_=_135107.705304306

Tiempo_(s)	Campo_(V.s)	Magnetizacion_(V.s)	Campo_(kA/m)	Magnetizacion_(A/m)
0.000000e+00	-5.514845e-06	-8.570725e-10	-3.836436e+01	-5.590240e+01
1.000000e-08	-5.515120e-06	-8.555750e-10	-3.836627e+01	-5.587338e+01
2.000000e-08	-5.515062e-06	-8.540785e-10	-3.836587e+01	-5.584542e+01
3.000000e-08	-5.514689e-06	-8.550002e-10	-3.836327e+01	-5.581888e+01
4.000000e-08	-5.513973e-06	-8.564014e-10	-3.835829e+01	-5.579404e+01
5.000000e-08	-5.512585e-06	-8.540343e-10	-3.834863e+01	-5.577119e+01
6.000000e-08	-5.510493e-06	-8.412568e-10	-3.833408e+01	-5.575053e+01
7.000000e-08	-5.507874e-06	-8.225173e-10	-3.831586e+01	-5.573224e+01
8.000000e-08	-5.504733e-06	-8.471836e-10	-3.829402e+01	-5.571641e+01
9.000000e-08	-5.501128e-06	-9.361221e-10	-3.826894e+01	-5.570311e+01
1.000000e-07	-5.497108e-06	-9.508447e-10	-3.824097e+01	-5.569230e+01
1.100000e-07	-5.492739e-06	-8.168786e-10	-3.821058e+01	-5.568393e+01
1.200000e-07	-5.488208e-06	-7.404859e-10	-3.817906e+01	-5.567785e+01
1.300000e-07	-5.483431e-06	-8.331193e-10	-3.814583e+01	-5.567387e+01
1.400000e-07	-5.478229e-06	-9.129612e-10	-3.810964e+01	-5.567175e+01
1.500000e-07	-5.472585e-06	-8.429065e-10	-3.807037e+01	-5.567119e+01
1.600000e-07	-5.466565e-06	-7.554182e-10	-3.802850e+01	-5.567186e+01
1.700000e-07	-5.460171e-06	-8.614616e-10	-3.798402e+01	-5.567338e+01
1.800000e-07	-5.453238e-06	-9.243797e-10	-3.793579e+01	-5.567537e+01
1.900000e-07	-5.445949e-06	-8.504875e-10	-3.788508e+01	-5.567741e+01
2.000000e-07	-5.438493e-06	-7.421462e-10	-3.783321e+01	-5.567909e+01
2.100000e-07	-5.430765e-06	-8.133620e-10	-3.777945e+01	-5.567999e+01
2.200000e-07	-5.422803e-06	-9.015639e-10	-3.772406e+01	-5.567970e+01
2.300000e-07	-5.414641e-06	-8.881888e-10	-3.766728e+01	-5.567784e+01
2.400000e-07	-5.406010e-06	-8.088224e-10	-3.760724e+01	-5.567407e+01
2.500000e-07	-5.396705e-06	-8.117060e-10	-3.754251e+01	-5.566807e+01
2.600000e-07	-5.386627e-06	-8.521768e-10	-3.747240e+01	-5.565957e+01
2.700000e-07	-5.375871e-06	-8.413754e-10	-3.739758e+01	-5.564835e+01
2.800000e-07	-5.364665e-06	-8.237727e-10	-3.731962e+01	-5.563427e+01
2.900000e-07	-5.353013e-06	-8.444478e-10	-3.723856e+01	-5.561723e+01
3.000000e-07	-5.341013e-06	-8.790957e-10	-3.715508e+01	-5.559720e+01
3.100000e-07	-5.328724e-06	-8.455752e-10	-3.706960e+01	-5.557423e+01
3.200000e-07	-5.315930e-06	-8.211499e-10	-3.698059e+01	-5.554842e+01
3.300000e-07	-5.302679e-06	-8.307953e-10	-3.688841e+01	-5.551995e+01
3.400000e-07	-5.289170e-06	-8.824013e-10	-3.679444e+01	-5.548906e+01
3.500000e-07	-5.275252e-06	-8.490454e-10	-3.669761e+01	-5.545604e+01
3.600000e-07	-5.260822e-06	-8.405684e-10	-3.659723e+01	-5.542125e+01
3.700000e-07	-5.246024e-06	-8.751520e-10	-3.649429e+01	-5.538508e+01
3.800000e-07	-5.230799e-06	-8.900746e-10	-3.638837e+01	-5.534800e+01
3.900000e-07	-5.214879e-06	-8.135226e-10	-3.627763e+01	-5.531046e+01
4.000000e-07	-5.198365e-06	-8.356014e-10	-3.616275e+01	-5.527297e+01
4.100000e-07	-5.181544e-06	-8.898923e-10	-3.604573e+01	-5.523604e+01
4.200000e-07	-5.164472e-06	-8.424249e-10	-3.592697e+01	-5.520019e+01
4.300000e-07	-5.147160e-06	-7.951106e-10	-3.580653e+01	-5.516594e+01
4.400000e-07	-5.129575e-06	-8.865987e-10	-3.568420e+01	-5.513378e+01
4.500000e-07	-5.111458e-06	-8.886413e-10	-3.555817e+01	-5.510420e+01
4.600000e-07	-5.092799e-06	-7.938509e-10	-3.542837e+01	-5.507763e+01
4.700000e-07	-5.073808e-06	-8.268529e-10	-3.529626e+01	-5.505448e+01
4.800000e-07	-5.054542e-06	-8.969269e-10	-3.516223e+01	-5.503510e+01
4.900000e-07	-5.035034e-06	-8.238763e-10	-3.502652e+01	-5.501979e+01
5.000000e-07	-5.015351e-06	-8.095793e-10	-3.488960e+01	-5.500880e+01
5.100000e-07	-4.995513e-06	-8.898773e-10	-3.475159e+01	-5.500229e+01
5.200000e-07	-4.975299e-06	-8.444310e-10	-3.461097e+01	-5.500038e+01
5.300000e-07	-4.954708e-06	-7.920547e-10	-3.446773e+01	-5.500310e+01
5.400000e-07	-4.933799e-06	-8.772252e-10	-3.432227e+01	-5.501043e+01
5.500000e-07	-4.912452e-06	-8.829131e-10	-3.417377e+01	-5.502226e+01
5.600000e-07	-4.890769e-06	-7.886660e-10	-3.402294e+01	-5.503845e+01
5.700000e-07	-4.868838e-06	-8.344086e-10	-3.387037e+01	-5.505875e+01
5.800000e-07	-4.846533e-06	-8.889303e-10	-3.371520e+01	-5.508290e+01
5.900000e-07	-4.823794e-06	-8.210767e-10	-3.355702e+01	-5.511055e+01
6.000000e-07	-4.800779e-06	-8.104445e-10	-3.339692e+01	-5.514132e+01
6.100000e-07	-4.777513e-06	-8.744492e-10	-3.323507e+01	-5.517479e+01
6.200000e-07	-4.753930e-06	-8.318092e-10	-3.307100e+01	-5.521051e+01
6.300000e-07	-4.730073e-06	-8.035942e-10	-3.290505e+01	-5.524801e+01
6.400000e-07	-4.706087e-06	-8.540382e-10	-3.273819e+01	-5.528679e+01
6.500000e-07	-4.681846e-06	-8.517456e-10	-3.256955e+01	-5.532638e+01
6.600000e-07	-4.657104e-06	-8.110873e-10	-3.239743e+01	-5.536626e+01
6.700000e-07	-4.631864e-06	-8.494706e-10	-3.222184e+01	-5.540596e+01
6.800000e-07	-4.605996e-06	-8.600498e-10	-3.204190e+01	-5.544501e+01
6.900000e-07	-4.579462e-06	-8.264788e-10	-3.185731e+01	-5.548298e+01
7.000000e-07	-4.552419e-06	-8.361753e-10	-3.166918e+01	-5.551945e+01
7.100000e-07	-4.525001e-06	-8.605228e-10	-3.147845e+01	-5.555407e+01
7.200000e-07	-4.497385e-06	-8.336822e-10	-3.128634e+01	-5.558649e+01
7.300000e-07	-4.469676e-06	-8.344901e-10	-3.109358e+01	-5.561644e+01
7.400000e-07	-4.441862e-06	-8.556523e-10	-3.090008e+01	-5.564368e+01
7.500000e-07	-4.413915e-06	-8.444219e-10	-3.070567e+01	-5.566805e+01
7.600000e-07	-4.385697e-06	-8.323371e-10	-3.050937e+01	-5.568939e+01
7.700000e-07	-4.357132e-06	-8.506805e-10	-3.031066e+01	-5.570766e+01
7.800000e-07	-4.328165e-06	-8.482199e-10	-3.010915e+01	-5.572281e+01
7.900000e-07	-4.298809e-06	-8.362880e-10	-2.990493e+01	-5.573488e+01
8.000000e-07	-4.269208e-06	-8.485557e-10	-2.969901e+01	-5.574394e+01
8.100000e-07	-4.239357e-06	-8.507341e-10	-2.949135e+01	-5.575010e+01
8.200000e-07	-4.209206e-06	-8.340988e-10	-2.928160e+01	-5.575354e+01
8.300000e-07	-4.178721e-06	-8.378881e-10	-2.906953e+01	-5.575444e+01
8.400000e-07	-4.147891e-06	-8.508756e-10	-2.885506e+01	-5.575303e+01
8.500000e-07	-4.116789e-06	-8.448285e-10	-2.863870e+01	-5.574956e+01
8.600000e-07	-4.085443e-06	-8.487360e-10	-2.842064e+01	-5.574431e+01
8.700000e-07	-4.053905e-06	-8.567785e-10	-2.820124e+01	-5.573757e+01
8.800000e-07	-4.022248e-06	-8.453847e-10	-2.798102e+01	-5.572962e+01
8.900000e-07	-3.990455e-06	-8.316220e-10	-2.775984e+01	-5.572079e+01
9.000000e-07	-3.958497e-06	-8.403138e-10	-2.753753e+01	-5.571136e+01
9.100000e-07	-3.926217e-06	-8.375699e-10	-2.731297e+01	-5.570164e+01
9.200000e-07	-3.893545e-06	-8.329014e-10	-2.708568e+01	-5.569191e+01
9.300000e-07	-3.860478e-06	-8.439562e-10	-2.685565e+01	-5.568245e+01
9.400000e-07	-3.826843e-06	-8.528452e-10	-2.662167e+01	-5.567351e+01
9.500000e-07	-3.792616e-06	-8.413411e-10	-2.638357e+01	-5.566534e+01
9.600000e-07	-3.757925e-06	-8.420544e-10	-2.614224e+01	-5.565814e+01
9.700000e-07	-3.722855e-06	-8.469235e-10	-2.589827e+01	-5.565210e+01
9.800000e-07	-3.687478e-06	-8.407737e-10	-2.565217e+01	-5.564739e+01
9.900000e-07	-3.651944e-06	-8.331562e-10	-2.540497e+01	-5.564415e+01
1.000000e-06	-3.616340e-06	-8.403891e-10	-2.515729e+01	-5.564247e+01
1.010000e-06	-3.580638e-06	-8.396824e-10	-2.490893e+01	-5.564244e+01
1.020000e-06	-3.544757e-06	-8.367156e-10	-2.465932e+01	-5.564410e+01
1.030000e-06	-3.508711e-06	-8.439516e-10	-2.440856e+01	-5.564749e+01
1.040000e-06	-3.472600e-06	-8.491765e-10	-2.415736e+01	-5.565259e+01
1.050000e-06	-3.436208e-06	-8.400073e-10	-2.390419e+01	-5.565939e+01
1.060000e-06	-3.399376e-06	-8.356663e-10	-2.364797e+01	-5.566781e+01
1.070000e-06	-3.362283e-06	-8.378572e-10	-2.338993e+01	-5.567779e+01
1.080000e-06	-3.324966e-06	-8.320662e-10	-2.313033e+01	-5.568922e+01
1.090000e-06	-3.287421e-06	-8.285772e-10	-2.286915e+01	-5.570198e+01
1.100000e-06	-3.249675e-06	-8.340146e-10	-2.260657e+01	-5.571593e+01
1.110000e-06	-3.211750e-06	-8.342635e-10	-2.234274e+01	-5.573091e+01
1.120000e-06	-3.173661e-06	-8.285078e-10	-2.207777e+01	-5.574673e+01
1.130000e-06	-3.135326e-06	-8.295970e-10	-2.181109e+01	-5.576321e+01
1.140000e-06	-3.096705e-06	-8.289245e-10	-2.154242e+01	-5.578012e+01
1.150000e-06	-3.057848e-06	-8.250761e-10	-2.127211e+01	-5.579725e+01
1.160000e-06	-3.018910e-06	-8.242224e-10	-2.100123e+01	-5.581434e+01
1.170000e-06	-2.979819e-06	-8.257079e-10	-2.072929e+01	-5.583114e+01
1.180000e-06	-2.940365e-06	-8.244565e-10	-2.045483e+01	-5.584739e+01
1.190000e-06	-2.900724e-06	-8.273514e-10	-2.017906e+01	-5.586279e+01
1.200000e-06	-2.861042e-06	-8.293534e-10	-1.990301e+01	-5.587705e+01
1.210000e-06	-2.821241e-06	-8.271288e-10	-1.962613e+01	-5.588987e+01
1.220000e-06	-2.781360e-06	-8.217887e-10	-1.934870e+01	-5.590092e+01
1.230000e-06	-2.741363e-06	-8.216980e-10	-1.907046e+01	-5.590987e+01
1.240000e-06	-2.701159e-06	-8.204311e-10	-1.879078e+01	-5.591638e+01
1.250000e-06	-2.660730e-06	-8.185203e-10	-1.850953e+01	-5.592009e+01
1.260000e-06	-2.620028e-06	-8.185666e-10	-1.822638e+01	-5.592065e+01
1.270000e-06	-2.578997e-06	-8.212880e-10	-1.794095e+01	-5.591769e+01
1.280000e-06	-2.537694e-06	-8.192936e-10	-1.765363e+01	-5.591083e+01
1.290000e-06	-2.496139e-06	-8.175884e-10	-1.736454e+01	-5.589969e+01
1.300000e-06	-2.454341e-06	-8.183687e-10	-1.707377e+01	-5.588389e+01
1.310000e-06	-2.412235e-06	-8.176639e-10	-1.678086e+01	-5.586305e+01
1.320000e-06	-2.369806e-06	-8.156139e-10	-1.648570e+01	-5.583677e+01
1.330000e-06	-2.327097e-06	-8.141290e-10	-1.618859e+01	-5.580467e+01
1.340000e-06	-2.284090e-06	-8.121970e-10	-1.588941e+01	-5.576637e+01
1.350000e-06	-2.240910e-06	-8.125447e-10	-1.558903e+01	-5.572150e+01
1.360000e-06	-2.197566e-06	-8.158626e-10	-1.528750e+01	-5.566969e+01
1.370000e-06	-2.154036e-06	-8.177684e-10	-1.498468e+01	-5.561057e+01
1.380000e-06	-2.110402e-06	-8.162471e-10	-1.468114e+01	-5.554380e+01
1.390000e-06	-2.066735e-06	-8.130342e-10	-1.437737e+01	-5.546903e+01
1.400000e-06	-2.023023e-06	-8.097572e-10	-1.407329e+01	-5.538594e+01
1.410000e-06	-1.979225e-06	-8.038421e-10	-1.376860e+01	-5.529421e+01
1.420000e-06	-1.935394e-06	-7.985247e-10	-1.346369e+01	-5.519354e+01
1.430000e-06	-1.891480e-06	-7.992778e-10	-1.315820e+01	-5.508364e+01
1.440000e-06	-1.847419e-06	-8.022262e-10	-1.285169e+01	-5.496422e+01
1.450000e-06	-1.803202e-06	-8.000073e-10	-1.254409e+01	-5.483502e+01
1.460000e-06	-1.758801e-06	-7.971106e-10	-1.223520e+01	-5.469578e+01
1.470000e-06	-1.714327e-06	-7.942077e-10	-1.192582e+01	-5.454625e+01
1.480000e-06	-1.669783e-06	-7.898360e-10	-1.161595e+01	-5.438617e+01
1.490000e-06	-1.625151e-06	-7.814026e-10	-1.130546e+01	-5.421531e+01
1.500000e-06	-1.580336e-06	-7.734536e-10	-1.099370e+01	-5.403339e+01
1.510000e-06	-1.535262e-06	-7.666023e-10	-1.068015e+01	-5.384018e+01
1.520000e-06	-1.490061e-06	-7.622580e-10	-1.036570e+01	-5.363541e+01
1.530000e-06	-1.444809e-06	-7.615204e-10	-1.005090e+01	-5.341878e+01
1.540000e-06	-1.399490e-06	-7.617656e-10	-9.735641e+00	-5.319001e+01
1.550000e-06	-1.354051e-06	-7.588464e-10	-9.419537e+00	-5.294876e+01
1.560000e-06	-1.308578e-06	-7.538588e-10	-9.103203e+00	-5.269470e+01
1.570000e-06	-1.263119e-06	-7.477696e-10	-8.786962e+00	-5.242742e+01
1.580000e-06	-1.217592e-06	-7.400612e-10	-8.470254e+00	-5.214651e+01
1.590000e-06	-1.171943e-06	-7.318787e-10	-8.152694e+00	-5.185152e+01
1.600000e-06	-1.126181e-06	-7.259032e-10	-7.834348e+00	-5.154193e+01
1.610000e-06	-1.080348e-06	-7.236779e-10	-7.515508e+00	-5.121720e+01
1.620000e-06	-1.034456e-06	-7.234954e-10	-7.196256e+00	-5.087673e+01
1.630000e-06	-9.885070e-07	-7.213744e-10	-6.876610e+00	-5.051986e+01
1.640000e-06	-9.424756e-07	-7.151280e-10	-6.556389e+00	-5.014590e+01
1.650000e-06	-8.962802e-07	-7.047185e-10	-6.235028e+00	-4.975409e+01
1.660000e-06	-8.499856e-07	-6.941809e-10	-5.912977e+00	-4.934364e+01
1.670000e-06	-8.037064e-07	-6.841855e-10	-5.591033e+00	-4.891370e+01
1.680000e-06	-7.573476e-07	-6.744546e-10	-5.268535e+00	-4.846336e+01
1.690000e-06	-7.109357e-07	-6.663974e-10	-4.945668e+00	-4.799169e+01
1.700000e-06	-6.645454e-07	-6.564336e-10	-4.622951e+00	-4.749773e+01
1.710000e-06	-6.181673e-07	-6.488426e-10	-4.300319e+00	-4.698046e+01
1.720000e-06	-5.717565e-07	-6.445433e-10	-3.977459e+00	-4.643885e+01
1.730000e-06	-5.252233e-07	-6.378993e-10	-3.653748e+00	-4.587186e+01
1.740000e-06	-4.785912e-07	-6.266362e-10	-3.329349e+00	-4.527843e+01
1.750000e-06	-4.319344e-07	-6.136118e-10	-3.004778e+00	-4.465750e+01
1.760000e-06	-3.853235e-07	-5.999612e-10	-2.680527e+00	-4.400802e+01
1.770000e-06	-3.387166e-07	-5.870766e-10	-2.356303e+00	-4.332897e+01
1.780000e-06	-2.920853e-07	-5.781186e-10	-2.031909e+00	-4.261932e+01
1.790000e-06	-2.453860e-07	-5.702824e-10	-1.707043e+00	-4.187813e+01
1.800000e-06	-1.986154e-07	-5.608965e-10	-1.381680e+00	-4.110448e+01
1.810000e-06	-1.519052e-07	-5.491023e-10	-1.056738e+00	-4.029750e+01
1.820000e-06	-1.052495e-07	-5.334805e-10	-7.321749e-01	-3.945643e+01
1.830000e-06	-5.854194e-08	-5.163935e-10	-4.072506e-01	-3.858053e+01
1.840000e-06	-1.174323e-08	-4.999339e-10	-8.169250e-02	-3.766922e+01
1.850000e-06	3.508153e-08	-4.866454e-10	2.440468e-01	-3.672196e+01
1.860000e-06	8.191986e-08	-4.769133e-10	5.698805e-01	-3.573835e+01
1.870000e-06	1.287367e-07	-4.676876e-10	8.955649e-01	-3.471810e+01
1.880000e-06	1.754939e-07	-4.550733e-10	1.220834e+00	-3.366104e+01
1.890000e-06	2.222970e-07	-4.368398e-10	1.546423e+00	-3.256714e+01
1.900000e-06	2.690881e-07	-4.156216e-10	1.871928e+00	-3.143649e+01
1.910000e-06	3.157705e-07	-3.920514e-10	2.196677e+00	-3.026933e+01
1.920000e-06	3.624451e-07	-3.697874e-10	2.521371e+00	-2.906604e+01
1.930000e-06	4.090807e-07	-3.520358e-10	2.845795e+00	-2.782715e+01
1.940000e-06	4.556605e-07	-3.385007e-10	3.169830e+00	-2.655333e+01
1.950000e-06	5.022389e-07	-3.261684e-10	3.493856e+00	-2.524541e+01
1.960000e-06	5.487421e-07	-3.111050e-10	3.817358e+00	-2.390435e+01
1.970000e-06	5.950910e-07	-2.930535e-10	4.139787e+00	-2.253127e+01
1.980000e-06	6.414334e-07	-2.714942e-10	4.462171e+00	-2.112742e+01
1.990000e-06	6.878507e-07	-2.465710e-10	4.785076e+00	-1.969418e+01
2.000000e-06	7.341425e-07	-2.196783e-10	5.107108e+00	-1.823308e+01
2.010000e-06	7.803353e-07	-1.956814e-10	5.428450e+00	-1.674578e+01
2.020000e-06	8.265390e-07	-1.765990e-10	5.749870e+00	-1.523402e+01
2.030000e-06	8.726983e-07	-1.587412e-10	6.070979e+00	-1.369970e+01
2.040000e-06	9.188007e-07	-1.421109e-10	6.391694e+00	-1.214479e+01
2.050000e-06	9.648507e-07	-1.242318e-10	6.712043e+00	-1.057136e+01
2.060000e-06	1.010869e-06	-1.034043e-10	7.032174e+00	-8.981560e+00
2.070000e-06	1.056790e-06	-8.023332e-11	7.351626e+00	-7.377627e+00
2.080000e-06	1.102567e-06	-5.502181e-11	7.670075e+00	-5.761844e+00
2.090000e-06	1.148321e-06	-2.936609e-11	7.988363e+00	-4.136548e+00
2.100000e-06	1.194043e-06	-4.834432e-12	8.306437e+00	-2.504118e+00
2.110000e-06	1.239683e-06	1.603077e-11	8.623933e+00	-8.669543e-01
2.120000e-06	1.285251e-06	3.430625e-11	8.940931e+00	7.725237e-01
2.130000e-06	1.330755e-06	5.332318e-11	9.257481e+00	2.411896e+00
2.140000e-06	1.376172e-06	7.406946e-11	9.573424e+00	4.048750e+00
2.150000e-06	1.421480e-06	9.573832e-11	9.888615e+00	5.680696e+00
2.160000e-06	1.466703e-06	1.198601e-10	1.020321e+01	7.305376e+00
2.170000e-06	1.511774e-06	1.441303e-10	1.051675e+01	8.920474e+00
2.180000e-06	1.556634e-06	1.659248e-10	1.082882e+01	1.052373e+01
2.190000e-06	1.601293e-06	1.866761e-10	1.113949e+01	1.211295e+01
2.200000e-06	1.645876e-06	2.070254e-10	1.144964e+01	1.368601e+01
2.210000e-06	1.690454e-06	2.258218e-10	1.175975e+01	1.524087e+01
2.220000e-06	1.734914e-06	2.455310e-10	1.206903e+01	1.677560e+01
2.230000e-06	1.779170e-06	2.676165e-10	1.237691e+01	1.828834e+01
2.240000e-06	1.823279e-06	2.897684e-10	1.268375e+01	1.977736e+01
2.250000e-06	1.867308e-06	3.111959e-10	1.299004e+01	2.124105e+01
2.260000e-06	1.911237e-06	3.317027e-10	1.329564e+01	2.267789e+01
2.270000e-06	1.955066e-06	3.499776e-10	1.360054e+01	2.408651e+01
2.280000e-06	1.998829e-06	3.673121e-10	1.390498e+01	2.546567e+01
2.290000e-06	2.042582e-06	3.849026e-10	1.420935e+01	2.681424e+01
2.300000e-06	2.086277e-06	4.023516e-10	1.451331e+01	2.813123e+01
2.310000e-06	2.129872e-06	4.207694e-10	1.481659e+01	2.941579e+01
2.320000e-06	2.173410e-06	4.405533e-10	1.511946e+01	3.066721e+01
2.330000e-06	2.216891e-06	4.597390e-10	1.542194e+01	3.188488e+01
2.340000e-06	2.260224e-06	4.768464e-10	1.572339e+01	3.306836e+01
2.350000e-06	2.303340e-06	4.921919e-10	1.602333e+01	3.421730e+01
2.360000e-06	2.346202e-06	5.061607e-10	1.632150e+01	3.533149e+01
2.370000e-06	2.388851e-06	5.185364e-10	1.661819e+01	3.641083e+01
2.380000e-06	2.431263e-06	5.301088e-10	1.691323e+01	3.745534e+01
2.390000e-06	2.473292e-06	5.443875e-10	1.720561e+01	3.846515e+01
2.400000e-06	2.514954e-06	5.602456e-10	1.749543e+01	3.944046e+01
2.410000e-06	2.556343e-06	5.768452e-10	1.778336e+01	4.038159e+01
2.420000e-06	2.597381e-06	5.917754e-10	1.806884e+01	4.128893e+01
2.430000e-06	2.638056e-06	6.024523e-10	1.835180e+01	4.216295e+01
2.440000e-06	2.678548e-06	6.095962e-10	1.863348e+01	4.300418e+01
2.450000e-06	2.718830e-06	6.161237e-10	1.891371e+01	4.381322e+01
2.460000e-06	2.758891e-06	6.258168e-10	1.919240e+01	4.459070e+01
2.470000e-06	2.798871e-06	6.379198e-10	1.947052e+01	4.533730e+01
2.480000e-06	2.838769e-06	6.488226e-10	1.974807e+01	4.605375e+01
2.490000e-06	2.878515e-06	6.571233e-10	2.002457e+01	4.674077e+01
2.500000e-06	2.918115e-06	6.626229e-10	2.030005e+01	4.739914e+01
2.510000e-06	2.957577e-06	6.685218e-10	2.057456e+01	4.802961e+01
2.520000e-06	2.996835e-06	6.754061e-10	2.084767e+01	4.863297e+01
2.530000e-06	3.035828e-06	6.828885e-10	2.111892e+01	4.920998e+01
2.540000e-06	3.074664e-06	6.916848e-10	2.138909e+01	4.976141e+01
2.550000e-06	3.113277e-06	7.005077e-10	2.165770e+01	5.028802e+01
2.560000e-06	3.151664e-06	7.080628e-10	2.192474e+01	5.079055e+01
2.570000e-06	3.189922e-06	7.142304e-10	2.219089e+01	5.126972e+01
2.580000e-06	3.227894e-06	7.204465e-10	2.245504e+01	5.172626e+01
2.590000e-06	3.265666e-06	7.264590e-10	2.271781e+01	5.216085e+01
2.600000e-06	3.303273e-06	7.316034e-10	2.297943e+01	5.257415e+01
2.610000e-06	3.340614e-06	7.367504e-10	2.323918e+01	5.296683e+01
2.620000e-06	3.377688e-06	7.435540e-10	2.349709e+01	5.333951e+01
2.630000e-06	3.414437e-06	7.511490e-10	2.375274e+01	5.369282e+01
2.640000e-06	3.450945e-06	7.579867e-10	2.400671e+01	5.402735e+01
2.650000e-06	3.487217e-06	7.627166e-10	2.425904e+01	5.434370e+01
2.660000e-06	3.523267e-06	7.657154e-10	2.450982e+01	5.464244e+01
2.670000e-06	3.559215e-06	7.679734e-10	2.475990e+01	5.492415e+01
2.680000e-06	3.595047e-06	7.704878e-10	2.500917e+01	5.518940e+01
2.690000e-06	3.630753e-06	7.735258e-10	2.525755e+01	5.543874e+01
2.700000e-06	3.666254e-06	7.789540e-10	2.550452e+01	5.567274e+01
2.710000e-06	3.701555e-06	7.850367e-10	2.575010e+01	5.589198e+01
2.720000e-06	3.736653e-06	7.896814e-10	2.599426e+01	5.609700e+01
2.730000e-06	3.771427e-06	7.937330e-10	2.623617e+01	5.628840e+01
2.740000e-06	3.805739e-06	7.985395e-10	2.647486e+01	5.646676e+01
2.750000e-06	3.839588e-06	8.008134e-10	2.671033e+01	5.663265e+01
2.760000e-06	3.873028e-06	7.988636e-10	2.694296e+01	5.678666e+01
2.770000e-06	3.905978e-06	7.960245e-10	2.717217e+01	5.692940e+01
2.780000e-06	3.938471e-06	7.957408e-10	2.739821e+01	5.706146e+01
2.790000e-06	3.970605e-06	7.999077e-10	2.762176e+01	5.718345e+01
2.800000e-06	4.002544e-06	8.064734e-10	2.784394e+01	5.729595e+01
2.810000e-06	4.034380e-06	8.112771e-10	2.806542e+01	5.739956e+01
2.820000e-06	4.066032e-06	8.146348e-10	2.828560e+01	5.749487e+01
2.830000e-06	4.097484e-06	8.152460e-10	2.850440e+01	5.758243e+01
2.840000e-06	4.128731e-06	8.121985e-10	2.872177e+01	5.766282e+01
2.850000e-06	4.159715e-06	8.068916e-10	2.893731e+01	5.773655e+01
2.860000e-06	4.190380e-06	8.038870e-10	2.915064e+01	5.780413e+01
2.870000e-06	4.220677e-06	8.076162e-10	2.936140e+01	5.786604e+01
2.880000e-06	4.250649e-06	8.143638e-10	2.956990e+01	5.792272e+01
2.890000e-06	4.280381e-06	8.207888e-10	2.977674e+01	5.797457e+01
2.900000e-06	4.309857e-06	8.224245e-10	2.998179e+01	5.802195e+01
