# Temperatura_=_-9.52
# Concentracion g/m^3_=_1620.0
# C_Vs_to_Am_M_A/Vsm_=_65563218390.804596
# pendiente_HvsI_1/m_=_3716.3
# ordenada_HvsI_A/m_=_1297.0
# frecuencia_Hz_=_135103.59123217882

Tiempo_(s)	Campo_(V.s)	Magnetizacion_(V.s)	Campo_(kA/m)	Magnetizacion_(A/m)
0.000000e+00	-5.510423e-06	-1.176278e-09	-3.836442e+01	-7.627586e+01
1.000000e-08	-5.510505e-06	-1.175527e-09	-3.836500e+01	-7.626502e+01
2.000000e-08	-5.510347e-06	-1.176061e-09	-3.836390e+01	-7.625741e+01
3.000000e-08	-5.509783e-06	-1.175486e-09	-3.835997e+01	-7.625258e+01
4.000000e-08	-5.508704e-06	-1.174054e-09	-3.835246e+01	-7.625002e+01
5.000000e-08	-5.507005e-06	-1.168196e-09	-3.834063e+01	-7.624909e+01
6.000000e-08	-5.504820e-06	-1.155461e-09	-3.832541e+01	-7.624908e+01
7.000000e-08	-5.502052e-06	-1.148617e-09	-3.830614e+01	-7.624923e+01
8.000000e-08	-5.498696e-06	-1.175032e-09	-3.828278e+01	-7.624870e+01
9.000000e-08	-5.494944e-06	-1.226155e-09	-3.825666e+01	-7.624659e+01
1.000000e-07	-5.490844e-06	-1.231385e-09	-3.822811e+01	-7.624198e+01
1.100000e-07	-5.486411e-06	-1.152622e-09	-3.819725e+01	-7.623394e+01
1.200000e-07	-5.481763e-06	-1.096635e-09	-3.816489e+01	-7.622151e+01
1.300000e-07	-5.476954e-06	-1.144780e-09	-3.813140e+01	-7.620377e+01
1.400000e-07	-5.471710e-06	-1.203557e-09	-3.809490e+01	-7.617980e+01
1.500000e-07	-5.465967e-06	-1.170740e-09	-3.805491e+01	-7.614875e+01
1.600000e-07	-5.459865e-06	-1.120027e-09	-3.801243e+01	-7.610983e+01
1.700000e-07	-5.453400e-06	-1.169612e-09	-3.796742e+01	-7.606230e+01
1.800000e-07	-5.446437e-06	-1.222702e-09	-3.791894e+01	-7.600555e+01
1.900000e-07	-5.439101e-06	-1.165844e-09	-3.786787e+01	-7.593903e+01
2.000000e-07	-5.431574e-06	-1.075811e-09	-3.781546e+01	-7.586233e+01
2.100000e-07	-5.423846e-06	-1.111976e-09	-3.776166e+01	-7.577517e+01
2.200000e-07	-5.415853e-06	-1.185010e-09	-3.770601e+01	-7.567736e+01
2.300000e-07	-5.407519e-06	-1.177796e-09	-3.764799e+01	-7.556889e+01
2.400000e-07	-5.398684e-06	-1.113687e-09	-3.758648e+01	-7.544984e+01
2.500000e-07	-5.389111e-06	-1.112266e-09	-3.751983e+01	-7.532047e+01
2.600000e-07	-5.378833e-06	-1.129503e-09	-3.744827e+01	-7.518112e+01
2.700000e-07	-5.367967e-06	-1.112642e-09	-3.737262e+01	-7.503230e+01
2.800000e-07	-5.356645e-06	-1.092422e-09	-3.729380e+01	-7.487462e+01
2.900000e-07	-5.345001e-06	-1.113114e-09	-3.721273e+01	-7.470881e+01
3.000000e-07	-5.333011e-06	-1.129410e-09	-3.712926e+01	-7.453568e+01
3.100000e-07	-5.320631e-06	-1.108095e-09	-3.704306e+01	-7.435613e+01
3.200000e-07	-5.307781e-06	-1.090164e-09	-3.695360e+01	-7.417115e+01
3.300000e-07	-5.294487e-06	-1.093102e-09	-3.686104e+01	-7.398176e+01
3.400000e-07	-5.280777e-06	-1.102875e-09	-3.676559e+01	-7.378904e+01
3.500000e-07	-5.266683e-06	-1.085161e-09	-3.666747e+01	-7.359407e+01
3.600000e-07	-5.252214e-06	-1.082558e-09	-3.656674e+01	-7.339794e+01
3.700000e-07	-5.237251e-06	-1.101887e-09	-3.646255e+01	-7.320176e+01
3.800000e-07	-5.221772e-06	-1.110805e-09	-3.635479e+01	-7.300655e+01
3.900000e-07	-5.205761e-06	-1.078357e-09	-3.624332e+01	-7.281335e+01
4.000000e-07	-5.189376e-06	-1.073035e-09	-3.612924e+01	-7.262308e+01
4.100000e-07	-5.172636e-06	-1.096450e-09	-3.601270e+01	-7.243665e+01
4.200000e-07	-5.155396e-06	-1.088965e-09	-3.589267e+01	-7.225483e+01
4.300000e-07	-5.137863e-06	-1.059839e-09	-3.577061e+01	-7.207833e+01
4.400000e-07	-5.120172e-06	-1.086757e-09	-3.564744e+01	-7.190776e+01
4.500000e-07	-5.102072e-06	-1.101984e-09	-3.552142e+01	-7.174360e+01
4.600000e-07	-5.083512e-06	-1.061485e-09	-3.539220e+01	-7.158624e+01
4.700000e-07	-5.064548e-06	-1.043575e-09	-3.526017e+01	-7.143594e+01
4.800000e-07	-5.045267e-06	-1.079923e-09	-3.512593e+01	-7.129287e+01
4.900000e-07	-5.025738e-06	-1.069839e-09	-3.498997e+01	-7.115707e+01
5.000000e-07	-5.005956e-06	-1.044953e-09	-3.485225e+01	-7.102849e+01
5.100000e-07	-4.986003e-06	-1.058538e-09	-3.471333e+01	-7.090697e+01
5.200000e-07	-4.965777e-06	-1.061783e-09	-3.457251e+01	-7.079226e+01
5.300000e-07	-4.945128e-06	-1.039605e-09	-3.442875e+01	-7.068404e+01
5.400000e-07	-4.924016e-06	-1.054771e-09	-3.428177e+01	-7.058189e+01
5.500000e-07	-4.902575e-06	-1.063184e-09	-3.413249e+01	-7.048536e+01
5.600000e-07	-4.880891e-06	-1.033637e-09	-3.398152e+01	-7.039394e+01
5.700000e-07	-4.858892e-06	-1.033880e-09	-3.382836e+01	-7.030706e+01
5.800000e-07	-4.836495e-06	-1.060236e-09	-3.367243e+01	-7.022416e+01
5.900000e-07	-4.813760e-06	-1.048863e-09	-3.351415e+01	-7.014463e+01
6.000000e-07	-4.790739e-06	-1.032426e-09	-3.335387e+01	-7.006787e+01
6.100000e-07	-4.767388e-06	-1.043412e-09	-3.319130e+01	-6.999330e+01
6.200000e-07	-4.743776e-06	-1.038460e-09	-3.302691e+01	-6.992033e+01
6.300000e-07	-4.719951e-06	-1.027206e-09	-3.286104e+01	-6.984841e+01
6.400000e-07	-4.695870e-06	-1.032928e-09	-3.269338e+01	-6.977703e+01
6.500000e-07	-4.671464e-06	-1.034003e-09	-3.252346e+01	-6.970569e+01
6.600000e-07	-4.646653e-06	-1.026650e-09	-3.235072e+01	-6.963396e+01
6.700000e-07	-4.621384e-06	-1.033882e-09	-3.217480e+01	-6.956144e+01
6.800000e-07	-4.595546e-06	-1.032098e-09	-3.199490e+01	-6.948777e+01
6.900000e-07	-4.569095e-06	-1.024990e-09	-3.181075e+01	-6.941266e+01
7.000000e-07	-4.542093e-06	-1.025958e-09	-3.162276e+01	-6.933585e+01
7.100000e-07	-4.514744e-06	-1.025584e-09	-3.143235e+01	-6.925712e+01
7.200000e-07	-4.487221e-06	-1.017308e-09	-3.124073e+01	-6.917630e+01
7.300000e-07	-4.459501e-06	-1.024709e-09	-3.104774e+01	-6.909327e+01
7.400000e-07	-4.431574e-06	-1.026414e-09	-3.085331e+01	-6.900792e+01
7.500000e-07	-4.403419e-06	-1.013936e-09	-3.065729e+01	-6.892017e+01
7.600000e-07	-4.374968e-06	-1.006007e-09	-3.045921e+01	-6.882999e+01
7.700000e-07	-4.346160e-06	-1.006457e-09	-3.025865e+01	-6.873732e+01
7.800000e-07	-4.317066e-06	-9.971797e-10	-3.005608e+01	-6.864216e+01
7.900000e-07	-4.287695e-06	-9.966109e-10	-2.985160e+01	-6.854449e+01
8.000000e-07	-4.257987e-06	-1.002812e-09	-2.964477e+01	-6.844428e+01
8.100000e-07	-4.228047e-06	-9.954212e-10	-2.943632e+01	-6.834153e+01
8.200000e-07	-4.197879e-06	-9.825056e-10	-2.922629e+01	-6.823621e+01
8.300000e-07	-4.167404e-06	-9.838326e-10	-2.901411e+01	-6.812829e+01
8.400000e-07	-4.136617e-06	-9.833316e-10	-2.879977e+01	-6.801772e+01
8.500000e-07	-4.105531e-06	-9.762168e-10	-2.858335e+01	-6.790444e+01
8.600000e-07	-4.074115e-06	-9.779039e-10	-2.836462e+01	-6.778840e+01
8.700000e-07	-4.042466e-06	-9.801492e-10	-2.814428e+01	-6.766950e+01
8.800000e-07	-4.010713e-06	-9.715901e-10	-2.792321e+01	-6.754767e+01
8.900000e-07	-3.978820e-06	-9.654464e-10	-2.770117e+01	-6.742281e+01
9.000000e-07	-3.946692e-06	-9.659590e-10	-2.747748e+01	-6.729482e+01
9.100000e-07	-3.914319e-06	-9.591861e-10	-2.725210e+01	-6.716361e+01
9.200000e-07	-3.881643e-06	-9.549377e-10	-2.702461e+01	-6.702908e+01
9.300000e-07	-3.848520e-06	-9.604255e-10	-2.679399e+01	-6.689115e+01
9.400000e-07	-3.814950e-06	-9.627069e-10	-2.656028e+01	-6.674975e+01
9.500000e-07	-3.780913e-06	-9.550221e-10	-2.632331e+01	-6.660484e+01
9.600000e-07	-3.746458e-06	-9.519911e-10	-2.608342e+01	-6.645638e+01
9.700000e-07	-3.711596e-06	-9.488020e-10	-2.584071e+01	-6.630438e+01
9.800000e-07	-3.676400e-06	-9.418889e-10	-2.559567e+01	-6.614887e+01
9.900000e-07	-3.640974e-06	-9.368941e-10	-2.534903e+01	-6.598990e+01
1.000000e-06	-3.605341e-06	-9.357882e-10	-2.510095e+01	-6.582758e+01
1.010000e-06	-3.569544e-06	-9.316318e-10	-2.485172e+01	-6.566204e+01
1.020000e-06	-3.533611e-06	-9.307070e-10	-2.460155e+01	-6.549345e+01
1.030000e-06	-3.497564e-06	-9.336495e-10	-2.435059e+01	-6.532201e+01
1.040000e-06	-3.461286e-06	-9.339107e-10	-2.409801e+01	-6.514796e+01
1.050000e-06	-3.424727e-06	-9.260872e-10	-2.384348e+01	-6.497155e+01
1.060000e-06	-3.387862e-06	-9.225011e-10	-2.358683e+01	-6.479308e+01
1.070000e-06	-3.350713e-06	-9.236111e-10	-2.332819e+01	-6.461285e+01
1.080000e-06	-3.313357e-06	-9.209484e-10	-2.306811e+01	-6.443117e+01
1.090000e-06	-3.275739e-06	-9.172036e-10	-2.280621e+01	-6.424838e+01
1.100000e-06	-3.237881e-06	-9.141320e-10	-2.254263e+01	-6.406479e+01
1.110000e-06	-3.199867e-06	-9.064113e-10	-2.227797e+01	-6.388071e+01
1.120000e-06	-3.161717e-06	-8.981226e-10	-2.201237e+01	-6.369644e+01
1.130000e-06	-3.123358e-06	-8.951319e-10	-2.174531e+01	-6.351225e+01
1.140000e-06	-3.084797e-06	-8.960818e-10	-2.147684e+01	-6.332835e+01
1.150000e-06	-3.045984e-06	-8.995541e-10	-2.120662e+01	-6.314496e+01
1.160000e-06	-3.006842e-06	-9.023400e-10	-2.093410e+01	-6.296219e+01
1.170000e-06	-2.967510e-06	-9.009050e-10	-2.066027e+01	-6.278015e+01
1.180000e-06	-2.928109e-06	-8.969380e-10	-2.038595e+01	-6.259884e+01
1.190000e-06	-2.888581e-06	-8.940267e-10	-2.011075e+01	-6.241823e+01
1.200000e-06	-2.848839e-06	-8.888525e-10	-1.983406e+01	-6.223820e+01
1.210000e-06	-2.808949e-06	-8.822662e-10	-1.955634e+01	-6.205857e+01
1.220000e-06	-2.768970e-06	-8.798275e-10	-1.927800e+01	-6.187907e+01
1.230000e-06	-2.728854e-06	-8.822650e-10	-1.899871e+01	-6.169938e+01
1.240000e-06	-2.688626e-06	-8.817643e-10	-1.871863e+01	-6.151911e+01
1.250000e-06	-2.648210e-06	-8.772974e-10	-1.843725e+01	-6.133777e+01
1.260000e-06	-2.607490e-06	-8.720975e-10	-1.815375e+01	-6.115485e+01
1.270000e-06	-2.566522e-06	-8.680361e-10	-1.786853e+01	-6.096976e+01
1.280000e-06	-2.525264e-06	-8.619846e-10	-1.758128e+01	-6.078187e+01
1.290000e-06	-2.483672e-06	-8.568555e-10	-1.729171e+01	-6.059051e+01
1.300000e-06	-2.441867e-06	-8.525094e-10	-1.700066e+01	-6.039496e+01
1.310000e-06	-2.399805e-06	-8.498762e-10	-1.670782e+01	-6.019450e+01
1.320000e-06	-2.357415e-06	-8.492756e-10	-1.641269e+01	-5.998839e+01
1.330000e-06	-2.314728e-06	-8.463760e-10	-1.611550e+01	-5.977588e+01
1.340000e-06	-2.271792e-06	-8.433827e-10	-1.581657e+01	-5.955623e+01
1.350000e-06	-2.228585e-06	-8.431673e-10	-1.551575e+01	-5.932872e+01
1.360000e-06	-2.185137e-06	-8.410607e-10	-1.521326e+01	-5.909264e+01
1.370000e-06	-2.141576e-06	-8.344608e-10	-1.490999e+01	-5.884734e+01
1.380000e-06	-2.097926e-06	-8.259965e-10	-1.460609e+01	-5.859219e+01
1.390000e-06	-2.054182e-06	-8.208367e-10	-1.430153e+01	-5.832660e+01
1.400000e-06	-2.010326e-06	-8.177695e-10	-1.399620e+01	-5.805004e+01
1.410000e-06	-1.966386e-06	-8.134268e-10	-1.369029e+01	-5.776205e+01
1.420000e-06	-1.922381e-06	-8.088253e-10	-1.338392e+01	-5.746221e+01
1.430000e-06	-1.878292e-06	-8.046945e-10	-1.307696e+01	-5.715015e+01
1.440000e-06	-1.834150e-06	-7.987240e-10	-1.276964e+01	-5.682559e+01
1.450000e-06	-1.789925e-06	-7.901528e-10	-1.246173e+01	-5.648826e+01
1.460000e-06	-1.745600e-06	-7.832545e-10	-1.215314e+01	-5.613799e+01
1.470000e-06	-1.701208e-06	-7.760513e-10	-1.184408e+01	-5.577461e+01
1.480000e-06	-1.656700e-06	-7.677351e-10	-1.153420e+01	-5.539802e+01
1.490000e-06	-1.612039e-06	-7.576518e-10	-1.122327e+01	-5.500815e+01
1.500000e-06	-1.567219e-06	-7.459757e-10	-1.091123e+01	-5.460493e+01
1.510000e-06	-1.522322e-06	-7.363192e-10	-1.059864e+01	-5.418833e+01
1.520000e-06	-1.477276e-06	-7.285829e-10	-1.028503e+01	-5.375831e+01
1.530000e-06	-1.432035e-06	-7.218666e-10	-9.970049e+00	-5.331483e+01
1.540000e-06	-1.386673e-06	-7.143871e-10	-9.654236e+00	-5.285784e+01
1.550000e-06	-1.341224e-06	-7.051436e-10	-9.337810e+00	-5.238724e+01
1.560000e-06	-1.295685e-06	-6.970374e-10	-9.020762e+00	-5.190292e+01
1.570000e-06	-1.250068e-06	-6.889639e-10	-8.703165e+00	-5.140472e+01
1.580000e-06	-1.204381e-06	-6.810067e-10	-8.385087e+00	-5.089240e+01
1.590000e-06	-1.158611e-06	-6.723638e-10	-8.066431e+00	-5.036570e+01
1.600000e-06	-1.112834e-06	-6.645887e-10	-7.747725e+00	-4.982425e+01
1.610000e-06	-1.067036e-06	-6.594565e-10	-7.428873e+00	-4.926764e+01
1.620000e-06	-1.021133e-06	-6.547197e-10	-7.109288e+00	-4.869537e+01
1.630000e-06	-9.751750e-07	-6.505500e-10	-6.789321e+00	-4.810686e+01
1.640000e-06	-9.291275e-07	-6.437336e-10	-6.468731e+00	-4.750145e+01
1.650000e-06	-8.829645e-07	-6.330630e-10	-6.147337e+00	-4.687841e+01
1.660000e-06	-8.367616e-07	-6.209231e-10	-5.825665e+00	-4.623693e+01
1.670000e-06	-7.905335e-07	-6.074700e-10	-5.503817e+00	-4.557614e+01
1.680000e-06	-7.443130e-07	-5.945826e-10	-5.182023e+00	-4.489509e+01
1.690000e-06	-6.980058e-07	-5.819285e-10	-4.859625e+00	-4.419278e+01
1.700000e-06	-6.515604e-07	-5.694223e-10	-4.536265e+00	-4.346816e+01
1.710000e-06	-6.050806e-07	-5.597057e-10	-4.212666e+00	-4.272016e+01
1.720000e-06	-5.585291e-07	-5.489573e-10	-3.888567e+00	-4.194766e+01
1.730000e-06	-5.120133e-07	-5.352144e-10	-3.564716e+00	-4.114953e+01
1.740000e-06	-4.655617e-07	-5.206762e-10	-3.241313e+00	-4.032466e+01
1.750000e-06	-4.189496e-07	-5.048669e-10	-2.916792e+00	-3.947192e+01
1.760000e-06	-3.721893e-07	-4.893896e-10	-2.591240e+00	-3.859023e+01
1.770000e-06	-3.254088e-07	-4.767113e-10	-2.265547e+00	-3.767854e+01
1.780000e-06	-2.785872e-07	-4.659942e-10	-1.939568e+00	-3.673584e+01
1.790000e-06	-2.318174e-07	-4.564609e-10	-1.613949e+00	-3.576121e+01
1.800000e-06	-1.851725e-07	-4.453667e-10	-1.289200e+00	-3.475378e+01
1.810000e-06	-1.384060e-07	-4.305911e-10	-9.636042e-01	-3.371279e+01
1.820000e-06	-9.152722e-08	-4.145562e-10	-6.372268e-01	-3.263757e+01
1.830000e-06	-4.471478e-08	-3.993133e-10	-3.113113e-01	-3.152755e+01
1.840000e-06	2.081357e-09	-3.841456e-10	1.449073e-02	-3.038231e+01
1.850000e-06	4.889959e-08	-3.676479e-10	3.404465e-01	-2.920152e+01
1.860000e-06	9.568336e-08	-3.509413e-10	6.661625e-01	-2.798501e+01
1.870000e-06	1.424565e-07	-3.337734e-10	9.918043e-01	-2.673274e+01
1.880000e-06	1.892020e-07	-3.149604e-10	1.317254e+00	-2.544480e+01
1.890000e-06	2.358390e-07	-2.955579e-10	1.641948e+00	-2.412144e+01
1.900000e-06	2.824588e-07	-2.751912e-10	1.966522e+00	-2.276305e+01
1.910000e-06	3.292054e-07	-2.527485e-10	2.291979e+00	-2.137018e+01
1.920000e-06	3.759183e-07	-2.297914e-10	2.617202e+00	-1.994349e+01
1.930000e-06	4.225056e-07	-2.095189e-10	2.941550e+00	-1.848383e+01
1.940000e-06	4.689988e-07	-1.899933e-10	3.265243e+00	-1.699215e+01
1.950000e-06	5.153936e-07	-1.700864e-10	3.588251e+00	-1.546955e+01
1.960000e-06	5.617286e-07	-1.502653e-10	3.910842e+00	-1.391728e+01
1.970000e-06	6.080502e-07	-1.297905e-10	4.233340e+00	-1.233668e+01
1.980000e-06	6.543795e-07	-1.087281e-10	4.555892e+00	-1.072923e+01
1.990000e-06	7.006638e-07	-8.461958e-11	4.878130e+00	-9.096528e+00
2.000000e-06	7.468772e-07	-5.639047e-11	5.199876e+00	-7.440257e+00
2.010000e-06	7.930674e-07	-2.875100e-11	5.521459e+00	-5.762207e+00
2.020000e-06	8.392486e-07	-5.758099e-12	5.842980e+00	-4.064255e+00
2.030000e-06	8.853916e-07	1.615323e-11	6.164234e+00	-2.348358e+00
2.040000e-06	9.314754e-07	3.913284e-11	6.485077e+00	-6.165414e-01
2.050000e-06	9.774812e-07	6.173248e-11	6.805377e+00	1.129104e+00
2.060000e-06	1.023464e-06	8.520469e-11	7.125514e+00	2.886437e+00
2.070000e-06	1.069357e-06	1.108698e-10	7.445030e+00	4.653269e+00
2.080000e-06	1.115153e-06	1.364085e-10	7.763870e+00	6.427378e+00
2.090000e-06	1.160860e-06	1.623523e-10	8.082087e+00	8.206516e+00
2.100000e-06	1.206458e-06	1.898049e-10	8.399548e+00	9.988417e+00
2.110000e-06	1.252072e-06	2.178426e-10	8.717118e+00	1.177081e+01
2.120000e-06	1.297605e-06	2.456535e-10	9.034128e+00	1.355141e+01
2.130000e-06	1.342956e-06	2.716629e-10	9.349870e+00	1.532797e+01
2.140000e-06	1.388242e-06	2.933293e-10	9.665160e+00	1.709823e+01
2.150000e-06	1.433420e-06	3.123081e-10	9.979693e+00	1.885997e+01
2.160000e-06	1.478463e-06	3.322691e-10	1.029329e+01	2.061102e+01
2.170000e-06	1.523439e-06	3.563646e-10	1.060642e+01	2.234924e+01
2.180000e-06	1.568282e-06	3.839110e-10	1.091863e+01	2.407255e+01
2.190000e-06	1.612895e-06	4.114055e-10	1.122923e+01	2.577891e+01
2.200000e-06	1.657383e-06	4.385007e-10	1.153896e+01	2.746638e+01
2.210000e-06	1.701847e-06	4.622939e-10	1.184853e+01	2.913308e+01
2.220000e-06	1.746242e-06	4.818200e-10	1.215761e+01	3.077722e+01
2.230000e-06	1.790522e-06	4.989519e-10	1.246589e+01	3.239710e+01
2.240000e-06	1.834610e-06	5.155991e-10	1.277284e+01	3.399113e+01
2.250000e-06	1.878547e-06	5.340222e-10	1.307873e+01	3.555780e+01
2.260000e-06	1.922464e-06	5.567905e-10	1.338449e+01	3.709573e+01
2.270000e-06	1.966379e-06	5.811496e-10	1.369023e+01	3.860365e+01
2.280000e-06	2.010211e-06	6.038030e-10	1.399540e+01	4.008041e+01
2.290000e-06	2.053970e-06	6.228799e-10	1.430006e+01	4.152498e+01
2.300000e-06	2.097672e-06	6.391372e-10	1.460432e+01	4.293646e+01
2.310000e-06	2.141266e-06	6.554656e-10	1.490783e+01	4.431406e+01
2.320000e-06	2.184718e-06	6.724543e-10	1.521035e+01	4.565714e+01
2.330000e-06	2.228003e-06	6.898092e-10	1.551170e+01	4.696517e+01
2.340000e-06	2.271100e-06	7.070021e-10	1.581175e+01	4.823775e+01
2.350000e-06	2.313972e-06	7.236103e-10	1.611024e+01	4.947460e+01
2.360000e-06	2.356533e-06	7.391582e-10	1.640655e+01	5.067556e+01
2.370000e-06	2.398808e-06	7.527325e-10	1.670087e+01	5.184060e+01
2.380000e-06	2.440897e-06	7.642304e-10	1.699390e+01	5.296976e+01
2.390000e-06	2.482703e-06	7.770326e-10	1.728496e+01	5.406323e+01
2.400000e-06	2.524122e-06	7.910272e-10	1.757333e+01	5.512126e+01
2.410000e-06	2.565215e-06	8.048781e-10	1.785942e+01	5.614421e+01
2.420000e-06	2.606035e-06	8.167130e-10	1.814362e+01	5.713251e+01
2.430000e-06	2.646618e-06	8.261557e-10	1.842617e+01	5.808667e+01
2.440000e-06	2.686970e-06	8.338142e-10	1.870711e+01	5.900727e+01
2.450000e-06	2.727152e-06	8.431503e-10	1.898685e+01	5.989493e+01
2.460000e-06	2.767204e-06	8.562185e-10	1.926571e+01	6.075032e+01
2.470000e-06	2.807109e-06	8.693601e-10	1.954353e+01	6.157416e+01
2.480000e-06	2.846897e-06	8.796704e-10	1.982054e+01	6.236720e+01
2.490000e-06	2.886584e-06	8.887049e-10	2.009685e+01	6.313019e+01
2.500000e-06	2.926170e-06	8.972698e-10	2.037245e+01	6.386391e+01
2.510000e-06	2.965597e-06	9.066191e-10	2.064695e+01	6.456916e+01
2.520000e-06	3.004786e-06	9.176742e-10	2.091979e+01	6.524673e+01
2.530000e-06	3.043751e-06	9.269989e-10	2.119107e+01	6.589739e+01
2.540000e-06	3.082515e-06	9.346036e-10	2.146095e+01	6.652194e+01
2.550000e-06	3.120991e-06	9.404708e-10	2.172883e+01	6.712113e+01
2.560000e-06	3.159205e-06	9.450400e-10	2.199487e+01	6.769572e+01
2.570000e-06	3.197248e-06	9.506150e-10	2.225974e+01	6.824645e+01
2.580000e-06	3.235132e-06	9.567213e-10	2.252349e+01	6.877403e+01
2.590000e-06	3.272836e-06	9.638605e-10	2.278600e+01	6.927918e+01
2.600000e-06	3.310387e-06	9.722635e-10	2.304743e+01	6.976257e+01
2.610000e-06	3.347732e-06	9.820329e-10	2.330743e+01	7.022489e+01
2.620000e-06	3.384800e-06	9.926109e-10	2.356551e+01	7.066678e+01
2.630000e-06	3.421590e-06	1.000481e-09	2.382165e+01	7.108891e+01
2.640000e-06	3.458111e-06	1.006451e-09	2.407591e+01	7.149190e+01
2.650000e-06	3.494385e-06	1.010735e-09	2.432845e+01	7.187638e+01
2.660000e-06	3.530429e-06	1.014893e-09	2.457940e+01	7.224300e+01
2.670000e-06	3.566319e-06	1.021399e-09	2.482927e+01	7.259237e+01
2.680000e-06	3.602092e-06	1.028485e-09	2.507832e+01	7.292514e+01
2.690000e-06	3.637766e-06	1.035237e-09	2.532669e+01	7.324192e+01
2.700000e-06	3.673322e-06	1.041470e-09	2.557424e+01	7.354336e+01
2.710000e-06	3.708684e-06	1.046538e-09	2.582044e+01	7.383010e+01
2.720000e-06	3.743643e-06	1.051387e-09	2.606382e+01	7.410280e+01
2.730000e-06	3.778150e-06	1.056942e-09	2.630407e+01	7.436212e+01
2.740000e-06	3.812266e-06	1.063359e-09	2.654159e+01	7.460871e+01
2.750000e-06	3.845919e-06	1.066739e-09	2.677589e+01	7.484325e+01
2.760000e-06	3.879055e-06	1.069122e-09	2.700658e+01	7.506639e+01
2.770000e-06	3.911762e-06	1.072676e-09	2.723429e+01	7.527882e+01
2.780000e-06	3.944175e-06	1.077427e-09	2.745996e+01	7.548118e+01
2.790000e-06	3.976314e-06	1.084416e-09	2.768372e+01	7.567413e+01
2.800000e-06	4.008253e-06	1.091386e-09	2.790608e+01	7.585830e+01
2.810000e-06	4.040012e-06	1.095496e-09	2.812719e+01	7.603431e+01
2.820000e-06	4.071607e-06	1.097717e-09	2.834716e+01	7.620276e+01
2.830000e-06	4.103026e-06	1.099986e-09	2.856591e+01	7.636418e+01
2.840000e-06	4.134167e-06	1.101110e-09	2.878271e+01	7.651913e+01
2.850000e-06	4.164965e-06	1.099070e-09	2.899713e+01	7.666806e+01
2.860000e-06	4.195404e-06	1.097054e-09	2.920905e+01	7.681144e+01
2.870000e-06	4.225529e-06	1.099037e-09	2.941879e+01	7.694963e+01
2.880000e-06	4.255402e-06	1.101335e-09	2.962677e+01	7.708298e+01
2.890000e-06	4.285054e-06	1.103822e-09	2.983322e+01	7.721176e+01
2.900000e-06	4.314491e-06	1.105035e-09	3.003816e+01	7.733619e+01
