# Temperatura_=_4.0
# Concentracion g/m^3_=_1620.0
# C_Vs_to_Am_M_A/Vsm_=_65563218390.804596
# pendiente_HvsI_1/m_=_3716.3
# ordenada_HvsI_A/m_=_1297.0
# frecuencia_Hz_=_135100.49177023172

Tiempo_(s)	Campo_(V.s)	Magnetizacion_(V.s)	Campo_(kA/m)	Magnetizacion_(A/m)
0.000000e+00	-5.522795e-06	-1.500176e-09	-3.838231e+01	-9.822802e+01
1.000000e-08	-5.523001e-06	-1.495084e-09	-3.838374e+01	-9.817277e+01
2.000000e-08	-5.522964e-06	-1.490944e-09	-3.838348e+01	-9.811713e+01
3.000000e-08	-5.522613e-06	-1.490096e-09	-3.838105e+01	-9.806171e+01
4.000000e-08	-5.521721e-06	-1.491952e-09	-3.837484e+01	-9.800710e+01
5.000000e-08	-5.520250e-06	-1.492602e-09	-3.836462e+01	-9.795379e+01
6.000000e-08	-5.518242e-06	-1.484734e-09	-3.835067e+01	-9.790225e+01
7.000000e-08	-5.515614e-06	-1.476992e-09	-3.833240e+01	-9.785285e+01
8.000000e-08	-5.512445e-06	-1.497267e-09	-3.831038e+01	-9.780586e+01
9.000000e-08	-5.508832e-06	-1.519773e-09	-3.828527e+01	-9.776146e+01
1.000000e-07	-5.504823e-06	-1.512306e-09	-3.825740e+01	-9.771972e+01
1.100000e-07	-5.500507e-06	-1.505487e-09	-3.822741e+01	-9.768060e+01
1.200000e-07	-5.495932e-06	-1.474379e-09	-3.819561e+01	-9.764394e+01
1.300000e-07	-5.491158e-06	-1.420981e-09	-3.816244e+01	-9.760948e+01
1.400000e-07	-5.486051e-06	-1.455224e-09	-3.812695e+01	-9.757685e+01
1.500000e-07	-5.480573e-06	-1.485584e-09	-3.808888e+01	-9.754555e+01
1.600000e-07	-5.474741e-06	-1.507316e-09	-3.804834e+01	-9.751503e+01
1.700000e-07	-5.468442e-06	-1.435357e-09	-3.800456e+01	-9.748462e+01
1.800000e-07	-5.461760e-06	-1.457700e-09	-3.795813e+01	-9.745359e+01
1.900000e-07	-5.454626e-06	-1.494699e-09	-3.790855e+01	-9.742116e+01
2.000000e-07	-5.447144e-06	-1.480672e-09	-3.785655e+01	-9.738650e+01
2.100000e-07	-5.439445e-06	-1.430890e-09	-3.780304e+01	-9.734875e+01
2.200000e-07	-5.431492e-06	-1.451594e-09	-3.774777e+01	-9.730705e+01
2.300000e-07	-5.423243e-06	-1.501967e-09	-3.769044e+01	-9.726055e+01
2.400000e-07	-5.414533e-06	-1.486492e-09	-3.762991e+01	-9.720842e+01
2.500000e-07	-5.405299e-06	-1.450684e-09	-3.756574e+01	-9.714987e+01
2.600000e-07	-5.395438e-06	-1.438427e-09	-3.749720e+01	-9.708419e+01
2.700000e-07	-5.384812e-06	-1.476165e-09	-3.742335e+01	-9.701072e+01
2.800000e-07	-5.373609e-06	-1.469455e-09	-3.734550e+01	-9.692890e+01
2.900000e-07	-5.362063e-06	-1.465190e-09	-3.726526e+01	-9.683828e+01
3.000000e-07	-5.350148e-06	-1.447533e-09	-3.718245e+01	-9.673850e+01
3.100000e-07	-5.337852e-06	-1.466696e-09	-3.709699e+01	-9.662934e+01
3.200000e-07	-5.325159e-06	-1.449681e-09	-3.700878e+01	-9.651070e+01
3.300000e-07	-5.312091e-06	-1.451654e-09	-3.691796e+01	-9.638258e+01
3.400000e-07	-5.298629e-06	-1.430432e-09	-3.682440e+01	-9.624514e+01
3.500000e-07	-5.284754e-06	-1.461442e-09	-3.672797e+01	-9.609865e+01
3.600000e-07	-5.270524e-06	-1.471069e-09	-3.662908e+01	-9.594350e+01
3.700000e-07	-5.255760e-06	-1.460211e-09	-3.652647e+01	-9.578019e+01
3.800000e-07	-5.240426e-06	-1.428041e-09	-3.641990e+01	-9.560934e+01
3.900000e-07	-5.224682e-06	-1.456910e-09	-3.631049e+01	-9.543163e+01
4.000000e-07	-5.208509e-06	-1.445366e-09	-3.619809e+01	-9.524785e+01
4.100000e-07	-5.191849e-06	-1.410350e-09	-3.608230e+01	-9.505883e+01
4.200000e-07	-5.174822e-06	-1.432425e-09	-3.596397e+01	-9.486547e+01
4.300000e-07	-5.157577e-06	-1.469553e-09	-3.584411e+01	-9.466869e+01
4.400000e-07	-5.139980e-06	-1.423016e-09	-3.572182e+01	-9.446942e+01
4.500000e-07	-5.121966e-06	-1.406695e-09	-3.559663e+01	-9.426859e+01
4.600000e-07	-5.103577e-06	-1.465785e-09	-3.546883e+01	-9.406711e+01
4.700000e-07	-5.084800e-06	-1.435477e-09	-3.533833e+01	-9.386587e+01
4.800000e-07	-5.065600e-06	-1.376319e-09	-3.520490e+01	-9.366567e+01
4.900000e-07	-5.046134e-06	-1.426739e-09	-3.506961e+01	-9.346729e+01
5.000000e-07	-5.026501e-06	-1.463386e-09	-3.493316e+01	-9.327139e+01
5.100000e-07	-5.006600e-06	-1.393061e-09	-3.479486e+01	-9.307857e+01
5.200000e-07	-4.986418e-06	-1.404088e-09	-3.465460e+01	-9.288931e+01
5.300000e-07	-4.965925e-06	-1.451612e-09	-3.451217e+01	-9.270398e+01
5.400000e-07	-4.945072e-06	-1.406740e-09	-3.436725e+01	-9.252286e+01
5.500000e-07	-4.923894e-06	-1.375849e-09	-3.422007e+01	-9.234609e+01
5.600000e-07	-4.902401e-06	-1.438430e-09	-3.407070e+01	-9.217373e+01
5.700000e-07	-4.880526e-06	-1.414691e-09	-3.391867e+01	-9.200568e+01
5.800000e-07	-4.858308e-06	-1.369869e-09	-3.376426e+01	-9.184176e+01
5.900000e-07	-4.835736e-06	-1.410513e-09	-3.360739e+01	-9.168169e+01
6.000000e-07	-4.812798e-06	-1.430321e-09	-3.344797e+01	-9.152508e+01
6.100000e-07	-4.789559e-06	-1.369869e-09	-3.328647e+01	-9.137147e+01
6.200000e-07	-4.766058e-06	-1.380036e-09	-3.312314e+01	-9.122029e+01
6.300000e-07	-4.742357e-06	-1.402166e-09	-3.295842e+01	-9.107096e+01
6.400000e-07	-4.718412e-06	-1.370884e-09	-3.279201e+01	-9.092281e+01
6.500000e-07	-4.694048e-06	-1.357395e-09	-3.262269e+01	-9.077515e+01
6.600000e-07	-4.669192e-06	-1.387061e-09	-3.244994e+01	-9.062726e+01
6.700000e-07	-4.643970e-06	-1.375012e-09	-3.227465e+01	-9.047843e+01
6.800000e-07	-4.618215e-06	-1.360349e-09	-3.209566e+01	-9.032794e+01
6.900000e-07	-4.591874e-06	-1.369517e-09	-3.191260e+01	-9.017509e+01
7.000000e-07	-4.565031e-06	-1.365886e-09	-3.172605e+01	-9.001921e+01
7.100000e-07	-4.537807e-06	-1.347494e-09	-3.153684e+01	-8.985968e+01
7.200000e-07	-4.510389e-06	-1.347459e-09	-3.134629e+01	-8.969593e+01
7.300000e-07	-4.482740e-06	-1.344671e-09	-3.115413e+01	-8.952745e+01
7.400000e-07	-4.454935e-06	-1.335587e-09	-3.096090e+01	-8.935379e+01
7.500000e-07	-4.426897e-06	-1.334666e-09	-3.076604e+01	-8.917459e+01
7.600000e-07	-4.398513e-06	-1.333728e-09	-3.056877e+01	-8.898954e+01
7.700000e-07	-4.369824e-06	-1.329964e-09	-3.036940e+01	-8.879843e+01
7.800000e-07	-4.340862e-06	-1.326303e-09	-3.016812e+01	-8.860113e+01
7.900000e-07	-4.311630e-06	-1.323630e-09	-2.996496e+01	-8.839756e+01
8.000000e-07	-4.282032e-06	-1.315335e-09	-2.975926e+01	-8.818773e+01
8.100000e-07	-4.252108e-06	-1.311135e-09	-2.955129e+01	-8.797172e+01
8.200000e-07	-4.221931e-06	-1.303221e-09	-2.934157e+01	-8.774966e+01
8.300000e-07	-4.191454e-06	-1.296721e-09	-2.912976e+01	-8.752175e+01
8.400000e-07	-4.160711e-06	-1.291497e-09	-2.891610e+01	-8.728821e+01
8.500000e-07	-4.129716e-06	-1.296302e-09	-2.870069e+01	-8.704933e+01
8.600000e-07	-4.098498e-06	-1.293886e-09	-2.848373e+01	-8.680541e+01
8.700000e-07	-4.067092e-06	-1.289131e-09	-2.826547e+01	-8.655676e+01
8.800000e-07	-4.035507e-06	-1.282474e-09	-2.804596e+01	-8.630371e+01
8.900000e-07	-4.003725e-06	-1.280936e-09	-2.782508e+01	-8.604660e+01
9.000000e-07	-3.971695e-06	-1.270755e-09	-2.760248e+01	-8.578574e+01
9.100000e-07	-3.939349e-06	-1.267414e-09	-2.737768e+01	-8.552144e+01
9.200000e-07	-3.906576e-06	-1.265950e-09	-2.714991e+01	-8.525397e+01
9.300000e-07	-3.873384e-06	-1.263478e-09	-2.691923e+01	-8.498358e+01
9.400000e-07	-3.839833e-06	-1.257042e-09	-2.668606e+01	-8.471049e+01
9.500000e-07	-3.805832e-06	-1.255544e-09	-2.644976e+01	-8.443486e+01
9.600000e-07	-3.771377e-06	-1.248901e-09	-2.621031e+01	-8.415684e+01
9.700000e-07	-3.736553e-06	-1.241496e-09	-2.596829e+01	-8.387649e+01
9.800000e-07	-3.701428e-06	-1.237229e-09	-2.572418e+01	-8.359387e+01
9.900000e-07	-3.666056e-06	-1.236020e-09	-2.547835e+01	-8.330897e+01
1.000000e-06	-3.630486e-06	-1.228731e-09	-2.523114e+01	-8.302174e+01
1.010000e-06	-3.594788e-06	-1.223360e-09	-2.498305e+01	-8.273210e+01
1.020000e-06	-3.558950e-06	-1.222846e-09	-2.473399e+01	-8.243992e+01
1.030000e-06	-3.522948e-06	-1.218534e-09	-2.448377e+01	-8.214506e+01
1.040000e-06	-3.486709e-06	-1.212365e-09	-2.423192e+01	-8.184733e+01
1.050000e-06	-3.450167e-06	-1.209355e-09	-2.397796e+01	-8.154654e+01
1.060000e-06	-3.413386e-06	-1.207627e-09	-2.372234e+01	-8.124248e+01
1.070000e-06	-3.376435e-06	-1.202708e-09	-2.346554e+01	-8.093492e+01
1.080000e-06	-3.339211e-06	-1.200726e-09	-2.320684e+01	-8.062365e+01
1.090000e-06	-3.301638e-06	-1.198464e-09	-2.294572e+01	-8.030846e+01
1.100000e-06	-3.263812e-06	-1.192485e-09	-2.268283e+01	-7.998912e+01
1.110000e-06	-3.225823e-06	-1.182396e-09	-2.241882e+01	-7.966546e+01
1.120000e-06	-3.187692e-06	-1.176610e-09	-2.215381e+01	-7.933728e+01
1.130000e-06	-3.149406e-06	-1.169417e-09	-2.188774e+01	-7.900446e+01
1.140000e-06	-3.110841e-06	-1.163555e-09	-2.161972e+01	-7.866685e+01
1.150000e-06	-3.072019e-06	-1.161152e-09	-2.134991e+01	-7.832435e+01
1.160000e-06	-3.033077e-06	-1.161260e-09	-2.107927e+01	-7.797690e+01
1.170000e-06	-2.993930e-06	-1.154015e-09	-2.080721e+01	-7.762444e+01
1.180000e-06	-2.954573e-06	-1.147923e-09	-2.053369e+01	-7.726696e+01
1.190000e-06	-2.915031e-06	-1.145545e-09	-2.025887e+01	-7.690446e+01
1.200000e-06	-2.875323e-06	-1.142268e-09	-1.998292e+01	-7.653696e+01
1.210000e-06	-2.835508e-06	-1.132805e-09	-1.970620e+01	-7.616451e+01
1.220000e-06	-2.795578e-06	-1.126015e-09	-1.942870e+01	-7.578717e+01
1.230000e-06	-2.755519e-06	-1.119269e-09	-1.915030e+01	-7.540498e+01
1.240000e-06	-2.715370e-06	-1.113325e-09	-1.887127e+01	-7.501803e+01
1.250000e-06	-2.675056e-06	-1.108486e-09	-1.859110e+01	-7.462638e+01
1.260000e-06	-2.634415e-06	-1.104338e-09	-1.830865e+01	-7.423007e+01
1.270000e-06	-2.593409e-06	-1.099047e-09	-1.802367e+01	-7.382915e+01
1.280000e-06	-2.552094e-06	-1.091527e-09	-1.773654e+01	-7.342363e+01
1.290000e-06	-2.510559e-06	-1.080830e-09	-1.744788e+01	-7.301351e+01
1.300000e-06	-2.468792e-06	-1.067580e-09	-1.715760e+01	-7.259875e+01
1.310000e-06	-2.426741e-06	-1.055262e-09	-1.686536e+01	-7.217927e+01
1.320000e-06	-2.384389e-06	-1.045369e-09	-1.657102e+01	-7.175495e+01
1.330000e-06	-2.341752e-06	-1.036106e-09	-1.627471e+01	-7.132565e+01
1.340000e-06	-2.298810e-06	-1.027777e-09	-1.597627e+01	-7.089115e+01
1.350000e-06	-2.255570e-06	-1.023822e-09	-1.567575e+01	-7.045120e+01
1.360000e-06	-2.212174e-06	-1.023764e-09	-1.537416e+01	-7.000550e+01
1.370000e-06	-2.168710e-06	-1.021028e-09	-1.507209e+01	-6.955370e+01
1.380000e-06	-2.125134e-06	-1.012348e-09	-1.476925e+01	-6.909540e+01
1.390000e-06	-2.081457e-06	-1.000315e-09	-1.446570e+01	-6.863015e+01
1.400000e-06	-2.037691e-06	-9.849485e-10	-1.416154e+01	-6.815745e+01
1.410000e-06	-1.993888e-06	-9.686278e-10	-1.385712e+01	-6.767678e+01
1.420000e-06	-1.950063e-06	-9.539074e-10	-1.355255e+01	-6.718755e+01
1.430000e-06	-1.906109e-06	-9.445671e-10	-1.324707e+01	-6.668917e+01
1.440000e-06	-1.862078e-06	-9.394280e-10	-1.294107e+01	-6.618097e+01
1.450000e-06	-1.818020e-06	-9.365713e-10	-1.263487e+01	-6.566230e+01
1.460000e-06	-1.773811e-06	-9.299979e-10	-1.232763e+01	-6.513246e+01
1.470000e-06	-1.729369e-06	-9.186063e-10	-1.201877e+01	-6.459075e+01
1.480000e-06	-1.684762e-06	-9.050451e-10	-1.170875e+01	-6.403644e+01
1.490000e-06	-1.640043e-06	-8.897076e-10	-1.139797e+01	-6.346879e+01
1.500000e-06	-1.595160e-06	-8.718865e-10	-1.108604e+01	-6.288708e+01
1.510000e-06	-1.550136e-06	-8.587327e-10	-1.077313e+01	-6.229057e+01
1.520000e-06	-1.504987e-06	-8.509513e-10	-1.045935e+01	-6.167852e+01
1.530000e-06	-1.459708e-06	-8.456656e-10	-1.014468e+01	-6.105020e+01
1.540000e-06	-1.414359e-06	-8.388056e-10	-9.829506e+00	-6.040490e+01
1.550000e-06	-1.368919e-06	-8.290786e-10	-9.513711e+00	-5.974190e+01
1.560000e-06	-1.323424e-06	-8.148775e-10	-9.197528e+00	-5.906052e+01
1.570000e-06	-1.277862e-06	-7.993158e-10	-8.880884e+00	-5.836005e+01
1.580000e-06	-1.232175e-06	-7.833210e-10	-8.563369e+00	-5.763984e+01
1.590000e-06	-1.186345e-06	-7.677776e-10	-8.244857e+00	-5.689921e+01
1.600000e-06	-1.140458e-06	-7.545985e-10	-7.925953e+00	-5.613754e+01
1.610000e-06	-1.094604e-06	-7.460115e-10	-7.607275e+00	-5.535417e+01
1.620000e-06	-1.048702e-06	-7.372038e-10	-7.288267e+00	-5.454848e+01
1.630000e-06	-1.002687e-06	-7.271764e-10	-6.968475e+00	-5.371987e+01
1.640000e-06	-9.565740e-07	-7.166741e-10	-6.647996e+00	-5.286771e+01
1.650000e-06	-9.103841e-07	-7.015340e-10	-6.326985e+00	-5.199142e+01
1.660000e-06	-8.641004e-07	-6.834458e-10	-6.005323e+00	-5.109038e+01
1.670000e-06	-8.177812e-07	-6.659127e-10	-5.683414e+00	-5.016401e+01
1.680000e-06	-7.714550e-07	-6.529432e-10	-5.361456e+00	-4.921172e+01
1.690000e-06	-7.250369e-07	-6.416904e-10	-5.038860e+00	-4.823292e+01
1.700000e-06	-6.784907e-07	-6.302027e-10	-4.715373e+00	-4.722702e+01
1.710000e-06	-6.319549e-07	-6.179631e-10	-4.391959e+00	-4.619344e+01
1.720000e-06	-5.854560e-07	-6.034878e-10	-4.068801e+00	-4.513160e+01
1.730000e-06	-5.389098e-07	-5.846742e-10	-3.745314e+00	-4.404094e+01
1.740000e-06	-4.922916e-07	-5.627796e-10	-3.421327e+00	-4.292088e+01
1.750000e-06	-4.455698e-07	-5.407592e-10	-3.096620e+00	-4.177087e+01
1.760000e-06	-3.988293e-07	-5.213477e-10	-2.771783e+00	-4.059039e+01
1.770000e-06	-3.521653e-07	-5.033205e-10	-2.447477e+00	-3.937891e+01
1.780000e-06	-3.054102e-07	-4.885795e-10	-2.122539e+00	-3.813595e+01
1.790000e-06	-2.585425e-07	-4.739038e-10	-1.796818e+00	-3.686104e+01
1.800000e-06	-2.117342e-07	-4.587802e-10	-1.471510e+00	-3.555377e+01
1.810000e-06	-1.649571e-07	-4.391855e-10	-1.146419e+00	-3.421378e+01
1.820000e-06	-1.181020e-07	-4.155086e-10	-8.207849e-01	-3.284072e+01
1.830000e-06	-7.121040e-08	-3.915674e-10	-4.948979e-01	-3.143436e+01
1.840000e-06	-2.433645e-08	-3.701653e-10	-1.691334e-01	-2.999448e+01
1.850000e-06	2.249387e-08	-3.521985e-10	1.563278e-01	-2.852100e+01
1.860000e-06	6.929072e-08	-3.362117e-10	4.815565e-01	-2.701386e+01
1.870000e-06	1.161480e-07	-3.180240e-10	8.072050e-01	-2.547315e+01
1.880000e-06	1.630775e-07	-2.970817e-10	1.133356e+00	-2.389902e+01
1.890000e-06	2.099967e-07	-2.731411e-10	1.459435e+00	-2.229174e+01
1.900000e-06	2.568088e-07	-2.461327e-10	1.784769e+00	-2.065172e+01
1.910000e-06	3.035252e-07	-2.181603e-10	2.109439e+00	-1.897945e+01
1.920000e-06	3.502770e-07	-1.898171e-10	2.434355e+00	-1.727557e+01
1.930000e-06	3.970455e-07	-1.638475e-10	2.759386e+00	-1.554085e+01
1.940000e-06	4.437815e-07	-1.403946e-10	3.084191e+00	-1.377619e+01
1.950000e-06	4.905068e-07	-1.191509e-10	3.408923e+00	-1.198264e+01
1.960000e-06	5.372440e-07	-9.653150e-11	3.733737e+00	-1.016136e+01
1.970000e-06	5.839376e-07	-7.267546e-11	4.058248e+00	-8.313677e+00
1.980000e-06	6.304348e-07	-4.771754e-11	4.381394e+00	-6.441049e+00
1.990000e-06	6.767842e-07	-2.016408e-11	4.703513e+00	-4.545065e+00
2.000000e-06	7.231328e-07	1.132167e-11	5.025627e+00	-2.627450e+00
2.010000e-06	7.695232e-07	4.368448e-11	5.348030e+00	-6.900572e-01
2.020000e-06	8.157877e-07	7.398282e-11	5.669559e+00	1.265138e+00
2.030000e-06	8.620048e-07	1.011370e-10	5.990759e+00	3.236047e+00
2.040000e-06	9.082587e-07	1.276570e-10	6.312215e+00	5.220471e+00
2.050000e-06	9.544141e-07	1.552651e-10	6.632985e+00	7.216118e+00
2.060000e-06	1.000476e-06	1.843558e-10	6.953105e+00	9.220607e+00
2.070000e-06	1.046463e-06	2.136395e-10	7.272706e+00	1.123148e+01
2.080000e-06	1.092376e-06	2.438835e-10	7.591791e+00	1.324623e+01
2.090000e-06	1.138235e-06	2.736093e-10	7.910506e+00	1.526228e+01
2.100000e-06	1.183936e-06	3.037664e-10	8.228119e+00	1.727703e+01
2.110000e-06	1.229476e-06	3.335050e-10	8.544612e+00	1.928785e+01
2.120000e-06	1.275008e-06	3.627860e-10	8.861047e+00	2.129213e+01
2.130000e-06	1.320446e-06	3.911326e-10	9.176836e+00	2.328724e+01
2.140000e-06	1.365758e-06	4.171256e-10	9.491740e+00	2.527059e+01
2.150000e-06	1.411051e-06	4.422245e-10	9.806520e+00	2.723962e+01
2.160000e-06	1.456356e-06	4.679816e-10	1.012138e+01	2.919185e+01
2.170000e-06	1.501570e-06	4.942653e-10	1.043561e+01	3.112483e+01
2.180000e-06	1.546592e-06	5.205087e-10	1.074850e+01	3.303624e+01
2.190000e-06	1.591479e-06	5.472264e-10	1.106045e+01	3.492382e+01
2.200000e-06	1.636250e-06	5.737984e-10	1.137161e+01	3.678546e+01
2.210000e-06	1.680906e-06	5.995667e-10	1.168195e+01	3.861913e+01
2.220000e-06	1.725454e-06	6.260027e-10	1.199156e+01	4.042298e+01
2.230000e-06	1.769904e-06	6.523471e-10	1.230048e+01	4.219527e+01
2.240000e-06	1.814303e-06	6.758637e-10	1.260904e+01	4.393443e+01
2.250000e-06	1.858451e-06	6.972709e-10	1.291586e+01	4.563905e+01
2.260000e-06	1.902359e-06	7.157480e-10	1.322101e+01	4.730790e+01
2.270000e-06	1.946194e-06	7.335685e-10	1.352566e+01	4.893989e+01
2.280000e-06	1.989966e-06	7.538473e-10	1.382986e+01	5.053413e+01
2.290000e-06	2.033705e-06	7.760073e-10	1.413384e+01	5.208989e+01
2.300000e-06	2.077390e-06	7.982102e-10	1.443744e+01	5.360664e+01
2.310000e-06	2.121059e-06	8.204637e-10	1.474093e+01	5.508398e+01
2.320000e-06	2.164674e-06	8.412341e-10	1.504405e+01	5.652172e+01
2.330000e-06	2.208189e-06	8.605648e-10	1.534647e+01	5.791982e+01
2.340000e-06	2.251564e-06	8.788643e-10	1.564791e+01	5.927837e+01
2.350000e-06	2.294796e-06	8.966174e-10	1.594837e+01	6.059765e+01
2.360000e-06	2.337780e-06	9.128746e-10	1.624710e+01	6.187806e+01
2.370000e-06	2.380500e-06	9.284885e-10	1.654399e+01	6.312010e+01
2.380000e-06	2.422979e-06	9.436264e-10	1.683921e+01	6.432444e+01
2.390000e-06	2.465153e-06	9.573737e-10	1.713231e+01	6.549180e+01
2.400000e-06	2.506979e-06	9.720104e-10	1.742300e+01	6.662303e+01
2.410000e-06	2.548389e-06	9.893005e-10	1.771079e+01	6.771902e+01
2.420000e-06	2.589591e-06	1.006225e-09	1.799713e+01	6.878076e+01
2.430000e-06	2.630517e-06	1.019312e-09	1.828156e+01	6.980924e+01
2.440000e-06	2.671059e-06	1.029304e-09	1.856332e+01	7.080551e+01
2.450000e-06	2.711327e-06	1.037911e-09	1.884317e+01	7.177064e+01
2.460000e-06	2.751394e-06	1.047419e-09	1.912163e+01	7.270570e+01
2.470000e-06	2.791355e-06	1.058544e-09	1.939935e+01	7.361174e+01
2.480000e-06	2.831182e-06	1.068592e-09	1.967614e+01	7.448980e+01
2.490000e-06	2.870919e-06	1.078353e-09	1.995230e+01	7.534089e+01
2.500000e-06	2.910591e-06	1.089812e-09	2.022802e+01	7.616598e+01
2.510000e-06	2.950136e-06	1.100905e-09	2.050285e+01	7.696598e+01
2.520000e-06	2.989497e-06	1.111829e-09	2.077640e+01	7.774174e+01
2.530000e-06	3.028731e-06	1.122086e-09	2.104907e+01	7.849408e+01
2.540000e-06	3.067814e-06	1.131653e-09	2.132069e+01	7.922372e+01
2.550000e-06	3.106557e-06	1.141632e-09	2.158994e+01	7.993134e+01
2.560000e-06	3.144978e-06	1.150542e-09	2.185696e+01	8.061753e+01
2.570000e-06	3.183169e-06	1.159125e-09	2.212238e+01	8.128282e+01
2.580000e-06	3.221145e-06	1.167945e-09	2.238630e+01	8.192770e+01
2.590000e-06	3.258970e-06	1.177150e-09	2.264918e+01	8.255257e+01
2.600000e-06	3.296629e-06	1.187198e-09	2.291091e+01	8.315780e+01
2.610000e-06	3.334110e-06	1.197929e-09	2.317139e+01	8.374370e+01
2.620000e-06	3.371328e-06	1.209423e-09	2.343005e+01	8.431056e+01
2.630000e-06	3.408147e-06	1.219665e-09	2.368593e+01	8.485860e+01
2.640000e-06	3.444704e-06	1.228631e-09	2.394000e+01	8.538808e+01
2.650000e-06	3.481038e-06	1.236053e-09	2.419251e+01	8.589921e+01
2.660000e-06	3.517111e-06	1.242456e-09	2.444321e+01	8.639220e+01
2.670000e-06	3.553001e-06	1.249630e-09	2.469264e+01	8.686730e+01
2.680000e-06	3.588779e-06	1.255695e-09	2.494129e+01	8.732473e+01
2.690000e-06	3.624494e-06	1.260571e-09	2.518950e+01	8.776480e+01
2.700000e-06	3.660086e-06	1.268199e-09	2.543686e+01	8.818780e+01
2.710000e-06	3.695551e-06	1.277661e-09	2.568333e+01	8.859409e+01
2.720000e-06	3.730861e-06	1.286670e-09	2.592873e+01	8.898409e+01
2.730000e-06	3.765780e-06	1.295346e-09	2.617141e+01	8.935825e+01
2.740000e-06	3.800263e-06	1.302779e-09	2.641106e+01	8.971709e+01
2.750000e-06	3.834286e-06	1.308942e-09	2.664751e+01	9.006119e+01
2.760000e-06	3.867849e-06	1.312791e-09	2.688077e+01	9.039119e+01
2.770000e-06	3.900991e-06	1.314046e-09	2.711110e+01	9.070777e+01
2.780000e-06	3.933614e-06	1.315827e-09	2.733782e+01	9.101168e+01
2.790000e-06	3.965823e-06	1.321644e-09	2.756167e+01	9.130372e+01
2.800000e-06	3.997801e-06	1.331265e-09	2.778391e+01	9.158471e+01
2.810000e-06	4.029649e-06	1.339860e-09	2.800525e+01	9.185553e+01
2.820000e-06	4.061387e-06	1.346069e-09	2.822582e+01	9.211706e+01
2.830000e-06	4.092938e-06	1.350957e-09	2.844509e+01	9.237020e+01
2.840000e-06	4.124306e-06	1.353495e-09	2.866309e+01	9.261587e+01
2.850000e-06	4.155471e-06	1.354927e-09	2.887968e+01	9.285494e+01
2.860000e-06	4.186329e-06	1.354658e-09	2.909414e+01	9.308829e+01
2.870000e-06	4.216810e-06	1.354741e-09	2.930598e+01	9.331675e+01
2.880000e-06	4.246845e-06	1.358647e-09	2.951471e+01	9.354110e+01
2.890000e-06	4.276524e-06	1.364532e-09	2.972098e+01	9.376206e+01
2.900000e-06	4.306017e-06	1.369660e-09	2.992595e+01	9.398027e+01
