# Temperatura_=_-14.1
# Concentracion g/m^3_=_1620.0
# C_Vs_to_Am_M_A/Vsm_=_65563218390.804596
# pendiente_HvsI_1/m_=_3716.3
# ordenada_HvsI_A/m_=_1297.0
# frecuencia_Hz_=_135106.3757126835

Tiempo_(s)	Campo_(V.s)	Magnetizacion_(V.s)	Campo_(kA/m)	Magnetizacion_(A/m)
0.000000e+00	-5.511625e-06	-9.484635e-10	-3.836779e+01	-6.369394e+01
1.000000e-08	-5.511878e-06	-9.456540e-10	-3.836955e+01	-6.366520e+01
2.000000e-08	-5.511860e-06	-9.408204e-10	-3.836943e+01	-6.363776e+01
3.000000e-08	-5.511604e-06	-9.377115e-10	-3.836765e+01	-6.361155e+01
4.000000e-08	-5.511046e-06	-9.372359e-10	-3.836376e+01	-6.358648e+01
5.000000e-08	-5.510073e-06	-9.385247e-10	-3.835699e+01	-6.356237e+01
6.000000e-08	-5.508518e-06	-9.390110e-10	-3.834616e+01	-6.353901e+01
7.000000e-08	-5.506305e-06	-9.411461e-10	-3.833076e+01	-6.351615e+01
8.000000e-08	-5.503537e-06	-9.311559e-10	-3.831149e+01	-6.349345e+01
9.000000e-08	-5.500260e-06	-9.168414e-10	-3.828867e+01	-6.347058e+01
1.000000e-07	-5.496511e-06	-9.586560e-10	-3.826258e+01	-6.344711e+01
1.100000e-07	-5.492393e-06	-1.009299e-09	-3.823391e+01	-6.342263e+01
1.200000e-07	-5.487971e-06	-9.267154e-10	-3.820313e+01	-6.339668e+01
1.300000e-07	-5.483241e-06	-8.346803e-10	-3.817020e+01	-6.336877e+01
1.400000e-07	-5.478241e-06	-8.965671e-10	-3.813540e+01	-6.333845e+01
1.500000e-07	-5.472866e-06	-1.005679e-09	-3.809798e+01	-6.330522e+01
1.600000e-07	-5.467044e-06	-9.890177e-10	-3.805745e+01	-6.326864e+01
1.700000e-07	-5.460884e-06	-8.613083e-10	-3.801457e+01	-6.322827e+01
1.800000e-07	-5.454362e-06	-8.960379e-10	-3.796917e+01	-6.318371e+01
1.900000e-07	-5.447366e-06	-9.769577e-10	-3.792047e+01	-6.313463e+01
2.000000e-07	-5.440035e-06	-9.432377e-10	-3.786944e+01	-6.308072e+01
2.100000e-07	-5.432511e-06	-8.526295e-10	-3.781706e+01	-6.302178e+01
2.200000e-07	-5.424671e-06	-8.933411e-10	-3.776248e+01	-6.295766e+01
2.300000e-07	-5.416486e-06	-9.851048e-10	-3.770551e+01	-6.288828e+01
2.400000e-07	-5.408018e-06	-9.758573e-10	-3.764656e+01	-6.281367e+01
2.500000e-07	-5.399058e-06	-8.974626e-10	-3.758419e+01	-6.273394e+01
2.600000e-07	-5.389347e-06	-8.894373e-10	-3.751658e+01	-6.264928e+01
2.700000e-07	-5.378823e-06	-9.418561e-10	-3.744333e+01	-6.255998e+01
2.800000e-07	-5.367772e-06	-9.463099e-10	-3.736639e+01	-6.246642e+01
2.900000e-07	-5.356419e-06	-9.199674e-10	-3.728736e+01	-6.236905e+01
3.000000e-07	-5.344647e-06	-9.112578e-10	-3.720541e+01	-6.226841e+01
3.100000e-07	-5.332434e-06	-9.466349e-10	-3.712040e+01	-6.216510e+01
3.200000e-07	-5.319859e-06	-9.461095e-10	-3.703286e+01	-6.205979e+01
3.300000e-07	-5.306907e-06	-9.165199e-10	-3.694270e+01	-6.195318e+01
3.400000e-07	-5.293518e-06	-8.995574e-10	-3.684949e+01	-6.184602e+01
3.500000e-07	-5.279771e-06	-9.504617e-10	-3.675380e+01	-6.173909e+01
3.600000e-07	-5.265656e-06	-9.477905e-10	-3.665554e+01	-6.163317e+01
3.700000e-07	-5.251072e-06	-9.091209e-10	-3.655402e+01	-6.152904e+01
3.800000e-07	-5.235910e-06	-9.227628e-10	-3.644847e+01	-6.142746e+01
3.900000e-07	-5.220246e-06	-9.684922e-10	-3.633943e+01	-6.132915e+01
4.000000e-07	-5.204089e-06	-9.074182e-10	-3.622695e+01	-6.123481e+01
4.100000e-07	-5.187430e-06	-8.877552e-10	-3.611099e+01	-6.114506e+01
4.200000e-07	-5.170446e-06	-9.684234e-10	-3.599276e+01	-6.106046e+01
4.300000e-07	-5.153094e-06	-9.566935e-10	-3.587197e+01	-6.098150e+01
4.400000e-07	-5.135438e-06	-8.636481e-10	-3.574906e+01	-6.090857e+01
4.500000e-07	-5.117592e-06	-9.275288e-10	-3.562483e+01	-6.084197e+01
4.600000e-07	-5.099395e-06	-9.942529e-10	-3.549815e+01	-6.078191e+01
4.700000e-07	-5.080754e-06	-8.877191e-10	-3.536839e+01	-6.072849e+01
4.800000e-07	-5.061758e-06	-8.695765e-10	-3.523616e+01	-6.068171e+01
4.900000e-07	-5.042455e-06	-9.790604e-10	-3.510178e+01	-6.064147e+01
5.000000e-07	-5.022853e-06	-9.339904e-10	-3.496533e+01	-6.060758e+01
5.100000e-07	-5.003009e-06	-8.562620e-10	-3.482719e+01	-6.057974e+01
5.200000e-07	-4.982944e-06	-9.508914e-10	-3.468751e+01	-6.055758e+01
5.300000e-07	-4.962592e-06	-9.601346e-10	-3.454583e+01	-6.054065e+01
5.400000e-07	-4.941907e-06	-8.579322e-10	-3.440184e+01	-6.052844e+01
5.500000e-07	-4.920867e-06	-9.089092e-10	-3.425538e+01	-6.052035e+01
5.600000e-07	-4.899378e-06	-9.789881e-10	-3.410578e+01	-6.051579e+01
5.700000e-07	-4.877493e-06	-8.796827e-10	-3.395344e+01	-6.051409e+01
5.800000e-07	-4.855355e-06	-8.683965e-10	-3.379933e+01	-6.051460e+01
5.900000e-07	-4.832959e-06	-9.592214e-10	-3.364343e+01	-6.051665e+01
6.000000e-07	-4.810199e-06	-9.191994e-10	-3.348499e+01	-6.051958e+01
6.100000e-07	-4.787033e-06	-8.626174e-10	-3.332372e+01	-6.052274e+01
6.200000e-07	-4.763617e-06	-9.329815e-10	-3.316072e+01	-6.052554e+01
6.300000e-07	-4.740007e-06	-9.323763e-10	-3.299637e+01	-6.052742e+01
6.400000e-07	-4.716141e-06	-8.736215e-10	-3.283023e+01	-6.052788e+01
6.500000e-07	-4.691959e-06	-9.045786e-10	-3.266189e+01	-6.052647e+01
6.600000e-07	-4.667372e-06	-9.302344e-10	-3.249073e+01	-6.052282e+01
6.700000e-07	-4.642364e-06	-8.833047e-10	-3.231665e+01	-6.051664e+01
6.800000e-07	-4.616847e-06	-8.935095e-10	-3.213902e+01	-6.050770e+01
6.900000e-07	-4.590733e-06	-9.242791e-10	-3.195724e+01	-6.049586e+01
7.000000e-07	-4.564080e-06	-8.989394e-10	-3.177170e+01	-6.048107e+01
7.100000e-07	-4.536963e-06	-8.874323e-10	-3.158293e+01	-6.046333e+01
7.200000e-07	-4.509517e-06	-9.125301e-10	-3.139187e+01	-6.044272e+01
7.300000e-07	-4.481835e-06	-9.035152e-10	-3.119916e+01	-6.041940e+01
7.400000e-07	-4.454003e-06	-8.896070e-10	-3.100542e+01	-6.039357e+01
7.500000e-07	-4.426017e-06	-9.027292e-10	-3.081060e+01	-6.036548e+01
7.600000e-07	-4.397765e-06	-9.019285e-10	-3.061394e+01	-6.033545e+01
7.700000e-07	-4.369214e-06	-8.887265e-10	-3.041519e+01	-6.030378e+01
7.800000e-07	-4.340366e-06	-8.936216e-10	-3.021437e+01	-6.027084e+01
7.900000e-07	-4.311262e-06	-8.947585e-10	-3.001177e+01	-6.023699e+01
8.000000e-07	-4.281852e-06	-8.847939e-10	-2.980704e+01	-6.020258e+01
8.100000e-07	-4.252145e-06	-8.902215e-10	-2.960024e+01	-6.016796e+01
8.200000e-07	-4.222179e-06	-8.922496e-10	-2.939163e+01	-6.013346e+01
8.300000e-07	-4.191911e-06	-8.772855e-10	-2.918094e+01	-6.009937e+01
8.400000e-07	-4.161310e-06	-8.737125e-10	-2.896791e+01	-6.006596e+01
8.500000e-07	-4.130447e-06	-8.866538e-10	-2.875307e+01	-6.003345e+01
8.600000e-07	-4.099336e-06	-8.823362e-10	-2.853650e+01	-6.000199e+01
8.700000e-07	-4.067931e-06	-8.788235e-10	-2.831788e+01	-5.997171e+01
8.800000e-07	-4.036350e-06	-8.863884e-10	-2.809804e+01	-5.994266e+01
8.900000e-07	-4.004614e-06	-8.848472e-10	-2.787711e+01	-5.991485e+01
9.000000e-07	-3.972721e-06	-8.739336e-10	-2.765510e+01	-5.988822e+01
9.100000e-07	-3.940617e-06	-8.808727e-10	-2.743161e+01	-5.986267e+01
9.200000e-07	-3.908191e-06	-8.849033e-10	-2.720589e+01	-5.983805e+01
9.300000e-07	-3.875408e-06	-8.745365e-10	-2.697768e+01	-5.981415e+01
9.400000e-07	-3.842202e-06	-8.750755e-10	-2.674652e+01	-5.979074e+01
9.500000e-07	-3.808497e-06	-8.857739e-10	-2.651189e+01	-5.976756e+01
9.600000e-07	-3.774312e-06	-8.786279e-10	-2.627392e+01	-5.974430e+01
9.700000e-07	-3.739711e-06	-8.753015e-10	-2.603306e+01	-5.972066e+01
9.800000e-07	-3.704749e-06	-8.851579e-10	-2.578968e+01	-5.969633e+01
9.900000e-07	-3.669459e-06	-8.850724e-10	-2.554402e+01	-5.967099e+01
1.000000e-06	-3.633887e-06	-8.712850e-10	-2.529639e+01	-5.964436e+01
1.010000e-06	-3.598153e-06	-8.727850e-10	-2.504764e+01	-5.961613e+01
1.020000e-06	-3.562321e-06	-8.772829e-10	-2.479820e+01	-5.958606e+01
1.030000e-06	-3.526363e-06	-8.710725e-10	-2.454789e+01	-5.955391e+01
1.040000e-06	-3.490236e-06	-8.719523e-10	-2.429640e+01	-5.951950e+01
1.050000e-06	-3.453886e-06	-8.813196e-10	-2.404336e+01	-5.948268e+01
1.060000e-06	-3.417250e-06	-8.798246e-10	-2.378833e+01	-5.944334e+01
1.070000e-06	-3.380411e-06	-8.758617e-10	-2.353188e+01	-5.940143e+01
1.080000e-06	-3.343379e-06	-8.802239e-10	-2.327409e+01	-5.935692e+01
1.090000e-06	-3.306013e-06	-8.788692e-10	-2.301398e+01	-5.930985e+01
1.100000e-06	-3.268403e-06	-8.735607e-10	-2.275216e+01	-5.926029e+01
1.110000e-06	-3.230606e-06	-8.760270e-10	-2.248905e+01	-5.920834e+01
1.120000e-06	-3.192602e-06	-8.798033e-10	-2.222450e+01	-5.915414e+01
1.130000e-06	-3.154405e-06	-8.744170e-10	-2.195860e+01	-5.909784e+01
1.140000e-06	-3.115949e-06	-8.721375e-10	-2.169090e+01	-5.903964e+01
1.150000e-06	-3.077202e-06	-8.748023e-10	-2.142117e+01	-5.897970e+01
1.160000e-06	-3.038277e-06	-8.745172e-10	-2.115020e+01	-5.891822e+01
1.170000e-06	-2.999229e-06	-8.708303e-10	-2.087838e+01	-5.885538e+01
1.180000e-06	-2.959988e-06	-8.724758e-10	-2.060521e+01	-5.879132e+01
1.190000e-06	-2.920512e-06	-8.732556e-10	-2.033041e+01	-5.872619e+01
1.200000e-06	-2.880850e-06	-8.721126e-10	-2.005431e+01	-5.866007e+01
1.210000e-06	-2.841076e-06	-8.716665e-10	-1.977743e+01	-5.859301e+01
1.220000e-06	-2.801204e-06	-8.712624e-10	-1.949987e+01	-5.852502e+01
1.230000e-06	-2.761168e-06	-8.677851e-10	-1.922118e+01	-5.845604e+01
1.240000e-06	-2.720954e-06	-8.671281e-10	-1.894124e+01	-5.838595e+01
1.250000e-06	-2.680643e-06	-8.659583e-10	-1.866062e+01	-5.831456e+01
1.260000e-06	-2.640164e-06	-8.629926e-10	-1.837884e+01	-5.824162e+01
1.270000e-06	-2.599448e-06	-8.589559e-10	-1.809541e+01	-5.816682e+01
1.280000e-06	-2.558485e-06	-8.580886e-10	-1.781025e+01	-5.808977e+01
1.290000e-06	-2.517232e-06	-8.547972e-10	-1.752308e+01	-5.801002e+01
1.300000e-06	-2.475624e-06	-8.504480e-10	-1.723344e+01	-5.792706e+01
1.310000e-06	-2.433593e-06	-8.497874e-10	-1.694085e+01	-5.784033e+01
1.320000e-06	-2.391367e-06	-8.484856e-10	-1.664690e+01	-5.774922e+01
1.330000e-06	-2.349011e-06	-8.449133e-10	-1.635205e+01	-5.765307e+01
1.340000e-06	-2.306280e-06	-8.412415e-10	-1.605459e+01	-5.755120e+01
1.350000e-06	-2.263213e-06	-8.392703e-10	-1.575479e+01	-5.744291e+01
1.360000e-06	-2.219950e-06	-8.395682e-10	-1.545362e+01	-5.732747e+01
1.370000e-06	-2.176511e-06	-8.406128e-10	-1.515124e+01	-5.720416e+01
1.380000e-06	-2.132934e-06	-8.395274e-10	-1.484789e+01	-5.707227e+01
1.390000e-06	-2.089257e-06	-8.365014e-10	-1.454384e+01	-5.693110e+01
1.400000e-06	-2.045491e-06	-8.315173e-10	-1.423917e+01	-5.677998e+01
1.410000e-06	-2.001682e-06	-8.286231e-10	-1.393420e+01	-5.661827e+01
1.420000e-06	-1.957804e-06	-8.251474e-10	-1.362876e+01	-5.644538e+01
1.430000e-06	-1.913833e-06	-8.188415e-10	-1.332267e+01	-5.626075e+01
1.440000e-06	-1.869787e-06	-8.125624e-10	-1.301605e+01	-5.606390e+01
1.450000e-06	-1.825628e-06	-8.084701e-10	-1.270865e+01	-5.585438e+01
1.460000e-06	-1.781420e-06	-8.026067e-10	-1.240091e+01	-5.563183e+01
1.470000e-06	-1.737152e-06	-7.968324e-10	-1.209274e+01	-5.539592e+01
1.480000e-06	-1.692758e-06	-7.927768e-10	-1.178371e+01	-5.514639e+01
1.490000e-06	-1.648239e-06	-7.883639e-10	-1.147380e+01	-5.488304e+01
1.500000e-06	-1.603578e-06	-7.794872e-10	-1.116290e+01	-5.460571e+01
1.510000e-06	-1.558687e-06	-7.690653e-10	-1.085041e+01	-5.431429e+01
1.520000e-06	-1.513619e-06	-7.617427e-10	-1.053668e+01	-5.400871e+01
1.530000e-06	-1.468511e-06	-7.575157e-10	-1.022267e+01	-5.368893e+01
1.540000e-06	-1.423292e-06	-7.546935e-10	-9.907889e+00	-5.335492e+01
1.550000e-06	-1.377946e-06	-7.526959e-10	-9.592224e+00	-5.300667e+01
1.560000e-06	-1.332446e-06	-7.493845e-10	-9.275485e+00	-5.264415e+01
1.570000e-06	-1.286873e-06	-7.442533e-10	-8.958246e+00	-5.226735e+01
1.580000e-06	-1.241282e-06	-7.372312e-10	-8.640869e+00	-5.187620e+01
1.590000e-06	-1.195600e-06	-7.279446e-10	-8.322871e+00	-5.147061e+01
1.600000e-06	-1.149904e-06	-7.184089e-10	-8.004764e+00	-5.105044e+01
1.610000e-06	-1.104174e-06	-7.118458e-10	-7.686427e+00	-5.061551e+01
1.620000e-06	-1.058340e-06	-7.083480e-10	-7.367367e+00	-5.016556e+01
1.630000e-06	-1.012366e-06	-7.056361e-10	-7.047332e+00	-4.970025e+01
1.640000e-06	-9.662923e-07	-7.032158e-10	-6.726601e+00	-4.921918e+01
1.650000e-06	-9.201893e-07	-6.958991e-10	-6.405666e+00	-4.872186e+01
1.660000e-06	-8.739737e-07	-6.823969e-10	-6.083948e+00	-4.820771e+01
1.670000e-06	-8.276708e-07	-6.676481e-10	-5.761622e+00	-4.767606e+01
1.680000e-06	-7.813759e-07	-6.565563e-10	-5.439352e+00	-4.712617e+01
1.690000e-06	-7.350769e-07	-6.483562e-10	-5.117053e+00	-4.655720e+01
1.700000e-06	-6.886873e-07	-6.398551e-10	-4.794123e+00	-4.596823e+01
1.710000e-06	-6.422368e-07	-6.299091e-10	-4.470770e+00	-4.535829e+01
1.720000e-06	-5.958197e-07	-6.223739e-10	-4.147649e+00	-4.472630e+01
1.730000e-06	-5.494094e-07	-6.144101e-10	-3.824576e+00	-4.407118e+01
1.740000e-06	-5.029399e-07	-6.034354e-10	-3.501089e+00	-4.339176e+01
1.750000e-06	-4.563954e-07	-5.918559e-10	-3.177082e+00	-4.268687e+01
1.760000e-06	-4.098033e-07	-5.777545e-10	-2.852743e+00	-4.195531e+01
1.770000e-06	-3.631208e-07	-5.616439e-10	-2.527774e+00	-4.119587e+01
1.780000e-06	-3.164271e-07	-5.481813e-10	-2.202728e+00	-4.040737e+01
1.790000e-06	-2.697336e-07	-5.379054e-10	-1.877682e+00	-3.958864e+01
1.800000e-06	-2.230030e-07	-5.284110e-10	-1.552380e+00	-3.873857e+01
1.810000e-06	-1.762781e-07	-5.186037e-10	-1.227116e+00	-3.785611e+01
1.820000e-06	-1.295700e-07	-5.075100e-10	-9.019692e-01	-3.694026e+01
1.830000e-06	-8.284474e-08	-4.944984e-10	-5.767028e-01	-3.599014e+01
1.840000e-06	-3.609667e-08	-4.794554e-10	-2.512779e-01	-3.500497e+01
1.850000e-06	1.067951e-08	-4.631211e-10	7.434270e-02	-3.398406e+01
1.860000e-06	5.752895e-08	-4.471432e-10	4.004733e-01	-3.292689e+01
1.870000e-06	1.043355e-07	-4.311155e-10	7.263056e-01	-3.183304e+01
1.880000e-06	1.511597e-07	-4.153559e-10	1.052260e+00	-3.070227e+01
1.890000e-06	1.980568e-07	-4.010633e-10	1.378723e+00	-2.953448e+01
1.900000e-06	2.448744e-07	-3.864378e-10	1.704631e+00	-2.832974e+01
1.910000e-06	2.916286e-07	-3.675010e-10	2.030099e+00	-2.708828e+01
1.920000e-06	3.383205e-07	-3.439113e-10	2.355133e+00	-2.581049e+01
1.930000e-06	3.849633e-07	-3.206029e-10	2.679825e+00	-2.449696e+01
1.940000e-06	4.316652e-07	-2.994228e-10	3.004929e+00	-2.314842e+01
1.950000e-06	4.783553e-07	-2.785470e-10	3.329950e+00	-2.176578e+01
1.960000e-06	5.249537e-07	-2.587034e-10	3.654333e+00	-2.035011e+01
1.970000e-06	5.714133e-07	-2.422696e-10	3.977750e+00	-1.890263e+01
1.980000e-06	6.177023e-07	-2.247904e-10	4.299979e+00	-1.742472e+01
1.990000e-06	6.638611e-07	-2.046836e-10	4.621302e+00	-1.591791e+01
2.000000e-06	7.100184e-07	-1.823307e-10	4.942615e+00	-1.438384e+01
2.010000e-06	7.562404e-07	-1.558086e-10	5.264377e+00	-1.282431e+01
2.020000e-06	8.024634e-07	-1.304039e-10	5.586147e+00	-1.124119e+01
2.030000e-06	8.486917e-07	-1.082451e-10	5.907954e+00	-9.636500e+00
2.040000e-06	8.948205e-07	-8.779442e-11	6.229068e+00	-8.012319e+00
2.050000e-06	9.408048e-07	-6.700532e-11	6.549176e+00	-6.370822e+00
2.060000e-06	9.867718e-07	-4.299733e-11	6.869164e+00	-4.714250e+00
2.070000e-06	1.032687e-06	-1.736655e-11	7.188793e+00	-3.044900e+00
2.080000e-06	1.078575e-06	9.315816e-12	7.508231e+00	-1.365113e+00
2.090000e-06	1.124428e-06	3.416714e-11	7.827420e+00	3.227349e-01
2.100000e-06	1.170158e-06	5.763675e-11	8.145761e+00	2.016247e+00
2.110000e-06	1.215798e-06	8.112582e-11	8.463475e+00	3.713016e+00
2.120000e-06	1.261354e-06	1.050267e-10	8.780601e+00	5.410637e+00
2.130000e-06	1.306803e-06	1.293511e-10	9.096979e+00	7.106715e+00
2.140000e-06	1.352105e-06	1.517189e-10	9.412340e+00	8.798880e+00
2.150000e-06	1.397314e-06	1.722125e-10	9.727052e+00	1.048479e+01
2.160000e-06	1.442450e-06	1.932214e-10	1.004125e+01	1.216215e+01
2.170000e-06	1.487412e-06	2.160858e-10	1.035424e+01	1.382872e+01
2.180000e-06	1.532239e-06	2.398282e-10	1.066630e+01	1.548230e+01
2.190000e-06	1.577070e-06	2.647477e-10	1.097838e+01	1.712078e+01
2.200000e-06	1.621826e-06	2.887190e-10	1.128993e+01	1.874212e+01
2.210000e-06	1.666397e-06	3.108270e-10	1.160020e+01	2.034436e+01
2.220000e-06	1.710787e-06	3.326011e-10	1.190922e+01	2.192563e+01
2.230000e-06	1.755069e-06	3.533501e-10	1.221748e+01	2.348416e+01
2.240000e-06	1.799264e-06	3.724803e-10	1.252512e+01	2.501829e+01
2.250000e-06	1.843304e-06	3.910306e-10	1.283169e+01	2.652646e+01
2.260000e-06	1.887288e-06	4.103260e-10	1.313788e+01	2.800722e+01
2.270000e-06	1.931264e-06	4.292521e-10	1.344401e+01	2.945924e+01
2.280000e-06	1.975144e-06	4.475058e-10	1.374947e+01	3.088132e+01
2.290000e-06	2.018933e-06	4.652352e-10	1.405430e+01	3.227238e+01
2.300000e-06	2.062695e-06	4.802484e-10	1.435893e+01	3.363146e+01
2.310000e-06	2.106417e-06	4.942383e-10	1.466329e+01	3.495774e+01
2.320000e-06	2.150083e-06	5.092576e-10	1.496726e+01	3.625052e+01
2.330000e-06	2.193679e-06	5.260346e-10	1.527075e+01	3.750924e+01
2.340000e-06	2.237103e-06	5.445544e-10	1.557303e+01	3.873345e+01
2.350000e-06	2.280276e-06	5.639361e-10	1.587356e+01	3.992283e+01
2.360000e-06	2.323147e-06	5.819034e-10	1.617201e+01	4.107721e+01
2.370000e-06	2.365786e-06	5.972923e-10	1.646882e+01	4.219649e+01
2.380000e-06	2.408269e-06	6.113765e-10	1.676456e+01	4.328074e+01
2.390000e-06	2.450385e-06	6.238249e-10	1.705774e+01	4.433011e+01
2.400000e-06	2.491995e-06	6.357704e-10	1.734740e+01	4.534484e+01
2.410000e-06	2.533313e-06	6.475941e-10	1.763502e+01	4.632529e+01
2.420000e-06	2.574392e-06	6.594763e-10	1.792098e+01	4.727190e+01
2.430000e-06	2.615190e-06	6.707763e-10	1.820499e+01	4.818520e+01
2.440000e-06	2.655715e-06	6.818937e-10	1.848709e+01	4.906577e+01
2.450000e-06	2.695961e-06	6.932288e-10	1.876725e+01	4.991427e+01
2.460000e-06	2.736047e-06	7.041053e-10	1.904630e+01	5.073141e+01
2.470000e-06	2.776068e-06	7.152102e-10	1.932490e+01	5.151792e+01
2.480000e-06	2.816012e-06	7.249615e-10	1.960296e+01	5.227461e+01
2.490000e-06	2.855841e-06	7.334976e-10	1.988022e+01	5.300226e+01
2.500000e-06	2.895555e-06	7.433824e-10	2.015668e+01	5.370169e+01
2.510000e-06	2.935128e-06	7.535248e-10	2.043216e+01	5.437375e+01
2.520000e-06	2.974499e-06	7.632918e-10	2.070623e+01	5.501923e+01
2.530000e-06	3.013629e-06	7.727005e-10	2.097862e+01	5.563896e+01
2.540000e-06	3.052547e-06	7.813072e-10	2.124954e+01	5.623373e+01
2.550000e-06	3.091240e-06	7.894061e-10	2.151889e+01	5.680430e+01
2.560000e-06	3.129783e-06	7.962609e-10	2.178720e+01	5.735142e+01
2.570000e-06	3.168119e-06	8.029014e-10	2.205406e+01	5.787581e+01
2.580000e-06	3.206130e-06	8.101205e-10	2.231867e+01	5.837813e+01
2.590000e-06	3.243953e-06	8.167011e-10	2.258197e+01	5.885903e+01
2.600000e-06	3.281613e-06	8.227354e-10	2.284412e+01	5.931910e+01
2.610000e-06	3.319090e-06	8.289298e-10	2.310501e+01	5.975893e+01
2.620000e-06	3.356354e-06	8.340881e-10	2.336441e+01	6.017903e+01
2.630000e-06	3.393318e-06	8.391268e-10	2.362173e+01	6.057992e+01
2.640000e-06	3.430006e-06	8.461328e-10	2.387712e+01	6.096207e+01
2.650000e-06	3.466426e-06	8.535764e-10	2.413065e+01	6.132592e+01
2.660000e-06	3.502652e-06	8.604456e-10	2.438283e+01	6.167190e+01
2.670000e-06	3.538716e-06	8.678759e-10	2.463388e+01	6.200045e+01
2.680000e-06	3.574576e-06	8.745068e-10	2.488351e+01	6.231195e+01
2.690000e-06	3.610313e-06	8.793982e-10	2.513229e+01	6.260682e+01
2.700000e-06	3.645928e-06	8.827902e-10	2.538021e+01	6.288547e+01
2.710000e-06	3.681413e-06	8.856480e-10	2.562723e+01	6.314832e+01
2.720000e-06	3.716727e-06	8.906183e-10	2.587306e+01	6.339579e+01
2.730000e-06	3.751714e-06	8.988966e-10	2.611662e+01	6.362833e+01
2.740000e-06	3.786228e-06	9.070901e-10	2.635687e+01	6.384642e+01
2.750000e-06	3.820235e-06	9.126839e-10	2.659360e+01	6.405054e+01
2.760000e-06	3.853746e-06	9.137532e-10	2.682688e+01	6.424122e+01
2.770000e-06	3.886750e-06	9.123585e-10	2.705663e+01	6.441901e+01
2.780000e-06	3.919361e-06	9.123423e-10	2.728365e+01	6.458448e+01
2.790000e-06	3.951677e-06	9.144417e-10	2.750861e+01	6.473822e+01
2.800000e-06	3.983772e-06	9.193228e-10	2.773203e+01	6.488088e+01
2.810000e-06	4.015730e-06	9.245910e-10	2.795449e+01	6.501309e+01
2.820000e-06	4.047530e-06	9.277413e-10	2.817586e+01	6.513553e+01
2.830000e-06	4.079081e-06	9.308458e-10	2.839550e+01	6.524885e+01
2.840000e-06	4.110400e-06	9.331743e-10	2.861352e+01	6.535375e+01
2.850000e-06	4.141490e-06	9.330029e-10	2.882994e+01	6.545091e+01
2.860000e-06	4.172295e-06	9.314691e-10	2.904438e+01	6.554099e+01
2.870000e-06	4.202764e-06	9.315430e-10	2.925648e+01	6.562466e+01
2.880000e-06	4.232882e-06	9.353116e-10	2.946614e+01	6.570255e+01
2.890000e-06	4.262748e-06	9.392461e-10	2.967405e+01	6.577526e+01
2.900000e-06	4.292334e-06	9.419798e-10	2.988000e+01	6.584337e+01
