# Temperatura_=_-1.7
# Concentracion g/m^3_=_1620.0
# C_Vs_to_Am_M_A/Vsm_=_65563218390.804596
# pendiente_HvsI_1/m_=_3716.3
# ordenada_HvsI_A/m_=_1297.0
# frecuencia_Hz_=_135101.10426337458

Tiempo_(s)	Campo_(V.s)	Magnetizacion_(V.s)	Campo_(kA/m)	Magnetizacion_(A/m)
0.000000e+00	-5.512565e-06	-1.359226e-09	-3.836574e+01	-8.733668e+01
1.000000e-08	-5.512626e-06	-1.354485e-09	-3.836616e+01	-8.728144e+01
2.000000e-08	-5.512409e-06	-1.352390e-09	-3.836466e+01	-8.722495e+01
3.000000e-08	-5.511789e-06	-1.352281e-09	-3.836034e+01	-8.716753e+01
4.000000e-08	-5.510657e-06	-1.352673e-09	-3.835246e+01	-8.710946e+01
5.000000e-08	-5.508997e-06	-1.352171e-09	-3.834091e+01	-8.705101e+01
6.000000e-08	-5.506727e-06	-1.352942e-09	-3.832511e+01	-8.699245e+01
7.000000e-08	-5.503786e-06	-1.341349e-09	-3.830465e+01	-8.693400e+01
8.000000e-08	-5.500341e-06	-1.328862e-09	-3.828067e+01	-8.687586e+01
9.000000e-08	-5.496535e-06	-1.371300e-09	-3.825418e+01	-8.681818e+01
1.000000e-07	-5.492353e-06	-1.429570e-09	-3.822507e+01	-8.676110e+01
1.100000e-07	-5.487848e-06	-1.385617e-09	-3.819372e+01	-8.670468e+01
1.200000e-07	-5.483131e-06	-1.245505e-09	-3.816089e+01	-8.664897e+01
1.300000e-07	-5.478189e-06	-1.281362e-09	-3.812649e+01	-8.659396e+01
1.400000e-07	-5.472847e-06	-1.392814e-09	-3.808932e+01	-8.653959e+01
1.500000e-07	-5.466980e-06	-1.401629e-09	-3.804848e+01	-8.648576e+01
1.600000e-07	-5.460675e-06	-1.285451e-09	-3.800460e+01	-8.643235e+01
1.700000e-07	-5.454100e-06	-1.289166e-09	-3.795884e+01	-8.637915e+01
1.800000e-07	-5.447192e-06	-1.421107e-09	-3.791077e+01	-8.632597e+01
1.900000e-07	-5.439805e-06	-1.385000e-09	-3.785935e+01	-8.627255e+01
2.000000e-07	-5.432141e-06	-1.279624e-09	-3.780601e+01	-8.621861e+01
2.100000e-07	-5.424298e-06	-1.254617e-09	-3.775143e+01	-8.616386e+01
2.200000e-07	-5.416146e-06	-1.363687e-09	-3.769470e+01	-8.610797e+01
2.300000e-07	-5.407621e-06	-1.356638e-09	-3.763537e+01	-8.605063e+01
2.400000e-07	-5.398631e-06	-1.298699e-09	-3.757280e+01	-8.599149e+01
2.500000e-07	-5.389039e-06	-1.267287e-09	-3.750604e+01	-8.593023e+01
2.600000e-07	-5.378743e-06	-1.322016e-09	-3.743438e+01	-8.586652e+01
2.700000e-07	-5.367753e-06	-1.317620e-09	-3.735789e+01	-8.580005e+01
2.800000e-07	-5.356320e-06	-1.292779e-09	-3.727833e+01	-8.573053e+01
2.900000e-07	-5.344522e-06	-1.277308e-09	-3.719622e+01	-8.565769e+01
3.000000e-07	-5.332343e-06	-1.303347e-09	-3.711145e+01	-8.558129e+01
3.100000e-07	-5.319894e-06	-1.316682e-09	-3.702481e+01	-8.550114e+01
3.200000e-07	-5.307024e-06	-1.294761e-09	-3.693524e+01	-8.541706e+01
3.300000e-07	-5.293643e-06	-1.271970e-09	-3.684211e+01	-8.532894e+01
3.400000e-07	-5.279905e-06	-1.293728e-09	-3.674650e+01	-8.523671e+01
3.500000e-07	-5.265826e-06	-1.319096e-09	-3.664851e+01	-8.514032e+01
3.600000e-07	-5.251322e-06	-1.276660e-09	-3.654757e+01	-8.503980e+01
3.700000e-07	-5.236372e-06	-1.266287e-09	-3.644352e+01	-8.493522e+01
3.800000e-07	-5.220974e-06	-1.304879e-09	-3.633636e+01	-8.482667e+01
3.900000e-07	-5.205081e-06	-1.293250e-09	-3.622575e+01	-8.471433e+01
4.000000e-07	-5.188533e-06	-1.238046e-09	-3.611058e+01	-8.459838e+01
4.100000e-07	-5.171564e-06	-1.295031e-09	-3.599248e+01	-8.447908e+01
4.200000e-07	-5.154420e-06	-1.319436e-09	-3.587316e+01	-8.435668e+01
4.300000e-07	-5.136923e-06	-1.249340e-09	-3.575139e+01	-8.423152e+01
4.400000e-07	-5.119090e-06	-1.242649e-09	-3.562728e+01	-8.410391e+01
4.500000e-07	-5.100935e-06	-1.334251e-09	-3.550093e+01	-8.397421e+01
4.600000e-07	-5.082300e-06	-1.273605e-09	-3.537123e+01	-8.384280e+01
4.700000e-07	-5.063195e-06	-1.207004e-09	-3.523827e+01	-8.371005e+01
4.800000e-07	-5.043831e-06	-1.273275e-09	-3.510350e+01	-8.357636e+01
4.900000e-07	-5.024274e-06	-1.305154e-09	-3.496739e+01	-8.344210e+01
5.000000e-07	-5.004421e-06	-1.218594e-09	-3.482922e+01	-8.330764e+01
5.100000e-07	-4.984314e-06	-1.254392e-09	-3.468928e+01	-8.317334e+01
5.200000e-07	-4.963954e-06	-1.300049e-09	-3.454758e+01	-8.303953e+01
5.300000e-07	-4.943184e-06	-1.233575e-09	-3.440303e+01	-8.290651e+01
5.400000e-07	-4.922077e-06	-1.220784e-09	-3.425613e+01	-8.277456e+01
5.500000e-07	-4.900693e-06	-1.298090e-09	-3.410730e+01	-8.264392e+01
5.600000e-07	-4.878890e-06	-1.249296e-09	-3.395556e+01	-8.251477e+01
5.700000e-07	-4.856749e-06	-1.197623e-09	-3.380146e+01	-8.238726e+01
5.800000e-07	-4.834274e-06	-1.259025e-09	-3.364504e+01	-8.226149e+01
5.900000e-07	-4.811427e-06	-1.266367e-09	-3.348604e+01	-8.213750e+01
6.000000e-07	-4.788271e-06	-1.203385e-09	-3.332488e+01	-8.201530e+01
6.100000e-07	-4.764796e-06	-1.231545e-09	-3.316150e+01	-8.189483e+01
6.200000e-07	-4.741089e-06	-1.259620e-09	-3.299651e+01	-8.177599e+01
6.300000e-07	-4.717241e-06	-1.210928e-09	-3.283054e+01	-8.165861e+01
6.400000e-07	-4.693161e-06	-1.209666e-09	-3.266295e+01	-8.154250e+01
6.500000e-07	-4.668722e-06	-1.235656e-09	-3.249286e+01	-8.142741e+01
6.600000e-07	-4.643758e-06	-1.214712e-09	-3.231912e+01	-8.131304e+01
6.700000e-07	-4.618213e-06	-1.203885e-09	-3.214133e+01	-8.119908e+01
6.800000e-07	-4.592215e-06	-1.229339e-09	-3.196039e+01	-8.108516e+01
6.900000e-07	-4.565743e-06	-1.214740e-09	-3.177615e+01	-8.097090e+01
7.000000e-07	-4.538800e-06	-1.203089e-09	-3.158864e+01	-8.085590e+01
7.100000e-07	-4.511491e-06	-1.211078e-09	-3.139858e+01	-8.073973e+01
7.200000e-07	-4.483918e-06	-1.207614e-09	-3.120668e+01	-8.062197e+01
7.300000e-07	-4.456142e-06	-1.191987e-09	-3.101336e+01	-8.050219e+01
7.400000e-07	-4.428202e-06	-1.203627e-09	-3.081891e+01	-8.037996e+01
7.500000e-07	-4.400025e-06	-1.197603e-09	-3.062281e+01	-8.025487e+01
7.600000e-07	-4.371477e-06	-1.188340e-09	-3.042412e+01	-8.012651e+01
7.700000e-07	-4.342603e-06	-1.186722e-09	-3.022317e+01	-7.999452e+01
7.800000e-07	-4.313505e-06	-1.185280e-09	-3.002065e+01	-7.985854e+01
7.900000e-07	-4.284137e-06	-1.169118e-09	-2.981627e+01	-7.971826e+01
8.000000e-07	-4.254438e-06	-1.172228e-09	-2.960957e+01	-7.957340e+01
8.100000e-07	-4.224446e-06	-1.170915e-09	-2.940084e+01	-7.942372e+01
8.200000e-07	-4.194178e-06	-1.158537e-09	-2.919018e+01	-7.926902e+01
8.300000e-07	-4.163595e-06	-1.151938e-09	-2.897733e+01	-7.910915e+01
8.400000e-07	-4.132722e-06	-1.162461e-09	-2.876246e+01	-7.894401e+01
8.500000e-07	-4.101564e-06	-1.157643e-09	-2.854561e+01	-7.877353e+01
8.600000e-07	-4.070141e-06	-1.147770e-09	-2.832692e+01	-7.859772e+01
8.700000e-07	-4.038587e-06	-1.145600e-09	-2.810732e+01	-7.841658e+01
8.800000e-07	-4.006891e-06	-1.140660e-09	-2.788672e+01	-7.823021e+01
8.900000e-07	-3.975005e-06	-1.129087e-09	-2.766480e+01	-7.803871e+01
9.000000e-07	-3.942881e-06	-1.130053e-09	-2.744123e+01	-7.784225e+01
9.100000e-07	-3.910454e-06	-1.134978e-09	-2.721555e+01	-7.764099e+01
9.200000e-07	-3.877819e-06	-1.129177e-09	-2.698842e+01	-7.743516e+01
9.300000e-07	-3.844697e-06	-1.128558e-09	-2.675790e+01	-7.722498e+01
9.400000e-07	-3.810949e-06	-1.133348e-09	-2.652302e+01	-7.701072e+01
9.500000e-07	-3.776703e-06	-1.128065e-09	-2.628468e+01	-7.679264e+01
9.600000e-07	-3.741999e-06	-1.114997e-09	-2.604315e+01	-7.657101e+01
9.700000e-07	-3.706997e-06	-1.114356e-09	-2.579955e+01	-7.634611e+01
9.800000e-07	-3.671801e-06	-1.111729e-09	-2.555460e+01	-7.611819e+01
9.900000e-07	-3.636409e-06	-1.104338e-09	-2.530828e+01	-7.588753e+01
1.000000e-06	-3.600735e-06	-1.100139e-09	-2.506000e+01	-7.565437e+01
1.010000e-06	-3.564935e-06	-1.104661e-09	-2.481084e+01	-7.541892e+01
1.020000e-06	-3.529044e-06	-1.099534e-09	-2.456105e+01	-7.518138e+01
1.030000e-06	-3.492972e-06	-1.095799e-09	-2.431000e+01	-7.494193e+01
1.040000e-06	-3.456722e-06	-1.091688e-09	-2.405771e+01	-7.470070e+01
1.050000e-06	-3.420157e-06	-1.084886e-09	-2.380323e+01	-7.445779e+01
1.060000e-06	-3.383283e-06	-1.075074e-09	-2.354660e+01	-7.421327e+01
1.070000e-06	-3.346177e-06	-1.074143e-09	-2.328836e+01	-7.396717e+01
1.080000e-06	-3.308830e-06	-1.070571e-09	-2.302843e+01	-7.371949e+01
1.090000e-06	-3.271226e-06	-1.064583e-09	-2.276672e+01	-7.347016e+01
1.100000e-06	-3.233390e-06	-1.058685e-09	-2.250339e+01	-7.321912e+01
1.110000e-06	-3.195424e-06	-1.054759e-09	-2.223916e+01	-7.296624e+01
1.120000e-06	-3.157221e-06	-1.043931e-09	-2.197328e+01	-7.271138e+01
1.130000e-06	-3.118704e-06	-1.034801e-09	-2.170521e+01	-7.245434e+01
1.140000e-06	-3.079976e-06	-1.032969e-09	-2.143567e+01	-7.219492e+01
1.150000e-06	-3.041001e-06	-1.032928e-09	-2.116442e+01	-7.193290e+01
1.160000e-06	-3.001829e-06	-1.026633e-09	-2.089180e+01	-7.166801e+01
1.170000e-06	-2.962580e-06	-1.019858e-09	-2.061864e+01	-7.139999e+01
1.180000e-06	-2.923167e-06	-1.013505e-09	-2.034434e+01	-7.112856e+01
1.190000e-06	-2.883594e-06	-1.005178e-09	-2.006892e+01	-7.085345e+01
1.200000e-06	-2.843871e-06	-9.978336e-10	-1.979246e+01	-7.057435e+01
1.210000e-06	-2.803974e-06	-9.932310e-10	-1.951479e+01	-7.029100e+01
1.220000e-06	-2.763938e-06	-9.902279e-10	-1.923615e+01	-7.000310e+01
1.230000e-06	-2.723778e-06	-9.872469e-10	-1.895665e+01	-6.971038e+01
1.240000e-06	-2.683490e-06	-9.849672e-10	-1.867626e+01	-6.941259e+01
1.250000e-06	-2.643001e-06	-9.791203e-10	-1.839447e+01	-6.910947e+01
1.260000e-06	-2.602247e-06	-9.720873e-10	-1.811083e+01	-6.880081e+01
1.270000e-06	-2.561222e-06	-9.627236e-10	-1.782531e+01	-6.848638e+01
1.280000e-06	-2.519798e-06	-9.549317e-10	-1.753701e+01	-6.816598e+01
1.290000e-06	-2.478077e-06	-9.467884e-10	-1.724665e+01	-6.783945e+01
1.300000e-06	-2.436115e-06	-9.407869e-10	-1.695461e+01	-6.750661e+01
1.310000e-06	-2.393829e-06	-9.371186e-10	-1.666031e+01	-6.716733e+01
1.320000e-06	-2.351243e-06	-9.347662e-10	-1.636392e+01	-6.682146e+01
1.330000e-06	-2.308365e-06	-9.274287e-10	-1.606551e+01	-6.646889e+01
1.340000e-06	-2.265235e-06	-9.202726e-10	-1.576533e+01	-6.610950e+01
1.350000e-06	-2.221966e-06	-9.157021e-10	-1.546420e+01	-6.574318e+01
1.360000e-06	-2.178553e-06	-9.113146e-10	-1.516205e+01	-6.536981e+01
1.370000e-06	-2.134947e-06	-9.040143e-10	-1.485857e+01	-6.498929e+01
1.380000e-06	-2.091286e-06	-8.966445e-10	-1.455470e+01	-6.460148e+01
1.390000e-06	-2.047566e-06	-8.890060e-10	-1.425043e+01	-6.420625e+01
1.400000e-06	-2.003729e-06	-8.825332e-10	-1.394533e+01	-6.380344e+01
1.410000e-06	-1.959806e-06	-8.745408e-10	-1.363964e+01	-6.339287e+01
1.420000e-06	-1.915850e-06	-8.677371e-10	-1.333372e+01	-6.297432e+01
1.430000e-06	-1.871806e-06	-8.629259e-10	-1.302719e+01	-6.254756e+01
1.440000e-06	-1.827676e-06	-8.572736e-10	-1.272006e+01	-6.211231e+01
1.450000e-06	-1.783535e-06	-8.479211e-10	-1.241285e+01	-6.166826e+01
1.460000e-06	-1.739266e-06	-8.345140e-10	-1.210475e+01	-6.121503e+01
1.470000e-06	-1.694840e-06	-8.215468e-10	-1.179556e+01	-6.075223e+01
1.480000e-06	-1.650328e-06	-8.123702e-10	-1.148577e+01	-6.027939e+01
1.490000e-06	-1.605633e-06	-8.037889e-10	-1.117471e+01	-5.979602e+01
1.500000e-06	-1.560775e-06	-7.956413e-10	-1.086251e+01	-5.930157e+01
1.510000e-06	-1.515833e-06	-7.892086e-10	-1.054973e+01	-5.879543e+01
1.520000e-06	-1.470780e-06	-7.829936e-10	-1.023617e+01	-5.827694e+01
1.530000e-06	-1.425614e-06	-7.752943e-10	-9.921830e+00	-5.774542e+01
1.540000e-06	-1.380288e-06	-7.651120e-10	-9.606377e+00	-5.720011e+01
1.550000e-06	-1.334845e-06	-7.545583e-10	-9.290104e+00	-5.664022e+01
1.560000e-06	-1.289344e-06	-7.428043e-10	-8.973431e+00	-5.606494e+01
1.570000e-06	-1.243762e-06	-7.321524e-10	-8.656195e+00	-5.547338e+01
1.580000e-06	-1.198095e-06	-7.252668e-10	-8.338368e+00	-5.486466e+01
1.590000e-06	-1.152358e-06	-7.204503e-10	-8.020055e+00	-5.423785e+01
1.600000e-06	-1.106548e-06	-7.149074e-10	-7.701229e+00	-5.359200e+01
1.610000e-06	-1.060646e-06	-7.063545e-10	-7.381770e+00	-5.292615e+01
1.620000e-06	-1.014663e-06	-6.957765e-10	-7.061737e+00	-5.223931e+01
1.630000e-06	-9.686261e-07	-6.865891e-10	-6.741337e+00	-5.153050e+01
1.640000e-06	-9.225685e-07	-6.760703e-10	-6.420790e+00	-5.079873e+01
1.650000e-06	-8.763881e-07	-6.651157e-10	-6.099389e+00	-5.004302e+01
1.660000e-06	-8.300547e-07	-6.521750e-10	-5.776923e+00	-4.926240e+01
1.670000e-06	-7.836905e-07	-6.365238e-10	-5.454242e+00	-4.845591e+01
1.680000e-06	-7.373154e-07	-6.207967e-10	-5.131487e+00	-4.762261e+01
1.690000e-06	-6.909396e-07	-6.053762e-10	-4.808725e+00	-4.676158e+01
1.700000e-06	-6.445809e-07	-5.908039e-10	-4.486083e+00	-4.587195e+01
1.710000e-06	-5.982007e-07	-5.784876e-10	-4.163291e+00	-4.495287e+01
1.720000e-06	-5.517213e-07	-5.670902e-10	-3.839809e+00	-4.400353e+01
1.730000e-06	-5.050785e-07	-5.577222e-10	-3.515190e+00	-4.302317e+01
1.740000e-06	-4.584323e-07	-5.450655e-10	-3.190547e+00	-4.201108e+01
1.750000e-06	-4.118405e-07	-5.279929e-10	-2.866282e+00	-4.096661e+01
1.760000e-06	-3.652448e-07	-5.043397e-10	-2.541990e+00	-3.988914e+01
1.770000e-06	-3.185852e-07	-4.813515e-10	-2.217254e+00	-3.877814e+01
1.780000e-06	-2.718487e-07	-4.636965e-10	-1.891982e+00	-3.763314e+01
1.790000e-06	-2.251375e-07	-4.493376e-10	-1.566887e+00	-3.645373e+01
1.800000e-06	-1.784671e-07	-4.386966e-10	-1.242076e+00	-3.523958e+01
1.810000e-06	-1.318116e-07	-4.291033e-10	-9.173680e-01	-3.399043e+01
1.820000e-06	-8.513092e-08	-4.145528e-10	-5.924848e-01	-3.270610e+01
1.830000e-06	-3.840530e-08	-3.953481e-10	-2.672890e-01	-3.138650e+01
1.840000e-06	8.275078e-09	-3.750692e-10	5.759197e-02	-3.003164e+01
1.850000e-06	5.494975e-08	-3.531094e-10	3.824332e-01	-2.864160e+01
1.860000e-06	1.016839e-07	-3.315183e-10	7.076881e-01	-2.721656e+01
1.870000e-06	1.483746e-07	-3.091133e-10	1.032641e+00	-2.575680e+01
1.880000e-06	1.950685e-07	-2.893561e-10	1.357616e+00	-2.426272e+01
1.890000e-06	2.418527e-07	-2.718831e-10	1.683220e+00	-2.273481e+01
1.900000e-06	2.886324e-07	-2.536214e-10	2.008792e+00	-2.117366e+01
1.910000e-06	3.353793e-07	-2.317718e-10	2.334136e+00	-1.958001e+01
1.920000e-06	3.821226e-07	-2.059817e-10	2.659455e+00	-1.795467e+01
1.930000e-06	4.288071e-07	-1.798315e-10	2.984364e+00	-1.629860e+01
1.940000e-06	4.754303e-07	-1.545349e-10	3.308848e+00	-1.461287e+01
1.950000e-06	5.220345e-07	-1.306041e-10	3.633198e+00	-1.289867e+01
1.960000e-06	5.685557e-07	-1.083059e-10	3.956971e+00	-1.115732e+01
1.970000e-06	6.150042e-07	-8.519804e-11	4.280238e+00	-9.390250e+00
1.980000e-06	6.614076e-07	-6.318410e-11	4.603192e+00	-7.599024e+00
1.990000e-06	7.077488e-07	-3.849293e-11	4.925712e+00	-5.785316e+00
2.000000e-06	7.540042e-07	-1.080651e-11	5.247635e+00	-3.950919e+00
2.010000e-06	8.001588e-07	1.707242e-11	5.568857e+00	-2.097741e+00
2.020000e-06	8.462701e-07	4.382921e-11	5.889778e+00	-2.277930e-01
2.030000e-06	8.923581e-07	6.863406e-11	6.210535e+00	1.656809e+00
2.040000e-06	9.384377e-07	9.208442e-11	6.531235e+00	3.553856e+00
2.050000e-06	9.845277e-07	1.167069e-10	6.852007e+00	5.461054e+00
2.060000e-06	1.030570e-06	1.425091e-10	7.172448e+00	7.376034e+00
2.070000e-06	1.076444e-06	1.688989e-10	7.491717e+00	9.296360e+00
2.080000e-06	1.122267e-06	1.948988e-10	7.810628e+00	1.121954e+01
2.090000e-06	1.168050e-06	2.220597e-10	8.129266e+00	1.314305e+01
2.100000e-06	1.213657e-06	2.502018e-10	8.446677e+00	1.506433e+01
2.110000e-06	1.259180e-06	2.778897e-10	8.763503e+00	1.698081e+01
2.120000e-06	1.304668e-06	3.056745e-10	9.080083e+00	1.888992e+01
2.130000e-06	1.350101e-06	3.304567e-10	9.396282e+00	2.078911e+01
2.140000e-06	1.395468e-06	3.515425e-10	9.712025e+00	2.267586e+01
2.150000e-06	1.440728e-06	3.730895e-10	1.002702e+01	2.454770e+01
2.160000e-06	1.485859e-06	3.977741e-10	1.034112e+01	2.640221e+01
2.170000e-06	1.530868e-06	4.247547e-10	1.065437e+01	2.823706e+01
2.180000e-06	1.575764e-06	4.529000e-10	1.096683e+01	3.005002e+01
2.190000e-06	1.620501e-06	4.812989e-10	1.127818e+01	3.183896e+01
2.200000e-06	1.665035e-06	5.078505e-10	1.158812e+01	3.360185e+01
2.210000e-06	1.709415e-06	5.303388e-10	1.189700e+01	3.533681e+01
2.220000e-06	1.753683e-06	5.523690e-10	1.220509e+01	3.704211e+01
2.230000e-06	1.797900e-06	5.728061e-10	1.251282e+01	3.871615e+01
2.240000e-06	1.842023e-06	5.919148e-10	1.281991e+01	4.035749e+01
2.250000e-06	1.885994e-06	6.121831e-10	1.312594e+01	4.196487e+01
2.260000e-06	1.929895e-06	6.340583e-10	1.343147e+01	4.353718e+01
2.270000e-06	1.973701e-06	6.561228e-10	1.373634e+01	4.507349e+01
2.280000e-06	2.017405e-06	6.777075e-10	1.404051e+01	4.657305e+01
2.290000e-06	2.061061e-06	6.977049e-10	1.434435e+01	4.803525e+01
2.300000e-06	2.104636e-06	7.158106e-10	1.464762e+01	4.945969e+01
2.310000e-06	2.148191e-06	7.332307e-10	1.495074e+01	5.084609e+01
2.320000e-06	2.191736e-06	7.490512e-10	1.525380e+01	5.219435e+01
2.330000e-06	2.235113e-06	7.641059e-10	1.555569e+01	5.350452e+01
2.340000e-06	2.278274e-06	7.812087e-10	1.585608e+01	5.477677e+01
2.350000e-06	2.321302e-06	7.997587e-10	1.615554e+01	5.601142e+01
2.360000e-06	2.364104e-06	8.169463e-10	1.645343e+01	5.720889e+01
2.370000e-06	2.406518e-06	8.317459e-10	1.674862e+01	5.836971e+01
2.380000e-06	2.448669e-06	8.442376e-10	1.704198e+01	5.949452e+01
2.390000e-06	2.490606e-06	8.568665e-10	1.733384e+01	6.058399e+01
2.400000e-06	2.532064e-06	8.703783e-10	1.762238e+01	6.163891e+01
2.410000e-06	2.573057e-06	8.843364e-10	1.790768e+01	6.266008e+01
2.420000e-06	2.613857e-06	8.961830e-10	1.819163e+01	6.364836e+01
2.430000e-06	2.654457e-06	9.061203e-10	1.847420e+01	6.460462e+01
2.440000e-06	2.694784e-06	9.160549e-10	1.875486e+01	6.552976e+01
2.450000e-06	2.734939e-06	9.261897e-10	1.903433e+01	6.642465e+01
2.460000e-06	2.774958e-06	9.379720e-10	1.931284e+01	6.729019e+01
2.470000e-06	2.814830e-06	9.487309e-10	1.959034e+01	6.812723e+01
2.480000e-06	2.854602e-06	9.576340e-10	1.986714e+01	6.893660e+01
2.490000e-06	2.894273e-06	9.685323e-10	2.014324e+01	6.971911e+01
2.500000e-06	2.933817e-06	9.792364e-10	2.041846e+01	7.047552e+01
2.510000e-06	2.973275e-06	9.892032e-10	2.069307e+01	7.120655e+01
2.520000e-06	3.012597e-06	9.985199e-10	2.096674e+01	7.191287e+01
2.530000e-06	3.051672e-06	1.006822e-09	2.123869e+01	7.259513e+01
2.540000e-06	3.090416e-06	1.016542e-09	2.150834e+01	7.325390e+01
2.550000e-06	3.128880e-06	1.026517e-09	2.177603e+01	7.388973e+01
2.560000e-06	3.167119e-06	1.035618e-09	2.204217e+01	7.450314e+01
2.570000e-06	3.205076e-06	1.043593e-09	2.230634e+01	7.509459e+01
2.580000e-06	3.242863e-06	1.051330e-09	2.256932e+01	7.566453e+01
2.590000e-06	3.280501e-06	1.058473e-09	2.283127e+01	7.621338e+01
2.600000e-06	3.317894e-06	1.064813e-09	2.309151e+01	7.674154e+01
2.610000e-06	3.355112e-06	1.072959e-09	2.335054e+01	7.724942e+01
2.620000e-06	3.392151e-06	1.081989e-09	2.360832e+01	7.773741e+01
2.630000e-06	3.428856e-06	1.090762e-09	2.386377e+01	7.820589e+01
2.640000e-06	3.465241e-06	1.098995e-09	2.411700e+01	7.865529e+01
2.650000e-06	3.501367e-06	1.105158e-09	2.436843e+01	7.908602e+01
2.660000e-06	3.537338e-06	1.109996e-09	2.461878e+01	7.949853e+01
2.670000e-06	3.573204e-06	1.115137e-09	2.486839e+01	7.989331e+01
2.680000e-06	3.608965e-06	1.120750e-09	2.511728e+01	8.027085e+01
2.690000e-06	3.644664e-06	1.126537e-09	2.536573e+01	8.063171e+01
2.700000e-06	3.680227e-06	1.132968e-09	2.561324e+01	8.097646e+01
2.710000e-06	3.715522e-06	1.140255e-09	2.585888e+01	8.130572e+01
2.720000e-06	3.750442e-06	1.146692e-09	2.610191e+01	8.162016e+01
2.730000e-06	3.784949e-06	1.151564e-09	2.634207e+01	8.192045e+01
2.740000e-06	3.819072e-06	1.156122e-09	2.657956e+01	8.220733e+01
2.750000e-06	3.852830e-06	1.157820e-09	2.681450e+01	8.248155e+01
2.760000e-06	3.886031e-06	1.157703e-09	2.704557e+01	8.274389e+01
2.770000e-06	3.918721e-06	1.159100e-09	2.727308e+01	8.299513e+01
2.780000e-06	3.951053e-06	1.165692e-09	2.749810e+01	8.323608e+01
2.790000e-06	3.983089e-06	1.176083e-09	2.772106e+01	8.346755e+01
2.800000e-06	4.014963e-06	1.183832e-09	2.794290e+01	8.369034e+01
2.810000e-06	4.046707e-06	1.187537e-09	2.816382e+01	8.390524e+01
2.820000e-06	4.078309e-06	1.190808e-09	2.838377e+01	8.411301e+01
2.830000e-06	4.109686e-06	1.193276e-09	2.860214e+01	8.431437e+01
2.840000e-06	4.140719e-06	1.193314e-09	2.881812e+01	8.451003e+01
2.850000e-06	4.171412e-06	1.191764e-09	2.903173e+01	8.470061e+01
2.860000e-06	4.201797e-06	1.192367e-09	2.924320e+01	8.488671e+01
2.870000e-06	4.231885e-06	1.196151e-09	2.945260e+01	8.506885e+01
2.880000e-06	4.261693e-06	1.201846e-09	2.966006e+01	8.524748e+01
2.890000e-06	4.291268e-06	1.209320e-09	2.986590e+01	8.542298e+01
2.900000e-06	4.320656e-06	1.213004e-09	3.007042e+01	8.559565e+01
