# Temperatura_=_-6.22
# Concentracion g/m^3_=_1620.0
# C_Vs_to_Am_M_A/Vsm_=_65563218390.804596
# pendiente_HvsI_1/m_=_3716.3
# ordenada_HvsI_A/m_=_1297.0
# frecuencia_Hz_=_135100.99995289886

Tiempo_(s)	Campo_(V.s)	Magnetizacion_(V.s)	Campo_(kA/m)	Magnetizacion_(A/m)
0.000000e+00	-5.538580e-06	-1.302802e-09	-3.838005e+01	-8.458786e+01
1.000000e-08	-5.538777e-06	-1.302771e-09	-3.838141e+01	-8.452101e+01
2.000000e-08	-5.538747e-06	-1.298308e-09	-3.838120e+01	-8.445492e+01
3.000000e-08	-5.538404e-06	-1.292160e-09	-3.837883e+01	-8.438981e+01
4.000000e-08	-5.537619e-06	-1.288447e-09	-3.837339e+01	-8.432586e+01
5.000000e-08	-5.536399e-06	-1.284713e-09	-3.836493e+01	-8.426322e+01
6.000000e-08	-5.534685e-06	-1.278516e-09	-3.835305e+01	-8.420199e+01
7.000000e-08	-5.532287e-06	-1.267555e-09	-3.833644e+01	-8.414224e+01
8.000000e-08	-5.529215e-06	-1.258221e-09	-3.831515e+01	-8.408399e+01
9.000000e-08	-5.525607e-06	-1.305562e-09	-3.829015e+01	-8.402719e+01
1.000000e-07	-5.521612e-06	-1.392708e-09	-3.826246e+01	-8.397177e+01
1.100000e-07	-5.517162e-06	-1.340745e-09	-3.823163e+01	-8.391760e+01
1.200000e-07	-5.512399e-06	-1.183816e-09	-3.819862e+01	-8.386450e+01
1.300000e-07	-5.507601e-06	-1.191851e-09	-3.816537e+01	-8.381224e+01
1.400000e-07	-5.502476e-06	-1.327523e-09	-3.812986e+01	-8.376056e+01
1.500000e-07	-5.496878e-06	-1.361267e-09	-3.809107e+01	-8.370916e+01
1.600000e-07	-5.490952e-06	-1.223940e-09	-3.805000e+01	-8.365771e+01
1.700000e-07	-5.484723e-06	-1.211649e-09	-3.800684e+01	-8.360582e+01
1.800000e-07	-5.478098e-06	-1.334128e-09	-3.796093e+01	-8.355313e+01
1.900000e-07	-5.470958e-06	-1.340075e-09	-3.791145e+01	-8.349923e+01
2.000000e-07	-5.463451e-06	-1.209637e-09	-3.785943e+01	-8.344371e+01
2.100000e-07	-5.455772e-06	-1.182220e-09	-3.780622e+01	-8.338616e+01
2.200000e-07	-5.447835e-06	-1.282852e-09	-3.775122e+01	-8.332619e+01
2.300000e-07	-5.439572e-06	-1.320866e-09	-3.769396e+01	-8.326338e+01
2.400000e-07	-5.431021e-06	-1.255214e-09	-3.763470e+01	-8.319739e+01
2.500000e-07	-5.422010e-06	-1.213334e-09	-3.757226e+01	-8.312786e+01
2.600000e-07	-5.412204e-06	-1.249134e-09	-3.750431e+01	-8.305449e+01
2.700000e-07	-5.401628e-06	-1.269976e-09	-3.743103e+01	-8.297700e+01
2.800000e-07	-5.390564e-06	-1.260726e-09	-3.735436e+01	-8.289517e+01
2.900000e-07	-5.379082e-06	-1.235599e-09	-3.727479e+01	-8.280881e+01
3.000000e-07	-5.367200e-06	-1.245578e-09	-3.719245e+01	-8.271780e+01
3.100000e-07	-5.354970e-06	-1.269988e-09	-3.710770e+01	-8.262205e+01
3.200000e-07	-5.342266e-06	-1.270210e-09	-3.701967e+01	-8.252154e+01
3.300000e-07	-5.329058e-06	-1.221828e-09	-3.692814e+01	-8.241631e+01
3.400000e-07	-5.315567e-06	-1.235566e-09	-3.683466e+01	-8.230642e+01
3.500000e-07	-5.301833e-06	-1.279191e-09	-3.673949e+01	-8.219202e+01
3.600000e-07	-5.287623e-06	-1.249202e-09	-3.664102e+01	-8.207329e+01
3.700000e-07	-5.272870e-06	-1.204830e-09	-3.653878e+01	-8.195044e+01
3.800000e-07	-5.257816e-06	-1.253984e-09	-3.643447e+01	-8.182376e+01
3.900000e-07	-5.242219e-06	-1.248677e-09	-3.632639e+01	-8.169353e+01
4.000000e-07	-5.225869e-06	-1.183951e-09	-3.621309e+01	-8.156009e+01
4.100000e-07	-5.209269e-06	-1.232416e-09	-3.609806e+01	-8.142381e+01
4.200000e-07	-5.192446e-06	-1.293022e-09	-3.598148e+01	-8.128503e+01
4.300000e-07	-5.175119e-06	-1.200127e-09	-3.586141e+01	-8.114416e+01
4.400000e-07	-5.157475e-06	-1.176544e-09	-3.573914e+01	-8.100157e+01
4.500000e-07	-5.139615e-06	-1.286494e-09	-3.561538e+01	-8.085765e+01
4.600000e-07	-5.121282e-06	-1.239884e-09	-3.548835e+01	-8.071278e+01
4.700000e-07	-5.102417e-06	-1.135133e-09	-3.535762e+01	-8.056731e+01
4.800000e-07	-5.083213e-06	-1.229437e-09	-3.522454e+01	-8.042157e+01
4.900000e-07	-5.063743e-06	-1.284282e-09	-3.508962e+01	-8.027589e+01
5.000000e-07	-5.044051e-06	-1.173553e-09	-3.495316e+01	-8.013054e+01
5.100000e-07	-5.024186e-06	-1.198543e-09	-3.481551e+01	-7.998577e+01
5.200000e-07	-5.004003e-06	-1.280046e-09	-3.467565e+01	-7.984178e+01
5.300000e-07	-4.983358e-06	-1.186073e-09	-3.453259e+01	-7.969876e+01
5.400000e-07	-4.962372e-06	-1.152390e-09	-3.438716e+01	-7.955682e+01
5.500000e-07	-4.941109e-06	-1.263414e-09	-3.423982e+01	-7.941606e+01
5.600000e-07	-4.919494e-06	-1.220402e-09	-3.409004e+01	-7.927653e+01
5.700000e-07	-4.897540e-06	-1.132463e-09	-3.393791e+01	-7.913824e+01
5.800000e-07	-4.875300e-06	-1.215090e-09	-3.378379e+01	-7.900115e+01
5.900000e-07	-4.852731e-06	-1.244283e-09	-3.362740e+01	-7.886521e+01
6.000000e-07	-4.829678e-06	-1.151896e-09	-3.346765e+01	-7.873032e+01
6.100000e-07	-4.806307e-06	-1.181470e-09	-3.330570e+01	-7.859637e+01
6.200000e-07	-4.782793e-06	-1.233916e-09	-3.314276e+01	-7.846320e+01
6.300000e-07	-4.759014e-06	-1.167795e-09	-3.297798e+01	-7.833066e+01
6.400000e-07	-4.734986e-06	-1.155096e-09	-3.281147e+01	-7.819857e+01
6.500000e-07	-4.710707e-06	-1.214996e-09	-3.264323e+01	-7.806673e+01
6.600000e-07	-4.685975e-06	-1.185142e-09	-3.247185e+01	-7.793497e+01
6.700000e-07	-4.660641e-06	-1.158191e-09	-3.229630e+01	-7.780309e+01
6.800000e-07	-4.634814e-06	-1.199702e-09	-3.211732e+01	-7.767089e+01
6.900000e-07	-4.608484e-06	-1.189349e-09	-3.193487e+01	-7.753820e+01
7.000000e-07	-4.581588e-06	-1.153232e-09	-3.174849e+01	-7.740485e+01
7.100000e-07	-4.554361e-06	-1.177312e-09	-3.155982e+01	-7.727068e+01
7.200000e-07	-4.526915e-06	-1.185370e-09	-3.136963e+01	-7.713555e+01
7.300000e-07	-4.499225e-06	-1.152780e-09	-3.117775e+01	-7.699933e+01
7.400000e-07	-4.471356e-06	-1.158263e-09	-3.098463e+01	-7.686191e+01
7.500000e-07	-4.443228e-06	-1.174289e-09	-3.078971e+01	-7.672321e+01
7.600000e-07	-4.414833e-06	-1.151359e-09	-3.059295e+01	-7.658316e+01
7.700000e-07	-4.386174e-06	-1.141866e-09	-3.039435e+01	-7.644169e+01
7.800000e-07	-4.357181e-06	-1.152190e-09	-3.019345e+01	-7.629877e+01
7.900000e-07	-4.327851e-06	-1.137782e-09	-2.999020e+01	-7.615437e+01
8.000000e-07	-4.298192e-06	-1.129279e-09	-2.978467e+01	-7.600848e+01
8.100000e-07	-4.268290e-06	-1.141466e-09	-2.957747e+01	-7.586107e+01
8.200000e-07	-4.238105e-06	-1.135504e-09	-2.936829e+01	-7.571214e+01
8.300000e-07	-4.207528e-06	-1.117035e-09	-2.915641e+01	-7.556169e+01
8.400000e-07	-4.176656e-06	-1.122812e-09	-2.894248e+01	-7.540971e+01
8.500000e-07	-4.145587e-06	-1.124869e-09	-2.872718e+01	-7.525617e+01
8.600000e-07	-4.114248e-06	-1.107567e-09	-2.851002e+01	-7.510105e+01
8.700000e-07	-4.082664e-06	-1.105789e-09	-2.829116e+01	-7.494431e+01
8.800000e-07	-4.050938e-06	-1.111488e-09	-2.807131e+01	-7.478589e+01
8.900000e-07	-4.019085e-06	-1.095649e-09	-2.785058e+01	-7.462573e+01
9.000000e-07	-3.987033e-06	-1.086393e-09	-2.762847e+01	-7.446372e+01
9.100000e-07	-3.954688e-06	-1.093899e-09	-2.740433e+01	-7.429976e+01
9.200000e-07	-3.921996e-06	-1.087770e-09	-2.717779e+01	-7.413372e+01
9.300000e-07	-3.888906e-06	-1.077958e-09	-2.694849e+01	-7.396544e+01
9.400000e-07	-3.855391e-06	-1.087964e-09	-2.671625e+01	-7.379475e+01
9.500000e-07	-3.821335e-06	-1.086961e-09	-2.648025e+01	-7.362146e+01
9.600000e-07	-3.786766e-06	-1.069955e-09	-2.624070e+01	-7.344537e+01
9.700000e-07	-3.751827e-06	-1.065812e-09	-2.599859e+01	-7.326626e+01
9.800000e-07	-3.716603e-06	-1.067006e-09	-2.575451e+01	-7.308389e+01
9.900000e-07	-3.681153e-06	-1.052515e-09	-2.550885e+01	-7.289805e+01
1.000000e-06	-3.645491e-06	-1.044624e-09	-2.526173e+01	-7.270850e+01
1.010000e-06	-3.609656e-06	-1.052133e-09	-2.501341e+01	-7.251499e+01
1.020000e-06	-3.573694e-06	-1.049890e-09	-2.476421e+01	-7.231732e+01
1.030000e-06	-3.537606e-06	-1.042389e-09	-2.451413e+01	-7.211527e+01
1.040000e-06	-3.501333e-06	-1.045590e-09	-2.426278e+01	-7.190865e+01
1.050000e-06	-3.464790e-06	-1.041895e-09	-2.400955e+01	-7.169728e+01
1.060000e-06	-3.427927e-06	-1.027060e-09	-2.375410e+01	-7.148102e+01
1.070000e-06	-3.390759e-06	-1.022891e-09	-2.349654e+01	-7.125975e+01
1.080000e-06	-3.353367e-06	-1.025951e-09	-2.323743e+01	-7.103338e+01
1.090000e-06	-3.315762e-06	-1.021795e-09	-2.297685e+01	-7.080186e+01
1.100000e-06	-3.277912e-06	-1.019627e-09	-2.271456e+01	-7.056517e+01
1.110000e-06	-3.239874e-06	-1.022823e-09	-2.245097e+01	-7.032333e+01
1.120000e-06	-3.201595e-06	-1.014312e-09	-2.218571e+01	-7.007640e+01
1.130000e-06	-3.163092e-06	-1.001052e-09	-2.191891e+01	-6.982447e+01
1.140000e-06	-3.124376e-06	-9.970460e-10	-2.165062e+01	-6.956768e+01
1.150000e-06	-3.085460e-06	-9.951165e-10	-2.138095e+01	-6.930617e+01
1.160000e-06	-3.046382e-06	-9.877663e-10	-2.111015e+01	-6.904014e+01
1.170000e-06	-3.007086e-06	-9.832960e-10	-2.083785e+01	-6.876980e+01
1.180000e-06	-2.967596e-06	-9.820803e-10	-2.056420e+01	-6.849538e+01
1.190000e-06	-2.928033e-06	-9.776910e-10	-2.029005e+01	-6.821713e+01
1.200000e-06	-2.888309e-06	-9.728014e-10	-2.001477e+01	-6.793529e+01
1.210000e-06	-2.848398e-06	-9.713418e-10	-1.973821e+01	-6.765013e+01
1.220000e-06	-2.808466e-06	-9.652394e-10	-1.946149e+01	-6.736189e+01
1.230000e-06	-2.768372e-06	-9.575119e-10	-1.918366e+01	-6.707081e+01
1.240000e-06	-2.727976e-06	-9.559514e-10	-1.890374e+01	-6.677710e+01
1.250000e-06	-2.687417e-06	-9.549243e-10	-1.862268e+01	-6.648095e+01
1.260000e-06	-2.646674e-06	-9.507142e-10	-1.834035e+01	-6.618252e+01
1.270000e-06	-2.605569e-06	-9.480136e-10	-1.805550e+01	-6.588192e+01
1.280000e-06	-2.564160e-06	-9.456726e-10	-1.776856e+01	-6.557922e+01
1.290000e-06	-2.522571e-06	-9.386984e-10	-1.748036e+01	-6.527445e+01
1.300000e-06	-2.480680e-06	-9.304495e-10	-1.719008e+01	-6.496756e+01
1.310000e-06	-2.438375e-06	-9.267218e-10	-1.689692e+01	-6.465846e+01
1.320000e-06	-2.395742e-06	-9.222068e-10	-1.660149e+01	-6.434699e+01
1.330000e-06	-2.352888e-06	-9.147519e-10	-1.630453e+01	-6.403294e+01
1.340000e-06	-2.309877e-06	-9.086989e-10	-1.600648e+01	-6.371602e+01
1.350000e-06	-2.266713e-06	-9.062022e-10	-1.570737e+01	-6.339588e+01
1.360000e-06	-2.223317e-06	-9.015246e-10	-1.540666e+01	-6.307212e+01
1.370000e-06	-2.179760e-06	-8.938763e-10	-1.510483e+01	-6.274426e+01
1.380000e-06	-2.136096e-06	-8.867686e-10	-1.480225e+01	-6.241178e+01
1.390000e-06	-2.092324e-06	-8.785982e-10	-1.449893e+01	-6.207409e+01
1.400000e-06	-2.048462e-06	-8.691694e-10	-1.419499e+01	-6.173057e+01
1.410000e-06	-2.004526e-06	-8.611717e-10	-1.389053e+01	-6.138055e+01
1.420000e-06	-1.960520e-06	-8.549958e-10	-1.358559e+01	-6.102331e+01
1.430000e-06	-1.916425e-06	-8.480830e-10	-1.328002e+01	-6.065811e+01
1.440000e-06	-1.872235e-06	-8.417171e-10	-1.297381e+01	-6.028420e+01
1.450000e-06	-1.827890e-06	-8.359825e-10	-1.266651e+01	-5.990078e+01
1.460000e-06	-1.783433e-06	-8.283914e-10	-1.235844e+01	-5.950707e+01
1.470000e-06	-1.738901e-06	-8.172242e-10	-1.204986e+01	-5.910225e+01
1.480000e-06	-1.694264e-06	-8.064061e-10	-1.174054e+01	-5.868555e+01
1.490000e-06	-1.649432e-06	-7.976246e-10	-1.142987e+01	-5.825615e+01
1.500000e-06	-1.604462e-06	-7.868293e-10	-1.111825e+01	-5.781329e+01
1.510000e-06	-1.559324e-06	-7.754408e-10	-1.080546e+01	-5.735620e+01
1.520000e-06	-1.514043e-06	-7.668191e-10	-1.049169e+01	-5.688414e+01
1.530000e-06	-1.468698e-06	-7.581615e-10	-1.017746e+01	-5.639637e+01
1.540000e-06	-1.423199e-06	-7.503610e-10	-9.862175e+00	-5.589221e+01
1.550000e-06	-1.377656e-06	-7.414416e-10	-9.546581e+00	-5.537098e+01
1.560000e-06	-1.332089e-06	-7.307384e-10	-9.230821e+00	-5.483203e+01
1.570000e-06	-1.286388e-06	-7.201160e-10	-8.914133e+00	-5.427474e+01
1.580000e-06	-1.240634e-06	-7.102027e-10	-8.597072e+00	-5.369851e+01
1.590000e-06	-1.194774e-06	-6.995776e-10	-8.279284e+00	-5.310276e+01
1.600000e-06	-1.148775e-06	-6.887324e-10	-7.960531e+00	-5.248693e+01
1.610000e-06	-1.102716e-06	-6.778864e-10	-7.641358e+00	-5.185047e+01
1.620000e-06	-1.056623e-06	-6.698718e-10	-7.321956e+00	-5.119283e+01
1.630000e-06	-1.010499e-06	-6.647219e-10	-7.002336e+00	-5.051350e+01
1.640000e-06	-9.642807e-07	-6.581457e-10	-6.682063e+00	-4.981193e+01
1.650000e-06	-9.179952e-07	-6.489329e-10	-6.361323e+00	-4.908760e+01
1.660000e-06	-8.716382e-07	-6.362491e-10	-6.040089e+00	-4.833997e+01
1.670000e-06	-8.251984e-07	-6.211684e-10	-5.718280e+00	-4.756849e+01
1.680000e-06	-7.787949e-07	-6.051288e-10	-5.396723e+00	-4.677260e+01
1.690000e-06	-7.322754e-07	-5.897450e-10	-5.074363e+00	-4.595171e+01
1.700000e-06	-6.855433e-07	-5.756019e-10	-4.750529e+00	-4.510524e+01
1.710000e-06	-6.388587e-07	-5.640826e-10	-4.427024e+00	-4.423256e+01
1.720000e-06	-5.921931e-07	-5.540320e-10	-4.103651e+00	-4.333304e+01
1.730000e-06	-5.454491e-07	-5.432619e-10	-3.779734e+00	-4.240604e+01
1.740000e-06	-4.985864e-07	-5.288705e-10	-3.454996e+00	-4.145088e+01
1.750000e-06	-4.516444e-07	-5.120970e-10	-3.129707e+00	-4.046689e+01
1.760000e-06	-4.047862e-07	-4.934313e-10	-2.804999e+00	-3.945340e+01
1.770000e-06	-3.579270e-07	-4.733868e-10	-2.480284e+00	-3.840972e+01
1.780000e-06	-3.109520e-07	-4.560687e-10	-2.154767e+00	-3.733517e+01
1.790000e-06	-2.640271e-07	-4.416406e-10	-1.829597e+00	-3.622911e+01
1.800000e-06	-2.170851e-07	-4.286511e-10	-1.504309e+00	-3.509090e+01
1.810000e-06	-1.701241e-07	-4.172894e-10	-1.178889e+00	-3.391995e+01
1.820000e-06	-1.231894e-07	-4.036381e-10	-8.536512e-01	-3.271570e+01
1.830000e-06	-7.617173e-08	-3.857888e-10	-5.278383e-01	-3.147767e+01
1.840000e-06	-2.914929e-08	-3.671883e-10	-2.019924e-01	-3.020545e+01
1.850000e-06	1.780686e-08	-3.487140e-10	1.233941e-01	-2.889868e+01
1.860000e-06	6.475900e-08	-3.311497e-10	4.487528e-01	-2.755714e+01
1.870000e-06	1.117330e-07	-3.152538e-10	7.742627e-01	-2.618069e+01
1.880000e-06	1.586942e-07	-2.986959e-10	1.099685e+00	-2.476930e+01
1.890000e-06	2.055992e-07	-2.793365e-10	1.424717e+00	-2.332310e+01
1.900000e-06	2.524278e-07	-2.583836e-10	1.749219e+00	-2.184232e+01
1.910000e-06	2.992394e-07	-2.362410e-10	2.073604e+00	-2.032737e+01
1.920000e-06	3.460876e-07	-2.141530e-10	2.398243e+00	-1.877879e+01
1.930000e-06	3.929581e-07	-1.932884e-10	2.723035e+00	-1.719729e+01
1.940000e-06	4.398229e-07	-1.729122e-10	3.047789e+00	-1.558374e+01
1.950000e-06	4.866205e-07	-1.504307e-10	3.372077e+00	-1.393919e+01
1.960000e-06	5.333410e-07	-1.266997e-10	3.695830e+00	-1.226485e+01
1.970000e-06	5.799264e-07	-1.038657e-10	4.018648e+00	-1.056208e+01
1.980000e-06	6.263649e-07	-8.157980e-11	4.340447e+00	-8.832424e+00
1.990000e-06	6.728472e-07	-5.916542e-11	4.662550e+00	-7.077579e+00
2.000000e-06	7.194123e-07	-3.437164e-11	4.985227e+00	-5.299391e+00
2.010000e-06	7.659143e-07	-7.019757e-12	5.307466e+00	-3.499850e+00
2.020000e-06	8.122774e-07	2.027161e-11	5.628743e+00	-1.681078e+00
2.030000e-06	8.585926e-07	4.569908e-11	5.949688e+00	1.546825e-01
2.040000e-06	9.049162e-07	6.862734e-11	6.270691e+00	2.005081e+00
2.050000e-06	9.512097e-07	9.226167e-11	6.591486e+00	3.867678e+00
2.060000e-06	9.973640e-07	1.175390e-10	6.911316e+00	5.739955e+00
2.070000e-06	1.043476e-06	1.445054e-10	7.230854e+00	7.619337e+00
2.080000e-06	1.089512e-06	1.742883e-10	7.549865e+00	9.503206e+00
2.090000e-06	1.135444e-06	2.029007e-10	7.868153e+00	1.138892e+01
2.100000e-06	1.181333e-06	2.297831e-10	8.186147e+00	1.327384e+01
2.110000e-06	1.227125e-06	2.564673e-10	8.503462e+00	1.515532e+01
2.120000e-06	1.272813e-06	2.816742e-10	8.820065e+00	1.703077e+01
2.130000e-06	1.318391e-06	3.051635e-10	9.135895e+00	1.889763e+01
2.140000e-06	1.363914e-06	3.281274e-10	9.451355e+00	2.075342e+01
2.150000e-06	1.409336e-06	3.519786e-10	9.766108e+00	2.259572e+01
2.160000e-06	1.454630e-06	3.778940e-10	1.007998e+01	2.442223e+01
2.170000e-06	1.499841e-06	4.047197e-10	1.039327e+01	2.623074e+01
2.180000e-06	1.544995e-06	4.292124e-10	1.070617e+01	2.801916e+01
2.190000e-06	1.590062e-06	4.522844e-10	1.101846e+01	2.978555e+01
2.200000e-06	1.634922e-06	4.765472e-10	1.132933e+01	3.152809e+01
2.210000e-06	1.679619e-06	5.003335e-10	1.163906e+01	3.324510e+01
2.220000e-06	1.724246e-06	5.217904e-10	1.194830e+01	3.493508e+01
2.230000e-06	1.768756e-06	5.435058e-10	1.225674e+01	3.659666e+01
2.240000e-06	1.813092e-06	5.671108e-10	1.256397e+01	3.822862e+01
2.250000e-06	1.857246e-06	5.889252e-10	1.286994e+01	3.982992e+01
2.260000e-06	1.901308e-06	6.092958e-10	1.317527e+01	4.139963e+01
2.270000e-06	1.945345e-06	6.296988e-10	1.348043e+01	4.293701e+01
2.280000e-06	1.989310e-06	6.508859e-10	1.378509e+01	4.444144e+01
2.290000e-06	2.033202e-06	6.698067e-10	1.408924e+01	4.591244e+01
2.300000e-06	2.077016e-06	6.862539e-10	1.439285e+01	4.734965e+01
2.310000e-06	2.120793e-06	7.038272e-10	1.469621e+01	4.875285e+01
2.320000e-06	2.164578e-06	7.214395e-10	1.499962e+01	5.012192e+01
2.330000e-06	2.208265e-06	7.415709e-10	1.530235e+01	5.145682e+01
2.340000e-06	2.251755e-06	7.597812e-10	1.560372e+01	5.275763e+01
2.350000e-06	2.294993e-06	7.756796e-10	1.590334e+01	5.402449e+01
2.360000e-06	2.338096e-06	7.910645e-10	1.620203e+01	5.525760e+01
2.370000e-06	2.381090e-06	8.061944e-10	1.649996e+01	5.645724e+01
2.380000e-06	2.423764e-06	8.204053e-10	1.679567e+01	5.762372e+01
2.390000e-06	2.466120e-06	8.338434e-10	1.708918e+01	5.875739e+01
2.400000e-06	2.508149e-06	8.491513e-10	1.738043e+01	5.985863e+01
2.410000e-06	2.549802e-06	8.656248e-10	1.766906e+01	6.092783e+01
2.420000e-06	2.591163e-06	8.792941e-10	1.795568e+01	6.196540e+01
2.430000e-06	2.632272e-06	8.909950e-10	1.824054e+01	6.297176e+01
2.440000e-06	2.673128e-06	9.018797e-10	1.852366e+01	6.394732e+01
2.450000e-06	2.713690e-06	9.106855e-10	1.880473e+01	6.489248e+01
2.460000e-06	2.754022e-06	9.209970e-10	1.908422e+01	6.580766e+01
2.470000e-06	2.794226e-06	9.332721e-10	1.936282e+01	6.669325e+01
2.480000e-06	2.834258e-06	9.463979e-10	1.964022e+01	6.754962e+01
2.490000e-06	2.874133e-06	9.576685e-10	1.991654e+01	6.837715e+01
2.500000e-06	2.913882e-06	9.656544e-10	2.019199e+01	6.917620e+01
2.510000e-06	2.953501e-06	9.719308e-10	2.046653e+01	6.994714e+01
2.520000e-06	2.992968e-06	9.794804e-10	2.074001e+01	7.069030e+01
2.530000e-06	3.032256e-06	9.902190e-10	2.101226e+01	7.140604e+01
2.540000e-06	3.071356e-06	1.002056e-09	2.128322e+01	7.209472e+01
2.550000e-06	3.110277e-06	1.012505e-09	2.155292e+01	7.275670e+01
2.560000e-06	3.148980e-06	1.021619e-09	2.182111e+01	7.339234e+01
2.570000e-06	3.187379e-06	1.028383e-09	2.208720e+01	7.400204e+01
2.580000e-06	3.225480e-06	1.034640e-09	2.235123e+01	7.458620e+01
2.590000e-06	3.263404e-06	1.041775e-09	2.261403e+01	7.514528e+01
2.600000e-06	3.301190e-06	1.049627e-09	2.287587e+01	7.567972e+01
2.610000e-06	3.338783e-06	1.057416e-09	2.313637e+01	7.619004e+01
2.620000e-06	3.376112e-06	1.065727e-09	2.339505e+01	7.667677e+01
2.630000e-06	3.413187e-06	1.073346e-09	2.365196e+01	7.714050e+01
2.640000e-06	3.450098e-06	1.080889e-09	2.390774e+01	7.758183e+01
2.650000e-06	3.486767e-06	1.087395e-09	2.416184e+01	7.800144e+01
2.660000e-06	3.523164e-06	1.092287e-09	2.441406e+01	7.840004e+01
2.670000e-06	3.559309e-06	1.097632e-09	2.466453e+01	7.877837e+01
2.680000e-06	3.595251e-06	1.103017e-09	2.491359e+01	7.913722e+01
2.690000e-06	3.631075e-06	1.108335e-09	2.516183e+01	7.947744e+01
2.700000e-06	3.666800e-06	1.114272e-09	2.540939e+01	7.979987e+01
2.710000e-06	3.702374e-06	1.120804e-09	2.565591e+01	8.010542e+01
2.720000e-06	3.737645e-06	1.126822e-09	2.590032e+01	8.039502e+01
2.730000e-06	3.772620e-06	1.132149e-09	2.614268e+01	8.066962e+01
2.740000e-06	3.807407e-06	1.137392e-09	2.638374e+01	8.093016e+01
2.750000e-06	3.841767e-06	1.141950e-09	2.662184e+01	8.117762e+01
2.760000e-06	3.875497e-06	1.145529e-09	2.685557e+01	8.141297e+01
2.770000e-06	3.908648e-06	1.148906e-09	2.708530e+01	8.163717e+01
2.780000e-06	3.941350e-06	1.152601e-09	2.731191e+01	8.185116e+01
2.790000e-06	3.973743e-06	1.158410e-09	2.753638e+01	8.205588e+01
2.800000e-06	4.005851e-06	1.166307e-09	2.775887e+01	8.225221e+01
2.810000e-06	4.037806e-06	1.173191e-09	2.798031e+01	8.244101e+01
2.820000e-06	4.069642e-06	1.176285e-09	2.820092e+01	8.262310e+01
2.830000e-06	4.101315e-06	1.177880e-09	2.842040e+01	8.279924e+01
2.840000e-06	4.132768e-06	1.179145e-09	2.863836e+01	8.297013e+01
2.850000e-06	4.163930e-06	1.179874e-09	2.885430e+01	8.313641e+01
2.860000e-06	4.194764e-06	1.180406e-09	2.906796e+01	8.329866e+01
2.870000e-06	4.225362e-06	1.182979e-09	2.927999e+01	8.345737e+01
2.880000e-06	4.255729e-06	1.188940e-09	2.949042e+01	8.361299e+01
2.890000e-06	4.285728e-06	1.195702e-09	2.969831e+01	8.376586e+01
2.900000e-06	4.315417e-06	1.201529e-09	2.990404e+01	8.391626e+01
