# Temperatura_=_11.1
# Concentracion g/m^3_=_1620.0
# C_Vs_to_Am_M_A/Vsm_=_65563218390.804596
# pendiente_HvsI_1/m_=_3716.3
# ordenada_HvsI_A/m_=_1297.0
# frecuencia_Hz_=_135096.40095834713

Tiempo_(s)	Campo_(V.s)	Magnetizacion_(V.s)	Campo_(kA/m)	Magnetizacion_(A/m)
0.000000e+00	-5.523766e-06	-1.616096e-09	-3.837746e+01	-1.062890e+02
1.000000e-08	-5.524062e-06	-1.612276e-09	-3.837951e+01	-1.062357e+02
2.000000e-08	-5.524066e-06	-1.609021e-09	-3.837955e+01	-1.061829e+02
3.000000e-08	-5.523763e-06	-1.608986e-09	-3.837744e+01	-1.061310e+02
4.000000e-08	-5.523066e-06	-1.609267e-09	-3.837260e+01	-1.060806e+02
5.000000e-08	-5.521827e-06	-1.606802e-09	-3.836399e+01	-1.060319e+02
6.000000e-08	-5.519887e-06	-1.597588e-09	-3.835051e+01	-1.059852e+02
7.000000e-08	-5.517281e-06	-1.582745e-09	-3.833240e+01	-1.059408e+02
8.000000e-08	-5.514240e-06	-1.622420e-09	-3.831128e+01	-1.058990e+02
9.000000e-08	-5.510780e-06	-1.703833e-09	-3.828724e+01	-1.058597e+02
1.000000e-07	-5.506832e-06	-1.671202e-09	-3.825981e+01	-1.058232e+02
1.100000e-07	-5.502593e-06	-1.537411e-09	-3.823035e+01	-1.057893e+02
1.200000e-07	-5.498187e-06	-1.556546e-09	-3.819975e+01	-1.057580e+02
1.300000e-07	-5.493482e-06	-1.606989e-09	-3.816705e+01	-1.057291e+02
1.400000e-07	-5.488307e-06	-1.641994e-09	-3.813110e+01	-1.057024e+02
1.500000e-07	-5.482733e-06	-1.542969e-09	-3.809238e+01	-1.056774e+02
1.600000e-07	-5.476949e-06	-1.577337e-09	-3.805219e+01	-1.056538e+02
1.700000e-07	-5.470752e-06	-1.644473e-09	-3.800913e+01	-1.056310e+02
1.800000e-07	-5.463975e-06	-1.630768e-09	-3.796205e+01	-1.056086e+02
1.900000e-07	-5.456843e-06	-1.576770e-09	-3.791250e+01	-1.055859e+02
2.000000e-07	-5.449479e-06	-1.557230e-09	-3.786133e+01	-1.055621e+02
2.100000e-07	-5.441819e-06	-1.627743e-09	-3.780811e+01	-1.055368e+02
2.200000e-07	-5.433917e-06	-1.637364e-09	-3.775322e+01	-1.055090e+02
2.300000e-07	-5.425839e-06	-1.626737e-09	-3.769709e+01	-1.054780e+02
2.400000e-07	-5.417317e-06	-1.582491e-09	-3.763789e+01	-1.054431e+02
2.500000e-07	-5.408045e-06	-1.613427e-09	-3.757347e+01	-1.054034e+02
2.600000e-07	-5.398077e-06	-1.597162e-09	-3.750421e+01	-1.053583e+02
2.700000e-07	-5.387580e-06	-1.605539e-09	-3.743128e+01	-1.053071e+02
2.800000e-07	-5.376508e-06	-1.592883e-09	-3.735435e+01	-1.052490e+02
2.900000e-07	-5.364935e-06	-1.633074e-09	-3.727395e+01	-1.051833e+02
3.000000e-07	-5.353125e-06	-1.613337e-09	-3.719190e+01	-1.051097e+02
3.100000e-07	-5.340992e-06	-1.596425e-09	-3.710760e+01	-1.050274e+02
3.200000e-07	-5.328361e-06	-1.565909e-09	-3.701984e+01	-1.049361e+02
3.300000e-07	-5.315355e-06	-1.597551e-09	-3.692948e+01	-1.048355e+02
3.400000e-07	-5.302002e-06	-1.595016e-09	-3.683671e+01	-1.047252e+02
3.500000e-07	-5.288175e-06	-1.573519e-09	-3.674064e+01	-1.046051e+02
3.600000e-07	-5.273851e-06	-1.589630e-09	-3.664113e+01	-1.044750e+02
3.700000e-07	-5.259265e-06	-1.634674e-09	-3.653979e+01	-1.043351e+02
3.800000e-07	-5.244109e-06	-1.583770e-09	-3.643449e+01	-1.041853e+02
3.900000e-07	-5.228170e-06	-1.540051e-09	-3.632374e+01	-1.040259e+02
4.000000e-07	-5.211847e-06	-1.605014e-09	-3.621034e+01	-1.038572e+02
4.100000e-07	-5.195194e-06	-1.605006e-09	-3.609464e+01	-1.036794e+02
4.200000e-07	-5.178249e-06	-1.524718e-09	-3.597691e+01	-1.034931e+02
4.300000e-07	-5.161016e-06	-1.557246e-09	-3.585718e+01	-1.032987e+02
4.400000e-07	-5.143485e-06	-1.642080e-09	-3.573538e+01	-1.030967e+02
4.500000e-07	-5.125578e-06	-1.549325e-09	-3.561097e+01	-1.028878e+02
4.600000e-07	-5.107124e-06	-1.514489e-09	-3.548276e+01	-1.026726e+02
4.700000e-07	-5.088236e-06	-1.603471e-09	-3.535153e+01	-1.024517e+02
4.800000e-07	-5.069038e-06	-1.591788e-09	-3.521815e+01	-1.022260e+02
4.900000e-07	-5.049537e-06	-1.497182e-09	-3.508266e+01	-1.019960e+02
5.000000e-07	-5.029873e-06	-1.578139e-09	-3.494604e+01	-1.017625e+02
5.100000e-07	-5.010070e-06	-1.600160e-09	-3.480846e+01	-1.015262e+02
5.200000e-07	-4.989917e-06	-1.503498e-09	-3.466843e+01	-1.012878e+02
5.300000e-07	-4.969458e-06	-1.521221e-09	-3.452630e+01	-1.010479e+02
5.400000e-07	-4.948734e-06	-1.609529e-09	-3.438231e+01	-1.008070e+02
5.500000e-07	-4.927542e-06	-1.516711e-09	-3.423508e+01	-1.005659e+02
5.600000e-07	-4.905928e-06	-1.487282e-09	-3.408491e+01	-1.003249e+02
5.700000e-07	-4.884017e-06	-1.576325e-09	-3.393268e+01	-1.000846e+02
5.800000e-07	-4.861734e-06	-1.555578e-09	-3.377786e+01	-9.984528e+01
5.900000e-07	-4.839056e-06	-1.476395e-09	-3.362030e+01	-9.960730e+01
6.000000e-07	-4.816035e-06	-1.538839e-09	-3.346036e+01	-9.937091e+01
6.100000e-07	-4.792691e-06	-1.545099e-09	-3.329817e+01	-9.913628e+01
6.200000e-07	-4.769148e-06	-1.470862e-09	-3.313460e+01	-9.890351e+01
6.300000e-07	-4.745419e-06	-1.489771e-09	-3.296974e+01	-9.867262e+01
6.400000e-07	-4.721403e-06	-1.531454e-09	-3.280288e+01	-9.844358e+01
6.500000e-07	-4.697038e-06	-1.481968e-09	-3.263360e+01	-9.821626e+01
6.600000e-07	-4.672236e-06	-1.478493e-09	-3.246129e+01	-9.799050e+01
6.700000e-07	-4.647008e-06	-1.521606e-09	-3.228601e+01	-9.776604e+01
6.800000e-07	-4.621233e-06	-1.495873e-09	-3.210693e+01	-9.754259e+01
6.900000e-07	-4.594835e-06	-1.472021e-09	-3.192353e+01	-9.731980e+01
7.000000e-07	-4.567978e-06	-1.495562e-09	-3.173693e+01	-9.709728e+01
7.100000e-07	-4.540652e-06	-1.487141e-09	-3.154708e+01	-9.687458e+01
7.200000e-07	-4.513054e-06	-1.456837e-09	-3.135534e+01	-9.665124e+01
7.300000e-07	-4.485332e-06	-1.472491e-09	-3.116274e+01	-9.642677e+01
7.400000e-07	-4.457511e-06	-1.472084e-09	-3.096944e+01	-9.620064e+01
7.500000e-07	-4.429584e-06	-1.452575e-09	-3.077541e+01	-9.597235e+01
7.600000e-07	-4.401362e-06	-1.449298e-09	-3.057933e+01	-9.574135e+01
7.700000e-07	-4.372710e-06	-1.459325e-09	-3.038027e+01	-9.550713e+01
7.800000e-07	-4.343683e-06	-1.442010e-09	-3.017860e+01	-9.526916e+01
7.900000e-07	-4.314383e-06	-1.441396e-09	-2.997503e+01	-9.502694e+01
8.000000e-07	-4.284812e-06	-1.444228e-09	-2.976958e+01	-9.477998e+01
8.100000e-07	-4.255042e-06	-1.430552e-09	-2.956275e+01	-9.452784e+01
8.200000e-07	-4.224942e-06	-1.409700e-09	-2.935362e+01	-9.427009e+01
8.300000e-07	-4.194460e-06	-1.415745e-09	-2.914184e+01	-9.400633e+01
8.400000e-07	-4.163697e-06	-1.406133e-09	-2.892811e+01	-9.373623e+01
8.500000e-07	-4.132704e-06	-1.399291e-09	-2.871278e+01	-9.345946e+01
8.600000e-07	-4.101510e-06	-1.402356e-09	-2.849605e+01	-9.317578e+01
8.700000e-07	-4.070129e-06	-1.401554e-09	-2.827803e+01	-9.288496e+01
8.800000e-07	-4.038577e-06	-1.378112e-09	-2.805881e+01	-9.258683e+01
8.900000e-07	-4.006852e-06	-1.374121e-09	-2.783840e+01	-9.228128e+01
9.000000e-07	-3.974881e-06	-1.374965e-09	-2.761627e+01	-9.196823e+01
9.100000e-07	-3.942528e-06	-1.363044e-09	-2.739150e+01	-9.164767e+01
9.200000e-07	-3.909901e-06	-1.353920e-09	-2.716481e+01	-9.131962e+01
9.300000e-07	-3.876969e-06	-1.356058e-09	-2.693601e+01	-9.098415e+01
9.400000e-07	-3.843603e-06	-1.342762e-09	-2.670419e+01	-9.064136e+01
9.500000e-07	-3.809663e-06	-1.328761e-09	-2.646839e+01	-9.029142e+01
9.600000e-07	-3.775163e-06	-1.333391e-09	-2.622869e+01	-8.993450e+01
9.700000e-07	-3.740322e-06	-1.331150e-09	-2.598663e+01	-8.957083e+01
9.800000e-07	-3.705192e-06	-1.318090e-09	-2.574256e+01	-8.920066e+01
9.900000e-07	-3.669824e-06	-1.313268e-09	-2.549683e+01	-8.882425e+01
1.000000e-06	-3.634266e-06	-1.309422e-09	-2.524978e+01	-8.844191e+01
1.010000e-06	-3.598556e-06	-1.291728e-09	-2.500168e+01	-8.805394e+01
1.020000e-06	-3.562767e-06	-1.282137e-09	-2.475303e+01	-8.766065e+01
1.030000e-06	-3.526837e-06	-1.279431e-09	-2.450340e+01	-8.726237e+01
1.040000e-06	-3.490683e-06	-1.274531e-09	-2.425221e+01	-8.685941e+01
1.050000e-06	-3.454242e-06	-1.266558e-09	-2.399903e+01	-8.645210e+01
1.060000e-06	-3.417422e-06	-1.269340e-09	-2.374322e+01	-8.604074e+01
1.070000e-06	-3.380351e-06	-1.264680e-09	-2.348566e+01	-8.562561e+01
1.080000e-06	-3.343032e-06	-1.255526e-09	-2.322638e+01	-8.520698e+01
1.090000e-06	-3.305423e-06	-1.246847e-09	-2.296508e+01	-8.478511e+01
1.100000e-06	-3.267696e-06	-1.242183e-09	-2.270296e+01	-8.436021e+01
1.110000e-06	-3.229800e-06	-1.228653e-09	-2.243967e+01	-8.393247e+01
1.120000e-06	-3.191675e-06	-1.220993e-09	-2.217479e+01	-8.350203e+01
1.130000e-06	-3.153285e-06	-1.216748e-09	-2.190808e+01	-8.306901e+01
1.140000e-06	-3.114598e-06	-1.210738e-09	-2.163929e+01	-8.263349e+01
1.150000e-06	-3.075658e-06	-1.200050e-09	-2.136874e+01	-8.219550e+01
1.160000e-06	-3.036550e-06	-1.196016e-09	-2.109703e+01	-8.175504e+01
1.170000e-06	-2.997272e-06	-1.188900e-09	-2.082414e+01	-8.131205e+01
1.180000e-06	-2.957864e-06	-1.181743e-09	-2.055035e+01	-8.086644e+01
1.190000e-06	-2.918391e-06	-1.177972e-09	-2.027610e+01	-8.041809e+01
1.200000e-06	-2.878749e-06	-1.174422e-09	-2.000068e+01	-7.996682e+01
1.210000e-06	-2.838918e-06	-1.164857e-09	-1.972394e+01	-7.951241e+01
1.220000e-06	-2.798981e-06	-1.155575e-09	-1.944648e+01	-7.905463e+01
1.230000e-06	-2.758918e-06	-1.148697e-09	-1.916813e+01	-7.859320e+01
1.240000e-06	-2.718722e-06	-1.139623e-09	-1.888886e+01	-7.812780e+01
1.250000e-06	-2.678323e-06	-1.133105e-09	-1.860818e+01	-7.765812e+01
1.260000e-06	-2.637676e-06	-1.130429e-09	-1.832578e+01	-7.718378e+01
1.270000e-06	-2.596724e-06	-1.125138e-09	-1.804126e+01	-7.670442e+01
1.280000e-06	-2.555493e-06	-1.116001e-09	-1.775480e+01	-7.621966e+01
1.290000e-06	-2.514011e-06	-1.106591e-09	-1.746659e+01	-7.572909e+01
1.300000e-06	-2.472123e-06	-1.097136e-09	-1.717557e+01	-7.523232e+01
1.310000e-06	-2.429898e-06	-1.085514e-09	-1.688220e+01	-7.472894e+01
1.320000e-06	-2.387392e-06	-1.074288e-09	-1.658688e+01	-7.421856e+01
1.330000e-06	-2.344548e-06	-1.067946e-09	-1.628921e+01	-7.370078e+01
1.340000e-06	-2.301423e-06	-1.058953e-09	-1.598959e+01	-7.317521e+01
1.350000e-06	-2.258184e-06	-1.049551e-09	-1.568918e+01	-7.264149e+01
1.360000e-06	-2.214843e-06	-1.041644e-09	-1.538806e+01	-7.209925e+01
1.370000e-06	-2.171450e-06	-1.035835e-09	-1.508658e+01	-7.154815e+01
1.380000e-06	-2.127972e-06	-1.027070e-09	-1.478450e+01	-7.098786e+01
1.390000e-06	-2.084322e-06	-1.017920e-09	-1.448124e+01	-7.041806e+01
1.400000e-06	-2.040580e-06	-1.005902e-09	-1.417734e+01	-6.983846e+01
1.410000e-06	-1.996775e-06	-9.938461e-10	-1.387299e+01	-6.924877e+01
1.420000e-06	-1.952884e-06	-9.787333e-10	-1.356805e+01	-6.864872e+01
1.430000e-06	-1.908869e-06	-9.651488e-10	-1.326225e+01	-6.803803e+01
1.440000e-06	-1.864771e-06	-9.539702e-10	-1.295587e+01	-6.741646e+01
1.450000e-06	-1.820602e-06	-9.443035e-10	-1.264899e+01	-6.678375e+01
1.460000e-06	-1.776271e-06	-9.329901e-10	-1.234100e+01	-6.613962e+01
1.470000e-06	-1.731736e-06	-9.213097e-10	-1.203158e+01	-6.548382e+01
1.480000e-06	-1.687084e-06	-9.095135e-10	-1.172135e+01	-6.481605e+01
1.490000e-06	-1.642372e-06	-8.957172e-10	-1.141071e+01	-6.413603e+01
1.500000e-06	-1.597498e-06	-8.777575e-10	-1.109893e+01	-6.344342e+01
1.510000e-06	-1.552487e-06	-8.619225e-10	-1.078621e+01	-6.273786e+01
1.520000e-06	-1.507458e-06	-8.474313e-10	-1.047337e+01	-6.201897e+01
1.530000e-06	-1.462335e-06	-8.360061e-10	-1.015986e+01	-6.128632e+01
1.540000e-06	-1.417046e-06	-8.255916e-10	-9.845208e+00	-6.053943e+01
1.550000e-06	-1.371639e-06	-8.148833e-10	-9.529731e+00	-5.977777e+01
1.560000e-06	-1.326171e-06	-8.020369e-10	-9.213836e+00	-5.900078e+01
1.570000e-06	-1.280619e-06	-7.882961e-10	-8.897356e+00	-5.820781e+01
1.580000e-06	-1.234975e-06	-7.758083e-10	-8.580232e+00	-5.739818e+01
1.590000e-06	-1.189293e-06	-7.605717e-10	-8.262850e+00	-5.657114e+01
1.600000e-06	-1.143542e-06	-7.450844e-10	-7.944985e+00	-5.572589e+01
1.610000e-06	-1.097667e-06	-7.304346e-10	-7.626257e+00	-5.486156e+01
1.620000e-06	-1.051692e-06	-7.177182e-10	-7.306841e+00	-5.397723e+01
1.630000e-06	-1.005635e-06	-7.043646e-10	-6.986847e+00	-5.307195e+01
1.640000e-06	-9.594994e-07	-6.916146e-10	-6.666312e+00	-5.214468e+01
1.650000e-06	-9.132616e-07	-6.774765e-10	-6.345066e+00	-5.119439e+01
1.660000e-06	-8.670036e-07	-6.622202e-10	-6.023679e+00	-5.021997e+01
1.670000e-06	-8.207750e-07	-6.470153e-10	-5.702497e+00	-4.922031e+01
1.680000e-06	-7.744733e-07	-6.324897e-10	-5.380807e+00	-4.819428e+01
1.690000e-06	-7.280669e-07	-6.157810e-10	-5.058389e+00	-4.714074e+01
1.700000e-06	-6.815553e-07	-5.987289e-10	-4.735241e+00	-4.605855e+01
1.710000e-06	-6.349911e-07	-5.812770e-10	-4.411726e+00	-4.494659e+01
1.720000e-06	-5.884596e-07	-5.638408e-10	-4.088440e+00	-4.380374e+01
1.730000e-06	-5.418959e-07	-5.449166e-10	-3.764929e+00	-4.262897e+01
1.740000e-06	-4.952347e-07	-5.238483e-10	-3.440742e+00	-4.142124e+01
1.750000e-06	-4.484723e-07	-5.050003e-10	-3.115850e+00	-4.017961e+01
1.760000e-06	-4.016947e-07	-4.871310e-10	-2.790854e+00	-3.890320e+01
1.770000e-06	-3.549355e-07	-4.687384e-10	-2.465985e+00	-3.759122e+01
1.780000e-06	-3.080630e-07	-4.497526e-10	-2.140329e+00	-3.624298e+01
1.790000e-06	-2.611826e-07	-4.304875e-10	-1.814618e+00	-3.485788e+01
1.800000e-06	-2.143279e-07	-4.113540e-10	-1.489086e+00	-3.343545e+01
1.810000e-06	-1.674697e-07	-3.908093e-10	-1.163529e+00	-3.197536e+01
1.820000e-06	-1.206386e-07	-3.693556e-10	-8.381607e-01	-3.047739e+01
1.830000e-06	-7.373552e-08	-3.454420e-10	-5.122922e-01	-2.894148e+01
1.840000e-06	-2.675074e-08	-3.213453e-10	-1.858561e-01	-2.736771e+01
1.850000e-06	2.018225e-08	-2.976906e-10	1.402202e-01	-2.575632e+01
1.860000e-06	6.708898e-08	-2.747341e-10	4.661140e-01	-2.410770e+01
1.870000e-06	1.139791e-07	-2.546111e-10	7.918927e-01	-2.242241e+01
1.880000e-06	1.608181e-07	-2.323004e-10	1.117316e+00	-2.070115e+01
1.890000e-06	2.076694e-07	-2.094672e-10	1.442824e+00	-1.894481e+01
1.900000e-06	2.545637e-07	-1.875831e-10	1.768632e+00	-1.715441e+01
1.910000e-06	3.014413e-07	-1.610877e-10	2.094323e+00	-1.533115e+01
1.920000e-06	3.482580e-07	-1.331037e-10	2.419591e+00	-1.347635e+01
1.930000e-06	3.950297e-07	-1.032559e-10	2.744547e+00	-1.159151e+01
1.940000e-06	4.416951e-07	-7.413977e-11	3.068764e+00	-9.678255e+00
1.950000e-06	4.884219e-07	-4.652538e-11	3.393408e+00	-7.738334e+00
1.960000e-06	5.352071e-07	-2.114998e-11	3.718457e+00	-5.773631e+00
1.970000e-06	5.818693e-07	1.338467e-12	4.042652e+00	-3.786141e+00
1.980000e-06	6.284350e-07	2.428114e-11	4.366177e+00	-1.777964e+00
1.990000e-06	6.748962e-07	5.058790e-11	4.688975e+00	2.487056e-01
2.000000e-06	7.212320e-07	8.210004e-11	5.010903e+00	2.291590e+00
2.010000e-06	7.675055e-07	1.164015e-10	5.332397e+00	4.348338e+00
2.020000e-06	8.138353e-07	1.506241e-10	5.654282e+00	6.416542e+00
2.030000e-06	8.601432e-07	1.807807e-10	5.976016e+00	8.493743e+00
2.040000e-06	9.064023e-07	2.074713e-10	6.297410e+00	1.057745e+01
2.050000e-06	9.525574e-07	2.336318e-10	6.618081e+00	1.266513e+01
2.060000e-06	9.985569e-07	2.598154e-10	6.937672e+00	1.475427e+01
2.070000e-06	1.044581e-06	2.874231e-10	7.257435e+00	1.684233e+01
2.080000e-06	1.090581e-06	3.172010e-10	7.577031e+00	1.892679e+01
2.090000e-06	1.136455e-06	3.470437e-10	7.895746e+00	2.100515e+01
2.100000e-06	1.182216e-06	3.771329e-10	8.213680e+00	2.307494e+01
2.110000e-06	1.227823e-06	4.082070e-10	8.530544e+00	2.513375e+01
2.120000e-06	1.273369e-06	4.388379e-10	8.846981e+00	2.717921e+01
2.130000e-06	1.318859e-06	4.680363e-10	9.163034e+00	2.920902e+01
2.140000e-06	1.364275e-06	4.946689e-10	9.478571e+00	3.122094e+01
2.150000e-06	1.409648e-06	5.185789e-10	9.793809e+00	3.321284e+01
2.160000e-06	1.454921e-06	5.443827e-10	1.010835e+01	3.518264e+01
2.170000e-06	1.500068e-06	5.713913e-10	1.042202e+01	3.712840e+01
2.180000e-06	1.545083e-06	5.987005e-10	1.073477e+01	3.904825e+01
2.190000e-06	1.589949e-06	6.260015e-10	1.104648e+01	4.094046e+01
2.200000e-06	1.634716e-06	6.531533e-10	1.135752e+01	4.280340e+01
2.210000e-06	1.679372e-06	6.790690e-10	1.166777e+01	4.463555e+01
2.220000e-06	1.723811e-06	7.038397e-10	1.197652e+01	4.643555e+01
2.230000e-06	1.768159e-06	7.276959e-10	1.228463e+01	4.820214e+01
2.240000e-06	1.812454e-06	7.512312e-10	1.259238e+01	4.993420e+01
2.250000e-06	1.856599e-06	7.746299e-10	1.289909e+01	5.163076e+01
2.260000e-06	1.900628e-06	7.970582e-10	1.320499e+01	5.329096e+01
2.270000e-06	1.944599e-06	8.192467e-10	1.351048e+01	5.491410e+01
2.280000e-06	1.988485e-06	8.401259e-10	1.381540e+01	5.649960e+01
2.290000e-06	2.032314e-06	8.591990e-10	1.411990e+01	5.804702e+01
2.300000e-06	2.076084e-06	8.771460e-10	1.442400e+01	5.955605e+01
2.310000e-06	2.119714e-06	8.952737e-10	1.472713e+01	6.102653e+01
2.320000e-06	2.163235e-06	9.157526e-10	1.502950e+01	6.245839e+01
2.330000e-06	2.206711e-06	9.370680e-10	1.533156e+01	6.385171e+01
2.340000e-06	2.250044e-06	9.584026e-10	1.563263e+01	6.520667e+01
2.350000e-06	2.293247e-06	9.794883e-10	1.593279e+01	6.652358e+01
2.360000e-06	2.336288e-06	9.988473e-10	1.623182e+01	6.780283e+01
2.370000e-06	2.379034e-06	1.016699e-09	1.652881e+01	6.904492e+01
2.380000e-06	2.421528e-06	1.030598e-09	1.682405e+01	7.025043e+01
2.390000e-06	2.463686e-06	1.041540e-09	1.711695e+01	7.142003e+01
2.400000e-06	2.505534e-06	1.053576e-09	1.740769e+01	7.255444e+01
2.410000e-06	2.547075e-06	1.067993e-09	1.769631e+01	7.365445e+01
2.420000e-06	2.588337e-06	1.084500e-09	1.798299e+01	7.472092e+01
2.430000e-06	2.629285e-06	1.100276e-09	1.826748e+01	7.575471e+01
2.440000e-06	2.669927e-06	1.113557e-09	1.854985e+01	7.675674e+01
2.450000e-06	2.710366e-06	1.125430e-09	1.883081e+01	7.772794e+01
2.460000e-06	2.750579e-06	1.137554e-09	1.911019e+01	7.866925e+01
2.470000e-06	2.790636e-06	1.149194e-09	1.938850e+01	7.958161e+01
2.480000e-06	2.830642e-06	1.157210e-09	1.966644e+01	8.046597e+01
2.490000e-06	2.870528e-06	1.165308e-09	1.994357e+01	8.132323e+01
2.500000e-06	2.910165e-06	1.177611e-09	2.021895e+01	8.215430e+01
2.510000e-06	2.949645e-06	1.190210e-09	2.049324e+01	8.296005e+01
2.520000e-06	2.988993e-06	1.202999e-09	2.076662e+01	8.374130e+01
2.530000e-06	3.028188e-06	1.215072e-09	2.103894e+01	8.449884e+01
2.540000e-06	3.067149e-06	1.224736e-09	2.130963e+01	8.523343e+01
2.550000e-06	3.105837e-06	1.234787e-09	2.157842e+01	8.594575e+01
2.560000e-06	3.144355e-06	1.242919e-09	2.184603e+01	8.663648e+01
2.570000e-06	3.182711e-06	1.251354e-09	2.211251e+01	8.730619e+01
2.580000e-06	3.220860e-06	1.259958e-09	2.237757e+01	8.795547e+01
2.590000e-06	3.258761e-06	1.269012e-09	2.264089e+01	8.858481e+01
2.600000e-06	3.296376e-06	1.277546e-09	2.290223e+01	8.919468e+01
2.610000e-06	3.333764e-06	1.283926e-09	2.316198e+01	8.978552e+01
2.620000e-06	3.371000e-06	1.291711e-09	2.342069e+01	9.035771e+01
2.630000e-06	3.408037e-06	1.298866e-09	2.367802e+01	9.091164e+01
2.640000e-06	3.444779e-06	1.308888e-09	2.393329e+01	9.144763e+01
2.650000e-06	3.481228e-06	1.319520e-09	2.418652e+01	9.196602e+01
2.660000e-06	3.517457e-06	1.327918e-09	2.443823e+01	9.246713e+01
2.670000e-06	3.553500e-06	1.334855e-09	2.468865e+01	9.295128e+01
2.680000e-06	3.589383e-06	1.340492e-09	2.493795e+01	9.341878e+01
2.690000e-06	3.625155e-06	1.344742e-09	2.518648e+01	9.386998e+01
2.700000e-06	3.660744e-06	1.349058e-09	2.543375e+01	9.430522e+01
2.710000e-06	3.696165e-06	1.355225e-09	2.567984e+01	9.472488e+01
2.720000e-06	3.731326e-06	1.365321e-09	2.592413e+01	9.512936e+01
2.730000e-06	3.766108e-06	1.376421e-09	2.616578e+01	9.551910e+01
2.740000e-06	3.800599e-06	1.387974e-09	2.640542e+01	9.589457e+01
2.750000e-06	3.834680e-06	1.398391e-09	2.664220e+01	9.625629e+01
2.760000e-06	3.868241e-06	1.402221e-09	2.687537e+01	9.660480e+01
2.770000e-06	3.901308e-06	1.404182e-09	2.710511e+01	9.694071e+01
2.780000e-06	3.933978e-06	1.405410e-09	2.733209e+01	9.726463e+01
2.790000e-06	3.966338e-06	1.409078e-09	2.755692e+01	9.757725e+01
2.800000e-06	3.998436e-06	1.415020e-09	2.777993e+01	9.787925e+01
2.810000e-06	4.030353e-06	1.420453e-09	2.800168e+01	9.817137e+01
2.820000e-06	4.062116e-06	1.427270e-09	2.822236e+01	9.845435e+01
2.830000e-06	4.093694e-06	1.436177e-09	2.844175e+01	9.872897e+01
2.840000e-06	4.125026e-06	1.444660e-09	2.865944e+01	9.899599e+01
2.850000e-06	4.156037e-06	1.450299e-09	2.887489e+01	9.925619e+01
2.860000e-06	4.186796e-06	1.450685e-09	2.908860e+01	9.951034e+01
2.870000e-06	4.217315e-06	1.450767e-09	2.930063e+01	9.975918e+01
2.880000e-06	4.247443e-06	1.452573e-09	2.950995e+01	1.000034e+02
2.890000e-06	4.277223e-06	1.455424e-09	2.971686e+01	1.002438e+02
2.900000e-06	4.306746e-06	1.460787e-09	2.992197e+01	1.004808e+02
