# Temperatura_=_-10.74
# Concentracion g/m^3_=_1620.0
# C_Vs_to_Am_M_A/Vsm_=_65563218390.804596
# pendiente_HvsI_1/m_=_3716.3
# ordenada_HvsI_A/m_=_1297.0
# frecuencia_Hz_=_135105.44239322544

Tiempo_(s)	Campo_(V.s)	Magnetizacion_(V.s)	Campo_(kA/m)	Magnetizacion_(A/m)
0.000000e+00	-5.507832e-06	-1.078347e-09	-3.836892e+01	-7.133533e+01
1.000000e-08	-5.508074e-06	-1.074590e-09	-3.837061e+01	-7.133280e+01
2.000000e-08	-5.508130e-06	-1.071380e-09	-3.837100e+01	-7.133488e+01
3.000000e-08	-5.507887e-06	-1.070004e-09	-3.836930e+01	-7.134108e+01
4.000000e-08	-5.507119e-06	-1.070275e-09	-3.836395e+01	-7.135086e+01
5.000000e-08	-5.505817e-06	-1.068917e-09	-3.835488e+01	-7.136356e+01
6.000000e-08	-5.503983e-06	-1.061920e-09	-3.834211e+01	-7.137846e+01
7.000000e-08	-5.501523e-06	-1.062068e-09	-3.832497e+01	-7.139474e+01
8.000000e-08	-5.498477e-06	-1.085851e-09	-3.830376e+01	-7.141156e+01
9.000000e-08	-5.494977e-06	-1.122360e-09	-3.827937e+01	-7.142800e+01
1.000000e-07	-5.491080e-06	-1.114961e-09	-3.825223e+01	-7.144314e+01
1.100000e-07	-5.486807e-06	-1.047130e-09	-3.822246e+01	-7.145603e+01
1.200000e-07	-5.482270e-06	-9.770976e-10	-3.819085e+01	-7.146573e+01
1.300000e-07	-5.477544e-06	-1.063009e-09	-3.815793e+01	-7.147130e+01
1.400000e-07	-5.472478e-06	-1.125652e-09	-3.812263e+01	-7.147187e+01
1.500000e-07	-5.466985e-06	-1.090072e-09	-3.808437e+01	-7.146659e+01
1.600000e-07	-5.461090e-06	-1.011998e-09	-3.804330e+01	-7.145469e+01
1.700000e-07	-5.454789e-06	-1.046036e-09	-3.799941e+01	-7.143550e+01
1.800000e-07	-5.448073e-06	-1.141724e-09	-3.795262e+01	-7.140840e+01
1.900000e-07	-5.440960e-06	-1.084488e-09	-3.790307e+01	-7.137292e+01
2.000000e-07	-5.433523e-06	-1.001587e-09	-3.785127e+01	-7.132868e+01
2.100000e-07	-5.425835e-06	-1.015717e-09	-3.779771e+01	-7.127543e+01
2.200000e-07	-5.417929e-06	-1.122266e-09	-3.774264e+01	-7.121304e+01
2.300000e-07	-5.409744e-06	-1.111247e-09	-3.768562e+01	-7.114152e+01
2.400000e-07	-5.401127e-06	-1.043448e-09	-3.762559e+01	-7.106100e+01
2.500000e-07	-5.391894e-06	-1.008189e-09	-3.756127e+01	-7.097173e+01
2.600000e-07	-5.381961e-06	-1.063336e-09	-3.749207e+01	-7.087409e+01
2.700000e-07	-5.371495e-06	-1.065422e-09	-3.741916e+01	-7.076857e+01
2.800000e-07	-5.360569e-06	-1.038508e-09	-3.734305e+01	-7.065578e+01
2.900000e-07	-5.349124e-06	-1.026772e-09	-3.726332e+01	-7.053640e+01
3.000000e-07	-5.337276e-06	-1.062974e-09	-3.718079e+01	-7.041121e+01
3.100000e-07	-5.325079e-06	-1.055706e-09	-3.709582e+01	-7.028104e+01
3.200000e-07	-5.312435e-06	-1.014906e-09	-3.700774e+01	-7.014679e+01
3.300000e-07	-5.299318e-06	-1.015122e-09	-3.691636e+01	-7.000939e+01
3.400000e-07	-5.285864e-06	-1.054339e-09	-3.682264e+01	-6.986977e+01
3.500000e-07	-5.272011e-06	-1.058729e-09	-3.672613e+01	-6.972889e+01
3.600000e-07	-5.257703e-06	-1.018341e-09	-3.662646e+01	-6.958769e+01
3.700000e-07	-5.242951e-06	-1.025198e-09	-3.652369e+01	-6.944707e+01
3.800000e-07	-5.227723e-06	-1.048753e-09	-3.641761e+01	-6.930790e+01
3.900000e-07	-5.211899e-06	-1.027887e-09	-3.630738e+01	-6.917098e+01
4.000000e-07	-5.195533e-06	-1.004764e-09	-3.619337e+01	-6.903705e+01
4.100000e-07	-5.178952e-06	-1.048984e-09	-3.607786e+01	-6.890677e+01
4.200000e-07	-5.162082e-06	-1.041817e-09	-3.596034e+01	-6.878070e+01
4.300000e-07	-5.144776e-06	-9.961686e-10	-3.583979e+01	-6.865932e+01
4.400000e-07	-5.127121e-06	-1.016165e-09	-3.571680e+01	-6.854299e+01
4.500000e-07	-5.109178e-06	-1.065557e-09	-3.559180e+01	-6.843199e+01
4.600000e-07	-5.090827e-06	-9.989675e-10	-3.546396e+01	-6.832648e+01
4.700000e-07	-5.072054e-06	-9.748021e-10	-3.533318e+01	-6.822652e+01
4.800000e-07	-5.052993e-06	-1.041527e-09	-3.520040e+01	-6.813208e+01
4.900000e-07	-5.033633e-06	-1.041482e-09	-3.506554e+01	-6.804302e+01
5.000000e-07	-5.013985e-06	-9.758240e-10	-3.492866e+01	-6.795913e+01
5.100000e-07	-4.994117e-06	-1.022950e-09	-3.479026e+01	-6.788012e+01
5.200000e-07	-4.974008e-06	-1.045413e-09	-3.465018e+01	-6.780561e+01
5.300000e-07	-4.953554e-06	-9.800565e-10	-3.450768e+01	-6.773519e+01
5.400000e-07	-4.932652e-06	-9.882103e-10	-3.436207e+01	-6.766839e+01
5.500000e-07	-4.911444e-06	-1.050617e-09	-3.421433e+01	-6.760471e+01
5.600000e-07	-4.889985e-06	-9.955597e-10	-3.406485e+01	-6.754360e+01
5.700000e-07	-4.868180e-06	-9.670728e-10	-3.391295e+01	-6.748454e+01
5.800000e-07	-4.845991e-06	-1.037706e-09	-3.375837e+01	-6.742698e+01
5.900000e-07	-4.823426e-06	-1.034530e-09	-3.360118e+01	-6.737040e+01
6.000000e-07	-4.800486e-06	-9.773584e-10	-3.344138e+01	-6.731428e+01
6.100000e-07	-4.777223e-06	-1.011722e-09	-3.327932e+01	-6.725813e+01
6.200000e-07	-4.753750e-06	-1.026789e-09	-3.311580e+01	-6.720153e+01
6.300000e-07	-4.730055e-06	-9.733212e-10	-3.295073e+01	-6.714405e+01
6.400000e-07	-4.706078e-06	-9.858293e-10	-3.278370e+01	-6.708536e+01
6.500000e-07	-4.681816e-06	-1.017783e-09	-3.261469e+01	-6.702514e+01
6.600000e-07	-4.657228e-06	-9.895895e-10	-3.244341e+01	-6.696316e+01
6.700000e-07	-4.632148e-06	-9.868984e-10	-3.226869e+01	-6.689921e+01
6.800000e-07	-4.606446e-06	-1.018024e-09	-3.208964e+01	-6.683316e+01
6.900000e-07	-4.580140e-06	-9.937314e-10	-3.190639e+01	-6.676492e+01
7.000000e-07	-4.553384e-06	-9.780031e-10	-3.172000e+01	-6.669444e+01
7.100000e-07	-4.526306e-06	-9.950247e-10	-3.153137e+01	-6.662174e+01
7.200000e-07	-4.498903e-06	-9.867501e-10	-3.134047e+01	-6.654686e+01
7.300000e-07	-4.471254e-06	-9.668095e-10	-3.114787e+01	-6.646987e+01
7.400000e-07	-4.443439e-06	-9.858317e-10	-3.095410e+01	-6.639088e+01
7.500000e-07	-4.415438e-06	-9.864230e-10	-3.075904e+01	-6.631001e+01
7.600000e-07	-4.387189e-06	-9.731323e-10	-3.056225e+01	-6.622739e+01
7.700000e-07	-4.358635e-06	-9.752860e-10	-3.036333e+01	-6.614319e+01
7.800000e-07	-4.329754e-06	-9.772996e-10	-3.016214e+01	-6.605753e+01
7.900000e-07	-4.300551e-06	-9.612344e-10	-2.995871e+01	-6.597056e+01
8.000000e-07	-4.271125e-06	-9.672093e-10	-2.975372e+01	-6.588241e+01
8.100000e-07	-4.241448e-06	-9.695335e-10	-2.954698e+01	-6.579320e+01
8.200000e-07	-4.211382e-06	-9.537120e-10	-2.933753e+01	-6.570301e+01
8.300000e-07	-4.180983e-06	-9.489959e-10	-2.912576e+01	-6.561193e+01
8.400000e-07	-4.150357e-06	-9.624204e-10	-2.891242e+01	-6.552000e+01
8.500000e-07	-4.119431e-06	-9.572817e-10	-2.869698e+01	-6.542726e+01
8.600000e-07	-4.088177e-06	-9.522387e-10	-2.847926e+01	-6.533370e+01
8.700000e-07	-4.056657e-06	-9.616641e-10	-2.825968e+01	-6.523930e+01
8.800000e-07	-4.024999e-06	-9.613256e-10	-2.803914e+01	-6.514401e+01
8.900000e-07	-3.993226e-06	-9.480967e-10	-2.781780e+01	-6.504778e+01
9.000000e-07	-3.961270e-06	-9.486234e-10	-2.759519e+01	-6.495053e+01
9.100000e-07	-3.929084e-06	-9.495515e-10	-2.737098e+01	-6.485217e+01
9.200000e-07	-3.896540e-06	-9.363474e-10	-2.714426e+01	-6.475259e+01
9.300000e-07	-3.863589e-06	-9.351742e-10	-2.691472e+01	-6.465170e+01
9.400000e-07	-3.830278e-06	-9.448867e-10	-2.668266e+01	-6.454939e+01
9.500000e-07	-3.796527e-06	-9.407583e-10	-2.644754e+01	-6.444557e+01
9.600000e-07	-3.762223e-06	-9.329873e-10	-2.620858e+01	-6.434015e+01
9.700000e-07	-3.727449e-06	-9.392817e-10	-2.596633e+01	-6.423305e+01
9.800000e-07	-3.692398e-06	-9.347394e-10	-2.572216e+01	-6.412422e+01
9.900000e-07	-3.657149e-06	-9.230838e-10	-2.547660e+01	-6.401362e+01
1.000000e-06	-3.621703e-06	-9.222403e-10	-2.522968e+01	-6.390122e+01
1.010000e-06	-3.586084e-06	-9.254737e-10	-2.498155e+01	-6.378704e+01
1.020000e-06	-3.550271e-06	-9.157719e-10	-2.473206e+01	-6.367109e+01
1.030000e-06	-3.514299e-06	-9.139127e-10	-2.448148e+01	-6.355342e+01
1.040000e-06	-3.478155e-06	-9.185850e-10	-2.422969e+01	-6.343411e+01
1.050000e-06	-3.441819e-06	-9.156949e-10	-2.397656e+01	-6.331323e+01
1.060000e-06	-3.405230e-06	-9.072620e-10	-2.372168e+01	-6.319090e+01
1.070000e-06	-3.368336e-06	-9.088376e-10	-2.346466e+01	-6.306721e+01
1.080000e-06	-3.331170e-06	-9.072021e-10	-2.320576e+01	-6.294231e+01
1.090000e-06	-3.293776e-06	-9.021076e-10	-2.294526e+01	-6.281630e+01
1.100000e-06	-3.256164e-06	-9.002374e-10	-2.268324e+01	-6.268932e+01
1.110000e-06	-3.218289e-06	-9.001807e-10	-2.241940e+01	-6.256147e+01
1.120000e-06	-3.180239e-06	-8.943013e-10	-2.215433e+01	-6.243287e+01
1.130000e-06	-3.141939e-06	-8.927091e-10	-2.188753e+01	-6.230359e+01
1.140000e-06	-3.103339e-06	-8.948916e-10	-2.161863e+01	-6.217371e+01
1.150000e-06	-3.064591e-06	-8.942242e-10	-2.134870e+01	-6.204325e+01
1.160000e-06	-3.025685e-06	-8.930718e-10	-2.107767e+01	-6.191222e+01
1.170000e-06	-2.986545e-06	-8.951330e-10	-2.080502e+01	-6.178058e+01
1.180000e-06	-2.947212e-06	-8.932988e-10	-2.053101e+01	-6.164826e+01
1.190000e-06	-2.907756e-06	-8.891007e-10	-2.025615e+01	-6.151516e+01
1.200000e-06	-2.868143e-06	-8.895146e-10	-1.998019e+01	-6.138111e+01
1.210000e-06	-2.828390e-06	-8.900225e-10	-1.970327e+01	-6.124591e+01
1.220000e-06	-2.788534e-06	-8.864144e-10	-1.942562e+01	-6.110933e+01
1.230000e-06	-2.748469e-06	-8.843974e-10	-1.914652e+01	-6.097107e+01
1.240000e-06	-2.708235e-06	-8.863951e-10	-1.886623e+01	-6.083082e+01
1.250000e-06	-2.667882e-06	-8.850629e-10	-1.858513e+01	-6.068822e+01
1.260000e-06	-2.627283e-06	-8.827942e-10	-1.830230e+01	-6.054286e+01
1.270000e-06	-2.586463e-06	-8.795260e-10	-1.801795e+01	-6.039433e+01
1.280000e-06	-2.545445e-06	-8.751725e-10	-1.773220e+01	-6.024217e+01
1.290000e-06	-2.504133e-06	-8.689703e-10	-1.744441e+01	-6.008591e+01
1.300000e-06	-2.462536e-06	-8.658867e-10	-1.715464e+01	-5.992507e+01
1.310000e-06	-2.420581e-06	-8.652345e-10	-1.686237e+01	-5.975915e+01
1.320000e-06	-2.378234e-06	-8.659511e-10	-1.656737e+01	-5.958765e+01
1.330000e-06	-2.335609e-06	-8.650469e-10	-1.627043e+01	-5.941008e+01
1.340000e-06	-2.292764e-06	-8.621492e-10	-1.597196e+01	-5.922593e+01
1.350000e-06	-2.249739e-06	-8.577894e-10	-1.567224e+01	-5.903472e+01
1.360000e-06	-2.206456e-06	-8.561255e-10	-1.537072e+01	-5.883598e+01
1.370000e-06	-2.163008e-06	-8.552948e-10	-1.506805e+01	-5.862927e+01
1.380000e-06	-2.119512e-06	-8.543447e-10	-1.476505e+01	-5.841414e+01
1.390000e-06	-2.075924e-06	-8.504684e-10	-1.446140e+01	-5.819019e+01
1.400000e-06	-2.032240e-06	-8.438296e-10	-1.415709e+01	-5.795703e+01
1.410000e-06	-1.988458e-06	-8.348906e-10	-1.385209e+01	-5.771429e+01
1.420000e-06	-1.944597e-06	-8.254625e-10	-1.354655e+01	-5.746163e+01
1.430000e-06	-1.900665e-06	-8.199283e-10	-1.324051e+01	-5.719873e+01
1.440000e-06	-1.856681e-06	-8.183938e-10	-1.293410e+01	-5.692527e+01
1.450000e-06	-1.812538e-06	-8.151707e-10	-1.262659e+01	-5.664098e+01
1.460000e-06	-1.768274e-06	-8.094918e-10	-1.231824e+01	-5.634556e+01
1.470000e-06	-1.724010e-06	-8.028728e-10	-1.200988e+01	-5.603877e+01
1.480000e-06	-1.679561e-06	-7.956964e-10	-1.170024e+01	-5.572031e+01
1.490000e-06	-1.634906e-06	-7.867849e-10	-1.138916e+01	-5.538994e+01
1.500000e-06	-1.590171e-06	-7.758314e-10	-1.107752e+01	-5.504736e+01
1.510000e-06	-1.545305e-06	-7.651963e-10	-1.076498e+01	-5.469229e+01
1.520000e-06	-1.500294e-06	-7.570740e-10	-1.045142e+01	-5.432443e+01
1.530000e-06	-1.455192e-06	-7.507203e-10	-1.013723e+01	-5.394345e+01
1.540000e-06	-1.409995e-06	-7.459108e-10	-9.822373e+00	-5.354899e+01
1.550000e-06	-1.364641e-06	-7.416708e-10	-9.506426e+00	-5.314066e+01
1.560000e-06	-1.319161e-06	-7.342365e-10	-9.189600e+00	-5.271805e+01
1.570000e-06	-1.273612e-06	-7.256976e-10	-8.872293e+00	-5.228070e+01
1.580000e-06	-1.227993e-06	-7.162614e-10	-8.554500e+00	-5.182810e+01
1.590000e-06	-1.182310e-06	-7.059510e-10	-8.236262e+00	-5.135973e+01
1.600000e-06	-1.136479e-06	-6.964800e-10	-7.916997e+00	-5.087500e+01
1.610000e-06	-1.090552e-06	-6.894690e-10	-7.597055e+00	-5.037329e+01
1.620000e-06	-1.044589e-06	-6.851211e-10	-7.276867e+00	-4.985394e+01
1.630000e-06	-9.986357e-07	-6.811704e-10	-6.956744e+00	-4.931624e+01
1.640000e-06	-9.526640e-07	-6.727845e-10	-6.636494e+00	-4.875945e+01
1.650000e-06	-9.065804e-07	-6.619908e-10	-6.315464e+00	-4.818281e+01
1.660000e-06	-8.604287e-07	-6.507469e-10	-5.993959e+00	-4.758550e+01
1.670000e-06	-8.141830e-07	-6.409954e-10	-5.671801e+00	-4.696672e+01
1.680000e-06	-7.678317e-07	-6.320801e-10	-5.348906e+00	-4.632560e+01
1.690000e-06	-7.213950e-07	-6.224234e-10	-5.025416e+00	-4.566130e+01
1.700000e-06	-6.750150e-07	-6.115184e-10	-4.702322e+00	-4.497294e+01
1.710000e-06	-6.286720e-07	-5.995831e-10	-4.379485e+00	-4.425965e+01
1.720000e-06	-5.822153e-07	-5.882599e-10	-4.055856e+00	-4.352057e+01
1.730000e-06	-5.356956e-07	-5.760161e-10	-3.731789e+00	-4.275485e+01
1.740000e-06	-4.891609e-07	-5.623555e-10	-3.407616e+00	-4.196164e+01
1.750000e-06	-4.425859e-07	-5.489390e-10	-3.083163e+00	-4.114014e+01
1.760000e-06	-3.960037e-07	-5.364648e-10	-2.758660e+00	-4.028957e+01
1.770000e-06	-3.494377e-07	-5.231448e-10	-2.434269e+00	-3.940917e+01
1.780000e-06	-3.028545e-07	-5.083565e-10	-2.109760e+00	-3.849826e+01
1.790000e-06	-2.561912e-07	-4.952330e-10	-1.784692e+00	-3.755616e+01
1.800000e-06	-2.094907e-07	-4.828954e-10	-1.459364e+00	-3.658229e+01
1.810000e-06	-1.628492e-07	-4.697736e-10	-1.134448e+00	-3.557611e+01
1.820000e-06	-1.161687e-07	-4.559285e-10	-8.092602e-01	-3.453714e+01
1.830000e-06	-6.948965e-08	-4.438471e-10	-4.840821e-01	-3.346498e+01
1.840000e-06	-2.279562e-08	-4.299001e-10	-1.587999e-01	-3.235931e+01
1.850000e-06	2.401698e-08	-4.122569e-10	1.673083e-01	-3.121986e+01
1.860000e-06	7.075137e-08	-3.938664e-10	4.928715e-01	-3.004649e+01
1.870000e-06	1.173735e-07	-3.745683e-10	8.176529e-01	-2.883912e+01
1.880000e-06	1.640225e-07	-3.574809e-10	1.142622e+00	-2.759775e+01
1.890000e-06	2.106822e-07	-3.418045e-10	1.467665e+00	-2.632251e+01
1.900000e-06	2.573259e-07	-3.265746e-10	1.792596e+00	-2.501361e+01
1.910000e-06	3.039544e-07	-3.074491e-10	2.117422e+00	-2.367137e+01
1.920000e-06	3.505825e-07	-2.868516e-10	2.442245e+00	-2.229621e+01
1.930000e-06	3.971918e-07	-2.664171e-10	2.766936e+00	-2.088867e+01
1.940000e-06	4.437252e-07	-2.449790e-10	3.091100e+00	-1.944940e+01
1.950000e-06	4.902353e-07	-2.224222e-10	3.415101e+00	-1.797918e+01
1.960000e-06	5.367726e-07	-2.001002e-10	3.739291e+00	-1.647888e+01
1.970000e-06	5.832664e-07	-1.802161e-10	4.063178e+00	-1.494952e+01
1.980000e-06	6.296610e-07	-1.617740e-10	4.386375e+00	-1.339224e+01
1.990000e-06	6.759302e-07	-1.411092e-10	4.708697e+00	-1.180828e+01
2.000000e-06	7.221390e-07	-1.172565e-10	5.030599e+00	-1.019904e+01
2.010000e-06	7.683132e-07	-9.122297e-11	5.352260e+00	-8.566015e+00
2.020000e-06	8.144153e-07	-6.643923e-11	5.673419e+00	-6.910838e+00
2.030000e-06	8.605128e-07	-4.391309e-11	5.994545e+00	-5.235259e+00
2.040000e-06	9.065875e-07	-2.173062e-11	6.315513e+00	-3.541145e+00
2.050000e-06	9.525843e-07	-9.918458e-13	6.635938e+00	-1.830475e+00
2.060000e-06	9.985374e-07	2.047173e-11	6.956059e+00	-1.053364e-01
2.070000e-06	1.044421e-06	4.362744e-11	7.275696e+00	1.632086e+00
2.080000e-06	1.090200e-06	6.767295e-11	7.594601e+00	3.379514e+00
2.090000e-06	1.135922e-06	9.224425e-11	7.913113e+00	5.134590e+00
2.100000e-06	1.181572e-06	1.183399e-10	8.231123e+00	6.894883e+00
2.110000e-06	1.227070e-06	1.456880e-10	8.548072e+00	8.657905e+00
2.120000e-06	1.272481e-06	1.721770e-10	8.864417e+00	1.042112e+01
2.130000e-06	1.317880e-06	1.965909e-10	9.180676e+00	1.218197e+01
2.140000e-06	1.363178e-06	2.199279e-10	9.496236e+00	1.393787e+01
2.150000e-06	1.408303e-06	2.418454e-10	9.810586e+00	1.568625e+01
2.160000e-06	1.453340e-06	2.641203e-10	1.012433e+01	1.742453e+01
2.170000e-06	1.498282e-06	2.883177e-10	1.043740e+01	1.915021e+01
2.180000e-06	1.543084e-06	3.143064e-10	1.074951e+01	2.086079e+01
2.190000e-06	1.587830e-06	3.407216e-10	1.106122e+01	2.255388e+01
2.200000e-06	1.632464e-06	3.666642e-10	1.137215e+01	2.422715e+01
2.210000e-06	1.676959e-06	3.901796e-10	1.168211e+01	2.587839e+01
2.220000e-06	1.721321e-06	4.128991e-10	1.199115e+01	2.750551e+01
2.230000e-06	1.765456e-06	4.358816e-10	1.229861e+01	2.910654e+01
2.240000e-06	1.809478e-06	4.574827e-10	1.260527e+01	3.067967e+01
2.250000e-06	1.853525e-06	4.779528e-10	1.291212e+01	3.222322e+01
2.260000e-06	1.897491e-06	4.991837e-10	1.321839e+01	3.373572e+01
2.270000e-06	1.941359e-06	5.202645e-10	1.352399e+01	3.521586e+01
2.280000e-06	1.985179e-06	5.395041e-10	1.382925e+01	3.666249e+01
2.290000e-06	2.028940e-06	5.567949e-10	1.413410e+01	3.807468e+01
2.300000e-06	2.072640e-06	5.745216e-10	1.443852e+01	3.945167e+01
2.310000e-06	2.116284e-06	5.944451e-10	1.474256e+01	4.079290e+01
2.320000e-06	2.159857e-06	6.153095e-10	1.504610e+01	4.209798e+01
2.330000e-06	2.203331e-06	6.350482e-10	1.534895e+01	4.336670e+01
2.340000e-06	2.246690e-06	6.523494e-10	1.565100e+01	4.459904e+01
2.350000e-06	2.289886e-06	6.679110e-10	1.595191e+01	4.579512e+01
2.360000e-06	2.332853e-06	6.820579e-10	1.625123e+01	4.695523e+01
2.370000e-06	2.375543e-06	6.957145e-10	1.654862e+01	4.807978e+01
2.380000e-06	2.417819e-06	7.086517e-10	1.684312e+01	4.916931e+01
2.390000e-06	2.459747e-06	7.224470e-10	1.713520e+01	5.022447e+01
2.400000e-06	2.501424e-06	7.384696e-10	1.742554e+01	5.124600e+01
2.410000e-06	2.542760e-06	7.548720e-10	1.771349e+01	5.223471e+01
2.420000e-06	2.583827e-06	7.679853e-10	1.799958e+01	5.319145e+01
2.430000e-06	2.624563e-06	7.784757e-10	1.828336e+01	5.411714e+01
2.440000e-06	2.664977e-06	7.892795e-10	1.856489e+01	5.501270e+01
2.450000e-06	2.705279e-06	7.997804e-10	1.884564e+01	5.587905e+01
2.460000e-06	2.745449e-06	8.088866e-10	1.912548e+01	5.671711e+01
2.470000e-06	2.785432e-06	8.188918e-10	1.940401e+01	5.752776e+01
2.480000e-06	2.825258e-06	8.287129e-10	1.968145e+01	5.831186e+01
2.490000e-06	2.864967e-06	8.372062e-10	1.995807e+01	5.907020e+01
2.500000e-06	2.904608e-06	8.465985e-10	2.023422e+01	5.980354e+01
2.510000e-06	2.944094e-06	8.568029e-10	2.050929e+01	6.051254e+01
2.520000e-06	2.983316e-06	8.667699e-10	2.078252e+01	6.119781e+01
2.530000e-06	3.022372e-06	8.749940e-10	2.105460e+01	6.185991e+01
2.540000e-06	3.061278e-06	8.830628e-10	2.132562e+01	6.249927e+01
2.550000e-06	3.099926e-06	8.920120e-10	2.159485e+01	6.311632e+01
2.560000e-06	3.138352e-06	8.998663e-10	2.186253e+01	6.371136e+01
2.570000e-06	3.176571e-06	9.069603e-10	2.212878e+01	6.428467e+01
2.580000e-06	3.214492e-06	9.132075e-10	2.239295e+01	6.483648e+01
2.590000e-06	3.252222e-06	9.205619e-10	2.265578e+01	6.536694e+01
2.600000e-06	3.289844e-06	9.290415e-10	2.291787e+01	6.587621e+01
2.610000e-06	3.327284e-06	9.370435e-10	2.317869e+01	6.636440e+01
2.620000e-06	3.364507e-06	9.452695e-10	2.343799e+01	6.683163e+01
2.630000e-06	3.401422e-06	9.523140e-10	2.369515e+01	6.727801e+01
2.640000e-06	3.438000e-06	9.591244e-10	2.394996e+01	6.770367e+01
2.650000e-06	3.474324e-06	9.653723e-10	2.420300e+01	6.810876e+01
2.660000e-06	3.510438e-06	9.692792e-10	2.445458e+01	6.849349e+01
2.670000e-06	3.546342e-06	9.718924e-10	2.470470e+01	6.885809e+01
2.680000e-06	3.582109e-06	9.761568e-10	2.495386e+01	6.920287e+01
2.690000e-06	3.617785e-06	9.815753e-10	2.520239e+01	6.952819e+01
2.700000e-06	3.653368e-06	9.886044e-10	2.545027e+01	6.983449e+01
2.710000e-06	3.688739e-06	9.956397e-10	2.569667e+01	7.012228e+01
2.720000e-06	3.723836e-06	1.000959e-09	2.594117e+01	7.039214e+01
2.730000e-06	3.758602e-06	1.006379e-09	2.618335e+01	7.064476e+01
2.740000e-06	3.792888e-06	1.012195e-09	2.642219e+01	7.088085e+01
2.750000e-06	3.826670e-06	1.017990e-09	2.665753e+01	7.110123e+01
2.760000e-06	3.860007e-06	1.022163e-09	2.688977e+01	7.130678e+01
2.770000e-06	3.892993e-06	1.025963e-09	2.711956e+01	7.149841e+01
2.780000e-06	3.925577e-06	1.029808e-09	2.734654e+01	7.167711e+01
2.790000e-06	3.957779e-06	1.033863e-09	2.757087e+01	7.184387e+01
2.800000e-06	3.989759e-06	1.038227e-09	2.779365e+01	7.199974e+01
2.810000e-06	4.021597e-06	1.041510e-09	2.801544e+01	7.214574e+01
2.820000e-06	4.053286e-06	1.042738e-09	2.823619e+01	7.228292e+01
2.830000e-06	4.084761e-06	1.045942e-09	2.845546e+01	7.241229e+01
2.840000e-06	4.116019e-06	1.050421e-09	2.867321e+01	7.253483e+01
2.850000e-06	4.147018e-06	1.051673e-09	2.888915e+01	7.265148e+01
2.860000e-06	4.177679e-06	1.050406e-09	2.910275e+01	7.276310e+01
2.870000e-06	4.207968e-06	1.049865e-09	2.931375e+01	7.287051e+01
2.880000e-06	4.237926e-06	1.051731e-09	2.952244e+01	7.297442e+01
2.890000e-06	4.267654e-06	1.055393e-09	2.972953e+01	7.307546e+01
2.900000e-06	4.297082e-06	1.058068e-09	2.993454e+01	7.317416e+01
