# Temperatura_=_-7.6
# Concentracion g/m^3_=_1620.0
# C_Vs_to_Am_M_A/Vsm_=_65563218390.804596
# pendiente_HvsI_1/m_=_3716.3
# ordenada_HvsI_A/m_=_1297.0
# frecuencia_Hz_=_135103.69361938164

Tiempo_(s)	Campo_(V.s)	Magnetizacion_(V.s)	Campo_(kA/m)	Magnetizacion_(A/m)
0.000000e+00	-5.514533e-06	-1.265009e-09	-3.836912e+01	-8.220960e+01
1.000000e-08	-5.514804e-06	-1.260478e-09	-3.837101e+01	-8.213406e+01
2.000000e-08	-5.514892e-06	-1.256282e-09	-3.837163e+01	-8.206253e+01
3.000000e-08	-5.514640e-06	-1.253886e-09	-3.836987e+01	-8.199538e+01
4.000000e-08	-5.513900e-06	-1.254437e-09	-3.836472e+01	-8.193287e+01
5.000000e-08	-5.512609e-06	-1.254499e-09	-3.835574e+01	-8.187516e+01
6.000000e-08	-5.510717e-06	-1.245176e-09	-3.834257e+01	-8.182229e+01
7.000000e-08	-5.508253e-06	-1.224034e-09	-3.832543e+01	-8.177418e+01
8.000000e-08	-5.505201e-06	-1.221830e-09	-3.830420e+01	-8.173061e+01
9.000000e-08	-5.501650e-06	-1.294780e-09	-3.827949e+01	-8.169127e+01
1.000000e-07	-5.497730e-06	-1.375353e-09	-3.825221e+01	-8.165573e+01
1.100000e-07	-5.493434e-06	-1.306965e-09	-3.822233e+01	-8.162343e+01
1.200000e-07	-5.488888e-06	-1.154391e-09	-3.819069e+01	-8.159374e+01
1.300000e-07	-5.484216e-06	-1.150723e-09	-3.815819e+01	-8.156593e+01
1.400000e-07	-5.479233e-06	-1.289619e-09	-3.812351e+01	-8.153920e+01
1.500000e-07	-5.473707e-06	-1.323944e-09	-3.808507e+01	-8.151268e+01
1.600000e-07	-5.467844e-06	-1.196584e-09	-3.804427e+01	-8.148549e+01
1.700000e-07	-5.461715e-06	-1.170958e-09	-3.800163e+01	-8.145668e+01
1.800000e-07	-5.455054e-06	-1.288961e-09	-3.795528e+01	-8.142534e+01
1.900000e-07	-5.447863e-06	-1.332417e-09	-3.790525e+01	-8.139055e+01
2.000000e-07	-5.440345e-06	-1.209394e-09	-3.785294e+01	-8.135140e+01
2.100000e-07	-5.432609e-06	-1.166715e-09	-3.779912e+01	-8.130706e+01
2.200000e-07	-5.424709e-06	-1.263411e-09	-3.774415e+01	-8.125676e+01
2.300000e-07	-5.416560e-06	-1.327362e-09	-3.768745e+01	-8.119978e+01
2.400000e-07	-5.407981e-06	-1.255031e-09	-3.762776e+01	-8.113551e+01
2.500000e-07	-5.398828e-06	-1.196505e-09	-3.756407e+01	-8.106346e+01
2.600000e-07	-5.388886e-06	-1.232079e-09	-3.749490e+01	-8.098321e+01
2.700000e-07	-5.378238e-06	-1.261622e-09	-3.742081e+01	-8.089451e+01
2.800000e-07	-5.367181e-06	-1.226639e-09	-3.734388e+01	-8.079720e+01
2.900000e-07	-5.355758e-06	-1.197423e-09	-3.726440e+01	-8.069126e+01
3.000000e-07	-5.343946e-06	-1.229252e-09	-3.718221e+01	-8.057679e+01
3.100000e-07	-5.331832e-06	-1.240460e-09	-3.709792e+01	-8.045401e+01
3.200000e-07	-5.319343e-06	-1.207250e-09	-3.701103e+01	-8.032329e+01
3.300000e-07	-5.306376e-06	-1.177034e-09	-3.692081e+01	-8.018506e+01
3.400000e-07	-5.293046e-06	-1.210422e-09	-3.682806e+01	-8.003990e+01
3.500000e-07	-5.279355e-06	-1.223769e-09	-3.673280e+01	-7.988845e+01
3.600000e-07	-5.265131e-06	-1.199159e-09	-3.663383e+01	-7.973143e+01
3.700000e-07	-5.250433e-06	-1.190798e-09	-3.653156e+01	-7.956964e+01
3.800000e-07	-5.235289e-06	-1.220269e-09	-3.642619e+01	-7.940390e+01
3.900000e-07	-5.219429e-06	-1.193157e-09	-3.631584e+01	-7.923508e+01
4.000000e-07	-5.202973e-06	-1.165718e-09	-3.620134e+01	-7.906406e+01
4.100000e-07	-5.186301e-06	-1.207992e-09	-3.608534e+01	-7.889171e+01
4.200000e-07	-5.169388e-06	-1.226897e-09	-3.596767e+01	-7.871888e+01
4.300000e-07	-5.152102e-06	-1.157250e-09	-3.584740e+01	-7.854640e+01
4.400000e-07	-5.134488e-06	-1.162741e-09	-3.572484e+01	-7.837503e+01
4.500000e-07	-5.116603e-06	-1.229835e-09	-3.560040e+01	-7.820548e+01
4.600000e-07	-5.098283e-06	-1.189654e-09	-3.547293e+01	-7.803839e+01
4.700000e-07	-5.079432e-06	-1.126979e-09	-3.534177e+01	-7.787430e+01
4.800000e-07	-5.060262e-06	-1.186797e-09	-3.520839e+01	-7.771368e+01
4.900000e-07	-5.040849e-06	-1.210579e-09	-3.507332e+01	-7.755687e+01
5.000000e-07	-5.021203e-06	-1.143576e-09	-3.493662e+01	-7.740414e+01
5.100000e-07	-5.001363e-06	-1.155207e-09	-3.479858e+01	-7.725564e+01
5.200000e-07	-4.981307e-06	-1.193898e-09	-3.465904e+01	-7.711141e+01
5.300000e-07	-4.960934e-06	-1.139088e-09	-3.451728e+01	-7.697142e+01
5.400000e-07	-4.940123e-06	-1.128709e-09	-3.437248e+01	-7.683551e+01
5.500000e-07	-4.918978e-06	-1.193656e-09	-3.422536e+01	-7.670344e+01
5.600000e-07	-4.897551e-06	-1.164522e-09	-3.407627e+01	-7.657491e+01
5.700000e-07	-4.875782e-06	-1.111236e-09	-3.392481e+01	-7.644951e+01
5.800000e-07	-4.853656e-06	-1.158695e-09	-3.377086e+01	-7.632679e+01
5.900000e-07	-4.831161e-06	-1.178325e-09	-3.361434e+01	-7.620626e+01
6.000000e-07	-4.808259e-06	-1.122280e-09	-3.345500e+01	-7.608737e+01
6.100000e-07	-4.784944e-06	-1.129664e-09	-3.329278e+01	-7.596955e+01
6.200000e-07	-4.761343e-06	-1.156142e-09	-3.312856e+01	-7.585223e+01
6.300000e-07	-4.737591e-06	-1.123146e-09	-3.296330e+01	-7.573483e+01
6.400000e-07	-4.713690e-06	-1.113918e-09	-3.279701e+01	-7.561677e+01
6.500000e-07	-4.689571e-06	-1.144119e-09	-3.262919e+01	-7.549752e+01
6.600000e-07	-4.665089e-06	-1.129486e-09	-3.245885e+01	-7.537655e+01
6.700000e-07	-4.640156e-06	-1.115590e-09	-3.228537e+01	-7.525340e+01
6.800000e-07	-4.614567e-06	-1.134958e-09	-3.210732e+01	-7.512764e+01
6.900000e-07	-4.588202e-06	-1.132493e-09	-3.192388e+01	-7.499891e+01
7.000000e-07	-4.561292e-06	-1.111717e-09	-3.173664e+01	-7.486691e+01
7.100000e-07	-4.534020e-06	-1.120525e-09	-3.154690e+01	-7.473140e+01
7.200000e-07	-4.506515e-06	-1.122487e-09	-3.135552e+01	-7.459220e+01
7.300000e-07	-4.478852e-06	-1.111841e-09	-3.116305e+01	-7.444921e+01
7.400000e-07	-4.451054e-06	-1.114459e-09	-3.096963e+01	-7.430240e+01
7.500000e-07	-4.423117e-06	-1.116879e-09	-3.077525e+01	-7.415179e+01
7.600000e-07	-4.394967e-06	-1.104542e-09	-3.057938e+01	-7.399747e+01
7.700000e-07	-4.366472e-06	-1.100154e-09	-3.038112e+01	-7.383958e+01
7.800000e-07	-4.337628e-06	-1.098054e-09	-3.018044e+01	-7.367832e+01
7.900000e-07	-4.308444e-06	-1.089788e-09	-2.997737e+01	-7.351391e+01
8.000000e-07	-4.278933e-06	-1.090202e-09	-2.977204e+01	-7.334664e+01
8.100000e-07	-4.249181e-06	-1.092865e-09	-2.956504e+01	-7.317679e+01
8.200000e-07	-4.219179e-06	-1.080467e-09	-2.935629e+01	-7.300469e+01
8.300000e-07	-4.188824e-06	-1.070524e-09	-2.914508e+01	-7.283067e+01
8.400000e-07	-4.158063e-06	-1.074739e-09	-2.893105e+01	-7.265506e+01
8.500000e-07	-4.126963e-06	-1.074085e-09	-2.871466e+01	-7.247818e+01
8.600000e-07	-4.095639e-06	-1.069137e-09	-2.849672e+01	-7.230037e+01
8.700000e-07	-4.064143e-06	-1.071034e-09	-2.827757e+01	-7.212191e+01
8.800000e-07	-4.032520e-06	-1.069113e-09	-2.805755e+01	-7.194309e+01
8.900000e-07	-4.000767e-06	-1.056237e-09	-2.783661e+01	-7.176415e+01
9.000000e-07	-3.968793e-06	-1.053696e-09	-2.761414e+01	-7.158532e+01
9.100000e-07	-3.936583e-06	-1.055206e-09	-2.739004e+01	-7.140676e+01
9.200000e-07	-3.904118e-06	-1.048216e-09	-2.716415e+01	-7.122863e+01
9.300000e-07	-3.871353e-06	-1.046307e-09	-2.693618e+01	-7.105101e+01
9.400000e-07	-3.838281e-06	-1.055421e-09	-2.670607e+01	-7.087397e+01
9.500000e-07	-3.804703e-06	-1.051818e-09	-2.647244e+01	-7.069753e+01
9.600000e-07	-3.770481e-06	-1.040021e-09	-2.623433e+01	-7.052166e+01
9.700000e-07	-3.735720e-06	-1.036537e-09	-2.599247e+01	-7.034630e+01
9.800000e-07	-3.700559e-06	-1.034791e-09	-2.574782e+01	-7.017136e+01
9.900000e-07	-3.665151e-06	-1.024151e-09	-2.550146e+01	-6.999669e+01
1.000000e-06	-3.629567e-06	-1.019744e-09	-2.525387e+01	-6.982215e+01
1.010000e-06	-3.593852e-06	-1.021290e-09	-2.500537e+01	-6.964754e+01
1.020000e-06	-3.558048e-06	-1.017552e-09	-2.475625e+01	-6.947263e+01
1.030000e-06	-3.522137e-06	-1.012458e-09	-2.450640e+01	-6.929721e+01
1.040000e-06	-3.486041e-06	-1.012947e-09	-2.425524e+01	-6.912101e+01
1.050000e-06	-3.449668e-06	-1.008253e-09	-2.400217e+01	-6.894378e+01
1.060000e-06	-3.412963e-06	-9.994681e-10	-2.374678e+01	-6.876522e+01
1.070000e-06	-3.376020e-06	-9.961876e-10	-2.348974e+01	-6.858506e+01
1.080000e-06	-3.338940e-06	-9.949909e-10	-2.323174e+01	-6.840301e+01
1.090000e-06	-3.301583e-06	-9.886639e-10	-2.297182e+01	-6.821876e+01
1.100000e-06	-3.263922e-06	-9.832496e-10	-2.270978e+01	-6.803203e+01
1.110000e-06	-3.226025e-06	-9.815114e-10	-2.244610e+01	-6.784252e+01
1.120000e-06	-3.187906e-06	-9.763040e-10	-2.218087e+01	-6.764993e+01
1.130000e-06	-3.149577e-06	-9.698101e-10	-2.191419e+01	-6.745398e+01
1.140000e-06	-3.111102e-06	-9.650754e-10	-2.164649e+01	-6.725437e+01
1.150000e-06	-3.072484e-06	-9.597397e-10	-2.137779e+01	-6.705082e+01
1.160000e-06	-3.033602e-06	-9.521722e-10	-2.110726e+01	-6.684306e+01
1.170000e-06	-2.994439e-06	-9.472992e-10	-2.083476e+01	-6.663080e+01
1.180000e-06	-2.955080e-06	-9.460787e-10	-2.056092e+01	-6.641377e+01
1.190000e-06	-2.915564e-06	-9.464103e-10	-2.028597e+01	-6.619172e+01
1.200000e-06	-2.875873e-06	-9.457092e-10	-2.000980e+01	-6.596437e+01
1.210000e-06	-2.836088e-06	-9.430586e-10	-1.973299e+01	-6.573148e+01
1.220000e-06	-2.796268e-06	-9.371275e-10	-1.945593e+01	-6.549280e+01
1.230000e-06	-2.756338e-06	-9.320125e-10	-1.917810e+01	-6.524809e+01
1.240000e-06	-2.716274e-06	-9.280948e-10	-1.889934e+01	-6.499711e+01
1.250000e-06	-2.675990e-06	-9.253321e-10	-1.861906e+01	-6.473964e+01
1.260000e-06	-2.635321e-06	-9.225692e-10	-1.833609e+01	-6.447546e+01
1.270000e-06	-2.594314e-06	-9.190341e-10	-1.805077e+01	-6.420439e+01
1.280000e-06	-2.553156e-06	-9.143754e-10	-1.776440e+01	-6.392621e+01
1.290000e-06	-2.511769e-06	-9.086688e-10	-1.747643e+01	-6.364078e+01
1.300000e-06	-2.470019e-06	-9.012884e-10	-1.718595e+01	-6.334791e+01
1.310000e-06	-2.427908e-06	-8.956833e-10	-1.689295e+01	-6.304748e+01
1.320000e-06	-2.385480e-06	-8.921120e-10	-1.659774e+01	-6.273935e+01
1.330000e-06	-2.342753e-06	-8.885751e-10	-1.630046e+01	-6.242343e+01
1.340000e-06	-2.299827e-06	-8.852058e-10	-1.600178e+01	-6.209964e+01
1.350000e-06	-2.256769e-06	-8.828139e-10	-1.570219e+01	-6.176790e+01
1.360000e-06	-2.213499e-06	-8.810584e-10	-1.540112e+01	-6.142817e+01
1.370000e-06	-2.170051e-06	-8.780406e-10	-1.509882e+01	-6.108042e+01
1.380000e-06	-2.126479e-06	-8.717518e-10	-1.479566e+01	-6.072466e+01
1.390000e-06	-2.082815e-06	-8.624602e-10	-1.449185e+01	-6.036087e+01
1.400000e-06	-2.039071e-06	-8.526085e-10	-1.418749e+01	-5.998909e+01
1.410000e-06	-1.995275e-06	-8.443008e-10	-1.388276e+01	-5.960933e+01
1.420000e-06	-1.951449e-06	-8.369895e-10	-1.357783e+01	-5.922163e+01
1.430000e-06	-1.907540e-06	-8.297442e-10	-1.327232e+01	-5.882603e+01
1.440000e-06	-1.863552e-06	-8.245086e-10	-1.296626e+01	-5.842254e+01
1.450000e-06	-1.819454e-06	-8.190378e-10	-1.265943e+01	-5.801118e+01
1.460000e-06	-1.775214e-06	-8.098623e-10	-1.235162e+01	-5.759195e+01
1.470000e-06	-1.730855e-06	-8.002125e-10	-1.204298e+01	-5.716482e+01
1.480000e-06	-1.686375e-06	-7.928456e-10	-1.173350e+01	-5.672974e+01
1.490000e-06	-1.641762e-06	-7.841393e-10	-1.142308e+01	-5.628660e+01
1.500000e-06	-1.597062e-06	-7.736770e-10	-1.111207e+01	-5.583527e+01
1.510000e-06	-1.552233e-06	-7.651290e-10	-1.080016e+01	-5.537555e+01
1.520000e-06	-1.507199e-06	-7.589566e-10	-1.048682e+01	-5.490719e+01
1.530000e-06	-1.462041e-06	-7.522172e-10	-1.017262e+01	-5.442988e+01
1.540000e-06	-1.416759e-06	-7.447764e-10	-9.857552e+00	-5.394323e+01
1.550000e-06	-1.371378e-06	-7.360589e-10	-9.541800e+00	-5.344678e+01
1.560000e-06	-1.325929e-06	-7.259308e-10	-9.225575e+00	-5.294000e+01
1.570000e-06	-1.280380e-06	-7.151716e-10	-8.908652e+00	-5.242228e+01
1.580000e-06	-1.234752e-06	-7.051791e-10	-8.591181e+00	-5.189291e+01
1.590000e-06	-1.189107e-06	-6.958173e-10	-8.273590e+00	-5.135113e+01
1.600000e-06	-1.143382e-06	-6.864431e-10	-7.955448e+00	-5.079606e+01
1.610000e-06	-1.097536e-06	-6.782786e-10	-7.636459e+00	-5.022679e+01
1.620000e-06	-1.051599e-06	-6.734098e-10	-7.316838e+00	-4.964229e+01
1.630000e-06	-1.005545e-06	-6.700017e-10	-6.996398e+00	-4.904149e+01
1.640000e-06	-9.594038e-07	-6.645954e-10	-6.675359e+00	-4.842324e+01
1.650000e-06	-9.132242e-07	-6.533629e-10	-6.354049e+00	-4.778636e+01
1.660000e-06	-8.670566e-07	-6.378757e-10	-6.032823e+00	-4.712960e+01
1.670000e-06	-8.208928e-07	-6.226362e-10	-5.711624e+00	-4.645167e+01
1.680000e-06	-7.746755e-07	-6.101636e-10	-5.390052e+00	-4.575127e+01
1.690000e-06	-7.283289e-07	-5.999595e-10	-5.067581e+00	-4.502708e+01
1.700000e-06	-6.819130e-07	-5.905325e-10	-4.744628e+00	-4.427777e+01
1.710000e-06	-6.355438e-07	-5.798379e-10	-4.421999e+00	-4.350202e+01
1.720000e-06	-5.891078e-07	-5.671688e-10	-4.098906e+00	-4.269853e+01
1.730000e-06	-5.426303e-07	-5.529163e-10	-3.775523e+00	-4.186604e+01
1.740000e-06	-4.960900e-07	-5.359654e-10	-3.451705e+00	-4.100334e+01
1.750000e-06	-4.494700e-07	-5.182022e-10	-3.127331e+00	-4.010927e+01
1.760000e-06	-4.028314e-07	-5.010941e-10	-2.802828e+00	-3.918272e+01
1.770000e-06	-3.561356e-07	-4.848136e-10	-2.477928e+00	-3.822271e+01
1.780000e-06	-3.094299e-07	-4.704035e-10	-2.152957e+00	-3.722829e+01
1.790000e-06	-2.626949e-07	-4.576384e-10	-1.827784e+00	-3.619867e+01
1.800000e-06	-2.159167e-07	-4.433091e-10	-1.502310e+00	-3.513313e+01
1.810000e-06	-1.691369e-07	-4.272610e-10	-1.176824e+00	-3.403108e+01
1.820000e-06	-1.223280e-07	-4.113191e-10	-8.511361e-01	-3.289204e+01
1.830000e-06	-7.546231e-08	-3.951058e-10	-5.250531e-01	-3.171568e+01
1.840000e-06	-2.861118e-08	-3.792371e-10	-1.990714e-01	-3.050179e+01
1.850000e-06	1.820480e-08	-3.644024e-10	1.266657e-01	-2.925029e+01
1.860000e-06	6.500066e-08	-3.475327e-10	4.522629e-01	-2.796125e+01
1.870000e-06	1.117342e-07	-3.276795e-10	7.774261e-01	-2.663487e+01
1.880000e-06	1.585354e-07	-3.057001e-10	1.103061e+00	-2.527148e+01
1.890000e-06	2.054130e-07	-2.836602e-10	1.429227e+00	-2.387155e+01
1.900000e-06	2.522437e-07	-2.621798e-10	1.755066e+00	-2.243571e+01
1.910000e-06	2.989730e-07	-2.397671e-10	2.080200e+00	-2.096469e+01
1.920000e-06	3.455994e-07	-2.173741e-10	2.404618e+00	-1.945936e+01
1.930000e-06	3.922638e-07	-1.960318e-10	2.729301e+00	-1.792073e+01
1.940000e-06	4.389203e-07	-1.750343e-10	3.053928e+00	-1.634989e+01
1.950000e-06	4.854874e-07	-1.537912e-10	3.377933e+00	-1.474810e+01
1.960000e-06	5.320297e-07	-1.314583e-10	3.701766e+00	-1.311670e+01
1.970000e-06	5.785534e-07	-1.088211e-10	4.025470e+00	-1.145714e+01
1.980000e-06	6.250132e-07	-8.715842e-11	4.348729e+00	-9.770966e+00
1.990000e-06	6.714106e-07	-6.587224e-11	4.671554e+00	-8.059843e+00
2.000000e-06	7.177184e-07	-4.275271e-11	4.993755e+00	-6.325509e+00
2.010000e-06	7.638729e-07	-1.886898e-11	5.314890e+00	-4.569796e+00
2.020000e-06	8.100033e-07	5.948982e-12	5.635857e+00	-2.794612e+00
2.030000e-06	8.562307e-07	3.198517e-11	5.957498e+00	-1.001945e+00
2.040000e-06	9.024373e-07	5.713452e-11	6.278996e+00	8.061475e-01
2.050000e-06	9.485530e-07	8.164176e-11	6.599860e+00	2.627545e+00
2.060000e-06	9.945634e-07	1.072911e-10	6.919993e+00	4.460066e+00
2.070000e-06	1.040432e-06	1.337963e-10	7.239141e+00	6.301476e+00
2.080000e-06	1.086203e-06	1.589349e-10	7.557604e+00	8.149496e+00
2.090000e-06	1.131914e-06	1.824586e-10	7.875657e+00	1.000180e+01
2.100000e-06	1.177612e-06	2.065446e-10	8.193613e+00	1.185605e+01
2.110000e-06	1.223208e-06	2.317039e-10	8.510863e+00	1.370985e+01
2.120000e-06	1.268660e-06	2.569083e-10	8.827104e+00	1.556081e+01
2.130000e-06	1.314116e-06	2.820094e-10	9.143382e+00	1.740653e+01
2.140000e-06	1.359573e-06	3.060157e-10	9.459665e+00	1.924461e+01
2.150000e-06	1.404902e-06	3.284178e-10	9.775054e+00	2.107265e+01
2.160000e-06	1.450093e-06	3.509884e-10	1.008948e+01	2.288829e+01
2.170000e-06	1.495173e-06	3.754493e-10	1.040314e+01	2.468919e+01
2.180000e-06	1.540147e-06	3.999269e-10	1.071607e+01	2.647306e+01
2.190000e-06	1.585010e-06	4.246339e-10	1.102821e+01	2.823768e+01
2.200000e-06	1.629625e-06	4.489264e-10	1.133864e+01	2.998086e+01
2.210000e-06	1.674104e-06	4.723818e-10	1.164811e+01	3.170055e+01
2.220000e-06	1.718602e-06	4.968411e-10	1.195773e+01	3.339473e+01
2.230000e-06	1.762941e-06	5.217646e-10	1.226623e+01	3.506155e+01
2.240000e-06	1.807114e-06	5.440529e-10	1.257358e+01	3.669922e+01
2.250000e-06	1.851154e-06	5.635509e-10	1.288000e+01	3.830613e+01
2.260000e-06	1.895077e-06	5.819297e-10	1.318560e+01	3.988077e+01
2.270000e-06	1.938968e-06	6.011510e-10	1.349099e+01	4.142181e+01
2.280000e-06	1.982768e-06	6.214209e-10	1.379574e+01	4.292806e+01
2.290000e-06	2.026464e-06	6.412131e-10	1.409977e+01	4.439850e+01
2.300000e-06	2.070133e-06	6.606899e-10	1.440361e+01	4.583230e+01
2.310000e-06	2.113775e-06	6.814565e-10	1.470727e+01	4.722878e+01
2.320000e-06	2.157412e-06	7.015842e-10	1.501088e+01	4.858745e+01
2.330000e-06	2.201021e-06	7.188811e-10	1.531430e+01	4.990799e+01
2.340000e-06	2.244441e-06	7.358494e-10	1.561642e+01	5.119027e+01
2.350000e-06	2.287608e-06	7.533258e-10	1.591676e+01	5.243433e+01
2.360000e-06	2.330524e-06	7.705514e-10	1.621537e+01	5.364036e+01
2.370000e-06	2.373203e-06	7.874592e-10	1.651232e+01	5.480873e+01
2.380000e-06	2.415645e-06	8.041775e-10	1.680762e+01	5.593996e+01
2.390000e-06	2.457844e-06	8.203000e-10	1.710124e+01	5.703469e+01
2.400000e-06	2.499805e-06	8.362222e-10	1.739319e+01	5.809370e+01
2.410000e-06	2.541379e-06	8.507600e-10	1.768246e+01	5.911788e+01
2.420000e-06	2.582524e-06	8.631411e-10	1.796874e+01	6.010821e+01
2.430000e-06	2.623340e-06	8.732522e-10	1.825273e+01	6.106575e+01
2.440000e-06	2.663831e-06	8.827838e-10	1.853446e+01	6.199163e+01
2.450000e-06	2.704119e-06	8.929204e-10	1.881477e+01	6.288701e+01
2.460000e-06	2.744269e-06	9.048176e-10	1.909413e+01	6.375309e+01
2.470000e-06	2.784233e-06	9.192326e-10	1.937219e+01	6.459106e+01
2.480000e-06	2.824079e-06	9.319632e-10	1.964943e+01	6.540211e+01
2.490000e-06	2.863840e-06	9.405132e-10	1.992608e+01	6.618741e+01
2.500000e-06	2.903476e-06	9.494028e-10	2.020186e+01	6.694808e+01
2.510000e-06	2.942960e-06	9.600392e-10	2.047659e+01	6.768519e+01
2.520000e-06	2.982327e-06	9.696882e-10	2.075049e+01	6.839973e+01
2.530000e-06	3.021589e-06	9.786845e-10	2.102367e+01	6.909262e+01
2.540000e-06	3.060631e-06	9.878006e-10	2.129532e+01	6.976470e+01
2.550000e-06	3.099396e-06	9.974898e-10	2.156504e+01	7.041672e+01
2.560000e-06	3.137841e-06	1.006762e-09	2.183253e+01	7.104930e+01
2.570000e-06	3.175993e-06	1.013801e-09	2.209798e+01	7.166301e+01
2.580000e-06	3.214002e-06	1.019196e-09	2.236245e+01	7.225829e+01
2.590000e-06	3.251832e-06	1.025895e-09	2.262566e+01	7.283548e+01
2.600000e-06	3.289389e-06	1.035607e-09	2.288698e+01	7.339486e+01
2.610000e-06	3.326791e-06	1.045113e-09	2.314721e+01	7.393661e+01
2.620000e-06	3.364004e-06	1.053885e-09	2.340613e+01	7.446082e+01
2.630000e-06	3.400888e-06	1.062243e-09	2.366276e+01	7.496754e+01
2.640000e-06	3.437501e-06	1.070096e-09	2.391751e+01	7.545677e+01
2.650000e-06	3.473838e-06	1.076382e-09	2.417034e+01	7.592845e+01
2.660000e-06	3.509959e-06	1.082657e-09	2.442166e+01	7.638250e+01
2.670000e-06	3.545925e-06	1.089511e-09	2.467190e+01	7.681886e+01
2.680000e-06	3.581732e-06	1.095447e-09	2.492105e+01	7.723743e+01
2.690000e-06	3.617396e-06	1.101213e-09	2.516919e+01	7.763814e+01
2.700000e-06	3.652970e-06	1.105434e-09	2.541671e+01	7.802098e+01
2.710000e-06	3.688464e-06	1.111053e-09	2.566367e+01	7.838593e+01
2.720000e-06	3.723644e-06	1.116962e-09	2.590844e+01	7.873307e+01
2.730000e-06	3.758459e-06	1.123057e-09	2.615068e+01	7.906252e+01
2.740000e-06	3.792959e-06	1.127539e-09	2.639072e+01	7.937447e+01
2.750000e-06	3.826947e-06	1.130453e-09	2.662721e+01	7.966919e+01
2.760000e-06	3.860397e-06	1.132531e-09	2.685995e+01	7.994704e+01
2.770000e-06	3.893404e-06	1.135075e-09	2.708960e+01	8.020846e+01
2.780000e-06	3.926006e-06	1.138490e-09	2.731644e+01	8.045396e+01
2.790000e-06	3.958264e-06	1.145048e-09	2.754088e+01	8.068414e+01
2.800000e-06	3.990231e-06	1.153990e-09	2.776331e+01	8.089968e+01
2.810000e-06	4.022008e-06	1.159896e-09	2.798441e+01	8.110132e+01
2.820000e-06	4.053667e-06	1.161773e-09	2.820468e+01	8.128987e+01
2.830000e-06	4.085183e-06	1.162276e-09	2.842397e+01	8.146617e+01
2.840000e-06	4.116521e-06	1.163392e-09	2.864201e+01	8.163113e+01
2.850000e-06	4.147688e-06	1.163584e-09	2.885887e+01	8.178567e+01
2.860000e-06	4.178511e-06	1.164416e-09	2.907333e+01	8.193071e+01
2.870000e-06	4.208892e-06	1.166954e-09	2.928471e+01	8.206720e+01
2.880000e-06	4.238906e-06	1.170221e-09	2.949354e+01	8.219605e+01
2.890000e-06	4.268606e-06	1.173333e-09	2.970019e+01	8.231816e+01
2.900000e-06	4.298153e-06	1.176475e-09	2.990578e+01	8.243437e+01
