# Temperatura_=_-8.3
# Concentracion g/m^3_=_1620.0
# C_Vs_to_Am_M_A/Vsm_=_65563218390.804596
# pendiente_HvsI_1/m_=_3716.3
# ordenada_HvsI_A/m_=_1297.0
# frecuencia_Hz_=_135101.3378819078

Tiempo_(s)	Campo_(V.s)	Magnetizacion_(V.s)	Campo_(kA/m)	Magnetizacion_(A/m)
0.000000e+00	-5.512257e-06	-1.194571e-09	-3.836611e+01	-7.717029e+01
1.000000e-08	-5.512440e-06	-1.189499e-09	-3.836739e+01	-7.710096e+01
2.000000e-08	-5.512346e-06	-1.184140e-09	-3.836673e+01	-7.703974e+01
3.000000e-08	-5.511882e-06	-1.182094e-09	-3.836350e+01	-7.698701e+01
4.000000e-08	-5.510950e-06	-1.182010e-09	-3.835702e+01	-7.694299e+01
5.000000e-08	-5.509424e-06	-1.180426e-09	-3.834640e+01	-7.690774e+01
6.000000e-08	-5.507296e-06	-1.177815e-09	-3.833158e+01	-7.688112e+01
7.000000e-08	-5.504626e-06	-1.161927e-09	-3.831301e+01	-7.686283e+01
8.000000e-08	-5.501419e-06	-1.175574e-09	-3.829068e+01	-7.685241e+01
9.000000e-08	-5.497789e-06	-1.214482e-09	-3.826541e+01	-7.684920e+01
1.000000e-07	-5.493735e-06	-1.190692e-09	-3.823720e+01	-7.685242e+01
1.100000e-07	-5.489385e-06	-1.132882e-09	-3.820693e+01	-7.686113e+01
1.200000e-07	-5.484886e-06	-1.148713e-09	-3.817561e+01	-7.687426e+01
1.300000e-07	-5.480054e-06	-1.177382e-09	-3.814198e+01	-7.689065e+01
1.400000e-07	-5.474809e-06	-1.182679e-09	-3.810548e+01	-7.690902e+01
1.500000e-07	-5.469206e-06	-1.115917e-09	-3.806648e+01	-7.692807e+01
1.600000e-07	-5.463277e-06	-1.163831e-09	-3.802521e+01	-7.694643e+01
1.700000e-07	-5.456953e-06	-1.189886e-09	-3.798119e+01	-7.696271e+01
1.800000e-07	-5.450176e-06	-1.200412e-09	-3.793403e+01	-7.697556e+01
1.900000e-07	-5.443026e-06	-1.134016e-09	-3.788426e+01	-7.698362e+01
2.000000e-07	-5.435548e-06	-1.144913e-09	-3.783221e+01	-7.698563e+01
2.100000e-07	-5.427769e-06	-1.173911e-09	-3.777807e+01	-7.698040e+01
2.200000e-07	-5.419725e-06	-1.203594e-09	-3.772208e+01	-7.696681e+01
2.300000e-07	-5.411469e-06	-1.183766e-09	-3.766462e+01	-7.694392e+01
2.400000e-07	-5.402910e-06	-1.157411e-09	-3.760505e+01	-7.691088e+01
2.500000e-07	-5.393608e-06	-1.165668e-09	-3.754030e+01	-7.686701e+01
2.600000e-07	-5.383530e-06	-1.165360e-09	-3.747016e+01	-7.681182e+01
2.700000e-07	-5.372971e-06	-1.162866e-09	-3.739667e+01	-7.674495e+01
2.800000e-07	-5.361901e-06	-1.145382e-09	-3.731962e+01	-7.666626e+01
2.900000e-07	-5.350365e-06	-1.176774e-09	-3.723933e+01	-7.657576e+01
3.000000e-07	-5.338504e-06	-1.168783e-09	-3.715677e+01	-7.647366e+01
3.100000e-07	-5.326247e-06	-1.172080e-09	-3.707146e+01	-7.636032e+01
3.200000e-07	-5.313458e-06	-1.137861e-09	-3.698244e+01	-7.623628e+01
3.300000e-07	-5.300307e-06	-1.175869e-09	-3.689092e+01	-7.610225e+01
3.400000e-07	-5.286883e-06	-1.160065e-09	-3.679748e+01	-7.595905e+01
3.500000e-07	-5.272985e-06	-1.150278e-09	-3.670075e+01	-7.580763e+01
3.600000e-07	-5.258651e-06	-1.143269e-09	-3.660098e+01	-7.564906e+01
3.700000e-07	-5.243918e-06	-1.186674e-09	-3.649844e+01	-7.548448e+01
3.800000e-07	-5.228528e-06	-1.143190e-09	-3.639132e+01	-7.531511e+01
3.900000e-07	-5.212457e-06	-1.126814e-09	-3.627947e+01	-7.514218e+01
4.000000e-07	-5.195981e-06	-1.155492e-09	-3.616479e+01	-7.496698e+01
4.100000e-07	-5.179258e-06	-1.155203e-09	-3.604840e+01	-7.479077e+01
4.200000e-07	-5.162205e-06	-1.097541e-09	-3.592970e+01	-7.461478e+01
4.300000e-07	-5.144869e-06	-1.139114e-09	-3.580904e+01	-7.444021e+01
4.400000e-07	-5.127284e-06	-1.175098e-09	-3.568665e+01	-7.426818e+01
4.500000e-07	-5.109250e-06	-1.110786e-09	-3.556113e+01	-7.409974e+01
4.600000e-07	-5.090746e-06	-1.090392e-09	-3.543234e+01	-7.393582e+01
4.700000e-07	-5.071903e-06	-1.155505e-09	-3.530119e+01	-7.377726e+01
4.800000e-07	-5.052712e-06	-1.119773e-09	-3.516761e+01	-7.362474e+01
4.900000e-07	-5.033164e-06	-1.065967e-09	-3.503156e+01	-7.347884e+01
5.000000e-07	-5.013386e-06	-1.131154e-09	-3.489390e+01	-7.333998e+01
5.100000e-07	-4.993398e-06	-1.142066e-09	-3.475478e+01	-7.320843e+01
5.200000e-07	-4.973113e-06	-1.068551e-09	-3.461359e+01	-7.308434e+01
5.300000e-07	-4.952514e-06	-1.097245e-09	-3.447022e+01	-7.296768e+01
5.400000e-07	-4.931615e-06	-1.149636e-09	-3.432476e+01	-7.285833e+01
5.500000e-07	-4.910299e-06	-1.076463e-09	-3.417640e+01	-7.275600e+01
5.600000e-07	-4.888638e-06	-1.065666e-09	-3.402564e+01	-7.266030e+01
5.700000e-07	-4.866699e-06	-1.128803e-09	-3.387294e+01	-7.257071e+01
5.800000e-07	-4.844409e-06	-1.102565e-09	-3.371780e+01	-7.248664e+01
5.900000e-07	-4.821752e-06	-1.053467e-09	-3.356010e+01	-7.240739e+01
6.000000e-07	-4.798683e-06	-1.110256e-09	-3.339954e+01	-7.233222e+01
6.100000e-07	-4.775282e-06	-1.107576e-09	-3.323666e+01	-7.226031e+01
6.200000e-07	-4.751675e-06	-1.058323e-09	-3.307235e+01	-7.219083e+01
6.300000e-07	-4.727859e-06	-1.078734e-09	-3.290659e+01	-7.212291e+01
6.400000e-07	-4.703796e-06	-1.110734e-09	-3.273911e+01	-7.205570e+01
6.500000e-07	-4.679405e-06	-1.065013e-09	-3.256934e+01	-7.198834e+01
6.600000e-07	-4.654690e-06	-1.069599e-09	-3.239733e+01	-7.192000e+01
6.700000e-07	-4.629581e-06	-1.096617e-09	-3.222256e+01	-7.184991e+01
6.800000e-07	-4.603820e-06	-1.074791e-09	-3.204327e+01	-7.177733e+01
6.900000e-07	-4.577403e-06	-1.051790e-09	-3.185940e+01	-7.170159e+01
7.000000e-07	-4.550525e-06	-1.082672e-09	-3.167232e+01	-7.162208e+01
7.100000e-07	-4.523304e-06	-1.076067e-09	-3.148286e+01	-7.153829e+01
7.200000e-07	-4.495782e-06	-1.055709e-09	-3.129130e+01	-7.144977e+01
7.300000e-07	-4.468065e-06	-1.068481e-09	-3.109839e+01	-7.135616e+01
7.400000e-07	-4.440196e-06	-1.078867e-09	-3.090442e+01	-7.125719e+01
7.500000e-07	-4.412115e-06	-1.054918e-09	-3.070897e+01	-7.115268e+01
7.600000e-07	-4.383788e-06	-1.051851e-09	-3.051181e+01	-7.104251e+01
7.700000e-07	-4.355159e-06	-1.059003e-09	-3.031254e+01	-7.092667e+01
7.800000e-07	-4.326223e-06	-1.047756e-09	-3.011115e+01	-7.080519e+01
7.900000e-07	-4.296984e-06	-1.044910e-09	-2.990764e+01	-7.067820e+01
8.000000e-07	-4.267436e-06	-1.056526e-09	-2.970198e+01	-7.054586e+01
8.100000e-07	-4.237654e-06	-1.049440e-09	-2.949469e+01	-7.040840e+01
8.200000e-07	-4.207624e-06	-1.033086e-09	-2.928568e+01	-7.026609e+01
8.300000e-07	-4.177250e-06	-1.036366e-09	-2.907427e+01	-7.011923e+01
8.400000e-07	-4.146503e-06	-1.031989e-09	-2.886027e+01	-6.996813e+01
8.500000e-07	-4.115429e-06	-1.023817e-09	-2.864399e+01	-6.981315e+01
8.600000e-07	-4.084079e-06	-1.027752e-09	-2.842579e+01	-6.965462e+01
8.700000e-07	-4.052561e-06	-1.033695e-09	-2.820642e+01	-6.949288e+01
8.800000e-07	-4.020933e-06	-1.018148e-09	-2.798628e+01	-6.932828e+01
8.900000e-07	-3.989145e-06	-1.014346e-09	-2.776503e+01	-6.916113e+01
9.000000e-07	-3.957144e-06	-1.014037e-09	-2.754231e+01	-6.899172e+01
9.100000e-07	-3.924871e-06	-1.005699e-09	-2.731768e+01	-6.882033e+01
9.200000e-07	-3.892241e-06	-9.979430e-10	-2.709057e+01	-6.864718e+01
9.300000e-07	-3.859174e-06	-1.007692e-09	-2.686042e+01	-6.847249e+01
9.400000e-07	-3.825650e-06	-1.002827e-09	-2.662708e+01	-6.829642e+01
9.500000e-07	-3.791720e-06	-9.954639e-10	-2.639093e+01	-6.811911e+01
9.600000e-07	-3.757367e-06	-9.953960e-10	-2.615183e+01	-6.794065e+01
9.700000e-07	-3.722534e-06	-9.941095e-10	-2.590938e+01	-6.776111e+01
9.800000e-07	-3.687343e-06	-9.805671e-10	-2.566445e+01	-6.758052e+01
9.900000e-07	-3.651886e-06	-9.781515e-10	-2.541766e+01	-6.739888e+01
1.000000e-06	-3.616233e-06	-9.773239e-10	-2.516951e+01	-6.721616e+01
1.010000e-06	-3.580459e-06	-9.706159e-10	-2.492052e+01	-6.703232e+01
1.020000e-06	-3.544565e-06	-9.662147e-10	-2.467069e+01	-6.684729e+01
1.030000e-06	-3.508524e-06	-9.718319e-10	-2.441984e+01	-6.666100e+01
1.040000e-06	-3.472356e-06	-9.688151e-10	-2.416811e+01	-6.647335e+01
1.050000e-06	-3.435973e-06	-9.623131e-10	-2.391487e+01	-6.628426e+01
1.060000e-06	-3.399230e-06	-9.626604e-10	-2.365914e+01	-6.609362e+01
1.070000e-06	-3.362211e-06	-9.599626e-10	-2.340148e+01	-6.590135e+01
1.080000e-06	-3.324944e-06	-9.511981e-10	-2.314210e+01	-6.570735e+01
1.090000e-06	-3.287413e-06	-9.476508e-10	-2.288088e+01	-6.551155e+01
1.100000e-06	-3.249596e-06	-9.487380e-10	-2.261767e+01	-6.531388e+01
1.110000e-06	-3.211538e-06	-9.419794e-10	-2.235278e+01	-6.511428e+01
1.120000e-06	-3.173370e-06	-9.370433e-10	-2.208712e+01	-6.491270e+01
1.130000e-06	-3.135018e-06	-9.366486e-10	-2.182019e+01	-6.470912e+01
1.140000e-06	-3.096380e-06	-9.332340e-10	-2.155126e+01	-6.450351e+01
1.150000e-06	-3.057542e-06	-9.279424e-10	-2.128094e+01	-6.429586e+01
1.160000e-06	-3.018493e-06	-9.275568e-10	-2.100916e+01	-6.408618e+01
1.170000e-06	-2.979284e-06	-9.238548e-10	-2.073625e+01	-6.387448e+01
1.180000e-06	-2.939998e-06	-9.181911e-10	-2.046282e+01	-6.366077e+01
1.190000e-06	-2.900560e-06	-9.149484e-10	-2.018832e+01	-6.344506e+01
1.200000e-06	-2.860959e-06	-9.161505e-10	-1.991269e+01	-6.322738e+01
1.210000e-06	-2.821189e-06	-9.122465e-10	-1.963589e+01	-6.300774e+01
1.220000e-06	-2.781282e-06	-9.101032e-10	-1.935813e+01	-6.278613e+01
1.230000e-06	-2.741277e-06	-9.082647e-10	-1.907969e+01	-6.256255e+01
1.240000e-06	-2.701162e-06	-9.054406e-10	-1.880048e+01	-6.233698e+01
1.250000e-06	-2.660870e-06	-9.006484e-10	-1.852005e+01	-6.210938e+01
1.260000e-06	-2.620227e-06	-8.994941e-10	-1.823716e+01	-6.187968e+01
1.270000e-06	-2.579226e-06	-8.962769e-10	-1.795179e+01	-6.164780e+01
1.280000e-06	-2.538104e-06	-8.915436e-10	-1.766558e+01	-6.141361e+01
1.290000e-06	-2.496803e-06	-8.862609e-10	-1.737812e+01	-6.117699e+01
1.300000e-06	-2.455081e-06	-8.812220e-10	-1.708772e+01	-6.093776e+01
1.310000e-06	-2.412973e-06	-8.755216e-10	-1.679465e+01	-6.069570e+01
1.320000e-06	-2.370552e-06	-8.710482e-10	-1.649939e+01	-6.045059e+01
1.330000e-06	-2.327852e-06	-8.680183e-10	-1.620219e+01	-6.020216e+01
1.340000e-06	-2.284931e-06	-8.652211e-10	-1.590345e+01	-5.995009e+01
1.350000e-06	-2.241775e-06	-8.632716e-10	-1.560309e+01	-5.969406e+01
1.360000e-06	-2.198386e-06	-8.635557e-10	-1.530109e+01	-5.943369e+01
1.370000e-06	-2.154805e-06	-8.611286e-10	-1.499776e+01	-5.916860e+01
1.380000e-06	-2.111102e-06	-8.529462e-10	-1.469358e+01	-5.889834e+01
1.390000e-06	-2.067388e-06	-8.463563e-10	-1.438932e+01	-5.862246e+01
1.400000e-06	-2.023633e-06	-8.416756e-10	-1.408478e+01	-5.834050e+01
1.410000e-06	-1.979794e-06	-8.348426e-10	-1.377965e+01	-5.805193e+01
1.420000e-06	-1.935853e-06	-8.294584e-10	-1.347382e+01	-5.775624e+01
1.430000e-06	-1.891820e-06	-8.265346e-10	-1.316735e+01	-5.745288e+01
1.440000e-06	-1.847776e-06	-8.228511e-10	-1.286079e+01	-5.714129e+01
1.450000e-06	-1.803629e-06	-8.166786e-10	-1.255352e+01	-5.682089e+01
1.460000e-06	-1.759320e-06	-8.086741e-10	-1.224513e+01	-5.649109e+01
1.470000e-06	-1.714937e-06	-7.999699e-10	-1.193621e+01	-5.615129e+01
1.480000e-06	-1.670433e-06	-7.884085e-10	-1.162646e+01	-5.580087e+01
1.490000e-06	-1.625703e-06	-7.766624e-10	-1.131513e+01	-5.543921e+01
1.500000e-06	-1.580875e-06	-7.676448e-10	-1.100312e+01	-5.506567e+01
1.510000e-06	-1.536022e-06	-7.621515e-10	-1.069094e+01	-5.467963e+01
1.520000e-06	-1.491030e-06	-7.570972e-10	-1.037779e+01	-5.428044e+01
1.530000e-06	-1.445863e-06	-7.508871e-10	-1.006342e+01	-5.386744e+01
1.540000e-06	-1.400555e-06	-7.420624e-10	-9.748067e+00	-5.343998e+01
1.550000e-06	-1.355115e-06	-7.323539e-10	-9.431796e+00	-5.299740e+01
1.560000e-06	-1.309601e-06	-7.213325e-10	-9.115016e+00	-5.253903e+01
1.570000e-06	-1.264048e-06	-7.126449e-10	-8.797962e+00	-5.206420e+01
1.580000e-06	-1.218448e-06	-7.050623e-10	-8.480580e+00	-5.157223e+01
1.590000e-06	-1.172847e-06	-6.982695e-10	-8.163188e+00	-5.106243e+01
1.600000e-06	-1.127228e-06	-6.910977e-10	-7.845671e+00	-5.053413e+01
1.610000e-06	-1.081445e-06	-6.839946e-10	-7.527018e+00	-4.998662e+01
1.620000e-06	-1.035471e-06	-6.772407e-10	-7.207033e+00	-4.941920e+01
1.630000e-06	-9.894682e-07	-6.702248e-10	-6.886844e+00	-4.883116e+01
1.640000e-06	-9.433783e-07	-6.613982e-10	-6.566052e+00	-4.822180e+01
1.650000e-06	-8.972298e-07	-6.496286e-10	-6.244851e+00	-4.759039e+01
1.660000e-06	-8.510943e-07	-6.377643e-10	-5.923741e+00	-4.693622e+01
1.670000e-06	-8.049016e-07	-6.247968e-10	-5.602233e+00	-4.625855e+01
1.680000e-06	-7.586312e-07	-6.104108e-10	-5.280184e+00	-4.555667e+01
1.690000e-06	-7.123056e-07	-5.965607e-10	-4.957752e+00	-4.482985e+01
1.700000e-06	-6.659633e-07	-5.843936e-10	-4.635202e+00	-4.407737e+01
1.710000e-06	-6.195350e-07	-5.747105e-10	-4.312054e+00	-4.329850e+01
1.720000e-06	-5.730532e-07	-5.652588e-10	-3.988534e+00	-4.249253e+01
1.730000e-06	-5.265383e-07	-5.524917e-10	-3.664784e+00	-4.165877e+01
1.740000e-06	-4.800016e-07	-5.337169e-10	-3.340881e+00	-4.079653e+01
1.750000e-06	-4.334288e-07	-5.141199e-10	-3.016728e+00	-3.990513e+01
1.760000e-06	-3.867519e-07	-4.958515e-10	-2.691850e+00	-3.898392e+01
1.770000e-06	-3.400979e-07	-4.812859e-10	-2.367131e+00	-3.803228e+01
1.780000e-06	-2.934435e-07	-4.715294e-10	-2.042410e+00	-3.704962e+01
1.790000e-06	-2.467527e-07	-4.620107e-10	-1.717435e+00	-3.603537e+01
1.800000e-06	-1.999950e-07	-4.492511e-10	-1.391995e+00	-3.498903e+01
1.810000e-06	-1.531539e-07	-4.329478e-10	-1.065974e+00	-3.391012e+01
1.820000e-06	-1.063686e-07	-4.159837e-10	-7.403411e-01	-3.279823e+01
1.830000e-06	-5.968086e-08	-3.985192e-10	-4.153875e-01	-3.165299e+01
1.840000e-06	-1.300026e-08	-3.830569e-10	-9.048370e-02	-3.047411e+01
1.850000e-06	3.377373e-08	-3.691821e-10	2.350701e-01	-2.926137e+01
1.860000e-06	8.059221e-08	-3.553069e-10	5.609336e-01	-2.801463e+01
1.870000e-06	1.273108e-07	-3.383140e-10	8.861017e-01	-2.673382e+01
1.880000e-06	1.739423e-07	-3.190516e-10	1.210664e+00	-2.541897e+01
1.890000e-06	2.206108e-07	-2.989282e-10	1.535484e+00	-2.407022e+01
1.900000e-06	2.673696e-07	-2.764138e-10	1.860931e+00	-2.268779e+01
1.910000e-06	3.141798e-07	-2.532865e-10	2.186738e+00	-2.127203e+01
1.920000e-06	3.608504e-07	-2.335621e-10	2.511572e+00	-1.982338e+01
1.930000e-06	4.074320e-07	-2.174758e-10	2.835787e+00	-1.834243e+01
1.940000e-06	4.540185e-07	-2.026209e-10	3.160035e+00	-1.682986e+01
1.950000e-06	5.006212e-07	-1.820997e-10	3.484397e+00	-1.528652e+01
1.960000e-06	5.471784e-07	-1.585260e-10	3.808442e+00	-1.371334e+01
1.970000e-06	5.935224e-07	-1.327152e-10	4.131003e+00	-1.211144e+01
1.980000e-06	6.397850e-07	-1.079193e-10	4.452997e+00	-1.048203e+01
1.990000e-06	6.860234e-07	-8.501737e-11	4.774823e+00	-8.826472e+00
2.000000e-06	7.322538e-07	-6.103442e-11	5.096594e+00	-7.146274e+00
2.010000e-06	7.784865e-07	-3.918275e-11	5.418380e+00	-5.443065e+00
2.020000e-06	8.246368e-07	-1.836016e-11	5.739593e+00	-3.718608e+00
2.030000e-06	8.707744e-07	4.647632e-12	6.060718e+00	-1.974791e+00
2.040000e-06	9.169397e-07	2.861212e-11	6.382035e+00	-2.136248e-01
2.050000e-06	9.630079e-07	5.293265e-11	6.702676e+00	1.562766e+00
2.060000e-06	1.008935e-06	7.963238e-11	7.022336e+00	3.352151e+00
2.070000e-06	1.054825e-06	1.082519e-10	7.341740e+00	5.152204e+00
2.080000e-06	1.100589e-06	1.355773e-10	7.660262e+00	6.960513e+00
2.090000e-06	1.146277e-06	1.609041e-10	7.978254e+00	8.774593e+00
2.100000e-06	1.191977e-06	1.857490e-10	8.296336e+00	1.059190e+01
2.110000e-06	1.237546e-06	2.099271e-10	8.613501e+00	1.240984e+01
2.120000e-06	1.282930e-06	2.331145e-10	8.929379e+00	1.422578e+01
2.130000e-06	1.328278e-06	2.565474e-10	9.245013e+00	1.603711e+01
2.140000e-06	1.373633e-06	2.811868e-10	9.560684e+00	1.784117e+01
2.150000e-06	1.418884e-06	3.051415e-10	9.875640e+00	1.963537e+01
2.160000e-06	1.463992e-06	3.302937e-10	1.018960e+01	2.141710e+01
2.170000e-06	1.508963e-06	3.552907e-10	1.050260e+01	2.318386e+01
2.180000e-06	1.553988e-06	3.798165e-10	1.081598e+01	2.493319e+01
2.190000e-06	1.598855e-06	4.042565e-10	1.112826e+01	2.666273e+01
2.200000e-06	1.643373e-06	4.280084e-10	1.143811e+01	2.837021e+01
2.210000e-06	1.687805e-06	4.503850e-10	1.174737e+01	3.005349e+01
2.220000e-06	1.732168e-06	4.738429e-10	1.205614e+01	3.171056e+01
2.230000e-06	1.776445e-06	4.986190e-10	1.236432e+01	3.333958e+01
2.240000e-06	1.820646e-06	5.219257e-10	1.267197e+01	3.493882e+01
2.250000e-06	1.864711e-06	5.431210e-10	1.297866e+01	3.650676e+01
2.260000e-06	1.908636e-06	5.633642e-10	1.328438e+01	3.804204e+01
2.270000e-06	1.952472e-06	5.816792e-10	1.358949e+01	3.954348e+01
2.280000e-06	1.996268e-06	5.990034e-10	1.389432e+01	4.101008e+01
2.290000e-06	2.040046e-06	6.164053e-10	1.419902e+01	4.244105e+01
2.300000e-06	2.083795e-06	6.351340e-10	1.450352e+01	4.383576e+01
2.310000e-06	2.127490e-06	6.553494e-10	1.480764e+01	4.519377e+01
2.320000e-06	2.171048e-06	6.743238e-10	1.511081e+01	4.651483e+01
2.330000e-06	2.214443e-06	6.919247e-10	1.541285e+01	4.779884e+01
2.340000e-06	2.257704e-06	7.087929e-10	1.571395e+01	4.904589e+01
2.350000e-06	2.300761e-06	7.242234e-10	1.601363e+01	5.025620e+01
2.360000e-06	2.343569e-06	7.382614e-10	1.631158e+01	5.143013e+01
2.370000e-06	2.386152e-06	7.513204e-10	1.660797e+01	5.256818e+01
2.380000e-06	2.428415e-06	7.638191e-10	1.690213e+01	5.367094e+01
2.390000e-06	2.470300e-06	7.774378e-10	1.719365e+01	5.473911e+01
2.400000e-06	2.511907e-06	7.924970e-10	1.748324e+01	5.577346e+01
2.410000e-06	2.553224e-06	8.077391e-10	1.777081e+01	5.677482e+01
2.420000e-06	2.594288e-06	8.203336e-10	1.805662e+01	5.774407e+01
2.430000e-06	2.635125e-06	8.313654e-10	1.834086e+01	5.868211e+01
2.440000e-06	2.675633e-06	8.402765e-10	1.862280e+01	5.958985e+01
2.450000e-06	2.715886e-06	8.475721e-10	1.890297e+01	6.046821e+01
2.460000e-06	2.755986e-06	8.568796e-10	1.918207e+01	6.131807e+01
2.470000e-06	2.795901e-06	8.684606e-10	1.945988e+01	6.214029e+01
2.480000e-06	2.835702e-06	8.796565e-10	1.973690e+01	6.293571e+01
2.490000e-06	2.875436e-06	8.917239e-10	2.001346e+01	6.370507e+01
2.500000e-06	2.915006e-06	9.042940e-10	2.028887e+01	6.444910e+01
2.510000e-06	2.954421e-06	9.148023e-10	2.056320e+01	6.516845e+01
2.520000e-06	2.993711e-06	9.243839e-10	2.083667e+01	6.586368e+01
2.530000e-06	3.032760e-06	9.322788e-10	2.110845e+01	6.653532e+01
2.540000e-06	3.071565e-06	9.376365e-10	2.137854e+01	6.718382e+01
2.550000e-06	3.110187e-06	9.430538e-10	2.164736e+01	6.780955e+01
2.560000e-06	3.148574e-06	9.502561e-10	2.191454e+01	6.841284e+01
2.570000e-06	3.186765e-06	9.600129e-10	2.218035e+01	6.899398e+01
2.580000e-06	3.224790e-06	9.700085e-10	2.244501e+01	6.955318e+01
2.590000e-06	3.262613e-06	9.788339e-10	2.270826e+01	7.009066e+01
2.600000e-06	3.300219e-06	9.863446e-10	2.297001e+01	7.060658e+01
2.610000e-06	3.337580e-06	9.925096e-10	2.323004e+01	7.110111e+01
2.620000e-06	3.374655e-06	9.985093e-10	2.348809e+01	7.157442e+01
2.630000e-06	3.411426e-06	1.004959e-09	2.374403e+01	7.202668e+01
2.640000e-06	3.447936e-06	1.012039e-09	2.399814e+01	7.245810e+01
2.650000e-06	3.484228e-06	1.018537e-09	2.425074e+01	7.286891e+01
2.660000e-06	3.520387e-06	1.024542e-09	2.450241e+01	7.325940e+01
2.670000e-06	3.556428e-06	1.030467e-09	2.475326e+01	7.362990e+01
2.680000e-06	3.592304e-06	1.036481e-09	2.500296e+01	7.398082e+01
2.690000e-06	3.628045e-06	1.043123e-09	2.525172e+01	7.431261e+01
2.700000e-06	3.663653e-06	1.049124e-09	2.549956e+01	7.462584e+01
2.710000e-06	3.699051e-06	1.054086e-09	2.574594e+01	7.492110e+01
2.720000e-06	3.734131e-06	1.059262e-09	2.599010e+01	7.519911e+01
2.730000e-06	3.768857e-06	1.063806e-09	2.623180e+01	7.546061e+01
2.740000e-06	3.803124e-06	1.067815e-09	2.647030e+01	7.570647e+01
2.750000e-06	3.836809e-06	1.070576e-09	2.670475e+01	7.593756e+01
2.760000e-06	3.869949e-06	1.072402e-09	2.693541e+01	7.615487e+01
2.770000e-06	3.902655e-06	1.075421e-09	2.716305e+01	7.635939e+01
2.780000e-06	3.935102e-06	1.080940e-09	2.738889e+01	7.655216e+01
2.790000e-06	3.967378e-06	1.088596e-09	2.761353e+01	7.673426e+01
2.800000e-06	3.999434e-06	1.096658e-09	2.783665e+01	7.690675e+01
2.810000e-06	4.031286e-06	1.100536e-09	2.805834e+01	7.707071e+01
2.820000e-06	4.062977e-06	1.101670e-09	2.827892e+01	7.722720e+01
2.830000e-06	4.094450e-06	1.103946e-09	2.849797e+01	7.737721e+01
2.840000e-06	4.125618e-06	1.105519e-09	2.871491e+01	7.752172e+01
2.850000e-06	4.156464e-06	1.105052e-09	2.892960e+01	7.766162e+01
2.860000e-06	4.187037e-06	1.105682e-09	2.914239e+01	7.779774e+01
2.870000e-06	4.217375e-06	1.109784e-09	2.935355e+01	7.793080e+01
2.880000e-06	4.247486e-06	1.115558e-09	2.956312e+01	7.806144e+01
2.890000e-06	4.277310e-06	1.121331e-09	2.977070e+01	7.819017e+01
2.900000e-06	4.306805e-06	1.123951e-09	2.997600e+01	7.831739e+01
