# Temperatura_=_3.69
# Concentracion g/m^3_=_1620.0
# C_Vs_to_Am_M_A/Vsm_=_65563218390.804596
# pendiente_HvsI_1/m_=_3716.3
# ordenada_HvsI_A/m_=_1297.0
# frecuencia_Hz_=_135098.58247783766

Tiempo_(s)	Campo_(V.s)	Magnetizacion_(V.s)	Campo_(kA/m)	Magnetizacion_(A/m)
0.000000e+00	-5.521984e-06	-1.474266e-09	-3.837756e+01	-9.635466e+01
1.000000e-08	-5.522058e-06	-1.472595e-09	-3.837808e+01	-9.631253e+01
2.000000e-08	-5.521901e-06	-1.471665e-09	-3.837699e+01	-9.627363e+01
3.000000e-08	-5.521263e-06	-1.470094e-09	-3.837256e+01	-9.623823e+01
4.000000e-08	-5.519995e-06	-1.469359e-09	-3.836374e+01	-9.620651e+01
5.000000e-08	-5.518096e-06	-1.464946e-09	-3.835055e+01	-9.617858e+01
6.000000e-08	-5.515568e-06	-1.458937e-09	-3.833298e+01	-9.615449e+01
7.000000e-08	-5.512538e-06	-1.470652e-09	-3.831192e+01	-9.613418e+01
8.000000e-08	-5.509092e-06	-1.484072e-09	-3.828797e+01	-9.611754e+01
9.000000e-08	-5.505181e-06	-1.476656e-09	-3.826079e+01	-9.610432e+01
1.000000e-07	-5.500930e-06	-1.495971e-09	-3.823124e+01	-9.609424e+01
1.100000e-07	-5.496437e-06	-1.488991e-09	-3.820001e+01	-9.608688e+01
1.200000e-07	-5.491651e-06	-1.427742e-09	-3.816675e+01	-9.608178e+01
1.300000e-07	-5.486573e-06	-1.423650e-09	-3.813146e+01	-9.607836e+01
1.400000e-07	-5.481220e-06	-1.465369e-09	-3.809426e+01	-9.607600e+01
1.500000e-07	-5.475483e-06	-1.513207e-09	-3.805439e+01	-9.607400e+01
1.600000e-07	-5.469350e-06	-1.449538e-09	-3.801176e+01	-9.607160e+01
1.700000e-07	-5.462858e-06	-1.430532e-09	-3.796664e+01	-9.606800e+01
1.800000e-07	-5.455975e-06	-1.467330e-09	-3.791880e+01	-9.606236e+01
1.900000e-07	-5.448688e-06	-1.480594e-09	-3.786816e+01	-9.605382e+01
2.000000e-07	-5.441107e-06	-1.434114e-09	-3.781547e+01	-9.604152e+01
2.100000e-07	-5.433292e-06	-1.433188e-09	-3.776116e+01	-9.602458e+01
2.200000e-07	-5.425193e-06	-1.480879e-09	-3.770487e+01	-9.600216e+01
2.300000e-07	-5.416695e-06	-1.486902e-09	-3.764581e+01	-9.597343e+01
2.400000e-07	-5.407584e-06	-1.442293e-09	-3.758249e+01	-9.593761e+01
2.500000e-07	-5.397795e-06	-1.419918e-09	-3.751446e+01	-9.589398e+01
2.600000e-07	-5.387290e-06	-1.445109e-09	-3.744145e+01	-9.584190e+01
2.700000e-07	-5.376239e-06	-1.448670e-09	-3.736464e+01	-9.578077e+01
2.800000e-07	-5.364850e-06	-1.443606e-09	-3.728549e+01	-9.571012e+01
2.900000e-07	-5.353165e-06	-1.432234e-09	-3.720428e+01	-9.562956e+01
3.000000e-07	-5.341107e-06	-1.447843e-09	-3.712048e+01	-9.553880e+01
3.100000e-07	-5.328570e-06	-1.442534e-09	-3.703335e+01	-9.543768e+01
3.200000e-07	-5.315609e-06	-1.441197e-09	-3.694327e+01	-9.532612e+01
3.300000e-07	-5.302246e-06	-1.413935e-09	-3.685039e+01	-9.520418e+01
3.400000e-07	-5.288435e-06	-1.421270e-09	-3.675441e+01	-9.507204e+01
3.500000e-07	-5.274225e-06	-1.435368e-09	-3.665565e+01	-9.492996e+01
3.600000e-07	-5.259530e-06	-1.432564e-09	-3.655352e+01	-9.477835e+01
3.700000e-07	-5.244298e-06	-1.404585e-09	-3.644766e+01	-9.461769e+01
3.800000e-07	-5.228649e-06	-1.431742e-09	-3.633890e+01	-9.444857e+01
3.900000e-07	-5.212527e-06	-1.435114e-09	-3.622686e+01	-9.427167e+01
4.000000e-07	-5.195953e-06	-1.388905e-09	-3.611166e+01	-9.408773e+01
4.100000e-07	-5.179094e-06	-1.394392e-09	-3.599449e+01	-9.389756e+01
4.200000e-07	-5.161926e-06	-1.446695e-09	-3.587518e+01	-9.370203e+01
4.300000e-07	-5.144364e-06	-1.406350e-09	-3.575312e+01	-9.350203e+01
4.400000e-07	-5.126401e-06	-1.368400e-09	-3.562828e+01	-9.329848e+01
4.500000e-07	-5.107999e-06	-1.430260e-09	-3.550039e+01	-9.309231e+01
4.600000e-07	-5.089230e-06	-1.429450e-09	-3.536994e+01	-9.288443e+01
4.700000e-07	-5.070158e-06	-1.346079e-09	-3.523739e+01	-9.267573e+01
4.800000e-07	-5.050833e-06	-1.372052e-09	-3.510309e+01	-9.246709e+01
4.900000e-07	-5.031295e-06	-1.426600e-09	-3.496730e+01	-9.225929e+01
5.000000e-07	-5.011511e-06	-1.360521e-09	-3.482980e+01	-9.205309e+01
5.100000e-07	-4.991420e-06	-1.343599e-09	-3.469016e+01	-9.184915e+01
5.200000e-07	-4.970986e-06	-1.412506e-09	-3.454815e+01	-9.164807e+01
5.300000e-07	-4.950204e-06	-1.386102e-09	-3.440372e+01	-9.145032e+01
5.400000e-07	-4.929110e-06	-1.330339e-09	-3.425711e+01	-9.125631e+01
5.500000e-07	-4.907624e-06	-1.383486e-09	-3.410779e+01	-9.106633e+01
5.600000e-07	-4.885761e-06	-1.384824e-09	-3.395584e+01	-9.088055e+01
5.700000e-07	-4.863638e-06	-1.320263e-09	-3.380208e+01	-9.069904e+01
5.800000e-07	-4.841212e-06	-1.345734e-09	-3.364623e+01	-9.052177e+01
5.900000e-07	-4.818416e-06	-1.387361e-09	-3.348780e+01	-9.034861e+01
6.000000e-07	-4.795259e-06	-1.334983e-09	-3.332686e+01	-9.017930e+01
6.100000e-07	-4.771880e-06	-1.328528e-09	-3.316437e+01	-9.001352e+01
6.200000e-07	-4.748308e-06	-1.366197e-09	-3.300055e+01	-8.985084e+01
6.300000e-07	-4.724476e-06	-1.345953e-09	-3.283491e+01	-8.969076e+01
6.400000e-07	-4.700382e-06	-1.318495e-09	-3.266747e+01	-8.953273e+01
6.500000e-07	-4.675956e-06	-1.346364e-09	-3.249771e+01	-8.937612e+01
6.600000e-07	-4.651029e-06	-1.341745e-09	-3.232446e+01	-8.922027e+01
6.700000e-07	-4.625431e-06	-1.316051e-09	-3.214656e+01	-8.906449e+01
6.800000e-07	-4.599201e-06	-1.321453e-09	-3.196426e+01	-8.890808e+01
6.900000e-07	-4.572504e-06	-1.330077e-09	-3.177872e+01	-8.875031e+01
7.000000e-07	-4.545456e-06	-1.315371e-09	-3.159074e+01	-8.859050e+01
7.100000e-07	-4.518161e-06	-1.313709e-09	-3.140104e+01	-8.842797e+01
7.200000e-07	-4.490610e-06	-1.317312e-09	-3.120956e+01	-8.826206e+01
7.300000e-07	-4.462859e-06	-1.311749e-09	-3.101669e+01	-8.809219e+01
7.400000e-07	-4.434988e-06	-1.304921e-09	-3.082299e+01	-8.791781e+01
7.500000e-07	-4.406888e-06	-1.300656e-09	-3.062769e+01	-8.773843e+01
7.600000e-07	-4.378414e-06	-1.295662e-09	-3.042980e+01	-8.755366e+01
7.700000e-07	-4.349611e-06	-1.294077e-09	-3.022962e+01	-8.736316e+01
7.800000e-07	-4.320513e-06	-1.293666e-09	-3.002739e+01	-8.716667e+01
7.900000e-07	-4.291105e-06	-1.290458e-09	-2.982301e+01	-8.696402e+01
8.000000e-07	-4.261420e-06	-1.287926e-09	-2.961670e+01	-8.675513e+01
8.100000e-07	-4.231418e-06	-1.280354e-09	-2.940818e+01	-8.653999e+01
8.200000e-07	-4.201083e-06	-1.268841e-09	-2.919736e+01	-8.631867e+01
8.300000e-07	-4.170362e-06	-1.258727e-09	-2.898385e+01	-8.609132e+01
8.400000e-07	-4.139315e-06	-1.259030e-09	-2.876807e+01	-8.585815e+01
8.500000e-07	-4.108148e-06	-1.258910e-09	-2.855146e+01	-8.561945e+01
8.600000e-07	-4.076866e-06	-1.255747e-09	-2.833406e+01	-8.537555e+01
8.700000e-07	-4.045366e-06	-1.249784e-09	-2.811513e+01	-8.512681e+01
8.800000e-07	-4.013635e-06	-1.244785e-09	-2.789460e+01	-8.487366e+01
8.900000e-07	-3.981703e-06	-1.232066e-09	-2.767268e+01	-8.461653e+01
9.000000e-07	-3.949567e-06	-1.225373e-09	-2.744933e+01	-8.435587e+01
9.100000e-07	-3.917113e-06	-1.223686e-09	-2.722378e+01	-8.409213e+01
9.200000e-07	-3.884155e-06	-1.222728e-09	-2.699472e+01	-8.382576e+01
9.300000e-07	-3.850629e-06	-1.218455e-09	-2.676171e+01	-8.355720e+01
9.400000e-07	-3.816676e-06	-1.219724e-09	-2.652574e+01	-8.328684e+01
9.500000e-07	-3.782344e-06	-1.217375e-09	-2.628714e+01	-8.301506e+01
9.600000e-07	-3.747604e-06	-1.208072e-09	-2.604570e+01	-8.274218e+01
9.700000e-07	-3.712540e-06	-1.197762e-09	-2.580201e+01	-8.246848e+01
9.800000e-07	-3.677258e-06	-1.192527e-09	-2.555680e+01	-8.219418e+01
9.900000e-07	-3.641791e-06	-1.183586e-09	-2.531030e+01	-8.191945e+01
1.000000e-06	-3.606130e-06	-1.175902e-09	-2.506246e+01	-8.164438e+01
1.010000e-06	-3.570320e-06	-1.175278e-09	-2.481358e+01	-8.136901e+01
1.020000e-06	-3.534442e-06	-1.174591e-09	-2.456423e+01	-8.109332e+01
1.030000e-06	-3.498450e-06	-1.169093e-09	-2.431408e+01	-8.081721e+01
1.040000e-06	-3.462098e-06	-1.164547e-09	-2.406144e+01	-8.054054e+01
1.050000e-06	-3.425325e-06	-1.159217e-09	-2.380587e+01	-8.026310e+01
1.060000e-06	-3.388289e-06	-1.149529e-09	-2.354847e+01	-7.998464e+01
1.070000e-06	-3.351103e-06	-1.143851e-09	-2.329003e+01	-7.970484e+01
1.080000e-06	-3.313720e-06	-1.141686e-09	-2.303022e+01	-7.942337e+01
1.090000e-06	-3.276119e-06	-1.136433e-09	-2.276889e+01	-7.913986e+01
1.100000e-06	-3.238290e-06	-1.129790e-09	-2.250599e+01	-7.885389e+01
1.110000e-06	-3.200162e-06	-1.126726e-09	-2.224100e+01	-7.856507e+01
1.120000e-06	-3.161778e-06	-1.121957e-09	-2.197423e+01	-7.827296e+01
1.130000e-06	-3.123245e-06	-1.116412e-09	-2.170643e+01	-7.797714e+01
1.140000e-06	-3.084536e-06	-1.112451e-09	-2.143740e+01	-7.767720e+01
1.150000e-06	-3.045570e-06	-1.110869e-09	-2.116659e+01	-7.737273e+01
1.160000e-06	-3.006432e-06	-1.102846e-09	-2.089458e+01	-7.706336e+01
1.170000e-06	-2.967151e-06	-1.091046e-09	-2.062158e+01	-7.674873e+01
1.180000e-06	-2.927729e-06	-1.084006e-09	-2.034760e+01	-7.642852e+01
1.190000e-06	-2.888190e-06	-1.081703e-09	-2.007281e+01	-7.610245e+01
1.200000e-06	-2.848489e-06	-1.076705e-09	-1.979688e+01	-7.577028e+01
1.210000e-06	-2.808718e-06	-1.073036e-09	-1.952047e+01	-7.543180e+01
1.220000e-06	-2.768829e-06	-1.069793e-09	-1.924325e+01	-7.508686e+01
1.230000e-06	-2.728662e-06	-1.065767e-09	-1.896409e+01	-7.473532e+01
1.240000e-06	-2.688231e-06	-1.059901e-09	-1.868310e+01	-7.437712e+01
1.250000e-06	-2.647510e-06	-1.053550e-09	-1.840009e+01	-7.401222e+01
1.260000e-06	-2.606481e-06	-1.045422e-09	-1.811494e+01	-7.364059e+01
1.270000e-06	-2.565184e-06	-1.037622e-09	-1.782792e+01	-7.326227e+01
1.280000e-06	-2.523631e-06	-1.031590e-09	-1.753914e+01	-7.287730e+01
1.290000e-06	-2.481726e-06	-1.025822e-09	-1.724790e+01	-7.248574e+01
1.300000e-06	-2.439497e-06	-1.018442e-09	-1.695440e+01	-7.208766e+01
1.310000e-06	-2.397104e-06	-1.010260e-09	-1.665978e+01	-7.168313e+01
1.320000e-06	-2.354524e-06	-1.003401e-09	-1.636385e+01	-7.127223e+01
1.330000e-06	-2.311689e-06	-9.969601e-10	-1.606615e+01	-7.085501e+01
1.340000e-06	-2.268611e-06	-9.918501e-10	-1.576676e+01	-7.043151e+01
1.350000e-06	-2.225363e-06	-9.895258e-10	-1.546618e+01	-7.000173e+01
1.360000e-06	-2.181962e-06	-9.855612e-10	-1.516455e+01	-6.956567e+01
1.370000e-06	-2.138416e-06	-9.769644e-10	-1.486191e+01	-6.912325e+01
1.380000e-06	-2.094787e-06	-9.659225e-10	-1.455868e+01	-6.867438e+01
1.390000e-06	-2.051103e-06	-9.552574e-10	-1.425508e+01	-6.821887e+01
1.400000e-06	-2.007291e-06	-9.460034e-10	-1.395059e+01	-6.775653e+01
1.410000e-06	-1.963374e-06	-9.394216e-10	-1.364537e+01	-6.728708e+01
1.420000e-06	-1.919383e-06	-9.337441e-10	-1.333963e+01	-6.681019e+01
1.430000e-06	-1.875309e-06	-9.284407e-10	-1.303332e+01	-6.632544e+01
1.440000e-06	-1.831210e-06	-9.234393e-10	-1.272683e+01	-6.583240e+01
1.450000e-06	-1.786948e-06	-9.148572e-10	-1.241922e+01	-6.533052e+01
1.460000e-06	-1.742547e-06	-9.036658e-10	-1.211063e+01	-6.481923e+01
1.470000e-06	-1.698056e-06	-8.915444e-10	-1.180142e+01	-6.429788e+01
1.480000e-06	-1.653435e-06	-8.796250e-10	-1.149131e+01	-6.376576e+01
1.490000e-06	-1.608664e-06	-8.680310e-10	-1.118015e+01	-6.322214e+01
1.500000e-06	-1.563722e-06	-8.572681e-10	-1.086781e+01	-6.266621e+01
1.510000e-06	-1.518603e-06	-8.500361e-10	-1.055423e+01	-6.209712e+01
1.520000e-06	-1.473354e-06	-8.444598e-10	-1.023975e+01	-6.151400e+01
1.530000e-06	-1.428062e-06	-8.348437e-10	-9.924975e+00	-6.091593e+01
1.540000e-06	-1.382721e-06	-8.229395e-10	-9.609858e+00	-6.030198e+01
1.550000e-06	-1.337304e-06	-8.100618e-10	-9.294209e+00	-5.967120e+01
1.560000e-06	-1.291722e-06	-7.986043e-10	-8.977415e+00	-5.902262e+01
1.570000e-06	-1.246024e-06	-7.876382e-10	-8.659818e+00	-5.835525e+01
1.580000e-06	-1.200277e-06	-7.769844e-10	-8.341879e+00	-5.766813e+01
1.590000e-06	-1.154469e-06	-7.650701e-10	-8.023512e+00	-5.696029e+01
1.600000e-06	-1.108550e-06	-7.536515e-10	-7.704376e+00	-5.623075e+01
1.610000e-06	-1.062552e-06	-7.451848e-10	-7.384697e+00	-5.547857e+01
1.620000e-06	-1.016481e-06	-7.376693e-10	-7.064503e+00	-5.470282e+01
1.630000e-06	-9.703126e-07	-7.293948e-10	-6.743633e+00	-5.390258e+01
1.640000e-06	-9.240599e-07	-7.185597e-10	-6.422179e+00	-5.307698e+01
1.650000e-06	-8.778008e-07	-7.034461e-10	-6.100680e+00	-5.222515e+01
1.660000e-06	-8.315351e-07	-6.882825e-10	-5.779135e+00	-5.134628e+01
1.670000e-06	-7.852062e-07	-6.726505e-10	-5.457151e+00	-5.043955e+01
1.680000e-06	-7.388040e-07	-6.577223e-10	-5.134658e+00	-4.950422e+01
1.690000e-06	-6.923463e-07	-6.412075e-10	-4.811779e+00	-4.853955e+01
1.700000e-06	-6.458590e-07	-6.270180e-10	-4.488694e+00	-4.754487e+01
1.710000e-06	-5.992580e-07	-6.151014e-10	-4.164819e+00	-4.651952e+01
1.720000e-06	-5.525495e-07	-6.001090e-10	-3.840197e+00	-4.546288e+01
1.730000e-06	-5.058206e-07	-5.821592e-10	-3.515433e+00	-4.437440e+01
1.740000e-06	-4.590623e-07	-5.621930e-10	-3.190465e+00	-4.325354e+01
1.750000e-06	-4.123170e-07	-5.421819e-10	-2.865587e+00	-4.209981e+01
1.760000e-06	-3.655935e-07	-5.214172e-10	-2.540860e+00	-4.091278e+01
1.770000e-06	-3.188300e-07	-5.022526e-10	-2.215855e+00	-3.969205e+01
1.780000e-06	-2.720429e-07	-4.851559e-10	-1.890687e+00	-3.843728e+01
1.790000e-06	-2.252531e-07	-4.681895e-10	-1.565500e+00	-3.714819e+01
1.800000e-06	-1.783857e-07	-4.523912e-10	-1.239773e+00	-3.582454e+01
1.810000e-06	-1.314547e-07	-4.352224e-10	-9.136046e-01	-3.446617e+01
1.820000e-06	-8.459362e-08	-4.138183e-10	-5.879222e-01	-3.307296e+01
1.830000e-06	-3.775336e-08	-3.923501e-10	-2.623843e-01	-3.164489e+01
1.840000e-06	9.187117e-09	-3.698671e-10	6.385009e-02	-3.018200e+01
1.850000e-06	5.611727e-08	-3.506996e-10	3.900128e-01	-2.868442e+01
1.860000e-06	1.029081e-07	-3.333818e-10	7.152072e-01	-2.715235e+01
1.870000e-06	1.497247e-07	-3.151700e-10	1.040580e+00	-2.558610e+01
1.880000e-06	1.965213e-07	-2.941139e-10	1.365815e+00	-2.398608e+01
1.890000e-06	2.432740e-07	-2.695128e-10	1.690745e+00	-2.235280e+01
1.900000e-06	2.900559e-07	-2.423512e-10	2.015877e+00	-2.068687e+01
1.910000e-06	3.367882e-07	-2.157938e-10	2.340665e+00	-1.898903e+01
1.920000e-06	3.836483e-07	-1.900086e-10	2.666340e+00	-1.726015e+01
1.930000e-06	4.305143e-07	-1.663143e-10	2.992057e+00	-1.550120e+01
1.940000e-06	4.772211e-07	-1.437903e-10	3.316667e+00	-1.371328e+01
1.950000e-06	5.238557e-07	-1.218325e-10	3.640776e+00	-1.189765e+01
1.960000e-06	5.703872e-07	-9.940065e-11	3.964168e+00	-1.005567e+01
1.970000e-06	6.168977e-07	-7.442450e-11	4.287414e+00	-8.188841e+00
1.980000e-06	6.633614e-07	-4.850428e-11	4.610335e+00	-6.298794e+00
1.990000e-06	7.096880e-07	-1.945217e-11	4.932303e+00	-4.387289e+00
2.000000e-06	7.559827e-07	1.250297e-11	5.254049e+00	-2.456208e+00
2.010000e-06	8.023247e-07	4.176967e-11	5.576125e+00	-5.075514e-01
2.020000e-06	8.486867e-07	6.701465e-11	5.898338e+00	1.456569e+00
2.030000e-06	8.949296e-07	9.186423e-11	6.219725e+00	3.433939e+00
2.040000e-06	9.410267e-07	1.183079e-10	6.540097e+00	5.422248e+00
2.050000e-06	9.870567e-07	1.460574e-10	6.860004e+00	7.419104e+00
2.060000e-06	1.032975e-06	1.746017e-10	7.179134e+00	9.422044e+00
2.070000e-06	1.078841e-06	2.052924e-10	7.497900e+00	1.142855e+01
2.080000e-06	1.124682e-06	2.360237e-10	7.816498e+00	1.343605e+01
2.090000e-06	1.170425e-06	2.650893e-10	8.134405e+00	1.544195e+01
2.100000e-06	1.216020e-06	2.932735e-10	8.451291e+00	1.744364e+01
2.110000e-06	1.261532e-06	3.217777e-10	8.767597e+00	1.943852e+01
2.120000e-06	1.306990e-06	3.497336e-10	9.083530e+00	2.142399e+01
2.130000e-06	1.352402e-06	3.748668e-10	9.399141e+00	2.339751e+01
2.140000e-06	1.397729e-06	3.975124e-10	9.714162e+00	2.535657e+01
2.150000e-06	1.442891e-06	4.223962e-10	1.002803e+01	2.729874e+01
2.160000e-06	1.487994e-06	4.508762e-10	1.034150e+01	2.922165e+01
2.170000e-06	1.533036e-06	4.808342e-10	1.065454e+01	3.112305e+01
2.180000e-06	1.577988e-06	5.086236e-10	1.096696e+01	3.300078e+01
2.190000e-06	1.622810e-06	5.336993e-10	1.127847e+01	3.485284e+01
2.200000e-06	1.667515e-06	5.571680e-10	1.158916e+01	3.667731e+01
2.210000e-06	1.712059e-06	5.808274e-10	1.189874e+01	3.847244e+01
2.220000e-06	1.756433e-06	6.057085e-10	1.220714e+01	4.023665e+01
2.230000e-06	1.800729e-06	6.298648e-10	1.251499e+01	4.196849e+01
2.240000e-06	1.844859e-06	6.534140e-10	1.282169e+01	4.366667e+01
2.250000e-06	1.888813e-06	6.762616e-10	1.312717e+01	4.533010e+01
2.260000e-06	1.932679e-06	6.972945e-10	1.343204e+01	4.695782e+01
2.270000e-06	1.976463e-06	7.164157e-10	1.373634e+01	4.854906e+01
2.280000e-06	2.020161e-06	7.361594e-10	1.404003e+01	5.010321e+01
2.290000e-06	2.063840e-06	7.567276e-10	1.434360e+01	5.161983e+01
2.300000e-06	2.107477e-06	7.765429e-10	1.464688e+01	5.309862e+01
2.310000e-06	2.151059e-06	7.967195e-10	1.494977e+01	5.453945e+01
2.320000e-06	2.194585e-06	8.166196e-10	1.525228e+01	5.594230e+01
2.330000e-06	2.238025e-06	8.347790e-10	1.555419e+01	5.730734e+01
2.340000e-06	2.281337e-06	8.512164e-10	1.585520e+01	5.863480e+01
2.350000e-06	2.324462e-06	8.681900e-10	1.615491e+01	5.992507e+01
2.360000e-06	2.367361e-06	8.857316e-10	1.645306e+01	6.117861e+01
2.370000e-06	2.409935e-06	9.019508e-10	1.674895e+01	6.239599e+01
2.380000e-06	2.452190e-06	9.164824e-10	1.704262e+01	6.357785e+01
2.390000e-06	2.494198e-06	9.327939e-10	1.733458e+01	6.472489e+01
2.400000e-06	2.535926e-06	9.497373e-10	1.762458e+01	6.583787e+01
2.410000e-06	2.577425e-06	9.628483e-10	1.791300e+01	6.691757e+01
2.420000e-06	2.618599e-06	9.740396e-10	1.819915e+01	6.796482e+01
2.430000e-06	2.659384e-06	9.838093e-10	1.848261e+01	6.898046e+01
2.440000e-06	2.699907e-06	9.962512e-10	1.876425e+01	6.996534e+01
2.450000e-06	2.740161e-06	1.009983e-09	1.904401e+01	7.092030e+01
2.460000e-06	2.780197e-06	1.022869e-09	1.932226e+01	7.184617e+01
2.470000e-06	2.820103e-06	1.035633e-09	1.959960e+01	7.274378e+01
2.480000e-06	2.859905e-06	1.046899e-09	1.987622e+01	7.361391e+01
2.490000e-06	2.899620e-06	1.057821e-09	2.015224e+01	7.445733e+01
2.500000e-06	2.939169e-06	1.067687e-09	2.042711e+01	7.527477e+01
2.510000e-06	2.978579e-06	1.076909e-09	2.070100e+01	7.606693e+01
2.520000e-06	3.017831e-06	1.085660e-09	2.097381e+01	7.683447e+01
2.530000e-06	3.056889e-06	1.092543e-09	2.124525e+01	7.757801e+01
2.540000e-06	3.095775e-06	1.100231e-09	2.151551e+01	7.829814e+01
2.550000e-06	3.134381e-06	1.108335e-09	2.178382e+01	7.899542e+01
2.560000e-06	3.172649e-06	1.117610e-09	2.204978e+01	7.967037e+01
2.570000e-06	3.210690e-06	1.127526e-09	2.231417e+01	8.032348e+01
2.580000e-06	3.248561e-06	1.134931e-09	2.257737e+01	8.095523e+01
2.590000e-06	3.286253e-06	1.142801e-09	2.283932e+01	8.156606e+01
2.600000e-06	3.323718e-06	1.151405e-09	2.309971e+01	8.215641e+01
2.610000e-06	3.360936e-06	1.159329e-09	2.335837e+01	8.272672e+01
2.620000e-06	3.397948e-06	1.165484e-09	2.361560e+01	8.327739e+01
2.630000e-06	3.434672e-06	1.172333e-09	2.387083e+01	8.380885e+01
2.640000e-06	3.471107e-06	1.181933e-09	2.412405e+01	8.432153e+01
2.650000e-06	3.507333e-06	1.191180e-09	2.437583e+01	8.481586e+01
2.660000e-06	3.543327e-06	1.197698e-09	2.462598e+01	8.529229e+01
2.670000e-06	3.579128e-06	1.204622e-09	2.487480e+01	8.575129e+01
2.680000e-06	3.614827e-06	1.209857e-09	2.512290e+01	8.619333e+01
2.690000e-06	3.650389e-06	1.215820e-09	2.537005e+01	8.661892e+01
2.700000e-06	3.685822e-06	1.223238e-09	2.561631e+01	8.702859e+01
2.710000e-06	3.721091e-06	1.232333e-09	2.586143e+01	8.742289e+01
2.720000e-06	3.756068e-06	1.240743e-09	2.610452e+01	8.780239e+01
2.730000e-06	3.790725e-06	1.246440e-09	2.634538e+01	8.816769e+01
2.740000e-06	3.824969e-06	1.252035e-09	2.658338e+01	8.851939e+01
2.750000e-06	3.858664e-06	1.255921e-09	2.681756e+01	8.885814e+01
2.760000e-06	3.891819e-06	1.258028e-09	2.704798e+01	8.918457e+01
2.770000e-06	3.924499e-06	1.262539e-09	2.727511e+01	8.949934e+01
2.780000e-06	3.956797e-06	1.269651e-09	2.749958e+01	8.980311e+01
2.790000e-06	3.988853e-06	1.279594e-09	2.772237e+01	9.009654e+01
2.800000e-06	4.020709e-06	1.290289e-09	2.794377e+01	9.038028e+01
2.810000e-06	4.052391e-06	1.295336e-09	2.816395e+01	9.065498e+01
2.820000e-06	4.083931e-06	1.297071e-09	2.838316e+01	9.092127e+01
2.830000e-06	4.115293e-06	1.298631e-09	2.860112e+01	9.117975e+01
2.840000e-06	4.146453e-06	1.300050e-09	2.881768e+01	9.143100e+01
2.850000e-06	4.177242e-06	1.297911e-09	2.903166e+01	9.167556e+01
2.860000e-06	4.207654e-06	1.298214e-09	2.924302e+01	9.191395e+01
2.870000e-06	4.237805e-06	1.305086e-09	2.945257e+01	9.214663e+01
2.880000e-06	4.267688e-06	1.312914e-09	2.966026e+01	9.237403e+01
2.890000e-06	4.297311e-06	1.319281e-09	2.986614e+01	9.259651e+01
2.900000e-06	4.326587e-06	1.321303e-09	3.006960e+01	9.281439e+01
