# Temperatura_=_9.7
# Concentracion g/m^3_=_1620.0
# C_Vs_to_Am_M_A/Vsm_=_65563218390.804596
# pendiente_HvsI_1/m_=_3716.3
# ordenada_HvsI_A/m_=_1297.0
# frecuencia_Hz_=_135097.45152047055

Tiempo_(s)	Campo_(V.s)	Magnetizacion_(V.s)	Campo_(kA/m)	Magnetizacion_(A/m)
0.000000e+00	-5.537120e-06	-1.565385e-09	-3.838014e+01	-1.021934e+02
1.000000e-08	-5.537436e-06	-1.562278e-09	-3.838232e+01	-1.021653e+02
2.000000e-08	-5.537513e-06	-1.558081e-09	-3.838286e+01	-1.021402e+02
3.000000e-08	-5.537260e-06	-1.556516e-09	-3.838110e+01	-1.021181e+02
4.000000e-08	-5.536541e-06	-1.556604e-09	-3.837612e+01	-1.020988e+02
5.000000e-08	-5.535196e-06	-1.556829e-09	-3.836680e+01	-1.020821e+02
6.000000e-08	-5.533279e-06	-1.552716e-09	-3.835351e+01	-1.020679e+02
7.000000e-08	-5.530807e-06	-1.549498e-09	-3.833638e+01	-1.020558e+02
8.000000e-08	-5.527826e-06	-1.579272e-09	-3.831572e+01	-1.020455e+02
9.000000e-08	-5.524384e-06	-1.620425e-09	-3.829186e+01	-1.020364e+02
1.000000e-07	-5.520406e-06	-1.598181e-09	-3.826428e+01	-1.020280e+02
1.100000e-07	-5.516105e-06	-1.560732e-09	-3.823447e+01	-1.020198e+02
1.200000e-07	-5.511637e-06	-1.545830e-09	-3.820350e+01	-1.020113e+02
1.300000e-07	-5.506965e-06	-1.552871e-09	-3.817112e+01	-1.020016e+02
1.400000e-07	-5.501934e-06	-1.558844e-09	-3.813625e+01	-1.019902e+02
1.500000e-07	-5.496419e-06	-1.546771e-09	-3.809802e+01	-1.019763e+02
1.600000e-07	-5.490558e-06	-1.573920e-09	-3.805740e+01	-1.019593e+02
1.700000e-07	-5.484264e-06	-1.574277e-09	-3.801377e+01	-1.019384e+02
1.800000e-07	-5.477535e-06	-1.568744e-09	-3.796713e+01	-1.019131e+02
1.900000e-07	-5.470464e-06	-1.556071e-09	-3.791812e+01	-1.018825e+02
2.000000e-07	-5.463036e-06	-1.558019e-09	-3.786663e+01	-1.018462e+02
2.100000e-07	-5.455389e-06	-1.559214e-09	-3.781362e+01	-1.018036e+02
2.200000e-07	-5.447557e-06	-1.574572e-09	-3.775933e+01	-1.017541e+02
2.300000e-07	-5.439396e-06	-1.584353e-09	-3.770277e+01	-1.016973e+02
2.400000e-07	-5.430679e-06	-1.580015e-09	-3.764235e+01	-1.016328e+02
2.500000e-07	-5.421366e-06	-1.562308e-09	-3.757779e+01	-1.015604e+02
2.600000e-07	-5.411517e-06	-1.553799e-09	-3.750953e+01	-1.014797e+02
2.700000e-07	-5.401114e-06	-1.557579e-09	-3.743742e+01	-1.013907e+02
2.800000e-07	-5.390141e-06	-1.557681e-09	-3.736136e+01	-1.012933e+02
2.900000e-07	-5.378699e-06	-1.556321e-09	-3.728205e+01	-1.011875e+02
3.000000e-07	-5.366912e-06	-1.544597e-09	-3.720035e+01	-1.010735e+02
3.100000e-07	-5.354734e-06	-1.541039e-09	-3.711594e+01	-1.009514e+02
3.200000e-07	-5.342093e-06	-1.537013e-09	-3.702832e+01	-1.008215e+02
3.300000e-07	-5.329009e-06	-1.547166e-09	-3.693763e+01	-1.006841e+02
3.400000e-07	-5.315573e-06	-1.535306e-09	-3.684450e+01	-1.005397e+02
3.500000e-07	-5.301779e-06	-1.524796e-09	-3.674889e+01	-1.003887e+02
3.600000e-07	-5.287579e-06	-1.535713e-09	-3.665046e+01	-1.002316e+02
3.700000e-07	-5.272917e-06	-1.543642e-09	-3.654883e+01	-1.000688e+02
3.800000e-07	-5.257615e-06	-1.508092e-09	-3.644277e+01	-9.990113e+01
3.900000e-07	-5.241739e-06	-1.507748e-09	-3.633272e+01	-9.972899e+01
4.000000e-07	-5.225470e-06	-1.536995e-09	-3.621995e+01	-9.955301e+01
4.100000e-07	-5.208853e-06	-1.518523e-09	-3.610478e+01	-9.937377e+01
4.200000e-07	-5.191850e-06	-1.486243e-09	-3.598692e+01	-9.919185e+01
4.300000e-07	-5.174441e-06	-1.523724e-09	-3.586625e+01	-9.900779e+01
4.400000e-07	-5.156708e-06	-1.528506e-09	-3.574334e+01	-9.882210e+01
4.500000e-07	-5.138627e-06	-1.479625e-09	-3.561801e+01	-9.863525e+01
4.600000e-07	-5.120127e-06	-1.489769e-09	-3.548978e+01	-9.844767e+01
4.700000e-07	-5.101312e-06	-1.527224e-09	-3.535937e+01	-9.825974e+01
4.800000e-07	-5.082202e-06	-1.485076e-09	-3.522690e+01	-9.807176e+01
4.900000e-07	-5.062779e-06	-1.470855e-09	-3.509227e+01	-9.788398e+01
5.000000e-07	-5.043208e-06	-1.515356e-09	-3.495662e+01	-9.769661e+01
5.100000e-07	-5.023476e-06	-1.494359e-09	-3.481985e+01	-9.750975e+01
5.200000e-07	-5.003404e-06	-1.451656e-09	-3.468072e+01	-9.732347e+01
5.300000e-07	-4.982887e-06	-1.493170e-09	-3.453851e+01	-9.713776e+01
5.400000e-07	-4.961967e-06	-1.502548e-09	-3.439350e+01	-9.695257e+01
5.500000e-07	-4.940709e-06	-1.447651e-09	-3.424616e+01	-9.676777e+01
5.600000e-07	-4.919113e-06	-1.459807e-09	-3.409647e+01	-9.658320e+01
5.700000e-07	-4.897198e-06	-1.489112e-09	-3.394456e+01	-9.639863e+01
5.800000e-07	-4.874987e-06	-1.448882e-09	-3.379061e+01	-9.621382e+01
5.900000e-07	-4.852325e-06	-1.439311e-09	-3.363353e+01	-9.602848e+01
6.000000e-07	-4.829249e-06	-1.478647e-09	-3.347358e+01	-9.584231e+01
6.100000e-07	-4.805990e-06	-1.458161e-09	-3.331236e+01	-9.565498e+01
6.200000e-07	-4.782561e-06	-1.430340e-09	-3.314997e+01	-9.546616e+01
6.300000e-07	-4.758877e-06	-1.450939e-09	-3.298580e+01	-9.527552e+01
6.400000e-07	-4.734942e-06	-1.449119e-09	-3.281990e+01	-9.508274e+01
6.500000e-07	-4.710643e-06	-1.416565e-09	-3.265147e+01	-9.488750e+01
6.600000e-07	-4.685839e-06	-1.426850e-09	-3.247954e+01	-9.468953e+01
6.700000e-07	-4.660576e-06	-1.438347e-09	-3.230444e+01	-9.448855e+01
6.800000e-07	-4.634812e-06	-1.422058e-09	-3.212585e+01	-9.428433e+01
6.900000e-07	-4.608424e-06	-1.419518e-09	-3.194295e+01	-9.407669e+01
7.000000e-07	-4.581567e-06	-1.432011e-09	-3.175679e+01	-9.386545e+01
7.100000e-07	-4.554365e-06	-1.418909e-09	-3.156825e+01	-9.365049e+01
7.200000e-07	-4.526864e-06	-1.407961e-09	-3.137762e+01	-9.343174e+01
7.300000e-07	-4.499191e-06	-1.411318e-09	-3.118581e+01	-9.320916e+01
7.400000e-07	-4.471378e-06	-1.407114e-09	-3.099303e+01	-9.298274e+01
7.500000e-07	-4.443360e-06	-1.396090e-09	-3.079882e+01	-9.275251e+01
7.600000e-07	-4.415057e-06	-1.396317e-09	-3.060264e+01	-9.251854e+01
7.700000e-07	-4.386435e-06	-1.392765e-09	-3.040425e+01	-9.228093e+01
7.800000e-07	-4.357514e-06	-1.384547e-09	-3.020379e+01	-9.203980e+01
7.900000e-07	-4.328310e-06	-1.379823e-09	-3.000136e+01	-9.179528e+01
8.000000e-07	-4.298820e-06	-1.375354e-09	-2.979695e+01	-9.154754e+01
8.100000e-07	-4.269006e-06	-1.364790e-09	-2.959030e+01	-9.129672e+01
8.200000e-07	-4.238773e-06	-1.358939e-09	-2.938074e+01	-9.104299e+01
8.300000e-07	-4.208207e-06	-1.356653e-09	-2.916887e+01	-9.078651e+01
8.400000e-07	-4.177474e-06	-1.349429e-09	-2.895585e+01	-9.052744e+01
8.500000e-07	-4.146515e-06	-1.343818e-09	-2.874126e+01	-9.026591e+01
8.600000e-07	-4.115296e-06	-1.342466e-09	-2.852487e+01	-9.000203e+01
8.700000e-07	-4.083867e-06	-1.334499e-09	-2.830702e+01	-8.973591e+01
8.800000e-07	-4.052239e-06	-1.321685e-09	-2.808780e+01	-8.946760e+01
8.900000e-07	-4.020416e-06	-1.317611e-09	-2.786722e+01	-8.919715e+01
9.000000e-07	-3.988329e-06	-1.312209e-09	-2.764480e+01	-8.892456e+01
9.100000e-07	-3.955945e-06	-1.305063e-09	-2.742034e+01	-8.864980e+01
9.200000e-07	-3.923211e-06	-1.303082e-09	-2.719345e+01	-8.837282e+01
9.300000e-07	-3.890089e-06	-1.301308e-09	-2.696386e+01	-8.809351e+01
9.400000e-07	-3.856521e-06	-1.290415e-09	-2.673119e+01	-8.781177e+01
9.500000e-07	-3.822434e-06	-1.282547e-09	-2.649492e+01	-8.752744e+01
9.600000e-07	-3.787873e-06	-1.278404e-09	-2.625536e+01	-8.724034e+01
9.700000e-07	-3.752984e-06	-1.271496e-09	-2.601353e+01	-8.695026e+01
9.800000e-07	-3.717838e-06	-1.264170e-09	-2.576992e+01	-8.665701e+01
9.900000e-07	-3.682498e-06	-1.262661e-09	-2.552496e+01	-8.636034e+01
1.000000e-06	-3.646975e-06	-1.255390e-09	-2.527874e+01	-8.606001e+01
1.010000e-06	-3.611289e-06	-1.244624e-09	-2.503138e+01	-8.575579e+01
1.020000e-06	-3.575482e-06	-1.240346e-09	-2.478319e+01	-8.544743e+01
1.030000e-06	-3.539436e-06	-1.237920e-09	-2.453334e+01	-8.513470e+01
1.040000e-06	-3.503168e-06	-1.229186e-09	-2.428195e+01	-8.481738e+01
1.050000e-06	-3.466676e-06	-1.223388e-09	-2.402901e+01	-8.449527e+01
1.060000e-06	-3.429879e-06	-1.219158e-09	-2.377395e+01	-8.416816e+01
1.070000e-06	-3.392788e-06	-1.213271e-09	-2.351685e+01	-8.383592e+01
1.080000e-06	-3.355476e-06	-1.207382e-09	-2.325823e+01	-8.349839e+01
1.090000e-06	-3.317963e-06	-1.203359e-09	-2.299821e+01	-8.315546e+01
1.100000e-06	-3.280207e-06	-1.197510e-09	-2.273651e+01	-8.280707e+01
1.110000e-06	-3.242232e-06	-1.190134e-09	-2.247329e+01	-8.245315e+01
1.120000e-06	-3.204054e-06	-1.184637e-09	-2.220866e+01	-8.209369e+01
1.130000e-06	-3.165582e-06	-1.176614e-09	-2.194200e+01	-8.172869e+01
1.140000e-06	-3.126827e-06	-1.166382e-09	-2.167337e+01	-8.135820e+01
1.150000e-06	-3.087876e-06	-1.159278e-09	-2.140338e+01	-8.098226e+01
1.160000e-06	-3.048758e-06	-1.155016e-09	-2.113224e+01	-8.060096e+01
1.170000e-06	-3.009508e-06	-1.148236e-09	-2.086018e+01	-8.021438e+01
1.180000e-06	-2.970098e-06	-1.139761e-09	-2.058702e+01	-7.982265e+01
1.190000e-06	-2.930535e-06	-1.135403e-09	-2.031279e+01	-7.942586e+01
1.200000e-06	-2.890835e-06	-1.133090e-09	-2.003761e+01	-7.902414e+01
1.210000e-06	-2.850985e-06	-1.127625e-09	-1.976139e+01	-7.861759e+01
1.220000e-06	-2.810970e-06	-1.121993e-09	-1.948403e+01	-7.820632e+01
1.230000e-06	-2.770753e-06	-1.115307e-09	-1.920527e+01	-7.779043e+01
1.240000e-06	-2.730319e-06	-1.108774e-09	-1.892501e+01	-7.736998e+01
1.250000e-06	-2.689685e-06	-1.102900e-09	-1.864335e+01	-7.694502e+01
1.260000e-06	-2.648888e-06	-1.097709e-09	-1.836057e+01	-7.651557e+01
1.270000e-06	-2.607823e-06	-1.090781e-09	-1.807593e+01	-7.608162e+01
1.280000e-06	-2.566334e-06	-1.084077e-09	-1.778835e+01	-7.564313e+01
1.290000e-06	-2.524553e-06	-1.077040e-09	-1.749875e+01	-7.520002e+01
1.300000e-06	-2.482565e-06	-1.068659e-09	-1.720771e+01	-7.475217e+01
1.310000e-06	-2.440267e-06	-1.060576e-09	-1.691453e+01	-7.429941e+01
1.320000e-06	-2.397627e-06	-1.054806e-09	-1.661898e+01	-7.384156e+01
1.330000e-06	-2.354745e-06	-1.049063e-09	-1.632174e+01	-7.337837e+01
1.340000e-06	-2.311688e-06	-1.039890e-09	-1.602329e+01	-7.290958e+01
1.350000e-06	-2.268443e-06	-1.031234e-09	-1.572355e+01	-7.243486e+01
1.360000e-06	-2.225023e-06	-1.024901e-09	-1.542258e+01	-7.195387e+01
1.370000e-06	-2.181473e-06	-1.016586e-09	-1.512072e+01	-7.146624e+01
1.380000e-06	-2.137842e-06	-1.008000e-09	-1.481829e+01	-7.097156e+01
1.390000e-06	-2.094150e-06	-1.000561e-09	-1.451544e+01	-7.046939e+01
1.400000e-06	-2.050367e-06	-9.932294e-10	-1.421196e+01	-6.995929e+01
1.410000e-06	-2.006558e-06	-9.853659e-10	-1.390831e+01	-6.944078e+01
1.420000e-06	-1.962719e-06	-9.765726e-10	-1.360444e+01	-6.891338e+01
1.430000e-06	-1.918723e-06	-9.656812e-10	-1.329949e+01	-6.837659e+01
1.440000e-06	-1.874498e-06	-9.546592e-10	-1.299295e+01	-6.782991e+01
1.450000e-06	-1.830099e-06	-9.446342e-10	-1.268520e+01	-6.727282e+01
1.460000e-06	-1.785622e-06	-9.351106e-10	-1.237691e+01	-6.670480e+01
1.470000e-06	-1.741055e-06	-9.260607e-10	-1.206799e+01	-6.612534e+01
1.480000e-06	-1.696356e-06	-9.170061e-10	-1.175817e+01	-6.553392e+01
1.490000e-06	-1.651518e-06	-9.070631e-10	-1.144737e+01	-6.493000e+01
1.500000e-06	-1.606568e-06	-8.928109e-10	-1.113581e+01	-6.431308e+01
1.510000e-06	-1.561559e-06	-8.773604e-10	-1.082383e+01	-6.368261e+01
1.520000e-06	-1.516477e-06	-8.659907e-10	-1.051135e+01	-6.303806e+01
1.530000e-06	-1.471157e-06	-8.569207e-10	-1.019721e+01	-6.237889e+01
1.540000e-06	-1.425667e-06	-8.475498e-10	-9.881903e+00	-6.170454e+01
1.550000e-06	-1.380139e-06	-8.375104e-10	-9.566329e+00	-6.101445e+01
1.560000e-06	-1.334501e-06	-8.263454e-10	-9.249996e+00	-6.030802e+01
1.570000e-06	-1.288749e-06	-8.147436e-10	-8.932869e+00	-5.958464e+01
1.580000e-06	-1.242969e-06	-8.019896e-10	-8.615547e+00	-5.884369e+01
1.590000e-06	-1.197158e-06	-7.880709e-10	-8.298012e+00	-5.808448e+01
1.600000e-06	-1.151230e-06	-7.755928e-10	-7.979665e+00	-5.730632e+01
1.610000e-06	-1.105186e-06	-7.654100e-10	-7.660515e+00	-5.650847e+01
1.620000e-06	-1.059103e-06	-7.550967e-10	-7.341095e+00	-5.569014e+01
1.630000e-06	-1.013018e-06	-7.449116e-10	-7.021661e+00	-5.485051e+01
1.640000e-06	-9.668838e-07	-7.347865e-10	-6.701883e+00	-5.398871e+01
1.650000e-06	-9.206161e-07	-7.212369e-10	-6.381182e+00	-5.310382e+01
1.660000e-06	-8.741888e-07	-7.042799e-10	-6.059375e+00	-5.219488e+01
1.670000e-06	-8.277223e-07	-6.841709e-10	-5.737295e+00	-5.126088e+01
1.680000e-06	-7.812332e-07	-6.652177e-10	-5.415060e+00	-5.030080e+01
1.690000e-06	-7.347009e-07	-6.516260e-10	-5.092525e+00	-4.931354e+01
1.700000e-06	-6.880898e-07	-6.388204e-10	-4.769444e+00	-4.829800e+01
1.710000e-06	-6.414582e-07	-6.250269e-10	-4.446220e+00	-4.725305e+01
1.720000e-06	-5.947898e-07	-6.119241e-10	-4.122741e+00	-4.617754e+01
1.730000e-06	-5.480045e-07	-5.964067e-10	-3.798452e+00	-4.507034e+01
1.740000e-06	-5.011837e-07	-5.759058e-10	-3.473918e+00	-4.393030e+01
1.750000e-06	-4.543147e-07	-5.550492e-10	-3.149049e+00	-4.275631e+01
1.760000e-06	-4.074050e-07	-5.340593e-10	-2.823898e+00	-4.154727e+01
1.770000e-06	-3.604808e-07	-5.130178e-10	-2.498646e+00	-4.030216e+01
1.780000e-06	-3.135151e-07	-4.959920e-10	-2.173107e+00	-3.901998e+01
1.790000e-06	-2.665257e-07	-4.805597e-10	-1.847403e+00	-3.769985e+01
1.800000e-06	-2.195493e-07	-4.629290e-10	-1.521789e+00	-3.634096e+01
1.810000e-06	-1.725534e-07	-4.438874e-10	-1.196041e+00	-3.494260e+01
1.820000e-06	-1.255453e-07	-4.236811e-10	-8.702080e-01	-3.350421e+01
1.830000e-06	-7.854224e-08	-4.018491e-10	-5.444097e-01	-3.202533e+01
1.840000e-06	-3.155533e-08	-3.790544e-10	-2.187234e-01	-3.050569e+01
1.850000e-06	1.543947e-08	-3.575040e-10	1.070175e-01	-2.894517e+01
1.860000e-06	6.241219e-08	-3.379902e-10	4.326054e-01	-2.734381e+01
1.870000e-06	1.094095e-07	-3.165443e-10	7.583637e-01	-2.570186e+01
1.880000e-06	1.564856e-07	-2.948204e-10	1.084668e+00	-2.401975e+01
1.890000e-06	2.034976e-07	-2.724177e-10	1.410529e+00	-2.229812e+01
1.900000e-06	2.504065e-07	-2.476349e-10	1.735674e+00	-2.053781e+01
1.910000e-06	2.972679e-07	-2.180863e-10	2.060490e+00	-1.873988e+01
1.920000e-06	3.442108e-07	-1.886950e-10	2.385872e+00	-1.690559e+01
1.930000e-06	3.911984e-07	-1.604236e-10	2.711563e+00	-1.503642e+01
1.940000e-06	4.381097e-07	-1.333713e-10	3.036725e+00	-1.313405e+01
1.950000e-06	4.849680e-07	-1.088287e-10	3.361520e+00	-1.120035e+01
1.960000e-06	5.317851e-07	-8.374353e-11	3.686029e+00	-9.237382e+00
1.970000e-06	5.785209e-07	-5.934419e-11	4.009975e+00	-7.247405e+00
1.980000e-06	6.251691e-07	-3.310582e-11	4.333313e+00	-5.232831e+00
1.990000e-06	6.717854e-07	-3.339631e-12	4.656431e+00	-3.196225e+00
2.000000e-06	7.184014e-07	2.826373e-11	4.979546e+00	-1.140293e+00
2.010000e-06	7.649693e-07	5.868458e-11	5.302328e+00	9.321441e-01
2.020000e-06	8.113772e-07	8.582421e-11	5.624001e+00	3.018164e+00
2.030000e-06	8.576728e-07	1.125164e-10	5.944896e+00	5.114765e+00
2.040000e-06	9.039829e-07	1.402952e-10	6.265890e+00	7.218890e+00
2.050000e-06	9.502564e-07	1.678830e-10	6.586631e+00	9.327442e+00
2.060000e-06	9.964525e-07	1.999573e-10	6.906836e+00	1.143731e+01
2.070000e-06	1.042594e-06	2.316403e-10	7.226659e+00	1.354540e+01
2.080000e-06	1.088658e-06	2.613195e-10	7.545949e+00	1.564863e+01
2.090000e-06	1.134623e-06	2.892848e-10	7.864556e+00	1.774399e+01
2.100000e-06	1.180463e-06	3.170094e-10	8.182293e+00	1.982852e+01
2.110000e-06	1.226222e-06	3.469285e-10	8.499464e+00	2.189937e+01
2.120000e-06	1.271880e-06	3.787401e-10	8.815944e+00	2.395379e+01
2.130000e-06	1.317443e-06	4.108146e-10	9.131757e+00	2.598915e+01
2.140000e-06	1.362948e-06	4.402689e-10	9.447170e+00	2.800297e+01
2.150000e-06	1.408334e-06	4.662585e-10	9.761763e+00	2.999292e+01
2.160000e-06	1.453642e-06	4.920304e-10	1.007581e+01	3.195684e+01
2.170000e-06	1.498974e-06	5.184931e-10	1.039003e+01	3.389275e+01
2.180000e-06	1.544276e-06	5.443558e-10	1.070403e+01	3.579884e+01
2.190000e-06	1.589357e-06	5.696360e-10	1.101651e+01	3.767349e+01
2.200000e-06	1.634221e-06	5.963717e-10	1.132748e+01	3.951527e+01
2.210000e-06	1.678939e-06	6.229802e-10	1.163744e+01	4.132295e+01
2.220000e-06	1.723499e-06	6.483267e-10	1.194630e+01	4.309549e+01
2.230000e-06	1.767952e-06	6.727366e-10	1.225443e+01	4.483202e+01
2.240000e-06	1.812310e-06	6.945974e-10	1.256189e+01	4.653186e+01
2.250000e-06	1.856539e-06	7.155827e-10	1.286846e+01	4.819452e+01
2.260000e-06	1.900590e-06	7.361851e-10	1.317380e+01	4.981965e+01
2.270000e-06	1.944498e-06	7.574991e-10	1.347814e+01	5.140709e+01
2.280000e-06	1.988327e-06	7.786927e-10	1.378194e+01	5.295679e+01
2.290000e-06	2.032110e-06	7.994027e-10	1.408542e+01	5.446885e+01
2.300000e-06	2.075837e-06	8.189632e-10	1.438851e+01	5.594350e+01
2.310000e-06	2.119503e-06	8.377484e-10	1.469118e+01	5.738107e+01
2.320000e-06	2.163150e-06	8.565824e-10	1.499371e+01	5.878199e+01
2.330000e-06	2.206758e-06	8.734598e-10	1.529598e+01	6.014674e+01
2.340000e-06	2.250237e-06	8.904019e-10	1.559735e+01	6.147592e+01
2.350000e-06	2.293542e-06	9.105984e-10	1.589752e+01	6.277015e+01
2.360000e-06	2.336733e-06	9.316835e-10	1.619689e+01	6.403009e+01
2.370000e-06	2.379770e-06	9.518423e-10	1.649520e+01	6.525644e+01
2.380000e-06	2.422622e-06	9.695363e-10	1.679223e+01	6.644990e+01
2.390000e-06	2.465178e-06	9.847185e-10	1.708720e+01	6.761121e+01
2.400000e-06	2.507381e-06	9.980418e-10	1.737973e+01	6.874108e+01
2.410000e-06	2.549269e-06	1.010507e-09	1.767007e+01	6.984022e+01
2.420000e-06	2.590776e-06	1.025147e-09	1.795777e+01	7.090930e+01
2.430000e-06	2.631918e-06	1.040261e-09	1.824295e+01	7.194900e+01
2.440000e-06	2.672666e-06	1.052364e-09	1.852538e+01	7.295996e+01
2.450000e-06	2.713154e-06	1.063659e-09	1.880602e+01	7.394277e+01
2.460000e-06	2.753437e-06	1.075668e-09	1.908524e+01	7.489800e+01
2.470000e-06	2.793498e-06	1.088120e-09	1.936292e+01	7.582620e+01
2.480000e-06	2.833392e-06	1.098900e-09	1.963945e+01	7.672786e+01
2.490000e-06	2.873155e-06	1.109054e-09	1.991506e+01	7.760346e+01
2.500000e-06	2.912880e-06	1.119775e-09	2.019041e+01	7.845343e+01
2.510000e-06	2.952493e-06	1.128406e-09	2.046499e+01	7.927819e+01
2.520000e-06	2.991943e-06	1.137605e-09	2.073843e+01	8.007812e+01
2.530000e-06	3.031268e-06	1.147591e-09	2.101101e+01	8.085360e+01
2.540000e-06	3.070380e-06	1.156991e-09	2.128211e+01	8.160499e+01
2.550000e-06	3.109243e-06	1.166746e-09	2.155149e+01	8.233264e+01
2.560000e-06	3.147861e-06	1.177479e-09	2.181917e+01	8.303689e+01
2.570000e-06	3.186156e-06	1.187479e-09	2.208460e+01	8.371811e+01
2.580000e-06	3.224214e-06	1.195527e-09	2.234840e+01	8.437665e+01
2.590000e-06	3.262105e-06	1.202708e-09	2.261104e+01	8.501288e+01
2.600000e-06	3.299810e-06	1.209746e-09	2.287239e+01	8.562722e+01
2.610000e-06	3.337351e-06	1.218228e-09	2.313260e+01	8.622007e+01
2.620000e-06	3.374726e-06	1.228692e-09	2.339166e+01	8.679189e+01
2.630000e-06	3.411876e-06	1.238066e-09	2.364917e+01	8.734315e+01
2.640000e-06	3.448708e-06	1.245900e-09	2.390446e+01	8.787437e+01
2.650000e-06	3.485251e-06	1.252767e-09	2.415776e+01	8.838609e+01
2.660000e-06	3.521525e-06	1.258101e-09	2.440919e+01	8.887890e+01
2.670000e-06	3.557593e-06	1.263825e-09	2.465919e+01	8.935342e+01
2.680000e-06	3.593534e-06	1.270506e-09	2.490832e+01	8.981029e+01
2.690000e-06	3.629296e-06	1.278252e-09	2.515620e+01	9.025020e+01
2.700000e-06	3.664915e-06	1.286473e-09	2.540308e+01	9.067388e+01
2.710000e-06	3.700449e-06	1.294620e-09	2.564939e+01	9.108205e+01
2.720000e-06	3.735820e-06	1.302211e-09	2.589456e+01	9.147550e+01
2.730000e-06	3.770907e-06	1.307808e-09	2.613776e+01	9.185499e+01
2.740000e-06	3.805660e-06	1.311817e-09	2.637865e+01	9.222132e+01
2.750000e-06	3.839973e-06	1.316060e-09	2.661649e+01	9.257530e+01
2.760000e-06	3.873746e-06	1.320115e-09	2.685058e+01	9.291772e+01
2.770000e-06	3.907077e-06	1.326278e-09	2.708162e+01	9.324938e+01
2.780000e-06	3.939975e-06	1.335507e-09	2.730965e+01	9.357106e+01
2.790000e-06	3.972433e-06	1.344460e-09	2.753462e+01	9.388352e+01
2.800000e-06	4.004581e-06	1.354221e-09	2.775746e+01	9.418750e+01
2.810000e-06	4.036479e-06	1.359246e-09	2.797855e+01	9.448369e+01
2.820000e-06	4.068232e-06	1.359412e-09	2.819865e+01	9.477277e+01
2.830000e-06	4.099841e-06	1.360058e-09	2.841774e+01	9.505534e+01
2.840000e-06	4.131199e-06	1.364612e-09	2.863510e+01	9.533200e+01
2.850000e-06	4.162341e-06	1.371896e-09	2.885096e+01	9.560324e+01
2.860000e-06	4.193253e-06	1.375517e-09	2.906522e+01	9.586954e+01
2.870000e-06	4.223803e-06	1.380519e-09	2.927698e+01	9.613129e+01
2.880000e-06	4.254058e-06	1.388493e-09	2.948669e+01	9.638884e+01
2.890000e-06	4.284033e-06	1.393626e-09	2.969446e+01	9.664247e+01
2.900000e-06	4.313714e-06	1.396134e-09	2.990019e+01	9.689239e+01
