# Temperatura_=_-11.74
# Concentracion g/m^3_=_1620.0
# C_Vs_to_Am_M_A/Vsm_=_65563218390.804596
# pendiente_HvsI_1/m_=_3716.3
# ordenada_HvsI_A/m_=_1297.0
# frecuencia_Hz_=_135105.33314750035

Tiempo_(s)	Campo_(V.s)	Magnetizacion_(V.s)	Campo_(kA/m)	Magnetizacion_(A/m)
0.000000e+00	-5.510143e-06	-1.075164e-09	-3.836627e+01	-7.064878e+01
1.000000e-08	-5.510521e-06	-1.073423e-09	-3.836891e+01	-7.060561e+01
2.000000e-08	-5.510586e-06	-1.070351e-09	-3.836936e+01	-7.056840e+01
3.000000e-08	-5.510282e-06	-1.069150e-09	-3.836724e+01	-7.053714e+01
4.000000e-08	-5.509590e-06	-1.069806e-09	-3.836242e+01	-7.051170e+01
5.000000e-08	-5.508384e-06	-1.069312e-09	-3.835403e+01	-7.049183e+01
6.000000e-08	-5.506526e-06	-1.065223e-09	-3.834109e+01	-7.047714e+01
7.000000e-08	-5.504114e-06	-1.068500e-09	-3.832429e+01	-7.046717e+01
8.000000e-08	-5.501235e-06	-1.085001e-09	-3.830425e+01	-7.046131e+01
9.000000e-08	-5.497848e-06	-1.078182e-09	-3.828067e+01	-7.045889e+01
1.000000e-07	-5.493955e-06	-1.041930e-09	-3.825356e+01	-7.045915e+01
1.100000e-07	-5.489714e-06	-1.065404e-09	-3.822403e+01	-7.046125e+01
1.200000e-07	-5.485185e-06	-1.096694e-09	-3.819250e+01	-7.046431e+01
1.300000e-07	-5.480362e-06	-1.071382e-09	-3.815892e+01	-7.046741e+01
1.400000e-07	-5.475328e-06	-1.010647e-09	-3.812386e+01	-7.046960e+01
1.500000e-07	-5.470014e-06	-1.042598e-09	-3.808686e+01	-7.046996e+01
1.600000e-07	-5.464294e-06	-1.108234e-09	-3.804703e+01	-7.046757e+01
1.700000e-07	-5.458112e-06	-1.088669e-09	-3.800399e+01	-7.046154e+01
1.800000e-07	-5.451539e-06	-1.040773e-09	-3.795823e+01	-7.045106e+01
1.900000e-07	-5.444631e-06	-1.053726e-09	-3.791012e+01	-7.043535e+01
2.000000e-07	-5.437369e-06	-1.097391e-09	-3.785956e+01	-7.041376e+01
2.100000e-07	-5.429759e-06	-1.074759e-09	-3.780657e+01	-7.038572e+01
2.200000e-07	-5.421850e-06	-1.051293e-09	-3.775151e+01	-7.035075e+01
2.300000e-07	-5.413673e-06	-1.059744e-09	-3.769457e+01	-7.030853e+01
2.400000e-07	-5.405164e-06	-1.098026e-09	-3.763532e+01	-7.025882e+01
2.500000e-07	-5.396160e-06	-1.077577e-09	-3.757263e+01	-7.020154e+01
2.600000e-07	-5.386553e-06	-1.055765e-09	-3.750573e+01	-7.013672e+01
2.700000e-07	-5.376341e-06	-1.045699e-09	-3.743464e+01	-7.006453e+01
2.800000e-07	-5.365557e-06	-1.064008e-09	-3.735955e+01	-6.998526e+01
2.900000e-07	-5.354302e-06	-1.049109e-09	-3.728118e+01	-6.989932e+01
3.000000e-07	-5.342640e-06	-1.032886e-09	-3.719998e+01	-6.980721e+01
3.100000e-07	-5.330549e-06	-1.028946e-09	-3.711579e+01	-6.970955e+01
3.200000e-07	-5.318069e-06	-1.047298e-09	-3.702890e+01	-6.960703e+01
3.300000e-07	-5.305174e-06	-1.051791e-09	-3.693911e+01	-6.950041e+01
3.400000e-07	-5.291837e-06	-1.028819e-09	-3.684624e+01	-6.939051e+01
3.500000e-07	-5.278052e-06	-1.024966e-09	-3.675026e+01	-6.927817e+01
3.600000e-07	-5.263885e-06	-1.043788e-09	-3.665162e+01	-6.916427e+01
3.700000e-07	-5.249283e-06	-1.036917e-09	-3.654995e+01	-6.904968e+01
3.800000e-07	-5.234106e-06	-1.006929e-09	-3.644427e+01	-6.893526e+01
3.900000e-07	-5.218531e-06	-1.032138e-09	-3.633583e+01	-6.882184e+01
4.000000e-07	-5.202470e-06	-1.049819e-09	-3.622399e+01	-6.871019e+01
4.100000e-07	-5.185903e-06	-1.011657e-09	-3.610864e+01	-6.860104e+01
4.200000e-07	-5.168988e-06	-1.008488e-09	-3.599087e+01	-6.849503e+01
4.300000e-07	-5.151812e-06	-1.064838e-09	-3.587127e+01	-6.839274e+01
4.400000e-07	-5.134360e-06	-1.032337e-09	-3.574976e+01	-6.829463e+01
4.500000e-07	-5.116487e-06	-9.825231e-10	-3.562531e+01	-6.820108e+01
4.600000e-07	-5.098175e-06	-1.024593e-09	-3.549781e+01	-6.811238e+01
4.700000e-07	-5.079496e-06	-1.055456e-09	-3.536775e+01	-6.802868e+01
4.800000e-07	-5.060471e-06	-9.870075e-10	-3.523528e+01	-6.795005e+01
4.900000e-07	-5.041081e-06	-9.998347e-10	-3.510027e+01	-6.787648e+01
5.000000e-07	-5.021470e-06	-1.055875e-09	-3.496372e+01	-6.780783e+01
5.100000e-07	-5.001685e-06	-1.016721e-09	-3.482596e+01	-6.774390e+01
5.200000e-07	-4.981610e-06	-9.790346e-10	-3.468618e+01	-6.768438e+01
5.300000e-07	-4.961177e-06	-1.041039e-09	-3.454391e+01	-6.762892e+01
5.400000e-07	-4.940409e-06	-1.031345e-09	-3.439930e+01	-6.757710e+01
5.500000e-07	-4.919287e-06	-9.768936e-10	-3.425224e+01	-6.752846e+01
5.600000e-07	-4.897814e-06	-1.016167e-09	-3.410272e+01	-6.748250e+01
5.700000e-07	-4.876015e-06	-1.048844e-09	-3.395094e+01	-6.743871e+01
5.800000e-07	-4.853845e-06	-9.876458e-10	-3.379657e+01	-6.739656e+01
5.900000e-07	-4.831329e-06	-9.887411e-10	-3.363980e+01	-6.735553e+01
6.000000e-07	-4.808524e-06	-1.034824e-09	-3.348101e+01	-6.731513e+01
6.100000e-07	-4.785399e-06	-9.997056e-10	-3.332000e+01	-6.727489e+01
6.200000e-07	-4.761966e-06	-9.692581e-10	-3.315683e+01	-6.723437e+01
6.300000e-07	-4.738321e-06	-1.011480e-09	-3.299220e+01	-6.719319e+01
6.400000e-07	-4.714457e-06	-1.011918e-09	-3.282604e+01	-6.715101e+01
6.500000e-07	-4.690232e-06	-9.749441e-10	-3.265736e+01	-6.710755e+01
6.600000e-07	-4.665545e-06	-9.955252e-10	-3.248547e+01	-6.706261e+01
6.700000e-07	-4.640473e-06	-1.012380e-09	-3.231090e+01	-6.701603e+01
6.800000e-07	-4.614933e-06	-9.864499e-10	-3.213306e+01	-6.696771e+01
6.900000e-07	-4.588911e-06	-9.866408e-10	-3.195188e+01	-6.691762e+01
7.000000e-07	-4.562526e-06	-1.009740e-09	-3.176816e+01	-6.686579e+01
7.100000e-07	-4.535676e-06	-9.900228e-10	-3.158121e+01	-6.681229e+01
7.200000e-07	-4.508409e-06	-9.751480e-10	-3.139136e+01	-6.675722e+01
7.300000e-07	-4.480848e-06	-9.901882e-10	-3.119945e+01	-6.670074e+01
7.400000e-07	-4.453075e-06	-9.937209e-10	-3.100607e+01	-6.664302e+01
7.500000e-07	-4.425158e-06	-9.814810e-10	-3.081169e+01	-6.658425e+01
7.600000e-07	-4.397049e-06	-9.935820e-10	-3.061597e+01	-6.652464e+01
7.700000e-07	-4.368597e-06	-9.971035e-10	-3.041786e+01	-6.646437e+01
7.800000e-07	-4.339802e-06	-9.840175e-10	-3.021737e+01	-6.640363e+01
7.900000e-07	-4.310749e-06	-9.781757e-10	-3.001508e+01	-6.634259e+01
8.000000e-07	-4.281379e-06	-9.806489e-10	-2.981058e+01	-6.628137e+01
8.100000e-07	-4.251640e-06	-9.700848e-10	-2.960351e+01	-6.622009e+01
8.200000e-07	-4.221614e-06	-9.703863e-10	-2.939445e+01	-6.615879e+01
8.300000e-07	-4.191294e-06	-9.782975e-10	-2.918333e+01	-6.609749e+01
8.400000e-07	-4.160666e-06	-9.772595e-10	-2.897007e+01	-6.603615e+01
8.500000e-07	-4.129744e-06	-9.748320e-10	-2.875477e+01	-6.597468e+01
8.600000e-07	-4.098591e-06	-9.833173e-10	-2.853786e+01	-6.591294e+01
8.700000e-07	-4.067275e-06	-9.773326e-10	-2.831981e+01	-6.585075e+01
8.800000e-07	-4.035735e-06	-9.645122e-10	-2.810020e+01	-6.578787e+01
8.900000e-07	-4.004002e-06	-9.639353e-10	-2.787925e+01	-6.572402e+01
9.000000e-07	-3.972048e-06	-9.624739e-10	-2.765676e+01	-6.565890e+01
9.100000e-07	-3.939864e-06	-9.564525e-10	-2.743267e+01	-6.559216e+01
9.200000e-07	-3.907434e-06	-9.597383e-10	-2.720686e+01	-6.552344e+01
9.300000e-07	-3.874605e-06	-9.655565e-10	-2.697828e+01	-6.545238e+01
9.400000e-07	-3.841362e-06	-9.619771e-10	-2.674681e+01	-6.537860e+01
9.500000e-07	-3.807716e-06	-9.622914e-10	-2.651254e+01	-6.530172e+01
9.600000e-07	-3.773569e-06	-9.646937e-10	-2.627478e+01	-6.522140e+01
9.700000e-07	-3.738958e-06	-9.551024e-10	-2.603379e+01	-6.513730e+01
9.800000e-07	-3.704027e-06	-9.446076e-10	-2.579057e+01	-6.504913e+01
9.900000e-07	-3.668829e-06	-9.476171e-10	-2.554549e+01	-6.495665e+01
1.000000e-06	-3.633375e-06	-9.471136e-10	-2.529863e+01	-6.485963e+01
1.010000e-06	-3.597725e-06	-9.436741e-10	-2.505041e+01	-6.475793e+01
1.020000e-06	-3.561947e-06	-9.490435e-10	-2.480129e+01	-6.465144e+01
1.030000e-06	-3.526011e-06	-9.544714e-10	-2.455107e+01	-6.454014e+01
1.040000e-06	-3.489894e-06	-9.476624e-10	-2.429959e+01	-6.442403e+01
1.050000e-06	-3.453570e-06	-9.434596e-10	-2.404667e+01	-6.430321e+01
1.060000e-06	-3.416960e-06	-9.389520e-10	-2.379177e+01	-6.417782e+01
1.070000e-06	-3.380077e-06	-9.313427e-10	-2.353495e+01	-6.404805e+01
1.080000e-06	-3.342956e-06	-9.260888e-10	-2.327649e+01	-6.391414e+01
1.090000e-06	-3.305558e-06	-9.285463e-10	-2.301609e+01	-6.377637e+01
1.100000e-06	-3.267901e-06	-9.298332e-10	-2.275389e+01	-6.363508e+01
1.110000e-06	-3.230018e-06	-9.279112e-10	-2.249012e+01	-6.349060e+01
1.120000e-06	-3.191924e-06	-9.255305e-10	-2.222487e+01	-6.334329e+01
1.130000e-06	-3.153615e-06	-9.194088e-10	-2.195813e+01	-6.319353e+01
1.140000e-06	-3.115056e-06	-9.090068e-10	-2.168965e+01	-6.304166e+01
1.150000e-06	-3.076277e-06	-9.052779e-10	-2.141964e+01	-6.288805e+01
1.160000e-06	-3.037366e-06	-9.065401e-10	-2.114871e+01	-6.273300e+01
1.170000e-06	-2.998361e-06	-9.060459e-10	-2.087712e+01	-6.257681e+01
1.180000e-06	-2.959156e-06	-9.052745e-10	-2.060415e+01	-6.241971e+01
1.190000e-06	-2.919729e-06	-9.087420e-10	-2.032962e+01	-6.226188e+01
1.200000e-06	-2.880171e-06	-9.069271e-10	-2.005418e+01	-6.210344e+01
1.210000e-06	-2.840515e-06	-9.008404e-10	-1.977807e+01	-6.194446e+01
1.220000e-06	-2.800761e-06	-8.970672e-10	-1.950127e+01	-6.178491e+01
1.230000e-06	-2.760833e-06	-8.936695e-10	-1.922325e+01	-6.162470e+01
1.240000e-06	-2.720689e-06	-8.901139e-10	-1.894374e+01	-6.146366e+01
1.250000e-06	-2.680344e-06	-8.878566e-10	-1.866282e+01	-6.130155e+01
1.260000e-06	-2.639780e-06	-8.877793e-10	-1.838038e+01	-6.113804e+01
1.270000e-06	-2.598957e-06	-8.854225e-10	-1.809614e+01	-6.097275e+01
1.280000e-06	-2.557822e-06	-8.809835e-10	-1.780972e+01	-6.080523e+01
1.290000e-06	-2.516392e-06	-8.753720e-10	-1.752125e+01	-6.063495e+01
1.300000e-06	-2.474711e-06	-8.705016e-10	-1.723103e+01	-6.046135e+01
1.310000e-06	-2.432775e-06	-8.659400e-10	-1.693904e+01	-6.028382e+01
1.320000e-06	-2.390557e-06	-8.642236e-10	-1.664508e+01	-6.010173e+01
1.330000e-06	-2.348040e-06	-8.635148e-10	-1.634904e+01	-5.991439e+01
1.340000e-06	-2.305256e-06	-8.594738e-10	-1.605114e+01	-5.972115e+01
1.350000e-06	-2.262198e-06	-8.551035e-10	-1.575133e+01	-5.952131e+01
1.360000e-06	-2.218925e-06	-8.559978e-10	-1.545004e+01	-5.931421e+01
1.370000e-06	-2.175522e-06	-8.550772e-10	-1.514783e+01	-5.909919e+01
1.380000e-06	-2.131981e-06	-8.506163e-10	-1.484466e+01	-5.887563e+01
1.390000e-06	-2.088332e-06	-8.446473e-10	-1.454073e+01	-5.864293e+01
1.400000e-06	-2.044574e-06	-8.369448e-10	-1.423605e+01	-5.840056e+01
1.410000e-06	-2.000758e-06	-8.285251e-10	-1.393097e+01	-5.814801e+01
1.420000e-06	-1.956900e-06	-8.237868e-10	-1.362560e+01	-5.788485e+01
1.430000e-06	-1.912943e-06	-8.208012e-10	-1.331953e+01	-5.761067e+01
1.440000e-06	-1.868952e-06	-8.188627e-10	-1.301323e+01	-5.732516e+01
1.450000e-06	-1.824855e-06	-8.156130e-10	-1.270619e+01	-5.702804e+01
1.460000e-06	-1.780625e-06	-8.107069e-10	-1.239822e+01	-5.671908e+01
1.470000e-06	-1.736313e-06	-8.035329e-10	-1.208968e+01	-5.639813e+01
1.480000e-06	-1.691822e-06	-7.948477e-10	-1.177990e+01	-5.606507e+01
1.490000e-06	-1.647222e-06	-7.865496e-10	-1.146935e+01	-5.571981e+01
1.500000e-06	-1.602567e-06	-7.776141e-10	-1.115842e+01	-5.536230e+01
1.510000e-06	-1.557759e-06	-7.696947e-10	-1.084644e+01	-5.499251e+01
1.520000e-06	-1.512785e-06	-7.638146e-10	-1.053329e+01	-5.461045e+01
1.530000e-06	-1.467623e-06	-7.582029e-10	-1.021883e+01	-5.421608e+01
1.540000e-06	-1.422330e-06	-7.508312e-10	-9.903466e+00	-5.380940e+01
1.550000e-06	-1.377051e-06	-7.420176e-10	-9.588195e+00	-5.339036e+01
1.560000e-06	-1.331706e-06	-7.327069e-10	-9.272460e+00	-5.295889e+01
1.570000e-06	-1.286207e-06	-7.241833e-10	-8.955658e+00	-5.251488e+01
1.580000e-06	-1.240611e-06	-7.169484e-10	-8.638181e+00	-5.205817e+01
1.590000e-06	-1.194930e-06	-7.088505e-10	-8.320115e+00	-5.158854e+01
1.600000e-06	-1.149160e-06	-6.993669e-10	-8.001421e+00	-5.110570e+01
1.610000e-06	-1.103349e-06	-6.908644e-10	-7.682449e+00	-5.060928e+01
1.620000e-06	-1.057362e-06	-6.837082e-10	-7.362247e+00	-5.009883e+01
1.630000e-06	-1.011233e-06	-6.779313e-10	-7.041057e+00	-4.957383e+01
1.640000e-06	-9.651443e-07	-6.735566e-10	-6.720151e+00	-4.903365e+01
1.650000e-06	-9.190763e-07	-6.672513e-10	-6.399387e+00	-4.847759e+01
1.660000e-06	-8.729669e-07	-6.558509e-10	-6.078333e+00	-4.790486e+01
1.670000e-06	-8.267648e-07	-6.418192e-10	-5.756636e+00	-4.731459e+01
1.680000e-06	-7.805506e-07	-6.256965e-10	-5.434853e+00	-4.670582e+01
1.690000e-06	-7.343062e-07	-6.109628e-10	-5.112861e+00	-4.607754e+01
1.700000e-06	-6.880158e-07	-5.988520e-10	-4.790548e+00	-4.542864e+01
1.710000e-06	-6.417306e-07	-5.895915e-10	-4.468271e+00	-4.475800e+01
1.720000e-06	-5.953740e-07	-5.840501e-10	-4.145497e+00	-4.406443e+01
1.730000e-06	-5.488989e-07	-5.773477e-10	-3.821898e+00	-4.334669e+01
1.740000e-06	-5.022893e-07	-5.655431e-10	-3.497363e+00	-4.260357e+01
1.750000e-06	-4.556580e-07	-5.511051e-10	-3.172676e+00	-4.183381e+01
1.760000e-06	-4.090028e-07	-5.343438e-10	-2.847824e+00	-4.103617e+01
1.770000e-06	-3.622267e-07	-5.188390e-10	-2.522129e+00	-4.020944e+01
1.780000e-06	-3.154653e-07	-5.072148e-10	-2.196536e+00	-3.935244e+01
1.790000e-06	-2.687307e-07	-4.965831e-10	-1.871130e+00	-3.846404e+01
1.800000e-06	-2.219675e-07	-4.841964e-10	-1.545525e+00	-3.754317e+01
1.810000e-06	-1.752729e-07	-4.715709e-10	-1.220398e+00	-3.658884e+01
1.820000e-06	-1.286356e-07	-4.590503e-10	-8.956700e-01	-3.560016e+01
1.830000e-06	-8.193551e-08	-4.448209e-10	-5.705043e-01	-3.457633e+01
1.840000e-06	-3.516064e-08	-4.293074e-10	-2.448181e-01	-3.351666e+01
1.850000e-06	1.166997e-08	-4.139846e-10	8.125623e-02	-3.242060e+01
1.860000e-06	5.845722e-08	-3.992073e-10	4.070286e-01	-3.128771e+01
1.870000e-06	1.051651e-07	-3.847169e-10	7.322483e-01	-3.011771e+01
1.880000e-06	1.518731e-07	-3.700323e-10	1.057469e+00	-2.891045e+01
1.890000e-06	1.986017e-07	-3.522265e-10	1.382833e+00	-2.766595e+01
1.900000e-06	2.454221e-07	-3.316117e-10	1.708836e+00	-2.638435e+01
1.910000e-06	2.922545e-07	-3.116719e-10	2.034923e+00	-2.506599e+01
1.920000e-06	3.390017e-07	-2.926715e-10	2.360416e+00	-2.371134e+01
1.930000e-06	3.856881e-07	-2.723480e-10	2.685487e+00	-2.232104e+01
1.940000e-06	4.323382e-07	-2.525835e-10	3.010304e+00	-2.089590e+01
1.950000e-06	4.789020e-07	-2.340999e-10	3.334520e+00	-1.943686e+01
1.960000e-06	5.253493e-07	-2.149777e-10	3.657926e+00	-1.794503e+01
1.970000e-06	5.717701e-07	-1.946030e-10	3.981147e+00	-1.642169e+01
1.980000e-06	6.181826e-07	-1.746467e-10	4.304310e+00	-1.486822e+01
1.990000e-06	6.645515e-07	-1.541343e-10	4.627169e+00	-1.328618e+01
2.000000e-06	7.108021e-07	-1.298337e-10	4.949206e+00	-1.167724e+01
2.010000e-06	7.569942e-07	-1.041922e-10	5.270834e+00	-1.004321e+01
2.020000e-06	8.032197e-07	-8.142297e-11	5.592695e+00	-8.386018e+00
2.030000e-06	8.494408e-07	-6.016040e-11	5.914525e+00	-6.707691e+00
2.040000e-06	8.955991e-07	-3.930127e-11	6.235918e+00	-5.010367e+00
2.050000e-06	9.416539e-07	-1.804048e-11	6.556591e+00	-3.296273e+00
2.060000e-06	9.876133e-07	4.555244e-12	6.876599e+00	-1.567720e+00
2.070000e-06	1.033546e-06	2.859109e-11	7.196424e+00	1.729112e-01
2.080000e-06	1.079394e-06	5.421706e-11	7.515652e+00	1.923179e+00
2.090000e-06	1.125155e-06	7.978680e-11	7.834278e+00	3.680591e+00
2.100000e-06	1.170896e-06	1.046360e-10	8.152771e+00	5.442620e+00
2.110000e-06	1.216541e-06	1.294764e-10	8.470589e+00	7.206712e+00
2.120000e-06	1.262098e-06	1.546495e-10	8.787792e+00	8.970299e+00
2.130000e-06	1.307537e-06	1.799078e-10	9.104179e+00	1.073082e+01
2.140000e-06	1.352870e-06	2.028472e-10	9.419828e+00	1.248571e+01
2.150000e-06	1.398152e-06	2.238092e-10	9.735120e+00	1.423244e+01
2.160000e-06	1.443332e-06	2.452217e-10	1.004970e+01	1.596854e+01
2.170000e-06	1.488366e-06	2.674331e-10	1.036326e+01	1.769155e+01
2.180000e-06	1.533200e-06	2.917438e-10	1.067543e+01	1.939912e+01
2.190000e-06	1.577916e-06	3.181712e-10	1.098678e+01	2.108894e+01
2.200000e-06	1.622499e-06	3.451435e-10	1.129721e+01	2.275882e+01
2.210000e-06	1.666919e-06	3.709303e-10	1.160650e+01	2.440665e+01
2.220000e-06	1.711282e-06	3.929006e-10	1.191539e+01	2.603045e+01
2.230000e-06	1.755533e-06	4.121086e-10	1.222350e+01	2.762837e+01
2.240000e-06	1.799637e-06	4.296838e-10	1.253059e+01	2.919868e+01
2.250000e-06	1.843692e-06	4.474558e-10	1.283734e+01	3.073979e+01
2.260000e-06	1.887699e-06	4.671599e-10	1.314375e+01	3.225028e+01
2.270000e-06	1.931624e-06	4.879716e-10	1.344960e+01	3.372887e+01
2.280000e-06	1.975416e-06	5.091354e-10	1.375452e+01	3.517446e+01
2.290000e-06	2.019089e-06	5.301227e-10	1.405861e+01	3.658611e+01
2.300000e-06	2.062734e-06	5.481740e-10	1.436250e+01	3.796303e+01
2.310000e-06	2.106308e-06	5.637549e-10	1.466590e+01	3.930463e+01
2.320000e-06	2.149818e-06	5.802338e-10	1.496885e+01	4.061046e+01
2.330000e-06	2.193280e-06	5.959033e-10	1.527147e+01	4.188024e+01
2.340000e-06	2.236656e-06	6.117160e-10	1.557349e+01	4.311386e+01
2.350000e-06	2.279891e-06	6.288634e-10	1.587453e+01	4.431134e+01
2.360000e-06	2.322929e-06	6.458708e-10	1.617419e+01	4.547287e+01
2.370000e-06	2.365692e-06	6.615929e-10	1.647195e+01	4.659874e+01
2.380000e-06	2.408167e-06	6.759447e-10	1.676770e+01	4.768941e+01
2.390000e-06	2.450343e-06	6.897865e-10	1.706136e+01	4.874539e+01
2.400000e-06	2.492257e-06	7.047125e-10	1.735320e+01	4.976735e+01
2.410000e-06	2.533970e-06	7.204523e-10	1.764364e+01	5.075599e+01
2.420000e-06	2.575219e-06	7.359022e-10	1.793085e+01	5.171212e+01
2.430000e-06	2.616029e-06	7.490476e-10	1.821501e+01	5.263657e+01
2.440000e-06	2.656655e-06	7.598211e-10	1.849788e+01	5.353024e+01
2.450000e-06	2.697052e-06	7.692401e-10	1.877916e+01	5.439402e+01
2.460000e-06	2.737249e-06	7.790298e-10	1.905904e+01	5.522885e+01
2.470000e-06	2.777326e-06	7.896539e-10	1.933809e+01	5.603563e+01
2.480000e-06	2.817253e-06	8.003966e-10	1.961610e+01	5.681526e+01
2.490000e-06	2.857043e-06	8.122552e-10	1.989315e+01	5.756862e+01
2.500000e-06	2.896744e-06	8.246272e-10	2.016958e+01	5.829653e+01
2.510000e-06	2.936353e-06	8.339883e-10	2.044537e+01	5.899979e+01
2.520000e-06	2.975757e-06	8.412088e-10	2.071974e+01	5.967912e+01
2.530000e-06	3.014936e-06	8.482521e-10	2.099253e+01	6.033521e+01
2.540000e-06	3.053937e-06	8.545118e-10	2.126409e+01	6.096865e+01
2.550000e-06	3.092687e-06	8.631220e-10	2.153390e+01	6.158000e+01
2.560000e-06	3.131157e-06	8.721020e-10	2.180176e+01	6.216975e+01
2.570000e-06	3.169411e-06	8.790956e-10	2.206812e+01	6.273831e+01
2.580000e-06	3.207499e-06	8.868543e-10	2.233332e+01	6.328606e+01
2.590000e-06	3.245367e-06	8.953598e-10	2.259699e+01	6.381330e+01
2.600000e-06	3.283010e-06	9.025305e-10	2.285909e+01	6.432031e+01
2.610000e-06	3.320492e-06	9.087359e-10	2.312007e+01	6.480732e+01
2.620000e-06	3.357746e-06	9.158416e-10	2.337947e+01	6.527454e+01
2.630000e-06	3.394663e-06	9.226869e-10	2.363652e+01	6.572216e+01
2.640000e-06	3.431324e-06	9.290003e-10	2.389178e+01	6.615035e+01
2.650000e-06	3.467810e-06	9.355407e-10	2.414582e+01	6.655929e+01
2.660000e-06	3.504029e-06	9.409418e-10	2.439801e+01	6.694920e+01
2.670000e-06	3.540067e-06	9.445473e-10	2.464894e+01	6.732028e+01
2.680000e-06	3.575977e-06	9.487119e-10	2.489898e+01	6.767279e+01
2.690000e-06	3.611704e-06	9.545658e-10	2.514774e+01	6.800703e+01
2.700000e-06	3.647270e-06	9.603816e-10	2.539538e+01	6.832335e+01
2.710000e-06	3.682615e-06	9.668397e-10	2.564148e+01	6.862213e+01
2.720000e-06	3.717745e-06	9.733513e-10	2.588608e+01	6.890385e+01
2.730000e-06	3.752613e-06	9.787339e-10	2.612887e+01	6.916903e+01
2.740000e-06	3.787102e-06	9.827357e-10	2.636901e+01	6.941825e+01
2.750000e-06	3.821259e-06	9.869813e-10	2.660684e+01	6.965216e+01
2.760000e-06	3.855061e-06	9.896844e-10	2.684219e+01	6.987147e+01
2.770000e-06	3.888228e-06	9.916060e-10	2.707313e+01	7.007694e+01
2.780000e-06	3.920834e-06	9.942116e-10	2.730016e+01	7.026940e+01
2.790000e-06	3.953174e-06	9.980708e-10	2.752534e+01	7.044971e+01
2.800000e-06	3.985259e-06	1.003712e-09	2.774874e+01	7.061874e+01
2.810000e-06	4.017092e-06	1.008999e-09	2.797039e+01	7.077743e+01
2.820000e-06	4.048719e-06	1.011794e-09	2.819060e+01	7.092669e+01
2.830000e-06	4.080248e-06	1.013545e-09	2.841014e+01	7.106746e+01
2.840000e-06	4.111675e-06	1.016224e-09	2.862896e+01	7.120064e+01
2.850000e-06	4.142784e-06	1.016470e-09	2.884557e+01	7.132713e+01
2.860000e-06	4.173451e-06	1.013761e-09	2.905909e+01	7.144779e+01
2.870000e-06	4.203762e-06	1.013561e-09	2.927014e+01	7.156340e+01
2.880000e-06	4.233903e-06	1.018120e-09	2.948001e+01	7.167472e+01
2.890000e-06	4.263859e-06	1.023510e-09	2.968859e+01	7.178242e+01
2.900000e-06	4.293486e-06	1.028109e-09	2.989488e+01	7.188708e+01
