# Temperatura_=_8.4
# Concentracion g/m^3_=_1620.0
# C_Vs_to_Am_M_A/Vsm_=_65563218390.804596
# pendiente_HvsI_1/m_=_3716.3
# ordenada_HvsI_A/m_=_1297.0
# frecuencia_Hz_=_135098.71087729637

Tiempo_(s)	Campo_(V.s)	Magnetizacion_(V.s)	Campo_(kA/m)	Magnetizacion_(A/m)
0.000000e+00	-5.530646e-06	-1.574030e-09	-3.836887e+01	-1.018958e+02
1.000000e-08	-5.530817e-06	-1.567418e-09	-3.837006e+01	-1.018451e+02
2.000000e-08	-5.530761e-06	-1.564132e-09	-3.836967e+01	-1.017980e+02
3.000000e-08	-5.530350e-06	-1.563774e-09	-3.836682e+01	-1.017546e+02
4.000000e-08	-5.529458e-06	-1.564656e-09	-3.836063e+01	-1.017149e+02
5.000000e-08	-5.527981e-06	-1.563007e-09	-3.835038e+01	-1.016786e+02
6.000000e-08	-5.525898e-06	-1.553752e-09	-3.833593e+01	-1.016457e+02
7.000000e-08	-5.523163e-06	-1.556599e-09	-3.831696e+01	-1.016158e+02
8.000000e-08	-5.519857e-06	-1.611334e-09	-3.829402e+01	-1.015885e+02
9.000000e-08	-5.516109e-06	-1.661224e-09	-3.826803e+01	-1.015634e+02
1.000000e-07	-5.511979e-06	-1.596745e-09	-3.823938e+01	-1.015399e+02
1.100000e-07	-5.507556e-06	-1.466444e-09	-3.820869e+01	-1.015176e+02
1.200000e-07	-5.502979e-06	-1.472946e-09	-3.817694e+01	-1.014957e+02
1.300000e-07	-5.498091e-06	-1.592666e-09	-3.814303e+01	-1.014735e+02
1.400000e-07	-5.492682e-06	-1.631503e-09	-3.810550e+01	-1.014505e+02
1.500000e-07	-5.486960e-06	-1.523286e-09	-3.806580e+01	-1.014258e+02
1.600000e-07	-5.481006e-06	-1.504321e-09	-3.802449e+01	-1.013988e+02
1.700000e-07	-5.474593e-06	-1.593220e-09	-3.798001e+01	-1.013687e+02
1.800000e-07	-5.467599e-06	-1.627638e-09	-3.793149e+01	-1.013348e+02
1.900000e-07	-5.460260e-06	-1.530916e-09	-3.788057e+01	-1.012965e+02
2.000000e-07	-5.452752e-06	-1.478737e-09	-3.782848e+01	-1.012530e+02
2.100000e-07	-5.445002e-06	-1.560325e-09	-3.777472e+01	-1.012038e+02
2.200000e-07	-5.436943e-06	-1.615289e-09	-3.771881e+01	-1.011484e+02
2.300000e-07	-5.428643e-06	-1.577877e-09	-3.766123e+01	-1.010863e+02
2.400000e-07	-5.419829e-06	-1.508548e-09	-3.760008e+01	-1.010169e+02
2.500000e-07	-5.410245e-06	-1.534407e-09	-3.753359e+01	-1.009401e+02
2.600000e-07	-5.400010e-06	-1.562487e-09	-3.746259e+01	-1.008555e+02
2.700000e-07	-5.389222e-06	-1.550168e-09	-3.738775e+01	-1.007630e+02
2.800000e-07	-5.377932e-06	-1.509615e-09	-3.730942e+01	-1.006624e+02
2.900000e-07	-5.366268e-06	-1.527089e-09	-3.722850e+01	-1.005537e+02
3.000000e-07	-5.354299e-06	-1.539788e-09	-3.714547e+01	-1.004369e+02
3.100000e-07	-5.341871e-06	-1.519474e-09	-3.705925e+01	-1.003122e+02
3.200000e-07	-5.328953e-06	-1.485131e-09	-3.696963e+01	-1.001798e+02
3.300000e-07	-5.315661e-06	-1.515095e-09	-3.687742e+01	-1.000399e+02
3.400000e-07	-5.302046e-06	-1.540082e-09	-3.678296e+01	-9.989290e+01
3.500000e-07	-5.288024e-06	-1.516485e-09	-3.668568e+01	-9.973908e+01
3.600000e-07	-5.273509e-06	-1.503570e-09	-3.658498e+01	-9.957890e+01
3.700000e-07	-5.258510e-06	-1.524445e-09	-3.648093e+01	-9.941281e+01
3.800000e-07	-5.242967e-06	-1.503083e-09	-3.637310e+01	-9.924130e+01
3.900000e-07	-5.226822e-06	-1.472873e-09	-3.626110e+01	-9.906487e+01
4.000000e-07	-5.210290e-06	-1.512807e-09	-3.614640e+01	-9.888403e+01
4.100000e-07	-5.193513e-06	-1.521392e-09	-3.603001e+01	-9.869931e+01
4.200000e-07	-5.176407e-06	-1.464912e-09	-3.591134e+01	-9.851121e+01
4.300000e-07	-5.159016e-06	-1.473651e-09	-3.579069e+01	-9.832024e+01
4.400000e-07	-5.141291e-06	-1.539015e-09	-3.566772e+01	-9.812689e+01
4.500000e-07	-5.123158e-06	-1.494115e-09	-3.554193e+01	-9.793160e+01
4.600000e-07	-5.104553e-06	-1.440571e-09	-3.541285e+01	-9.773481e+01
4.700000e-07	-5.085534e-06	-1.488126e-09	-3.528091e+01	-9.753691e+01
4.800000e-07	-5.066247e-06	-1.509551e-09	-3.514710e+01	-9.733824e+01
4.900000e-07	-5.046699e-06	-1.446406e-09	-3.501149e+01	-9.713910e+01
5.000000e-07	-5.026997e-06	-1.464952e-09	-3.487481e+01	-9.693977e+01
5.100000e-07	-5.007073e-06	-1.501225e-09	-3.473659e+01	-9.674045e+01
5.200000e-07	-4.986784e-06	-1.456837e-09	-3.459583e+01	-9.654132e+01
5.300000e-07	-4.966054e-06	-1.440727e-09	-3.445201e+01	-9.634248e+01
5.400000e-07	-4.944895e-06	-1.492613e-09	-3.430522e+01	-9.614403e+01
5.500000e-07	-4.923390e-06	-1.463222e-09	-3.415603e+01	-9.594599e+01
5.600000e-07	-4.901570e-06	-1.418328e-09	-3.400466e+01	-9.574835e+01
5.700000e-07	-4.879516e-06	-1.453635e-09	-3.385165e+01	-9.555107e+01
5.800000e-07	-4.857177e-06	-1.473133e-09	-3.369668e+01	-9.535406e+01
5.900000e-07	-4.834425e-06	-1.432001e-09	-3.353884e+01	-9.515722e+01
6.000000e-07	-4.811399e-06	-1.438826e-09	-3.337910e+01	-9.496041e+01
6.100000e-07	-4.788024e-06	-1.455289e-09	-3.321693e+01	-9.476346e+01
6.200000e-07	-4.764308e-06	-1.423218e-09	-3.305240e+01	-9.456619e+01
6.300000e-07	-4.740436e-06	-1.407481e-09	-3.288679e+01	-9.436841e+01
6.400000e-07	-4.716365e-06	-1.423379e-09	-3.271980e+01	-9.416993e+01
6.500000e-07	-4.691851e-06	-1.410464e-09	-3.254973e+01	-9.397051e+01
6.600000e-07	-4.666860e-06	-1.403852e-09	-3.237636e+01	-9.376996e+01
6.700000e-07	-4.641482e-06	-1.427451e-09	-3.220030e+01	-9.356805e+01
6.800000e-07	-4.615512e-06	-1.425260e-09	-3.202013e+01	-9.336457e+01
6.900000e-07	-4.588994e-06	-1.406329e-09	-3.183616e+01	-9.315932e+01
7.000000e-07	-4.562075e-06	-1.404379e-09	-3.164941e+01	-9.295208e+01
7.100000e-07	-4.534796e-06	-1.398799e-09	-3.146016e+01	-9.274268e+01
7.200000e-07	-4.507255e-06	-1.378329e-09	-3.126910e+01	-9.253092e+01
7.300000e-07	-4.479486e-06	-1.379191e-09	-3.107645e+01	-9.231662e+01
7.400000e-07	-4.451467e-06	-1.385770e-09	-3.088207e+01	-9.209964e+01
7.500000e-07	-4.423199e-06	-1.386219e-09	-3.068596e+01	-9.187980e+01
7.600000e-07	-4.394668e-06	-1.388890e-09	-3.048802e+01	-9.165698e+01
7.700000e-07	-4.365804e-06	-1.389575e-09	-3.028778e+01	-9.143103e+01
7.800000e-07	-4.336647e-06	-1.371077e-09	-3.008550e+01	-9.120185e+01
7.900000e-07	-4.307228e-06	-1.361246e-09	-2.988141e+01	-9.096930e+01
8.000000e-07	-4.277529e-06	-1.358385e-09	-2.967537e+01	-9.073329e+01
8.100000e-07	-4.247533e-06	-1.344583e-09	-2.946728e+01	-9.049372e+01
8.200000e-07	-4.217259e-06	-1.330509e-09	-2.925725e+01	-9.025050e+01
8.300000e-07	-4.186710e-06	-1.337356e-09	-2.904532e+01	-9.000355e+01
8.400000e-07	-4.155799e-06	-1.337881e-09	-2.883087e+01	-8.975279e+01
8.500000e-07	-4.124591e-06	-1.330796e-09	-2.861437e+01	-8.949814e+01
8.600000e-07	-4.093199e-06	-1.328649e-09	-2.839658e+01	-8.923953e+01
8.700000e-07	-4.061616e-06	-1.325553e-09	-2.817747e+01	-8.897691e+01
8.800000e-07	-4.029844e-06	-1.309658e-09	-2.795706e+01	-8.871021e+01
8.900000e-07	-3.997925e-06	-1.300992e-09	-2.773562e+01	-8.843938e+01
9.000000e-07	-3.965807e-06	-1.299759e-09	-2.751280e+01	-8.816438e+01
9.100000e-07	-3.933375e-06	-1.291316e-09	-2.728780e+01	-8.788515e+01
9.200000e-07	-3.900552e-06	-1.284066e-09	-2.706009e+01	-8.760166e+01
9.300000e-07	-3.867301e-06	-1.287712e-09	-2.682941e+01	-8.731388e+01
9.400000e-07	-3.833526e-06	-1.284852e-09	-2.659510e+01	-8.702179e+01
9.500000e-07	-3.799190e-06	-1.272060e-09	-2.635689e+01	-8.672537e+01
9.600000e-07	-3.764370e-06	-1.267913e-09	-2.611533e+01	-8.642461e+01
9.700000e-07	-3.729266e-06	-1.265951e-09	-2.587179e+01	-8.611951e+01
9.800000e-07	-3.693979e-06	-1.255782e-09	-2.562699e+01	-8.581008e+01
9.900000e-07	-3.658468e-06	-1.247140e-09	-2.538063e+01	-8.549635e+01
1.000000e-06	-3.622820e-06	-1.245813e-09	-2.513333e+01	-8.517832e+01
1.010000e-06	-3.587052e-06	-1.240942e-09	-2.488518e+01	-8.485604e+01
1.020000e-06	-3.551141e-06	-1.235486e-09	-2.463605e+01	-8.452956e+01
1.030000e-06	-3.515033e-06	-1.234462e-09	-2.438555e+01	-8.419891e+01
1.040000e-06	-3.478736e-06	-1.231815e-09	-2.413374e+01	-8.386417e+01
1.050000e-06	-3.442153e-06	-1.221981e-09	-2.387995e+01	-8.352538e+01
1.060000e-06	-3.405169e-06	-1.216994e-09	-2.362337e+01	-8.318261e+01
1.070000e-06	-3.368006e-06	-1.213793e-09	-2.336555e+01	-8.283593e+01
1.080000e-06	-3.330627e-06	-1.207460e-09	-2.310623e+01	-8.248541e+01
1.090000e-06	-3.292942e-06	-1.200447e-09	-2.284479e+01	-8.213110e+01
1.100000e-06	-3.255103e-06	-1.197888e-09	-2.258229e+01	-8.177306e+01
1.110000e-06	-3.217095e-06	-1.188723e-09	-2.231861e+01	-8.141135e+01
1.120000e-06	-3.178854e-06	-1.176012e-09	-2.205331e+01	-8.104601e+01
1.130000e-06	-3.140341e-06	-1.166420e-09	-2.178612e+01	-8.067706e+01
1.140000e-06	-3.101587e-06	-1.159861e-09	-2.151727e+01	-8.030453e+01
1.150000e-06	-3.062607e-06	-1.151593e-09	-2.124685e+01	-7.992840e+01
1.160000e-06	-3.023413e-06	-1.147756e-09	-2.097494e+01	-7.954867e+01
1.170000e-06	-2.984103e-06	-1.146732e-09	-2.070222e+01	-7.916529e+01
1.180000e-06	-2.944646e-06	-1.144483e-09	-2.042849e+01	-7.877821e+01
1.190000e-06	-2.905039e-06	-1.139344e-09	-2.015372e+01	-7.838732e+01
1.200000e-06	-2.865289e-06	-1.131741e-09	-1.987795e+01	-7.799253e+01
1.210000e-06	-2.825370e-06	-1.122943e-09	-1.960101e+01	-7.759369e+01
1.220000e-06	-2.785332e-06	-1.115266e-09	-1.932325e+01	-7.719065e+01
1.230000e-06	-2.745141e-06	-1.111065e-09	-1.904442e+01	-7.678321e+01
1.240000e-06	-2.704762e-06	-1.107361e-09	-1.876430e+01	-7.637116e+01
1.250000e-06	-2.664174e-06	-1.103751e-09	-1.848272e+01	-7.595426e+01
1.260000e-06	-2.623363e-06	-1.099337e-09	-1.819959e+01	-7.553225e+01
1.270000e-06	-2.582256e-06	-1.094280e-09	-1.791441e+01	-7.510483e+01
1.280000e-06	-2.540858e-06	-1.085878e-09	-1.762721e+01	-7.467171e+01
1.290000e-06	-2.499205e-06	-1.072960e-09	-1.733824e+01	-7.423256e+01
1.300000e-06	-2.457201e-06	-1.062464e-09	-1.704684e+01	-7.378702e+01
1.310000e-06	-2.414983e-06	-1.054339e-09	-1.675396e+01	-7.333475e+01
1.320000e-06	-2.372465e-06	-1.043868e-09	-1.645898e+01	-7.287538e+01
1.330000e-06	-2.329520e-06	-1.035366e-09	-1.616105e+01	-7.240852e+01
1.340000e-06	-2.286361e-06	-1.027426e-09	-1.586164e+01	-7.193379e+01
1.350000e-06	-2.243039e-06	-1.024414e-09	-1.556109e+01	-7.145079e+01
1.360000e-06	-2.199520e-06	-1.022621e-09	-1.525918e+01	-7.095914e+01
1.370000e-06	-2.155856e-06	-1.018856e-09	-1.495626e+01	-7.045844e+01
1.380000e-06	-2.112098e-06	-1.009439e-09	-1.465269e+01	-6.994830e+01
1.390000e-06	-2.068322e-06	-9.952396e-10	-1.434899e+01	-6.942833e+01
1.400000e-06	-2.024478e-06	-9.810824e-10	-1.404482e+01	-6.889815e+01
1.410000e-06	-1.980539e-06	-9.678330e-10	-1.374000e+01	-6.835738e+01
1.420000e-06	-1.936576e-06	-9.565147e-10	-1.343500e+01	-6.780565e+01
1.430000e-06	-1.892536e-06	-9.491289e-10	-1.312947e+01	-6.724260e+01
1.440000e-06	-1.848356e-06	-9.429860e-10	-1.282298e+01	-6.666787e+01
1.450000e-06	-1.804099e-06	-9.356265e-10	-1.251594e+01	-6.608109e+01
1.460000e-06	-1.759770e-06	-9.258549e-10	-1.220841e+01	-6.548193e+01
1.470000e-06	-1.715270e-06	-9.145278e-10	-1.189969e+01	-6.487004e+01
1.480000e-06	-1.670541e-06	-9.004774e-10	-1.158938e+01	-6.424506e+01
1.490000e-06	-1.625674e-06	-8.841440e-10	-1.127812e+01	-6.360663e+01
1.500000e-06	-1.580742e-06	-8.687569e-10	-1.096641e+01	-6.295441e+01
1.510000e-06	-1.535679e-06	-8.585498e-10	-1.065378e+01	-6.228803e+01
1.520000e-06	-1.490414e-06	-8.512996e-10	-1.033975e+01	-6.160710e+01
1.530000e-06	-1.445006e-06	-8.404346e-10	-1.002474e+01	-6.091122e+01
1.540000e-06	-1.399579e-06	-8.280551e-10	-9.709586e+00	-6.019999e+01
1.550000e-06	-1.354100e-06	-8.140751e-10	-9.394073e+00	-5.947296e+01
1.560000e-06	-1.308465e-06	-8.004119e-10	-9.077478e+00	-5.872965e+01
1.570000e-06	-1.262725e-06	-7.873069e-10	-8.760158e+00	-5.796959e+01
1.580000e-06	-1.216962e-06	-7.744616e-10	-8.442681e+00	-5.719222e+01
1.590000e-06	-1.171135e-06	-7.620507e-10	-8.124756e+00	-5.639698e+01
1.600000e-06	-1.125204e-06	-7.492924e-10	-7.806108e+00	-5.558327e+01
1.610000e-06	-1.079148e-06	-7.373912e-10	-7.486596e+00	-5.475044e+01
1.620000e-06	-1.033016e-06	-7.256981e-10	-7.166553e+00	-5.389779e+01
1.630000e-06	-9.868748e-07	-7.147847e-10	-6.846447e+00	-5.302459e+01
1.640000e-06	-9.407215e-07	-7.028254e-10	-6.526258e+00	-5.213006e+01
1.650000e-06	-8.944386e-07	-6.878432e-10	-6.205171e+00	-5.121340e+01
1.660000e-06	-8.479876e-07	-6.711859e-10	-5.882916e+00	-5.027374e+01
1.670000e-06	-8.015084e-07	-6.527091e-10	-5.560467e+00	-4.931018e+01
1.680000e-06	-7.550923e-07	-6.373893e-10	-5.238455e+00	-4.832181e+01
1.690000e-06	-7.086699e-07	-6.238949e-10	-4.916400e+00	-4.730766e+01
1.700000e-06	-6.621192e-07	-6.075987e-10	-4.593454e+00	-4.626676e+01
1.710000e-06	-6.155008e-07	-5.913629e-10	-4.270039e+00	-4.519811e+01
1.720000e-06	-5.688548e-07	-5.736598e-10	-3.946432e+00	-4.410071e+01
1.730000e-06	-5.220626e-07	-5.515224e-10	-3.621811e+00	-4.297355e+01
1.740000e-06	-4.752279e-07	-5.289161e-10	-3.296895e+00	-4.181563e+01
1.750000e-06	-4.284582e-07	-5.085009e-10	-2.972430e+00	-4.062597e+01
1.760000e-06	-3.816514e-07	-4.899687e-10	-2.647708e+00	-3.940361e+01
1.770000e-06	-3.347195e-07	-4.728748e-10	-2.322118e+00	-3.814765e+01
1.780000e-06	-2.878363e-07	-4.573464e-10	-1.996865e+00	-3.685721e+01
1.790000e-06	-2.410528e-07	-4.395195e-10	-1.672304e+00	-3.553149e+01
1.800000e-06	-1.942402e-07	-4.188309e-10	-1.347542e+00	-3.416976e+01
1.810000e-06	-1.473438e-07	-3.978063e-10	-1.022198e+00	-3.277137e+01
1.820000e-06	-1.004322e-07	-3.764010e-10	-6.967489e-01	-3.133578e+01
1.830000e-06	-5.356053e-08	-3.552401e-10	-3.715764e-01	-2.986255e+01
1.840000e-06	-6.565336e-09	-3.361397e-10	-4.554704e-02	-2.835135e+01
1.850000e-06	4.042165e-08	-3.192216e-10	2.804253e-01	-2.680201e+01
1.860000e-06	8.732120e-08	-3.015842e-10	6.057911e-01	-2.521448e+01
1.870000e-06	1.342490e-07	-2.801338e-10	9.313529e-01	-2.358886e+01
1.880000e-06	1.811528e-07	-2.577497e-10	1.256748e+00	-2.192542e+01
1.890000e-06	2.280663e-07	-2.345009e-10	1.582211e+00	-2.022459e+01
1.900000e-06	2.749656e-07	-2.081943e-10	1.907575e+00	-1.848699e+01
1.910000e-06	3.217717e-07	-1.809093e-10	2.232292e+00	-1.671340e+01
1.920000e-06	3.685894e-07	-1.533458e-10	2.557090e+00	-1.490479e+01
1.930000e-06	4.154130e-07	-1.276677e-10	2.881929e+00	-1.306231e+01
1.940000e-06	4.621826e-07	-1.036517e-10	3.206393e+00	-1.118731e+01
1.950000e-06	5.089207e-07	-7.943308e-11	3.530639e+00	-9.281301e+00
1.960000e-06	5.556004e-07	-5.534531e-11	3.854479e+00	-7.345994e+00
1.970000e-06	6.021812e-07	-3.089085e-11	4.177634e+00	-5.383266e+00
1.980000e-06	6.486685e-07	-1.966302e-12	4.500140e+00	-3.395166e+00
1.990000e-06	6.951912e-07	2.881576e-11	4.822891e+00	-1.383904e+00
2.000000e-06	7.416931e-07	5.975533e-11	5.145499e+00	6.481594e-01
2.010000e-06	7.880867e-07	9.071576e-11	5.467354e+00	2.698524e+00
2.020000e-06	8.344686e-07	1.205301e-10	5.789128e+00	4.764564e+00
2.030000e-06	8.807573e-07	1.515641e-10	6.110257e+00	6.843540e+00
2.040000e-06	9.270030e-07	1.804625e-10	6.431087e+00	8.932620e+00
2.050000e-06	9.732321e-07	2.073159e-10	6.751801e+00	1.102889e+01
2.060000e-06	1.019322e-06	2.354416e-10	7.071551e+00	1.312938e+01
2.070000e-06	1.065311e-06	2.645586e-10	7.390597e+00	1.523108e+01
2.080000e-06	1.111275e-06	2.933127e-10	7.709472e+00	1.733095e+01
2.090000e-06	1.157220e-06	3.236517e-10	8.028217e+00	1.942595e+01
2.100000e-06	1.203048e-06	3.541054e-10	8.346152e+00	2.151308e+01
2.110000e-06	1.248785e-06	3.834046e-10	8.663452e+00	2.358936e+01
2.120000e-06	1.294487e-06	4.131756e-10	8.980509e+00	2.565186e+01
2.130000e-06	1.340084e-06	4.416136e-10	9.296840e+00	2.769776e+01
2.140000e-06	1.385490e-06	4.653511e-10	9.611843e+00	2.972430e+01
2.150000e-06	1.430793e-06	4.874226e-10	9.926128e+00	3.172888e+01
2.160000e-06	1.476068e-06	5.131552e-10	1.024023e+01	3.370900e+01
2.170000e-06	1.521211e-06	5.421357e-10	1.055341e+01	3.566232e+01
2.180000e-06	1.566212e-06	5.716449e-10	1.086560e+01	3.758665e+01
2.190000e-06	1.611186e-06	6.006714e-10	1.117761e+01	3.948000e+01
2.200000e-06	1.656039e-06	6.282701e-10	1.148878e+01	4.134054e+01
2.210000e-06	1.700656e-06	6.533566e-10	1.179831e+01	4.316663e+01
2.220000e-06	1.745212e-06	6.769551e-10	1.210741e+01	4.495686e+01
2.230000e-06	1.789727e-06	7.006226e-10	1.241624e+01	4.670998e+01
2.240000e-06	1.834053e-06	7.236490e-10	1.272375e+01	4.842498e+01
2.250000e-06	1.878194e-06	7.452292e-10	1.302998e+01	5.010103e+01
2.260000e-06	1.922216e-06	7.676153e-10	1.333538e+01	5.173751e+01
2.270000e-06	1.966216e-06	7.897285e-10	1.364063e+01	5.333400e+01
2.280000e-06	2.010182e-06	8.105031e-10	1.394565e+01	5.489024e+01
2.290000e-06	2.054045e-06	8.286218e-10	1.424994e+01	5.640620e+01
2.300000e-06	2.097863e-06	8.456589e-10	1.455393e+01	5.788198e+01
2.310000e-06	2.141637e-06	8.640334e-10	1.485761e+01	5.931784e+01
2.320000e-06	2.185298e-06	8.850073e-10	1.516051e+01	6.071420e+01
2.330000e-06	2.228848e-06	9.067339e-10	1.546264e+01	6.207161e+01
2.340000e-06	2.272168e-06	9.255549e-10	1.576318e+01	6.339072e+01
2.350000e-06	2.315244e-06	9.427950e-10	1.606201e+01	6.467227e+01
2.360000e-06	2.358114e-06	9.602626e-10	1.635943e+01	6.591711e+01
2.370000e-06	2.400753e-06	9.761202e-10	1.665523e+01	6.712612e+01
2.380000e-06	2.443164e-06	9.898776e-10	1.694946e+01	6.830027e+01
2.390000e-06	2.485266e-06	1.004025e-09	1.724154e+01	6.944051e+01
2.400000e-06	2.527073e-06	1.018997e-09	1.753157e+01	7.054784e+01
2.410000e-06	2.568627e-06	1.034636e-09	1.781986e+01	7.162326e+01
2.420000e-06	2.609768e-06	1.048888e-09	1.810528e+01	7.266774e+01
2.430000e-06	2.650536e-06	1.061373e-09	1.838810e+01	7.368224e+01
2.440000e-06	2.691195e-06	1.073023e-09	1.867018e+01	7.466768e+01
2.450000e-06	2.731686e-06	1.084139e-09	1.895108e+01	7.562493e+01
2.460000e-06	2.771925e-06	1.096615e-09	1.923024e+01	7.655481e+01
2.470000e-06	2.812016e-06	1.108277e-09	1.950837e+01	7.745809e+01
2.480000e-06	2.851943e-06	1.118618e-09	1.978536e+01	7.833547e+01
2.490000e-06	2.891714e-06	1.130515e-09	2.006128e+01	7.918759e+01
2.500000e-06	2.931370e-06	1.142063e-09	2.033639e+01	8.001501e+01
2.510000e-06	2.970940e-06	1.153091e-09	2.061090e+01	8.081827e+01
2.520000e-06	3.010364e-06	1.164356e-09	2.088441e+01	8.159779e+01
2.530000e-06	3.049531e-06	1.173865e-09	2.115613e+01	8.235399e+01
2.540000e-06	3.088494e-06	1.183205e-09	2.142643e+01	8.308721e+01
2.550000e-06	3.127238e-06	1.193733e-09	2.169522e+01	8.379776e+01
2.560000e-06	3.165697e-06	1.203398e-09	2.196203e+01	8.448592e+01
2.570000e-06	3.203921e-06	1.212191e-09	2.222721e+01	8.515194e+01
2.580000e-06	3.242045e-06	1.220361e-09	2.249170e+01	8.579604e+01
2.590000e-06	3.279957e-06	1.227512e-09	2.275471e+01	8.641848e+01
2.600000e-06	3.317563e-06	1.234565e-09	2.301561e+01	8.701948e+01
2.610000e-06	3.354947e-06	1.243199e-09	2.327495e+01	8.759930e+01
2.620000e-06	3.392061e-06	1.251515e-09	2.353244e+01	8.815821e+01
2.630000e-06	3.428913e-06	1.259466e-09	2.378809e+01	8.869652e+01
2.640000e-06	3.465587e-06	1.268492e-09	2.404252e+01	8.921459e+01
2.650000e-06	3.502058e-06	1.276798e-09	2.429554e+01	8.971280e+01
2.660000e-06	3.538315e-06	1.283748e-09	2.454707e+01	9.019160e+01
2.670000e-06	3.574409e-06	1.290184e-09	2.479747e+01	9.065151e+01
2.680000e-06	3.610320e-06	1.296022e-09	2.504661e+01	9.109306e+01
2.690000e-06	3.646075e-06	1.300975e-09	2.529466e+01	9.151690e+01
2.700000e-06	3.681674e-06	1.306679e-09	2.554162e+01	9.192369e+01
2.710000e-06	3.717047e-06	1.312881e-09	2.578702e+01	9.231417e+01
2.720000e-06	3.752222e-06	1.319349e-09	2.603105e+01	9.268913e+01
2.730000e-06	3.787143e-06	1.326391e-09	2.627332e+01	9.304940e+01
2.740000e-06	3.821564e-06	1.333268e-09	2.651211e+01	9.339584e+01
2.750000e-06	3.855410e-06	1.336946e-09	2.674692e+01	9.372938e+01
2.760000e-06	3.888801e-06	1.338677e-09	2.697857e+01	9.405093e+01
2.770000e-06	3.921816e-06	1.341241e-09	2.720761e+01	9.436144e+01
2.780000e-06	3.954489e-06	1.345432e-09	2.743428e+01	9.466185e+01
2.790000e-06	3.986786e-06	1.352901e-09	2.765834e+01	9.495310e+01
2.800000e-06	4.018780e-06	1.362112e-09	2.788030e+01	9.523612e+01
2.810000e-06	4.050637e-06	1.369257e-09	2.810130e+01	9.551178e+01
2.820000e-06	4.082401e-06	1.374806e-09	2.832167e+01	9.578094e+01
2.830000e-06	4.113981e-06	1.378938e-09	2.854075e+01	9.604439e+01
2.840000e-06	4.145303e-06	1.381293e-09	2.875806e+01	9.630286e+01
2.850000e-06	4.176294e-06	1.382643e-09	2.897306e+01	9.655703e+01
2.860000e-06	4.206914e-06	1.385046e-09	2.918548e+01	9.680748e+01
2.870000e-06	4.237259e-06	1.390292e-09	2.939600e+01	9.705471e+01
2.880000e-06	4.267345e-06	1.396276e-09	2.960472e+01	9.729914e+01
2.890000e-06	4.297150e-06	1.402307e-09	2.981149e+01	9.754109e+01
2.900000e-06	4.326624e-06	1.406953e-09	3.001597e+01	9.778080e+01
