# Temperatura_=_12.1
# Concentracion g/m^3_=_1620.0
# C_Vs_to_Am_M_A/Vsm_=_65563218390.804596
# pendiente_HvsI_1/m_=_3716.3
# ordenada_HvsI_A/m_=_1297.0
# frecuencia_Hz_=_135095.26116875876

Tiempo_(s)	Campo_(V.s)	Magnetizacion_(V.s)	Campo_(kA/m)	Magnetizacion_(A/m)
0.000000e+00	-5.527596e-06	-1.669487e-09	-3.838769e+01	-1.090436e+02
1.000000e-08	-5.527580e-06	-1.669504e-09	-3.838757e+01	-1.089835e+02
2.000000e-08	-5.527298e-06	-1.669372e-09	-3.838562e+01	-1.089250e+02
3.000000e-08	-5.526666e-06	-1.668216e-09	-3.838122e+01	-1.088688e+02
4.000000e-08	-5.525583e-06	-1.668169e-09	-3.837370e+01	-1.088157e+02
5.000000e-08	-5.523881e-06	-1.665746e-09	-3.836189e+01	-1.087661e+02
6.000000e-08	-5.521564e-06	-1.670793e-09	-3.834580e+01	-1.087207e+02
7.000000e-08	-5.518667e-06	-1.673854e-09	-3.832568e+01	-1.086797e+02
8.000000e-08	-5.515214e-06	-1.656264e-09	-3.830170e+01	-1.086434e+02
9.000000e-08	-5.511273e-06	-1.648643e-09	-3.827432e+01	-1.086118e+02
1.000000e-07	-5.506978e-06	-1.711883e-09	-3.824450e+01	-1.085851e+02
1.100000e-07	-5.502462e-06	-1.693720e-09	-3.821314e+01	-1.085629e+02
1.200000e-07	-5.497799e-06	-1.610695e-09	-3.818075e+01	-1.085449e+02
1.300000e-07	-5.492826e-06	-1.582094e-09	-3.814622e+01	-1.085308e+02
1.400000e-07	-5.487436e-06	-1.678222e-09	-3.810878e+01	-1.085198e+02
1.500000e-07	-5.481655e-06	-1.719393e-09	-3.806864e+01	-1.085113e+02
1.600000e-07	-5.475531e-06	-1.634787e-09	-3.802611e+01	-1.085045e+02
1.700000e-07	-5.469023e-06	-1.592021e-09	-3.798091e+01	-1.084985e+02
1.800000e-07	-5.462054e-06	-1.665074e-09	-3.793251e+01	-1.084921e+02
1.900000e-07	-5.454703e-06	-1.686373e-09	-3.788147e+01	-1.084844e+02
2.000000e-07	-5.447099e-06	-1.628932e-09	-3.782865e+01	-1.084742e+02
2.100000e-07	-5.439247e-06	-1.622163e-09	-3.777413e+01	-1.084605e+02
2.200000e-07	-5.431136e-06	-1.681674e-09	-3.771780e+01	-1.084419e+02
2.300000e-07	-5.422648e-06	-1.699603e-09	-3.765885e+01	-1.084175e+02
2.400000e-07	-5.413680e-06	-1.643137e-09	-3.759657e+01	-1.083860e+02
2.500000e-07	-5.404104e-06	-1.626104e-09	-3.753007e+01	-1.083466e+02
2.600000e-07	-5.393740e-06	-1.647359e-09	-3.745809e+01	-1.082982e+02
2.700000e-07	-5.382803e-06	-1.672481e-09	-3.738214e+01	-1.082399e+02
2.800000e-07	-5.371461e-06	-1.651809e-09	-3.730337e+01	-1.081712e+02
2.900000e-07	-5.359721e-06	-1.642617e-09	-3.722184e+01	-1.080912e+02
3.000000e-07	-5.347585e-06	-1.642151e-09	-3.713756e+01	-1.079996e+02
3.100000e-07	-5.335094e-06	-1.664892e-09	-3.705081e+01	-1.078960e+02
3.200000e-07	-5.322220e-06	-1.647441e-09	-3.696140e+01	-1.077802e+02
3.300000e-07	-5.308827e-06	-1.625439e-09	-3.686839e+01	-1.076523e+02
3.400000e-07	-5.294979e-06	-1.635347e-09	-3.677223e+01	-1.075123e+02
3.500000e-07	-5.280881e-06	-1.675025e-09	-3.667432e+01	-1.073606e+02
3.600000e-07	-5.266369e-06	-1.644395e-09	-3.657354e+01	-1.071974e+02
3.700000e-07	-5.251253e-06	-1.624435e-09	-3.646856e+01	-1.070236e+02
3.800000e-07	-5.235643e-06	-1.656134e-09	-3.636015e+01	-1.068395e+02
3.900000e-07	-5.219483e-06	-1.641109e-09	-3.624792e+01	-1.066462e+02
4.000000e-07	-5.202780e-06	-1.576917e-09	-3.613193e+01	-1.064445e+02
4.100000e-07	-5.185840e-06	-1.621622e-09	-3.601428e+01	-1.062352e+02
4.200000e-07	-5.168756e-06	-1.674982e-09	-3.589564e+01	-1.060195e+02
4.300000e-07	-5.151296e-06	-1.597521e-09	-3.577438e+01	-1.057983e+02
4.400000e-07	-5.133360e-06	-1.578869e-09	-3.564982e+01	-1.055728e+02
4.500000e-07	-5.115078e-06	-1.666838e-09	-3.552286e+01	-1.053440e+02
4.600000e-07	-5.096401e-06	-1.628470e-09	-3.539315e+01	-1.051128e+02
4.700000e-07	-5.077246e-06	-1.533062e-09	-3.526012e+01	-1.048804e+02
4.800000e-07	-5.057816e-06	-1.601289e-09	-3.512519e+01	-1.046475e+02
4.900000e-07	-5.038198e-06	-1.635865e-09	-3.498895e+01	-1.044151e+02
5.000000e-07	-5.018338e-06	-1.548999e-09	-3.485103e+01	-1.041839e+02
5.100000e-07	-4.998214e-06	-1.566515e-09	-3.471127e+01	-1.039545e+02
5.200000e-07	-4.977777e-06	-1.641894e-09	-3.456934e+01	-1.037275e+02
5.300000e-07	-4.957027e-06	-1.570017e-09	-3.442524e+01	-1.035033e+02
5.400000e-07	-4.935894e-06	-1.536178e-09	-3.427848e+01	-1.032820e+02
5.500000e-07	-4.914374e-06	-1.609247e-09	-3.412902e+01	-1.030640e+02
5.600000e-07	-4.892570e-06	-1.583226e-09	-3.397760e+01	-1.028492e+02
5.700000e-07	-4.870409e-06	-1.512019e-09	-3.382370e+01	-1.026375e+02
5.800000e-07	-4.847856e-06	-1.570124e-09	-3.366707e+01	-1.024288e+02
5.900000e-07	-4.824948e-06	-1.588540e-09	-3.350798e+01	-1.022226e+02
6.000000e-07	-4.801658e-06	-1.523803e-09	-3.334624e+01	-1.020185e+02
6.100000e-07	-4.778053e-06	-1.532060e-09	-3.318231e+01	-1.018162e+02
6.200000e-07	-4.754241e-06	-1.569129e-09	-3.301694e+01	-1.016149e+02
6.300000e-07	-4.730224e-06	-1.529360e-09	-3.285015e+01	-1.014141e+02
6.400000e-07	-4.705915e-06	-1.519202e-09	-3.268133e+01	-1.012131e+02
6.500000e-07	-4.681290e-06	-1.548424e-09	-3.251031e+01	-1.010113e+02
6.600000e-07	-4.656217e-06	-1.529048e-09	-3.233619e+01	-1.008078e+02
6.700000e-07	-4.630543e-06	-1.507875e-09	-3.215789e+01	-1.006020e+02
6.800000e-07	-4.604371e-06	-1.524178e-09	-3.197613e+01	-1.003932e+02
6.900000e-07	-4.577768e-06	-1.514354e-09	-3.179138e+01	-1.001808e+02
7.000000e-07	-4.550698e-06	-1.497154e-09	-3.160339e+01	-9.996427e+01
7.100000e-07	-4.523242e-06	-1.504081e-09	-3.141271e+01	-9.974295e+01
7.200000e-07	-4.495575e-06	-1.502925e-09	-3.122058e+01	-9.951642e+01
7.300000e-07	-4.467723e-06	-1.491587e-09	-3.102715e+01	-9.928427e+01
7.400000e-07	-4.439649e-06	-1.489748e-09	-3.083218e+01	-9.904620e+01
7.500000e-07	-4.411361e-06	-1.484529e-09	-3.063573e+01	-9.880194e+01
7.600000e-07	-4.382854e-06	-1.469589e-09	-3.043776e+01	-9.855135e+01
7.700000e-07	-4.354057e-06	-1.468509e-09	-3.023777e+01	-9.829434e+01
7.800000e-07	-4.324882e-06	-1.465805e-09	-3.003516e+01	-9.803089e+01
7.900000e-07	-4.295357e-06	-1.458021e-09	-2.983012e+01	-9.776108e+01
8.000000e-07	-4.265618e-06	-1.456729e-09	-2.962359e+01	-9.748502e+01
8.100000e-07	-4.235648e-06	-1.454792e-09	-2.941545e+01	-9.720289e+01
8.200000e-07	-4.205299e-06	-1.436965e-09	-2.920468e+01	-9.691492e+01
8.300000e-07	-4.174570e-06	-1.428751e-09	-2.899128e+01	-9.662136e+01
8.400000e-07	-4.143519e-06	-1.431684e-09	-2.877564e+01	-9.632249e+01
8.500000e-07	-4.112270e-06	-1.428483e-09	-2.855863e+01	-9.601862e+01
8.600000e-07	-4.080862e-06	-1.415365e-09	-2.834050e+01	-9.571003e+01
8.700000e-07	-4.049245e-06	-1.410135e-09	-2.812093e+01	-9.539702e+01
8.800000e-07	-4.017430e-06	-1.404936e-09	-2.789999e+01	-9.507986e+01
8.900000e-07	-3.985390e-06	-1.394033e-09	-2.767748e+01	-9.475880e+01
9.000000e-07	-3.953091e-06	-1.389603e-09	-2.745317e+01	-9.443407e+01
9.100000e-07	-3.920410e-06	-1.392189e-09	-2.722621e+01	-9.410583e+01
9.200000e-07	-3.887381e-06	-1.383089e-09	-2.699683e+01	-9.377423e+01
9.300000e-07	-3.853933e-06	-1.374942e-09	-2.676454e+01	-9.343934e+01
9.400000e-07	-3.820001e-06	-1.372734e-09	-2.652889e+01	-9.310122e+01
9.500000e-07	-3.785728e-06	-1.364798e-09	-2.629088e+01	-9.275986e+01
9.600000e-07	-3.751086e-06	-1.351417e-09	-2.605030e+01	-9.241521e+01
9.700000e-07	-3.716065e-06	-1.347258e-09	-2.580708e+01	-9.206716e+01
9.800000e-07	-3.680733e-06	-1.348122e-09	-2.556171e+01	-9.171561e+01
9.900000e-07	-3.645148e-06	-1.340585e-09	-2.531459e+01	-9.136037e+01
1.000000e-06	-3.609386e-06	-1.331646e-09	-2.506623e+01	-9.100127e+01
1.010000e-06	-3.573478e-06	-1.327103e-09	-2.481685e+01	-9.063810e+01
1.020000e-06	-3.537416e-06	-1.318987e-09	-2.456641e+01	-9.027066e+01
1.030000e-06	-3.501202e-06	-1.309081e-09	-2.431492e+01	-8.989872e+01
1.040000e-06	-3.464842e-06	-1.308636e-09	-2.406240e+01	-8.952209e+01
1.050000e-06	-3.428304e-06	-1.307006e-09	-2.380866e+01	-8.914057e+01
1.060000e-06	-3.391356e-06	-1.297986e-09	-2.355207e+01	-8.875400e+01
1.070000e-06	-3.354024e-06	-1.291097e-09	-2.329281e+01	-8.836225e+01
1.080000e-06	-3.316553e-06	-1.287588e-09	-2.303258e+01	-8.796521e+01
1.090000e-06	-3.278883e-06	-1.278244e-09	-2.277097e+01	-8.756283e+01
1.100000e-06	-3.240966e-06	-1.269970e-09	-2.250765e+01	-8.715507e+01
1.110000e-06	-3.202850e-06	-1.264312e-09	-2.224294e+01	-8.674197e+01
1.120000e-06	-3.164483e-06	-1.259278e-09	-2.197650e+01	-8.632359e+01
1.130000e-06	-3.125824e-06	-1.253723e-09	-2.170802e+01	-8.590004e+01
1.140000e-06	-3.086996e-06	-1.251470e-09	-2.143837e+01	-8.547147e+01
1.150000e-06	-3.048069e-06	-1.245729e-09	-2.116803e+01	-8.503807e+01
1.160000e-06	-3.008885e-06	-1.233427e-09	-2.089591e+01	-8.460003e+01
1.170000e-06	-2.969481e-06	-1.222074e-09	-2.062225e+01	-8.415758e+01
1.180000e-06	-2.929981e-06	-1.218163e-09	-2.034794e+01	-8.371097e+01
1.190000e-06	-2.890315e-06	-1.213463e-09	-2.007247e+01	-8.326043e+01
1.200000e-06	-2.850472e-06	-1.205020e-09	-1.979577e+01	-8.280620e+01
1.210000e-06	-2.810517e-06	-1.197887e-09	-1.951830e+01	-8.234848e+01
1.220000e-06	-2.770458e-06	-1.191845e-09	-1.924009e+01	-8.188746e+01
1.230000e-06	-2.730238e-06	-1.184543e-09	-1.896078e+01	-8.142328e+01
1.240000e-06	-2.689801e-06	-1.178165e-09	-1.867995e+01	-8.095603e+01
1.250000e-06	-2.649111e-06	-1.171368e-09	-1.839737e+01	-8.048576e+01
1.260000e-06	-2.608157e-06	-1.162392e-09	-1.811296e+01	-8.001242e+01
1.270000e-06	-2.566939e-06	-1.151804e-09	-1.782671e+01	-7.953591e+01
1.280000e-06	-2.525431e-06	-1.142885e-09	-1.753845e+01	-7.905605e+01
1.290000e-06	-2.483643e-06	-1.134747e-09	-1.724824e+01	-7.857256e+01
1.300000e-06	-2.441575e-06	-1.126123e-09	-1.695609e+01	-7.808511e+01
1.310000e-06	-2.399228e-06	-1.117965e-09	-1.666200e+01	-7.759325e+01
1.320000e-06	-2.356598e-06	-1.111735e-09	-1.636594e+01	-7.709647e+01
1.330000e-06	-2.313746e-06	-1.102822e-09	-1.606835e+01	-7.659416e+01
1.340000e-06	-2.270698e-06	-1.092864e-09	-1.576940e+01	-7.608567e+01
1.350000e-06	-2.227450e-06	-1.087076e-09	-1.546905e+01	-7.557025e+01
1.360000e-06	-2.184038e-06	-1.080837e-09	-1.516756e+01	-7.504711e+01
1.370000e-06	-2.140433e-06	-1.071180e-09	-1.486474e+01	-7.451541e+01
1.380000e-06	-2.096680e-06	-1.060314e-09	-1.456089e+01	-7.397425e+01
1.390000e-06	-2.052870e-06	-1.050972e-09	-1.425664e+01	-7.342275e+01
1.400000e-06	-2.008974e-06	-1.040433e-09	-1.395179e+01	-7.285998e+01
1.410000e-06	-1.964995e-06	-1.029407e-09	-1.364637e+01	-7.228501e+01
1.420000e-06	-1.920980e-06	-1.017655e-09	-1.334069e+01	-7.169694e+01
1.430000e-06	-1.876853e-06	-1.006759e-09	-1.303424e+01	-7.109487e+01
1.440000e-06	-1.832595e-06	-9.943671e-10	-1.272689e+01	-7.047796e+01
1.450000e-06	-1.788297e-06	-9.838548e-10	-1.241925e+01	-6.984540e+01
1.460000e-06	-1.743893e-06	-9.723515e-10	-1.211087e+01	-6.919641e+01
1.470000e-06	-1.699252e-06	-9.587908e-10	-1.180086e+01	-6.853032e+01
1.480000e-06	-1.654564e-06	-9.467109e-10	-1.149051e+01	-6.784647e+01
1.490000e-06	-1.609796e-06	-9.343549e-10	-1.117961e+01	-6.714432e+01
1.500000e-06	-1.564809e-06	-9.192831e-10	-1.086718e+01	-6.642336e+01
1.510000e-06	-1.519655e-06	-9.032638e-10	-1.055360e+01	-6.568317e+01
1.520000e-06	-1.474405e-06	-8.905064e-10	-1.023935e+01	-6.492338e+01
1.530000e-06	-1.429107e-06	-8.783166e-10	-9.924766e+00	-6.414372e+01
1.540000e-06	-1.383615e-06	-8.656175e-10	-9.608838e+00	-6.334393e+01
1.550000e-06	-1.338033e-06	-8.569414e-10	-9.292282e+00	-6.252384e+01
1.560000e-06	-1.292426e-06	-8.468732e-10	-8.975557e+00	-6.168327e+01
1.570000e-06	-1.246678e-06	-8.339036e-10	-8.657851e+00	-6.082211e+01
1.580000e-06	-1.200844e-06	-8.162372e-10	-8.339545e+00	-5.994025e+01
1.590000e-06	-1.155029e-06	-7.985371e-10	-8.021370e+00	-5.903757e+01
1.600000e-06	-1.109143e-06	-7.830073e-10	-7.702706e+00	-5.811396e+01
1.610000e-06	-1.063106e-06	-7.702729e-10	-7.382989e+00	-5.716927e+01
1.620000e-06	-1.017050e-06	-7.616306e-10	-7.063140e+00	-5.620332e+01
1.630000e-06	-9.708963e-07	-7.540763e-10	-6.742617e+00	-5.521588e+01
1.640000e-06	-9.246703e-07	-7.403488e-10	-6.421590e+00	-5.420665e+01
1.650000e-06	-8.784385e-07	-7.204858e-10	-6.100522e+00	-5.317528e+01
1.660000e-06	-8.321411e-07	-6.987478e-10	-5.778999e+00	-5.212133e+01
1.670000e-06	-7.858015e-07	-6.780448e-10	-5.457183e+00	-5.104427e+01
1.680000e-06	-7.394009e-07	-6.617116e-10	-5.134943e+00	-4.994349e+01
1.690000e-06	-6.929199e-07	-6.456539e-10	-4.812145e+00	-4.881831e+01
1.700000e-06	-6.464198e-07	-6.312977e-10	-4.489214e+00	-4.766793e+01
1.710000e-06	-5.998887e-07	-6.166016e-10	-4.166068e+00	-4.649150e+01
1.720000e-06	-5.532796e-07	-5.991986e-10	-3.842380e+00	-4.528808e+01
1.730000e-06	-5.065608e-07	-5.774338e-10	-3.517930e+00	-4.405667e+01
1.740000e-06	-4.597820e-07	-5.557788e-10	-3.193064e+00	-4.279620e+01
1.750000e-06	-4.130387e-07	-5.353400e-10	-2.868444e+00	-4.150560e+01
1.760000e-06	-3.662248e-07	-5.161640e-10	-2.543334e+00	-4.018374e+01
1.770000e-06	-3.193131e-07	-4.983120e-10	-2.217544e+00	-3.882950e+01
1.780000e-06	-2.723940e-07	-4.801201e-10	-1.891704e+00	-3.744180e+01
1.790000e-06	-2.255317e-07	-4.612880e-10	-1.566258e+00	-3.601958e+01
1.800000e-06	-1.787385e-07	-4.416867e-10	-1.241291e+00	-3.456183e+01
1.810000e-06	-1.320206e-07	-4.208193e-10	-9.168481e-01	-3.306764e+01
1.820000e-06	-8.523726e-08	-3.997535e-10	-5.919501e-01	-3.153621e+01
1.830000e-06	-3.833908e-08	-3.766966e-10	-2.662547e-01	-2.996687e+01
1.840000e-06	8.534755e-09	-3.552446e-10	5.927161e-02	-2.835909e+01
1.850000e-06	5.538805e-08	-3.338711e-10	3.846553e-01	-2.671251e+01
1.860000e-06	1.022658e-07	-3.105783e-10	7.102085e-01	-2.502698e+01
1.870000e-06	1.491055e-07	-2.849033e-10	1.035498e+00	-2.330254e+01
1.880000e-06	1.959741e-07	-2.598785e-10	1.360988e+00	-2.153944e+01
1.890000e-06	2.428916e-07	-2.359736e-10	1.686817e+00	-1.973818e+01
1.900000e-06	2.898049e-07	-2.097105e-10	2.012618e+00	-1.789949e+01
1.910000e-06	3.366205e-07	-1.819162e-10	2.337740e+00	-1.602433e+01
1.920000e-06	3.833333e-07	-1.516615e-10	2.662148e+00	-1.411393e+01
1.930000e-06	4.300129e-07	-1.234390e-10	2.986325e+00	-1.216975e+01
1.940000e-06	4.767245e-07	-9.640209e-11	3.310725e+00	-1.019348e+01
1.950000e-06	5.233974e-07	-6.901958e-11	3.634856e+00	-8.187045e+00
1.960000e-06	5.699854e-07	-4.237879e-11	3.958397e+00	-6.152598e+00
1.970000e-06	6.165376e-07	-1.524092e-11	4.281690e+00	-4.092482e+00
1.980000e-06	6.630493e-07	1.227174e-11	4.604702e+00	-2.009231e+00
1.990000e-06	7.095251e-07	4.236031e-11	4.927463e+00	9.445524e-02
2.000000e-06	7.559709e-07	7.498534e-11	5.250017e+00	2.215733e+00
2.010000e-06	8.024471e-07	1.061564e-10	5.572782e+00	4.351637e+00
2.020000e-06	8.488044e-07	1.367658e-10	5.894721e+00	6.499109e+00
2.030000e-06	8.950354e-07	1.663790e-10	6.215783e+00	8.655018e+00
2.040000e-06	9.412613e-07	1.948232e-10	6.536809e+00	1.081619e+01
2.050000e-06	9.873819e-07	2.250504e-10	6.857105e+00	1.297944e+01
2.060000e-06	1.033337e-06	2.581441e-10	7.176251e+00	1.514158e+01
2.070000e-06	1.079171e-06	2.916046e-10	7.494554e+00	1.729948e+01
2.080000e-06	1.124942e-06	3.230144e-10	7.812422e+00	1.945004e+01
2.090000e-06	1.170659e-06	3.526171e-10	8.129918e+00	2.159027e+01
2.100000e-06	1.216338e-06	3.835337e-10	8.447141e+00	2.371727e+01
2.110000e-06	1.261999e-06	4.154117e-10	8.764248e+00	2.582827e+01
2.120000e-06	1.307606e-06	4.476089e-10	9.080977e+00	2.792062e+01
2.130000e-06	1.353098e-06	4.772110e-10	9.396907e+00	2.999187e+01
2.140000e-06	1.398535e-06	5.011091e-10	9.712455e+00	3.203969e+01
2.150000e-06	1.443875e-06	5.244141e-10	1.002733e+01	3.406195e+01
2.160000e-06	1.489066e-06	5.521446e-10	1.034116e+01	3.605670e+01
2.170000e-06	1.534185e-06	5.815744e-10	1.065451e+01	3.802218e+01
2.180000e-06	1.579161e-06	6.095867e-10	1.096685e+01	3.995682e+01
2.190000e-06	1.624102e-06	6.370307e-10	1.127896e+01	4.185923e+01
2.200000e-06	1.668934e-06	6.637247e-10	1.159031e+01	4.372821e+01
2.210000e-06	1.713432e-06	6.876968e-10	1.189933e+01	4.556275e+01
2.220000e-06	1.757796e-06	7.105748e-10	1.220743e+01	4.736199e+01
2.230000e-06	1.802105e-06	7.342093e-10	1.251514e+01	4.912525e+01
2.240000e-06	1.846284e-06	7.572016e-10	1.282195e+01	5.085201e+01
2.250000e-06	1.890367e-06	7.791589e-10	1.312810e+01	5.254188e+01
2.260000e-06	1.934372e-06	8.011086e-10	1.343370e+01	5.419461e+01
2.270000e-06	1.978326e-06	8.226476e-10	1.373895e+01	5.581006e+01
2.280000e-06	2.022219e-06	8.440815e-10	1.404377e+01	5.738822e+01
2.290000e-06	2.066060e-06	8.658741e-10	1.434823e+01	5.892915e+01
2.300000e-06	2.109834e-06	8.852110e-10	1.465224e+01	6.043299e+01
2.310000e-06	2.153554e-06	9.031943e-10	1.495586e+01	6.189998e+01
2.320000e-06	2.197188e-06	9.221807e-10	1.525889e+01	6.333040e+01
2.330000e-06	2.240642e-06	9.429785e-10	1.556066e+01	6.472457e+01
2.340000e-06	2.283936e-06	9.641749e-10	1.586133e+01	6.608287e+01
2.350000e-06	2.327038e-06	9.850464e-10	1.616066e+01	6.740571e+01
2.360000e-06	2.369888e-06	1.004516e-09	1.645824e+01	6.869352e+01
2.370000e-06	2.412467e-06	1.020784e-09	1.675394e+01	6.994674e+01
2.380000e-06	2.454711e-06	1.034483e-09	1.704732e+01	7.116584e+01
2.390000e-06	2.496622e-06	1.049114e-09	1.733838e+01	7.235131e+01
2.400000e-06	2.538173e-06	1.065476e-09	1.762694e+01	7.350363e+01
2.410000e-06	2.579402e-06	1.082110e-09	1.791326e+01	7.462328e+01
2.420000e-06	2.620394e-06	1.096719e-09	1.819794e+01	7.571079e+01
2.430000e-06	2.661090e-06	1.110567e-09	1.848056e+01	7.676664e+01
2.440000e-06	2.701526e-06	1.122948e-09	1.876138e+01	7.779137e+01
2.450000e-06	2.741749e-06	1.133015e-09	1.904072e+01	7.878549e+01
2.460000e-06	2.781789e-06	1.143081e-09	1.931879e+01	7.974953e+01
2.470000e-06	2.821714e-06	1.152521e-09	1.959605e+01	8.068405e+01
2.480000e-06	2.861574e-06	1.161526e-09	1.987287e+01	8.158960e+01
2.490000e-06	2.901335e-06	1.173302e-09	2.014900e+01	8.246676e+01
2.500000e-06	2.940955e-06	1.187140e-09	2.042415e+01	8.331612e+01
2.510000e-06	2.980409e-06	1.200683e-09	2.069815e+01	8.413829e+01
2.520000e-06	3.019666e-06	1.214125e-09	2.097078e+01	8.493390e+01
2.530000e-06	3.058754e-06	1.223988e-09	2.124223e+01	8.570360e+01
2.540000e-06	3.097552e-06	1.231068e-09	2.151167e+01	8.644805e+01
2.550000e-06	3.136019e-06	1.237178e-09	2.177882e+01	8.716795e+01
2.560000e-06	3.174354e-06	1.245746e-09	2.204505e+01	8.786400e+01
2.570000e-06	3.212515e-06	1.256022e-09	2.231006e+01	8.853692e+01
2.580000e-06	3.250519e-06	1.265944e-09	2.257399e+01	8.918746e+01
2.590000e-06	3.288384e-06	1.277535e-09	2.283696e+01	8.981636e+01
2.600000e-06	3.325968e-06	1.290128e-09	2.309797e+01	9.042440e+01
2.610000e-06	3.363327e-06	1.301401e-09	2.335741e+01	9.101233e+01
2.620000e-06	3.400402e-06	1.309566e-09	2.361489e+01	9.158095e+01
2.630000e-06	3.437170e-06	1.317008e-09	2.387023e+01	9.213104e+01
2.640000e-06	3.473720e-06	1.324140e-09	2.412406e+01	9.266337e+01
2.650000e-06	3.509982e-06	1.330775e-09	2.437589e+01	9.317871e+01
2.660000e-06	3.546009e-06	1.340000e-09	2.462609e+01	9.367785e+01
2.670000e-06	3.581954e-06	1.350671e-09	2.487572e+01	9.416154e+01
2.680000e-06	3.617814e-06	1.360159e-09	2.512476e+01	9.463053e+01
2.690000e-06	3.653541e-06	1.368671e-09	2.537287e+01	9.508555e+01
2.700000e-06	3.689088e-06	1.375803e-09	2.561974e+01	9.552731e+01
2.710000e-06	3.724427e-06	1.382278e-09	2.586515e+01	9.595651e+01
2.720000e-06	3.759502e-06	1.390801e-09	2.610874e+01	9.637382e+01
2.730000e-06	3.794247e-06	1.399412e-09	2.635004e+01	9.677990e+01
2.740000e-06	3.828479e-06	1.408254e-09	2.658777e+01	9.717535e+01
2.750000e-06	3.862140e-06	1.415998e-09	2.682154e+01	9.756079e+01
2.760000e-06	3.895286e-06	1.421360e-09	2.705173e+01	9.793678e+01
2.770000e-06	3.928060e-06	1.426706e-09	2.727934e+01	9.830386e+01
2.780000e-06	3.960543e-06	1.433626e-09	2.750492e+01	9.866255e+01
2.790000e-06	3.992693e-06	1.442142e-09	2.772819e+01	9.901333e+01
2.800000e-06	4.024611e-06	1.449965e-09	2.794985e+01	9.935665e+01
2.810000e-06	4.056411e-06	1.455489e-09	2.817070e+01	9.969294e+01
2.820000e-06	4.088119e-06	1.459546e-09	2.839090e+01	1.000226e+02
2.830000e-06	4.119654e-06	1.462823e-09	2.860990e+01	1.003460e+02
2.840000e-06	4.150900e-06	1.464949e-09	2.882690e+01	1.006634e+02
2.850000e-06	4.181723e-06	1.464868e-09	2.904095e+01	1.009751e+02
2.860000e-06	4.212165e-06	1.466275e-09	2.925237e+01	1.012814e+02
2.870000e-06	4.242327e-06	1.470754e-09	2.946183e+01	1.015826e+02
2.880000e-06	4.272258e-06	1.476369e-09	2.966970e+01	1.018787e+02
2.890000e-06	4.301965e-06	1.484283e-09	2.987600e+01	1.021700e+02
2.900000e-06	4.331431e-06	1.488511e-09	3.008064e+01	1.024566e+02
