# Temperatura_=_12.32
# Concentracion g/m^3_=_1620.0
# C_Vs_to_Am_M_A/Vsm_=_65563218390.804596
# pendiente_HvsI_1/m_=_3716.3
# ordenada_HvsI_A/m_=_1297.0
# frecuencia_Hz_=_135095.73345990642

Tiempo_(s)	Campo_(V.s)	Magnetizacion_(V.s)	Campo_(kA/m)	Magnetizacion_(A/m)
0.000000e+00	-5.529235e-06	-1.625763e-09	-3.837687e+01	-1.075545e+02
1.000000e-08	-5.529351e-06	-1.623948e-09	-3.837767e+01	-1.075226e+02
2.000000e-08	-5.529151e-06	-1.625521e-09	-3.837628e+01	-1.074937e+02
3.000000e-08	-5.528566e-06	-1.629707e-09	-3.837222e+01	-1.074682e+02
4.000000e-08	-5.527607e-06	-1.631993e-09	-3.836556e+01	-1.074461e+02
5.000000e-08	-5.526191e-06	-1.627784e-09	-3.835574e+01	-1.074277e+02
6.000000e-08	-5.524156e-06	-1.615100e-09	-3.834161e+01	-1.074128e+02
7.000000e-08	-5.521489e-06	-1.617907e-09	-3.832310e+01	-1.074014e+02
8.000000e-08	-5.518272e-06	-1.656419e-09	-3.830077e+01	-1.073933e+02
9.000000e-08	-5.514591e-06	-1.684799e-09	-3.827523e+01	-1.073881e+02
1.000000e-07	-5.510517e-06	-1.642070e-09	-3.824695e+01	-1.073856e+02
1.100000e-07	-5.506196e-06	-1.599302e-09	-3.821696e+01	-1.073851e+02
1.200000e-07	-5.501630e-06	-1.583904e-09	-3.818526e+01	-1.073862e+02
1.300000e-07	-5.496704e-06	-1.628580e-09	-3.815108e+01	-1.073880e+02
1.400000e-07	-5.491388e-06	-1.631018e-09	-3.811418e+01	-1.073900e+02
1.500000e-07	-5.485773e-06	-1.619380e-09	-3.807520e+01	-1.073913e+02
1.600000e-07	-5.479782e-06	-1.596653e-09	-3.803362e+01	-1.073910e+02
1.700000e-07	-5.473311e-06	-1.620686e-09	-3.798871e+01	-1.073881e+02
1.800000e-07	-5.466409e-06	-1.634898e-09	-3.794080e+01	-1.073818e+02
1.900000e-07	-5.459199e-06	-1.623521e-09	-3.789076e+01	-1.073710e+02
2.000000e-07	-5.451736e-06	-1.601157e-09	-3.783897e+01	-1.073549e+02
2.100000e-07	-5.444009e-06	-1.615785e-09	-3.778533e+01	-1.073323e+02
2.200000e-07	-5.436089e-06	-1.647387e-09	-3.773036e+01	-1.073025e+02
2.300000e-07	-5.427847e-06	-1.641760e-09	-3.767316e+01	-1.072644e+02
2.400000e-07	-5.418992e-06	-1.619503e-09	-3.761169e+01	-1.072173e+02
2.500000e-07	-5.409439e-06	-1.613785e-09	-3.754539e+01	-1.071604e+02
2.600000e-07	-5.399206e-06	-1.632287e-09	-3.747437e+01	-1.070930e+02
2.700000e-07	-5.388336e-06	-1.624456e-09	-3.739892e+01	-1.070146e+02
2.800000e-07	-5.377035e-06	-1.618603e-09	-3.732048e+01	-1.069245e+02
2.900000e-07	-5.365380e-06	-1.605618e-09	-3.723959e+01	-1.068226e+02
3.000000e-07	-5.353404e-06	-1.615696e-09	-3.715647e+01	-1.067085e+02
3.100000e-07	-5.340989e-06	-1.597978e-09	-3.707030e+01	-1.065820e+02
3.200000e-07	-5.328122e-06	-1.603791e-09	-3.698100e+01	-1.064433e+02
3.300000e-07	-5.314941e-06	-1.597597e-09	-3.688951e+01	-1.062924e+02
3.400000e-07	-5.301326e-06	-1.612034e-09	-3.679501e+01	-1.061296e+02
3.500000e-07	-5.287262e-06	-1.604142e-09	-3.669740e+01	-1.059553e+02
3.600000e-07	-5.272773e-06	-1.615174e-09	-3.659683e+01	-1.057700e+02
3.700000e-07	-5.257793e-06	-1.597405e-09	-3.649286e+01	-1.055742e+02
3.800000e-07	-5.242309e-06	-1.582146e-09	-3.638539e+01	-1.053687e+02
3.900000e-07	-5.226222e-06	-1.583439e-09	-3.627374e+01	-1.051543e+02
4.000000e-07	-5.209685e-06	-1.595636e-09	-3.615896e+01	-1.049318e+02
4.100000e-07	-5.192890e-06	-1.577489e-09	-3.604238e+01	-1.047022e+02
4.200000e-07	-5.175743e-06	-1.565308e-09	-3.592337e+01	-1.044663e+02
4.300000e-07	-5.158263e-06	-1.580171e-09	-3.580205e+01	-1.042254e+02
4.400000e-07	-5.140460e-06	-1.579169e-09	-3.567849e+01	-1.039802e+02
4.500000e-07	-5.122228e-06	-1.561409e-09	-3.555194e+01	-1.037319e+02
4.600000e-07	-5.103593e-06	-1.565883e-09	-3.542260e+01	-1.034814e+02
4.700000e-07	-5.084599e-06	-1.571181e-09	-3.529077e+01	-1.032296e+02
4.800000e-07	-5.065359e-06	-1.551814e-09	-3.515723e+01	-1.029776e+02
4.900000e-07	-5.045894e-06	-1.546323e-09	-3.502213e+01	-1.027260e+02
5.000000e-07	-5.026175e-06	-1.551427e-09	-3.488527e+01	-1.024757e+02
5.100000e-07	-5.006182e-06	-1.537853e-09	-3.474650e+01	-1.022273e+02
5.200000e-07	-4.985818e-06	-1.526987e-09	-3.460516e+01	-1.019815e+02
5.300000e-07	-4.965135e-06	-1.547992e-09	-3.446160e+01	-1.017386e+02
5.400000e-07	-4.944096e-06	-1.545707e-09	-3.431558e+01	-1.014991e+02
5.500000e-07	-4.922685e-06	-1.535650e-09	-3.416697e+01	-1.012631e+02
5.600000e-07	-4.900968e-06	-1.538111e-09	-3.401624e+01	-1.010310e+02
5.700000e-07	-4.878895e-06	-1.534123e-09	-3.386304e+01	-1.008025e+02
5.800000e-07	-4.856426e-06	-1.506495e-09	-3.370709e+01	-1.005778e+02
5.900000e-07	-4.833580e-06	-1.507550e-09	-3.354852e+01	-1.003565e+02
6.000000e-07	-4.810426e-06	-1.510619e-09	-3.338781e+01	-1.001384e+02
6.100000e-07	-4.787027e-06	-1.501298e-09	-3.322540e+01	-9.992310e+01
6.200000e-07	-4.763401e-06	-1.497384e-09	-3.306142e+01	-9.971017e+01
6.300000e-07	-4.739587e-06	-1.512259e-09	-3.289614e+01	-9.949906e+01
6.400000e-07	-4.715556e-06	-1.503800e-09	-3.272934e+01	-9.928917e+01
6.500000e-07	-4.691114e-06	-1.490850e-09	-3.255970e+01	-9.907987e+01
6.600000e-07	-4.666185e-06	-1.490782e-09	-3.238667e+01	-9.887049e+01
6.700000e-07	-4.640783e-06	-1.490612e-09	-3.221037e+01	-9.866035e+01
6.800000e-07	-4.614871e-06	-1.472960e-09	-3.203052e+01	-9.844874e+01
6.900000e-07	-4.588399e-06	-1.467706e-09	-3.184679e+01	-9.823498e+01
7.000000e-07	-4.561398e-06	-1.469178e-09	-3.165938e+01	-9.801841e+01
7.100000e-07	-4.533981e-06	-1.463947e-09	-3.146908e+01	-9.779837e+01
7.200000e-07	-4.506336e-06	-1.456938e-09	-3.127721e+01	-9.757426e+01
7.300000e-07	-4.478579e-06	-1.457447e-09	-3.108455e+01	-9.734555e+01
7.400000e-07	-4.450621e-06	-1.450443e-09	-3.089051e+01	-9.711173e+01
7.500000e-07	-4.422461e-06	-1.442377e-09	-3.069505e+01	-9.687237e+01
7.600000e-07	-4.394059e-06	-1.443405e-09	-3.049792e+01	-9.662712e+01
7.700000e-07	-4.365265e-06	-1.440578e-09	-3.029807e+01	-9.637568e+01
7.800000e-07	-4.336138e-06	-1.431818e-09	-3.009591e+01	-9.611784e+01
7.900000e-07	-4.306778e-06	-1.427379e-09	-2.989213e+01	-9.585346e+01
8.000000e-07	-4.277136e-06	-1.426163e-09	-2.968640e+01	-9.558246e+01
8.100000e-07	-4.247198e-06	-1.414381e-09	-2.947861e+01	-9.530484e+01
8.200000e-07	-4.216989e-06	-1.405350e-09	-2.926894e+01	-9.502067e+01
8.300000e-07	-4.186486e-06	-1.400401e-09	-2.905722e+01	-9.473007e+01
8.400000e-07	-4.155593e-06	-1.395296e-09	-2.884280e+01	-9.443321e+01
8.500000e-07	-4.124409e-06	-1.390337e-09	-2.862636e+01	-9.413031e+01
8.600000e-07	-4.093097e-06	-1.390941e-09	-2.840903e+01	-9.382163e+01
8.700000e-07	-4.061601e-06	-1.382546e-09	-2.819043e+01	-9.350745e+01
8.800000e-07	-4.029852e-06	-1.372668e-09	-2.797007e+01	-9.318808e+01
8.900000e-07	-3.997938e-06	-1.363433e-09	-2.774856e+01	-9.286384e+01
9.000000e-07	-3.965853e-06	-1.357453e-09	-2.752587e+01	-9.253504e+01
9.100000e-07	-3.933450e-06	-1.348642e-09	-2.730097e+01	-9.220201e+01
9.200000e-07	-3.900638e-06	-1.346202e-09	-2.707323e+01	-9.186504e+01
9.300000e-07	-3.867402e-06	-1.343938e-09	-2.684255e+01	-9.152442e+01
9.400000e-07	-3.833680e-06	-1.340335e-09	-2.660849e+01	-9.118040e+01
9.500000e-07	-3.799455e-06	-1.335477e-09	-2.637095e+01	-9.083322e+01
9.600000e-07	-3.764815e-06	-1.332389e-09	-2.613052e+01	-9.048306e+01
9.700000e-07	-3.729781e-06	-1.323701e-09	-2.588736e+01	-9.013008e+01
9.800000e-07	-3.694499e-06	-1.313880e-09	-2.564248e+01	-8.977440e+01
9.900000e-07	-3.659053e-06	-1.303948e-09	-2.539646e+01	-8.941610e+01
1.000000e-06	-3.623397e-06	-1.294834e-09	-2.514898e+01	-8.905521e+01
1.010000e-06	-3.587619e-06	-1.287989e-09	-2.490065e+01	-8.869173e+01
1.020000e-06	-3.551691e-06	-1.285163e-09	-2.465129e+01	-8.832562e+01
1.030000e-06	-3.515592e-06	-1.282922e-09	-2.440073e+01	-8.795682e+01
1.040000e-06	-3.479251e-06	-1.280168e-09	-2.414850e+01	-8.758522e+01
1.050000e-06	-3.442565e-06	-1.276757e-09	-2.389388e+01	-8.721071e+01
1.060000e-06	-3.405689e-06	-1.270113e-09	-2.363793e+01	-8.683313e+01
1.070000e-06	-3.368545e-06	-1.261272e-09	-2.338012e+01	-8.645232e+01
1.080000e-06	-3.331127e-06	-1.251651e-09	-2.312041e+01	-8.606813e+01
1.090000e-06	-3.293544e-06	-1.242753e-09	-2.285956e+01	-8.568036e+01
1.100000e-06	-3.255745e-06	-1.235032e-09	-2.259721e+01	-8.528884e+01
1.110000e-06	-3.217735e-06	-1.229416e-09	-2.233339e+01	-8.489340e+01
1.120000e-06	-3.179557e-06	-1.222060e-09	-2.206841e+01	-8.449387e+01
1.130000e-06	-3.141149e-06	-1.214207e-09	-2.180183e+01	-8.409010e+01
1.140000e-06	-3.102450e-06	-1.206723e-09	-2.153323e+01	-8.368193e+01
1.150000e-06	-3.063524e-06	-1.203385e-09	-2.126306e+01	-8.326923e+01
1.160000e-06	-3.024413e-06	-1.198652e-09	-2.099160e+01	-8.285190e+01
1.170000e-06	-2.985143e-06	-1.191242e-09	-2.071903e+01	-8.242982e+01
1.180000e-06	-2.945667e-06	-1.182599e-09	-2.044505e+01	-8.200290e+01
1.190000e-06	-2.906012e-06	-1.176143e-09	-2.016981e+01	-8.157108e+01
1.200000e-06	-2.866291e-06	-1.166165e-09	-1.989412e+01	-8.113428e+01
1.210000e-06	-2.826453e-06	-1.155801e-09	-1.961762e+01	-8.069244e+01
1.220000e-06	-2.786479e-06	-1.147080e-09	-1.934016e+01	-8.024551e+01
1.230000e-06	-2.746360e-06	-1.143028e-09	-1.906171e+01	-7.979342e+01
1.240000e-06	-2.706022e-06	-1.140370e-09	-1.878173e+01	-7.933611e+01
1.250000e-06	-2.665402e-06	-1.138092e-09	-1.849980e+01	-7.887351e+01
1.260000e-06	-2.624506e-06	-1.132826e-09	-1.821596e+01	-7.840553e+01
1.270000e-06	-2.583278e-06	-1.122815e-09	-1.792981e+01	-7.793205e+01
1.280000e-06	-2.541743e-06	-1.108738e-09	-1.764153e+01	-7.745294e+01
1.290000e-06	-2.499913e-06	-1.095000e-09	-1.735119e+01	-7.696803e+01
1.300000e-06	-2.457808e-06	-1.084834e-09	-1.705896e+01	-7.647714e+01
1.310000e-06	-2.415425e-06	-1.078237e-09	-1.676479e+01	-7.598002e+01
1.320000e-06	-2.372810e-06	-1.072517e-09	-1.646901e+01	-7.547641e+01
1.330000e-06	-2.330008e-06	-1.065800e-09	-1.617193e+01	-7.496601e+01
1.340000e-06	-2.286983e-06	-1.057308e-09	-1.587331e+01	-7.444846e+01
1.350000e-06	-2.243756e-06	-1.049937e-09	-1.557328e+01	-7.392337e+01
1.360000e-06	-2.200317e-06	-1.042247e-09	-1.527178e+01	-7.339031e+01
1.370000e-06	-2.156791e-06	-1.031677e-09	-1.496968e+01	-7.284883e+01
1.380000e-06	-2.113182e-06	-1.019189e-09	-1.466700e+01	-7.229841e+01
1.390000e-06	-2.069465e-06	-1.005826e-09	-1.436358e+01	-7.173852e+01
1.400000e-06	-2.025688e-06	-9.951994e-10	-1.405973e+01	-7.116861e+01
1.410000e-06	-1.981807e-06	-9.854328e-10	-1.375516e+01	-7.058807e+01
1.420000e-06	-1.937785e-06	-9.756404e-10	-1.344962e+01	-6.999632e+01
1.430000e-06	-1.893658e-06	-9.687670e-10	-1.314335e+01	-6.939271e+01
1.440000e-06	-1.849421e-06	-9.617872e-10	-1.283631e+01	-6.877664e+01
1.450000e-06	-1.805157e-06	-9.504359e-10	-1.252909e+01	-6.814746e+01
1.460000e-06	-1.760838e-06	-9.388948e-10	-1.222148e+01	-6.750454e+01
1.470000e-06	-1.716418e-06	-9.253501e-10	-1.191317e+01	-6.684726e+01
1.480000e-06	-1.671851e-06	-9.109194e-10	-1.160385e+01	-6.617500e+01
1.490000e-06	-1.627020e-06	-8.966585e-10	-1.129269e+01	-6.548715e+01
1.500000e-06	-1.582015e-06	-8.834538e-10	-1.098032e+01	-6.478314e+01
1.510000e-06	-1.536860e-06	-8.699240e-10	-1.066691e+01	-6.406239e+01
1.520000e-06	-1.491597e-06	-8.567760e-10	-1.035275e+01	-6.332437e+01
1.530000e-06	-1.446379e-06	-8.442920e-10	-1.003891e+01	-6.256855e+01
1.540000e-06	-1.401097e-06	-8.325205e-10	-9.724622e+00	-6.179442e+01
1.550000e-06	-1.355601e-06	-8.203560e-10	-9.408844e+00	-6.100151e+01
1.560000e-06	-1.309975e-06	-8.085604e-10	-9.092165e+00	-6.018935e+01
1.570000e-06	-1.264332e-06	-7.971232e-10	-8.775370e+00	-5.935750e+01
1.580000e-06	-1.218657e-06	-7.846790e-10	-8.458356e+00	-5.850550e+01
1.590000e-06	-1.172919e-06	-7.680753e-10	-8.140903e+00	-5.763292e+01
1.600000e-06	-1.127005e-06	-7.522582e-10	-7.822222e+00	-5.673935e+01
1.610000e-06	-1.080933e-06	-7.383512e-10	-7.502453e+00	-5.582433e+01
1.620000e-06	-1.034837e-06	-7.265997e-10	-7.182514e+00	-5.488742e+01
1.630000e-06	-9.886737e-07	-7.176034e-10	-6.862106e+00	-5.392815e+01
1.640000e-06	-9.424255e-07	-7.078852e-10	-6.541110e+00	-5.294606e+01
1.650000e-06	-8.960807e-07	-6.931065e-10	-6.219444e+00	-5.194063e+01
1.660000e-06	-8.496557e-07	-6.740866e-10	-5.897221e+00	-5.091131e+01
1.670000e-06	-8.032709e-07	-6.544575e-10	-5.575277e+00	-4.985755e+01
1.680000e-06	-7.568530e-07	-6.350001e-10	-5.253104e+00	-4.877873e+01
1.690000e-06	-7.102907e-07	-6.167226e-10	-4.929928e+00	-4.767421e+01
1.700000e-06	-6.636900e-07	-5.988032e-10	-4.606485e+00	-4.654329e+01
1.710000e-06	-6.171057e-07	-5.841803e-10	-4.283157e+00	-4.538527e+01
1.720000e-06	-5.704585e-07	-5.685411e-10	-3.959392e+00	-4.419938e+01
1.730000e-06	-5.237297e-07	-5.497417e-10	-3.635061e+00	-4.298484e+01
1.740000e-06	-4.769426e-07	-5.285098e-10	-3.310325e+00	-4.174084e+01
1.750000e-06	-4.300164e-07	-5.078431e-10	-2.984623e+00	-4.046655e+01
1.760000e-06	-3.831553e-07	-4.866907e-10	-2.659373e+00	-3.916112e+01
1.770000e-06	-3.363230e-07	-4.639346e-10	-2.334323e+00	-3.782373e+01
1.780000e-06	-2.893696e-07	-4.442965e-10	-2.008433e+00	-3.645355e+01
1.790000e-06	-2.423866e-07	-4.258063e-10	-1.682337e+00	-3.504978e+01
1.800000e-06	-1.953857e-07	-4.092765e-10	-1.356117e+00	-3.361168e+01
1.810000e-06	-1.483749e-07	-3.923427e-10	-1.029828e+00	-3.213854e+01
1.820000e-06	-1.013866e-07	-3.730789e-10	-7.036958e-01	-3.062972e+01
1.830000e-06	-5.446021e-08	-3.501322e-10	-3.779930e-01	-2.908470e+01
1.840000e-06	-7.533396e-09	-3.265015e-10	-5.228718e-02	-2.750302e+01
1.850000e-06	3.936850e-08	-3.033179e-10	2.732457e-01	-2.588437e+01
1.860000e-06	8.627167e-08	-2.777171e-10	5.987874e-01	-2.422856e+01
1.870000e-06	1.331607e-07	-2.531265e-10	9.242312e-01	-2.253556e+01
1.880000e-06	1.800176e-07	-2.306479e-10	1.249451e+00	-2.080548e+01
1.890000e-06	2.268483e-07	-2.084549e-10	1.574490e+00	-1.903863e+01
1.900000e-06	2.736621e-07	-1.826080e-10	1.899412e+00	-1.723549e+01
1.910000e-06	3.204640e-07	-1.539263e-10	2.224250e+00	-1.539674e+01
1.920000e-06	3.672914e-07	-1.241837e-10	2.549266e+00	-1.352327e+01
1.930000e-06	4.141034e-07	-9.253117e-11	2.874175e+00	-1.161616e+01
1.940000e-06	4.607932e-07	-6.102351e-11	3.198236e+00	-9.676708e+00
1.950000e-06	5.074988e-07	-3.531778e-11	3.522407e+00	-7.706425e+00
1.960000e-06	5.541739e-07	-1.479366e-11	3.846365e+00	-5.707023e+00
1.970000e-06	6.007570e-07	3.954317e-12	4.169685e+00	-3.680416e+00
1.980000e-06	6.473621e-07	2.663919e-11	4.493158e+00	-1.628715e+00
1.990000e-06	6.939285e-07	5.522514e-11	4.816363e+00	4.457864e-01
2.000000e-06	7.403862e-07	9.198819e-11	5.138812e+00	2.540622e+00
2.010000e-06	7.868305e-07	1.308246e-10	5.461169e+00	4.653169e+00
2.020000e-06	8.332629e-07	1.660550e-10	5.783443e+00	6.780663e+00
2.030000e-06	8.795583e-07	1.977180e-10	6.104767e+00	8.920217e+00
2.040000e-06	9.256677e-07	2.244234e-10	6.424799e+00	1.106884e+01
2.050000e-06	9.716376e-07	2.475308e-10	6.743863e+00	1.322347e+01
2.060000e-06	1.017662e-06	2.699512e-10	7.063302e+00	1.538098e+01
2.070000e-06	1.063792e-06	2.969176e-10	7.383482e+00	1.753820e+01
2.080000e-06	1.109826e-06	3.303335e-10	7.702990e+00	1.969196e+01
2.090000e-06	1.155676e-06	3.676534e-10	8.021221e+00	2.183911e+01
2.100000e-06	1.201386e-06	4.069821e-10	8.338485e+00	2.397650e+01
2.110000e-06	1.247052e-06	4.438656e-10	8.655434e+00	2.610109e+01
2.120000e-06	1.292651e-06	4.738090e-10	8.971929e+00	2.820989e+01
2.130000e-06	1.338125e-06	4.979739e-10	9.287549e+00	3.030001e+01
2.140000e-06	1.383492e-06	5.193237e-10	9.602430e+00	3.236870e+01
2.150000e-06	1.428782e-06	5.414727e-10	9.916772e+00	3.441334e+01
2.160000e-06	1.474046e-06	5.643010e-10	1.023094e+01	3.643146e+01
2.170000e-06	1.519198e-06	5.911896e-10	1.054432e+01	3.842078e+01
2.180000e-06	1.564190e-06	6.246180e-10	1.085660e+01	4.037918e+01
2.190000e-06	1.609030e-06	6.591921e-10	1.116782e+01	4.230474e+01
2.200000e-06	1.653754e-06	6.902379e-10	1.147824e+01	4.419575e+01
2.210000e-06	1.698330e-06	7.157809e-10	1.178763e+01	4.605069e+01
2.220000e-06	1.742703e-06	7.361994e-10	1.209561e+01	4.786826e+01
2.230000e-06	1.787026e-06	7.567231e-10	1.240324e+01	4.964735e+01
2.240000e-06	1.831271e-06	7.778419e-10	1.271034e+01	5.138706e+01
2.250000e-06	1.875370e-06	7.994331e-10	1.301642e+01	5.308670e+01
2.260000e-06	1.919421e-06	8.238197e-10	1.332216e+01	5.474578e+01
2.270000e-06	1.963412e-06	8.498993e-10	1.362749e+01	5.636396e+01
2.280000e-06	2.007341e-06	8.746048e-10	1.393239e+01	5.794112e+01
2.290000e-06	2.051183e-06	8.960051e-10	1.423668e+01	5.947728e+01
2.300000e-06	2.094973e-06	9.149212e-10	1.454062e+01	6.097262e+01
2.310000e-06	2.138721e-06	9.333380e-10	1.484426e+01	6.242745e+01
2.320000e-06	2.182310e-06	9.507873e-10	1.514680e+01	6.384223e+01
2.330000e-06	2.225792e-06	9.661493e-10	1.544860e+01	6.521750e+01
2.340000e-06	2.269142e-06	9.813239e-10	1.574948e+01	6.655391e+01
2.350000e-06	2.312216e-06	9.991873e-10	1.604844e+01	6.785221e+01
2.360000e-06	2.355103e-06	1.019608e-09	1.634610e+01	6.911318e+01
2.370000e-06	2.397828e-06	1.037543e-09	1.664265e+01	7.033768e+01
2.380000e-06	2.440234e-06	1.051691e-09	1.693698e+01	7.152661e+01
2.390000e-06	2.482290e-06	1.065857e-09	1.722888e+01	7.268088e+01
2.400000e-06	2.523961e-06	1.079918e-09	1.751810e+01	7.380143e+01
2.410000e-06	2.565303e-06	1.093925e-09	1.780505e+01	7.488919e+01
2.420000e-06	2.606300e-06	1.107820e-09	1.808960e+01	7.594511e+01
2.430000e-06	2.646931e-06	1.121430e-09	1.837160e+01	7.697010e+01
2.440000e-06	2.687357e-06	1.133498e-09	1.865219e+01	7.796506e+01
2.450000e-06	2.727741e-06	1.145009e-09	1.893248e+01	7.893087e+01
2.460000e-06	2.767986e-06	1.156771e-09	1.921181e+01	7.986837e+01
2.470000e-06	2.808069e-06	1.168414e-09	1.949002e+01	8.077839e+01
2.480000e-06	2.848046e-06	1.179881e-09	1.976749e+01	8.166169e+01
2.490000e-06	2.887815e-06	1.191313e-09	2.004351e+01	8.251902e+01
2.500000e-06	2.927429e-06	1.203467e-09	2.031846e+01	8.335108e+01
2.510000e-06	2.966943e-06	1.215218e-09	2.059272e+01	8.415854e+01
2.520000e-06	3.006278e-06	1.226271e-09	2.086573e+01	8.494206e+01
2.530000e-06	3.045361e-06	1.235886e-09	2.113699e+01	8.570223e+01
2.540000e-06	3.084279e-06	1.244379e-09	2.140711e+01	8.643963e+01
2.550000e-06	3.123065e-06	1.252751e-09	2.167632e+01	8.715484e+01
2.560000e-06	3.161580e-06	1.261165e-09	2.194364e+01	8.784839e+01
2.570000e-06	3.199756e-06	1.268864e-09	2.220860e+01	8.852080e+01
2.580000e-06	3.237776e-06	1.276417e-09	2.247249e+01	8.917260e+01
2.590000e-06	3.275679e-06	1.284936e-09	2.273556e+01	8.980430e+01
2.600000e-06	3.313420e-06	1.292926e-09	2.299752e+01	9.041640e+01
2.610000e-06	3.350852e-06	1.301672e-09	2.325732e+01	9.100941e+01
2.620000e-06	3.387930e-06	1.312410e-09	2.351467e+01	9.158384e+01
2.630000e-06	3.424804e-06	1.323015e-09	2.377060e+01	9.214020e+01
2.640000e-06	3.461446e-06	1.332701e-09	2.402492e+01	9.267904e+01
2.650000e-06	3.497834e-06	1.339510e-09	2.427748e+01	9.320088e+01
2.660000e-06	3.533961e-06	1.343604e-09	2.452823e+01	9.370626e+01
2.670000e-06	3.569899e-06	1.347411e-09	2.477766e+01	9.419576e+01
2.680000e-06	3.605711e-06	1.352886e-09	2.502622e+01	9.466993e+01
2.690000e-06	3.641419e-06	1.361613e-09	2.527406e+01	9.512936e+01
2.700000e-06	3.676991e-06	1.372901e-09	2.552096e+01	9.557463e+01
2.710000e-06	3.712366e-06	1.383339e-09	2.576648e+01	9.600634e+01
2.720000e-06	3.747517e-06	1.392342e-09	2.601046e+01	9.642509e+01
2.730000e-06	3.782331e-06	1.398101e-09	2.625210e+01	9.683146e+01
2.740000e-06	3.816726e-06	1.402215e-09	2.649082e+01	9.722606e+01
2.750000e-06	3.850571e-06	1.404852e-09	2.672573e+01	9.760947e+01
2.760000e-06	3.883873e-06	1.406825e-09	2.695687e+01	9.798227e+01
2.770000e-06	3.916737e-06	1.412670e-09	2.718497e+01	9.834502e+01
2.780000e-06	3.949223e-06	1.420233e-09	2.741044e+01	9.869827e+01
2.790000e-06	3.981434e-06	1.428125e-09	2.763401e+01	9.904253e+01
2.800000e-06	4.013422e-06	1.436197e-09	2.785603e+01	9.937831e+01
2.810000e-06	4.045287e-06	1.443742e-09	2.807720e+01	9.970606e+01
2.820000e-06	4.077031e-06	1.449554e-09	2.829753e+01	1.000262e+02
2.830000e-06	4.108614e-06	1.453435e-09	2.851673e+01	1.003392e+02
2.840000e-06	4.139976e-06	1.456675e-09	2.873441e+01	1.006453e+02
2.850000e-06	4.171018e-06	1.459010e-09	2.894986e+01	1.009449e+02
2.860000e-06	4.201725e-06	1.460309e-09	2.916299e+01	1.012383e+02
2.870000e-06	4.232103e-06	1.465037e-09	2.937383e+01	1.015256e+02
2.880000e-06	4.262155e-06	1.472093e-09	2.958242e+01	1.018071e+02
2.890000e-06	4.291921e-06	1.477417e-09	2.978901e+01	1.020828e+02
2.900000e-06	4.321423e-06	1.481641e-09	2.999378e+01	1.023530e+02
