# Temperatura_=_13.95
# Concentracion g/m^3_=_1620.0
# C_Vs_to_Am_M_A/Vsm_=_65563218390.804596
# pendiente_HvsI_1/m_=_3716.3
# ordenada_HvsI_A/m_=_1297.0
# frecuencia_Hz_=_135095.71225373936

Tiempo_(s)	Campo_(V.s)	Magnetizacion_(V.s)	Campo_(kA/m)	Magnetizacion_(A/m)
0.000000e+00	-5.522480e-06	-1.651899e-09	-3.837586e+01	-1.084965e+02
1.000000e-08	-5.522597e-06	-1.647116e-09	-3.837668e+01	-1.084383e+02
2.000000e-08	-5.522479e-06	-1.645324e-09	-3.837585e+01	-1.083829e+02
3.000000e-08	-5.522061e-06	-1.645919e-09	-3.837295e+01	-1.083309e+02
4.000000e-08	-5.521156e-06	-1.648358e-09	-3.836666e+01	-1.082830e+02
5.000000e-08	-5.519771e-06	-1.645910e-09	-3.835704e+01	-1.082397e+02
6.000000e-08	-5.517882e-06	-1.635679e-09	-3.834391e+01	-1.082017e+02
7.000000e-08	-5.515292e-06	-1.635408e-09	-3.832591e+01	-1.081691e+02
8.000000e-08	-5.512015e-06	-1.641730e-09	-3.830314e+01	-1.081423e+02
9.000000e-08	-5.508289e-06	-1.677857e-09	-3.827724e+01	-1.081213e+02
1.000000e-07	-5.504249e-06	-1.713725e-09	-3.824917e+01	-1.081061e+02
1.100000e-07	-5.499936e-06	-1.678341e-09	-3.821920e+01	-1.080966e+02
1.200000e-07	-5.495421e-06	-1.542399e-09	-3.818783e+01	-1.080923e+02
1.300000e-07	-5.490594e-06	-1.594402e-09	-3.815428e+01	-1.080928e+02
1.400000e-07	-5.485327e-06	-1.661752e-09	-3.811768e+01	-1.080974e+02
1.500000e-07	-5.479688e-06	-1.705451e-09	-3.807850e+01	-1.081054e+02
1.600000e-07	-5.473662e-06	-1.561925e-09	-3.803662e+01	-1.081158e+02
1.700000e-07	-5.467252e-06	-1.590683e-09	-3.799208e+01	-1.081278e+02
1.800000e-07	-5.460333e-06	-1.686366e-09	-3.794400e+01	-1.081400e+02
1.900000e-07	-5.452955e-06	-1.704857e-09	-3.789273e+01	-1.081514e+02
2.000000e-07	-5.445302e-06	-1.608408e-09	-3.783954e+01	-1.081606e+02
2.100000e-07	-5.437434e-06	-1.605909e-09	-3.778488e+01	-1.081664e+02
2.200000e-07	-5.429368e-06	-1.702437e-09	-3.772882e+01	-1.081674e+02
2.300000e-07	-5.421068e-06	-1.712872e-09	-3.767115e+01	-1.081623e+02
2.400000e-07	-5.412356e-06	-1.664193e-09	-3.761061e+01	-1.081497e+02
2.500000e-07	-5.403014e-06	-1.616683e-09	-3.754568e+01	-1.081286e+02
2.600000e-07	-5.392888e-06	-1.673656e-09	-3.747532e+01	-1.080976e+02
2.700000e-07	-5.382091e-06	-1.658386e-09	-3.740029e+01	-1.080556e+02
2.800000e-07	-5.370869e-06	-1.653081e-09	-3.732231e+01	-1.080017e+02
2.900000e-07	-5.359232e-06	-1.614604e-09	-3.724144e+01	-1.079351e+02
3.000000e-07	-5.347172e-06	-1.668307e-09	-3.715764e+01	-1.078551e+02
3.100000e-07	-5.334710e-06	-1.642011e-09	-3.707104e+01	-1.077611e+02
3.200000e-07	-5.321859e-06	-1.644908e-09	-3.698174e+01	-1.076527e+02
3.300000e-07	-5.308534e-06	-1.598123e-09	-3.688915e+01	-1.075298e+02
3.400000e-07	-5.294891e-06	-1.655680e-09	-3.679434e+01	-1.073923e+02
3.500000e-07	-5.280988e-06	-1.647175e-09	-3.669773e+01	-1.072405e+02
3.600000e-07	-5.266730e-06	-1.632939e-09	-3.659865e+01	-1.070746e+02
3.700000e-07	-5.251961e-06	-1.604912e-09	-3.649602e+01	-1.068952e+02
3.800000e-07	-5.236688e-06	-1.663906e-09	-3.638988e+01	-1.067030e+02
3.900000e-07	-5.220721e-06	-1.624179e-09	-3.627893e+01	-1.064987e+02
4.000000e-07	-5.204137e-06	-1.579559e-09	-3.616368e+01	-1.062834e+02
4.100000e-07	-5.187313e-06	-1.624421e-09	-3.604677e+01	-1.060580e+02
4.200000e-07	-5.170306e-06	-1.657741e-09	-3.592859e+01	-1.058237e+02
4.300000e-07	-5.153002e-06	-1.574386e-09	-3.580834e+01	-1.055818e+02
4.400000e-07	-5.135268e-06	-1.574048e-09	-3.568511e+01	-1.053336e+02
4.500000e-07	-5.117171e-06	-1.663066e-09	-3.555936e+01	-1.050802e+02
4.600000e-07	-5.098572e-06	-1.596984e-09	-3.543011e+01	-1.048230e+02
4.700000e-07	-5.079478e-06	-1.525344e-09	-3.529743e+01	-1.045632e+02
4.800000e-07	-5.060128e-06	-1.600503e-09	-3.516296e+01	-1.043022e+02
4.900000e-07	-5.040576e-06	-1.628499e-09	-3.502710e+01	-1.040409e+02
5.000000e-07	-5.020793e-06	-1.524520e-09	-3.488962e+01	-1.037804e+02
5.100000e-07	-5.000755e-06	-1.568713e-09	-3.475038e+01	-1.035218e+02
5.200000e-07	-4.980450e-06	-1.616554e-09	-3.460928e+01	-1.032657e+02
5.300000e-07	-4.959859e-06	-1.541902e-09	-3.446619e+01	-1.030129e+02
5.400000e-07	-4.938875e-06	-1.520743e-09	-3.432037e+01	-1.027638e+02
5.500000e-07	-4.917479e-06	-1.616274e-09	-3.417169e+01	-1.025190e+02
5.600000e-07	-4.895737e-06	-1.550290e-09	-3.402061e+01	-1.022785e+02
5.700000e-07	-4.873723e-06	-1.498448e-09	-3.386763e+01	-1.020424e+02
5.800000e-07	-4.851437e-06	-1.567463e-09	-3.371276e+01	-1.018106e+02
5.900000e-07	-4.828826e-06	-1.580685e-09	-3.355564e+01	-1.015829e+02
6.000000e-07	-4.805787e-06	-1.493543e-09	-3.339554e+01	-1.013588e+02
6.100000e-07	-4.782380e-06	-1.538645e-09	-3.323288e+01	-1.011379e+02
6.200000e-07	-4.758806e-06	-1.563523e-09	-3.306907e+01	-1.009194e+02
6.300000e-07	-4.735017e-06	-1.509572e-09	-3.290376e+01	-1.007027e+02
6.400000e-07	-4.710959e-06	-1.506309e-09	-3.273658e+01	-1.004870e+02
6.500000e-07	-4.686635e-06	-1.554434e-09	-3.256755e+01	-1.002713e+02
6.600000e-07	-4.661803e-06	-1.511614e-09	-3.239499e+01	-1.000547e+02
6.700000e-07	-4.636402e-06	-1.497201e-09	-3.221848e+01	-9.983632e+01
6.800000e-07	-4.610552e-06	-1.525272e-09	-3.203885e+01	-9.961516e+01
6.900000e-07	-4.584130e-06	-1.508927e-09	-3.185524e+01	-9.939031e+01
7.000000e-07	-4.557116e-06	-1.479351e-09	-3.166752e+01	-9.916089e+01
7.100000e-07	-4.529769e-06	-1.503770e-09	-3.147748e+01	-9.892606e+01
7.200000e-07	-4.502209e-06	-1.501386e-09	-3.128597e+01	-9.868506e+01
7.300000e-07	-4.474450e-06	-1.473308e-09	-3.109307e+01	-9.843721e+01
7.400000e-07	-4.446572e-06	-1.481392e-09	-3.089935e+01	-9.818195e+01
7.500000e-07	-4.418487e-06	-1.481903e-09	-3.070418e+01	-9.791879e+01
7.600000e-07	-4.390124e-06	-1.457714e-09	-3.050709e+01	-9.764739e+01
7.700000e-07	-4.361451e-06	-1.456291e-09	-3.030784e+01	-9.736749e+01
7.800000e-07	-4.332421e-06	-1.469551e-09	-3.010610e+01	-9.707899e+01
7.900000e-07	-4.303028e-06	-1.451740e-09	-2.990186e+01	-9.678188e+01
8.000000e-07	-4.273316e-06	-1.449979e-09	-2.969538e+01	-9.647626e+01
8.100000e-07	-4.243413e-06	-1.451290e-09	-2.948759e+01	-9.616235e+01
8.200000e-07	-4.213231e-06	-1.433948e-09	-2.927786e+01	-9.584046e+01
8.300000e-07	-4.182607e-06	-1.408883e-09	-2.906505e+01	-9.551100e+01
8.400000e-07	-4.151663e-06	-1.420820e-09	-2.885002e+01	-9.517442e+01
8.500000e-07	-4.120505e-06	-1.415032e-09	-2.863350e+01	-9.483127e+01
8.600000e-07	-4.089142e-06	-1.404723e-09	-2.841556e+01	-9.448212e+01
8.700000e-07	-4.057619e-06	-1.400983e-09	-2.819650e+01	-9.412758e+01
8.800000e-07	-4.025932e-06	-1.403218e-09	-2.797631e+01	-9.376828e+01
8.900000e-07	-3.994048e-06	-1.377392e-09	-2.775475e+01	-9.340484e+01
9.000000e-07	-3.961933e-06	-1.370283e-09	-2.753157e+01	-9.303787e+01
9.100000e-07	-3.929560e-06	-1.367920e-09	-2.730661e+01	-9.266795e+01
9.200000e-07	-3.896766e-06	-1.359470e-09	-2.707873e+01	-9.229562e+01
9.300000e-07	-3.863571e-06	-1.350538e-09	-2.684805e+01	-9.192136e+01
9.400000e-07	-3.829983e-06	-1.361608e-09	-2.661466e+01	-9.154560e+01
9.500000e-07	-3.795901e-06	-1.352174e-09	-2.637781e+01	-9.116868e+01
9.600000e-07	-3.761447e-06	-1.336436e-09	-2.613839e+01	-9.079088e+01
9.700000e-07	-3.726606e-06	-1.331898e-09	-2.589629e+01	-9.041240e+01
9.800000e-07	-3.691377e-06	-1.328132e-09	-2.565148e+01	-9.003334e+01
9.900000e-07	-3.655900e-06	-1.309758e-09	-2.540495e+01	-8.965373e+01
1.000000e-06	-3.620249e-06	-1.301718e-09	-2.515721e+01	-8.927353e+01
1.010000e-06	-3.584475e-06	-1.301217e-09	-2.490861e+01	-8.889262e+01
1.020000e-06	-3.548599e-06	-1.292788e-09	-2.465931e+01	-8.851079e+01
1.030000e-06	-3.512646e-06	-1.287426e-09	-2.440947e+01	-8.812780e+01
1.040000e-06	-3.476443e-06	-1.289776e-09	-2.415789e+01	-8.774334e+01
1.050000e-06	-3.439827e-06	-1.284296e-09	-2.390345e+01	-8.735706e+01
1.060000e-06	-3.402859e-06	-1.268442e-09	-2.364656e+01	-8.696858e+01
1.070000e-06	-3.365669e-06	-1.262843e-09	-2.338813e+01	-8.657749e+01
1.080000e-06	-3.328332e-06	-1.254043e-09	-2.312867e+01	-8.618338e+01
1.090000e-06	-3.290777e-06	-1.242452e-09	-2.286769e+01	-8.578583e+01
1.100000e-06	-3.252949e-06	-1.234298e-09	-2.260483e+01	-8.538444e+01
1.110000e-06	-3.214860e-06	-1.233497e-09	-2.234014e+01	-8.497884e+01
1.120000e-06	-3.176567e-06	-1.223756e-09	-2.207405e+01	-8.456865e+01
1.130000e-06	-3.138197e-06	-1.218433e-09	-2.180741e+01	-8.415357e+01
1.140000e-06	-3.099628e-06	-1.212788e-09	-2.153940e+01	-8.373330e+01
1.150000e-06	-3.060664e-06	-1.205885e-09	-2.126863e+01	-8.330763e+01
1.160000e-06	-3.021491e-06	-1.191424e-09	-2.099642e+01	-8.287636e+01
1.170000e-06	-2.982222e-06	-1.184074e-09	-2.072354e+01	-8.243935e+01
1.180000e-06	-2.942763e-06	-1.175456e-09	-2.044934e+01	-8.199653e+01
1.190000e-06	-2.903098e-06	-1.169385e-09	-2.017371e+01	-8.154784e+01
1.200000e-06	-2.863316e-06	-1.164685e-09	-1.989726e+01	-8.109328e+01
1.210000e-06	-2.823482e-06	-1.163948e-09	-1.962045e+01	-8.063291e+01
1.220000e-06	-2.783579e-06	-1.156335e-09	-1.934317e+01	-8.016677e+01
1.230000e-06	-2.743516e-06	-1.150472e-09	-1.906477e+01	-7.969497e+01
1.240000e-06	-2.703208e-06	-1.144865e-09	-1.878466e+01	-7.921760e+01
1.250000e-06	-2.662656e-06	-1.136635e-09	-1.850286e+01	-7.873478e+01
1.260000e-06	-2.621861e-06	-1.127280e-09	-1.821938e+01	-7.824661e+01
1.270000e-06	-2.580912e-06	-1.119299e-09	-1.793483e+01	-7.775319e+01
1.280000e-06	-2.539715e-06	-1.108891e-09	-1.764854e+01	-7.725458e+01
1.290000e-06	-2.498199e-06	-1.099783e-09	-1.736005e+01	-7.675082e+01
1.300000e-06	-2.456408e-06	-1.091104e-09	-1.706964e+01	-7.624192e+01
1.310000e-06	-2.414296e-06	-1.084014e-09	-1.677701e+01	-7.572782e+01
1.320000e-06	-2.371841e-06	-1.075615e-09	-1.648198e+01	-7.520842e+01
1.330000e-06	-2.329089e-06	-1.066642e-09	-1.618490e+01	-7.468357e+01
1.340000e-06	-2.286049e-06	-1.057629e-09	-1.588582e+01	-7.415303e+01
1.350000e-06	-2.242734e-06	-1.049513e-09	-1.558482e+01	-7.361653e+01
1.360000e-06	-2.199227e-06	-1.042289e-09	-1.528249e+01	-7.307372e+01
1.370000e-06	-2.155597e-06	-1.031697e-09	-1.497930e+01	-7.252418e+01
1.380000e-06	-2.111936e-06	-1.019986e-09	-1.467590e+01	-7.196743e+01
1.390000e-06	-2.068181e-06	-1.007135e-09	-1.437184e+01	-7.140295e+01
1.400000e-06	-2.024335e-06	-9.975281e-10	-1.406716e+01	-7.083013e+01
1.410000e-06	-1.980472e-06	-9.869540e-10	-1.376235e+01	-7.024836e+01
1.420000e-06	-1.936559e-06	-9.772040e-10	-1.345720e+01	-6.965694e+01
1.430000e-06	-1.892566e-06	-9.667672e-10	-1.315149e+01	-6.905517e+01
1.440000e-06	-1.848497e-06	-9.578786e-10	-1.284526e+01	-6.844231e+01
1.450000e-06	-1.804381e-06	-9.460993e-10	-1.253869e+01	-6.781760e+01
1.460000e-06	-1.760180e-06	-9.349759e-10	-1.223153e+01	-6.718028e+01
1.470000e-06	-1.715773e-06	-9.229630e-10	-1.192295e+01	-6.652958e+01
1.480000e-06	-1.671185e-06	-9.126966e-10	-1.161311e+01	-6.586474e+01
1.490000e-06	-1.626424e-06	-8.983724e-10	-1.130206e+01	-6.518501e+01
1.500000e-06	-1.581552e-06	-8.834501e-10	-1.099025e+01	-6.448966e+01
1.510000e-06	-1.536552e-06	-8.700845e-10	-1.067754e+01	-6.377798e+01
1.520000e-06	-1.491251e-06	-8.606650e-10	-1.036274e+01	-6.304929e+01
1.530000e-06	-1.445908e-06	-8.499112e-10	-1.004766e+01	-6.230294e+01
1.540000e-06	-1.400606e-06	-8.396653e-10	-9.732849e+00	-6.153831e+01
1.550000e-06	-1.355154e-06	-8.249410e-10	-9.417003e+00	-6.075481e+01
1.560000e-06	-1.309588e-06	-8.100705e-10	-9.100363e+00	-5.995189e+01
1.570000e-06	-1.263991e-06	-7.951712e-10	-8.783509e+00	-5.912901e+01
1.580000e-06	-1.218386e-06	-7.815171e-10	-8.466599e+00	-5.828567e+01
1.590000e-06	-1.172726e-06	-7.667204e-10	-8.149302e+00	-5.742137e+01
1.600000e-06	-1.126974e-06	-7.514770e-10	-7.831371e+00	-5.653565e+01
1.610000e-06	-1.081050e-06	-7.393179e-10	-7.512245e+00	-5.562804e+01
1.620000e-06	-1.035036e-06	-7.309178e-10	-7.192492e+00	-5.469806e+01
1.630000e-06	-9.889541e-07	-7.229519e-10	-6.872268e+00	-5.374525e+01
1.640000e-06	-9.427863e-07	-7.102528e-10	-6.551447e+00	-5.276912e+01
1.650000e-06	-8.965945e-07	-6.938062e-10	-6.230459e+00	-5.176916e+01
1.660000e-06	-8.503218e-07	-6.737227e-10	-5.908908e+00	-5.074484e+01
1.670000e-06	-8.039597e-07	-6.534869e-10	-5.586737e+00	-4.969561e+01
1.680000e-06	-7.575243e-07	-6.328019e-10	-5.264056e+00	-4.862088e+01
1.690000e-06	-7.111401e-07	-6.157303e-10	-4.941731e+00	-4.751999e+01
1.700000e-06	-6.646578e-07	-5.981790e-10	-4.618725e+00	-4.639231e+01
1.710000e-06	-6.179953e-07	-5.842628e-10	-4.294465e+00	-4.523710e+01
1.720000e-06	-5.713481e-07	-5.703102e-10	-3.970313e+00	-4.405364e+01
1.730000e-06	-5.247089e-07	-5.516045e-10	-3.646216e+00	-4.284115e+01
1.740000e-06	-4.780614e-07	-5.291908e-10	-3.322061e+00	-4.159883e+01
1.750000e-06	-4.313758e-07	-5.062622e-10	-2.997641e+00	-4.032588e+01
1.760000e-06	-3.846333e-07	-4.829454e-10	-2.672827e+00	-3.902145e+01
1.770000e-06	-3.378393e-07	-4.610337e-10	-2.347654e+00	-3.768475e+01
1.780000e-06	-2.910765e-07	-4.408349e-10	-2.022698e+00	-3.631495e+01
1.790000e-06	-2.442773e-07	-4.217505e-10	-1.697490e+00	-3.491128e+01
1.800000e-06	-1.973910e-07	-4.019805e-10	-1.371675e+00	-3.347301e+01
1.810000e-06	-1.505823e-07	-3.838551e-10	-1.046400e+00	-3.199947e+01
1.820000e-06	-1.037872e-07	-3.660140e-10	-7.212197e-01	-3.049006e+01
1.830000e-06	-5.692725e-08	-3.467817e-10	-3.955890e-01	-2.894429e+01
1.840000e-06	-1.014232e-08	-3.255258e-10	-7.047928e-02	-2.736176e+01
1.850000e-06	3.664164e-08	-3.025405e-10	2.546237e-01	-2.574221e+01
1.860000e-06	8.355480e-08	-2.792469e-10	5.806245e-01	-2.408551e+01
1.870000e-06	1.304368e-07	-2.564255e-10	9.064090e-01	-2.239170e+01
1.880000e-06	1.772228e-07	-2.321946e-10	1.231526e+00	-2.066099e+01
1.890000e-06	2.240542e-07	-2.074511e-10	1.556958e+00	-1.889376e+01
1.900000e-06	2.708578e-07	-1.822176e-10	1.882198e+00	-1.709059e+01
1.910000e-06	3.175974e-07	-1.544704e-10	2.206993e+00	-1.525225e+01
1.920000e-06	3.643760e-07	-1.253068e-10	2.532058e+00	-1.337974e+01
1.930000e-06	4.111264e-07	-9.654761e-11	2.856928e+00	-1.147424e+01
1.940000e-06	4.578220e-07	-6.763044e-11	3.181417e+00	-9.537154e+00
1.950000e-06	5.044741e-07	-3.914323e-11	3.505604e+00	-7.570076e+00
1.960000e-06	5.510562e-07	-1.368635e-11	3.829304e+00	-5.574815e+00
1.970000e-06	5.975775e-07	1.094207e-11	4.152582e+00	-3.553370e+00
1.980000e-06	6.440112e-07	3.780604e-11	4.475251e+00	-1.507922e+00
1.990000e-06	6.903626e-07	6.930842e-11	4.797348e+00	5.591770e-01
2.000000e-06	7.366688e-07	1.028114e-10	5.119131e+00	2.645418e+00
2.010000e-06	7.829477e-07	1.350030e-10	5.440725e+00	4.748154e+00
2.020000e-06	8.292308e-07	1.649864e-10	5.762346e+00	6.864613e+00
2.030000e-06	8.754454e-07	1.950596e-10	6.083493e+00	8.991925e+00
2.040000e-06	9.215405e-07	2.229157e-10	6.403809e+00	1.112714e+01
2.050000e-06	9.675700e-07	2.494477e-10	6.723670e+00	1.326724e+01
2.060000e-06	1.013598e-06	2.767496e-10	7.043521e+00	1.540919e+01
2.070000e-06	1.059567e-06	3.073137e-10	7.362962e+00	1.754992e+01
2.080000e-06	1.105412e-06	3.388276e-10	7.681540e+00	1.968638e+01
2.090000e-06	1.151188e-06	3.706970e-10	7.999635e+00	2.181556e+01
2.100000e-06	1.196921e-06	4.045723e-10	8.317434e+00	2.393449e+01
2.110000e-06	1.242548e-06	4.369212e-10	8.634501e+00	2.604028e+01
2.120000e-06	1.288085e-06	4.666897e-10	8.950938e+00	2.813012e+01
2.130000e-06	1.333564e-06	4.923653e-10	9.266974e+00	3.020134e+01
2.140000e-06	1.379009e-06	5.142145e-10	9.582767e+00	3.225136e+01
2.150000e-06	1.424325e-06	5.373142e-10	9.897669e+00	3.427777e+01
2.160000e-06	1.469468e-06	5.645415e-10	1.021138e+01	3.627830e+01
2.170000e-06	1.514542e-06	5.956411e-10	1.052459e+01	3.825085e+01
2.180000e-06	1.559572e-06	6.273829e-10	1.083751e+01	4.019349e+01
2.190000e-06	1.604423e-06	6.578333e-10	1.114918e+01	4.210446e+01
2.200000e-06	1.649051e-06	6.869615e-10	1.145930e+01	4.398219e+01
2.210000e-06	1.693621e-06	7.128858e-10	1.176902e+01	4.582529e+01
2.220000e-06	1.738115e-06	7.360567e-10	1.207821e+01	4.763256e+01
2.230000e-06	1.782420e-06	7.585820e-10	1.238608e+01	4.940299e+01
2.240000e-06	1.826586e-06	7.801151e-10	1.269299e+01	5.113571e+01
2.250000e-06	1.870691e-06	8.007403e-10	1.299948e+01	5.283007e+01
2.260000e-06	1.914693e-06	8.226776e-10	1.330525e+01	5.448556e+01
2.270000e-06	1.958585e-06	8.461004e-10	1.361026e+01	5.610184e+01
2.280000e-06	2.002426e-06	8.712689e-10	1.391491e+01	5.767871e+01
2.290000e-06	2.046242e-06	8.950313e-10	1.421939e+01	5.921612e+01
2.300000e-06	2.089981e-06	9.151739e-10	1.452333e+01	6.071416e+01
2.310000e-06	2.133680e-06	9.333108e-10	1.482700e+01	6.217301e+01
2.320000e-06	2.177293e-06	9.497743e-10	1.513006e+01	6.359299e+01
2.330000e-06	2.220758e-06	9.650374e-10	1.543211e+01	6.497450e+01
2.340000e-06	2.264040e-06	9.816203e-10	1.573287e+01	6.631806e+01
2.350000e-06	2.307082e-06	1.000716e-09	1.603197e+01	6.762422e+01
2.360000e-06	2.349894e-06	1.020991e-09	1.632948e+01	6.889365e+01
2.370000e-06	2.392404e-06	1.039730e-09	1.662488e+01	7.012702e+01
2.380000e-06	2.434596e-06	1.056850e-09	1.691807e+01	7.132511e+01
2.390000e-06	2.476523e-06	1.073136e-09	1.720942e+01	7.248869e+01
2.400000e-06	2.518111e-06	1.088993e-09	1.749842e+01	7.361859e+01
2.410000e-06	2.559332e-06	1.103101e-09	1.778487e+01	7.471565e+01
2.420000e-06	2.600239e-06	1.114075e-09	1.806913e+01	7.578074e+01
2.430000e-06	2.640909e-06	1.124602e-09	1.835175e+01	7.681473e+01
2.440000e-06	2.681458e-06	1.135652e-09	1.863352e+01	7.781848e+01
2.450000e-06	2.721829e-06	1.146757e-09	1.891406e+01	7.879289e+01
2.460000e-06	2.762018e-06	1.159927e-09	1.919334e+01	7.973882e+01
2.470000e-06	2.802066e-06	1.174853e-09	1.947163e+01	8.065712e+01
2.480000e-06	2.841949e-06	1.188554e-09	1.974878e+01	8.154864e+01
2.490000e-06	2.881732e-06	1.200434e-09	2.002523e+01	8.241421e+01
2.500000e-06	2.921384e-06	1.210473e-09	2.030077e+01	8.325464e+01
2.510000e-06	2.960887e-06	1.218812e-09	2.057528e+01	8.407069e+01
2.520000e-06	3.000224e-06	1.226744e-09	2.084863e+01	8.486314e+01
2.530000e-06	3.039394e-06	1.235041e-09	2.112083e+01	8.563271e+01
2.540000e-06	3.078315e-06	1.244311e-09	2.139129e+01	8.638009e+01
2.550000e-06	3.116941e-06	1.254457e-09	2.165971e+01	8.710596e+01
2.560000e-06	3.155371e-06	1.265747e-09	2.192675e+01	8.781095e+01
2.570000e-06	3.193602e-06	1.277564e-09	2.219243e+01	8.849567e+01
2.580000e-06	3.231638e-06	1.287576e-09	2.245674e+01	8.916068e+01
2.590000e-06	3.269426e-06	1.295002e-09	2.271933e+01	8.980652e+01
2.600000e-06	3.306984e-06	1.300869e-09	2.298032e+01	9.043370e+01
2.610000e-06	3.344312e-06	1.307130e-09	2.323971e+01	9.104269e+01
2.620000e-06	3.381394e-06	1.315029e-09	2.349739e+01	9.163393e+01
2.630000e-06	3.418249e-06	1.325203e-09	2.375350e+01	9.220784e+01
2.640000e-06	3.454845e-06	1.335517e-09	2.400781e+01	9.276481e+01
2.650000e-06	3.491246e-06	1.344308e-09	2.426076e+01	9.330520e+01
2.660000e-06	3.527467e-06	1.351259e-09	2.451246e+01	9.382935e+01
2.670000e-06	3.563464e-06	1.357809e-09	2.476261e+01	9.433759e+01
2.680000e-06	3.599282e-06	1.364534e-09	2.501150e+01	9.483022e+01
2.690000e-06	3.635008e-06	1.370935e-09	2.525977e+01	9.530753e+01
2.700000e-06	3.670618e-06	1.379344e-09	2.550722e+01	9.576983e+01
2.710000e-06	3.705982e-06	1.389315e-09	2.575297e+01	9.621739e+01
2.720000e-06	3.740891e-06	1.399244e-09	2.599555e+01	9.665051e+01
2.730000e-06	3.775504e-06	1.408457e-09	2.623608e+01	9.706946e+01
2.740000e-06	3.809804e-06	1.416114e-09	2.647443e+01	9.747456e+01
2.750000e-06	3.843562e-06	1.421174e-09	2.670902e+01	9.786611e+01
2.760000e-06	3.876857e-06	1.423824e-09	2.694038e+01	9.824444e+01
2.770000e-06	3.909712e-06	1.426611e-09	2.716869e+01	9.860989e+01
2.780000e-06	3.942252e-06	1.432472e-09	2.739481e+01	9.896284e+01
2.790000e-06	3.974539e-06	1.441556e-09	2.761918e+01	9.930366e+01
2.800000e-06	4.006595e-06	1.452816e-09	2.784194e+01	9.963277e+01
2.810000e-06	4.038472e-06	1.462106e-09	2.806345e+01	9.995061e+01
2.820000e-06	4.070219e-06	1.466614e-09	2.828406e+01	1.002576e+02
2.830000e-06	4.101781e-06	1.469489e-09	2.850339e+01	1.005543e+02
2.840000e-06	4.133108e-06	1.472104e-09	2.872108e+01	1.008412e+02
2.850000e-06	4.164253e-06	1.471805e-09	2.893751e+01	1.011188e+02
2.860000e-06	4.194999e-06	1.469870e-09	2.915116e+01	1.013876e+02
2.870000e-06	4.225289e-06	1.471104e-09	2.936164e+01	1.016483e+02
2.880000e-06	4.255335e-06	1.476826e-09	2.957043e+01	1.019012e+02
2.890000e-06	4.285079e-06	1.485066e-09	2.977713e+01	1.021471e+02
2.900000e-06	4.314568e-06	1.492430e-09	2.998205e+01	1.023864e+02
