# Temperatura_=_-9.35
# Concentracion g/m^3_=_1620.0
# C_Vs_to_Am_M_A/Vsm_=_65563218390.804596
# pendiente_HvsI_1/m_=_3716.3
# ordenada_HvsI_A/m_=_1297.0
# frecuencia_Hz_=_135104.57129880847

Tiempo_(s)	Campo_(V.s)	Magnetizacion_(V.s)	Campo_(kA/m)	Magnetizacion_(A/m)
0.000000e+00	-5.536470e-06	-1.098155e-09	-3.836902e+01	-7.341097e+01
1.000000e-08	-5.536701e-06	-1.095955e-09	-3.837062e+01	-7.335801e+01
2.000000e-08	-5.536778e-06	-1.093234e-09	-3.837116e+01	-7.331195e+01
3.000000e-08	-5.536495e-06	-1.092118e-09	-3.836919e+01	-7.327334e+01
4.000000e-08	-5.535679e-06	-1.094091e-09	-3.836354e+01	-7.324257e+01
5.000000e-08	-5.534334e-06	-1.092149e-09	-3.835421e+01	-7.321992e+01
6.000000e-08	-5.532397e-06	-1.082561e-09	-3.834079e+01	-7.320552e+01
7.000000e-08	-5.529787e-06	-1.065152e-09	-3.832271e+01	-7.319935e+01
8.000000e-08	-5.526664e-06	-1.062496e-09	-3.830106e+01	-7.320122e+01
9.000000e-08	-5.523111e-06	-1.126122e-09	-3.827644e+01	-7.321081e+01
1.000000e-07	-5.519112e-06	-1.195025e-09	-3.824873e+01	-7.322761e+01
1.100000e-07	-5.514811e-06	-1.107374e-09	-3.821892e+01	-7.325098e+01
1.200000e-07	-5.510322e-06	-9.821379e-10	-3.818781e+01	-7.328014e+01
1.300000e-07	-5.505649e-06	-1.036427e-09	-3.815542e+01	-7.331417e+01
1.400000e-07	-5.500564e-06	-1.144332e-09	-3.812018e+01	-7.335205e+01
1.500000e-07	-5.494975e-06	-1.132509e-09	-3.808145e+01	-7.339262e+01
1.600000e-07	-5.489034e-06	-9.855149e-10	-3.804028e+01	-7.343470e+01
1.700000e-07	-5.482799e-06	-1.032276e-09	-3.799707e+01	-7.347699e+01
1.800000e-07	-5.476065e-06	-1.162243e-09	-3.795040e+01	-7.351819e+01
1.900000e-07	-5.468827e-06	-1.162887e-09	-3.790024e+01	-7.355699e+01
2.000000e-07	-5.461330e-06	-1.046432e-09	-3.784828e+01	-7.359206e+01
2.100000e-07	-5.453598e-06	-1.038430e-09	-3.779470e+01	-7.362212e+01
2.200000e-07	-5.445555e-06	-1.144474e-09	-3.773896e+01	-7.364596e+01
2.300000e-07	-5.437266e-06	-1.164111e-09	-3.768151e+01	-7.366243e+01
2.400000e-07	-5.428644e-06	-1.089489e-09	-3.762176e+01	-7.367049e+01
2.500000e-07	-5.419445e-06	-1.058969e-09	-3.755801e+01	-7.366923e+01
2.600000e-07	-5.409497e-06	-1.119539e-09	-3.748907e+01	-7.365786e+01
2.700000e-07	-5.398955e-06	-1.121937e-09	-3.741601e+01	-7.363574e+01
2.800000e-07	-5.387966e-06	-1.081451e-09	-3.733986e+01	-7.360242e+01
2.900000e-07	-5.376405e-06	-1.059811e-09	-3.725974e+01	-7.355759e+01
3.000000e-07	-5.364468e-06	-1.110374e-09	-3.717701e+01	-7.350114e+01
3.100000e-07	-5.352187e-06	-1.105755e-09	-3.709189e+01	-7.343313e+01
3.200000e-07	-5.339484e-06	-1.070359e-09	-3.700386e+01	-7.335378e+01
3.300000e-07	-5.326364e-06	-1.053694e-09	-3.691294e+01	-7.326352e+01
3.400000e-07	-5.312820e-06	-1.112932e-09	-3.681907e+01	-7.316291e+01
3.500000e-07	-5.298844e-06	-1.109067e-09	-3.672222e+01	-7.305266e+01
3.600000e-07	-5.284437e-06	-1.064616e-09	-3.662237e+01	-7.293365e+01
3.700000e-07	-5.269569e-06	-1.073137e-09	-3.651934e+01	-7.280684e+01
3.800000e-07	-5.254279e-06	-1.120821e-09	-3.641337e+01	-7.267331e+01
3.900000e-07	-5.238375e-06	-1.068522e-09	-3.630315e+01	-7.253423e+01
4.000000e-07	-5.221961e-06	-1.046091e-09	-3.618940e+01	-7.239081e+01
4.100000e-07	-5.205341e-06	-1.115466e-09	-3.607422e+01	-7.224431e+01
4.200000e-07	-5.188348e-06	-1.104347e-09	-3.595645e+01	-7.209597e+01
4.300000e-07	-5.170926e-06	-1.018379e-09	-3.583572e+01	-7.194707e+01
4.400000e-07	-5.153231e-06	-1.073973e-09	-3.571309e+01	-7.179881e+01
4.500000e-07	-5.135269e-06	-1.142007e-09	-3.558860e+01	-7.165235e+01
4.600000e-07	-5.116833e-06	-1.043014e-09	-3.546084e+01	-7.150879e+01
4.700000e-07	-5.097954e-06	-1.017618e-09	-3.533000e+01	-7.136911e+01
4.800000e-07	-5.078749e-06	-1.112242e-09	-3.519691e+01	-7.123419e+01
4.900000e-07	-5.059226e-06	-1.081197e-09	-3.506161e+01	-7.110478e+01
5.000000e-07	-5.039453e-06	-1.010474e-09	-3.492458e+01	-7.098152e+01
5.100000e-07	-5.019496e-06	-1.100299e-09	-3.478627e+01	-7.086488e+01
5.200000e-07	-4.999287e-06	-1.106989e-09	-3.464622e+01	-7.075520e+01
5.300000e-07	-4.978641e-06	-1.009572e-09	-3.450313e+01	-7.065265e+01
5.400000e-07	-4.957560e-06	-1.057586e-09	-3.435704e+01	-7.055727e+01
5.500000e-07	-4.936180e-06	-1.132369e-09	-3.420887e+01	-7.046896e+01
5.600000e-07	-4.914524e-06	-1.028761e-09	-3.405879e+01	-7.038747e+01
5.700000e-07	-4.892628e-06	-1.012605e-09	-3.390704e+01	-7.031244e+01
5.800000e-07	-4.870389e-06	-1.105541e-09	-3.375292e+01	-7.024337e+01
5.900000e-07	-4.847702e-06	-1.070203e-09	-3.359570e+01	-7.017967e+01
6.000000e-07	-4.824588e-06	-1.006288e-09	-3.343551e+01	-7.012069e+01
6.100000e-07	-4.801224e-06	-1.076028e-09	-3.327360e+01	-7.006567e+01
6.200000e-07	-4.777655e-06	-1.076036e-09	-3.311026e+01	-7.001382e+01
6.300000e-07	-4.753816e-06	-1.013798e-09	-3.294505e+01	-6.996432e+01
6.400000e-07	-4.729766e-06	-1.046525e-09	-3.277838e+01	-6.991633e+01
6.500000e-07	-4.705417e-06	-1.078530e-09	-3.260963e+01	-6.986900e+01
6.600000e-07	-4.680597e-06	-1.027556e-09	-3.243762e+01	-6.982153e+01
6.700000e-07	-4.655334e-06	-1.040149e-09	-3.226254e+01	-6.977312e+01
6.800000e-07	-4.629486e-06	-1.078624e-09	-3.208341e+01	-6.972303e+01
6.900000e-07	-4.603046e-06	-1.045630e-09	-3.190018e+01	-6.967060e+01
7.000000e-07	-4.576170e-06	-1.031585e-09	-3.171392e+01	-6.961523e+01
7.100000e-07	-4.548839e-06	-1.066189e-09	-3.152451e+01	-6.955639e+01
7.200000e-07	-4.521215e-06	-1.052951e-09	-3.133307e+01	-6.949365e+01
7.300000e-07	-4.493424e-06	-1.029352e-09	-3.114047e+01	-6.942666e+01
7.400000e-07	-4.465521e-06	-1.050864e-09	-3.094710e+01	-6.935519e+01
7.500000e-07	-4.437421e-06	-1.051572e-09	-3.075235e+01	-6.927906e+01
7.600000e-07	-4.408992e-06	-1.028664e-09	-3.055534e+01	-6.919821e+01
7.700000e-07	-4.380272e-06	-1.034913e-09	-3.035630e+01	-6.911265e+01
7.800000e-07	-4.351219e-06	-1.042056e-09	-3.015495e+01	-6.902248e+01
7.900000e-07	-4.321789e-06	-1.022366e-09	-2.995100e+01	-6.892784e+01
8.000000e-07	-4.292068e-06	-1.025919e-09	-2.974503e+01	-6.882896e+01
8.100000e-07	-4.262094e-06	-1.033957e-09	-2.953730e+01	-6.872609e+01
8.200000e-07	-4.231808e-06	-1.020141e-09	-2.932741e+01	-6.861955e+01
8.300000e-07	-4.201244e-06	-1.014184e-09	-2.911560e+01	-6.850964e+01
8.400000e-07	-4.170446e-06	-1.031308e-09	-2.890216e+01	-6.839672e+01
8.500000e-07	-4.139413e-06	-1.021789e-09	-2.868709e+01	-6.828110e+01
8.600000e-07	-4.108141e-06	-1.009566e-09	-2.847037e+01	-6.816313e+01
8.700000e-07	-4.076624e-06	-1.013106e-09	-2.825195e+01	-6.804310e+01
8.800000e-07	-4.044937e-06	-1.007715e-09	-2.803235e+01	-6.792129e+01
8.900000e-07	-4.013066e-06	-9.890124e-10	-2.781147e+01	-6.779794e+01
9.000000e-07	-3.980954e-06	-9.968634e-10	-2.758893e+01	-6.767324e+01
9.100000e-07	-3.948624e-06	-1.005584e-09	-2.736488e+01	-6.754733e+01
9.200000e-07	-3.915904e-06	-9.971491e-10	-2.713812e+01	-6.742031e+01
9.300000e-07	-3.882644e-06	-9.959944e-10	-2.690762e+01	-6.729222e+01
9.400000e-07	-3.848977e-06	-1.004252e-09	-2.667430e+01	-6.716303e+01
9.500000e-07	-3.814955e-06	-9.915033e-10	-2.643852e+01	-6.703270e+01
9.600000e-07	-3.780426e-06	-9.790129e-10	-2.619923e+01	-6.690112e+01
9.700000e-07	-3.745410e-06	-9.840262e-10	-2.595656e+01	-6.676812e+01
9.800000e-07	-3.710068e-06	-9.820898e-10	-2.571163e+01	-6.663353e+01
9.900000e-07	-3.674551e-06	-9.720527e-10	-2.546549e+01	-6.649714e+01
1.000000e-06	-3.638945e-06	-9.768115e-10	-2.521873e+01	-6.635871e+01
1.010000e-06	-3.603180e-06	-9.792490e-10	-2.497087e+01	-6.621800e+01
1.020000e-06	-3.567253e-06	-9.668729e-10	-2.472189e+01	-6.607478e+01
1.030000e-06	-3.531141e-06	-9.634898e-10	-2.447163e+01	-6.592881e+01
1.040000e-06	-3.494824e-06	-9.689117e-10	-2.421994e+01	-6.577987e+01
1.050000e-06	-3.458214e-06	-9.628339e-10	-2.396623e+01	-6.562776e+01
1.060000e-06	-3.421327e-06	-9.557108e-10	-2.371059e+01	-6.547234e+01
1.070000e-06	-3.384211e-06	-9.602799e-10	-2.345336e+01	-6.531347e+01
1.080000e-06	-3.346786e-06	-9.579280e-10	-2.319400e+01	-6.515107e+01
1.090000e-06	-3.309123e-06	-9.509993e-10	-2.293299e+01	-6.498513e+01
1.100000e-06	-3.271267e-06	-9.516609e-10	-2.267064e+01	-6.481564e+01
1.110000e-06	-3.233179e-06	-9.524469e-10	-2.240668e+01	-6.464268e+01
1.120000e-06	-3.194873e-06	-9.431166e-10	-2.214121e+01	-6.446636e+01
1.130000e-06	-3.156386e-06	-9.400517e-10	-2.187448e+01	-6.428685e+01
1.140000e-06	-3.117698e-06	-9.403527e-10	-2.160637e+01	-6.410434e+01
1.150000e-06	-3.078775e-06	-9.371862e-10	-2.133663e+01	-6.391907e+01
1.160000e-06	-3.039650e-06	-9.326706e-10	-2.106548e+01	-6.373131e+01
1.170000e-06	-3.000353e-06	-9.327479e-10	-2.079314e+01	-6.354136e+01
1.180000e-06	-2.960865e-06	-9.278437e-10	-2.051948e+01	-6.334950e+01
1.190000e-06	-2.921210e-06	-9.227064e-10	-2.024466e+01	-6.315604e+01
1.200000e-06	-2.881411e-06	-9.210837e-10	-1.996885e+01	-6.296127e+01
1.210000e-06	-2.841427e-06	-9.170821e-10	-1.969175e+01	-6.276548e+01
1.220000e-06	-2.801315e-06	-9.096328e-10	-1.941376e+01	-6.256890e+01
1.230000e-06	-2.761117e-06	-9.106752e-10	-1.913518e+01	-6.237174e+01
1.240000e-06	-2.720768e-06	-9.144135e-10	-1.885555e+01	-6.217416e+01
1.250000e-06	-2.680179e-06	-9.144824e-10	-1.857426e+01	-6.197627e+01
1.260000e-06	-2.639320e-06	-9.116376e-10	-1.829110e+01	-6.177810e+01
1.270000e-06	-2.598216e-06	-9.072626e-10	-1.800624e+01	-6.157962e+01
1.280000e-06	-2.556743e-06	-8.993961e-10	-1.771882e+01	-6.138072e+01
1.290000e-06	-2.514942e-06	-8.913771e-10	-1.742913e+01	-6.118122e+01
1.300000e-06	-2.472942e-06	-8.884674e-10	-1.713806e+01	-6.098085e+01
1.310000e-06	-2.430580e-06	-8.892909e-10	-1.684448e+01	-6.077925e+01
1.320000e-06	-2.387828e-06	-8.893868e-10	-1.654820e+01	-6.057601e+01
1.330000e-06	-2.344927e-06	-8.869967e-10	-1.625088e+01	-6.037062e+01
1.340000e-06	-2.301873e-06	-8.823035e-10	-1.595251e+01	-6.016251e+01
1.350000e-06	-2.258540e-06	-8.761381e-10	-1.565220e+01	-5.995104e+01
1.360000e-06	-2.214985e-06	-8.725590e-10	-1.535036e+01	-5.973551e+01
1.370000e-06	-2.171285e-06	-8.708629e-10	-1.504751e+01	-5.951519e+01
1.380000e-06	-2.127519e-06	-8.681640e-10	-1.474420e+01	-5.928928e+01
1.390000e-06	-2.083719e-06	-8.624151e-10	-1.444065e+01	-5.905698e+01
1.400000e-06	-2.039837e-06	-8.587576e-10	-1.413654e+01	-5.881746e+01
1.410000e-06	-1.995876e-06	-8.563835e-10	-1.383188e+01	-5.856988e+01
1.420000e-06	-1.951813e-06	-8.504951e-10	-1.352652e+01	-5.831341e+01
1.430000e-06	-1.907637e-06	-8.424730e-10	-1.322037e+01	-5.804721e+01
1.440000e-06	-1.863472e-06	-8.371599e-10	-1.291429e+01	-5.777048e+01
1.450000e-06	-1.819271e-06	-8.308135e-10	-1.260797e+01	-5.748246e+01
1.460000e-06	-1.774833e-06	-8.222703e-10	-1.230000e+01	-5.718241e+01
1.470000e-06	-1.730162e-06	-8.134766e-10	-1.199042e+01	-5.686963e+01
1.480000e-06	-1.685406e-06	-8.065910e-10	-1.168025e+01	-5.654348e+01
1.490000e-06	-1.640557e-06	-7.980102e-10	-1.136944e+01	-5.620336e+01
1.500000e-06	-1.595538e-06	-7.885493e-10	-1.105745e+01	-5.584873e+01
1.510000e-06	-1.550370e-06	-7.791164e-10	-1.074442e+01	-5.547910e+01
1.520000e-06	-1.505042e-06	-7.709501e-10	-1.043029e+01	-5.509402e+01
1.530000e-06	-1.459606e-06	-7.635334e-10	-1.011541e+01	-5.469309e+01
1.540000e-06	-1.414191e-06	-7.549708e-10	-9.800668e+00	-5.427596e+01
1.550000e-06	-1.368666e-06	-7.466525e-10	-9.485175e+00	-5.384231e+01
1.560000e-06	-1.322974e-06	-7.408516e-10	-9.168519e+00	-5.339183e+01
1.570000e-06	-1.277213e-06	-7.338822e-10	-8.851382e+00	-5.292427e+01
1.580000e-06	-1.231382e-06	-7.251013e-10	-8.533764e+00	-5.243935e+01
1.590000e-06	-1.185513e-06	-7.147289e-10	-8.215883e+00	-5.193680e+01
1.600000e-06	-1.139524e-06	-7.031016e-10	-7.897163e+00	-5.141634e+01
1.610000e-06	-1.093457e-06	-6.954480e-10	-7.577912e+00	-5.087770e+01
1.620000e-06	-1.047359e-06	-6.913708e-10	-7.258440e+00	-5.032053e+01
1.630000e-06	-1.001215e-06	-6.870934e-10	-6.938649e+00	-4.974449e+01
1.640000e-06	-9.549687e-07	-6.800766e-10	-6.618155e+00	-4.914916e+01
1.650000e-06	-9.085977e-07	-6.687748e-10	-6.296793e+00	-4.853409e+01
1.660000e-06	-8.621465e-07	-6.544080e-10	-5.974875e+00	-4.789877e+01
1.670000e-06	-8.156618e-07	-6.398444e-10	-5.652725e+00	-4.724261e+01
1.680000e-06	-7.691201e-07	-6.262588e-10	-5.330180e+00	-4.656498e+01
1.690000e-06	-7.225134e-07	-6.138892e-10	-5.007185e+00	-4.586518e+01
1.700000e-06	-6.758835e-07	-6.022172e-10	-4.684029e+00	-4.514244e+01
1.710000e-06	-6.291671e-07	-5.916421e-10	-4.360274e+00	-4.439593e+01
1.720000e-06	-5.824693e-07	-5.823927e-10	-4.036647e+00	-4.362479e+01
1.730000e-06	-5.358284e-07	-5.721729e-10	-3.713415e+00	-4.282808e+01
1.740000e-06	-4.891313e-07	-5.586568e-10	-3.389794e+00	-4.200485e+01
1.750000e-06	-4.423408e-07	-5.422987e-10	-3.065524e+00	-4.115411e+01
1.760000e-06	-3.955526e-07	-5.236531e-10	-2.741271e+00	-4.027484e+01
1.770000e-06	-3.487371e-07	-5.079076e-10	-2.416829e+00	-3.936605e+01
1.780000e-06	-3.018667e-07	-4.965057e-10	-2.092006e+00	-3.842674e+01
1.790000e-06	-2.549405e-07	-4.856904e-10	-1.766797e+00	-3.745594e+01
1.800000e-06	-2.079536e-07	-4.739945e-10	-1.441166e+00	-3.645273e+01
1.810000e-06	-1.609833e-07	-4.603530e-10	-1.115651e+00	-3.541623e+01
1.820000e-06	-1.140478e-07	-4.470352e-10	-7.903774e-01	-3.434566e+01
1.830000e-06	-6.715512e-08	-4.340200e-10	-4.654005e-01	-3.324031e+01
1.840000e-06	-2.025847e-08	-4.192732e-10	-1.403959e-01	-3.209958e+01
1.850000e-06	2.657553e-08	-4.039711e-10	1.841746e-01	-3.092298e+01
1.860000e-06	7.340212e-08	-3.870377e-10	5.086937e-01	-2.971016e+01
1.870000e-06	1.203838e-07	-3.678460e-10	8.342877e-01	-2.846092e+01
1.880000e-06	1.673336e-07	-3.485891e-10	1.159661e+00	-2.717518e+01
1.890000e-06	2.141916e-07	-3.304941e-10	1.484397e+00	-2.585305e+01
1.900000e-06	2.611029e-07	-3.122874e-10	1.809504e+00	-2.449480e+01
1.910000e-06	3.080898e-07	-2.940656e-10	2.135133e+00	-2.310086e+01
1.920000e-06	3.550566e-07	-2.759766e-10	2.460625e+00	-2.167184e+01
1.930000e-06	4.019288e-07	-2.570427e-10	2.785460e+00	-2.020853e+01
1.940000e-06	4.487414e-07	-2.368869e-10	3.109882e+00	-1.871188e+01
1.950000e-06	4.954926e-07	-2.152528e-10	3.433879e+00	-1.718302e+01
1.960000e-06	5.421966e-07	-1.927947e-10	3.757548e+00	-1.562324e+01
1.970000e-06	5.888657e-07	-1.716837e-10	4.080975e+00	-1.403399e+01
1.980000e-06	6.354366e-07	-1.512797e-10	4.403723e+00	-1.241686e+01
1.990000e-06	6.819305e-07	-1.293035e-10	4.725936e+00	-1.077359e+01
2.000000e-06	7.284358e-07	-1.048291e-10	5.048229e+00	-9.106035e+00
2.010000e-06	7.748668e-07	-7.943699e-11	5.370007e+00	-7.416183e+00
2.020000e-06	8.212059e-07	-5.668454e-11	5.691147e+00	-5.706113e+00
2.030000e-06	8.675148e-07	-3.529593e-11	6.012079e+00	-3.977994e+00
2.040000e-06	9.137733e-07	-1.406058e-11	6.332661e+00	-2.234073e+00
2.050000e-06	9.600641e-07	7.339073e-12	6.653467e+00	-4.766577e-01
2.060000e-06	1.006356e-06	3.145561e-11	6.974279e+00	1.291899e+00
2.070000e-06	1.052485e-06	5.858826e-11	7.293962e+00	3.069210e+00
2.080000e-06	1.098468e-06	8.641280e-11	7.612639e+00	4.852870e+00
2.090000e-06	1.144402e-06	1.124447e-10	7.930970e+00	6.640467e+00
2.100000e-06	1.190290e-06	1.381168e-10	8.248986e+00	8.429599e+00
2.110000e-06	1.236069e-06	1.643463e-10	8.566243e+00	1.021788e+01
2.120000e-06	1.281757e-06	1.892895e-10	8.882873e+00	1.200295e+01
2.130000e-06	1.327387e-06	2.137008e-10	9.199101e+00	1.378250e+01
2.140000e-06	1.372879e-06	2.372124e-10	9.514370e+00	1.555427e+01
2.150000e-06	1.418271e-06	2.589240e-10	9.828947e+00	1.731604e+01
2.160000e-06	1.463642e-06	2.811292e-10	1.014338e+01	1.906568e+01
2.170000e-06	1.508913e-06	3.045507e-10	1.045711e+01	2.080112e+01
2.180000e-06	1.554070e-06	3.276387e-10	1.077006e+01	2.252037e+01
2.190000e-06	1.599123e-06	3.510662e-10	1.108229e+01	2.422152e+01
2.200000e-06	1.643960e-06	3.755619e-10	1.139302e+01	2.590276e+01
2.210000e-06	1.688629e-06	3.994678e-10	1.170259e+01	2.756235e+01
2.220000e-06	1.733188e-06	4.219148e-10	1.201140e+01	2.919866e+01
2.230000e-06	1.777617e-06	4.425012e-10	1.231930e+01	3.081016e+01
2.240000e-06	1.821953e-06	4.615635e-10	1.262656e+01	3.239540e+01
2.250000e-06	1.866203e-06	4.805658e-10	1.293322e+01	3.395304e+01
2.260000e-06	1.910315e-06	5.003343e-10	1.323893e+01	3.548184e+01
2.270000e-06	1.954298e-06	5.202740e-10	1.354374e+01	3.698066e+01
2.280000e-06	1.998230e-06	5.395622e-10	1.384820e+01	3.844846e+01
2.290000e-06	2.042100e-06	5.586657e-10	1.415223e+01	3.988430e+01
2.300000e-06	2.085860e-06	5.775730e-10	1.445549e+01	4.128735e+01
2.310000e-06	2.129558e-06	5.950870e-10	1.475833e+01	4.265687e+01
2.320000e-06	2.173213e-06	6.121201e-10	1.506087e+01	4.399222e+01
2.330000e-06	2.216794e-06	6.288593e-10	1.536289e+01	4.529286e+01
2.340000e-06	2.260281e-06	6.463888e-10	1.566427e+01	4.655836e+01
2.350000e-06	2.303615e-06	6.659017e-10	1.596458e+01	4.778837e+01
2.360000e-06	2.346813e-06	6.849518e-10	1.626396e+01	4.898266e+01
2.370000e-06	2.389759e-06	7.019135e-10	1.656159e+01	5.014106e+01
2.380000e-06	2.432269e-06	7.153277e-10	1.685619e+01	5.126351e+01
2.390000e-06	2.474454e-06	7.280226e-10	1.714854e+01	5.235005e+01
2.400000e-06	2.516400e-06	7.416551e-10	1.743924e+01	5.340078e+01
2.410000e-06	2.558010e-06	7.557947e-10	1.772760e+01	5.441591e+01
2.420000e-06	2.599342e-06	7.700285e-10	1.801404e+01	5.539571e+01
2.430000e-06	2.640486e-06	7.815778e-10	1.829918e+01	5.634054e+01
2.440000e-06	2.681338e-06	7.904235e-10	1.858229e+01	5.725081e+01
2.450000e-06	2.721977e-06	7.985949e-10	1.886393e+01	5.812703e+01
2.460000e-06	2.762405e-06	8.074407e-10	1.914411e+01	5.896972e+01
2.470000e-06	2.802555e-06	8.170213e-10	1.942235e+01	5.977952e+01
2.480000e-06	2.842569e-06	8.276427e-10	1.969966e+01	6.055706e+01
2.490000e-06	2.882465e-06	8.380604e-10	1.997615e+01	6.130306e+01
2.500000e-06	2.922230e-06	8.473508e-10	2.025173e+01	6.201826e+01
2.510000e-06	2.961864e-06	8.570913e-10	2.052640e+01	6.270342e+01
2.520000e-06	3.001333e-06	8.650746e-10	2.079993e+01	6.335935e+01
2.530000e-06	3.040626e-06	8.721356e-10	2.107224e+01	6.398686e+01
2.540000e-06	3.079684e-06	8.806145e-10	2.134292e+01	6.458681e+01
2.550000e-06	3.118485e-06	8.891242e-10	2.161182e+01	6.516003e+01
2.560000e-06	3.157057e-06	8.990058e-10	2.187913e+01	6.570738e+01
2.570000e-06	3.195405e-06	9.069179e-10	2.214490e+01	6.622971e+01
2.580000e-06	3.233498e-06	9.136442e-10	2.240889e+01	6.672788e+01
2.590000e-06	3.271412e-06	9.201318e-10	2.267164e+01	6.720275e+01
2.600000e-06	3.309219e-06	9.279185e-10	2.293366e+01	6.765514e+01
2.610000e-06	3.346815e-06	9.354864e-10	2.319421e+01	6.808588e+01
2.620000e-06	3.384140e-06	9.422359e-10	2.345288e+01	6.849580e+01
2.630000e-06	3.421203e-06	9.502278e-10	2.370973e+01	6.888570e+01
2.640000e-06	3.457987e-06	9.571193e-10	2.396465e+01	6.925637e+01
2.650000e-06	3.494487e-06	9.624565e-10	2.421760e+01	6.960859e+01
2.660000e-06	3.530687e-06	9.664162e-10	2.446848e+01	6.994312e+01
2.670000e-06	3.566691e-06	9.722404e-10	2.471799e+01	7.026071e+01
2.680000e-06	3.602618e-06	9.802351e-10	2.496698e+01	7.056211e+01
2.690000e-06	3.638447e-06	9.864982e-10	2.521528e+01	7.084804e+01
2.700000e-06	3.674102e-06	9.912130e-10	2.546238e+01	7.111924e+01
2.710000e-06	3.709551e-06	9.939715e-10	2.570805e+01	7.137642e+01
2.720000e-06	3.744777e-06	9.983151e-10	2.595217e+01	7.162028e+01
2.730000e-06	3.779774e-06	1.004161e-09	2.619471e+01	7.185154e+01
2.740000e-06	3.814411e-06	1.008789e-09	2.643475e+01	7.207090e+01
2.750000e-06	3.848547e-06	1.015259e-09	2.667132e+01	7.227905e+01
2.760000e-06	3.882206e-06	1.016903e-09	2.690459e+01	7.247669e+01
2.770000e-06	3.915426e-06	1.016920e-09	2.713481e+01	7.266452e+01
2.780000e-06	3.948220e-06	1.016592e-09	2.736208e+01	7.284321e+01
2.790000e-06	3.980626e-06	1.021556e-09	2.758666e+01	7.301345e+01
2.800000e-06	4.012777e-06	1.029192e-09	2.780947e+01	7.317589e+01
2.810000e-06	4.044702e-06	1.038134e-09	2.803072e+01	7.333119e+01
2.820000e-06	4.076496e-06	1.045800e-09	2.825106e+01	7.347999e+01
2.830000e-06	4.108185e-06	1.048229e-09	2.847068e+01	7.362289e+01
2.840000e-06	4.139649e-06	1.048568e-09	2.868873e+01	7.376048e+01
2.850000e-06	4.170832e-06	1.045933e-09	2.890483e+01	7.389332e+01
2.860000e-06	4.201688e-06	1.043460e-09	2.911867e+01	7.402192e+01
2.870000e-06	4.232151e-06	1.046686e-09	2.932979e+01	7.414676e+01
2.880000e-06	4.262275e-06	1.054770e-09	2.953855e+01	7.426827e+01
2.890000e-06	4.292117e-06	1.064933e-09	2.974536e+01	7.438683e+01
2.900000e-06	4.321663e-06	1.071566e-09	2.995013e+01	7.450275e+01
