# Temperatura_=_-1.81
# Concentracion g/m^3_=_1620.0
# C_Vs_to_Am_M_A/Vsm_=_65563218390.804596
# pendiente_HvsI_1/m_=_3716.3
# ordenada_HvsI_A/m_=_1297.0
# frecuencia_Hz_=_135100.9480459666

Tiempo_(s)	Campo_(V.s)	Magnetizacion_(V.s)	Campo_(kA/m)	Magnetizacion_(A/m)
0.000000e+00	-5.527574e-06	-1.382796e-09	-3.836846e+01	-8.987362e+01
1.000000e-08	-5.527652e-06	-1.380389e-09	-3.836900e+01	-8.979777e+01
2.000000e-08	-5.527493e-06	-1.378749e-09	-3.836789e+01	-8.971891e+01
3.000000e-08	-5.526903e-06	-1.378356e-09	-3.836380e+01	-8.963706e+01
4.000000e-08	-5.525697e-06	-1.378997e-09	-3.835543e+01	-8.955227e+01
5.000000e-08	-5.523881e-06	-1.374216e-09	-3.834283e+01	-8.946461e+01
6.000000e-08	-5.521497e-06	-1.364563e-09	-3.832628e+01	-8.937419e+01
7.000000e-08	-5.518598e-06	-1.349756e-09	-3.830615e+01	-8.928115e+01
8.000000e-08	-5.515229e-06	-1.375333e-09	-3.828277e+01	-8.918566e+01
9.000000e-08	-5.511431e-06	-1.459060e-09	-3.825640e+01	-8.908791e+01
1.000000e-07	-5.507186e-06	-1.479973e-09	-3.822694e+01	-8.898811e+01
1.100000e-07	-5.502639e-06	-1.342644e-09	-3.819538e+01	-8.888650e+01
1.200000e-07	-5.498011e-06	-1.272103e-09	-3.816326e+01	-8.878333e+01
1.300000e-07	-5.493144e-06	-1.354434e-09	-3.812947e+01	-8.867885e+01
1.400000e-07	-5.487807e-06	-1.467432e-09	-3.809243e+01	-8.857333e+01
1.500000e-07	-5.482058e-06	-1.377148e-09	-3.805252e+01	-8.846701e+01
1.600000e-07	-5.476008e-06	-1.291744e-09	-3.801052e+01	-8.836017e+01
1.700000e-07	-5.469491e-06	-1.346868e-09	-3.796529e+01	-8.825304e+01
1.800000e-07	-5.462432e-06	-1.430046e-09	-3.791629e+01	-8.814586e+01
1.900000e-07	-5.455024e-06	-1.355344e-09	-3.786487e+01	-8.803884e+01
2.000000e-07	-5.447397e-06	-1.278359e-09	-3.781193e+01	-8.793216e+01
2.100000e-07	-5.439479e-06	-1.331509e-09	-3.775697e+01	-8.782599e+01
2.200000e-07	-5.431244e-06	-1.406734e-09	-3.769981e+01	-8.772045e+01
2.300000e-07	-5.422818e-06	-1.379441e-09	-3.764132e+01	-8.761564e+01
2.400000e-07	-5.413992e-06	-1.302366e-09	-3.758005e+01	-8.751163e+01
2.500000e-07	-5.404315e-06	-1.303530e-09	-3.751289e+01	-8.740842e+01
2.600000e-07	-5.393840e-06	-1.332622e-09	-3.744017e+01	-8.730602e+01
2.700000e-07	-5.382916e-06	-1.355470e-09	-3.736435e+01	-8.720436e+01
2.800000e-07	-5.371577e-06	-1.319931e-09	-3.728564e+01	-8.710337e+01
2.900000e-07	-5.359804e-06	-1.317704e-09	-3.720392e+01	-8.700291e+01
3.000000e-07	-5.347714e-06	-1.329003e-09	-3.712000e+01	-8.690282e+01
3.100000e-07	-5.335258e-06	-1.350443e-09	-3.703354e+01	-8.680293e+01
3.200000e-07	-5.322276e-06	-1.293286e-09	-3.694343e+01	-8.670300e+01
3.300000e-07	-5.308881e-06	-1.287094e-09	-3.685045e+01	-8.660281e+01
3.400000e-07	-5.295214e-06	-1.327190e-09	-3.675559e+01	-8.650209e+01
3.500000e-07	-5.281217e-06	-1.345630e-09	-3.665843e+01	-8.640058e+01
3.600000e-07	-5.266702e-06	-1.295555e-09	-3.655767e+01	-8.629798e+01
3.700000e-07	-5.251659e-06	-1.316960e-09	-3.645325e+01	-8.619400e+01
3.800000e-07	-5.236115e-06	-1.324897e-09	-3.634536e+01	-8.608837e+01
3.900000e-07	-5.220018e-06	-1.272112e-09	-3.623363e+01	-8.598081e+01
4.000000e-07	-5.203428e-06	-1.268913e-09	-3.611847e+01	-8.587102e+01
4.100000e-07	-5.186554e-06	-1.340314e-09	-3.600134e+01	-8.575878e+01
4.200000e-07	-5.169418e-06	-1.304690e-09	-3.588240e+01	-8.564382e+01
4.300000e-07	-5.151961e-06	-1.250196e-09	-3.576123e+01	-8.552596e+01
4.400000e-07	-5.134169e-06	-1.323033e-09	-3.563773e+01	-8.540499e+01
4.500000e-07	-5.115943e-06	-1.342418e-09	-3.551122e+01	-8.528076e+01
4.600000e-07	-5.097227e-06	-1.244958e-09	-3.538130e+01	-8.515316e+01
4.700000e-07	-5.078185e-06	-1.249701e-09	-3.524912e+01	-8.502210e+01
4.800000e-07	-5.058882e-06	-1.326830e-09	-3.511514e+01	-8.488753e+01
4.900000e-07	-5.039229e-06	-1.275020e-09	-3.497872e+01	-8.474943e+01
5.000000e-07	-5.019369e-06	-1.248320e-09	-3.484086e+01	-8.460783e+01
5.100000e-07	-4.999318e-06	-1.317457e-09	-3.470168e+01	-8.446278e+01
5.200000e-07	-4.978904e-06	-1.300799e-09	-3.455998e+01	-8.431437e+01
5.300000e-07	-4.958047e-06	-1.230197e-09	-3.441521e+01	-8.416274e+01
5.400000e-07	-4.936887e-06	-1.286375e-09	-3.426833e+01	-8.400803e+01
5.500000e-07	-4.915378e-06	-1.303112e-09	-3.411903e+01	-8.385043e+01
5.600000e-07	-4.893504e-06	-1.227803e-09	-3.396720e+01	-8.369012e+01
5.700000e-07	-4.871370e-06	-1.234721e-09	-3.381356e+01	-8.352733e+01
5.800000e-07	-4.848869e-06	-1.294623e-09	-3.365738e+01	-8.336230e+01
5.900000e-07	-4.825935e-06	-1.246730e-09	-3.349818e+01	-8.319526e+01
6.000000e-07	-4.802631e-06	-1.226320e-09	-3.333643e+01	-8.302645e+01
6.100000e-07	-4.779082e-06	-1.270262e-09	-3.317297e+01	-8.285613e+01
6.200000e-07	-4.755411e-06	-1.257095e-09	-3.300866e+01	-8.268453e+01
6.300000e-07	-4.731559e-06	-1.217665e-09	-3.284309e+01	-8.251188e+01
6.400000e-07	-4.707419e-06	-1.250817e-09	-3.267553e+01	-8.233840e+01
6.500000e-07	-4.682821e-06	-1.254524e-09	-3.250479e+01	-8.216429e+01
6.600000e-07	-4.657731e-06	-1.224505e-09	-3.233063e+01	-8.198972e+01
6.700000e-07	-4.632212e-06	-1.236053e-09	-3.215350e+01	-8.181484e+01
6.800000e-07	-4.606080e-06	-1.252022e-09	-3.197211e+01	-8.163978e+01
6.900000e-07	-4.579300e-06	-1.223009e-09	-3.178622e+01	-8.146464e+01
7.000000e-07	-4.552092e-06	-1.220344e-09	-3.159736e+01	-8.128947e+01
7.100000e-07	-4.524590e-06	-1.237876e-09	-3.140646e+01	-8.111432e+01
7.200000e-07	-4.496870e-06	-1.225529e-09	-3.121405e+01	-8.093919e+01
7.300000e-07	-4.469042e-06	-1.213475e-09	-3.102089e+01	-8.076404e+01
7.400000e-07	-4.441091e-06	-1.222876e-09	-3.082687e+01	-8.058882e+01
7.500000e-07	-4.412828e-06	-1.213399e-09	-3.063069e+01	-8.041343e+01
7.600000e-07	-4.384303e-06	-1.195556e-09	-3.043269e+01	-8.023776e+01
7.700000e-07	-4.355468e-06	-1.201609e-09	-3.023254e+01	-8.006167e+01
7.800000e-07	-4.326227e-06	-1.199683e-09	-3.002957e+01	-7.988499e+01
7.900000e-07	-4.296709e-06	-1.189087e-09	-2.982467e+01	-7.970755e+01
8.000000e-07	-4.266932e-06	-1.192000e-09	-2.961798e+01	-7.952916e+01
8.100000e-07	-4.236896e-06	-1.194367e-09	-2.940950e+01	-7.934960e+01
8.200000e-07	-4.206563e-06	-1.174916e-09	-2.919895e+01	-7.916866e+01
8.300000e-07	-4.175909e-06	-1.171006e-09	-2.898617e+01	-7.898613e+01
8.400000e-07	-4.144988e-06	-1.177722e-09	-2.877154e+01	-7.880179e+01
8.500000e-07	-4.113806e-06	-1.172977e-09	-2.855509e+01	-7.861545e+01
8.600000e-07	-4.082420e-06	-1.163025e-09	-2.833724e+01	-7.842688e+01
8.700000e-07	-4.050890e-06	-1.167034e-09	-2.811838e+01	-7.823592e+01
8.800000e-07	-4.019169e-06	-1.158816e-09	-2.789819e+01	-7.804239e+01
8.900000e-07	-3.987192e-06	-1.149471e-09	-2.767623e+01	-7.784614e+01
9.000000e-07	-3.954902e-06	-1.150738e-09	-2.745210e+01	-7.764703e+01
9.100000e-07	-3.922344e-06	-1.153713e-09	-2.722610e+01	-7.744496e+01
9.200000e-07	-3.889439e-06	-1.146078e-09	-2.699770e+01	-7.723984e+01
9.300000e-07	-3.855989e-06	-1.150133e-09	-2.676551e+01	-7.703162e+01
9.400000e-07	-3.822064e-06	-1.153390e-09	-2.653003e+01	-7.682025e+01
9.500000e-07	-3.787764e-06	-1.140893e-09	-2.629195e+01	-7.660572e+01
9.600000e-07	-3.753056e-06	-1.126974e-09	-2.605103e+01	-7.638806e+01
9.700000e-07	-3.717957e-06	-1.125550e-09	-2.580739e+01	-7.616730e+01
9.800000e-07	-3.682570e-06	-1.115775e-09	-2.556177e+01	-7.594349e+01
9.900000e-07	-3.647007e-06	-1.103968e-09	-2.531491e+01	-7.571671e+01
1.000000e-06	-3.611299e-06	-1.106305e-09	-2.506705e+01	-7.548706e+01
1.010000e-06	-3.575484e-06	-1.111375e-09	-2.481845e+01	-7.525463e+01
1.020000e-06	-3.539550e-06	-1.105353e-09	-2.456902e+01	-7.501955e+01
1.030000e-06	-3.503368e-06	-1.102420e-09	-2.431787e+01	-7.478192e+01
1.040000e-06	-3.466880e-06	-1.101911e-09	-2.406460e+01	-7.454187e+01
1.050000e-06	-3.430183e-06	-1.089534e-09	-2.380988e+01	-7.429952e+01
1.060000e-06	-3.393269e-06	-1.078819e-09	-2.355364e+01	-7.405498e+01
1.070000e-06	-3.356112e-06	-1.076131e-09	-2.329573e+01	-7.380834e+01
1.080000e-06	-3.318663e-06	-1.070444e-09	-2.303578e+01	-7.355970e+01
1.090000e-06	-3.280938e-06	-1.061507e-09	-2.277392e+01	-7.330911e+01
1.100000e-06	-3.243052e-06	-1.062701e-09	-2.251095e+01	-7.305662e+01
1.110000e-06	-3.204923e-06	-1.060893e-09	-2.224628e+01	-7.280226e+01
1.120000e-06	-3.166574e-06	-1.050629e-09	-2.198009e+01	-7.254602e+01
1.130000e-06	-3.128091e-06	-1.043547e-09	-2.171297e+01	-7.228785e+01
1.140000e-06	-3.089310e-06	-1.045056e-09	-2.144378e+01	-7.202769e+01
1.150000e-06	-3.050175e-06	-1.040280e-09	-2.117213e+01	-7.176544e+01
1.160000e-06	-3.010846e-06	-1.031932e-09	-2.089914e+01	-7.150096e+01
1.170000e-06	-2.971410e-06	-1.026319e-09	-2.062540e+01	-7.123409e+01
1.180000e-06	-2.931860e-06	-1.023449e-09	-2.035087e+01	-7.096461e+01
1.190000e-06	-2.892163e-06	-1.020053e-09	-2.007533e+01	-7.069231e+01
1.200000e-06	-2.852350e-06	-1.021615e-09	-1.979897e+01	-7.041690e+01
1.210000e-06	-2.812404e-06	-1.020531e-09	-1.952169e+01	-7.013810e+01
1.220000e-06	-2.772204e-06	-1.016904e-09	-1.924265e+01	-6.985559e+01
1.230000e-06	-2.731830e-06	-1.015971e-09	-1.896240e+01	-6.956902e+01
1.240000e-06	-2.691346e-06	-1.016239e-09	-1.868140e+01	-6.927802e+01
1.250000e-06	-2.650657e-06	-1.008911e-09	-1.839896e+01	-6.898222e+01
1.260000e-06	-2.609743e-06	-1.000391e-09	-1.811497e+01	-6.868122e+01
1.270000e-06	-2.568558e-06	-9.947329e-10	-1.782909e+01	-6.837461e+01
1.280000e-06	-2.527094e-06	-9.893382e-10	-1.754128e+01	-6.806200e+01
1.290000e-06	-2.485359e-06	-9.814745e-10	-1.725158e+01	-6.774297e+01
1.300000e-06	-2.443265e-06	-9.757820e-10	-1.695940e+01	-6.741712e+01
1.310000e-06	-2.400793e-06	-9.725829e-10	-1.666459e+01	-6.708406e+01
1.320000e-06	-2.357980e-06	-9.692086e-10	-1.636741e+01	-6.674339e+01
1.330000e-06	-2.314951e-06	-9.642311e-10	-1.606873e+01	-6.639474e+01
1.340000e-06	-2.271804e-06	-9.614193e-10	-1.576924e+01	-6.603776e+01
1.350000e-06	-2.228537e-06	-9.593209e-10	-1.546891e+01	-6.567212e+01
1.360000e-06	-2.185074e-06	-9.533776e-10	-1.516722e+01	-6.529750e+01
1.370000e-06	-2.141412e-06	-9.461965e-10	-1.486415e+01	-6.491360e+01
1.380000e-06	-2.097707e-06	-9.364923e-10	-1.456078e+01	-6.452017e+01
1.390000e-06	-2.053966e-06	-9.254311e-10	-1.425716e+01	-6.411696e+01
1.400000e-06	-2.010135e-06	-9.169042e-10	-1.395291e+01	-6.370374e+01
1.410000e-06	-1.966259e-06	-9.112799e-10	-1.364836e+01	-6.328031e+01
1.420000e-06	-1.922305e-06	-9.040467e-10	-1.334326e+01	-6.284649e+01
1.430000e-06	-1.878187e-06	-8.983938e-10	-1.303703e+01	-6.240211e+01
1.440000e-06	-1.833964e-06	-8.931887e-10	-1.273006e+01	-6.194702e+01
1.450000e-06	-1.789638e-06	-8.860970e-10	-1.242239e+01	-6.148106e+01
1.460000e-06	-1.745174e-06	-8.736010e-10	-1.211375e+01	-6.100409e+01
1.470000e-06	-1.700623e-06	-8.622539e-10	-1.180450e+01	-6.051596e+01
1.480000e-06	-1.655937e-06	-8.520569e-10	-1.149433e+01	-6.001653e+01
1.490000e-06	-1.611074e-06	-8.394237e-10	-1.118292e+01	-5.950561e+01
1.500000e-06	-1.566072e-06	-8.281925e-10	-1.087055e+01	-5.898301e+01
1.510000e-06	-1.520894e-06	-8.236245e-10	-1.055696e+01	-5.844853e+01
1.520000e-06	-1.475558e-06	-8.186904e-10	-1.024227e+01	-5.790191e+01
1.530000e-06	-1.430190e-06	-8.100608e-10	-9.927356e+00	-5.734287e+01
1.540000e-06	-1.384776e-06	-7.997219e-10	-9.612122e+00	-5.677106e+01
1.550000e-06	-1.339193e-06	-7.889203e-10	-9.295721e+00	-5.618610e+01
1.560000e-06	-1.293498e-06	-7.763044e-10	-8.978535e+00	-5.558756e+01
1.570000e-06	-1.247782e-06	-7.654161e-10	-8.661209e+00	-5.497493e+01
1.580000e-06	-1.202029e-06	-7.555459e-10	-8.343625e+00	-5.434764e+01
1.590000e-06	-1.156201e-06	-7.423996e-10	-8.025520e+00	-5.370506e+01
1.600000e-06	-1.110312e-06	-7.296994e-10	-7.706991e+00	-5.304649e+01
1.610000e-06	-1.064352e-06	-7.218611e-10	-7.387968e+00	-5.237116e+01
1.620000e-06	-1.018256e-06	-7.148752e-10	-7.068007e+00	-5.167822e+01
1.630000e-06	-9.720331e-07	-7.084029e-10	-6.747158e+00	-5.096676e+01
1.640000e-06	-9.257344e-07	-6.994885e-10	-6.425785e+00	-5.023580e+01
1.650000e-06	-8.793237e-07	-6.853149e-10	-6.103635e+00	-4.948430e+01
1.660000e-06	-8.328640e-07	-6.650933e-10	-5.781146e+00	-4.871117e+01
1.670000e-06	-7.863650e-07	-6.444195e-10	-5.458382e+00	-4.791526e+01
1.680000e-06	-7.398642e-07	-6.273808e-10	-5.135607e+00	-4.709537e+01
1.690000e-06	-6.933780e-07	-6.113275e-10	-4.812934e+00	-4.625028e+01
1.700000e-06	-6.467636e-07	-5.980570e-10	-4.489369e+00	-4.537873e+01
1.710000e-06	-6.001023e-07	-5.899117e-10	-4.165480e+00	-4.447946e+01
1.720000e-06	-5.534291e-07	-5.820991e-10	-3.841508e+00	-4.355120e+01
1.730000e-06	-5.067236e-07	-5.686211e-10	-3.517312e+00	-4.259268e+01
1.740000e-06	-4.599701e-07	-5.501966e-10	-3.192783e+00	-4.160268e+01
1.750000e-06	-4.131266e-07	-5.279548e-10	-2.867629e+00	-4.057999e+01
1.760000e-06	-3.662660e-07	-5.057348e-10	-2.542356e+00	-3.952346e+01
1.770000e-06	-3.193572e-07	-4.856170e-10	-2.216749e+00	-3.843201e+01
1.780000e-06	-2.724361e-07	-4.707435e-10	-1.891056e+00	-3.730464e+01
1.790000e-06	-2.255391e-07	-4.588602e-10	-1.565531e+00	-3.614042e+01
1.800000e-06	-1.785708e-07	-4.492594e-10	-1.239511e+00	-3.493857e+01
1.810000e-06	-1.315919e-07	-4.345047e-10	-9.134169e-01	-3.369838e+01
1.820000e-06	-8.467598e-08	-4.161684e-10	-5.877600e-01	-3.241930e+01
1.830000e-06	-3.777250e-08	-3.952058e-10	-2.621896e-01	-3.110094e+01
1.840000e-06	9.145354e-09	-3.744043e-10	6.348050e-02	-2.974303e+01
1.850000e-06	5.609880e-08	-3.557382e-10	3.893977e-01	-2.834547e+01
1.860000e-06	1.030252e-07	-3.372042e-10	7.151272e-01	-2.690836e+01
1.870000e-06	1.498659e-07	-3.175506e-10	1.040262e+00	-2.543194e+01
1.880000e-06	1.967610e-07	-2.951408e-10	1.365774e+00	-2.391666e+01
1.890000e-06	2.436620e-07	-2.702659e-10	1.691327e+00	-2.236314e+01
1.900000e-06	2.905845e-07	-2.443330e-10	2.017030e+00	-2.077219e+01
1.910000e-06	3.375536e-07	-2.194977e-10	2.343055e+00	-1.914481e+01
1.920000e-06	3.843727e-07	-1.971638e-10	2.668040e+00	-1.748220e+01
1.930000e-06	4.311511e-07	-1.763727e-10	2.992742e+00	-1.578571e+01
1.940000e-06	4.778934e-07	-1.544852e-10	3.317193e+00	-1.405688e+01
1.950000e-06	5.245400e-07	-1.310965e-10	3.640981e+00	-1.229743e+01
1.960000e-06	5.711176e-07	-1.069812e-10	3.964289e+00	-1.050922e+01
1.970000e-06	6.176283e-07	-8.090987e-11	4.287133e+00	-8.694273e+00
1.980000e-06	6.641593e-07	-5.489973e-11	4.610118e+00	-6.854748e+00
1.990000e-06	7.106596e-07	-2.841568e-11	4.932890e+00	-4.992924e+00
2.000000e-06	7.570846e-07	-1.550290e-13	5.255139e+00	-3.111192e+00
2.010000e-06	8.034367e-07	2.554743e-11	5.576882e+00	-1.212040e+00
2.020000e-06	8.497643e-07	5.044836e-11	5.898455e+00	7.019656e-01
2.030000e-06	8.960073e-07	7.557564e-11	6.219441e+00	2.628194e+00
2.040000e-06	9.420879e-07	9.969066e-11	6.539299e+00	4.563968e+00
2.050000e-06	9.881117e-07	1.224857e-10	6.858764e+00	6.506581e+00
2.060000e-06	1.034136e-06	1.474981e-10	7.178228e+00	8.453313e+00
2.070000e-06	1.080098e-06	1.761655e-10	7.497264e+00	1.040145e+01
2.080000e-06	1.126036e-06	2.069235e-10	7.816132e+00	1.234829e+01
2.090000e-06	1.171895e-06	2.386324e-10	8.134455e+00	1.429118e+01
2.100000e-06	1.217610e-06	2.701797e-10	8.451778e+00	1.622752e+01
2.110000e-06	1.263291e-06	2.963056e-10	8.768860e+00	1.815475e+01
2.120000e-06	1.308886e-06	3.193949e-10	9.085347e+00	2.007042e+01
2.130000e-06	1.354326e-06	3.413718e-10	9.400762e+00	2.197216e+01
2.140000e-06	1.399722e-06	3.619402e-10	9.715866e+00	2.385770e+01
2.150000e-06	1.445097e-06	3.855195e-10	1.003083e+01	2.572488e+01
2.160000e-06	1.490319e-06	4.142665e-10	1.034473e+01	2.757168e+01
2.170000e-06	1.535440e-06	4.443008e-10	1.065792e+01	2.939618e+01
2.180000e-06	1.580468e-06	4.715237e-10	1.097048e+01	3.119662e+01
2.190000e-06	1.625330e-06	4.973855e-10	1.128187e+01	3.297135e+01
2.200000e-06	1.670027e-06	5.216959e-10	1.159213e+01	3.471889e+01
2.210000e-06	1.714609e-06	5.423153e-10	1.190159e+01	3.643789e+01
2.220000e-06	1.759099e-06	5.623348e-10	1.221040e+01	3.812714e+01
2.230000e-06	1.803356e-06	5.849136e-10	1.251761e+01	3.978557e+01
2.240000e-06	1.847414e-06	6.077480e-10	1.282343e+01	4.141226e+01
2.250000e-06	1.891364e-06	6.296177e-10	1.312849e+01	4.300641e+01
2.260000e-06	1.935282e-06	6.511221e-10	1.343334e+01	4.456738e+01
2.270000e-06	1.979177e-06	6.722481e-10	1.373803e+01	4.609463e+01
2.280000e-06	2.022984e-06	6.925329e-10	1.404211e+01	4.758775e+01
2.290000e-06	2.066739e-06	7.116604e-10	1.434582e+01	4.904646e+01
2.300000e-06	2.110470e-06	7.299201e-10	1.464937e+01	5.047055e+01
2.310000e-06	2.154182e-06	7.485185e-10	1.495279e+01	5.185995e+01
2.320000e-06	2.197798e-06	7.663905e-10	1.525554e+01	5.321466e+01
2.330000e-06	2.241283e-06	7.846271e-10	1.555738e+01	5.453479e+01
2.340000e-06	2.284623e-06	8.035093e-10	1.585822e+01	5.582049e+01
2.350000e-06	2.327763e-06	8.229351e-10	1.615767e+01	5.707202e+01
2.360000e-06	2.370658e-06	8.411556e-10	1.645541e+01	5.828968e+01
2.370000e-06	2.413304e-06	8.580619e-10	1.675143e+01	5.947382e+01
2.380000e-06	2.455677e-06	8.735643e-10	1.704555e+01	6.062486e+01
2.390000e-06	2.497737e-06	8.881894e-10	1.733750e+01	6.174324e+01
2.400000e-06	2.539414e-06	9.031148e-10	1.762679e+01	6.282945e+01
2.410000e-06	2.580631e-06	9.191092e-10	1.791289e+01	6.388400e+01
2.420000e-06	2.621503e-06	9.321718e-10	1.819659e+01	6.490744e+01
2.430000e-06	2.662204e-06	9.413086e-10	1.847911e+01	6.590032e+01
2.440000e-06	2.702745e-06	9.510012e-10	1.876052e+01	6.686322e+01
2.450000e-06	2.743054e-06	9.614124e-10	1.904032e+01	6.779672e+01
2.460000e-06	2.783170e-06	9.743610e-10	1.931877e+01	6.870141e+01
2.470000e-06	2.823170e-06	9.876455e-10	1.959642e+01	6.957789e+01
2.480000e-06	2.863068e-06	9.993682e-10	1.987337e+01	7.042676e+01
2.490000e-06	2.902821e-06	1.012403e-09	2.014931e+01	7.124862e+01
2.500000e-06	2.942459e-06	1.024939e-09	2.042444e+01	7.204407e+01
2.510000e-06	2.981933e-06	1.033875e-09	2.069844e+01	7.281370e+01
2.520000e-06	3.021191e-06	1.039637e-09	2.097094e+01	7.355810e+01
2.530000e-06	3.060333e-06	1.045011e-09	2.124264e+01	7.427785e+01
2.540000e-06	3.099301e-06	1.051290e-09	2.151313e+01	7.497354e+01
2.550000e-06	3.137917e-06	1.058468e-09	2.178117e+01	7.564574e+01
2.560000e-06	3.176286e-06	1.067964e-09	2.204750e+01	7.629500e+01
2.570000e-06	3.214492e-06	1.077504e-09	2.231270e+01	7.692190e+01
2.580000e-06	3.252439e-06	1.085767e-09	2.257610e+01	7.752697e+01
2.590000e-06	3.290098e-06	1.092181e-09	2.283750e+01	7.811076e+01
2.600000e-06	3.327536e-06	1.096369e-09	2.309737e+01	7.867381e+01
2.610000e-06	3.364871e-06	1.100854e-09	2.335652e+01	7.921664e+01
2.620000e-06	3.402015e-06	1.107410e-09	2.361435e+01	7.973977e+01
2.630000e-06	3.438868e-06	1.115553e-09	2.387016e+01	8.024372e+01
2.640000e-06	3.475440e-06	1.124672e-09	2.412401e+01	8.072899e+01
2.650000e-06	3.511696e-06	1.133513e-09	2.437568e+01	8.119608e+01
2.660000e-06	3.547723e-06	1.139888e-09	2.462575e+01	8.164548e+01
2.670000e-06	3.583604e-06	1.143400e-09	2.487481e+01	8.207768e+01
2.680000e-06	3.619364e-06	1.147587e-09	2.512304e+01	8.249315e+01
2.690000e-06	3.655073e-06	1.153754e-09	2.537090e+01	8.289237e+01
2.700000e-06	3.690682e-06	1.161710e-09	2.561807e+01	8.327581e+01
2.710000e-06	3.726046e-06	1.171744e-09	2.586354e+01	8.364393e+01
2.720000e-06	3.761109e-06	1.182157e-09	2.610692e+01	8.399718e+01
2.730000e-06	3.795873e-06	1.189205e-09	2.634823e+01	8.433602e+01
2.740000e-06	3.830208e-06	1.192837e-09	2.658656e+01	8.466089e+01
2.750000e-06	3.864027e-06	1.192568e-09	2.682131e+01	8.497225e+01
2.760000e-06	3.897417e-06	1.191697e-09	2.705307e+01	8.527054e+01
2.770000e-06	3.930229e-06	1.194287e-09	2.728084e+01	8.555619e+01
2.780000e-06	3.962527e-06	1.201340e-09	2.750503e+01	8.582964e+01
2.790000e-06	3.994654e-06	1.211960e-09	2.772803e+01	8.609133e+01
2.800000e-06	4.026576e-06	1.222471e-09	2.794961e+01	8.634169e+01
2.810000e-06	4.058321e-06	1.228701e-09	2.816995e+01	8.658117e+01
2.820000e-06	4.089963e-06	1.229594e-09	2.838959e+01	8.681018e+01
2.830000e-06	4.121435e-06	1.227387e-09	2.860805e+01	8.702918e+01
2.840000e-06	4.152621e-06	1.224471e-09	2.882452e+01	8.723857e+01
2.850000e-06	4.183482e-06	1.221642e-09	2.903874e+01	8.743881e+01
2.860000e-06	4.214042e-06	1.223111e-09	2.925086e+01	8.763032e+01
2.870000e-06	4.244269e-06	1.231186e-09	2.946068e+01	8.781352e+01
2.880000e-06	4.274162e-06	1.241432e-09	2.966817e+01	8.798885e+01
2.890000e-06	4.303770e-06	1.251518e-09	2.987369e+01	8.815672e+01
2.900000e-06	4.333178e-06	1.254570e-09	3.007782e+01	8.831755e+01
