# Temperatura_=_10.2
# Concentracion g/m^3_=_1620.0
# C_Vs_to_Am_M_A/Vsm_=_65563218390.804596
# pendiente_HvsI_1/m_=_3716.3
# ordenada_HvsI_A/m_=_1297.0
# frecuencia_Hz_=_135099.65167709225

Tiempo_(s)	Campo_(V.s)	Magnetizacion_(V.s)	Campo_(kA/m)	Magnetizacion_(A/m)
0.000000e+00	-5.538071e-06	-1.591468e-09	-3.837018e+01	-1.048892e+02
1.000000e-08	-5.538180e-06	-1.587512e-09	-3.837094e+01	-1.048386e+02
2.000000e-08	-5.537991e-06	-1.585989e-09	-3.836963e+01	-1.047917e+02
3.000000e-08	-5.537386e-06	-1.585236e-09	-3.836544e+01	-1.047486e+02
4.000000e-08	-5.536263e-06	-1.585069e-09	-3.835766e+01	-1.047094e+02
5.000000e-08	-5.534526e-06	-1.582913e-09	-3.834562e+01	-1.046738e+02
6.000000e-08	-5.532274e-06	-1.578647e-09	-3.833002e+01	-1.046418e+02
7.000000e-08	-5.529485e-06	-1.588590e-09	-3.831069e+01	-1.046129e+02
8.000000e-08	-5.526159e-06	-1.617509e-09	-3.828765e+01	-1.045868e+02
9.000000e-08	-5.522295e-06	-1.630064e-09	-3.826088e+01	-1.045629e+02
1.000000e-07	-5.517967e-06	-1.611843e-09	-3.823089e+01	-1.045406e+02
1.100000e-07	-5.513458e-06	-1.542314e-09	-3.819965e+01	-1.045192e+02
1.200000e-07	-5.508826e-06	-1.520940e-09	-3.816756e+01	-1.044978e+02
1.300000e-07	-5.503883e-06	-1.579224e-09	-3.813331e+01	-1.044756e+02
1.400000e-07	-5.498452e-06	-1.600656e-09	-3.809568e+01	-1.044518e+02
1.500000e-07	-5.492686e-06	-1.577791e-09	-3.805574e+01	-1.044253e+02
1.600000e-07	-5.486574e-06	-1.545645e-09	-3.801339e+01	-1.043953e+02
1.700000e-07	-5.480092e-06	-1.599371e-09	-3.796848e+01	-1.043608e+02
1.800000e-07	-5.473218e-06	-1.620733e-09	-3.792085e+01	-1.043208e+02
1.900000e-07	-5.465910e-06	-1.545855e-09	-3.787021e+01	-1.042744e+02
2.000000e-07	-5.458255e-06	-1.504670e-09	-3.781718e+01	-1.042209e+02
2.100000e-07	-5.450297e-06	-1.562517e-09	-3.776204e+01	-1.041594e+02
2.200000e-07	-5.442091e-06	-1.629782e-09	-3.770519e+01	-1.040892e+02
2.300000e-07	-5.433652e-06	-1.597140e-09	-3.764672e+01	-1.040096e+02
2.400000e-07	-5.424781e-06	-1.552415e-09	-3.758526e+01	-1.039203e+02
2.500000e-07	-5.415183e-06	-1.563624e-09	-3.751876e+01	-1.038208e+02
2.600000e-07	-5.404882e-06	-1.585494e-09	-3.744739e+01	-1.037108e+02
2.700000e-07	-5.394097e-06	-1.561074e-09	-3.737266e+01	-1.035902e+02
2.800000e-07	-5.382871e-06	-1.550975e-09	-3.729489e+01	-1.034589e+02
2.900000e-07	-5.371198e-06	-1.566198e-09	-3.721401e+01	-1.033172e+02
3.000000e-07	-5.359113e-06	-1.578504e-09	-3.713028e+01	-1.031651e+02
3.100000e-07	-5.346656e-06	-1.555622e-09	-3.704398e+01	-1.030030e+02
3.200000e-07	-5.333792e-06	-1.543260e-09	-3.695485e+01	-1.028315e+02
3.300000e-07	-5.320515e-06	-1.547852e-09	-3.686286e+01	-1.026511e+02
3.400000e-07	-5.306760e-06	-1.555032e-09	-3.676756e+01	-1.024625e+02
3.500000e-07	-5.292469e-06	-1.548691e-09	-3.666854e+01	-1.022663e+02
3.600000e-07	-5.277688e-06	-1.538399e-09	-3.656613e+01	-1.020635e+02
3.700000e-07	-5.262557e-06	-1.549756e-09	-3.646130e+01	-1.018550e+02
3.800000e-07	-5.246960e-06	-1.559340e-09	-3.635323e+01	-1.016415e+02
3.900000e-07	-5.230699e-06	-1.537130e-09	-3.624057e+01	-1.014241e+02
4.000000e-07	-5.214046e-06	-1.519191e-09	-3.612519e+01	-1.012036e+02
4.100000e-07	-5.197161e-06	-1.538513e-09	-3.600821e+01	-1.009811e+02
4.200000e-07	-5.179931e-06	-1.535738e-09	-3.588883e+01	-1.007573e+02
4.300000e-07	-5.162318e-06	-1.509933e-09	-3.576680e+01	-1.005332e+02
4.400000e-07	-5.144316e-06	-1.530125e-09	-3.564208e+01	-1.003095e+02
4.500000e-07	-5.125946e-06	-1.549859e-09	-3.551480e+01	-1.000870e+02
4.600000e-07	-5.107160e-06	-1.502085e-09	-3.538464e+01	-9.986624e+01
4.700000e-07	-5.087981e-06	-1.490177e-09	-3.525176e+01	-9.964782e+01
4.800000e-07	-5.068553e-06	-1.530045e-09	-3.511716e+01	-9.943217e+01
4.900000e-07	-5.048903e-06	-1.513653e-09	-3.498101e+01	-9.921964e+01
5.000000e-07	-5.029040e-06	-1.476096e-09	-3.484339e+01	-9.901045e+01
5.100000e-07	-5.008885e-06	-1.505705e-09	-3.470375e+01	-9.880473e+01
5.200000e-07	-4.988400e-06	-1.507497e-09	-3.456182e+01	-9.860248e+01
5.300000e-07	-4.967637e-06	-1.471501e-09	-3.441796e+01	-9.840362e+01
5.400000e-07	-4.946479e-06	-1.488583e-09	-3.427137e+01	-9.820795e+01
5.500000e-07	-4.925025e-06	-1.507072e-09	-3.412273e+01	-9.801518e+01
5.600000e-07	-4.903342e-06	-1.462394e-09	-3.397250e+01	-9.782493e+01
5.700000e-07	-4.881279e-06	-1.466379e-09	-3.381964e+01	-9.763674e+01
5.800000e-07	-4.858781e-06	-1.505802e-09	-3.366376e+01	-9.745010e+01
5.900000e-07	-4.835953e-06	-1.481150e-09	-3.350560e+01	-9.726442e+01
6.000000e-07	-4.812891e-06	-1.454353e-09	-3.334581e+01	-9.707910e+01
6.100000e-07	-4.789505e-06	-1.478549e-09	-3.318379e+01	-9.689347e+01
6.200000e-07	-4.765838e-06	-1.465140e-09	-3.301981e+01	-9.670689e+01
6.300000e-07	-4.741944e-06	-1.439332e-09	-3.285426e+01	-9.651868e+01
6.400000e-07	-4.717734e-06	-1.460310e-09	-3.268653e+01	-9.632818e+01
6.500000e-07	-4.693083e-06	-1.467205e-09	-3.251573e+01	-9.613475e+01
6.600000e-07	-4.667946e-06	-1.446224e-09	-3.234157e+01	-9.593779e+01
6.700000e-07	-4.642319e-06	-1.454362e-09	-3.216402e+01	-9.573674e+01
6.800000e-07	-4.616195e-06	-1.457642e-09	-3.198302e+01	-9.553107e+01
6.900000e-07	-4.589550e-06	-1.432496e-09	-3.179841e+01	-9.532032e+01
7.000000e-07	-4.562461e-06	-1.430701e-09	-3.161072e+01	-9.510411e+01
7.100000e-07	-4.535074e-06	-1.437597e-09	-3.142098e+01	-9.488210e+01
7.200000e-07	-4.507432e-06	-1.421556e-09	-3.122947e+01	-9.465403e+01
7.300000e-07	-4.479590e-06	-1.416113e-09	-3.103656e+01	-9.441971e+01
7.400000e-07	-4.451586e-06	-1.426924e-09	-3.084253e+01	-9.417902e+01
7.500000e-07	-4.423309e-06	-1.415405e-09	-3.064662e+01	-9.393192e+01
7.600000e-07	-4.394753e-06	-1.401529e-09	-3.044878e+01	-9.367841e+01
7.700000e-07	-4.365873e-06	-1.401593e-09	-3.024868e+01	-9.341857e+01
7.800000e-07	-4.336731e-06	-1.395034e-09	-3.004677e+01	-9.315253e+01
7.900000e-07	-4.307307e-06	-1.382570e-09	-2.984291e+01	-9.288047e+01
8.000000e-07	-4.277537e-06	-1.384347e-09	-2.963665e+01	-9.260261e+01
8.100000e-07	-4.247477e-06	-1.376468e-09	-2.942838e+01	-9.231921e+01
8.200000e-07	-4.217108e-06	-1.358249e-09	-2.921797e+01	-9.203055e+01
8.300000e-07	-4.186446e-06	-1.353006e-09	-2.900553e+01	-9.173692e+01
8.400000e-07	-4.155499e-06	-1.356870e-09	-2.879111e+01	-9.143866e+01
8.500000e-07	-4.124240e-06	-1.350928e-09	-2.857454e+01	-9.113606e+01
8.600000e-07	-4.092760e-06	-1.347257e-09	-2.835644e+01	-9.082945e+01
8.700000e-07	-4.061200e-06	-1.347421e-09	-2.813777e+01	-9.051912e+01
8.800000e-07	-4.029483e-06	-1.337885e-09	-2.791802e+01	-9.020537e+01
8.900000e-07	-3.997497e-06	-1.323279e-09	-2.769641e+01	-8.988846e+01
9.000000e-07	-3.965195e-06	-1.319692e-09	-2.747261e+01	-8.956864e+01
9.100000e-07	-3.932609e-06	-1.314158e-09	-2.724684e+01	-8.924610e+01
9.200000e-07	-3.899614e-06	-1.305680e-09	-2.701823e+01	-8.892105e+01
9.300000e-07	-3.866083e-06	-1.305141e-09	-2.678591e+01	-8.859362e+01
9.400000e-07	-3.832053e-06	-1.305107e-09	-2.655014e+01	-8.826394e+01
9.500000e-07	-3.797564e-06	-1.295320e-09	-2.631118e+01	-8.793209e+01
9.600000e-07	-3.762762e-06	-1.287403e-09	-2.607006e+01	-8.759812e+01
9.700000e-07	-3.727698e-06	-1.284495e-09	-2.582712e+01	-8.726206e+01
9.800000e-07	-3.692354e-06	-1.275446e-09	-2.558225e+01	-8.692390e+01
9.900000e-07	-3.656821e-06	-1.264207e-09	-2.533606e+01	-8.658362e+01
1.000000e-06	-3.621125e-06	-1.258602e-09	-2.508874e+01	-8.624115e+01
1.010000e-06	-3.585247e-06	-1.254300e-09	-2.484016e+01	-8.589644e+01
1.020000e-06	-3.549213e-06	-1.246429e-09	-2.459050e+01	-8.554940e+01
1.030000e-06	-3.512983e-06	-1.245234e-09	-2.433949e+01	-8.519992e+01
1.040000e-06	-3.476458e-06	-1.244443e-09	-2.408642e+01	-8.484791e+01
1.050000e-06	-3.439621e-06	-1.237573e-09	-2.383120e+01	-8.449325e+01
1.060000e-06	-3.402505e-06	-1.229926e-09	-2.357405e+01	-8.413582e+01
1.070000e-06	-3.365161e-06	-1.225198e-09	-2.331531e+01	-8.377551e+01
1.080000e-06	-3.327620e-06	-1.215942e-09	-2.305521e+01	-8.341219e+01
1.090000e-06	-3.289821e-06	-1.206979e-09	-2.279332e+01	-8.304574e+01
1.100000e-06	-3.251844e-06	-1.201928e-09	-2.253020e+01	-8.267605e+01
1.110000e-06	-3.213792e-06	-1.194995e-09	-2.226656e+01	-8.230299e+01
1.120000e-06	-3.175453e-06	-1.185184e-09	-2.200093e+01	-8.192644e+01
1.130000e-06	-3.136772e-06	-1.179126e-09	-2.173293e+01	-8.154629e+01
1.140000e-06	-3.097962e-06	-1.174561e-09	-2.146404e+01	-8.116240e+01
1.150000e-06	-3.059003e-06	-1.170054e-09	-2.119411e+01	-8.077465e+01
1.160000e-06	-3.019832e-06	-1.163405e-09	-2.092272e+01	-8.038289e+01
1.170000e-06	-2.980485e-06	-1.157311e-09	-2.065010e+01	-7.998699e+01
1.180000e-06	-2.940957e-06	-1.152142e-09	-2.037624e+01	-7.958677e+01
1.190000e-06	-2.901307e-06	-1.147940e-09	-2.010152e+01	-7.918207e+01
1.200000e-06	-2.861518e-06	-1.142297e-09	-1.982585e+01	-7.877269e+01
1.210000e-06	-2.821534e-06	-1.132906e-09	-1.954882e+01	-7.835841e+01
1.220000e-06	-2.781360e-06	-1.124555e-09	-1.927048e+01	-7.793902e+01
1.230000e-06	-2.741082e-06	-1.118928e-09	-1.899142e+01	-7.751424e+01
1.240000e-06	-2.700617e-06	-1.111901e-09	-1.871106e+01	-7.708381e+01
1.250000e-06	-2.659844e-06	-1.103471e-09	-1.842856e+01	-7.664743e+01
1.260000e-06	-2.618755e-06	-1.097603e-09	-1.814388e+01	-7.620477e+01
1.270000e-06	-2.577298e-06	-1.091782e-09	-1.785665e+01	-7.575550e+01
1.280000e-06	-2.535587e-06	-1.084564e-09	-1.756765e+01	-7.529924e+01
1.290000e-06	-2.493718e-06	-1.076437e-09	-1.727757e+01	-7.483561e+01
1.300000e-06	-2.451574e-06	-1.068145e-09	-1.698558e+01	-7.436423e+01
1.310000e-06	-2.409086e-06	-1.057977e-09	-1.669120e+01	-7.388469e+01
1.320000e-06	-2.366269e-06	-1.047554e-09	-1.639455e+01	-7.339656e+01
1.330000e-06	-2.323248e-06	-1.035411e-09	-1.609648e+01	-7.289943e+01
1.340000e-06	-2.280075e-06	-1.026035e-09	-1.579736e+01	-7.239289e+01
1.350000e-06	-2.236732e-06	-1.020732e-09	-1.549706e+01	-7.187650e+01
1.360000e-06	-2.193243e-06	-1.016876e-09	-1.519575e+01	-7.134987e+01
1.370000e-06	-2.149636e-06	-1.010507e-09	-1.489362e+01	-7.081260e+01
1.380000e-06	-2.105946e-06	-1.000083e-09	-1.459092e+01	-7.026430e+01
1.390000e-06	-2.062167e-06	-9.877125e-10	-1.428760e+01	-6.970462e+01
1.400000e-06	-2.018278e-06	-9.740996e-10	-1.398351e+01	-6.913320e+01
1.410000e-06	-1.974259e-06	-9.607833e-10	-1.367853e+01	-6.854973e+01
1.420000e-06	-1.930148e-06	-9.471842e-10	-1.337291e+01	-6.795390e+01
1.430000e-06	-1.885932e-06	-9.374197e-10	-1.306656e+01	-6.734545e+01
1.440000e-06	-1.841542e-06	-9.284414e-10	-1.275901e+01	-6.672410e+01
1.450000e-06	-1.796999e-06	-9.185088e-10	-1.245040e+01	-6.608965e+01
1.460000e-06	-1.752455e-06	-9.078482e-10	-1.214177e+01	-6.544186e+01
1.470000e-06	-1.707858e-06	-8.970745e-10	-1.183279e+01	-6.478053e+01
1.480000e-06	-1.663049e-06	-8.866969e-10	-1.152233e+01	-6.410548e+01
1.490000e-06	-1.618114e-06	-8.710131e-10	-1.121101e+01	-6.341651e+01
1.500000e-06	-1.573125e-06	-8.528570e-10	-1.089930e+01	-6.271344e+01
1.510000e-06	-1.527953e-06	-8.392779e-10	-1.058633e+01	-6.199606e+01
1.520000e-06	-1.482678e-06	-8.283268e-10	-1.027264e+01	-6.126418e+01
1.530000e-06	-1.437335e-06	-8.187212e-10	-9.958486e+00	-6.051754e+01
1.540000e-06	-1.391763e-06	-8.092551e-10	-9.642744e+00	-5.975588e+01
1.550000e-06	-1.346120e-06	-7.984200e-10	-9.326506e+00	-5.897890e+01
1.560000e-06	-1.300476e-06	-7.863338e-10	-9.010266e+00	-5.818625e+01
1.570000e-06	-1.254717e-06	-7.715803e-10	-8.693229e+00	-5.737753e+01
1.580000e-06	-1.208919e-06	-7.595370e-10	-8.375918e+00	-5.655228e+01
1.590000e-06	-1.163046e-06	-7.457796e-10	-8.058090e+00	-5.570998e+01
1.600000e-06	-1.117100e-06	-7.320310e-10	-7.739757e+00	-5.485003e+01
1.610000e-06	-1.071107e-06	-7.174630e-10	-7.421098e+00	-5.397178e+01
1.620000e-06	-1.024904e-06	-7.040550e-10	-7.100985e+00	-5.307450e+01
1.630000e-06	-9.785532e-07	-6.924295e-10	-6.779845e+00	-5.215738e+01
1.640000e-06	-9.322028e-07	-6.791638e-10	-6.458709e+00	-5.121955e+01
1.650000e-06	-8.858319e-07	-6.658656e-10	-6.137431e+00	-5.026005e+01
1.660000e-06	-8.393442e-07	-6.508995e-10	-5.815344e+00	-4.927788e+01
1.670000e-06	-7.928010e-07	-6.348435e-10	-5.492872e+00	-4.827197e+01
1.680000e-06	-7.461491e-07	-6.176376e-10	-5.169648e+00	-4.724119e+01
1.690000e-06	-6.994659e-07	-5.987318e-10	-4.846206e+00	-4.618439e+01
1.700000e-06	-6.529071e-07	-5.786296e-10	-4.523626e+00	-4.510038e+01
1.710000e-06	-6.062711e-07	-5.598672e-10	-4.200511e+00	-4.398793e+01
1.720000e-06	-5.594971e-07	-5.425581e-10	-3.876441e+00	-4.284584e+01
1.730000e-06	-5.126419e-07	-5.235820e-10	-3.551808e+00	-4.167289e+01
1.740000e-06	-4.657917e-07	-5.046969e-10	-3.227209e+00	-4.046790e+01
1.750000e-06	-4.190054e-07	-4.851623e-10	-2.903053e+00	-3.922972e+01
1.760000e-06	-3.720912e-07	-4.651616e-10	-2.578011e+00	-3.795726e+01
1.770000e-06	-3.250672e-07	-4.484325e-10	-2.252208e+00	-3.664951e+01
1.780000e-06	-2.781263e-07	-4.305702e-10	-1.926981e+00	-3.530553e+01
1.790000e-06	-2.310992e-07	-4.099626e-10	-1.601157e+00	-3.392451e+01
1.800000e-06	-1.840087e-07	-3.876923e-10	-1.274893e+00	-3.250574e+01
1.810000e-06	-1.370022e-07	-3.667089e-10	-9.492113e-01	-3.104864e+01
1.820000e-06	-8.999315e-08	-3.450275e-10	-6.235119e-01	-2.955280e+01
1.830000e-06	-4.297170e-08	-3.241313e-10	-2.977268e-01	-2.801797e+01
1.840000e-06	4.102898e-09	-3.042813e-10	2.842667e-02	-2.644404e+01
1.850000e-06	5.115904e-08	-2.841784e-10	3.544522e-01	-2.483111e+01
1.860000e-06	9.815733e-08	-2.615147e-10	6.800770e-01	-2.317946e+01
1.870000e-06	1.451673e-07	-2.357420e-10	1.005782e+00	-2.148956e+01
1.880000e-06	1.921153e-07	-2.082360e-10	1.331059e+00	-1.976209e+01
1.890000e-06	2.390212e-07	-1.802219e-10	1.656043e+00	-1.799792e+01
1.900000e-06	2.858571e-07	-1.524132e-10	1.980543e+00	-1.619810e+01
1.910000e-06	3.326380e-07	-1.262867e-10	2.304661e+00	-1.436390e+01
1.920000e-06	3.794712e-07	-1.012848e-10	2.629143e+00	-1.249678e+01
1.930000e-06	4.263591e-07	-7.778992e-11	2.954002e+00	-1.059838e+01
1.940000e-06	4.732188e-07	-5.284368e-11	3.278667e+00	-8.670494e+00
1.950000e-06	5.199782e-07	-2.599261e-11	3.602636e+00	-6.715117e+00
1.960000e-06	5.666591e-07	-7.420714e-13	3.926062e+00	-4.734375e+00
1.970000e-06	6.133339e-07	2.354460e-11	4.249446e+00	-2.730543e+00
1.980000e-06	6.600650e-07	4.885292e-11	4.573219e+00	-7.060166e-01
1.990000e-06	7.067191e-07	7.798305e-11	4.896459e+00	1.336694e+00
2.000000e-06	7.532197e-07	1.098747e-10	5.218636e+00	3.394986e+00
2.010000e-06	7.996615e-07	1.430269e-10	5.540405e+00	5.466180e+00
2.020000e-06	8.460117e-07	1.752536e-10	5.861540e+00	7.547538e+00
2.030000e-06	8.923316e-07	2.043850e-10	6.182464e+00	9.636277e+00
2.040000e-06	9.386604e-07	2.316906e-10	6.503450e+00	1.172959e+01
2.050000e-06	9.849354e-07	2.602941e-10	6.824064e+00	1.382468e+01
2.060000e-06	1.031163e-06	2.895844e-10	7.144352e+00	1.591873e+01
2.070000e-06	1.077311e-06	3.197370e-10	7.464081e+00	1.800897e+01
2.080000e-06	1.123318e-06	3.485044e-10	7.782839e+00	2.009267e+01
2.090000e-06	1.169210e-06	3.765626e-10	8.100799e+00	2.216717e+01
2.100000e-06	1.215030e-06	4.066150e-10	8.418263e+00	2.422986e+01
2.110000e-06	1.260776e-06	4.374579e-10	8.735210e+00	2.627822e+01
2.120000e-06	1.306392e-06	4.663749e-10	9.051256e+00	2.830985e+01
2.130000e-06	1.351915e-06	4.930944e-10	9.366656e+00	3.032242e+01
2.140000e-06	1.397410e-06	5.174358e-10	9.681865e+00	3.231376e+01
2.150000e-06	1.442768e-06	5.413323e-10	9.996128e+00	3.428179e+01
2.160000e-06	1.488007e-06	5.664669e-10	1.030956e+01	3.622459e+01
2.170000e-06	1.533104e-06	5.921889e-10	1.062201e+01	3.814034e+01
2.180000e-06	1.578103e-06	6.185592e-10	1.093379e+01	4.002741e+01
2.190000e-06	1.623067e-06	6.466246e-10	1.124532e+01	4.188427e+01
2.200000e-06	1.667929e-06	6.752475e-10	1.155615e+01	4.370957e+01
2.210000e-06	1.712633e-06	7.018921e-10	1.186587e+01	4.550208e+01
2.220000e-06	1.757174e-06	7.272895e-10	1.217447e+01	4.726074e+01
2.230000e-06	1.801573e-06	7.519109e-10	1.248209e+01	4.898461e+01
2.240000e-06	1.845807e-06	7.738363e-10	1.278856e+01	5.067292e+01
2.250000e-06	1.889944e-06	7.933254e-10	1.309436e+01	5.232501e+01
2.260000e-06	1.934010e-06	8.120795e-10	1.339967e+01	5.394037e+01
2.270000e-06	1.977969e-06	8.319807e-10	1.370423e+01	5.551861e+01
2.280000e-06	2.021827e-06	8.518572e-10	1.400810e+01	5.705949e+01
2.290000e-06	2.065640e-06	8.703601e-10	1.431166e+01	5.856285e+01
2.300000e-06	2.109378e-06	8.907284e-10	1.461469e+01	6.002867e+01
2.310000e-06	2.153062e-06	9.137665e-10	1.491736e+01	6.145701e+01
2.320000e-06	2.196672e-06	9.356812e-10	1.521951e+01	6.284805e+01
2.330000e-06	2.240122e-06	9.551382e-10	1.552055e+01	6.420205e+01
2.340000e-06	2.283516e-06	9.745266e-10	1.582120e+01	6.551934e+01
2.350000e-06	2.326760e-06	9.929739e-10	1.612081e+01	6.680035e+01
2.360000e-06	2.369756e-06	1.007625e-09	1.641871e+01	6.804555e+01
2.370000e-06	2.412481e-06	1.020348e-09	1.671473e+01	6.925549e+01
2.380000e-06	2.454942e-06	1.032469e-09	1.700891e+01	7.043074e+01
2.390000e-06	2.497143e-06	1.046298e-09	1.730130e+01	7.157195e+01
2.400000e-06	2.539011e-06	1.062533e-09	1.759138e+01	7.267979e+01
2.410000e-06	2.580537e-06	1.078720e-09	1.787909e+01	7.375495e+01
2.420000e-06	2.621644e-06	1.093560e-09	1.816390e+01	7.479814e+01
2.430000e-06	2.662382e-06	1.106381e-09	1.844615e+01	7.581012e+01
2.440000e-06	2.702863e-06	1.118354e-09	1.872662e+01	7.679162e+01
2.450000e-06	2.743171e-06	1.129377e-09	1.900589e+01	7.774339e+01
2.460000e-06	2.783361e-06	1.140280e-09	1.928434e+01	7.866618e+01
2.470000e-06	2.823418e-06	1.151387e-09	1.956187e+01	7.956073e+01
2.480000e-06	2.863292e-06	1.162456e-09	1.983814e+01	8.042777e+01
2.490000e-06	2.903023e-06	1.173990e-09	2.011342e+01	8.126804e+01
2.500000e-06	2.942669e-06	1.184917e-09	2.038810e+01	8.208222e+01
2.510000e-06	2.982198e-06	1.195716e-09	2.066197e+01	8.287102e+01
2.520000e-06	3.021566e-06	1.207862e-09	2.093473e+01	8.363509e+01
2.530000e-06	3.060737e-06	1.220047e-09	2.120613e+01	8.437510e+01
2.540000e-06	3.099664e-06	1.230751e-09	2.147583e+01	8.509167e+01
2.550000e-06	3.138340e-06	1.238299e-09	2.174379e+01	8.578540e+01
2.560000e-06	3.176834e-06	1.244554e-09	2.201050e+01	8.645690e+01
2.570000e-06	3.215093e-06	1.250131e-09	2.227557e+01	8.710674e+01
2.580000e-06	3.253073e-06	1.256407e-09	2.253871e+01	8.773547e+01
2.590000e-06	3.290873e-06	1.264496e-09	2.280061e+01	8.834365e+01
2.600000e-06	3.328475e-06	1.272984e-09	2.306113e+01	8.893180e+01
2.610000e-06	3.365889e-06	1.282301e-09	2.332035e+01	8.950046e+01
2.620000e-06	3.403069e-06	1.292611e-09	2.357795e+01	9.005015e+01
2.630000e-06	3.440012e-06	1.303381e-09	2.383391e+01	9.058138e+01
2.640000e-06	3.476703e-06	1.312130e-09	2.408812e+01	9.109469e+01
2.650000e-06	3.513082e-06	1.318066e-09	2.434017e+01	9.159060e+01
2.660000e-06	3.549191e-06	1.322644e-09	2.459035e+01	9.206965e+01
2.670000e-06	3.585092e-06	1.327484e-09	2.483909e+01	9.253237e+01
2.680000e-06	3.620882e-06	1.332649e-09	2.508706e+01	9.297933e+01
2.690000e-06	3.656552e-06	1.338826e-09	2.533420e+01	9.341108e+01
2.700000e-06	3.692107e-06	1.346421e-09	2.558053e+01	9.382822e+01
2.710000e-06	3.727580e-06	1.353855e-09	2.582631e+01	9.423134e+01
2.720000e-06	3.762906e-06	1.361902e-09	2.607106e+01	9.462105e+01
2.730000e-06	3.797860e-06	1.370249e-09	2.631324e+01	9.499797e+01
2.740000e-06	3.832327e-06	1.378752e-09	2.655204e+01	9.536275e+01
2.750000e-06	3.866277e-06	1.383555e-09	2.678726e+01	9.571602e+01
2.760000e-06	3.899683e-06	1.384365e-09	2.701871e+01	9.605844e+01
2.770000e-06	3.932562e-06	1.385985e-09	2.724651e+01	9.639067e+01
2.780000e-06	3.964983e-06	1.391546e-09	2.747114e+01	9.671335e+01
2.790000e-06	3.997105e-06	1.400438e-09	2.769370e+01	9.702715e+01
2.800000e-06	4.029029e-06	1.409186e-09	2.791488e+01	9.733269e+01
2.810000e-06	4.060835e-06	1.415494e-09	2.813524e+01	9.763060e+01
2.820000e-06	4.092473e-06	1.420627e-09	2.835445e+01	9.792148e+01
2.830000e-06	4.123897e-06	1.425161e-09	2.857216e+01	9.820591e+01
2.840000e-06	4.155191e-06	1.427483e-09	2.878898e+01	9.848442e+01
2.850000e-06	4.186254e-06	1.428117e-09	2.900420e+01	9.875751e+01
2.860000e-06	4.216940e-06	1.429658e-09	2.921681e+01	9.902565e+01
2.870000e-06	4.247249e-06	1.434410e-09	2.942680e+01	9.928923e+01
2.880000e-06	4.277318e-06	1.439923e-09	2.963513e+01	9.954863e+01
2.890000e-06	4.307136e-06	1.444427e-09	2.984172e+01	9.980414e+01
2.900000e-06	4.336566e-06	1.445906e-09	3.004563e+01	1.000560e+02
