# Temperatura_=_13.6
# Concentracion g/m^3_=_1620.0
# C_Vs_to_Am_M_A/Vsm_=_65563218390.804596
# pendiente_HvsI_1/m_=_3716.3
# ordenada_HvsI_A/m_=_1297.0
# frecuencia_Hz_=_135094.03117661137

Tiempo_(s)	Campo_(V.s)	Magnetizacion_(V.s)	Campo_(kA/m)	Magnetizacion_(A/m)
0.000000e+00	-5.531008e-06	-1.657404e-09	-3.837440e+01	-1.082858e+02
1.000000e-08	-5.531069e-06	-1.652319e-09	-3.837482e+01	-1.082529e+02
2.000000e-08	-5.530866e-06	-1.649247e-09	-3.837341e+01	-1.082240e+02
3.000000e-08	-5.530313e-06	-1.649352e-09	-3.836958e+01	-1.081988e+02
4.000000e-08	-5.529180e-06	-1.653219e-09	-3.836171e+01	-1.081774e+02
5.000000e-08	-5.527565e-06	-1.657609e-09	-3.835051e+01	-1.081592e+02
6.000000e-08	-5.525292e-06	-1.656936e-09	-3.833474e+01	-1.081440e+02
7.000000e-08	-5.522328e-06	-1.646537e-09	-3.831418e+01	-1.081310e+02
8.000000e-08	-5.518850e-06	-1.648904e-09	-3.829004e+01	-1.081198e+02
9.000000e-08	-5.514958e-06	-1.692378e-09	-3.826304e+01	-1.081096e+02
1.000000e-07	-5.510734e-06	-1.703734e-09	-3.823374e+01	-1.080995e+02
1.100000e-07	-5.506223e-06	-1.679325e-09	-3.820244e+01	-1.080887e+02
1.200000e-07	-5.501542e-06	-1.579744e-09	-3.816996e+01	-1.080762e+02
1.300000e-07	-5.496614e-06	-1.608531e-09	-3.813577e+01	-1.080611e+02
1.400000e-07	-5.491213e-06	-1.681178e-09	-3.809830e+01	-1.080424e+02
1.500000e-07	-5.485294e-06	-1.691387e-09	-3.805723e+01	-1.080191e+02
1.600000e-07	-5.479134e-06	-1.624685e-09	-3.801449e+01	-1.079902e+02
1.700000e-07	-5.472655e-06	-1.598228e-09	-3.796954e+01	-1.079547e+02
1.800000e-07	-5.465680e-06	-1.696535e-09	-3.792115e+01	-1.079119e+02
1.900000e-07	-5.458326e-06	-1.670587e-09	-3.787013e+01	-1.078608e+02
2.000000e-07	-5.450700e-06	-1.617188e-09	-3.781722e+01	-1.078006e+02
2.100000e-07	-5.442882e-06	-1.598314e-09	-3.776298e+01	-1.077308e+02
2.200000e-07	-5.434816e-06	-1.692956e-09	-3.770701e+01	-1.076506e+02
2.300000e-07	-5.426342e-06	-1.680023e-09	-3.764822e+01	-1.075598e+02
2.400000e-07	-5.417291e-06	-1.638817e-09	-3.758542e+01	-1.074579e+02
2.500000e-07	-5.407596e-06	-1.604481e-09	-3.751816e+01	-1.073448e+02
2.600000e-07	-5.397246e-06	-1.641621e-09	-3.744635e+01	-1.072203e+02
2.700000e-07	-5.386339e-06	-1.635268e-09	-3.737067e+01	-1.070845e+02
2.800000e-07	-5.375031e-06	-1.624116e-09	-3.729222e+01	-1.069375e+02
2.900000e-07	-5.363214e-06	-1.607857e-09	-3.721023e+01	-1.067797e+02
3.000000e-07	-5.351069e-06	-1.620068e-09	-3.712597e+01	-1.066115e+02
3.100000e-07	-5.338603e-06	-1.622956e-09	-3.703949e+01	-1.064333e+02
3.200000e-07	-5.325669e-06	-1.603072e-09	-3.694975e+01	-1.062459e+02
3.300000e-07	-5.312260e-06	-1.593818e-09	-3.685671e+01	-1.060498e+02
3.400000e-07	-5.298510e-06	-1.604076e-09	-3.676132e+01	-1.058459e+02
3.500000e-07	-5.284443e-06	-1.624745e-09	-3.666372e+01	-1.056350e+02
3.600000e-07	-5.269939e-06	-1.601198e-09	-3.656309e+01	-1.054179e+02
3.700000e-07	-5.254977e-06	-1.592328e-09	-3.645928e+01	-1.051956e+02
3.800000e-07	-5.239447e-06	-1.587552e-09	-3.635153e+01	-1.049689e+02
3.900000e-07	-5.223312e-06	-1.582680e-09	-3.623959e+01	-1.047388e+02
4.000000e-07	-5.206702e-06	-1.557289e-09	-3.612435e+01	-1.045061e+02
4.100000e-07	-5.189825e-06	-1.600799e-09	-3.600725e+01	-1.042717e+02
4.200000e-07	-5.172673e-06	-1.609630e-09	-3.588825e+01	-1.040363e+02
4.300000e-07	-5.155177e-06	-1.577837e-09	-3.576686e+01	-1.038007e+02
4.400000e-07	-5.137351e-06	-1.556298e-09	-3.564319e+01	-1.035654e+02
4.500000e-07	-5.119082e-06	-1.601939e-09	-3.551643e+01	-1.033311e+02
4.600000e-07	-5.100464e-06	-1.564585e-09	-3.538726e+01	-1.030982e+02
4.700000e-07	-5.081475e-06	-1.527931e-09	-3.525552e+01	-1.028671e+02
4.800000e-07	-5.062056e-06	-1.557322e-09	-3.512078e+01	-1.026380e+02
4.900000e-07	-5.042410e-06	-1.591515e-09	-3.498448e+01	-1.024110e+02
5.000000e-07	-5.022554e-06	-1.538435e-09	-3.484672e+01	-1.021862e+02
5.100000e-07	-5.002521e-06	-1.544662e-09	-3.470773e+01	-1.019636e+02
5.200000e-07	-4.982160e-06	-1.571081e-09	-3.456646e+01	-1.017430e+02
5.300000e-07	-4.961372e-06	-1.539775e-09	-3.442224e+01	-1.015242e+02
5.400000e-07	-4.940238e-06	-1.507900e-09	-3.427561e+01	-1.013068e+02
5.500000e-07	-4.918778e-06	-1.555553e-09	-3.412672e+01	-1.010904e+02
5.600000e-07	-4.897017e-06	-1.549609e-09	-3.397573e+01	-1.008746e+02
5.700000e-07	-4.874928e-06	-1.508889e-09	-3.382248e+01	-1.006588e+02
5.800000e-07	-4.852479e-06	-1.527249e-09	-3.366673e+01	-1.004425e+02
5.900000e-07	-4.829648e-06	-1.546008e-09	-3.350832e+01	-1.002252e+02
6.000000e-07	-4.806449e-06	-1.501769e-09	-3.334737e+01	-1.000063e+02
6.100000e-07	-4.782949e-06	-1.492285e-09	-3.318433e+01	-9.978513e+01
6.200000e-07	-4.759180e-06	-1.521997e-09	-3.301942e+01	-9.956119e+01
6.300000e-07	-4.735205e-06	-1.505321e-09	-3.285307e+01	-9.933394e+01
6.400000e-07	-4.711035e-06	-1.488411e-09	-3.268538e+01	-9.910288e+01
6.500000e-07	-4.686499e-06	-1.502011e-09	-3.251515e+01	-9.886757e+01
6.600000e-07	-4.661460e-06	-1.501241e-09	-3.234143e+01	-9.862762e+01
6.700000e-07	-4.635821e-06	-1.472973e-09	-3.216355e+01	-9.838269e+01
6.800000e-07	-4.609649e-06	-1.476379e-09	-3.198196e+01	-9.813253e+01
6.900000e-07	-4.583180e-06	-1.476049e-09	-3.179832e+01	-9.787696e+01
7.000000e-07	-4.556181e-06	-1.466017e-09	-3.161100e+01	-9.761585e+01
7.100000e-07	-4.528713e-06	-1.458187e-09	-3.142043e+01	-9.734918e+01
7.200000e-07	-4.501079e-06	-1.469966e-09	-3.122870e+01	-9.707697e+01
7.300000e-07	-4.473284e-06	-1.459251e-09	-3.103585e+01	-9.679933e+01
7.400000e-07	-4.445336e-06	-1.450463e-09	-3.084196e+01	-9.651642e+01
7.500000e-07	-4.417141e-06	-1.442197e-09	-3.064633e+01	-9.622847e+01
7.600000e-07	-4.388650e-06	-1.441878e-09	-3.044866e+01	-9.593574e+01
7.700000e-07	-4.359795e-06	-1.427648e-09	-3.024846e+01	-9.563854e+01
7.800000e-07	-4.330572e-06	-1.422312e-09	-3.004571e+01	-9.533723e+01
7.900000e-07	-4.301040e-06	-1.417216e-09	-2.984082e+01	-9.503214e+01
8.000000e-07	-4.271285e-06	-1.419989e-09	-2.963438e+01	-9.472367e+01
8.100000e-07	-4.241328e-06	-1.412345e-09	-2.942654e+01	-9.441217e+01
8.200000e-07	-4.211077e-06	-1.405396e-09	-2.921665e+01	-9.409800e+01
8.300000e-07	-4.180436e-06	-1.395822e-09	-2.900406e+01	-9.378150e+01
8.400000e-07	-4.149317e-06	-1.395793e-09	-2.878816e+01	-9.346298e+01
8.500000e-07	-4.117935e-06	-1.393103e-09	-2.857043e+01	-9.314270e+01
8.600000e-07	-4.086422e-06	-1.386952e-09	-2.835179e+01	-9.282087e+01
8.700000e-07	-4.054803e-06	-1.376725e-09	-2.813242e+01	-9.249766e+01
8.800000e-07	-4.023033e-06	-1.371082e-09	-2.791200e+01	-9.217319e+01
8.900000e-07	-3.990966e-06	-1.364533e-09	-2.768951e+01	-9.184748e+01
9.000000e-07	-3.958697e-06	-1.357180e-09	-2.746563e+01	-9.152052e+01
9.100000e-07	-3.926150e-06	-1.354226e-09	-2.723981e+01	-9.119224e+01
9.200000e-07	-3.893190e-06	-1.349643e-09	-2.701114e+01	-9.086249e+01
9.300000e-07	-3.859784e-06	-1.344056e-09	-2.677936e+01	-9.053106e+01
9.400000e-07	-3.825749e-06	-1.339136e-09	-2.654323e+01	-9.019769e+01
9.500000e-07	-3.791231e-06	-1.335128e-09	-2.630374e+01	-8.986208e+01
9.600000e-07	-3.756392e-06	-1.322881e-09	-2.606203e+01	-8.952387e+01
9.700000e-07	-3.721264e-06	-1.317617e-09	-2.581831e+01	-8.918269e+01
9.800000e-07	-3.685904e-06	-1.314241e-09	-2.557298e+01	-8.883811e+01
9.900000e-07	-3.650341e-06	-1.309761e-09	-2.532624e+01	-8.848971e+01
1.000000e-06	-3.614661e-06	-1.299038e-09	-2.507869e+01	-8.813706e+01
1.010000e-06	-3.578843e-06	-1.297860e-09	-2.483019e+01	-8.777972e+01
1.020000e-06	-3.542841e-06	-1.292177e-09	-2.458040e+01	-8.741728e+01
1.030000e-06	-3.506625e-06	-1.285476e-09	-2.432913e+01	-8.704934e+01
1.040000e-06	-3.470177e-06	-1.276573e-09	-2.407625e+01	-8.667552e+01
1.050000e-06	-3.433498e-06	-1.270600e-09	-2.382177e+01	-8.629552e+01
1.060000e-06	-3.396474e-06	-1.257996e-09	-2.356490e+01	-8.590904e+01
1.070000e-06	-3.359130e-06	-1.252593e-09	-2.330581e+01	-8.551585e+01
1.080000e-06	-3.321579e-06	-1.249109e-09	-2.304527e+01	-8.511580e+01
1.090000e-06	-3.283808e-06	-1.242529e-09	-2.278322e+01	-8.470878e+01
1.100000e-06	-3.245790e-06	-1.230635e-09	-2.251945e+01	-8.429473e+01
1.110000e-06	-3.207647e-06	-1.224185e-09	-2.225481e+01	-8.387368e+01
1.120000e-06	-3.169333e-06	-1.216524e-09	-2.198899e+01	-8.344572e+01
1.130000e-06	-3.130728e-06	-1.208841e-09	-2.172114e+01	-8.301098e+01
1.140000e-06	-3.091891e-06	-1.203717e-09	-2.145169e+01	-8.256967e+01
1.150000e-06	-3.052863e-06	-1.200165e-09	-2.118091e+01	-8.212203e+01
1.160000e-06	-3.013702e-06	-1.190091e-09	-2.090921e+01	-8.166835e+01
1.170000e-06	-2.974363e-06	-1.180255e-09	-2.063627e+01	-8.120898e+01
1.180000e-06	-2.934831e-06	-1.174618e-09	-2.036200e+01	-8.074426e+01
1.190000e-06	-2.895176e-06	-1.169341e-09	-2.008687e+01	-8.027457e+01
1.200000e-06	-2.855381e-06	-1.163252e-09	-1.981077e+01	-7.980029e+01
1.210000e-06	-2.815379e-06	-1.157572e-09	-1.953323e+01	-7.932179e+01
1.220000e-06	-2.775204e-06	-1.153710e-09	-1.925450e+01	-7.883944e+01
1.230000e-06	-2.734895e-06	-1.147940e-09	-1.897484e+01	-7.835358e+01
1.240000e-06	-2.694375e-06	-1.142748e-09	-1.869370e+01	-7.786451e+01
1.250000e-06	-2.653642e-06	-1.133712e-09	-1.841109e+01	-7.737249e+01
1.260000e-06	-2.612716e-06	-1.123982e-09	-1.812715e+01	-7.687770e+01
1.270000e-06	-2.571514e-06	-1.114103e-09	-1.784128e+01	-7.638031e+01
1.280000e-06	-2.529941e-06	-1.105083e-09	-1.755285e+01	-7.588036e+01
1.290000e-06	-2.487942e-06	-1.092874e-09	-1.726146e+01	-7.537786e+01
1.300000e-06	-2.445680e-06	-1.082213e-09	-1.696825e+01	-7.487271e+01
1.310000e-06	-2.403248e-06	-1.074446e-09	-1.667385e+01	-7.436475e+01
1.320000e-06	-2.360599e-06	-1.070125e-09	-1.637795e+01	-7.385370e+01
1.330000e-06	-2.317580e-06	-1.060562e-09	-1.607948e+01	-7.333923e+01
1.340000e-06	-2.274267e-06	-1.052697e-09	-1.577897e+01	-7.282091e+01
1.350000e-06	-2.230881e-06	-1.047008e-09	-1.547796e+01	-7.229823e+01
1.360000e-06	-2.187393e-06	-1.040311e-09	-1.517624e+01	-7.177059e+01
1.370000e-06	-2.143817e-06	-1.028812e-09	-1.487391e+01	-7.123734e+01
1.380000e-06	-2.100123e-06	-1.016294e-09	-1.457076e+01	-7.069775e+01
1.390000e-06	-2.056274e-06	-1.002106e-09	-1.426652e+01	-7.015104e+01
1.400000e-06	-2.012353e-06	-9.907224e-10	-1.396180e+01	-6.959637e+01
1.410000e-06	-1.968396e-06	-9.808535e-10	-1.365683e+01	-6.903287e+01
1.420000e-06	-1.924376e-06	-9.724801e-10	-1.335141e+01	-6.845962e+01
1.430000e-06	-1.880272e-06	-9.656288e-10	-1.304542e+01	-6.787572e+01
1.440000e-06	-1.836048e-06	-9.568874e-10	-1.273859e+01	-6.728021e+01
1.450000e-06	-1.791727e-06	-9.449586e-10	-1.243109e+01	-6.667215e+01
1.460000e-06	-1.747247e-06	-9.326606e-10	-1.212248e+01	-6.605062e+01
1.470000e-06	-1.702644e-06	-9.203199e-10	-1.181303e+01	-6.541470e+01
1.480000e-06	-1.657915e-06	-9.085855e-10	-1.150269e+01	-6.476348e+01
1.490000e-06	-1.612968e-06	-8.953105e-10	-1.119085e+01	-6.409611e+01
1.500000e-06	-1.567891e-06	-8.811238e-10	-1.087810e+01	-6.341176e+01
1.510000e-06	-1.522676e-06	-8.684570e-10	-1.056440e+01	-6.270963e+01
1.520000e-06	-1.477338e-06	-8.567517e-10	-1.024984e+01	-6.198898e+01
1.530000e-06	-1.431960e-06	-8.458453e-10	-9.935009e+00	-6.124911e+01
1.540000e-06	-1.386510e-06	-8.335851e-10	-9.619671e+00	-6.048936e+01
1.550000e-06	-1.340947e-06	-8.204397e-10	-9.303557e+00	-5.970913e+01
1.560000e-06	-1.295280e-06	-8.065434e-10	-8.986712e+00	-5.890784e+01
1.570000e-06	-1.249487e-06	-7.925642e-10	-8.668997e+00	-5.808497e+01
1.580000e-06	-1.203603e-06	-7.759323e-10	-8.350655e+00	-5.724003e+01
1.590000e-06	-1.157646e-06	-7.598660e-10	-8.031800e+00	-5.637257e+01
1.600000e-06	-1.111625e-06	-7.466579e-10	-7.712509e+00	-5.548214e+01
1.610000e-06	-1.065578e-06	-7.360218e-10	-7.393031e+00	-5.456833e+01
1.620000e-06	-1.019465e-06	-7.258408e-10	-7.073093e+00	-5.363074e+01
1.630000e-06	-9.732451e-07	-7.170470e-10	-6.752421e+00	-5.266897e+01
1.640000e-06	-9.270024e-07	-7.033619e-10	-6.431587e+00	-5.168262e+01
1.650000e-06	-8.807063e-07	-6.831809e-10	-6.110382e+00	-5.067128e+01
1.660000e-06	-8.343398e-07	-6.601758e-10	-5.788689e+00	-4.963453e+01
1.670000e-06	-7.880075e-07	-6.409576e-10	-5.467233e+00	-4.857193e+01
1.680000e-06	-7.416156e-07	-6.246782e-10	-5.145364e+00	-4.748300e+01
1.690000e-06	-6.951598e-07	-6.100456e-10	-4.823052e+00	-4.636727e+01
1.700000e-06	-6.486734e-07	-5.954111e-10	-4.500527e+00	-4.522419e+01
1.710000e-06	-6.020949e-07	-5.804340e-10	-4.177363e+00	-4.405321e+01
1.720000e-06	-5.554354e-07	-5.619526e-10	-3.853637e+00	-4.285375e+01
1.730000e-06	-5.087346e-07	-5.384013e-10	-3.529625e+00	-4.162518e+01
1.740000e-06	-4.620359e-07	-5.148574e-10	-3.205627e+00	-4.036688e+01
1.750000e-06	-4.153024e-07	-4.937223e-10	-2.881388e+00	-3.907818e+01
1.760000e-06	-3.684528e-07	-4.732163e-10	-2.556343e+00	-3.775841e+01
1.770000e-06	-3.216424e-07	-4.550506e-10	-2.231570e+00	-3.640690e+01
1.780000e-06	-2.748137e-07	-4.379264e-10	-1.906671e+00	-3.502297e+01
1.790000e-06	-2.278408e-07	-4.192926e-10	-1.580770e+00	-3.360600e+01
1.800000e-06	-1.809168e-07	-3.996848e-10	-1.255209e+00	-3.215534e+01
1.810000e-06	-1.340290e-07	-3.782084e-10	-9.298999e-01	-3.067044e+01
1.820000e-06	-8.711980e-08	-3.563692e-10	-6.044413e-01	-2.915079e+01
1.830000e-06	-4.023419e-08	-3.335140e-10	-2.791468e-01	-2.759594e+01
1.840000e-06	6.681200e-09	-3.107784e-10	4.635448e-02	-2.600554e+01
1.850000e-06	5.369469e-08	-2.900982e-10	3.725363e-01	-2.437936e+01
1.860000e-06	1.006140e-07	-2.712556e-10	6.980647e-01	-2.271727e+01
1.870000e-06	1.474501e-07	-2.499540e-10	1.023016e+00	-2.101929e+01
1.880000e-06	1.943303e-07	-2.256824e-10	1.348273e+00	-1.928557e+01
1.890000e-06	2.412044e-07	-1.974817e-10	1.673487e+00	-1.751644e+01
1.900000e-06	2.880627e-07	-1.665968e-10	1.998592e+00	-1.571239e+01
1.910000e-06	3.349053e-07	-1.369002e-10	2.323589e+00	-1.387411e+01
1.920000e-06	3.817629e-07	-1.092251e-10	2.648689e+00	-1.200247e+01
1.930000e-06	4.285989e-07	-8.405599e-11	2.973639e+00	-1.009853e+01
1.940000e-06	4.753492e-07	-5.943385e-11	3.297996e+00	-8.163559e+00
1.950000e-06	5.220658e-07	-3.484304e-11	3.622118e+00	-6.199029e+00
1.960000e-06	5.687231e-07	-1.045691e-11	3.945828e+00	-4.206612e+00
1.970000e-06	6.153641e-07	1.857912e-11	4.269425e+00	-2.188177e+00
1.980000e-06	6.619307e-07	5.132587e-11	4.592506e+00	-1.457864e-01
1.990000e-06	7.083911e-07	8.626915e-11	4.914851e+00	1.918315e+00
2.000000e-06	7.548181e-07	1.199545e-10	5.236964e+00	4.001709e+00
2.010000e-06	8.011170e-07	1.490222e-10	5.558188e+00	6.101817e+00
2.020000e-06	8.474390e-07	1.759912e-10	5.879572e+00	8.215917e+00
2.030000e-06	8.937853e-07	2.027060e-10	6.201125e+00	1.034116e+01
2.040000e-06	9.399978e-07	2.302884e-10	6.521750e+00	1.247459e+01
2.050000e-06	9.860821e-07	2.614458e-10	6.841485e+00	1.461316e+01
2.060000e-06	1.032142e-06	2.953032e-10	7.161050e+00	1.675377e+01
2.070000e-06	1.078188e-06	3.301584e-10	7.480520e+00	1.889327e+01
2.080000e-06	1.124129e-06	3.631842e-10	7.799260e+00	2.102849e+01
2.090000e-06	1.170006e-06	3.936311e-10	8.117556e+00	2.315627e+01
2.100000e-06	1.215832e-06	4.230408e-10	8.435500e+00	2.527348e+01
2.110000e-06	1.261490e-06	4.503425e-10	8.752275e+00	2.737705e+01
2.120000e-06	1.307015e-06	4.769727e-10	9.068130e+00	2.946400e+01
2.130000e-06	1.352522e-06	5.059780e-10	9.383865e+00	3.153142e+01
2.140000e-06	1.397938e-06	5.363644e-10	9.698960e+00	3.357656e+01
2.150000e-06	1.443201e-06	5.665970e-10	1.001299e+01	3.559678e+01
2.160000e-06	1.488337e-06	5.954395e-10	1.032615e+01	3.758963e+01
2.170000e-06	1.533408e-06	6.216115e-10	1.063886e+01	3.955282e+01
2.180000e-06	1.578425e-06	6.470465e-10	1.095119e+01	4.148426e+01
2.190000e-06	1.623280e-06	6.724427e-10	1.126239e+01	4.338206e+01
2.200000e-06	1.668044e-06	6.997569e-10	1.157297e+01	4.524456e+01
2.210000e-06	1.712775e-06	7.271872e-10	1.188331e+01	4.707028e+01
2.220000e-06	1.757353e-06	7.536360e-10	1.219260e+01	4.885800e+01
2.230000e-06	1.801740e-06	7.782886e-10	1.250056e+01	5.060672e+01
2.240000e-06	1.845956e-06	7.996531e-10	1.280733e+01	5.231564e+01
2.250000e-06	1.890074e-06	8.188709e-10	1.311342e+01	5.398419e+01
2.260000e-06	1.934122e-06	8.391850e-10	1.341903e+01	5.561203e+01
2.270000e-06	1.978046e-06	8.613065e-10	1.372378e+01	5.719899e+01
2.280000e-06	2.021860e-06	8.832991e-10	1.402776e+01	5.874513e+01
2.290000e-06	2.065625e-06	9.054943e-10	1.433140e+01	6.025065e+01
2.300000e-06	2.109284e-06	9.278532e-10	1.463431e+01	6.171594e+01
2.310000e-06	2.152902e-06	9.476750e-10	1.493694e+01	6.314153e+01
2.320000e-06	2.196472e-06	9.660980e-10	1.523923e+01	6.452809e+01
2.330000e-06	2.239831e-06	9.840156e-10	1.554005e+01	6.587638e+01
2.340000e-06	2.283121e-06	1.004060e-09	1.584040e+01	6.718727e+01
2.350000e-06	2.326414e-06	1.022051e-09	1.614077e+01	6.846171e+01
2.360000e-06	2.369461e-06	1.037999e-09	1.643943e+01	6.970070e+01
2.370000e-06	2.412210e-06	1.052886e-09	1.673603e+01	7.090528e+01
2.380000e-06	2.454704e-06	1.069411e-09	1.703085e+01	7.207650e+01
2.390000e-06	2.496790e-06	1.086185e-09	1.732285e+01	7.321543e+01
2.400000e-06	2.538561e-06	1.100716e-09	1.761266e+01	7.432311e+01
2.410000e-06	2.580009e-06	1.114446e-09	1.790022e+01	7.540058e+01
2.420000e-06	2.621114e-06	1.124737e-09	1.818542e+01	7.644881e+01
2.430000e-06	2.662014e-06	1.135763e-09	1.846918e+01	7.746875e+01
2.440000e-06	2.702673e-06	1.147672e-09	1.875127e+01	7.846127e+01
2.450000e-06	2.743055e-06	1.161114e-09	1.903145e+01	7.942718e+01
2.460000e-06	2.783156e-06	1.176266e-09	1.930967e+01	8.036723e+01
2.470000e-06	2.823131e-06	1.189096e-09	1.958702e+01	8.128210e+01
2.480000e-06	2.863028e-06	1.200313e-09	1.986383e+01	8.217238e+01
2.490000e-06	2.902792e-06	1.211029e-09	2.013971e+01	8.303859e+01
2.500000e-06	2.942394e-06	1.220226e-09	2.041447e+01	8.388119e+01
2.510000e-06	2.981826e-06	1.230284e-09	2.068805e+01	8.470058e+01
2.520000e-06	3.021067e-06	1.238981e-09	2.096031e+01	8.549710e+01
2.530000e-06	3.060103e-06	1.248676e-09	2.123114e+01	8.627102e+01
2.540000e-06	3.098991e-06	1.256915e-09	2.150095e+01	8.702259e+01
2.550000e-06	3.137632e-06	1.264791e-09	2.176904e+01	8.775202e+01
2.560000e-06	3.176016e-06	1.273227e-09	2.203535e+01	8.845951e+01
2.570000e-06	3.214248e-06	1.283666e-09	2.230061e+01	8.914523e+01
2.580000e-06	3.252289e-06	1.296065e-09	2.256453e+01	8.980936e+01
2.590000e-06	3.290084e-06	1.308876e-09	2.282676e+01	9.045209e+01
2.600000e-06	3.327698e-06	1.320058e-09	2.308773e+01	9.107364e+01
2.610000e-06	3.365146e-06	1.329214e-09	2.334754e+01	9.167424e+01
2.620000e-06	3.402383e-06	1.334617e-09	2.360589e+01	9.225417e+01
2.630000e-06	3.439255e-06	1.339003e-09	2.386172e+01	9.281376e+01
2.640000e-06	3.475737e-06	1.344781e-09	2.411483e+01	9.335339e+01
2.650000e-06	3.511947e-06	1.350989e-09	2.436606e+01	9.387350e+01
2.660000e-06	3.547931e-06	1.359374e-09	2.461572e+01	9.437459e+01
2.670000e-06	3.583804e-06	1.369451e-09	2.486460e+01	9.485721e+01
2.680000e-06	3.619593e-06	1.379043e-09	2.511291e+01	9.532200e+01
2.690000e-06	3.655312e-06	1.386295e-09	2.536073e+01	9.576964e+01
2.700000e-06	3.690967e-06	1.391551e-09	2.560810e+01	9.620089e+01
2.710000e-06	3.726377e-06	1.395444e-09	2.585378e+01	9.661653e+01
2.720000e-06	3.761425e-06	1.402329e-09	2.609694e+01	9.701742e+01
2.730000e-06	3.796125e-06	1.410646e-09	2.633769e+01	9.740445e+01
2.740000e-06	3.830386e-06	1.417286e-09	2.657540e+01	9.777853e+01
2.750000e-06	3.864082e-06	1.419939e-09	2.680919e+01	9.814062e+01
2.760000e-06	3.897312e-06	1.422669e-09	2.703973e+01	9.849166e+01
2.770000e-06	3.930174e-06	1.427744e-09	2.726773e+01	9.883260e+01
2.780000e-06	3.962703e-06	1.436322e-09	2.749342e+01	9.916438e+01
2.790000e-06	3.994911e-06	1.447153e-09	2.771689e+01	9.948792e+01
2.800000e-06	4.026817e-06	1.456936e-09	2.793825e+01	9.980409e+01
2.810000e-06	4.058570e-06	1.461726e-09	2.815855e+01	1.001137e+02
2.820000e-06	4.090140e-06	1.463863e-09	2.837759e+01	1.004176e+02
2.830000e-06	4.121580e-06	1.465476e-09	2.859572e+01	1.007165e+02
2.840000e-06	4.152877e-06	1.466277e-09	2.881286e+01	1.010109e+02
2.850000e-06	4.183832e-06	1.466006e-09	2.902763e+01	1.013014e+02
2.860000e-06	4.214442e-06	1.469509e-09	2.924000e+01	1.015886e+02
2.870000e-06	4.244697e-06	1.477884e-09	2.944991e+01	1.018727e+02
2.880000e-06	4.274602e-06	1.485011e-09	2.965739e+01	1.021540e+02
2.890000e-06	4.304280e-06	1.489848e-09	2.986330e+01	1.024327e+02
2.900000e-06	4.333749e-06	1.490041e-09	3.006776e+01	1.027088e+02
