# Temperatura_=_-7.51
# Concentracion g/m^3_=_1620.0
# C_Vs_to_Am_M_A/Vsm_=_65563218390.804596
# pendiente_HvsI_1/m_=_3716.3
# ordenada_HvsI_A/m_=_1297.0
# frecuencia_Hz_=_135103.30503765683

Tiempo_(s)	Campo_(V.s)	Magnetizacion_(V.s)	Campo_(kA/m)	Magnetizacion_(A/m)
0.000000e+00	-5.524023e-06	-1.188203e-09	-3.836861e+01	-7.870462e+01
1.000000e-08	-5.524170e-06	-1.184965e-09	-3.836962e+01	-7.865079e+01
2.000000e-08	-5.524031e-06	-1.183573e-09	-3.836866e+01	-7.860153e+01
3.000000e-08	-5.523505e-06	-1.182960e-09	-3.836501e+01	-7.855695e+01
4.000000e-08	-5.522493e-06	-1.182759e-09	-3.835798e+01	-7.851705e+01
5.000000e-08	-5.520927e-06	-1.179697e-09	-3.834710e+01	-7.848173e+01
6.000000e-08	-5.518764e-06	-1.179948e-09	-3.833208e+01	-7.845080e+01
7.000000e-08	-5.516001e-06	-1.187815e-09	-3.831289e+01	-7.842394e+01
8.000000e-08	-5.512696e-06	-1.197289e-09	-3.828993e+01	-7.840076e+01
9.000000e-08	-5.508934e-06	-1.193040e-09	-3.826380e+01	-7.838077e+01
1.000000e-07	-5.504801e-06	-1.192811e-09	-3.823509e+01	-7.836337e+01
1.100000e-07	-5.500320e-06	-1.153169e-09	-3.820397e+01	-7.834792e+01
1.200000e-07	-5.495637e-06	-1.153314e-09	-3.817144e+01	-7.833368e+01
1.300000e-07	-5.490716e-06	-1.181404e-09	-3.813726e+01	-7.831988e+01
1.400000e-07	-5.485318e-06	-1.218242e-09	-3.809977e+01	-7.830569e+01
1.500000e-07	-5.479565e-06	-1.177103e-09	-3.805981e+01	-7.829026e+01
1.600000e-07	-5.473500e-06	-1.138259e-09	-3.801769e+01	-7.827273e+01
1.700000e-07	-5.466989e-06	-1.151799e-09	-3.797246e+01	-7.825223e+01
1.800000e-07	-5.460019e-06	-1.196307e-09	-3.792405e+01	-7.822792e+01
1.900000e-07	-5.452707e-06	-1.169371e-09	-3.787326e+01	-7.819898e+01
2.000000e-07	-5.445132e-06	-1.145130e-09	-3.782065e+01	-7.816465e+01
2.100000e-07	-5.437270e-06	-1.190153e-09	-3.776604e+01	-7.812420e+01
2.200000e-07	-5.429165e-06	-1.231062e-09	-3.770974e+01	-7.807699e+01
2.300000e-07	-5.420827e-06	-1.202591e-09	-3.765183e+01	-7.802248e+01
2.400000e-07	-5.411989e-06	-1.147842e-09	-3.759044e+01	-7.796018e+01
2.500000e-07	-5.402393e-06	-1.171947e-09	-3.752379e+01	-7.788974e+01
2.600000e-07	-5.392120e-06	-1.194725e-09	-3.745243e+01	-7.781088e+01
2.700000e-07	-5.381258e-06	-1.188922e-09	-3.737699e+01	-7.772346e+01
2.800000e-07	-5.369905e-06	-1.152544e-09	-3.729814e+01	-7.762744e+01
2.900000e-07	-5.358163e-06	-1.160767e-09	-3.721658e+01	-7.752288e+01
3.000000e-07	-5.345962e-06	-1.154775e-09	-3.713183e+01	-7.740998e+01
3.100000e-07	-5.333409e-06	-1.156932e-09	-3.704465e+01	-7.728902e+01
3.200000e-07	-5.320488e-06	-1.136692e-09	-3.695490e+01	-7.716039e+01
3.300000e-07	-5.307117e-06	-1.145792e-09	-3.686203e+01	-7.702458e+01
3.400000e-07	-5.293405e-06	-1.149886e-09	-3.676679e+01	-7.688217e+01
3.500000e-07	-5.279348e-06	-1.164776e-09	-3.666915e+01	-7.673381e+01
3.600000e-07	-5.264769e-06	-1.141009e-09	-3.656789e+01	-7.658022e+01
3.700000e-07	-5.249679e-06	-1.142800e-09	-3.646308e+01	-7.642216e+01
3.800000e-07	-5.234089e-06	-1.149862e-09	-3.635479e+01	-7.626044e+01
3.900000e-07	-5.217978e-06	-1.145117e-09	-3.624288e+01	-7.609590e+01
4.000000e-07	-5.201452e-06	-1.127403e-09	-3.612810e+01	-7.592938e+01
4.100000e-07	-5.184654e-06	-1.148659e-09	-3.601143e+01	-7.576175e+01
4.200000e-07	-5.167585e-06	-1.150847e-09	-3.589287e+01	-7.559384e+01
4.300000e-07	-5.150174e-06	-1.114628e-09	-3.577194e+01	-7.542645e+01
4.400000e-07	-5.132465e-06	-1.124974e-09	-3.564894e+01	-7.526036e+01
4.500000e-07	-5.114331e-06	-1.154314e-09	-3.552298e+01	-7.509628e+01
4.600000e-07	-5.095709e-06	-1.128423e-09	-3.539363e+01	-7.493489e+01
4.700000e-07	-5.076708e-06	-1.106196e-09	-3.526166e+01	-7.477677e+01
4.800000e-07	-5.057448e-06	-1.145980e-09	-3.512788e+01	-7.462243e+01
4.900000e-07	-5.037936e-06	-1.128182e-09	-3.499236e+01	-7.447232e+01
5.000000e-07	-5.018138e-06	-1.089496e-09	-3.485484e+01	-7.432677e+01
5.100000e-07	-4.998103e-06	-1.109551e-09	-3.471569e+01	-7.418604e+01
5.200000e-07	-4.977695e-06	-1.131640e-09	-3.457393e+01	-7.405030e+01
5.300000e-07	-4.956888e-06	-1.093596e-09	-3.442942e+01	-7.391961e+01
5.400000e-07	-4.935783e-06	-1.111594e-09	-3.428282e+01	-7.379396e+01
5.500000e-07	-4.914338e-06	-1.137403e-09	-3.413387e+01	-7.367323e+01
5.600000e-07	-4.892547e-06	-1.108258e-09	-3.398251e+01	-7.355725e+01
5.700000e-07	-4.870413e-06	-1.090066e-09	-3.382878e+01	-7.344575e+01
5.800000e-07	-4.848021e-06	-1.122731e-09	-3.367325e+01	-7.333838e+01
5.900000e-07	-4.825282e-06	-1.099202e-09	-3.351531e+01	-7.323475e+01
6.000000e-07	-4.802120e-06	-1.076486e-09	-3.335443e+01	-7.313440e+01
6.100000e-07	-4.778615e-06	-1.101183e-09	-3.319117e+01	-7.303684e+01
6.200000e-07	-4.754940e-06	-1.107397e-09	-3.302673e+01	-7.294153e+01
6.300000e-07	-4.731142e-06	-1.083458e-09	-3.286143e+01	-7.284791e+01
6.400000e-07	-4.707071e-06	-1.100358e-09	-3.269424e+01	-7.275541e+01
6.500000e-07	-4.682501e-06	-1.102793e-09	-3.252359e+01	-7.266344e+01
6.600000e-07	-4.657459e-06	-1.081977e-09	-3.234965e+01	-7.257142e+01
6.700000e-07	-4.631933e-06	-1.087690e-09	-3.217235e+01	-7.247879e+01
6.800000e-07	-4.605739e-06	-1.096515e-09	-3.199041e+01	-7.238499e+01
6.900000e-07	-4.578951e-06	-1.077914e-09	-3.180435e+01	-7.228952e+01
7.000000e-07	-4.551788e-06	-1.083639e-09	-3.161569e+01	-7.219188e+01
7.100000e-07	-4.524406e-06	-1.098640e-09	-3.142549e+01	-7.209165e+01
7.200000e-07	-4.496820e-06	-1.084152e-09	-3.123388e+01	-7.198841e+01
7.300000e-07	-4.469057e-06	-1.076448e-09	-3.104105e+01	-7.188184e+01
7.400000e-07	-4.441080e-06	-1.083953e-09	-3.084673e+01	-7.177164e+01
7.500000e-07	-4.412874e-06	-1.074460e-09	-3.065081e+01	-7.165758e+01
7.600000e-07	-4.384390e-06	-1.063947e-09	-3.045297e+01	-7.153950e+01
7.700000e-07	-4.355592e-06	-1.075131e-09	-3.025295e+01	-7.141726e+01
7.800000e-07	-4.326431e-06	-1.069781e-09	-3.005040e+01	-7.129081e+01
7.900000e-07	-4.296930e-06	-1.058811e-09	-2.984550e+01	-7.116014e+01
8.000000e-07	-4.267211e-06	-1.062704e-09	-2.963907e+01	-7.102530e+01
8.100000e-07	-4.237183e-06	-1.063330e-09	-2.943051e+01	-7.088638e+01
8.200000e-07	-4.206783e-06	-1.045137e-09	-2.921935e+01	-7.074352e+01
8.300000e-07	-4.176140e-06	-1.044415e-09	-2.900652e+01	-7.059689e+01
8.400000e-07	-4.145321e-06	-1.048559e-09	-2.879245e+01	-7.044669e+01
8.500000e-07	-4.114257e-06	-1.044343e-09	-2.857669e+01	-7.029316e+01
8.600000e-07	-4.082907e-06	-1.039260e-09	-2.835894e+01	-7.013656e+01
8.700000e-07	-4.051307e-06	-1.044492e-09	-2.813946e+01	-6.997715e+01
8.800000e-07	-4.019535e-06	-1.036798e-09	-2.791877e+01	-6.981521e+01
8.900000e-07	-3.987552e-06	-1.029461e-09	-2.769663e+01	-6.965104e+01
9.000000e-07	-3.955346e-06	-1.029935e-09	-2.747293e+01	-6.948489e+01
9.100000e-07	-3.922827e-06	-1.028058e-09	-2.724706e+01	-6.931704e+01
9.200000e-07	-3.889883e-06	-1.016684e-09	-2.701824e+01	-6.914774e+01
9.300000e-07	-3.856580e-06	-1.016964e-09	-2.678693e+01	-6.897722e+01
9.400000e-07	-3.822857e-06	-1.017679e-09	-2.655269e+01	-6.880570e+01
9.500000e-07	-3.788718e-06	-1.011741e-09	-2.631557e+01	-6.863334e+01
9.600000e-07	-3.754108e-06	-1.008967e-09	-2.607518e+01	-6.846030e+01
9.700000e-07	-3.719049e-06	-1.011121e-09	-2.583167e+01	-6.828669e+01
9.800000e-07	-3.683699e-06	-1.004635e-09	-2.558613e+01	-6.811259e+01
9.900000e-07	-3.648162e-06	-9.955684e-10	-2.533930e+01	-6.793802e+01
1.000000e-06	-3.612530e-06	-9.926223e-10	-2.509181e+01	-6.776301e+01
1.010000e-06	-3.576793e-06	-9.903253e-10	-2.484359e+01	-6.758750e+01
1.020000e-06	-3.540928e-06	-9.864106e-10	-2.459448e+01	-6.741143e+01
1.030000e-06	-3.504860e-06	-9.878286e-10	-2.434396e+01	-6.723467e+01
1.040000e-06	-3.468523e-06	-9.914935e-10	-2.409157e+01	-6.705709e+01
1.050000e-06	-3.431905e-06	-9.872386e-10	-2.383723e+01	-6.687851e+01
1.060000e-06	-3.394986e-06	-9.824405e-10	-2.358080e+01	-6.669872e+01
1.070000e-06	-3.357788e-06	-9.782048e-10	-2.332243e+01	-6.651750e+01
1.080000e-06	-3.320317e-06	-9.720277e-10	-2.306217e+01	-6.633459e+01
1.090000e-06	-3.282646e-06	-9.654842e-10	-2.280051e+01	-6.614972e+01
1.100000e-06	-3.244858e-06	-9.659104e-10	-2.253804e+01	-6.596261e+01
1.110000e-06	-3.206790e-06	-9.622801e-10	-2.227363e+01	-6.577297e+01
1.120000e-06	-3.168428e-06	-9.574783e-10	-2.200718e+01	-6.558051e+01
1.130000e-06	-3.129951e-06	-9.549690e-10	-2.173993e+01	-6.538493e+01
1.140000e-06	-3.091213e-06	-9.547434e-10	-2.147086e+01	-6.518594e+01
1.150000e-06	-3.052173e-06	-9.514137e-10	-2.119970e+01	-6.498325e+01
1.160000e-06	-3.013015e-06	-9.469326e-10	-2.092772e+01	-6.477660e+01
1.170000e-06	-2.973752e-06	-9.404604e-10	-2.065500e+01	-6.456573e+01
1.180000e-06	-2.934356e-06	-9.365220e-10	-2.038137e+01	-6.435040e+01
1.190000e-06	-2.894783e-06	-9.339467e-10	-2.010650e+01	-6.413041e+01
1.200000e-06	-2.855019e-06	-9.327001e-10	-1.983031e+01	-6.390554e+01
1.210000e-06	-2.815091e-06	-9.294302e-10	-1.955298e+01	-6.367564e+01
1.220000e-06	-2.774981e-06	-9.272014e-10	-1.927439e+01	-6.344056e+01
1.230000e-06	-2.734745e-06	-9.265769e-10	-1.899491e+01	-6.320017e+01
1.240000e-06	-2.694389e-06	-9.243628e-10	-1.871461e+01	-6.295439e+01
1.250000e-06	-2.653830e-06	-9.202637e-10	-1.843290e+01	-6.270314e+01
1.260000e-06	-2.612982e-06	-9.170798e-10	-1.814918e+01	-6.244637e+01
1.270000e-06	-2.571747e-06	-9.117774e-10	-1.786277e+01	-6.218405e+01
1.280000e-06	-2.530227e-06	-9.057018e-10	-1.757438e+01	-6.191616e+01
1.290000e-06	-2.488437e-06	-9.002247e-10	-1.728411e+01	-6.164271e+01
1.300000e-06	-2.446308e-06	-8.968739e-10	-1.699150e+01	-6.136369e+01
1.310000e-06	-2.403887e-06	-8.944756e-10	-1.669685e+01	-6.107914e+01
1.320000e-06	-2.361205e-06	-8.930688e-10	-1.640039e+01	-6.078906e+01
1.330000e-06	-2.318217e-06	-8.901722e-10	-1.610180e+01	-6.049346e+01
1.340000e-06	-2.275036e-06	-8.849252e-10	-1.580189e+01	-6.019234e+01
1.350000e-06	-2.231778e-06	-8.808123e-10	-1.550142e+01	-5.988570e+01
1.360000e-06	-2.188316e-06	-8.765691e-10	-1.519954e+01	-5.957351e+01
1.370000e-06	-2.144706e-06	-8.700600e-10	-1.489664e+01	-5.925571e+01
1.380000e-06	-2.101054e-06	-8.607534e-10	-1.459344e+01	-5.893222e+01
1.390000e-06	-2.057344e-06	-8.512797e-10	-1.428985e+01	-5.860293e+01
1.400000e-06	-2.013548e-06	-8.432282e-10	-1.398564e+01	-5.826768e+01
1.410000e-06	-1.969638e-06	-8.367873e-10	-1.368066e+01	-5.792628e+01
1.420000e-06	-1.925633e-06	-8.292313e-10	-1.337501e+01	-5.757850e+01
1.430000e-06	-1.881606e-06	-8.246977e-10	-1.306921e+01	-5.722405e+01
1.440000e-06	-1.837566e-06	-8.204582e-10	-1.276331e+01	-5.686261e+01
1.450000e-06	-1.793345e-06	-8.154336e-10	-1.245617e+01	-5.649378e+01
1.460000e-06	-1.748956e-06	-8.061770e-10	-1.214785e+01	-5.611715e+01
1.470000e-06	-1.704441e-06	-7.955608e-10	-1.183866e+01	-5.573221e+01
1.480000e-06	-1.659774e-06	-7.866945e-10	-1.152841e+01	-5.533843e+01
1.490000e-06	-1.614979e-06	-7.772965e-10	-1.121727e+01	-5.493524e+01
1.500000e-06	-1.570018e-06	-7.654441e-10	-1.090499e+01	-5.452198e+01
1.510000e-06	-1.524907e-06	-7.558716e-10	-1.059166e+01	-5.409799e+01
1.520000e-06	-1.479654e-06	-7.481550e-10	-1.027734e+01	-5.366253e+01
1.530000e-06	-1.434283e-06	-7.408540e-10	-9.962202e+00	-5.321485e+01
1.540000e-06	-1.388870e-06	-7.322301e-10	-9.646771e+00	-5.275413e+01
1.550000e-06	-1.343402e-06	-7.235617e-10	-9.330964e+00	-5.227956e+01
1.560000e-06	-1.297840e-06	-7.163002e-10	-9.014500e+00	-5.179027e+01
1.570000e-06	-1.252187e-06	-7.099671e-10	-8.697404e+00	-5.128538e+01
1.580000e-06	-1.206466e-06	-7.010340e-10	-8.379841e+00	-5.076399e+01
1.590000e-06	-1.160651e-06	-6.910836e-10	-8.061619e+00	-5.022519e+01
1.600000e-06	-1.114756e-06	-6.829462e-10	-7.742840e+00	-4.966805e+01
1.610000e-06	-1.068869e-06	-6.768805e-10	-7.424120e+00	-4.909166e+01
1.620000e-06	-1.022924e-06	-6.718851e-10	-7.104996e+00	-4.849510e+01
1.630000e-06	-9.769029e-07	-6.675070e-10	-6.785345e+00	-4.787745e+01
1.640000e-06	-9.307907e-07	-6.614684e-10	-6.465060e+00	-4.723780e+01
1.650000e-06	-8.846095e-07	-6.496858e-10	-6.144296e+00	-4.657527e+01
1.660000e-06	-8.383690e-07	-6.350829e-10	-5.823120e+00	-4.588899e+01
1.670000e-06	-7.920188e-07	-6.192508e-10	-5.501182e+00	-4.517810e+01
1.680000e-06	-7.456011e-07	-6.037105e-10	-5.178775e+00	-4.444178e+01
1.690000e-06	-6.991750e-07	-5.889914e-10	-4.856310e+00	-4.367924e+01
1.700000e-06	-6.527312e-07	-5.748719e-10	-4.533722e+00	-4.288970e+01
1.710000e-06	-6.061716e-07	-5.635087e-10	-4.210330e+00	-4.207243e+01
1.720000e-06	-5.595315e-07	-5.530920e-10	-3.886378e+00	-4.122672e+01
1.730000e-06	-5.128765e-07	-5.385127e-10	-3.562324e+00	-4.035190e+01
1.740000e-06	-4.661961e-07	-5.239226e-10	-3.238092e+00	-3.944733e+01
1.750000e-06	-4.195212e-07	-5.089531e-10	-2.913898e+00	-3.851243e+01
1.760000e-06	-3.728460e-07	-4.926677e-10	-2.589703e+00	-3.754664e+01
1.770000e-06	-3.260845e-07	-4.756753e-10	-2.264909e+00	-3.654944e+01
1.780000e-06	-2.792840e-07	-4.590383e-10	-1.939843e+00	-3.552035e+01
1.790000e-06	-2.324710e-07	-4.437888e-10	-1.614690e+00	-3.445895e+01
1.800000e-06	-1.856218e-07	-4.306352e-10	-1.289287e+00	-3.336485e+01
1.810000e-06	-1.388225e-07	-4.176336e-10	-9.642296e-01	-3.223773e+01
1.820000e-06	-9.201761e-08	-4.025163e-10	-6.391334e-01	-3.107729e+01
1.830000e-06	-4.516605e-08	-3.853549e-10	-3.137131e-01	-2.988333e+01
1.840000e-06	1.621893e-09	-3.676554e-10	1.126530e-02	-2.865568e+01
1.850000e-06	4.840681e-08	-3.504525e-10	3.362227e-01	-2.739423e+01
1.860000e-06	9.519787e-08	-3.336575e-10	6.612228e-01	-2.609897e+01
1.870000e-06	1.418733e-07	-3.157264e-10	9.854193e-01	-2.476993e+01
1.880000e-06	1.885774e-07	-2.956878e-10	1.309815e+00	-2.340724e+01
1.890000e-06	2.353855e-07	-2.746869e-10	1.634934e+00	-2.201113e+01
1.900000e-06	2.821649e-07	-2.527680e-10	1.959853e+00	-2.058190e+01
1.910000e-06	3.288985e-07	-2.302267e-10	2.284454e+00	-1.911996e+01
1.920000e-06	3.757797e-07	-2.086947e-10	2.610080e+00	-1.762582e+01
1.930000e-06	4.226912e-07	-1.891416e-10	2.935917e+00	-1.610012e+01
1.940000e-06	4.693531e-07	-1.693451e-10	3.260019e+00	-1.454359e+01
1.950000e-06	5.159121e-07	-1.489561e-10	3.583408e+00	-1.295711e+01
1.960000e-06	5.624644e-07	-1.291213e-10	3.906750e+00	-1.134168e+01
1.970000e-06	6.090331e-07	-1.079853e-10	4.230205e+00	-9.698424e+00
1.980000e-06	6.556081e-07	-8.427799e-11	4.553705e+00	-8.028613e+00
1.990000e-06	7.021134e-07	-5.735860e-11	4.876720e+00	-6.333650e+00
2.000000e-06	7.485693e-07	-2.916195e-11	5.199392e+00	-4.615078e+00
2.010000e-06	7.948730e-07	-3.869160e-12	5.521007e+00	-2.874577e+00
2.020000e-06	8.410072e-07	1.903175e-11	5.841444e+00	-1.113963e+00
2.030000e-06	8.871415e-07	4.206023e-11	6.161883e+00	6.648155e-01
2.040000e-06	9.333240e-07	6.537255e-11	6.482656e+00	2.459685e+00
2.050000e-06	9.794294e-07	8.916988e-11	6.802894e+00	4.268453e+00
2.060000e-06	1.025401e-06	1.156446e-10	7.122203e+00	6.088814e+00
2.070000e-06	1.071328e-06	1.434330e-10	7.441197e+00	7.918364e+00
2.080000e-06	1.117180e-06	1.691248e-10	7.759680e+00	9.754611e+00
2.090000e-06	1.162926e-06	1.942474e-10	8.077416e+00	1.159499e+01
2.100000e-06	1.208630e-06	2.200324e-10	8.394869e+00	1.343686e+01
2.110000e-06	1.254291e-06	2.447337e-10	8.712020e+00	1.527757e+01
2.120000e-06	1.299899e-06	2.700006e-10	9.028801e+00	1.711442e+01
2.130000e-06	1.345450e-06	2.957704e-10	9.345191e+00	1.894470e+01
2.140000e-06	1.390872e-06	3.197981e-10	9.660678e+00	2.076571e+01
2.150000e-06	1.436162e-06	3.429203e-10	9.975251e+00	2.257479e+01
2.160000e-06	1.481363e-06	3.666802e-10	1.028921e+01	2.436934e+01
2.170000e-06	1.526451e-06	3.900893e-10	1.060238e+01	2.614680e+01
2.180000e-06	1.571403e-06	4.139685e-10	1.091461e+01	2.790471e+01
2.190000e-06	1.616222e-06	4.391438e-10	1.122591e+01	2.964072e+01
2.200000e-06	1.660936e-06	4.643384e-10	1.153648e+01	3.135260e+01
2.210000e-06	1.705572e-06	4.883891e-10	1.184652e+01	3.303826e+01
2.220000e-06	1.750051e-06	5.119330e-10	1.215546e+01	3.469575e+01
2.230000e-06	1.794337e-06	5.334094e-10	1.246306e+01	3.632330e+01
2.240000e-06	1.838484e-06	5.529822e-10	1.276969e+01	3.791932e+01
2.250000e-06	1.882568e-06	5.714390e-10	1.307589e+01	3.948238e+01
2.260000e-06	1.926628e-06	5.894082e-10	1.338192e+01	4.101126e+01
2.270000e-06	1.970596e-06	6.102157e-10	1.368731e+01	4.250492e+01
2.280000e-06	2.014487e-06	6.316496e-10	1.399217e+01	4.396254e+01
2.290000e-06	2.058277e-06	6.504278e-10	1.429632e+01	4.538346e+01
2.300000e-06	2.101973e-06	6.691787e-10	1.459983e+01	4.676724e+01
2.310000e-06	2.145575e-06	6.884326e-10	1.490268e+01	4.811361e+01
2.320000e-06	2.189069e-06	7.058802e-10	1.520478e+01	4.942247e+01
2.330000e-06	2.232516e-06	7.229390e-10	1.550655e+01	5.069392e+01
2.340000e-06	2.275829e-06	7.394192e-10	1.580739e+01	5.192817e+01
2.350000e-06	2.318894e-06	7.558059e-10	1.610651e+01	5.312560e+01
2.360000e-06	2.361617e-06	7.733869e-10	1.640326e+01	5.428672e+01
2.370000e-06	2.404091e-06	7.897605e-10	1.669827e+01	5.541212e+01
2.380000e-06	2.446452e-06	8.024387e-10	1.699250e+01	5.650251e+01
2.390000e-06	2.488592e-06	8.146800e-10	1.728519e+01	5.755867e+01
2.400000e-06	2.530326e-06	8.280114e-10	1.757507e+01	5.858143e+01
2.410000e-06	2.571684e-06	8.418241e-10	1.786233e+01	5.957166e+01
2.420000e-06	2.612708e-06	8.543942e-10	1.814727e+01	6.053026e+01
2.430000e-06	2.653484e-06	8.662006e-10	1.843050e+01	6.145814e+01
2.440000e-06	2.694097e-06	8.776789e-10	1.871259e+01	6.235618e+01
2.450000e-06	2.734504e-06	8.886450e-10	1.899324e+01	6.322527e+01
2.460000e-06	2.774666e-06	9.000771e-10	1.927220e+01	6.406623e+01
2.470000e-06	2.814612e-06	9.105311e-10	1.954965e+01	6.487986e+01
2.480000e-06	2.854457e-06	9.196972e-10	1.982641e+01	6.566690e+01
2.490000e-06	2.894190e-06	9.294991e-10	2.010239e+01	6.642801e+01
2.500000e-06	2.933792e-06	9.396484e-10	2.037745e+01	6.716383e+01
2.510000e-06	2.973267e-06	9.496177e-10	2.065164e+01	6.787488e+01
2.520000e-06	3.012569e-06	9.587826e-10	2.092462e+01	6.856165e+01
2.530000e-06	3.051688e-06	9.659774e-10	2.119633e+01	6.922456e+01
2.540000e-06	3.090553e-06	9.722647e-10	2.146628e+01	6.986395e+01
2.550000e-06	3.129168e-06	9.780539e-10	2.173449e+01	7.048012e+01
2.560000e-06	3.167582e-06	9.849092e-10	2.200130e+01	7.107332e+01
2.570000e-06	3.205715e-06	9.935653e-10	2.226617e+01	7.164376e+01
2.580000e-06	3.243616e-06	1.002910e-09	2.252942e+01	7.219164e+01
2.590000e-06	3.281380e-06	1.012171e-09	2.279172e+01	7.271710e+01
2.600000e-06	3.318988e-06	1.020705e-09	2.305294e+01	7.322032e+01
2.610000e-06	3.356329e-06	1.028924e-09	2.331229e+01	7.370146e+01
2.620000e-06	3.393411e-06	1.036812e-09	2.356986e+01	7.416070e+01
2.630000e-06	3.430241e-06	1.043792e-09	2.382567e+01	7.459826e+01
2.640000e-06	3.466826e-06	1.048754e-09	2.407978e+01	7.501438e+01
2.650000e-06	3.503161e-06	1.053306e-09	2.433216e+01	7.540938e+01
2.660000e-06	3.539231e-06	1.059481e-09	2.458269e+01	7.578360e+01
2.670000e-06	3.575135e-06	1.066139e-09	2.483207e+01	7.613748e+01
2.680000e-06	3.610915e-06	1.072672e-09	2.508059e+01	7.647151e+01
2.690000e-06	3.646522e-06	1.077876e-09	2.532791e+01	7.678626e+01
2.700000e-06	3.681906e-06	1.081347e-09	2.557368e+01	7.708238e+01
2.710000e-06	3.717141e-06	1.085336e-09	2.581842e+01	7.736058e+01
2.720000e-06	3.752162e-06	1.090417e-09	2.606166e+01	7.762166e+01
2.730000e-06	3.786823e-06	1.095224e-09	2.630241e+01	7.786649e+01
2.740000e-06	3.821106e-06	1.100108e-09	2.654053e+01	7.809598e+01
2.750000e-06	3.854927e-06	1.102529e-09	2.677545e+01	7.831112e+01
2.760000e-06	3.888261e-06	1.104658e-09	2.700698e+01	7.851293e+01
2.770000e-06	3.921188e-06	1.106263e-09	2.723568e+01	7.870246e+01
2.780000e-06	3.953757e-06	1.110343e-09	2.746190e+01	7.888081e+01
2.790000e-06	3.986022e-06	1.118134e-09	2.768600e+01	7.904904e+01
2.800000e-06	4.018026e-06	1.127305e-09	2.790829e+01	7.920824e+01
2.810000e-06	4.049832e-06	1.133234e-09	2.812921e+01	7.935947e+01
2.820000e-06	4.081439e-06	1.135020e-09	2.834874e+01	7.950375e+01
2.830000e-06	4.112851e-06	1.135938e-09	2.856693e+01	7.964206e+01
2.840000e-06	4.144057e-06	1.135343e-09	2.878367e+01	7.977531e+01
2.850000e-06	4.174930e-06	1.133065e-09	2.899811e+01	7.990432e+01
2.860000e-06	4.205447e-06	1.132588e-09	2.921008e+01	8.002986e+01
2.870000e-06	4.235717e-06	1.136264e-09	2.942033e+01	8.015257e+01
2.880000e-06	4.265722e-06	1.142419e-09	2.962873e+01	8.027301e+01
2.890000e-06	4.295412e-06	1.147735e-09	2.983495e+01	8.039160e+01
2.900000e-06	4.324810e-06	1.147802e-09	3.003915e+01	8.050868e+01
