# Temperatura_=_14.3
# Concentracion g/m^3_=_1620.0
# C_Vs_to_Am_M_A/Vsm_=_65563218390.804596
# pendiente_HvsI_1/m_=_3716.3
# ordenada_HvsI_A/m_=_1297.0
# frecuencia_Hz_=_135093.51772050542

Tiempo_(s)	Campo_(V.s)	Magnetizacion_(V.s)	Campo_(kA/m)	Magnetizacion_(A/m)
0.000000e+00	-5.541204e-06	-1.631544e-09	-3.837956e+01	-1.080419e+02
1.000000e-08	-5.541372e-06	-1.626889e-09	-3.838073e+01	-1.079959e+02
2.000000e-08	-5.541331e-06	-1.626178e-09	-3.838044e+01	-1.079531e+02
3.000000e-08	-5.540919e-06	-1.628787e-09	-3.837759e+01	-1.079139e+02
4.000000e-08	-5.540077e-06	-1.631789e-09	-3.837175e+01	-1.078788e+02
5.000000e-08	-5.538639e-06	-1.632221e-09	-3.836180e+01	-1.078483e+02
6.000000e-08	-5.536647e-06	-1.630264e-09	-3.834800e+01	-1.078226e+02
7.000000e-08	-5.534119e-06	-1.650280e-09	-3.833049e+01	-1.078018e+02
8.000000e-08	-5.530985e-06	-1.664063e-09	-3.830878e+01	-1.077860e+02
9.000000e-08	-5.527316e-06	-1.625926e-09	-3.828337e+01	-1.077751e+02
1.000000e-07	-5.523202e-06	-1.578742e-09	-3.825488e+01	-1.077687e+02
1.100000e-07	-5.518881e-06	-1.609924e-09	-3.822494e+01	-1.077665e+02
1.200000e-07	-5.514356e-06	-1.639732e-09	-3.819361e+01	-1.077680e+02
1.300000e-07	-5.509486e-06	-1.652268e-09	-3.815987e+01	-1.077725e+02
1.400000e-07	-5.504218e-06	-1.582530e-09	-3.812339e+01	-1.077792e+02
1.500000e-07	-5.498621e-06	-1.633230e-09	-3.808462e+01	-1.077873e+02
1.600000e-07	-5.492660e-06	-1.652841e-09	-3.804334e+01	-1.077957e+02
1.700000e-07	-5.486264e-06	-1.639422e-09	-3.799903e+01	-1.078033e+02
1.800000e-07	-5.479465e-06	-1.578220e-09	-3.795195e+01	-1.078090e+02
1.900000e-07	-5.472323e-06	-1.611276e-09	-3.790247e+01	-1.078117e+02
2.000000e-07	-5.464904e-06	-1.656839e-09	-3.785109e+01	-1.078100e+02
2.100000e-07	-5.457224e-06	-1.651432e-09	-3.779790e+01	-1.078029e+02
2.200000e-07	-5.449275e-06	-1.633638e-09	-3.774284e+01	-1.077890e+02
2.300000e-07	-5.440919e-06	-1.622366e-09	-3.768497e+01	-1.077673e+02
2.400000e-07	-5.432072e-06	-1.639624e-09	-3.762369e+01	-1.077366e+02
2.500000e-07	-5.422740e-06	-1.627720e-09	-3.755905e+01	-1.076958e+02
2.600000e-07	-5.412792e-06	-1.636968e-09	-3.749015e+01	-1.076442e+02
2.700000e-07	-5.402155e-06	-1.628361e-09	-3.741648e+01	-1.075808e+02
2.800000e-07	-5.390976e-06	-1.658405e-09	-3.733905e+01	-1.075049e+02
2.900000e-07	-5.379393e-06	-1.626995e-09	-3.725882e+01	-1.074161e+02
3.000000e-07	-5.367424e-06	-1.618917e-09	-3.717593e+01	-1.073139e+02
3.100000e-07	-5.354928e-06	-1.602217e-09	-3.708937e+01	-1.071981e+02
3.200000e-07	-5.342015e-06	-1.651820e-09	-3.699993e+01	-1.070686e+02
3.300000e-07	-5.328838e-06	-1.627783e-09	-3.690867e+01	-1.069255e+02
3.400000e-07	-5.315204e-06	-1.615497e-09	-3.681424e+01	-1.067691e+02
3.500000e-07	-5.301131e-06	-1.615105e-09	-3.671676e+01	-1.065998e+02
3.600000e-07	-5.286741e-06	-1.651487e-09	-3.661709e+01	-1.064181e+02
3.700000e-07	-5.271897e-06	-1.603723e-09	-3.651428e+01	-1.062248e+02
3.800000e-07	-5.256572e-06	-1.592490e-09	-3.640814e+01	-1.060206e+02
3.900000e-07	-5.240649e-06	-1.622928e-09	-3.629786e+01	-1.058066e+02
4.000000e-07	-5.224227e-06	-1.619727e-09	-3.618411e+01	-1.055837e+02
4.100000e-07	-5.207496e-06	-1.573164e-09	-3.606823e+01	-1.053530e+02
4.200000e-07	-5.190446e-06	-1.601912e-09	-3.595013e+01	-1.051158e+02
4.300000e-07	-5.173170e-06	-1.627728e-09	-3.583048e+01	-1.048732e+02
4.400000e-07	-5.155544e-06	-1.574982e-09	-3.570840e+01	-1.046264e+02
4.500000e-07	-5.137430e-06	-1.569565e-09	-3.558294e+01	-1.043766e+02
4.600000e-07	-5.119012e-06	-1.613788e-09	-3.545537e+01	-1.041251e+02
4.700000e-07	-5.100196e-06	-1.592776e-09	-3.532505e+01	-1.038729e+02
4.800000e-07	-5.080895e-06	-1.552059e-09	-3.519136e+01	-1.036211e+02
4.900000e-07	-5.061321e-06	-1.587892e-09	-3.505579e+01	-1.033707e+02
5.000000e-07	-5.041513e-06	-1.578852e-09	-3.491859e+01	-1.031225e+02
5.100000e-07	-5.021453e-06	-1.546378e-09	-3.477965e+01	-1.028774e+02
5.200000e-07	-5.001078e-06	-1.571717e-09	-3.463853e+01	-1.026359e+02
5.300000e-07	-4.980415e-06	-1.598777e-09	-3.449542e+01	-1.023985e+02
5.400000e-07	-4.959356e-06	-1.545589e-09	-3.434956e+01	-1.021658e+02
5.500000e-07	-4.937938e-06	-1.548233e-09	-3.420121e+01	-1.019377e+02
5.600000e-07	-4.916326e-06	-1.574408e-09	-3.405152e+01	-1.017146e+02
5.700000e-07	-4.894368e-06	-1.552023e-09	-3.389943e+01	-1.014962e+02
5.800000e-07	-4.872003e-06	-1.519962e-09	-3.374453e+01	-1.012825e+02
5.900000e-07	-4.849314e-06	-1.548162e-09	-3.358738e+01	-1.010731e+02
6.000000e-07	-4.826275e-06	-1.538465e-09	-3.342781e+01	-1.008675e+02
6.100000e-07	-4.802916e-06	-1.523688e-09	-3.326602e+01	-1.006653e+02
6.200000e-07	-4.779308e-06	-1.529293e-09	-3.310250e+01	-1.004658e+02
6.300000e-07	-4.755486e-06	-1.533685e-09	-3.293751e+01	-1.002683e+02
6.400000e-07	-4.731348e-06	-1.514774e-09	-3.277033e+01	-1.000721e+02
6.500000e-07	-4.706859e-06	-1.519856e-09	-3.260071e+01	-9.987623e+01
6.600000e-07	-4.681921e-06	-1.515679e-09	-3.242798e+01	-9.967992e+01
6.700000e-07	-4.656452e-06	-1.510091e-09	-3.225158e+01	-9.948230e+01
6.800000e-07	-4.630444e-06	-1.510517e-09	-3.207145e+01	-9.928249e+01
6.900000e-07	-4.603860e-06	-1.510839e-09	-3.188732e+01	-9.907963e+01
7.000000e-07	-4.576839e-06	-1.499682e-09	-3.170016e+01	-9.887292e+01
7.100000e-07	-4.549555e-06	-1.501032e-09	-3.151119e+01	-9.866156e+01
7.200000e-07	-4.522004e-06	-1.495677e-09	-3.132037e+01	-9.844485e+01
7.300000e-07	-4.494196e-06	-1.483779e-09	-3.112776e+01	-9.822213e+01
7.400000e-07	-4.466225e-06	-1.481220e-09	-3.093402e+01	-9.799282e+01
7.500000e-07	-4.438086e-06	-1.478618e-09	-3.073913e+01	-9.775643e+01
7.600000e-07	-4.409648e-06	-1.470734e-09	-3.054217e+01	-9.751256e+01
7.700000e-07	-4.380892e-06	-1.468640e-09	-3.034299e+01	-9.726091e+01
7.800000e-07	-4.351825e-06	-1.470393e-09	-3.014167e+01	-9.700124e+01
7.900000e-07	-4.322421e-06	-1.455650e-09	-2.993801e+01	-9.673344e+01
8.000000e-07	-4.292807e-06	-1.450226e-09	-2.973290e+01	-9.645748e+01
8.100000e-07	-4.262887e-06	-1.448818e-09	-2.952567e+01	-9.617341e+01
8.200000e-07	-4.232577e-06	-1.445553e-09	-2.931573e+01	-9.588135e+01
8.300000e-07	-4.202020e-06	-1.433199e-09	-2.910408e+01	-9.558153e+01
8.400000e-07	-4.171189e-06	-1.435145e-09	-2.889054e+01	-9.527422e+01
8.500000e-07	-4.140031e-06	-1.431715e-09	-2.867474e+01	-9.495974e+01
8.600000e-07	-4.108597e-06	-1.425181e-09	-2.845702e+01	-9.463849e+01
8.700000e-07	-4.076999e-06	-1.415547e-09	-2.823816e+01	-9.431089e+01
8.800000e-07	-4.045316e-06	-1.412644e-09	-2.801872e+01	-9.397739e+01
8.900000e-07	-4.013453e-06	-1.402738e-09	-2.779803e+01	-9.363845e+01
9.000000e-07	-3.981243e-06	-1.398069e-09	-2.757494e+01	-9.329457e+01
9.100000e-07	-3.948717e-06	-1.396701e-09	-2.734966e+01	-9.294620e+01
9.200000e-07	-3.915975e-06	-1.396906e-09	-2.712288e+01	-9.259384e+01
9.300000e-07	-3.882718e-06	-1.385953e-09	-2.689254e+01	-9.223792e+01
9.400000e-07	-3.848865e-06	-1.381310e-09	-2.665806e+01	-9.187887e+01
9.500000e-07	-3.814637e-06	-1.377730e-09	-2.642099e+01	-9.151710e+01
9.600000e-07	-3.780001e-06	-1.372001e-09	-2.618110e+01	-9.115296e+01
9.700000e-07	-3.744981e-06	-1.361540e-09	-2.593854e+01	-9.078677e+01
9.800000e-07	-3.709690e-06	-1.356587e-09	-2.569410e+01	-9.041880e+01
9.900000e-07	-3.674140e-06	-1.348151e-09	-2.544788e+01	-9.004929e+01
1.000000e-06	-3.638430e-06	-1.337204e-09	-2.520054e+01	-8.967840e+01
1.010000e-06	-3.602647e-06	-1.331976e-09	-2.495270e+01	-8.930628e+01
1.020000e-06	-3.566703e-06	-1.330949e-09	-2.470375e+01	-8.893299e+01
1.030000e-06	-3.530547e-06	-1.327426e-09	-2.445332e+01	-8.855858e+01
1.040000e-06	-3.494189e-06	-1.320854e-09	-2.420150e+01	-8.818304e+01
1.050000e-06	-3.457583e-06	-1.316000e-09	-2.394796e+01	-8.780630e+01
1.060000e-06	-3.420675e-06	-1.307184e-09	-2.369232e+01	-8.742828e+01
1.070000e-06	-3.383482e-06	-1.296957e-09	-2.343472e+01	-8.704884e+01
1.080000e-06	-3.346026e-06	-1.286761e-09	-2.317529e+01	-8.666781e+01
1.090000e-06	-3.308320e-06	-1.278729e-09	-2.291413e+01	-8.628498e+01
1.100000e-06	-3.270376e-06	-1.270865e-09	-2.265132e+01	-8.590014e+01
1.110000e-06	-3.232236e-06	-1.268236e-09	-2.238716e+01	-8.551303e+01
1.120000e-06	-3.193865e-06	-1.264796e-09	-2.212139e+01	-8.512337e+01
1.130000e-06	-3.155265e-06	-1.258598e-09	-2.185404e+01	-8.473088e+01
1.140000e-06	-3.116458e-06	-1.248775e-09	-2.158526e+01	-8.433522e+01
1.150000e-06	-3.077442e-06	-1.243863e-09	-2.131502e+01	-8.393609e+01
1.160000e-06	-3.038314e-06	-1.234021e-09	-2.104401e+01	-8.353314e+01
1.170000e-06	-2.999017e-06	-1.223409e-09	-2.077183e+01	-8.312602e+01
1.180000e-06	-2.959513e-06	-1.214572e-09	-2.049822e+01	-8.271436e+01
1.190000e-06	-2.919814e-06	-1.211188e-09	-2.022326e+01	-8.229781e+01
1.200000e-06	-2.879993e-06	-1.205258e-09	-1.994744e+01	-8.187599e+01
1.210000e-06	-2.840061e-06	-1.199475e-09	-1.967087e+01	-8.144850e+01
1.220000e-06	-2.799978e-06	-1.193145e-09	-1.939325e+01	-8.101496e+01
1.230000e-06	-2.759749e-06	-1.186226e-09	-1.911461e+01	-8.057498e+01
1.240000e-06	-2.719267e-06	-1.176834e-09	-1.883422e+01	-8.012815e+01
1.250000e-06	-2.678625e-06	-1.167609e-09	-1.855273e+01	-7.967407e+01
1.260000e-06	-2.637733e-06	-1.158489e-09	-1.826950e+01	-7.921234e+01
1.270000e-06	-2.596437e-06	-1.150089e-09	-1.798347e+01	-7.874254e+01
1.280000e-06	-2.554830e-06	-1.140743e-09	-1.769530e+01	-7.826427e+01
1.290000e-06	-2.513016e-06	-1.131999e-09	-1.740569e+01	-7.777712e+01
1.300000e-06	-2.470934e-06	-1.120915e-09	-1.711422e+01	-7.728068e+01
1.310000e-06	-2.428531e-06	-1.110679e-09	-1.682053e+01	-7.677455e+01
1.320000e-06	-2.385909e-06	-1.103157e-09	-1.652531e+01	-7.625834e+01
1.330000e-06	-2.342947e-06	-1.095775e-09	-1.622775e+01	-7.573167e+01
1.340000e-06	-2.299727e-06	-1.085721e-09	-1.592840e+01	-7.519416e+01
1.350000e-06	-2.256418e-06	-1.075662e-09	-1.562843e+01	-7.464545e+01
1.360000e-06	-2.212929e-06	-1.067385e-09	-1.532722e+01	-7.408521e+01
1.370000e-06	-2.169282e-06	-1.056541e-09	-1.502491e+01	-7.351311e+01
1.380000e-06	-2.125548e-06	-1.045227e-09	-1.472200e+01	-7.292884e+01
1.390000e-06	-2.081753e-06	-1.033767e-09	-1.441866e+01	-7.233213e+01
1.400000e-06	-2.037902e-06	-1.024157e-09	-1.411494e+01	-7.172271e+01
1.410000e-06	-1.993975e-06	-1.013967e-09	-1.381070e+01	-7.110034e+01
1.420000e-06	-1.949974e-06	-1.003986e-09	-1.350594e+01	-7.046482e+01
1.430000e-06	-1.905934e-06	-9.937546e-10	-1.320090e+01	-6.981596e+01
1.440000e-06	-1.861754e-06	-9.831996e-10	-1.289491e+01	-6.915358e+01
1.450000e-06	-1.817379e-06	-9.710616e-10	-1.258756e+01	-6.847754e+01
1.460000e-06	-1.772833e-06	-9.584327e-10	-1.227902e+01	-6.778771e+01
1.470000e-06	-1.728167e-06	-9.444959e-10	-1.196965e+01	-6.708396e+01
1.480000e-06	-1.683424e-06	-9.314976e-10	-1.165975e+01	-6.636618e+01
1.490000e-06	-1.638506e-06	-9.157111e-10	-1.134864e+01	-6.563427e+01
1.500000e-06	-1.593433e-06	-8.990002e-10	-1.103646e+01	-6.488811e+01
1.510000e-06	-1.548299e-06	-8.831300e-10	-1.072385e+01	-6.412758e+01
1.520000e-06	-1.503065e-06	-8.713018e-10	-1.041055e+01	-6.335254e+01
1.530000e-06	-1.457687e-06	-8.590448e-10	-1.009625e+01	-6.256283e+01
1.540000e-06	-1.412174e-06	-8.451581e-10	-9.781021e+00	-6.175826e+01
1.550000e-06	-1.366524e-06	-8.290728e-10	-9.464839e+00	-6.093860e+01
1.560000e-06	-1.320781e-06	-8.141428e-10	-9.148009e+00	-6.010357e+01
1.570000e-06	-1.274975e-06	-8.006312e-10	-8.830748e+00	-5.925283e+01
1.580000e-06	-1.229166e-06	-7.873449e-10	-8.513466e+00	-5.838601e+01
1.590000e-06	-1.183353e-06	-7.736399e-10	-8.196158e+00	-5.750264e+01
1.600000e-06	-1.137450e-06	-7.610406e-10	-7.878224e+00	-5.660220e+01
1.610000e-06	-1.091431e-06	-7.512597e-10	-7.559483e+00	-5.568409e+01
1.620000e-06	-1.045260e-06	-7.411569e-10	-7.239692e+00	-5.474762e+01
1.630000e-06	-9.989680e-07	-7.296552e-10	-6.919065e+00	-5.379205e+01
1.640000e-06	-9.526149e-07	-7.174806e-10	-6.598014e+00	-5.281654e+01
1.650000e-06	-9.061735e-07	-7.013408e-10	-6.276351e+00	-5.182016e+01
1.660000e-06	-8.597937e-07	-6.817361e-10	-5.955114e+00	-5.080194e+01
1.670000e-06	-8.133704e-07	-6.607901e-10	-5.633577e+00	-4.976082e+01
1.680000e-06	-7.667476e-07	-6.381933e-10	-5.310657e+00	-4.869567e+01
1.690000e-06	-7.201313e-07	-6.184977e-10	-4.987783e+00	-4.760532e+01
1.700000e-06	-6.735107e-07	-5.999797e-10	-4.664879e+00	-4.648856e+01
1.710000e-06	-6.268099e-07	-5.864991e-10	-4.341419e+00	-4.534412e+01
1.720000e-06	-5.801231e-07	-5.741021e-10	-4.018057e+00	-4.417073e+01
1.730000e-06	-5.334324e-07	-5.576443e-10	-3.694667e+00	-4.296711e+01
1.740000e-06	-4.866763e-07	-5.364047e-10	-3.370824e+00	-4.173198e+01
1.750000e-06	-4.398250e-07	-5.131408e-10	-3.046321e+00	-4.046410e+01
1.760000e-06	-3.929040e-07	-4.888320e-10	-2.721337e+00	-3.916226e+01
1.770000e-06	-3.459095e-07	-4.664947e-10	-2.395843e+00	-3.782530e+01
1.780000e-06	-2.988698e-07	-4.481436e-10	-2.070036e+00	-3.645215e+01
1.790000e-06	-2.518802e-07	-4.300881e-10	-1.744576e+00	-3.504182e+01
1.800000e-06	-2.048905e-07	-4.123325e-10	-1.419115e+00	-3.359344e+01
1.810000e-06	-1.578037e-07	-3.933812e-10	-1.092982e+00	-3.210626e+01
1.820000e-06	-1.107319e-07	-3.713727e-10	-7.669531e-01	-3.057968e+01
1.830000e-06	-6.367554e-08	-3.473265e-10	-4.410304e-01	-2.901323e+01
1.840000e-06	-1.660167e-08	-3.235841e-10	-1.149867e-01	-2.740664e+01
1.850000e-06	3.040377e-08	-3.005197e-10	2.105830e-01	-2.575979e+01
1.860000e-06	7.740722e-08	-2.770443e-10	5.361389e-01	-2.407279e+01
1.870000e-06	1.244488e-07	-2.547955e-10	8.619590e-01	-2.234591e+01
1.880000e-06	1.714758e-07	-2.316855e-10	1.187678e+00	-2.057964e+01
1.890000e-06	2.184514e-07	-2.055868e-10	1.513041e+00	-1.877468e+01
1.900000e-06	2.654428e-07	-1.777712e-10	1.838513e+00	-1.693193e+01
1.910000e-06	3.124368e-07	-1.501006e-10	2.164004e+00	-1.505252e+01
1.920000e-06	3.594197e-07	-1.229447e-10	2.489418e+00	-1.313777e+01
1.930000e-06	4.063523e-07	-9.570818e-11	2.814483e+00	-1.118921e+01
1.940000e-06	4.532181e-07	-7.060781e-11	3.139085e+00	-9.208562e+00
1.950000e-06	5.000777e-07	-4.515961e-11	3.463645e+00	-7.197739e+00
1.960000e-06	5.468228e-07	-1.642500e-11	3.787411e+00	-5.158831e+00
1.970000e-06	5.935008e-07	1.422778e-11	4.110713e+00	-3.094093e+00
1.980000e-06	6.402022e-07	4.456793e-11	4.434177e+00	-1.005933e+00
1.990000e-06	6.868404e-07	7.687448e-11	4.757203e+00	1.103107e+00
2.000000e-06	7.334128e-07	1.087995e-10	5.079774e+00	3.230362e+00
2.010000e-06	7.799030e-07	1.389927e-10	5.401774e+00	5.373065e+00
2.020000e-06	8.263721e-07	1.689171e-10	5.723630e+00	7.528362e+00
2.030000e-06	8.728325e-07	1.966222e-10	6.045424e+00	9.693332e+00
2.040000e-06	9.191973e-07	2.262014e-10	6.366557e+00	1.186500e+01
2.050000e-06	9.655028e-07	2.555530e-10	6.687278e+00	1.404038e+01
2.060000e-06	1.011729e-06	2.858123e-10	7.007448e+00	1.621644e+01
2.070000e-06	1.057800e-06	3.185634e-10	7.326551e+00	1.839018e+01
2.080000e-06	1.103795e-06	3.506243e-10	7.645117e+00	2.055862e+01
2.090000e-06	1.149794e-06	3.796176e-10	7.963715e+00	2.271882e+01
2.100000e-06	1.195706e-06	4.083860e-10	8.281713e+00	2.486787e+01
2.110000e-06	1.241512e-06	4.397500e-10	8.598975e+00	2.700298e+01
2.120000e-06	1.287214e-06	4.709995e-10	8.915517e+00	2.912141e+01
2.130000e-06	1.332822e-06	5.014429e-10	9.231409e+00	3.122052e+01
2.140000e-06	1.378322e-06	5.282571e-10	9.546555e+00	3.329781e+01
2.150000e-06	1.423714e-06	5.526358e-10	9.860950e+00	3.535086e+01
2.160000e-06	1.469036e-06	5.776467e-10	1.017486e+01	3.737741e+01
2.170000e-06	1.514310e-06	6.049634e-10	1.048843e+01	3.937534e+01
2.180000e-06	1.559502e-06	6.334285e-10	1.080144e+01	4.134265e+01
2.190000e-06	1.604534e-06	6.614787e-10	1.111334e+01	4.327751e+01
2.200000e-06	1.649406e-06	6.884258e-10	1.142413e+01	4.517826e+01
2.210000e-06	1.694108e-06	7.126800e-10	1.173375e+01	4.704337e+01
2.220000e-06	1.738626e-06	7.347883e-10	1.204210e+01	4.887149e+01
2.230000e-06	1.783019e-06	7.570212e-10	1.234957e+01	5.066144e+01
2.240000e-06	1.827311e-06	7.775783e-10	1.265634e+01	5.241217e+01
2.250000e-06	1.871495e-06	7.993935e-10	1.296238e+01	5.412284e+01
2.260000e-06	1.915606e-06	8.215040e-10	1.326790e+01	5.579272e+01
2.270000e-06	1.959632e-06	8.440097e-10	1.357283e+01	5.742129e+01
2.280000e-06	2.003555e-06	8.666430e-10	1.387705e+01	5.900814e+01
2.290000e-06	2.047411e-06	8.876497e-10	1.418081e+01	6.055304e+01
2.300000e-06	2.091243e-06	9.063300e-10	1.448440e+01	6.205590e+01
2.310000e-06	2.134937e-06	9.239443e-10	1.478703e+01	6.351676e+01
2.320000e-06	2.178512e-06	9.433972e-10	1.508884e+01	6.493579e+01
2.330000e-06	2.222070e-06	9.629430e-10	1.539053e+01	6.631332e+01
2.340000e-06	2.265517e-06	9.817850e-10	1.569145e+01	6.764976e+01
2.350000e-06	2.308778e-06	1.000906e-09	1.599109e+01	6.894567e+01
2.360000e-06	2.351937e-06	1.021061e-09	1.629002e+01	7.020167e+01
2.370000e-06	2.394902e-06	1.039350e-09	1.658760e+01	7.141852e+01
2.380000e-06	2.437508e-06	1.054064e-09	1.688270e+01	7.259704e+01
2.390000e-06	2.479802e-06	1.066727e-09	1.717564e+01	7.373813e+01
2.400000e-06	2.521695e-06	1.080938e-09	1.746580e+01	7.484275e+01
2.410000e-06	2.563314e-06	1.095711e-09	1.775406e+01	7.591194e+01
2.420000e-06	2.604661e-06	1.109198e-09	1.804043e+01	7.694676e+01
2.430000e-06	2.645648e-06	1.120123e-09	1.832433e+01	7.794832e+01
2.440000e-06	2.686422e-06	1.129698e-09	1.860673e+01	7.891776e+01
2.450000e-06	2.727027e-06	1.139814e-09	1.888797e+01	7.985621e+01
2.460000e-06	2.767455e-06	1.151852e-09	1.916798e+01	8.076484e+01
2.470000e-06	2.807621e-06	1.165228e-09	1.944618e+01	8.164478e+01
2.480000e-06	2.847567e-06	1.177193e-09	1.972285e+01	8.249718e+01
2.490000e-06	2.887384e-06	1.187223e-09	1.999864e+01	8.332315e+01
2.500000e-06	2.927150e-06	1.198225e-09	2.027406e+01	8.412377e+01
2.510000e-06	2.966781e-06	1.208093e-09	2.054856e+01	8.490008e+01
2.520000e-06	3.006231e-06	1.216730e-09	2.082180e+01	8.565308e+01
2.530000e-06	3.045501e-06	1.227059e-09	2.109379e+01	8.638371e+01
2.540000e-06	3.084487e-06	1.238051e-09	2.136381e+01	8.709288e+01
2.550000e-06	3.123244e-06	1.247388e-09	2.163225e+01	8.778140e+01
2.560000e-06	3.161786e-06	1.254562e-09	2.189920e+01	8.845006e+01
2.570000e-06	3.200046e-06	1.262142e-09	2.216420e+01	8.909956e+01
2.580000e-06	3.238152e-06	1.270323e-09	2.242813e+01	8.973055e+01
2.590000e-06	3.276141e-06	1.280732e-09	2.269125e+01	9.034361e+01
2.600000e-06	3.313969e-06	1.291907e-09	2.295326e+01	9.093925e+01
2.610000e-06	3.351613e-06	1.302553e-09	2.321398e+01	9.151795e+01
2.620000e-06	3.388931e-06	1.312610e-09	2.347246e+01	9.208011e+01
2.630000e-06	3.425927e-06	1.319658e-09	2.372870e+01	9.262610e+01
2.640000e-06	3.462669e-06	1.324222e-09	2.398318e+01	9.315623e+01
2.650000e-06	3.499220e-06	1.329303e-09	2.423635e+01	9.367078e+01
2.660000e-06	3.535585e-06	1.335954e-09	2.448822e+01	9.417002e+01
2.670000e-06	3.571715e-06	1.344427e-09	2.473846e+01	9.465417e+01
2.680000e-06	3.607687e-06	1.354868e-09	2.498761e+01	9.512345e+01
2.690000e-06	3.643512e-06	1.364950e-09	2.523574e+01	9.557808e+01
2.700000e-06	3.679145e-06	1.373667e-09	2.548255e+01	9.601827e+01
2.710000e-06	3.714677e-06	1.380274e-09	2.572865e+01	9.644425e+01
2.720000e-06	3.750066e-06	1.384247e-09	2.597375e+01	9.685625e+01
2.730000e-06	3.785041e-06	1.389193e-09	2.621600e+01	9.725455e+01
2.740000e-06	3.819520e-06	1.397563e-09	2.645481e+01	9.763944e+01
2.750000e-06	3.853559e-06	1.406435e-09	2.669057e+01	9.801123e+01
2.760000e-06	3.887128e-06	1.413553e-09	2.692308e+01	9.837029e+01
2.770000e-06	3.920211e-06	1.419492e-09	2.715222e+01	9.871703e+01
2.780000e-06	3.952911e-06	1.425646e-09	2.737870e+01	9.905187e+01
2.790000e-06	3.985340e-06	1.432645e-09	2.760332e+01	9.937529e+01
2.800000e-06	4.017520e-06	1.439198e-09	2.782620e+01	9.968782e+01
2.810000e-06	4.049477e-06	1.443516e-09	2.804754e+01	9.999001e+01
2.820000e-06	4.081256e-06	1.446621e-09	2.826765e+01	1.002824e+02
2.830000e-06	4.112825e-06	1.450969e-09	2.848630e+01	1.005657e+02
2.840000e-06	4.144178e-06	1.456669e-09	2.870346e+01	1.008404e+02
2.850000e-06	4.175235e-06	1.460854e-09	2.891857e+01	1.011072e+02
2.860000e-06	4.205886e-06	1.463197e-09	2.913087e+01	1.013668e+02
2.870000e-06	4.236225e-06	1.467597e-09	2.934100e+01	1.016198e+02
2.880000e-06	4.266313e-06	1.472476e-09	2.954939e+01	1.018668e+02
2.890000e-06	4.296165e-06	1.476529e-09	2.975615e+01	1.021085e+02
2.900000e-06	4.325817e-06	1.480966e-09	2.996153e+01	1.023453e+02
