# Temperatura_=_15.1
# Concentracion g/m^3_=_1620.0
# C_Vs_to_Am_M_A/Vsm_=_65563218390.804596
# pendiente_HvsI_1/m_=_3716.3
# ordenada_HvsI_A/m_=_1297.0
# frecuencia_Hz_=_135093.77034957573

Tiempo_(s)	Campo_(V.s)	Magnetizacion_(V.s)	Campo_(kA/m)	Magnetizacion_(A/m)
0.000000e+00	-5.526645e-06	-1.598832e-09	-3.837439e+01	-1.056779e+02
1.000000e-08	-5.526772e-06	-1.598539e-09	-3.837527e+01	-1.056163e+02
2.000000e-08	-5.526646e-06	-1.597278e-09	-3.837439e+01	-1.055610e+02
3.000000e-08	-5.526268e-06	-1.595568e-09	-3.837177e+01	-1.055126e+02
4.000000e-08	-5.525396e-06	-1.596410e-09	-3.836572e+01	-1.054710e+02
5.000000e-08	-5.523961e-06	-1.593278e-09	-3.835575e+01	-1.054365e+02
6.000000e-08	-5.522027e-06	-1.586437e-09	-3.834232e+01	-1.054088e+02
7.000000e-08	-5.519444e-06	-1.585005e-09	-3.832439e+01	-1.053875e+02
8.000000e-08	-5.516203e-06	-1.569124e-09	-3.830189e+01	-1.053723e+02
9.000000e-08	-5.512469e-06	-1.594161e-09	-3.827596e+01	-1.053624e+02
1.000000e-07	-5.508447e-06	-1.675295e-09	-3.824803e+01	-1.053571e+02
1.100000e-07	-5.504108e-06	-1.647260e-09	-3.821790e+01	-1.053554e+02
1.200000e-07	-5.499498e-06	-1.537929e-09	-3.818589e+01	-1.053563e+02
1.300000e-07	-5.494675e-06	-1.500346e-09	-3.815240e+01	-1.053586e+02
1.400000e-07	-5.489439e-06	-1.610068e-09	-3.811605e+01	-1.053612e+02
1.500000e-07	-5.483754e-06	-1.666099e-09	-3.807657e+01	-1.053627e+02
1.600000e-07	-5.477687e-06	-1.530673e-09	-3.803445e+01	-1.053619e+02
1.700000e-07	-5.471356e-06	-1.524611e-09	-3.799049e+01	-1.053575e+02
1.800000e-07	-5.464559e-06	-1.628234e-09	-3.794329e+01	-1.053481e+02
1.900000e-07	-5.457160e-06	-1.711738e-09	-3.789192e+01	-1.053324e+02
2.000000e-07	-5.449534e-06	-1.569418e-09	-3.783896e+01	-1.053094e+02
2.100000e-07	-5.441876e-06	-1.539053e-09	-3.778579e+01	-1.052779e+02
2.200000e-07	-5.433978e-06	-1.611102e-09	-3.773095e+01	-1.052368e+02
2.300000e-07	-5.425676e-06	-1.689425e-09	-3.767330e+01	-1.051853e+02
2.400000e-07	-5.416855e-06	-1.616482e-09	-3.761206e+01	-1.051227e+02
2.500000e-07	-5.407465e-06	-1.577482e-09	-3.754686e+01	-1.050484e+02
2.600000e-07	-5.397349e-06	-1.606968e-09	-3.747662e+01	-1.049618e+02
2.700000e-07	-5.386493e-06	-1.630665e-09	-3.740124e+01	-1.048627e+02
2.800000e-07	-5.375173e-06	-1.589085e-09	-3.732264e+01	-1.047510e+02
2.900000e-07	-5.363478e-06	-1.553855e-09	-3.724143e+01	-1.046267e+02
3.000000e-07	-5.351451e-06	-1.601010e-09	-3.715793e+01	-1.044900e+02
3.100000e-07	-5.339168e-06	-1.610211e-09	-3.707264e+01	-1.043412e+02
3.200000e-07	-5.326481e-06	-1.592354e-09	-3.698455e+01	-1.041809e+02
3.300000e-07	-5.313205e-06	-1.543108e-09	-3.689236e+01	-1.040095e+02
3.400000e-07	-5.299523e-06	-1.600334e-09	-3.679736e+01	-1.038280e+02
3.500000e-07	-5.285583e-06	-1.607739e-09	-3.670057e+01	-1.036369e+02
3.600000e-07	-5.271213e-06	-1.570063e-09	-3.660079e+01	-1.034373e+02
3.700000e-07	-5.256233e-06	-1.534859e-09	-3.649678e+01	-1.032301e+02
3.800000e-07	-5.240844e-06	-1.607101e-09	-3.638992e+01	-1.030163e+02
3.900000e-07	-5.224944e-06	-1.581417e-09	-3.627952e+01	-1.027968e+02
4.000000e-07	-5.208379e-06	-1.520866e-09	-3.616450e+01	-1.025727e+02
4.100000e-07	-5.191462e-06	-1.550996e-09	-3.604703e+01	-1.023449e+02
4.200000e-07	-5.174409e-06	-1.610389e-09	-3.592863e+01	-1.021144e+02
4.300000e-07	-5.157075e-06	-1.515196e-09	-3.580827e+01	-1.018821e+02
4.400000e-07	-5.139381e-06	-1.510007e-09	-3.568541e+01	-1.016488e+02
4.500000e-07	-5.121313e-06	-1.595270e-09	-3.555996e+01	-1.014152e+02
4.600000e-07	-5.102763e-06	-1.562127e-09	-3.543115e+01	-1.011820e+02
4.700000e-07	-5.083933e-06	-1.458426e-09	-3.530040e+01	-1.009497e+02
4.800000e-07	-5.064751e-06	-1.535087e-09	-3.516722e+01	-1.007187e+02
4.900000e-07	-5.045177e-06	-1.564358e-09	-3.503130e+01	-1.004894e+02
5.000000e-07	-5.025428e-06	-1.482060e-09	-3.489417e+01	-1.002620e+02
5.100000e-07	-5.005454e-06	-1.501623e-09	-3.475548e+01	-1.000366e+02
5.200000e-07	-4.985202e-06	-1.566787e-09	-3.461486e+01	-9.981321e+01
5.300000e-07	-4.964579e-06	-1.484542e-09	-3.447167e+01	-9.959177e+01
5.400000e-07	-4.943593e-06	-1.470594e-09	-3.432595e+01	-9.937209e+01
5.500000e-07	-4.922331e-06	-1.560886e-09	-3.417832e+01	-9.915392e+01
5.600000e-07	-4.900703e-06	-1.513142e-09	-3.402815e+01	-9.893695e+01
5.700000e-07	-4.878737e-06	-1.437332e-09	-3.387562e+01	-9.872080e+01
5.800000e-07	-4.856553e-06	-1.504810e-09	-3.372159e+01	-9.850505e+01
5.900000e-07	-4.833918e-06	-1.526432e-09	-3.356442e+01	-9.828925e+01
6.000000e-07	-4.810850e-06	-1.451358e-09	-3.340425e+01	-9.807294e+01
6.100000e-07	-4.787593e-06	-1.478170e-09	-3.324276e+01	-9.785564e+01
6.200000e-07	-4.764071e-06	-1.507191e-09	-3.307944e+01	-9.763689e+01
6.300000e-07	-4.740247e-06	-1.456251e-09	-3.291402e+01	-9.741622e+01
6.400000e-07	-4.716238e-06	-1.445679e-09	-3.274731e+01	-9.719321e+01
6.500000e-07	-4.691927e-06	-1.486089e-09	-3.257850e+01	-9.696746e+01
6.600000e-07	-4.667130e-06	-1.452542e-09	-3.240633e+01	-9.673861e+01
6.700000e-07	-4.641773e-06	-1.443266e-09	-3.223026e+01	-9.650634e+01
6.800000e-07	-4.615847e-06	-1.463729e-09	-3.205024e+01	-9.627039e+01
6.900000e-07	-4.589379e-06	-1.454975e-09	-3.186646e+01	-9.603052e+01
7.000000e-07	-4.562395e-06	-1.427979e-09	-3.167910e+01	-9.578658e+01
7.100000e-07	-4.535064e-06	-1.448444e-09	-3.148932e+01	-9.553842e+01
7.200000e-07	-4.507480e-06	-1.434590e-09	-3.129779e+01	-9.528597e+01
7.300000e-07	-4.479721e-06	-1.417106e-09	-3.110505e+01	-9.502918e+01
7.400000e-07	-4.451845e-06	-1.425596e-09	-3.091149e+01	-9.476804e+01
7.500000e-07	-4.423731e-06	-1.433367e-09	-3.071628e+01	-9.450257e+01
7.600000e-07	-4.395327e-06	-1.409508e-09	-3.051906e+01	-9.423282e+01
7.700000e-07	-4.366636e-06	-1.411371e-09	-3.031984e+01	-9.395883e+01
7.800000e-07	-4.337598e-06	-1.411195e-09	-3.011821e+01	-9.368068e+01
7.900000e-07	-4.308223e-06	-1.397455e-09	-2.991425e+01	-9.339843e+01
8.000000e-07	-4.278541e-06	-1.394385e-09	-2.970815e+01	-9.311216e+01
8.100000e-07	-4.248588e-06	-1.403980e-09	-2.950017e+01	-9.282192e+01
8.200000e-07	-4.218389e-06	-1.384884e-09	-2.929048e+01	-9.252776e+01
8.300000e-07	-4.187867e-06	-1.369887e-09	-2.907855e+01	-9.222971e+01
8.400000e-07	-4.156991e-06	-1.377207e-09	-2.886417e+01	-9.192777e+01
8.500000e-07	-4.125791e-06	-1.372104e-09	-2.864752e+01	-9.162194e+01
8.600000e-07	-4.094308e-06	-1.358036e-09	-2.842892e+01	-9.131219e+01
8.700000e-07	-4.062663e-06	-1.358225e-09	-2.820919e+01	-9.099846e+01
8.800000e-07	-4.030901e-06	-1.358972e-09	-2.798865e+01	-9.068068e+01
8.900000e-07	-3.998959e-06	-1.339576e-09	-2.776686e+01	-9.035877e+01
9.000000e-07	-3.966875e-06	-1.334840e-09	-2.754409e+01	-9.003263e+01
9.100000e-07	-3.934539e-06	-1.333660e-09	-2.731956e+01	-8.970216e+01
9.200000e-07	-3.901808e-06	-1.322123e-09	-2.709229e+01	-8.936725e+01
9.300000e-07	-3.868595e-06	-1.311308e-09	-2.686168e+01	-8.902781e+01
9.400000e-07	-3.834876e-06	-1.320733e-09	-2.662755e+01	-8.868374e+01
9.500000e-07	-3.800797e-06	-1.314021e-09	-2.639092e+01	-8.833496e+01
9.600000e-07	-3.766264e-06	-1.302954e-09	-2.615114e+01	-8.798143e+01
9.700000e-07	-3.731253e-06	-1.300692e-09	-2.590804e+01	-8.762311e+01
9.800000e-07	-3.695936e-06	-1.298237e-09	-2.566281e+01	-8.726001e+01
9.900000e-07	-3.660424e-06	-1.279040e-09	-2.541624e+01	-8.689216e+01
1.000000e-06	-3.624779e-06	-1.273616e-09	-2.516874e+01	-8.651963e+01
1.010000e-06	-3.589001e-06	-1.272131e-09	-2.492031e+01	-8.614253e+01
1.020000e-06	-3.553096e-06	-1.265644e-09	-2.467101e+01	-8.576100e+01
1.030000e-06	-3.517039e-06	-1.257383e-09	-2.442064e+01	-8.537523e+01
1.040000e-06	-3.480753e-06	-1.260295e-09	-2.416869e+01	-8.498542e+01
1.050000e-06	-3.444278e-06	-1.249285e-09	-2.391543e+01	-8.459183e+01
1.060000e-06	-3.407482e-06	-1.234134e-09	-2.365993e+01	-8.419472e+01
1.070000e-06	-3.370332e-06	-1.227900e-09	-2.340198e+01	-8.379436e+01
1.080000e-06	-3.332974e-06	-1.222763e-09	-2.314258e+01	-8.339107e+01
1.090000e-06	-3.295371e-06	-1.211655e-09	-2.288149e+01	-8.298512e+01
1.100000e-06	-3.257551e-06	-1.209584e-09	-2.261888e+01	-8.257680e+01
1.110000e-06	-3.219510e-06	-1.208353e-09	-2.235474e+01	-8.216640e+01
1.120000e-06	-3.181265e-06	-1.196154e-09	-2.208919e+01	-8.175415e+01
1.130000e-06	-3.142885e-06	-1.184961e-09	-2.182269e+01	-8.134027e+01
1.140000e-06	-3.104268e-06	-1.181975e-09	-2.155456e+01	-8.092492e+01
1.150000e-06	-3.065326e-06	-1.176932e-09	-2.128416e+01	-8.050821e+01
1.160000e-06	-3.026163e-06	-1.168349e-09	-2.101223e+01	-8.009020e+01
1.170000e-06	-2.986800e-06	-1.164387e-09	-2.073892e+01	-7.967088e+01
1.180000e-06	-2.947275e-06	-1.158835e-09	-2.046447e+01	-7.925015e+01
1.190000e-06	-2.907721e-06	-1.153854e-09	-2.018983e+01	-7.882787e+01
1.200000e-06	-2.868067e-06	-1.149378e-09	-1.991449e+01	-7.840378e+01
1.210000e-06	-2.828246e-06	-1.145007e-09	-1.963799e+01	-7.797758e+01
1.220000e-06	-2.788257e-06	-1.135651e-09	-1.936033e+01	-7.754887e+01
1.230000e-06	-2.748103e-06	-1.131071e-09	-1.908151e+01	-7.711719e+01
1.240000e-06	-2.707800e-06	-1.125732e-09	-1.880167e+01	-7.668200e+01
1.250000e-06	-2.667274e-06	-1.117413e-09	-1.852028e+01	-7.624269e+01
1.260000e-06	-2.626393e-06	-1.107065e-09	-1.823642e+01	-7.579863e+01
1.270000e-06	-2.585211e-06	-1.099817e-09	-1.795047e+01	-7.534911e+01
1.280000e-06	-2.543835e-06	-1.089651e-09	-1.766318e+01	-7.489341e+01
1.290000e-06	-2.502234e-06	-1.079609e-09	-1.737432e+01	-7.443076e+01
1.300000e-06	-2.460299e-06	-1.070591e-09	-1.708314e+01	-7.396041e+01
1.310000e-06	-2.418074e-06	-1.062936e-09	-1.678995e+01	-7.348158e+01
1.320000e-06	-2.375631e-06	-1.054206e-09	-1.649525e+01	-7.299353e+01
1.330000e-06	-2.332888e-06	-1.046962e-09	-1.619846e+01	-7.249554e+01
1.340000e-06	-2.289852e-06	-1.037126e-09	-1.589964e+01	-7.198691e+01
1.350000e-06	-2.246605e-06	-1.029485e-09	-1.559936e+01	-7.146701e+01
1.360000e-06	-2.203129e-06	-1.022511e-09	-1.529748e+01	-7.093525e+01
1.370000e-06	-2.159442e-06	-1.014711e-09	-1.499414e+01	-7.039111e+01
1.380000e-06	-2.115689e-06	-1.002880e-09	-1.469033e+01	-6.983415e+01
1.390000e-06	-2.071899e-06	-9.906579e-10	-1.438628e+01	-6.926400e+01
1.400000e-06	-2.028048e-06	-9.778913e-10	-1.408180e+01	-6.868036e+01
1.410000e-06	-1.984171e-06	-9.655120e-10	-1.377714e+01	-6.808301e+01
1.420000e-06	-1.940247e-06	-9.546332e-10	-1.347215e+01	-6.747181e+01
1.430000e-06	-1.896216e-06	-9.458853e-10	-1.316642e+01	-6.684670e+01
1.440000e-06	-1.852085e-06	-9.384036e-10	-1.286000e+01	-6.620766e+01
1.450000e-06	-1.807839e-06	-9.272506e-10	-1.255277e+01	-6.555475e+01
1.460000e-06	-1.763459e-06	-9.143425e-10	-1.224462e+01	-6.488805e+01
1.470000e-06	-1.718987e-06	-9.018467e-10	-1.193583e+01	-6.420771e+01
1.480000e-06	-1.674379e-06	-8.907120e-10	-1.162609e+01	-6.351387e+01
1.490000e-06	-1.629508e-06	-8.769446e-10	-1.131453e+01	-6.280669e+01
1.500000e-06	-1.584484e-06	-8.597685e-10	-1.100190e+01	-6.208632e+01
1.510000e-06	-1.539377e-06	-8.440614e-10	-1.068870e+01	-6.135287e+01
1.520000e-06	-1.494153e-06	-8.321831e-10	-1.037469e+01	-6.060643e+01
1.530000e-06	-1.448834e-06	-8.229148e-10	-1.006001e+01	-5.984703e+01
1.540000e-06	-1.403395e-06	-8.148191e-10	-9.744508e+00	-5.907461e+01
1.550000e-06	-1.357840e-06	-8.016592e-10	-9.428193e+00	-5.828905e+01
1.560000e-06	-1.312203e-06	-7.885347e-10	-9.111314e+00	-5.749011e+01
1.570000e-06	-1.266558e-06	-7.747278e-10	-8.794377e+00	-5.667747e+01
1.580000e-06	-1.220899e-06	-7.616474e-10	-8.477343e+00	-5.585067e+01
1.590000e-06	-1.175171e-06	-7.467917e-10	-8.159830e+00	-5.500914e+01
1.600000e-06	-1.129340e-06	-7.322133e-10	-7.841598e+00	-5.415217e+01
1.610000e-06	-1.083366e-06	-7.206588e-10	-7.522374e+00	-5.327893e+01
1.620000e-06	-1.037366e-06	-7.110169e-10	-7.202972e+00	-5.238848e+01
1.630000e-06	-9.913029e-07	-7.031961e-10	-6.883135e+00	-5.147973e+01
1.640000e-06	-9.450298e-07	-6.919836e-10	-6.561837e+00	-5.055149e+01
1.650000e-06	-8.986797e-07	-6.779374e-10	-6.240003e+00	-4.960245e+01
1.660000e-06	-8.523580e-07	-6.606291e-10	-5.918368e+00	-4.863124e+01
1.670000e-06	-8.060281e-07	-6.400862e-10	-5.596675e+00	-4.763636e+01
1.680000e-06	-7.596776e-07	-6.208838e-10	-5.274839e+00	-4.661630e+01
1.690000e-06	-7.132273e-07	-6.048945e-10	-4.952311e+00	-4.556946e+01
1.700000e-06	-6.666865e-07	-5.898649e-10	-4.629153e+00	-4.449424e+01
1.710000e-06	-6.201275e-07	-5.741454e-10	-4.305870e+00	-4.338904e+01
1.720000e-06	-5.734573e-07	-5.580801e-10	-3.981814e+00	-4.225225e+01
1.730000e-06	-5.268164e-07	-5.387552e-10	-3.657962e+00	-4.108234e+01
1.740000e-06	-4.802400e-07	-5.171403e-10	-3.334557e+00	-3.987781e+01
1.750000e-06	-4.335972e-07	-4.933507e-10	-3.010692e+00	-3.863725e+01
1.760000e-06	-3.868102e-07	-4.701042e-10	-2.685826e+00	-3.735937e+01
1.770000e-06	-3.398192e-07	-4.500141e-10	-2.359542e+00	-3.604299e+01
1.780000e-06	-2.928475e-07	-4.319477e-10	-2.033393e+00	-3.468709e+01
1.790000e-06	-2.458963e-07	-4.149288e-10	-1.707387e+00	-3.329080e+01
1.800000e-06	-1.989253e-07	-3.979986e-10	-1.381242e+00	-3.185343e+01
1.810000e-06	-1.520798e-07	-3.789941e-10	-1.055969e+00	-3.037447e+01
1.820000e-06	-1.052383e-07	-3.558732e-10	-7.307244e-01	-2.885363e+01
1.830000e-06	-5.828129e-08	-3.297716e-10	-4.046775e-01	-2.729082e+01
1.840000e-06	-1.135985e-08	-3.047248e-10	-7.887741e-02	-2.568616e+01
1.850000e-06	3.550109e-08	-2.816965e-10	2.465027e-01	-2.403999e+01
1.860000e-06	8.238215e-08	-2.607992e-10	5.720224e-01	-2.235287e+01
1.870000e-06	1.291628e-07	-2.417496e-10	8.968448e-01	-2.062557e+01
1.880000e-06	1.759427e-07	-2.209734e-10	1.221662e+00	-1.885907e+01
1.890000e-06	2.227666e-07	-1.968505e-10	1.546785e+00	-1.705458e+01
1.900000e-06	2.695907e-07	-1.673499e-10	1.871909e+00	-1.521348e+01
1.910000e-06	3.164731e-07	-1.336170e-10	2.197438e+00	-1.333734e+01
1.920000e-06	3.632415e-07	-9.920375e-11	2.522175e+00	-1.142791e+01
1.930000e-06	4.099055e-07	-6.935145e-11	2.846188e+00	-9.487104e+00
1.940000e-06	4.565772e-07	-4.522594e-11	3.170254e+00	-7.516988e+00
1.950000e-06	5.032382e-07	-2.161867e-11	3.494246e+00	-5.519752e+00
1.960000e-06	5.498676e-07	2.880868e-12	3.818018e+00	-3.497708e+00
1.970000e-06	5.964342e-07	2.991695e-11	4.141355e+00	-1.453270e+00
1.980000e-06	6.429077e-07	5.870109e-11	4.464044e+00	6.110607e-01
1.990000e-06	6.892983e-07	9.037698e-11	4.786159e+00	2.692711e+00
2.000000e-06	7.356434e-07	1.256763e-10	5.107957e+00	4.789052e+00
2.010000e-06	7.819900e-07	1.578977e-10	5.429766e+00	6.897412e+00
2.020000e-06	8.282879e-07	1.869924e-10	5.751236e+00	9.015091e+00
2.030000e-06	8.745008e-07	2.152443e-10	6.072117e+00	1.113938e+01
2.040000e-06	9.206832e-07	2.414552e-10	6.392785e+00	1.326755e+01
2.050000e-06	9.667865e-07	2.672359e-10	6.712904e+00	1.539690e+01
2.060000e-06	1.012814e-06	2.952973e-10	7.032498e+00	1.752473e+01
2.070000e-06	1.058849e-06	3.268709e-10	7.352142e+00	1.964840e+01
2.080000e-06	1.104756e-06	3.602264e-10	7.670898e+00	2.176526e+01
2.090000e-06	1.150492e-06	3.940114e-10	7.988470e+00	2.387275e+01
2.100000e-06	1.196142e-06	4.266244e-10	8.305441e+00	2.596835e+01
2.110000e-06	1.241729e-06	4.556218e-10	8.621974e+00	2.804958e+01
2.120000e-06	1.287281e-06	4.819068e-10	8.938268e+00	3.011405e+01
2.130000e-06	1.332800e-06	5.079401e-10	9.254331e+00	3.215945e+01
2.140000e-06	1.378305e-06	5.328867e-10	9.570294e+00	3.418352e+01
2.150000e-06	1.423760e-06	5.575871e-10	9.885912e+00	3.618412e+01
2.160000e-06	1.469054e-06	5.848552e-10	1.020041e+01	3.815919e+01
2.170000e-06	1.514183e-06	6.136565e-10	1.051377e+01	4.010675e+01
2.180000e-06	1.559207e-06	6.412831e-10	1.082639e+01	4.202496e+01
2.190000e-06	1.604128e-06	6.665985e-10	1.113830e+01	4.391205e+01
2.200000e-06	1.648949e-06	6.923014e-10	1.144952e+01	4.576640e+01
2.210000e-06	1.693594e-06	7.175677e-10	1.175951e+01	4.758649e+01
2.220000e-06	1.738078e-06	7.412780e-10	1.206838e+01	4.937094e+01
2.230000e-06	1.782444e-06	7.656186e-10	1.237644e+01	5.111850e+01
2.240000e-06	1.826707e-06	7.884423e-10	1.268378e+01	5.282807e+01
2.250000e-06	1.870859e-06	8.095152e-10	1.299035e+01	5.449867e+01
2.260000e-06	1.914873e-06	8.298495e-10	1.329596e+01	5.612949e+01
2.270000e-06	1.958813e-06	8.499737e-10	1.360106e+01	5.771988e+01
2.280000e-06	2.002685e-06	8.713854e-10	1.390569e+01	5.926932e+01
2.290000e-06	2.046456e-06	8.924706e-10	1.420961e+01	6.077746e+01
2.300000e-06	2.090165e-06	9.117758e-10	1.451311e+01	6.224412e+01
2.310000e-06	2.133808e-06	9.294582e-10	1.481614e+01	6.366927e+01
2.320000e-06	2.177366e-06	9.465692e-10	1.511859e+01	6.505302e+01
2.330000e-06	2.220818e-06	9.656218e-10	1.542030e+01	6.639567e+01
2.340000e-06	2.264112e-06	9.854937e-10	1.572092e+01	6.769765e+01
2.350000e-06	2.307227e-06	1.004229e-09	1.602029e+01	6.895951e+01
2.360000e-06	2.350131e-06	1.022633e-09	1.631819e+01	7.018197e+01
2.370000e-06	2.392737e-06	1.038605e-09	1.661402e+01	7.136587e+01
2.380000e-06	2.435076e-06	1.053950e-09	1.690801e+01	7.251213e+01
2.390000e-06	2.477189e-06	1.067367e-09	1.720042e+01	7.362182e+01
2.400000e-06	2.519057e-06	1.080365e-09	1.749113e+01	7.469605e+01
2.410000e-06	2.560563e-06	1.095082e-09	1.777933e+01	7.573604e+01
2.420000e-06	2.601799e-06	1.110793e-09	1.806565e+01	7.674304e+01
2.430000e-06	2.642789e-06	1.124644e-09	1.835026e+01	7.771836e+01
2.440000e-06	2.683403e-06	1.134984e-09	1.863227e+01	7.866333e+01
2.450000e-06	2.723827e-06	1.145064e-09	1.891295e+01	7.957927e+01
2.460000e-06	2.764028e-06	1.155091e-09	1.919209e+01	8.046750e+01
2.470000e-06	2.804000e-06	1.165862e-09	1.946964e+01	8.132933e+01
2.480000e-06	2.843862e-06	1.176016e-09	1.974643e+01	8.216600e+01
2.490000e-06	2.883644e-06	1.188189e-09	2.002265e+01	8.297872e+01
2.500000e-06	2.923332e-06	1.201208e-09	2.029823e+01	8.376862e+01
2.510000e-06	2.962921e-06	1.212368e-09	2.057311e+01	8.453676e+01
2.520000e-06	3.002374e-06	1.222951e-09	2.084706e+01	8.528409e+01
2.530000e-06	3.041624e-06	1.232213e-09	2.111959e+01	8.601148e+01
2.540000e-06	3.080557e-06	1.240456e-09	2.138992e+01	8.671971e+01
2.550000e-06	3.119249e-06	1.248728e-09	2.165858e+01	8.740944e+01
2.560000e-06	3.157820e-06	1.257461e-09	2.192640e+01	8.808123e+01
2.570000e-06	3.196129e-06	1.268385e-09	2.219240e+01	8.873553e+01
2.580000e-06	3.234186e-06	1.277500e-09	2.245665e+01	8.937273e+01
2.590000e-06	3.272062e-06	1.285670e-09	2.271964e+01	8.999307e+01
2.600000e-06	3.309718e-06	1.292694e-09	2.298110e+01	9.059676e+01
2.610000e-06	3.347182e-06	1.299784e-09	2.324124e+01	9.118391e+01
2.620000e-06	3.384448e-06	1.309746e-09	2.350000e+01	9.175457e+01
2.630000e-06	3.421389e-06	1.319562e-09	2.375649e+01	9.230876e+01
2.640000e-06	3.457943e-06	1.329148e-09	2.401030e+01	9.284644e+01
2.650000e-06	3.494214e-06	1.337497e-09	2.426215e+01	9.336757e+01
2.660000e-06	3.530399e-06	1.343618e-09	2.451341e+01	9.387211e+01
2.670000e-06	3.566486e-06	1.347792e-09	2.476398e+01	9.436001e+01
2.680000e-06	3.602368e-06	1.351304e-09	2.501313e+01	9.483127e+01
2.690000e-06	3.638082e-06	1.358167e-09	2.526111e+01	9.528590e+01
2.700000e-06	3.673639e-06	1.369738e-09	2.550800e+01	9.572399e+01
2.710000e-06	3.709017e-06	1.382423e-09	2.575364e+01	9.614566e+01
2.720000e-06	3.744220e-06	1.393259e-09	2.599808e+01	9.655113e+01
2.730000e-06	3.779133e-06	1.400085e-09	2.624050e+01	9.694067e+01
2.740000e-06	3.813546e-06	1.404793e-09	2.647944e+01	9.731466e+01
2.750000e-06	3.847321e-06	1.406474e-09	2.671396e+01	9.767355e+01
2.760000e-06	3.880631e-06	1.406353e-09	2.694525e+01	9.801786e+01
2.770000e-06	3.913537e-06	1.408461e-09	2.717373e+01	9.834821e+01
2.780000e-06	3.946026e-06	1.415790e-09	2.739932e+01	9.866531e+01
2.790000e-06	3.978235e-06	1.426941e-09	2.762297e+01	9.896990e+01
2.800000e-06	4.010202e-06	1.438166e-09	2.784493e+01	9.926281e+01
2.810000e-06	4.042041e-06	1.446842e-09	2.806600e+01	9.954491e+01
2.820000e-06	4.073786e-06	1.451465e-09	2.828643e+01	9.981711e+01
2.830000e-06	4.105350e-06	1.453154e-09	2.850559e+01	1.000804e+02
2.840000e-06	4.136661e-06	1.452668e-09	2.872300e+01	1.003356e+02
2.850000e-06	4.167719e-06	1.451332e-09	2.893866e+01	1.005837e+02
2.860000e-06	4.198381e-06	1.452005e-09	2.915156e+01	1.008256e+02
2.870000e-06	4.228601e-06	1.456382e-09	2.936139e+01	1.010621e+02
2.880000e-06	4.258580e-06	1.464058e-09	2.956955e+01	1.012942e+02
2.890000e-06	4.288302e-06	1.472524e-09	2.977593e+01	1.015224e+02
2.900000e-06	4.317776e-06	1.477997e-09	2.998057e+01	1.017475e+02
