# Temperatura_=_-16.59
# Concentracion g/m^3_=_1620.0
# C_Vs_to_Am_M_A/Vsm_=_65563218390.804596
# pendiente_HvsI_1/m_=_3716.3
# ordenada_HvsI_A/m_=_1297.0
# frecuencia_Hz_=_135105.8019387732

Tiempo_(s)	Campo_(V.s)	Magnetizacion_(V.s)	Campo_(kA/m)	Magnetizacion_(A/m)
0.000000e+00	-5.516553e-06	-8.932543e-10	-3.837242e+01	-5.944332e+01
1.000000e-08	-5.516854e-06	-8.930404e-10	-3.837451e+01	-5.943591e+01
2.000000e-08	-5.516962e-06	-8.936428e-10	-3.837527e+01	-5.943190e+01
3.000000e-08	-5.516655e-06	-8.947494e-10	-3.837313e+01	-5.943121e+01
4.000000e-08	-5.515781e-06	-8.961308e-10	-3.836705e+01	-5.943370e+01
5.000000e-08	-5.514320e-06	-8.943000e-10	-3.835689e+01	-5.943917e+01
6.000000e-08	-5.512342e-06	-8.819909e-10	-3.834313e+01	-5.944736e+01
7.000000e-08	-5.509896e-06	-8.614950e-10	-3.832612e+01	-5.945796e+01
8.000000e-08	-5.506915e-06	-8.838678e-10	-3.830538e+01	-5.947058e+01
9.000000e-08	-5.503381e-06	-9.726274e-10	-3.828080e+01	-5.948481e+01
1.000000e-07	-5.499350e-06	-9.882414e-10	-3.825276e+01	-5.950018e+01
1.100000e-07	-5.494974e-06	-8.427866e-10	-3.822232e+01	-5.951616e+01
1.200000e-07	-5.490436e-06	-7.861193e-10	-3.819075e+01	-5.953224e+01
1.300000e-07	-5.485695e-06	-8.946039e-10	-3.815777e+01	-5.954784e+01
1.400000e-07	-5.480551e-06	-9.905220e-10	-3.812200e+01	-5.956240e+01
1.500000e-07	-5.474981e-06	-8.735871e-10	-3.808325e+01	-5.957536e+01
1.600000e-07	-5.469202e-06	-7.936245e-10	-3.804305e+01	-5.958614e+01
1.700000e-07	-5.463098e-06	-9.034141e-10	-3.800060e+01	-5.959421e+01
1.800000e-07	-5.456429e-06	-9.907640e-10	-3.795421e+01	-5.959907e+01
1.900000e-07	-5.449370e-06	-9.015409e-10	-3.790510e+01	-5.960026e+01
2.000000e-07	-5.442089e-06	-8.086366e-10	-3.785446e+01	-5.959735e+01
2.100000e-07	-5.434518e-06	-8.746391e-10	-3.780180e+01	-5.959000e+01
2.200000e-07	-5.426599e-06	-9.502190e-10	-3.774671e+01	-5.957792e+01
2.300000e-07	-5.418454e-06	-9.212462e-10	-3.769006e+01	-5.956090e+01
2.400000e-07	-5.409998e-06	-8.503256e-10	-3.763124e+01	-5.953881e+01
2.500000e-07	-5.400848e-06	-8.748491e-10	-3.756759e+01	-5.951159e+01
2.600000e-07	-5.390883e-06	-9.105265e-10	-3.749828e+01	-5.947927e+01
2.700000e-07	-5.380343e-06	-8.995796e-10	-3.742496e+01	-5.944198e+01
2.800000e-07	-5.369302e-06	-8.538130e-10	-3.734816e+01	-5.939989e+01
2.900000e-07	-5.357776e-06	-8.761157e-10	-3.726799e+01	-5.935328e+01
3.000000e-07	-5.345944e-06	-8.969852e-10	-3.718569e+01	-5.930249e+01
3.100000e-07	-5.333841e-06	-8.746267e-10	-3.710150e+01	-5.924793e+01
3.200000e-07	-5.321240e-06	-8.294736e-10	-3.701384e+01	-5.919006e+01
3.300000e-07	-5.308115e-06	-8.586729e-10	-3.692255e+01	-5.912939e+01
3.400000e-07	-5.294730e-06	-8.988171e-10	-3.682945e+01	-5.906648e+01
3.500000e-07	-5.280998e-06	-8.735580e-10	-3.673393e+01	-5.900190e+01
3.600000e-07	-5.266698e-06	-8.416776e-10	-3.663446e+01	-5.893625e+01
3.700000e-07	-5.251989e-06	-8.960136e-10	-3.653215e+01	-5.887013e+01
3.800000e-07	-5.236827e-06	-8.953290e-10	-3.642668e+01	-5.880414e+01
3.900000e-07	-5.220969e-06	-8.203489e-10	-3.631638e+01	-5.873885e+01
4.000000e-07	-5.204627e-06	-8.473684e-10	-3.620270e+01	-5.867481e+01
4.100000e-07	-5.188032e-06	-9.227358e-10	-3.608727e+01	-5.861255e+01
4.200000e-07	-5.171019e-06	-8.579803e-10	-3.596893e+01	-5.855253e+01
4.300000e-07	-5.153623e-06	-8.113213e-10	-3.584793e+01	-5.849518e+01
4.400000e-07	-5.136049e-06	-9.218156e-10	-3.572568e+01	-5.844086e+01
4.500000e-07	-5.118205e-06	-9.216264e-10	-3.560156e+01	-5.838987e+01
4.600000e-07	-5.099822e-06	-8.045779e-10	-3.547369e+01	-5.834245e+01
4.700000e-07	-5.080943e-06	-8.419641e-10	-3.534237e+01	-5.829876e+01
4.800000e-07	-5.061831e-06	-9.287021e-10	-3.520944e+01	-5.825891e+01
4.900000e-07	-5.042462e-06	-8.412289e-10	-3.507470e+01	-5.822293e+01
5.000000e-07	-5.022852e-06	-8.249568e-10	-3.493830e+01	-5.819081e+01
5.100000e-07	-5.003074e-06	-9.191767e-10	-3.480073e+01	-5.816246e+01
5.200000e-07	-4.983014e-06	-8.765831e-10	-3.466119e+01	-5.813775e+01
5.300000e-07	-4.962607e-06	-8.051897e-10	-3.451925e+01	-5.811651e+01
5.400000e-07	-4.941874e-06	-9.014003e-10	-3.437503e+01	-5.809851e+01
5.500000e-07	-4.920712e-06	-9.059124e-10	-3.422783e+01	-5.808352e+01
5.600000e-07	-4.899164e-06	-8.056413e-10	-3.407794e+01	-5.807126e+01
5.700000e-07	-4.877409e-06	-8.522855e-10	-3.392661e+01	-5.806146e+01
5.800000e-07	-4.855263e-06	-9.251612e-10	-3.377257e+01	-5.805384e+01
5.900000e-07	-4.832585e-06	-8.427475e-10	-3.361483e+01	-5.804812e+01
6.000000e-07	-4.809580e-06	-8.332322e-10	-3.345481e+01	-5.804403e+01
6.100000e-07	-4.786334e-06	-9.084655e-10	-3.329311e+01	-5.804132e+01
6.200000e-07	-4.762812e-06	-8.707205e-10	-3.312949e+01	-5.803976e+01
6.300000e-07	-4.739058e-06	-8.251592e-10	-3.296426e+01	-5.803917e+01
6.400000e-07	-4.715108e-06	-8.871056e-10	-3.279767e+01	-5.803938e+01
6.500000e-07	-4.690847e-06	-8.872088e-10	-3.262892e+01	-5.804026e+01
6.600000e-07	-4.666189e-06	-8.365920e-10	-3.245740e+01	-5.804173e+01
6.700000e-07	-4.641063e-06	-8.694649e-10	-3.228262e+01	-5.804373e+01
6.800000e-07	-4.615248e-06	-8.929566e-10	-3.210306e+01	-5.804624e+01
6.900000e-07	-4.588858e-06	-8.509444e-10	-3.191949e+01	-5.804928e+01
7.000000e-07	-4.562154e-06	-8.587304e-10	-3.173374e+01	-5.805289e+01
7.100000e-07	-4.535077e-06	-8.925890e-10	-3.154540e+01	-5.805715e+01
7.200000e-07	-4.507677e-06	-8.664547e-10	-3.135481e+01	-5.806212e+01
7.300000e-07	-4.480082e-06	-8.558218e-10	-3.116286e+01	-5.806793e+01
7.400000e-07	-4.452356e-06	-8.814350e-10	-3.097001e+01	-5.807466e+01
7.500000e-07	-4.424419e-06	-8.716969e-10	-3.077568e+01	-5.808242e+01
7.600000e-07	-4.396110e-06	-8.547810e-10	-3.057876e+01	-5.809130e+01
7.700000e-07	-4.367491e-06	-8.764081e-10	-3.037970e+01	-5.810138e+01
7.800000e-07	-4.338605e-06	-8.763882e-10	-3.017877e+01	-5.811271e+01
7.900000e-07	-4.309390e-06	-8.604500e-10	-2.997555e+01	-5.812532e+01
8.000000e-07	-4.279930e-06	-8.692404e-10	-2.977063e+01	-5.813921e+01
8.100000e-07	-4.250218e-06	-8.724457e-10	-2.956396e+01	-5.815432e+01
8.200000e-07	-4.220166e-06	-8.467441e-10	-2.935492e+01	-5.817057e+01
8.300000e-07	-4.189804e-06	-8.521056e-10	-2.914373e+01	-5.818783e+01
8.400000e-07	-4.159128e-06	-8.695391e-10	-2.893035e+01	-5.820593e+01
8.500000e-07	-4.128174e-06	-8.647660e-10	-2.871504e+01	-5.822465e+01
8.600000e-07	-4.096966e-06	-8.639548e-10	-2.849796e+01	-5.824375e+01
8.700000e-07	-4.065544e-06	-8.788129e-10	-2.827939e+01	-5.826291e+01
8.800000e-07	-4.033951e-06	-8.681455e-10	-2.805963e+01	-5.828182e+01
8.900000e-07	-4.002208e-06	-8.550456e-10	-2.783884e+01	-5.830013e+01
9.000000e-07	-3.970289e-06	-8.623584e-10	-2.761681e+01	-5.831745e+01
9.100000e-07	-3.938093e-06	-8.620964e-10	-2.739286e+01	-5.833340e+01
9.200000e-07	-3.905425e-06	-8.509371e-10	-2.716562e+01	-5.834758e+01
9.300000e-07	-3.872240e-06	-8.621285e-10	-2.693480e+01	-5.835960e+01
9.400000e-07	-3.838728e-06	-8.697989e-10	-2.670169e+01	-5.836909e+01
9.500000e-07	-3.804848e-06	-8.566205e-10	-2.646602e+01	-5.837568e+01
9.600000e-07	-3.770547e-06	-8.534617e-10	-2.622743e+01	-5.837904e+01
9.700000e-07	-3.735831e-06	-8.633784e-10	-2.598595e+01	-5.837889e+01
9.800000e-07	-3.700709e-06	-8.554394e-10	-2.574165e+01	-5.837496e+01
9.900000e-07	-3.665362e-06	-8.460931e-10	-2.549578e+01	-5.836706e+01
1.000000e-06	-3.629888e-06	-8.547418e-10	-2.524903e+01	-5.835505e+01
1.010000e-06	-3.594255e-06	-8.535728e-10	-2.500117e+01	-5.833884e+01
1.020000e-06	-3.558463e-06	-8.454976e-10	-2.475220e+01	-5.831841e+01
1.030000e-06	-3.522480e-06	-8.502484e-10	-2.450191e+01	-5.829380e+01
1.040000e-06	-3.486309e-06	-8.561301e-10	-2.425031e+01	-5.826511e+01
1.050000e-06	-3.449918e-06	-8.479456e-10	-2.399718e+01	-5.823250e+01
1.060000e-06	-3.413307e-06	-8.458504e-10	-2.374251e+01	-5.819619e+01
1.070000e-06	-3.376432e-06	-8.488719e-10	-2.348602e+01	-5.815646e+01
1.080000e-06	-3.339226e-06	-8.440599e-10	-2.322722e+01	-5.811362e+01
1.090000e-06	-3.301816e-06	-8.382138e-10	-2.296700e+01	-5.806802e+01
1.100000e-06	-3.264251e-06	-8.417229e-10	-2.270570e+01	-5.802004e+01
1.110000e-06	-3.226398e-06	-8.395008e-10	-2.244240e+01	-5.797010e+01
1.120000e-06	-3.188287e-06	-8.340665e-10	-2.217731e+01	-5.791859e+01
1.130000e-06	-3.150022e-06	-8.344487e-10	-2.191114e+01	-5.786593e+01
1.140000e-06	-3.111496e-06	-8.356908e-10	-2.164316e+01	-5.781251e+01
1.150000e-06	-3.072619e-06	-8.309425e-10	-2.137273e+01	-5.775870e+01
1.160000e-06	-3.033580e-06	-8.318395e-10	-2.110119e+01	-5.770485e+01
1.170000e-06	-2.994496e-06	-8.346262e-10	-2.082932e+01	-5.765125e+01
1.180000e-06	-2.955275e-06	-8.338542e-10	-2.055651e+01	-5.759815e+01
1.190000e-06	-2.915825e-06	-8.338201e-10	-2.028210e+01	-5.754571e+01
1.200000e-06	-2.876161e-06	-8.377848e-10	-2.000620e+01	-5.749407e+01
1.210000e-06	-2.836406e-06	-8.364283e-10	-1.972967e+01	-5.744325e+01
1.220000e-06	-2.796521e-06	-8.336646e-10	-1.945223e+01	-5.739323e+01
1.230000e-06	-2.756395e-06	-8.348046e-10	-1.917312e+01	-5.734390e+01
1.240000e-06	-2.716046e-06	-8.367920e-10	-1.889246e+01	-5.729505e+01
1.250000e-06	-2.675547e-06	-8.360628e-10	-1.861076e+01	-5.724642e+01
1.260000e-06	-2.634924e-06	-8.357366e-10	-1.832818e+01	-5.719766e+01
1.270000e-06	-2.594080e-06	-8.359262e-10	-1.804408e+01	-5.714835e+01
1.280000e-06	-2.552981e-06	-8.335207e-10	-1.775820e+01	-5.709803e+01
1.290000e-06	-2.511622e-06	-8.303326e-10	-1.747052e+01	-5.704613e+01
1.300000e-06	-2.469899e-06	-8.279638e-10	-1.718030e+01	-5.699209e+01
1.310000e-06	-2.427856e-06	-8.267164e-10	-1.688785e+01	-5.693526e+01
1.320000e-06	-2.385569e-06	-8.257623e-10	-1.659371e+01	-5.687499e+01
1.330000e-06	-2.343036e-06	-8.279041e-10	-1.629785e+01	-5.681061e+01
1.340000e-06	-2.300242e-06	-8.295033e-10	-1.600018e+01	-5.674142e+01
1.350000e-06	-2.257176e-06	-8.307287e-10	-1.570062e+01	-5.666674e+01
1.360000e-06	-2.213939e-06	-8.312657e-10	-1.539987e+01	-5.658590e+01
1.370000e-06	-2.170532e-06	-8.296108e-10	-1.509794e+01	-5.649824e+01
1.380000e-06	-2.126964e-06	-8.245077e-10	-1.479488e+01	-5.640314e+01
1.390000e-06	-2.083310e-06	-8.203733e-10	-1.449123e+01	-5.630001e+01
1.400000e-06	-2.039612e-06	-8.173373e-10	-1.418728e+01	-5.618832e+01
1.410000e-06	-1.995884e-06	-8.142437e-10	-1.388311e+01	-5.606756e+01
1.420000e-06	-1.952105e-06	-8.095360e-10	-1.357859e+01	-5.593729e+01
1.430000e-06	-1.908255e-06	-8.075815e-10	-1.327357e+01	-5.579713e+01
1.440000e-06	-1.864262e-06	-8.085277e-10	-1.296756e+01	-5.564674e+01
1.450000e-06	-1.820102e-06	-8.074146e-10	-1.266039e+01	-5.548583e+01
1.460000e-06	-1.775767e-06	-8.031298e-10	-1.235200e+01	-5.531416e+01
1.470000e-06	-1.731376e-06	-7.980658e-10	-1.204323e+01	-5.513155e+01
1.480000e-06	-1.686988e-06	-7.911614e-10	-1.173447e+01	-5.493783e+01
1.490000e-06	-1.642441e-06	-7.838838e-10	-1.142461e+01	-5.473287e+01
1.500000e-06	-1.597638e-06	-7.770858e-10	-1.111296e+01	-5.451656e+01
1.510000e-06	-1.552661e-06	-7.717455e-10	-1.080011e+01	-5.428879e+01
1.520000e-06	-1.507568e-06	-7.671580e-10	-1.048645e+01	-5.404946e+01
1.530000e-06	-1.462364e-06	-7.628333e-10	-1.017201e+01	-5.379845e+01
1.540000e-06	-1.417066e-06	-7.587332e-10	-9.856928e+00	-5.353563e+01
1.550000e-06	-1.371706e-06	-7.553969e-10	-9.541410e+00	-5.326080e+01
1.560000e-06	-1.326204e-06	-7.517081e-10	-9.224900e+00	-5.297376e+01
1.570000e-06	-1.280588e-06	-7.466339e-10	-8.907602e+00	-5.267421e+01
1.580000e-06	-1.234965e-06	-7.387817e-10	-8.590255e+00	-5.236183e+01
1.590000e-06	-1.189304e-06	-7.298127e-10	-8.272640e+00	-5.203619e+01
1.600000e-06	-1.143570e-06	-7.233069e-10	-7.954520e+00	-5.169680e+01
1.610000e-06	-1.097677e-06	-7.184080e-10	-7.635296e+00	-5.134308e+01
1.620000e-06	-1.051669e-06	-7.154272e-10	-7.315273e+00	-5.097438e+01
1.630000e-06	-1.005658e-06	-7.116768e-10	-6.995225e+00	-5.058995e+01
1.640000e-06	-9.596289e-07	-7.041861e-10	-6.675053e+00	-5.018895e+01
1.650000e-06	-9.135242e-07	-6.927532e-10	-6.354355e+00	-4.977047e+01
1.660000e-06	-8.672469e-07	-6.813094e-10	-6.032456e+00	-4.933350e+01
1.670000e-06	-8.209224e-07	-6.710815e-10	-5.710229e+00	-4.887699e+01
1.680000e-06	-7.746537e-07	-6.617221e-10	-5.388390e+00	-4.839980e+01
1.690000e-06	-7.283471e-07	-6.537667e-10	-5.066287e+00	-4.790076e+01
1.700000e-06	-6.819693e-07	-6.464212e-10	-4.743689e+00	-4.737863e+01
1.710000e-06	-6.354813e-07	-6.362914e-10	-4.420325e+00	-4.683216e+01
1.720000e-06	-5.889483e-07	-6.269262e-10	-4.096647e+00	-4.626009e+01
1.730000e-06	-5.424370e-07	-6.180236e-10	-3.773121e+00	-4.566115e+01
1.740000e-06	-4.959310e-07	-6.059068e-10	-3.449631e+00	-4.503408e+01
1.750000e-06	-4.493500e-07	-5.921907e-10	-3.125620e+00	-4.437766e+01
1.760000e-06	-4.026503e-07	-5.808505e-10	-2.800783e+00	-4.369071e+01
1.770000e-06	-3.559793e-07	-5.711140e-10	-2.476145e+00	-4.297212e+01
1.780000e-06	-3.093843e-07	-5.617615e-10	-2.152037e+00	-4.222083e+01
1.790000e-06	-2.627360e-07	-5.520204e-10	-1.827557e+00	-4.143590e+01
1.800000e-06	-2.159858e-07	-5.402635e-10	-1.502369e+00	-4.061646e+01
1.810000e-06	-1.691224e-07	-5.274513e-10	-1.176393e+00	-3.976179e+01
1.820000e-06	-1.222370e-07	-5.161885e-10	-8.502646e-01	-3.887125e+01
1.830000e-06	-7.535660e-08	-5.042993e-10	-5.241706e-01	-3.794436e+01
1.840000e-06	-2.853177e-08	-4.909481e-10	-1.984632e-01	-3.698076e+01
1.850000e-06	1.815112e-08	-4.778746e-10	1.262568e-01	-3.598025e+01
1.860000e-06	6.482780e-08	-4.660656e-10	4.509337e-01	-3.494276e+01
1.870000e-06	1.115990e-07	-4.526491e-10	7.762680e-01	-3.386839e+01
1.880000e-06	1.583801e-07	-4.355110e-10	1.101671e+00	-3.275736e+01
1.890000e-06	2.051916e-07	-4.164230e-10	1.427286e+00	-3.161007e+01
1.900000e-06	2.519489e-07	-3.947860e-10	1.752524e+00	-3.042702e+01
1.910000e-06	2.986541e-07	-3.780289e-10	2.077399e+00	-2.920890e+01
1.920000e-06	3.453791e-07	-3.618893e-10	2.402412e+00	-2.795650e+01
1.930000e-06	3.920618e-07	-3.471745e-10	2.727131e+00	-2.667075e+01
1.940000e-06	4.386739e-07	-3.317337e-10	3.051358e+00	-2.535272e+01
1.950000e-06	4.852268e-07	-3.143401e-10	3.375174e+00	-2.400355e+01
1.960000e-06	5.317973e-07	-2.940622e-10	3.699112e+00	-2.262454e+01
1.970000e-06	5.782892e-07	-2.735838e-10	4.022504e+00	-2.121704e+01
1.980000e-06	6.246443e-07	-2.562000e-10	4.344944e+00	-1.978252e+01
1.990000e-06	6.710054e-07	-2.401114e-10	4.667426e+00	-1.832252e+01
2.000000e-06	7.174351e-07	-2.229327e-10	4.990384e+00	-1.683865e+01
2.010000e-06	7.637355e-07	-2.019127e-10	5.312444e+00	-1.533258e+01
2.020000e-06	8.099050e-07	-1.798020e-10	5.633593e+00	-1.380605e+01
2.030000e-06	8.560486e-07	-1.573686e-10	5.954562e+00	-1.226084e+01
2.040000e-06	9.021279e-07	-1.355618e-10	6.275084e+00	-1.069878e+01
2.050000e-06	9.481100e-07	-1.149391e-10	6.594929e+00	-9.121717e+00
2.060000e-06	9.940353e-07	-9.563134e-11	6.914379e+00	-7.531553e+00
2.070000e-06	1.039976e-06	-7.597162e-11	7.233934e+00	-5.930204e+00
2.080000e-06	1.085943e-06	-5.411408e-11	7.553674e+00	-4.319609e+00
2.090000e-06	1.131838e-06	-2.999459e-11	7.872920e+00	-2.701725e+00
2.100000e-06	1.177572e-06	-7.862388e-12	8.191038e+00	-1.078521e+00
2.110000e-06	1.223172e-06	1.637434e-11	8.508223e+00	5.480215e-01
2.120000e-06	1.268719e-06	4.183134e-11	8.825045e+00	2.175919e+00
2.130000e-06	1.314156e-06	6.830434e-11	9.141099e+00	3.803183e+00
2.140000e-06	1.359547e-06	9.151329e-11	9.456831e+00	5.427828e+00
2.150000e-06	1.404922e-06	1.116082e-10	9.772450e+00	7.047873e+00
2.160000e-06	1.450156e-06	1.317012e-10	1.008710e+01	8.661348e+00
2.170000e-06	1.495277e-06	1.531673e-10	1.040095e+01	1.026630e+01
2.180000e-06	1.540344e-06	1.761570e-10	1.071443e+01	1.186078e+01
2.190000e-06	1.585277e-06	2.001550e-10	1.102698e+01	1.344290e+01
2.200000e-06	1.629949e-06	2.254121e-10	1.133771e+01	1.501076e+01
2.210000e-06	1.674415e-06	2.510559e-10	1.164701e+01	1.656254e+01
2.220000e-06	1.718789e-06	2.743406e-10	1.195567e+01	1.809643e+01
2.230000e-06	1.763111e-06	2.949462e-10	1.226397e+01	1.961070e+01
2.240000e-06	1.807242e-06	3.125479e-10	1.257094e+01	2.110367e+01
2.250000e-06	1.851196e-06	3.289788e-10	1.287667e+01	2.257373e+01
2.260000e-06	1.895087e-06	3.456890e-10	1.318198e+01	2.401935e+01
2.270000e-06	1.938932e-06	3.633782e-10	1.348696e+01	2.543909e+01
2.280000e-06	1.982725e-06	3.835358e-10	1.379158e+01	2.683160e+01
2.290000e-06	2.026447e-06	4.038576e-10	1.409570e+01	2.819565e+01
2.300000e-06	2.070113e-06	4.227337e-10	1.439943e+01	2.953009e+01
2.310000e-06	2.113729e-06	4.402414e-10	1.470282e+01	3.083392e+01
2.320000e-06	2.157306e-06	4.572080e-10	1.500594e+01	3.210623e+01
2.330000e-06	2.200824e-06	4.724752e-10	1.530864e+01	3.334628e+01
2.340000e-06	2.244208e-06	4.876954e-10	1.561041e+01	3.455342e+01
2.350000e-06	2.287444e-06	5.040161e-10	1.591116e+01	3.572717e+01
2.360000e-06	2.330487e-06	5.210222e-10	1.621056e+01	3.686715e+01
2.370000e-06	2.373224e-06	5.367538e-10	1.650784e+01	3.797315e+01
2.380000e-06	2.415658e-06	5.515057e-10	1.680300e+01	3.904508e+01
2.390000e-06	2.457825e-06	5.645946e-10	1.709631e+01	4.008296e+01
2.400000e-06	2.499621e-06	5.773857e-10	1.738704e+01	4.108695e+01
2.410000e-06	2.541011e-06	5.906582e-10	1.767494e+01	4.205735e+01
2.420000e-06	2.582128e-06	6.025588e-10	1.796095e+01	4.299453e+01
2.430000e-06	2.623028e-06	6.125421e-10	1.824544e+01	4.389899e+01
2.440000e-06	2.663631e-06	6.224574e-10	1.852787e+01	4.477130e+01
2.450000e-06	2.703934e-06	6.317083e-10	1.880821e+01	4.561212e+01
2.460000e-06	2.744065e-06	6.416763e-10	1.908736e+01	4.642218e+01
2.470000e-06	2.784075e-06	6.523339e-10	1.936566e+01	4.720225e+01
2.480000e-06	2.823945e-06	6.619255e-10	1.964299e+01	4.795315e+01
2.490000e-06	2.863677e-06	6.712672e-10	1.991936e+01	4.867572e+01
2.500000e-06	2.903325e-06	6.810086e-10	2.019515e+01	4.937082e+01
2.510000e-06	2.942885e-06	6.893003e-10	2.047032e+01	5.003932e+01
2.520000e-06	2.982316e-06	6.967457e-10	2.074460e+01	5.068206e+01
2.530000e-06	3.021549e-06	7.036947e-10	2.101750e+01	5.129988e+01
2.540000e-06	3.060555e-06	7.100507e-10	2.128882e+01	5.189357e+01
2.550000e-06	3.099312e-06	7.168271e-10	2.155841e+01	5.246389e+01
2.560000e-06	3.137766e-06	7.235408e-10	2.182589e+01	5.301155e+01
2.570000e-06	3.175963e-06	7.298673e-10	2.209159e+01	5.353723e+01
2.580000e-06	3.213971e-06	7.365990e-10	2.235596e+01	5.404151e+01
2.590000e-06	3.251839e-06	7.438756e-10	2.261936e+01	5.452496e+01
2.600000e-06	3.289545e-06	7.506839e-10	2.288164e+01	5.498806e+01
2.610000e-06	3.327053e-06	7.558655e-10	2.314254e+01	5.543125e+01
2.620000e-06	3.364341e-06	7.599170e-10	2.340192e+01	5.585490e+01
2.630000e-06	3.401335e-06	7.657659e-10	2.365924e+01	5.625936e+01
2.640000e-06	3.438004e-06	7.731240e-10	2.391431e+01	5.664491e+01
2.650000e-06	3.474449e-06	7.793015e-10	2.416781e+01	5.701181e+01
2.660000e-06	3.510643e-06	7.840459e-10	2.441957e+01	5.736029e+01
2.670000e-06	3.546592e-06	7.898142e-10	2.466963e+01	5.769057e+01
2.680000e-06	3.582412e-06	7.948757e-10	2.491879e+01	5.800286e+01
2.690000e-06	3.618137e-06	7.990459e-10	2.516729e+01	5.829735e+01
2.700000e-06	3.653764e-06	8.035755e-10	2.541510e+01	5.857429e+01
2.710000e-06	3.689297e-06	8.075679e-10	2.566226e+01	5.883390e+01
2.720000e-06	3.724625e-06	8.111527e-10	2.590800e+01	5.907646e+01
2.730000e-06	3.759617e-06	8.166452e-10	2.615140e+01	5.930230e+01
2.740000e-06	3.794160e-06	8.228068e-10	2.639168e+01	5.951177e+01
2.750000e-06	3.828223e-06	8.275780e-10	2.662862e+01	5.970530e+01
2.760000e-06	3.861735e-06	8.294627e-10	2.686172e+01	5.988335e+01
2.770000e-06	3.894661e-06	8.299130e-10	2.709075e+01	6.004645e+01
2.780000e-06	3.927172e-06	8.323252e-10	2.731690e+01	6.019522e+01
2.790000e-06	3.959437e-06	8.375280e-10	2.754132e+01	6.033030e+01
2.800000e-06	3.991538e-06	8.433236e-10	2.776462e+01	6.045242e+01
2.810000e-06	4.023478e-06	8.481832e-10	2.798679e+01	6.056236e+01
2.820000e-06	4.055261e-06	8.513990e-10	2.820786e+01	6.066093e+01
2.830000e-06	4.086879e-06	8.535490e-10	2.842779e+01	6.074901e+01
2.840000e-06	4.118296e-06	8.542027e-10	2.864633e+01	6.082749e+01
2.850000e-06	4.149404e-06	8.520615e-10	2.886271e+01	6.089733e+01
2.860000e-06	4.180190e-06	8.484393e-10	2.907685e+01	6.095944e+01
2.870000e-06	4.210643e-06	8.470318e-10	2.928868e+01	6.101480e+01
2.880000e-06	4.240752e-06	8.498348e-10	2.949812e+01	6.106432e+01
2.890000e-06	4.270551e-06	8.555086e-10	2.970540e+01	6.110893e+01
2.900000e-06	4.300064e-06	8.609199e-10	2.991068e+01	6.114952e+01
