# Temperatura_=_11.54
# Concentracion g/m^3_=_1620.0
# C_Vs_to_Am_M_A/Vsm_=_65563218390.804596
# pendiente_HvsI_1/m_=_3716.3
# ordenada_HvsI_A/m_=_1297.0
# frecuencia_Hz_=_135095.98711448172

Tiempo_(s)	Campo_(V.s)	Magnetizacion_(V.s)	Campo_(kA/m)	Magnetizacion_(A/m)
0.000000e+00	-5.528767e-06	-1.625934e-09	-3.838402e+01	-1.065237e+02
1.000000e-08	-5.528910e-06	-1.619560e-09	-3.838501e+01	-1.064637e+02
2.000000e-08	-5.528710e-06	-1.617611e-09	-3.838362e+01	-1.064081e+02
3.000000e-08	-5.528071e-06	-1.619172e-09	-3.837919e+01	-1.063576e+02
4.000000e-08	-5.526928e-06	-1.620627e-09	-3.837126e+01	-1.063124e+02
5.000000e-08	-5.525132e-06	-1.612798e-09	-3.835878e+01	-1.062727e+02
6.000000e-08	-5.522690e-06	-1.591295e-09	-3.834183e+01	-1.062386e+02
7.000000e-08	-5.519815e-06	-1.585927e-09	-3.832187e+01	-1.062100e+02
8.000000e-08	-5.516502e-06	-1.665247e-09	-3.829887e+01	-1.061867e+02
9.000000e-08	-5.512687e-06	-1.740198e-09	-3.827238e+01	-1.061684e+02
1.000000e-07	-5.508452e-06	-1.647302e-09	-3.824298e+01	-1.061544e+02
1.100000e-07	-5.504010e-06	-1.501928e-09	-3.821214e+01	-1.061443e+02
1.200000e-07	-5.499406e-06	-1.531185e-09	-3.818018e+01	-1.061372e+02
1.300000e-07	-5.494308e-06	-1.664599e-09	-3.814479e+01	-1.061322e+02
1.400000e-07	-5.488740e-06	-1.663436e-09	-3.810613e+01	-1.061284e+02
1.500000e-07	-5.482953e-06	-1.532233e-09	-3.806595e+01	-1.061247e+02
1.600000e-07	-5.476888e-06	-1.552691e-09	-3.802384e+01	-1.061200e+02
1.700000e-07	-5.470270e-06	-1.664328e-09	-3.797790e+01	-1.061131e+02
1.800000e-07	-5.463136e-06	-1.688616e-09	-3.792837e+01	-1.061029e+02
1.900000e-07	-5.455816e-06	-1.564517e-09	-3.787755e+01	-1.060881e+02
2.000000e-07	-5.448271e-06	-1.539530e-09	-3.782517e+01	-1.060677e+02
2.100000e-07	-5.440420e-06	-1.618979e-09	-3.777066e+01	-1.060405e+02
2.200000e-07	-5.432326e-06	-1.673431e-09	-3.771447e+01	-1.060055e+02
2.300000e-07	-5.423841e-06	-1.614585e-09	-3.765556e+01	-1.059616e+02
2.400000e-07	-5.414691e-06	-1.569477e-09	-3.759204e+01	-1.059081e+02
2.500000e-07	-5.404751e-06	-1.607114e-09	-3.752303e+01	-1.058442e+02
2.600000e-07	-5.394114e-06	-1.632824e-09	-3.744918e+01	-1.057693e+02
2.700000e-07	-5.383009e-06	-1.599046e-09	-3.737208e+01	-1.056829e+02
2.800000e-07	-5.371525e-06	-1.568314e-09	-3.729236e+01	-1.055848e+02
2.900000e-07	-5.359722e-06	-1.607035e-09	-3.721041e+01	-1.054746e+02
3.000000e-07	-5.347628e-06	-1.613962e-09	-3.712645e+01	-1.053526e+02
3.100000e-07	-5.335071e-06	-1.577812e-09	-3.703926e+01	-1.052187e+02
3.200000e-07	-5.321982e-06	-1.544825e-09	-3.694839e+01	-1.050734e+02
3.300000e-07	-5.308560e-06	-1.602946e-09	-3.685521e+01	-1.049170e+02
3.400000e-07	-5.294880e-06	-1.606769e-09	-3.676024e+01	-1.047501e+02
3.500000e-07	-5.280721e-06	-1.563809e-09	-3.666193e+01	-1.045735e+02
3.600000e-07	-5.265916e-06	-1.561859e-09	-3.655915e+01	-1.043880e+02
3.700000e-07	-5.250711e-06	-1.603714e-09	-3.645359e+01	-1.041943e+02
3.800000e-07	-5.235058e-06	-1.549365e-09	-3.634492e+01	-1.039935e+02
3.900000e-07	-5.218818e-06	-1.530197e-09	-3.623217e+01	-1.037866e+02
4.000000e-07	-5.202248e-06	-1.602086e-09	-3.611713e+01	-1.035745e+02
4.100000e-07	-5.185376e-06	-1.593485e-09	-3.600000e+01	-1.033584e+02
4.200000e-07	-5.168112e-06	-1.499512e-09	-3.588013e+01	-1.031392e+02
4.300000e-07	-5.150530e-06	-1.552978e-09	-3.575807e+01	-1.029179e+02
4.400000e-07	-5.132657e-06	-1.621098e-09	-3.563399e+01	-1.026953e+02
4.500000e-07	-5.114378e-06	-1.528828e-09	-3.550709e+01	-1.024724e+02
4.600000e-07	-5.095579e-06	-1.491866e-09	-3.537657e+01	-1.022498e+02
4.700000e-07	-5.076423e-06	-1.588713e-09	-3.524358e+01	-1.020282e+02
4.800000e-07	-5.057058e-06	-1.557695e-09	-3.510913e+01	-1.018082e+02
4.900000e-07	-5.037474e-06	-1.478830e-09	-3.497317e+01	-1.015900e+02
5.000000e-07	-5.017737e-06	-1.548986e-09	-3.483615e+01	-1.013741e+02
5.100000e-07	-4.997780e-06	-1.564473e-09	-3.469759e+01	-1.011604e+02
5.200000e-07	-4.977356e-06	-1.468906e-09	-3.455579e+01	-1.009492e+02
5.300000e-07	-4.956523e-06	-1.511773e-09	-3.441116e+01	-1.007401e+02
5.400000e-07	-4.935448e-06	-1.587284e-09	-3.426484e+01	-1.005330e+02
5.500000e-07	-4.914003e-06	-1.500322e-09	-3.411596e+01	-1.003276e+02
5.600000e-07	-4.892158e-06	-1.467832e-09	-3.396430e+01	-1.001234e+02
5.700000e-07	-4.869947e-06	-1.540922e-09	-3.381010e+01	-9.991983e+01
5.800000e-07	-4.847341e-06	-1.508065e-09	-3.365315e+01	-9.971633e+01
5.900000e-07	-4.824442e-06	-1.449179e-09	-3.349417e+01	-9.951224e+01
6.000000e-07	-4.801323e-06	-1.506666e-09	-3.333367e+01	-9.930687e+01
6.100000e-07	-4.777967e-06	-1.512513e-09	-3.317151e+01	-9.909949e+01
6.200000e-07	-4.754389e-06	-1.455515e-09	-3.300782e+01	-9.888941e+01
6.300000e-07	-4.730550e-06	-1.478240e-09	-3.284232e+01	-9.867592e+01
6.400000e-07	-4.706414e-06	-1.500822e-09	-3.267475e+01	-9.845835e+01
6.500000e-07	-4.681857e-06	-1.448111e-09	-3.250427e+01	-9.823610e+01
6.600000e-07	-4.656781e-06	-1.453892e-09	-3.233017e+01	-9.800861e+01
6.700000e-07	-4.631221e-06	-1.479833e-09	-3.215272e+01	-9.777540e+01
6.800000e-07	-4.605065e-06	-1.449680e-09	-3.197113e+01	-9.753608e+01
6.900000e-07	-4.578249e-06	-1.435435e-09	-3.178495e+01	-9.729036e+01
7.000000e-07	-4.551042e-06	-1.463535e-09	-3.159607e+01	-9.703802e+01
7.100000e-07	-4.523595e-06	-1.444839e-09	-3.140551e+01	-9.677898e+01
7.200000e-07	-4.495985e-06	-1.426509e-09	-3.121383e+01	-9.651323e+01
7.300000e-07	-4.468236e-06	-1.441830e-09	-3.102118e+01	-9.624086e+01
7.400000e-07	-4.440260e-06	-1.436441e-09	-3.082695e+01	-9.596208e+01
7.500000e-07	-4.412089e-06	-1.412900e-09	-3.063137e+01	-9.567717e+01
7.600000e-07	-4.383602e-06	-1.417815e-09	-3.043359e+01	-9.538647e+01
7.700000e-07	-4.354709e-06	-1.413864e-09	-3.023300e+01	-9.509043e+01
7.800000e-07	-4.325482e-06	-1.393339e-09	-3.003009e+01	-9.478951e+01
7.900000e-07	-4.296009e-06	-1.399057e-09	-2.982548e+01	-9.448425e+01
8.000000e-07	-4.266298e-06	-1.406409e-09	-2.961920e+01	-9.417517e+01
8.100000e-07	-4.236329e-06	-1.383555e-09	-2.941114e+01	-9.386285e+01
8.200000e-07	-4.206024e-06	-1.373968e-09	-2.920075e+01	-9.354783e+01
8.300000e-07	-4.175368e-06	-1.384168e-09	-2.898791e+01	-9.323066e+01
8.400000e-07	-4.144303e-06	-1.371938e-09	-2.877224e+01	-9.291184e+01
8.500000e-07	-4.112973e-06	-1.356074e-09	-2.855473e+01	-9.259182e+01
8.600000e-07	-4.081571e-06	-1.360830e-09	-2.833672e+01	-9.227100e+01
8.700000e-07	-4.049977e-06	-1.357886e-09	-2.811737e+01	-9.194974e+01
8.800000e-07	-4.018226e-06	-1.340820e-09	-2.789694e+01	-9.162827e+01
8.900000e-07	-3.986325e-06	-1.342101e-09	-2.767546e+01	-9.130679e+01
9.000000e-07	-3.954155e-06	-1.339793e-09	-2.745212e+01	-9.098539e+01
9.100000e-07	-3.921626e-06	-1.322389e-09	-2.722628e+01	-9.066407e+01
9.200000e-07	-3.888599e-06	-1.316288e-09	-2.699699e+01	-9.034277e+01
9.300000e-07	-3.855096e-06	-1.325872e-09	-2.676439e+01	-9.002131e+01
9.400000e-07	-3.821125e-06	-1.317052e-09	-2.652854e+01	-8.969946e+01
9.500000e-07	-3.786632e-06	-1.307611e-09	-2.628907e+01	-8.937690e+01
9.600000e-07	-3.751703e-06	-1.310924e-09	-2.604658e+01	-8.905326e+01
9.700000e-07	-3.716461e-06	-1.305324e-09	-2.580191e+01	-8.872812e+01
9.800000e-07	-3.681076e-06	-1.286536e-09	-2.555624e+01	-8.840099e+01
9.900000e-07	-3.645593e-06	-1.281929e-09	-2.530990e+01	-8.807138e+01
1.000000e-06	-3.609946e-06	-1.278598e-09	-2.506241e+01	-8.773876e+01
1.010000e-06	-3.574108e-06	-1.268448e-09	-2.481360e+01	-8.740262e+01
1.020000e-06	-3.538201e-06	-1.265438e-09	-2.456432e+01	-8.706243e+01
1.030000e-06	-3.502131e-06	-1.271899e-09	-2.431390e+01	-8.671770e+01
1.040000e-06	-3.465709e-06	-1.267106e-09	-2.406103e+01	-8.636797e+01
1.050000e-06	-3.428989e-06	-1.256890e-09	-2.380610e+01	-8.601280e+01
1.060000e-06	-3.391965e-06	-1.251548e-09	-2.354906e+01	-8.565184e+01
1.070000e-06	-3.354607e-06	-1.242518e-09	-2.328970e+01	-8.528476e+01
1.080000e-06	-3.317043e-06	-1.230285e-09	-2.302891e+01	-8.491133e+01
1.090000e-06	-3.279375e-06	-1.225949e-09	-2.276739e+01	-8.453135e+01
1.100000e-06	-3.241560e-06	-1.221630e-09	-2.250485e+01	-8.414472e+01
1.110000e-06	-3.203432e-06	-1.211393e-09	-2.224015e+01	-8.375141e+01
1.120000e-06	-3.165004e-06	-1.204711e-09	-2.197336e+01	-8.335144e+01
1.130000e-06	-3.126334e-06	-1.200082e-09	-2.170489e+01	-8.294491e+01
1.140000e-06	-3.087488e-06	-1.193946e-09	-2.143519e+01	-8.253196e+01
1.150000e-06	-3.048484e-06	-1.182813e-09	-2.116441e+01	-8.211280e+01
1.160000e-06	-3.009255e-06	-1.175064e-09	-2.089205e+01	-8.168768e+01
1.170000e-06	-2.969834e-06	-1.168347e-09	-2.061837e+01	-8.125686e+01
1.180000e-06	-2.930308e-06	-1.164116e-09	-2.034396e+01	-8.082064e+01
1.190000e-06	-2.890678e-06	-1.162444e-09	-2.006882e+01	-8.037932e+01
1.200000e-06	-2.850926e-06	-1.155382e-09	-1.979284e+01	-7.993321e+01
1.210000e-06	-2.811093e-06	-1.143298e-09	-1.951630e+01	-7.948256e+01
1.220000e-06	-2.771155e-06	-1.134428e-09	-1.923902e+01	-7.902765e+01
1.230000e-06	-2.731021e-06	-1.130014e-09	-1.896039e+01	-7.856867e+01
1.240000e-06	-2.690595e-06	-1.123721e-09	-1.867972e+01	-7.810579e+01
1.250000e-06	-2.649915e-06	-1.116916e-09	-1.839730e+01	-7.763910e+01
1.260000e-06	-2.608943e-06	-1.111206e-09	-1.811285e+01	-7.716865e+01
1.270000e-06	-2.567681e-06	-1.102082e-09	-1.782638e+01	-7.669437e+01
1.280000e-06	-2.526173e-06	-1.090849e-09	-1.753821e+01	-7.621616e+01
1.290000e-06	-2.484342e-06	-1.078691e-09	-1.724779e+01	-7.573382e+01
1.300000e-06	-2.442134e-06	-1.070334e-09	-1.695476e+01	-7.524704e+01
1.310000e-06	-2.399649e-06	-1.062958e-09	-1.665981e+01	-7.475548e+01
1.320000e-06	-2.356900e-06	-1.057990e-09	-1.636302e+01	-7.425869e+01
1.330000e-06	-2.313878e-06	-1.052768e-09	-1.606433e+01	-7.375615e+01
1.340000e-06	-2.270718e-06	-1.046158e-09	-1.576469e+01	-7.324729e+01
1.350000e-06	-2.227413e-06	-1.040646e-09	-1.546404e+01	-7.273146e+01
1.360000e-06	-2.183972e-06	-1.032095e-09	-1.516244e+01	-7.220797e+01
1.370000e-06	-2.140459e-06	-1.021019e-09	-1.486035e+01	-7.167611e+01
1.380000e-06	-2.096862e-06	-1.007548e-09	-1.455768e+01	-7.113512e+01
1.390000e-06	-2.053205e-06	-9.942456e-10	-1.425458e+01	-7.058424e+01
1.400000e-06	-2.009452e-06	-9.835803e-10	-1.395083e+01	-7.002268e+01
1.410000e-06	-1.965556e-06	-9.734134e-10	-1.364607e+01	-6.944969e+01
1.420000e-06	-1.921573e-06	-9.657106e-10	-1.334071e+01	-6.886452e+01
1.430000e-06	-1.877501e-06	-9.607120e-10	-1.303474e+01	-6.826646e+01
1.440000e-06	-1.833272e-06	-9.531143e-10	-1.272767e+01	-6.765481e+01
1.450000e-06	-1.788895e-06	-9.404798e-10	-1.241958e+01	-6.702895e+01
1.460000e-06	-1.744459e-06	-9.252299e-10	-1.211108e+01	-6.638828e+01
1.470000e-06	-1.699944e-06	-9.111277e-10	-1.180203e+01	-6.573227e+01
1.480000e-06	-1.655235e-06	-8.983887e-10	-1.149164e+01	-6.506044e+01
1.490000e-06	-1.610368e-06	-8.850900e-10	-1.118014e+01	-6.437238e+01
1.500000e-06	-1.565398e-06	-8.709161e-10	-1.086793e+01	-6.366771e+01
1.510000e-06	-1.520191e-06	-8.586020e-10	-1.055408e+01	-6.294612e+01
1.520000e-06	-1.474859e-06	-8.475934e-10	-1.023936e+01	-6.220735e+01
1.530000e-06	-1.429515e-06	-8.366323e-10	-9.924553e+00	-6.145115e+01
1.540000e-06	-1.384069e-06	-8.251002e-10	-9.609041e+00	-6.067735e+01
1.550000e-06	-1.338547e-06	-8.123132e-10	-9.292999e+00	-5.988574e+01
1.560000e-06	-1.292910e-06	-7.975933e-10	-8.976157e+00	-5.907617e+01
1.570000e-06	-1.247170e-06	-7.842076e-10	-8.658605e+00	-5.824846e+01
1.580000e-06	-1.201411e-06	-7.705315e-10	-8.340914e+00	-5.740242e+01
1.590000e-06	-1.155562e-06	-7.544850e-10	-8.022603e+00	-5.653783e+01
1.600000e-06	-1.109637e-06	-7.402504e-10	-7.703766e+00	-5.565445e+01
1.610000e-06	-1.063650e-06	-7.286893e-10	-7.384500e+00	-5.475196e+01
1.620000e-06	-1.017520e-06	-7.186671e-10	-7.064238e+00	-5.383000e+01
1.630000e-06	-9.713273e-07	-7.093936e-10	-6.743537e+00	-5.288813e+01
1.640000e-06	-9.251729e-07	-6.974633e-10	-6.423106e+00	-5.192583e+01
1.650000e-06	-8.790092e-07	-6.807808e-10	-6.102609e+00	-5.094251e+01
1.660000e-06	-8.326887e-07	-6.609851e-10	-5.781025e+00	-4.993747e+01
1.670000e-06	-7.862188e-07	-6.415294e-10	-5.458403e+00	-4.890995e+01
1.680000e-06	-7.397610e-07	-6.228824e-10	-5.135865e+00	-4.785907e+01
1.690000e-06	-6.932240e-07	-6.031980e-10	-4.812777e+00	-4.678388e+01
1.700000e-06	-6.466520e-07	-5.848197e-10	-4.489446e+00	-4.568335e+01
1.710000e-06	-6.001375e-07	-5.687418e-10	-4.166515e+00	-4.455639e+01
1.720000e-06	-5.535313e-07	-5.528648e-10	-3.842947e+00	-4.340183e+01
1.730000e-06	-5.068361e-07	-5.332728e-10	-3.518760e+00	-4.221847e+01
1.740000e-06	-4.600756e-07	-5.113848e-10	-3.194121e+00	-4.100506e+01
1.750000e-06	-4.132218e-07	-4.902864e-10	-2.868834e+00	-3.976036e+01
1.760000e-06	-3.663977e-07	-4.688714e-10	-2.543753e+00	-3.848312e+01
1.770000e-06	-3.196439e-07	-4.487045e-10	-2.219160e+00	-3.717211e+01
1.780000e-06	-2.727833e-07	-4.306626e-10	-1.893825e+00	-3.582616e+01
1.790000e-06	-2.258288e-07	-4.124063e-10	-1.567839e+00	-3.444416e+01
1.800000e-06	-1.788575e-07	-3.940217e-10	-1.241737e+00	-3.302508e+01
1.810000e-06	-1.318578e-07	-3.751373e-10	-9.154361e-01	-3.156801e+01
1.820000e-06	-8.490371e-08	-3.553142e-10	-5.894526e-01	-3.007218e+01
1.830000e-06	-3.794113e-08	-3.331882e-10	-2.634101e-01	-2.853695e+01
1.840000e-06	9.025908e-09	-3.096835e-10	6.266328e-02	-2.696186e+01
1.850000e-06	5.593279e-08	-2.872653e-10	3.883190e-01	-2.534664e+01
1.860000e-06	1.028074e-07	-2.645045e-10	7.137505e-01	-2.369123e+01
1.870000e-06	1.497153e-07	-2.410578e-10	1.039414e+00	-2.199575e+01
1.880000e-06	1.965964e-07	-2.165049e-10	1.364890e+00	-2.026058e+01
1.890000e-06	2.434528e-07	-1.901034e-10	1.690196e+00	-1.848632e+01
1.900000e-06	2.903553e-07	-1.620981e-10	2.015821e+00	-1.667379e+01
1.910000e-06	3.372221e-07	-1.339971e-10	2.341198e+00	-1.482407e+01
1.920000e-06	3.840390e-07	-1.066017e-10	2.666229e+00	-1.293846e+01
1.930000e-06	4.308002e-07	-8.134225e-11	2.990874e+00	-1.101849e+01
1.940000e-06	4.775308e-07	-5.576213e-11	3.315306e+00	-9.065934e+00
1.950000e-06	5.241735e-07	-2.929925e-11	3.639127e+00	-7.082757e+00
1.960000e-06	5.706596e-07	-3.557576e-12	3.961862e+00	-5.071137e+00
1.970000e-06	6.171140e-07	2.292549e-11	4.284376e+00	-3.033433e+00
1.980000e-06	6.636311e-07	5.037693e-11	4.607326e+00	-9.721767e-01
1.990000e-06	7.101405e-07	8.138292e-11	4.930222e+00	1.109953e+00
2.000000e-06	7.565315e-07	1.150053e-10	5.252296e+00	3.210145e+00
2.010000e-06	8.028421e-07	1.477299e-10	5.573812e+00	5.325484e+00
2.020000e-06	8.491327e-07	1.795325e-10	5.895189e+00	7.452966e+00
2.030000e-06	8.953960e-07	2.087078e-10	6.216377e+00	9.589528e+00
2.040000e-06	9.415917e-07	2.351735e-10	6.537095e+00	1.173207e+01
2.050000e-06	9.876708e-07	2.624947e-10	6.857003e+00	1.387747e+01
2.060000e-06	1.033724e-06	2.917544e-10	7.176735e+00	1.602261e+01
2.070000e-06	1.079702e-06	3.224080e-10	7.495943e+00	1.816443e+01
2.080000e-06	1.125577e-06	3.533360e-10	7.814429e+00	2.029988e+01
2.090000e-06	1.171413e-06	3.845130e-10	8.132651e+00	2.242602e+01
2.100000e-06	1.217170e-06	4.157652e-10	8.450323e+00	2.453996e+01
2.110000e-06	1.262806e-06	4.457831e-10	8.767160e+00	2.663896e+01
2.120000e-06	1.308354e-06	4.734412e-10	9.083376e+00	2.872035e+01
2.130000e-06	1.353870e-06	4.991035e-10	9.399381e+00	3.078165e+01
2.140000e-06	1.399315e-06	5.234112e-10	9.714884e+00	3.282047e+01
2.150000e-06	1.444669e-06	5.486958e-10	1.002976e+01	3.483462e+01
2.160000e-06	1.489936e-06	5.763327e-10	1.034403e+01	3.682205e+01
2.170000e-06	1.535031e-06	6.051803e-10	1.065711e+01	3.878087e+01
2.180000e-06	1.579975e-06	6.349255e-10	1.096913e+01	4.070938e+01
2.190000e-06	1.624804e-06	6.640747e-10	1.128036e+01	4.260604e+01
2.200000e-06	1.669463e-06	6.911214e-10	1.159042e+01	4.446948e+01
2.210000e-06	1.713964e-06	7.156247e-10	1.189937e+01	4.629851e+01
2.220000e-06	1.758315e-06	7.385477e-10	1.220728e+01	4.809210e+01
2.230000e-06	1.802560e-06	7.603644e-10	1.251446e+01	4.984938e+01
2.240000e-06	1.846662e-06	7.819468e-10	1.282063e+01	5.156965e+01
2.250000e-06	1.890622e-06	8.030201e-10	1.312583e+01	5.325235e+01
2.260000e-06	1.934510e-06	8.242858e-10	1.343053e+01	5.489707e+01
2.270000e-06	1.978319e-06	8.464551e-10	1.373468e+01	5.650353e+01
2.280000e-06	2.022054e-06	8.677713e-10	1.403831e+01	5.807159e+01
2.290000e-06	2.065733e-06	8.874934e-10	1.434156e+01	5.960121e+01
2.300000e-06	2.109358e-06	9.072055e-10	1.464443e+01	6.109248e+01
2.310000e-06	2.152938e-06	9.263228e-10	1.494699e+01	6.254558e+01
2.320000e-06	2.196480e-06	9.444317e-10	1.524928e+01	6.396080e+01
2.330000e-06	2.239872e-06	9.633461e-10	1.555054e+01	6.533849e+01
2.340000e-06	2.283092e-06	9.830801e-10	1.585060e+01	6.667908e+01
2.350000e-06	2.326069e-06	1.003687e-09	1.614897e+01	6.798309e+01
2.360000e-06	2.368888e-06	1.023408e-09	1.644625e+01	6.925108e+01
2.370000e-06	2.411548e-06	1.039938e-09	1.674242e+01	7.048366e+01
2.380000e-06	2.453855e-06	1.054138e-09	1.703614e+01	7.168148e+01
2.390000e-06	2.495840e-06	1.068387e-09	1.732762e+01	7.284525e+01
2.400000e-06	2.537561e-06	1.083895e-09	1.761728e+01	7.397567e+01
2.410000e-06	2.579015e-06	1.099792e-09	1.790507e+01	7.507351e+01
2.420000e-06	2.620144e-06	1.115003e-09	1.819061e+01	7.613950e+01
2.430000e-06	2.660961e-06	1.128837e-09	1.847399e+01	7.717443e+01
2.440000e-06	2.701532e-06	1.140524e-09	1.875566e+01	7.817906e+01
2.450000e-06	2.741847e-06	1.151731e-09	1.903555e+01	7.915417e+01
2.460000e-06	2.781979e-06	1.163851e-09	1.931417e+01	8.010053e+01
2.470000e-06	2.821955e-06	1.176074e-09	1.959171e+01	8.101890e+01
2.480000e-06	2.861731e-06	1.188070e-09	1.986785e+01	8.191000e+01
2.490000e-06	2.901409e-06	1.201001e-09	2.014332e+01	8.277459e+01
2.500000e-06	2.940966e-06	1.212865e-09	2.041796e+01	8.361334e+01
2.510000e-06	2.980284e-06	1.223868e-09	2.069092e+01	8.442696e+01
2.520000e-06	3.019429e-06	1.233636e-09	2.096269e+01	8.521609e+01
2.530000e-06	3.058428e-06	1.241913e-09	2.123345e+01	8.598137e+01
2.540000e-06	3.097270e-06	1.251617e-09	2.150311e+01	8.672339e+01
2.550000e-06	3.135867e-06	1.261576e-09	2.177107e+01	8.744273e+01
2.560000e-06	3.174242e-06	1.271311e-09	2.203749e+01	8.813994e+01
2.570000e-06	3.212432e-06	1.282031e-09	2.230263e+01	8.881554e+01
2.580000e-06	3.250341e-06	1.291332e-09	2.256582e+01	8.947001e+01
2.590000e-06	3.288056e-06	1.298471e-09	2.282766e+01	9.010383e+01
2.600000e-06	3.325614e-06	1.304872e-09	2.308841e+01	9.071745e+01
2.610000e-06	3.362993e-06	1.312509e-09	2.334792e+01	9.131130e+01
2.620000e-06	3.400082e-06	1.321443e-09	2.360541e+01	9.188578e+01
2.630000e-06	3.436796e-06	1.331518e-09	2.386030e+01	9.244132e+01
2.640000e-06	3.473263e-06	1.341836e-09	2.411348e+01	9.297831e+01
2.650000e-06	3.509534e-06	1.350877e-09	2.436529e+01	9.349714e+01
2.660000e-06	3.545598e-06	1.357242e-09	2.461567e+01	9.399821e+01
2.670000e-06	3.581524e-06	1.364934e-09	2.486509e+01	9.448192e+01
2.680000e-06	3.617322e-06	1.372657e-09	2.511362e+01	9.494871e+01
2.690000e-06	3.652962e-06	1.378350e-09	2.536105e+01	9.539898e+01
2.700000e-06	3.688391e-06	1.383157e-09	2.560703e+01	9.583321e+01
2.710000e-06	3.723579e-06	1.389301e-09	2.585132e+01	9.625185e+01
2.720000e-06	3.758572e-06	1.397507e-09	2.609426e+01	9.665541e+01
2.730000e-06	3.793243e-06	1.402738e-09	2.633497e+01	9.704441e+01
2.740000e-06	3.827413e-06	1.411657e-09	2.657220e+01	9.741941e+01
2.750000e-06	3.861128e-06	1.420306e-09	2.680627e+01	9.778098e+01
2.760000e-06	3.894466e-06	1.426531e-09	2.703772e+01	9.812973e+01
2.770000e-06	3.927412e-06	1.429247e-09	2.726645e+01	9.846631e+01
2.780000e-06	3.959929e-06	1.432700e-09	2.749221e+01	9.879136e+01
2.790000e-06	3.992044e-06	1.436949e-09	2.771517e+01	9.910558e+01
2.800000e-06	4.023946e-06	1.440784e-09	2.793665e+01	9.940965e+01
2.810000e-06	4.055768e-06	1.444481e-09	2.815758e+01	9.970427e+01
2.820000e-06	4.087390e-06	1.451351e-09	2.837712e+01	9.999018e+01
2.830000e-06	4.118798e-06	1.458882e-09	2.859517e+01	1.002681e+02
2.840000e-06	4.149948e-06	1.462425e-09	2.881143e+01	1.005386e+02
2.850000e-06	4.180796e-06	1.461906e-09	2.902560e+01	1.008025e+02
2.860000e-06	4.211317e-06	1.460474e-09	2.923749e+01	1.010605e+02
2.870000e-06	4.241496e-06	1.462886e-09	2.944701e+01	1.013130e+02
2.880000e-06	4.271440e-06	1.464958e-09	2.965490e+01	1.015608e+02
2.890000e-06	4.301108e-06	1.468731e-09	2.986087e+01	1.018044e+02
2.900000e-06	4.330477e-06	1.474625e-09	3.006477e+01	1.020441e+02
