# Temperatura_=_0.96
# Concentracion g/m^3_=_1620.0
# C_Vs_to_Am_M_A/Vsm_=_65563218390.804596
# pendiente_HvsI_1/m_=_3716.3
# ordenada_HvsI_A/m_=_1297.0
# frecuencia_Hz_=_135099.70839792356

Tiempo_(s)	Campo_(V.s)	Magnetizacion_(V.s)	Campo_(kA/m)	Magnetizacion_(A/m)
0.000000e+00	-5.543746e-06	-1.413151e-09	-3.836971e+01	-9.216592e+01
1.000000e-08	-5.543965e-06	-1.410485e-09	-3.837122e+01	-9.211444e+01
2.000000e-08	-5.543985e-06	-1.405829e-09	-3.837136e+01	-9.206557e+01
3.000000e-08	-5.543700e-06	-1.402135e-09	-3.836939e+01	-9.201960e+01
4.000000e-08	-5.542930e-06	-1.400298e-09	-3.836406e+01	-9.197676e+01
5.000000e-08	-5.541658e-06	-1.397418e-09	-3.835526e+01	-9.193719e+01
6.000000e-08	-5.539901e-06	-1.387906e-09	-3.834309e+01	-9.190100e+01
7.000000e-08	-5.537507e-06	-1.371869e-09	-3.832652e+01	-9.186819e+01
8.000000e-08	-5.534461e-06	-1.386632e-09	-3.830544e+01	-9.183870e+01
9.000000e-08	-5.530908e-06	-1.459142e-09	-3.828085e+01	-9.181241e+01
1.000000e-07	-5.526947e-06	-1.489925e-09	-3.825344e+01	-9.178909e+01
1.100000e-07	-5.522590e-06	-1.396383e-09	-3.822328e+01	-9.176844e+01
1.200000e-07	-5.518014e-06	-1.311175e-09	-3.819161e+01	-9.175009e+01
1.300000e-07	-5.513320e-06	-1.334971e-09	-3.815912e+01	-9.173360e+01
1.400000e-07	-5.508226e-06	-1.431245e-09	-3.812387e+01	-9.171846e+01
1.500000e-07	-5.502662e-06	-1.409209e-09	-3.808536e+01	-9.170409e+01
1.600000e-07	-5.496790e-06	-1.335915e-09	-3.804471e+01	-9.168986e+01
1.700000e-07	-5.490557e-06	-1.360697e-09	-3.800157e+01	-9.167511e+01
1.800000e-07	-5.483938e-06	-1.446063e-09	-3.795576e+01	-9.165912e+01
1.900000e-07	-5.476811e-06	-1.446777e-09	-3.790643e+01	-9.164117e+01
2.000000e-07	-5.469216e-06	-1.355544e-09	-3.785387e+01	-9.162050e+01
2.100000e-07	-5.461459e-06	-1.347230e-09	-3.780018e+01	-9.159638e+01
2.200000e-07	-5.453592e-06	-1.413655e-09	-3.774573e+01	-9.156805e+01
2.300000e-07	-5.445434e-06	-1.443693e-09	-3.768926e+01	-9.153482e+01
2.400000e-07	-5.436892e-06	-1.387597e-09	-3.763014e+01	-9.149598e+01
2.500000e-07	-5.427710e-06	-1.365734e-09	-3.756659e+01	-9.145092e+01
2.600000e-07	-5.417711e-06	-1.392062e-09	-3.749739e+01	-9.139904e+01
2.700000e-07	-5.407115e-06	-1.408656e-09	-3.742405e+01	-9.133983e+01
2.800000e-07	-5.396013e-06	-1.373413e-09	-3.734721e+01	-9.127285e+01
2.900000e-07	-5.384539e-06	-1.367878e-09	-3.726779e+01	-9.119776e+01
3.000000e-07	-5.372778e-06	-1.394604e-09	-3.718639e+01	-9.111427e+01
3.100000e-07	-5.360656e-06	-1.394230e-09	-3.710249e+01	-9.102223e+01
3.200000e-07	-5.348060e-06	-1.355372e-09	-3.701532e+01	-9.092156e+01
3.300000e-07	-5.334932e-06	-1.359130e-09	-3.692445e+01	-9.081229e+01
3.400000e-07	-5.321368e-06	-1.396386e-09	-3.683057e+01	-9.069454e+01
3.500000e-07	-5.307416e-06	-1.393188e-09	-3.673401e+01	-9.056855e+01
3.600000e-07	-5.292998e-06	-1.367794e-09	-3.663422e+01	-9.043464e+01
3.700000e-07	-5.278256e-06	-1.384126e-09	-3.653218e+01	-9.029323e+01
3.800000e-07	-5.263184e-06	-1.386028e-09	-3.642787e+01	-9.014482e+01
3.900000e-07	-5.247429e-06	-1.345568e-09	-3.631882e+01	-8.998999e+01
4.000000e-07	-5.231055e-06	-1.352118e-09	-3.620549e+01	-8.982938e+01
4.100000e-07	-5.214345e-06	-1.390014e-09	-3.608984e+01	-8.966369e+01
4.200000e-07	-5.197391e-06	-1.366985e-09	-3.597249e+01	-8.949367e+01
4.300000e-07	-5.180135e-06	-1.335881e-09	-3.585306e+01	-8.932010e+01
4.400000e-07	-5.162488e-06	-1.382537e-09	-3.573092e+01	-8.914377e+01
4.500000e-07	-5.144542e-06	-1.390148e-09	-3.560672e+01	-8.896551e+01
4.600000e-07	-5.126140e-06	-1.335140e-09	-3.547935e+01	-8.878610e+01
4.700000e-07	-5.107202e-06	-1.332850e-09	-3.534827e+01	-8.860633e+01
4.800000e-07	-5.087899e-06	-1.365406e-09	-3.521467e+01	-8.842694e+01
4.900000e-07	-5.068344e-06	-1.335512e-09	-3.507933e+01	-8.824864e+01
5.000000e-07	-5.048624e-06	-1.331758e-09	-3.494284e+01	-8.807208e+01
5.100000e-07	-5.028736e-06	-1.367557e-09	-3.480519e+01	-8.789783e+01
5.200000e-07	-5.008529e-06	-1.344176e-09	-3.466533e+01	-8.772641e+01
5.300000e-07	-4.987873e-06	-1.309739e-09	-3.452236e+01	-8.755823e+01
5.400000e-07	-4.966931e-06	-1.351046e-09	-3.437742e+01	-8.739362e+01
5.500000e-07	-4.945718e-06	-1.354155e-09	-3.423060e+01	-8.723284e+01
5.600000e-07	-4.924133e-06	-1.304536e-09	-3.408120e+01	-8.707601e+01
5.700000e-07	-4.902181e-06	-1.310963e-09	-3.392927e+01	-8.692319e+01
5.800000e-07	-4.879896e-06	-1.337865e-09	-3.377503e+01	-8.677432e+01
5.900000e-07	-4.857284e-06	-1.307436e-09	-3.361853e+01	-8.662925e+01
6.000000e-07	-4.834368e-06	-1.301933e-09	-3.345992e+01	-8.648774e+01
6.100000e-07	-4.811120e-06	-1.326220e-09	-3.329901e+01	-8.634947e+01
6.200000e-07	-4.787498e-06	-1.306796e-09	-3.313552e+01	-8.621404e+01
6.300000e-07	-4.763625e-06	-1.286333e-09	-3.297029e+01	-8.608096e+01
6.400000e-07	-4.739596e-06	-1.304275e-09	-3.280398e+01	-8.594971e+01
6.500000e-07	-4.715273e-06	-1.299137e-09	-3.263563e+01	-8.581970e+01
6.600000e-07	-4.690411e-06	-1.281645e-09	-3.246355e+01	-8.569030e+01
6.700000e-07	-4.665043e-06	-1.299811e-09	-3.228798e+01	-8.556086e+01
6.800000e-07	-4.639222e-06	-1.304863e-09	-3.210927e+01	-8.543071e+01
6.900000e-07	-4.612729e-06	-1.282958e-09	-3.192590e+01	-8.529917e+01
7.000000e-07	-4.585705e-06	-1.284809e-09	-3.173886e+01	-8.516556e+01
7.100000e-07	-4.558389e-06	-1.292224e-09	-3.154979e+01	-8.502925e+01
7.200000e-07	-4.530795e-06	-1.271807e-09	-3.135881e+01	-8.488961e+01
7.300000e-07	-4.503028e-06	-1.267594e-09	-3.116663e+01	-8.474605e+01
7.400000e-07	-4.475095e-06	-1.280889e-09	-3.097330e+01	-8.459804e+01
7.500000e-07	-4.446915e-06	-1.274815e-09	-3.077826e+01	-8.444509e+01
7.600000e-07	-4.418510e-06	-1.265634e-09	-3.058166e+01	-8.428678e+01
7.700000e-07	-4.389763e-06	-1.272387e-09	-3.038269e+01	-8.412277e+01
7.800000e-07	-4.360631e-06	-1.262365e-09	-3.018106e+01	-8.395276e+01
7.900000e-07	-4.331225e-06	-1.248069e-09	-2.997753e+01	-8.377655e+01
8.000000e-07	-4.301527e-06	-1.252077e-09	-2.977199e+01	-8.359400e+01
8.100000e-07	-4.271610e-06	-1.251460e-09	-2.956492e+01	-8.340505e+01
8.200000e-07	-4.241437e-06	-1.231418e-09	-2.935609e+01	-8.320970e+01
8.300000e-07	-4.210920e-06	-1.227755e-09	-2.914487e+01	-8.300804e+01
8.400000e-07	-4.180089e-06	-1.234002e-09	-2.893148e+01	-8.280021e+01
8.500000e-07	-4.148928e-06	-1.227723e-09	-2.871581e+01	-8.258640e+01
8.600000e-07	-4.117551e-06	-1.223087e-09	-2.849864e+01	-8.236686e+01
8.700000e-07	-4.086026e-06	-1.227905e-09	-2.828045e+01	-8.214190e+01
8.800000e-07	-4.054315e-06	-1.217825e-09	-2.806097e+01	-8.191184e+01
8.900000e-07	-4.022397e-06	-1.204483e-09	-2.784005e+01	-8.167704e+01
9.000000e-07	-3.990273e-06	-1.204898e-09	-2.761771e+01	-8.143790e+01
9.100000e-07	-3.957930e-06	-1.202166e-09	-2.739386e+01	-8.119479e+01
9.200000e-07	-3.925154e-06	-1.192982e-09	-2.716701e+01	-8.094813e+01
9.300000e-07	-3.891893e-06	-1.197419e-09	-2.693680e+01	-8.069830e+01
9.400000e-07	-3.858170e-06	-1.201795e-09	-2.670340e+01	-8.044568e+01
9.500000e-07	-3.824019e-06	-1.190332e-09	-2.646703e+01	-8.019064e+01
9.600000e-07	-3.789441e-06	-1.182336e-09	-2.622770e+01	-7.993350e+01
9.700000e-07	-3.754418e-06	-1.181363e-09	-2.598530e+01	-7.967458e+01
9.800000e-07	-3.719073e-06	-1.172094e-09	-2.574067e+01	-7.941414e+01
9.900000e-07	-3.683543e-06	-1.163302e-09	-2.549476e+01	-7.915240e+01
1.000000e-06	-3.647888e-06	-1.165836e-09	-2.524798e+01	-7.888955e+01
1.010000e-06	-3.612107e-06	-1.164176e-09	-2.500033e+01	-7.862573e+01
1.020000e-06	-3.576205e-06	-1.155562e-09	-2.475185e+01	-7.836104e+01
1.030000e-06	-3.540157e-06	-1.151402e-09	-2.450235e+01	-7.809551e+01
1.040000e-06	-3.503961e-06	-1.149781e-09	-2.425183e+01	-7.782917e+01
1.050000e-06	-3.467489e-06	-1.142113e-09	-2.399939e+01	-7.756196e+01
1.060000e-06	-3.430742e-06	-1.137794e-09	-2.374505e+01	-7.729382e+01
1.070000e-06	-3.393704e-06	-1.136381e-09	-2.348871e+01	-7.702462e+01
1.080000e-06	-3.356340e-06	-1.129891e-09	-2.323010e+01	-7.675423e+01
1.090000e-06	-3.318756e-06	-1.122443e-09	-2.296997e+01	-7.648246e+01
1.100000e-06	-3.280960e-06	-1.120717e-09	-2.270838e+01	-7.620912e+01
1.110000e-06	-3.242942e-06	-1.114933e-09	-2.244524e+01	-7.593400e+01
1.120000e-06	-3.204630e-06	-1.107507e-09	-2.218008e+01	-7.565685e+01
1.130000e-06	-3.166069e-06	-1.105730e-09	-2.191319e+01	-7.537743e+01
1.140000e-06	-3.127202e-06	-1.105197e-09	-2.164418e+01	-7.509551e+01
1.150000e-06	-3.088154e-06	-1.099423e-09	-2.137392e+01	-7.481081e+01
1.160000e-06	-3.049009e-06	-1.095152e-09	-2.110299e+01	-7.452311e+01
1.170000e-06	-3.009620e-06	-1.090697e-09	-2.083036e+01	-7.423215e+01
1.180000e-06	-2.970108e-06	-1.082314e-09	-2.055689e+01	-7.393770e+01
1.190000e-06	-2.930470e-06	-1.078227e-09	-2.028254e+01	-7.363953e+01
1.200000e-06	-2.890662e-06	-1.078354e-09	-2.000703e+01	-7.333743e+01
1.210000e-06	-2.850774e-06	-1.074936e-09	-1.973095e+01	-7.303118e+01
1.220000e-06	-2.810737e-06	-1.069286e-09	-1.945384e+01	-7.272060e+01
1.230000e-06	-2.770499e-06	-1.065213e-09	-1.917535e+01	-7.240551e+01
1.240000e-06	-2.730073e-06	-1.060731e-09	-1.889555e+01	-7.208572e+01
1.250000e-06	-2.689378e-06	-1.052572e-09	-1.861389e+01	-7.176107e+01
1.260000e-06	-2.648433e-06	-1.045562e-09	-1.833049e+01	-7.143140e+01
1.270000e-06	-2.607224e-06	-1.038935e-09	-1.804528e+01	-7.109657e+01
1.280000e-06	-2.565800e-06	-1.032807e-09	-1.775857e+01	-7.075640e+01
1.290000e-06	-2.524027e-06	-1.027134e-09	-1.746944e+01	-7.041074e+01
1.300000e-06	-2.481832e-06	-1.022928e-09	-1.717740e+01	-7.005943e+01
1.310000e-06	-2.439423e-06	-1.018154e-09	-1.688388e+01	-6.970231e+01
1.320000e-06	-2.396777e-06	-1.009792e-09	-1.658872e+01	-6.933917e+01
1.330000e-06	-2.353759e-06	-1.000416e-09	-1.629098e+01	-6.896984e+01
1.340000e-06	-2.310458e-06	-9.906347e-10	-1.599128e+01	-6.859410e+01
1.350000e-06	-2.267024e-06	-9.845704e-10	-1.569067e+01	-6.821171e+01
1.360000e-06	-2.223512e-06	-9.827457e-10	-1.538950e+01	-6.782242e+01
1.370000e-06	-2.179976e-06	-9.797162e-10	-1.508818e+01	-6.742596e+01
1.380000e-06	-2.136336e-06	-9.716838e-10	-1.478614e+01	-6.702204e+01
1.390000e-06	-2.092574e-06	-9.624869e-10	-1.448325e+01	-6.661033e+01
1.400000e-06	-2.048702e-06	-9.521740e-10	-1.417960e+01	-6.619048e+01
1.410000e-06	-2.004776e-06	-9.404997e-10	-1.387557e+01	-6.576213e+01
1.420000e-06	-1.960808e-06	-9.282312e-10	-1.357126e+01	-6.532488e+01
1.430000e-06	-1.916683e-06	-9.206229e-10	-1.326586e+01	-6.487832e+01
1.440000e-06	-1.872406e-06	-9.166830e-10	-1.295941e+01	-6.442200e+01
1.450000e-06	-1.828026e-06	-9.115127e-10	-1.265224e+01	-6.395548e+01
1.460000e-06	-1.783556e-06	-9.038814e-10	-1.234446e+01	-6.347828e+01
1.470000e-06	-1.739000e-06	-8.946683e-10	-1.203607e+01	-6.298989e+01
1.480000e-06	-1.694249e-06	-8.839271e-10	-1.172634e+01	-6.248982e+01
1.490000e-06	-1.649286e-06	-8.733454e-10	-1.141514e+01	-6.197753e+01
1.500000e-06	-1.604244e-06	-8.611743e-10	-1.110339e+01	-6.145250e+01
1.510000e-06	-1.559129e-06	-8.498733e-10	-1.079114e+01	-6.091418e+01
1.520000e-06	-1.513907e-06	-8.411310e-10	-1.047814e+01	-6.036201e+01
1.530000e-06	-1.468540e-06	-8.345123e-10	-1.016415e+01	-5.979543e+01
1.540000e-06	-1.423022e-06	-8.268983e-10	-9.849102e+00	-5.921386e+01
1.550000e-06	-1.377386e-06	-8.183232e-10	-9.533246e+00	-5.861671e+01
1.560000e-06	-1.331640e-06	-8.086810e-10	-9.216625e+00	-5.800340e+01
1.570000e-06	-1.285817e-06	-7.974332e-10	-8.899477e+00	-5.737333e+01
1.580000e-06	-1.239980e-06	-7.849343e-10	-8.582224e+00	-5.672588e+01
1.590000e-06	-1.194096e-06	-7.715976e-10	-8.264650e+00	-5.606043e+01
1.600000e-06	-1.148078e-06	-7.592388e-10	-7.946148e+00	-5.537635e+01
1.610000e-06	-1.101946e-06	-7.495939e-10	-7.626857e+00	-5.467299e+01
1.620000e-06	-1.055770e-06	-7.429613e-10	-7.307257e+00	-5.394967e+01
1.630000e-06	-1.009514e-06	-7.361602e-10	-6.987112e+00	-5.320573e+01
1.640000e-06	-9.632084e-07	-7.276305e-10	-6.666616e+00	-5.244045e+01
1.650000e-06	-9.168858e-07	-7.144449e-10	-6.346005e+00	-5.165312e+01
1.660000e-06	-8.704960e-07	-6.984412e-10	-6.024929e+00	-5.084301e+01
1.670000e-06	-8.240305e-07	-6.825918e-10	-5.703330e+00	-5.000934e+01
1.680000e-06	-7.775201e-07	-6.688392e-10	-5.381419e+00	-4.915133e+01
1.690000e-06	-7.309833e-07	-6.569294e-10	-5.059325e+00	-4.826819e+01
1.700000e-06	-6.844178e-07	-6.454329e-10	-4.737034e+00	-4.735910e+01
1.710000e-06	-6.377890e-07	-6.323669e-10	-4.414303e+00	-4.642322e+01
1.720000e-06	-5.910767e-07	-6.191220e-10	-4.090995e+00	-4.545970e+01
1.730000e-06	-5.443437e-07	-6.026018e-10	-3.767544e+00	-4.446769e+01
1.740000e-06	-4.976066e-07	-5.821687e-10	-3.444064e+00	-4.344632e+01
1.750000e-06	-4.507182e-07	-5.623186e-10	-3.119538e+00	-4.239475e+01
1.760000e-06	-4.036573e-07	-5.432730e-10	-2.793817e+00	-4.131212e+01
1.770000e-06	-3.565431e-07	-5.240883e-10	-2.467728e+00	-4.019760e+01
1.780000e-06	-3.094620e-07	-5.074841e-10	-2.141867e+00	-3.905040e+01
1.790000e-06	-2.624286e-07	-4.928343e-10	-1.816336e+00	-3.786974e+01
1.800000e-06	-2.153532e-07	-4.755486e-10	-1.490515e+00	-3.665492e+01
1.810000e-06	-1.682440e-07	-4.570994e-10	-1.164461e+00	-3.540525e+01
1.820000e-06	-1.211266e-07	-4.389098e-10	-8.383486e-01	-3.412016e+01
1.830000e-06	-7.400185e-08	-4.192964e-10	-5.121861e-01	-3.279912e+01
1.840000e-06	-2.691560e-08	-3.985997e-10	-1.862899e-01	-3.144172e+01
1.850000e-06	2.009738e-08	-3.783419e-10	1.390992e-01	-3.004763e+01
1.860000e-06	6.710998e-08	-3.598596e-10	4.644856e-01	-2.861666e+01
1.870000e-06	1.142107e-07	-3.396406e-10	7.904817e-01	-2.714871e+01
1.880000e-06	1.613886e-07	-3.174363e-10	1.117013e+00	-2.564385e+01
1.890000e-06	2.085748e-07	-2.954359e-10	1.443600e+00	-2.410229e+01
1.900000e-06	2.557240e-07	-2.725424e-10	1.769932e+00	-2.252436e+01
1.910000e-06	3.028555e-07	-2.472385e-10	2.096142e+00	-2.091060e+01
1.920000e-06	3.499723e-07	-2.214448e-10	2.422249e+00	-1.926168e+01
1.930000e-06	3.970154e-07	-1.959068e-10	2.747847e+00	-1.757844e+01
1.940000e-06	4.439816e-07	-1.713467e-10	3.072912e+00	-1.586193e+01
1.950000e-06	4.909125e-07	-1.490516e-10	3.397733e+00	-1.411332e+01
1.960000e-06	5.377715e-07	-1.271381e-10	3.722056e+00	-1.233401e+01
1.970000e-06	5.845697e-07	-1.054624e-10	4.045959e+00	-1.052553e+01
1.980000e-06	6.313406e-07	-8.300975e-11	4.369672e+00	-8.689585e+00
1.990000e-06	6.779659e-07	-5.735882e-11	4.692379e+00	-6.828055e+00
2.000000e-06	7.244892e-07	-2.736835e-11	5.014378e+00	-4.942958e+00
2.010000e-06	7.710168e-07	3.933998e-12	5.336408e+00	-3.036461e+00
2.020000e-06	8.174824e-07	3.424346e-11	5.658008e+00	-1.110860e+00
2.030000e-06	8.638907e-07	6.329961e-11	5.979212e+00	8.314318e-01
2.040000e-06	9.102833e-07	8.907667e-11	6.300307e+00	2.787894e+00
2.050000e-06	9.565499e-07	1.128549e-10	6.620530e+00	4.755919e+00
2.060000e-06	1.002724e-06	1.388305e-10	6.940112e+00	6.732827e+00
2.070000e-06	1.048870e-06	1.666667e-10	7.259501e+00	8.715882e+00
2.080000e-06	1.094930e-06	1.956282e-10	7.578298e+00	1.070231e+01
2.090000e-06	1.140953e-06	2.254618e-10	7.896830e+00	1.268932e+01
2.100000e-06	1.186880e-06	2.571730e-10	8.214708e+00	1.467412e+01
2.110000e-06	1.232736e-06	2.877778e-10	8.532083e+00	1.665393e+01
2.120000e-06	1.278544e-06	3.160203e-10	8.849132e+00	1.862601e+01
2.130000e-06	1.324279e-06	3.424897e-10	9.165680e+00	2.058766e+01
2.140000e-06	1.369963e-06	3.676692e-10	9.481870e+00	2.253628e+01
2.150000e-06	1.415555e-06	3.913064e-10	9.797422e+00	2.446932e+01
2.160000e-06	1.461068e-06	4.156021e-10	1.011243e+01	2.638435e+01
2.170000e-06	1.506471e-06	4.430799e-10	1.042668e+01	2.827904e+01
2.180000e-06	1.551712e-06	4.711181e-10	1.073981e+01	3.015119e+01
2.190000e-06	1.596790e-06	4.982788e-10	1.105180e+01	3.199874e+01
2.200000e-06	1.641753e-06	5.249095e-10	1.136300e+01	3.381977e+01
2.210000e-06	1.686622e-06	5.507073e-10	1.167355e+01	3.561250e+01
2.220000e-06	1.731358e-06	5.746266e-10	1.198318e+01	3.737532e+01
2.230000e-06	1.775918e-06	5.981889e-10	1.229159e+01	3.910678e+01
2.240000e-06	1.820334e-06	6.209113e-10	1.259900e+01	4.080559e+01
2.250000e-06	1.864646e-06	6.414634e-10	1.290570e+01	4.247061e+01
2.260000e-06	1.908804e-06	6.619542e-10	1.321133e+01	4.410089e+01
2.270000e-06	1.952819e-06	6.837707e-10	1.351597e+01	4.569562e+01
2.280000e-06	1.996770e-06	7.066437e-10	1.382017e+01	4.725414e+01
2.290000e-06	2.040636e-06	7.281626e-10	1.412378e+01	4.877595e+01
2.300000e-06	2.084399e-06	7.475796e-10	1.442667e+01	5.026069e+01
2.310000e-06	2.128133e-06	7.668680e-10	1.472936e+01	5.170815e+01
2.320000e-06	2.171855e-06	7.860118e-10	1.503197e+01	5.311823e+01
2.330000e-06	2.215547e-06	8.042458e-10	1.533438e+01	5.449096e+01
2.340000e-06	2.259181e-06	8.218429e-10	1.563638e+01	5.582648e+01
2.350000e-06	2.302710e-06	8.405587e-10	1.593766e+01	5.712502e+01
2.360000e-06	2.346113e-06	8.604077e-10	1.623806e+01	5.838691e+01
2.370000e-06	2.389240e-06	8.785915e-10	1.653655e+01	5.961256e+01
2.380000e-06	2.431976e-06	8.941614e-10	1.683234e+01	6.080245e+01
2.390000e-06	2.474436e-06	9.079424e-10	1.712622e+01	6.195712e+01
2.400000e-06	2.516580e-06	9.214612e-10	1.741790e+01	6.307716e+01
2.410000e-06	2.558358e-06	9.359852e-10	1.770706e+01	6.416321e+01
2.420000e-06	2.599884e-06	9.512853e-10	1.799447e+01	6.521594e+01
2.430000e-06	2.641076e-06	9.663521e-10	1.827958e+01	6.623605e+01
2.440000e-06	2.681868e-06	9.804516e-10	1.856191e+01	6.722425e+01
2.450000e-06	2.722333e-06	9.928406e-10	1.884198e+01	6.818127e+01
2.460000e-06	2.762628e-06	1.002569e-09	1.912087e+01	6.910786e+01
2.470000e-06	2.802862e-06	1.012874e-09	1.939934e+01	7.000476e+01
2.480000e-06	2.842923e-06	1.023433e-09	1.967661e+01	7.087270e+01
2.490000e-06	2.882792e-06	1.033359e-09	1.995256e+01	7.171243e+01
2.500000e-06	2.922557e-06	1.045722e-09	2.022778e+01	7.252467e+01
2.510000e-06	2.962218e-06	1.056853e-09	2.050228e+01	7.331015e+01
2.520000e-06	3.001741e-06	1.066473e-09	2.077583e+01	7.406957e+01
2.530000e-06	3.041136e-06	1.077645e-09	2.104849e+01	7.480364e+01
2.540000e-06	3.080345e-06	1.087563e-09	2.131987e+01	7.551303e+01
2.550000e-06	3.119235e-06	1.098101e-09	2.158904e+01	7.619844e+01
2.560000e-06	3.157868e-06	1.104379e-09	2.185642e+01	7.686051e+01
2.570000e-06	3.196281e-06	1.107086e-09	2.212229e+01	7.749990e+01
2.580000e-06	3.234427e-06	1.111726e-09	2.238631e+01	7.811726e+01
2.590000e-06	3.272377e-06	1.121884e-09	2.264897e+01	7.871321e+01
2.600000e-06	3.310157e-06	1.133743e-09	2.291046e+01	7.928837e+01
2.610000e-06	3.347762e-06	1.144320e-09	2.317073e+01	7.984337e+01
2.620000e-06	3.385111e-06	1.154747e-09	2.342924e+01	8.037880e+01
2.630000e-06	3.422162e-06	1.161947e-09	2.368567e+01	8.089527e+01
2.640000e-06	3.458912e-06	1.167569e-09	2.394003e+01	8.139338e+01
2.650000e-06	3.495381e-06	1.172127e-09	2.419244e+01	8.187372e+01
2.660000e-06	3.531599e-06	1.177255e-09	2.444312e+01	8.233686e+01
2.670000e-06	3.567639e-06	1.183450e-09	2.469256e+01	8.278340e+01
2.680000e-06	3.603595e-06	1.189876e-09	2.494142e+01	8.321390e+01
2.690000e-06	3.639438e-06	1.198536e-09	2.518950e+01	8.362893e+01
2.700000e-06	3.675163e-06	1.208035e-09	2.543676e+01	8.402905e+01
2.710000e-06	3.710702e-06	1.215822e-09	2.568273e+01	8.441483e+01
2.720000e-06	3.746035e-06	1.221736e-09	2.592728e+01	8.478680e+01
2.730000e-06	3.781192e-06	1.223609e-09	2.617061e+01	8.514550e+01
2.740000e-06	3.816013e-06	1.226514e-09	2.641162e+01	8.549146e+01
2.750000e-06	3.850304e-06	1.229834e-09	2.664895e+01	8.582519e+01
2.760000e-06	3.884050e-06	1.233643e-09	2.688252e+01	8.614719e+01
2.770000e-06	3.917360e-06	1.240095e-09	2.711307e+01	8.645794e+01
2.780000e-06	3.950157e-06	1.248068e-09	2.734007e+01	8.675791e+01
2.790000e-06	3.982522e-06	1.256232e-09	2.756407e+01	8.704755e+01
2.800000e-06	4.014684e-06	1.263568e-09	2.778667e+01	8.732729e+01
2.810000e-06	4.046701e-06	1.268836e-09	2.800827e+01	8.759754e+01
2.820000e-06	4.078573e-06	1.271291e-09	2.822887e+01	8.785867e+01
2.830000e-06	4.110244e-06	1.273412e-09	2.844807e+01	8.811106e+01
2.840000e-06	4.141676e-06	1.276208e-09	2.866561e+01	8.835505e+01
2.850000e-06	4.172896e-06	1.278688e-09	2.888170e+01	8.859094e+01
2.860000e-06	4.203804e-06	1.280951e-09	2.909562e+01	8.881904e+01
2.870000e-06	4.234339e-06	1.284271e-09	2.930696e+01	8.903961e+01
2.880000e-06	4.264504e-06	1.288866e-09	2.951574e+01	8.925288e+01
2.890000e-06	4.294389e-06	1.291616e-09	2.972258e+01	8.945909e+01
2.900000e-06	4.324074e-06	1.292261e-09	2.992804e+01	8.965842e+01
