# Temperatura_=_2.82
# Concentracion g/m^3_=_1620.0
# C_Vs_to_Am_M_A/Vsm_=_65563218390.804596
# pendiente_HvsI_1/m_=_3716.3
# ordenada_HvsI_A/m_=_1297.0
# frecuencia_Hz_=_135102.27208095443

Tiempo_(s)	Campo_(V.s)	Magnetizacion_(V.s)	Campo_(kA/m)	Magnetizacion_(A/m)
0.000000e+00	-5.533803e-06	-1.451723e-09	-3.838121e+01	-9.523851e+01
1.000000e-08	-5.534031e-06	-1.444955e-09	-3.838279e+01	-9.520326e+01
2.000000e-08	-5.534014e-06	-1.440864e-09	-3.838268e+01	-9.516961e+01
3.000000e-08	-5.533612e-06	-1.440918e-09	-3.837988e+01	-9.513769e+01
4.000000e-08	-5.532712e-06	-1.442463e-09	-3.837364e+01	-9.510757e+01
5.000000e-08	-5.531176e-06	-1.441901e-09	-3.836299e+01	-9.507927e+01
6.000000e-08	-5.528993e-06	-1.437924e-09	-3.834785e+01	-9.505274e+01
7.000000e-08	-5.526361e-06	-1.422090e-09	-3.832959e+01	-9.502787e+01
8.000000e-08	-5.523244e-06	-1.430622e-09	-3.830798e+01	-9.500447e+01
9.000000e-08	-5.519619e-06	-1.491220e-09	-3.828283e+01	-9.498232e+01
1.000000e-07	-5.515594e-06	-1.530748e-09	-3.825492e+01	-9.496109e+01
1.100000e-07	-5.511202e-06	-1.449486e-09	-3.822445e+01	-9.494042e+01
1.200000e-07	-5.506599e-06	-1.372428e-09	-3.819253e+01	-9.491989e+01
1.300000e-07	-5.501758e-06	-1.372145e-09	-3.815895e+01	-9.489903e+01
1.400000e-07	-5.496520e-06	-1.479174e-09	-3.812262e+01	-9.487732e+01
1.500000e-07	-5.490887e-06	-1.448727e-09	-3.808355e+01	-9.485421e+01
1.600000e-07	-5.484914e-06	-1.393501e-09	-3.804213e+01	-9.482911e+01
1.700000e-07	-5.478558e-06	-1.397495e-09	-3.799804e+01	-9.480143e+01
1.800000e-07	-5.471763e-06	-1.496895e-09	-3.795091e+01	-9.477056e+01
1.900000e-07	-5.464519e-06	-1.493520e-09	-3.790067e+01	-9.473590e+01
2.000000e-07	-5.456973e-06	-1.400218e-09	-3.784833e+01	-9.469685e+01
2.100000e-07	-5.449275e-06	-1.381376e-09	-3.779494e+01	-9.465284e+01
2.200000e-07	-5.441358e-06	-1.441991e-09	-3.774003e+01	-9.460333e+01
2.300000e-07	-5.433067e-06	-1.479616e-09	-3.768253e+01	-9.454782e+01
2.400000e-07	-5.424267e-06	-1.421968e-09	-3.762150e+01	-9.448587e+01
2.500000e-07	-5.414750e-06	-1.407153e-09	-3.755549e+01	-9.441709e+01
2.600000e-07	-5.404548e-06	-1.423776e-09	-3.748472e+01	-9.434114e+01
2.700000e-07	-5.393845e-06	-1.450678e-09	-3.741050e+01	-9.425777e+01
2.800000e-07	-5.382653e-06	-1.397343e-09	-3.733287e+01	-9.416680e+01
2.900000e-07	-5.371029e-06	-1.391732e-09	-3.725224e+01	-9.406812e+01
3.000000e-07	-5.359037e-06	-1.400918e-09	-3.716907e+01	-9.396171e+01
3.100000e-07	-5.346697e-06	-1.425874e-09	-3.708349e+01	-9.384762e+01
3.200000e-07	-5.333880e-06	-1.378570e-09	-3.699459e+01	-9.372599e+01
3.300000e-07	-5.320618e-06	-1.384983e-09	-3.690261e+01	-9.359703e+01
3.400000e-07	-5.307083e-06	-1.409501e-09	-3.680873e+01	-9.346102e+01
3.500000e-07	-5.293247e-06	-1.423772e-09	-3.671277e+01	-9.331832e+01
3.600000e-07	-5.278900e-06	-1.380366e-09	-3.661326e+01	-9.316935e+01
3.700000e-07	-5.264141e-06	-1.393195e-09	-3.651090e+01	-9.301456e+01
3.800000e-07	-5.248927e-06	-1.403651e-09	-3.640537e+01	-9.285449e+01
3.900000e-07	-5.233049e-06	-1.383295e-09	-3.629524e+01	-9.268970e+01
4.000000e-07	-5.216679e-06	-1.370526e-09	-3.618171e+01	-9.252077e+01
4.100000e-07	-5.199921e-06	-1.402849e-09	-3.606548e+01	-9.234831e+01
4.200000e-07	-5.182798e-06	-1.388885e-09	-3.594671e+01	-9.217295e+01
4.300000e-07	-5.165414e-06	-1.355770e-09	-3.582615e+01	-9.199532e+01
4.400000e-07	-5.147832e-06	-1.392461e-09	-3.570420e+01	-9.181603e+01
4.500000e-07	-5.129912e-06	-1.413566e-09	-3.557991e+01	-9.163569e+01
4.600000e-07	-5.111425e-06	-1.371860e-09	-3.545169e+01	-9.145488e+01
4.700000e-07	-5.092408e-06	-1.355658e-09	-3.531980e+01	-9.127414e+01
4.800000e-07	-5.073024e-06	-1.389868e-09	-3.518535e+01	-9.109398e+01
4.900000e-07	-5.053412e-06	-1.362089e-09	-3.504932e+01	-9.091486e+01
5.000000e-07	-5.033691e-06	-1.348435e-09	-3.491255e+01	-9.073718e+01
5.100000e-07	-5.013809e-06	-1.375345e-09	-3.477465e+01	-9.056130e+01
5.200000e-07	-4.993661e-06	-1.373338e-09	-3.463491e+01	-9.038752e+01
5.300000e-07	-4.973087e-06	-1.336816e-09	-3.449221e+01	-9.021606e+01
5.400000e-07	-4.952058e-06	-1.377219e-09	-3.434636e+01	-9.004709e+01
5.500000e-07	-4.930705e-06	-1.390200e-09	-3.419826e+01	-8.988071e+01
5.600000e-07	-4.908996e-06	-1.346910e-09	-3.404769e+01	-8.971697e+01
5.700000e-07	-4.886952e-06	-1.330349e-09	-3.389479e+01	-8.955584e+01
5.800000e-07	-4.864396e-06	-1.363106e-09	-3.373835e+01	-8.939725e+01
5.900000e-07	-4.841416e-06	-1.343014e-09	-3.357897e+01	-8.924106e+01
6.000000e-07	-4.818272e-06	-1.337322e-09	-3.341845e+01	-8.908707e+01
6.100000e-07	-4.794912e-06	-1.357448e-09	-3.325643e+01	-8.893507e+01
6.200000e-07	-4.771299e-06	-1.353455e-09	-3.309266e+01	-8.878476e+01
6.300000e-07	-4.747429e-06	-1.325433e-09	-3.292709e+01	-8.863585e+01
6.400000e-07	-4.723387e-06	-1.335349e-09	-3.276034e+01	-8.848798e+01
6.500000e-07	-4.699027e-06	-1.331297e-09	-3.259139e+01	-8.834079e+01
6.600000e-07	-4.674213e-06	-1.317338e-09	-3.241928e+01	-8.819389e+01
6.700000e-07	-4.648876e-06	-1.326526e-09	-3.224355e+01	-8.804688e+01
6.800000e-07	-4.622894e-06	-1.337673e-09	-3.206335e+01	-8.789935e+01
6.900000e-07	-4.596399e-06	-1.320667e-09	-3.187959e+01	-8.775088e+01
7.000000e-07	-4.569519e-06	-1.319869e-09	-3.169315e+01	-8.760108e+01
7.100000e-07	-4.542249e-06	-1.326099e-09	-3.150401e+01	-8.744954e+01
7.200000e-07	-4.514705e-06	-1.308844e-09	-3.131298e+01	-8.729586e+01
7.300000e-07	-4.486997e-06	-1.299703e-09	-3.112080e+01	-8.713968e+01
7.400000e-07	-4.459117e-06	-1.309230e-09	-3.092743e+01	-8.698064e+01
7.500000e-07	-4.431060e-06	-1.307466e-09	-3.073284e+01	-8.681840e+01
7.600000e-07	-4.402600e-06	-1.297297e-09	-3.053544e+01	-8.665266e+01
7.700000e-07	-4.373694e-06	-1.302878e-09	-3.033496e+01	-8.648313e+01
7.800000e-07	-4.344538e-06	-1.297053e-09	-3.013274e+01	-8.630955e+01
7.900000e-07	-4.315122e-06	-1.285261e-09	-2.992871e+01	-8.613169e+01
8.000000e-07	-4.285446e-06	-1.284325e-09	-2.972289e+01	-8.594935e+01
8.100000e-07	-4.255515e-06	-1.283805e-09	-2.951529e+01	-8.576236e+01
8.200000e-07	-4.225322e-06	-1.264087e-09	-2.930588e+01	-8.557055e+01
8.300000e-07	-4.194836e-06	-1.261471e-09	-2.909444e+01	-8.537383e+01
8.400000e-07	-4.163953e-06	-1.266478e-09	-2.888024e+01	-8.517208e+01
8.500000e-07	-4.132690e-06	-1.268217e-09	-2.866340e+01	-8.496525e+01
8.600000e-07	-4.101248e-06	-1.262218e-09	-2.844533e+01	-8.475329e+01
8.700000e-07	-4.069674e-06	-1.264417e-09	-2.822634e+01	-8.453616e+01
8.800000e-07	-4.037997e-06	-1.251434e-09	-2.800663e+01	-8.431388e+01
8.900000e-07	-4.006187e-06	-1.240183e-09	-2.778601e+01	-8.408645e+01
9.000000e-07	-3.974103e-06	-1.238383e-09	-2.756348e+01	-8.385391e+01
9.100000e-07	-3.941656e-06	-1.238327e-09	-2.733844e+01	-8.361630e+01
9.200000e-07	-3.908824e-06	-1.227708e-09	-2.711072e+01	-8.337370e+01
9.300000e-07	-3.875644e-06	-1.229393e-09	-2.688059e+01	-8.312617e+01
9.400000e-07	-3.841951e-06	-1.232604e-09	-2.664691e+01	-8.287381e+01
9.500000e-07	-3.807692e-06	-1.227620e-09	-2.640929e+01	-8.261670e+01
9.600000e-07	-3.772959e-06	-1.219159e-09	-2.616840e+01	-8.235495e+01
9.700000e-07	-3.737869e-06	-1.218594e-09	-2.592501e+01	-8.208867e+01
9.800000e-07	-3.702535e-06	-1.209995e-09	-2.567995e+01	-8.181798e+01
9.900000e-07	-3.666990e-06	-1.198024e-09	-2.543342e+01	-8.154298e+01
1.000000e-06	-3.631292e-06	-1.194551e-09	-2.518582e+01	-8.126380e+01
1.010000e-06	-3.595499e-06	-1.191538e-09	-2.493757e+01	-8.098056e+01
1.020000e-06	-3.559601e-06	-1.184590e-09	-2.468859e+01	-8.069337e+01
1.030000e-06	-3.523524e-06	-1.180844e-09	-2.443837e+01	-8.040234e+01
1.040000e-06	-3.487242e-06	-1.181361e-09	-2.418672e+01	-8.010759e+01
1.050000e-06	-3.450678e-06	-1.174077e-09	-2.393313e+01	-7.980921e+01
1.060000e-06	-3.413853e-06	-1.170124e-09	-2.367772e+01	-7.950731e+01
1.070000e-06	-3.376760e-06	-1.169820e-09	-2.342045e+01	-7.920196e+01
1.080000e-06	-3.339349e-06	-1.165724e-09	-2.316097e+01	-7.889325e+01
1.090000e-06	-3.301650e-06	-1.156532e-09	-2.289950e+01	-7.858124e+01
1.100000e-06	-3.263744e-06	-1.151569e-09	-2.263659e+01	-7.826598e+01
1.110000e-06	-3.225713e-06	-1.143574e-09	-2.237282e+01	-7.794750e+01
1.120000e-06	-3.187540e-06	-1.133302e-09	-2.210806e+01	-7.762584e+01
1.130000e-06	-3.149085e-06	-1.126008e-09	-2.184134e+01	-7.730098e+01
1.140000e-06	-3.110288e-06	-1.125628e-09	-2.157226e+01	-7.697294e+01
1.150000e-06	-3.071241e-06	-1.122637e-09	-2.130144e+01	-7.664166e+01
1.160000e-06	-3.032049e-06	-1.121093e-09	-2.102961e+01	-7.630712e+01
1.170000e-06	-2.992753e-06	-1.117455e-09	-2.075706e+01	-7.596924e+01
1.180000e-06	-2.953288e-06	-1.111858e-09	-2.048334e+01	-7.562795e+01
1.190000e-06	-2.913695e-06	-1.102025e-09	-2.020873e+01	-7.528313e+01
1.200000e-06	-2.873988e-06	-1.094562e-09	-1.993333e+01	-7.493469e+01
1.210000e-06	-2.834109e-06	-1.085473e-09	-1.965674e+01	-7.458248e+01
1.220000e-06	-2.794061e-06	-1.077683e-09	-1.937897e+01	-7.422636e+01
1.230000e-06	-2.753852e-06	-1.074556e-09	-1.910009e+01	-7.386617e+01
1.240000e-06	-2.713477e-06	-1.075864e-09	-1.882006e+01	-7.350173e+01
1.250000e-06	-2.672937e-06	-1.074162e-09	-1.853889e+01	-7.313286e+01
1.260000e-06	-2.632163e-06	-1.068893e-09	-1.825609e+01	-7.275936e+01
1.270000e-06	-2.591097e-06	-1.061128e-09	-1.797126e+01	-7.238103e+01
1.280000e-06	-2.549728e-06	-1.049735e-09	-1.768434e+01	-7.199766e+01
1.290000e-06	-2.508081e-06	-1.036613e-09	-1.739548e+01	-7.160904e+01
1.300000e-06	-2.466107e-06	-1.028138e-09	-1.710436e+01	-7.121495e+01
1.310000e-06	-2.423804e-06	-1.022602e-09	-1.681096e+01	-7.081517e+01
1.320000e-06	-2.381183e-06	-1.018550e-09	-1.651535e+01	-7.040948e+01
1.330000e-06	-2.338234e-06	-1.013893e-09	-1.621746e+01	-6.999766e+01
1.340000e-06	-2.295065e-06	-1.008437e-09	-1.591805e+01	-6.957949e+01
1.350000e-06	-2.251672e-06	-1.002252e-09	-1.561709e+01	-6.915475e+01
1.360000e-06	-2.208131e-06	-9.935607e-10	-1.531510e+01	-6.872322e+01
1.370000e-06	-2.164536e-06	-9.845962e-10	-1.501273e+01	-6.828467e+01
1.380000e-06	-2.120852e-06	-9.741835e-10	-1.470975e+01	-6.783890e+01
1.390000e-06	-2.077072e-06	-9.645709e-10	-1.440611e+01	-6.738566e+01
1.400000e-06	-2.033196e-06	-9.554598e-10	-1.410179e+01	-6.692474e+01
1.410000e-06	-1.989281e-06	-9.472765e-10	-1.379721e+01	-6.645589e+01
1.420000e-06	-1.945342e-06	-9.368698e-10	-1.349245e+01	-6.597885e+01
1.430000e-06	-1.901340e-06	-9.284261e-10	-1.318726e+01	-6.549338e+01
1.440000e-06	-1.857238e-06	-9.201307e-10	-1.288139e+01	-6.499919e+01
1.450000e-06	-1.812947e-06	-9.114032e-10	-1.257419e+01	-6.449597e+01
1.460000e-06	-1.768481e-06	-9.036991e-10	-1.226578e+01	-6.398341e+01
1.470000e-06	-1.723850e-06	-8.974158e-10	-1.195623e+01	-6.346114e+01
1.480000e-06	-1.679075e-06	-8.880757e-10	-1.164568e+01	-6.292878e+01
1.490000e-06	-1.634184e-06	-8.739704e-10	-1.133433e+01	-6.238590e+01
1.500000e-06	-1.589191e-06	-8.567233e-10	-1.102227e+01	-6.183204e+01
1.510000e-06	-1.544059e-06	-8.421910e-10	-1.070925e+01	-6.126669e+01
1.520000e-06	-1.498773e-06	-8.295121e-10	-1.039515e+01	-6.068929e+01
1.530000e-06	-1.453436e-06	-8.203976e-10	-1.008071e+01	-6.009923e+01
1.540000e-06	-1.407979e-06	-8.139298e-10	-9.765428e+00	-5.949585e+01
1.550000e-06	-1.362436e-06	-8.078655e-10	-9.449552e+00	-5.887844e+01
1.560000e-06	-1.316850e-06	-7.989532e-10	-9.133377e+00	-5.824623e+01
1.570000e-06	-1.271153e-06	-7.888047e-10	-8.816433e+00	-5.759839e+01
1.580000e-06	-1.225390e-06	-7.750711e-10	-8.499031e+00	-5.693406e+01
1.590000e-06	-1.179576e-06	-7.582388e-10	-8.181274e+00	-5.625231e+01
1.600000e-06	-1.133621e-06	-7.416360e-10	-7.862537e+00	-5.555214e+01
1.610000e-06	-1.087552e-06	-7.284074e-10	-7.543018e+00	-5.483255e+01
1.620000e-06	-1.041417e-06	-7.193473e-10	-7.223034e+00	-5.409246e+01
1.630000e-06	-9.952341e-07	-7.134170e-10	-6.902720e+00	-5.333078e+01
1.640000e-06	-9.490284e-07	-7.073175e-10	-6.582247e+00	-5.254637e+01
1.650000e-06	-9.027188e-07	-6.958122e-10	-6.261054e+00	-5.173807e+01
1.660000e-06	-8.563437e-07	-6.804518e-10	-5.939406e+00	-5.090472e+01
1.670000e-06	-8.099673e-07	-6.624594e-10	-5.617751e+00	-5.004514e+01
1.680000e-06	-7.635813e-07	-6.439021e-10	-5.296028e+00	-4.915815e+01
1.690000e-06	-7.171479e-07	-6.261319e-10	-4.973976e+00	-4.824259e+01
1.700000e-06	-6.706241e-07	-6.110886e-10	-4.651297e+00	-4.729732e+01
1.710000e-06	-6.240623e-07	-5.983275e-10	-4.328356e+00	-4.632122e+01
1.720000e-06	-5.774028e-07	-5.864727e-10	-4.004736e+00	-4.531321e+01
1.730000e-06	-5.306135e-07	-5.711796e-10	-3.680215e+00	-4.427229e+01
1.740000e-06	-4.837742e-07	-5.523970e-10	-3.355349e+00	-4.319749e+01
1.750000e-06	-4.368345e-07	-5.297798e-10	-3.029785e+00	-4.208793e+01
1.760000e-06	-3.898888e-07	-5.075278e-10	-2.704181e+00	-4.094280e+01
1.770000e-06	-3.430247e-07	-4.888376e-10	-2.379142e+00	-3.976137e+01
1.780000e-06	-2.960687e-07	-4.734305e-10	-2.053466e+00	-3.854305e+01
1.790000e-06	-2.489847e-07	-4.587770e-10	-1.726901e+00	-3.728730e+01
1.800000e-06	-2.019650e-07	-4.443537e-10	-1.400783e+00	-3.599374e+01
1.810000e-06	-1.550586e-07	-4.275264e-10	-1.075451e+00	-3.466207e+01
1.820000e-06	-1.081057e-07	-4.063712e-10	-7.497967e-01	-3.329216e+01
1.830000e-06	-6.102701e-08	-3.839648e-10	-4.232696e-01	-3.188398e+01
1.840000e-06	-1.394116e-08	-3.640127e-10	-9.669271e-02	-3.043763e+01
1.850000e-06	3.309288e-08	-3.466415e-10	2.295248e-01	-2.895335e+01
1.860000e-06	8.002755e-08	-3.300136e-10	5.550530e-01	-2.743155e+01
1.870000e-06	1.268905e-07	-3.099663e-10	8.800839e-01	-2.587272e+01
1.880000e-06	1.738285e-07	-2.871482e-10	1.205635e+00	-2.427755e+01
1.890000e-06	2.208724e-07	-2.628690e-10	1.531921e+00	-2.264681e+01
1.900000e-06	2.679339e-07	-2.375163e-10	1.858329e+00	-2.098147e+01
1.910000e-06	3.149172e-07	-2.116844e-10	2.184195e+00	-1.928257e+01
1.920000e-06	3.618349e-07	-1.856556e-10	2.509605e+00	-1.755132e+01
1.930000e-06	4.086207e-07	-1.604023e-10	2.834101e+00	-1.578904e+01
1.940000e-06	4.554300e-07	-1.351157e-10	3.158760e+00	-1.399718e+01
1.950000e-06	5.022730e-07	-1.111191e-10	3.483652e+00	-1.217731e+01
1.960000e-06	5.489100e-07	-8.832087e-11	3.807116e+00	-1.033110e+01
1.970000e-06	5.953983e-07	-6.585468e-11	4.129548e+00	-8.460314e+00
1.980000e-06	6.418361e-07	-4.150736e-11	4.451631e+00	-6.566838e+00
1.990000e-06	6.883676e-07	-1.327758e-11	4.774363e+00	-4.652633e+00
2.000000e-06	7.349710e-07	1.971581e-11	5.097593e+00	-2.719743e+00
2.010000e-06	7.813681e-07	5.165931e-11	5.419393e+00	-7.702894e-01
2.020000e-06	8.276054e-07	7.931554e-11	5.740084e+00	1.193541e+00
2.030000e-06	8.739218e-07	1.052587e-10	6.061324e+00	3.169505e+00
2.040000e-06	9.202606e-07	1.303060e-10	6.382720e+00	5.155308e+00
2.050000e-06	9.664793e-07	1.547147e-10	6.703282e+00	7.148616e+00
2.060000e-06	1.012655e-06	1.798974e-10	7.023550e+00	9.147062e+00
2.070000e-06	1.058783e-06	2.074135e-10	7.343478e+00	1.114826e+01
2.080000e-06	1.104759e-06	2.372277e-10	7.662358e+00	1.314980e+01
2.090000e-06	1.150647e-06	2.677660e-10	7.980631e+00	1.514929e+01
2.100000e-06	1.196427e-06	2.991027e-10	8.298146e+00	1.714432e+01
2.110000e-06	1.242100e-06	3.300300e-10	8.614924e+00	1.913250e+01
2.120000e-06	1.287761e-06	3.576637e-10	8.931621e+00	2.111147e+01
2.130000e-06	1.333329e-06	3.840144e-10	9.247666e+00	2.307892e+01
2.140000e-06	1.378718e-06	4.078977e-10	9.562477e+00	2.503254e+01
2.150000e-06	1.424010e-06	4.315172e-10	9.876611e+00	2.697011e+01
2.160000e-06	1.469307e-06	4.588776e-10	1.019078e+01	2.888947e+01
2.170000e-06	1.514510e-06	4.866554e-10	1.050430e+01	3.078851e+01
2.180000e-06	1.559555e-06	5.138335e-10	1.081672e+01	3.266522e+01
2.190000e-06	1.604439e-06	5.404832e-10	1.112803e+01	3.451766e+01
2.200000e-06	1.649215e-06	5.673827e-10	1.143859e+01	3.634401e+01
2.210000e-06	1.693951e-06	5.921837e-10	1.174887e+01	3.814255e+01
2.220000e-06	1.738586e-06	6.152204e-10	1.205844e+01	3.991165e+01
2.230000e-06	1.782993e-06	6.377308e-10	1.236644e+01	4.164983e+01
2.240000e-06	1.827191e-06	6.599347e-10	1.267299e+01	4.335571e+01
2.250000e-06	1.871289e-06	6.795046e-10	1.297884e+01	4.502806e+01
2.260000e-06	1.915284e-06	7.007976e-10	1.328398e+01	4.666577e+01
2.270000e-06	1.959255e-06	7.224100e-10	1.358895e+01	4.826788e+01
2.280000e-06	2.003203e-06	7.427008e-10	1.389377e+01	4.983356e+01
2.290000e-06	2.047034e-06	7.627022e-10	1.419777e+01	5.136214e+01
2.300000e-06	2.090796e-06	7.840293e-10	1.450129e+01	5.285307e+01
2.310000e-06	2.134548e-06	8.062179e-10	1.480474e+01	5.430595e+01
2.320000e-06	2.178227e-06	8.274756e-10	1.510769e+01	5.572052e+01
2.330000e-06	2.221798e-06	8.491748e-10	1.540989e+01	5.709667e+01
2.340000e-06	2.265245e-06	8.674563e-10	1.571123e+01	5.843440e+01
2.350000e-06	2.308504e-06	8.828762e-10	1.601126e+01	5.973384e+01
2.360000e-06	2.351549e-06	8.977022e-10	1.630981e+01	6.099526e+01
2.370000e-06	2.394360e-06	9.119376e-10	1.660674e+01	6.221903e+01
2.380000e-06	2.436826e-06	9.251576e-10	1.690128e+01	6.340561e+01
2.390000e-06	2.479018e-06	9.405631e-10	1.719391e+01	6.455557e+01
2.400000e-06	2.520996e-06	9.584416e-10	1.748506e+01	6.566958e+01
2.410000e-06	2.562561e-06	9.760032e-10	1.777334e+01	6.674835e+01
2.420000e-06	2.603718e-06	9.893812e-10	1.805880e+01	6.779267e+01
2.430000e-06	2.644668e-06	9.988049e-10	1.834282e+01	6.880341e+01
2.440000e-06	2.685315e-06	1.006493e-09	1.862474e+01	6.978143e+01
2.450000e-06	2.725626e-06	1.016356e-09	1.890433e+01	7.072766e+01
2.460000e-06	2.765786e-06	1.026692e-09	1.918287e+01	7.164303e+01
2.470000e-06	2.805823e-06	1.038016e-09	1.946056e+01	7.252849e+01
2.480000e-06	2.845709e-06	1.049198e-09	1.973720e+01	7.338498e+01
2.490000e-06	2.885498e-06	1.061370e-09	2.001316e+01	7.421343e+01
2.500000e-06	2.925212e-06	1.073989e-09	2.028861e+01	7.501477e+01
2.510000e-06	2.964800e-06	1.084637e-09	2.056318e+01	7.578989e+01
2.520000e-06	3.004213e-06	1.093510e-09	2.083654e+01	7.653963e+01
2.530000e-06	3.043443e-06	1.100849e-09	2.110863e+01	7.726482e+01
2.540000e-06	3.082431e-06	1.109403e-09	2.137904e+01	7.796624e+01
2.550000e-06	3.121268e-06	1.117716e-09	2.164841e+01	7.864462e+01
2.560000e-06	3.159880e-06	1.126197e-09	2.191621e+01	7.930066e+01
2.570000e-06	3.198148e-06	1.135824e-09	2.218163e+01	7.993499e+01
2.580000e-06	3.236223e-06	1.144498e-09	2.244571e+01	8.054821e+01
2.590000e-06	3.274130e-06	1.152161e-09	2.270863e+01	8.114088e+01
2.600000e-06	3.311848e-06	1.159738e-09	2.297023e+01	8.171351e+01
2.610000e-06	3.349335e-06	1.168445e-09	2.323023e+01	8.226658e+01
2.620000e-06	3.386554e-06	1.177870e-09	2.348837e+01	8.280055e+01
2.630000e-06	3.423525e-06	1.185369e-09	2.374480e+01	8.331583e+01
2.640000e-06	3.460241e-06	1.191903e-09	2.399945e+01	8.381282e+01
2.650000e-06	3.496660e-06	1.198552e-09	2.425205e+01	8.429193e+01
2.660000e-06	3.532834e-06	1.204271e-09	2.450294e+01	8.475353e+01
2.670000e-06	3.568865e-06	1.208252e-09	2.475284e+01	8.519801e+01
2.680000e-06	3.604801e-06	1.212336e-09	2.500209e+01	8.562576e+01
2.690000e-06	3.640608e-06	1.219134e-09	2.525044e+01	8.603719e+01
2.700000e-06	3.676272e-06	1.227014e-09	2.549779e+01	8.643271e+01
2.710000e-06	3.711799e-06	1.234819e-09	2.574420e+01	8.681277e+01
2.720000e-06	3.747079e-06	1.243960e-09	2.598889e+01	8.717784e+01
2.730000e-06	3.781980e-06	1.253776e-09	2.623096e+01	8.752842e+01
2.740000e-06	3.816429e-06	1.260031e-09	2.646989e+01	8.786503e+01
2.750000e-06	3.850497e-06	1.261085e-09	2.670618e+01	8.818825e+01
2.760000e-06	3.884109e-06	1.260837e-09	2.693931e+01	8.849865e+01
2.770000e-06	3.917203e-06	1.261563e-09	2.716884e+01	8.879687e+01
2.780000e-06	3.949826e-06	1.269142e-09	2.739510e+01	8.908355e+01
2.790000e-06	3.982089e-06	1.281194e-09	2.761887e+01	8.935937e+01
2.800000e-06	4.014167e-06	1.293139e-09	2.784136e+01	8.962501e+01
2.810000e-06	4.046029e-06	1.299792e-09	2.806234e+01	8.988119e+01
2.820000e-06	4.077768e-06	1.301961e-09	2.828248e+01	9.012860e+01
2.830000e-06	4.109432e-06	1.301834e-09	2.850210e+01	9.036797e+01
2.840000e-06	4.140820e-06	1.301813e-09	2.871980e+01	9.059999e+01
2.850000e-06	4.171889e-06	1.302748e-09	2.893528e+01	9.082534e+01
2.860000e-06	4.202639e-06	1.305465e-09	2.914856e+01	9.104470e+01
2.870000e-06	4.233053e-06	1.311043e-09	2.935950e+01	9.125867e+01
2.880000e-06	4.263163e-06	1.316798e-09	2.956834e+01	9.146786e+01
2.890000e-06	4.292996e-06	1.320858e-09	2.977525e+01	9.167279e+01
2.900000e-06	4.322594e-06	1.321350e-09	2.998053e+01	9.187395e+01
