# Temperatura_=_-32.54
# Concentracion g/m^3_=_1620.0
# C_Vs_to_Am_M_A/Vsm_=_65563218390.804596
# pendiente_HvsI_1/m_=_3716.3
# ordenada_HvsI_A/m_=_1297.0
# frecuencia_Hz_=_135107.57087276503

Tiempo_(s)	Campo_(V.s)	Magnetizacion_(V.s)	Campo_(kA/m)	Magnetizacion_(A/m)
0.000000e+00	-5.516717e-06	-9.312167e-10	-3.835934e+01	-6.035628e+01
1.000000e-08	-5.517036e-06	-9.300199e-10	-3.836156e+01	-6.034030e+01
2.000000e-08	-5.517051e-06	-9.327755e-10	-3.836166e+01	-6.032913e+01
3.000000e-08	-5.516730e-06	-9.362047e-10	-3.835943e+01	-6.032288e+01
4.000000e-08	-5.515944e-06	-9.418930e-10	-3.835396e+01	-6.032158e+01
5.000000e-08	-5.514527e-06	-9.419757e-10	-3.834411e+01	-6.032511e+01
6.000000e-08	-5.512487e-06	-9.285666e-10	-3.832992e+01	-6.033328e+01
7.000000e-08	-5.509868e-06	-9.073702e-10	-3.831171e+01	-6.034575e+01
8.000000e-08	-5.506667e-06	-8.973381e-10	-3.828946e+01	-6.036209e+01
9.000000e-08	-5.503013e-06	-9.588266e-10	-3.826405e+01	-6.038179e+01
1.000000e-07	-5.499050e-06	-1.058830e-09	-3.823649e+01	-6.040419e+01
1.100000e-07	-5.494712e-06	-1.008918e-09	-3.820633e+01	-6.042861e+01
1.200000e-07	-5.490174e-06	-8.096371e-10	-3.817478e+01	-6.045425e+01
1.300000e-07	-5.485542e-06	-8.214814e-10	-3.814257e+01	-6.048028e+01
1.400000e-07	-5.480484e-06	-9.782852e-10	-3.810740e+01	-6.050582e+01
1.500000e-07	-5.474883e-06	-1.039467e-09	-3.806846e+01	-6.052999e+01
1.600000e-07	-5.468922e-06	-8.579513e-10	-3.802700e+01	-6.055187e+01
1.700000e-07	-5.462707e-06	-8.327496e-10	-3.798379e+01	-6.057057e+01
1.800000e-07	-5.455947e-06	-1.010046e-09	-3.793679e+01	-6.058524e+01
1.900000e-07	-5.448677e-06	-1.052561e-09	-3.788624e+01	-6.059507e+01
2.000000e-07	-5.441161e-06	-8.916022e-10	-3.783398e+01	-6.059931e+01
2.100000e-07	-5.433361e-06	-8.059563e-10	-3.777974e+01	-6.059730e+01
2.200000e-07	-5.425279e-06	-9.279517e-10	-3.772355e+01	-6.058849e+01
2.300000e-07	-5.416929e-06	-9.941544e-10	-3.766548e+01	-6.057241e+01
2.400000e-07	-5.408249e-06	-9.390159e-10	-3.760513e+01	-6.054875e+01
2.500000e-07	-5.398992e-06	-8.754029e-10	-3.754076e+01	-6.051728e+01
2.600000e-07	-5.388963e-06	-9.318277e-10	-3.747103e+01	-6.047795e+01
2.700000e-07	-5.378303e-06	-9.375294e-10	-3.739690e+01	-6.043083e+01
2.800000e-07	-5.367147e-06	-8.990063e-10	-3.731934e+01	-6.037613e+01
2.900000e-07	-5.355531e-06	-8.632423e-10	-3.723857e+01	-6.031419e+01
3.000000e-07	-5.343552e-06	-9.175421e-10	-3.715528e+01	-6.024550e+01
3.100000e-07	-5.331277e-06	-9.319279e-10	-3.706992e+01	-6.017067e+01
3.200000e-07	-5.318636e-06	-9.069539e-10	-3.698203e+01	-6.009041e+01
3.300000e-07	-5.305451e-06	-8.686999e-10	-3.689035e+01	-6.000555e+01
3.400000e-07	-5.291894e-06	-9.145552e-10	-3.679608e+01	-5.991701e+01
3.500000e-07	-5.278050e-06	-9.403401e-10	-3.669981e+01	-5.982577e+01
3.600000e-07	-5.263667e-06	-8.951773e-10	-3.659981e+01	-5.973287e+01
3.700000e-07	-5.248655e-06	-8.692874e-10	-3.649542e+01	-5.963941e+01
3.800000e-07	-5.233162e-06	-9.341234e-10	-3.638770e+01	-5.954647e+01
3.900000e-07	-5.217137e-06	-9.179066e-10	-3.627627e+01	-5.945517e+01
4.000000e-07	-5.200563e-06	-8.469989e-10	-3.616103e+01	-5.936658e+01
4.100000e-07	-5.183705e-06	-9.065135e-10	-3.604381e+01	-5.928174e+01
4.200000e-07	-5.166673e-06	-9.595785e-10	-3.592538e+01	-5.920164e+01
4.300000e-07	-5.149319e-06	-8.568233e-10	-3.580471e+01	-5.912719e+01
4.400000e-07	-5.131559e-06	-8.409338e-10	-3.568122e+01	-5.905920e+01
4.500000e-07	-5.113514e-06	-9.790643e-10	-3.555575e+01	-5.899840e+01
4.600000e-07	-5.095114e-06	-9.258088e-10	-3.542781e+01	-5.894539e+01
4.700000e-07	-5.076240e-06	-8.056615e-10	-3.529658e+01	-5.890064e+01
4.800000e-07	-5.056965e-06	-8.961168e-10	-3.516255e+01	-5.886451e+01
4.900000e-07	-5.037452e-06	-9.658404e-10	-3.502687e+01	-5.883720e+01
5.000000e-07	-5.017743e-06	-8.410227e-10	-3.488983e+01	-5.881879e+01
5.100000e-07	-4.997847e-06	-8.650828e-10	-3.475148e+01	-5.880923e+01
5.200000e-07	-4.977755e-06	-9.586850e-10	-3.461178e+01	-5.880830e+01
5.300000e-07	-4.957228e-06	-8.739645e-10	-3.446905e+01	-5.881569e+01
5.400000e-07	-4.936252e-06	-8.338512e-10	-3.432320e+01	-5.883095e+01
5.500000e-07	-4.915032e-06	-9.656736e-10	-3.417565e+01	-5.885354e+01
5.600000e-07	-4.893438e-06	-9.235830e-10	-3.402550e+01	-5.888279e+01
5.700000e-07	-4.871496e-06	-8.176493e-10	-3.387293e+01	-5.891799e+01
5.800000e-07	-4.849338e-06	-8.980382e-10	-3.371886e+01	-5.895832e+01
5.900000e-07	-4.826783e-06	-9.461243e-10	-3.356202e+01	-5.900293e+01
6.000000e-07	-4.803837e-06	-8.440070e-10	-3.340247e+01	-5.905093e+01
6.100000e-07	-4.780595e-06	-8.698335e-10	-3.324087e+01	-5.910140e+01
6.200000e-07	-4.757064e-06	-9.370895e-10	-3.307725e+01	-5.915345e+01
6.300000e-07	-4.733304e-06	-8.764020e-10	-3.291204e+01	-5.920615e+01
6.400000e-07	-4.709338e-06	-8.554328e-10	-3.274540e+01	-5.925866e+01
6.500000e-07	-4.685075e-06	-9.206955e-10	-3.257669e+01	-5.931013e+01
6.600000e-07	-4.660436e-06	-8.972628e-10	-3.240537e+01	-5.935982e+01
6.700000e-07	-4.635395e-06	-8.656644e-10	-3.223125e+01	-5.940702e+01
6.800000e-07	-4.609749e-06	-9.070913e-10	-3.205293e+01	-5.945112e+01
6.900000e-07	-4.583374e-06	-9.024220e-10	-3.186953e+01	-5.949160e+01
7.000000e-07	-4.556414e-06	-8.656374e-10	-3.168207e+01	-5.952802e+01
7.100000e-07	-4.529086e-06	-8.888876e-10	-3.149206e+01	-5.956008e+01
7.200000e-07	-4.501544e-06	-9.047237e-10	-3.130055e+01	-5.958753e+01
7.300000e-07	-4.473858e-06	-8.792632e-10	-3.110804e+01	-5.961026e+01
7.400000e-07	-4.446039e-06	-8.934684e-10	-3.091460e+01	-5.962826e+01
7.500000e-07	-4.418061e-06	-9.124703e-10	-3.072007e+01	-5.964159e+01
7.600000e-07	-4.389843e-06	-8.960356e-10	-3.052386e+01	-5.965044e+01
7.700000e-07	-4.361295e-06	-8.874042e-10	-3.032535e+01	-5.965505e+01
7.800000e-07	-4.332384e-06	-8.988253e-10	-3.012432e+01	-5.965575e+01
7.900000e-07	-4.303086e-06	-8.839717e-10	-2.992061e+01	-5.965296e+01
8.000000e-07	-4.273440e-06	-8.810061e-10	-2.971447e+01	-5.964710e+01
8.100000e-07	-4.243597e-06	-8.944613e-10	-2.950697e+01	-5.963869e+01
8.200000e-07	-4.213562e-06	-8.901109e-10	-2.929812e+01	-5.962823e+01
8.300000e-07	-4.183195e-06	-8.743209e-10	-2.908697e+01	-5.961629e+01
8.400000e-07	-4.152461e-06	-8.921031e-10	-2.887327e+01	-5.960340e+01
8.500000e-07	-4.121432e-06	-8.995313e-10	-2.865752e+01	-5.959010e+01
8.600000e-07	-4.090136e-06	-8.868287e-10	-2.843991e+01	-5.957692e+01
8.700000e-07	-4.058624e-06	-8.863972e-10	-2.822080e+01	-5.956436e+01
8.800000e-07	-4.026983e-06	-8.957084e-10	-2.800079e+01	-5.955287e+01
8.900000e-07	-3.995204e-06	-8.808108e-10	-2.777981e+01	-5.954286e+01
9.000000e-07	-3.963260e-06	-8.772294e-10	-2.755770e+01	-5.953468e+01
9.100000e-07	-3.931044e-06	-8.874595e-10	-2.733370e+01	-5.952862e+01
9.200000e-07	-3.898420e-06	-8.835265e-10	-2.710685e+01	-5.952491e+01
9.300000e-07	-3.865368e-06	-8.774921e-10	-2.687703e+01	-5.952371e+01
9.400000e-07	-3.831921e-06	-8.962546e-10	-2.664446e+01	-5.952510e+01
9.500000e-07	-3.798060e-06	-9.042964e-10	-2.640902e+01	-5.952910e+01
9.600000e-07	-3.763611e-06	-8.910155e-10	-2.616948e+01	-5.953565e+01
9.700000e-07	-3.728673e-06	-8.907784e-10	-2.592655e+01	-5.954464e+01
9.800000e-07	-3.693483e-06	-8.921591e-10	-2.568186e+01	-5.955589e+01
9.900000e-07	-3.658094e-06	-8.775936e-10	-2.543580e+01	-5.956914e+01
1.000000e-06	-3.622496e-06	-8.711169e-10	-2.518827e+01	-5.958412e+01
1.010000e-06	-3.586750e-06	-8.821457e-10	-2.493972e+01	-5.960049e+01
1.020000e-06	-3.550951e-06	-8.847215e-10	-2.469079e+01	-5.961786e+01
1.030000e-06	-3.514992e-06	-8.856658e-10	-2.444076e+01	-5.963584e+01
1.040000e-06	-3.478806e-06	-8.964835e-10	-2.418915e+01	-5.965401e+01
1.050000e-06	-3.442406e-06	-9.002584e-10	-2.393605e+01	-5.967192e+01
1.060000e-06	-3.405705e-06	-8.894248e-10	-2.368086e+01	-5.968914e+01
1.070000e-06	-3.368640e-06	-8.895228e-10	-2.342314e+01	-5.970522e+01
1.080000e-06	-3.331299e-06	-8.920563e-10	-2.316349e+01	-5.971974e+01
1.090000e-06	-3.293786e-06	-8.870491e-10	-2.290265e+01	-5.973227e+01
1.100000e-06	-3.256115e-06	-8.859409e-10	-2.264071e+01	-5.974243e+01
1.110000e-06	-3.218264e-06	-8.913348e-10	-2.237753e+01	-5.974987e+01
1.120000e-06	-3.180166e-06	-8.857925e-10	-2.211262e+01	-5.975424e+01
1.130000e-06	-3.141766e-06	-8.800121e-10	-2.184561e+01	-5.975526e+01
1.140000e-06	-3.103142e-06	-8.828920e-10	-2.157705e+01	-5.975267e+01
1.150000e-06	-3.064288e-06	-8.888062e-10	-2.130689e+01	-5.974627e+01
1.160000e-06	-3.025169e-06	-8.869509e-10	-2.103488e+01	-5.973586e+01
1.170000e-06	-2.985845e-06	-8.866020e-10	-2.076145e+01	-5.972133e+01
1.180000e-06	-2.946419e-06	-8.876349e-10	-2.048731e+01	-5.970258e+01
1.190000e-06	-2.906926e-06	-8.877772e-10	-2.021270e+01	-5.967954e+01
1.200000e-06	-2.867290e-06	-8.873889e-10	-1.993710e+01	-5.965221e+01
1.210000e-06	-2.827531e-06	-8.881220e-10	-1.966065e+01	-5.962058e+01
1.220000e-06	-2.787695e-06	-8.860977e-10	-1.938365e+01	-5.958468e+01
1.230000e-06	-2.747695e-06	-8.866687e-10	-1.910552e+01	-5.954458e+01
1.240000e-06	-2.707492e-06	-8.901502e-10	-1.882598e+01	-5.950034e+01
1.250000e-06	-2.667111e-06	-8.908305e-10	-1.854520e+01	-5.945205e+01
1.260000e-06	-2.626466e-06	-8.859661e-10	-1.826258e+01	-5.939980e+01
1.270000e-06	-2.585534e-06	-8.826940e-10	-1.797797e+01	-5.934367e+01
1.280000e-06	-2.544374e-06	-8.800532e-10	-1.769177e+01	-5.928376e+01
1.290000e-06	-2.503002e-06	-8.732551e-10	-1.740410e+01	-5.922013e+01
1.300000e-06	-2.461299e-06	-8.693019e-10	-1.711413e+01	-5.915285e+01
1.310000e-06	-2.419222e-06	-8.677855e-10	-1.682155e+01	-5.908196e+01
1.320000e-06	-2.376818e-06	-8.675700e-10	-1.652671e+01	-5.900749e+01
1.330000e-06	-2.334108e-06	-8.642283e-10	-1.622973e+01	-5.892941e+01
1.340000e-06	-2.291153e-06	-8.618640e-10	-1.593105e+01	-5.884770e+01
1.350000e-06	-2.247981e-06	-8.607044e-10	-1.563087e+01	-5.876228e+01
1.360000e-06	-2.204651e-06	-8.613844e-10	-1.532958e+01	-5.867305e+01
1.370000e-06	-2.161168e-06	-8.623117e-10	-1.502723e+01	-5.857987e+01
1.380000e-06	-2.117578e-06	-8.620438e-10	-1.472414e+01	-5.848255e+01
1.390000e-06	-2.073949e-06	-8.563073e-10	-1.442077e+01	-5.838088e+01
1.400000e-06	-2.030270e-06	-8.513895e-10	-1.411706e+01	-5.827460e+01
1.410000e-06	-1.986528e-06	-8.452678e-10	-1.381291e+01	-5.816340e+01
1.420000e-06	-1.942658e-06	-8.394450e-10	-1.350787e+01	-5.804696e+01
1.430000e-06	-1.898725e-06	-8.347741e-10	-1.320239e+01	-5.792491e+01
1.440000e-06	-1.854788e-06	-8.355694e-10	-1.289688e+01	-5.779682e+01
1.450000e-06	-1.810669e-06	-8.369710e-10	-1.259011e+01	-5.766227e+01
1.460000e-06	-1.766350e-06	-8.360989e-10	-1.228195e+01	-5.752076e+01
1.470000e-06	-1.721858e-06	-8.333928e-10	-1.197258e+01	-5.737181e+01
1.480000e-06	-1.677222e-06	-8.274375e-10	-1.166221e+01	-5.721485e+01
1.490000e-06	-1.632478e-06	-8.181128e-10	-1.135110e+01	-5.704934e+01
1.500000e-06	-1.587567e-06	-8.068393e-10	-1.103882e+01	-5.687467e+01
1.510000e-06	-1.542481e-06	-7.971398e-10	-1.072532e+01	-5.669025e+01
1.520000e-06	-1.497290e-06	-7.938980e-10	-1.041110e+01	-5.649542e+01
1.530000e-06	-1.452027e-06	-7.955486e-10	-1.009637e+01	-5.628954e+01
1.540000e-06	-1.406713e-06	-7.990643e-10	-9.781285e+00	-5.607193e+01
1.550000e-06	-1.361358e-06	-7.997218e-10	-9.465920e+00	-5.584191e+01
1.560000e-06	-1.315927e-06	-7.952033e-10	-9.150020e+00	-5.559878e+01
1.570000e-06	-1.270402e-06	-7.896196e-10	-8.833477e+00	-5.534182e+01
1.580000e-06	-1.224813e-06	-7.802218e-10	-8.516481e+00	-5.507032e+01
1.590000e-06	-1.179142e-06	-7.695964e-10	-8.198915e+00	-5.478354e+01
1.600000e-06	-1.133354e-06	-7.606430e-10	-7.880543e+00	-5.448075e+01
1.610000e-06	-1.087515e-06	-7.568368e-10	-7.561807e+00	-5.416121e+01
1.620000e-06	-1.041578e-06	-7.544229e-10	-7.242395e+00	-5.382417e+01
1.630000e-06	-9.954640e-07	-7.543860e-10	-6.921751e+00	-5.346888e+01
1.640000e-06	-9.492394e-07	-7.531454e-10	-6.600338e+00	-5.309459e+01
1.650000e-06	-9.029955e-07	-7.481427e-10	-6.278790e+00	-5.270057e+01
1.660000e-06	-8.567370e-07	-7.385110e-10	-5.957142e+00	-5.228606e+01
1.670000e-06	-8.104669e-07	-7.277461e-10	-5.635413e+00	-5.185032e+01
1.680000e-06	-7.641996e-07	-7.153748e-10	-5.313702e+00	-5.139262e+01
1.690000e-06	-7.177774e-07	-7.040532e-10	-4.990915e+00	-5.091222e+01
1.700000e-06	-6.712873e-07	-6.959635e-10	-4.667656e+00	-5.040842e+01
1.710000e-06	-6.247861e-07	-6.902494e-10	-4.344320e+00	-4.988049e+01
1.720000e-06	-5.781833e-07	-6.845562e-10	-4.020277e+00	-4.932775e+01
1.730000e-06	-5.315812e-07	-6.771166e-10	-3.696239e+00	-4.874951e+01
1.740000e-06	-4.849428e-07	-6.671287e-10	-3.371949e+00	-4.814509e+01
1.750000e-06	-4.382790e-07	-6.571540e-10	-3.047481e+00	-4.751386e+01
1.760000e-06	-3.916079e-07	-6.442547e-10	-2.722963e+00	-4.685519e+01
1.770000e-06	-3.448944e-07	-6.284738e-10	-2.398151e+00	-4.616846e+01
1.780000e-06	-2.982000e-07	-6.149887e-10	-2.073471e+00	-4.545310e+01
1.790000e-06	-2.515066e-07	-6.040749e-10	-1.748799e+00	-4.470856e+01
1.800000e-06	-2.048145e-07	-5.944987e-10	-1.424135e+00	-4.393432e+01
1.810000e-06	-1.581199e-07	-5.853325e-10	-1.099453e+00	-4.312989e+01
1.820000e-06	-1.113545e-07	-5.752356e-10	-7.742803e-01	-4.229482e+01
1.830000e-06	-6.454866e-08	-5.624452e-10	-4.488256e-01	-4.142871e+01
1.840000e-06	-1.768822e-08	-5.488898e-10	-1.229913e-01	-4.053120e+01
1.850000e-06	2.918991e-08	-5.357498e-10	2.029660e-01	-3.960196e+01
1.860000e-06	7.603747e-08	-5.226157e-10	5.287106e-01	-3.864074e+01
1.870000e-06	1.228822e-07	-5.086732e-10	8.544357e-01	-3.764733e+01
1.880000e-06	1.696772e-07	-4.936099e-10	1.179815e+00	-3.662158e+01
1.890000e-06	2.164207e-07	-4.765901e-10	1.504836e+00	-3.556343e+01
1.900000e-06	2.631528e-07	-4.591597e-10	1.829778e+00	-3.447285e+01
1.910000e-06	3.099380e-07	-4.410242e-10	2.155089e+00	-3.334991e+01
1.920000e-06	3.567867e-07	-4.226610e-10	2.480842e+00	-3.219476e+01
1.930000e-06	4.035742e-07	-4.050087e-10	2.806169e+00	-3.100763e+01
1.940000e-06	4.502842e-07	-3.895002e-10	3.130957e+00	-2.978882e+01
1.950000e-06	4.968981e-07	-3.731826e-10	3.455077e+00	-2.853875e+01
1.960000e-06	5.434072e-07	-3.565736e-10	3.778469e+00	-2.725793e+01
1.970000e-06	5.898569e-07	-3.411328e-10	4.101446e+00	-2.594696e+01
1.980000e-06	6.362624e-07	-3.247826e-10	4.424117e+00	-2.460655e+01
1.990000e-06	6.825756e-07	-3.049499e-10	4.746147e+00	-2.323752e+01
2.000000e-06	7.288419e-07	-2.821077e-10	5.067850e+00	-2.184079e+01
2.010000e-06	7.751181e-07	-2.584364e-10	5.389622e+00	-2.041740e+01
2.020000e-06	8.212861e-07	-2.351686e-10	5.710641e+00	-1.896852e+01
2.030000e-06	8.673908e-07	-2.145495e-10	6.031221e+00	-1.749539e+01
2.040000e-06	9.134624e-07	-1.972123e-10	6.351570e+00	-1.599939e+01
2.050000e-06	9.595019e-07	-1.807252e-10	6.671696e+00	-1.448203e+01
2.060000e-06	1.005560e-06	-1.645080e-10	6.991953e+00	-1.294488e+01
2.070000e-06	1.051529e-06	-1.450595e-10	7.311588e+00	-1.138966e+01
2.080000e-06	1.097400e-06	-1.231275e-10	7.630543e+00	-9.818162e+00
2.090000e-06	1.143168e-06	-9.668137e-11	7.948780e+00	-8.232287e+00
2.100000e-06	1.188841e-06	-7.044630e-11	8.266358e+00	-6.634018e+00
2.110000e-06	1.234446e-06	-4.626130e-11	8.583461e+00	-5.025420e+00
2.120000e-06	1.279903e-06	-2.282047e-11	8.899540e+00	-3.408627e+00
2.130000e-06	1.325305e-06	-2.152044e-12	9.215232e+00	-1.785834e+00
2.140000e-06	1.370686e-06	1.543942e-11	9.530776e+00	-1.592847e-01
2.150000e-06	1.415911e-06	3.248097e-11	9.845238e+00	1.468739e+00
2.160000e-06	1.461042e-06	5.265288e-11	1.015905e+01	3.095932e+00
2.170000e-06	1.506187e-06	7.668079e-11	1.047296e+01	4.719978e+00
2.180000e-06	1.551196e-06	1.026242e-10	1.078591e+01	6.338562e+00
2.190000e-06	1.596038e-06	1.281923e-10	1.109771e+01	7.949389e+00
2.200000e-06	1.640774e-06	1.533369e-10	1.140878e+01	9.550193e+00
2.210000e-06	1.685318e-06	1.758794e-10	1.171851e+01	1.113876e+01
2.220000e-06	1.729636e-06	1.971675e-10	1.202666e+01	1.271292e+01
2.230000e-06	1.773837e-06	2.166932e-10	1.233401e+01	1.427060e+01
2.240000e-06	1.817973e-06	2.349064e-10	1.264090e+01	1.580980e+01
2.250000e-06	1.862001e-06	2.530522e-10	1.294704e+01	1.732862e+01
2.260000e-06	1.905923e-06	2.726602e-10	1.325244e+01	1.882528e+01
2.270000e-06	1.949803e-06	2.933656e-10	1.355755e+01	2.029812e+01
2.280000e-06	1.993662e-06	3.153664e-10	1.386251e+01	2.174559e+01
2.290000e-06	2.037411e-06	3.360844e-10	1.416671e+01	2.316630e+01
2.300000e-06	2.081075e-06	3.559151e-10	1.447032e+01	2.455902e+01
2.310000e-06	2.124701e-06	3.755520e-10	1.477366e+01	2.592262e+01
2.320000e-06	2.168297e-06	3.944469e-10	1.507680e+01	2.725616e+01
2.330000e-06	2.211819e-06	4.101469e-10	1.537942e+01	2.855885e+01
2.340000e-06	2.255179e-06	4.250571e-10	1.568092e+01	2.983004e+01
2.350000e-06	2.298355e-06	4.406328e-10	1.598113e+01	3.106923e+01
2.360000e-06	2.341246e-06	4.569759e-10	1.627937e+01	3.227608e+01
2.370000e-06	2.383819e-06	4.730600e-10	1.657539e+01	3.345036e+01
2.380000e-06	2.426174e-06	4.893390e-10	1.686990e+01	3.459201e+01
2.390000e-06	2.468314e-06	5.065017e-10	1.716290e+01	3.570106e+01
2.400000e-06	2.510065e-06	5.236045e-10	1.745322e+01	3.677768e+01
2.410000e-06	2.551429e-06	5.390379e-10	1.774083e+01	3.782212e+01
2.420000e-06	2.592528e-06	5.517562e-10	1.802660e+01	3.883474e+01
2.430000e-06	2.633349e-06	5.631005e-10	1.831044e+01	3.981597e+01
2.440000e-06	2.673909e-06	5.747774e-10	1.859247e+01	4.076631e+01
2.450000e-06	2.714232e-06	5.883251e-10	1.887285e+01	4.168632e+01
2.460000e-06	2.754350e-06	6.019654e-10	1.915180e+01	4.257658e+01
2.470000e-06	2.794323e-06	6.150902e-10	1.942974e+01	4.343773e+01
2.480000e-06	2.834193e-06	6.249117e-10	1.970697e+01	4.427040e+01
2.490000e-06	2.873929e-06	6.334782e-10	1.998326e+01	4.507525e+01
2.500000e-06	2.913512e-06	6.428650e-10	2.025850e+01	4.585292e+01
2.510000e-06	2.952952e-06	6.533454e-10	2.053274e+01	4.660406e+01
2.520000e-06	2.992216e-06	6.649425e-10	2.080575e+01	4.732928e+01
2.530000e-06	3.031309e-06	6.769317e-10	2.107757e+01	4.802917e+01
2.540000e-06	3.070252e-06	6.869453e-10	2.134836e+01	4.870430e+01
2.550000e-06	3.108961e-06	6.962241e-10	2.161751e+01	4.935519e+01
2.560000e-06	3.147405e-06	7.048649e-10	2.188482e+01	4.998236e+01
2.570000e-06	3.185580e-06	7.126199e-10	2.215026e+01	5.058625e+01
2.580000e-06	3.223539e-06	7.196404e-10	2.241420e+01	5.116730e+01
2.590000e-06	3.261320e-06	7.274130e-10	2.267690e+01	5.172592e+01
2.600000e-06	3.298878e-06	7.359353e-10	2.293806e+01	5.226246e+01
2.610000e-06	3.336233e-06	7.436273e-10	2.319780e+01	5.277730e+01
2.620000e-06	3.373403e-06	7.537066e-10	2.345626e+01	5.327075e+01
2.630000e-06	3.410275e-06	7.658352e-10	2.371264e+01	5.374314e+01
2.640000e-06	3.446830e-06	7.735314e-10	2.396681e+01	5.419481e+01
2.650000e-06	3.483180e-06	7.767654e-10	2.421956e+01	5.462607e+01
2.660000e-06	3.519275e-06	7.786218e-10	2.447054e+01	5.503727e+01
2.670000e-06	3.555146e-06	7.786974e-10	2.471996e+01	5.542876e+01
2.680000e-06	3.590910e-06	7.796819e-10	2.496864e+01	5.580093e+01
2.690000e-06	3.626622e-06	7.843344e-10	2.521696e+01	5.615419e+01
2.700000e-06	3.662223e-06	7.932434e-10	2.546450e+01	5.648899e+01
2.710000e-06	3.697622e-06	8.054191e-10	2.571064e+01	5.680582e+01
2.720000e-06	3.732855e-06	8.192242e-10	2.595563e+01	5.710522e+01
2.730000e-06	3.767822e-06	8.290920e-10	2.619876e+01	5.738776e+01
2.740000e-06	3.802310e-06	8.326315e-10	2.643857e+01	5.765408e+01
2.750000e-06	3.836394e-06	8.307929e-10	2.667557e+01	5.790483e+01
2.760000e-06	3.870039e-06	8.265575e-10	2.690951e+01	5.814073e+01
2.770000e-06	3.903090e-06	8.247620e-10	2.713932e+01	5.836254e+01
2.780000e-06	3.935615e-06	8.290554e-10	2.736548e+01	5.857103e+01
2.790000e-06	3.967763e-06	8.389192e-10	2.758901e+01	5.876703e+01
2.800000e-06	3.999722e-06	8.499368e-10	2.781123e+01	5.895135e+01
2.810000e-06	4.031598e-06	8.574878e-10	2.803288e+01	5.912485e+01
2.820000e-06	4.063372e-06	8.602543e-10	2.825381e+01	5.928836e+01
2.830000e-06	4.094924e-06	8.584785e-10	2.847320e+01	5.944274e+01
2.840000e-06	4.126169e-06	8.556080e-10	2.869045e+01	5.958880e+01
2.850000e-06	4.157141e-06	8.532125e-10	2.890581e+01	5.972734e+01
2.860000e-06	4.187831e-06	8.514502e-10	2.911920e+01	5.985911e+01
2.870000e-06	4.218186e-06	8.545650e-10	2.933027e+01	5.998484e+01
2.880000e-06	4.248229e-06	8.605423e-10	2.953917e+01	6.010518e+01
2.890000e-06	4.277987e-06	8.659275e-10	2.974609e+01	6.022072e+01
2.900000e-06	4.307486e-06	8.703521e-10	2.995120e+01	6.033200e+01
