# Temperatura_=_2.2
# Concentracion g/m^3_=_1620.0
# C_Vs_to_Am_M_A/Vsm_=_65563218390.804596
# pendiente_HvsI_1/m_=_3716.3
# ordenada_HvsI_A/m_=_1297.0
# frecuencia_Hz_=_135100.86216523193

Tiempo_(s)	Campo_(V.s)	Magnetizacion_(V.s)	Campo_(kA/m)	Magnetizacion_(A/m)
0.000000e+00	-5.521774e-06	-1.405959e-09	-3.837537e+01	-9.253276e+01
1.000000e-08	-5.521919e-06	-1.407238e-09	-3.837637e+01	-9.248755e+01
2.000000e-08	-5.521784e-06	-1.410767e-09	-3.837544e+01	-9.244431e+01
3.000000e-08	-5.521287e-06	-1.414004e-09	-3.837198e+01	-9.240335e+01
4.000000e-08	-5.520413e-06	-1.413859e-09	-3.836591e+01	-9.236495e+01
5.000000e-08	-5.518968e-06	-1.407811e-09	-3.835586e+01	-9.232931e+01
6.000000e-08	-5.516902e-06	-1.392044e-09	-3.834151e+01	-9.229655e+01
7.000000e-08	-5.514313e-06	-1.382179e-09	-3.832352e+01	-9.226672e+01
8.000000e-08	-5.511120e-06	-1.421440e-09	-3.830132e+01	-9.223980e+01
9.000000e-08	-5.507418e-06	-1.477544e-09	-3.827560e+01	-9.221568e+01
1.000000e-07	-5.503284e-06	-1.440754e-09	-3.824687e+01	-9.219416e+01
1.100000e-07	-5.498877e-06	-1.362703e-09	-3.821624e+01	-9.217497e+01
1.200000e-07	-5.494369e-06	-1.359028e-09	-3.818491e+01	-9.215775e+01
1.300000e-07	-5.489534e-06	-1.412308e-09	-3.815131e+01	-9.214208e+01
1.400000e-07	-5.484259e-06	-1.416454e-09	-3.811465e+01	-9.212746e+01
1.500000e-07	-5.478584e-06	-1.370345e-09	-3.807521e+01	-9.211334e+01
1.600000e-07	-5.472563e-06	-1.380716e-09	-3.803336e+01	-9.209911e+01
1.700000e-07	-5.466100e-06	-1.423869e-09	-3.798845e+01	-9.208413e+01
1.800000e-07	-5.459187e-06	-1.413458e-09	-3.794040e+01	-9.206771e+01
1.900000e-07	-5.452001e-06	-1.368256e-09	-3.789046e+01	-9.204915e+01
2.000000e-07	-5.444520e-06	-1.359261e-09	-3.783847e+01	-9.202776e+01
2.100000e-07	-5.436717e-06	-1.407768e-09	-3.778424e+01	-9.200283e+01
2.200000e-07	-5.428710e-06	-1.432647e-09	-3.772859e+01	-9.197368e+01
2.300000e-07	-5.420448e-06	-1.414615e-09	-3.767117e+01	-9.193964e+01
2.400000e-07	-5.411703e-06	-1.387528e-09	-3.761040e+01	-9.190009e+01
2.500000e-07	-5.402361e-06	-1.391725e-09	-3.754547e+01	-9.185448e+01
2.600000e-07	-5.392409e-06	-1.396643e-09	-3.747631e+01	-9.180228e+01
2.700000e-07	-5.381794e-06	-1.388398e-09	-3.740254e+01	-9.174306e+01
2.800000e-07	-5.370622e-06	-1.384425e-09	-3.732489e+01	-9.167644e+01
2.900000e-07	-5.359154e-06	-1.395213e-09	-3.724519e+01	-9.160214e+01
3.000000e-07	-5.347319e-06	-1.393314e-09	-3.716294e+01	-9.151996e+01
3.100000e-07	-5.334979e-06	-1.371424e-09	-3.707718e+01	-9.142977e+01
3.200000e-07	-5.322154e-06	-1.366252e-09	-3.698805e+01	-9.133156e+01
3.300000e-07	-5.308911e-06	-1.381654e-09	-3.689601e+01	-9.122537e+01
3.400000e-07	-5.295326e-06	-1.389226e-09	-3.680160e+01	-9.111136e+01
3.500000e-07	-5.281362e-06	-1.371983e-09	-3.670455e+01	-9.098974e+01
3.600000e-07	-5.267073e-06	-1.387736e-09	-3.660524e+01	-9.086083e+01
3.700000e-07	-5.252359e-06	-1.397432e-09	-3.650299e+01	-9.072499e+01
3.800000e-07	-5.236974e-06	-1.363836e-09	-3.639606e+01	-9.058266e+01
3.900000e-07	-5.220991e-06	-1.342193e-09	-3.628498e+01	-9.043432e+01
4.000000e-07	-5.204648e-06	-1.379647e-09	-3.617140e+01	-9.028051e+01
4.100000e-07	-5.188065e-06	-1.375265e-09	-3.605615e+01	-9.012179e+01
4.200000e-07	-5.171146e-06	-1.338883e-09	-3.593856e+01	-8.995873e+01
4.300000e-07	-5.153849e-06	-1.366394e-09	-3.581836e+01	-8.979196e+01
4.400000e-07	-5.136276e-06	-1.395458e-09	-3.569623e+01	-8.962206e+01
4.500000e-07	-5.118361e-06	-1.340755e-09	-3.557172e+01	-8.944962e+01
4.600000e-07	-5.099965e-06	-1.321928e-09	-3.544387e+01	-8.927523e+01
4.700000e-07	-5.081100e-06	-1.364514e-09	-3.531276e+01	-8.909943e+01
4.800000e-07	-5.061873e-06	-1.341845e-09	-3.517913e+01	-8.892272e+01
4.900000e-07	-5.042375e-06	-1.304450e-09	-3.504363e+01	-8.874558e+01
5.000000e-07	-5.022690e-06	-1.347721e-09	-3.490682e+01	-8.856842e+01
5.100000e-07	-5.002815e-06	-1.352714e-09	-3.476869e+01	-8.839161e+01
5.200000e-07	-4.982621e-06	-1.300186e-09	-3.462835e+01	-8.821545e+01
5.300000e-07	-4.962030e-06	-1.328026e-09	-3.448525e+01	-8.804018e+01
5.400000e-07	-4.941073e-06	-1.362140e-09	-3.433960e+01	-8.786598e+01
5.500000e-07	-4.919735e-06	-1.307089e-09	-3.419131e+01	-8.769297e+01
5.600000e-07	-4.898083e-06	-1.292725e-09	-3.404083e+01	-8.752121e+01
5.700000e-07	-4.876180e-06	-1.339709e-09	-3.388860e+01	-8.735070e+01
5.800000e-07	-4.853887e-06	-1.312339e-09	-3.373367e+01	-8.718138e+01
5.900000e-07	-4.831191e-06	-1.277666e-09	-3.357594e+01	-8.701314e+01
6.000000e-07	-4.808149e-06	-1.314203e-09	-3.341580e+01	-8.684584e+01
6.100000e-07	-4.784783e-06	-1.313619e-09	-3.325341e+01	-8.667928e+01
6.200000e-07	-4.761165e-06	-1.272254e-09	-3.308927e+01	-8.651324e+01
6.300000e-07	-4.737349e-06	-1.292732e-09	-3.292375e+01	-8.634746e+01
6.400000e-07	-4.713341e-06	-1.308812e-09	-3.275690e+01	-8.618169e+01
6.500000e-07	-4.689000e-06	-1.272835e-09	-3.258774e+01	-8.601564e+01
6.600000e-07	-4.664186e-06	-1.269642e-09	-3.241528e+01	-8.584902e+01
6.700000e-07	-4.638849e-06	-1.291429e-09	-3.223919e+01	-8.568154e+01
6.800000e-07	-4.613048e-06	-1.267537e-09	-3.205988e+01	-8.551293e+01
6.900000e-07	-4.586791e-06	-1.254352e-09	-3.187740e+01	-8.534292e+01
7.000000e-07	-4.559948e-06	-1.275805e-09	-3.169085e+01	-8.517125e+01
7.100000e-07	-4.532657e-06	-1.269444e-09	-3.150118e+01	-8.499770e+01
7.200000e-07	-4.505100e-06	-1.251523e-09	-3.130966e+01	-8.482205e+01
7.300000e-07	-4.477356e-06	-1.265552e-09	-3.111685e+01	-8.464414e+01
7.400000e-07	-4.449466e-06	-1.267078e-09	-3.092301e+01	-8.446379e+01
7.500000e-07	-4.421417e-06	-1.247886e-09	-3.072808e+01	-8.428089e+01
7.600000e-07	-4.393126e-06	-1.248380e-09	-3.053146e+01	-8.409535e+01
7.700000e-07	-4.364432e-06	-1.253354e-09	-3.033204e+01	-8.390708e+01
7.800000e-07	-4.335386e-06	-1.240457e-09	-3.013018e+01	-8.371605e+01
7.900000e-07	-4.306034e-06	-1.239202e-09	-2.992619e+01	-8.352223e+01
8.000000e-07	-4.276411e-06	-1.247647e-09	-2.972032e+01	-8.332564e+01
8.100000e-07	-4.246494e-06	-1.236381e-09	-2.951239e+01	-8.312628e+01
8.200000e-07	-4.216254e-06	-1.224945e-09	-2.930223e+01	-8.292419e+01
8.300000e-07	-4.185768e-06	-1.229635e-09	-2.909036e+01	-8.271942e+01
8.400000e-07	-4.154990e-06	-1.226977e-09	-2.887646e+01	-8.251204e+01
8.500000e-07	-4.123902e-06	-1.221085e-09	-2.866040e+01	-8.230209e+01
8.600000e-07	-4.092562e-06	-1.228093e-09	-2.844259e+01	-8.208966e+01
8.700000e-07	-4.061061e-06	-1.224614e-09	-2.822367e+01	-8.187480e+01
8.800000e-07	-4.029350e-06	-1.204917e-09	-2.800328e+01	-8.165759e+01
8.900000e-07	-3.997427e-06	-1.196542e-09	-2.778142e+01	-8.143808e+01
9.000000e-07	-3.965292e-06	-1.195019e-09	-2.755809e+01	-8.121634e+01
9.100000e-07	-3.932933e-06	-1.184334e-09	-2.733320e+01	-8.099241e+01
9.200000e-07	-3.900290e-06	-1.184291e-09	-2.710633e+01	-8.076635e+01
9.300000e-07	-3.867207e-06	-1.193373e-09	-2.687641e+01	-8.053818e+01
9.400000e-07	-3.833726e-06	-1.191573e-09	-2.664373e+01	-8.030796e+01
9.500000e-07	-3.799800e-06	-1.184179e-09	-2.640795e+01	-8.007570e+01
9.600000e-07	-3.765382e-06	-1.183280e-09	-2.616875e+01	-7.984143e+01
9.700000e-07	-3.730569e-06	-1.175041e-09	-2.592681e+01	-7.960517e+01
9.800000e-07	-3.695404e-06	-1.160907e-09	-2.568241e+01	-7.936694e+01
9.900000e-07	-3.659981e-06	-1.155476e-09	-2.543623e+01	-7.912677e+01
1.000000e-06	-3.624342e-06	-1.153153e-09	-2.518854e+01	-7.888467e+01
1.010000e-06	-3.588541e-06	-1.146243e-09	-2.493974e+01	-7.864066e+01
1.020000e-06	-3.552656e-06	-1.146941e-09	-2.469034e+01	-7.839478e+01
1.030000e-06	-3.516631e-06	-1.152399e-09	-2.443998e+01	-7.814706e+01
1.040000e-06	-3.480389e-06	-1.149477e-09	-2.418810e+01	-7.789753e+01
1.050000e-06	-3.443887e-06	-1.141405e-09	-2.393441e+01	-7.764624e+01
1.060000e-06	-3.407073e-06	-1.135754e-09	-2.367857e+01	-7.739324e+01
1.070000e-06	-3.369997e-06	-1.124987e-09	-2.342089e+01	-7.713856e+01
1.080000e-06	-3.332697e-06	-1.113131e-09	-2.316166e+01	-7.688227e+01
1.090000e-06	-3.295167e-06	-1.110762e-09	-2.290084e+01	-7.662441e+01
1.100000e-06	-3.257396e-06	-1.111101e-09	-2.263833e+01	-7.636503e+01
1.110000e-06	-3.219359e-06	-1.108626e-09	-2.237398e+01	-7.610416e+01
1.120000e-06	-3.181108e-06	-1.107435e-09	-2.210815e+01	-7.584184e+01
1.130000e-06	-3.142661e-06	-1.106489e-09	-2.184095e+01	-7.557807e+01
1.140000e-06	-3.104070e-06	-1.098038e-09	-2.157275e+01	-7.531285e+01
1.150000e-06	-3.065263e-06	-1.087534e-09	-2.130305e+01	-7.504615e+01
1.160000e-06	-3.026170e-06	-1.081596e-09	-2.103136e+01	-7.477791e+01
1.170000e-06	-2.986944e-06	-1.075506e-09	-2.075875e+01	-7.450804e+01
1.180000e-06	-2.947547e-06	-1.069672e-09	-2.048494e+01	-7.423641e+01
1.190000e-06	-2.907939e-06	-1.068359e-09	-2.020967e+01	-7.396287e+01
1.200000e-06	-2.868233e-06	-1.066049e-09	-1.993372e+01	-7.368719e+01
1.210000e-06	-2.828371e-06	-1.061556e-09	-1.965669e+01	-7.340913e+01
1.220000e-06	-2.788348e-06	-1.058048e-09	-1.937853e+01	-7.312838e+01
1.230000e-06	-2.748209e-06	-1.054811e-09	-1.909958e+01	-7.284460e+01
1.240000e-06	-2.707912e-06	-1.048522e-09	-1.881952e+01	-7.255738e+01
1.250000e-06	-2.667364e-06	-1.043390e-09	-1.853771e+01	-7.226627e+01
1.260000e-06	-2.626626e-06	-1.040200e-09	-1.825459e+01	-7.197079e+01
1.270000e-06	-2.585686e-06	-1.035391e-09	-1.797007e+01	-7.167039e+01
1.280000e-06	-2.544576e-06	-1.029064e-09	-1.768436e+01	-7.136451e+01
1.290000e-06	-2.503261e-06	-1.021577e-09	-1.739723e+01	-7.105253e+01
1.300000e-06	-2.461521e-06	-1.012396e-09	-1.710714e+01	-7.073381e+01
1.310000e-06	-2.419466e-06	-1.003964e-09	-1.681487e+01	-7.040770e+01
1.320000e-06	-2.377206e-06	-9.988989e-10	-1.652117e+01	-7.007351e+01
1.330000e-06	-2.334611e-06	-9.954878e-10	-1.622514e+01	-6.973057e+01
1.340000e-06	-2.291630e-06	-9.909935e-10	-1.592643e+01	-6.937818e+01
1.350000e-06	-2.248380e-06	-9.874239e-10	-1.562585e+01	-6.901568e+01
1.360000e-06	-2.204947e-06	-9.828520e-10	-1.532400e+01	-6.864239e+01
1.370000e-06	-2.161375e-06	-9.751892e-10	-1.502118e+01	-6.825770e+01
1.380000e-06	-2.117702e-06	-9.655437e-10	-1.471766e+01	-6.786098e+01
1.390000e-06	-2.073976e-06	-9.538916e-10	-1.441377e+01	-6.745168e+01
1.400000e-06	-2.030165e-06	-9.439448e-10	-1.410929e+01	-6.702928e+01
1.410000e-06	-1.986250e-06	-9.379274e-10	-1.380410e+01	-6.659330e+01
1.420000e-06	-1.942281e-06	-9.334236e-10	-1.349851e+01	-6.614333e+01
1.430000e-06	-1.898221e-06	-9.286422e-10	-1.319230e+01	-6.567901e+01
1.440000e-06	-1.854045e-06	-9.236841e-10	-1.288529e+01	-6.520003e+01
1.450000e-06	-1.809816e-06	-9.146283e-10	-1.257791e+01	-6.470615e+01
1.460000e-06	-1.765504e-06	-9.031003e-10	-1.226995e+01	-6.419719e+01
1.470000e-06	-1.721056e-06	-8.899507e-10	-1.196104e+01	-6.367302e+01
1.480000e-06	-1.676438e-06	-8.777615e-10	-1.165095e+01	-6.313355e+01
1.490000e-06	-1.631646e-06	-8.667076e-10	-1.133965e+01	-6.257874e+01
1.500000e-06	-1.586766e-06	-8.552994e-10	-1.102775e+01	-6.200860e+01
1.510000e-06	-1.541875e-06	-8.467174e-10	-1.071576e+01	-6.142314e+01
1.520000e-06	-1.496845e-06	-8.380842e-10	-1.040281e+01	-6.082242e+01
1.530000e-06	-1.451616e-06	-8.318150e-10	-1.008848e+01	-6.020649e+01
1.540000e-06	-1.406267e-06	-8.242375e-10	-9.773310e+00	-5.957539e+01
1.550000e-06	-1.360824e-06	-8.116780e-10	-9.457487e+00	-5.892916e+01
1.560000e-06	-1.315331e-06	-7.981752e-10	-9.141323e+00	-5.826782e+01
1.570000e-06	-1.269728e-06	-7.859922e-10	-8.824388e+00	-5.759132e+01
1.580000e-06	-1.224006e-06	-7.732382e-10	-8.506626e+00	-5.689959e+01
1.590000e-06	-1.178195e-06	-7.601678e-10	-8.188248e+00	-5.619249e+01
1.600000e-06	-1.132267e-06	-7.481748e-10	-7.869056e+00	-5.546980e+01
1.610000e-06	-1.086213e-06	-7.376857e-10	-7.548995e+00	-5.473122e+01
1.620000e-06	-1.040155e-06	-7.301245e-10	-7.228897e+00	-5.397637e+01
1.630000e-06	-9.941190e-07	-7.239803e-10	-6.908954e+00	-5.320478e+01
1.640000e-06	-9.479853e-07	-7.162735e-10	-6.588333e+00	-5.241586e+01
1.650000e-06	-9.017342e-07	-7.044230e-10	-6.266896e+00	-5.160893e+01
1.660000e-06	-8.554548e-07	-6.885728e-10	-5.945262e+00	-5.078321e+01
1.670000e-06	-8.091708e-07	-6.712191e-10	-5.623597e+00	-4.993781e+01
1.680000e-06	-7.628367e-07	-6.538964e-10	-5.301582e+00	-4.907176e+01
1.690000e-06	-7.164522e-07	-6.380201e-10	-4.979218e+00	-4.818397e+01
1.700000e-06	-6.700492e-07	-6.221388e-10	-4.656725e+00	-4.727330e+01
1.710000e-06	-6.235674e-07	-6.085774e-10	-4.333685e+00	-4.633852e+01
1.720000e-06	-5.769767e-07	-5.971756e-10	-4.009888e+00	-4.537832e+01
1.730000e-06	-5.303636e-07	-5.832240e-10	-3.685935e+00	-4.439139e+01
1.740000e-06	-4.837092e-07	-5.680332e-10	-3.361695e+00	-4.337635e+01
1.750000e-06	-4.370350e-07	-5.520616e-10	-3.037317e+00	-4.233182e+01
1.760000e-06	-3.903464e-07	-5.348574e-10	-2.712840e+00	-4.125642e+01
1.770000e-06	-3.435758e-07	-5.157316e-10	-2.387792e+00	-4.014881e+01
1.780000e-06	-2.967301e-07	-4.958926e-10	-2.062223e+00	-3.900768e+01
1.790000e-06	-2.498691e-07	-4.766215e-10	-1.736547e+00	-3.783178e+01
1.800000e-06	-2.029964e-07	-4.589826e-10	-1.410790e+00	-3.661996e+01
1.810000e-06	-1.560900e-07	-4.421688e-10	-1.084798e+00	-3.537117e+01
1.820000e-06	-1.091778e-07	-4.259864e-10	-7.587666e-01	-3.408446e+01
1.830000e-06	-6.229632e-08	-4.100364e-10	-4.329486e-01	-3.275906e+01
1.840000e-06	-1.540123e-08	-3.930612e-10	-1.070359e-01	-3.139432e+01
1.850000e-06	3.156849e-08	-3.738997e-10	2.193955e-01	-2.998980e+01
1.860000e-06	7.849849e-08	-3.532618e-10	5.455509e-01	-2.854521e+01
1.870000e-06	1.253458e-07	-3.316136e-10	8.711319e-01	-2.706048e+01
1.880000e-06	1.721948e-07	-3.077403e-10	1.196724e+00	-2.553574e+01
1.890000e-06	2.190569e-07	-2.821946e-10	1.522407e+00	-2.397134e+01
1.900000e-06	2.659996e-07	-2.567637e-10	1.848651e+00	-2.236784e+01
1.910000e-06	3.128782e-07	-2.326384e-10	2.174449e+00	-2.072602e+01
1.920000e-06	3.596197e-07	-2.101831e-10	2.499294e+00	-1.904688e+01
1.930000e-06	4.064038e-07	-1.874579e-10	2.824436e+00	-1.733165e+01
1.940000e-06	4.531826e-07	-1.650886e-10	3.149540e+00	-1.558176e+01
1.950000e-06	4.998839e-07	-1.429066e-10	3.474106e+00	-1.379882e+01
1.960000e-06	5.464582e-07	-1.202361e-10	3.797790e+00	-1.198467e+01
1.970000e-06	5.929691e-07	-9.545076e-11	4.121032e+00	-1.014132e+01
1.980000e-06	6.394656e-07	-6.814239e-11	4.444175e+00	-8.270918e+00
1.990000e-06	6.858753e-07	-3.828615e-11	4.766714e+00	-6.375799e+00
2.000000e-06	7.322752e-07	-6.607627e-12	5.089185e+00	-4.458414e+00
2.010000e-06	7.786389e-07	2.241237e-11	5.411405e+00	-2.521331e+00
2.020000e-06	8.249300e-07	4.873800e-11	5.733120e+00	-5.672169e-01
2.030000e-06	8.711523e-07	7.352487e-11	6.054357e+00	1.401187e+00
2.040000e-06	9.173081e-07	9.866573e-11	6.375132e+00	3.381079e+00
2.050000e-06	9.633945e-07	1.251369e-10	6.695424e+00	5.369623e+00
2.060000e-06	1.009403e-06	1.525456e-10	7.015173e+00	7.363963e+00
2.070000e-06	1.055390e-06	1.812519e-10	7.334779e+00	9.361244e+00
2.080000e-06	1.101342e-06	2.108303e-10	7.654135e+00	1.135863e+01
2.090000e-06	1.147156e-06	2.405787e-10	7.972533e+00	1.335333e+01
2.100000e-06	1.192793e-06	2.700076e-10	8.289706e+00	1.534258e+01
2.110000e-06	1.238366e-06	2.991238e-10	8.606425e+00	1.732373e+01
2.120000e-06	1.283930e-06	3.268864e-10	8.923093e+00	1.929416e+01
2.130000e-06	1.329414e-06	3.525890e-10	9.239199e+00	2.125139e+01
2.140000e-06	1.374778e-06	3.764386e-10	9.554468e+00	2.319301e+01
2.150000e-06	1.420101e-06	3.984666e-10	9.869454e+00	2.511675e+01
2.160000e-06	1.465427e-06	4.214485e-10	1.018446e+01	2.702044e+01
2.170000e-06	1.510628e-06	4.473585e-10	1.049860e+01	2.890206e+01
2.180000e-06	1.555668e-06	4.751487e-10	1.081162e+01	3.075971e+01
2.190000e-06	1.600579e-06	5.036545e-10	1.112375e+01	3.259162e+01
2.200000e-06	1.645399e-06	5.317233e-10	1.143523e+01	3.439619e+01
2.210000e-06	1.690126e-06	5.579934e-10	1.174608e+01	3.617191e+01
2.220000e-06	1.734702e-06	5.826544e-10	1.205588e+01	3.791744e+01
2.230000e-06	1.779113e-06	6.047240e-10	1.236453e+01	3.963158e+01
2.240000e-06	1.823365e-06	6.231320e-10	1.267207e+01	4.131325e+01
2.250000e-06	1.867506e-06	6.397479e-10	1.297884e+01	4.296150e+01
2.260000e-06	1.911540e-06	6.575444e-10	1.328487e+01	4.457552e+01
2.270000e-06	1.955464e-06	6.785853e-10	1.359013e+01	4.615461e+01
2.280000e-06	1.999309e-06	7.027576e-10	1.389485e+01	4.769820e+01
2.290000e-06	2.043086e-06	7.272736e-10	1.419909e+01	4.920581e+01
2.300000e-06	2.086787e-06	7.513262e-10	1.450281e+01	5.067710e+01
2.310000e-06	2.130444e-06	7.725590e-10	1.480622e+01	5.211181e+01
2.320000e-06	2.174050e-06	7.892201e-10	1.510927e+01	5.350978e+01
2.330000e-06	2.217602e-06	8.034709e-10	1.541195e+01	5.487095e+01
2.340000e-06	2.261022e-06	8.186017e-10	1.571371e+01	5.619534e+01
2.350000e-06	2.304184e-06	8.348033e-10	1.601368e+01	5.748305e+01
2.360000e-06	2.347099e-06	8.529300e-10	1.631193e+01	5.873426e+01
2.370000e-06	2.389731e-06	8.713475e-10	1.660821e+01	5.994921e+01
2.380000e-06	2.432092e-06	8.901128e-10	1.690262e+01	6.112823e+01
2.390000e-06	2.474152e-06	9.079707e-10	1.719492e+01	6.227170e+01
2.400000e-06	2.515785e-06	9.233070e-10	1.748427e+01	6.338005e+01
2.410000e-06	2.557084e-06	9.380164e-10	1.777129e+01	6.445377e+01
2.420000e-06	2.598175e-06	9.505570e-10	1.805686e+01	6.549341e+01
2.430000e-06	2.638984e-06	9.626445e-10	1.834048e+01	6.649956e+01
2.440000e-06	2.679484e-06	9.730277e-10	1.862195e+01	6.747283e+01
2.450000e-06	2.719765e-06	9.846854e-10	1.890190e+01	6.841391e+01
2.460000e-06	2.759893e-06	9.983313e-10	1.918078e+01	6.932349e+01
2.470000e-06	2.799889e-06	1.012350e-09	1.945874e+01	7.020230e+01
2.480000e-06	2.839792e-06	1.025391e-09	1.973606e+01	7.105111e+01
2.490000e-06	2.879591e-06	1.037148e-09	2.001265e+01	7.187069e+01
2.500000e-06	2.919216e-06	1.047654e-09	2.028804e+01	7.266185e+01
2.510000e-06	2.958691e-06	1.057797e-09	2.056239e+01	7.342540e+01
2.520000e-06	2.998025e-06	1.066935e-09	2.083575e+01	7.416216e+01
2.530000e-06	3.037135e-06	1.073597e-09	2.110756e+01	7.487296e+01
2.540000e-06	3.075955e-06	1.079914e-09	2.137735e+01	7.555866e+01
2.550000e-06	3.114547e-06	1.087055e-09	2.164556e+01	7.622007e+01
2.560000e-06	3.152961e-06	1.094330e-09	2.191253e+01	7.685804e+01
2.570000e-06	3.191175e-06	1.103144e-09	2.217811e+01	7.747338e+01
2.580000e-06	3.229196e-06	1.112474e-09	2.244235e+01	7.806692e+01
2.590000e-06	3.267052e-06	1.121390e-09	2.270544e+01	7.863945e+01
2.600000e-06	3.304721e-06	1.129129e-09	2.296724e+01	7.919176e+01
2.610000e-06	3.342226e-06	1.136908e-09	2.322789e+01	7.972462e+01
2.620000e-06	3.379457e-06	1.144932e-09	2.348664e+01	8.023878e+01
2.630000e-06	3.416276e-06	1.151272e-09	2.374252e+01	8.073496e+01
2.640000e-06	3.452832e-06	1.157410e-09	2.399658e+01	8.121386e+01
2.650000e-06	3.489196e-06	1.161611e-09	2.424931e+01	8.167616e+01
2.660000e-06	3.525340e-06	1.165940e-09	2.450050e+01	8.212251e+01
2.670000e-06	3.561336e-06	1.172294e-09	2.475067e+01	8.255355e+01
2.680000e-06	3.597223e-06	1.179517e-09	2.500007e+01	8.296986e+01
2.690000e-06	3.633004e-06	1.187293e-09	2.524874e+01	8.337204e+01
2.700000e-06	3.668608e-06	1.196658e-09	2.549619e+01	8.376063e+01
2.710000e-06	3.703985e-06	1.204947e-09	2.574205e+01	8.413616e+01
2.720000e-06	3.739130e-06	1.211243e-09	2.598630e+01	8.449914e+01
2.730000e-06	3.773997e-06	1.217077e-09	2.622863e+01	8.485005e+01
2.740000e-06	3.808392e-06	1.222066e-09	2.646766e+01	8.518936e+01
2.750000e-06	3.842244e-06	1.227391e-09	2.670293e+01	8.551751e+01
2.760000e-06	3.875671e-06	1.229276e-09	2.693524e+01	8.583493e+01
2.770000e-06	3.908643e-06	1.230369e-09	2.716439e+01	8.614204e+01
2.780000e-06	3.941157e-06	1.235597e-09	2.739036e+01	8.643922e+01
2.790000e-06	3.973347e-06	1.245570e-09	2.761407e+01	8.672686e+01
2.800000e-06	4.005329e-06	1.256718e-09	2.783634e+01	8.700532e+01
2.810000e-06	4.037138e-06	1.263429e-09	2.805741e+01	8.727495e+01
2.820000e-06	4.068771e-06	1.266749e-09	2.827725e+01	8.753609e+01
2.830000e-06	4.100212e-06	1.266804e-09	2.849576e+01	8.778908e+01
2.840000e-06	4.131478e-06	1.266755e-09	2.871306e+01	8.803420e+01
2.850000e-06	4.162458e-06	1.264487e-09	2.892836e+01	8.827177e+01
2.860000e-06	4.193032e-06	1.262558e-09	2.914084e+01	8.850207e+01
2.870000e-06	4.223321e-06	1.265882e-09	2.935135e+01	8.872535e+01
2.880000e-06	4.253424e-06	1.271499e-09	2.956056e+01	8.894187e+01
2.890000e-06	4.283360e-06	1.278296e-09	2.976861e+01	8.915185e+01
2.900000e-06	4.313008e-06	1.283809e-09	2.997465e+01	8.935552e+01
