# Temperatura_=_-8.9
# Concentracion g/m^3_=_1620.0
# C_Vs_to_Am_M_A/Vsm_=_65563218390.804596
# pendiente_HvsI_1/m_=_3716.3
# ordenada_HvsI_A/m_=_1297.0
# frecuencia_Hz_=_135103.94210740656

Tiempo_(s)	Campo_(V.s)	Magnetizacion_(V.s)	Campo_(kA/m)	Magnetizacion_(A/m)
0.000000e+00	-5.529769e-06	-1.155101e-09	-3.836463e+01	-7.684225e+01
1.000000e-08	-5.529943e-06	-1.150278e-09	-3.836583e+01	-7.676347e+01
2.000000e-08	-5.529789e-06	-1.146953e-09	-3.836476e+01	-7.668694e+01
3.000000e-08	-5.529195e-06	-1.146010e-09	-3.836064e+01	-7.661314e+01
4.000000e-08	-5.528077e-06	-1.144370e-09	-3.835289e+01	-7.654252e+01
5.000000e-08	-5.526309e-06	-1.138474e-09	-3.834062e+01	-7.647541e+01
6.000000e-08	-5.523917e-06	-1.130250e-09	-3.832403e+01	-7.641209e+01
7.000000e-08	-5.521022e-06	-1.132876e-09	-3.830394e+01	-7.635271e+01
8.000000e-08	-5.517684e-06	-1.160823e-09	-3.828078e+01	-7.629734e+01
9.000000e-08	-5.513874e-06	-1.182533e-09	-3.825435e+01	-7.624594e+01
1.000000e-07	-5.509639e-06	-1.162884e-09	-3.822497e+01	-7.619836e+01
1.100000e-07	-5.505208e-06	-1.105237e-09	-3.819422e+01	-7.615437e+01
1.200000e-07	-5.500605e-06	-1.106543e-09	-3.816229e+01	-7.611361e+01
1.300000e-07	-5.495659e-06	-1.138582e-09	-3.812797e+01	-7.607565e+01
1.400000e-07	-5.490298e-06	-1.155383e-09	-3.809078e+01	-7.604000e+01
1.500000e-07	-5.484663e-06	-1.124906e-09	-3.805168e+01	-7.600604e+01
1.600000e-07	-5.478745e-06	-1.114072e-09	-3.801063e+01	-7.597315e+01
1.700000e-07	-5.472308e-06	-1.137312e-09	-3.796597e+01	-7.594061e+01
1.800000e-07	-5.465361e-06	-1.158293e-09	-3.791777e+01	-7.590771e+01
1.900000e-07	-5.458094e-06	-1.147884e-09	-3.786736e+01	-7.587369e+01
2.000000e-07	-5.450574e-06	-1.140244e-09	-3.781518e+01	-7.583781e+01
2.100000e-07	-5.442777e-06	-1.161724e-09	-3.776109e+01	-7.579931e+01
2.200000e-07	-5.434690e-06	-1.171628e-09	-3.770498e+01	-7.575748e+01
2.300000e-07	-5.426258e-06	-1.156790e-09	-3.764648e+01	-7.571164e+01
2.400000e-07	-5.417273e-06	-1.127329e-09	-3.758415e+01	-7.566118e+01
2.500000e-07	-5.407593e-06	-1.139713e-09	-3.751699e+01	-7.560553e+01
2.600000e-07	-5.397332e-06	-1.146029e-09	-3.744580e+01	-7.554421e+01
2.700000e-07	-5.386576e-06	-1.146562e-09	-3.737118e+01	-7.547683e+01
2.800000e-07	-5.375335e-06	-1.126969e-09	-3.729319e+01	-7.540309e+01
2.900000e-07	-5.363716e-06	-1.124318e-09	-3.721258e+01	-7.532279e+01
3.000000e-07	-5.351709e-06	-1.124279e-09	-3.712928e+01	-7.523584e+01
3.100000e-07	-5.339216e-06	-1.124264e-09	-3.704260e+01	-7.514224e+01
3.200000e-07	-5.326245e-06	-1.112064e-09	-3.695261e+01	-7.504210e+01
3.300000e-07	-5.312897e-06	-1.119897e-09	-3.686001e+01	-7.493564e+01
3.400000e-07	-5.299145e-06	-1.128768e-09	-3.676459e+01	-7.482317e+01
3.500000e-07	-5.284872e-06	-1.132353e-09	-3.666557e+01	-7.470509e+01
3.600000e-07	-5.270161e-06	-1.128270e-09	-3.656351e+01	-7.458188e+01
3.700000e-07	-5.255061e-06	-1.125192e-09	-3.645875e+01	-7.445410e+01
3.800000e-07	-5.239495e-06	-1.108144e-09	-3.635076e+01	-7.432236e+01
3.900000e-07	-5.223397e-06	-1.103667e-09	-3.623907e+01	-7.418733e+01
4.000000e-07	-5.206947e-06	-1.118307e-09	-3.612494e+01	-7.404970e+01
4.100000e-07	-5.190169e-06	-1.118603e-09	-3.600854e+01	-7.391020e+01
4.200000e-07	-5.173008e-06	-1.104926e-09	-3.588947e+01	-7.376956e+01
4.300000e-07	-5.155631e-06	-1.109988e-09	-3.576892e+01	-7.362849e+01
4.400000e-07	-5.137961e-06	-1.124749e-09	-3.564633e+01	-7.348770e+01
4.500000e-07	-5.119823e-06	-1.102532e-09	-3.552048e+01	-7.334788e+01
4.600000e-07	-5.101221e-06	-1.089200e-09	-3.539143e+01	-7.320964e+01
4.700000e-07	-5.082282e-06	-1.103017e-09	-3.526004e+01	-7.307355e+01
4.800000e-07	-5.063045e-06	-1.103689e-09	-3.512657e+01	-7.294015e+01
4.900000e-07	-5.043547e-06	-1.083119e-09	-3.499130e+01	-7.280985e+01
5.000000e-07	-5.023812e-06	-1.097671e-09	-3.485438e+01	-7.268304e+01
5.100000e-07	-5.003782e-06	-1.103582e-09	-3.471542e+01	-7.255998e+01
5.200000e-07	-4.983435e-06	-1.082651e-09	-3.457425e+01	-7.244088e+01
5.300000e-07	-4.962708e-06	-1.079512e-09	-3.443045e+01	-7.232584e+01
5.400000e-07	-4.941587e-06	-1.097705e-09	-3.428391e+01	-7.221490e+01
5.500000e-07	-4.920137e-06	-1.081311e-09	-3.413510e+01	-7.210799e+01
5.600000e-07	-4.898346e-06	-1.071956e-09	-3.398391e+01	-7.200497e+01
5.700000e-07	-4.876273e-06	-1.089089e-09	-3.383078e+01	-7.190564e+01
5.800000e-07	-4.853827e-06	-1.085766e-09	-3.367505e+01	-7.180973e+01
5.900000e-07	-4.830961e-06	-1.064498e-09	-3.351641e+01	-7.171688e+01
6.000000e-07	-4.807808e-06	-1.075686e-09	-3.335578e+01	-7.162673e+01
6.100000e-07	-4.784437e-06	-1.079873e-09	-3.319363e+01	-7.153883e+01
6.200000e-07	-4.760901e-06	-1.062436e-09	-3.303034e+01	-7.145275e+01
6.300000e-07	-4.737074e-06	-1.068996e-09	-3.286504e+01	-7.136798e+01
6.400000e-07	-4.712857e-06	-1.086591e-09	-3.269703e+01	-7.128405e+01
6.500000e-07	-4.688211e-06	-1.071074e-09	-3.252604e+01	-7.120047e+01
6.600000e-07	-4.663094e-06	-1.065481e-09	-3.235178e+01	-7.111675e+01
6.700000e-07	-4.637462e-06	-1.082828e-09	-3.217394e+01	-7.103242e+01
6.800000e-07	-4.611252e-06	-1.071650e-09	-3.199210e+01	-7.094705e+01
6.900000e-07	-4.584543e-06	-1.052498e-09	-3.180681e+01	-7.086022e+01
7.000000e-07	-4.557493e-06	-1.063716e-09	-3.161913e+01	-7.077157e+01
7.100000e-07	-4.530187e-06	-1.067598e-09	-3.142969e+01	-7.068075e+01
7.200000e-07	-4.502669e-06	-1.053708e-09	-3.123877e+01	-7.058750e+01
7.300000e-07	-4.474983e-06	-1.060003e-09	-3.104669e+01	-7.049157e+01
7.400000e-07	-4.447081e-06	-1.066002e-09	-3.085311e+01	-7.039278e+01
7.500000e-07	-4.418869e-06	-1.051364e-09	-3.065738e+01	-7.029098e+01
7.600000e-07	-4.390347e-06	-1.044877e-09	-3.045950e+01	-7.018610e+01
7.700000e-07	-4.361504e-06	-1.051331e-09	-3.025939e+01	-7.007808e+01
7.800000e-07	-4.332383e-06	-1.039412e-09	-3.005736e+01	-6.996692e+01
7.900000e-07	-4.302989e-06	-1.031966e-09	-2.985343e+01	-6.985266e+01
8.000000e-07	-4.273241e-06	-1.041692e-09	-2.964704e+01	-6.973538e+01
8.100000e-07	-4.243222e-06	-1.042453e-09	-2.943878e+01	-6.961516e+01
8.200000e-07	-4.212930e-06	-1.030922e-09	-2.922861e+01	-6.949212e+01
8.300000e-07	-4.182360e-06	-1.033303e-09	-2.901653e+01	-6.936641e+01
8.400000e-07	-4.151490e-06	-1.031964e-09	-2.880236e+01	-6.923818e+01
8.500000e-07	-4.120297e-06	-1.021835e-09	-2.858594e+01	-6.910757e+01
8.600000e-07	-4.088955e-06	-1.017308e-09	-2.836849e+01	-6.897474e+01
8.700000e-07	-4.057435e-06	-1.014036e-09	-2.814981e+01	-6.883984e+01
8.800000e-07	-4.025676e-06	-1.003694e-09	-2.792947e+01	-6.870302e+01
8.900000e-07	-3.993726e-06	-1.001944e-09	-2.770781e+01	-6.856439e+01
9.000000e-07	-3.961591e-06	-1.008496e-09	-2.748486e+01	-6.842408e+01
9.100000e-07	-3.929120e-06	-1.009811e-09	-2.725959e+01	-6.828218e+01
9.200000e-07	-3.896206e-06	-1.007289e-09	-2.703123e+01	-6.813875e+01
9.300000e-07	-3.862857e-06	-1.008876e-09	-2.679986e+01	-6.799387e+01
9.400000e-07	-3.828948e-06	-1.004249e-09	-2.656461e+01	-6.784755e+01
9.500000e-07	-3.794476e-06	-9.966369e-10	-2.632545e+01	-6.769981e+01
9.600000e-07	-3.759735e-06	-9.962803e-10	-2.608442e+01	-6.755066e+01
9.700000e-07	-3.724741e-06	-9.987625e-10	-2.584164e+01	-6.740006e+01
9.800000e-07	-3.689457e-06	-9.971406e-10	-2.559685e+01	-6.724799e+01
9.900000e-07	-3.653947e-06	-9.948634e-10	-2.535048e+01	-6.709440e+01
1.000000e-06	-3.618266e-06	-9.938029e-10	-2.510294e+01	-6.693923e+01
1.010000e-06	-3.582479e-06	-9.870868e-10	-2.485465e+01	-6.678242e+01
1.020000e-06	-3.546474e-06	-9.789143e-10	-2.460485e+01	-6.662392e+01
1.030000e-06	-3.510272e-06	-9.761788e-10	-2.435368e+01	-6.646365e+01
1.040000e-06	-3.473864e-06	-9.739857e-10	-2.410110e+01	-6.630156e+01
1.050000e-06	-3.437192e-06	-9.717127e-10	-2.384667e+01	-6.613759e+01
1.060000e-06	-3.400233e-06	-9.755386e-10	-2.359026e+01	-6.597171e+01
1.070000e-06	-3.363053e-06	-9.784139e-10	-2.333230e+01	-6.580387e+01
1.080000e-06	-3.325686e-06	-9.729178e-10	-2.307306e+01	-6.563404e+01
1.090000e-06	-3.288016e-06	-9.639046e-10	-2.281171e+01	-6.546222e+01
1.100000e-06	-3.250080e-06	-9.590065e-10	-2.254852e+01	-6.528839e+01
1.110000e-06	-3.211950e-06	-9.534520e-10	-2.228398e+01	-6.511256e+01
1.120000e-06	-3.173624e-06	-9.529100e-10	-2.201808e+01	-6.493473e+01
1.130000e-06	-3.135086e-06	-9.545563e-10	-2.175071e+01	-6.475493e+01
1.140000e-06	-3.096304e-06	-9.544878e-10	-2.148165e+01	-6.457317e+01
1.150000e-06	-3.057346e-06	-9.507288e-10	-2.121136e+01	-6.438946e+01
1.160000e-06	-3.018230e-06	-9.441811e-10	-2.093998e+01	-6.420383e+01
1.170000e-06	-2.978904e-06	-9.333026e-10	-2.066715e+01	-6.401628e+01
1.180000e-06	-2.939443e-06	-9.251041e-10	-2.039337e+01	-6.382681e+01
1.190000e-06	-2.899881e-06	-9.245296e-10	-2.011889e+01	-6.363540e+01
1.200000e-06	-2.860201e-06	-9.261572e-10	-1.984360e+01	-6.344201e+01
1.210000e-06	-2.820345e-06	-9.268925e-10	-1.956709e+01	-6.324659e+01
1.220000e-06	-2.780346e-06	-9.266049e-10	-1.928958e+01	-6.304906e+01
1.230000e-06	-2.740225e-06	-9.253463e-10	-1.901123e+01	-6.284930e+01
1.240000e-06	-2.699877e-06	-9.218436e-10	-1.873130e+01	-6.264718e+01
1.250000e-06	-2.659289e-06	-9.171152e-10	-1.844971e+01	-6.244252e+01
1.260000e-06	-2.618433e-06	-9.130180e-10	-1.816626e+01	-6.223512e+01
1.270000e-06	-2.577266e-06	-9.079375e-10	-1.788064e+01	-6.202474e+01
1.280000e-06	-2.535723e-06	-9.029237e-10	-1.759243e+01	-6.181112e+01
1.290000e-06	-2.493813e-06	-8.964630e-10	-1.730166e+01	-6.159394e+01
1.300000e-06	-2.451593e-06	-8.895125e-10	-1.700875e+01	-6.137288e+01
1.310000e-06	-2.409139e-06	-8.841551e-10	-1.671421e+01	-6.114757e+01
1.320000e-06	-2.366458e-06	-8.822125e-10	-1.641810e+01	-6.091763e+01
1.330000e-06	-2.323440e-06	-8.815871e-10	-1.611964e+01	-6.068264e+01
1.340000e-06	-2.280253e-06	-8.802118e-10	-1.582002e+01	-6.044218e+01
1.350000e-06	-2.236986e-06	-8.788360e-10	-1.551984e+01	-6.019580e+01
1.360000e-06	-2.193558e-06	-8.741284e-10	-1.521854e+01	-5.994304e+01
1.370000e-06	-2.150023e-06	-8.673654e-10	-1.491651e+01	-5.968343e+01
1.380000e-06	-2.106433e-06	-8.591524e-10	-1.461408e+01	-5.941653e+01
1.390000e-06	-2.062777e-06	-8.518697e-10	-1.431121e+01	-5.914185e+01
1.400000e-06	-2.018944e-06	-8.477096e-10	-1.400710e+01	-5.885893e+01
1.410000e-06	-1.975000e-06	-8.458843e-10	-1.370222e+01	-5.856733e+01
1.420000e-06	-1.930974e-06	-8.409173e-10	-1.339678e+01	-5.826660e+01
1.430000e-06	-1.886831e-06	-8.345995e-10	-1.309052e+01	-5.795630e+01
1.440000e-06	-1.842636e-06	-8.282949e-10	-1.278390e+01	-5.763603e+01
1.450000e-06	-1.798292e-06	-8.223737e-10	-1.247625e+01	-5.730537e+01
1.460000e-06	-1.753821e-06	-8.153398e-10	-1.216772e+01	-5.696393e+01
1.470000e-06	-1.709224e-06	-8.071279e-10	-1.185831e+01	-5.661135e+01
1.480000e-06	-1.664443e-06	-7.978083e-10	-1.154763e+01	-5.624724e+01
1.490000e-06	-1.619540e-06	-7.865466e-10	-1.123610e+01	-5.587126e+01
1.500000e-06	-1.574512e-06	-7.733350e-10	-1.092370e+01	-5.548305e+01
1.510000e-06	-1.529371e-06	-7.632780e-10	-1.061053e+01	-5.508226e+01
1.520000e-06	-1.484123e-06	-7.579665e-10	-1.029660e+01	-5.466853e+01
1.530000e-06	-1.438779e-06	-7.547852e-10	-9.982014e+00	-5.424151e+01
1.540000e-06	-1.393352e-06	-7.505811e-10	-9.666846e+00	-5.380081e+01
1.550000e-06	-1.347776e-06	-7.438991e-10	-9.350649e+00	-5.334605e+01
1.560000e-06	-1.302097e-06	-7.354345e-10	-9.033731e+00	-5.287679e+01
1.570000e-06	-1.256326e-06	-7.250575e-10	-8.716179e+00	-5.239260e+01
1.580000e-06	-1.210447e-06	-7.131156e-10	-8.397883e+00	-5.189299e+01
1.590000e-06	-1.164520e-06	-7.011340e-10	-8.079245e+00	-5.137743e+01
1.600000e-06	-1.118579e-06	-6.915865e-10	-7.760518e+00	-5.084536e+01
1.610000e-06	-1.072585e-06	-6.861531e-10	-7.441417e+00	-5.029616e+01
1.620000e-06	-1.026465e-06	-6.841712e-10	-7.121447e+00	-4.972917e+01
1.630000e-06	-9.802685e-07	-6.812250e-10	-6.800941e+00	-4.914367e+01
1.640000e-06	-9.339586e-07	-6.736739e-10	-6.479651e+00	-4.853889e+01
1.650000e-06	-8.876265e-07	-6.609072e-10	-6.158206e+00	-4.791402e+01
1.660000e-06	-8.412883e-07	-6.451904e-10	-5.836720e+00	-4.726819e+01
1.670000e-06	-7.948343e-07	-6.289415e-10	-5.514429e+00	-4.660048e+01
1.680000e-06	-7.483482e-07	-6.142111e-10	-5.191917e+00	-4.590994e+01
1.690000e-06	-7.018179e-07	-6.010340e-10	-4.869097e+00	-4.519557e+01
1.700000e-06	-6.552078e-07	-5.901400e-10	-4.545724e+00	-4.445635e+01
1.710000e-06	-6.085139e-07	-5.824882e-10	-4.221769e+00	-4.369123e+01
1.720000e-06	-5.617040e-07	-5.753566e-10	-3.897010e+00	-4.289915e+01
1.730000e-06	-5.148971e-07	-5.634743e-10	-3.572271e+00	-4.207905e+01
1.740000e-06	-4.681249e-07	-5.479407e-10	-3.247773e+00	-4.122988e+01
1.750000e-06	-4.213155e-07	-5.304730e-10	-2.923017e+00	-4.035059e+01
1.760000e-06	-3.744835e-07	-5.109926e-10	-2.598105e+00	-3.944017e+01
1.770000e-06	-3.276726e-07	-4.932707e-10	-2.273338e+00	-3.849766e+01
1.780000e-06	-2.808275e-07	-4.795597e-10	-1.948335e+00	-3.752215e+01
1.790000e-06	-2.339208e-07	-4.665567e-10	-1.622904e+00	-3.651278e+01
1.800000e-06	-1.870630e-07	-4.538753e-10	-1.297812e+00	-3.546878e+01
1.810000e-06	-1.402065e-07	-4.413687e-10	-9.727296e-01	-3.438947e+01
1.820000e-06	-9.329978e-08	-4.266147e-10	-6.472985e-01	-3.327427e+01
1.830000e-06	-4.636492e-08	-4.095055e-10	-3.216722e-01	-3.212272e+01
1.840000e-06	5.672311e-10	-3.918461e-10	3.935356e-03	-3.093445e+01
1.850000e-06	4.751404e-08	-3.729704e-10	3.296446e-01	-2.970924e+01
1.860000e-06	9.448487e-08	-3.538306e-10	6.555205e-01	-2.844701e+01
1.870000e-06	1.414146e-07	-3.363552e-10	9.811111e-01	-2.714782e+01
1.880000e-06	1.883069e-07	-3.197803e-10	1.306442e+00	-2.581186e+01
1.890000e-06	2.352580e-07	-3.018458e-10	1.632181e+00	-2.443949e+01
1.900000e-06	2.822012e-07	-2.819934e-10	1.957865e+00	-2.303120e+01
1.910000e-06	3.290458e-07	-2.612560e-10	2.282865e+00	-2.158768e+01
1.920000e-06	3.759076e-07	-2.394533e-10	2.607985e+00	-2.010971e+01
1.930000e-06	4.227268e-07	-2.196325e-10	2.932809e+00	-1.859827e+01
1.940000e-06	4.694508e-07	-2.005375e-10	3.256972e+00	-1.705448e+01
1.950000e-06	5.162056e-07	-1.805643e-10	3.581349e+00	-1.547959e+01
1.960000e-06	5.628845e-07	-1.606685e-10	3.905200e+00	-1.387499e+01
1.970000e-06	6.094424e-07	-1.385694e-10	4.228211e+00	-1.224223e+01
1.980000e-06	6.559627e-07	-1.149721e-10	4.550961e+00	-1.058295e+01
1.990000e-06	7.024606e-07	-8.910921e-11	4.873556e+00	-8.898926e+00
2.000000e-06	7.489541e-07	-6.179246e-11	5.196120e+00	-7.192047e+00
2.010000e-06	7.953613e-07	-3.634422e-11	5.518085e+00	-5.464292e+00
2.020000e-06	8.417560e-07	-1.306308e-11	5.839965e+00	-3.717733e+00
2.030000e-06	8.881655e-07	8.582528e-12	6.161945e+00	-1.954517e+00
2.040000e-06	9.344069e-07	2.918250e-11	6.482761e+00	-1.768623e-01
2.050000e-06	9.805079e-07	5.000637e-11	6.802602e+00	1.612958e+00
2.060000e-06	1.026532e-06	7.391384e-11	7.121908e+00	3.412624e+00
2.070000e-06	1.072448e-06	1.014245e-10	7.440470e+00	5.219784e+00
2.080000e-06	1.118302e-06	1.307309e-10	7.758593e+00	7.032062e+00
2.090000e-06	1.164085e-06	1.596627e-10	8.076231e+00	8.847070e+00
2.100000e-06	1.209814e-06	1.869839e-10	8.393492e+00	1.066242e+01
2.110000e-06	1.255495e-06	2.120906e-10	8.710417e+00	1.247573e+01
2.120000e-06	1.301085e-06	2.354993e-10	9.026714e+00	1.428464e+01
2.130000e-06	1.346604e-06	2.580964e-10	9.342515e+00	1.608683e+01
2.140000e-06	1.392037e-06	2.798319e-10	9.657726e+00	1.788001e+01
2.150000e-06	1.437398e-06	3.022275e-10	9.972428e+00	1.966193e+01
2.160000e-06	1.482679e-06	3.259675e-10	1.028658e+01	2.143043e+01
2.170000e-06	1.527848e-06	3.505132e-10	1.059996e+01	2.318338e+01
2.180000e-06	1.572879e-06	3.767720e-10	1.091237e+01	2.491874e+01
2.190000e-06	1.617736e-06	4.024829e-10	1.122359e+01	2.663457e+01
2.200000e-06	1.662533e-06	4.256212e-10	1.153438e+01	2.832899e+01
2.210000e-06	1.707196e-06	4.460033e-10	1.184425e+01	3.000024e+01
2.220000e-06	1.751607e-06	4.666377e-10	1.215236e+01	3.164666e+01
2.230000e-06	1.795896e-06	4.878176e-10	1.245963e+01	3.326668e+01
2.240000e-06	1.840107e-06	5.080637e-10	1.276636e+01	3.485886e+01
2.250000e-06	1.884189e-06	5.283343e-10	1.307219e+01	3.642187e+01
2.260000e-06	1.928196e-06	5.489419e-10	1.337751e+01	3.795450e+01
2.270000e-06	1.972117e-06	5.700197e-10	1.368222e+01	3.945568e+01
2.280000e-06	2.015895e-06	5.912605e-10	1.398595e+01	4.092444e+01
2.290000e-06	2.059585e-06	6.114671e-10	1.428906e+01	4.235995e+01
2.300000e-06	2.103231e-06	6.300767e-10	1.459187e+01	4.376151e+01
2.310000e-06	2.146843e-06	6.472396e-10	1.489444e+01	4.512854e+01
2.320000e-06	2.190373e-06	6.633279e-10	1.519645e+01	4.646060e+01
2.330000e-06	2.233835e-06	6.795190e-10	1.549798e+01	4.775734e+01
2.340000e-06	2.277238e-06	6.965708e-10	1.579910e+01	4.901858e+01
2.350000e-06	2.320486e-06	7.135107e-10	1.609915e+01	5.024421e+01
2.360000e-06	2.363570e-06	7.301786e-10	1.639806e+01	5.143427e+01
2.370000e-06	2.406493e-06	7.468039e-10	1.669585e+01	5.258888e+01
2.380000e-06	2.449156e-06	7.616652e-10	1.699184e+01	5.370828e+01
2.390000e-06	2.491523e-06	7.765147e-10	1.728577e+01	5.479280e+01
2.400000e-06	2.533402e-06	7.912249e-10	1.757632e+01	5.584283e+01
2.410000e-06	2.574736e-06	8.058629e-10	1.786310e+01	5.685888e+01
2.420000e-06	2.615728e-06	8.176822e-10	1.814749e+01	5.784151e+01
2.430000e-06	2.656497e-06	8.270557e-10	1.843034e+01	5.879134e+01
2.440000e-06	2.697021e-06	8.367053e-10	1.871148e+01	5.970904e+01
2.450000e-06	2.737279e-06	8.473561e-10	1.899079e+01	6.059533e+01
2.460000e-06	2.777351e-06	8.590452e-10	1.926880e+01	6.145096e+01
2.470000e-06	2.817234e-06	8.699777e-10	1.954551e+01	6.227669e+01
2.480000e-06	2.856980e-06	8.810878e-10	1.982126e+01	6.307333e+01
2.490000e-06	2.896631e-06	8.923864e-10	2.009635e+01	6.384165e+01
2.500000e-06	2.936201e-06	9.011819e-10	2.037088e+01	6.458245e+01
2.510000e-06	2.975682e-06	9.084369e-10	2.064479e+01	6.529652e+01
2.520000e-06	3.015057e-06	9.163697e-10	2.091797e+01	6.598463e+01
2.530000e-06	3.054238e-06	9.244566e-10	2.118980e+01	6.664751e+01
2.540000e-06	3.093163e-06	9.317906e-10	2.145985e+01	6.728588e+01
2.550000e-06	3.131843e-06	9.383215e-10	2.172821e+01	6.790044e+01
2.560000e-06	3.170294e-06	9.453408e-10	2.199498e+01	6.849184e+01
2.570000e-06	3.208465e-06	9.535275e-10	2.225980e+01	6.906070e+01
2.580000e-06	3.246398e-06	9.641177e-10	2.252297e+01	6.960760e+01
2.590000e-06	3.284145e-06	9.731834e-10	2.278486e+01	7.013309e+01
2.600000e-06	3.321686e-06	9.784604e-10	2.304531e+01	7.063769e+01
2.610000e-06	3.358987e-06	9.834681e-10	2.330410e+01	7.112188e+01
2.620000e-06	3.396044e-06	9.900555e-10	2.356120e+01	7.158610e+01
2.630000e-06	3.432935e-06	9.966193e-10	2.381714e+01	7.203080e+01
2.640000e-06	3.469541e-06	1.000737e-09	2.407111e+01	7.245638e+01
2.650000e-06	3.505822e-06	1.003576e-09	2.432282e+01	7.286322e+01
2.660000e-06	3.541839e-06	1.006099e-09	2.457270e+01	7.325172e+01
2.670000e-06	3.577658e-06	1.010971e-09	2.482120e+01	7.362225e+01
2.680000e-06	3.613368e-06	1.019190e-09	2.506895e+01	7.397519e+01
2.690000e-06	3.648991e-06	1.027455e-09	2.531610e+01	7.431093e+01
2.700000e-06	3.684504e-06	1.034674e-09	2.556248e+01	7.462985e+01
2.710000e-06	3.719901e-06	1.038745e-09	2.580806e+01	7.493238e+01
2.720000e-06	3.755146e-06	1.040259e-09	2.605258e+01	7.521894e+01
2.730000e-06	3.790039e-06	1.040908e-09	2.629466e+01	7.549000e+01
2.740000e-06	3.824471e-06	1.042323e-09	2.653355e+01	7.574603e+01
2.750000e-06	3.858362e-06	1.043266e-09	2.676868e+01	7.598755e+01
2.760000e-06	3.891696e-06	1.045377e-09	2.699994e+01	7.621509e+01
2.770000e-06	3.924604e-06	1.049518e-09	2.722825e+01	7.642922e+01
2.780000e-06	3.957112e-06	1.057010e-09	2.745379e+01	7.663053e+01
2.790000e-06	3.989248e-06	1.067106e-09	2.767674e+01	7.681965e+01
2.800000e-06	4.021146e-06	1.073235e-09	2.789805e+01	7.699719e+01
2.810000e-06	4.052946e-06	1.074794e-09	2.811867e+01	7.716383e+01
2.820000e-06	4.084621e-06	1.075450e-09	2.833843e+01	7.732022e+01
2.830000e-06	4.116121e-06	1.077596e-09	2.855697e+01	7.746703e+01
2.840000e-06	4.147424e-06	1.078989e-09	2.877414e+01	7.760493e+01
2.850000e-06	4.178426e-06	1.079179e-09	2.898923e+01	7.773457e+01
2.860000e-06	4.209064e-06	1.081765e-09	2.920179e+01	7.785660e+01
2.870000e-06	4.239328e-06	1.086371e-09	2.941176e+01	7.797164e+01
2.880000e-06	4.269241e-06	1.090783e-09	2.961929e+01	7.808026e+01
2.890000e-06	4.298876e-06	1.094060e-09	2.982489e+01	7.818303e+01
2.900000e-06	4.328284e-06	1.093299e-09	3.002892e+01	7.828044e+01
