# Temperatura_=_-7.18
# Concentracion g/m^3_=_1620.0
# C_Vs_to_Am_M_A/Vsm_=_65563218390.804596
# pendiente_HvsI_1/m_=_3716.3
# ordenada_HvsI_A/m_=_1297.0
# frecuencia_Hz_=_135102.06820942095

Tiempo_(s)	Campo_(V.s)	Magnetizacion_(V.s)	Campo_(kA/m)	Magnetizacion_(A/m)
0.000000e+00	-5.527481e-06	-1.289193e-09	-3.837429e+01	-8.398107e+01
1.000000e-08	-5.527601e-06	-1.282805e-09	-3.837512e+01	-8.390312e+01
2.000000e-08	-5.527431e-06	-1.279284e-09	-3.837394e+01	-8.382409e+01
3.000000e-08	-5.526942e-06	-1.280357e-09	-3.837055e+01	-8.374430e+01
4.000000e-08	-5.525893e-06	-1.283465e-09	-3.836327e+01	-8.366409e+01
5.000000e-08	-5.524277e-06	-1.282755e-09	-3.835204e+01	-8.358381e+01
6.000000e-08	-5.522164e-06	-1.278536e-09	-3.833738e+01	-8.350381e+01
7.000000e-08	-5.519511e-06	-1.280271e-09	-3.831896e+01	-8.342440e+01
8.000000e-08	-5.516320e-06	-1.295578e-09	-3.829681e+01	-8.334590e+01
9.000000e-08	-5.512608e-06	-1.302881e-09	-3.827103e+01	-8.326860e+01
1.000000e-07	-5.508431e-06	-1.294391e-09	-3.824203e+01	-8.319274e+01
1.100000e-07	-5.503957e-06	-1.266107e-09	-3.821098e+01	-8.311854e+01
1.200000e-07	-5.499298e-06	-1.275448e-09	-3.817863e+01	-8.304617e+01
1.300000e-07	-5.494362e-06	-1.270875e-09	-3.814436e+01	-8.297573e+01
1.400000e-07	-5.489048e-06	-1.282889e-09	-3.810747e+01	-8.290730e+01
1.500000e-07	-5.483355e-06	-1.283961e-09	-3.806795e+01	-8.284086e+01
1.600000e-07	-5.477294e-06	-1.286066e-09	-3.802587e+01	-8.277637e+01
1.700000e-07	-5.470829e-06	-1.267566e-09	-3.798098e+01	-8.271372e+01
1.800000e-07	-5.463943e-06	-1.245661e-09	-3.793318e+01	-8.265271e+01
1.900000e-07	-5.456711e-06	-1.251385e-09	-3.788297e+01	-8.259313e+01
2.000000e-07	-5.449167e-06	-1.262393e-09	-3.783060e+01	-8.253467e+01
2.100000e-07	-5.441337e-06	-1.288934e-09	-3.777624e+01	-8.247700e+01
2.200000e-07	-5.433305e-06	-1.292009e-09	-3.772048e+01	-8.241972e+01
2.300000e-07	-5.424943e-06	-1.291736e-09	-3.766242e+01	-8.236242e+01
2.400000e-07	-5.416095e-06	-1.254425e-09	-3.760100e+01	-8.230462e+01
2.500000e-07	-5.406598e-06	-1.246541e-09	-3.753507e+01	-8.224584e+01
2.600000e-07	-5.396323e-06	-1.249734e-09	-3.746373e+01	-8.218557e+01
2.700000e-07	-5.385518e-06	-1.272414e-09	-3.738872e+01	-8.212330e+01
2.800000e-07	-5.374290e-06	-1.259802e-09	-3.731076e+01	-8.205851e+01
2.900000e-07	-5.362605e-06	-1.254439e-09	-3.722964e+01	-8.199070e+01
3.000000e-07	-5.350541e-06	-1.254233e-09	-3.714589e+01	-8.191938e+01
3.100000e-07	-5.338070e-06	-1.256054e-09	-3.705931e+01	-8.184409e+01
3.200000e-07	-5.325088e-06	-1.231963e-09	-3.696918e+01	-8.176442e+01
3.300000e-07	-5.311702e-06	-1.227973e-09	-3.687625e+01	-8.167998e+01
3.400000e-07	-5.298002e-06	-1.241409e-09	-3.678114e+01	-8.159045e+01
3.500000e-07	-5.283865e-06	-1.245640e-09	-3.668299e+01	-8.149558e+01
3.600000e-07	-5.269313e-06	-1.241815e-09	-3.658197e+01	-8.139515e+01
3.700000e-07	-5.254349e-06	-1.244111e-09	-3.647808e+01	-8.128905e+01
3.800000e-07	-5.238749e-06	-1.232586e-09	-3.636978e+01	-8.117720e+01
3.900000e-07	-5.222607e-06	-1.215458e-09	-3.625772e+01	-8.105964e+01
4.000000e-07	-5.206145e-06	-1.222248e-09	-3.614343e+01	-8.093646e+01
4.100000e-07	-5.189322e-06	-1.224821e-09	-3.602663e+01	-8.080782e+01
4.200000e-07	-5.172151e-06	-1.218627e-09	-3.590743e+01	-8.067397e+01
4.300000e-07	-5.154729e-06	-1.219031e-09	-3.578647e+01	-8.053522e+01
4.400000e-07	-5.137044e-06	-1.226690e-09	-3.566370e+01	-8.039195e+01
4.500000e-07	-5.119009e-06	-1.204167e-09	-3.553849e+01	-8.024460e+01
4.600000e-07	-5.100513e-06	-1.202696e-09	-3.541008e+01	-8.009365e+01
4.700000e-07	-5.081552e-06	-1.211847e-09	-3.527845e+01	-7.993964e+01
4.800000e-07	-5.062241e-06	-1.202151e-09	-3.514438e+01	-7.978313e+01
4.900000e-07	-5.042679e-06	-1.184004e-09	-3.500857e+01	-7.962473e+01
5.000000e-07	-5.022929e-06	-1.206450e-09	-3.487146e+01	-7.946503e+01
5.100000e-07	-5.002855e-06	-1.204161e-09	-3.473210e+01	-7.930466e+01
5.200000e-07	-4.982455e-06	-1.186022e-09	-3.459047e+01	-7.914421e+01
5.300000e-07	-4.961783e-06	-1.191325e-09	-3.444696e+01	-7.898429e+01
5.400000e-07	-4.940772e-06	-1.199592e-09	-3.430109e+01	-7.882546e+01
5.500000e-07	-4.919336e-06	-1.173694e-09	-3.415227e+01	-7.866823e+01
5.600000e-07	-4.897546e-06	-1.178208e-09	-3.400099e+01	-7.851309e+01
5.700000e-07	-4.875471e-06	-1.193821e-09	-3.384774e+01	-7.836045e+01
5.800000e-07	-4.852996e-06	-1.177337e-09	-3.369171e+01	-7.821068e+01
5.900000e-07	-4.830094e-06	-1.164377e-09	-3.353271e+01	-7.806405e+01
6.000000e-07	-4.806886e-06	-1.181104e-09	-3.337159e+01	-7.792078e+01
6.100000e-07	-4.783462e-06	-1.168074e-09	-3.320897e+01	-7.778099e+01
6.200000e-07	-4.759858e-06	-1.143865e-09	-3.304510e+01	-7.764473e+01
6.300000e-07	-4.735997e-06	-1.156326e-09	-3.287944e+01	-7.751195e+01
6.400000e-07	-4.711835e-06	-1.163720e-09	-3.271170e+01	-7.738252e+01
6.500000e-07	-4.687408e-06	-1.144694e-09	-3.254212e+01	-7.725624e+01
6.600000e-07	-4.662481e-06	-1.149182e-09	-3.236906e+01	-7.713281e+01
6.700000e-07	-4.636889e-06	-1.160634e-09	-3.219139e+01	-7.701186e+01
6.800000e-07	-4.610776e-06	-1.141608e-09	-3.201010e+01	-7.689296e+01
6.900000e-07	-4.584178e-06	-1.133204e-09	-3.182545e+01	-7.677560e+01
7.000000e-07	-4.557125e-06	-1.145543e-09	-3.163763e+01	-7.665923e+01
7.100000e-07	-4.529736e-06	-1.140936e-09	-3.144749e+01	-7.654326e+01
7.200000e-07	-4.502097e-06	-1.128486e-09	-3.125560e+01	-7.642704e+01
7.300000e-07	-4.474296e-06	-1.137627e-09	-3.106260e+01	-7.630993e+01
7.400000e-07	-4.446362e-06	-1.135653e-09	-3.086867e+01	-7.619124e+01
7.500000e-07	-4.418240e-06	-1.121086e-09	-3.067343e+01	-7.607032e+01
7.600000e-07	-4.389782e-06	-1.117356e-09	-3.047586e+01	-7.594649e+01
7.700000e-07	-4.360981e-06	-1.122674e-09	-3.027591e+01	-7.581912e+01
7.800000e-07	-4.331894e-06	-1.112714e-09	-3.007398e+01	-7.568761e+01
7.900000e-07	-4.302482e-06	-1.111596e-09	-2.986979e+01	-7.555139e+01
8.000000e-07	-4.272714e-06	-1.118645e-09	-2.966312e+01	-7.540996e+01
8.100000e-07	-4.242653e-06	-1.113601e-09	-2.945442e+01	-7.526287e+01
8.200000e-07	-4.212352e-06	-1.099849e-09	-2.924406e+01	-7.510974e+01
8.300000e-07	-4.181699e-06	-1.100492e-09	-2.903126e+01	-7.495027e+01
8.400000e-07	-4.150702e-06	-1.099680e-09	-2.881606e+01	-7.478424e+01
8.500000e-07	-4.119485e-06	-1.094628e-09	-2.859934e+01	-7.461152e+01
8.600000e-07	-4.088091e-06	-1.093638e-09	-2.838139e+01	-7.443205e+01
8.700000e-07	-4.056548e-06	-1.093589e-09	-2.816240e+01	-7.424587e+01
8.800000e-07	-4.024863e-06	-1.083991e-09	-2.794243e+01	-7.405311e+01
8.900000e-07	-3.993016e-06	-1.079969e-09	-2.772133e+01	-7.385395e+01
9.000000e-07	-3.960906e-06	-1.081594e-09	-2.749841e+01	-7.364869e+01
9.100000e-07	-3.928509e-06	-1.079572e-09	-2.727350e+01	-7.343768e+01
9.200000e-07	-3.895685e-06	-1.075208e-09	-2.704562e+01	-7.322134e+01
9.300000e-07	-3.862363e-06	-1.074870e-09	-2.681428e+01	-7.300014e+01
9.400000e-07	-3.828646e-06	-1.070489e-09	-2.658020e+01	-7.277460e+01
9.500000e-07	-3.794440e-06	-1.061770e-09	-2.634273e+01	-7.254529e+01
9.600000e-07	-3.759789e-06	-1.059267e-09	-2.610217e+01	-7.231279e+01
9.700000e-07	-3.724819e-06	-1.057359e-09	-2.585939e+01	-7.207771e+01
9.800000e-07	-3.689529e-06	-1.050802e-09	-2.561439e+01	-7.184065e+01
9.900000e-07	-3.654010e-06	-1.045046e-09	-2.536780e+01	-7.160221e+01
1.000000e-06	-3.618340e-06	-1.041984e-09	-2.512016e+01	-7.136298e+01
1.010000e-06	-3.582539e-06	-1.036727e-09	-2.487162e+01	-7.112350e+01
1.020000e-06	-3.546637e-06	-1.032685e-09	-2.462237e+01	-7.088428e+01
1.030000e-06	-3.510577e-06	-1.030528e-09	-2.437203e+01	-7.064578e+01
1.040000e-06	-3.474335e-06	-1.028531e-09	-2.412041e+01	-7.040841e+01
1.050000e-06	-3.437829e-06	-1.023341e-09	-2.386697e+01	-7.017249e+01
1.060000e-06	-3.400915e-06	-1.021692e-09	-2.361070e+01	-6.993829e+01
1.070000e-06	-3.363623e-06	-1.018691e-09	-2.335180e+01	-6.970599e+01
1.080000e-06	-3.326133e-06	-1.012933e-09	-2.309153e+01	-6.947569e+01
1.090000e-06	-3.288528e-06	-1.007937e-09	-2.283046e+01	-6.924740e+01
1.100000e-06	-3.250665e-06	-1.005676e-09	-2.256760e+01	-6.902107e+01
1.110000e-06	-3.212480e-06	-9.975828e-10	-2.230250e+01	-6.879653e+01
1.120000e-06	-3.174143e-06	-9.890252e-10	-2.203635e+01	-6.857354e+01
1.130000e-06	-3.135682e-06	-9.846605e-10	-2.176933e+01	-6.835181e+01
1.140000e-06	-3.097015e-06	-9.822325e-10	-2.150088e+01	-6.813094e+01
1.150000e-06	-3.058153e-06	-9.782329e-10	-2.123109e+01	-6.791048e+01
1.160000e-06	-3.019001e-06	-9.763497e-10	-2.095928e+01	-6.768992e+01
1.170000e-06	-2.979503e-06	-9.728190e-10	-2.068507e+01	-6.746869e+01
1.180000e-06	-2.939845e-06	-9.668238e-10	-2.040974e+01	-6.724620e+01
1.190000e-06	-2.900149e-06	-9.622890e-10	-2.013415e+01	-6.702180e+01
1.200000e-06	-2.860388e-06	-9.599756e-10	-1.985812e+01	-6.679482e+01
1.210000e-06	-2.820542e-06	-9.562438e-10	-1.958148e+01	-6.656461e+01
1.220000e-06	-2.780527e-06	-9.501201e-10	-1.930369e+01	-6.633049e+01
1.230000e-06	-2.740307e-06	-9.457046e-10	-1.902446e+01	-6.609179e+01
1.240000e-06	-2.699984e-06	-9.418480e-10	-1.874452e+01	-6.584785e+01
1.250000e-06	-2.659469e-06	-9.368599e-10	-1.846325e+01	-6.559807e+01
1.260000e-06	-2.618627e-06	-9.332943e-10	-1.817970e+01	-6.534185e+01
1.270000e-06	-2.577539e-06	-9.298839e-10	-1.789445e+01	-6.507865e+01
1.280000e-06	-2.536220e-06	-9.238431e-10	-1.760759e+01	-6.480797e+01
1.290000e-06	-2.494594e-06	-9.178130e-10	-1.731861e+01	-6.452936e+01
1.300000e-06	-2.452643e-06	-9.130200e-10	-1.702737e+01	-6.424246e+01
1.310000e-06	-2.410372e-06	-9.071359e-10	-1.673390e+01	-6.394692e+01
1.320000e-06	-2.367796e-06	-9.019315e-10	-1.643832e+01	-6.364248e+01
1.330000e-06	-2.324963e-06	-8.991216e-10	-1.614095e+01	-6.332894e+01
1.340000e-06	-2.281847e-06	-8.966042e-10	-1.584162e+01	-6.300615e+01
1.350000e-06	-2.238468e-06	-8.933626e-10	-1.554046e+01	-6.267402e+01
1.360000e-06	-2.194942e-06	-8.884269e-10	-1.523828e+01	-6.233252e+01
1.370000e-06	-2.151373e-06	-8.801083e-10	-1.493581e+01	-6.198165e+01
1.380000e-06	-2.107733e-06	-8.708414e-10	-1.463284e+01	-6.162145e+01
1.390000e-06	-2.063959e-06	-8.646068e-10	-1.432894e+01	-6.125201e+01
1.400000e-06	-2.020124e-06	-8.605024e-10	-1.402462e+01	-6.087342e+01
1.410000e-06	-1.976248e-06	-8.559040e-10	-1.372001e+01	-6.048579e+01
1.420000e-06	-1.932310e-06	-8.468823e-10	-1.341498e+01	-6.008925e+01
1.430000e-06	-1.888251e-06	-8.398567e-10	-1.310910e+01	-5.968391e+01
1.440000e-06	-1.843997e-06	-8.316862e-10	-1.280186e+01	-5.926987e+01
1.450000e-06	-1.799642e-06	-8.222050e-10	-1.249393e+01	-5.884719e+01
1.460000e-06	-1.755253e-06	-8.134728e-10	-1.218576e+01	-5.841592e+01
1.470000e-06	-1.710778e-06	-8.079108e-10	-1.187700e+01	-5.797604e+01
1.480000e-06	-1.666147e-06	-8.018275e-10	-1.156715e+01	-5.752751e+01
1.490000e-06	-1.621340e-06	-7.933892e-10	-1.125608e+01	-5.707019e+01
1.500000e-06	-1.576379e-06	-7.830867e-10	-1.094394e+01	-5.660391e+01
1.510000e-06	-1.531254e-06	-7.711532e-10	-1.063066e+01	-5.612840e+01
1.520000e-06	-1.486039e-06	-7.591149e-10	-1.031676e+01	-5.564332e+01
1.530000e-06	-1.440710e-06	-7.489633e-10	-1.000206e+01	-5.514826e+01
1.540000e-06	-1.395249e-06	-7.411658e-10	-9.686453e+00	-5.464271e+01
1.550000e-06	-1.349677e-06	-7.346882e-10	-9.370073e+00	-5.412608e+01
1.560000e-06	-1.304038e-06	-7.293125e-10	-9.053225e+00	-5.359769e+01
1.570000e-06	-1.258376e-06	-7.239606e-10	-8.736222e+00	-5.305680e+01
1.580000e-06	-1.212636e-06	-7.166761e-10	-8.418669e+00	-5.250257e+01
1.590000e-06	-1.166801e-06	-7.070334e-10	-8.100462e+00	-5.193409e+01
1.600000e-06	-1.120884e-06	-6.953182e-10	-7.781688e+00	-5.135037e+01
1.610000e-06	-1.074883e-06	-6.835294e-10	-7.462329e+00	-5.075037e+01
1.620000e-06	-1.028797e-06	-6.730665e-10	-7.142379e+00	-5.013298e+01
1.630000e-06	-9.826963e-07	-6.661467e-10	-6.822325e+00	-4.949706e+01
1.640000e-06	-9.365561e-07	-6.632996e-10	-6.501999e+00	-4.884142e+01
1.650000e-06	-8.903192e-07	-6.568324e-10	-6.181001e+00	-4.816483e+01
1.660000e-06	-8.440336e-07	-6.451938e-10	-5.859666e+00	-4.746606e+01
1.670000e-06	-7.976766e-07	-6.291725e-10	-5.537834e+00	-4.674386e+01
1.680000e-06	-7.512840e-07	-6.112530e-10	-5.215755e+00	-4.599697e+01
1.690000e-06	-7.049079e-07	-5.932044e-10	-4.893791e+00	-4.522417e+01
1.700000e-06	-6.584269e-07	-5.772894e-10	-4.571099e+00	-4.442425e+01
1.710000e-06	-6.118741e-07	-5.662450e-10	-4.247908e+00	-4.359601e+01
1.720000e-06	-5.652997e-07	-5.571407e-10	-3.924568e+00	-4.273834e+01
1.730000e-06	-5.186756e-07	-5.454375e-10	-3.600882e+00	-4.185013e+01
1.740000e-06	-4.720085e-07	-5.326477e-10	-3.276898e+00	-4.093037e+01
1.750000e-06	-4.252188e-07	-5.180527e-10	-2.952063e+00	-3.997812e+01
1.760000e-06	-3.784105e-07	-5.002382e-10	-2.627098e+00	-3.899249e+01
1.770000e-06	-3.316024e-07	-4.796931e-10	-2.302135e+00	-3.797271e+01
1.780000e-06	-2.847314e-07	-4.604898e-10	-1.976735e+00	-3.691808e+01
1.790000e-06	-2.378791e-07	-4.443225e-10	-1.651465e+00	-3.582801e+01
1.800000e-06	-1.910514e-07	-4.304475e-10	-1.326365e+00	-3.470201e+01
1.810000e-06	-1.442523e-07	-4.171249e-10	-1.001465e+00	-3.353970e+01
1.820000e-06	-9.750781e-08	-4.020655e-10	-6.769436e-01	-3.234082e+01
1.830000e-06	-5.071272e-08	-3.824772e-10	-3.520708e-01	-3.110520e+01
1.840000e-06	-3.931763e-09	-3.612739e-10	-2.729609e-02	-2.983282e+01
1.850000e-06	4.276364e-08	-3.414453e-10	2.968847e-01	-2.852377e+01
1.860000e-06	8.954607e-08	-3.215982e-10	6.216696e-01	-2.717825e+01
1.870000e-06	1.363892e-07	-3.019858e-10	9.468761e-01	-2.579659e+01
1.880000e-06	1.832433e-07	-2.845711e-10	1.272158e+00	-2.437924e+01
1.890000e-06	2.300227e-07	-2.674544e-10	1.596922e+00	-2.292677e+01
1.900000e-06	2.768533e-07	-2.472285e-10	1.922042e+00	-2.143988e+01
1.910000e-06	3.238361e-07	-2.247693e-10	2.248217e+00	-1.991937e+01
1.920000e-06	3.707617e-07	-2.022854e-10	2.573996e+00	-1.836618e+01
1.930000e-06	4.176066e-07	-1.808012e-10	2.899215e+00	-1.678135e+01
1.940000e-06	4.644356e-07	-1.576802e-10	3.224323e+00	-1.516603e+01
1.950000e-06	5.112183e-07	-1.331492e-10	3.549110e+00	-1.352151e+01
1.960000e-06	5.578893e-07	-1.101566e-10	3.873121e+00	-1.184915e+01
1.970000e-06	6.044764e-07	-8.987816e-11	4.196550e+00	-1.015043e+01
1.980000e-06	6.509698e-07	-6.934337e-11	4.519329e+00	-8.426936e+00
1.990000e-06	6.973597e-07	-4.714320e-11	4.841388e+00	-6.680349e+00
2.000000e-06	7.437116e-07	-2.243484e-11	5.163184e+00	-4.912437e+00
2.010000e-06	7.899859e-07	2.958513e-12	5.484442e+00	-3.125057e+00
2.020000e-06	8.361429e-07	2.960039e-11	5.804885e+00	-1.320149e+00
2.030000e-06	8.823303e-07	5.780289e-11	6.125538e+00	5.002718e-01
2.040000e-06	9.285598e-07	8.576073e-11	6.446484e+00	2.334119e+00
2.050000e-06	9.746477e-07	1.110625e-10	6.766448e+00	4.179245e+00
2.060000e-06	1.020628e-06	1.347232e-10	7.085662e+00	6.033444e+00
2.070000e-06	1.066578e-06	1.568900e-10	7.404667e+00	7.894464e+00
2.080000e-06	1.112466e-06	1.768812e-10	7.723244e+00	9.760012e+00
2.090000e-06	1.158295e-06	1.990721e-10	8.041409e+00	1.162776e+01
2.100000e-06	1.204067e-06	2.263535e-10	8.359184e+00	1.349538e+01
2.110000e-06	1.249788e-06	2.560888e-10	8.676597e+00	1.536049e+01
2.120000e-06	1.295429e-06	2.863592e-10	8.993459e+00	1.722075e+01
2.130000e-06	1.340995e-06	3.167960e-10	9.309797e+00	1.907381e+01
2.140000e-06	1.386516e-06	3.404415e-10	9.625827e+00	2.091733e+01
2.150000e-06	1.431955e-06	3.576594e-10	9.941285e+00	2.274902e+01
2.160000e-06	1.477257e-06	3.761393e-10	1.025579e+01	2.456663e+01
2.170000e-06	1.522333e-06	3.997404e-10	1.056873e+01	2.636794e+01
2.180000e-06	1.567241e-06	4.251130e-10	1.088050e+01	2.815083e+01
2.190000e-06	1.612054e-06	4.527259e-10	1.119162e+01	2.991323e+01
2.200000e-06	1.656749e-06	4.813162e-10	1.150191e+01	3.165316e+01
2.210000e-06	1.701325e-06	5.066742e-10	1.181138e+01	3.336875e+01
2.220000e-06	1.745699e-06	5.279002e-10	1.211944e+01	3.505824e+01
2.230000e-06	1.789972e-06	5.463596e-10	1.242680e+01	3.671995e+01
2.240000e-06	1.834222e-06	5.636430e-10	1.273400e+01	3.835235e+01
2.250000e-06	1.878365e-06	5.817818e-10	1.304046e+01	3.995405e+01
2.260000e-06	1.922385e-06	6.028518e-10	1.334607e+01	4.152379e+01
2.270000e-06	1.966338e-06	6.252800e-10	1.365121e+01	4.306042e+01
2.280000e-06	2.010245e-06	6.474124e-10	1.395603e+01	4.456299e+01
2.290000e-06	2.054092e-06	6.683676e-10	1.426044e+01	4.603066e+01
2.300000e-06	2.097875e-06	6.875237e-10	1.456440e+01	4.746274e+01
2.310000e-06	2.141555e-06	7.043161e-10	1.486765e+01	4.885872e+01
2.320000e-06	2.185174e-06	7.198494e-10	1.517047e+01	5.021820e+01
2.330000e-06	2.228724e-06	7.371855e-10	1.547282e+01	5.154095e+01
2.340000e-06	2.272101e-06	7.562741e-10	1.577396e+01	5.282687e+01
2.350000e-06	2.315262e-06	7.760402e-10	1.607360e+01	5.407601e+01
2.360000e-06	2.358191e-06	7.958565e-10	1.637163e+01	5.528853e+01
2.370000e-06	2.400779e-06	8.130887e-10	1.666730e+01	5.646471e+01
2.380000e-06	2.443051e-06	8.259955e-10	1.696077e+01	5.760496e+01
2.390000e-06	2.485070e-06	8.367532e-10	1.725248e+01	5.870977e+01
2.400000e-06	2.526796e-06	8.492003e-10	1.754217e+01	5.977974e+01
2.410000e-06	2.568268e-06	8.640048e-10	1.783008e+01	6.081555e+01
2.420000e-06	2.609416e-06	8.777272e-10	1.811576e+01	6.181792e+01
2.430000e-06	2.650231e-06	8.900053e-10	1.839911e+01	6.278767e+01
2.440000e-06	2.690839e-06	9.013623e-10	1.868103e+01	6.372563e+01
2.450000e-06	2.731234e-06	9.117263e-10	1.896147e+01	6.463268e+01
2.460000e-06	2.771387e-06	9.227618e-10	1.924023e+01	6.550971e+01
2.470000e-06	2.811371e-06	9.329797e-10	1.951782e+01	6.635763e+01
2.480000e-06	2.851259e-06	9.412596e-10	1.979474e+01	6.717735e+01
2.490000e-06	2.891033e-06	9.502646e-10	2.007087e+01	6.796977e+01
2.500000e-06	2.930700e-06	9.605400e-10	2.034626e+01	6.873575e+01
2.510000e-06	2.970240e-06	9.710540e-10	2.062076e+01	6.947615e+01
2.520000e-06	3.009628e-06	9.820764e-10	2.089421e+01	7.019179e+01
2.530000e-06	3.048842e-06	9.927923e-10	2.116645e+01	7.088343e+01
2.540000e-06	3.087820e-06	1.001411e-09	2.143705e+01	7.155181e+01
2.550000e-06	3.126509e-06	1.008575e-09	2.170565e+01	7.219762e+01
2.560000e-06	3.164864e-06	1.016378e-09	2.197193e+01	7.282148e+01
2.570000e-06	3.202973e-06	1.024902e-09	2.223650e+01	7.342398e+01
2.580000e-06	3.240928e-06	1.033527e-09	2.249999e+01	7.400565e+01
2.590000e-06	3.278703e-06	1.041647e-09	2.276225e+01	7.456699e+01
2.600000e-06	3.316340e-06	1.049590e-09	2.302354e+01	7.510842e+01
2.610000e-06	3.353740e-06	1.056646e-09	2.328319e+01	7.563035e+01
2.620000e-06	3.390792e-06	1.062174e-09	2.354042e+01	7.613315e+01
2.630000e-06	3.427531e-06	1.067580e-09	2.379548e+01	7.661714e+01
2.640000e-06	3.463998e-06	1.075809e-09	2.404865e+01	7.708263e+01
2.650000e-06	3.500285e-06	1.085379e-09	2.430057e+01	7.752992e+01
2.660000e-06	3.536392e-06	1.093010e-09	2.455124e+01	7.795927e+01
2.670000e-06	3.572365e-06	1.099341e-09	2.480098e+01	7.837097e+01
2.680000e-06	3.608251e-06	1.103856e-09	2.505012e+01	7.876528e+01
2.690000e-06	3.643983e-06	1.106320e-09	2.529819e+01	7.914248e+01
2.700000e-06	3.679508e-06	1.109409e-09	2.554482e+01	7.950289e+01
2.710000e-06	3.714844e-06	1.114644e-09	2.579014e+01	7.984680e+01
2.720000e-06	3.749910e-06	1.122140e-09	2.603358e+01	8.017457e+01
2.730000e-06	3.784573e-06	1.130719e-09	2.627423e+01	8.048656e+01
2.740000e-06	3.818841e-06	1.139154e-09	2.651213e+01	8.078320e+01
2.750000e-06	3.852744e-06	1.142999e-09	2.674750e+01	8.106490e+01
2.760000e-06	3.886183e-06	1.142205e-09	2.697965e+01	8.133217e+01
2.770000e-06	3.919029e-06	1.141387e-09	2.720768e+01	8.158551e+01
2.780000e-06	3.951416e-06	1.143113e-09	2.743253e+01	8.182547e+01
2.790000e-06	3.983547e-06	1.148017e-09	2.765560e+01	8.205265e+01
2.800000e-06	4.015523e-06	1.154886e-09	2.787759e+01	8.226766e+01
2.810000e-06	4.047387e-06	1.160896e-09	2.809881e+01	8.247117e+01
2.820000e-06	4.079085e-06	1.164321e-09	2.831886e+01	8.266383e+01
2.830000e-06	4.110629e-06	1.166585e-09	2.853786e+01	8.284634e+01
2.840000e-06	4.141902e-06	1.168289e-09	2.875497e+01	8.301941e+01
2.850000e-06	4.172867e-06	1.167828e-09	2.896994e+01	8.318375e+01
2.860000e-06	4.203549e-06	1.166470e-09	2.918295e+01	8.334007e+01
2.870000e-06	4.233829e-06	1.168216e-09	2.939316e+01	8.348907e+01
2.880000e-06	4.263732e-06	1.171643e-09	2.960077e+01	8.363143e+01
2.890000e-06	4.293370e-06	1.175765e-09	2.980653e+01	8.376782e+01
2.900000e-06	4.322813e-06	1.178377e-09	3.001093e+01	8.389887e+01
