# Temperatura_=_11.99
# Concentracion g/m^3_=_1620.0
# C_Vs_to_Am_M_A/Vsm_=_65563218390.804596
# pendiente_HvsI_1/m_=_3716.3
# ordenada_HvsI_A/m_=_1297.0
# frecuencia_Hz_=_135096.70996217537

Tiempo_(s)	Campo_(V.s)	Magnetizacion_(V.s)	Campo_(kA/m)	Magnetizacion_(A/m)
0.000000e+00	-5.521275e-06	-1.693797e-09	-3.836875e+01	-1.105227e+02
1.000000e-08	-5.521494e-06	-1.688699e-09	-3.837027e+01	-1.104586e+02
2.000000e-08	-5.521532e-06	-1.689219e-09	-3.837054e+01	-1.103954e+02
3.000000e-08	-5.521194e-06	-1.693364e-09	-3.836819e+01	-1.103340e+02
4.000000e-08	-5.520377e-06	-1.697122e-09	-3.836251e+01	-1.102751e+02
5.000000e-08	-5.518984e-06	-1.693223e-09	-3.835282e+01	-1.102191e+02
6.000000e-08	-5.516859e-06	-1.677843e-09	-3.833806e+01	-1.101667e+02
7.000000e-08	-5.514192e-06	-1.664556e-09	-3.831952e+01	-1.101183e+02
8.000000e-08	-5.511085e-06	-1.689324e-09	-3.829794e+01	-1.100740e+02
9.000000e-08	-5.507439e-06	-1.755233e-09	-3.827260e+01	-1.100340e+02
1.000000e-07	-5.503325e-06	-1.759963e-09	-3.824401e+01	-1.099985e+02
1.100000e-07	-5.498873e-06	-1.670796e-09	-3.821307e+01	-1.099671e+02
1.200000e-07	-5.494336e-06	-1.578462e-09	-3.818154e+01	-1.099397e+02
1.300000e-07	-5.489684e-06	-1.651580e-09	-3.814922e+01	-1.099158e+02
1.400000e-07	-5.484565e-06	-1.713065e-09	-3.811364e+01	-1.098948e+02
1.500000e-07	-5.479003e-06	-1.695996e-09	-3.807499e+01	-1.098762e+02
1.600000e-07	-5.473016e-06	-1.614669e-09	-3.803338e+01	-1.098591e+02
1.700000e-07	-5.466627e-06	-1.650056e-09	-3.798899e+01	-1.098426e+02
1.800000e-07	-5.459944e-06	-1.726158e-09	-3.794254e+01	-1.098257e+02
1.900000e-07	-5.452857e-06	-1.703204e-09	-3.789329e+01	-1.098074e+02
2.000000e-07	-5.445383e-06	-1.630947e-09	-3.784135e+01	-1.097866e+02
2.100000e-07	-5.437685e-06	-1.630956e-09	-3.778786e+01	-1.097621e+02
2.200000e-07	-5.429730e-06	-1.704851e-09	-3.773258e+01	-1.097327e+02
2.300000e-07	-5.421419e-06	-1.706375e-09	-3.767482e+01	-1.096974e+02
2.400000e-07	-5.412643e-06	-1.661365e-09	-3.761384e+01	-1.096550e+02
2.500000e-07	-5.403263e-06	-1.637745e-09	-3.754865e+01	-1.096044e+02
2.600000e-07	-5.393285e-06	-1.681161e-09	-3.747932e+01	-1.095447e+02
2.700000e-07	-5.382719e-06	-1.671515e-09	-3.740589e+01	-1.094750e+02
2.800000e-07	-5.371623e-06	-1.653000e-09	-3.732878e+01	-1.093945e+02
2.900000e-07	-5.360059e-06	-1.638461e-09	-3.724842e+01	-1.093026e+02
3.000000e-07	-5.348130e-06	-1.670498e-09	-3.716552e+01	-1.091986e+02
3.100000e-07	-5.335894e-06	-1.655651e-09	-3.708049e+01	-1.090823e+02
3.200000e-07	-5.323225e-06	-1.638156e-09	-3.699245e+01	-1.089534e+02
3.300000e-07	-5.310155e-06	-1.628423e-09	-3.690162e+01	-1.088119e+02
3.400000e-07	-5.296690e-06	-1.664375e-09	-3.680805e+01	-1.086577e+02
3.500000e-07	-5.282781e-06	-1.656812e-09	-3.671139e+01	-1.084912e+02
3.600000e-07	-5.268460e-06	-1.646786e-09	-3.661187e+01	-1.083128e+02
3.700000e-07	-5.253604e-06	-1.647572e-09	-3.650864e+01	-1.081229e+02
3.800000e-07	-5.238193e-06	-1.658791e-09	-3.640154e+01	-1.079223e+02
3.900000e-07	-5.222279e-06	-1.623699e-09	-3.629095e+01	-1.077117e+02
4.000000e-07	-5.205893e-06	-1.618033e-09	-3.617708e+01	-1.074920e+02
4.100000e-07	-5.189258e-06	-1.644343e-09	-3.606148e+01	-1.072642e+02
4.200000e-07	-5.172343e-06	-1.621583e-09	-3.594393e+01	-1.070292e+02
4.300000e-07	-5.155001e-06	-1.588609e-09	-3.582341e+01	-1.067883e+02
4.400000e-07	-5.137340e-06	-1.624940e-09	-3.570069e+01	-1.065424e+02
4.500000e-07	-5.119374e-06	-1.656075e-09	-3.557583e+01	-1.062927e+02
4.600000e-07	-5.101002e-06	-1.595381e-09	-3.544817e+01	-1.060404e+02
4.700000e-07	-5.082161e-06	-1.586016e-09	-3.531724e+01	-1.057864e+02
4.800000e-07	-5.062936e-06	-1.619753e-09	-3.518363e+01	-1.055317e+02
4.900000e-07	-5.043465e-06	-1.599225e-09	-3.504832e+01	-1.052774e+02
5.000000e-07	-5.023786e-06	-1.560505e-09	-3.491157e+01	-1.050243e+02
5.100000e-07	-5.003910e-06	-1.604482e-09	-3.477345e+01	-1.047730e+02
5.200000e-07	-4.983806e-06	-1.596852e-09	-3.463374e+01	-1.045244e+02
5.300000e-07	-4.963328e-06	-1.559942e-09	-3.449143e+01	-1.042788e+02
5.400000e-07	-4.942369e-06	-1.583562e-09	-3.434578e+01	-1.040367e+02
5.500000e-07	-4.921012e-06	-1.611676e-09	-3.419736e+01	-1.037984e+02
5.600000e-07	-4.899390e-06	-1.549966e-09	-3.404711e+01	-1.035639e+02
5.700000e-07	-4.877514e-06	-1.544210e-09	-3.389509e+01	-1.033334e+02
5.800000e-07	-4.855334e-06	-1.579566e-09	-3.374096e+01	-1.031067e+02
5.900000e-07	-4.832748e-06	-1.562176e-09	-3.358400e+01	-1.028835e+02
6.000000e-07	-4.809748e-06	-1.535287e-09	-3.342417e+01	-1.026635e+02
6.100000e-07	-4.786506e-06	-1.569705e-09	-3.326265e+01	-1.024463e+02
6.200000e-07	-4.763009e-06	-1.560199e-09	-3.309936e+01	-1.022313e+02
6.300000e-07	-4.739279e-06	-1.527451e-09	-3.293446e+01	-1.020180e+02
6.400000e-07	-4.715261e-06	-1.537780e-09	-3.276755e+01	-1.018056e+02
6.500000e-07	-4.690839e-06	-1.546032e-09	-3.259784e+01	-1.015936e+02
6.600000e-07	-4.665959e-06	-1.520673e-09	-3.242494e+01	-1.013810e+02
6.700000e-07	-4.640638e-06	-1.529200e-09	-3.224897e+01	-1.011673e+02
6.800000e-07	-4.614883e-06	-1.543744e-09	-3.207000e+01	-1.009516e+02
6.900000e-07	-4.588599e-06	-1.522552e-09	-3.188734e+01	-1.007332e+02
7.000000e-07	-4.561805e-06	-1.512864e-09	-3.170115e+01	-1.005115e+02
7.100000e-07	-4.534616e-06	-1.519670e-09	-3.151220e+01	-1.002857e+02
7.200000e-07	-4.507150e-06	-1.504123e-09	-3.132133e+01	-1.000553e+02
7.300000e-07	-4.479446e-06	-1.488962e-09	-3.112881e+01	-9.981979e+01
7.400000e-07	-4.451598e-06	-1.499251e-09	-3.093529e+01	-9.957859e+01
7.500000e-07	-4.423564e-06	-1.494549e-09	-3.074047e+01	-9.933135e+01
7.600000e-07	-4.395241e-06	-1.483836e-09	-3.054365e+01	-9.907773e+01
7.700000e-07	-4.366621e-06	-1.481976e-09	-3.034477e+01	-9.881750e+01
7.800000e-07	-4.337704e-06	-1.480447e-09	-3.014381e+01	-9.855047e+01
7.900000e-07	-4.308494e-06	-1.465590e-09	-2.994082e+01	-9.827654e+01
8.000000e-07	-4.278934e-06	-1.464858e-09	-2.973540e+01	-9.799569e+01
8.100000e-07	-4.249018e-06	-1.457360e-09	-2.952751e+01	-9.770794e+01
8.200000e-07	-4.218818e-06	-1.442076e-09	-2.931764e+01	-9.741339e+01
8.300000e-07	-4.188422e-06	-1.431716e-09	-2.910641e+01	-9.711216e+01
8.400000e-07	-4.157850e-06	-1.436643e-09	-2.889396e+01	-9.680445e+01
8.500000e-07	-4.126953e-06	-1.429733e-09	-2.867925e+01	-9.649046e+01
8.600000e-07	-4.095710e-06	-1.426553e-09	-2.846214e+01	-9.617041e+01
8.700000e-07	-4.064256e-06	-1.426909e-09	-2.824355e+01	-9.584456e+01
8.800000e-07	-4.032632e-06	-1.420804e-09	-2.802379e+01	-9.551315e+01
8.900000e-07	-4.000764e-06	-1.403643e-09	-2.780233e+01	-9.517643e+01
9.000000e-07	-3.968680e-06	-1.398901e-09	-2.757937e+01	-9.483463e+01
9.100000e-07	-3.936340e-06	-1.391438e-09	-2.735463e+01	-9.448796e+01
9.200000e-07	-3.903653e-06	-1.379926e-09	-2.712748e+01	-9.413662e+01
9.300000e-07	-3.870611e-06	-1.376648e-09	-2.689787e+01	-9.378077e+01
9.400000e-07	-3.837152e-06	-1.380775e-09	-2.666534e+01	-9.342054e+01
9.500000e-07	-3.803220e-06	-1.373750e-09	-2.642955e+01	-9.305604e+01
9.600000e-07	-3.768748e-06	-1.366308e-09	-2.618999e+01	-9.268733e+01
9.700000e-07	-3.733855e-06	-1.361658e-09	-2.594751e+01	-9.231445e+01
9.800000e-07	-3.698682e-06	-1.350493e-09	-2.570308e+01	-9.193740e+01
9.900000e-07	-3.663248e-06	-1.336792e-09	-2.545684e+01	-9.155617e+01
1.000000e-06	-3.627621e-06	-1.328470e-09	-2.520927e+01	-9.117072e+01
1.010000e-06	-3.591851e-06	-1.323885e-09	-2.496069e+01	-9.078099e+01
1.020000e-06	-3.555912e-06	-1.317450e-09	-2.471094e+01	-9.038690e+01
1.030000e-06	-3.519835e-06	-1.317362e-09	-2.446023e+01	-8.998839e+01
1.040000e-06	-3.483643e-06	-1.317086e-09	-2.420873e+01	-8.958538e+01
1.050000e-06	-3.447236e-06	-1.309264e-09	-2.395572e+01	-8.917780e+01
1.060000e-06	-3.410463e-06	-1.296536e-09	-2.370017e+01	-8.876560e+01
1.070000e-06	-3.373292e-06	-1.289732e-09	-2.344186e+01	-8.834872e+01
1.080000e-06	-3.335878e-06	-1.279534e-09	-2.318187e+01	-8.792715e+01
1.090000e-06	-3.298336e-06	-1.270079e-09	-2.292098e+01	-8.750090e+01
1.100000e-06	-3.260629e-06	-1.265154e-09	-2.265894e+01	-8.707000e+01
1.110000e-06	-3.222700e-06	-1.262799e-09	-2.239536e+01	-8.663450e+01
1.120000e-06	-3.184568e-06	-1.253059e-09	-2.213038e+01	-8.619449e+01
1.130000e-06	-3.146202e-06	-1.245244e-09	-2.186376e+01	-8.575008e+01
1.140000e-06	-3.107520e-06	-1.236309e-09	-2.159495e+01	-8.530142e+01
1.150000e-06	-3.068630e-06	-1.227342e-09	-2.132469e+01	-8.484866e+01
1.160000e-06	-3.029526e-06	-1.217672e-09	-2.105295e+01	-8.439197e+01
1.170000e-06	-2.990246e-06	-1.211453e-09	-2.077998e+01	-8.393154e+01
1.180000e-06	-2.950927e-06	-1.205768e-09	-2.050674e+01	-8.346755e+01
1.190000e-06	-2.911471e-06	-1.202764e-09	-2.023256e+01	-8.300020e+01
1.200000e-06	-2.871780e-06	-1.197472e-09	-1.995673e+01	-8.252966e+01
1.210000e-06	-2.831926e-06	-1.188637e-09	-1.967977e+01	-8.205608e+01
1.220000e-06	-2.791939e-06	-1.176274e-09	-1.940190e+01	-8.157958e+01
1.230000e-06	-2.751780e-06	-1.166805e-09	-1.912282e+01	-8.110025e+01
1.240000e-06	-2.711510e-06	-1.160501e-09	-1.884298e+01	-8.061815e+01
1.250000e-06	-2.671088e-06	-1.153001e-09	-1.856207e+01	-8.013326e+01
1.260000e-06	-2.630412e-06	-1.146545e-09	-1.827940e+01	-7.964552e+01
1.270000e-06	-2.589464e-06	-1.141443e-09	-1.799484e+01	-7.915480e+01
1.280000e-06	-2.548311e-06	-1.133877e-09	-1.770886e+01	-7.866091e+01
1.290000e-06	-2.506907e-06	-1.123304e-09	-1.742114e+01	-7.816358e+01
1.300000e-06	-2.465146e-06	-1.111306e-09	-1.713093e+01	-7.766247e+01
1.310000e-06	-2.423065e-06	-1.099381e-09	-1.683850e+01	-7.715718e+01
1.320000e-06	-2.380670e-06	-1.089275e-09	-1.654388e+01	-7.664722e+01
1.330000e-06	-2.338002e-06	-1.080140e-09	-1.624737e+01	-7.613205e+01
1.340000e-06	-2.295026e-06	-1.072025e-09	-1.594872e+01	-7.561104e+01
1.350000e-06	-2.251770e-06	-1.065882e-09	-1.564812e+01	-7.508353e+01
1.360000e-06	-2.208377e-06	-1.060643e-09	-1.534658e+01	-7.454880e+01
1.370000e-06	-2.164907e-06	-1.051609e-09	-1.504449e+01	-7.400608e+01
1.380000e-06	-2.121344e-06	-1.039685e-09	-1.474176e+01	-7.345456e+01
1.390000e-06	-2.077657e-06	-1.026205e-09	-1.443816e+01	-7.289342e+01
1.400000e-06	-2.033900e-06	-1.014555e-09	-1.413409e+01	-7.232183e+01
1.410000e-06	-1.990078e-06	-1.002755e-09	-1.382956e+01	-7.173893e+01
1.420000e-06	-1.946171e-06	-9.914780e-10	-1.352444e+01	-7.114388e+01
1.430000e-06	-1.902124e-06	-9.800519e-10	-1.321834e+01	-7.053586e+01
1.440000e-06	-1.858011e-06	-9.706990e-10	-1.291179e+01	-6.991408e+01
1.450000e-06	-1.813913e-06	-9.597665e-10	-1.260535e+01	-6.927775e+01
1.460000e-06	-1.769668e-06	-9.483339e-10	-1.229787e+01	-6.862616e+01
1.470000e-06	-1.725203e-06	-9.345240e-10	-1.198888e+01	-6.795862e+01
1.480000e-06	-1.680535e-06	-9.205039e-10	-1.167846e+01	-6.727452e+01
1.490000e-06	-1.635742e-06	-9.059114e-10	-1.136719e+01	-6.657326e+01
1.500000e-06	-1.590899e-06	-8.889602e-10	-1.105556e+01	-6.585434e+01
1.510000e-06	-1.545902e-06	-8.712463e-10	-1.074287e+01	-6.511730e+01
1.520000e-06	-1.500773e-06	-8.586953e-10	-1.042925e+01	-6.436173e+01
1.530000e-06	-1.455537e-06	-8.490641e-10	-1.011490e+01	-6.358727e+01
1.540000e-06	-1.410205e-06	-8.385478e-10	-9.799875e+00	-6.279362e+01
1.550000e-06	-1.364833e-06	-8.256453e-10	-9.484573e+00	-6.198051e+01
1.560000e-06	-1.319300e-06	-8.118788e-10	-9.168149e+00	-6.114770e+01
1.570000e-06	-1.273614e-06	-7.988569e-10	-8.850667e+00	-6.029497e+01
1.580000e-06	-1.227929e-06	-7.856296e-10	-8.533195e+00	-5.942213e+01
1.590000e-06	-1.182222e-06	-7.704322e-10	-8.215560e+00	-5.852897e+01
1.600000e-06	-1.136377e-06	-7.571230e-10	-7.896974e+00	-5.761530e+01
1.610000e-06	-1.090434e-06	-7.481326e-10	-7.577701e+00	-5.668088e+01
1.620000e-06	-1.044469e-06	-7.386161e-10	-7.258282e+00	-5.572545e+01
1.630000e-06	-9.983896e-07	-7.269287e-10	-6.938064e+00	-5.474873e+01
1.640000e-06	-9.522816e-07	-7.111557e-10	-6.617648e+00	-5.375036e+01
1.650000e-06	-9.061391e-07	-6.935915e-10	-6.296992e+00	-5.272996e+01
1.660000e-06	-8.599028e-07	-6.742958e-10	-5.975684e+00	-5.168705e+01
1.670000e-06	-8.136385e-07	-6.555372e-10	-5.654181e+00	-5.062109e+01
1.680000e-06	-7.673241e-07	-6.404444e-10	-5.332331e+00	-4.953150e+01
1.690000e-06	-7.209322e-07	-6.276561e-10	-5.009942e+00	-4.841758e+01
1.700000e-06	-6.744937e-07	-6.116119e-10	-4.687229e+00	-4.727860e+01
1.710000e-06	-6.280013e-07	-5.939706e-10	-4.364141e+00	-4.611374e+01
1.720000e-06	-5.814439e-07	-5.753335e-10	-4.040602e+00	-4.492211e+01
1.730000e-06	-5.348550e-07	-5.555828e-10	-3.716844e+00	-4.370280e+01
1.740000e-06	-4.882660e-07	-5.348796e-10	-3.393085e+00	-4.245481e+01
1.750000e-06	-4.416524e-07	-5.145869e-10	-3.069155e+00	-4.117715e+01
1.760000e-06	-3.947965e-07	-4.931582e-10	-2.743541e+00	-3.986878e+01
1.770000e-06	-3.478931e-07	-4.713178e-10	-2.417598e+00	-3.852869e+01
1.780000e-06	-3.010441e-07	-4.517975e-10	-2.092032e+00	-3.715584e+01
1.790000e-06	-2.541522e-07	-4.335209e-10	-1.766168e+00	-3.574927e+01
1.800000e-06	-2.072945e-07	-4.146521e-10	-1.440542e+00	-3.430804e+01
1.810000e-06	-1.604572e-07	-3.959248e-10	-1.115058e+00	-3.283129e+01
1.820000e-06	-1.136561e-07	-3.755453e-10	-7.898252e-01	-3.131826e+01
1.830000e-06	-6.682352e-08	-3.526537e-10	-4.643737e-01	-2.976830e+01
1.840000e-06	-1.997244e-08	-3.299190e-10	-1.387936e-01	-2.818087e+01
1.850000e-06	2.684628e-08	-3.082026e-10	1.865617e-01	-2.655559e+01
1.860000e-06	7.362382e-08	-2.855902e-10	5.116307e-01	-2.489226e+01
1.870000e-06	1.203439e-07	-2.619551e-10	8.363003e-01	-2.319084e+01
1.880000e-06	1.671045e-07	-2.390596e-10	1.161252e+00	-2.145148e+01
1.890000e-06	2.140088e-07	-2.154395e-10	1.487202e+00	-1.967454e+01
1.900000e-06	2.608503e-07	-1.898730e-10	1.812715e+00	-1.786059e+01
1.910000e-06	3.075922e-07	-1.616769e-10	2.137536e+00	-1.601043e+01
1.920000e-06	3.542846e-07	-1.319200e-10	2.462014e+00	-1.412506e+01
1.930000e-06	4.009008e-07	-1.022848e-10	2.785962e+00	-1.220571e+01
1.940000e-06	4.476125e-07	-7.485795e-11	3.110573e+00	-1.025383e+01
1.950000e-06	4.942945e-07	-4.802085e-11	3.434978e+00	-8.271085e+00
1.960000e-06	5.408139e-07	-2.209552e-11	3.758254e+00	-6.259347e+00
1.970000e-06	5.872860e-07	3.548717e-12	4.081200e+00	-4.220678e+00
1.980000e-06	6.337632e-07	3.133252e-11	4.404182e+00	-2.157329e+00
1.990000e-06	6.802124e-07	6.278038e-11	4.726969e+00	-7.171330e-02
2.000000e-06	7.265674e-07	9.752987e-11	5.049102e+00	2.033601e+00
2.010000e-06	7.729622e-07	1.322775e-10	5.371511e+00	4.155916e+00
2.020000e-06	8.193576e-07	1.641276e-10	5.693925e+00	6.292421e+00
2.030000e-06	8.656483e-07	1.931576e-10	6.015611e+00	8.440216e+00
2.040000e-06	9.118469e-07	2.208534e-10	6.336657e+00	1.059633e+01
2.050000e-06	9.578512e-07	2.491323e-10	6.656352e+00	1.275776e+01
2.060000e-06	1.003751e-06	2.781450e-10	6.975324e+00	1.492145e+01
2.070000e-06	1.049668e-06	3.105449e-10	7.294411e+00	1.708438e+01
2.080000e-06	1.095582e-06	3.451925e-10	7.613482e+00	1.924352e+01
2.090000e-06	1.141433e-06	3.778693e-10	7.932106e+00	2.139591e+01
2.100000e-06	1.187182e-06	4.080927e-10	8.250028e+00	2.353863e+01
2.110000e-06	1.232792e-06	4.373252e-10	8.566984e+00	2.566886e+01
2.120000e-06	1.278239e-06	4.671687e-10	8.882809e+00	2.778387e+01
2.130000e-06	1.323638e-06	4.970056e-10	9.198297e+00	2.988104e+01
2.140000e-06	1.369054e-06	5.255799e-10	9.513909e+00	3.195789e+01
2.150000e-06	1.414425e-06	5.518613e-10	9.829201e+00	3.401206e+01
2.160000e-06	1.459684e-06	5.783411e-10	1.014372e+01	3.604138e+01
2.170000e-06	1.504796e-06	6.071538e-10	1.045721e+01	3.804379e+01
2.180000e-06	1.549731e-06	6.380063e-10	1.076947e+01	4.001742e+01
2.190000e-06	1.594587e-06	6.684681e-10	1.108119e+01	4.196057e+01
2.200000e-06	1.639335e-06	6.949719e-10	1.139216e+01	4.387169e+01
2.210000e-06	1.683912e-06	7.205980e-10	1.170193e+01	4.574941e+01
2.220000e-06	1.728346e-06	7.452144e-10	1.201072e+01	4.759254e+01
2.230000e-06	1.772587e-06	7.697000e-10	1.231816e+01	4.940003e+01
2.240000e-06	1.816708e-06	7.923976e-10	1.262477e+01	5.117100e+01
2.250000e-06	1.860765e-06	8.137274e-10	1.293093e+01	5.290473e+01
2.260000e-06	1.904766e-06	8.343883e-10	1.323671e+01	5.460063e+01
2.270000e-06	1.948664e-06	8.534105e-10	1.354177e+01	5.625828e+01
2.280000e-06	1.992443e-06	8.716622e-10	1.384599e+01	5.787736e+01
2.290000e-06	2.036146e-06	8.891970e-10	1.414970e+01	5.945768e+01
2.300000e-06	2.079794e-06	9.086032e-10	1.445302e+01	6.099919e+01
2.310000e-06	2.123447e-06	9.305682e-10	1.475638e+01	6.250190e+01
2.320000e-06	2.167098e-06	9.540918e-10	1.505972e+01	6.396595e+01
2.330000e-06	2.210675e-06	9.780601e-10	1.536254e+01	6.539157e+01
2.340000e-06	2.254117e-06	9.991768e-10	1.566443e+01	6.677903e+01
2.350000e-06	2.297355e-06	1.015897e-09	1.596491e+01	6.812872e+01
2.360000e-06	2.340400e-06	1.030474e-09	1.626404e+01	6.944106e+01
2.370000e-06	2.383132e-06	1.044185e-09	1.656099e+01	7.071653e+01
2.380000e-06	2.425499e-06	1.058765e-09	1.685541e+01	7.195566e+01
2.390000e-06	2.467588e-06	1.073374e-09	1.714790e+01	7.315903e+01
2.400000e-06	2.509407e-06	1.089983e-09	1.743851e+01	7.432726e+01
2.410000e-06	2.550905e-06	1.107938e-09	1.772689e+01	7.546097e+01
2.420000e-06	2.592108e-06	1.124993e-09	1.801322e+01	7.656085e+01
2.430000e-06	2.633015e-06	1.138220e-09	1.829749e+01	7.762758e+01
2.440000e-06	2.673628e-06	1.148552e-09	1.857972e+01	7.866187e+01
2.450000e-06	2.714034e-06	1.158474e-09	1.886051e+01	7.966445e+01
2.460000e-06	2.754227e-06	1.170603e-09	1.913983e+01	8.063606e+01
2.470000e-06	2.794204e-06	1.185104e-09	1.941764e+01	8.157744e+01
2.480000e-06	2.834040e-06	1.199691e-09	1.969446e+01	8.248936e+01
2.490000e-06	2.873811e-06	1.211578e-09	1.997085e+01	8.337256e+01
2.500000e-06	2.913471e-06	1.221871e-09	2.024645e+01	8.422783e+01
2.510000e-06	2.952976e-06	1.231308e-09	2.052099e+01	8.505591e+01
2.520000e-06	2.992376e-06	1.240487e-09	2.079478e+01	8.585759e+01
2.530000e-06	3.031608e-06	1.248995e-09	2.106742e+01	8.663362e+01
2.540000e-06	3.070556e-06	1.258012e-09	2.133808e+01	8.738477e+01
2.550000e-06	3.109189e-06	1.267763e-09	2.160655e+01	8.811180e+01
2.560000e-06	3.147580e-06	1.277123e-09	2.187334e+01	8.881547e+01
2.570000e-06	3.185835e-06	1.286926e-09	2.213918e+01	8.949651e+01
2.580000e-06	3.223930e-06	1.295780e-09	2.240391e+01	9.015569e+01
2.590000e-06	3.261854e-06	1.303815e-09	2.266745e+01	9.079372e+01
2.600000e-06	3.299538e-06	1.310139e-09	2.292933e+01	9.141134e+01
2.610000e-06	3.336968e-06	1.316806e-09	2.318944e+01	9.200927e+01
2.620000e-06	3.374184e-06	1.325430e-09	2.344806e+01	9.258822e+01
2.630000e-06	3.411096e-06	1.334173e-09	2.370458e+01	9.314888e+01
2.640000e-06	3.447746e-06	1.344676e-09	2.395926e+01	9.369197e+01
2.650000e-06	3.484148e-06	1.355774e-09	2.421223e+01	9.421814e+01
2.660000e-06	3.520306e-06	1.363934e-09	2.446350e+01	9.472810e+01
2.670000e-06	3.556252e-06	1.373714e-09	2.471330e+01	9.522249e+01
2.680000e-06	3.592043e-06	1.381682e-09	2.496202e+01	9.570199e+01
2.690000e-06	3.627745e-06	1.388188e-09	2.521012e+01	9.616724e+01
2.700000e-06	3.663366e-06	1.391804e-09	2.545766e+01	9.661890e+01
2.710000e-06	3.698846e-06	1.395501e-09	2.570423e+01	9.705759e+01
2.720000e-06	3.734056e-06	1.401920e-09	2.594891e+01	9.748395e+01
2.730000e-06	3.768887e-06	1.410381e-09	2.619095e+01	9.789862e+01
2.740000e-06	3.803311e-06	1.422310e-09	2.643017e+01	9.830219e+01
2.750000e-06	3.837265e-06	1.433965e-09	2.666613e+01	9.869529e+01
2.760000e-06	3.870718e-06	1.441016e-09	2.689861e+01	9.907852e+01
2.770000e-06	3.903743e-06	1.442197e-09	2.712811e+01	9.945247e+01
2.780000e-06	3.936334e-06	1.444955e-09	2.735459e+01	9.981773e+01
2.790000e-06	3.968583e-06	1.449631e-09	2.757869e+01	1.001749e+02
2.800000e-06	4.000630e-06	1.457102e-09	2.780140e+01	1.005244e+02
2.810000e-06	4.032517e-06	1.466370e-09	2.802299e+01	1.008669e+02
2.820000e-06	4.064265e-06	1.473809e-09	2.824361e+01	1.012029e+02
2.830000e-06	4.095824e-06	1.482125e-09	2.846292e+01	1.015329e+02
2.840000e-06	4.127148e-06	1.490389e-09	2.868061e+01	1.018573e+02
2.850000e-06	4.158162e-06	1.495255e-09	2.889613e+01	1.021766e+02
2.860000e-06	4.188812e-06	1.495066e-09	2.910912e+01	1.024911e+02
2.870000e-06	4.219196e-06	1.493763e-09	2.932027e+01	1.028012e+02
2.880000e-06	4.249336e-06	1.497195e-09	2.952972e+01	1.031073e+02
2.890000e-06	4.279168e-06	1.501226e-09	2.973703e+01	1.034096e+02
2.900000e-06	4.308725e-06	1.508233e-09	2.994243e+01	1.037083e+02
