# Temperatura_=_-10.8
# Concentracion g/m^3_=_1620.0
# C_Vs_to_Am_M_A/Vsm_=_65563218390.804596
# pendiente_HvsI_1/m_=_3716.3
# ordenada_HvsI_A/m_=_1297.0
# frecuencia_Hz_=_135105.42540036095

Tiempo_(s)	Campo_(V.s)	Magnetizacion_(V.s)	Campo_(kA/m)	Magnetizacion_(A/m)
0.000000e+00	-5.521933e-06	-1.107541e-09	-3.837648e+01	-7.224545e+01
1.000000e-08	-5.522187e-06	-1.103232e-09	-3.837825e+01	-7.221025e+01
2.000000e-08	-5.522296e-06	-1.098678e-09	-3.837900e+01	-7.217946e+01
3.000000e-08	-5.522139e-06	-1.096335e-09	-3.837791e+01	-7.215333e+01
4.000000e-08	-5.521538e-06	-1.094963e-09	-3.837373e+01	-7.213203e+01
5.000000e-08	-5.520422e-06	-1.094217e-09	-3.836598e+01	-7.211559e+01
6.000000e-08	-5.518744e-06	-1.089401e-09	-3.835431e+01	-7.210396e+01
7.000000e-08	-5.516419e-06	-1.086162e-09	-3.833816e+01	-7.209692e+01
8.000000e-08	-5.513549e-06	-1.109210e-09	-3.831821e+01	-7.209416e+01
9.000000e-08	-5.510184e-06	-1.115876e-09	-3.829483e+01	-7.209524e+01
1.000000e-07	-5.506338e-06	-1.071720e-09	-3.826810e+01	-7.209959e+01
1.100000e-07	-5.502180e-06	-1.081145e-09	-3.823920e+01	-7.210656e+01
1.200000e-07	-5.497805e-06	-1.117764e-09	-3.820879e+01	-7.211538e+01
1.300000e-07	-5.493101e-06	-1.080288e-09	-3.817610e+01	-7.212521e+01
1.400000e-07	-5.488028e-06	-1.044096e-09	-3.814085e+01	-7.213514e+01
1.500000e-07	-5.482589e-06	-1.052702e-09	-3.810304e+01	-7.214419e+01
1.600000e-07	-5.476714e-06	-1.125244e-09	-3.806221e+01	-7.215137e+01
1.700000e-07	-5.470453e-06	-1.087404e-09	-3.801870e+01	-7.215568e+01
1.800000e-07	-5.463877e-06	-1.061102e-09	-3.797300e+01	-7.215610e+01
1.900000e-07	-5.456939e-06	-1.107529e-09	-3.792478e+01	-7.215165e+01
2.000000e-07	-5.449549e-06	-1.142810e-09	-3.787342e+01	-7.214141e+01
2.100000e-07	-5.441811e-06	-1.087323e-09	-3.781964e+01	-7.212450e+01
2.200000e-07	-5.433870e-06	-1.044795e-09	-3.776446e+01	-7.210014e+01
2.300000e-07	-5.425646e-06	-1.085443e-09	-3.770730e+01	-7.206766e+01
2.400000e-07	-5.416932e-06	-1.115173e-09	-3.764674e+01	-7.202648e+01
2.500000e-07	-5.407717e-06	-1.095573e-09	-3.758270e+01	-7.197616e+01
2.600000e-07	-5.398030e-06	-1.069363e-09	-3.751538e+01	-7.191641e+01
2.700000e-07	-5.387703e-06	-1.089886e-09	-3.744361e+01	-7.184707e+01
2.800000e-07	-5.376713e-06	-1.087539e-09	-3.736723e+01	-7.176812e+01
2.900000e-07	-5.365241e-06	-1.077741e-09	-3.728750e+01	-7.167972e+01
3.000000e-07	-5.353397e-06	-1.058755e-09	-3.720518e+01	-7.158215e+01
3.100000e-07	-5.341201e-06	-1.072481e-09	-3.712043e+01	-7.147586e+01
3.200000e-07	-5.328600e-06	-1.076121e-09	-3.703285e+01	-7.136142e+01
3.300000e-07	-5.315597e-06	-1.090429e-09	-3.694248e+01	-7.123952e+01
3.400000e-07	-5.302218e-06	-1.073187e-09	-3.684950e+01	-7.111099e+01
3.500000e-07	-5.288438e-06	-1.073796e-09	-3.675373e+01	-7.097674e+01
3.600000e-07	-5.274253e-06	-1.088652e-09	-3.665514e+01	-7.083777e+01
3.700000e-07	-5.259615e-06	-1.075111e-09	-3.655342e+01	-7.069514e+01
3.800000e-07	-5.244356e-06	-1.029908e-09	-3.644737e+01	-7.054995e+01
3.900000e-07	-5.228582e-06	-1.068198e-09	-3.633774e+01	-7.040335e+01
4.000000e-07	-5.212402e-06	-1.108820e-09	-3.622529e+01	-7.025647e+01
4.100000e-07	-5.195759e-06	-1.046950e-09	-3.610963e+01	-7.011042e+01
4.200000e-07	-5.178693e-06	-1.025544e-09	-3.599102e+01	-6.996631e+01
4.300000e-07	-5.161405e-06	-1.104491e-09	-3.587087e+01	-6.982514e+01
4.400000e-07	-5.143950e-06	-1.077824e-09	-3.574956e+01	-6.968790e+01
4.500000e-07	-5.126037e-06	-9.962955e-10	-3.562507e+01	-6.955544e+01
4.600000e-07	-5.107728e-06	-1.064235e-09	-3.549782e+01	-6.942853e+01
4.700000e-07	-5.089036e-06	-1.107721e-09	-3.536792e+01	-6.930784e+01
4.800000e-07	-5.069929e-06	-1.005849e-09	-3.523513e+01	-6.919388e+01
4.900000e-07	-5.050603e-06	-1.011364e-09	-3.510082e+01	-6.908707e+01
5.000000e-07	-5.031055e-06	-1.108585e-09	-3.496496e+01	-6.898767e+01
5.100000e-07	-5.011251e-06	-1.046325e-09	-3.482733e+01	-6.889581e+01
5.200000e-07	-4.991124e-06	-9.936010e-10	-3.468745e+01	-6.881149e+01
5.300000e-07	-4.970724e-06	-1.082836e-09	-3.454567e+01	-6.873457e+01
5.400000e-07	-4.950031e-06	-1.074820e-09	-3.440186e+01	-6.866480e+01
5.500000e-07	-4.928933e-06	-9.902706e-10	-3.425523e+01	-6.860180e+01
5.600000e-07	-4.907439e-06	-1.054604e-09	-3.410585e+01	-6.854510e+01
5.700000e-07	-4.885511e-06	-1.085033e-09	-3.395346e+01	-6.849411e+01
5.800000e-07	-4.863175e-06	-9.948504e-10	-3.379823e+01	-6.844820e+01
5.900000e-07	-4.840556e-06	-1.012245e-09	-3.364103e+01	-6.840664e+01
6.000000e-07	-4.817726e-06	-1.086010e-09	-3.348237e+01	-6.836867e+01
6.100000e-07	-4.794570e-06	-1.025776e-09	-3.332144e+01	-6.833349e+01
6.200000e-07	-4.771125e-06	-9.999318e-10	-3.315849e+01	-6.830028e+01
6.300000e-07	-4.747455e-06	-1.059335e-09	-3.299399e+01	-6.826822e+01
6.400000e-07	-4.723543e-06	-1.039177e-09	-3.282781e+01	-6.823652e+01
6.500000e-07	-4.699326e-06	-9.954800e-10	-3.265951e+01	-6.820440e+01
6.600000e-07	-4.674752e-06	-1.040126e-09	-3.248872e+01	-6.817112e+01
6.700000e-07	-4.649796e-06	-1.047667e-09	-3.231528e+01	-6.813601e+01
6.800000e-07	-4.624254e-06	-1.009714e-09	-3.213776e+01	-6.809844e+01
6.900000e-07	-4.598052e-06	-1.025495e-09	-3.195567e+01	-6.805787e+01
7.000000e-07	-4.571397e-06	-1.042676e-09	-3.177042e+01	-6.801383e+01
7.100000e-07	-4.544338e-06	-1.011160e-09	-3.158236e+01	-6.796593e+01
7.200000e-07	-4.516874e-06	-1.008753e-09	-3.139149e+01	-6.791387e+01
7.300000e-07	-4.489191e-06	-1.022531e-09	-3.119910e+01	-6.785743e+01
7.400000e-07	-4.461361e-06	-1.006989e-09	-3.100569e+01	-6.779647e+01
7.500000e-07	-4.433323e-06	-1.003795e-09	-3.081083e+01	-6.773094e+01
7.600000e-07	-4.405047e-06	-1.019495e-09	-3.061432e+01	-6.766086e+01
7.700000e-07	-4.376499e-06	-1.012314e-09	-3.041591e+01	-6.758632e+01
7.800000e-07	-4.347676e-06	-1.001776e-09	-3.021560e+01	-6.750747e+01
7.900000e-07	-4.318529e-06	-1.007546e-09	-3.001303e+01	-6.742452e+01
8.000000e-07	-4.289015e-06	-9.989355e-10	-2.980791e+01	-6.733772e+01
8.100000e-07	-4.259231e-06	-9.870947e-10	-2.960092e+01	-6.724734e+01
8.200000e-07	-4.229138e-06	-9.928166e-10	-2.939178e+01	-6.715371e+01
8.300000e-07	-4.198698e-06	-9.951514e-10	-2.918023e+01	-6.705715e+01
8.400000e-07	-4.167937e-06	-9.824388e-10	-2.896644e+01	-6.695799e+01
8.500000e-07	-4.136891e-06	-9.873229e-10	-2.875067e+01	-6.685656e+01
8.600000e-07	-4.105612e-06	-9.950638e-10	-2.853329e+01	-6.675319e+01
8.700000e-07	-4.074106e-06	-9.829467e-10	-2.831433e+01	-6.664817e+01
8.800000e-07	-4.042445e-06	-9.713870e-10	-2.809430e+01	-6.654178e+01
8.900000e-07	-4.010657e-06	-9.762385e-10	-2.787337e+01	-6.643427e+01
9.000000e-07	-3.978663e-06	-9.700201e-10	-2.765102e+01	-6.632586e+01
9.100000e-07	-3.946425e-06	-9.618020e-10	-2.742697e+01	-6.621673e+01
9.200000e-07	-3.913890e-06	-9.680970e-10	-2.720085e+01	-6.610700e+01
9.300000e-07	-3.880932e-06	-9.704544e-10	-2.697180e+01	-6.599680e+01
9.400000e-07	-3.847483e-06	-9.595821e-10	-2.673934e+01	-6.588618e+01
9.500000e-07	-3.813621e-06	-9.613583e-10	-2.650400e+01	-6.577517e+01
9.600000e-07	-3.779279e-06	-9.647338e-10	-2.626533e+01	-6.566377e+01
9.700000e-07	-3.744506e-06	-9.553072e-10	-2.602367e+01	-6.555195e+01
9.800000e-07	-3.709432e-06	-9.479298e-10	-2.577991e+01	-6.543965e+01
9.900000e-07	-3.674044e-06	-9.500888e-10	-2.553397e+01	-6.532678e+01
1.000000e-06	-3.638450e-06	-9.424411e-10	-2.528660e+01	-6.521327e+01
1.010000e-06	-3.602760e-06	-9.356772e-10	-2.503856e+01	-6.509900e+01
1.020000e-06	-3.566968e-06	-9.432951e-10	-2.478981e+01	-6.498385e+01
1.030000e-06	-3.531007e-06	-9.489502e-10	-2.453989e+01	-6.486773e+01
1.040000e-06	-3.494862e-06	-9.467469e-10	-2.428869e+01	-6.475052e+01
1.050000e-06	-3.458497e-06	-9.475514e-10	-2.403596e+01	-6.463212e+01
1.060000e-06	-3.421863e-06	-9.450157e-10	-2.378136e+01	-6.451245e+01
1.070000e-06	-3.384903e-06	-9.339745e-10	-2.352449e+01	-6.439141e+01
1.080000e-06	-3.347647e-06	-9.300309e-10	-2.326557e+01	-6.426895e+01
1.090000e-06	-3.310169e-06	-9.329827e-10	-2.300510e+01	-6.414502e+01
1.100000e-06	-3.272461e-06	-9.326409e-10	-2.274303e+01	-6.401958e+01
1.110000e-06	-3.234504e-06	-9.322034e-10	-2.247924e+01	-6.389262e+01
1.120000e-06	-3.196381e-06	-9.329626e-10	-2.221430e+01	-6.376413e+01
1.130000e-06	-3.158086e-06	-9.290390e-10	-2.194815e+01	-6.363411e+01
1.140000e-06	-3.119565e-06	-9.218889e-10	-2.168044e+01	-6.350257e+01
1.150000e-06	-3.080853e-06	-9.188184e-10	-2.141140e+01	-6.336952e+01
1.160000e-06	-3.041902e-06	-9.188209e-10	-2.114069e+01	-6.323497e+01
1.170000e-06	-3.002689e-06	-9.137589e-10	-2.086817e+01	-6.309893e+01
1.180000e-06	-2.963247e-06	-9.120769e-10	-2.059406e+01	-6.296140e+01
1.190000e-06	-2.923649e-06	-9.129746e-10	-2.031886e+01	-6.282236e+01
1.200000e-06	-2.883957e-06	-9.141932e-10	-2.004301e+01	-6.268177e+01
1.210000e-06	-2.844162e-06	-9.120923e-10	-1.976643e+01	-6.253958e+01
1.220000e-06	-2.804224e-06	-9.096265e-10	-1.948887e+01	-6.239569e+01
1.230000e-06	-2.764128e-06	-9.046903e-10	-1.921021e+01	-6.224999e+01
1.240000e-06	-2.723881e-06	-9.015800e-10	-1.893050e+01	-6.210233e+01
1.250000e-06	-2.683394e-06	-8.995667e-10	-1.864913e+01	-6.195253e+01
1.260000e-06	-2.642652e-06	-8.960018e-10	-1.836597e+01	-6.180036e+01
1.270000e-06	-2.601724e-06	-8.914435e-10	-1.808153e+01	-6.164558e+01
1.280000e-06	-2.560566e-06	-8.877958e-10	-1.779549e+01	-6.148788e+01
1.290000e-06	-2.519090e-06	-8.858598e-10	-1.750724e+01	-6.132694e+01
1.300000e-06	-2.477354e-06	-8.840483e-10	-1.721718e+01	-6.116240e+01
1.310000e-06	-2.435299e-06	-8.819247e-10	-1.692491e+01	-6.099387e+01
1.320000e-06	-2.392892e-06	-8.789889e-10	-1.663019e+01	-6.082092e+01
1.330000e-06	-2.350228e-06	-8.750944e-10	-1.633367e+01	-6.064312e+01
1.340000e-06	-2.307265e-06	-8.714325e-10	-1.603510e+01	-6.045999e+01
1.350000e-06	-2.264097e-06	-8.700650e-10	-1.573508e+01	-6.027106e+01
1.360000e-06	-2.220786e-06	-8.702622e-10	-1.543408e+01	-6.007583e+01
1.370000e-06	-2.177320e-06	-8.665903e-10	-1.513200e+01	-5.987381e+01
1.380000e-06	-2.133725e-06	-8.597326e-10	-1.482902e+01	-5.966449e+01
1.390000e-06	-2.089982e-06	-8.532793e-10	-1.452502e+01	-5.944737e+01
1.400000e-06	-2.046181e-06	-8.471572e-10	-1.422061e+01	-5.922196e+01
1.410000e-06	-2.002322e-06	-8.421186e-10	-1.391579e+01	-5.898777e+01
1.420000e-06	-1.958371e-06	-8.378427e-10	-1.361034e+01	-5.874432e+01
1.430000e-06	-1.914356e-06	-8.343868e-10	-1.330445e+01	-5.849114e+01
1.440000e-06	-1.870254e-06	-8.302585e-10	-1.299794e+01	-5.822780e+01
1.450000e-06	-1.826135e-06	-8.254709e-10	-1.269132e+01	-5.795384e+01
1.460000e-06	-1.781962e-06	-8.184969e-10	-1.238433e+01	-5.766886e+01
1.470000e-06	-1.737623e-06	-8.103201e-10	-1.207618e+01	-5.737244e+01
1.480000e-06	-1.693097e-06	-8.021722e-10	-1.176673e+01	-5.706420e+01
1.490000e-06	-1.648420e-06	-7.946379e-10	-1.145623e+01	-5.674373e+01
1.500000e-06	-1.603625e-06	-7.863284e-10	-1.114491e+01	-5.641066e+01
1.510000e-06	-1.558679e-06	-7.783372e-10	-1.083255e+01	-5.606462e+01
1.520000e-06	-1.513554e-06	-7.717185e-10	-1.051894e+01	-5.570523e+01
1.530000e-06	-1.468299e-06	-7.637497e-10	-1.020443e+01	-5.533208e+01
1.540000e-06	-1.422968e-06	-7.542368e-10	-9.889378e+00	-5.494480e+01
1.550000e-06	-1.377591e-06	-7.488066e-10	-9.574016e+00	-5.454296e+01
1.560000e-06	-1.332105e-06	-7.455291e-10	-9.257899e+00	-5.412614e+01
1.570000e-06	-1.286495e-06	-7.430239e-10	-8.940919e+00	-5.369387e+01
1.580000e-06	-1.240817e-06	-7.348522e-10	-8.623461e+00	-5.324567e+01
1.590000e-06	-1.195006e-06	-7.222184e-10	-8.305083e+00	-5.278102e+01
1.600000e-06	-1.149116e-06	-7.102061e-10	-7.986159e+00	-5.229937e+01
1.610000e-06	-1.103250e-06	-7.009172e-10	-7.667397e+00	-5.180012e+01
1.620000e-06	-1.057303e-06	-6.960868e-10	-7.348075e+00	-5.128266e+01
1.630000e-06	-1.011245e-06	-6.949355e-10	-7.027979e+00	-5.074631e+01
1.640000e-06	-9.651144e-07	-6.926916e-10	-6.707378e+00	-5.019037e+01
1.650000e-06	-9.189206e-07	-6.851749e-10	-6.386339e+00	-4.961409e+01
1.660000e-06	-8.726461e-07	-6.725944e-10	-6.064740e+00	-4.901670e+01
1.670000e-06	-8.262602e-07	-6.579025e-10	-5.742365e+00	-4.839739e+01
1.680000e-06	-7.798110e-07	-6.452022e-10	-5.419552e+00	-4.775533e+01
1.690000e-06	-7.333233e-07	-6.309888e-10	-5.096470e+00	-4.708965e+01
1.700000e-06	-6.868164e-07	-6.191796e-10	-4.773255e+00	-4.639948e+01
1.710000e-06	-6.403491e-07	-6.102715e-10	-4.450316e+00	-4.568395e+01
1.720000e-06	-5.938602e-07	-6.038316e-10	-4.127226e+00	-4.494216e+01
1.730000e-06	-5.472640e-07	-5.956418e-10	-3.803390e+00	-4.417324e+01
1.740000e-06	-5.006192e-07	-5.824377e-10	-3.479217e+00	-4.337631e+01
1.750000e-06	-4.539352e-07	-5.673827e-10	-3.154771e+00	-4.255054e+01
1.760000e-06	-4.071520e-07	-5.523867e-10	-2.829636e+00	-4.169511e+01
1.770000e-06	-3.602941e-07	-5.400203e-10	-2.503982e+00	-4.080925e+01
1.780000e-06	-3.134091e-07	-5.282974e-10	-2.178139e+00	-3.989222e+01
1.790000e-06	-2.665486e-07	-5.165670e-10	-1.852467e+00	-3.894335e+01
1.800000e-06	-2.197504e-07	-5.041099e-10	-1.527227e+00	-3.796203e+01
1.810000e-06	-1.728931e-07	-4.906906e-10	-1.201577e+00	-3.694771e+01
1.820000e-06	-1.259855e-07	-4.769162e-10	-8.755771e-01	-3.589994e+01
1.830000e-06	-7.908815e-08	-4.616358e-10	-5.496490e-01	-3.481831e+01
1.840000e-06	-3.218688e-08	-4.476929e-10	-2.236932e-01	-3.370255e+01
1.850000e-06	1.459155e-08	-4.341326e-10	1.014088e-01	-3.255245e+01
1.860000e-06	6.132905e-08	-4.196949e-10	4.262263e-01	-3.136790e+01
1.870000e-06	1.081539e-07	-4.041613e-10	7.516509e-01	-3.014889e+01
1.880000e-06	1.549807e-07	-3.857948e-10	1.077089e+00	-2.889554e+01
1.890000e-06	2.018031e-07	-3.661753e-10	1.402497e+00	-2.760803e+01
1.900000e-06	2.486851e-07	-3.456538e-10	1.728319e+00	-2.628669e+01
1.910000e-06	2.955807e-07	-3.243440e-10	2.054235e+00	-2.493194e+01
1.920000e-06	3.423621e-07	-3.025531e-10	2.379357e+00	-2.354430e+01
1.930000e-06	3.890473e-07	-2.822787e-10	2.703811e+00	-2.212443e+01
1.940000e-06	4.356692e-07	-2.637846e-10	3.027825e+00	-2.067307e+01
1.950000e-06	4.822291e-07	-2.446795e-10	3.351409e+00	-1.919107e+01
1.960000e-06	5.287825e-07	-2.239521e-10	3.674947e+00	-1.767942e+01
1.970000e-06	5.753273e-07	-2.020043e-10	3.998425e+00	-1.613918e+01
1.980000e-06	6.217979e-07	-1.806186e-10	4.321388e+00	-1.457154e+01
1.990000e-06	6.682088e-07	-1.595172e-10	4.643936e+00	-1.297778e+01
2.000000e-06	7.145839e-07	-1.364012e-10	4.966235e+00	-1.135929e+01
2.010000e-06	7.610104e-07	-1.116643e-10	5.288890e+00	-9.717545e+00
2.020000e-06	8.074825e-07	-8.838880e-11	5.611864e+00	-8.054140e+00
2.030000e-06	8.538392e-07	-6.567055e-11	5.934035e+00	-6.370749e+00
2.040000e-06	9.000514e-07	-4.351967e-11	6.255201e+00	-4.669141e+00
2.050000e-06	9.461707e-07	-2.302773e-11	6.575722e+00	-2.951171e+00
2.060000e-06	9.921951e-07	-1.308832e-12	6.895584e+00	-1.218778e+00
2.070000e-06	1.038115e-06	2.250679e-11	7.214717e+00	5.260196e-01
2.080000e-06	1.083972e-06	4.805938e-11	7.533416e+00	2.281132e+00
2.090000e-06	1.129756e-06	7.312194e-11	7.851610e+00	4.044402e+00
2.100000e-06	1.175530e-06	9.834868e-11	8.169733e+00	5.813610e+00
2.110000e-06	1.221261e-06	1.249025e-10	8.487555e+00	7.586486e+00
2.120000e-06	1.266857e-06	1.506331e-10	8.804440e+00	9.360713e+00
2.130000e-06	1.312311e-06	1.753044e-10	9.120337e+00	1.113394e+01
2.140000e-06	1.357645e-06	1.988305e-10	9.435401e+00	1.290379e+01
2.150000e-06	1.403005e-06	2.206671e-10	9.750640e+00	1.466786e+01
2.160000e-06	1.448325e-06	2.421354e-10	1.006561e+01	1.642378e+01
2.170000e-06	1.493457e-06	2.652396e-10	1.037927e+01	1.816913e+01
2.180000e-06	1.538450e-06	2.895713e-10	1.069196e+01	1.990157e+01
2.190000e-06	1.583384e-06	3.146579e-10	1.100425e+01	2.161876e+01
2.200000e-06	1.628200e-06	3.408917e-10	1.131571e+01	2.331841e+01
2.210000e-06	1.672816e-06	3.660774e-10	1.162578e+01	2.499831e+01
2.220000e-06	1.717284e-06	3.884263e-10	1.193482e+01	2.665632e+01
2.230000e-06	1.761642e-06	4.105322e-10	1.224311e+01	2.829039e+01
2.240000e-06	1.805884e-06	4.314173e-10	1.255058e+01	2.989856e+01
2.250000e-06	1.850078e-06	4.504111e-10	1.285772e+01	3.147902e+01
2.260000e-06	1.894181e-06	4.690119e-10	1.316423e+01	3.303005e+01
2.270000e-06	1.938093e-06	4.884950e-10	1.346941e+01	3.455012e+01
2.280000e-06	1.981903e-06	5.097074e-10	1.377388e+01	3.603780e+01
2.290000e-06	2.025679e-06	5.316533e-10	1.407812e+01	3.749186e+01
2.300000e-06	2.069407e-06	5.500157e-10	1.438202e+01	3.891123e+01
2.310000e-06	2.113072e-06	5.667293e-10	1.468549e+01	4.029499e+01
2.320000e-06	2.156703e-06	5.839221e-10	1.498872e+01	4.164243e+01
2.330000e-06	2.200229e-06	6.010288e-10	1.529121e+01	4.295300e+01
2.340000e-06	2.243602e-06	6.192464e-10	1.559265e+01	4.422634e+01
2.350000e-06	2.286870e-06	6.376097e-10	1.589335e+01	4.546225e+01
2.360000e-06	2.329905e-06	6.559934e-10	1.619244e+01	4.666073e+01
2.370000e-06	2.372656e-06	6.716441e-10	1.648955e+01	4.782191e+01
2.380000e-06	2.415169e-06	6.849642e-10	1.678501e+01	4.894611e+01
2.390000e-06	2.457361e-06	6.976844e-10	1.707824e+01	5.003377e+01
2.400000e-06	2.499135e-06	7.120929e-10	1.736855e+01	5.108547e+01
2.410000e-06	2.540517e-06	7.284167e-10	1.765615e+01	5.210193e+01
2.420000e-06	2.581690e-06	7.441599e-10	1.794230e+01	5.308395e+01
2.430000e-06	2.622685e-06	7.560758e-10	1.822720e+01	5.403243e+01
2.440000e-06	2.663465e-06	7.649719e-10	1.851062e+01	5.494833e+01
2.450000e-06	2.704016e-06	7.734672e-10	1.879245e+01	5.583267e+01
2.460000e-06	2.744312e-06	7.833359e-10	1.907250e+01	5.668652e+01
2.470000e-06	2.784442e-06	7.947968e-10	1.935139e+01	5.751094e+01
2.480000e-06	2.824423e-06	8.055949e-10	1.962925e+01	5.830701e+01
2.490000e-06	2.864208e-06	8.160958e-10	1.990575e+01	5.907580e+01
2.500000e-06	2.903866e-06	8.281350e-10	2.018137e+01	5.981831e+01
2.510000e-06	2.943443e-06	8.381311e-10	2.045642e+01	6.053555e+01
2.520000e-06	2.982876e-06	8.456997e-10	2.073047e+01	6.122844e+01
2.530000e-06	3.022079e-06	8.537533e-10	2.100293e+01	6.189783e+01
2.540000e-06	3.061107e-06	8.615410e-10	2.127416e+01	6.254451e+01
2.550000e-06	3.099869e-06	8.692749e-10	2.154355e+01	6.316919e+01
2.560000e-06	3.138283e-06	8.776742e-10	2.181053e+01	6.377247e+01
2.570000e-06	3.176516e-06	8.864422e-10	2.207624e+01	6.435488e+01
2.580000e-06	3.214632e-06	8.952804e-10	2.234114e+01	6.491688e+01
2.590000e-06	3.252591e-06	9.043321e-10	2.260495e+01	6.545882e+01
2.600000e-06	3.290256e-06	9.126137e-10	2.286671e+01	6.598099e+01
2.610000e-06	3.327644e-06	9.204890e-10	2.312655e+01	6.648359e+01
2.620000e-06	3.364906e-06	9.287588e-10	2.338551e+01	6.696679e+01
2.630000e-06	3.402016e-06	9.371398e-10	2.364342e+01	6.743069e+01
2.640000e-06	3.438804e-06	9.449310e-10	2.389910e+01	6.787534e+01
2.650000e-06	3.475307e-06	9.529571e-10	2.415278e+01	6.830080e+01
2.660000e-06	3.511590e-06	9.604455e-10	2.440494e+01	6.870709e+01
2.670000e-06	3.547629e-06	9.664426e-10	2.465541e+01	6.909424e+01
2.680000e-06	3.583468e-06	9.718156e-10	2.490448e+01	6.946231e+01
2.690000e-06	3.619157e-06	9.778370e-10	2.515251e+01	6.981138e+01
2.700000e-06	3.654757e-06	9.840299e-10	2.539993e+01	7.014156e+01
2.710000e-06	3.690236e-06	9.901065e-10	2.564650e+01	7.045304e+01
2.720000e-06	3.725525e-06	9.962877e-10	2.589175e+01	7.074606e+01
2.730000e-06	3.760536e-06	1.003002e-09	2.613507e+01	7.102093e+01
2.740000e-06	3.795089e-06	1.009071e-09	2.637521e+01	7.127805e+01
2.750000e-06	3.829176e-06	1.013438e-09	2.661211e+01	7.151789e+01
2.760000e-06	3.862792e-06	1.013974e-09	2.684573e+01	7.174104e+01
2.770000e-06	3.895951e-06	1.014058e-09	2.707619e+01	7.194812e+01
2.780000e-06	3.928765e-06	1.017058e-09	2.730424e+01	7.213989e+01
2.790000e-06	3.961212e-06	1.022380e-09	2.752974e+01	7.231716e+01
2.800000e-06	3.993308e-06	1.029117e-09	2.775280e+01	7.248082e+01
2.810000e-06	4.025178e-06	1.034732e-09	2.797429e+01	7.263180e+01
2.820000e-06	4.056956e-06	1.037360e-09	2.819514e+01	7.277112e+01
2.830000e-06	4.088614e-06	1.039749e-09	2.841516e+01	7.289981e+01
2.840000e-06	4.119989e-06	1.043118e-09	2.863321e+01	7.301894e+01
2.850000e-06	4.151042e-06	1.044048e-09	2.884902e+01	7.312958e+01
2.860000e-06	4.181835e-06	1.041272e-09	2.906303e+01	7.323280e+01
2.870000e-06	4.212369e-06	1.039100e-09	2.927524e+01	7.332965e+01
2.880000e-06	4.242562e-06	1.041330e-09	2.948507e+01	7.342112e+01
2.890000e-06	4.272393e-06	1.045357e-09	2.969239e+01	7.350818e+01
2.900000e-06	4.301914e-06	1.049224e-09	2.989756e+01	7.359170e+01
