# Temperatura_=_14.06
# Concentracion g/m^3_=_1620.0
# C_Vs_to_Am_M_A/Vsm_=_65563218390.804596
# pendiente_HvsI_1/m_=_3716.3
# ordenada_HvsI_A/m_=_1297.0
# frecuencia_Hz_=_135095.5856049579

Tiempo_(s)	Campo_(V.s)	Magnetizacion_(V.s)	Campo_(kA/m)	Magnetizacion_(A/m)
0.000000e+00	-5.529131e-06	-1.646950e-09	-3.837925e+01	-1.074993e+02
1.000000e-08	-5.529420e-06	-1.646323e-09	-3.838125e+01	-1.074385e+02
2.000000e-08	-5.529454e-06	-1.642571e-09	-3.838149e+01	-1.073754e+02
3.000000e-08	-5.529077e-06	-1.638712e-09	-3.837887e+01	-1.073104e+02
4.000000e-08	-5.528233e-06	-1.633863e-09	-3.837301e+01	-1.072442e+02
5.000000e-08	-5.526931e-06	-1.630982e-09	-3.836397e+01	-1.071773e+02
6.000000e-08	-5.525058e-06	-1.634111e-09	-3.835097e+01	-1.071103e+02
7.000000e-08	-5.522569e-06	-1.650736e-09	-3.833370e+01	-1.070435e+02
8.000000e-08	-5.519526e-06	-1.665358e-09	-3.831258e+01	-1.069777e+02
9.000000e-08	-5.516093e-06	-1.647176e-09	-3.828874e+01	-1.069130e+02
1.000000e-07	-5.512273e-06	-1.604678e-09	-3.826223e+01	-1.068501e+02
1.100000e-07	-5.508057e-06	-1.578132e-09	-3.823296e+01	-1.067891e+02
1.200000e-07	-5.503587e-06	-1.646315e-09	-3.820194e+01	-1.067304e+02
1.300000e-07	-5.498845e-06	-1.639836e-09	-3.816902e+01	-1.066740e+02
1.400000e-07	-5.493733e-06	-1.607330e-09	-3.813353e+01	-1.066201e+02
1.500000e-07	-5.488266e-06	-1.597942e-09	-3.809559e+01	-1.065686e+02
1.600000e-07	-5.482501e-06	-1.655693e-09	-3.805557e+01	-1.065193e+02
1.700000e-07	-5.476280e-06	-1.660350e-09	-3.801239e+01	-1.064720e+02
1.800000e-07	-5.469579e-06	-1.575262e-09	-3.796588e+01	-1.064264e+02
1.900000e-07	-5.462510e-06	-1.565692e-09	-3.791681e+01	-1.063820e+02
2.000000e-07	-5.455089e-06	-1.586802e-09	-3.786530e+01	-1.063383e+02
2.100000e-07	-5.447407e-06	-1.633854e-09	-3.781198e+01	-1.062946e+02
2.200000e-07	-5.439487e-06	-1.617506e-09	-3.775700e+01	-1.062504e+02
2.300000e-07	-5.431257e-06	-1.628136e-09	-3.769987e+01	-1.062048e+02
2.400000e-07	-5.422648e-06	-1.605362e-09	-3.764011e+01	-1.061571e+02
2.500000e-07	-5.413518e-06	-1.610569e-09	-3.757674e+01	-1.061064e+02
2.600000e-07	-5.403733e-06	-1.594681e-09	-3.750882e+01	-1.060518e+02
2.700000e-07	-5.393355e-06	-1.610271e-09	-3.743678e+01	-1.059925e+02
2.800000e-07	-5.382398e-06	-1.614063e-09	-3.736073e+01	-1.059277e+02
2.900000e-07	-5.371029e-06	-1.628478e-09	-3.728181e+01	-1.058566e+02
3.000000e-07	-5.359284e-06	-1.619742e-09	-3.720029e+01	-1.057783e+02
3.100000e-07	-5.347052e-06	-1.612775e-09	-3.711539e+01	-1.056922e+02
3.200000e-07	-5.334392e-06	-1.611289e-09	-3.702750e+01	-1.055976e+02
3.300000e-07	-5.321358e-06	-1.618856e-09	-3.693703e+01	-1.054939e+02
3.400000e-07	-5.307994e-06	-1.610712e-09	-3.684427e+01	-1.053808e+02
3.500000e-07	-5.294198e-06	-1.597243e-09	-3.674851e+01	-1.052577e+02
3.600000e-07	-5.279975e-06	-1.613611e-09	-3.664978e+01	-1.051246e+02
3.700000e-07	-5.265360e-06	-1.621300e-09	-3.654834e+01	-1.049813e+02
3.800000e-07	-5.250263e-06	-1.603897e-09	-3.644354e+01	-1.048277e+02
3.900000e-07	-5.234608e-06	-1.595981e-09	-3.633488e+01	-1.046639e+02
4.000000e-07	-5.218342e-06	-1.618519e-09	-3.622197e+01	-1.044903e+02
4.100000e-07	-5.201644e-06	-1.591343e-09	-3.610607e+01	-1.043071e+02
4.200000e-07	-5.184604e-06	-1.580914e-09	-3.598778e+01	-1.041148e+02
4.300000e-07	-5.167318e-06	-1.606072e-09	-3.586780e+01	-1.039139e+02
4.400000e-07	-5.149755e-06	-1.612592e-09	-3.574589e+01	-1.037051e+02
4.500000e-07	-5.131779e-06	-1.549915e-09	-3.562111e+01	-1.034890e+02
4.600000e-07	-5.113423e-06	-1.561663e-09	-3.549370e+01	-1.032664e+02
4.700000e-07	-5.094663e-06	-1.592044e-09	-3.536348e+01	-1.030381e+02
4.800000e-07	-5.075644e-06	-1.570867e-09	-3.523146e+01	-1.028049e+02
4.900000e-07	-5.056286e-06	-1.538680e-09	-3.509710e+01	-1.025678e+02
5.000000e-07	-5.036566e-06	-1.581033e-09	-3.496021e+01	-1.023274e+02
5.100000e-07	-5.016618e-06	-1.570142e-09	-3.482175e+01	-1.020847e+02
5.200000e-07	-4.996400e-06	-1.538588e-09	-3.468141e+01	-1.018405e+02
5.300000e-07	-4.975891e-06	-1.552095e-09	-3.453905e+01	-1.015953e+02
5.400000e-07	-4.955080e-06	-1.567386e-09	-3.439459e+01	-1.013500e+02
5.500000e-07	-4.933879e-06	-1.516218e-09	-3.424744e+01	-1.011051e+02
5.600000e-07	-4.912313e-06	-1.520980e-09	-3.409774e+01	-1.008610e+02
5.700000e-07	-4.890406e-06	-1.554117e-09	-3.394567e+01	-1.006183e+02
5.800000e-07	-4.868124e-06	-1.531411e-09	-3.379101e+01	-1.003771e+02
5.900000e-07	-4.845437e-06	-1.501275e-09	-3.363353e+01	-1.001377e+02
6.000000e-07	-4.822461e-06	-1.528798e-09	-3.347405e+01	-9.990026e+01
6.100000e-07	-4.799200e-06	-1.523062e-09	-3.331259e+01	-9.966463e+01
6.200000e-07	-4.775660e-06	-1.488988e-09	-3.314919e+01	-9.943074e+01
6.300000e-07	-4.751941e-06	-1.500523e-09	-3.298455e+01	-9.919836e+01
6.400000e-07	-4.727961e-06	-1.512410e-09	-3.281810e+01	-9.896718e+01
6.500000e-07	-4.703656e-06	-1.485205e-09	-3.264939e+01	-9.873679e+01
6.600000e-07	-4.679001e-06	-1.477705e-09	-3.247825e+01	-9.850673e+01
6.700000e-07	-4.653924e-06	-1.499253e-09	-3.230418e+01	-9.827645e+01
6.800000e-07	-4.628317e-06	-1.485747e-09	-3.212644e+01	-9.804538e+01
6.900000e-07	-4.602077e-06	-1.472968e-09	-3.194430e+01	-9.781290e+01
7.000000e-07	-4.575343e-06	-1.481713e-09	-3.175873e+01	-9.757838e+01
7.100000e-07	-4.548192e-06	-1.481212e-09	-3.157027e+01	-9.734116e+01
7.200000e-07	-4.520689e-06	-1.455718e-09	-3.137937e+01	-9.710061e+01
7.300000e-07	-4.493005e-06	-1.457374e-09	-3.118720e+01	-9.685612e+01
7.400000e-07	-4.465181e-06	-1.455780e-09	-3.099407e+01	-9.660710e+01
7.500000e-07	-4.437183e-06	-1.440195e-09	-3.079973e+01	-9.635302e+01
7.600000e-07	-4.408853e-06	-1.427372e-09	-3.060308e+01	-9.609340e+01
7.700000e-07	-4.380248e-06	-1.436187e-09	-3.040453e+01	-9.582783e+01
7.800000e-07	-4.351412e-06	-1.428182e-09	-3.020437e+01	-9.555596e+01
7.900000e-07	-4.322251e-06	-1.422271e-09	-3.000195e+01	-9.527753e+01
8.000000e-07	-4.292787e-06	-1.418936e-09	-2.979743e+01	-9.499236e+01
8.100000e-07	-4.263046e-06	-1.412896e-09	-2.959100e+01	-9.470034e+01
8.200000e-07	-4.232982e-06	-1.395346e-09	-2.938232e+01	-9.440146e+01
8.300000e-07	-4.202543e-06	-1.391155e-09	-2.917103e+01	-9.409577e+01
8.400000e-07	-4.171802e-06	-1.384989e-09	-2.895765e+01	-9.378342e+01
8.500000e-07	-4.140798e-06	-1.381277e-09	-2.874243e+01	-9.346460e+01
8.600000e-07	-4.109552e-06	-1.382143e-09	-2.852555e+01	-9.313958e+01
8.700000e-07	-4.078123e-06	-1.382138e-09	-2.830739e+01	-9.280868e+01
8.800000e-07	-4.046473e-06	-1.368342e-09	-2.808770e+01	-9.247227e+01
8.900000e-07	-4.014635e-06	-1.359568e-09	-2.786671e+01	-9.213074e+01
9.000000e-07	-3.982621e-06	-1.355445e-09	-2.764449e+01	-9.178451e+01
9.100000e-07	-3.950341e-06	-1.347158e-09	-2.742042e+01	-9.143402e+01
9.200000e-07	-3.917668e-06	-1.341940e-09	-2.719363e+01	-9.107968e+01
9.300000e-07	-3.884645e-06	-1.342768e-09	-2.696440e+01	-9.072192e+01
9.400000e-07	-3.851125e-06	-1.339151e-09	-2.673174e+01	-9.036113e+01
9.500000e-07	-3.817120e-06	-1.330036e-09	-2.649570e+01	-8.999768e+01
9.600000e-07	-3.782808e-06	-1.326411e-09	-2.625753e+01	-8.963189e+01
9.700000e-07	-3.748106e-06	-1.320210e-09	-2.601665e+01	-8.926405e+01
9.800000e-07	-3.713066e-06	-1.313147e-09	-2.577343e+01	-8.889437e+01
9.900000e-07	-3.677654e-06	-1.308088e-09	-2.552763e+01	-8.852304e+01
1.000000e-06	-3.641976e-06	-1.306807e-09	-2.527997e+01	-8.815015e+01
1.010000e-06	-3.606216e-06	-1.297663e-09	-2.503176e+01	-8.777577e+01
1.020000e-06	-3.570341e-06	-1.292521e-09	-2.478273e+01	-8.739987e+01
1.030000e-06	-3.534300e-06	-1.287739e-09	-2.453256e+01	-8.702238e+01
1.040000e-06	-3.498087e-06	-1.282331e-09	-2.428120e+01	-8.664319e+01
1.050000e-06	-3.461662e-06	-1.271745e-09	-2.402836e+01	-8.626210e+01
1.060000e-06	-3.424977e-06	-1.266331e-09	-2.377372e+01	-8.587891e+01
1.070000e-06	-3.387959e-06	-1.259140e-09	-2.351677e+01	-8.549336e+01
1.080000e-06	-3.350641e-06	-1.251200e-09	-2.325774e+01	-8.510514e+01
1.090000e-06	-3.313128e-06	-1.243640e-09	-2.299734e+01	-8.471395e+01
1.100000e-06	-3.275438e-06	-1.241978e-09	-2.273573e+01	-8.431946e+01
1.110000e-06	-3.237441e-06	-1.233580e-09	-2.247198e+01	-8.392135e+01
1.120000e-06	-3.199196e-06	-1.225343e-09	-2.220651e+01	-8.351927e+01
1.130000e-06	-3.160799e-06	-1.217614e-09	-2.193999e+01	-8.311291e+01
1.140000e-06	-3.122227e-06	-1.209058e-09	-2.167225e+01	-8.270198e+01
1.150000e-06	-3.083422e-06	-1.201442e-09	-2.140289e+01	-8.228618e+01
1.160000e-06	-3.044302e-06	-1.199308e-09	-2.113135e+01	-8.186528e+01
1.170000e-06	-3.005001e-06	-1.194492e-09	-2.085855e+01	-8.143906e+01
1.180000e-06	-2.965535e-06	-1.185703e-09	-2.058460e+01	-8.100735e+01
1.190000e-06	-2.925863e-06	-1.180949e-09	-2.030923e+01	-8.057000e+01
1.200000e-06	-2.886128e-06	-1.178065e-09	-2.003342e+01	-8.012692e+01
1.210000e-06	-2.846316e-06	-1.170060e-09	-1.975708e+01	-7.967803e+01
1.220000e-06	-2.806315e-06	-1.161150e-09	-1.947942e+01	-7.922333e+01
1.230000e-06	-2.766194e-06	-1.153224e-09	-1.920093e+01	-7.876279e+01
1.240000e-06	-2.725883e-06	-1.143782e-09	-1.892112e+01	-7.829646e+01
1.250000e-06	-2.685397e-06	-1.135155e-09	-1.864009e+01	-7.782439e+01
1.260000e-06	-2.644726e-06	-1.127539e-09	-1.835779e+01	-7.734663e+01
1.270000e-06	-2.603825e-06	-1.120765e-09	-1.807388e+01	-7.686324e+01
1.280000e-06	-2.562611e-06	-1.111395e-09	-1.778780e+01	-7.637430e+01
1.290000e-06	-2.521086e-06	-1.102822e-09	-1.749956e+01	-7.587984e+01
1.300000e-06	-2.479256e-06	-1.094090e-09	-1.720921e+01	-7.537990e+01
1.310000e-06	-2.437204e-06	-1.084743e-09	-1.691732e+01	-7.487448e+01
1.320000e-06	-2.394952e-06	-1.073193e-09	-1.662403e+01	-7.436354e+01
1.330000e-06	-2.352272e-06	-1.064678e-09	-1.632778e+01	-7.384701e+01
1.340000e-06	-2.309261e-06	-1.054284e-09	-1.602923e+01	-7.332474e+01
1.350000e-06	-2.266089e-06	-1.044167e-09	-1.572956e+01	-7.279655e+01
1.360000e-06	-2.222713e-06	-1.036685e-09	-1.542847e+01	-7.226218e+01
1.370000e-06	-2.179158e-06	-1.031923e-09	-1.512615e+01	-7.172133e+01
1.380000e-06	-2.135549e-06	-1.022976e-09	-1.482344e+01	-7.117362e+01
1.390000e-06	-2.091868e-06	-1.011235e-09	-1.452024e+01	-7.061858e+01
1.400000e-06	-2.048106e-06	-9.990573e-10	-1.421648e+01	-7.005572e+01
1.410000e-06	-2.004260e-06	-9.870583e-10	-1.391213e+01	-6.948445e+01
1.420000e-06	-1.960320e-06	-9.727937e-10	-1.360713e+01	-6.890413e+01
1.430000e-06	-1.916320e-06	-9.617229e-10	-1.330171e+01	-6.831407e+01
1.440000e-06	-1.872239e-06	-9.536128e-10	-1.299573e+01	-6.771352e+01
1.450000e-06	-1.828048e-06	-9.453325e-10	-1.268899e+01	-6.710170e+01
1.460000e-06	-1.783744e-06	-9.337347e-10	-1.238146e+01	-6.647778e+01
1.470000e-06	-1.739304e-06	-9.203844e-10	-1.207299e+01	-6.584091e+01
1.480000e-06	-1.694695e-06	-9.062940e-10	-1.176335e+01	-6.519022e+01
1.490000e-06	-1.649923e-06	-8.917159e-10	-1.145258e+01	-6.452484e+01
1.500000e-06	-1.605033e-06	-8.770234e-10	-1.114099e+01	-6.384387e+01
1.510000e-06	-1.560036e-06	-8.640716e-10	-1.082864e+01	-6.314644e+01
1.520000e-06	-1.514914e-06	-8.535672e-10	-1.051544e+01	-6.243169e+01
1.530000e-06	-1.469632e-06	-8.420696e-10	-1.020113e+01	-6.169879e+01
1.540000e-06	-1.424248e-06	-8.287406e-10	-9.886107e+00	-6.094690e+01
1.550000e-06	-1.378747e-06	-8.131089e-10	-9.570270e+00	-6.017527e+01
1.560000e-06	-1.333151e-06	-7.973022e-10	-9.253772e+00	-5.938313e+01
1.570000e-06	-1.287533e-06	-7.855203e-10	-8.937127e+00	-5.856980e+01
1.580000e-06	-1.241822e-06	-7.747608e-10	-8.619834e+00	-5.773459e+01
1.590000e-06	-1.195976e-06	-7.612637e-10	-8.301601e+00	-5.687690e+01
1.600000e-06	-1.150098e-06	-7.486506e-10	-7.983149e+00	-5.599614e+01
1.610000e-06	-1.104185e-06	-7.367622e-10	-7.664457e+00	-5.509177e+01
1.620000e-06	-1.058132e-06	-7.254599e-10	-7.344792e+00	-5.416328e+01
1.630000e-06	-1.011961e-06	-7.132453e-10	-7.024304e+00	-5.321020e+01
1.640000e-06	-9.657390e-07	-7.002049e-10	-6.703465e+00	-5.223207e+01
1.650000e-06	-9.194593e-07	-6.844998e-10	-6.382224e+00	-5.122847e+01
1.660000e-06	-8.731298e-07	-6.710159e-10	-6.060638e+00	-5.019898e+01
1.670000e-06	-8.268003e-07	-6.548426e-10	-5.739052e+00	-4.914320e+01
1.680000e-06	-7.804517e-07	-6.351283e-10	-5.417334e+00	-4.806073e+01
1.690000e-06	-7.340329e-07	-6.174156e-10	-5.095128e+00	-4.695115e+01
1.700000e-06	-6.875031e-07	-6.008638e-10	-4.772151e+00	-4.581407e+01
1.710000e-06	-6.408990e-07	-5.842237e-10	-4.448659e+00	-4.464905e+01
1.720000e-06	-5.943414e-07	-5.709345e-10	-4.125490e+00	-4.345564e+01
1.730000e-06	-5.477911e-07	-5.564233e-10	-3.802371e+00	-4.223340e+01
1.740000e-06	-5.011780e-07	-5.361609e-10	-3.478816e+00	-4.098185e+01
1.750000e-06	-4.545258e-07	-5.137125e-10	-3.154991e+00	-3.970048e+01
1.760000e-06	-4.077033e-07	-4.924194e-10	-2.829983e+00	-3.838879e+01
1.770000e-06	-3.608046e-07	-4.711467e-10	-2.504446e+00	-3.704625e+01
1.780000e-06	-3.139678e-07	-4.513333e-10	-2.179339e+00	-3.567234e+01
1.790000e-06	-2.671621e-07	-4.331231e-10	-1.854447e+00	-3.426653e+01
1.800000e-06	-2.203510e-07	-4.147884e-10	-1.529518e+00	-3.282830e+01
1.810000e-06	-1.734713e-07	-3.965200e-10	-1.204113e+00	-3.135715e+01
1.820000e-06	-1.265634e-07	-3.777310e-10	-8.785121e-01	-2.985263e+01
1.830000e-06	-7.967810e-08	-3.560355e-10	-5.530680e-01	-2.831432e+01
1.840000e-06	-3.276894e-08	-3.310141e-10	-2.274584e-01	-2.674187e+01
1.850000e-06	1.410130e-08	-3.074785e-10	9.788104e-02	-2.513498e+01
1.860000e-06	6.092446e-08	-2.850603e-10	4.228937e-01	-2.349347e+01
1.870000e-06	1.077449e-07	-2.619944e-10	7.478872e-01	-2.181726e+01
1.880000e-06	1.545737e-07	-2.388505e-10	1.072939e+00	-2.010638e+01
1.890000e-06	2.013848e-07	-2.146122e-10	1.397868e+00	-1.836100e+01
1.900000e-06	2.481735e-07	-1.885578e-10	1.722641e+00	-1.658145e+01
1.910000e-06	2.949990e-07	-1.633303e-10	2.047671e+00	-1.476819e+01
1.920000e-06	3.418049e-07	-1.367789e-10	2.372564e+00	-1.292190e+01
1.930000e-06	3.885685e-07	-1.072911e-10	2.697162e+00	-1.104340e+01
1.940000e-06	4.353218e-07	-7.857250e-11	3.021690e+00	-9.133718e+00
1.950000e-06	4.820693e-07	-5.193801e-11	3.346178e+00	-7.194085e+00
1.960000e-06	5.287251e-07	-2.464235e-11	3.670029e+00	-5.225919e+00
1.970000e-06	5.753054e-07	2.480384e-12	3.993356e+00	-3.230839e+00
1.980000e-06	6.218031e-07	3.048062e-11	4.316109e+00	-1.210662e+00
1.990000e-06	6.682125e-07	6.039725e-11	4.638249e+00	8.326029e-01
2.000000e-06	7.145306e-07	9.151859e-11	4.959757e+00	2.896764e+00
2.010000e-06	7.608196e-07	1.217786e-10	5.281061e+00	4.979454e+00
2.020000e-06	8.071107e-07	1.504373e-10	5.602381e+00	7.078145e+00
2.030000e-06	8.533773e-07	1.783078e-10	5.923531e+00	9.190163e+00
2.040000e-06	8.996761e-07	2.067545e-10	6.244904e+00	1.131270e+01
2.050000e-06	9.459127e-07	2.373257e-10	6.565845e+00	1.344285e+01
2.060000e-06	9.920347e-07	2.706638e-10	6.885990e+00	1.557761e+01
2.070000e-06	1.038049e-06	3.047231e-10	7.205388e+00	1.771391e+01
2.080000e-06	1.083983e-06	3.374410e-10	7.524231e+00	1.984863e+01
2.090000e-06	1.129910e-06	3.672663e-10	7.843018e+00	2.197865e+01
2.100000e-06	1.175803e-06	3.953696e-10	8.161581e+00	2.410083e+01
2.110000e-06	1.221492e-06	4.236741e-10	8.478719e+00	2.621208e+01
2.120000e-06	1.267085e-06	4.525984e-10	8.795189e+00	2.830936e+01
2.130000e-06	1.312717e-06	4.824631e-10	9.111937e+00	3.038970e+01
2.140000e-06	1.358283e-06	5.119370e-10	9.428220e+00	3.245024e+01
2.150000e-06	1.403751e-06	5.410155e-10	9.743828e+00	3.448823e+01
2.160000e-06	1.449090e-06	5.700355e-10	1.005854e+01	3.650106e+01
2.170000e-06	1.494379e-06	5.972416e-10	1.037290e+01	3.848629e+01
2.180000e-06	1.539499e-06	6.226161e-10	1.068609e+01	4.044163e+01
2.190000e-06	1.584378e-06	6.477414e-10	1.099761e+01	4.236501e+01
2.200000e-06	1.629220e-06	6.728420e-10	1.130887e+01	4.425452e+01
2.210000e-06	1.673959e-06	6.992609e-10	1.161942e+01	4.610849e+01
2.220000e-06	1.718512e-06	7.260870e-10	1.192867e+01	4.792542e+01
2.230000e-06	1.762944e-06	7.519270e-10	1.223708e+01	4.970406e+01
2.240000e-06	1.807334e-06	7.739030e-10	1.254521e+01	5.144336e+01
2.250000e-06	1.851618e-06	7.936326e-10	1.285260e+01	5.314246e+01
2.260000e-06	1.895711e-06	8.150193e-10	1.315866e+01	5.480076e+01
2.270000e-06	1.939695e-06	8.382812e-10	1.346397e+01	5.641780e+01
2.280000e-06	1.983620e-06	8.606423e-10	1.376886e+01	5.799335e+01
2.290000e-06	2.027498e-06	8.794906e-10	1.407343e+01	5.952735e+01
2.300000e-06	2.071363e-06	8.959530e-10	1.437791e+01	6.101991e+01
2.310000e-06	2.115201e-06	9.138978e-10	1.468220e+01	6.247130e+01
2.320000e-06	2.158920e-06	9.344263e-10	1.498567e+01	6.388193e+01
2.330000e-06	2.202519e-06	9.539549e-10	1.528830e+01	6.525233e+01
2.340000e-06	2.245985e-06	9.735511e-10	1.559001e+01	6.658317e+01
2.350000e-06	2.289253e-06	9.935247e-10	1.589035e+01	6.787517e+01
2.360000e-06	2.332313e-06	1.014810e-09	1.618924e+01	6.912917e+01
2.370000e-06	2.375211e-06	1.031914e-09	1.648700e+01	7.034606e+01
2.380000e-06	2.417786e-06	1.045574e-09	1.678253e+01	7.152678e+01
2.390000e-06	2.459969e-06	1.057703e-09	1.707533e+01	7.267232e+01
2.400000e-06	2.501805e-06	1.069306e-09	1.736573e+01	7.378367e+01
2.410000e-06	2.543304e-06	1.084534e-09	1.765378e+01	7.486184e+01
2.420000e-06	2.584545e-06	1.101487e-09	1.794005e+01	7.590786e+01
2.430000e-06	2.625520e-06	1.117160e-09	1.822447e+01	7.692272e+01
2.440000e-06	2.666279e-06	1.127662e-09	1.850739e+01	7.790742e+01
2.450000e-06	2.706870e-06	1.137858e-09	1.878914e+01	7.886291e+01
2.460000e-06	2.747260e-06	1.148986e-09	1.906950e+01	7.979013e+01
2.470000e-06	2.787432e-06	1.162093e-09	1.934834e+01	8.068997e+01
2.480000e-06	2.827425e-06	1.175118e-09	1.962595e+01	8.156330e+01
2.490000e-06	2.867308e-06	1.185934e-09	1.990279e+01	8.241092e+01
2.500000e-06	2.907066e-06	1.198386e-09	2.017876e+01	8.323361e+01
2.510000e-06	2.946634e-06	1.210017e-09	2.045341e+01	8.403212e+01
2.520000e-06	2.986005e-06	1.218324e-09	2.072669e+01	8.480714e+01
2.530000e-06	3.025196e-06	1.224384e-09	2.099873e+01	8.555933e+01
2.540000e-06	3.064257e-06	1.229284e-09	2.126987e+01	8.628931e+01
2.550000e-06	3.103101e-06	1.241497e-09	2.153949e+01	8.699769e+01
2.560000e-06	3.141622e-06	1.253635e-09	2.180688e+01	8.768501e+01
2.570000e-06	3.179934e-06	1.263896e-09	2.207281e+01	8.835183e+01
2.580000e-06	3.218150e-06	1.275227e-09	2.233808e+01	8.899866e+01
2.590000e-06	3.256142e-06	1.285160e-09	2.260179e+01	8.962601e+01
2.600000e-06	3.293901e-06	1.295084e-09	2.286389e+01	9.023437e+01
2.610000e-06	3.331442e-06	1.303083e-09	2.312447e+01	9.082422e+01
2.620000e-06	3.368689e-06	1.311686e-09	2.338301e+01	9.139604e+01
2.630000e-06	3.405763e-06	1.318725e-09	2.364035e+01	9.195030e+01
2.640000e-06	3.442658e-06	1.326237e-09	2.389645e+01	9.248746e+01
2.650000e-06	3.479233e-06	1.333626e-09	2.415033e+01	9.300802e+01
2.660000e-06	3.515525e-06	1.340366e-09	2.440224e+01	9.351244e+01
2.670000e-06	3.551642e-06	1.349617e-09	2.465294e+01	9.400122e+01
2.680000e-06	3.587605e-06	1.360919e-09	2.490257e+01	9.447484e+01
2.690000e-06	3.623430e-06	1.369438e-09	2.515124e+01	9.493380e+01
2.700000e-06	3.659151e-06	1.375323e-09	2.539919e+01	9.537861e+01
2.710000e-06	3.694668e-06	1.380799e-09	2.564572e+01	9.580978e+01
2.720000e-06	3.729875e-06	1.385567e-09	2.589010e+01	9.622783e+01
2.730000e-06	3.764762e-06	1.390881e-09	2.613227e+01	9.663327e+01
2.740000e-06	3.799250e-06	1.398734e-09	2.637166e+01	9.702663e+01
2.750000e-06	3.833299e-06	1.407314e-09	2.660800e+01	9.740844e+01
2.760000e-06	3.866809e-06	1.416080e-09	2.684061e+01	9.777922e+01
2.770000e-06	3.899850e-06	1.423540e-09	2.706995e+01	9.813950e+01
2.780000e-06	3.932609e-06	1.429865e-09	2.729734e+01	9.848979e+01
2.790000e-06	3.965104e-06	1.434953e-09	2.752290e+01	9.883059e+01
2.800000e-06	3.997308e-06	1.440723e-09	2.774643e+01	9.916242e+01
2.810000e-06	4.029261e-06	1.446467e-09	2.796823e+01	9.948576e+01
2.820000e-06	4.060993e-06	1.450828e-09	2.818849e+01	9.980107e+01
2.830000e-06	4.092566e-06	1.457066e-09	2.840764e+01	1.001088e+02
2.840000e-06	4.123987e-06	1.463158e-09	2.862575e+01	1.004094e+02
2.850000e-06	4.155130e-06	1.466931e-09	2.884192e+01	1.007033e+02
2.860000e-06	4.185980e-06	1.467358e-09	2.905606e+01	1.009908e+02
2.870000e-06	4.216516e-06	1.469641e-09	2.926802e+01	1.012724e+02
2.880000e-06	4.246760e-06	1.474984e-09	2.947795e+01	1.015483e+02
2.890000e-06	4.276754e-06	1.480784e-09	2.968615e+01	1.018188e+02
2.900000e-06	4.306437e-06	1.487331e-09	2.989218e+01	1.020843e+02
