# Temperatura_=_2.87
# Concentracion g/m^3_=_1620.0
# C_Vs_to_Am_M_A/Vsm_=_65563218390.804596
# pendiente_HvsI_1/m_=_3716.3
# ordenada_HvsI_A/m_=_1297.0
# frecuencia_Hz_=_135102.78299047163

Tiempo_(s)	Campo_(V.s)	Magnetizacion_(V.s)	Campo_(kA/m)	Magnetizacion_(A/m)
0.000000e+00	-5.527644e-06	-1.426563e-09	-3.837052e+01	-9.355623e+01
1.000000e-08	-5.527733e-06	-1.420207e-09	-3.837114e+01	-9.351734e+01
2.000000e-08	-5.527550e-06	-1.420406e-09	-3.836987e+01	-9.348090e+01
3.000000e-08	-5.527000e-06	-1.424404e-09	-3.836605e+01	-9.344700e+01
4.000000e-08	-5.525914e-06	-1.427467e-09	-3.835851e+01	-9.341569e+01
5.000000e-08	-5.524135e-06	-1.422863e-09	-3.834616e+01	-9.338689e+01
6.000000e-08	-5.521701e-06	-1.409369e-09	-3.832927e+01	-9.336050e+01
7.000000e-08	-5.518727e-06	-1.411991e-09	-3.830862e+01	-9.333628e+01
8.000000e-08	-5.515305e-06	-1.454643e-09	-3.828487e+01	-9.331395e+01
9.000000e-08	-5.511467e-06	-1.485421e-09	-3.825823e+01	-9.329314e+01
1.000000e-07	-5.507193e-06	-1.436535e-09	-3.822856e+01	-9.327340e+01
1.100000e-07	-5.502656e-06	-1.364096e-09	-3.819707e+01	-9.325419e+01
1.200000e-07	-5.497999e-06	-1.347931e-09	-3.816474e+01	-9.323496e+01
1.300000e-07	-5.493041e-06	-1.435818e-09	-3.813032e+01	-9.321504e+01
1.400000e-07	-5.487609e-06	-1.441837e-09	-3.809261e+01	-9.319378e+01
1.500000e-07	-5.481810e-06	-1.406400e-09	-3.805236e+01	-9.317046e+01
1.600000e-07	-5.475702e-06	-1.387118e-09	-3.800996e+01	-9.314433e+01
1.700000e-07	-5.469148e-06	-1.446804e-09	-3.796447e+01	-9.311466e+01
1.800000e-07	-5.462098e-06	-1.452186e-09	-3.791553e+01	-9.308071e+01
1.900000e-07	-5.454700e-06	-1.371459e-09	-3.786418e+01	-9.304176e+01
2.000000e-07	-5.447051e-06	-1.346652e-09	-3.781108e+01	-9.299711e+01
2.100000e-07	-5.439136e-06	-1.408141e-09	-3.775614e+01	-9.294613e+01
2.200000e-07	-5.431013e-06	-1.463087e-09	-3.769975e+01	-9.288820e+01
2.300000e-07	-5.422618e-06	-1.419583e-09	-3.764148e+01	-9.282282e+01
2.400000e-07	-5.413684e-06	-1.383013e-09	-3.757946e+01	-9.274952e+01
2.500000e-07	-5.403953e-06	-1.379881e-09	-3.751191e+01	-9.266794e+01
2.600000e-07	-5.393543e-06	-1.405058e-09	-3.743965e+01	-9.257782e+01
2.700000e-07	-5.382634e-06	-1.374643e-09	-3.736392e+01	-9.247896e+01
2.800000e-07	-5.371203e-06	-1.366870e-09	-3.728457e+01	-9.237130e+01
2.900000e-07	-5.359400e-06	-1.370886e-09	-3.720264e+01	-9.225486e+01
3.000000e-07	-5.347265e-06	-1.391099e-09	-3.711841e+01	-9.212979e+01
3.100000e-07	-5.334714e-06	-1.366165e-09	-3.703128e+01	-9.199630e+01
3.200000e-07	-5.321775e-06	-1.360251e-09	-3.694147e+01	-9.185475e+01
3.300000e-07	-5.308445e-06	-1.367435e-09	-3.684894e+01	-9.170554e+01
3.400000e-07	-5.294763e-06	-1.380789e-09	-3.675396e+01	-9.154919e+01
3.500000e-07	-5.280539e-06	-1.356850e-09	-3.665523e+01	-9.138629e+01
3.600000e-07	-5.265911e-06	-1.357081e-09	-3.655368e+01	-9.121749e+01
3.700000e-07	-5.250974e-06	-1.363478e-09	-3.644999e+01	-9.104349e+01
3.800000e-07	-5.235343e-06	-1.351981e-09	-3.634149e+01	-9.086505e+01
3.900000e-07	-5.219082e-06	-1.333375e-09	-3.622862e+01	-9.068294e+01
4.000000e-07	-5.202520e-06	-1.347752e-09	-3.611365e+01	-9.049796e+01
4.100000e-07	-5.185695e-06	-1.352995e-09	-3.599686e+01	-9.031091e+01
4.200000e-07	-5.168499e-06	-1.326457e-09	-3.587749e+01	-9.012256e+01
4.300000e-07	-5.151017e-06	-1.333141e-09	-3.575614e+01	-8.993368e+01
4.400000e-07	-5.133278e-06	-1.354347e-09	-3.563300e+01	-8.974498e+01
4.500000e-07	-5.115101e-06	-1.337217e-09	-3.550682e+01	-8.955715e+01
4.600000e-07	-5.096436e-06	-1.303055e-09	-3.537726e+01	-8.937078e+01
4.700000e-07	-5.077456e-06	-1.326331e-09	-3.524551e+01	-8.918642e+01
4.800000e-07	-5.058150e-06	-1.330522e-09	-3.511150e+01	-8.900453e+01
4.900000e-07	-5.038502e-06	-1.312103e-09	-3.497511e+01	-8.882549e+01
5.000000e-07	-5.018649e-06	-1.311681e-09	-3.483730e+01	-8.864959e+01
5.100000e-07	-4.998625e-06	-1.327763e-09	-3.469830e+01	-8.847701e+01
5.200000e-07	-4.978292e-06	-1.301212e-09	-3.455716e+01	-8.830787e+01
5.300000e-07	-4.957537e-06	-1.304345e-09	-3.441308e+01	-8.814216e+01
5.400000e-07	-4.936375e-06	-1.321837e-09	-3.426619e+01	-8.797981e+01
5.500000e-07	-4.914814e-06	-1.308503e-09	-3.411652e+01	-8.782064e+01
5.600000e-07	-4.892912e-06	-1.281984e-09	-3.396448e+01	-8.766441e+01
5.700000e-07	-4.870767e-06	-1.305087e-09	-3.381077e+01	-8.751079e+01
5.800000e-07	-4.848273e-06	-1.310180e-09	-3.365462e+01	-8.735939e+01
5.900000e-07	-4.825373e-06	-1.294803e-09	-3.349566e+01	-8.720976e+01
6.000000e-07	-4.802143e-06	-1.292857e-09	-3.333441e+01	-8.706142e+01
6.100000e-07	-4.778593e-06	-1.299808e-09	-3.317093e+01	-8.691383e+01
6.200000e-07	-4.754850e-06	-1.281192e-09	-3.300612e+01	-8.676644e+01
6.300000e-07	-4.730974e-06	-1.278807e-09	-3.284038e+01	-8.661871e+01
6.400000e-07	-4.706829e-06	-1.287833e-09	-3.267278e+01	-8.647005e+01
6.500000e-07	-4.682320e-06	-1.286192e-09	-3.250264e+01	-8.631993e+01
6.600000e-07	-4.657317e-06	-1.286614e-09	-3.232909e+01	-8.616781e+01
6.700000e-07	-4.631818e-06	-1.291602e-09	-3.215209e+01	-8.601319e+01
6.800000e-07	-4.605737e-06	-1.280793e-09	-3.197104e+01	-8.585562e+01
6.900000e-07	-4.579084e-06	-1.271346e-09	-3.178602e+01	-8.569469e+01
7.000000e-07	-4.551964e-06	-1.274939e-09	-3.159777e+01	-8.553002e+01
7.100000e-07	-4.524451e-06	-1.269192e-09	-3.140679e+01	-8.536134e+01
7.200000e-07	-4.496771e-06	-1.264346e-09	-3.121465e+01	-8.518840e+01
7.300000e-07	-4.468963e-06	-1.268806e-09	-3.102162e+01	-8.501103e+01
7.400000e-07	-4.440990e-06	-1.269955e-09	-3.082744e+01	-8.482912e+01
7.500000e-07	-4.412782e-06	-1.260645e-09	-3.063163e+01	-8.464264e+01
7.600000e-07	-4.384262e-06	-1.260556e-09	-3.043365e+01	-8.445160e+01
7.700000e-07	-4.355439e-06	-1.253440e-09	-3.023358e+01	-8.425608e+01
7.800000e-07	-4.326327e-06	-1.243830e-09	-3.003150e+01	-8.405621e+01
7.900000e-07	-4.296893e-06	-1.239865e-09	-2.982718e+01	-8.385218e+01
8.000000e-07	-4.267120e-06	-1.239878e-09	-2.962051e+01	-8.364420e+01
8.100000e-07	-4.237064e-06	-1.224777e-09	-2.941187e+01	-8.343252e+01
8.200000e-07	-4.206754e-06	-1.218847e-09	-2.920147e+01	-8.321742e+01
8.300000e-07	-4.176164e-06	-1.218804e-09	-2.898913e+01	-8.299919e+01
8.400000e-07	-4.145189e-06	-1.217561e-09	-2.877412e+01	-8.277814e+01
8.500000e-07	-4.113888e-06	-1.212245e-09	-2.855683e+01	-8.255455e+01
8.600000e-07	-4.082464e-06	-1.215799e-09	-2.833871e+01	-8.232871e+01
8.700000e-07	-4.050898e-06	-1.209727e-09	-2.811958e+01	-8.210090e+01
8.800000e-07	-4.019174e-06	-1.199076e-09	-2.789937e+01	-8.187136e+01
8.900000e-07	-3.987302e-06	-1.191771e-09	-2.767813e+01	-8.164029e+01
9.000000e-07	-3.955204e-06	-1.188851e-09	-2.745532e+01	-8.140787e+01
9.100000e-07	-3.922767e-06	-1.181143e-09	-2.723016e+01	-8.117422e+01
9.200000e-07	-3.889877e-06	-1.180713e-09	-2.700185e+01	-8.093943e+01
9.300000e-07	-3.856484e-06	-1.185146e-09	-2.677005e+01	-8.070352e+01
9.400000e-07	-3.822652e-06	-1.183499e-09	-2.653520e+01	-8.046649e+01
9.500000e-07	-3.788388e-06	-1.174651e-09	-2.629735e+01	-8.022825e+01
9.600000e-07	-3.753683e-06	-1.168189e-09	-2.605645e+01	-7.998869e+01
9.700000e-07	-3.718599e-06	-1.161717e-09	-2.581291e+01	-7.974764e+01
9.800000e-07	-3.683190e-06	-1.152539e-09	-2.556712e+01	-7.950489e+01
9.900000e-07	-3.647576e-06	-1.146069e-09	-2.531990e+01	-7.926019e+01
1.000000e-06	-3.611817e-06	-1.140356e-09	-2.507168e+01	-7.901324e+01
1.010000e-06	-3.575938e-06	-1.135713e-09	-2.482262e+01	-7.876374e+01
1.020000e-06	-3.539959e-06	-1.133540e-09	-2.457287e+01	-7.851134e+01
1.030000e-06	-3.503808e-06	-1.136790e-09	-2.432192e+01	-7.825568e+01
1.040000e-06	-3.467382e-06	-1.134196e-09	-2.406907e+01	-7.799641e+01
1.050000e-06	-3.430641e-06	-1.127167e-09	-2.381403e+01	-7.773314e+01
1.060000e-06	-3.393672e-06	-1.119908e-09	-2.355740e+01	-7.746552e+01
1.070000e-06	-3.356476e-06	-1.116696e-09	-2.329921e+01	-7.719320e+01
1.080000e-06	-3.318980e-06	-1.110286e-09	-2.303893e+01	-7.691585e+01
1.090000e-06	-3.281219e-06	-1.105792e-09	-2.277680e+01	-7.663314e+01
1.100000e-06	-3.243290e-06	-1.101266e-09	-2.251352e+01	-7.634481e+01
1.110000e-06	-3.205222e-06	-1.094687e-09	-2.224927e+01	-7.605060e+01
1.120000e-06	-3.166921e-06	-1.087098e-09	-2.198340e+01	-7.575030e+01
1.130000e-06	-3.128347e-06	-1.085522e-09	-2.171564e+01	-7.544374e+01
1.140000e-06	-3.089561e-06	-1.082034e-09	-2.144640e+01	-7.513079e+01
1.150000e-06	-3.050574e-06	-1.077526e-09	-2.117577e+01	-7.481135e+01
1.160000e-06	-3.011338e-06	-1.072970e-09	-2.090341e+01	-7.448539e+01
1.170000e-06	-2.971933e-06	-1.070325e-09	-2.062988e+01	-7.415289e+01
1.180000e-06	-2.932413e-06	-1.067661e-09	-2.035555e+01	-7.381388e+01
1.190000e-06	-2.892747e-06	-1.065281e-09	-2.008020e+01	-7.346843e+01
1.200000e-06	-2.852936e-06	-1.057624e-09	-1.980385e+01	-7.311662e+01
1.210000e-06	-2.812986e-06	-1.048866e-09	-1.952654e+01	-7.275859e+01
1.220000e-06	-2.772946e-06	-1.042039e-09	-1.924859e+01	-7.239447e+01
1.230000e-06	-2.732789e-06	-1.038676e-09	-1.896984e+01	-7.202443e+01
1.240000e-06	-2.692383e-06	-1.034029e-09	-1.868936e+01	-7.164862e+01
1.250000e-06	-2.651736e-06	-1.029138e-09	-1.840721e+01	-7.126723e+01
1.260000e-06	-2.610889e-06	-1.028889e-09	-1.812367e+01	-7.088042e+01
1.270000e-06	-2.569791e-06	-1.025205e-09	-1.783838e+01	-7.048835e+01
1.280000e-06	-2.528359e-06	-1.016030e-09	-1.755077e+01	-7.009117e+01
1.290000e-06	-2.486568e-06	-1.002972e-09	-1.726069e+01	-6.968901e+01
1.300000e-06	-2.444456e-06	-9.915477e-10	-1.696836e+01	-6.928195e+01
1.310000e-06	-2.402082e-06	-9.816081e-10	-1.667422e+01	-6.887008e+01
1.320000e-06	-2.359407e-06	-9.756521e-10	-1.637798e+01	-6.845342e+01
1.330000e-06	-2.316409e-06	-9.712811e-10	-1.607951e+01	-6.803198e+01
1.340000e-06	-2.273186e-06	-9.692157e-10	-1.577947e+01	-6.760569e+01
1.350000e-06	-2.229826e-06	-9.696015e-10	-1.547849e+01	-6.717448e+01
1.360000e-06	-2.186403e-06	-9.682264e-10	-1.517706e+01	-6.673820e+01
1.370000e-06	-2.142883e-06	-9.595819e-10	-1.487497e+01	-6.629666e+01
1.380000e-06	-2.099202e-06	-9.461895e-10	-1.457175e+01	-6.584964e+01
1.390000e-06	-2.055353e-06	-9.323342e-10	-1.426738e+01	-6.539684e+01
1.400000e-06	-2.011450e-06	-9.218717e-10	-1.396262e+01	-6.493795e+01
1.410000e-06	-1.967527e-06	-9.140855e-10	-1.365772e+01	-6.447257e+01
1.420000e-06	-1.923527e-06	-9.085248e-10	-1.335230e+01	-6.400030e+01
1.430000e-06	-1.879440e-06	-9.044734e-10	-1.304626e+01	-6.352066e+01
1.440000e-06	-1.835280e-06	-8.998802e-10	-1.273972e+01	-6.303314e+01
1.450000e-06	-1.790970e-06	-8.912810e-10	-1.243214e+01	-6.253722e+01
1.460000e-06	-1.746490e-06	-8.793047e-10	-1.212338e+01	-6.203229e+01
1.470000e-06	-1.701881e-06	-8.649423e-10	-1.181372e+01	-6.151775e+01
1.480000e-06	-1.657121e-06	-8.511886e-10	-1.150302e+01	-6.099296e+01
1.490000e-06	-1.612248e-06	-8.380344e-10	-1.119153e+01	-6.045723e+01
1.500000e-06	-1.567288e-06	-8.267328e-10	-1.087944e+01	-5.990987e+01
1.510000e-06	-1.522222e-06	-8.191306e-10	-1.056661e+01	-5.935015e+01
1.520000e-06	-1.476981e-06	-8.140585e-10	-1.025256e+01	-5.877732e+01
1.530000e-06	-1.431614e-06	-8.079009e-10	-9.937648e+00	-5.819062e+01
1.540000e-06	-1.386171e-06	-7.984620e-10	-9.622203e+00	-5.758926e+01
1.550000e-06	-1.340574e-06	-7.860804e-10	-9.305687e+00	-5.697244e+01
1.560000e-06	-1.294870e-06	-7.719692e-10	-8.988429e+00	-5.633933e+01
1.570000e-06	-1.249116e-06	-7.575926e-10	-8.670822e+00	-5.568909e+01
1.580000e-06	-1.203308e-06	-7.427562e-10	-8.352846e+00	-5.502089e+01
1.590000e-06	-1.157452e-06	-7.277702e-10	-8.034534e+00	-5.433385e+01
1.600000e-06	-1.111555e-06	-7.153353e-10	-7.715936e+00	-5.362709e+01
1.610000e-06	-1.065570e-06	-7.063484e-10	-7.396725e+00	-5.289974e+01
1.620000e-06	-1.019446e-06	-6.993184e-10	-7.076557e+00	-5.215089e+01
1.630000e-06	-9.732580e-07	-6.926277e-10	-6.755937e+00	-5.137963e+01
1.640000e-06	-9.270683e-07	-6.818503e-10	-6.435308e+00	-5.058504e+01
1.650000e-06	-8.808283e-07	-6.671331e-10	-6.114331e+00	-4.976621e+01
1.660000e-06	-8.344787e-07	-6.511183e-10	-5.792591e+00	-4.892220e+01
1.670000e-06	-7.881358e-07	-6.358548e-10	-5.470899e+00	-4.805210e+01
1.680000e-06	-7.417621e-07	-6.218839e-10	-5.148992e+00	-4.715498e+01
1.690000e-06	-6.952302e-07	-6.088254e-10	-4.825988e+00	-4.622992e+01
1.700000e-06	-6.486558e-07	-5.937012e-10	-4.502689e+00	-4.527602e+01
1.710000e-06	-6.020636e-07	-5.794031e-10	-4.179266e+00	-4.429238e+01
1.720000e-06	-5.553839e-07	-5.636174e-10	-3.855235e+00	-4.327815e+01
1.730000e-06	-5.086740e-07	-5.453931e-10	-3.530995e+00	-4.223247e+01
1.740000e-06	-4.619135e-07	-5.277268e-10	-3.206404e+00	-4.115454e+01
1.750000e-06	-4.150762e-07	-5.111964e-10	-2.881280e+00	-4.004361e+01
1.760000e-06	-3.681970e-07	-4.936940e-10	-2.555865e+00	-3.889895e+01
1.770000e-06	-3.213365e-07	-4.774504e-10	-2.230579e+00	-3.771990e+01
1.780000e-06	-2.744753e-07	-4.623951e-10	-1.905289e+00	-3.650589e+01
1.790000e-06	-2.275364e-07	-4.452431e-10	-1.579460e+00	-3.525639e+01
1.800000e-06	-1.806179e-07	-4.267002e-10	-1.253772e+00	-3.397096e+01
1.810000e-06	-1.337556e-07	-4.082074e-10	-9.284740e-01	-3.264927e+01
1.820000e-06	-8.685811e-08	-3.898604e-10	-6.029315e-01	-3.129107e+01
1.830000e-06	-3.993607e-08	-3.706615e-10	-2.772190e-01	-2.989622e+01
1.840000e-06	6.911641e-09	-3.513091e-10	4.797763e-02	-2.846471e+01
1.850000e-06	5.374621e-08	-3.320758e-10	3.730830e-01	-2.699663e+01
1.860000e-06	1.006151e-07	-3.118394e-10	6.984266e-01	-2.549222e+01
1.870000e-06	1.474940e-07	-2.898718e-10	1.023840e+00	-2.395184e+01
1.880000e-06	1.943767e-07	-2.671292e-10	1.349279e+00	-2.237600e+01
1.890000e-06	2.412522e-07	-2.438006e-10	1.674669e+00	-2.076533e+01
1.900000e-06	2.881161e-07	-2.203040e-10	1.999978e+00	-1.912064e+01
1.910000e-06	3.349237e-07	-1.968386e-10	2.324896e+00	-1.744286e+01
1.920000e-06	3.817475e-07	-1.729083e-10	2.649927e+00	-1.573307e+01
1.930000e-06	4.286203e-07	-1.492987e-10	2.975297e+00	-1.399252e+01
1.940000e-06	4.754331e-07	-1.271743e-10	3.300252e+00	-1.222257e+01
1.950000e-06	5.221720e-07	-1.045586e-10	3.624693e+00	-1.042475e+01
1.960000e-06	5.687991e-07	-8.105071e-11	3.948358e+00	-8.600707e+00
1.970000e-06	6.153612e-07	-5.730709e-11	4.271572e+00	-6.752235e+00
1.980000e-06	6.618788e-07	-3.261939e-11	4.594477e+00	-4.881241e+00
1.990000e-06	7.083290e-07	-4.340493e-12	4.916914e+00	-2.989751e+00
2.000000e-06	7.547241e-07	2.663865e-11	5.238970e+00	-1.079896e+00
2.010000e-06	8.010907e-07	5.692647e-11	5.560826e+00	8.460966e-01
2.020000e-06	8.473954e-07	8.502080e-11	5.882253e+00	2.785913e+00
2.030000e-06	8.936509e-07	1.110439e-10	6.203339e+00	4.737168e+00
2.040000e-06	9.399064e-07	1.347488e-10	6.524425e+00	6.697416e+00
2.050000e-06	9.860330e-07	1.593120e-10	6.844616e+00	8.664164e+00
2.060000e-06	1.032050e-06	1.870184e-10	7.164045e+00	1.063488e+01
2.070000e-06	1.078060e-06	2.171087e-10	7.483429e+00	1.260703e+01
2.080000e-06	1.124038e-06	2.481040e-10	7.802585e+00	1.457805e+01
2.090000e-06	1.169966e-06	2.796546e-10	8.121396e+00	1.654540e+01
2.100000e-06	1.215755e-06	3.099323e-10	8.439250e+00	1.850655e+01
2.110000e-06	1.261354e-06	3.375757e-10	8.755776e+00	2.045902e+01
2.120000e-06	1.306949e-06	3.642851e-10	9.072277e+00	2.240038e+01
2.130000e-06	1.352484e-06	3.896956e-10	9.388363e+00	2.432824e+01
2.140000e-06	1.397864e-06	4.135025e-10	9.703369e+00	2.624030e+01
2.150000e-06	1.443214e-06	4.392816e-10	1.001817e+01	2.813434e+01
2.160000e-06	1.488461e-06	4.672614e-10	1.033225e+01	3.000824e+01
2.170000e-06	1.533560e-06	4.942949e-10	1.064531e+01	3.185998e+01
2.180000e-06	1.578541e-06	5.191700e-10	1.095755e+01	3.368765e+01
2.190000e-06	1.623362e-06	5.436400e-10	1.126868e+01	3.548948e+01
2.200000e-06	1.668043e-06	5.691472e-10	1.157883e+01	3.726379e+01
2.210000e-06	1.712633e-06	5.945296e-10	1.188836e+01	3.900908e+01
2.220000e-06	1.757074e-06	6.194472e-10	1.219685e+01	4.072394e+01
2.230000e-06	1.801385e-06	6.410605e-10	1.250444e+01	4.240712e+01
2.240000e-06	1.845628e-06	6.593040e-10	1.281156e+01	4.405753e+01
2.250000e-06	1.889746e-06	6.773584e-10	1.311780e+01	4.567419e+01
2.260000e-06	1.933778e-06	6.965356e-10	1.342345e+01	4.725628e+01
2.270000e-06	1.977752e-06	7.183229e-10	1.372870e+01	4.880310e+01
2.280000e-06	2.021592e-06	7.409247e-10	1.403302e+01	5.031411e+01
2.290000e-06	2.065318e-06	7.622596e-10	1.433654e+01	5.178889e+01
2.300000e-06	2.109004e-06	7.826419e-10	1.463980e+01	5.322716e+01
2.310000e-06	2.152646e-06	8.015813e-10	1.494274e+01	5.462873e+01
2.320000e-06	2.196195e-06	8.197336e-10	1.524504e+01	5.599357e+01
2.330000e-06	2.239566e-06	8.360035e-10	1.554610e+01	5.732173e+01
2.340000e-06	2.282813e-06	8.547633e-10	1.584630e+01	5.861336e+01
2.350000e-06	2.325966e-06	8.740197e-10	1.614585e+01	5.986873e+01
2.360000e-06	2.368893e-06	8.921647e-10	1.644383e+01	6.108818e+01
2.370000e-06	2.411459e-06	9.080720e-10	1.673931e+01	6.227211e+01
2.380000e-06	2.453717e-06	9.212834e-10	1.703264e+01	6.342101e+01
2.390000e-06	2.495726e-06	9.354182e-10	1.732425e+01	6.453543e+01
2.400000e-06	2.537425e-06	9.499480e-10	1.761371e+01	6.561595e+01
2.410000e-06	2.578750e-06	9.644841e-10	1.790057e+01	6.666322e+01
2.420000e-06	2.619785e-06	9.780950e-10	1.818542e+01	6.767790e+01
2.430000e-06	2.660620e-06	9.891867e-10	1.846888e+01	6.866068e+01
2.440000e-06	2.701204e-06	9.990108e-10	1.875059e+01	6.961228e+01
2.450000e-06	2.741532e-06	1.007696e-09	1.903054e+01	7.053341e+01
2.460000e-06	2.781649e-06	1.017350e-09	1.930900e+01	7.142481e+01
2.470000e-06	2.821602e-06	1.029487e-09	1.958635e+01	7.228720e+01
2.480000e-06	2.861443e-06	1.042558e-09	1.986290e+01	7.312130e+01
2.490000e-06	2.901199e-06	1.056028e-09	2.013887e+01	7.392782e+01
2.500000e-06	2.940883e-06	1.068200e-09	2.041434e+01	7.470745e+01
2.510000e-06	2.980379e-06	1.080194e-09	2.068851e+01	7.546088e+01
2.520000e-06	3.019584e-06	1.089674e-09	2.096065e+01	7.618876e+01
2.530000e-06	3.058618e-06	1.096463e-09	2.123161e+01	7.689172e+01
2.540000e-06	3.097546e-06	1.104837e-09	2.150183e+01	7.757040e+01
2.550000e-06	3.136212e-06	1.114342e-09	2.177023e+01	7.822538e+01
2.560000e-06	3.174603e-06	1.121652e-09	2.203672e+01	7.885725e+01
2.570000e-06	3.212796e-06	1.129294e-09	2.230184e+01	7.946657e+01
2.580000e-06	3.250762e-06	1.137861e-09	2.256539e+01	8.005389e+01
2.590000e-06	3.288492e-06	1.145259e-09	2.282729e+01	8.061973e+01
2.600000e-06	3.325992e-06	1.150975e-09	2.308760e+01	8.116463e+01
2.610000e-06	3.363261e-06	1.158538e-09	2.334631e+01	8.168909e+01
2.620000e-06	3.400286e-06	1.167757e-09	2.360332e+01	8.219364e+01
2.630000e-06	3.437164e-06	1.177114e-09	2.385931e+01	8.267878e+01
2.640000e-06	3.473798e-06	1.185015e-09	2.411361e+01	8.314504e+01
2.650000e-06	3.510091e-06	1.189308e-09	2.436554e+01	8.359292e+01
2.660000e-06	3.546119e-06	1.191397e-09	2.461563e+01	8.402298e+01
2.670000e-06	3.581982e-06	1.195389e-09	2.486458e+01	8.443574e+01
2.680000e-06	3.617773e-06	1.201559e-09	2.511302e+01	8.483178e+01
2.690000e-06	3.653464e-06	1.208867e-09	2.536077e+01	8.521166e+01
2.700000e-06	3.689036e-06	1.218094e-09	2.560769e+01	8.557597e+01
2.710000e-06	3.724448e-06	1.226066e-09	2.585352e+01	8.592534e+01
2.720000e-06	3.759516e-06	1.231033e-09	2.609694e+01	8.626038e+01
2.730000e-06	3.794087e-06	1.233947e-09	2.633692e+01	8.658174e+01
2.740000e-06	3.828265e-06	1.236708e-09	2.657417e+01	8.689009e+01
2.750000e-06	3.862101e-06	1.239426e-09	2.680904e+01	8.718610e+01
2.760000e-06	3.895446e-06	1.243294e-09	2.704050e+01	8.747046e+01
2.770000e-06	3.928269e-06	1.248166e-09	2.726835e+01	8.774385e+01
2.780000e-06	3.960655e-06	1.253817e-09	2.749316e+01	8.800698e+01
2.790000e-06	3.992735e-06	1.261592e-09	2.771584e+01	8.826054e+01
2.800000e-06	4.024646e-06	1.270389e-09	2.793735e+01	8.850523e+01
2.810000e-06	4.056485e-06	1.275968e-09	2.815837e+01	8.874171e+01
2.820000e-06	4.088205e-06	1.278693e-09	2.837855e+01	8.897065e+01
2.830000e-06	4.119659e-06	1.281306e-09	2.859690e+01	8.919269e+01
2.840000e-06	4.150797e-06	1.283961e-09	2.881304e+01	8.940844e+01
2.850000e-06	4.181610e-06	1.283904e-09	2.902693e+01	8.961846e+01
2.860000e-06	4.212150e-06	1.283720e-09	2.923893e+01	8.982331e+01
2.870000e-06	4.242418e-06	1.287471e-09	2.944904e+01	9.002346e+01
2.880000e-06	4.272390e-06	1.292706e-09	2.965709e+01	9.021937e+01
2.890000e-06	4.302116e-06	1.297537e-09	2.986343e+01	9.041141e+01
2.900000e-06	4.331583e-06	1.300038e-09	3.006798e+01	9.059993e+01
