# Temperatura_=_10.87
# Concentracion g/m^3_=_1620.0
# C_Vs_to_Am_M_A/Vsm_=_65563218390.804596
# pendiente_HvsI_1/m_=_3716.3
# ordenada_HvsI_A/m_=_1297.0
# frecuencia_Hz_=_135097.76898385715

Tiempo_(s)	Campo_(V.s)	Magnetizacion_(V.s)	Campo_(kA/m)	Magnetizacion_(A/m)
0.000000e+00	-5.524929e-06	-1.654508e-09	-3.838107e+01	-1.073434e+02
1.000000e-08	-5.525210e-06	-1.650485e-09	-3.838302e+01	-1.072780e+02
2.000000e-08	-5.525290e-06	-1.645169e-09	-3.838357e+01	-1.072163e+02
3.000000e-08	-5.525066e-06	-1.642486e-09	-3.838202e+01	-1.071589e+02
4.000000e-08	-5.524339e-06	-1.643528e-09	-3.837696e+01	-1.071059e+02
5.000000e-08	-5.523065e-06	-1.644410e-09	-3.836811e+01	-1.070577e+02
6.000000e-08	-5.521312e-06	-1.639410e-09	-3.835593e+01	-1.070143e+02
7.000000e-08	-5.518999e-06	-1.629101e-09	-3.833987e+01	-1.069758e+02
8.000000e-08	-5.516081e-06	-1.633849e-09	-3.831960e+01	-1.069419e+02
9.000000e-08	-5.512665e-06	-1.684924e-09	-3.829587e+01	-1.069124e+02
1.000000e-07	-5.508760e-06	-1.721901e-09	-3.826874e+01	-1.068869e+02
1.100000e-07	-5.504492e-06	-1.671993e-09	-3.823909e+01	-1.068648e+02
1.200000e-07	-5.500034e-06	-1.579119e-09	-3.820812e+01	-1.068457e+02
1.300000e-07	-5.495414e-06	-1.572231e-09	-3.817603e+01	-1.068287e+02
1.400000e-07	-5.490411e-06	-1.653500e-09	-3.814127e+01	-1.068130e+02
1.500000e-07	-5.484946e-06	-1.673019e-09	-3.810331e+01	-1.067978e+02
1.600000e-07	-5.479101e-06	-1.615264e-09	-3.806270e+01	-1.067821e+02
1.700000e-07	-5.472903e-06	-1.609359e-09	-3.801964e+01	-1.067648e+02
1.800000e-07	-5.466294e-06	-1.667707e-09	-3.797374e+01	-1.067451e+02
1.900000e-07	-5.459217e-06	-1.672741e-09	-3.792457e+01	-1.067218e+02
2.000000e-07	-5.451827e-06	-1.591717e-09	-3.787323e+01	-1.066938e+02
2.100000e-07	-5.444212e-06	-1.577581e-09	-3.782033e+01	-1.066603e+02
2.200000e-07	-5.436367e-06	-1.649984e-09	-3.776584e+01	-1.066202e+02
2.300000e-07	-5.428277e-06	-1.688090e-09	-3.770963e+01	-1.065727e+02
2.400000e-07	-5.419848e-06	-1.645005e-09	-3.765108e+01	-1.065168e+02
2.500000e-07	-5.410841e-06	-1.608627e-09	-3.758851e+01	-1.064519e+02
2.600000e-07	-5.401004e-06	-1.620864e-09	-3.752017e+01	-1.063772e+02
2.700000e-07	-5.390490e-06	-1.629801e-09	-3.744713e+01	-1.062923e+02
2.800000e-07	-5.379564e-06	-1.612497e-09	-3.737123e+01	-1.061968e+02
2.900000e-07	-5.368236e-06	-1.607864e-09	-3.729254e+01	-1.060903e+02
3.000000e-07	-5.356532e-06	-1.621573e-09	-3.721123e+01	-1.059726e+02
3.100000e-07	-5.344379e-06	-1.617592e-09	-3.712681e+01	-1.058439e+02
3.200000e-07	-5.331687e-06	-1.598671e-09	-3.703863e+01	-1.057040e+02
3.300000e-07	-5.318565e-06	-1.586731e-09	-3.694748e+01	-1.055533e+02
3.400000e-07	-5.305204e-06	-1.600059e-09	-3.685466e+01	-1.053921e+02
3.500000e-07	-5.291563e-06	-1.600707e-09	-3.675990e+01	-1.052209e+02
3.600000e-07	-5.277403e-06	-1.587978e-09	-3.666153e+01	-1.050401e+02
3.700000e-07	-5.262679e-06	-1.592616e-09	-3.655924e+01	-1.048505e+02
3.800000e-07	-5.247487e-06	-1.610224e-09	-3.645370e+01	-1.046527e+02
3.900000e-07	-5.231819e-06	-1.587061e-09	-3.634486e+01	-1.044474e+02
4.000000e-07	-5.215675e-06	-1.559321e-09	-3.623271e+01	-1.042357e+02
4.100000e-07	-5.199118e-06	-1.578424e-09	-3.611769e+01	-1.040182e+02
4.200000e-07	-5.182230e-06	-1.587522e-09	-3.600037e+01	-1.037958e+02
4.300000e-07	-5.165040e-06	-1.547746e-09	-3.588095e+01	-1.035694e+02
4.400000e-07	-5.147517e-06	-1.550751e-09	-3.575922e+01	-1.033399e+02
4.500000e-07	-5.129702e-06	-1.587146e-09	-3.563546e+01	-1.031079e+02
4.600000e-07	-5.111450e-06	-1.559816e-09	-3.550867e+01	-1.028744e+02
4.700000e-07	-5.092783e-06	-1.518549e-09	-3.537900e+01	-1.026400e+02
4.800000e-07	-5.073794e-06	-1.548103e-09	-3.524708e+01	-1.024053e+02
4.900000e-07	-5.054434e-06	-1.559752e-09	-3.511259e+01	-1.021709e+02
5.000000e-07	-5.034812e-06	-1.523736e-09	-3.497628e+01	-1.019371e+02
5.100000e-07	-5.015010e-06	-1.528762e-09	-3.483872e+01	-1.017045e+02
5.200000e-07	-4.994958e-06	-1.545635e-09	-3.469942e+01	-1.014733e+02
5.300000e-07	-4.974510e-06	-1.517322e-09	-3.455736e+01	-1.012435e+02
5.400000e-07	-4.953691e-06	-1.517139e-09	-3.441274e+01	-1.010154e+02
5.500000e-07	-4.932528e-06	-1.542613e-09	-3.426572e+01	-1.007889e+02
5.600000e-07	-4.910966e-06	-1.513768e-09	-3.411593e+01	-1.005638e+02
5.700000e-07	-4.889091e-06	-1.486299e-09	-3.396397e+01	-1.003400e+02
5.800000e-07	-4.866933e-06	-1.515316e-09	-3.381004e+01	-1.001173e+02
5.900000e-07	-4.844444e-06	-1.515376e-09	-3.365381e+01	-9.989515e+01
6.000000e-07	-4.821538e-06	-1.486772e-09	-3.349469e+01	-9.967333e+01
6.100000e-07	-4.798270e-06	-1.501092e-09	-3.333304e+01	-9.945134e+01
6.200000e-07	-4.774781e-06	-1.510174e-09	-3.316987e+01	-9.922873e+01
6.300000e-07	-4.751071e-06	-1.484624e-09	-3.300516e+01	-9.900498e+01
6.400000e-07	-4.727175e-06	-1.480479e-09	-3.283915e+01	-9.877961e+01
6.500000e-07	-4.703003e-06	-1.489604e-09	-3.267124e+01	-9.855210e+01
6.600000e-07	-4.678393e-06	-1.469124e-09	-3.250027e+01	-9.832198e+01
6.700000e-07	-4.653325e-06	-1.464578e-09	-3.232613e+01	-9.808877e+01
6.800000e-07	-4.627705e-06	-1.480353e-09	-3.214815e+01	-9.785204e+01
6.900000e-07	-4.601510e-06	-1.474854e-09	-3.196617e+01	-9.761140e+01
7.000000e-07	-4.574782e-06	-1.465286e-09	-3.178050e+01	-9.736650e+01
7.100000e-07	-4.547645e-06	-1.473970e-09	-3.159198e+01	-9.711707e+01
7.200000e-07	-4.520240e-06	-1.463813e-09	-3.140160e+01	-9.686286e+01
7.300000e-07	-4.492592e-06	-1.446626e-09	-3.120953e+01	-9.660370e+01
7.400000e-07	-4.464755e-06	-1.448838e-09	-3.101616e+01	-9.633949e+01
7.500000e-07	-4.436756e-06	-1.443601e-09	-3.082165e+01	-9.607017e+01
7.600000e-07	-4.408580e-06	-1.426686e-09	-3.062591e+01	-9.579575e+01
7.700000e-07	-4.380166e-06	-1.428985e-09	-3.042852e+01	-9.551629e+01
7.800000e-07	-4.351333e-06	-1.432556e-09	-3.022822e+01	-9.523191e+01
7.900000e-07	-4.322068e-06	-1.421004e-09	-3.002492e+01	-9.494276e+01
8.000000e-07	-4.292530e-06	-1.416871e-09	-2.981972e+01	-9.464905e+01
8.100000e-07	-4.262769e-06	-1.415644e-09	-2.961298e+01	-9.435098e+01
8.200000e-07	-4.232785e-06	-1.395998e-09	-2.940468e+01	-9.404883e+01
8.300000e-07	-4.202455e-06	-1.380296e-09	-2.919398e+01	-9.374284e+01
8.400000e-07	-4.171719e-06	-1.381788e-09	-2.898047e+01	-9.343328e+01
8.500000e-07	-4.140648e-06	-1.379248e-09	-2.876462e+01	-9.312044e+01
8.600000e-07	-4.109300e-06	-1.374551e-09	-2.854685e+01	-9.280456e+01
8.700000e-07	-4.077770e-06	-1.377714e-09	-2.832781e+01	-9.248588e+01
8.800000e-07	-4.046139e-06	-1.373572e-09	-2.810808e+01	-9.216464e+01
8.900000e-07	-4.014411e-06	-1.358761e-09	-2.788767e+01	-9.184101e+01
9.000000e-07	-3.982513e-06	-1.351228e-09	-2.766607e+01	-9.151516e+01
9.100000e-07	-3.950289e-06	-1.346480e-09	-2.744221e+01	-9.118720e+01
9.200000e-07	-3.917768e-06	-1.336351e-09	-2.721630e+01	-9.085722e+01
9.300000e-07	-3.884899e-06	-1.333073e-09	-2.698796e+01	-9.052526e+01
9.400000e-07	-3.851574e-06	-1.337477e-09	-2.675645e+01	-9.019132e+01
9.500000e-07	-3.817750e-06	-1.332084e-09	-2.652148e+01	-8.985535e+01
9.600000e-07	-3.783291e-06	-1.322960e-09	-2.628210e+01	-8.951727e+01
9.700000e-07	-3.748474e-06	-1.317791e-09	-2.604023e+01	-8.917697e+01
9.800000e-07	-3.713364e-06	-1.308873e-09	-2.579632e+01	-8.883430e+01
9.900000e-07	-3.677899e-06	-1.296185e-09	-2.554995e+01	-8.848907e+01
1.000000e-06	-3.642298e-06	-1.290568e-09	-2.530264e+01	-8.814110e+01
1.010000e-06	-3.606572e-06	-1.285664e-09	-2.505445e+01	-8.779015e+01
1.020000e-06	-3.570746e-06	-1.278718e-09	-2.480557e+01	-8.743601e+01
1.030000e-06	-3.534781e-06	-1.274027e-09	-2.455573e+01	-8.707842e+01
1.040000e-06	-3.498619e-06	-1.271568e-09	-2.430452e+01	-8.671716e+01
1.050000e-06	-3.462194e-06	-1.264842e-09	-2.405147e+01	-8.635199e+01
1.060000e-06	-3.425523e-06	-1.256064e-09	-2.379673e+01	-8.598269e+01
1.070000e-06	-3.388602e-06	-1.249540e-09	-2.354024e+01	-8.560905e+01
1.080000e-06	-3.351305e-06	-1.242555e-09	-2.328114e+01	-8.523087e+01
1.090000e-06	-3.313775e-06	-1.234228e-09	-2.302043e+01	-8.484799e+01
1.100000e-06	-3.276138e-06	-1.227384e-09	-2.275896e+01	-8.446025e+01
1.110000e-06	-3.238291e-06	-1.221947e-09	-2.249604e+01	-8.406754e+01
1.120000e-06	-3.200121e-06	-1.217596e-09	-2.223088e+01	-8.366977e+01
1.130000e-06	-3.161721e-06	-1.211493e-09	-2.196412e+01	-8.326685e+01
1.140000e-06	-3.123155e-06	-1.202943e-09	-2.169621e+01	-8.285875e+01
1.150000e-06	-3.084325e-06	-1.194538e-09	-2.142646e+01	-8.244544e+01
1.160000e-06	-3.045269e-06	-1.187795e-09	-2.115515e+01	-8.202692e+01
1.170000e-06	-3.006049e-06	-1.180627e-09	-2.088269e+01	-8.160320e+01
1.180000e-06	-2.966672e-06	-1.171502e-09	-2.060914e+01	-8.117429e+01
1.190000e-06	-2.927121e-06	-1.167872e-09	-2.033438e+01	-8.074025e+01
1.200000e-06	-2.887413e-06	-1.167455e-09	-2.005853e+01	-8.030110e+01
1.210000e-06	-2.847595e-06	-1.163705e-09	-1.978192e+01	-7.985687e+01
1.220000e-06	-2.807697e-06	-1.157644e-09	-1.950476e+01	-7.940759e+01
1.230000e-06	-2.767692e-06	-1.151298e-09	-1.922684e+01	-7.895328e+01
1.240000e-06	-2.727472e-06	-1.142369e-09	-1.894744e+01	-7.849394e+01
1.250000e-06	-2.687048e-06	-1.131737e-09	-1.866662e+01	-7.802955e+01
1.260000e-06	-2.646418e-06	-1.122970e-09	-1.838437e+01	-7.756006e+01
1.270000e-06	-2.605547e-06	-1.115742e-09	-1.810044e+01	-7.708539e+01
1.280000e-06	-2.564285e-06	-1.107324e-09	-1.781380e+01	-7.660546e+01
1.290000e-06	-2.522633e-06	-1.099780e-09	-1.752445e+01	-7.612012e+01
1.300000e-06	-2.480840e-06	-1.091428e-09	-1.723412e+01	-7.562921e+01
1.310000e-06	-2.438782e-06	-1.083983e-09	-1.694194e+01	-7.513251e+01
1.320000e-06	-2.396371e-06	-1.078065e-09	-1.664732e+01	-7.462981e+01
1.330000e-06	-2.353704e-06	-1.072722e-09	-1.635092e+01	-7.412084e+01
1.340000e-06	-2.310715e-06	-1.064683e-09	-1.605228e+01	-7.360529e+01
1.350000e-06	-2.267445e-06	-1.055499e-09	-1.575169e+01	-7.308284e+01
1.360000e-06	-2.224111e-06	-1.049313e-09	-1.545065e+01	-7.255313e+01
1.370000e-06	-2.180702e-06	-1.042738e-09	-1.514909e+01	-7.201580e+01
1.380000e-06	-2.137118e-06	-1.034993e-09	-1.484632e+01	-7.147045e+01
1.390000e-06	-2.093413e-06	-1.026696e-09	-1.454271e+01	-7.091667e+01
1.400000e-06	-2.049606e-06	-1.017626e-09	-1.423838e+01	-7.035404e+01
1.410000e-06	-2.005722e-06	-1.007584e-09	-1.393353e+01	-6.978212e+01
1.420000e-06	-1.961802e-06	-9.969586e-10	-1.362842e+01	-6.920049e+01
1.430000e-06	-1.917760e-06	-9.851123e-10	-1.332247e+01	-6.860870e+01
1.440000e-06	-1.873640e-06	-9.733104e-10	-1.301597e+01	-6.800631e+01
1.450000e-06	-1.829540e-06	-9.615191e-10	-1.270961e+01	-6.739290e+01
1.460000e-06	-1.785353e-06	-9.508362e-10	-1.240265e+01	-6.676802e+01
1.470000e-06	-1.740928e-06	-9.423870e-10	-1.209403e+01	-6.613124e+01
1.480000e-06	-1.696337e-06	-9.332755e-10	-1.178426e+01	-6.548214e+01
1.490000e-06	-1.651641e-06	-9.214983e-10	-1.147377e+01	-6.482028e+01
1.500000e-06	-1.606775e-06	-9.068001e-10	-1.116209e+01	-6.414526e+01
1.510000e-06	-1.561779e-06	-8.894696e-10	-1.084950e+01	-6.345662e+01
1.520000e-06	-1.516732e-06	-8.762907e-10	-1.053657e+01	-6.275395e+01
1.530000e-06	-1.471579e-06	-8.678182e-10	-1.022290e+01	-6.203680e+01
1.540000e-06	-1.426174e-06	-8.587048e-10	-9.907470e+00	-6.130471e+01
1.550000e-06	-1.380690e-06	-8.472764e-10	-9.591501e+00	-6.055721e+01
1.560000e-06	-1.335235e-06	-8.341679e-10	-9.275725e+00	-5.979378e+01
1.570000e-06	-1.289674e-06	-8.192872e-10	-8.959222e+00	-5.901392e+01
1.580000e-06	-1.244002e-06	-8.036196e-10	-8.641946e+00	-5.821705e+01
1.590000e-06	-1.198221e-06	-7.887609e-10	-8.323904e+00	-5.740257e+01
1.600000e-06	-1.152308e-06	-7.746045e-10	-8.004957e+00	-5.656983e+01
1.610000e-06	-1.106339e-06	-7.624748e-10	-7.685615e+00	-5.571815e+01
1.620000e-06	-1.060336e-06	-7.528905e-10	-7.366037e+00	-5.484678e+01
1.630000e-06	-1.014236e-06	-7.441874e-10	-7.045784e+00	-5.395493e+01
1.640000e-06	-9.679967e-07	-7.339580e-10	-6.724565e+00	-5.304174e+01
1.650000e-06	-9.216847e-07	-7.177789e-10	-6.402840e+00	-5.210632e+01
1.660000e-06	-8.753746e-07	-6.997942e-10	-6.081129e+00	-5.114771e+01
1.670000e-06	-8.290439e-07	-6.806570e-10	-5.759275e+00	-5.016491e+01
1.680000e-06	-7.827148e-07	-6.611468e-10	-5.437433e+00	-4.915685e+01
1.690000e-06	-7.363238e-07	-6.415292e-10	-5.115159e+00	-4.812245e+01
1.700000e-06	-6.898556e-07	-6.236027e-10	-4.792350e+00	-4.706059e+01
1.710000e-06	-6.432939e-07	-6.075669e-10	-4.468891e+00	-4.597010e+01
1.720000e-06	-5.966733e-07	-5.930275e-10	-4.145023e+00	-4.484982e+01
1.730000e-06	-5.500321e-07	-5.777474e-10	-3.821012e+00	-4.369858e+01
1.740000e-06	-5.033366e-07	-5.552463e-10	-3.496623e+00	-4.251521e+01
1.750000e-06	-4.566425e-07	-5.316174e-10	-3.172244e+00	-4.129856e+01
1.760000e-06	-4.098865e-07	-5.072893e-10	-2.847436e+00	-4.004752e+01
1.770000e-06	-3.630587e-07	-4.857243e-10	-2.522128e+00	-3.876102e+01
1.780000e-06	-3.161858e-07	-4.700875e-10	-2.196507e+00	-3.743807e+01
1.790000e-06	-2.692981e-07	-4.553643e-10	-1.870784e+00	-3.607772e+01
1.800000e-06	-2.224031e-07	-4.381454e-10	-1.545010e+00	-3.467917e+01
1.810000e-06	-1.754869e-07	-4.191981e-10	-1.219088e+00	-3.324168e+01
1.820000e-06	-1.285734e-07	-3.962572e-10	-8.931853e-01	-3.176466e+01
1.830000e-06	-8.172222e-08	-3.709769e-10	-5.677151e-01	-3.024765e+01
1.840000e-06	-3.480192e-08	-3.461560e-10	-2.417651e-01	-2.869035e+01
1.850000e-06	1.215070e-08	-3.241332e-10	8.440954e-02	-2.709260e+01
1.860000e-06	5.896620e-08	-3.047055e-10	4.096316e-01	-2.545444e+01
1.870000e-06	1.058545e-07	-2.835120e-10	7.353592e-01	-2.377609e+01
1.880000e-06	1.527620e-07	-2.575720e-10	1.061221e+00	-2.205793e+01
1.890000e-06	1.995009e-07	-2.300340e-10	1.385911e+00	-2.030058e+01
1.900000e-06	2.461975e-07	-2.025118e-10	1.710307e+00	-1.850483e+01
1.910000e-06	2.930074e-07	-1.745279e-10	2.035490e+00	-1.667168e+01
1.920000e-06	3.398900e-07	-1.470519e-10	2.361178e+00	-1.480235e+01
1.930000e-06	3.867257e-07	-1.218886e-10	2.686540e+00	-1.289824e+01
1.940000e-06	4.334356e-07	-1.006778e-10	3.011028e+00	-1.096095e+01
1.950000e-06	4.801362e-07	-7.665936e-11	3.335452e+00	-8.992276e+00
1.960000e-06	5.268882e-07	-4.960705e-11	3.660233e+00	-6.994200e+00
1.970000e-06	5.735738e-07	-1.995070e-11	3.984553e+00	-4.968869e+00
1.980000e-06	6.200751e-07	9.960244e-12	4.307593e+00	-2.918597e+00
1.990000e-06	6.665411e-07	3.787475e-11	4.630387e+00	-8.458440e-01
2.000000e-06	7.130742e-07	6.827944e-11	4.953647e+00	1.246795e+00
2.010000e-06	7.595477e-07	1.000806e-10	5.276493e+00	3.356608e+00
2.020000e-06	8.059019e-07	1.301045e-10	5.598510e+00	5.480780e+00
2.030000e-06	8.521876e-07	1.585203e-10	5.920052e+00	7.616414e+00
2.040000e-06	8.984285e-07	1.874494e-10	6.241282e+00	9.760547e+00
2.050000e-06	9.445309e-07	2.164022e-10	6.561550e+00	1.191017e+01
2.060000e-06	9.905700e-07	2.460918e-10	6.881379e+00	1.406225e+01
2.070000e-06	1.036585e-06	2.799134e-10	7.201044e+00	1.621374e+01
2.080000e-06	1.082536e-06	3.153566e-10	7.520259e+00	1.836161e+01
2.090000e-06	1.128474e-06	3.464512e-10	7.839386e+00	2.050286e+01
2.100000e-06	1.174349e-06	3.739575e-10	8.158068e+00	2.263454e+01
2.110000e-06	1.220104e-06	4.019412e-10	8.475929e+00	2.475376e+01
2.120000e-06	1.265716e-06	4.303581e-10	8.792790e+00	2.685772e+01
2.130000e-06	1.311258e-06	4.592902e-10	9.109163e+00	2.894372e+01
2.140000e-06	1.356760e-06	4.892638e-10	9.425258e+00	3.100917e+01
2.150000e-06	1.402147e-06	5.186691e-10	9.740558e+00	3.305159e+01
2.160000e-06	1.447447e-06	5.488356e-10	1.005525e+01	3.506868e+01
2.170000e-06	1.492610e-06	5.787529e-10	1.036899e+01	3.705825e+01
2.180000e-06	1.537655e-06	6.073176e-10	1.068192e+01	3.901828e+01
2.190000e-06	1.582610e-06	6.350525e-10	1.099421e+01	4.094693e+01
2.200000e-06	1.627415e-06	6.597443e-10	1.130547e+01	4.284251e+01
2.210000e-06	1.672101e-06	6.830575e-10	1.161590e+01	4.470353e+01
2.220000e-06	1.716700e-06	7.073132e-10	1.192572e+01	4.652866e+01
2.230000e-06	1.761179e-06	7.336462e-10	1.223471e+01	4.831676e+01
2.240000e-06	1.805506e-06	7.593769e-10	1.254265e+01	5.006687e+01
2.250000e-06	1.849699e-06	7.826760e-10	1.284965e+01	5.177821e+01
2.260000e-06	1.893793e-06	8.055275e-10	1.315597e+01	5.345017e+01
2.270000e-06	1.937754e-06	8.275682e-10	1.346136e+01	5.508232e+01
2.280000e-06	1.981579e-06	8.485406e-10	1.376581e+01	5.667439e+01
2.290000e-06	2.025372e-06	8.689702e-10	1.407003e+01	5.822627e+01
2.300000e-06	2.069161e-06	8.888687e-10	1.437423e+01	5.973800e+01
2.310000e-06	2.112877e-06	9.085114e-10	1.467792e+01	6.120977e+01
2.320000e-06	2.156499e-06	9.291160e-10	1.498096e+01	6.264189e+01
2.330000e-06	2.200015e-06	9.487251e-10	1.528326e+01	6.403482e+01
2.340000e-06	2.243434e-06	9.663926e-10	1.558488e+01	6.538909e+01
2.350000e-06	2.286730e-06	9.863103e-10	1.588565e+01	6.670536e+01
2.360000e-06	2.329777e-06	1.007235e-09	1.618470e+01	6.798437e+01
2.370000e-06	2.372502e-06	1.025730e-09	1.648150e+01	6.922693e+01
2.380000e-06	2.414955e-06	1.042740e-09	1.677643e+01	7.043392e+01
2.390000e-06	2.457203e-06	1.058051e-09	1.706991e+01	7.160628e+01
2.400000e-06	2.499126e-06	1.073585e-09	1.736115e+01	7.274497e+01
2.410000e-06	2.540646e-06	1.088877e-09	1.764958e+01	7.385098e+01
2.420000e-06	2.581860e-06	1.104777e-09	1.793589e+01	7.492533e+01
2.430000e-06	2.622832e-06	1.118907e-09	1.822052e+01	7.596904e+01
2.440000e-06	2.663568e-06	1.129817e-09	1.850351e+01	7.698310e+01
2.450000e-06	2.704008e-06	1.141233e-09	1.878444e+01	7.796851e+01
2.460000e-06	2.744200e-06	1.154220e-09	1.906365e+01	7.892625e+01
2.470000e-06	2.784270e-06	1.169637e-09	1.934201e+01	7.985725e+01
2.480000e-06	2.824249e-06	1.183832e-09	1.961974e+01	8.076241e+01
2.490000e-06	2.864109e-06	1.195012e-09	1.989665e+01	8.164258e+01
2.500000e-06	2.903847e-06	1.205618e-09	2.017270e+01	8.249856e+01
2.510000e-06	2.943450e-06	1.215191e-09	2.044782e+01	8.333111e+01
2.520000e-06	2.982884e-06	1.224782e-09	2.072176e+01	8.414091e+01
2.530000e-06	3.022148e-06	1.234283e-09	2.099452e+01	8.492860e+01
2.540000e-06	3.061164e-06	1.242715e-09	2.126556e+01	8.569476e+01
2.550000e-06	3.099898e-06	1.251856e-09	2.153465e+01	8.643991e+01
2.560000e-06	3.138388e-06	1.260455e-09	2.180203e+01	8.716453e+01
2.570000e-06	3.176689e-06	1.269331e-09	2.206811e+01	8.786902e+01
2.580000e-06	3.214797e-06	1.279109e-09	2.233284e+01	8.855376e+01
2.590000e-06	3.252739e-06	1.288619e-09	2.259641e+01	8.921908e+01
2.600000e-06	3.290441e-06	1.299162e-09	2.285833e+01	8.986527e+01
2.610000e-06	3.327848e-06	1.308394e-09	2.311819e+01	9.049259e+01
2.620000e-06	3.365109e-06	1.316760e-09	2.337704e+01	9.110128e+01
2.630000e-06	3.402168e-06	1.324963e-09	2.363448e+01	9.169157e+01
2.640000e-06	3.438900e-06	1.330733e-09	2.388965e+01	9.226367e+01
2.650000e-06	3.475375e-06	1.337274e-09	2.414304e+01	9.281780e+01
2.660000e-06	3.511659e-06	1.343845e-09	2.439511e+01	9.335417e+01
2.670000e-06	3.547720e-06	1.353659e-09	2.464561e+01	9.387302e+01
2.680000e-06	3.583608e-06	1.363823e-09	2.489492e+01	9.437460e+01
2.690000e-06	3.619377e-06	1.372380e-09	2.514341e+01	9.485918e+01
2.700000e-06	3.655025e-06	1.379673e-09	2.539105e+01	9.532707e+01
2.710000e-06	3.690532e-06	1.384281e-09	2.563771e+01	9.577863e+01
2.720000e-06	3.725774e-06	1.387581e-09	2.588254e+01	9.621421e+01
2.730000e-06	3.760676e-06	1.392156e-09	2.612500e+01	9.663425e+01
2.740000e-06	3.795283e-06	1.397665e-09	2.636541e+01	9.703921e+01
2.750000e-06	3.829453e-06	1.405746e-09	2.660278e+01	9.742959e+01
2.760000e-06	3.863134e-06	1.414812e-09	2.683676e+01	9.780594e+01
2.770000e-06	3.896368e-06	1.422959e-09	2.706763e+01	9.816883e+01
2.780000e-06	3.929153e-06	1.430615e-09	2.729539e+01	9.851889e+01
2.790000e-06	3.961593e-06	1.437374e-09	2.752074e+01	9.885677e+01
2.800000e-06	3.993748e-06	1.443047e-09	2.774412e+01	9.918313e+01
2.810000e-06	4.025669e-06	1.445740e-09	2.796587e+01	9.949868e+01
2.820000e-06	4.057466e-06	1.449354e-09	2.818676e+01	9.980413e+01
2.830000e-06	4.089098e-06	1.454599e-09	2.840651e+01	1.001002e+02
2.840000e-06	4.120492e-06	1.460128e-09	2.862460e+01	1.003875e+02
2.850000e-06	4.151615e-06	1.463846e-09	2.884081e+01	1.006669e+02
2.860000e-06	4.182476e-06	1.465448e-09	2.905520e+01	1.009389e+02
2.870000e-06	4.213062e-06	1.468582e-09	2.926767e+01	1.012043e+02
2.880000e-06	4.243298e-06	1.473694e-09	2.947772e+01	1.014636e+02
2.890000e-06	4.273180e-06	1.478497e-09	2.968530e+01	1.017175e+02
2.900000e-06	4.302706e-06	1.483846e-09	2.989042e+01	1.019663e+02
