# Temperatura_=_13.16
# Concentracion g/m^3_=_1620.0
# C_Vs_to_Am_M_A/Vsm_=_65563218390.804596
# pendiente_HvsI_1/m_=_3716.3
# ordenada_HvsI_A/m_=_1297.0
# frecuencia_Hz_=_135095.737479554

Tiempo_(s)	Campo_(V.s)	Magnetizacion_(V.s)	Campo_(kA/m)	Magnetizacion_(A/m)
0.000000e+00	-5.525434e-06	-1.704803e-09	-3.838255e+01	-1.102752e+02
1.000000e-08	-5.525699e-06	-1.701462e-09	-3.838440e+01	-1.102175e+02
2.000000e-08	-5.525726e-06	-1.698615e-09	-3.838458e+01	-1.101556e+02
3.000000e-08	-5.525280e-06	-1.700861e-09	-3.838149e+01	-1.100898e+02
4.000000e-08	-5.524277e-06	-1.705116e-09	-3.837452e+01	-1.100205e+02
5.000000e-08	-5.522663e-06	-1.700934e-09	-3.836330e+01	-1.099479e+02
6.000000e-08	-5.520432e-06	-1.686326e-09	-3.834781e+01	-1.098725e+02
7.000000e-08	-5.517713e-06	-1.673391e-09	-3.832892e+01	-1.097946e+02
8.000000e-08	-5.514585e-06	-1.726148e-09	-3.830719e+01	-1.097145e+02
9.000000e-08	-5.511000e-06	-1.803224e-09	-3.828229e+01	-1.096325e+02
1.000000e-07	-5.506955e-06	-1.750542e-09	-3.825419e+01	-1.095489e+02
1.100000e-07	-5.502559e-06	-1.607556e-09	-3.822365e+01	-1.094640e+02
1.200000e-07	-5.497973e-06	-1.607240e-09	-3.819179e+01	-1.093780e+02
1.300000e-07	-5.493132e-06	-1.704040e-09	-3.815817e+01	-1.092911e+02
1.400000e-07	-5.487820e-06	-1.767396e-09	-3.812127e+01	-1.092033e+02
1.500000e-07	-5.482035e-06	-1.634276e-09	-3.808108e+01	-1.091147e+02
1.600000e-07	-5.475955e-06	-1.638160e-09	-3.803885e+01	-1.090254e+02
1.700000e-07	-5.469580e-06	-1.695988e-09	-3.799456e+01	-1.089352e+02
1.800000e-07	-5.462741e-06	-1.745782e-09	-3.794706e+01	-1.088441e+02
1.900000e-07	-5.455455e-06	-1.641977e-09	-3.789644e+01	-1.087518e+02
2.000000e-07	-5.447969e-06	-1.610473e-09	-3.784445e+01	-1.086582e+02
2.100000e-07	-5.440210e-06	-1.673535e-09	-3.779055e+01	-1.085630e+02
2.200000e-07	-5.432184e-06	-1.715072e-09	-3.773479e+01	-1.084658e+02
2.300000e-07	-5.424016e-06	-1.668897e-09	-3.767805e+01	-1.083663e+02
2.400000e-07	-5.415354e-06	-1.603447e-09	-3.761788e+01	-1.082641e+02
2.500000e-07	-5.405899e-06	-1.627768e-09	-3.755220e+01	-1.081588e+02
2.600000e-07	-5.395717e-06	-1.646039e-09	-3.748147e+01	-1.080500e+02
2.700000e-07	-5.384987e-06	-1.667168e-09	-3.740694e+01	-1.079372e+02
2.800000e-07	-5.373784e-06	-1.625223e-09	-3.732912e+01	-1.078201e+02
2.900000e-07	-5.362208e-06	-1.638671e-09	-3.724870e+01	-1.076983e+02
3.000000e-07	-5.350294e-06	-1.626345e-09	-3.716594e+01	-1.075714e+02
3.100000e-07	-5.337963e-06	-1.646581e-09	-3.708029e+01	-1.074390e+02
3.200000e-07	-5.325158e-06	-1.593945e-09	-3.699133e+01	-1.073010e+02
3.300000e-07	-5.311966e-06	-1.624228e-09	-3.689969e+01	-1.071571e+02
3.400000e-07	-5.298480e-06	-1.633592e-09	-3.680602e+01	-1.070071e+02
3.500000e-07	-5.284554e-06	-1.645346e-09	-3.670928e+01	-1.068509e+02
3.600000e-07	-5.270069e-06	-1.608073e-09	-3.660866e+01	-1.066886e+02
3.700000e-07	-5.255258e-06	-1.639694e-09	-3.650577e+01	-1.065200e+02
3.800000e-07	-5.239982e-06	-1.609713e-09	-3.639965e+01	-1.063455e+02
3.900000e-07	-5.223966e-06	-1.589938e-09	-3.628840e+01	-1.061651e+02
4.000000e-07	-5.207453e-06	-1.613733e-09	-3.617369e+01	-1.059791e+02
4.100000e-07	-5.190659e-06	-1.644287e-09	-3.605703e+01	-1.057878e+02
4.200000e-07	-5.173587e-06	-1.586537e-09	-3.593844e+01	-1.055917e+02
4.300000e-07	-5.156268e-06	-1.584149e-09	-3.581813e+01	-1.053911e+02
4.400000e-07	-5.138651e-06	-1.638740e-09	-3.569576e+01	-1.051866e+02
4.500000e-07	-5.120582e-06	-1.604173e-09	-3.557024e+01	-1.049786e+02
4.600000e-07	-5.102026e-06	-1.555860e-09	-3.544134e+01	-1.047677e+02
4.700000e-07	-5.083067e-06	-1.600497e-09	-3.530964e+01	-1.045546e+02
4.800000e-07	-5.063814e-06	-1.623296e-09	-3.517590e+01	-1.043397e+02
4.900000e-07	-5.044320e-06	-1.563366e-09	-3.504048e+01	-1.041236e+02
5.000000e-07	-5.024639e-06	-1.579883e-09	-3.490377e+01	-1.039069e+02
5.100000e-07	-5.004776e-06	-1.599474e-09	-3.476579e+01	-1.036901e+02
5.200000e-07	-4.984546e-06	-1.557081e-09	-3.462526e+01	-1.034737e+02
5.300000e-07	-4.963948e-06	-1.543476e-09	-3.448218e+01	-1.032582e+02
5.400000e-07	-4.943001e-06	-1.600107e-09	-3.433667e+01	-1.030439e+02
5.500000e-07	-4.921650e-06	-1.563957e-09	-3.418836e+01	-1.028311e+02
5.600000e-07	-4.899892e-06	-1.531652e-09	-3.403721e+01	-1.026201e+02
5.700000e-07	-4.877780e-06	-1.559677e-09	-3.388361e+01	-1.024112e+02
5.800000e-07	-4.855363e-06	-1.568693e-09	-3.372789e+01	-1.022042e+02
5.900000e-07	-4.832641e-06	-1.514002e-09	-3.357005e+01	-1.019994e+02
6.000000e-07	-4.809619e-06	-1.532231e-09	-3.341013e+01	-1.017966e+02
6.100000e-07	-4.786261e-06	-1.546164e-09	-3.324787e+01	-1.015956e+02
6.200000e-07	-4.762677e-06	-1.523819e-09	-3.308405e+01	-1.013962e+02
6.300000e-07	-4.738869e-06	-1.509161e-09	-3.291866e+01	-1.011982e+02
6.400000e-07	-4.714810e-06	-1.532450e-09	-3.275154e+01	-1.010011e+02
6.500000e-07	-4.690432e-06	-1.508289e-09	-3.258219e+01	-1.008044e+02
6.600000e-07	-4.665606e-06	-1.496383e-09	-3.240974e+01	-1.006078e+02
6.700000e-07	-4.640239e-06	-1.511454e-09	-3.223353e+01	-1.004105e+02
6.800000e-07	-4.614312e-06	-1.513006e-09	-3.205343e+01	-1.002121e+02
6.900000e-07	-4.587897e-06	-1.487051e-09	-3.186993e+01	-1.000120e+02
7.000000e-07	-4.561089e-06	-1.493751e-09	-3.168371e+01	-9.980942e+01
7.100000e-07	-4.533964e-06	-1.495568e-09	-3.149528e+01	-9.960380e+01
7.200000e-07	-4.506486e-06	-1.476150e-09	-3.130441e+01	-9.939451e+01
7.300000e-07	-4.478776e-06	-1.468477e-09	-3.111192e+01	-9.918092e+01
7.400000e-07	-4.450939e-06	-1.478087e-09	-3.091855e+01	-9.896245e+01
7.500000e-07	-4.422866e-06	-1.469867e-09	-3.072354e+01	-9.873852e+01
7.600000e-07	-4.394538e-06	-1.457005e-09	-3.052676e+01	-9.850862e+01
7.700000e-07	-4.365895e-06	-1.462383e-09	-3.032779e+01	-9.827229e+01
7.800000e-07	-4.336841e-06	-1.455786e-09	-3.012597e+01	-9.802913e+01
7.900000e-07	-4.307435e-06	-1.445462e-09	-2.992170e+01	-9.777877e+01
8.000000e-07	-4.277840e-06	-1.443179e-09	-2.971612e+01	-9.752096e+01
8.100000e-07	-4.248041e-06	-1.441283e-09	-2.950912e+01	-9.725546e+01
8.200000e-07	-4.217840e-06	-1.421038e-09	-2.929932e+01	-9.698215e+01
8.300000e-07	-4.187357e-06	-1.419498e-09	-2.908757e+01	-9.670095e+01
8.400000e-07	-4.156617e-06	-1.416541e-09	-2.887404e+01	-9.641187e+01
8.500000e-07	-4.125526e-06	-1.408906e-09	-2.865806e+01	-9.611495e+01
8.600000e-07	-4.094220e-06	-1.399548e-09	-2.844060e+01	-9.581034e+01
8.700000e-07	-4.062736e-06	-1.402586e-09	-2.822189e+01	-9.549821e+01
8.800000e-07	-4.031099e-06	-1.388570e-09	-2.800213e+01	-9.517880e+01
8.900000e-07	-3.999289e-06	-1.381205e-09	-2.778115e+01	-9.485237e+01
9.000000e-07	-3.967248e-06	-1.375820e-09	-2.755858e+01	-9.451926e+01
9.100000e-07	-3.934919e-06	-1.369784e-09	-2.733401e+01	-9.417980e+01
9.200000e-07	-3.902064e-06	-1.356711e-09	-2.710578e+01	-9.383435e+01
9.300000e-07	-3.868717e-06	-1.359367e-09	-2.687413e+01	-9.348330e+01
9.400000e-07	-3.834967e-06	-1.355044e-09	-2.663968e+01	-9.312703e+01
9.500000e-07	-3.800843e-06	-1.346923e-09	-2.640264e+01	-9.276592e+01
9.600000e-07	-3.766399e-06	-1.339472e-09	-2.616338e+01	-9.240035e+01
9.700000e-07	-3.731529e-06	-1.337795e-09	-2.592115e+01	-9.203066e+01
9.800000e-07	-3.696256e-06	-1.326049e-09	-2.567613e+01	-9.165720e+01
9.900000e-07	-3.660791e-06	-1.314947e-09	-2.542977e+01	-9.128027e+01
1.000000e-06	-3.625253e-06	-1.309014e-09	-2.518291e+01	-9.090014e+01
1.010000e-06	-3.589550e-06	-1.303542e-09	-2.493489e+01	-9.051705e+01
1.020000e-06	-3.553695e-06	-1.297042e-09	-2.468583e+01	-9.013119e+01
1.030000e-06	-3.517641e-06	-1.297671e-09	-2.443537e+01	-8.974272e+01
1.040000e-06	-3.481305e-06	-1.296945e-09	-2.418296e+01	-8.935176e+01
1.050000e-06	-3.444696e-06	-1.285081e-09	-2.392866e+01	-8.895837e+01
1.060000e-06	-3.407769e-06	-1.276867e-09	-2.367214e+01	-8.856258e+01
1.070000e-06	-3.370592e-06	-1.269982e-09	-2.341390e+01	-8.816439e+01
1.080000e-06	-3.333253e-06	-1.260419e-09	-2.315452e+01	-8.776374e+01
1.090000e-06	-3.295709e-06	-1.250473e-09	-2.289372e+01	-8.736056e+01
1.100000e-06	-3.257946e-06	-1.250564e-09	-2.263140e+01	-8.695472e+01
1.110000e-06	-3.219924e-06	-1.247285e-09	-2.236728e+01	-8.654608e+01
1.120000e-06	-3.181634e-06	-1.239663e-09	-2.210130e+01	-8.613448e+01
1.130000e-06	-3.143152e-06	-1.230539e-09	-2.183398e+01	-8.571971e+01
1.140000e-06	-3.104493e-06	-1.224234e-09	-2.156543e+01	-8.530158e+01
1.150000e-06	-3.065570e-06	-1.213045e-09	-2.129505e+01	-8.487985e+01
1.160000e-06	-3.026399e-06	-1.207259e-09	-2.102295e+01	-8.445430e+01
1.170000e-06	-2.987065e-06	-1.202571e-09	-2.074971e+01	-8.402467e+01
1.180000e-06	-2.947622e-06	-1.200324e-09	-2.047573e+01	-8.359073e+01
1.190000e-06	-2.908112e-06	-1.197593e-09	-2.020127e+01	-8.315223e+01
1.200000e-06	-2.868459e-06	-1.195260e-09	-1.992582e+01	-8.270892e+01
1.210000e-06	-2.828656e-06	-1.185653e-09	-1.964933e+01	-8.226054e+01
1.220000e-06	-2.788713e-06	-1.174234e-09	-1.937186e+01	-8.180686e+01
1.230000e-06	-2.748551e-06	-1.165119e-09	-1.909287e+01	-8.134762e+01
1.240000e-06	-2.708158e-06	-1.158920e-09	-1.881228e+01	-8.088259e+01
1.250000e-06	-2.667596e-06	-1.150885e-09	-1.853052e+01	-8.041152e+01
1.260000e-06	-2.626810e-06	-1.146460e-09	-1.824719e+01	-7.993418e+01
1.270000e-06	-2.585839e-06	-1.142624e-09	-1.796259e+01	-7.945033e+01
1.280000e-06	-2.544609e-06	-1.135877e-09	-1.767618e+01	-7.895971e+01
1.290000e-06	-2.502930e-06	-1.125617e-09	-1.738666e+01	-7.846210e+01
1.300000e-06	-2.460935e-06	-1.116261e-09	-1.709494e+01	-7.795723e+01
1.310000e-06	-2.418689e-06	-1.104069e-09	-1.680148e+01	-7.744484e+01
1.320000e-06	-2.376177e-06	-1.090988e-09	-1.650617e+01	-7.692468e+01
1.330000e-06	-2.333456e-06	-1.080853e-09	-1.620941e+01	-7.639646e+01
1.340000e-06	-2.290494e-06	-1.074003e-09	-1.591097e+01	-7.585990e+01
1.350000e-06	-2.247357e-06	-1.067332e-09	-1.561131e+01	-7.531469e+01
1.360000e-06	-2.204024e-06	-1.061813e-09	-1.531030e+01	-7.476052e+01
1.370000e-06	-2.160473e-06	-1.055730e-09	-1.500778e+01	-7.419705e+01
1.380000e-06	-2.116787e-06	-1.045208e-09	-1.470431e+01	-7.362395e+01
1.390000e-06	-2.073053e-06	-1.032102e-09	-1.440051e+01	-7.304085e+01
1.400000e-06	-2.029269e-06	-1.018417e-09	-1.409637e+01	-7.244737e+01
1.410000e-06	-1.985348e-06	-1.006511e-09	-1.379126e+01	-7.184313e+01
1.420000e-06	-1.941345e-06	-9.951313e-10	-1.348560e+01	-7.122773e+01
1.430000e-06	-1.897253e-06	-9.887257e-10	-1.317931e+01	-7.060075e+01
1.440000e-06	-1.853055e-06	-9.817784e-10	-1.287229e+01	-6.996176e+01
1.450000e-06	-1.808794e-06	-9.715423e-10	-1.256483e+01	-6.931033e+01
1.460000e-06	-1.764427e-06	-9.572392e-10	-1.225664e+01	-6.864602e+01
1.470000e-06	-1.719867e-06	-9.403586e-10	-1.194710e+01	-6.796836e+01
1.480000e-06	-1.675232e-06	-9.225060e-10	-1.163704e+01	-6.727691e+01
1.490000e-06	-1.630561e-06	-9.067702e-10	-1.132673e+01	-6.657119e+01
1.500000e-06	-1.585702e-06	-8.929565e-10	-1.101512e+01	-6.585075e+01
1.510000e-06	-1.540664e-06	-8.834276e-10	-1.070226e+01	-6.511509e+01
1.520000e-06	-1.495539e-06	-8.742357e-10	-1.038880e+01	-6.436375e+01
1.530000e-06	-1.450324e-06	-8.650786e-10	-1.007471e+01	-6.359623e+01
1.540000e-06	-1.404979e-06	-8.506345e-10	-9.759719e+00	-6.281205e+01
1.550000e-06	-1.359544e-06	-8.336185e-10	-9.444107e+00	-6.201070e+01
1.560000e-06	-1.314034e-06	-8.156588e-10	-9.127964e+00	-6.119168e+01
1.570000e-06	-1.268396e-06	-8.014362e-10	-8.810939e+00	-6.035447e+01
1.580000e-06	-1.222650e-06	-7.902990e-10	-8.493167e+00	-5.949853e+01
1.590000e-06	-1.176836e-06	-7.805622e-10	-8.174922e+00	-5.862332e+01
1.600000e-06	-1.130939e-06	-7.699958e-10	-7.856097e+00	-5.772826e+01
1.610000e-06	-1.084930e-06	-7.582479e-10	-7.536491e+00	-5.681276e+01
1.620000e-06	-1.038782e-06	-7.454279e-10	-7.215926e+00	-5.587622e+01
1.630000e-06	-9.926128e-07	-7.315425e-10	-6.895208e+00	-5.491798e+01
1.640000e-06	-9.464048e-07	-7.163063e-10	-6.574223e+00	-5.393739e+01
1.650000e-06	-9.000833e-07	-6.989622e-10	-6.252450e+00	-5.293374e+01
1.660000e-06	-8.537772e-07	-6.829262e-10	-5.930783e+00	-5.190631e+01
1.670000e-06	-8.075261e-07	-6.653724e-10	-5.609498e+00	-5.085432e+01
1.680000e-06	-7.612299e-07	-6.475079e-10	-5.287901e+00	-4.977699e+01
1.690000e-06	-7.148965e-07	-6.310078e-10	-4.966045e+00	-4.867349e+01
1.700000e-06	-6.684671e-07	-6.146732e-10	-4.643522e+00	-4.754297e+01
1.710000e-06	-6.219317e-07	-5.972583e-10	-4.320263e+00	-4.638457e+01
1.720000e-06	-5.753211e-07	-5.816139e-10	-3.996481e+00	-4.519737e+01
1.730000e-06	-5.286869e-07	-5.627880e-10	-3.672536e+00	-4.398049e+01
1.740000e-06	-4.820589e-07	-5.400624e-10	-3.348633e+00	-4.273301e+01
1.750000e-06	-4.353576e-07	-5.175424e-10	-3.024221e+00	-4.145401e+01
1.760000e-06	-3.885825e-07	-4.983439e-10	-2.699297e+00	-4.014262e+01
1.770000e-06	-3.417660e-07	-4.799710e-10	-2.374086e+00	-3.879794e+01
1.780000e-06	-2.949353e-07	-4.625773e-10	-2.048775e+00	-3.741915e+01
1.790000e-06	-2.482078e-07	-4.465272e-10	-1.724181e+00	-3.600546e+01
1.800000e-06	-2.015166e-07	-4.293373e-10	-1.399840e+00	-3.455613e+01
1.810000e-06	-1.546775e-07	-4.074420e-10	-1.074471e+00	-3.307052e+01
1.820000e-06	-1.077785e-07	-3.837599e-10	-7.486856e-01	-3.154806e+01
1.830000e-06	-6.091103e-08	-3.598745e-10	-4.231199e-01	-2.998830e+01
1.840000e-06	-1.402309e-08	-3.368121e-10	-9.741170e-02	-2.839089e+01
1.850000e-06	3.287260e-08	-3.152100e-10	2.283503e-01	-2.675562e+01
1.860000e-06	7.966921e-08	-2.937519e-10	5.534240e-01	-2.508243e+01
1.870000e-06	1.264811e-07	-2.726140e-10	8.786037e-01	-2.337142e+01
1.880000e-06	1.733390e-07	-2.500265e-10	1.204103e+00	-2.162283e+01
1.890000e-06	2.201508e-07	-2.247681e-10	1.529282e+00	-1.983713e+01
1.900000e-06	2.669582e-07	-1.957890e-10	1.854431e+00	-1.801494e+01
1.910000e-06	3.137277e-07	-1.649540e-10	2.179317e+00	-1.615707e+01
1.920000e-06	3.604286e-07	-1.356700e-10	2.503725e+00	-1.426457e+01
1.930000e-06	4.071357e-07	-1.085958e-10	2.828177e+00	-1.233864e+01
1.940000e-06	4.539286e-07	-8.378122e-11	3.153226e+00	-1.038073e+01
1.950000e-06	5.006869e-07	-6.063106e-11	3.478033e+00	-8.392452e+00
1.960000e-06	5.473183e-07	-3.535323e-11	3.801959e+00	-6.375643e+00
1.970000e-06	5.939179e-07	-6.359952e-12	4.125665e+00	-4.332316e+00
1.980000e-06	6.404170e-07	2.396805e-11	4.448671e+00	-2.264668e+00
1.990000e-06	6.868451e-07	5.543532e-11	4.771185e+00	-1.750660e-01
2.000000e-06	7.332285e-07	8.835163e-11	5.093388e+00	1.933964e+00
2.010000e-06	7.795380e-07	1.198985e-10	5.415079e+00	4.059756e+00
2.020000e-06	8.258424e-07	1.504229e-10	5.736733e+00	6.199519e+00
2.030000e-06	8.720749e-07	1.803991e-10	6.057888e+00	8.350355e+00
2.040000e-06	9.181910e-07	2.094145e-10	6.378235e+00	1.050928e+01
2.050000e-06	9.642313e-07	2.385869e-10	6.698055e+00	1.267325e+01
2.060000e-06	1.010246e-06	2.685312e-10	7.017700e+00	1.483918e+01
2.070000e-06	1.056168e-06	3.004199e-10	7.336693e+00	1.700395e+01
2.080000e-06	1.102019e-06	3.344419e-10	7.655199e+00	1.916447e+01
2.090000e-06	1.147824e-06	3.662785e-10	7.973385e+00	2.131765e+01
2.100000e-06	1.193520e-06	3.975743e-10	8.290814e+00	2.346046e+01
2.110000e-06	1.239193e-06	4.278133e-10	8.608080e+00	2.558995e+01
2.120000e-06	1.284814e-06	4.573429e-10	8.924991e+00	2.770326e+01
2.130000e-06	1.330319e-06	4.869032e-10	9.241092e+00	2.979762e+01
2.140000e-06	1.375722e-06	5.159860e-10	9.556485e+00	3.187043e+01
2.150000e-06	1.421000e-06	5.432899e-10	9.871012e+00	3.391919e+01
2.160000e-06	1.466251e-06	5.703816e-10	1.018535e+01	3.594161e+01
2.170000e-06	1.511463e-06	5.969624e-10	1.049942e+01	3.793554e+01
2.180000e-06	1.556497e-06	6.237031e-10	1.081224e+01	3.989902e+01
2.190000e-06	1.601467e-06	6.524758e-10	1.112463e+01	4.183030e+01
2.200000e-06	1.646285e-06	6.805053e-10	1.143596e+01	4.372781e+01
2.210000e-06	1.690832e-06	7.064473e-10	1.174540e+01	4.559019e+01
2.220000e-06	1.735234e-06	7.308540e-10	1.205384e+01	4.741628e+01
2.230000e-06	1.779511e-06	7.545186e-10	1.236141e+01	4.920512e+01
2.240000e-06	1.823597e-06	7.763362e-10	1.266766e+01	5.095596e+01
2.250000e-06	1.867619e-06	7.974695e-10	1.297346e+01	5.266823e+01
2.260000e-06	1.911642e-06	8.188041e-10	1.327926e+01	5.434154e+01
2.270000e-06	1.955580e-06	8.402130e-10	1.358448e+01	5.597569e+01
2.280000e-06	1.999415e-06	8.619020e-10	1.388898e+01	5.757064e+01
2.290000e-06	2.043204e-06	8.827341e-10	1.419317e+01	5.912648e+01
2.300000e-06	2.086967e-06	9.021383e-10	1.449717e+01	6.064346e+01
2.310000e-06	2.130649e-06	9.222201e-10	1.480060e+01	6.212197e+01
2.320000e-06	2.174275e-06	9.423127e-10	1.510365e+01	6.356247e+01
2.330000e-06	2.217806e-06	9.613276e-10	1.540604e+01	6.496554e+01
2.340000e-06	2.261221e-06	9.792861e-10	1.570762e+01	6.633183e+01
2.350000e-06	2.304500e-06	9.977331e-10	1.600826e+01	6.766207e+01
2.360000e-06	2.347550e-06	1.016702e-09	1.630731e+01	6.895701e+01
2.370000e-06	2.390286e-06	1.034872e-09	1.660417e+01	7.021746e+01
2.380000e-06	2.432640e-06	1.050672e-09	1.689839e+01	7.144424e+01
2.390000e-06	2.474689e-06	1.065990e-09	1.719048e+01	7.263820e+01
2.400000e-06	2.516350e-06	1.080767e-09	1.747988e+01	7.380015e+01
2.410000e-06	2.557610e-06	1.094871e-09	1.776650e+01	7.493092e+01
2.420000e-06	2.598669e-06	1.108557e-09	1.805172e+01	7.603132e+01
2.430000e-06	2.639509e-06	1.120902e-09	1.833541e+01	7.710210e+01
2.440000e-06	2.680108e-06	1.132256e-09	1.861743e+01	7.814403e+01
2.450000e-06	2.720493e-06	1.144466e-09	1.889796e+01	7.915779e+01
2.460000e-06	2.760658e-06	1.157455e-09	1.917698e+01	8.014404e+01
2.470000e-06	2.800607e-06	1.171937e-09	1.945448e+01	8.110341e+01
2.480000e-06	2.840447e-06	1.187080e-09	1.973123e+01	8.203648e+01
2.490000e-06	2.880217e-06	1.199617e-09	2.000749e+01	8.294376e+01
2.500000e-06	2.919886e-06	1.209551e-09	2.028306e+01	8.382577e+01
2.510000e-06	2.959435e-06	1.218251e-09	2.055778e+01	8.468294e+01
2.520000e-06	2.998758e-06	1.228984e-09	2.083094e+01	8.551571e+01
2.530000e-06	3.037872e-06	1.240090e-09	2.110264e+01	8.632446e+01
2.540000e-06	3.076769e-06	1.250021e-09	2.137285e+01	8.710957e+01
2.550000e-06	3.115440e-06	1.260870e-09	2.164148e+01	8.787139e+01
2.560000e-06	3.153992e-06	1.272050e-09	2.190928e+01	8.861024e+01
2.570000e-06	3.192323e-06	1.283518e-09	2.217554e+01	8.932647e+01
2.580000e-06	3.230365e-06	1.294352e-09	2.243981e+01	9.002039e+01
2.590000e-06	3.268165e-06	1.303502e-09	2.270238e+01	9.069235e+01
2.600000e-06	3.305788e-06	1.310785e-09	2.296373e+01	9.134269e+01
2.610000e-06	3.343256e-06	1.317875e-09	2.322400e+01	9.197177e+01
2.620000e-06	3.380413e-06	1.326655e-09	2.348211e+01	9.257996e+01
2.630000e-06	3.417336e-06	1.334788e-09	2.373861e+01	9.316768e+01
2.640000e-06	3.454071e-06	1.343434e-09	2.399379e+01	9.373535e+01
2.650000e-06	3.490505e-06	1.353398e-09	2.424687e+01	9.428344e+01
2.660000e-06	3.526671e-06	1.362445e-09	2.449810e+01	9.481245e+01
2.670000e-06	3.562620e-06	1.370911e-09	2.474782e+01	9.532289e+01
2.680000e-06	3.598474e-06	1.380221e-09	2.499688e+01	9.581533e+01
2.690000e-06	3.634224e-06	1.388549e-09	2.524522e+01	9.629038e+01
2.700000e-06	3.669808e-06	1.394976e-09	2.549241e+01	9.674865e+01
2.710000e-06	3.705265e-06	1.401755e-09	2.573871e+01	9.719082e+01
2.720000e-06	3.740478e-06	1.410051e-09	2.598332e+01	9.761756e+01
2.730000e-06	3.775422e-06	1.417141e-09	2.622606e+01	9.802960e+01
2.740000e-06	3.810008e-06	1.422874e-09	2.646631e+01	9.842767e+01
2.750000e-06	3.844052e-06	1.429567e-09	2.670279e+01	9.881253e+01
2.760000e-06	3.877544e-06	1.436762e-09	2.693545e+01	9.918495e+01
2.770000e-06	3.910578e-06	1.443561e-09	2.716492e+01	9.954569e+01
2.780000e-06	3.943165e-06	1.450293e-09	2.739128e+01	9.989555e+01
2.790000e-06	3.975349e-06	1.457090e-09	2.761485e+01	1.002353e+02
2.800000e-06	4.007311e-06	1.462857e-09	2.783688e+01	1.005657e+02
2.810000e-06	4.039175e-06	1.466249e-09	2.805822e+01	1.008875e+02
2.820000e-06	4.070886e-06	1.470211e-09	2.827851e+01	1.012014e+02
2.830000e-06	4.102376e-06	1.476270e-09	2.849725e+01	1.015081e+02
2.840000e-06	4.133678e-06	1.482507e-09	2.871469e+01	1.018084e+02
2.850000e-06	4.164688e-06	1.485516e-09	2.893010e+01	1.021028e+02
2.860000e-06	4.195270e-06	1.486300e-09	2.914254e+01	1.023919e+02
2.870000e-06	4.225528e-06	1.490231e-09	2.935273e+01	1.026763e+02
2.880000e-06	4.255496e-06	1.495431e-09	2.956090e+01	1.029565e+02
2.890000e-06	4.285163e-06	1.498675e-09	2.976698e+01	1.032329e+02
2.900000e-06	4.314612e-06	1.501543e-09	2.997155e+01	1.035059e+02
