# Temperatura_=_14.0
# Concentracion g/m^3_=_1620.0
# C_Vs_to_Am_M_A/Vsm_=_65563218390.804596
# pendiente_HvsI_1/m_=_3716.3
# ordenada_HvsI_A/m_=_1297.0
# frecuencia_Hz_=_135094.32888648365

Tiempo_(s)	Campo_(V.s)	Magnetizacion_(V.s)	Campo_(kA/m)	Magnetizacion_(A/m)
0.000000e+00	-5.530516e-06	-1.598397e-09	-3.838090e+01	-1.042962e+02
1.000000e-08	-5.530689e-06	-1.593514e-09	-3.838210e+01	-1.041938e+02
2.000000e-08	-5.530600e-06	-1.586918e-09	-3.838148e+01	-1.040939e+02
3.000000e-08	-5.530183e-06	-1.580213e-09	-3.837858e+01	-1.039977e+02
4.000000e-08	-5.529286e-06	-1.576603e-09	-3.837236e+01	-1.039062e+02
5.000000e-08	-5.527873e-06	-1.575439e-09	-3.836256e+01	-1.038203e+02
6.000000e-08	-5.526039e-06	-1.576274e-09	-3.834983e+01	-1.037407e+02
7.000000e-08	-5.523575e-06	-1.584816e-09	-3.833273e+01	-1.036681e+02
8.000000e-08	-5.520475e-06	-1.573067e-09	-3.831122e+01	-1.036028e+02
9.000000e-08	-5.516851e-06	-1.562908e-09	-3.828607e+01	-1.035452e+02
1.000000e-07	-5.512812e-06	-1.623641e-09	-3.825804e+01	-1.034953e+02
1.100000e-07	-5.508471e-06	-1.626893e-09	-3.822791e+01	-1.034531e+02
1.200000e-07	-5.503856e-06	-1.542833e-09	-3.819588e+01	-1.034183e+02
1.300000e-07	-5.498937e-06	-1.496633e-09	-3.816174e+01	-1.033905e+02
1.400000e-07	-5.493678e-06	-1.551475e-09	-3.812525e+01	-1.033689e+02
1.500000e-07	-5.488103e-06	-1.637952e-09	-3.808656e+01	-1.033530e+02
1.600000e-07	-5.482018e-06	-1.562569e-09	-3.804433e+01	-1.033417e+02
1.700000e-07	-5.475516e-06	-1.521110e-09	-3.799921e+01	-1.033341e+02
1.800000e-07	-5.468644e-06	-1.550702e-09	-3.795151e+01	-1.033289e+02
1.900000e-07	-5.461305e-06	-1.611749e-09	-3.790059e+01	-1.033250e+02
2.000000e-07	-5.453735e-06	-1.554418e-09	-3.784805e+01	-1.033211e+02
2.100000e-07	-5.446018e-06	-1.535213e-09	-3.779449e+01	-1.033158e+02
2.200000e-07	-5.438010e-06	-1.583228e-09	-3.773892e+01	-1.033078e+02
2.300000e-07	-5.429684e-06	-1.636503e-09	-3.768114e+01	-1.032958e+02
2.400000e-07	-5.420929e-06	-1.592866e-09	-3.762038e+01	-1.032785e+02
2.500000e-07	-5.411581e-06	-1.551508e-09	-3.755551e+01	-1.032547e+02
2.600000e-07	-5.401525e-06	-1.572197e-09	-3.748572e+01	-1.032231e+02
2.700000e-07	-5.390757e-06	-1.591730e-09	-3.741099e+01	-1.031829e+02
2.800000e-07	-5.379565e-06	-1.588517e-09	-3.733332e+01	-1.031331e+02
2.900000e-07	-5.367979e-06	-1.567206e-09	-3.725292e+01	-1.030728e+02
3.000000e-07	-5.355875e-06	-1.585388e-09	-3.716892e+01	-1.030015e+02
3.100000e-07	-5.343436e-06	-1.588366e-09	-3.708259e+01	-1.029187e+02
3.200000e-07	-5.330671e-06	-1.593546e-09	-3.699401e+01	-1.028241e+02
3.300000e-07	-5.317404e-06	-1.552952e-09	-3.690193e+01	-1.027176e+02
3.400000e-07	-5.303657e-06	-1.565809e-09	-3.680653e+01	-1.025992e+02
3.500000e-07	-5.289561e-06	-1.577292e-09	-3.670871e+01	-1.024691e+02
3.600000e-07	-5.275094e-06	-1.571802e-09	-3.660831e+01	-1.023276e+02
3.700000e-07	-5.260190e-06	-1.541051e-09	-3.650488e+01	-1.021754e+02
3.800000e-07	-5.244862e-06	-1.585176e-09	-3.639850e+01	-1.020129e+02
3.900000e-07	-5.228944e-06	-1.573565e-09	-3.628804e+01	-1.018411e+02
4.000000e-07	-5.212403e-06	-1.521690e-09	-3.617324e+01	-1.016607e+02
4.100000e-07	-5.195600e-06	-1.535867e-09	-3.605663e+01	-1.014727e+02
4.200000e-07	-5.178580e-06	-1.600821e-09	-3.593852e+01	-1.012781e+02
4.300000e-07	-5.161132e-06	-1.536420e-09	-3.581743e+01	-1.010780e+02
4.400000e-07	-5.143378e-06	-1.495759e-09	-3.569422e+01	-1.008735e+02
4.500000e-07	-5.125298e-06	-1.566910e-09	-3.556875e+01	-1.006655e+02
4.600000e-07	-5.106760e-06	-1.568357e-09	-3.544010e+01	-1.004553e+02
4.700000e-07	-5.087766e-06	-1.478473e-09	-3.530828e+01	-1.002438e+02
4.800000e-07	-5.068469e-06	-1.519294e-09	-3.517437e+01	-1.000320e+02
4.900000e-07	-5.048971e-06	-1.574813e-09	-3.503905e+01	-9.982067e+01
5.000000e-07	-5.029220e-06	-1.505328e-09	-3.490199e+01	-9.961069e+01
5.100000e-07	-5.009171e-06	-1.491825e-09	-3.476284e+01	-9.940272e+01
5.200000e-07	-4.988853e-06	-1.558362e-09	-3.462184e+01	-9.919732e+01
5.300000e-07	-4.968171e-06	-1.519021e-09	-3.447832e+01	-9.899494e+01
5.400000e-07	-4.947088e-06	-1.469889e-09	-3.433200e+01	-9.879588e+01
5.500000e-07	-4.925671e-06	-1.532187e-09	-3.418337e+01	-9.860033e+01
5.600000e-07	-4.903921e-06	-1.528384e-09	-3.403243e+01	-9.840833e+01
5.700000e-07	-4.881896e-06	-1.465123e-09	-3.387958e+01	-9.821983e+01
5.800000e-07	-4.859631e-06	-1.493978e-09	-3.372506e+01	-9.803461e+01
5.900000e-07	-4.837020e-06	-1.531332e-09	-3.356815e+01	-9.785237e+01
6.000000e-07	-4.813988e-06	-1.476736e-09	-3.340831e+01	-9.767268e+01
6.100000e-07	-4.790613e-06	-1.474181e-09	-3.324609e+01	-9.749505e+01
6.200000e-07	-4.766959e-06	-1.503107e-09	-3.308194e+01	-9.731889e+01
6.300000e-07	-4.743056e-06	-1.479544e-09	-3.291605e+01	-9.714355e+01
6.400000e-07	-4.718944e-06	-1.457186e-09	-3.274872e+01	-9.696831e+01
6.500000e-07	-4.694608e-06	-1.483426e-09	-3.257983e+01	-9.679246e+01
6.600000e-07	-4.669754e-06	-1.470927e-09	-3.240735e+01	-9.661523e+01
6.700000e-07	-4.644286e-06	-1.457765e-09	-3.223061e+01	-9.643588e+01
6.800000e-07	-4.618436e-06	-1.468510e-09	-3.205121e+01	-9.625365e+01
6.900000e-07	-4.592074e-06	-1.472472e-09	-3.186826e+01	-9.606784e+01
7.000000e-07	-4.565096e-06	-1.454891e-09	-3.168103e+01	-9.587775e+01
7.100000e-07	-4.537761e-06	-1.455901e-09	-3.149133e+01	-9.568278e+01
7.200000e-07	-4.510215e-06	-1.447908e-09	-3.130017e+01	-9.548236e+01
7.300000e-07	-4.482426e-06	-1.441129e-09	-3.110732e+01	-9.527598e+01
7.400000e-07	-4.454465e-06	-1.440145e-09	-3.091327e+01	-9.506324e+01
7.500000e-07	-4.426350e-06	-1.435151e-09	-3.071816e+01	-9.484380e+01
7.600000e-07	-4.398014e-06	-1.422672e-09	-3.052152e+01	-9.461741e+01
7.700000e-07	-4.369421e-06	-1.423906e-09	-3.032309e+01	-9.438390e+01
7.800000e-07	-4.340478e-06	-1.421831e-09	-3.012222e+01	-9.414318e+01
7.900000e-07	-4.311118e-06	-1.413493e-09	-2.991847e+01	-9.389525e+01
8.000000e-07	-4.281396e-06	-1.412619e-09	-2.971221e+01	-9.364019e+01
8.100000e-07	-4.251344e-06	-1.410544e-09	-2.950365e+01	-9.337815e+01
8.200000e-07	-4.220969e-06	-1.393762e-09	-2.929285e+01	-9.310933e+01
8.300000e-07	-4.190356e-06	-1.383772e-09	-2.908040e+01	-9.283399e+01
8.400000e-07	-4.159537e-06	-1.388782e-09	-2.886652e+01	-9.255245e+01
8.500000e-07	-4.128440e-06	-1.386412e-09	-2.865072e+01	-9.226506e+01
8.600000e-07	-4.097049e-06	-1.377229e-09	-2.843286e+01	-9.197220e+01
8.700000e-07	-4.065441e-06	-1.370207e-09	-2.821351e+01	-9.167426e+01
8.800000e-07	-4.033641e-06	-1.364800e-09	-2.799282e+01	-9.137165e+01
8.900000e-07	-4.001652e-06	-1.353943e-09	-2.777083e+01	-9.106477e+01
9.000000e-07	-3.969531e-06	-1.353250e-09	-2.754791e+01	-9.075401e+01
9.100000e-07	-3.937155e-06	-1.354652e-09	-2.732323e+01	-9.043976e+01
9.200000e-07	-3.904393e-06	-1.354295e-09	-2.709586e+01	-9.012235e+01
9.300000e-07	-3.871182e-06	-1.347641e-09	-2.686539e+01	-8.980212e+01
9.400000e-07	-3.837518e-06	-1.346150e-09	-2.663177e+01	-8.947935e+01
9.500000e-07	-3.803421e-06	-1.335089e-09	-2.639514e+01	-8.915428e+01
9.600000e-07	-3.768887e-06	-1.322523e-09	-2.615548e+01	-8.882711e+01
9.700000e-07	-3.733975e-06	-1.313269e-09	-2.591319e+01	-8.849800e+01
9.800000e-07	-3.698693e-06	-1.312751e-09	-2.566834e+01	-8.816706e+01
9.900000e-07	-3.663149e-06	-1.307233e-09	-2.542167e+01	-8.783435e+01
1.000000e-06	-3.627437e-06	-1.307548e-09	-2.517383e+01	-8.749989e+01
1.010000e-06	-3.591562e-06	-1.305740e-09	-2.492487e+01	-8.716367e+01
1.020000e-06	-3.555601e-06	-1.299981e-09	-2.467530e+01	-8.682561e+01
1.030000e-06	-3.519550e-06	-1.288730e-09	-2.442512e+01	-8.648563e+01
1.040000e-06	-3.483244e-06	-1.281252e-09	-2.417315e+01	-8.614358e+01
1.050000e-06	-3.446639e-06	-1.272728e-09	-2.391912e+01	-8.579932e+01
1.060000e-06	-3.409836e-06	-1.261975e-09	-2.366372e+01	-8.545265e+01
1.070000e-06	-3.372780e-06	-1.257447e-09	-2.340655e+01	-8.510339e+01
1.080000e-06	-3.335469e-06	-1.258359e-09	-2.314762e+01	-8.475129e+01
1.090000e-06	-3.297913e-06	-1.254451e-09	-2.288699e+01	-8.439615e+01
1.100000e-06	-3.260046e-06	-1.250035e-09	-2.262420e+01	-8.403771e+01
1.110000e-06	-3.221948e-06	-1.246388e-09	-2.235981e+01	-8.367574e+01
1.120000e-06	-3.183666e-06	-1.236678e-09	-2.209413e+01	-8.330998e+01
1.130000e-06	-3.145204e-06	-1.221953e-09	-2.182721e+01	-8.294020e+01
1.140000e-06	-3.106531e-06	-1.209353e-09	-2.155883e+01	-8.256615e+01
1.150000e-06	-3.067614e-06	-1.202799e-09	-2.128875e+01	-8.218759e+01
1.160000e-06	-3.028535e-06	-1.196917e-09	-2.101755e+01	-8.180427e+01
1.170000e-06	-2.989251e-06	-1.193040e-09	-2.074492e+01	-8.141598e+01
1.180000e-06	-2.949754e-06	-1.190709e-09	-2.047082e+01	-8.102247e+01
1.190000e-06	-2.910148e-06	-1.191365e-09	-2.019596e+01	-8.062353e+01
1.200000e-06	-2.870373e-06	-1.185634e-09	-1.991993e+01	-8.021893e+01
1.210000e-06	-2.830434e-06	-1.176656e-09	-1.964276e+01	-7.980845e+01
1.220000e-06	-2.790386e-06	-1.164700e-09	-1.936484e+01	-7.939187e+01
1.230000e-06	-2.750193e-06	-1.156991e-09	-1.908590e+01	-7.896897e+01
1.240000e-06	-2.709808e-06	-1.151953e-09	-1.880564e+01	-7.853951e+01
1.250000e-06	-2.669179e-06	-1.149479e-09	-1.852367e+01	-7.810328e+01
1.260000e-06	-2.628306e-06	-1.144283e-09	-1.824002e+01	-7.766004e+01
1.270000e-06	-2.587271e-06	-1.136842e-09	-1.795524e+01	-7.720955e+01
1.280000e-06	-2.545963e-06	-1.127311e-09	-1.766858e+01	-7.675157e+01
1.290000e-06	-2.504316e-06	-1.116719e-09	-1.737955e+01	-7.628584e+01
1.300000e-06	-2.462478e-06	-1.103203e-09	-1.708921e+01	-7.581212e+01
1.310000e-06	-2.420382e-06	-1.094503e-09	-1.679706e+01	-7.533013e+01
1.320000e-06	-2.377919e-06	-1.090152e-09	-1.650238e+01	-7.483962e+01
1.330000e-06	-2.335108e-06	-1.084070e-09	-1.620528e+01	-7.434030e+01
1.340000e-06	-2.292006e-06	-1.073557e-09	-1.590616e+01	-7.383190e+01
1.350000e-06	-2.248682e-06	-1.066223e-09	-1.560550e+01	-7.331415e+01
1.360000e-06	-2.205254e-06	-1.059359e-09	-1.530411e+01	-7.278676e+01
1.370000e-06	-2.161767e-06	-1.049348e-09	-1.500232e+01	-7.224947e+01
1.380000e-06	-2.118092e-06	-1.038156e-09	-1.469922e+01	-7.170198e+01
1.390000e-06	-2.074261e-06	-1.027003e-09	-1.439504e+01	-7.114403e+01
1.400000e-06	-2.030414e-06	-1.016482e-09	-1.409075e+01	-7.057534e+01
1.410000e-06	-1.986523e-06	-1.007607e-09	-1.378616e+01	-6.999565e+01
1.420000e-06	-1.942500e-06	-9.966495e-10	-1.348064e+01	-6.940469e+01
1.430000e-06	-1.898391e-06	-9.852718e-10	-1.317453e+01	-6.880220e+01
1.440000e-06	-1.854195e-06	-9.745692e-10	-1.286782e+01	-6.818791e+01
1.450000e-06	-1.809884e-06	-9.626663e-10	-1.256030e+01	-6.756158e+01
1.460000e-06	-1.765436e-06	-9.499705e-10	-1.225184e+01	-6.692293e+01
1.470000e-06	-1.720829e-06	-9.365491e-10	-1.194228e+01	-6.627171e+01
1.480000e-06	-1.676208e-06	-9.248840e-10	-1.163261e+01	-6.560763e+01
1.490000e-06	-1.631420e-06	-9.109384e-10	-1.132179e+01	-6.493041e+01
1.500000e-06	-1.586366e-06	-8.968471e-10	-1.100913e+01	-6.423976e+01
1.510000e-06	-1.541265e-06	-8.855162e-10	-1.069613e+01	-6.353534e+01
1.520000e-06	-1.496095e-06	-8.762499e-10	-1.038266e+01	-6.281681e+01
1.530000e-06	-1.450843e-06	-8.645808e-10	-1.006862e+01	-6.208380e+01
1.540000e-06	-1.405506e-06	-8.534309e-10	-9.753989e+00	-6.133589e+01
1.550000e-06	-1.360051e-06	-8.406710e-10	-9.438537e+00	-6.057262e+01
1.560000e-06	-1.314494e-06	-8.277068e-10	-9.122380e+00	-5.979351e+01
1.570000e-06	-1.268866e-06	-8.138635e-10	-8.805729e+00	-5.899800e+01
1.580000e-06	-1.223122e-06	-7.999285e-10	-8.488270e+00	-5.818550e+01
1.590000e-06	-1.177271e-06	-7.846469e-10	-8.170072e+00	-5.735534e+01
1.600000e-06	-1.131378e-06	-7.721920e-10	-7.851580e+00	-5.650682e+01
1.610000e-06	-1.085441e-06	-7.627330e-10	-7.532788e+00	-5.563917e+01
1.620000e-06	-1.039429e-06	-7.537858e-10	-7.213471e+00	-5.475155e+01
1.630000e-06	-9.932426e-07	-7.439147e-10	-6.892945e+00	-5.384307e+01
1.640000e-06	-9.468985e-07	-7.308826e-10	-6.571324e+00	-5.291280e+01
1.650000e-06	-9.005385e-07	-7.137915e-10	-6.249593e+00	-5.195972e+01
1.660000e-06	-8.542099e-07	-6.931320e-10	-5.928080e+00	-5.098280e+01
1.670000e-06	-8.078789e-07	-6.722768e-10	-5.606550e+00	-4.998096e+01
1.680000e-06	-7.614808e-07	-6.535849e-10	-5.284555e+00	-4.895307e+01
1.690000e-06	-7.150128e-07	-6.361567e-10	-4.962075e+00	-4.789799e+01
1.700000e-06	-6.684091e-07	-6.225677e-10	-4.638652e+00	-4.681456e+01
1.710000e-06	-6.217102e-07	-6.095378e-10	-4.314569e+00	-4.570163e+01
1.720000e-06	-5.750494e-07	-5.956508e-10	-3.990751e+00	-4.455804e+01
1.730000e-06	-5.284137e-07	-5.742939e-10	-3.667107e+00	-4.338267e+01
1.740000e-06	-4.817074e-07	-5.508920e-10	-3.342973e+00	-4.217441e+01
1.750000e-06	-4.349799e-07	-5.268307e-10	-3.018691e+00	-4.093222e+01
1.760000e-06	-3.882494e-07	-5.029723e-10	-2.694389e+00	-3.965512e+01
1.770000e-06	-3.414423e-07	-4.841599e-10	-2.369555e+00	-3.834219e+01
1.780000e-06	-2.946359e-07	-4.678915e-10	-2.044726e+00	-3.699263e+01
1.790000e-06	-2.477666e-07	-4.529908e-10	-1.719461e+00	-3.560571e+01
1.800000e-06	-2.008511e-07	-4.351785e-10	-1.393875e+00	-3.418084e+01
1.810000e-06	-1.539611e-07	-4.149657e-10	-1.068465e+00	-3.271756e+01
1.820000e-06	-1.071109e-07	-3.921173e-10	-7.433326e-01	-3.121553e+01
1.830000e-06	-6.038358e-08	-3.680880e-10	-4.190524e-01	-2.967459e+01
1.840000e-06	-1.362418e-08	-3.446982e-10	-9.454966e-02	-2.809470e+01
1.850000e-06	3.326720e-08	-3.222173e-10	2.308691e-01	-2.647603e+01
1.860000e-06	8.017377e-08	-2.982138e-10	5.563931e-01	-2.481888e+01
1.870000e-06	1.270869e-07	-2.735002e-10	8.819629e-01	-2.312375e+01
1.880000e-06	1.739894e-07	-2.470815e-10	1.207458e+00	-2.139131e+01
1.890000e-06	2.208884e-07	-2.229316e-10	1.532930e+00	-1.962242e+01
1.900000e-06	2.677805e-07	-1.971435e-10	1.858354e+00	-1.781810e+01
1.910000e-06	3.146069e-07	-1.709381e-10	2.183322e+00	-1.597956e+01
1.920000e-06	3.614384e-07	-1.434294e-10	2.508325e+00	-1.410816e+01
1.930000e-06	4.082620e-07	-1.144798e-10	2.833273e+00	-1.220546e+01
1.940000e-06	4.550106e-07	-8.479596e-11	3.157701e+00	-1.027315e+01
1.950000e-06	5.017739e-07	-5.629178e-11	3.482230e+00	-8.313073e+00
1.960000e-06	5.484656e-07	-2.850176e-11	3.806263e+00	-6.327220e+00
1.970000e-06	5.951086e-07	-1.367512e-12	4.129959e+00	-4.317708e+00
1.980000e-06	6.416919e-07	2.425788e-11	4.453239e+00	-2.286769e+00
1.990000e-06	6.881590e-07	5.193838e-11	4.775714e+00	-2.367423e-01
2.000000e-06	7.345303e-07	8.334214e-11	5.097523e+00	1.829941e+00
2.010000e-06	7.808622e-07	1.145943e-10	5.419059e+00	3.910773e+00
2.020000e-06	8.272284e-07	1.455373e-10	5.740833e+00	6.003179e+00
2.030000e-06	8.735005e-07	1.744420e-10	6.061954e+00	8.104535e+00
2.040000e-06	9.196620e-07	2.026584e-10	6.382307e+00	1.021218e+01
2.050000e-06	9.657942e-07	2.327010e-10	6.702457e+00	1.232343e+01
2.060000e-06	1.011852e-06	2.647665e-10	7.022092e+00	1.443559e+01
2.070000e-06	1.057872e-06	2.994501e-10	7.341466e+00	1.654597e+01
2.080000e-06	1.103892e-06	3.338671e-10	7.660837e+00	1.865190e+01
2.090000e-06	1.149788e-06	3.646349e-10	7.979348e+00	2.075074e+01
2.100000e-06	1.195506e-06	3.894617e-10	8.296621e+00	2.283988e+01
2.110000e-06	1.241159e-06	4.131493e-10	8.613442e+00	2.491677e+01
2.120000e-06	1.286774e-06	4.393355e-10	8.930003e+00	2.697894e+01
2.130000e-06	1.332264e-06	4.685831e-10	9.245701e+00	2.902395e+01
2.140000e-06	1.377726e-06	4.989178e-10	9.561197e+00	3.104949e+01
2.150000e-06	1.423156e-06	5.293621e-10	9.876478e+00	3.305332e+01
2.160000e-06	1.468505e-06	5.567791e-10	1.019119e+01	3.503329e+01
2.170000e-06	1.513691e-06	5.811766e-10	1.050478e+01	3.698738e+01
2.180000e-06	1.558724e-06	6.064317e-10	1.081729e+01	3.891366e+01
2.190000e-06	1.603587e-06	6.338043e-10	1.112864e+01	4.081034e+01
2.200000e-06	1.648289e-06	6.602176e-10	1.143887e+01	4.267575e+01
2.210000e-06	1.692910e-06	6.847127e-10	1.174853e+01	4.450834e+01
2.220000e-06	1.737357e-06	7.100312e-10	1.205698e+01	4.630671e+01
2.230000e-06	1.781619e-06	7.371663e-10	1.236415e+01	4.806959e+01
2.240000e-06	1.825750e-06	7.614131e-10	1.267041e+01	4.979586e+01
2.250000e-06	1.869810e-06	7.822731e-10	1.297618e+01	5.148452e+01
2.260000e-06	1.913846e-06	8.027243e-10	1.328179e+01	5.313475e+01
2.270000e-06	1.957856e-06	8.249293e-10	1.358721e+01	5.474585e+01
2.280000e-06	2.001778e-06	8.466985e-10	1.389202e+01	5.631727e+01
2.290000e-06	2.045642e-06	8.654906e-10	1.419643e+01	5.784862e+01
2.300000e-06	2.089477e-06	8.833616e-10	1.450064e+01	5.933963e+01
2.310000e-06	2.133231e-06	9.024093e-10	1.480428e+01	6.079020e+01
2.320000e-06	2.176900e-06	9.223298e-10	1.510734e+01	6.220034e+01
2.330000e-06	2.220486e-06	9.423972e-10	1.540982e+01	6.357021e+01
2.340000e-06	2.263921e-06	9.627840e-10	1.571125e+01	6.490009e+01
2.350000e-06	2.307232e-06	9.832252e-10	1.601182e+01	6.619039e+01
2.360000e-06	2.350306e-06	1.002825e-09	1.631075e+01	6.744162e+01
2.370000e-06	2.393191e-06	1.020116e-09	1.660836e+01	6.865441e+01
2.380000e-06	2.435697e-06	1.033589e-09	1.690335e+01	6.982949e+01
2.390000e-06	2.477787e-06	1.045975e-09	1.719545e+01	7.096767e+01
2.400000e-06	2.519633e-06	1.059954e-09	1.748585e+01	7.206984e+01
2.410000e-06	2.561076e-06	1.074936e-09	1.777346e+01	7.313696e+01
2.420000e-06	2.602192e-06	1.089109e-09	1.805880e+01	7.417005e+01
2.430000e-06	2.643098e-06	1.102082e-09	1.834268e+01	7.517016e+01
2.440000e-06	2.683820e-06	1.114460e-09	1.862528e+01	7.613839e+01
2.450000e-06	2.724221e-06	1.125298e-09	1.890566e+01	7.707585e+01
2.460000e-06	2.764362e-06	1.137719e-09	1.918423e+01	7.798366e+01
2.470000e-06	2.804359e-06	1.150047e-09	1.946180e+01	7.886295e+01
2.480000e-06	2.844277e-06	1.163041e-09	1.973883e+01	7.971482e+01
2.490000e-06	2.884155e-06	1.174080e-09	2.001557e+01	8.054036e+01
2.500000e-06	2.923896e-06	1.182254e-09	2.029137e+01	8.134062e+01
2.510000e-06	2.963466e-06	1.191987e-09	2.056598e+01	8.211661e+01
2.520000e-06	3.002883e-06	1.202049e-09	2.083953e+01	8.286928e+01
2.530000e-06	3.042082e-06	1.213228e-09	2.111156e+01	8.359954e+01
2.540000e-06	3.081104e-06	1.225280e-09	2.138237e+01	8.430824e+01
2.550000e-06	3.119890e-06	1.235511e-09	2.165154e+01	8.499616e+01
2.560000e-06	3.158406e-06	1.242953e-09	2.191883e+01	8.566400e+01
2.570000e-06	3.196666e-06	1.249500e-09	2.218435e+01	8.631241e+01
2.580000e-06	3.234686e-06	1.255337e-09	2.244820e+01	8.694199e+01
2.590000e-06	3.272536e-06	1.261637e-09	2.271087e+01	8.755323e+01
2.600000e-06	3.310164e-06	1.269093e-09	2.297201e+01	8.814660e+01
2.610000e-06	3.347615e-06	1.279252e-09	2.323192e+01	8.872251e+01
2.620000e-06	3.384831e-06	1.287560e-09	2.349019e+01	8.928130e+01
2.630000e-06	3.421742e-06	1.295181e-09	2.374634e+01	8.982329e+01
2.640000e-06	3.458345e-06	1.304729e-09	2.400036e+01	9.034876e+01
2.650000e-06	3.494701e-06	1.312215e-09	2.425266e+01	9.085797e+01
2.660000e-06	3.530939e-06	1.317648e-09	2.450415e+01	9.135115e+01
2.670000e-06	3.567020e-06	1.325986e-09	2.475455e+01	9.182854e+01
2.680000e-06	3.602925e-06	1.336146e-09	2.500373e+01	9.229038e+01
2.690000e-06	3.638688e-06	1.344630e-09	2.525192e+01	9.273692e+01
2.700000e-06	3.674288e-06	1.349710e-09	2.549898e+01	9.316843e+01
2.710000e-06	3.709698e-06	1.356746e-09	2.574471e+01	9.358521e+01
2.720000e-06	3.744963e-06	1.367537e-09	2.598944e+01	9.398760e+01
2.730000e-06	3.779913e-06	1.376735e-09	2.623199e+01	9.437597e+01
2.740000e-06	3.814418e-06	1.382002e-09	2.647145e+01	9.475075e+01
2.750000e-06	3.848442e-06	1.384555e-09	2.670757e+01	9.511241e+01
2.760000e-06	3.881856e-06	1.385991e-09	2.693946e+01	9.546146e+01
2.770000e-06	3.914776e-06	1.387652e-09	2.716792e+01	9.579847e+01
2.780000e-06	3.947277e-06	1.394388e-09	2.739347e+01	9.612406e+01
2.790000e-06	3.979455e-06	1.405718e-09	2.761678e+01	9.643888e+01
2.800000e-06	4.011521e-06	1.417062e-09	2.783931e+01	9.674363e+01
2.810000e-06	4.043455e-06	1.420775e-09	2.806093e+01	9.703904e+01
2.820000e-06	4.075190e-06	1.420716e-09	2.828117e+01	9.732584e+01
2.830000e-06	4.106793e-06	1.423039e-09	2.850049e+01	9.760480e+01
2.840000e-06	4.138136e-06	1.427964e-09	2.871801e+01	9.787667e+01
2.850000e-06	4.169121e-06	1.431717e-09	2.893303e+01	9.814222e+01
2.860000e-06	4.199795e-06	1.434582e-09	2.914591e+01	9.840216e+01
2.870000e-06	4.230215e-06	1.441079e-09	2.935702e+01	9.865719e+01
2.880000e-06	4.260380e-06	1.449463e-09	2.956636e+01	9.890797e+01
2.890000e-06	4.290289e-06	1.456523e-09	2.977392e+01	9.915509e+01
2.900000e-06	4.319849e-06	1.459516e-09	2.997906e+01	9.939907e+01
