# Temperatura_=_10.4
# Concentracion g/m^3_=_1620.0
# C_Vs_to_Am_M_A/Vsm_=_65563218390.804596
# pendiente_HvsI_1/m_=_3716.3
# ordenada_HvsI_A/m_=_1297.0
# frecuencia_Hz_=_135098.12303715094

Tiempo_(s)	Campo_(V.s)	Magnetizacion_(V.s)	Campo_(kA/m)	Magnetizacion_(A/m)
0.000000e+00	-5.526191e-06	-1.597053e-09	-3.836928e+01	-1.049644e+02
1.000000e-08	-5.526488e-06	-1.594051e-09	-3.837134e+01	-1.049109e+02
2.000000e-08	-5.526547e-06	-1.592543e-09	-3.837175e+01	-1.048606e+02
3.000000e-08	-5.526328e-06	-1.593478e-09	-3.837023e+01	-1.048137e+02
4.000000e-08	-5.525673e-06	-1.594172e-09	-3.836568e+01	-1.047703e+02
5.000000e-08	-5.524401e-06	-1.593532e-09	-3.835685e+01	-1.047303e+02
6.000000e-08	-5.522544e-06	-1.587780e-09	-3.834395e+01	-1.046937e+02
7.000000e-08	-5.520176e-06	-1.577295e-09	-3.832751e+01	-1.046602e+02
8.000000e-08	-5.517220e-06	-1.574420e-09	-3.830699e+01	-1.046295e+02
9.000000e-08	-5.513747e-06	-1.639848e-09	-3.828288e+01	-1.046014e+02
1.000000e-07	-5.509804e-06	-1.696387e-09	-3.825550e+01	-1.045753e+02
1.100000e-07	-5.505422e-06	-1.632770e-09	-3.822507e+01	-1.045508e+02
1.200000e-07	-5.500924e-06	-1.531889e-09	-3.819384e+01	-1.045272e+02
1.300000e-07	-5.496340e-06	-1.525260e-09	-3.816202e+01	-1.045038e+02
1.400000e-07	-5.491394e-06	-1.612888e-09	-3.812768e+01	-1.044801e+02
1.500000e-07	-5.485984e-06	-1.639295e-09	-3.809011e+01	-1.044552e+02
1.600000e-07	-5.480192e-06	-1.551128e-09	-3.804990e+01	-1.044284e+02
1.700000e-07	-5.474144e-06	-1.589430e-09	-3.800791e+01	-1.043989e+02
1.800000e-07	-5.467612e-06	-1.627823e-09	-3.796255e+01	-1.043660e+02
1.900000e-07	-5.460558e-06	-1.653950e-09	-3.791358e+01	-1.043288e+02
2.000000e-07	-5.453165e-06	-1.531085e-09	-3.786224e+01	-1.042867e+02
2.100000e-07	-5.445541e-06	-1.548001e-09	-3.780931e+01	-1.042389e+02
2.200000e-07	-5.437712e-06	-1.612691e-09	-3.775495e+01	-1.041848e+02
2.300000e-07	-5.429701e-06	-1.674082e-09	-3.769933e+01	-1.041238e+02
2.400000e-07	-5.421363e-06	-1.612530e-09	-3.764144e+01	-1.040553e+02
2.500000e-07	-5.412364e-06	-1.573776e-09	-3.757895e+01	-1.039790e+02
2.600000e-07	-5.402517e-06	-1.582749e-09	-3.751058e+01	-1.038944e+02
2.700000e-07	-5.391950e-06	-1.594884e-09	-3.743722e+01	-1.038013e+02
2.800000e-07	-5.380949e-06	-1.583347e-09	-3.736083e+01	-1.036995e+02
2.900000e-07	-5.369587e-06	-1.571381e-09	-3.728195e+01	-1.035889e+02
3.000000e-07	-5.357886e-06	-1.610916e-09	-3.720071e+01	-1.034695e+02
3.100000e-07	-5.345829e-06	-1.591076e-09	-3.711699e+01	-1.033415e+02
3.200000e-07	-5.333283e-06	-1.580082e-09	-3.702988e+01	-1.032050e+02
3.300000e-07	-5.320232e-06	-1.543419e-09	-3.693927e+01	-1.030602e+02
3.400000e-07	-5.306824e-06	-1.592721e-09	-3.684618e+01	-1.029076e+02
3.500000e-07	-5.293096e-06	-1.562144e-09	-3.675086e+01	-1.027476e+02
3.600000e-07	-5.278860e-06	-1.562217e-09	-3.665202e+01	-1.025806e+02
3.700000e-07	-5.264020e-06	-1.568883e-09	-3.654898e+01	-1.024072e+02
3.800000e-07	-5.248846e-06	-1.611994e-09	-3.644362e+01	-1.022280e+02
3.900000e-07	-5.233209e-06	-1.547518e-09	-3.633505e+01	-1.020435e+02
4.000000e-07	-5.217021e-06	-1.541468e-09	-3.622265e+01	-1.018544e+02
4.100000e-07	-5.200455e-06	-1.568116e-09	-3.610763e+01	-1.016613e+02
4.200000e-07	-5.183540e-06	-1.567356e-09	-3.599020e+01	-1.014649e+02
4.300000e-07	-5.166314e-06	-1.509793e-09	-3.587059e+01	-1.012657e+02
4.400000e-07	-5.148761e-06	-1.558473e-09	-3.574871e+01	-1.010643e+02
4.500000e-07	-5.130767e-06	-1.580965e-09	-3.562378e+01	-1.008613e+02
4.600000e-07	-5.112321e-06	-1.530280e-09	-3.549571e+01	-1.006570e+02
4.700000e-07	-5.093546e-06	-1.506209e-09	-3.536535e+01	-1.004521e+02
4.800000e-07	-5.074484e-06	-1.554044e-09	-3.523300e+01	-1.002468e+02
4.900000e-07	-5.055146e-06	-1.525823e-09	-3.509873e+01	-1.000415e+02
5.000000e-07	-5.035550e-06	-1.503400e-09	-3.496268e+01	-9.983635e+01
5.100000e-07	-5.015788e-06	-1.539650e-09	-3.482546e+01	-9.963162e+01
5.200000e-07	-4.995725e-06	-1.532306e-09	-3.468616e+01	-9.942738e+01
5.300000e-07	-4.975141e-06	-1.489445e-09	-3.454324e+01	-9.922367e+01
5.400000e-07	-4.954226e-06	-1.519658e-09	-3.439803e+01	-9.902047e+01
5.500000e-07	-4.933061e-06	-1.533829e-09	-3.425108e+01	-9.881770e+01
5.600000e-07	-4.911567e-06	-1.475494e-09	-3.410184e+01	-9.861522e+01
5.700000e-07	-4.889727e-06	-1.480376e-09	-3.395020e+01	-9.841283e+01
5.800000e-07	-4.867634e-06	-1.516068e-09	-3.379681e+01	-9.821032e+01
5.900000e-07	-4.845181e-06	-1.496478e-09	-3.364091e+01	-9.800740e+01
6.000000e-07	-4.822298e-06	-1.476734e-09	-3.348203e+01	-9.780380e+01
6.100000e-07	-4.799117e-06	-1.504703e-09	-3.332108e+01	-9.759921e+01
6.200000e-07	-4.775674e-06	-1.479777e-09	-3.315831e+01	-9.739331e+01
6.300000e-07	-4.751994e-06	-1.461283e-09	-3.299390e+01	-9.718579e+01
6.400000e-07	-4.728099e-06	-1.472874e-09	-3.282799e+01	-9.697633e+01
6.500000e-07	-4.703891e-06	-1.476871e-09	-3.265991e+01	-9.676464e+01
6.600000e-07	-4.679219e-06	-1.449201e-09	-3.248861e+01	-9.655044e+01
6.700000e-07	-4.654043e-06	-1.467674e-09	-3.231381e+01	-9.633350e+01
6.800000e-07	-4.628304e-06	-1.468589e-09	-3.213509e+01	-9.611358e+01
6.900000e-07	-4.602001e-06	-1.457789e-09	-3.195247e+01	-9.589053e+01
7.000000e-07	-4.575210e-06	-1.451167e-09	-3.176646e+01	-9.566418e+01
7.100000e-07	-4.548071e-06	-1.460867e-09	-3.157802e+01	-9.543444e+01
7.200000e-07	-4.520655e-06	-1.438905e-09	-3.138767e+01	-9.520124e+01
7.300000e-07	-4.493058e-06	-1.440086e-09	-3.119606e+01	-9.496455e+01
7.400000e-07	-4.465353e-06	-1.443490e-09	-3.100370e+01	-9.472439e+01
7.500000e-07	-4.437478e-06	-1.435608e-09	-3.081016e+01	-9.448079e+01
7.600000e-07	-4.409251e-06	-1.418247e-09	-3.061417e+01	-9.423383e+01
7.700000e-07	-4.380600e-06	-1.422403e-09	-3.041525e+01	-9.398359e+01
7.800000e-07	-4.351637e-06	-1.413495e-09	-3.021415e+01	-9.373018e+01
7.900000e-07	-4.322470e-06	-1.404785e-09	-3.001164e+01	-9.347374e+01
8.000000e-07	-4.293041e-06	-1.409636e-09	-2.980731e+01	-9.321439e+01
8.100000e-07	-4.263303e-06	-1.410672e-09	-2.960083e+01	-9.295225e+01
8.200000e-07	-4.233198e-06	-1.395144e-09	-2.939181e+01	-9.268746e+01
8.300000e-07	-4.202623e-06	-1.389505e-09	-2.917952e+01	-9.242012e+01
8.400000e-07	-4.171689e-06	-1.391096e-09	-2.896474e+01	-9.215033e+01
8.500000e-07	-4.140556e-06	-1.380356e-09	-2.874858e+01	-9.187817e+01
8.600000e-07	-4.109338e-06	-1.377152e-09	-2.853182e+01	-9.160367e+01
8.700000e-07	-4.077969e-06	-1.380978e-09	-2.831403e+01	-9.132686e+01
8.800000e-07	-4.046372e-06	-1.376077e-09	-2.809465e+01	-9.104772e+01
8.900000e-07	-4.014645e-06	-1.362495e-09	-2.787436e+01	-9.076620e+01
9.000000e-07	-3.982792e-06	-1.363876e-09	-2.765320e+01	-9.048222e+01
9.100000e-07	-3.950642e-06	-1.354746e-09	-2.742997e+01	-9.019567e+01
9.200000e-07	-3.918101e-06	-1.344653e-09	-2.720404e+01	-8.990640e+01
9.300000e-07	-3.885110e-06	-1.341315e-09	-2.697497e+01	-8.961424e+01
9.400000e-07	-3.851671e-06	-1.346691e-09	-2.674280e+01	-8.931898e+01
9.500000e-07	-3.817780e-06	-1.333914e-09	-2.650749e+01	-8.902042e+01
9.600000e-07	-3.783407e-06	-1.327376e-09	-2.626883e+01	-8.871830e+01
9.700000e-07	-3.748598e-06	-1.321402e-09	-2.602715e+01	-8.841239e+01
9.800000e-07	-3.713408e-06	-1.313577e-09	-2.578282e+01	-8.810244e+01
9.900000e-07	-3.678028e-06	-1.301789e-09	-2.553717e+01	-8.778818e+01
1.000000e-06	-3.642522e-06	-1.303089e-09	-2.529064e+01	-8.746939e+01
1.010000e-06	-3.606842e-06	-1.297176e-09	-2.504292e+01	-8.714581e+01
1.020000e-06	-3.571041e-06	-1.293036e-09	-2.479434e+01	-8.681725e+01
1.030000e-06	-3.535109e-06	-1.289330e-09	-2.454486e+01	-8.648351e+01
1.040000e-06	-3.498925e-06	-1.285122e-09	-2.429362e+01	-8.614442e+01
1.050000e-06	-3.462451e-06	-1.269342e-09	-2.404038e+01	-8.579986e+01
1.060000e-06	-3.425724e-06	-1.258236e-09	-2.378538e+01	-8.544971e+01
1.070000e-06	-3.388738e-06	-1.251299e-09	-2.352858e+01	-8.509391e+01
1.080000e-06	-3.351499e-06	-1.246275e-09	-2.327003e+01	-8.473244e+01
1.090000e-06	-3.313996e-06	-1.241444e-09	-2.300964e+01	-8.436529e+01
1.100000e-06	-3.276281e-06	-1.238812e-09	-2.274777e+01	-8.399250e+01
1.110000e-06	-3.238430e-06	-1.231532e-09	-2.248497e+01	-8.361414e+01
1.120000e-06	-3.200312e-06	-1.219349e-09	-2.222031e+01	-8.323030e+01
1.130000e-06	-3.161884e-06	-1.208969e-09	-2.195350e+01	-8.284110e+01
1.140000e-06	-3.123216e-06	-1.198475e-09	-2.168502e+01	-8.244667e+01
1.150000e-06	-3.084379e-06	-1.190756e-09	-2.141537e+01	-8.204716e+01
1.160000e-06	-3.045415e-06	-1.184274e-09	-2.114483e+01	-8.164272e+01
1.170000e-06	-3.006197e-06	-1.178736e-09	-2.087253e+01	-8.123349e+01
1.180000e-06	-2.966782e-06	-1.172190e-09	-2.059887e+01	-8.081962e+01
1.190000e-06	-2.927265e-06	-1.170776e-09	-2.032450e+01	-8.040122e+01
1.200000e-06	-2.887633e-06	-1.166468e-09	-2.004932e+01	-7.997840e+01
1.210000e-06	-2.847922e-06	-1.159331e-09	-1.977360e+01	-7.955121e+01
1.220000e-06	-2.808117e-06	-1.149107e-09	-1.949723e+01	-7.911970e+01
1.230000e-06	-2.768118e-06	-1.142502e-09	-1.921951e+01	-7.868385e+01
1.240000e-06	-2.727997e-06	-1.134010e-09	-1.894094e+01	-7.824360e+01
1.250000e-06	-2.687714e-06	-1.128342e-09	-1.866125e+01	-7.779886e+01
1.260000e-06	-2.647089e-06	-1.122496e-09	-1.837919e+01	-7.734945e+01
1.270000e-06	-2.606085e-06	-1.117389e-09	-1.809449e+01	-7.689518e+01
1.280000e-06	-2.564678e-06	-1.108821e-09	-1.780699e+01	-7.643576e+01
1.290000e-06	-2.522939e-06	-1.099974e-09	-1.751719e+01	-7.597089e+01
1.300000e-06	-2.480943e-06	-1.089337e-09	-1.722561e+01	-7.550019e+01
1.310000e-06	-2.438728e-06	-1.081267e-09	-1.693250e+01	-7.502324e+01
1.320000e-06	-2.396283e-06	-1.069092e-09	-1.663780e+01	-7.453959e+01
1.330000e-06	-2.353512e-06	-1.061088e-09	-1.634083e+01	-7.404874e+01
1.340000e-06	-2.310448e-06	-1.051519e-09	-1.604183e+01	-7.355014e+01
1.350000e-06	-2.267244e-06	-1.045600e-09	-1.574185e+01	-7.304326e+01
1.360000e-06	-2.223884e-06	-1.044038e-09	-1.544080e+01	-7.252752e+01
1.370000e-06	-2.180380e-06	-1.042623e-09	-1.513875e+01	-7.200234e+01
1.380000e-06	-2.136782e-06	-1.034636e-09	-1.483603e+01	-7.146713e+01
1.390000e-06	-2.093129e-06	-1.021671e-09	-1.453295e+01	-7.092133e+01
1.400000e-06	-2.049444e-06	-1.007090e-09	-1.422963e+01	-7.036436e+01
1.410000e-06	-2.005682e-06	-9.911427e-10	-1.392579e+01	-6.979570e+01
1.420000e-06	-1.961841e-06	-9.806985e-10	-1.362139e+01	-6.921482e+01
1.430000e-06	-1.917876e-06	-9.719636e-10	-1.331614e+01	-6.862126e+01
1.440000e-06	-1.873781e-06	-9.700531e-10	-1.300997e+01	-6.801455e+01
1.450000e-06	-1.829600e-06	-9.690297e-10	-1.270322e+01	-6.739431e+01
1.460000e-06	-1.785344e-06	-9.614678e-10	-1.239594e+01	-6.676016e+01
1.470000e-06	-1.740988e-06	-9.452336e-10	-1.208798e+01	-6.611178e+01
1.480000e-06	-1.696428e-06	-9.265355e-10	-1.177859e+01	-6.544891e+01
1.490000e-06	-1.651670e-06	-9.086350e-10	-1.146783e+01	-6.477129e+01
1.500000e-06	-1.606744e-06	-8.918417e-10	-1.115589e+01	-6.407873e+01
1.510000e-06	-1.561699e-06	-8.806565e-10	-1.084314e+01	-6.337103e+01
1.520000e-06	-1.516603e-06	-8.750539e-10	-1.053003e+01	-6.264806e+01
1.530000e-06	-1.471384e-06	-8.684834e-10	-1.021607e+01	-6.190966e+01
1.540000e-06	-1.426121e-06	-8.585724e-10	-9.901800e+00	-6.115571e+01
1.550000e-06	-1.380708e-06	-8.412279e-10	-9.586488e+00	-6.038607e+01
1.560000e-06	-1.335119e-06	-8.231095e-10	-9.269957e+00	-5.960058e+01
1.570000e-06	-1.289456e-06	-8.022412e-10	-8.952912e+00	-5.879908e+01
1.580000e-06	-1.243696e-06	-7.856726e-10	-8.635188e+00	-5.798134e+01
1.590000e-06	-1.197867e-06	-7.725693e-10	-8.316991e+00	-5.714712e+01
1.600000e-06	-1.152002e-06	-7.621629e-10	-7.998547e+00	-5.629610e+01
1.610000e-06	-1.106092e-06	-7.520713e-10	-7.679780e+00	-5.542792e+01
1.620000e-06	-1.060067e-06	-7.428105e-10	-7.360225e+00	-5.454212e+01
1.630000e-06	-1.013975e-06	-7.354967e-10	-7.040198e+00	-5.363818e+01
1.640000e-06	-9.678443e-07	-7.231582e-10	-6.719906e+00	-5.271549e+01
1.650000e-06	-9.216593e-07	-7.074595e-10	-6.399236e+00	-5.177335e+01
1.660000e-06	-8.754304e-07	-6.884920e-10	-6.078261e+00	-5.081098e+01
1.670000e-06	-8.291258e-07	-6.687988e-10	-5.756760e+00	-4.982750e+01
1.680000e-06	-7.826943e-07	-6.507698e-10	-5.434378e+00	-4.882193e+01
1.690000e-06	-7.361870e-07	-6.372206e-10	-5.111471e+00	-4.779325e+01
1.700000e-06	-6.896485e-07	-6.254443e-10	-4.788346e+00	-4.674030e+01
1.710000e-06	-6.430584e-07	-6.133957e-10	-4.464863e+00	-4.566191e+01
1.720000e-06	-5.964335e-07	-6.003814e-10	-4.141138e+00	-4.455681e+01
1.730000e-06	-5.497860e-07	-5.811912e-10	-3.817257e+00	-4.342372e+01
1.740000e-06	-5.030641e-07	-5.555504e-10	-3.492859e+00	-4.226130e+01
1.750000e-06	-4.562780e-07	-5.291874e-10	-3.168015e+00	-4.106820e+01
1.760000e-06	-4.095042e-07	-5.069369e-10	-2.843257e+00	-3.984310e+01
1.770000e-06	-3.627008e-07	-4.892573e-10	-2.518293e+00	-3.858467e+01
1.780000e-06	-3.158501e-07	-4.737105e-10	-2.193001e+00	-3.729164e+01
1.790000e-06	-2.690225e-07	-4.585949e-10	-1.867868e+00	-3.596278e+01
1.800000e-06	-2.221494e-07	-4.403851e-10	-1.542421e+00	-3.459698e+01
1.810000e-06	-1.752189e-07	-4.182573e-10	-1.216574e+00	-3.319320e+01
1.820000e-06	-1.282930e-07	-3.926047e-10	-8.907596e-01	-3.175053e+01
1.830000e-06	-8.136089e-08	-3.669406e-10	-5.649024e-01	-3.026821e+01
1.840000e-06	-3.440245e-08	-3.445729e-10	-2.388620e-01	-2.874563e+01
1.850000e-06	1.252945e-08	-3.259431e-10	8.699405e-02	-2.718236e+01
1.860000e-06	5.941038e-08	-3.107372e-10	4.124963e-01	-2.557816e+01
1.870000e-06	1.063377e-07	-2.930745e-10	7.383206e-01	-2.393301e+01
1.880000e-06	1.532535e-07	-2.680838e-10	1.064065e+00	-2.224708e+01
1.890000e-06	2.001015e-07	-2.386355e-10	1.389338e+00	-2.052079e+01
1.900000e-06	2.469117e-07	-2.063889e-10	1.714350e+00	-1.875478e+01
1.910000e-06	2.937313e-07	-1.751425e-10	2.039426e+00	-1.694991e+01
1.920000e-06	3.406487e-07	-1.500878e-10	2.365181e+00	-1.510730e+01
1.930000e-06	3.875413e-07	-1.296538e-10	2.690765e+00	-1.322829e+01
1.940000e-06	4.342557e-07	-1.094452e-10	3.015111e+00	-1.131446e+01
1.950000e-06	4.809210e-07	-8.631943e-11	3.339115e+00	-9.367603e+00
1.960000e-06	5.275827e-07	-5.705337e-11	3.663095e+00	-7.389721e+00
1.970000e-06	5.741849e-07	-2.330769e-11	3.986662e+00	-5.383025e+00
1.980000e-06	6.207238e-07	9.514130e-12	4.309790e+00	-3.349911e+00
1.990000e-06	6.672099e-07	3.817417e-11	4.632551e+00	-1.292941e+00
2.000000e-06	7.136590e-07	6.516968e-11	4.955054e+00	7.851670e-01
2.010000e-06	7.600439e-07	9.311502e-11	5.277113e+00	2.881567e+00
2.020000e-06	8.063924e-07	1.198794e-10	5.598919e+00	4.993301e+00
2.030000e-06	8.526642e-07	1.461820e-10	5.920191e+00	7.117320e+00
2.040000e-06	8.988476e-07	1.754906e-10	6.240850e+00	9.250512e+00
2.050000e-06	9.449842e-07	2.076346e-10	6.561185e+00	1.138972e+01
2.060000e-06	9.910921e-07	2.414117e-10	6.881319e+00	1.353177e+01
2.070000e-06	1.037129e-06	2.758728e-10	7.200961e+00	1.567348e+01
2.080000e-06	1.083009e-06	3.071496e-10	7.519511e+00	1.781170e+01
2.090000e-06	1.128731e-06	3.339893e-10	7.836969e+00	1.994333e+01
2.100000e-06	1.174387e-06	3.600579e-10	8.153969e+00	2.206534e+01
2.110000e-06	1.220059e-06	3.868014e-10	8.471076e+00	2.417477e+01
2.120000e-06	1.265706e-06	4.139772e-10	8.788011e+00	2.626878e+01
2.130000e-06	1.311258e-06	4.442019e-10	9.104288e+00	2.834464e+01
2.140000e-06	1.356725e-06	4.752357e-10	9.419973e+00	3.039975e+01
2.150000e-06	1.402129e-06	5.028586e-10	9.735219e+00	3.243168e+01
2.160000e-06	1.447440e-06	5.283294e-10	1.004982e+01	3.443814e+01
2.170000e-06	1.492589e-06	5.533438e-10	1.036330e+01	3.641699e+01
2.180000e-06	1.537644e-06	5.768105e-10	1.067612e+01	3.836631e+01
2.190000e-06	1.582617e-06	6.011660e-10	1.098838e+01	4.028430e+01
2.200000e-06	1.627427e-06	6.282638e-10	1.129950e+01	4.216940e+01
2.210000e-06	1.672084e-06	6.569615e-10	1.160956e+01	4.402018e+01
2.220000e-06	1.716598e-06	6.845720e-10	1.191863e+01	4.583543e+01
2.230000e-06	1.761026e-06	7.115449e-10	1.222710e+01	4.761408e+01
2.240000e-06	1.805386e-06	7.374926e-10	1.253510e+01	4.935527e+01
2.250000e-06	1.849616e-06	7.604684e-10	1.284219e+01	5.105830e+01
2.260000e-06	1.893696e-06	7.807439e-10	1.314825e+01	5.272261e+01
2.270000e-06	1.937606e-06	7.989063e-10	1.345313e+01	5.434783e+01
2.280000e-06	1.981396e-06	8.181763e-10	1.375717e+01	5.593371e+01
2.290000e-06	2.025108e-06	8.399570e-10	1.406067e+01	5.748014e+01
2.300000e-06	2.068747e-06	8.625608e-10	1.436366e+01	5.898716e+01
2.310000e-06	2.112373e-06	8.842561e-10	1.466656e+01	6.045491e+01
2.320000e-06	2.155982e-06	9.063520e-10	1.496935e+01	6.188363e+01
2.330000e-06	2.199480e-06	9.266061e-10	1.527136e+01	6.327367e+01
2.340000e-06	2.242829e-06	9.437162e-10	1.557234e+01	6.462548e+01
2.350000e-06	2.286096e-06	9.601326e-10	1.587275e+01	6.593955e+01
2.360000e-06	2.329271e-06	9.774417e-10	1.617252e+01	6.721648e+01
2.370000e-06	2.372193e-06	9.949888e-10	1.647054e+01	6.845689e+01
2.380000e-06	2.414803e-06	1.012795e-09	1.676638e+01	6.966148e+01
2.390000e-06	2.457150e-06	1.030554e-09	1.706041e+01	7.083096e+01
2.400000e-06	2.499223e-06	1.048270e-09	1.735253e+01	7.196610e+01
2.410000e-06	2.540945e-06	1.063623e-09	1.764221e+01	7.306767e+01
2.420000e-06	2.582258e-06	1.075617e-09	1.792905e+01	7.413648e+01
2.430000e-06	2.623241e-06	1.085958e-09	1.821361e+01	7.517334e+01
2.440000e-06	2.663949e-06	1.097437e-09	1.849625e+01	7.617907e+01
2.450000e-06	2.704449e-06	1.111793e-09	1.877745e+01	7.715448e+01
2.460000e-06	2.744724e-06	1.126398e-09	1.905708e+01	7.810040e+01
2.470000e-06	2.784797e-06	1.141654e-09	1.933531e+01	7.901763e+01
2.480000e-06	2.824780e-06	1.155819e-09	1.961292e+01	7.990698e+01
2.490000e-06	2.864581e-06	1.165222e-09	1.988927e+01	8.076923e+01
2.500000e-06	2.904228e-06	1.172371e-09	2.016454e+01	8.160516e+01
2.510000e-06	2.943790e-06	1.179838e-09	2.043923e+01	8.241554e+01
2.520000e-06	2.983178e-06	1.189357e-09	2.071271e+01	8.320110e+01
2.530000e-06	3.022451e-06	1.202099e-09	2.098539e+01	8.396257e+01
2.540000e-06	3.061552e-06	1.213585e-09	2.125687e+01	8.470066e+01
2.550000e-06	3.100353e-06	1.225896e-09	2.152627e+01	8.541605e+01
2.560000e-06	3.138852e-06	1.236538e-09	2.179358e+01	8.610944e+01
2.570000e-06	3.177084e-06	1.245629e-09	2.205903e+01	8.678146e+01
2.580000e-06	3.215090e-06	1.253295e-09	2.232291e+01	8.743276e+01
2.590000e-06	3.252864e-06	1.261198e-09	2.258519e+01	8.806396e+01
2.600000e-06	3.290530e-06	1.269784e-09	2.284670e+01	8.867567e+01
2.610000e-06	3.328109e-06	1.279182e-09	2.310762e+01	8.926848e+01
2.620000e-06	3.365445e-06	1.290130e-09	2.336685e+01	8.984298e+01
2.630000e-06	3.402479e-06	1.298197e-09	2.362399e+01	9.039972e+01
2.640000e-06	3.439267e-06	1.305901e-09	2.387941e+01	9.093928e+01
2.650000e-06	3.475764e-06	1.312735e-09	2.413281e+01	9.146218e+01
2.660000e-06	3.512027e-06	1.319839e-09	2.438460e+01	9.196898e+01
2.670000e-06	3.548072e-06	1.328844e-09	2.463486e+01	9.246020e+01
2.680000e-06	3.583915e-06	1.338722e-09	2.488372e+01	9.293635e+01
2.690000e-06	3.619694e-06	1.346903e-09	2.513214e+01	9.339795e+01
2.700000e-06	3.655344e-06	1.354315e-09	2.537967e+01	9.384549e+01
2.710000e-06	3.690825e-06	1.359314e-09	2.562602e+01	9.427949e+01
2.720000e-06	3.726193e-06	1.362473e-09	2.587158e+01	9.470042e+01
2.730000e-06	3.761357e-06	1.367505e-09	2.611574e+01	9.510877e+01
2.740000e-06	3.796109e-06	1.374691e-09	2.635702e+01	9.550502e+01
2.750000e-06	3.830419e-06	1.382617e-09	2.659524e+01	9.588962e+01
2.760000e-06	3.864220e-06	1.389444e-09	2.682993e+01	9.626303e+01
2.770000e-06	3.897523e-06	1.395431e-09	2.706116e+01	9.662570e+01
2.780000e-06	3.930403e-06	1.400206e-09	2.728945e+01	9.697807e+01
2.790000e-06	3.962869e-06	1.403099e-09	2.751487e+01	9.732056e+01
2.800000e-06	3.994980e-06	1.407455e-09	2.773782e+01	9.765357e+01
2.810000e-06	4.026846e-06	1.412261e-09	2.795907e+01	9.797750e+01
2.820000e-06	4.058584e-06	1.415321e-09	2.817944e+01	9.829272e+01
2.830000e-06	4.090151e-06	1.420929e-09	2.839861e+01	9.859960e+01
2.840000e-06	4.121532e-06	1.428271e-09	2.861649e+01	9.889847e+01
2.850000e-06	4.152729e-06	1.433603e-09	2.883310e+01	9.918965e+01
2.860000e-06	4.183704e-06	1.435752e-09	2.904817e+01	9.947342e+01
2.870000e-06	4.214292e-06	1.438270e-09	2.926054e+01	9.975007e+01
2.880000e-06	4.244514e-06	1.443023e-09	2.947037e+01	1.000198e+02
2.890000e-06	4.274453e-06	1.447697e-09	2.967825e+01	1.002829e+02
2.900000e-06	4.304016e-06	1.453447e-09	2.988351e+01	1.005395e+02
