# Temperatura_=_-11.95
# Concentracion g/m^3_=_1620.0
# C_Vs_to_Am_M_A/Vsm_=_65563218390.804596
# pendiente_HvsI_1/m_=_3716.3
# ordenada_HvsI_A/m_=_1297.0
# frecuencia_Hz_=_135107.20225578707

Tiempo_(s)	Campo_(V.s)	Magnetizacion_(V.s)	Campo_(kA/m)	Magnetizacion_(A/m)
0.000000e+00	-5.516683e-06	-1.084558e-09	-3.837283e+01	-7.043184e+01
1.000000e-08	-5.516827e-06	-1.081411e-09	-3.837383e+01	-7.043143e+01
2.000000e-08	-5.516636e-06	-1.080910e-09	-3.837250e+01	-7.043580e+01
3.000000e-08	-5.516058e-06	-1.081002e-09	-3.836848e+01	-7.044455e+01
4.000000e-08	-5.515039e-06	-1.080233e-09	-3.836139e+01	-7.045715e+01
5.000000e-08	-5.513449e-06	-1.078045e-09	-3.835033e+01	-7.047302e+01
6.000000e-08	-5.511246e-06	-1.077748e-09	-3.833501e+01	-7.049146e+01
7.000000e-08	-5.508533e-06	-1.089904e-09	-3.831614e+01	-7.051173e+01
8.000000e-08	-5.505306e-06	-1.097639e-09	-3.829369e+01	-7.053302e+01
9.000000e-08	-5.501540e-06	-1.067604e-09	-3.826749e+01	-7.055446e+01
1.000000e-07	-5.497297e-06	-1.039239e-09	-3.823798e+01	-7.057516e+01
1.100000e-07	-5.492818e-06	-1.049767e-09	-3.820683e+01	-7.059420e+01
1.200000e-07	-5.488220e-06	-1.089945e-09	-3.817484e+01	-7.061065e+01
1.300000e-07	-5.483339e-06	-1.076494e-09	-3.814089e+01	-7.062361e+01
1.400000e-07	-5.478103e-06	-1.049393e-09	-3.810447e+01	-7.063219e+01
1.500000e-07	-5.472580e-06	-1.073721e-09	-3.806606e+01	-7.063554e+01
1.600000e-07	-5.466640e-06	-1.091415e-09	-3.802474e+01	-7.063286e+01
1.700000e-07	-5.460150e-06	-1.068747e-09	-3.797960e+01	-7.062344e+01
1.800000e-07	-5.453305e-06	-1.027983e-09	-3.793198e+01	-7.060664e+01
1.900000e-07	-5.446223e-06	-1.042626e-09	-3.788272e+01	-7.058189e+01
2.000000e-07	-5.438753e-06	-1.066590e-09	-3.783076e+01	-7.054875e+01
2.100000e-07	-5.430880e-06	-1.073958e-09	-3.777600e+01	-7.050689e+01
2.200000e-07	-5.422721e-06	-1.056120e-09	-3.771924e+01	-7.045608e+01
2.300000e-07	-5.414291e-06	-1.046981e-09	-3.766061e+01	-7.039622e+01
2.400000e-07	-5.405340e-06	-1.043070e-09	-3.759835e+01	-7.032732e+01
2.500000e-07	-5.395682e-06	-1.047563e-09	-3.753117e+01	-7.024952e+01
2.600000e-07	-5.385453e-06	-1.049026e-09	-3.746002e+01	-7.016306e+01
2.700000e-07	-5.374706e-06	-1.049609e-09	-3.738527e+01	-7.006833e+01
2.800000e-07	-5.363457e-06	-1.041520e-09	-3.730702e+01	-6.996579e+01
2.900000e-07	-5.351832e-06	-1.033265e-09	-3.722616e+01	-6.985602e+01
3.000000e-07	-5.339832e-06	-1.033234e-09	-3.714269e+01	-6.973965e+01
3.100000e-07	-5.327395e-06	-1.033819e-09	-3.705618e+01	-6.961744e+01
3.200000e-07	-5.314564e-06	-1.041575e-09	-3.696693e+01	-6.949016e+01
3.300000e-07	-5.301368e-06	-1.040420e-09	-3.687514e+01	-6.935867e+01
3.400000e-07	-5.287717e-06	-1.038210e-09	-3.678019e+01	-6.922383e+01
3.500000e-07	-5.273574e-06	-1.039816e-09	-3.668182e+01	-6.908654e+01
3.600000e-07	-5.258912e-06	-1.047127e-09	-3.657983e+01	-6.894769e+01
3.700000e-07	-5.243875e-06	-1.031979e-09	-3.647523e+01	-6.880818e+01
3.800000e-07	-5.228399e-06	-1.021358e-09	-3.636758e+01	-6.866887e+01
3.900000e-07	-5.212369e-06	-1.034791e-09	-3.625609e+01	-6.853057e+01
4.000000e-07	-5.195935e-06	-1.036391e-09	-3.614177e+01	-6.839407e+01
4.100000e-07	-5.179123e-06	-1.009768e-09	-3.602483e+01	-6.826008e+01
4.200000e-07	-5.161989e-06	-1.019552e-09	-3.590565e+01	-6.812924e+01
4.300000e-07	-5.144556e-06	-1.041744e-09	-3.578440e+01	-6.800210e+01
4.400000e-07	-5.126836e-06	-1.020339e-09	-3.566114e+01	-6.787916e+01
4.500000e-07	-5.108713e-06	-9.904872e-10	-3.553508e+01	-6.776081e+01
4.600000e-07	-5.090057e-06	-1.012679e-09	-3.540531e+01	-6.764733e+01
4.700000e-07	-5.071015e-06	-1.019773e-09	-3.527286e+01	-6.753895e+01
4.800000e-07	-5.051751e-06	-9.912524e-10	-3.513886e+01	-6.743577e+01
4.900000e-07	-5.032249e-06	-9.931724e-10	-3.500321e+01	-6.733783e+01
5.000000e-07	-5.012532e-06	-1.020763e-09	-3.486606e+01	-6.724509e+01
5.100000e-07	-4.992487e-06	-1.007838e-09	-3.472663e+01	-6.715739e+01
5.200000e-07	-4.972077e-06	-9.953947e-10	-3.458467e+01	-6.707456e+01
5.300000e-07	-4.951373e-06	-1.012691e-09	-3.444065e+01	-6.699634e+01
5.400000e-07	-4.930375e-06	-1.006091e-09	-3.429460e+01	-6.692241e+01
5.500000e-07	-4.909037e-06	-9.852658e-10	-3.414617e+01	-6.685242e+01
5.600000e-07	-4.887342e-06	-1.001497e-09	-3.399527e+01	-6.678599e+01
5.700000e-07	-4.865328e-06	-1.014771e-09	-3.384215e+01	-6.672273e+01
5.800000e-07	-4.842956e-06	-9.943645e-10	-3.368653e+01	-6.666220e+01
5.900000e-07	-4.820193e-06	-9.940645e-10	-3.352820e+01	-6.660401e+01
6.000000e-07	-4.797142e-06	-1.008595e-09	-3.336786e+01	-6.654774e+01
6.100000e-07	-4.773843e-06	-9.945008e-10	-3.320579e+01	-6.649301e+01
6.200000e-07	-4.750221e-06	-9.819656e-10	-3.304149e+01	-6.643945e+01
6.300000e-07	-4.726298e-06	-1.000196e-09	-3.287508e+01	-6.638672e+01
6.400000e-07	-4.702116e-06	-1.001602e-09	-3.270688e+01	-6.633453e+01
6.500000e-07	-4.677567e-06	-9.880227e-10	-3.253612e+01	-6.628261e+01
6.600000e-07	-4.652478e-06	-9.951277e-10	-3.236161e+01	-6.623076e+01
6.700000e-07	-4.626891e-06	-1.002163e-09	-3.218363e+01	-6.617879e+01
6.800000e-07	-4.600893e-06	-9.871601e-10	-3.200279e+01	-6.612657e+01
6.900000e-07	-4.574459e-06	-9.891989e-10	-3.181893e+01	-6.607401e+01
7.000000e-07	-4.547647e-06	-1.000523e-09	-3.163243e+01	-6.602107e+01
7.100000e-07	-4.520485e-06	-9.947470e-10	-3.144350e+01	-6.596772e+01
7.200000e-07	-4.492991e-06	-9.877805e-10	-3.125225e+01	-6.591397e+01
7.300000e-07	-4.465305e-06	-9.943423e-10	-3.105967e+01	-6.585987e+01
7.400000e-07	-4.437403e-06	-9.912024e-10	-3.086559e+01	-6.580547e+01
7.500000e-07	-4.409284e-06	-9.837378e-10	-3.067001e+01	-6.575084e+01
7.600000e-07	-4.380902e-06	-9.840400e-10	-3.047259e+01	-6.569606e+01
7.700000e-07	-4.352121e-06	-9.818408e-10	-3.027239e+01	-6.564119e+01
7.800000e-07	-4.323042e-06	-9.746528e-10	-3.007012e+01	-6.558630e+01
7.900000e-07	-4.293756e-06	-9.748568e-10	-2.986642e+01	-6.553145e+01
8.000000e-07	-4.264214e-06	-9.757531e-10	-2.966093e+01	-6.547666e+01
8.100000e-07	-4.234357e-06	-9.714905e-10	-2.945325e+01	-6.542195e+01
8.200000e-07	-4.204186e-06	-9.673868e-10	-2.924339e+01	-6.536731e+01
8.300000e-07	-4.173686e-06	-9.632867e-10	-2.903124e+01	-6.531267e+01
8.400000e-07	-4.142867e-06	-9.576717e-10	-2.881687e+01	-6.525797e+01
8.500000e-07	-4.111796e-06	-9.567343e-10	-2.860075e+01	-6.520309e+01
8.600000e-07	-4.080549e-06	-9.572728e-10	-2.838340e+01	-6.514788e+01
8.700000e-07	-4.049043e-06	-9.521227e-10	-2.816425e+01	-6.509217e+01
8.800000e-07	-4.017299e-06	-9.486484e-10	-2.794345e+01	-6.503575e+01
8.900000e-07	-3.985432e-06	-9.492017e-10	-2.772178e+01	-6.497839e+01
9.000000e-07	-3.953252e-06	-9.492263e-10	-2.749794e+01	-6.491984e+01
9.100000e-07	-3.920700e-06	-9.453764e-10	-2.727152e+01	-6.485982e+01
9.200000e-07	-3.887876e-06	-9.431861e-10	-2.704321e+01	-6.479807e+01
9.300000e-07	-3.854665e-06	-9.401994e-10	-2.681220e+01	-6.473430e+01
9.400000e-07	-3.821052e-06	-9.366715e-10	-2.657839e+01	-6.466822e+01
9.500000e-07	-3.786998e-06	-9.373010e-10	-2.634152e+01	-6.459957e+01
9.600000e-07	-3.752454e-06	-9.416247e-10	-2.610124e+01	-6.452808e+01
9.700000e-07	-3.717585e-06	-9.412743e-10	-2.585870e+01	-6.445352e+01
9.800000e-07	-3.682467e-06	-9.381737e-10	-2.561442e+01	-6.437568e+01
9.900000e-07	-3.647113e-06	-9.352194e-10	-2.536851e+01	-6.429439e+01
1.000000e-06	-3.611578e-06	-9.299726e-10	-2.512134e+01	-6.420950e+01
1.010000e-06	-3.575906e-06	-9.239095e-10	-2.487321e+01	-6.412091e+01
1.020000e-06	-3.540030e-06	-9.226490e-10	-2.462367e+01	-6.402856e+01
1.030000e-06	-3.503917e-06	-9.235534e-10	-2.437247e+01	-6.393244e+01
1.040000e-06	-3.467524e-06	-9.242565e-10	-2.411933e+01	-6.383257e+01
1.050000e-06	-3.430873e-06	-9.237284e-10	-2.386439e+01	-6.372903e+01
1.060000e-06	-3.394045e-06	-9.241526e-10	-2.360823e+01	-6.362192e+01
1.070000e-06	-3.357007e-06	-9.228042e-10	-2.335060e+01	-6.351140e+01
1.080000e-06	-3.319739e-06	-9.179160e-10	-2.309137e+01	-6.339765e+01
1.090000e-06	-3.282280e-06	-9.137053e-10	-2.283082e+01	-6.328089e+01
1.100000e-06	-3.244620e-06	-9.110466e-10	-2.256886e+01	-6.316134e+01
1.110000e-06	-3.206671e-06	-9.068128e-10	-2.230490e+01	-6.303926e+01
1.120000e-06	-3.168423e-06	-9.037017e-10	-2.203885e+01	-6.291490e+01
1.130000e-06	-3.129933e-06	-9.045934e-10	-2.177112e+01	-6.278852e+01
1.140000e-06	-3.091304e-06	-9.064433e-10	-2.150243e+01	-6.266038e+01
1.150000e-06	-3.052515e-06	-9.071867e-10	-2.123262e+01	-6.253070e+01
1.160000e-06	-3.013460e-06	-9.064599e-10	-2.096096e+01	-6.239969e+01
1.170000e-06	-2.974224e-06	-9.037018e-10	-2.068804e+01	-6.226754e+01
1.180000e-06	-2.934895e-06	-9.011695e-10	-2.041448e+01	-6.213439e+01
1.190000e-06	-2.895403e-06	-9.024888e-10	-2.013978e+01	-6.200034e+01
1.200000e-06	-2.855760e-06	-9.037111e-10	-1.986403e+01	-6.186542e+01
1.210000e-06	-2.815928e-06	-9.032898e-10	-1.958698e+01	-6.172963e+01
1.220000e-06	-2.775929e-06	-9.028358e-10	-1.930875e+01	-6.159291e+01
1.230000e-06	-2.735760e-06	-9.043528e-10	-1.902934e+01	-6.145512e+01
1.240000e-06	-2.695318e-06	-9.034939e-10	-1.874803e+01	-6.131608e+01
1.250000e-06	-2.654717e-06	-9.000131e-10	-1.846562e+01	-6.117553e+01
1.260000e-06	-2.613964e-06	-8.954544e-10	-1.818216e+01	-6.103315e+01
1.270000e-06	-2.572922e-06	-8.907754e-10	-1.789668e+01	-6.088859e+01
1.280000e-06	-2.531509e-06	-8.870045e-10	-1.760862e+01	-6.074140e+01
1.290000e-06	-2.489843e-06	-8.841683e-10	-1.731880e+01	-6.059111e+01
1.300000e-06	-2.447999e-06	-8.819682e-10	-1.702774e+01	-6.043720e+01
1.310000e-06	-2.405931e-06	-8.783999e-10	-1.673512e+01	-6.027911e+01
1.320000e-06	-2.363548e-06	-8.745167e-10	-1.644032e+01	-6.011624e+01
1.330000e-06	-2.320811e-06	-8.702204e-10	-1.614305e+01	-5.994797e+01
1.340000e-06	-2.277783e-06	-8.654363e-10	-1.584376e+01	-5.977367e+01
1.350000e-06	-2.234557e-06	-8.632883e-10	-1.554309e+01	-5.959270e+01
1.360000e-06	-2.191286e-06	-8.632310e-10	-1.524210e+01	-5.940440e+01
1.370000e-06	-2.147862e-06	-8.614045e-10	-1.494005e+01	-5.920815e+01
1.380000e-06	-2.104258e-06	-8.572778e-10	-1.463676e+01	-5.900332e+01
1.390000e-06	-2.060555e-06	-8.533014e-10	-1.433276e+01	-5.878930e+01
1.400000e-06	-2.016763e-06	-8.491707e-10	-1.402816e+01	-5.856552e+01
1.410000e-06	-1.972961e-06	-8.426656e-10	-1.372348e+01	-5.833143e+01
1.420000e-06	-1.929085e-06	-8.353484e-10	-1.341829e+01	-5.808651e+01
1.430000e-06	-1.885016e-06	-8.305818e-10	-1.311175e+01	-5.783028e+01
1.440000e-06	-1.840823e-06	-8.264884e-10	-1.280436e+01	-5.756233e+01
1.450000e-06	-1.796575e-06	-8.225097e-10	-1.249658e+01	-5.728224e+01
1.460000e-06	-1.752216e-06	-8.167562e-10	-1.218803e+01	-5.698966e+01
1.470000e-06	-1.707749e-06	-8.073026e-10	-1.187873e+01	-5.668426e+01
1.480000e-06	-1.663175e-06	-7.976761e-10	-1.156868e+01	-5.636578e+01
1.490000e-06	-1.618513e-06	-7.879410e-10	-1.125802e+01	-5.603394e+01
1.500000e-06	-1.573707e-06	-7.778052e-10	-1.094636e+01	-5.568852e+01
1.510000e-06	-1.528677e-06	-7.697233e-10	-1.063314e+01	-5.532931e+01
1.520000e-06	-1.483515e-06	-7.630833e-10	-1.031900e+01	-5.495610e+01
1.530000e-06	-1.438345e-06	-7.556628e-10	-1.000481e+01	-5.456871e+01
1.540000e-06	-1.393073e-06	-7.469620e-10	-9.689907e+00	-5.416693e+01
1.550000e-06	-1.347646e-06	-7.374298e-10	-9.373931e+00	-5.375057e+01
1.560000e-06	-1.302151e-06	-7.270377e-10	-9.057472e+00	-5.331940e+01
1.570000e-06	-1.256565e-06	-7.178533e-10	-8.740389e+00	-5.287317e+01
1.580000e-06	-1.210870e-06	-7.092623e-10	-8.422547e+00	-5.241161e+01
1.590000e-06	-1.165095e-06	-7.003619e-10	-8.104140e+00	-5.193439e+01
1.600000e-06	-1.119191e-06	-6.930011e-10	-7.784845e+00	-5.144115e+01
1.610000e-06	-1.073172e-06	-6.880504e-10	-7.464746e+00	-5.093147e+01
1.620000e-06	-1.027148e-06	-6.829765e-10	-7.144612e+00	-5.040489e+01
1.630000e-06	-9.811341e-07	-6.764522e-10	-6.824552e+00	-4.986089e+01
1.640000e-06	-9.350364e-07	-6.685170e-10	-6.503906e+00	-4.929886e+01
1.650000e-06	-8.887709e-07	-6.570609e-10	-6.182094e+00	-4.871818e+01
1.660000e-06	-8.424610e-07	-6.432762e-10	-5.859972e+00	-4.811814e+01
1.670000e-06	-7.962015e-07	-6.287592e-10	-5.538202e+00	-4.749796e+01
1.680000e-06	-7.498860e-07	-6.169189e-10	-5.216041e+00	-4.685685e+01
1.690000e-06	-7.034638e-07	-6.075690e-10	-4.893139e+00	-4.619392e+01
1.700000e-06	-6.569751e-07	-5.975023e-10	-4.569774e+00	-4.550828e+01
1.710000e-06	-6.104392e-07	-5.875578e-10	-4.246080e+00	-4.479898e+01
1.720000e-06	-5.639459e-07	-5.781425e-10	-3.922683e+00	-4.406503e+01
1.730000e-06	-5.174353e-07	-5.656767e-10	-3.599165e+00	-4.330546e+01
1.740000e-06	-4.707957e-07	-5.508781e-10	-3.274751e+00	-4.251925e+01
1.750000e-06	-4.240419e-07	-5.368451e-10	-2.949542e+00	-4.170541e+01
1.760000e-06	-3.772703e-07	-5.235434e-10	-2.624209e+00	-4.086294e+01
1.770000e-06	-3.305009e-07	-5.119670e-10	-2.298891e+00	-3.999088e+01
1.780000e-06	-2.837129e-07	-5.012013e-10	-1.973444e+00	-3.908830e+01
1.790000e-06	-2.369859e-07	-4.899141e-10	-1.648421e+00	-3.815432e+01
1.800000e-06	-1.902105e-07	-4.788611e-10	-1.323062e+00	-3.718812e+01
1.810000e-06	-1.433540e-07	-4.661988e-10	-9.971390e-01	-3.618894e+01
1.820000e-06	-9.655582e-08	-4.517376e-10	-6.716209e-01	-3.515612e+01
1.830000e-06	-4.982238e-08	-4.365083e-10	-3.465535e-01	-3.408908e+01
1.840000e-06	-3.002150e-09	-4.208283e-10	-2.088229e-02	-3.298735e+01
1.850000e-06	4.393851e-08	-4.050810e-10	3.056266e-01	-3.185057e+01
1.860000e-06	9.088895e-08	-3.902553e-10	6.322035e-01	-3.067848e+01
1.870000e-06	1.377509e-07	-3.751116e-10	9.581645e-01	-2.947099e+01
1.880000e-06	1.845857e-07	-3.582964e-10	1.283937e+00	-2.822811e+01
1.890000e-06	2.313834e-07	-3.402824e-10	1.609451e+00	-2.694999e+01
1.900000e-06	2.780826e-07	-3.207131e-10	1.934281e+00	-2.563693e+01
1.910000e-06	3.247481e-07	-2.990689e-10	2.258876e+00	-2.428938e+01
1.920000e-06	3.714283e-07	-2.781055e-10	2.583573e+00	-2.290793e+01
1.930000e-06	4.181334e-07	-2.593971e-10	2.908443e+00	-2.149331e+01
1.940000e-06	4.647706e-07	-2.403624e-10	3.232841e+00	-2.004641e+01
1.950000e-06	5.113620e-07	-2.197180e-10	3.556921e+00	-1.856824e+01
1.960000e-06	5.578695e-07	-1.992405e-10	3.880417e+00	-1.705999e+01
1.970000e-06	6.042474e-07	-1.804695e-10	4.203011e+00	-1.552294e+01
1.980000e-06	6.506523e-07	-1.613769e-10	4.525793e+00	-1.395854e+01
1.990000e-06	6.970101e-07	-1.390291e-10	4.848248e+00	-1.236833e+01
2.000000e-06	7.432687e-07	-1.130015e-10	5.170013e+00	-1.075400e+01
2.010000e-06	7.895255e-07	-8.828190e-11	5.491765e+00	-9.117333e+00
2.020000e-06	8.356938e-07	-6.534252e-11	5.812901e+00	-7.460206e+00
2.030000e-06	8.818099e-07	-4.301867e-11	6.133674e+00	-5.784602e+00
2.040000e-06	9.279075e-07	-2.129659e-11	6.454319e+00	-4.092581e+00
2.050000e-06	9.738892e-07	8.347719e-13	6.774158e+00	-2.386275e+00
2.060000e-06	1.019807e-06	2.422586e-11	7.093554e+00	-6.678759e-01
2.070000e-06	1.065696e-06	5.041845e-11	7.412748e+00	1.060372e+00
2.080000e-06	1.111552e-06	7.697768e-11	7.731711e+00	2.796185e+00
2.090000e-06	1.157328e-06	1.020377e-10	8.050116e+00	4.537255e+00
2.100000e-06	1.202937e-06	1.268916e-10	8.367363e+00	6.281254e+00
2.110000e-06	1.248477e-06	1.520216e-10	8.684127e+00	8.025851e+00
2.120000e-06	1.293995e-06	1.779173e-10	9.000746e+00	9.768722e+00
2.130000e-06	1.339509e-06	2.030410e-10	9.317329e+00	1.150756e+01
2.140000e-06	1.385014e-06	2.240076e-10	9.633853e+00	1.324008e+01
2.150000e-06	1.430364e-06	2.447212e-10	9.949294e+00	1.496406e+01
2.160000e-06	1.475495e-06	2.686721e-10	1.026322e+01	1.667729e+01
2.170000e-06	1.520463e-06	2.948238e-10	1.057600e+01	1.837766e+01
2.180000e-06	1.565291e-06	3.206069e-10	1.088782e+01	2.006309e+01
2.190000e-06	1.610000e-06	3.451630e-10	1.119881e+01	2.173160e+01
2.200000e-06	1.654612e-06	3.688814e-10	1.150911e+01	2.338131e+01
2.210000e-06	1.699108e-06	3.900484e-10	1.181862e+01	2.501039e+01
2.220000e-06	1.743476e-06	4.116350e-10	1.212723e+01	2.661715e+01
2.230000e-06	1.787724e-06	4.339684e-10	1.243501e+01	2.819999e+01
2.240000e-06	1.831850e-06	4.541770e-10	1.274194e+01	2.975742e+01
2.250000e-06	1.875881e-06	4.748558e-10	1.304822e+01	3.128807e+01
2.260000e-06	1.919815e-06	4.974962e-10	1.335381e+01	3.279066e+01
2.270000e-06	1.963618e-06	5.197444e-10	1.365850e+01	3.426408e+01
2.280000e-06	2.007344e-06	5.372523e-10	1.396264e+01	3.570730e+01
2.290000e-06	2.051053e-06	5.516988e-10	1.426667e+01	3.711943e+01
2.300000e-06	2.094742e-06	5.676934e-10	1.457056e+01	3.849969e+01
2.310000e-06	2.138365e-06	5.851816e-10	1.487399e+01	3.984742e+01
2.320000e-06	2.181943e-06	6.041659e-10	1.517711e+01	4.116209e+01
2.330000e-06	2.225462e-06	6.221453e-10	1.547982e+01	4.244327e+01
2.340000e-06	2.268846e-06	6.404605e-10	1.578159e+01	4.369064e+01
2.350000e-06	2.312009e-06	6.589181e-10	1.608183e+01	4.490399e+01
2.360000e-06	2.354966e-06	6.754465e-10	1.638062e+01	4.608319e+01
2.370000e-06	2.397702e-06	6.892003e-10	1.667788e+01	4.722822e+01
2.380000e-06	2.440043e-06	7.006191e-10	1.697240e+01	4.833915e+01
2.390000e-06	2.481992e-06	7.126599e-10	1.726419e+01	4.941610e+01
2.400000e-06	2.523594e-06	7.253617e-10	1.755356e+01	5.045928e+01
2.410000e-06	2.564748e-06	7.392207e-10	1.783982e+01	5.146898e+01
2.420000e-06	2.605622e-06	7.530298e-10	1.812413e+01	5.244550e+01
2.430000e-06	2.646328e-06	7.648230e-10	1.840727e+01	5.338923e+01
2.440000e-06	2.686752e-06	7.740418e-10	1.868845e+01	5.430058e+01
2.450000e-06	2.726953e-06	7.812538e-10	1.896808e+01	5.518000e+01
2.460000e-06	2.766997e-06	7.903788e-10	1.924662e+01	5.602797e+01
2.470000e-06	2.806926e-06	8.013429e-10	1.952436e+01	5.684500e+01
2.480000e-06	2.846754e-06	8.112279e-10	1.980139e+01	5.763159e+01
2.490000e-06	2.886468e-06	8.217376e-10	2.007763e+01	5.838828e+01
2.500000e-06	2.926078e-06	8.325559e-10	2.035315e+01	5.911561e+01
2.510000e-06	2.965528e-06	8.434025e-10	2.062756e+01	5.981413e+01
2.520000e-06	3.004841e-06	8.537942e-10	2.090101e+01	6.048437e+01
2.530000e-06	3.043987e-06	8.624302e-10	2.117330e+01	6.112689e+01
2.540000e-06	3.082793e-06	8.699567e-10	2.144323e+01	6.174224e+01
2.550000e-06	3.121325e-06	8.758760e-10	2.171125e+01	6.233097e+01
2.560000e-06	3.159643e-06	8.819065e-10	2.197778e+01	6.289363e+01
2.570000e-06	3.197712e-06	8.892197e-10	2.224258e+01	6.343078e+01
2.580000e-06	3.235587e-06	8.990373e-10	2.250603e+01	6.394298e+01
2.590000e-06	3.273270e-06	9.073661e-10	2.276814e+01	6.443080e+01
2.600000e-06	3.310781e-06	9.121888e-10	2.302906e+01	6.489481e+01
2.610000e-06	3.348103e-06	9.165053e-10	2.328867e+01	6.533561e+01
2.620000e-06	3.385190e-06	9.208681e-10	2.354663e+01	6.575380e+01
2.630000e-06	3.422048e-06	9.265003e-10	2.380301e+01	6.615001e+01
2.640000e-06	3.458645e-06	9.337747e-10	2.405757e+01	6.652488e+01
2.650000e-06	3.494906e-06	9.414596e-10	2.430979e+01	6.687908e+01
2.660000e-06	3.530918e-06	9.484172e-10	2.456029e+01	6.721330e+01
2.670000e-06	3.566751e-06	9.540647e-10	2.480953e+01	6.752826e+01
2.680000e-06	3.602439e-06	9.578544e-10	2.505777e+01	6.782471e+01
2.690000e-06	3.638081e-06	9.591880e-10	2.530568e+01	6.810342e+01
2.700000e-06	3.673632e-06	9.605020e-10	2.555297e+01	6.836520e+01
2.710000e-06	3.708941e-06	9.644158e-10	2.579857e+01	6.861086e+01
2.720000e-06	3.743926e-06	9.707656e-10	2.604192e+01	6.884127e+01
2.730000e-06	3.778607e-06	9.786264e-10	2.628316e+01	6.905728e+01
2.740000e-06	3.812913e-06	9.856781e-10	2.652178e+01	6.925978e+01
2.750000e-06	3.846766e-06	9.889405e-10	2.675726e+01	6.944966e+01
2.760000e-06	3.880063e-06	9.895407e-10	2.698886e+01	6.962783e+01
2.770000e-06	3.912773e-06	9.896144e-10	2.721639e+01	6.979519e+01
2.780000e-06	3.945059e-06	9.910949e-10	2.744096e+01	6.995262e+01
2.790000e-06	3.977116e-06	9.968387e-10	2.766394e+01	7.010102e+01
2.800000e-06	4.009024e-06	1.004238e-09	2.788588e+01	7.024123e+01
2.810000e-06	4.040776e-06	1.009409e-09	2.810674e+01	7.037408e+01
2.820000e-06	4.072367e-06	1.011868e-09	2.832648e+01	7.050037e+01
2.830000e-06	4.103812e-06	1.014168e-09	2.854521e+01	7.062084e+01
2.840000e-06	4.135072e-06	1.014583e-09	2.876264e+01	7.073621e+01
2.850000e-06	4.166008e-06	1.011482e-09	2.897783e+01	7.084711e+01
2.860000e-06	4.196577e-06	1.009486e-09	2.919046e+01	7.095413e+01
2.870000e-06	4.226825e-06	1.011984e-09	2.940086e+01	7.105778e+01
2.880000e-06	4.256762e-06	1.016628e-09	2.960909e+01	7.115852e+01
2.890000e-06	4.286422e-06	1.021467e-09	2.981540e+01	7.125671e+01
2.900000e-06	4.315844e-06	1.023531e-09	3.002006e+01	7.135267e+01
