# Temperatura_=_15.2
# Concentracion g/m^3_=_1620.0
# C_Vs_to_Am_M_A/Vsm_=_65563218390.804596
# pendiente_HvsI_1/m_=_3716.3
# ordenada_HvsI_A/m_=_1297.0
# frecuencia_Hz_=_135092.37254513503

Tiempo_(s)	Campo_(V.s)	Magnetizacion_(V.s)	Campo_(kA/m)	Magnetizacion_(A/m)
0.000000e+00	-5.535799e-06	-1.636053e-09	-3.837816e+01	-1.063582e+02
1.000000e-08	-5.535947e-06	-1.634615e-09	-3.837919e+01	-1.062884e+02
2.000000e-08	-5.535893e-06	-1.631074e-09	-3.837881e+01	-1.062216e+02
3.000000e-08	-5.535561e-06	-1.627225e-09	-3.837652e+01	-1.061584e+02
4.000000e-08	-5.534729e-06	-1.625810e-09	-3.837075e+01	-1.060993e+02
5.000000e-08	-5.533213e-06	-1.621495e-09	-3.836023e+01	-1.060450e+02
6.000000e-08	-5.531018e-06	-1.614360e-09	-3.834502e+01	-1.059959e+02
7.000000e-08	-5.528188e-06	-1.595961e-09	-3.832540e+01	-1.059521e+02
8.000000e-08	-5.524874e-06	-1.604703e-09	-3.830243e+01	-1.059139e+02
9.000000e-08	-5.521227e-06	-1.669209e-09	-3.827714e+01	-1.058813e+02
1.000000e-07	-5.517142e-06	-1.732359e-09	-3.824882e+01	-1.058541e+02
1.100000e-07	-5.512627e-06	-1.626399e-09	-3.821752e+01	-1.058322e+02
1.200000e-07	-5.507996e-06	-1.506068e-09	-3.818541e+01	-1.058151e+02
1.300000e-07	-5.503157e-06	-1.531848e-09	-3.815186e+01	-1.058023e+02
1.400000e-07	-5.497839e-06	-1.677960e-09	-3.811500e+01	-1.057931e+02
1.500000e-07	-5.492104e-06	-1.648793e-09	-3.807524e+01	-1.057867e+02
1.600000e-07	-5.486097e-06	-1.534131e-09	-3.803360e+01	-1.057824e+02
1.700000e-07	-5.479745e-06	-1.529288e-09	-3.798955e+01	-1.057790e+02
1.800000e-07	-5.472792e-06	-1.702814e-09	-3.794135e+01	-1.057756e+02
1.900000e-07	-5.465394e-06	-1.694399e-09	-3.789007e+01	-1.057710e+02
2.000000e-07	-5.457823e-06	-1.582087e-09	-3.783758e+01	-1.057640e+02
2.100000e-07	-5.450030e-06	-1.534553e-09	-3.778355e+01	-1.057535e+02
2.200000e-07	-5.441966e-06	-1.645430e-09	-3.772765e+01	-1.057382e+02
2.300000e-07	-5.433677e-06	-1.676140e-09	-3.767018e+01	-1.057170e+02
2.400000e-07	-5.425085e-06	-1.596325e-09	-3.761062e+01	-1.056888e+02
2.500000e-07	-5.415819e-06	-1.570547e-09	-3.754638e+01	-1.056524e+02
2.600000e-07	-5.405717e-06	-1.611498e-09	-3.747634e+01	-1.056068e+02
2.700000e-07	-5.394956e-06	-1.631245e-09	-3.740174e+01	-1.055513e+02
2.800000e-07	-5.383652e-06	-1.567390e-09	-3.732337e+01	-1.054848e+02
2.900000e-07	-5.371854e-06	-1.575176e-09	-3.724158e+01	-1.054068e+02
3.000000e-07	-5.359737e-06	-1.606576e-09	-3.715757e+01	-1.053167e+02
3.100000e-07	-5.347365e-06	-1.633408e-09	-3.707181e+01	-1.052141e+02
3.200000e-07	-5.334537e-06	-1.557536e-09	-3.698287e+01	-1.050987e+02
3.300000e-07	-5.321199e-06	-1.573854e-09	-3.689040e+01	-1.049706e+02
3.400000e-07	-5.307497e-06	-1.600585e-09	-3.679541e+01	-1.048296e+02
3.500000e-07	-5.293457e-06	-1.622089e-09	-3.669807e+01	-1.046760e+02
3.600000e-07	-5.278937e-06	-1.547399e-09	-3.659741e+01	-1.045102e+02
3.700000e-07	-5.263977e-06	-1.573512e-09	-3.649370e+01	-1.043327e+02
3.800000e-07	-5.248636e-06	-1.591631e-09	-3.638734e+01	-1.041441e+02
3.900000e-07	-5.232634e-06	-1.566723e-09	-3.627641e+01	-1.039452e+02
4.000000e-07	-5.215986e-06	-1.533522e-09	-3.616099e+01	-1.037368e+02
4.100000e-07	-5.199049e-06	-1.596954e-09	-3.604357e+01	-1.035198e+02
4.200000e-07	-5.181892e-06	-1.583986e-09	-3.592463e+01	-1.032954e+02
4.300000e-07	-5.164419e-06	-1.519278e-09	-3.580349e+01	-1.030645e+02
4.400000e-07	-5.146683e-06	-1.548791e-09	-3.568053e+01	-1.028284e+02
4.500000e-07	-5.128629e-06	-1.606469e-09	-3.555537e+01	-1.025880e+02
4.600000e-07	-5.110025e-06	-1.535140e-09	-3.542639e+01	-1.023445e+02
4.700000e-07	-5.090953e-06	-1.495809e-09	-3.529417e+01	-1.020990e+02
4.800000e-07	-5.071599e-06	-1.560369e-09	-3.515999e+01	-1.018526e+02
4.900000e-07	-5.052037e-06	-1.553911e-09	-3.502438e+01	-1.016063e+02
5.000000e-07	-5.032275e-06	-1.506160e-09	-3.488737e+01	-1.013609e+02
5.100000e-07	-5.012229e-06	-1.546900e-09	-3.474840e+01	-1.011173e+02
5.200000e-07	-4.991920e-06	-1.562855e-09	-3.460760e+01	-1.008762e+02
5.300000e-07	-4.971350e-06	-1.493852e-09	-3.446500e+01	-1.006383e+02
5.400000e-07	-4.950354e-06	-1.518819e-09	-3.431944e+01	-1.004039e+02
5.500000e-07	-4.929005e-06	-1.564316e-09	-3.417143e+01	-1.001735e+02
5.600000e-07	-4.907368e-06	-1.508264e-09	-3.402143e+01	-9.994738e+01
5.700000e-07	-4.885339e-06	-1.467052e-09	-3.386871e+01	-9.972552e+01
5.800000e-07	-4.862876e-06	-1.529493e-09	-3.371298e+01	-9.950795e+01
5.900000e-07	-4.840065e-06	-1.520616e-09	-3.355483e+01	-9.929453e+01
6.000000e-07	-4.817002e-06	-1.485124e-09	-3.339495e+01	-9.908498e+01
6.100000e-07	-4.793554e-06	-1.509359e-09	-3.323238e+01	-9.887893e+01
6.200000e-07	-4.769791e-06	-1.526139e-09	-3.306765e+01	-9.867591e+01
6.300000e-07	-4.745903e-06	-1.476259e-09	-3.290203e+01	-9.847536e+01
6.400000e-07	-4.721848e-06	-1.482223e-09	-3.273527e+01	-9.827665e+01
6.500000e-07	-4.697458e-06	-1.492311e-09	-3.256618e+01	-9.807908e+01
6.600000e-07	-4.672523e-06	-1.474435e-09	-3.239331e+01	-9.788191e+01
6.700000e-07	-4.647014e-06	-1.466414e-09	-3.221646e+01	-9.768437e+01
6.800000e-07	-4.621047e-06	-1.486500e-09	-3.203644e+01	-9.748565e+01
6.900000e-07	-4.594476e-06	-1.466216e-09	-3.185223e+01	-9.728498e+01
7.000000e-07	-4.567337e-06	-1.459338e-09	-3.166409e+01	-9.708156e+01
7.100000e-07	-4.539973e-06	-1.466232e-09	-3.147438e+01	-9.687463e+01
7.200000e-07	-4.512416e-06	-1.457952e-09	-3.128333e+01	-9.666347e+01
7.300000e-07	-4.484628e-06	-1.440988e-09	-3.109069e+01	-9.644740e+01
7.400000e-07	-4.456647e-06	-1.451494e-09	-3.089670e+01	-9.622580e+01
7.500000e-07	-4.428433e-06	-1.448262e-09	-3.070111e+01	-9.599811e+01
7.600000e-07	-4.400037e-06	-1.434891e-09	-3.050424e+01	-9.576384e+01
7.700000e-07	-4.371330e-06	-1.432007e-09	-3.030522e+01	-9.552257e+01
7.800000e-07	-4.342228e-06	-1.426284e-09	-3.010347e+01	-9.527397e+01
7.900000e-07	-4.312848e-06	-1.414828e-09	-2.989978e+01	-9.501778e+01
8.000000e-07	-4.283108e-06	-1.418246e-09	-2.969361e+01	-9.475381e+01
8.100000e-07	-4.252988e-06	-1.420094e-09	-2.948479e+01	-9.448197e+01
8.200000e-07	-4.222628e-06	-1.398108e-09	-2.927431e+01	-9.420220e+01
8.300000e-07	-4.192113e-06	-1.390112e-09	-2.906276e+01	-9.391456e+01
8.400000e-07	-4.161327e-06	-1.393225e-09	-2.884933e+01	-9.361914e+01
8.500000e-07	-4.130162e-06	-1.386683e-09	-2.863327e+01	-9.331608e+01
8.600000e-07	-4.098708e-06	-1.372820e-09	-2.841521e+01	-9.300561e+01
8.700000e-07	-4.067082e-06	-1.376426e-09	-2.819596e+01	-9.268795e+01
8.800000e-07	-4.035293e-06	-1.367516e-09	-2.797557e+01	-9.236339e+01
8.900000e-07	-4.003350e-06	-1.357110e-09	-2.775412e+01	-9.203224e+01
9.000000e-07	-3.971191e-06	-1.354385e-09	-2.753117e+01	-9.169482e+01
9.100000e-07	-3.938741e-06	-1.354817e-09	-2.730620e+01	-9.135147e+01
9.200000e-07	-3.905941e-06	-1.338927e-09	-2.707881e+01	-9.100254e+01
9.300000e-07	-3.872771e-06	-1.338677e-09	-2.684885e+01	-9.064835e+01
9.400000e-07	-3.839235e-06	-1.341899e-09	-2.661635e+01	-9.028926e+01
9.500000e-07	-3.805136e-06	-1.337196e-09	-2.637996e+01	-8.992557e+01
9.600000e-07	-3.770458e-06	-1.322936e-09	-2.613954e+01	-8.955760e+01
9.700000e-07	-3.735352e-06	-1.319067e-09	-2.589616e+01	-8.918563e+01
9.800000e-07	-3.699923e-06	-1.306032e-09	-2.565055e+01	-8.880994e+01
9.900000e-07	-3.664323e-06	-1.292524e-09	-2.540374e+01	-8.843077e+01
1.000000e-06	-3.628589e-06	-1.287174e-09	-2.515601e+01	-8.804835e+01
1.010000e-06	-3.592750e-06	-1.287581e-09	-2.490754e+01	-8.766286e+01
1.020000e-06	-3.556783e-06	-1.280907e-09	-2.465819e+01	-8.727449e+01
1.030000e-06	-3.520649e-06	-1.279077e-09	-2.440769e+01	-8.688340e+01
1.040000e-06	-3.484298e-06	-1.277578e-09	-2.415567e+01	-8.648973e+01
1.050000e-06	-3.447754e-06	-1.266080e-09	-2.390233e+01	-8.609358e+01
1.060000e-06	-3.410931e-06	-1.252619e-09	-2.364704e+01	-8.569506e+01
1.070000e-06	-3.373763e-06	-1.246102e-09	-2.338937e+01	-8.529427e+01
1.080000e-06	-3.336326e-06	-1.239358e-09	-2.312982e+01	-8.489127e+01
1.090000e-06	-3.298650e-06	-1.231483e-09	-2.286863e+01	-8.448612e+01
1.100000e-06	-3.260720e-06	-1.231061e-09	-2.260567e+01	-8.407888e+01
1.110000e-06	-3.222568e-06	-1.228839e-09	-2.234118e+01	-8.366959e+01
1.120000e-06	-3.184268e-06	-1.220761e-09	-2.207565e+01	-8.325828e+01
1.130000e-06	-3.145726e-06	-1.212502e-09	-2.180845e+01	-8.284498e+01
1.140000e-06	-3.106845e-06	-1.208936e-09	-2.153890e+01	-8.242970e+01
1.150000e-06	-3.067741e-06	-1.200932e-09	-2.126780e+01	-8.201243e+01
1.160000e-06	-3.028430e-06	-1.193126e-09	-2.099527e+01	-8.159316e+01
1.170000e-06	-2.988983e-06	-1.183826e-09	-2.072179e+01	-8.117187e+01
1.180000e-06	-2.949486e-06	-1.178123e-09	-2.044797e+01	-8.074850e+01
1.190000e-06	-2.909823e-06	-1.171629e-09	-2.017300e+01	-8.032299e+01
1.200000e-06	-2.870026e-06	-1.168909e-09	-1.989710e+01	-7.989524e+01
1.210000e-06	-2.830149e-06	-1.162663e-09	-1.962064e+01	-7.946512e+01
1.220000e-06	-2.790105e-06	-1.157552e-09	-1.934303e+01	-7.903248e+01
1.230000e-06	-2.749867e-06	-1.152613e-09	-1.906407e+01	-7.859714e+01
1.240000e-06	-2.709433e-06	-1.146808e-09	-1.878375e+01	-7.815886e+01
1.250000e-06	-2.668744e-06	-1.136912e-09	-1.850166e+01	-7.771738e+01
1.260000e-06	-2.627840e-06	-1.129592e-09	-1.821809e+01	-7.727240e+01
1.270000e-06	-2.586693e-06	-1.122226e-09	-1.793282e+01	-7.682357e+01
1.280000e-06	-2.545295e-06	-1.113909e-09	-1.764583e+01	-7.637049e+01
1.290000e-06	-2.503609e-06	-1.103974e-09	-1.735683e+01	-7.591273e+01
1.300000e-06	-2.461583e-06	-1.097820e-09	-1.706548e+01	-7.544981e+01
1.310000e-06	-2.419212e-06	-1.089929e-09	-1.677173e+01	-7.498122e+01
1.320000e-06	-2.376547e-06	-1.079738e-09	-1.647595e+01	-7.450639e+01
1.330000e-06	-2.333715e-06	-1.070000e-09	-1.617900e+01	-7.402473e+01
1.340000e-06	-2.290625e-06	-1.061755e-09	-1.588027e+01	-7.353563e+01
1.350000e-06	-2.247252e-06	-1.053492e-09	-1.557958e+01	-7.303844e+01
1.360000e-06	-2.203732e-06	-1.046238e-09	-1.527786e+01	-7.253249e+01
1.370000e-06	-2.160081e-06	-1.038332e-09	-1.497524e+01	-7.201709e+01
1.380000e-06	-2.116347e-06	-1.027735e-09	-1.467205e+01	-7.149156e+01
1.390000e-06	-2.072532e-06	-1.017004e-09	-1.436829e+01	-7.095519e+01
1.400000e-06	-2.028624e-06	-1.007435e-09	-1.406389e+01	-7.040730e+01
1.410000e-06	-1.984621e-06	-9.979451e-10	-1.375883e+01	-6.984719e+01
1.420000e-06	-1.940587e-06	-9.856160e-10	-1.345355e+01	-6.927421e+01
1.430000e-06	-1.896493e-06	-9.767843e-10	-1.314786e+01	-6.868770e+01
1.440000e-06	-1.852253e-06	-9.684278e-10	-1.284116e+01	-6.808703e+01
1.450000e-06	-1.808007e-06	-9.566351e-10	-1.253441e+01	-6.747162e+01
1.460000e-06	-1.763652e-06	-9.432280e-10	-1.222691e+01	-6.684090e+01
1.470000e-06	-1.719031e-06	-9.301222e-10	-1.191757e+01	-6.619434e+01
1.480000e-06	-1.674204e-06	-9.149634e-10	-1.160679e+01	-6.553143e+01
1.490000e-06	-1.629241e-06	-8.999043e-10	-1.129507e+01	-6.485172e+01
1.500000e-06	-1.584183e-06	-8.864466e-10	-1.098271e+01	-6.415478e+01
1.510000e-06	-1.539086e-06	-8.758791e-10	-1.067006e+01	-6.344020e+01
1.520000e-06	-1.493871e-06	-8.639226e-10	-1.035660e+01	-6.270762e+01
1.530000e-06	-1.448449e-06	-8.527859e-10	-1.004169e+01	-6.195668e+01
1.540000e-06	-1.402852e-06	-8.387980e-10	-9.725588e+00	-6.118705e+01
1.550000e-06	-1.357257e-06	-8.228002e-10	-9.409485e+00	-6.039840e+01
1.560000e-06	-1.311674e-06	-8.062798e-10	-9.093471e+00	-5.959040e+01
1.570000e-06	-1.265939e-06	-7.932753e-10	-8.776405e+00	-5.876274e+01
1.580000e-06	-1.220081e-06	-7.789602e-10	-8.458487e+00	-5.791507e+01
1.590000e-06	-1.174114e-06	-7.644281e-10	-8.139806e+00	-5.704703e+01
1.600000e-06	-1.128120e-06	-7.531454e-10	-7.820943e+00	-5.615824e+01
1.610000e-06	-1.082057e-06	-7.431406e-10	-7.501601e+00	-5.524827e+01
1.620000e-06	-1.035921e-06	-7.315086e-10	-7.181754e+00	-5.431667e+01
1.630000e-06	-9.898187e-07	-7.189797e-10	-6.862139e+00	-5.336291e+01
1.640000e-06	-9.435477e-07	-7.053128e-10	-6.541356e+00	-5.238643e+01
1.650000e-06	-8.971178e-07	-6.873489e-10	-6.219470e+00	-5.138662e+01
1.660000e-06	-8.507356e-07	-6.679706e-10	-5.897915e+00	-5.036281e+01
1.670000e-06	-8.043366e-07	-6.478938e-10	-5.576243e+00	-4.931425e+01
1.680000e-06	-7.578972e-07	-6.298212e-10	-5.254292e+00	-4.824015e+01
1.690000e-06	-7.114112e-07	-6.135912e-10	-4.932017e+00	-4.713968e+01
1.700000e-06	-6.648087e-07	-5.970127e-10	-4.608935e+00	-4.601193e+01
1.710000e-06	-6.180540e-07	-5.804857e-10	-4.284798e+00	-4.485597e+01
1.720000e-06	-5.712116e-07	-5.643419e-10	-3.960052e+00	-4.367084e+01
1.730000e-06	-5.243982e-07	-5.462704e-10	-3.635508e+00	-4.245554e+01
1.740000e-06	-4.776780e-07	-5.273715e-10	-3.311610e+00	-4.120906e+01
1.750000e-06	-4.308861e-07	-5.072409e-10	-2.987214e+00	-3.993041e+01
1.760000e-06	-3.839890e-07	-4.857840e-10	-2.662090e+00	-3.861860e+01
1.770000e-06	-3.371724e-07	-4.649367e-10	-2.337523e+00	-3.727269e+01
1.780000e-06	-2.903576e-07	-4.451504e-10	-2.012969e+00	-3.589176e+01
1.790000e-06	-2.434393e-07	-4.258457e-10	-1.687697e+00	-3.447499e+01
1.800000e-06	-1.964465e-07	-4.073509e-10	-1.361909e+00	-3.302161e+01
1.810000e-06	-1.494309e-07	-3.867654e-10	-1.035963e+00	-3.153099e+01
1.820000e-06	-1.023132e-07	-3.650618e-10	-7.093094e-01	-3.000259e+01
1.830000e-06	-5.524482e-08	-3.419753e-10	-3.829970e-01	-2.843601e+01
1.840000e-06	-8.340064e-09	-3.184123e-10	-5.781936e-02	-2.683101e+01
1.850000e-06	3.847848e-08	-2.961503e-10	2.667607e-01	-2.518750e+01
1.860000e-06	8.529464e-08	-2.734091e-10	5.913242e-01	-2.350559e+01
1.870000e-06	1.322570e-07	-2.477323e-10	9.169010e-01	-2.178556e+01
1.880000e-06	1.792534e-07	-2.212717e-10	1.242714e+00	-2.002789e+01
1.890000e-06	2.261168e-07	-1.932325e-10	1.567605e+00	-1.823327e+01
1.900000e-06	2.729161e-07	-1.637344e-10	1.892052e+00	-1.640260e+01
1.910000e-06	3.197638e-07	-1.358452e-10	2.216834e+00	-1.453699e+01
1.920000e-06	3.666746e-07	-1.099641e-10	2.542054e+00	-1.263775e+01
1.930000e-06	4.135969e-07	-8.373393e-11	2.867353e+00	-1.070641e+01
1.940000e-06	4.604718e-07	-5.698007e-11	3.192324e+00	-8.744697e+00
1.950000e-06	5.072016e-07	-2.914720e-11	3.516289e+00	-6.754539e+00
1.960000e-06	5.538369e-07	-1.231525e-12	3.839598e+00	-4.738038e+00
1.970000e-06	6.004622e-07	2.611842e-11	4.162838e+00	-2.697472e+00
1.980000e-06	6.470362e-07	5.409600e-11	4.485723e+00	-6.352730e-01
1.990000e-06	6.935534e-07	8.227721e-11	4.808214e+00	1.445986e+00
2.000000e-06	7.399450e-07	1.119552e-10	5.129835e+00	3.543610e+00
2.010000e-06	7.862887e-07	1.425652e-10	5.451122e+00	5.654805e+00
2.020000e-06	8.326636e-07	1.726490e-10	5.772627e+00	7.776693e+00
2.030000e-06	8.790648e-07	2.035637e-10	6.094313e+00	9.906337e+00
2.040000e-06	9.254201e-07	2.358863e-10	6.415682e+00	1.204076e+01
2.050000e-06	9.716364e-07	2.663343e-10	6.736086e+00	1.417698e+01
2.060000e-06	1.017765e-06	2.957010e-10	7.055882e+00	1.631200e+01
2.070000e-06	1.063828e-06	3.262863e-10	7.375224e+00	1.844286e+01
2.080000e-06	1.109784e-06	3.578436e-10	7.693828e+00	2.056665e+01
2.090000e-06	1.155724e-06	3.890080e-10	8.012318e+00	2.268053e+01
2.100000e-06	1.201600e-06	4.202425e-10	8.330362e+00	2.478174e+01
2.110000e-06	1.247326e-06	4.514503e-10	8.647370e+00	2.686761e+01
2.120000e-06	1.293011e-06	4.814705e-10	8.964087e+00	2.893559e+01
2.130000e-06	1.338630e-06	5.093655e-10	9.280351e+00	3.098329e+01
2.140000e-06	1.384150e-06	5.352970e-10	9.595927e+00	3.300841e+01
2.150000e-06	1.429539e-06	5.594769e-10	9.910600e+00	3.500885e+01
2.160000e-06	1.474823e-06	5.847139e-10	1.022454e+01	3.698263e+01
2.170000e-06	1.520086e-06	6.117752e-10	1.053833e+01	3.892795e+01
2.180000e-06	1.565219e-06	6.413553e-10	1.085123e+01	4.084317e+01
2.190000e-06	1.610121e-06	6.711633e-10	1.116252e+01	4.272683e+01
2.200000e-06	1.654960e-06	7.013123e-10	1.147338e+01	4.457763e+01
2.210000e-06	1.699746e-06	7.302402e-10	1.178387e+01	4.639442e+01
2.220000e-06	1.744358e-06	7.548580e-10	1.209315e+01	4.817623e+01
2.230000e-06	1.788845e-06	7.769885e-10	1.240157e+01	4.992224e+01
2.240000e-06	1.833206e-06	7.976645e-10	1.270911e+01	5.163178e+01
2.250000e-06	1.877414e-06	8.166249e-10	1.301559e+01	5.330431e+01
2.260000e-06	1.921460e-06	8.366293e-10	1.332095e+01	5.493945e+01
2.270000e-06	1.965367e-06	8.604923e-10	1.362534e+01	5.653692e+01
2.280000e-06	2.009209e-06	8.862312e-10	1.392929e+01	5.809656e+01
2.290000e-06	2.053052e-06	9.096466e-10	1.423324e+01	5.961833e+01
2.300000e-06	2.096840e-06	9.289625e-10	1.453681e+01	6.110227e+01
2.310000e-06	2.140532e-06	9.456422e-10	1.483972e+01	6.254851e+01
2.320000e-06	2.184186e-06	9.619986e-10	1.514236e+01	6.395725e+01
2.330000e-06	2.227783e-06	9.775031e-10	1.544460e+01	6.532877e+01
2.340000e-06	2.271231e-06	9.957494e-10	1.574582e+01	6.666341e+01
2.350000e-06	2.314465e-06	1.018598e-09	1.604555e+01	6.796155e+01
2.360000e-06	2.357539e-06	1.040152e-09	1.634417e+01	6.922361e+01
2.370000e-06	2.400369e-06	1.059659e-09	1.664110e+01	7.045005e+01
2.380000e-06	2.442786e-06	1.072225e-09	1.693516e+01	7.164139e+01
2.390000e-06	2.484909e-06	1.082427e-09	1.722719e+01	7.279812e+01
2.400000e-06	2.526666e-06	1.093993e-09	1.751667e+01	7.392081e+01
2.410000e-06	2.568066e-06	1.111190e-09	1.780369e+01	7.501000e+01
2.420000e-06	2.609283e-06	1.126573e-09	1.808944e+01	7.606627e+01
2.430000e-06	2.650208e-06	1.137763e-09	1.837316e+01	7.709020e+01
2.440000e-06	2.690796e-06	1.148923e-09	1.865454e+01	7.808240e+01
2.450000e-06	2.731142e-06	1.157811e-09	1.893425e+01	7.904348e+01
2.460000e-06	2.771321e-06	1.165879e-09	1.921280e+01	7.997404e+01
2.470000e-06	2.811348e-06	1.175780e-09	1.949030e+01	8.087472e+01
2.480000e-06	2.851261e-06	1.189214e-09	1.976701e+01	8.174614e+01
2.490000e-06	2.891073e-06	1.203397e-09	2.004301e+01	8.258897e+01
2.500000e-06	2.930727e-06	1.214866e-09	2.031792e+01	8.340383e+01
2.510000e-06	2.970232e-06	1.225437e-09	2.059180e+01	8.419141e+01
2.520000e-06	3.009645e-06	1.235817e-09	2.086503e+01	8.495236e+01
2.530000e-06	3.048904e-06	1.241836e-09	2.113721e+01	8.568738e+01
2.540000e-06	3.087864e-06	1.246602e-09	2.140730e+01	8.639715e+01
2.550000e-06	3.126669e-06	1.252855e-09	2.167633e+01	8.708239e+01
2.560000e-06	3.165213e-06	1.263308e-09	2.194355e+01	8.774381e+01
2.570000e-06	3.203430e-06	1.273768e-09	2.220849e+01	8.838213e+01
2.580000e-06	3.241477e-06	1.284181e-09	2.247227e+01	8.899809e+01
2.590000e-06	3.279326e-06	1.293311e-09	2.273466e+01	8.959244e+01
2.600000e-06	3.317005e-06	1.300560e-09	2.299588e+01	9.016593e+01
2.610000e-06	3.354476e-06	1.308065e-09	2.325566e+01	9.071933e+01
2.620000e-06	3.391668e-06	1.315035e-09	2.351350e+01	9.125340e+01
2.630000e-06	3.428573e-06	1.321984e-09	2.376935e+01	9.176892e+01
2.640000e-06	3.465267e-06	1.329588e-09	2.402374e+01	9.226667e+01
2.650000e-06	3.501724e-06	1.336022e-09	2.427649e+01	9.274741e+01
2.660000e-06	3.537969e-06	1.342725e-09	2.452776e+01	9.321194e+01
2.670000e-06	3.573993e-06	1.350536e-09	2.477751e+01	9.366102e+01
2.680000e-06	3.609830e-06	1.359343e-09	2.502596e+01	9.409542e+01
2.690000e-06	3.645540e-06	1.367257e-09	2.527352e+01	9.451591e+01
2.700000e-06	3.681155e-06	1.374429e-09	2.552043e+01	9.492324e+01
2.710000e-06	3.716684e-06	1.380992e-09	2.576675e+01	9.531814e+01
2.720000e-06	3.751960e-06	1.387028e-09	2.601130e+01	9.570134e+01
2.730000e-06	3.786826e-06	1.391133e-09	2.625302e+01	9.607356e+01
2.740000e-06	3.821302e-06	1.395917e-09	2.649203e+01	9.643548e+01
2.750000e-06	3.855341e-06	1.400199e-09	2.672801e+01	9.678776e+01
2.760000e-06	3.888774e-06	1.404034e-09	2.695979e+01	9.713105e+01
2.770000e-06	3.921656e-06	1.409053e-09	2.718776e+01	9.746596e+01
2.780000e-06	3.954299e-06	1.416137e-09	2.741406e+01	9.779308e+01
2.790000e-06	3.986674e-06	1.427565e-09	2.763851e+01	9.811296e+01
2.800000e-06	4.018736e-06	1.437536e-09	2.786078e+01	9.842613e+01
2.810000e-06	4.050655e-06	1.442882e-09	2.808207e+01	9.873305e+01
2.820000e-06	4.082422e-06	1.444974e-09	2.830230e+01	9.903417e+01
2.830000e-06	4.113982e-06	1.447480e-09	2.852110e+01	9.932990e+01
2.840000e-06	4.145314e-06	1.450300e-09	2.873832e+01	9.962060e+01
2.850000e-06	4.176463e-06	1.451688e-09	2.895426e+01	9.990657e+01
2.860000e-06	4.207265e-06	1.453062e-09	2.916780e+01	1.001881e+02
2.870000e-06	4.237625e-06	1.457843e-09	2.937828e+01	1.004654e+02
2.880000e-06	4.267690e-06	1.463115e-09	2.958671e+01	1.007386e+02
2.890000e-06	4.297506e-06	1.467874e-09	2.979342e+01	1.010079e+02
2.900000e-06	4.327062e-06	1.472063e-09	2.999833e+01	1.012733e+02
