# Temperatura_=_1.14
# Concentracion g/m^3_=_1620.0
# C_Vs_to_Am_M_A/Vsm_=_65563218390.804596
# pendiente_HvsI_1/m_=_3716.3
# ordenada_HvsI_A/m_=_1297.0
# frecuencia_Hz_=_135102.43489582924

Tiempo_(s)	Campo_(V.s)	Magnetizacion_(V.s)	Campo_(kA/m)	Magnetizacion_(A/m)
0.000000e+00	-5.532522e-06	-1.436850e-09	-3.837669e+01	-9.361030e+01
1.000000e-08	-5.532785e-06	-1.435292e-09	-3.837852e+01	-9.354500e+01
2.000000e-08	-5.532799e-06	-1.432658e-09	-3.837861e+01	-9.348297e+01
3.000000e-08	-5.532569e-06	-1.432551e-09	-3.837702e+01	-9.342492e+01
4.000000e-08	-5.532035e-06	-1.433053e-09	-3.837331e+01	-9.337148e+01
5.000000e-08	-5.530968e-06	-1.430250e-09	-3.836592e+01	-9.332318e+01
6.000000e-08	-5.529255e-06	-1.423476e-09	-3.835403e+01	-9.328048e+01
7.000000e-08	-5.527049e-06	-1.417878e-09	-3.833873e+01	-9.324370e+01
8.000000e-08	-5.524293e-06	-1.434848e-09	-3.831961e+01	-9.321306e+01
9.000000e-08	-5.520932e-06	-1.461820e-09	-3.829630e+01	-9.318864e+01
1.000000e-07	-5.517055e-06	-1.431402e-09	-3.826941e+01	-9.317040e+01
1.100000e-07	-5.512810e-06	-1.405846e-09	-3.823996e+01	-9.315818e+01
1.200000e-07	-5.508362e-06	-1.437576e-09	-3.820911e+01	-9.315165e+01
1.300000e-07	-5.503602e-06	-1.418199e-09	-3.817609e+01	-9.315038e+01
1.400000e-07	-5.498473e-06	-1.392257e-09	-3.814051e+01	-9.315381e+01
1.500000e-07	-5.493059e-06	-1.393587e-09	-3.810296e+01	-9.316127e+01
1.600000e-07	-5.487319e-06	-1.447951e-09	-3.806314e+01	-9.317196e+01
1.700000e-07	-5.481059e-06	-1.454794e-09	-3.801972e+01	-9.318500e+01
1.800000e-07	-5.474251e-06	-1.381161e-09	-3.797249e+01	-9.319944e+01
1.900000e-07	-5.467125e-06	-1.409431e-09	-3.792306e+01	-9.321425e+01
2.000000e-07	-5.459753e-06	-1.418729e-09	-3.787192e+01	-9.322836e+01
2.100000e-07	-5.452124e-06	-1.431504e-09	-3.781901e+01	-9.324065e+01
2.200000e-07	-5.444306e-06	-1.394381e-09	-3.776478e+01	-9.325002e+01
2.300000e-07	-5.436269e-06	-1.435117e-09	-3.770903e+01	-9.325535e+01
2.400000e-07	-5.427764e-06	-1.440876e-09	-3.765003e+01	-9.325555e+01
2.500000e-07	-5.418596e-06	-1.431087e-09	-3.758644e+01	-9.324959e+01
2.600000e-07	-5.408698e-06	-1.401658e-09	-3.751778e+01	-9.323647e+01
2.700000e-07	-5.398198e-06	-1.412041e-09	-3.744495e+01	-9.321530e+01
2.800000e-07	-5.387206e-06	-1.419670e-09	-3.736870e+01	-9.318524e+01
2.900000e-07	-5.375744e-06	-1.423500e-09	-3.728919e+01	-9.314559e+01
3.000000e-07	-5.363900e-06	-1.419020e-09	-3.720704e+01	-9.309576e+01
3.100000e-07	-5.351696e-06	-1.407127e-09	-3.712238e+01	-9.303526e+01
3.200000e-07	-5.339121e-06	-1.419825e-09	-3.703515e+01	-9.296376e+01
3.300000e-07	-5.326160e-06	-1.419494e-09	-3.694525e+01	-9.288104e+01
3.400000e-07	-5.312755e-06	-1.414282e-09	-3.685227e+01	-9.278703e+01
3.500000e-07	-5.298931e-06	-1.377689e-09	-3.675638e+01	-9.268181e+01
3.600000e-07	-5.284695e-06	-1.414693e-09	-3.665763e+01	-9.256556e+01
3.700000e-07	-5.270006e-06	-1.417345e-09	-3.655574e+01	-9.243862e+01
3.800000e-07	-5.254742e-06	-1.388107e-09	-3.644985e+01	-9.230143e+01
3.900000e-07	-5.238943e-06	-1.378555e-09	-3.634026e+01	-9.215456e+01
4.000000e-07	-5.222844e-06	-1.433814e-09	-3.622860e+01	-9.199865e+01
4.100000e-07	-5.206346e-06	-1.382646e-09	-3.611415e+01	-9.183447e+01
4.200000e-07	-5.189464e-06	-1.348411e-09	-3.599705e+01	-9.166282e+01
4.300000e-07	-5.172323e-06	-1.402989e-09	-3.587815e+01	-9.148460e+01
4.400000e-07	-5.154864e-06	-1.420769e-09	-3.575704e+01	-9.130071e+01
4.500000e-07	-5.136921e-06	-1.329111e-09	-3.563259e+01	-9.111211e+01
4.600000e-07	-5.118554e-06	-1.363091e-09	-3.550518e+01	-9.091975e+01
4.700000e-07	-5.099869e-06	-1.421629e-09	-3.537557e+01	-9.072459e+01
4.800000e-07	-5.080715e-06	-1.353158e-09	-3.524270e+01	-9.052757e+01
4.900000e-07	-5.061172e-06	-1.316234e-09	-3.510715e+01	-9.032958e+01
5.000000e-07	-5.041495e-06	-1.408157e-09	-3.497066e+01	-9.013146e+01
5.100000e-07	-5.021698e-06	-1.380915e-09	-3.483333e+01	-8.993402e+01
5.200000e-07	-5.001582e-06	-1.311444e-09	-3.469379e+01	-8.973796e+01
5.300000e-07	-4.981096e-06	-1.376992e-09	-3.455169e+01	-8.954393e+01
5.400000e-07	-4.960269e-06	-1.403506e-09	-3.440722e+01	-8.935248e+01
5.500000e-07	-4.938997e-06	-1.313052e-09	-3.425967e+01	-8.916407e+01
5.600000e-07	-4.917419e-06	-1.334552e-09	-3.410999e+01	-8.897906e+01
5.700000e-07	-4.895601e-06	-1.393328e-09	-3.395865e+01	-8.879773e+01
5.800000e-07	-4.873380e-06	-1.324423e-09	-3.380451e+01	-8.862023e+01
5.900000e-07	-4.850754e-06	-1.306564e-09	-3.364757e+01	-8.844666e+01
6.000000e-07	-4.827789e-06	-1.376551e-09	-3.348827e+01	-8.827699e+01
6.100000e-07	-4.804556e-06	-1.351040e-09	-3.332711e+01	-8.811112e+01
6.200000e-07	-4.781078e-06	-1.299626e-09	-3.316426e+01	-8.794888e+01
6.300000e-07	-4.757361e-06	-1.349584e-09	-3.299974e+01	-8.779001e+01
6.400000e-07	-4.733418e-06	-1.349573e-09	-3.283366e+01	-8.763420e+01
6.500000e-07	-4.709071e-06	-1.302468e-09	-3.266477e+01	-8.748108e+01
6.600000e-07	-4.684327e-06	-1.318917e-09	-3.249313e+01	-8.733023e+01
6.700000e-07	-4.659231e-06	-1.344754e-09	-3.231905e+01	-8.718122e+01
6.800000e-07	-4.633663e-06	-1.306544e-09	-3.214170e+01	-8.703355e+01
6.900000e-07	-4.607591e-06	-1.312882e-09	-3.196085e+01	-8.688674e+01
7.000000e-07	-4.580951e-06	-1.334542e-09	-3.177606e+01	-8.674030e+01
7.100000e-07	-4.553801e-06	-1.318061e-09	-3.158773e+01	-8.659373e+01
7.200000e-07	-4.526351e-06	-1.302095e-09	-3.139733e+01	-8.644655e+01
7.300000e-07	-4.498698e-06	-1.323978e-09	-3.120551e+01	-8.629827e+01
7.400000e-07	-4.470788e-06	-1.312363e-09	-3.101191e+01	-8.614846e+01
7.500000e-07	-4.442669e-06	-1.299767e-09	-3.081686e+01	-8.599670e+01
7.600000e-07	-4.414387e-06	-1.305044e-09	-3.062068e+01	-8.584258e+01
7.700000e-07	-4.385798e-06	-1.303622e-09	-3.042237e+01	-8.568576e+01
7.800000e-07	-4.356864e-06	-1.286108e-09	-3.022167e+01	-8.552590e+01
7.900000e-07	-4.327653e-06	-1.293455e-09	-3.001904e+01	-8.536272e+01
8.000000e-07	-4.298155e-06	-1.296934e-09	-2.981443e+01	-8.519597e+01
8.100000e-07	-4.268396e-06	-1.286666e-09	-2.960800e+01	-8.502540e+01
8.200000e-07	-4.238372e-06	-1.282306e-09	-2.939974e+01	-8.485085e+01
8.300000e-07	-4.208012e-06	-1.281709e-09	-2.918915e+01	-8.467213e+01
8.400000e-07	-4.177204e-06	-1.264530e-09	-2.897544e+01	-8.448911e+01
8.500000e-07	-4.146138e-06	-1.255949e-09	-2.875995e+01	-8.430166e+01
8.600000e-07	-4.114939e-06	-1.261724e-09	-2.854354e+01	-8.410969e+01
8.700000e-07	-4.083453e-06	-1.254229e-09	-2.832514e+01	-8.391311e+01
8.800000e-07	-4.051766e-06	-1.241783e-09	-2.810533e+01	-8.371183e+01
8.900000e-07	-4.019941e-06	-1.243246e-09	-2.788458e+01	-8.350578e+01
9.000000e-07	-3.987893e-06	-1.243986e-09	-2.766228e+01	-8.329490e+01
9.100000e-07	-3.955615e-06	-1.230361e-09	-2.743838e+01	-8.307911e+01
9.200000e-07	-3.923091e-06	-1.227361e-09	-2.721277e+01	-8.285835e+01
9.300000e-07	-3.890106e-06	-1.226381e-09	-2.698397e+01	-8.263254e+01
9.400000e-07	-3.856596e-06	-1.218215e-09	-2.675153e+01	-8.240161e+01
9.500000e-07	-3.822688e-06	-1.212589e-09	-2.651632e+01	-8.216549e+01
9.600000e-07	-3.788358e-06	-1.218857e-09	-2.627819e+01	-8.192409e+01
9.700000e-07	-3.753513e-06	-1.209379e-09	-2.603648e+01	-8.167733e+01
9.800000e-07	-3.718260e-06	-1.196589e-09	-2.579195e+01	-8.142514e+01
9.900000e-07	-3.682811e-06	-1.189403e-09	-2.554605e+01	-8.116744e+01
1.000000e-06	-3.647207e-06	-1.184479e-09	-2.529908e+01	-8.090416e+01
1.010000e-06	-3.611451e-06	-1.170207e-09	-2.505106e+01	-8.063524e+01
1.020000e-06	-3.575539e-06	-1.172314e-09	-2.480195e+01	-8.036064e+01
1.030000e-06	-3.539563e-06	-1.177543e-09	-2.455241e+01	-8.008031e+01
1.040000e-06	-3.503348e-06	-1.173526e-09	-2.430120e+01	-7.979426e+01
1.050000e-06	-3.466778e-06	-1.164662e-09	-2.404753e+01	-7.950248e+01
1.060000e-06	-3.430051e-06	-1.158662e-09	-2.379277e+01	-7.920502e+01
1.070000e-06	-3.393097e-06	-1.144635e-09	-2.353643e+01	-7.890193e+01
1.080000e-06	-3.355811e-06	-1.133816e-09	-2.327780e+01	-7.859329e+01
1.090000e-06	-3.318222e-06	-1.131954e-09	-2.301706e+01	-7.827924e+01
1.100000e-06	-3.280402e-06	-1.131217e-09	-2.275472e+01	-7.795991e+01
1.110000e-06	-3.242380e-06	-1.126697e-09	-2.249098e+01	-7.763547e+01
1.120000e-06	-3.204175e-06	-1.125205e-09	-2.222596e+01	-7.730613e+01
1.130000e-06	-3.165800e-06	-1.121324e-09	-2.195977e+01	-7.697211e+01
1.140000e-06	-3.127177e-06	-1.111373e-09	-2.169186e+01	-7.663366e+01
1.150000e-06	-3.088320e-06	-1.103906e-09	-2.142233e+01	-7.629104e+01
1.160000e-06	-3.049305e-06	-1.099305e-09	-2.115170e+01	-7.594451e+01
1.170000e-06	-3.010065e-06	-1.089659e-09	-2.087951e+01	-7.559437e+01
1.180000e-06	-2.970531e-06	-1.079199e-09	-2.060528e+01	-7.524089e+01
1.190000e-06	-2.930862e-06	-1.079282e-09	-2.033011e+01	-7.488434e+01
1.200000e-06	-2.891181e-06	-1.079826e-09	-2.005487e+01	-7.452499e+01
1.210000e-06	-2.851403e-06	-1.076730e-09	-1.977894e+01	-7.416306e+01
1.220000e-06	-2.811438e-06	-1.071730e-09	-1.950172e+01	-7.379879e+01
1.230000e-06	-2.771267e-06	-1.068037e-09	-1.922307e+01	-7.343233e+01
1.240000e-06	-2.730938e-06	-1.059648e-09	-1.894333e+01	-7.306384e+01
1.250000e-06	-2.690401e-06	-1.053847e-09	-1.866214e+01	-7.269340e+01
1.260000e-06	-2.649619e-06	-1.048940e-09	-1.837925e+01	-7.232104e+01
1.270000e-06	-2.608599e-06	-1.041988e-09	-1.809471e+01	-7.194676e+01
1.280000e-06	-2.567320e-06	-1.034909e-09	-1.780838e+01	-7.157046e+01
1.290000e-06	-2.525763e-06	-1.031796e-09	-1.752012e+01	-7.119202e+01
1.300000e-06	-2.483983e-06	-1.027318e-09	-1.723031e+01	-7.081121e+01
1.310000e-06	-2.441830e-06	-1.021812e-09	-1.693791e+01	-7.042777e+01
1.320000e-06	-2.399283e-06	-1.013925e-09	-1.664278e+01	-7.004136e+01
1.330000e-06	-2.356557e-06	-1.007265e-09	-1.634641e+01	-6.965156e+01
1.340000e-06	-2.313611e-06	-9.994525e-10	-1.604851e+01	-6.925792e+01
1.350000e-06	-2.270373e-06	-9.930808e-10	-1.574859e+01	-6.885990e+01
1.360000e-06	-2.226928e-06	-9.884572e-10	-1.544723e+01	-6.845694e+01
1.370000e-06	-2.183359e-06	-9.830203e-10	-1.514501e+01	-6.804840e+01
1.380000e-06	-2.139698e-06	-9.740889e-10	-1.484215e+01	-6.763363e+01
1.390000e-06	-2.095935e-06	-9.642580e-10	-1.453859e+01	-6.721191e+01
1.400000e-06	-2.052054e-06	-9.533948e-10	-1.423420e+01	-6.678252e+01
1.410000e-06	-2.008147e-06	-9.435965e-10	-1.392964e+01	-6.634470e+01
1.420000e-06	-1.964220e-06	-9.347223e-10	-1.362494e+01	-6.589771e+01
1.430000e-06	-1.920198e-06	-9.266665e-10	-1.331957e+01	-6.544076e+01
1.440000e-06	-1.876060e-06	-9.210567e-10	-1.301341e+01	-6.497311e+01
1.450000e-06	-1.831760e-06	-9.162980e-10	-1.270612e+01	-6.449398e+01
1.460000e-06	-1.787316e-06	-9.095248e-10	-1.239783e+01	-6.400265e+01
1.470000e-06	-1.742854e-06	-8.988498e-10	-1.208942e+01	-6.349840e+01
1.480000e-06	-1.698359e-06	-8.863731e-10	-1.178078e+01	-6.298054e+01
1.490000e-06	-1.653667e-06	-8.723605e-10	-1.147077e+01	-6.244840e+01
1.500000e-06	-1.608777e-06	-8.579131e-10	-1.115938e+01	-6.190136e+01
1.510000e-06	-1.563746e-06	-8.461814e-10	-1.084703e+01	-6.133881e+01
1.520000e-06	-1.518541e-06	-8.381007e-10	-1.053346e+01	-6.076021e+01
1.530000e-06	-1.473189e-06	-8.311772e-10	-1.021887e+01	-6.016501e+01
1.540000e-06	-1.427771e-06	-8.237274e-10	-9.903828e+00	-5.955273e+01
1.550000e-06	-1.382313e-06	-8.104592e-10	-9.588505e+00	-5.892289e+01
1.560000e-06	-1.336730e-06	-7.920893e-10	-9.272313e+00	-5.827504e+01
1.570000e-06	-1.290993e-06	-7.736524e-10	-8.955057e+00	-5.760877e+01
1.580000e-06	-1.245155e-06	-7.593519e-10	-8.637095e+00	-5.692366e+01
1.590000e-06	-1.199291e-06	-7.459224e-10	-8.318958e+00	-5.621930e+01
1.600000e-06	-1.153382e-06	-7.360274e-10	-8.000509e+00	-5.549530e+01
1.610000e-06	-1.107387e-06	-7.297379e-10	-7.681460e+00	-5.475123e+01
1.620000e-06	-1.061400e-06	-7.268150e-10	-7.362470e+00	-5.398668e+01
1.630000e-06	-1.015379e-06	-7.204465e-10	-7.043245e+00	-5.320120e+01
1.640000e-06	-9.691905e-07	-7.098518e-10	-6.722852e+00	-5.239433e+01
1.650000e-06	-9.228402e-07	-6.914131e-10	-6.401341e+00	-5.156556e+01
1.660000e-06	-8.764903e-07	-6.699177e-10	-6.079831e+00	-5.071437e+01
1.670000e-06	-8.301874e-07	-6.504728e-10	-5.758648e+00	-4.984016e+01
1.680000e-06	-7.837456e-07	-6.337045e-10	-5.436501e+00	-4.894234e+01
1.690000e-06	-7.372299e-07	-6.209701e-10	-5.113843e+00	-4.802023e+01
1.700000e-06	-6.907372e-07	-6.095207e-10	-4.791343e+00	-4.707313e+01
1.710000e-06	-6.441667e-07	-5.967148e-10	-4.468303e+00	-4.610030e+01
1.720000e-06	-5.975335e-07	-5.841524e-10	-4.144829e+00	-4.510094e+01
1.730000e-06	-5.509071e-07	-5.689154e-10	-3.821402e+00	-4.407424e+01
1.740000e-06	-5.042185e-07	-5.482627e-10	-3.497544e+00	-4.301936e+01
1.750000e-06	-4.574569e-07	-5.254428e-10	-3.173179e+00	-4.193541e+01
1.760000e-06	-4.106529e-07	-5.037154e-10	-2.848520e+00	-4.082154e+01
1.770000e-06	-3.637147e-07	-4.858577e-10	-2.522930e+00	-3.967685e+01
1.780000e-06	-3.166936e-07	-4.702386e-10	-2.196765e+00	-3.850049e+01
1.790000e-06	-2.696689e-07	-4.567206e-10	-1.870575e+00	-3.729162e+01
1.800000e-06	-2.226458e-07	-4.426585e-10	-1.544397e+00	-3.604942e+01
1.810000e-06	-1.757009e-07	-4.289749e-10	-1.218760e+00	-3.477316e+01
1.820000e-06	-1.287548e-07	-4.130368e-10	-8.931158e-01	-3.346215e+01
1.830000e-06	-8.178972e-08	-3.938924e-10	-5.673397e-01	-3.211580e+01
1.840000e-06	-3.485956e-08	-3.713234e-10	-2.418055e-01	-3.073360e+01
1.850000e-06	1.217812e-08	-3.488798e-10	8.447430e-02	-2.931517e+01
1.860000e-06	5.924925e-08	-3.290519e-10	4.109862e-01	-2.786025e+01
1.870000e-06	1.062189e-07	-3.122146e-10	7.367945e-01	-2.636871e+01
1.880000e-06	1.531464e-07	-2.945304e-10	1.062310e+00	-2.484058e+01
1.890000e-06	2.000448e-07	-2.757057e-10	1.387623e+00	-2.327606e+01
1.900000e-06	2.469678e-07	-2.543213e-10	1.713108e+00	-2.167550e+01
1.910000e-06	2.938812e-07	-2.293687e-10	2.038526e+00	-2.003945e+01
1.920000e-06	3.407739e-07	-2.023737e-10	2.363800e+00	-1.836863e+01
1.930000e-06	3.877031e-07	-1.768710e-10	2.689328e+00	-1.666396e+01
1.940000e-06	4.345569e-07	-1.536998e-10	3.014332e+00	-1.492654e+01
1.950000e-06	4.813048e-07	-1.321011e-10	3.338602e+00	-1.315766e+01
1.960000e-06	5.280130e-07	-1.112723e-10	3.662596e+00	-1.135879e+01
1.970000e-06	5.746505e-07	-8.849994e-11	3.986100e+00	-9.531593e+00
1.980000e-06	6.211962e-07	-6.280295e-11	4.308967e+00	-7.677905e+00
1.990000e-06	6.677525e-07	-3.554064e-11	4.631908e+00	-5.799720e+00
2.000000e-06	7.142994e-07	-6.469911e-12	4.954783e+00	-3.899190e+00
2.010000e-06	7.607493e-07	2.384596e-11	5.276986e+00	-1.978607e+00
2.020000e-06	8.070587e-07	5.061274e-11	5.598215e+00	-4.039140e-02
2.030000e-06	8.532920e-07	7.346104e-11	5.918915e+00	1.912928e+00
2.040000e-06	8.994560e-07	9.715370e-11	6.239135e+00	3.878726e+00
2.050000e-06	9.456239e-07	1.233980e-10	6.559381e+00	5.854303e+00
2.060000e-06	9.917626e-07	1.517225e-10	6.879425e+00	7.836903e+00
2.070000e-06	1.037782e-06	1.816303e-10	7.198639e+00	9.823731e+00
2.080000e-06	1.083720e-06	2.123919e-10	7.517293e+00	1.181198e+01
2.090000e-06	1.129613e-06	2.419679e-10	7.835633e+00	1.379883e+01
2.100000e-06	1.175462e-06	2.681631e-10	8.153668e+00	1.578150e+01
2.110000e-06	1.221216e-06	2.935793e-10	8.471044e+00	1.775724e+01
2.120000e-06	1.266894e-06	3.189778e-10	8.787890e+00	1.972337e+01
2.130000e-06	1.312477e-06	3.461816e-10	9.104084e+00	2.167726e+01
2.140000e-06	1.357959e-06	3.735287e-10	9.419568e+00	2.361641e+01
2.150000e-06	1.403328e-06	3.992305e-10	9.734276e+00	2.553840e+01
2.160000e-06	1.448564e-06	4.258392e-10	1.004806e+01	2.744093e+01
2.170000e-06	1.493719e-06	4.540975e-10	1.036128e+01	2.932186e+01
2.180000e-06	1.538840e-06	4.820444e-10	1.067426e+01	3.117917e+01
2.190000e-06	1.583903e-06	5.093548e-10	1.098685e+01	3.301100e+01
2.200000e-06	1.628879e-06	5.353427e-10	1.129883e+01	3.481565e+01
2.210000e-06	1.673685e-06	5.604809e-10	1.160963e+01	3.659158e+01
2.220000e-06	1.718314e-06	5.839525e-10	1.191920e+01	3.833742e+01
2.230000e-06	1.762789e-06	6.071613e-10	1.222770e+01	4.005196e+01
2.240000e-06	1.807137e-06	6.281145e-10	1.253532e+01	4.173418e+01
2.250000e-06	1.851368e-06	6.507026e-10	1.284213e+01	4.338321e+01
2.260000e-06	1.895461e-06	6.750036e-10	1.314798e+01	4.499833e+01
2.270000e-06	1.939485e-06	7.000530e-10	1.345336e+01	4.657901e+01
2.280000e-06	1.983426e-06	7.238532e-10	1.375816e+01	4.812483e+01
2.290000e-06	2.027292e-06	7.424128e-10	1.406244e+01	4.963553e+01
2.300000e-06	2.071163e-06	7.597570e-10	1.436676e+01	5.111100e+01
2.310000e-06	2.114945e-06	7.759635e-10	1.467045e+01	5.255123e+01
2.320000e-06	2.158637e-06	7.953951e-10	1.497353e+01	5.395632e+01
2.330000e-06	2.202230e-06	8.153428e-10	1.527591e+01	5.532648e+01
2.340000e-06	2.245665e-06	8.371583e-10	1.557720e+01	5.666202e+01
2.350000e-06	2.288979e-06	8.579344e-10	1.587765e+01	5.796330e+01
2.360000e-06	2.332180e-06	8.775961e-10	1.617732e+01	5.923077e+01
2.370000e-06	2.375153e-06	8.953758e-10	1.647540e+01	6.046493e+01
2.380000e-06	2.417795e-06	9.110377e-10	1.677119e+01	6.166630e+01
2.390000e-06	2.460109e-06	9.257735e-10	1.706471e+01	6.283546e+01
2.400000e-06	2.502179e-06	9.397611e-10	1.735652e+01	6.397299e+01
2.410000e-06	2.543947e-06	9.537159e-10	1.764625e+01	6.507949e+01
2.420000e-06	2.585292e-06	9.681132e-10	1.793305e+01	6.615557e+01
2.430000e-06	2.626289e-06	9.800698e-10	1.821742e+01	6.720181e+01
2.440000e-06	2.667002e-06	9.902788e-10	1.849983e+01	6.821881e+01
2.450000e-06	2.707524e-06	1.001021e-09	1.878091e+01	6.920711e+01
2.460000e-06	2.747876e-06	1.013800e-09	1.906082e+01	7.016726e+01
2.470000e-06	2.788073e-06	1.028786e-09	1.933965e+01	7.109978e+01
2.480000e-06	2.828106e-06	1.042705e-09	1.961734e+01	7.200512e+01
2.490000e-06	2.867946e-06	1.054259e-09	1.989369e+01	7.288375e+01
2.500000e-06	2.907636e-06	1.062804e-09	2.016900e+01	7.373608e+01
2.510000e-06	2.947186e-06	1.071611e-09	2.044335e+01	7.456248e+01
2.520000e-06	2.986617e-06	1.080884e-09	2.071686e+01	7.536331e+01
2.530000e-06	3.025849e-06	1.090559e-09	2.098900e+01	7.613888e+01
2.540000e-06	3.064803e-06	1.099131e-09	2.125921e+01	7.688951e+01
2.550000e-06	3.103678e-06	1.106467e-09	2.152886e+01	7.761545e+01
2.560000e-06	3.142415e-06	1.113042e-09	2.179756e+01	7.831699e+01
2.570000e-06	3.180861e-06	1.121737e-09	2.206425e+01	7.899436e+01
2.580000e-06	3.219122e-06	1.132522e-09	2.232964e+01	7.964782e+01
2.590000e-06	3.257204e-06	1.144327e-09	2.259380e+01	8.027761e+01
2.600000e-06	3.295024e-06	1.153305e-09	2.285615e+01	8.088400e+01
2.610000e-06	3.332563e-06	1.160815e-09	2.311654e+01	8.146725e+01
2.620000e-06	3.369878e-06	1.167460e-09	2.337538e+01	8.202765e+01
2.630000e-06	3.406952e-06	1.173065e-09	2.363254e+01	8.256554e+01
2.640000e-06	3.443783e-06	1.178327e-09	2.388802e+01	8.308125e+01
2.650000e-06	3.480374e-06	1.185654e-09	2.414184e+01	8.357518e+01
2.660000e-06	3.516754e-06	1.193056e-09	2.439419e+01	8.404775e+01
2.670000e-06	3.552956e-06	1.200276e-09	2.464531e+01	8.449945e+01
2.680000e-06	3.588939e-06	1.209078e-09	2.489491e+01	8.493079e+01
2.690000e-06	3.624698e-06	1.217445e-09	2.514295e+01	8.534234e+01
2.700000e-06	3.660335e-06	1.223601e-09	2.539015e+01	8.573473e+01
2.710000e-06	3.695858e-06	1.228815e-09	2.563655e+01	8.610864e+01
2.720000e-06	3.731100e-06	1.233437e-09	2.588102e+01	8.646478e+01
2.730000e-06	3.766125e-06	1.237338e-09	2.612397e+01	8.680392e+01
2.740000e-06	3.800955e-06	1.241318e-09	2.636557e+01	8.712688e+01
2.750000e-06	3.835319e-06	1.246396e-09	2.660393e+01	8.743451e+01
2.760000e-06	3.869080e-06	1.251126e-09	2.683812e+01	8.772769e+01
2.770000e-06	3.902277e-06	1.256296e-09	2.706839e+01	8.800733e+01
2.780000e-06	3.934996e-06	1.262665e-09	2.729535e+01	8.827438e+01
2.790000e-06	3.967420e-06	1.269372e-09	2.752027e+01	8.852977e+01
2.800000e-06	3.999597e-06	1.278511e-09	2.774346e+01	8.877446e+01
2.810000e-06	4.031530e-06	1.287598e-09	2.796497e+01	8.900939e+01
2.820000e-06	4.063333e-06	1.291519e-09	2.818557e+01	8.923548e+01
2.830000e-06	4.094965e-06	1.291309e-09	2.840499e+01	8.945365e+01
2.840000e-06	4.126379e-06	1.292312e-09	2.862289e+01	8.966477e+01
2.850000e-06	4.157539e-06	1.294511e-09	2.883904e+01	8.986966e+01
2.860000e-06	4.188452e-06	1.297860e-09	2.905346e+01	9.006911e+01
2.870000e-06	4.219037e-06	1.303259e-09	2.926562e+01	9.026384e+01
2.880000e-06	4.249275e-06	1.310233e-09	2.947537e+01	9.045449e+01
2.890000e-06	4.279193e-06	1.316979e-09	2.968290e+01	9.064165e+01
2.900000e-06	4.308828e-06	1.323098e-09	2.988846e+01	9.082582e+01
