# Temperatura_=_-9.41
# Concentracion g/m^3_=_1620.0
# C_Vs_to_Am_M_A/Vsm_=_65563218390.804596
# pendiente_HvsI_1/m_=_3716.3
# ordenada_HvsI_A/m_=_1297.0
# frecuencia_Hz_=_135105.16472861246

Tiempo_(s)	Campo_(V.s)	Magnetizacion_(V.s)	Campo_(kA/m)	Magnetizacion_(A/m)
0.000000e+00	-5.532283e-06	-1.181180e-09	-3.836411e+01	-7.660736e+01
1.000000e-08	-5.532454e-06	-1.179010e-09	-3.836530e+01	-7.655258e+01
2.000000e-08	-5.532412e-06	-1.175978e-09	-3.836501e+01	-7.649939e+01
3.000000e-08	-5.532106e-06	-1.174770e-09	-3.836289e+01	-7.644796e+01
4.000000e-08	-5.531384e-06	-1.175040e-09	-3.835788e+01	-7.639841e+01
5.000000e-08	-5.530161e-06	-1.173752e-09	-3.834940e+01	-7.635079e+01
6.000000e-08	-5.528356e-06	-1.176611e-09	-3.833689e+01	-7.630509e+01
7.000000e-08	-5.525919e-06	-1.174289e-09	-3.831999e+01	-7.626124e+01
8.000000e-08	-5.522847e-06	-1.147773e-09	-3.829868e+01	-7.621912e+01
9.000000e-08	-5.519301e-06	-1.130435e-09	-3.827409e+01	-7.617852e+01
1.000000e-07	-5.515389e-06	-1.183632e-09	-3.824696e+01	-7.613919e+01
1.100000e-07	-5.511087e-06	-1.219337e-09	-3.821713e+01	-7.610082e+01
1.200000e-07	-5.506470e-06	-1.181648e-09	-3.818512e+01	-7.606304e+01
1.300000e-07	-5.501695e-06	-1.100294e-09	-3.815200e+01	-7.602546e+01
1.400000e-07	-5.496687e-06	-1.131989e-09	-3.811728e+01	-7.598762e+01
1.500000e-07	-5.491225e-06	-1.201196e-09	-3.807939e+01	-7.594906e+01
1.600000e-07	-5.485314e-06	-1.184056e-09	-3.803840e+01	-7.590929e+01
1.700000e-07	-5.479034e-06	-1.124492e-09	-3.799486e+01	-7.586780e+01
1.800000e-07	-5.472397e-06	-1.132388e-09	-3.794883e+01	-7.582409e+01
1.900000e-07	-5.465350e-06	-1.191348e-09	-3.789996e+01	-7.577768e+01
2.000000e-07	-5.457929e-06	-1.161235e-09	-3.784850e+01	-7.572810e+01
2.100000e-07	-5.450245e-06	-1.120485e-09	-3.779522e+01	-7.567491e+01
2.200000e-07	-5.442330e-06	-1.129572e-09	-3.774033e+01	-7.561772e+01
2.300000e-07	-5.434118e-06	-1.176694e-09	-3.768338e+01	-7.555616e+01
2.400000e-07	-5.425478e-06	-1.149447e-09	-3.762347e+01	-7.548996e+01
2.500000e-07	-5.416361e-06	-1.112509e-09	-3.756025e+01	-7.541887e+01
2.600000e-07	-5.406575e-06	-1.113948e-09	-3.749238e+01	-7.534274e+01
2.700000e-07	-5.396070e-06	-1.141349e-09	-3.741953e+01	-7.526147e+01
2.800000e-07	-5.385055e-06	-1.130118e-09	-3.734315e+01	-7.517505e+01
2.900000e-07	-5.373582e-06	-1.117887e-09	-3.726359e+01	-7.508353e+01
3.000000e-07	-5.361715e-06	-1.121107e-09	-3.718130e+01	-7.498706e+01
3.100000e-07	-5.349483e-06	-1.133934e-09	-3.709647e+01	-7.488584e+01
3.200000e-07	-5.336800e-06	-1.125610e-09	-3.700852e+01	-7.478014e+01
3.300000e-07	-5.323694e-06	-1.111358e-09	-3.691764e+01	-7.467031e+01
3.400000e-07	-5.310228e-06	-1.116393e-09	-3.682426e+01	-7.455676e+01
3.500000e-07	-5.296398e-06	-1.126776e-09	-3.672835e+01	-7.443994e+01
3.600000e-07	-5.282179e-06	-1.116879e-09	-3.662974e+01	-7.432036e+01
3.700000e-07	-5.267430e-06	-1.105185e-09	-3.652747e+01	-7.419855e+01
3.800000e-07	-5.252095e-06	-1.127112e-09	-3.642113e+01	-7.407507e+01
3.900000e-07	-5.236293e-06	-1.127769e-09	-3.631155e+01	-7.395051e+01
4.000000e-07	-5.220016e-06	-1.096582e-09	-3.619867e+01	-7.382544e+01
4.100000e-07	-5.203333e-06	-1.091546e-09	-3.608298e+01	-7.370045e+01
4.200000e-07	-5.186372e-06	-1.128087e-09	-3.596536e+01	-7.357611e+01
4.300000e-07	-5.169064e-06	-1.110160e-09	-3.584534e+01	-7.345294e+01
4.400000e-07	-5.151497e-06	-1.081872e-09	-3.572352e+01	-7.333147e+01
4.500000e-07	-5.133607e-06	-1.106453e-09	-3.559946e+01	-7.321214e+01
4.600000e-07	-5.115160e-06	-1.127564e-09	-3.547154e+01	-7.309539e+01
4.700000e-07	-5.096245e-06	-1.086842e-09	-3.534037e+01	-7.298155e+01
4.800000e-07	-5.077001e-06	-1.079879e-09	-3.520693e+01	-7.287092e+01
4.900000e-07	-5.057466e-06	-1.106889e-09	-3.507145e+01	-7.276374e+01
5.000000e-07	-5.037730e-06	-1.099082e-09	-3.493459e+01	-7.266016e+01
5.100000e-07	-5.017813e-06	-1.078257e-09	-3.479648e+01	-7.256026e+01
5.200000e-07	-4.997617e-06	-1.095746e-09	-3.465642e+01	-7.246406e+01
5.300000e-07	-4.977094e-06	-1.092496e-09	-3.451411e+01	-7.237151e+01
5.400000e-07	-4.956184e-06	-1.074717e-09	-3.436911e+01	-7.228247e+01
5.500000e-07	-4.934833e-06	-1.086799e-09	-3.422105e+01	-7.219677e+01
5.600000e-07	-4.913145e-06	-1.095849e-09	-3.407065e+01	-7.211415e+01
5.700000e-07	-4.891155e-06	-1.071655e-09	-3.391816e+01	-7.203432e+01
5.800000e-07	-4.868839e-06	-1.072147e-09	-3.376340e+01	-7.195692e+01
5.900000e-07	-4.846213e-06	-1.089457e-09	-3.360650e+01	-7.188156e+01
6.000000e-07	-4.823281e-06	-1.080722e-09	-3.344748e+01	-7.180783e+01
6.100000e-07	-4.799968e-06	-1.070274e-09	-3.328581e+01	-7.173528e+01
6.200000e-07	-4.776373e-06	-1.078731e-09	-3.312219e+01	-7.166343e+01
6.300000e-07	-4.752625e-06	-1.076138e-09	-3.295751e+01	-7.159183e+01
6.400000e-07	-4.728655e-06	-1.067978e-09	-3.279129e+01	-7.152001e+01
6.500000e-07	-4.704423e-06	-1.071806e-09	-3.262325e+01	-7.144749e+01
6.600000e-07	-4.679805e-06	-1.069934e-09	-3.245253e+01	-7.137383e+01
6.700000e-07	-4.654709e-06	-1.065136e-09	-3.227850e+01	-7.129861e+01
6.800000e-07	-4.629127e-06	-1.066520e-09	-3.210110e+01	-7.122144e+01
6.900000e-07	-4.602970e-06	-1.066384e-09	-3.191971e+01	-7.114194e+01
7.000000e-07	-4.576234e-06	-1.061053e-09	-3.173431e+01	-7.105980e+01
7.100000e-07	-4.549079e-06	-1.063131e-09	-3.154600e+01	-7.097473e+01
7.200000e-07	-4.521593e-06	-1.060222e-09	-3.135540e+01	-7.088649e+01
7.300000e-07	-4.493858e-06	-1.057652e-09	-3.116307e+01	-7.079489e+01
7.400000e-07	-4.465921e-06	-1.060514e-09	-3.096933e+01	-7.069979e+01
7.500000e-07	-4.437770e-06	-1.059645e-09	-3.077412e+01	-7.060109e+01
7.600000e-07	-4.409431e-06	-1.047563e-09	-3.057760e+01	-7.049873e+01
7.700000e-07	-4.380863e-06	-1.046580e-09	-3.037949e+01	-7.039271e+01
7.800000e-07	-4.351981e-06	-1.047453e-09	-3.017921e+01	-7.028305e+01
7.900000e-07	-4.322721e-06	-1.042085e-09	-2.997630e+01	-7.016982e+01
8.000000e-07	-4.293141e-06	-1.040378e-09	-2.977117e+01	-7.005312e+01
8.100000e-07	-4.263251e-06	-1.044736e-09	-2.956390e+01	-6.993309e+01
8.200000e-07	-4.233025e-06	-1.035174e-09	-2.935429e+01	-6.980988e+01
8.300000e-07	-4.202561e-06	-1.024268e-09	-2.914304e+01	-6.968367e+01
8.400000e-07	-4.171834e-06	-1.024229e-09	-2.892996e+01	-6.955465e+01
8.500000e-07	-4.140694e-06	-1.025273e-09	-2.871402e+01	-6.942304e+01
8.600000e-07	-4.109251e-06	-1.020321e-09	-2.849597e+01	-6.928903e+01
8.700000e-07	-4.077739e-06	-1.020262e-09	-2.827745e+01	-6.915284e+01
8.800000e-07	-4.046072e-06	-1.017121e-09	-2.805785e+01	-6.901469e+01
8.900000e-07	-4.014193e-06	-1.007701e-09	-2.783678e+01	-6.887478e+01
9.000000e-07	-3.982122e-06	-1.004821e-09	-2.761438e+01	-6.873331e+01
9.100000e-07	-3.949818e-06	-1.006581e-09	-2.739037e+01	-6.859048e+01
9.200000e-07	-3.917232e-06	-1.003609e-09	-2.716440e+01	-6.844644e+01
9.300000e-07	-3.884222e-06	-1.001700e-09	-2.693549e+01	-6.830138e+01
9.400000e-07	-3.850698e-06	-1.004298e-09	-2.670301e+01	-6.815542e+01
9.500000e-07	-3.816724e-06	-1.002210e-09	-2.646742e+01	-6.800869e+01
9.600000e-07	-3.782304e-06	-9.952464e-10	-2.622873e+01	-6.786130e+01
9.700000e-07	-3.747504e-06	-9.905911e-10	-2.598740e+01	-6.771334e+01
9.800000e-07	-3.712389e-06	-9.867227e-10	-2.574390e+01	-6.756489e+01
9.900000e-07	-3.676938e-06	-9.793648e-10	-2.549806e+01	-6.741599e+01
1.000000e-06	-3.641282e-06	-9.749104e-10	-2.525080e+01	-6.726669e+01
1.010000e-06	-3.605475e-06	-9.727474e-10	-2.500249e+01	-6.711700e+01
1.020000e-06	-3.569514e-06	-9.723481e-10	-2.475311e+01	-6.696694e+01
1.030000e-06	-3.533412e-06	-9.720506e-10	-2.450276e+01	-6.681649e+01
1.040000e-06	-3.497169e-06	-9.727758e-10	-2.425144e+01	-6.666563e+01
1.050000e-06	-3.460718e-06	-9.681036e-10	-2.399866e+01	-6.651433e+01
1.060000e-06	-3.423926e-06	-9.610672e-10	-2.374353e+01	-6.636254e+01
1.070000e-06	-3.386821e-06	-9.554547e-10	-2.348621e+01	-6.621021e+01
1.080000e-06	-3.349496e-06	-9.518146e-10	-2.322738e+01	-6.605726e+01
1.090000e-06	-3.311979e-06	-9.495296e-10	-2.296722e+01	-6.590361e+01
1.100000e-06	-3.274282e-06	-9.497003e-10	-2.270581e+01	-6.574917e+01
1.110000e-06	-3.236333e-06	-9.475570e-10	-2.244265e+01	-6.559383e+01
1.120000e-06	-3.198085e-06	-9.431079e-10	-2.217741e+01	-6.543747e+01
1.130000e-06	-3.159654e-06	-9.377838e-10	-2.191090e+01	-6.527996e+01
1.140000e-06	-3.121075e-06	-9.338051e-10	-2.164338e+01	-6.512116e+01
1.150000e-06	-3.082214e-06	-9.296041e-10	-2.137389e+01	-6.496090e+01
1.160000e-06	-3.043019e-06	-9.265892e-10	-2.110209e+01	-6.479900e+01
1.170000e-06	-3.003628e-06	-9.224755e-10	-2.082893e+01	-6.463528e+01
1.180000e-06	-2.964084e-06	-9.178617e-10	-2.055471e+01	-6.446952e+01
1.190000e-06	-2.924386e-06	-9.177400e-10	-2.027942e+01	-6.430149e+01
1.200000e-06	-2.884618e-06	-9.199927e-10	-2.000364e+01	-6.413094e+01
1.210000e-06	-2.844738e-06	-9.197652e-10	-1.972710e+01	-6.395762e+01
1.220000e-06	-2.804736e-06	-9.176116e-10	-1.944969e+01	-6.378124e+01
1.230000e-06	-2.764628e-06	-9.163666e-10	-1.917156e+01	-6.360150e+01
1.240000e-06	-2.724338e-06	-9.129741e-10	-1.889217e+01	-6.341809e+01
1.250000e-06	-2.683889e-06	-9.077026e-10	-1.861167e+01	-6.323068e+01
1.260000e-06	-2.643239e-06	-9.037477e-10	-1.832978e+01	-6.303892e+01
1.270000e-06	-2.602259e-06	-8.999991e-10	-1.804560e+01	-6.284247e+01
1.280000e-06	-2.560944e-06	-8.982100e-10	-1.775910e+01	-6.264095e+01
1.290000e-06	-2.519316e-06	-8.984327e-10	-1.747042e+01	-6.243402e+01
1.300000e-06	-2.477309e-06	-8.961390e-10	-1.717912e+01	-6.222128e+01
1.310000e-06	-2.434915e-06	-8.889361e-10	-1.688514e+01	-6.200238e+01
1.320000e-06	-2.392345e-06	-8.800335e-10	-1.658993e+01	-6.177693e+01
1.330000e-06	-2.349660e-06	-8.720722e-10	-1.629393e+01	-6.154459e+01
1.340000e-06	-2.306707e-06	-8.633296e-10	-1.599607e+01	-6.130500e+01
1.350000e-06	-2.263419e-06	-8.597531e-10	-1.569588e+01	-6.105780e+01
1.360000e-06	-2.219962e-06	-8.638212e-10	-1.539453e+01	-6.080268e+01
1.370000e-06	-2.176371e-06	-8.691866e-10	-1.509224e+01	-6.053932e+01
1.380000e-06	-2.132599e-06	-8.685996e-10	-1.478870e+01	-6.026743e+01
1.390000e-06	-2.088763e-06	-8.612515e-10	-1.448472e+01	-5.998673e+01
1.400000e-06	-2.044910e-06	-8.511245e-10	-1.418061e+01	-5.969696e+01
1.410000e-06	-2.000987e-06	-8.396953e-10	-1.387603e+01	-5.939789e+01
1.420000e-06	-1.956914e-06	-8.260091e-10	-1.357040e+01	-5.908931e+01
1.430000e-06	-1.912794e-06	-8.177573e-10	-1.326444e+01	-5.877100e+01
1.440000e-06	-1.868683e-06	-8.170337e-10	-1.295855e+01	-5.844279e+01
1.450000e-06	-1.824434e-06	-8.195203e-10	-1.265170e+01	-5.810451e+01
1.460000e-06	-1.779995e-06	-8.182394e-10	-1.234354e+01	-5.775600e+01
1.470000e-06	-1.735367e-06	-8.122126e-10	-1.203406e+01	-5.739710e+01
1.480000e-06	-1.690563e-06	-8.014646e-10	-1.172336e+01	-5.702765e+01
1.490000e-06	-1.645670e-06	-7.853394e-10	-1.141205e+01	-5.664749e+01
1.500000e-06	-1.600691e-06	-7.684798e-10	-1.110013e+01	-5.625645e+01
1.510000e-06	-1.555605e-06	-7.570164e-10	-1.078748e+01	-5.585435e+01
1.520000e-06	-1.510398e-06	-7.531576e-10	-1.047399e+01	-5.544097e+01
1.530000e-06	-1.465119e-06	-7.536466e-10	-1.016000e+01	-5.501607e+01
1.540000e-06	-1.419760e-06	-7.531502e-10	-9.845452e+00	-5.457937e+01
1.550000e-06	-1.374279e-06	-7.470442e-10	-9.530063e+00	-5.413057e+01
1.560000e-06	-1.328728e-06	-7.345773e-10	-9.214184e+00	-5.366929e+01
1.570000e-06	-1.283130e-06	-7.196597e-10	-8.897981e+00	-5.319511e+01
1.580000e-06	-1.237421e-06	-7.052083e-10	-8.581008e+00	-5.270756e+01
1.590000e-06	-1.191584e-06	-6.923300e-10	-8.263144e+00	-5.220611e+01
1.600000e-06	-1.145675e-06	-6.853207e-10	-7.944785e+00	-5.169014e+01
1.610000e-06	-1.099695e-06	-6.830424e-10	-7.625937e+00	-5.115900e+01
1.620000e-06	-1.053647e-06	-6.797322e-10	-7.306609e+00	-5.061195e+01
1.630000e-06	-1.007501e-06	-6.749306e-10	-6.986606e+00	-5.004819e+01
1.640000e-06	-9.611991e-07	-6.687750e-10	-6.665522e+00	-4.946683e+01
1.650000e-06	-9.147990e-07	-6.586678e-10	-6.343756e+00	-4.886697e+01
1.660000e-06	-8.683738e-07	-6.442116e-10	-6.021817e+00	-4.824759e+01
1.670000e-06	-8.218704e-07	-6.277703e-10	-5.699335e+00	-4.760766e+01
1.680000e-06	-7.752850e-07	-6.116970e-10	-5.376284e+00	-4.694608e+01
1.690000e-06	-7.286542e-07	-5.966381e-10	-5.052919e+00	-4.626172e+01
1.700000e-06	-6.819505e-07	-5.860192e-10	-4.729048e+00	-4.555341e+01
1.710000e-06	-6.352447e-07	-5.785122e-10	-4.405162e+00	-4.481996e+01
1.720000e-06	-5.885628e-07	-5.710113e-10	-4.081442e+00	-4.406017e+01
1.730000e-06	-5.418428e-07	-5.605765e-10	-3.757458e+00	-4.327285e+01
1.740000e-06	-4.951167e-07	-5.450374e-10	-3.433431e+00	-4.245679e+01
1.750000e-06	-4.483847e-07	-5.268377e-10	-3.109364e+00	-4.161085e+01
1.760000e-06	-4.016385e-07	-5.105121e-10	-2.785199e+00	-4.073389e+01
1.770000e-06	-3.548504e-07	-4.971156e-10	-2.460742e+00	-3.982484e+01
1.780000e-06	-3.079697e-07	-4.854998e-10	-2.135643e+00	-3.888267e+01
1.790000e-06	-2.610864e-07	-4.741468e-10	-1.810527e+00	-3.790646e+01
1.800000e-06	-2.141810e-07	-4.624906e-10	-1.485257e+00	-3.689534e+01
1.810000e-06	-1.671964e-07	-4.505250e-10	-1.159438e+00	-3.584857e+01
1.820000e-06	-1.202191e-07	-4.356575e-10	-8.336704e-01	-3.476550e+01
1.830000e-06	-7.322084e-08	-4.179139e-10	-5.077565e-01	-3.364560e+01
1.840000e-06	-2.616348e-08	-3.999296e-10	-1.814331e-01	-3.248849e+01
1.850000e-06	2.086155e-08	-3.833116e-10	1.446663e-01	-3.129391e+01
1.860000e-06	6.782273e-08	-3.679392e-10	4.703229e-01	-3.006174e+01
1.870000e-06	1.147662e-07	-3.524969e-10	7.958569e-01	-2.879201e+01
1.880000e-06	1.617475e-07	-3.357488e-10	1.121653e+00	-2.748492e+01
1.890000e-06	2.087292e-07	-3.164026e-10	1.447452e+00	-2.614082e+01
1.900000e-06	2.556656e-07	-2.943504e-10	1.772936e+00	-2.476020e+01
1.910000e-06	3.026135e-07	-2.715448e-10	2.098501e+00	-2.334372e+01
1.920000e-06	3.495202e-07	-2.487207e-10	2.423779e+00	-2.189220e+01
1.930000e-06	3.963141e-07	-2.268259e-10	2.748276e+00	-2.040662e+01
1.940000e-06	4.430664e-07	-2.060463e-10	3.072484e+00	-1.888809e+01
1.950000e-06	4.898313e-07	-1.857415e-10	3.396779e+00	-1.733787e+01
1.960000e-06	5.365466e-07	-1.656056e-10	3.720731e+00	-1.575737e+01
1.970000e-06	5.831974e-07	-1.455800e-10	4.044235e+00	-1.414811e+01
1.980000e-06	6.297374e-07	-1.241601e-10	4.366971e+00	-1.251177e+01
1.990000e-06	6.761936e-07	-9.981787e-11	4.689126e+00	-1.085010e+01
2.000000e-06	7.226644e-07	-7.253454e-11	5.011382e+00	-9.164969e+00
2.010000e-06	7.691416e-07	-4.630897e-11	5.333682e+00	-7.458357e+00
2.020000e-06	8.155891e-07	-2.337403e-11	5.655776e+00	-5.732308e+00
2.030000e-06	8.619105e-07	-1.939872e-12	5.976996e+00	-3.988942e+00
2.040000e-06	9.081866e-07	1.815027e-11	6.297902e+00	-2.230441e+00
2.050000e-06	9.544735e-07	3.725113e-11	6.618882e+00	-4.590370e-01
2.060000e-06	1.000670e-06	5.914949e-11	6.939235e+00	1.323003e+00
2.070000e-06	1.046763e-06	8.452330e-11	7.258872e+00	3.113382e+00
2.080000e-06	1.092758e-06	1.114324e-10	7.577832e+00	4.909792e+00
2.090000e-06	1.138679e-06	1.385320e-10	7.896271e+00	6.709916e+00
2.100000e-06	1.184520e-06	1.656795e-10	8.214160e+00	8.511445e+00
2.110000e-06	1.230297e-06	1.925287e-10	8.531603e+00	1.031209e+01
2.120000e-06	1.275973e-06	2.160312e-10	8.848348e+00	1.210957e+01
2.130000e-06	1.321508e-06	2.370887e-10	9.164117e+00	1.390167e+01
2.140000e-06	1.366925e-06	2.580125e-10	9.479065e+00	1.568619e+01
2.150000e-06	1.412325e-06	2.796774e-10	9.793896e+00	1.746100e+01
2.160000e-06	1.457681e-06	3.038316e-10	1.010842e+01	1.922402e+01
2.170000e-06	1.502903e-06	3.302168e-10	1.042201e+01	2.097323e+01
2.180000e-06	1.548058e-06	3.555957e-10	1.073515e+01	2.270671e+01
2.190000e-06	1.593055e-06	3.782895e-10	1.104718e+01	2.442258e+01
2.200000e-06	1.637920e-06	4.006214e-10	1.135830e+01	2.611908e+01
2.210000e-06	1.682725e-06	4.238624e-10	1.166901e+01	2.779452e+01
2.220000e-06	1.727373e-06	4.475175e-10	1.197863e+01	2.944730e+01
2.230000e-06	1.771944e-06	4.710662e-10	1.228771e+01	3.107592e+01
2.240000e-06	1.816406e-06	4.928836e-10	1.259603e+01	3.267899e+01
2.250000e-06	1.860647e-06	5.133135e-10	1.290283e+01	3.425521e+01
2.260000e-06	1.904726e-06	5.328800e-10	1.320849e+01	3.580339e+01
2.270000e-06	1.948782e-06	5.513477e-10	1.351400e+01	3.732243e+01
2.280000e-06	1.992804e-06	5.696159e-10	1.381928e+01	3.881135e+01
2.290000e-06	2.036706e-06	5.878745e-10	1.412372e+01	4.026927e+01
2.300000e-06	2.080519e-06	6.056261e-10	1.442755e+01	4.169542e+01
2.310000e-06	2.124226e-06	6.247578e-10	1.473064e+01	4.308913e+01
2.320000e-06	2.167832e-06	6.451734e-10	1.503303e+01	4.444982e+01
2.330000e-06	2.211379e-06	6.633786e-10	1.533500e+01	4.577704e+01
2.340000e-06	2.254723e-06	6.788699e-10	1.563558e+01	4.707041e+01
2.350000e-06	2.297843e-06	6.956527e-10	1.593460e+01	4.832965e+01
2.360000e-06	2.340806e-06	7.135728e-10	1.623253e+01	4.955459e+01
2.370000e-06	2.383481e-06	7.313770e-10	1.652847e+01	5.074513e+01
2.380000e-06	2.425890e-06	7.485755e-10	1.682255e+01	5.190125e+01
2.390000e-06	2.468135e-06	7.643066e-10	1.711551e+01	5.302303e+01
2.400000e-06	2.510095e-06	7.796420e-10	1.740648e+01	5.411060e+01
2.410000e-06	2.551653e-06	7.942035e-10	1.769467e+01	5.516417e+01
2.420000e-06	2.592914e-06	8.069375e-10	1.798079e+01	5.618402e+01
2.430000e-06	2.633980e-06	8.165941e-10	1.826557e+01	5.717048e+01
2.440000e-06	2.674839e-06	8.255294e-10	1.854891e+01	5.812393e+01
2.450000e-06	2.715412e-06	8.359844e-10	1.883027e+01	5.904480e+01
2.460000e-06	2.755726e-06	8.483267e-10	1.910983e+01	5.993357e+01
2.470000e-06	2.795852e-06	8.624090e-10	1.938809e+01	6.079075e+01
2.480000e-06	2.835814e-06	8.760587e-10	1.966521e+01	6.161688e+01
2.490000e-06	2.875643e-06	8.872440e-10	1.994141e+01	6.241252e+01
2.500000e-06	2.915365e-06	8.960492e-10	2.021686e+01	6.317826e+01
2.510000e-06	2.954996e-06	9.037309e-10	2.049169e+01	6.391471e+01
2.520000e-06	2.994499e-06	9.118834e-10	2.076563e+01	6.462249e+01
2.530000e-06	3.033799e-06	9.202727e-10	2.103815e+01	6.530222e+01
2.540000e-06	3.072859e-06	9.286141e-10	2.130902e+01	6.595455e+01
2.550000e-06	3.111682e-06	9.376354e-10	2.157824e+01	6.658011e+01
2.560000e-06	3.150275e-06	9.472256e-10	2.184587e+01	6.717955e+01
2.570000e-06	3.188644e-06	9.557973e-10	2.211194e+01	6.775351e+01
2.580000e-06	3.226807e-06	9.621188e-10	2.237659e+01	6.830265e+01
2.590000e-06	3.264782e-06	9.662623e-10	2.263992e+01	6.882760e+01
2.600000e-06	3.302531e-06	9.692675e-10	2.290170e+01	6.932902e+01
2.610000e-06	3.340019e-06	9.749319e-10	2.316166e+01	6.980754e+01
2.620000e-06	3.377312e-06	9.841310e-10	2.342028e+01	7.026383e+01
2.630000e-06	3.414361e-06	9.936175e-10	2.367720e+01	7.069853e+01
2.640000e-06	3.451143e-06	1.001504e-09	2.393226e+01	7.111229e+01
2.650000e-06	3.487723e-06	1.008444e-09	2.418593e+01	7.150577e+01
2.660000e-06	3.524081e-06	1.014545e-09	2.443806e+01	7.187964e+01
2.670000e-06	3.560195e-06	1.019222e-09	2.468849e+01	7.223457e+01
2.680000e-06	3.596082e-06	1.023964e-09	2.493735e+01	7.257124e+01
2.690000e-06	3.631847e-06	1.029364e-09	2.518537e+01	7.289034e+01
2.700000e-06	3.667530e-06	1.034721e-09	2.543282e+01	7.319257e+01
2.710000e-06	3.703018e-06	1.040627e-09	2.567891e+01	7.347865e+01
2.720000e-06	3.738165e-06	1.048110e-09	2.592265e+01	7.374928e+01
2.730000e-06	3.772968e-06	1.055221e-09	2.616399e+01	7.400521e+01
2.740000e-06	3.807398e-06	1.059378e-09	2.640275e+01	7.424717e+01
2.750000e-06	3.841437e-06	1.062522e-09	2.663879e+01	7.447591e+01
2.760000e-06	3.875109e-06	1.064677e-09	2.687229e+01	7.469218e+01
2.770000e-06	3.908366e-06	1.065843e-09	2.710292e+01	7.489673e+01
2.780000e-06	3.941193e-06	1.067127e-09	2.733056e+01	7.509030e+01
2.790000e-06	3.973688e-06	1.070625e-09	2.755590e+01	7.527366e+01
2.800000e-06	4.005877e-06	1.076262e-09	2.777912e+01	7.544753e+01
2.810000e-06	4.037777e-06	1.080135e-09	2.800033e+01	7.561263e+01
2.820000e-06	4.069476e-06	1.083026e-09	2.822015e+01	7.576968e+01
2.830000e-06	4.101035e-06	1.085090e-09	2.843900e+01	7.591934e+01
2.840000e-06	4.132427e-06	1.084934e-09	2.865669e+01	7.606228e+01
2.850000e-06	4.163591e-06	1.083692e-09	2.887280e+01	7.619912e+01
2.860000e-06	4.194470e-06	1.082912e-09	2.908693e+01	7.633042e+01
2.870000e-06	4.224956e-06	1.084960e-09	2.929834e+01	7.645674e+01
2.880000e-06	4.255187e-06	1.089333e-09	2.950798e+01	7.657855e+01
2.890000e-06	4.285154e-06	1.093534e-09	2.971579e+01	7.669630e+01
2.900000e-06	4.314756e-06	1.097018e-09	2.992107e+01	7.681037e+01
