# Temperatura_=_-6.44
# Concentracion g/m^3_=_1620.0
# C_Vs_to_Am_M_A/Vsm_=_65563218390.804596
# pendiente_HvsI_1/m_=_3716.3
# ordenada_HvsI_A/m_=_1297.0
# frecuencia_Hz_=_135098.88873959522

Tiempo_(s)	Campo_(V.s)	Magnetizacion_(V.s)	Campo_(kA/m)	Magnetizacion_(A/m)
0.000000e+00	-5.534760e-06	-1.291722e-09	-3.837268e+01	-8.516589e+01
1.000000e-08	-5.534816e-06	-1.286181e-09	-3.837307e+01	-8.512708e+01
2.000000e-08	-5.534633e-06	-1.284407e-09	-3.837180e+01	-8.508650e+01
3.000000e-08	-5.534049e-06	-1.285928e-09	-3.836775e+01	-8.504412e+01
4.000000e-08	-5.533048e-06	-1.289349e-09	-3.836081e+01	-8.499997e+01
5.000000e-08	-5.531476e-06	-1.289459e-09	-3.834991e+01	-8.495408e+01
6.000000e-08	-5.529276e-06	-1.282784e-09	-3.833466e+01	-8.490649e+01
7.000000e-08	-5.526511e-06	-1.289908e-09	-3.831549e+01	-8.485727e+01
8.000000e-08	-5.523166e-06	-1.304978e-09	-3.829230e+01	-8.480647e+01
9.000000e-08	-5.519321e-06	-1.308962e-09	-3.826564e+01	-8.475418e+01
1.000000e-07	-5.515135e-06	-1.321354e-09	-3.823662e+01	-8.470047e+01
1.100000e-07	-5.510700e-06	-1.316296e-09	-3.820587e+01	-8.464542e+01
1.200000e-07	-5.506017e-06	-1.245425e-09	-3.817340e+01	-8.458909e+01
1.300000e-07	-5.501103e-06	-1.233425e-09	-3.813933e+01	-8.453156e+01
1.400000e-07	-5.495806e-06	-1.285845e-09	-3.810261e+01	-8.447287e+01
1.500000e-07	-5.490091e-06	-1.349890e-09	-3.806299e+01	-8.441306e+01
1.600000e-07	-5.483973e-06	-1.283301e-09	-3.802057e+01	-8.435216e+01
1.700000e-07	-5.477457e-06	-1.213117e-09	-3.797539e+01	-8.429017e+01
1.800000e-07	-5.470541e-06	-1.253569e-09	-3.792744e+01	-8.422709e+01
1.900000e-07	-5.463238e-06	-1.296814e-09	-3.787681e+01	-8.416289e+01
2.000000e-07	-5.455662e-06	-1.262405e-09	-3.782429e+01	-8.409751e+01
2.100000e-07	-5.447850e-06	-1.221048e-09	-3.777013e+01	-8.403091e+01
2.200000e-07	-5.439739e-06	-1.259310e-09	-3.771389e+01	-8.396300e+01
2.300000e-07	-5.431323e-06	-1.274286e-09	-3.765555e+01	-8.389369e+01
2.400000e-07	-5.422502e-06	-1.232670e-09	-3.759439e+01	-8.382287e+01
2.500000e-07	-5.412959e-06	-1.194553e-09	-3.752823e+01	-8.375043e+01
2.600000e-07	-5.402663e-06	-1.233282e-09	-3.745685e+01	-8.367625e+01
2.700000e-07	-5.391800e-06	-1.265679e-09	-3.738153e+01	-8.360020e+01
2.800000e-07	-5.380542e-06	-1.260283e-09	-3.730348e+01	-8.352216e+01
2.900000e-07	-5.368894e-06	-1.224193e-09	-3.722273e+01	-8.344200e+01
3.000000e-07	-5.356824e-06	-1.234156e-09	-3.713905e+01	-8.335960e+01
3.100000e-07	-5.344331e-06	-1.241910e-09	-3.705243e+01	-8.327487e+01
3.200000e-07	-5.331430e-06	-1.233286e-09	-3.696299e+01	-8.318769e+01
3.300000e-07	-5.318135e-06	-1.202943e-09	-3.687081e+01	-8.309800e+01
3.400000e-07	-5.304482e-06	-1.216489e-09	-3.677615e+01	-8.300573e+01
3.500000e-07	-5.290382e-06	-1.255777e-09	-3.667840e+01	-8.291083e+01
3.600000e-07	-5.275770e-06	-1.257425e-09	-3.657709e+01	-8.281330e+01
3.700000e-07	-5.260633e-06	-1.216480e-09	-3.647215e+01	-8.271313e+01
3.800000e-07	-5.245080e-06	-1.215733e-09	-3.636432e+01	-8.261034e+01
3.900000e-07	-5.229201e-06	-1.229628e-09	-3.625423e+01	-8.250500e+01
4.000000e-07	-5.212793e-06	-1.194557e-09	-3.614047e+01	-8.239717e+01
4.100000e-07	-5.195889e-06	-1.195941e-09	-3.602328e+01	-8.228696e+01
4.200000e-07	-5.178735e-06	-1.243041e-09	-3.590434e+01	-8.217449e+01
4.300000e-07	-5.161329e-06	-1.222346e-09	-3.578367e+01	-8.205990e+01
4.400000e-07	-5.143508e-06	-1.176516e-09	-3.566012e+01	-8.194334e+01
4.500000e-07	-5.125300e-06	-1.225807e-09	-3.553388e+01	-8.182500e+01
4.600000e-07	-5.106758e-06	-1.236600e-09	-3.540533e+01	-8.170506e+01
4.700000e-07	-5.087801e-06	-1.165914e-09	-3.527390e+01	-8.158372e+01
4.800000e-07	-5.068487e-06	-1.175320e-09	-3.513999e+01	-8.146117e+01
4.900000e-07	-5.048948e-06	-1.228951e-09	-3.500453e+01	-8.133762e+01
5.000000e-07	-5.029161e-06	-1.177837e-09	-3.486735e+01	-8.121328e+01
5.100000e-07	-5.009091e-06	-1.159220e-09	-3.472820e+01	-8.108834e+01
5.200000e-07	-4.988747e-06	-1.217884e-09	-3.458715e+01	-8.096299e+01
5.300000e-07	-4.968073e-06	-1.195108e-09	-3.444382e+01	-8.083740e+01
5.400000e-07	-4.947014e-06	-1.140781e-09	-3.429781e+01	-8.071173e+01
5.500000e-07	-4.925539e-06	-1.197672e-09	-3.414893e+01	-8.058612e+01
5.600000e-07	-4.903642e-06	-1.212020e-09	-3.399712e+01	-8.046069e+01
5.700000e-07	-4.881444e-06	-1.146615e-09	-3.384322e+01	-8.033553e+01
5.800000e-07	-4.859008e-06	-1.157979e-09	-3.368767e+01	-8.021072e+01
5.900000e-07	-4.836237e-06	-1.195337e-09	-3.352979e+01	-8.008631e+01
6.000000e-07	-4.813030e-06	-1.146101e-09	-3.336890e+01	-7.996230e+01
6.100000e-07	-4.789564e-06	-1.135492e-09	-3.320621e+01	-7.983869e+01
6.200000e-07	-4.765955e-06	-1.178182e-09	-3.304253e+01	-7.971544e+01
6.300000e-07	-4.742075e-06	-1.161912e-09	-3.287696e+01	-7.959250e+01
6.400000e-07	-4.717920e-06	-1.137218e-09	-3.270950e+01	-7.946976e+01
6.500000e-07	-4.693453e-06	-1.161318e-09	-3.253987e+01	-7.934712e+01
6.600000e-07	-4.668514e-06	-1.154982e-09	-3.236697e+01	-7.922445e+01
6.700000e-07	-4.642972e-06	-1.132855e-09	-3.218988e+01	-7.910160e+01
6.800000e-07	-4.616815e-06	-1.147444e-09	-3.200853e+01	-7.897839e+01
6.900000e-07	-4.590210e-06	-1.150343e-09	-3.182408e+01	-7.885464e+01
7.000000e-07	-4.563150e-06	-1.133246e-09	-3.163648e+01	-7.873016e+01
7.100000e-07	-4.535707e-06	-1.138203e-09	-3.144621e+01	-7.860475e+01
7.200000e-07	-4.508077e-06	-1.145029e-09	-3.125465e+01	-7.847819e+01
7.300000e-07	-4.480279e-06	-1.130082e-09	-3.106192e+01	-7.835029e+01
7.400000e-07	-4.452301e-06	-1.125442e-09	-3.086796e+01	-7.822082e+01
7.500000e-07	-4.424088e-06	-1.126690e-09	-3.067235e+01	-7.808960e+01
7.600000e-07	-4.395578e-06	-1.120952e-09	-3.047469e+01	-7.795641e+01
7.700000e-07	-4.366739e-06	-1.119690e-09	-3.027475e+01	-7.782108e+01
7.800000e-07	-4.337558e-06	-1.124678e-09	-3.007244e+01	-7.768342e+01
7.900000e-07	-4.308122e-06	-1.118335e-09	-2.986836e+01	-7.754327e+01
8.000000e-07	-4.278391e-06	-1.114484e-09	-2.966223e+01	-7.740047e+01
8.100000e-07	-4.248252e-06	-1.112076e-09	-2.945327e+01	-7.725489e+01
8.200000e-07	-4.217773e-06	-1.103387e-09	-2.924196e+01	-7.710641e+01
8.300000e-07	-4.187055e-06	-1.090489e-09	-2.902899e+01	-7.695493e+01
8.400000e-07	-4.156062e-06	-1.092837e-09	-2.881412e+01	-7.680035e+01
8.500000e-07	-4.124843e-06	-1.097189e-09	-2.859768e+01	-7.664262e+01
8.600000e-07	-4.093450e-06	-1.092873e-09	-2.838003e+01	-7.648168e+01
8.700000e-07	-4.061818e-06	-1.089381e-09	-2.816072e+01	-7.631748e+01
8.800000e-07	-4.030030e-06	-1.089293e-09	-2.794033e+01	-7.615002e+01
8.900000e-07	-3.998071e-06	-1.080064e-09	-2.771876e+01	-7.597928e+01
9.000000e-07	-3.965843e-06	-1.070097e-09	-2.749533e+01	-7.580527e+01
9.100000e-07	-3.933313e-06	-1.069085e-09	-2.726979e+01	-7.562801e+01
9.200000e-07	-3.900458e-06	-1.066689e-09	-2.704201e+01	-7.544754e+01
9.300000e-07	-3.867192e-06	-1.060984e-09	-2.681137e+01	-7.526388e+01
9.400000e-07	-3.833425e-06	-1.065915e-09	-2.657727e+01	-7.507709e+01
9.500000e-07	-3.799141e-06	-1.069771e-09	-2.633957e+01	-7.488723e+01
9.600000e-07	-3.764393e-06	-1.063543e-09	-2.609866e+01	-7.469437e+01
9.700000e-07	-3.729323e-06	-1.060196e-09	-2.585552e+01	-7.449856e+01
9.800000e-07	-3.694019e-06	-1.061796e-09	-2.561076e+01	-7.429989e+01
9.900000e-07	-3.658495e-06	-1.052463e-09	-2.536447e+01	-7.409843e+01
1.000000e-06	-3.622778e-06	-1.042429e-09	-2.511684e+01	-7.389426e+01
1.010000e-06	-3.586929e-06	-1.046434e-09	-2.486830e+01	-7.368747e+01
1.020000e-06	-3.551018e-06	-1.046780e-09	-2.461933e+01	-7.347813e+01
1.030000e-06	-3.514887e-06	-1.042487e-09	-2.436883e+01	-7.326634e+01
1.040000e-06	-3.478467e-06	-1.040282e-09	-2.411633e+01	-7.305217e+01
1.050000e-06	-3.441804e-06	-1.037594e-09	-2.386215e+01	-7.283572e+01
1.060000e-06	-3.404866e-06	-1.029101e-09	-2.360605e+01	-7.261706e+01
1.070000e-06	-3.367647e-06	-1.023934e-09	-2.334801e+01	-7.239627e+01
1.080000e-06	-3.330160e-06	-1.021806e-09	-2.308811e+01	-7.217343e+01
1.090000e-06	-3.292446e-06	-1.015948e-09	-2.282664e+01	-7.194862e+01
1.100000e-06	-3.254505e-06	-1.009026e-09	-2.256359e+01	-7.172190e+01
1.110000e-06	-3.216364e-06	-1.008053e-09	-2.229916e+01	-7.149334e+01
1.120000e-06	-3.177959e-06	-1.003255e-09	-2.203289e+01	-7.126300e+01
1.130000e-06	-3.139292e-06	-9.963075e-10	-2.176482e+01	-7.103093e+01
1.140000e-06	-3.100410e-06	-9.937797e-10	-2.149525e+01	-7.079717e+01
1.150000e-06	-3.061375e-06	-9.951377e-10	-2.122462e+01	-7.056174e+01
1.160000e-06	-3.022159e-06	-9.910737e-10	-2.095273e+01	-7.032467e+01
1.170000e-06	-2.982744e-06	-9.856024e-10	-2.067947e+01	-7.008596e+01
1.180000e-06	-2.943196e-06	-9.832063e-10	-2.040528e+01	-6.984559e+01
1.190000e-06	-2.903525e-06	-9.815162e-10	-2.013023e+01	-6.960353e+01
1.200000e-06	-2.863733e-06	-9.790340e-10	-1.985436e+01	-6.935973e+01
1.210000e-06	-2.823817e-06	-9.729119e-10	-1.957762e+01	-6.911411e+01
1.220000e-06	-2.783778e-06	-9.669923e-10	-1.930003e+01	-6.886658e+01
1.230000e-06	-2.743539e-06	-9.620143e-10	-1.902105e+01	-6.861700e+01
1.240000e-06	-2.703078e-06	-9.617093e-10	-1.874053e+01	-6.836524e+01
1.250000e-06	-2.662398e-06	-9.636365e-10	-1.845850e+01	-6.811110e+01
1.260000e-06	-2.621576e-06	-9.626804e-10	-1.817547e+01	-6.785438e+01
1.270000e-06	-2.580478e-06	-9.601238e-10	-1.789054e+01	-6.759483e+01
1.280000e-06	-2.538911e-06	-9.536487e-10	-1.760236e+01	-6.733219e+01
1.290000e-06	-2.496997e-06	-9.424737e-10	-1.731177e+01	-6.706614e+01
1.300000e-06	-2.454779e-06	-9.330225e-10	-1.701907e+01	-6.679635e+01
1.310000e-06	-2.412285e-06	-9.282574e-10	-1.672446e+01	-6.652245e+01
1.320000e-06	-2.369580e-06	-9.280832e-10	-1.642838e+01	-6.624405e+01
1.330000e-06	-2.326661e-06	-9.266580e-10	-1.613082e+01	-6.596071e+01
1.340000e-06	-2.283472e-06	-9.230515e-10	-1.583139e+01	-6.567198e+01
1.350000e-06	-2.240066e-06	-9.219825e-10	-1.553045e+01	-6.537738e+01
1.360000e-06	-2.196556e-06	-9.193007e-10	-1.522880e+01	-6.507641e+01
1.370000e-06	-2.152929e-06	-9.113569e-10	-1.492633e+01	-6.476853e+01
1.380000e-06	-2.109238e-06	-9.013177e-10	-1.462342e+01	-6.445320e+01
1.390000e-06	-2.065477e-06	-8.916939e-10	-1.432002e+01	-6.412986e+01
1.400000e-06	-2.021621e-06	-8.854808e-10	-1.401597e+01	-6.379795e+01
1.410000e-06	-1.977670e-06	-8.781690e-10	-1.371125e+01	-6.345687e+01
1.420000e-06	-1.933633e-06	-8.701191e-10	-1.340594e+01	-6.310604e+01
1.430000e-06	-1.889570e-06	-8.650808e-10	-1.310046e+01	-6.274487e+01
1.440000e-06	-1.845346e-06	-8.630827e-10	-1.279385e+01	-6.237277e+01
1.450000e-06	-1.800922e-06	-8.619496e-10	-1.248585e+01	-6.198914e+01
1.460000e-06	-1.756451e-06	-8.563399e-10	-1.217753e+01	-6.159340e+01
1.470000e-06	-1.711839e-06	-8.482672e-10	-1.186824e+01	-6.118496e+01
1.480000e-06	-1.667044e-06	-8.395474e-10	-1.155767e+01	-6.076326e+01
1.490000e-06	-1.622154e-06	-8.276932e-10	-1.124645e+01	-6.032773e+01
1.500000e-06	-1.577165e-06	-8.150769e-10	-1.093454e+01	-5.987781e+01
1.510000e-06	-1.532028e-06	-8.059275e-10	-1.062160e+01	-5.941297e+01
1.520000e-06	-1.486764e-06	-7.997164e-10	-1.030778e+01	-5.893265e+01
1.530000e-06	-1.441393e-06	-7.920858e-10	-9.993229e+00	-5.843633e+01
1.540000e-06	-1.395963e-06	-7.851088e-10	-9.678260e+00	-5.792349e+01
1.550000e-06	-1.350453e-06	-7.788045e-10	-9.362740e+00	-5.739361e+01
1.560000e-06	-1.304770e-06	-7.730552e-10	-9.046017e+00	-5.684617e+01
1.570000e-06	-1.259014e-06	-7.659506e-10	-8.728790e+00	-5.628065e+01
1.580000e-06	-1.213224e-06	-7.554633e-10	-8.411324e+00	-5.569654e+01
1.590000e-06	-1.167375e-06	-7.425726e-10	-8.093449e+00	-5.509329e+01
1.600000e-06	-1.121424e-06	-7.314727e-10	-7.774869e+00	-5.447038e+01
1.610000e-06	-1.075359e-06	-7.228908e-10	-7.455499e+00	-5.382726e+01
1.620000e-06	-1.029165e-06	-7.139001e-10	-7.135237e+00	-5.316335e+01
1.630000e-06	-9.828528e-07	-7.072379e-10	-6.814152e+00	-5.247807e+01
1.640000e-06	-9.365071e-07	-6.999795e-10	-6.492836e+00	-5.177082e+01
1.650000e-06	-8.901841e-07	-6.895953e-10	-6.171676e+00	-5.104094e+01
1.660000e-06	-8.438131e-07	-6.766061e-10	-5.850185e+00	-5.028780e+01
1.670000e-06	-7.973051e-07	-6.625988e-10	-5.527744e+00	-4.951071e+01
1.680000e-06	-7.507685e-07	-6.470800e-10	-5.205104e+00	-4.870895e+01
1.690000e-06	-7.042524e-07	-6.310221e-10	-4.882606e+00	-4.788178e+01
1.700000e-06	-6.577113e-07	-6.161522e-10	-4.559935e+00	-4.702846e+01
1.710000e-06	-6.110749e-07	-6.040274e-10	-4.236603e+00	-4.614818e+01
1.720000e-06	-5.643732e-07	-5.918125e-10	-3.912818e+00	-4.524017e+01
1.730000e-06	-5.175869e-07	-5.772275e-10	-3.588448e+00	-4.430359e+01
1.740000e-06	-4.707366e-07	-5.618900e-10	-3.263633e+00	-4.333764e+01
1.750000e-06	-4.239092e-07	-5.457421e-10	-2.938977e+00	-4.234149e+01
1.760000e-06	-3.770357e-07	-5.286249e-10	-2.614002e+00	-4.131433e+01
1.770000e-06	-3.301245e-07	-5.134793e-10	-2.288764e+00	-4.025535e+01
1.780000e-06	-2.832019e-07	-5.000581e-10	-1.963448e+00	-3.916378e+01
1.790000e-06	-2.362024e-07	-4.865534e-10	-1.637599e+00	-3.803889e+01
1.800000e-06	-1.890863e-07	-4.728800e-10	-1.310942e+00	-3.687997e+01
1.810000e-06	-1.419672e-07	-4.577115e-10	-9.842632e-01	-3.568640e+01
1.820000e-06	-9.496889e-08	-4.402150e-10	-6.584225e-01	-3.445760e+01
1.830000e-06	-4.806819e-08	-4.208401e-10	-3.332584e-01	-3.319309e+01
1.840000e-06	-1.164901e-09	-4.022917e-10	-8.076295e-03	-3.189246e+01
1.850000e-06	4.575772e-08	-3.855790e-10	3.172398e-01	-3.055543e+01
1.860000e-06	9.270760e-08	-3.698221e-10	6.427449e-01	-2.918180e+01
1.870000e-06	1.396469e-07	-3.511047e-10	9.681769e-01	-2.777154e+01
1.880000e-06	1.865911e-07	-3.289689e-10	1.293642e+00	-2.632471e+01
1.890000e-06	2.335537e-07	-3.048178e-10	1.619236e+00	-2.484153e+01
1.900000e-06	2.804980e-07	-2.794592e-10	1.944702e+00	-2.332239e+01
1.910000e-06	3.275144e-07	-2.552535e-10	2.270668e+00	-2.176780e+01
1.920000e-06	3.744925e-07	-2.334999e-10	2.596369e+00	-2.017847e+01
1.930000e-06	4.213540e-07	-2.137453e-10	2.921262e+00	-1.855524e+01
1.940000e-06	4.681798e-07	-1.941697e-10	3.245907e+00	-1.689915e+01
1.950000e-06	5.149563e-07	-1.735357e-10	3.570210e+00	-1.521139e+01
1.960000e-06	5.616300e-07	-1.506137e-10	3.893800e+00	-1.349333e+01
1.970000e-06	6.082379e-07	-1.260773e-10	4.216934e+00	-1.174650e+01
1.980000e-06	6.547491e-07	-1.011527e-10	4.539398e+00	-9.972577e+00
1.990000e-06	7.011313e-07	-7.438263e-11	4.860967e+00	-8.173417e+00
2.000000e-06	7.475248e-07	-4.543181e-11	5.182615e+00	-6.351006e+00
2.010000e-06	7.939489e-07	-1.763648e-11	5.504475e+00	-4.507469e+00
2.020000e-06	8.403426e-07	7.715536e-12	5.826124e+00	-2.645058e+00
2.030000e-06	8.866974e-07	3.288223e-11	6.147503e+00	-7.661366e-01
2.040000e-06	9.329860e-07	5.685208e-11	6.468424e+00	1.126831e+00
2.050000e-06	9.792161e-07	8.146929e-11	6.788938e+00	3.031298e+00
2.060000e-06	1.025344e-06	1.084707e-10	7.108746e+00	4.944646e+00
2.070000e-06	1.071384e-06	1.355612e-10	7.427942e+00	6.864206e+00
2.080000e-06	1.117385e-06	1.636788e-10	7.746867e+00	8.787273e+00
2.090000e-06	1.163300e-06	1.911564e-10	8.065198e+00	1.071112e+01
2.100000e-06	1.209095e-06	2.199629e-10	8.382698e+00	1.263303e+01
2.110000e-06	1.254783e-06	2.482215e-10	8.699452e+00	1.455029e+01
2.120000e-06	1.300411e-06	2.728506e-10	9.015796e+00	1.646022e+01
2.130000e-06	1.345997e-06	2.983169e-10	9.331843e+00	1.836021e+01
2.140000e-06	1.391503e-06	3.247744e-10	9.647337e+00	2.024768e+01
2.150000e-06	1.436932e-06	3.532314e-10	9.962300e+00	2.212016e+01
2.160000e-06	1.482300e-06	3.816980e-10	1.027684e+01	2.397527e+01
2.170000e-06	1.527559e-06	4.085702e-10	1.059062e+01	2.581072e+01
2.180000e-06	1.572688e-06	4.318322e-10	1.090350e+01	2.762436e+01
2.190000e-06	1.617671e-06	4.538596e-10	1.121537e+01	2.941417e+01
2.200000e-06	1.662495e-06	4.773201e-10	1.152613e+01	3.117824e+01
2.210000e-06	1.707198e-06	5.027148e-10	1.183606e+01	3.291484e+01
2.220000e-06	1.751795e-06	5.301534e-10	1.214526e+01	3.462237e+01
2.230000e-06	1.796200e-06	5.560050e-10	1.245312e+01	3.629939e+01
2.240000e-06	1.840472e-06	5.779492e-10	1.276005e+01	3.794462e+01
2.250000e-06	1.884650e-06	5.932753e-10	1.306634e+01	3.955695e+01
2.260000e-06	1.928704e-06	6.072295e-10	1.337177e+01	4.113540e+01
2.270000e-06	1.972651e-06	6.209733e-10	1.367646e+01	4.267918e+01
2.280000e-06	2.016502e-06	6.398080e-10	1.398047e+01	4.418763e+01
2.290000e-06	2.060288e-06	6.651667e-10	1.428405e+01	4.566025e+01
2.300000e-06	2.104023e-06	6.898153e-10	1.458726e+01	4.709669e+01
2.310000e-06	2.147702e-06	7.118542e-10	1.489009e+01	4.849671e+01
2.320000e-06	2.191301e-06	7.298029e-10	1.519236e+01	4.986022e+01
2.330000e-06	2.234820e-06	7.459268e-10	1.549409e+01	5.118725e+01
2.340000e-06	2.278158e-06	7.577124e-10	1.579454e+01	5.247795e+01
2.350000e-06	2.321261e-06	7.711878e-10	1.609338e+01	5.373254e+01
2.360000e-06	2.364219e-06	7.879186e-10	1.639121e+01	5.495137e+01
2.370000e-06	2.406976e-06	8.045216e-10	1.668764e+01	5.613485e+01
2.380000e-06	2.449511e-06	8.199828e-10	1.698254e+01	5.728347e+01
2.390000e-06	2.491762e-06	8.366292e-10	1.727547e+01	5.839777e+01
2.400000e-06	2.533600e-06	8.531826e-10	1.756553e+01	5.947836e+01
2.410000e-06	2.575053e-06	8.680137e-10	1.785293e+01	6.052588e+01
2.420000e-06	2.616244e-06	8.807911e-10	1.813851e+01	6.154101e+01
2.430000e-06	2.657152e-06	8.901129e-10	1.842212e+01	6.252445e+01
2.440000e-06	2.697765e-06	8.985231e-10	1.870370e+01	6.347692e+01
2.450000e-06	2.738147e-06	9.071467e-10	1.898366e+01	6.439915e+01
2.460000e-06	2.778258e-06	9.190719e-10	1.926176e+01	6.529187e+01
2.470000e-06	2.818234e-06	9.327603e-10	1.953891e+01	6.615581e+01
2.480000e-06	2.858157e-06	9.443471e-10	1.981570e+01	6.699167e+01
2.490000e-06	2.897941e-06	9.567966e-10	2.009152e+01	6.780017e+01
2.500000e-06	2.937583e-06	9.687373e-10	2.036636e+01	6.858200e+01
2.510000e-06	2.977049e-06	9.772475e-10	2.063999e+01	6.933782e+01
2.520000e-06	3.016346e-06	9.827863e-10	2.091243e+01	7.006828e+01
2.530000e-06	3.055497e-06	9.889852e-10	2.118386e+01	7.077401e+01
2.540000e-06	3.094464e-06	9.973316e-10	2.145402e+01	7.145559e+01
2.550000e-06	3.133243e-06	1.006597e-09	2.172288e+01	7.211361e+01
2.560000e-06	3.171750e-06	1.018692e-09	2.198985e+01	7.274862e+01
2.570000e-06	3.210003e-06	1.029498e-09	2.225506e+01	7.336116e+01
2.580000e-06	3.248100e-06	1.036855e-09	2.251919e+01	7.395172e+01
2.590000e-06	3.285971e-06	1.041538e-09	2.278175e+01	7.452081e+01
2.600000e-06	3.323545e-06	1.045316e-09	2.304225e+01	7.506890e+01
2.610000e-06	3.360950e-06	1.049616e-09	2.330158e+01	7.559646e+01
2.620000e-06	3.398203e-06	1.056653e-09	2.355986e+01	7.610394e+01
2.630000e-06	3.435189e-06	1.066815e-09	2.381628e+01	7.659179e+01
2.640000e-06	3.471846e-06	1.078813e-09	2.407042e+01	7.706045e+01
2.650000e-06	3.508161e-06	1.088432e-09	2.432220e+01	7.751036e+01
2.660000e-06	3.544253e-06	1.094792e-09	2.457242e+01	7.794198e+01
2.670000e-06	3.580217e-06	1.096975e-09	2.482176e+01	7.835575e+01
2.680000e-06	3.616076e-06	1.097738e-09	2.507038e+01	7.875213e+01
2.690000e-06	3.651793e-06	1.099132e-09	2.531800e+01	7.913158e+01
2.700000e-06	3.687336e-06	1.103691e-09	2.556443e+01	7.949458e+01
2.710000e-06	3.722702e-06	1.113335e-09	2.580962e+01	7.984163e+01
2.720000e-06	3.757849e-06	1.125446e-09	2.605330e+01	8.017324e+01
2.730000e-06	3.792739e-06	1.135831e-09	2.629519e+01	8.048991e+01
2.740000e-06	3.827203e-06	1.142955e-09	2.653413e+01	8.079220e+01
2.750000e-06	3.861204e-06	1.144751e-09	2.676986e+01	8.108065e+01
2.760000e-06	3.894706e-06	1.142275e-09	2.700213e+01	8.135583e+01
2.770000e-06	3.927636e-06	1.140693e-09	2.723043e+01	8.161832e+01
2.780000e-06	3.960170e-06	1.144167e-09	2.745599e+01	8.186872e+01
2.790000e-06	3.992408e-06	1.153013e-09	2.767950e+01	8.210762e+01
2.800000e-06	4.024351e-06	1.163065e-09	2.790096e+01	8.233565e+01
2.810000e-06	4.056096e-06	1.170164e-09	2.812105e+01	8.255340e+01
2.820000e-06	4.087726e-06	1.174358e-09	2.834034e+01	8.276150e+01
2.830000e-06	4.119203e-06	1.177225e-09	2.855857e+01	8.296056e+01
2.840000e-06	4.150513e-06	1.178331e-09	2.877565e+01	8.315119e+01
2.850000e-06	4.181493e-06	1.176058e-09	2.899043e+01	8.333399e+01
2.860000e-06	4.212051e-06	1.173337e-09	2.920229e+01	8.350954e+01
2.870000e-06	4.242294e-06	1.175293e-09	2.941197e+01	8.367841e+01
2.880000e-06	4.272276e-06	1.180284e-09	2.961983e+01	8.384113e+01
2.890000e-06	4.301995e-06	1.185834e-09	2.982588e+01	8.399823e+01
2.900000e-06	4.331442e-06	1.187986e-09	3.003003e+01	8.415019e+01
