# Temperatura_=_11.44
# Concentracion g/m^3_=_1620.0
# C_Vs_to_Am_M_A/Vsm_=_65563218390.804596
# pendiente_HvsI_1/m_=_3716.3
# ordenada_HvsI_A/m_=_1297.0
# frecuencia_Hz_=_135095.87822083622

Tiempo_(s)	Campo_(V.s)	Magnetizacion_(V.s)	Campo_(kA/m)	Magnetizacion_(A/m)
0.000000e+00	-5.536437e-06	-1.633430e-09	-3.837863e+01	-1.068100e+02
1.000000e-08	-5.536721e-06	-1.630260e-09	-3.838060e+01	-1.067776e+02
2.000000e-08	-5.536695e-06	-1.626712e-09	-3.838042e+01	-1.067467e+02
3.000000e-08	-5.536403e-06	-1.624755e-09	-3.837840e+01	-1.067174e+02
4.000000e-08	-5.535610e-06	-1.624965e-09	-3.837290e+01	-1.066896e+02
5.000000e-08	-5.534135e-06	-1.626226e-09	-3.836267e+01	-1.066632e+02
6.000000e-08	-5.532052e-06	-1.629738e-09	-3.834824e+01	-1.066380e+02
7.000000e-08	-5.529474e-06	-1.639614e-09	-3.833037e+01	-1.066138e+02
8.000000e-08	-5.526439e-06	-1.646398e-09	-3.830932e+01	-1.065904e+02
9.000000e-08	-5.522886e-06	-1.620422e-09	-3.828470e+01	-1.065674e+02
1.000000e-07	-5.518833e-06	-1.610236e-09	-3.825660e+01	-1.065445e+02
1.100000e-07	-5.514434e-06	-1.629032e-09	-3.822611e+01	-1.065212e+02
1.200000e-07	-5.509770e-06	-1.663753e-09	-3.819378e+01	-1.064973e+02
1.300000e-07	-5.504789e-06	-1.603212e-09	-3.815925e+01	-1.064721e+02
1.400000e-07	-5.499542e-06	-1.580782e-09	-3.812288e+01	-1.064452e+02
1.500000e-07	-5.494063e-06	-1.631839e-09	-3.808490e+01	-1.064160e+02
1.600000e-07	-5.488134e-06	-1.687844e-09	-3.804380e+01	-1.063841e+02
1.700000e-07	-5.481685e-06	-1.618058e-09	-3.799909e+01	-1.063489e+02
1.800000e-07	-5.474858e-06	-1.543304e-09	-3.795176e+01	-1.063100e+02
1.900000e-07	-5.467712e-06	-1.601545e-09	-3.790223e+01	-1.062666e+02
2.000000e-07	-5.460163e-06	-1.660429e-09	-3.784990e+01	-1.062184e+02
2.100000e-07	-5.452312e-06	-1.659480e-09	-3.779548e+01	-1.061648e+02
2.200000e-07	-5.444354e-06	-1.616337e-09	-3.774031e+01	-1.061054e+02
2.300000e-07	-5.436139e-06	-1.650936e-09	-3.768337e+01	-1.060398e+02
2.400000e-07	-5.427390e-06	-1.648027e-09	-3.762272e+01	-1.059675e+02
2.500000e-07	-5.417962e-06	-1.622249e-09	-3.755736e+01	-1.058882e+02
2.600000e-07	-5.407961e-06	-1.585730e-09	-3.748803e+01	-1.058016e+02
2.700000e-07	-5.397412e-06	-1.610860e-09	-3.741491e+01	-1.057074e+02
2.800000e-07	-5.386277e-06	-1.624004e-09	-3.733772e+01	-1.056054e+02
2.900000e-07	-5.374687e-06	-1.619207e-09	-3.725738e+01	-1.054955e+02
3.000000e-07	-5.362679e-06	-1.584504e-09	-3.717414e+01	-1.053776e+02
3.100000e-07	-5.350238e-06	-1.598887e-09	-3.708790e+01	-1.052517e+02
3.200000e-07	-5.337512e-06	-1.616034e-09	-3.699968e+01	-1.051177e+02
3.300000e-07	-5.324500e-06	-1.608612e-09	-3.690949e+01	-1.049757e+02
3.400000e-07	-5.310992e-06	-1.576850e-09	-3.681585e+01	-1.048259e+02
3.500000e-07	-5.297090e-06	-1.590016e-09	-3.671948e+01	-1.046684e+02
3.600000e-07	-5.282867e-06	-1.624395e-09	-3.662088e+01	-1.045035e+02
3.700000e-07	-5.268169e-06	-1.604299e-09	-3.651900e+01	-1.043314e+02
3.800000e-07	-5.252829e-06	-1.571801e-09	-3.641266e+01	-1.041524e+02
3.900000e-07	-5.236896e-06	-1.586398e-09	-3.630221e+01	-1.039669e+02
4.000000e-07	-5.220624e-06	-1.596000e-09	-3.618941e+01	-1.037752e+02
4.100000e-07	-5.204003e-06	-1.551303e-09	-3.607420e+01	-1.035778e+02
4.200000e-07	-5.186955e-06	-1.573029e-09	-3.595602e+01	-1.033749e+02
4.300000e-07	-5.169604e-06	-1.612492e-09	-3.583574e+01	-1.031671e+02
4.400000e-07	-5.151983e-06	-1.575182e-09	-3.571359e+01	-1.029548e+02
4.500000e-07	-5.133971e-06	-1.531042e-09	-3.558874e+01	-1.027384e+02
4.600000e-07	-5.115599e-06	-1.587993e-09	-3.546138e+01	-1.025183e+02
4.700000e-07	-5.096809e-06	-1.585411e-09	-3.533112e+01	-1.022951e+02
4.800000e-07	-5.077555e-06	-1.526091e-09	-3.519766e+01	-1.020690e+02
4.900000e-07	-5.058041e-06	-1.542189e-09	-3.506239e+01	-1.018406e+02
5.000000e-07	-5.038359e-06	-1.588571e-09	-3.492595e+01	-1.016101e+02
5.100000e-07	-5.018479e-06	-1.533305e-09	-3.478814e+01	-1.013780e+02
5.200000e-07	-4.998260e-06	-1.525466e-09	-3.464799e+01	-1.011447e+02
5.300000e-07	-4.977678e-06	-1.574238e-09	-3.450531e+01	-1.009104e+02
5.400000e-07	-4.956786e-06	-1.544149e-09	-3.436049e+01	-1.006754e+02
5.500000e-07	-4.935497e-06	-1.491611e-09	-3.421291e+01	-1.004400e+02
5.600000e-07	-4.913822e-06	-1.547941e-09	-3.406266e+01	-1.002045e+02
5.700000e-07	-4.891844e-06	-1.558258e-09	-3.391031e+01	-9.996905e+01
5.800000e-07	-4.869535e-06	-1.496183e-09	-3.375566e+01	-9.973380e+01
5.900000e-07	-4.846887e-06	-1.504366e-09	-3.359867e+01	-9.949892e+01
6.000000e-07	-4.823920e-06	-1.540510e-09	-3.343946e+01	-9.926452e+01
6.100000e-07	-4.800620e-06	-1.494799e-09	-3.327794e+01	-9.903068e+01
6.200000e-07	-4.777018e-06	-1.480237e-09	-3.311433e+01	-9.879743e+01
6.300000e-07	-4.753186e-06	-1.520188e-09	-3.294913e+01	-9.856480e+01
6.400000e-07	-4.729115e-06	-1.506254e-09	-3.278227e+01	-9.833277e+01
6.500000e-07	-4.704706e-06	-1.476016e-09	-3.261306e+01	-9.810128e+01
6.600000e-07	-4.679857e-06	-1.493400e-09	-3.244082e+01	-9.787027e+01
6.700000e-07	-4.654493e-06	-1.494896e-09	-3.226499e+01	-9.763963e+01
6.800000e-07	-4.628534e-06	-1.467092e-09	-3.208504e+01	-9.740921e+01
6.900000e-07	-4.602041e-06	-1.472928e-09	-3.190139e+01	-9.717886e+01
7.000000e-07	-4.575189e-06	-1.482154e-09	-3.171525e+01	-9.694838e+01
7.100000e-07	-4.548010e-06	-1.467045e-09	-3.152685e+01	-9.671756e+01
7.200000e-07	-4.520538e-06	-1.459648e-09	-3.133641e+01	-9.648615e+01
7.300000e-07	-4.492812e-06	-1.470708e-09	-3.114422e+01	-9.625390e+01
7.400000e-07	-4.464925e-06	-1.457722e-09	-3.095090e+01	-9.602050e+01
7.500000e-07	-4.436849e-06	-1.443503e-09	-3.075628e+01	-9.578565e+01
7.600000e-07	-4.408419e-06	-1.441336e-09	-3.055920e+01	-9.554902e+01
7.700000e-07	-4.379676e-06	-1.441405e-09	-3.035995e+01	-9.531026e+01
7.800000e-07	-4.350624e-06	-1.429645e-09	-3.015856e+01	-9.506901e+01
7.900000e-07	-4.321227e-06	-1.428050e-09	-2.995479e+01	-9.482490e+01
8.000000e-07	-4.291550e-06	-1.423518e-09	-2.974907e+01	-9.457754e+01
8.100000e-07	-4.261607e-06	-1.415535e-09	-2.954150e+01	-9.432653e+01
8.200000e-07	-4.231361e-06	-1.406203e-09	-2.933183e+01	-9.407148e+01
8.300000e-07	-4.200902e-06	-1.404796e-09	-2.912069e+01	-9.381199e+01
8.400000e-07	-4.170221e-06	-1.398054e-09	-2.890801e+01	-9.354766e+01
8.500000e-07	-4.139207e-06	-1.397011e-09	-2.869302e+01	-9.327810e+01
8.600000e-07	-4.107947e-06	-1.396566e-09	-2.847633e+01	-9.300294e+01
8.700000e-07	-4.076481e-06	-1.388752e-09	-2.825821e+01	-9.272181e+01
8.800000e-07	-4.044776e-06	-1.376781e-09	-2.803843e+01	-9.243437e+01
8.900000e-07	-4.012875e-06	-1.372090e-09	-2.781728e+01	-9.214029e+01
9.000000e-07	-3.980757e-06	-1.362597e-09	-2.759464e+01	-9.183928e+01
9.100000e-07	-3.948300e-06	-1.354259e-09	-2.736966e+01	-9.153108e+01
9.200000e-07	-3.915501e-06	-1.354919e-09	-2.714229e+01	-9.121547e+01
9.300000e-07	-3.882308e-06	-1.352671e-09	-2.691219e+01	-9.089225e+01
9.400000e-07	-3.848551e-06	-1.342385e-09	-2.667819e+01	-9.056128e+01
9.500000e-07	-3.814347e-06	-1.337813e-09	-2.644109e+01	-9.022246e+01
9.600000e-07	-3.779740e-06	-1.334390e-09	-2.620119e+01	-8.987575e+01
9.700000e-07	-3.744759e-06	-1.321929e-09	-2.595870e+01	-8.952113e+01
9.800000e-07	-3.709490e-06	-1.313257e-09	-2.571422e+01	-8.915866e+01
9.900000e-07	-3.673978e-06	-1.308436e-09	-2.546805e+01	-8.878844e+01
1.000000e-06	-3.638316e-06	-1.297418e-09	-2.522084e+01	-8.841061e+01
1.010000e-06	-3.602531e-06	-1.285724e-09	-2.497278e+01	-8.802537e+01
1.020000e-06	-3.566662e-06	-1.287391e-09	-2.472413e+01	-8.763298e+01
1.030000e-06	-3.530664e-06	-1.284256e-09	-2.447460e+01	-8.723371e+01
1.040000e-06	-3.494352e-06	-1.275821e-09	-2.422288e+01	-8.682791e+01
1.050000e-06	-3.457710e-06	-1.270617e-09	-2.396888e+01	-8.641594e+01
1.060000e-06	-3.420816e-06	-1.266129e-09	-2.371313e+01	-8.599820e+01
1.070000e-06	-3.383701e-06	-1.252852e-09	-2.345585e+01	-8.557512e+01
1.080000e-06	-3.346363e-06	-1.245497e-09	-2.319702e+01	-8.514714e+01
1.090000e-06	-3.308740e-06	-1.239567e-09	-2.293621e+01	-8.471472e+01
1.100000e-06	-3.270889e-06	-1.229236e-09	-2.267383e+01	-8.427832e+01
1.110000e-06	-3.232801e-06	-1.218212e-09	-2.240981e+01	-8.383841e+01
1.120000e-06	-3.194495e-06	-1.214946e-09	-2.214427e+01	-8.339544e+01
1.130000e-06	-3.155986e-06	-1.209754e-09	-2.187732e+01	-8.294983e+01
1.140000e-06	-3.117222e-06	-1.204458e-09	-2.160861e+01	-8.250202e+01
1.150000e-06	-3.078295e-06	-1.202579e-09	-2.133877e+01	-8.205235e+01
1.160000e-06	-3.039163e-06	-1.198971e-09	-2.106751e+01	-8.160118e+01
1.170000e-06	-2.999798e-06	-1.186475e-09	-2.079463e+01	-8.114879e+01
1.180000e-06	-2.960322e-06	-1.173498e-09	-2.052098e+01	-8.069542e+01
1.190000e-06	-2.920692e-06	-1.167568e-09	-2.024626e+01	-8.024124e+01
1.200000e-06	-2.880903e-06	-1.161745e-09	-1.997045e+01	-7.978637e+01
1.210000e-06	-2.841028e-06	-1.154470e-09	-1.969403e+01	-7.933085e+01
1.220000e-06	-2.800990e-06	-1.152173e-09	-1.941649e+01	-7.887465e+01
1.230000e-06	-2.760793e-06	-1.149036e-09	-1.913784e+01	-7.841769e+01
1.240000e-06	-2.720407e-06	-1.143006e-09	-1.885789e+01	-7.795978e+01
1.250000e-06	-2.679812e-06	-1.134569e-09	-1.857648e+01	-7.750069e+01
1.260000e-06	-2.638976e-06	-1.126216e-09	-1.829341e+01	-7.704010e+01
1.270000e-06	-2.597770e-06	-1.114414e-09	-1.800777e+01	-7.657762e+01
1.280000e-06	-2.556204e-06	-1.101802e-09	-1.771963e+01	-7.611282e+01
1.290000e-06	-2.514351e-06	-1.094004e-09	-1.742950e+01	-7.564516e+01
1.300000e-06	-2.472322e-06	-1.086393e-09	-1.713816e+01	-7.517409e+01
1.310000e-06	-2.429966e-06	-1.077292e-09	-1.684455e+01	-7.469898e+01
1.320000e-06	-2.387250e-06	-1.069230e-09	-1.654844e+01	-7.421916e+01
1.330000e-06	-2.344301e-06	-1.060864e-09	-1.625072e+01	-7.373395e+01
1.340000e-06	-2.301173e-06	-1.048648e-09	-1.595175e+01	-7.324259e+01
1.350000e-06	-2.257911e-06	-1.040461e-09	-1.565186e+01	-7.274434e+01
1.360000e-06	-2.214458e-06	-1.036676e-09	-1.535065e+01	-7.223843e+01
1.370000e-06	-2.170920e-06	-1.032806e-09	-1.504884e+01	-7.172408e+01
1.380000e-06	-2.127295e-06	-1.024113e-09	-1.474643e+01	-7.120051e+01
1.390000e-06	-2.083554e-06	-1.015017e-09	-1.444321e+01	-7.066696e+01
1.400000e-06	-2.039738e-06	-1.002856e-09	-1.413948e+01	-7.012267e+01
1.410000e-06	-1.995815e-06	-9.905333e-10	-1.383501e+01	-6.956691e+01
1.420000e-06	-1.951826e-06	-9.801423e-10	-1.353007e+01	-6.899896e+01
1.430000e-06	-1.907733e-06	-9.716486e-10	-1.322442e+01	-6.841816e+01
1.440000e-06	-1.863507e-06	-9.634169e-10	-1.291785e+01	-6.782385e+01
1.450000e-06	-1.819187e-06	-9.563154e-10	-1.261062e+01	-6.721542e+01
1.460000e-06	-1.774748e-06	-9.461617e-10	-1.230257e+01	-6.659231e+01
1.470000e-06	-1.730154e-06	-9.332496e-10	-1.199344e+01	-6.595396e+01
1.480000e-06	-1.685403e-06	-9.183095e-10	-1.168323e+01	-6.529990e+01
1.490000e-06	-1.640497e-06	-9.019718e-10	-1.137194e+01	-6.462964e+01
1.500000e-06	-1.595448e-06	-8.832098e-10	-1.105966e+01	-6.394277e+01
1.510000e-06	-1.550309e-06	-8.682575e-10	-1.074675e+01	-6.323886e+01
1.520000e-06	-1.505114e-06	-8.569838e-10	-1.043347e+01	-6.251756e+01
1.530000e-06	-1.459783e-06	-8.473252e-10	-1.011923e+01	-6.177848e+01
1.540000e-06	-1.414368e-06	-8.376432e-10	-9.804411e+00	-6.102129e+01
1.550000e-06	-1.368895e-06	-8.266662e-10	-9.489195e+00	-6.024564e+01
1.560000e-06	-1.323341e-06	-8.131467e-10	-9.173411e+00	-5.945119e+01
1.570000e-06	-1.277727e-06	-7.961765e-10	-8.857213e+00	-5.863758e+01
1.580000e-06	-1.231998e-06	-7.784826e-10	-8.540218e+00	-5.780445e+01
1.590000e-06	-1.186124e-06	-7.612996e-10	-8.222223e+00	-5.695141e+01
1.600000e-06	-1.140136e-06	-7.468570e-10	-7.903435e+00	-5.607806e+01
1.610000e-06	-1.094043e-06	-7.357615e-10	-7.583920e+00	-5.518393e+01
1.620000e-06	-1.047896e-06	-7.266922e-10	-7.264025e+00	-5.426856e+01
1.630000e-06	-1.001696e-06	-7.189685e-10	-6.943764e+00	-5.333142e+01
1.640000e-06	-9.554171e-07	-7.097362e-10	-6.622961e+00	-5.237193e+01
1.650000e-06	-9.091793e-07	-6.929495e-10	-6.302439e+00	-5.138948e+01
1.660000e-06	-8.629270e-07	-6.721529e-10	-5.981818e+00	-5.038340e+01
1.670000e-06	-8.166414e-07	-6.512283e-10	-5.660966e+00	-4.935298e+01
1.680000e-06	-7.703061e-07	-6.320526e-10	-5.339769e+00	-4.829747e+01
1.690000e-06	-7.237853e-07	-6.120532e-10	-5.017286e+00	-4.721605e+01
1.700000e-06	-6.771851e-07	-5.935228e-10	-4.694253e+00	-4.610790e+01
1.710000e-06	-6.305885e-07	-5.773818e-10	-4.371245e+00	-4.497214e+01
1.720000e-06	-5.839268e-07	-5.627131e-10	-4.047786e+00	-4.380787e+01
1.730000e-06	-5.372428e-07	-5.459124e-10	-3.724172e+00	-4.261419e+01
1.740000e-06	-4.904957e-07	-5.260230e-10	-3.400121e+00	-4.139018e+01
1.750000e-06	-4.436396e-07	-5.042639e-10	-3.075314e+00	-4.013492e+01
1.760000e-06	-3.967591e-07	-4.810939e-10	-2.750338e+00	-3.884751e+01
1.770000e-06	-3.499228e-07	-4.585086e-10	-2.425668e+00	-3.752709e+01
1.780000e-06	-3.030873e-07	-4.393898e-10	-2.101004e+00	-3.617283e+01
1.790000e-06	-2.561507e-07	-4.210462e-10	-1.775639e+00	-3.478396e+01
1.800000e-06	-2.091340e-07	-4.012372e-10	-1.449719e+00	-3.335978e+01
1.810000e-06	-1.621265e-07	-3.821789e-10	-1.123863e+00	-3.189967e+01
1.820000e-06	-1.151333e-07	-3.623150e-10	-7.981052e-01	-3.040311e+01
1.830000e-06	-6.814616e-08	-3.402166e-10	-4.723898e-01	-2.886968e+01
1.840000e-06	-2.130867e-08	-3.195960e-10	-1.477119e-01	-2.729910e+01
1.850000e-06	2.561788e-08	-2.988969e-10	1.775834e-01	-2.569122e+01
1.860000e-06	7.266721e-08	-2.757133e-10	5.037297e-01	-2.404603e+01
1.870000e-06	1.196976e-07	-2.520047e-10	8.297452e-01	-2.236368e+01
1.880000e-06	1.667166e-07	-2.296166e-10	1.155681e+00	-2.064448e+01
1.890000e-06	2.136644e-07	-2.061845e-10	1.481124e+00	-1.888894e+01
1.900000e-06	2.606049e-07	-1.808789e-10	1.806515e+00	-1.709770e+01
1.910000e-06	3.075101e-07	-1.555963e-10	2.131663e+00	-1.527162e+01
1.920000e-06	3.544412e-07	-1.292801e-10	2.456990e+00	-1.341173e+01
1.930000e-06	4.013442e-07	-1.035047e-10	2.782122e+00	-1.151925e+01
1.940000e-06	4.481477e-07	-7.806465e-11	3.106564e+00	-9.595574e+00
1.950000e-06	4.949577e-07	-5.075180e-11	3.431051e+00	-7.642290e+00
1.960000e-06	5.417497e-07	-2.270492e-11	3.755414e+00	-5.661152e+00
1.970000e-06	5.883533e-07	4.125116e-12	4.078471e+00	-3.654083e+00
1.980000e-06	6.348631e-07	3.048716e-11	4.400877e+00	-1.623169e+00
1.990000e-06	6.813198e-07	5.897903e-11	4.722915e+00	4.293576e-01
2.000000e-06	7.276937e-07	9.211055e-11	5.044380e+00	2.501125e+00
2.010000e-06	7.740912e-07	1.268579e-10	5.366007e+00	4.589636e+00
2.020000e-06	8.205711e-07	1.597636e-10	5.688207e+00	6.692285e+00
2.030000e-06	8.670005e-07	1.893879e-10	6.010056e+00	8.806372e+00
2.040000e-06	9.132608e-07	2.163316e-10	6.330732e+00	1.092912e+01
2.050000e-06	9.594325e-07	2.419486e-10	6.650795e+00	1.305768e+01
2.060000e-06	1.005598e-06	2.695402e-10	6.970814e+00	1.518918e+01
2.070000e-06	1.051763e-06	2.996941e-10	7.290829e+00	1.732071e+01
2.080000e-06	1.097835e-06	3.325015e-10	7.610199e+00	1.944935e+01
2.090000e-06	1.143735e-06	3.670787e-10	7.928378e+00	2.157220e+01
2.100000e-06	1.189457e-06	4.000885e-10	8.245324e+00	2.368640e+01
2.110000e-06	1.235120e-06	4.304404e-10	8.561861e+00	2.578912e+01
2.120000e-06	1.280833e-06	4.588595e-10	8.878744e+00	2.787759e+01
2.130000e-06	1.326476e-06	4.854137e-10	9.195143e+00	2.994915e+01
2.140000e-06	1.371979e-06	5.095063e-10	9.510573e+00	3.200120e+01
2.150000e-06	1.417411e-06	5.341051e-10	9.825506e+00	3.403129e+01
2.160000e-06	1.462787e-06	5.635284e-10	1.014005e+01	3.603707e+01
2.170000e-06	1.507944e-06	5.948511e-10	1.045308e+01	3.801633e+01
2.180000e-06	1.552977e-06	6.240042e-10	1.076525e+01	3.996700e+01
2.190000e-06	1.597994e-06	6.523180e-10	1.107731e+01	4.188719e+01
2.200000e-06	1.642890e-06	6.794350e-10	1.138853e+01	4.377515e+01
2.210000e-06	1.687581e-06	7.054570e-10	1.169833e+01	4.562930e+01
2.220000e-06	1.732114e-06	7.287647e-10	1.200703e+01	4.744825e+01
2.230000e-06	1.776544e-06	7.512435e-10	1.231502e+01	4.923077e+01
2.240000e-06	1.820819e-06	7.732687e-10	1.262193e+01	5.097581e+01
2.250000e-06	1.864964e-06	7.951410e-10	1.292794e+01	5.268251e+01
2.260000e-06	1.908973e-06	8.162182e-10	1.323302e+01	5.435015e+01
2.270000e-06	1.952939e-06	8.373909e-10	1.353779e+01	5.597823e+01
2.280000e-06	1.996858e-06	8.605397e-10	1.384224e+01	5.756636e+01
2.290000e-06	2.040700e-06	8.821836e-10	1.414615e+01	5.911435e+01
2.300000e-06	2.084511e-06	9.024185e-10	1.444985e+01	6.062216e+01
2.310000e-06	2.128252e-06	9.226849e-10	1.475306e+01	6.208986e+01
2.320000e-06	2.171877e-06	9.440583e-10	1.505547e+01	6.351769e+01
2.330000e-06	2.215393e-06	9.643866e-10	1.535712e+01	6.490600e+01
2.340000e-06	2.258779e-06	9.831344e-10	1.565788e+01	6.625525e+01
2.350000e-06	2.302069e-06	1.001371e-09	1.595797e+01	6.756601e+01
2.360000e-06	2.345211e-06	1.017772e-09	1.625702e+01	6.883894e+01
2.370000e-06	2.388110e-06	1.032891e-09	1.655440e+01	7.007476e+01
2.380000e-06	2.430694e-06	1.047277e-09	1.684960e+01	7.127429e+01
2.390000e-06	2.472877e-06	1.061651e-09	1.714201e+01	7.243839e+01
2.400000e-06	2.514745e-06	1.078567e-09	1.743224e+01	7.356794e+01
2.410000e-06	2.556289e-06	1.096333e-09	1.772022e+01	7.466390e+01
2.420000e-06	2.597569e-06	1.112437e-09	1.800638e+01	7.572721e+01
2.430000e-06	2.638603e-06	1.124608e-09	1.829082e+01	7.675885e+01
2.440000e-06	2.679345e-06	1.134900e-09	1.857325e+01	7.775978e+01
2.450000e-06	2.719879e-06	1.144506e-09	1.885423e+01	7.873098e+01
2.460000e-06	2.760222e-06	1.155160e-09	1.913389e+01	7.967340e+01
2.470000e-06	2.800389e-06	1.167901e-09	1.941232e+01	8.058796e+01
2.480000e-06	2.840367e-06	1.181219e-09	1.968945e+01	8.147558e+01
2.490000e-06	2.880162e-06	1.195928e-09	1.996531e+01	8.233713e+01
2.500000e-06	2.919855e-06	1.209595e-09	2.024046e+01	8.317344e+01
2.510000e-06	2.959436e-06	1.219109e-09	2.051484e+01	8.398531e+01
2.520000e-06	2.998832e-06	1.226609e-09	2.078793e+01	8.477351e+01
2.530000e-06	3.038128e-06	1.234559e-09	2.106033e+01	8.553875e+01
2.540000e-06	3.077242e-06	1.242877e-09	2.133147e+01	8.628170e+01
2.550000e-06	3.116024e-06	1.251267e-09	2.160031e+01	8.700300e+01
2.560000e-06	3.154554e-06	1.259408e-09	2.186740e+01	8.770323e+01
2.570000e-06	3.192837e-06	1.268583e-09	2.213277e+01	8.838295e+01
2.580000e-06	3.230860e-06	1.278215e-09	2.239635e+01	8.904269e+01
2.590000e-06	3.268650e-06	1.288739e-09	2.265831e+01	8.968291e+01
2.600000e-06	3.306264e-06	1.298803e-09	2.291906e+01	9.030409e+01
2.610000e-06	3.343791e-06	1.307985e-09	2.317919e+01	9.090664e+01
2.620000e-06	3.381109e-06	1.316628e-09	2.343788e+01	9.149098e+01
2.630000e-06	3.418128e-06	1.323974e-09	2.369450e+01	9.205750e+01
2.640000e-06	3.454852e-06	1.331195e-09	2.394907e+01	9.260659e+01
2.650000e-06	3.491354e-06	1.338814e-09	2.420210e+01	9.313860e+01
2.660000e-06	3.527668e-06	1.345648e-09	2.445383e+01	9.365391e+01
2.670000e-06	3.563760e-06	1.353378e-09	2.470402e+01	9.415288e+01
2.680000e-06	3.599667e-06	1.362735e-09	2.495293e+01	9.463589e+01
2.690000e-06	3.635399e-06	1.371042e-09	2.520062e+01	9.510329e+01
2.700000e-06	3.670973e-06	1.377600e-09	2.544722e+01	9.555548e+01
2.710000e-06	3.706422e-06	1.383206e-09	2.569295e+01	9.599285e+01
2.720000e-06	3.741635e-06	1.388226e-09	2.593705e+01	9.641580e+01
2.730000e-06	3.776545e-06	1.393314e-09	2.617905e+01	9.682474e+01
2.740000e-06	3.811101e-06	1.400045e-09	2.641859e+01	9.722010e+01
2.750000e-06	3.845293e-06	1.407415e-09	2.665560e+01	9.760232e+01
2.760000e-06	3.879049e-06	1.413748e-09	2.688960e+01	9.797186e+01
2.770000e-06	3.912309e-06	1.418431e-09	2.712016e+01	9.832918e+01
2.780000e-06	3.945112e-06	1.423269e-09	2.734755e+01	9.867474e+01
2.790000e-06	3.977480e-06	1.428428e-09	2.757193e+01	9.900903e+01
2.800000e-06	4.009605e-06	1.434198e-09	2.779462e+01	9.933253e+01
2.810000e-06	4.041600e-06	1.440078e-09	2.801641e+01	9.964571e+01
2.820000e-06	4.073441e-06	1.444911e-09	2.823713e+01	9.994905e+01
2.830000e-06	4.105081e-06	1.451000e-09	2.845646e+01	1.002430e+02
2.840000e-06	4.136505e-06	1.455902e-09	2.867429e+01	1.005281e+02
2.850000e-06	4.167689e-06	1.458856e-09	2.889046e+01	1.008048e+02
2.860000e-06	4.198531e-06	1.459492e-09	2.910426e+01	1.010734e+02
2.870000e-06	4.229015e-06	1.460573e-09	2.931557e+01	1.013344e+02
2.880000e-06	4.259124e-06	1.463113e-09	2.952429e+01	1.015882e+02
2.890000e-06	4.288972e-06	1.467609e-09	2.973119e+01	1.018352e+02
2.900000e-06	4.318675e-06	1.474703e-09	2.993709e+01	1.020756e+02
