# Temperatura_=_11.6
# Concentracion g/m^3_=_1620.0
# C_Vs_to_Am_M_A/Vsm_=_65563218390.804596
# pendiente_HvsI_1/m_=_3716.3
# ordenada_HvsI_A/m_=_1297.0
# frecuencia_Hz_=_135096.94054409937

Tiempo_(s)	Campo_(V.s)	Magnetizacion_(V.s)	Campo_(kA/m)	Magnetizacion_(A/m)
0.000000e+00	-5.514444e-06	-1.669366e-09	-3.837934e+01	-1.080948e+02
1.000000e-08	-5.514616e-06	-1.668082e-09	-3.838054e+01	-1.080212e+02
2.000000e-08	-5.514515e-06	-1.666327e-09	-3.837984e+01	-1.079499e+02
3.000000e-08	-5.513813e-06	-1.664986e-09	-3.837495e+01	-1.078814e+02
4.000000e-08	-5.512525e-06	-1.664151e-09	-3.836599e+01	-1.078159e+02
5.000000e-08	-5.510738e-06	-1.658185e-09	-3.835355e+01	-1.077535e+02
6.000000e-08	-5.508377e-06	-1.648729e-09	-3.833712e+01	-1.076945e+02
7.000000e-08	-5.505371e-06	-1.653130e-09	-3.831620e+01	-1.076387e+02
8.000000e-08	-5.501886e-06	-1.681594e-09	-3.829194e+01	-1.075860e+02
9.000000e-08	-5.498052e-06	-1.698943e-09	-3.826526e+01	-1.075360e+02
1.000000e-07	-5.493868e-06	-1.684047e-09	-3.823614e+01	-1.074886e+02
1.100000e-07	-5.489378e-06	-1.643490e-09	-3.820489e+01	-1.074431e+02
1.200000e-07	-5.484674e-06	-1.596654e-09	-3.817215e+01	-1.073990e+02
1.300000e-07	-5.479721e-06	-1.618405e-09	-3.813768e+01	-1.073556e+02
1.400000e-07	-5.474382e-06	-1.655416e-09	-3.810052e+01	-1.073123e+02
1.500000e-07	-5.468649e-06	-1.652002e-09	-3.806062e+01	-1.072682e+02
1.600000e-07	-5.462498e-06	-1.628295e-09	-3.801781e+01	-1.072224e+02
1.700000e-07	-5.455910e-06	-1.650578e-09	-3.797196e+01	-1.071741e+02
1.800000e-07	-5.448910e-06	-1.696140e-09	-3.792324e+01	-1.071224e+02
1.900000e-07	-5.441561e-06	-1.646310e-09	-3.787210e+01	-1.070663e+02
2.000000e-07	-5.433978e-06	-1.600504e-09	-3.781932e+01	-1.070050e+02
2.100000e-07	-5.426176e-06	-1.626562e-09	-3.776502e+01	-1.069376e+02
2.200000e-07	-5.418069e-06	-1.691285e-09	-3.770860e+01	-1.068633e+02
2.300000e-07	-5.409598e-06	-1.672437e-09	-3.764964e+01	-1.067813e+02
2.400000e-07	-5.400529e-06	-1.632593e-09	-3.758652e+01	-1.066909e+02
2.500000e-07	-5.390728e-06	-1.629884e-09	-3.751830e+01	-1.065916e+02
2.600000e-07	-5.380321e-06	-1.644540e-09	-3.744587e+01	-1.064829e+02
2.700000e-07	-5.369414e-06	-1.623811e-09	-3.736997e+01	-1.063644e+02
2.800000e-07	-5.358092e-06	-1.602735e-09	-3.729116e+01	-1.062358e+02
2.900000e-07	-5.346351e-06	-1.612803e-09	-3.720945e+01	-1.060969e+02
3.000000e-07	-5.334218e-06	-1.622629e-09	-3.712501e+01	-1.059478e+02
3.100000e-07	-5.321657e-06	-1.616766e-09	-3.703759e+01	-1.057884e+02
3.200000e-07	-5.308696e-06	-1.606903e-09	-3.694738e+01	-1.056191e+02
3.300000e-07	-5.295412e-06	-1.610978e-09	-3.685493e+01	-1.054402e+02
3.400000e-07	-5.281762e-06	-1.606256e-09	-3.675992e+01	-1.052519e+02
3.500000e-07	-5.267701e-06	-1.596678e-09	-3.666207e+01	-1.050550e+02
3.600000e-07	-5.253113e-06	-1.582906e-09	-3.656054e+01	-1.048500e+02
3.700000e-07	-5.237954e-06	-1.587610e-09	-3.645503e+01	-1.046374e+02
3.800000e-07	-5.222297e-06	-1.598379e-09	-3.634606e+01	-1.044182e+02
3.900000e-07	-5.206108e-06	-1.596395e-09	-3.623339e+01	-1.041931e+02
4.000000e-07	-5.189368e-06	-1.572069e-09	-3.611689e+01	-1.039628e+02
4.100000e-07	-5.172377e-06	-1.573852e-09	-3.599863e+01	-1.037282e+02
4.200000e-07	-5.155165e-06	-1.579146e-09	-3.587884e+01	-1.034902e+02
4.300000e-07	-5.137612e-06	-1.565081e-09	-3.575667e+01	-1.032495e+02
4.400000e-07	-5.119813e-06	-1.554074e-09	-3.563280e+01	-1.030069e+02
4.500000e-07	-5.101670e-06	-1.576403e-09	-3.550652e+01	-1.027631e+02
4.600000e-07	-5.083033e-06	-1.564154e-09	-3.537682e+01	-1.025189e+02
4.700000e-07	-5.063969e-06	-1.533027e-09	-3.524413e+01	-1.022748e+02
4.800000e-07	-5.044611e-06	-1.541544e-09	-3.510941e+01	-1.020314e+02
4.900000e-07	-5.025045e-06	-1.560738e-09	-3.497323e+01	-1.017891e+02
5.000000e-07	-5.005298e-06	-1.534201e-09	-3.483580e+01	-1.015484e+02
5.100000e-07	-4.985243e-06	-1.522387e-09	-3.469622e+01	-1.013094e+02
5.200000e-07	-4.964867e-06	-1.544329e-09	-3.455441e+01	-1.010724e+02
5.300000e-07	-4.944125e-06	-1.539322e-09	-3.441005e+01	-1.008375e+02
5.400000e-07	-4.922998e-06	-1.515715e-09	-3.426301e+01	-1.006047e+02
5.500000e-07	-4.901513e-06	-1.521504e-09	-3.411348e+01	-1.003739e+02
5.600000e-07	-4.879706e-06	-1.510886e-09	-3.396170e+01	-1.001450e+02
5.700000e-07	-4.857712e-06	-1.485565e-09	-3.380863e+01	-9.991776e+01
5.800000e-07	-4.835432e-06	-1.500490e-09	-3.365356e+01	-9.969185e+01
5.900000e-07	-4.812688e-06	-1.520679e-09	-3.349527e+01	-9.946695e+01
6.000000e-07	-4.789536e-06	-1.502267e-09	-3.333414e+01	-9.924269e+01
6.100000e-07	-4.766098e-06	-1.491726e-09	-3.317102e+01	-9.901865e+01
6.200000e-07	-4.742458e-06	-1.500996e-09	-3.300649e+01	-9.879440e+01
6.300000e-07	-4.718622e-06	-1.488503e-09	-3.284060e+01	-9.856948e+01
6.400000e-07	-4.694484e-06	-1.473995e-09	-3.267260e+01	-9.834345e+01
6.500000e-07	-4.669939e-06	-1.481264e-09	-3.250177e+01	-9.811587e+01
6.600000e-07	-4.644819e-06	-1.483465e-09	-3.232694e+01	-9.788632e+01
6.700000e-07	-4.619065e-06	-1.470310e-09	-3.214770e+01	-9.765441e+01
6.800000e-07	-4.592779e-06	-1.471640e-09	-3.196475e+01	-9.741977e+01
6.900000e-07	-4.566002e-06	-1.473468e-09	-3.177839e+01	-9.718209e+01
7.000000e-07	-4.538817e-06	-1.464530e-09	-3.158919e+01	-9.694108e+01
7.100000e-07	-4.511440e-06	-1.455684e-09	-3.139865e+01	-9.669653e+01
7.200000e-07	-4.483924e-06	-1.454836e-09	-3.120715e+01	-9.644824e+01
7.300000e-07	-4.456207e-06	-1.448493e-09	-3.101424e+01	-9.619608e+01
7.400000e-07	-4.428295e-06	-1.444314e-09	-3.081998e+01	-9.593997e+01
7.500000e-07	-4.400143e-06	-1.439869e-09	-3.062405e+01	-9.567986e+01
7.600000e-07	-4.371672e-06	-1.430854e-09	-3.042590e+01	-9.541576e+01
7.700000e-07	-4.342808e-06	-1.418954e-09	-3.022501e+01	-9.514771e+01
7.800000e-07	-4.313642e-06	-1.415093e-09	-3.002202e+01	-9.487577e+01
7.900000e-07	-4.284248e-06	-1.411873e-09	-2.981744e+01	-9.460003e+01
8.000000e-07	-4.254548e-06	-1.408870e-09	-2.961074e+01	-9.432061e+01
8.100000e-07	-4.224537e-06	-1.404091e-09	-2.940187e+01	-9.403764e+01
8.200000e-07	-4.194229e-06	-1.397772e-09	-2.919093e+01	-9.375124e+01
8.300000e-07	-4.163587e-06	-1.390160e-09	-2.897767e+01	-9.346155e+01
8.400000e-07	-4.132659e-06	-1.386200e-09	-2.876241e+01	-9.316868e+01
8.500000e-07	-4.101527e-06	-1.381223e-09	-2.854575e+01	-9.287275e+01
8.600000e-07	-4.070211e-06	-1.373781e-09	-2.832779e+01	-9.257384e+01
8.700000e-07	-4.038696e-06	-1.365195e-09	-2.810846e+01	-9.227202e+01
8.800000e-07	-4.007023e-06	-1.357190e-09	-2.788802e+01	-9.196734e+01
8.900000e-07	-3.975207e-06	-1.350144e-09	-2.766658e+01	-9.165980e+01
9.000000e-07	-3.943128e-06	-1.345896e-09	-2.744332e+01	-9.134938e+01
9.100000e-07	-3.910550e-06	-1.344834e-09	-2.721658e+01	-9.103605e+01
9.200000e-07	-3.877501e-06	-1.343389e-09	-2.698657e+01	-9.071972e+01
9.300000e-07	-3.844114e-06	-1.339729e-09	-2.675420e+01	-9.040028e+01
9.400000e-07	-3.810311e-06	-1.334109e-09	-2.651895e+01	-9.007761e+01
9.500000e-07	-3.776128e-06	-1.328064e-09	-2.628104e+01	-8.975155e+01
9.600000e-07	-3.741537e-06	-1.318478e-09	-2.604029e+01	-8.942194e+01
9.700000e-07	-3.706552e-06	-1.310309e-09	-2.579681e+01	-8.908859e+01
9.800000e-07	-3.671298e-06	-1.303057e-09	-2.555145e+01	-8.875131e+01
9.900000e-07	-3.635851e-06	-1.296784e-09	-2.530474e+01	-8.840991e+01
1.000000e-06	-3.600263e-06	-1.292439e-09	-2.505706e+01	-8.806420e+01
1.010000e-06	-3.564531e-06	-1.292812e-09	-2.480837e+01	-8.771398e+01
1.020000e-06	-3.528662e-06	-1.290286e-09	-2.455873e+01	-8.735910e+01
1.030000e-06	-3.492604e-06	-1.283704e-09	-2.430777e+01	-8.699940e+01
1.040000e-06	-3.456293e-06	-1.274847e-09	-2.405506e+01	-8.663475e+01
1.050000e-06	-3.419736e-06	-1.265557e-09	-2.380063e+01	-8.626504e+01
1.060000e-06	-3.382867e-06	-1.256760e-09	-2.354403e+01	-8.589019e+01
1.070000e-06	-3.345677e-06	-1.251118e-09	-2.328519e+01	-8.551015e+01
1.080000e-06	-3.308253e-06	-1.246351e-09	-2.302473e+01	-8.512489e+01
1.090000e-06	-3.270618e-06	-1.243316e-09	-2.276280e+01	-8.473442e+01
1.100000e-06	-3.232750e-06	-1.238140e-09	-2.249925e+01	-8.433877e+01
1.110000e-06	-3.194630e-06	-1.230797e-09	-2.223394e+01	-8.393799e+01
1.120000e-06	-3.156280e-06	-1.222290e-09	-2.196703e+01	-8.353215e+01
1.130000e-06	-3.117744e-06	-1.213192e-09	-2.169883e+01	-8.312135e+01
1.140000e-06	-3.079000e-06	-1.203968e-09	-2.142918e+01	-8.270569e+01
1.150000e-06	-3.040044e-06	-1.196559e-09	-2.115805e+01	-8.228527e+01
1.160000e-06	-3.000977e-06	-1.188215e-09	-2.088616e+01	-8.186020e+01
1.170000e-06	-2.961764e-06	-1.179447e-09	-2.061324e+01	-8.143058e+01
1.180000e-06	-2.922348e-06	-1.174098e-09	-2.033891e+01	-8.099650e+01
1.190000e-06	-2.882819e-06	-1.170423e-09	-2.006380e+01	-8.055802e+01
1.200000e-06	-2.843195e-06	-1.164433e-09	-1.978802e+01	-8.011518e+01
1.210000e-06	-2.803432e-06	-1.156963e-09	-1.951128e+01	-7.966799e+01
1.220000e-06	-2.763555e-06	-1.151553e-09	-1.923375e+01	-7.921641e+01
1.230000e-06	-2.723555e-06	-1.147478e-09	-1.895536e+01	-7.876039e+01
1.240000e-06	-2.683304e-06	-1.141138e-09	-1.867522e+01	-7.829980e+01
1.250000e-06	-2.642776e-06	-1.132505e-09	-1.839315e+01	-7.783447e+01
1.260000e-06	-2.601921e-06	-1.123516e-09	-1.810881e+01	-7.736420e+01
1.270000e-06	-2.560757e-06	-1.112517e-09	-1.782231e+01	-7.688872e+01
1.280000e-06	-2.519336e-06	-1.103827e-09	-1.753404e+01	-7.640771e+01
1.290000e-06	-2.477599e-06	-1.097350e-09	-1.724355e+01	-7.592081e+01
1.300000e-06	-2.435604e-06	-1.092625e-09	-1.695128e+01	-7.542762e+01
1.310000e-06	-2.393410e-06	-1.085448e-09	-1.665762e+01	-7.492768e+01
1.320000e-06	-2.350901e-06	-1.078618e-09	-1.636177e+01	-7.442050e+01
1.330000e-06	-2.308039e-06	-1.067998e-09	-1.606346e+01	-7.390556e+01
1.340000e-06	-2.264893e-06	-1.056034e-09	-1.576317e+01	-7.338232e+01
1.350000e-06	-2.221626e-06	-1.048291e-09	-1.546204e+01	-7.285020e+01
1.360000e-06	-2.178246e-06	-1.041515e-09	-1.516012e+01	-7.230864e+01
1.370000e-06	-2.134737e-06	-1.032838e-09	-1.485731e+01	-7.175703e+01
1.380000e-06	-2.091172e-06	-1.021270e-09	-1.455411e+01	-7.119481e+01
1.390000e-06	-2.047534e-06	-1.009754e-09	-1.425040e+01	-7.062138e+01
1.400000e-06	-2.003877e-06	-9.996525e-10	-1.394655e+01	-7.003619e+01
1.410000e-06	-1.960153e-06	-9.903698e-10	-1.364224e+01	-6.943870e+01
1.420000e-06	-1.916294e-06	-9.834336e-10	-1.333699e+01	-6.882838e+01
1.430000e-06	-1.872342e-06	-9.770653e-10	-1.303110e+01	-6.820475e+01
1.440000e-06	-1.828351e-06	-9.666361e-10	-1.272493e+01	-6.756735e+01
1.450000e-06	-1.784243e-06	-9.517612e-10	-1.241795e+01	-6.691576e+01
1.460000e-06	-1.739919e-06	-9.325774e-10	-1.210946e+01	-6.624958e+01
1.470000e-06	-1.695473e-06	-9.143372e-10	-1.180013e+01	-6.556847e+01
1.480000e-06	-1.650859e-06	-9.003970e-10	-1.148962e+01	-6.487210e+01
1.490000e-06	-1.606102e-06	-8.878332e-10	-1.117813e+01	-6.416018e+01
1.500000e-06	-1.561258e-06	-8.768954e-10	-1.086602e+01	-6.343244e+01
1.510000e-06	-1.516256e-06	-8.665814e-10	-1.055281e+01	-6.268863e+01
1.520000e-06	-1.471136e-06	-8.541871e-10	-1.023879e+01	-6.192851e+01
1.530000e-06	-1.425905e-06	-8.401058e-10	-9.923995e+00	-6.115187e+01
1.540000e-06	-1.380559e-06	-8.234016e-10	-9.608393e+00	-6.035846e+01
1.550000e-06	-1.335097e-06	-8.062596e-10	-9.291989e+00	-5.954805e+01
1.560000e-06	-1.289540e-06	-7.911939e-10	-8.974922e+00	-5.872039e+01
1.570000e-06	-1.243894e-06	-7.787452e-10	-8.657232e+00	-5.787519e+01
1.580000e-06	-1.198204e-06	-7.662421e-10	-8.339243e+00	-5.701212e+01
1.590000e-06	-1.152513e-06	-7.530919e-10	-8.021244e+00	-5.613085e+01
1.600000e-06	-1.106733e-06	-7.400176e-10	-7.702621e+00	-5.523094e+01
1.610000e-06	-1.060854e-06	-7.272376e-10	-7.383317e+00	-5.431194e+01
1.620000e-06	-1.014960e-06	-7.145897e-10	-7.063906e+00	-5.337333e+01
1.630000e-06	-9.688978e-07	-7.024591e-10	-6.743320e+00	-5.241450e+01
1.640000e-06	-9.227012e-07	-6.887306e-10	-6.421802e+00	-5.143480e+01
1.650000e-06	-8.764960e-07	-6.715391e-10	-6.100224e+00	-5.043349e+01
1.660000e-06	-8.302779e-07	-6.524421e-10	-5.778556e+00	-4.940979e+01
1.670000e-06	-7.840421e-07	-6.349536e-10	-5.456765e+00	-4.836282e+01
1.680000e-06	-7.377044e-07	-6.186374e-10	-5.134264e+00	-4.729166e+01
1.690000e-06	-6.912993e-07	-6.018204e-10	-4.811295e+00	-4.619533e+01
1.700000e-06	-6.448411e-07	-5.857287e-10	-4.487955e+00	-4.507278e+01
1.710000e-06	-5.983308e-07	-5.700395e-10	-4.164254e+00	-4.392295e+01
1.720000e-06	-5.517950e-07	-5.518971e-10	-3.840375e+00	-4.274474e+01
1.730000e-06	-5.052226e-07	-5.320642e-10	-3.516241e+00	-4.153702e+01
1.740000e-06	-4.585810e-07	-5.126482e-10	-3.191625e+00	-4.029867e+01
1.750000e-06	-4.119354e-07	-4.918896e-10	-2.866982e+00	-3.902857e+01
1.760000e-06	-3.652985e-07	-4.696099e-10	-2.542399e+00	-3.772565e+01
1.770000e-06	-3.185192e-07	-4.485951e-10	-2.216825e+00	-3.638885e+01
1.780000e-06	-2.716924e-07	-4.273822e-10	-1.890921e+00	-3.501718e+01
1.790000e-06	-2.249174e-07	-4.069178e-10	-1.565377e+00	-3.360974e+01
1.800000e-06	-1.780992e-07	-3.883499e-10	-1.239532e+00	-3.216570e+01
1.810000e-06	-1.312539e-07	-3.724261e-10	-9.134989e-01	-3.068435e+01
1.820000e-06	-8.446302e-08	-3.584070e-10	-5.878445e-01	-2.916511e+01
1.830000e-06	-3.770366e-08	-3.395266e-10	-2.624094e-01	-2.760750e+01
1.840000e-06	9.040579e-09	-3.181107e-10	6.292048e-02	-2.601124e+01
1.850000e-06	5.582363e-08	-2.911983e-10	3.885204e-01	-2.437618e+01
1.860000e-06	1.026388e-07	-2.636156e-10	7.143438e-01	-2.270237e+01
1.870000e-06	1.494557e-07	-2.393254e-10	1.040180e+00	-2.099001e+01
1.880000e-06	1.962097e-07	-2.155816e-10	1.365577e+00	-1.923952e+01
1.890000e-06	2.428904e-07	-1.919388e-10	1.690465e+00	-1.745150e+01
1.900000e-06	2.895910e-07	-1.713022e-10	2.015491e+00	-1.562675e+01
1.910000e-06	3.363407e-07	-1.480766e-10	2.340859e+00	-1.376628e+01
1.920000e-06	3.830897e-07	-1.194160e-10	2.666222e+00	-1.187130e+01
1.930000e-06	4.297889e-07	-8.844771e-11	2.991238e+00	-9.943198e+00
1.940000e-06	4.764420e-07	-5.829952e-11	3.315934e+00	-7.983576e+00
1.950000e-06	5.230325e-07	-2.998289e-11	3.640194e+00	-5.994215e+00
1.960000e-06	5.695032e-07	-3.528299e-12	3.963620e+00	-3.977070e+00
1.970000e-06	6.158828e-07	2.069019e-11	4.286412e+00	-1.934270e+00
1.980000e-06	6.622316e-07	4.684872e-11	4.608989e+00	1.319044e-01
1.990000e-06	7.085377e-07	7.640750e-11	4.931270e+00	2.219028e+00
2.000000e-06	7.547604e-07	1.089834e-10	5.252970e+00	4.324548e+00
2.010000e-06	8.008497e-07	1.406239e-10	5.573742e+00	6.445798e+00
2.020000e-06	8.469138e-07	1.708318e-10	5.894338e+00	8.580014e+00
2.030000e-06	8.930333e-07	1.992832e-10	6.215319e+00	1.072435e+01
2.040000e-06	9.391216e-07	2.271882e-10	6.536084e+00	1.287591e+01
2.050000e-06	9.851206e-07	2.562226e-10	6.856227e+00	1.503174e+01
2.060000e-06	1.031066e-06	2.878049e-10	7.176000e+00	1.718887e+01
2.070000e-06	1.076924e-06	3.211149e-10	7.495158e+00	1.934431e+01
2.080000e-06	1.122643e-06	3.551710e-10	7.813351e+00	2.149509e+01
2.090000e-06	1.168230e-06	3.882433e-10	8.130629e+00	2.363827e+01
2.100000e-06	1.213770e-06	4.193389e-10	8.447580e+00	2.577094e+01
2.110000e-06	1.259274e-06	4.474236e-10	8.764275e+00	2.789028e+01
2.120000e-06	1.304742e-06	4.749049e-10	9.080723e+00	2.999351e+01
2.130000e-06	1.350154e-06	5.009400e-10	9.396784e+00	3.207797e+01
2.140000e-06	1.395443e-06	5.268344e-10	9.711985e+00	3.414110e+01
2.150000e-06	1.440615e-06	5.534667e-10	1.002637e+01	3.618044e+01
2.160000e-06	1.485764e-06	5.826770e-10	1.034060e+01	3.819369e+01
2.170000e-06	1.530874e-06	6.130170e-10	1.065455e+01	4.017867e+01
2.180000e-06	1.575821e-06	6.425490e-10	1.096737e+01	4.213335e+01
2.190000e-06	1.620593e-06	6.720777e-10	1.127898e+01	4.405588e+01
2.200000e-06	1.665108e-06	6.988753e-10	1.158879e+01	4.594455e+01
2.210000e-06	1.709436e-06	7.230959e-10	1.189731e+01	4.779783e+01
2.220000e-06	1.753687e-06	7.477311e-10	1.220528e+01	4.961437e+01
2.230000e-06	1.797785e-06	7.711348e-10	1.251220e+01	5.139299e+01
2.240000e-06	1.841764e-06	7.936418e-10	1.281828e+01	5.313270e+01
2.250000e-06	1.885704e-06	8.164340e-10	1.312410e+01	5.483267e+01
2.260000e-06	1.929577e-06	8.385929e-10	1.342944e+01	5.649226e+01
2.270000e-06	1.973346e-06	8.617338e-10	1.373407e+01	5.811102e+01
2.280000e-06	2.017038e-06	8.843789e-10	1.403815e+01	5.968864e+01
2.290000e-06	2.060678e-06	9.056240e-10	1.434187e+01	6.122501e+01
2.300000e-06	2.104315e-06	9.257311e-10	1.464558e+01	6.272015e+01
2.310000e-06	2.147933e-06	9.445015e-10	1.494915e+01	6.417426e+01
2.320000e-06	2.191440e-06	9.613850e-10	1.525195e+01	6.558767e+01
2.330000e-06	2.234826e-06	9.778360e-10	1.555391e+01	6.696084e+01
2.340000e-06	2.278103e-06	9.949056e-10	1.585511e+01	6.829437e+01
2.350000e-06	2.321124e-06	1.012752e-09	1.615452e+01	6.958898e+01
2.360000e-06	2.363871e-06	1.031283e-09	1.645203e+01	7.084546e+01
2.370000e-06	2.406375e-06	1.050042e-09	1.674785e+01	7.206473e+01
2.380000e-06	2.448463e-06	1.066679e-09	1.704078e+01	7.324776e+01
2.390000e-06	2.490214e-06	1.083850e-09	1.733135e+01	7.439559e+01
2.400000e-06	2.531702e-06	1.100732e-09	1.762010e+01	7.550931e+01
2.410000e-06	2.572925e-06	1.115339e-09	1.790701e+01	7.659005e+01
2.420000e-06	2.613902e-06	1.127067e-09	1.819220e+01	7.763897e+01
2.430000e-06	2.654648e-06	1.138456e-09	1.847578e+01	7.865721e+01
2.440000e-06	2.695073e-06	1.151069e-09	1.875713e+01	7.964594e+01
2.450000e-06	2.735196e-06	1.163940e-09	1.903638e+01	8.060630e+01
2.460000e-06	2.775174e-06	1.176886e-09	1.931462e+01	8.153940e+01
2.470000e-06	2.815022e-06	1.187167e-09	1.959195e+01	8.244631e+01
2.480000e-06	2.854753e-06	1.196458e-09	1.986847e+01	8.332806e+01
2.490000e-06	2.894340e-06	1.208855e-09	2.014399e+01	8.418563e+01
2.500000e-06	2.933774e-06	1.220655e-09	2.041844e+01	8.501991e+01
2.510000e-06	2.973055e-06	1.231005e-09	2.069183e+01	8.583173e+01
2.520000e-06	3.012247e-06	1.241231e-09	2.096459e+01	8.662187e+01
2.530000e-06	3.051239e-06	1.249602e-09	2.123597e+01	8.739099e+01
2.540000e-06	3.089966e-06	1.258732e-09	2.150550e+01	8.813970e+01
2.550000e-06	3.128482e-06	1.267664e-09	2.177356e+01	8.886852e+01
2.560000e-06	3.166792e-06	1.278650e-09	2.204019e+01	8.957790e+01
2.570000e-06	3.204889e-06	1.291160e-09	2.230534e+01	9.026819e+01
2.580000e-06	3.242760e-06	1.302412e-09	2.256891e+01	9.093971e+01
2.590000e-06	3.280480e-06	1.310659e-09	2.283143e+01	9.159268e+01
2.600000e-06	3.317979e-06	1.317316e-09	2.309242e+01	9.222729e+01
2.610000e-06	3.355207e-06	1.324557e-09	2.335152e+01	9.284364e+01
2.620000e-06	3.392196e-06	1.330697e-09	2.360895e+01	9.344184e+01
2.630000e-06	3.428884e-06	1.337937e-09	2.386429e+01	9.402194e+01
2.640000e-06	3.465255e-06	1.346013e-09	2.411743e+01	9.458398e+01
2.650000e-06	3.501451e-06	1.353359e-09	2.436935e+01	9.512798e+01
2.660000e-06	3.537506e-06	1.360320e-09	2.462028e+01	9.565398e+01
2.670000e-06	3.573375e-06	1.367824e-09	2.486992e+01	9.616202e+01
2.680000e-06	3.609138e-06	1.377461e-09	2.511882e+01	9.665216e+01
2.690000e-06	3.644753e-06	1.386718e-09	2.536670e+01	9.712450e+01
2.700000e-06	3.680187e-06	1.393883e-09	2.561331e+01	9.757919e+01
2.710000e-06	3.715498e-06	1.399238e-09	2.585907e+01	9.801641e+01
2.720000e-06	3.750577e-06	1.405213e-09	2.610321e+01	9.843641e+01
2.730000e-06	3.785204e-06	1.412040e-09	2.634421e+01	9.883950e+01
2.740000e-06	3.819312e-06	1.418278e-09	2.658159e+01	9.922605e+01
2.750000e-06	3.852968e-06	1.423458e-09	2.681583e+01	9.959650e+01
2.760000e-06	3.886066e-06	1.427882e-09	2.704618e+01	9.995137e+01
2.770000e-06	3.918685e-06	1.431415e-09	2.727320e+01	1.002912e+02
2.780000e-06	3.951058e-06	1.435371e-09	2.749852e+01	1.006167e+02
2.790000e-06	3.983175e-06	1.442912e-09	2.772204e+01	1.009285e+02
2.800000e-06	4.015037e-06	1.451379e-09	2.794379e+01	1.012275e+02
2.810000e-06	4.046712e-06	1.456875e-09	2.816425e+01	1.015143e+02
2.820000e-06	4.078274e-06	1.462135e-09	2.838391e+01	1.017898e+02
2.830000e-06	4.109678e-06	1.466277e-09	2.860248e+01	1.020549e+02
2.840000e-06	4.140789e-06	1.467212e-09	2.881900e+01	1.023106e+02
2.850000e-06	4.171518e-06	1.467112e-09	2.903287e+01	1.025576e+02
2.860000e-06	4.201932e-06	1.469764e-09	2.924454e+01	1.027969e+02
2.870000e-06	4.232031e-06	1.476293e-09	2.945403e+01	1.030293e+02
2.880000e-06	4.261826e-06	1.483754e-09	2.966139e+01	1.032557e+02
2.890000e-06	4.291367e-06	1.490770e-09	2.986699e+01	1.034769e+02
2.900000e-06	4.320628e-06	1.493901e-09	3.007064e+01	1.036936e+02
