# Temperatura_=_-12.98
# Concentracion g/m^3_=_1620.0
# C_Vs_to_Am_M_A/Vsm_=_65563218390.804596
# pendiente_HvsI_1/m_=_3716.3
# ordenada_HvsI_A/m_=_1297.0
# frecuencia_Hz_=_135106.27328098175

Tiempo_(s)	Campo_(V.s)	Magnetizacion_(V.s)	Campo_(kA/m)	Magnetizacion_(A/m)
0.000000e+00	-5.528480e-06	-9.896182e-10	-3.836930e+01	-6.485627e+01
1.000000e-08	-5.528565e-06	-9.860008e-10	-3.836989e+01	-6.479308e+01
2.000000e-08	-5.528326e-06	-9.862982e-10	-3.836823e+01	-6.473762e+01
3.000000e-08	-5.527674e-06	-9.903031e-10	-3.836371e+01	-6.469061e+01
4.000000e-08	-5.526522e-06	-9.929910e-10	-3.835571e+01	-6.465266e+01
5.000000e-08	-5.524758e-06	-9.893794e-10	-3.834347e+01	-6.462420e+01
6.000000e-08	-5.522373e-06	-9.772947e-10	-3.832691e+01	-6.460549e+01
7.000000e-08	-5.519472e-06	-9.564893e-10	-3.830678e+01	-6.459661e+01
8.000000e-08	-5.516114e-06	-9.812693e-10	-3.828348e+01	-6.459744e+01
9.000000e-08	-5.512326e-06	-1.060103e-09	-3.825718e+01	-6.460770e+01
1.000000e-07	-5.508099e-06	-1.053942e-09	-3.822785e+01	-6.462691e+01
1.100000e-07	-5.503631e-06	-9.229692e-10	-3.819684e+01	-6.465441e+01
1.200000e-07	-5.499078e-06	-8.960209e-10	-3.816524e+01	-6.468938e+01
1.300000e-07	-5.494186e-06	-9.843731e-10	-3.813129e+01	-6.473084e+01
1.400000e-07	-5.488798e-06	-1.066163e-09	-3.809389e+01	-6.477767e+01
1.500000e-07	-5.483044e-06	-9.562333e-10	-3.805396e+01	-6.482863e+01
1.600000e-07	-5.477011e-06	-8.996870e-10	-3.801209e+01	-6.488240e+01
1.700000e-07	-5.470584e-06	-9.588219e-10	-3.796749e+01	-6.493756e+01
1.800000e-07	-5.463608e-06	-1.018258e-09	-3.791907e+01	-6.499268e+01
1.900000e-07	-5.456269e-06	-9.615250e-10	-3.786814e+01	-6.504627e+01
2.000000e-07	-5.448690e-06	-9.122116e-10	-3.781553e+01	-6.509688e+01
2.100000e-07	-5.440794e-06	-9.845418e-10	-3.776073e+01	-6.514308e+01
2.200000e-07	-5.432641e-06	-1.039249e-09	-3.770415e+01	-6.518350e+01
2.300000e-07	-5.424177e-06	-1.010008e-09	-3.764541e+01	-6.521687e+01
2.400000e-07	-5.415167e-06	-9.307978e-10	-3.758287e+01	-6.524201e+01
2.500000e-07	-5.405311e-06	-9.563976e-10	-3.751447e+01	-6.525789e+01
2.600000e-07	-5.394752e-06	-9.948973e-10	-3.744119e+01	-6.526362e+01
2.700000e-07	-5.383809e-06	-1.008380e-09	-3.736524e+01	-6.525850e+01
2.800000e-07	-5.372468e-06	-9.739511e-10	-3.728653e+01	-6.524198e+01
2.900000e-07	-5.360715e-06	-9.946512e-10	-3.720496e+01	-6.521372e+01
3.000000e-07	-5.348560e-06	-9.998221e-10	-3.712060e+01	-6.517357e+01
3.100000e-07	-5.336038e-06	-9.901469e-10	-3.703370e+01	-6.512158e+01
3.200000e-07	-5.323089e-06	-9.455506e-10	-3.694382e+01	-6.505799e+01
3.300000e-07	-5.309739e-06	-9.704631e-10	-3.685117e+01	-6.498324e+01
3.400000e-07	-5.296090e-06	-9.991197e-10	-3.675645e+01	-6.489794e+01
3.500000e-07	-5.281913e-06	-9.884347e-10	-3.665805e+01	-6.480288e+01
3.600000e-07	-5.267124e-06	-9.741881e-10	-3.655541e+01	-6.469900e+01
3.700000e-07	-5.252093e-06	-1.012777e-09	-3.645109e+01	-6.458735e+01
3.800000e-07	-5.236607e-06	-9.908342e-10	-3.634361e+01	-6.446912e+01
3.900000e-07	-5.220363e-06	-9.364514e-10	-3.623087e+01	-6.434558e+01
4.000000e-07	-5.203798e-06	-9.745759e-10	-3.611591e+01	-6.421807e+01
4.100000e-07	-5.186890e-06	-1.019002e-09	-3.599857e+01	-6.408795e+01
4.200000e-07	-5.169562e-06	-9.541669e-10	-3.587831e+01	-6.395661e+01
4.300000e-07	-5.152015e-06	-9.347135e-10	-3.575652e+01	-6.382543e+01
4.400000e-07	-5.134226e-06	-1.018648e-09	-3.563306e+01	-6.369574e+01
4.500000e-07	-5.116002e-06	-9.884405e-10	-3.550658e+01	-6.356883e+01
4.600000e-07	-5.097251e-06	-9.144483e-10	-3.537645e+01	-6.344587e+01
4.700000e-07	-5.078114e-06	-9.661152e-10	-3.524362e+01	-6.332797e+01
4.800000e-07	-5.058699e-06	-1.008591e-09	-3.510888e+01	-6.321608e+01
4.900000e-07	-5.039093e-06	-9.268018e-10	-3.497281e+01	-6.311103e+01
5.000000e-07	-5.019328e-06	-9.437341e-10	-3.483563e+01	-6.301352e+01
5.100000e-07	-4.999340e-06	-1.002888e-09	-3.469691e+01	-6.292405e+01
5.200000e-07	-4.978930e-06	-9.506699e-10	-3.455526e+01	-6.284299e+01
5.300000e-07	-4.958060e-06	-9.198088e-10	-3.441042e+01	-6.277053e+01
5.400000e-07	-4.936867e-06	-1.000130e-09	-3.426333e+01	-6.270672e+01
5.500000e-07	-4.915346e-06	-9.767852e-10	-3.411397e+01	-6.265141e+01
5.600000e-07	-4.893576e-06	-9.201050e-10	-3.396288e+01	-6.260434e+01
5.700000e-07	-4.871558e-06	-9.704473e-10	-3.381007e+01	-6.256508e+01
5.800000e-07	-4.849156e-06	-9.965634e-10	-3.365459e+01	-6.253309e+01
5.900000e-07	-4.826295e-06	-9.305485e-10	-3.349593e+01	-6.250771e+01
6.000000e-07	-4.803081e-06	-9.487052e-10	-3.333482e+01	-6.248820e+01
6.100000e-07	-4.779678e-06	-9.829627e-10	-3.317239e+01	-6.247373e+01
6.200000e-07	-4.756038e-06	-9.427427e-10	-3.300832e+01	-6.246342e+01
6.300000e-07	-4.732163e-06	-9.356571e-10	-3.284262e+01	-6.245636e+01
6.400000e-07	-4.707990e-06	-9.766609e-10	-3.267486e+01	-6.245162e+01
6.500000e-07	-4.683391e-06	-9.520395e-10	-3.250413e+01	-6.244829e+01
6.600000e-07	-4.658398e-06	-9.349318e-10	-3.233067e+01	-6.244548e+01
6.700000e-07	-4.632961e-06	-9.660403e-10	-3.215413e+01	-6.244234e+01
6.800000e-07	-4.606858e-06	-9.581033e-10	-3.197297e+01	-6.243808e+01
6.900000e-07	-4.580134e-06	-9.314313e-10	-3.178750e+01	-6.243201e+01
7.000000e-07	-4.553007e-06	-9.519724e-10	-3.159923e+01	-6.242350e+01
7.100000e-07	-4.525561e-06	-9.609264e-10	-3.140874e+01	-6.241205e+01
7.200000e-07	-4.497927e-06	-9.418472e-10	-3.121695e+01	-6.239724e+01
7.300000e-07	-4.470169e-06	-9.540054e-10	-3.102431e+01	-6.237878e+01
7.400000e-07	-4.442201e-06	-9.603200e-10	-3.083020e+01	-6.235648e+01
7.500000e-07	-4.414022e-06	-9.394559e-10	-3.063463e+01	-6.233029e+01
7.600000e-07	-4.385562e-06	-9.360921e-10	-3.043711e+01	-6.230025e+01
7.700000e-07	-4.356758e-06	-9.495669e-10	-3.023720e+01	-6.226651e+01
7.800000e-07	-4.327601e-06	-9.366398e-10	-3.003484e+01	-6.222930e+01
7.900000e-07	-4.298143e-06	-9.356223e-10	-2.983039e+01	-6.218898e+01
8.000000e-07	-4.268382e-06	-9.459846e-10	-2.962384e+01	-6.214593e+01
8.100000e-07	-4.238253e-06	-9.354694e-10	-2.941474e+01	-6.210064e+01
8.200000e-07	-4.207850e-06	-9.163035e-10	-2.920374e+01	-6.205360e+01
8.300000e-07	-4.177194e-06	-9.268927e-10	-2.899097e+01	-6.200536e+01
8.400000e-07	-4.146239e-06	-9.296925e-10	-2.877613e+01	-6.195646e+01
8.500000e-07	-4.115047e-06	-9.220182e-10	-2.855965e+01	-6.190747e+01
8.600000e-07	-4.083753e-06	-9.260100e-10	-2.834246e+01	-6.185892e+01
8.700000e-07	-4.052242e-06	-9.325099e-10	-2.812377e+01	-6.181129e+01
8.800000e-07	-4.020487e-06	-9.162834e-10	-2.790338e+01	-6.176505e+01
8.900000e-07	-3.988585e-06	-9.084614e-10	-2.768197e+01	-6.172058e+01
9.000000e-07	-3.956396e-06	-9.101330e-10	-2.745857e+01	-6.167821e+01
9.100000e-07	-3.923818e-06	-9.047617e-10	-2.723246e+01	-6.163818e+01
9.200000e-07	-3.890804e-06	-8.996884e-10	-2.700334e+01	-6.160064e+01
9.300000e-07	-3.857344e-06	-9.120514e-10	-2.677112e+01	-6.156567e+01
9.400000e-07	-3.823434e-06	-9.152961e-10	-2.653577e+01	-6.153323e+01
9.500000e-07	-3.789072e-06	-9.046009e-10	-2.629729e+01	-6.150321e+01
9.600000e-07	-3.754348e-06	-9.023283e-10	-2.605630e+01	-6.147539e+01
9.700000e-07	-3.719298e-06	-9.056381e-10	-2.581304e+01	-6.144949e+01
9.800000e-07	-3.684014e-06	-9.005681e-10	-2.556816e+01	-6.142513e+01
9.900000e-07	-3.648576e-06	-8.983974e-10	-2.532221e+01	-6.140186e+01
1.000000e-06	-3.612958e-06	-9.022962e-10	-2.507500e+01	-6.137918e+01
1.010000e-06	-3.577136e-06	-8.996307e-10	-2.482639e+01	-6.135654e+01
1.020000e-06	-3.541163e-06	-8.982039e-10	-2.457673e+01	-6.133334e+01
1.030000e-06	-3.505038e-06	-9.043975e-10	-2.432601e+01	-6.130896e+01
1.040000e-06	-3.468626e-06	-9.079382e-10	-2.407330e+01	-6.128279e+01
1.050000e-06	-3.431974e-06	-9.030054e-10	-2.381893e+01	-6.125420e+01
1.060000e-06	-3.395061e-06	-9.052043e-10	-2.356274e+01	-6.122258e+01
1.070000e-06	-3.357822e-06	-9.072952e-10	-2.330428e+01	-6.118736e+01
1.080000e-06	-3.320358e-06	-9.011947e-10	-2.304427e+01	-6.114800e+01
1.090000e-06	-3.282692e-06	-8.944557e-10	-2.278286e+01	-6.110402e+01
1.100000e-06	-3.244831e-06	-8.949177e-10	-2.252009e+01	-6.105499e+01
1.110000e-06	-3.206750e-06	-8.899954e-10	-2.225580e+01	-6.100057e+01
1.120000e-06	-3.168454e-06	-8.875287e-10	-2.199002e+01	-6.094048e+01
1.130000e-06	-3.129954e-06	-8.913642e-10	-2.172281e+01	-6.087451e+01
1.140000e-06	-3.091199e-06	-8.959483e-10	-2.145384e+01	-6.080254e+01
1.150000e-06	-3.052111e-06	-8.958538e-10	-2.118256e+01	-6.072455e+01
1.160000e-06	-3.012838e-06	-8.961796e-10	-2.090999e+01	-6.064056e+01
1.170000e-06	-2.973497e-06	-8.922922e-10	-2.063695e+01	-6.055070e+01
1.180000e-06	-2.933993e-06	-8.879715e-10	-2.036279e+01	-6.045515e+01
1.190000e-06	-2.894387e-06	-8.876327e-10	-2.008791e+01	-6.035416e+01
1.200000e-06	-2.854679e-06	-8.891558e-10	-1.981233e+01	-6.024801e+01
1.210000e-06	-2.814756e-06	-8.869248e-10	-1.953525e+01	-6.013706e+01
1.220000e-06	-2.774646e-06	-8.874173e-10	-1.925687e+01	-6.002166e+01
1.230000e-06	-2.734354e-06	-8.903510e-10	-1.897723e+01	-5.990220e+01
1.240000e-06	-2.693896e-06	-8.895315e-10	-1.869644e+01	-5.977908e+01
1.250000e-06	-2.653194e-06	-8.843878e-10	-1.841396e+01	-5.965268e+01
1.260000e-06	-2.612240e-06	-8.803236e-10	-1.812972e+01	-5.952336e+01
1.270000e-06	-2.571047e-06	-8.781220e-10	-1.784383e+01	-5.939146e+01
1.280000e-06	-2.529468e-06	-8.750250e-10	-1.755526e+01	-5.925725e+01
1.290000e-06	-2.487628e-06	-8.734136e-10	-1.726488e+01	-5.912097e+01
1.300000e-06	-2.445527e-06	-8.736966e-10	-1.697269e+01	-5.898278e+01
1.310000e-06	-2.403121e-06	-8.718074e-10	-1.667838e+01	-5.884277e+01
1.320000e-06	-2.360511e-06	-8.665860e-10	-1.638265e+01	-5.870095e+01
1.330000e-06	-2.317614e-06	-8.610796e-10	-1.608493e+01	-5.855726e+01
1.340000e-06	-2.274452e-06	-8.572459e-10	-1.578537e+01	-5.841151e+01
1.350000e-06	-2.231133e-06	-8.575025e-10	-1.548473e+01	-5.826346e+01
1.360000e-06	-2.187680e-06	-8.576523e-10	-1.518315e+01	-5.811277e+01
1.370000e-06	-2.144125e-06	-8.558263e-10	-1.488087e+01	-5.795898e+01
1.380000e-06	-2.100453e-06	-8.503030e-10	-1.457777e+01	-5.780159e+01
1.390000e-06	-2.056661e-06	-8.440058e-10	-1.427384e+01	-5.763999e+01
1.400000e-06	-2.012806e-06	-8.374471e-10	-1.396947e+01	-5.747352e+01
1.410000e-06	-1.968881e-06	-8.308290e-10	-1.366462e+01	-5.730141e+01
1.420000e-06	-1.924883e-06	-8.236201e-10	-1.335926e+01	-5.712289e+01
1.430000e-06	-1.880841e-06	-8.205407e-10	-1.305360e+01	-5.693711e+01
1.440000e-06	-1.836698e-06	-8.202129e-10	-1.274723e+01	-5.674317e+01
1.450000e-06	-1.792431e-06	-8.202307e-10	-1.244000e+01	-5.654018e+01
1.460000e-06	-1.748015e-06	-8.157786e-10	-1.213174e+01	-5.632721e+01
1.470000e-06	-1.703485e-06	-8.073339e-10	-1.182269e+01	-5.610333e+01
1.480000e-06	-1.658874e-06	-7.959547e-10	-1.151308e+01	-5.586762e+01
1.490000e-06	-1.614105e-06	-7.824799e-10	-1.120237e+01	-5.561916e+01
1.500000e-06	-1.569047e-06	-7.720426e-10	-1.088965e+01	-5.535707e+01
1.510000e-06	-1.523803e-06	-7.658415e-10	-1.057565e+01	-5.508049e+01
1.520000e-06	-1.478553e-06	-7.632891e-10	-1.026160e+01	-5.478860e+01
1.530000e-06	-1.433206e-06	-7.599556e-10	-9.946874e+00	-5.448063e+01
1.540000e-06	-1.387785e-06	-7.527967e-10	-9.631641e+00	-5.415584e+01
1.550000e-06	-1.342333e-06	-7.434485e-10	-9.316188e+00	-5.381356e+01
1.560000e-06	-1.296742e-06	-7.358371e-10	-8.999773e+00	-5.345315e+01
1.570000e-06	-1.251039e-06	-7.286230e-10	-8.682583e+00	-5.307403e+01
1.580000e-06	-1.205291e-06	-7.202504e-10	-8.365080e+00	-5.267565e+01
1.590000e-06	-1.159387e-06	-7.142138e-10	-8.046494e+00	-5.225754e+01
1.600000e-06	-1.113342e-06	-7.099686e-10	-7.726924e+00	-5.181923e+01
1.610000e-06	-1.067284e-06	-7.065608e-10	-7.407267e+00	-5.136030e+01
1.620000e-06	-1.021219e-06	-7.033609e-10	-7.087563e+00	-5.088037e+01
1.630000e-06	-9.750741e-07	-6.984707e-10	-6.767305e+00	-5.037906e+01
1.640000e-06	-9.287689e-07	-6.904684e-10	-6.445934e+00	-4.985602e+01
1.650000e-06	-8.823711e-07	-6.792641e-10	-6.123919e+00	-4.931089e+01
1.660000e-06	-8.359281e-07	-6.666764e-10	-5.801591e+00	-4.874333e+01
1.670000e-06	-7.894546e-07	-6.534543e-10	-5.479050e+00	-4.815296e+01
1.680000e-06	-7.430050e-07	-6.419006e-10	-5.156676e+00	-4.753941e+01
1.690000e-06	-6.965306e-07	-6.305296e-10	-4.834130e+00	-4.690228e+01
1.700000e-06	-6.499774e-07	-6.170891e-10	-4.511037e+00	-4.624115e+01
1.710000e-06	-6.033412e-07	-6.074097e-10	-4.187368e+00	-4.555555e+01
1.720000e-06	-5.567056e-07	-5.992804e-10	-3.863703e+00	-4.484499e+01
1.730000e-06	-5.100266e-07	-5.880362e-10	-3.539737e+00	-4.410894e+01
1.740000e-06	-4.632502e-07	-5.738776e-10	-3.215094e+00	-4.334684e+01
1.750000e-06	-4.163894e-07	-5.584313e-10	-2.889866e+00	-4.255808e+01
1.760000e-06	-3.694493e-07	-5.430801e-10	-2.564088e+00	-4.174204e+01
1.770000e-06	-3.225628e-07	-5.290110e-10	-2.238682e+00	-4.089806e+01
1.780000e-06	-2.756472e-07	-5.192115e-10	-1.913074e+00	-4.002547e+01
1.790000e-06	-2.286522e-07	-5.107990e-10	-1.586914e+00	-3.912356e+01
1.800000e-06	-1.817080e-07	-5.007124e-10	-1.261108e+00	-3.819165e+01
1.810000e-06	-1.347721e-07	-4.868525e-10	-9.353586e-01	-3.722905e+01
1.820000e-06	-8.783357e-08	-4.710696e-10	-6.095912e-01	-3.623508e+01
1.830000e-06	-4.085509e-08	-4.553575e-10	-2.835465e-01	-3.520912e+01
1.840000e-06	6.058816e-09	-4.404737e-10	4.204999e-02	-3.415057e+01
1.850000e-06	5.292561e-08	-4.262653e-10	3.673195e-01	-3.305888e+01
1.860000e-06	9.987149e-08	-4.116059e-10	6.931380e-01	-3.193360e+01
1.870000e-06	1.468391e-07	-3.958632e-10	1.019107e+00	-3.077434e+01
1.880000e-06	1.938315e-07	-3.791901e-10	1.345248e+00	-2.958082e+01
1.890000e-06	2.408162e-07	-3.609169e-10	1.671336e+00	-2.835289e+01
1.900000e-06	2.877015e-07	-3.408062e-10	1.996734e+00	-2.709048e+01
1.910000e-06	3.344716e-07	-3.194071e-10	2.321332e+00	-2.579371e+01
1.920000e-06	3.812208e-07	-2.997733e-10	2.645786e+00	-2.446281e+01
1.930000e-06	4.279708e-07	-2.836188e-10	2.970245e+00	-2.309818e+01
1.940000e-06	4.746928e-07	-2.666269e-10	3.294509e+00	-2.170039e+01
1.950000e-06	5.214084e-07	-2.484047e-10	3.618730e+00	-2.027016e+01
1.960000e-06	5.681229e-07	-2.294666e-10	3.942942e+00	-1.880841e+01
1.970000e-06	6.147614e-07	-2.073415e-10	4.266627e+00	-1.731621e+01
1.980000e-06	6.613143e-07	-1.848310e-10	4.589718e+00	-1.579482e+01
1.990000e-06	7.077969e-07	-1.599096e-10	4.912322e+00	-1.424569e+01
2.000000e-06	7.542278e-07	-1.355536e-10	5.234566e+00	-1.267039e+01
2.010000e-06	8.006366e-07	-1.134696e-10	5.556657e+00	-1.107071e+01
2.020000e-06	8.469714e-07	-9.169548e-11	5.878234e+00	-9.448562e+00
2.030000e-06	8.932746e-07	-7.024222e-11	6.199592e+00	-7.806007e+00
2.040000e-06	9.395154e-07	-4.810469e-11	6.520517e+00	-6.145244e+00
2.050000e-06	9.856327e-07	-2.449358e-11	6.840585e+00	-4.468589e+00
2.060000e-06	1.031649e-06	1.127683e-12	7.159949e+00	-2.778463e+00
2.070000e-06	1.077555e-06	2.541034e-11	7.478551e+00	-1.077376e+00
2.080000e-06	1.123427e-06	4.888630e-11	7.796915e+00	6.320930e-01
2.090000e-06	1.169261e-06	7.212877e-11	8.115021e+00	2.347313e+00
2.100000e-06	1.215056e-06	9.647254e-11	8.432852e+00	4.065617e+00
2.110000e-06	1.260773e-06	1.213661e-10	8.750139e+00	5.784327e+00
2.120000e-06	1.306362e-06	1.477714e-10	9.066545e+00	7.500768e+00
2.130000e-06	1.351849e-06	1.742287e-10	9.382239e+00	9.212288e+00
2.140000e-06	1.397268e-06	1.972374e-10	9.697454e+00	1.091628e+01
2.150000e-06	1.442617e-06	2.196655e-10	1.001219e+01	1.261020e+01
2.160000e-06	1.487873e-06	2.425655e-10	1.032628e+01	1.429157e+01
2.170000e-06	1.533015e-06	2.636766e-10	1.063958e+01	1.595803e+01
2.180000e-06	1.577993e-06	2.865432e-10	1.095174e+01	1.760731e+01
2.190000e-06	1.622782e-06	3.105821e-10	1.126259e+01	1.923726e+01
2.200000e-06	1.667422e-06	3.359895e-10	1.157241e+01	2.084589e+01
2.210000e-06	1.711978e-06	3.608443e-10	1.188164e+01	2.243133e+01
2.220000e-06	1.756438e-06	3.849757e-10	1.219021e+01	2.399187e+01
2.230000e-06	1.800780e-06	4.059211e-10	1.249795e+01	2.552597e+01
2.240000e-06	1.844957e-06	4.233519e-10	1.280455e+01	2.703223e+01
2.250000e-06	1.889035e-06	4.402704e-10	1.311047e+01	2.850946e+01
2.260000e-06	1.933033e-06	4.568646e-10	1.341582e+01	2.995658e+01
2.270000e-06	1.976933e-06	4.750345e-10	1.372050e+01	3.137273e+01
2.280000e-06	2.020768e-06	4.947530e-10	1.402473e+01	3.275718e+01
2.290000e-06	2.064485e-06	5.155988e-10	1.432814e+01	3.410936e+01
2.300000e-06	2.108155e-06	5.356255e-10	1.463122e+01	3.542886e+01
2.310000e-06	2.151807e-06	5.539360e-10	1.493418e+01	3.671541e+01
2.320000e-06	2.195396e-06	5.707155e-10	1.523671e+01	3.796887e+01
2.330000e-06	2.238928e-06	5.865266e-10	1.553883e+01	3.918922e+01
2.340000e-06	2.282357e-06	6.022537e-10	1.584024e+01	4.037655e+01
2.350000e-06	2.325592e-06	6.178382e-10	1.614030e+01	4.153105e+01
2.360000e-06	2.368610e-06	6.329248e-10	1.643886e+01	4.265299e+01
2.370000e-06	2.411368e-06	6.484950e-10	1.673561e+01	4.374272e+01
2.380000e-06	2.453846e-06	6.617941e-10	1.703042e+01	4.480065e+01
2.390000e-06	2.495982e-06	6.751541e-10	1.732286e+01	4.582720e+01
2.400000e-06	2.537691e-06	6.885765e-10	1.761233e+01	4.682287e+01
2.410000e-06	2.579028e-06	7.009417e-10	1.789922e+01	4.778814e+01
2.420000e-06	2.620068e-06	7.103859e-10	1.818405e+01	4.872353e+01
2.430000e-06	2.660872e-06	7.189059e-10	1.846724e+01	4.962952e+01
2.440000e-06	2.701418e-06	7.283267e-10	1.874865e+01	5.050662e+01
2.450000e-06	2.741727e-06	7.374397e-10	1.902840e+01	5.135527e+01
2.460000e-06	2.781861e-06	7.475144e-10	1.930694e+01	5.217593e+01
2.470000e-06	2.821792e-06	7.583357e-10	1.958408e+01	5.296899e+01
2.480000e-06	2.861512e-06	7.689514e-10	1.985975e+01	5.373483e+01
2.490000e-06	2.901149e-06	7.803876e-10	2.013484e+01	5.447379e+01
2.500000e-06	2.940726e-06	7.907083e-10	2.040952e+01	5.518614e+01
2.510000e-06	2.980198e-06	7.990135e-10	2.068346e+01	5.587215e+01
2.520000e-06	3.019486e-06	8.059298e-10	2.095613e+01	5.653205e+01
2.530000e-06	3.058493e-06	8.112357e-10	2.122685e+01	5.716601e+01
2.540000e-06	3.097318e-06	8.167721e-10	2.149631e+01	5.777422e+01
2.550000e-06	3.135974e-06	8.232857e-10	2.176459e+01	5.835680e+01
2.560000e-06	3.174336e-06	8.308931e-10	2.203084e+01	5.891392e+01
2.570000e-06	3.212438e-06	8.390802e-10	2.229528e+01	5.944569e+01
2.580000e-06	3.250347e-06	8.471936e-10	2.255837e+01	5.995228e+01
2.590000e-06	3.288081e-06	8.550158e-10	2.282026e+01	6.043382e+01
2.600000e-06	3.325617e-06	8.624625e-10	2.308077e+01	6.089053e+01
2.610000e-06	3.362895e-06	8.688769e-10	2.333949e+01	6.132262e+01
2.620000e-06	3.399942e-06	8.751697e-10	2.359661e+01	6.173036e+01
2.630000e-06	3.436711e-06	8.826657e-10	2.385180e+01	6.211409e+01
2.640000e-06	3.473205e-06	8.897077e-10	2.410508e+01	6.247419e+01
2.650000e-06	3.509525e-06	8.949930e-10	2.435715e+01	6.281113e+01
2.660000e-06	3.545600e-06	8.996891e-10	2.460752e+01	6.312544e+01
2.670000e-06	3.581480e-06	9.046600e-10	2.485654e+01	6.341774e+01
2.680000e-06	3.617254e-06	9.093305e-10	2.510482e+01	6.368874e+01
2.690000e-06	3.652888e-06	9.138430e-10	2.535213e+01	6.393921e+01
2.700000e-06	3.688395e-06	9.194068e-10	2.559856e+01	6.417005e+01
2.710000e-06	3.723694e-06	9.240105e-10	2.584355e+01	6.438219e+01
2.720000e-06	3.758686e-06	9.292155e-10	2.608640e+01	6.457667e+01
2.730000e-06	3.793382e-06	9.354831e-10	2.632720e+01	6.475459e+01
2.740000e-06	3.827728e-06	9.408944e-10	2.656557e+01	6.491713e+01
2.750000e-06	3.861607e-06	9.412573e-10	2.680070e+01	6.506550e+01
2.760000e-06	3.894995e-06	9.396945e-10	2.703243e+01	6.520098e+01
2.770000e-06	3.927956e-06	9.397815e-10	2.726119e+01	6.532485e+01
2.780000e-06	3.960530e-06	9.432546e-10	2.748726e+01	6.543844e+01
2.790000e-06	3.992701e-06	9.512291e-10	2.771053e+01	6.554307e+01
2.800000e-06	4.024547e-06	9.585004e-10	2.793155e+01	6.564005e+01
2.810000e-06	4.056289e-06	9.599788e-10	2.815186e+01	6.573065e+01
2.820000e-06	4.087944e-06	9.597631e-10	2.837155e+01	6.581611e+01
2.830000e-06	4.119438e-06	9.614515e-10	2.859013e+01	6.589760e+01
2.840000e-06	4.150686e-06	9.617963e-10	2.880700e+01	6.597625e+01
2.850000e-06	4.181624e-06	9.606134e-10	2.902172e+01	6.605306e+01
2.860000e-06	4.212281e-06	9.606713e-10	2.923448e+01	6.612894e+01
2.870000e-06	4.242556e-06	9.632650e-10	2.944460e+01	6.620471e+01
2.880000e-06	4.272505e-06	9.667575e-10	2.965246e+01	6.628105e+01
2.890000e-06	4.302213e-06	9.714669e-10	2.985864e+01	6.635850e+01
2.900000e-06	4.331619e-06	9.726836e-10	3.006273e+01	6.643748e+01
