# Temperatura_=_12.7
# Concentracion g/m^3_=_1620.0
# C_Vs_to_Am_M_A/Vsm_=_65563218390.804596
# pendiente_HvsI_1/m_=_3716.3
# ordenada_HvsI_A/m_=_1297.0
# frecuencia_Hz_=_135097.29329359892

Tiempo_(s)	Campo_(V.s)	Magnetizacion_(V.s)	Campo_(kA/m)	Magnetizacion_(A/m)
0.000000e+00	-5.527069e-06	-1.681662e-09	-3.837319e+01	-1.090831e+02
1.000000e-08	-5.527200e-06	-1.677791e-09	-3.837410e+01	-1.090266e+02
2.000000e-08	-5.527132e-06	-1.676057e-09	-3.837362e+01	-1.089735e+02
3.000000e-08	-5.526854e-06	-1.676281e-09	-3.837170e+01	-1.089242e+02
4.000000e-08	-5.526175e-06	-1.677250e-09	-3.836698e+01	-1.088791e+02
5.000000e-08	-5.524857e-06	-1.673401e-09	-3.835783e+01	-1.088387e+02
6.000000e-08	-5.522922e-06	-1.656564e-09	-3.834440e+01	-1.088029e+02
7.000000e-08	-5.520293e-06	-1.630516e-09	-3.832615e+01	-1.087721e+02
8.000000e-08	-5.517035e-06	-1.658939e-09	-3.830353e+01	-1.087463e+02
9.000000e-08	-5.513397e-06	-1.773221e-09	-3.827827e+01	-1.087252e+02
1.000000e-07	-5.509385e-06	-1.804572e-09	-3.825042e+01	-1.087088e+02
1.100000e-07	-5.504988e-06	-1.638482e-09	-3.821989e+01	-1.086967e+02
1.200000e-07	-5.500471e-06	-1.531392e-09	-3.818853e+01	-1.086884e+02
1.300000e-07	-5.495716e-06	-1.647172e-09	-3.815551e+01	-1.086835e+02
1.400000e-07	-5.490463e-06	-1.768366e-09	-3.811904e+01	-1.086813e+02
1.500000e-07	-5.484778e-06	-1.681364e-09	-3.807957e+01	-1.086811e+02
1.600000e-07	-5.478759e-06	-1.564346e-09	-3.803778e+01	-1.086820e+02
1.700000e-07	-5.472408e-06	-1.657379e-09	-3.799369e+01	-1.086833e+02
1.800000e-07	-5.465574e-06	-1.752549e-09	-3.794624e+01	-1.086840e+02
1.900000e-07	-5.458392e-06	-1.681617e-09	-3.789638e+01	-1.086831e+02
2.000000e-07	-5.450998e-06	-1.575393e-09	-3.784504e+01	-1.086796e+02
2.100000e-07	-5.443291e-06	-1.640206e-09	-3.779154e+01	-1.086725e+02
2.200000e-07	-5.435215e-06	-1.752842e-09	-3.773547e+01	-1.086607e+02
2.300000e-07	-5.426900e-06	-1.740179e-09	-3.767774e+01	-1.086434e+02
2.400000e-07	-5.418397e-06	-1.657314e-09	-3.761871e+01	-1.086195e+02
2.500000e-07	-5.409155e-06	-1.654120e-09	-3.755454e+01	-1.085880e+02
2.600000e-07	-5.398923e-06	-1.698592e-09	-3.748350e+01	-1.085482e+02
2.700000e-07	-5.388193e-06	-1.695595e-09	-3.740900e+01	-1.084993e+02
2.800000e-07	-5.377015e-06	-1.663661e-09	-3.733140e+01	-1.084404e+02
2.900000e-07	-5.365299e-06	-1.664839e-09	-3.725006e+01	-1.083711e+02
3.000000e-07	-5.353261e-06	-1.691844e-09	-3.716648e+01	-1.082907e+02
3.100000e-07	-5.340922e-06	-1.673028e-09	-3.708081e+01	-1.081989e+02
3.200000e-07	-5.328147e-06	-1.627320e-09	-3.699212e+01	-1.080954e+02
3.300000e-07	-5.314931e-06	-1.628491e-09	-3.690036e+01	-1.079800e+02
3.400000e-07	-5.301435e-06	-1.681666e-09	-3.680666e+01	-1.078525e+02
3.500000e-07	-5.287582e-06	-1.663129e-09	-3.671048e+01	-1.077131e+02
3.600000e-07	-5.273185e-06	-1.630350e-09	-3.661053e+01	-1.075618e+02
3.700000e-07	-5.258361e-06	-1.665929e-09	-3.650761e+01	-1.073989e+02
3.800000e-07	-5.243031e-06	-1.668613e-09	-3.640118e+01	-1.072249e+02
3.900000e-07	-5.226998e-06	-1.584158e-09	-3.628987e+01	-1.070400e+02
4.000000e-07	-5.210486e-06	-1.608085e-09	-3.617523e+01	-1.068449e+02
4.100000e-07	-5.193710e-06	-1.688566e-09	-3.605876e+01	-1.066402e+02
4.200000e-07	-5.176584e-06	-1.620289e-09	-3.593985e+01	-1.064265e+02
4.300000e-07	-5.159151e-06	-1.554847e-09	-3.581882e+01	-1.062045e+02
4.400000e-07	-5.141579e-06	-1.663300e-09	-3.569682e+01	-1.059750e+02
4.500000e-07	-5.123539e-06	-1.676554e-09	-3.557157e+01	-1.057387e+02
4.600000e-07	-5.104953e-06	-1.548943e-09	-3.544254e+01	-1.054966e+02
4.700000e-07	-5.086075e-06	-1.582742e-09	-3.531147e+01	-1.052493e+02
4.800000e-07	-5.066914e-06	-1.676816e-09	-3.517844e+01	-1.049978e+02
4.900000e-07	-5.047495e-06	-1.587786e-09	-3.504361e+01	-1.047427e+02
5.000000e-07	-5.027842e-06	-1.550147e-09	-3.490717e+01	-1.044848e+02
5.100000e-07	-5.007940e-06	-1.648268e-09	-3.476899e+01	-1.042249e+02
5.200000e-07	-4.987744e-06	-1.604837e-09	-3.462878e+01	-1.039636e+02
5.300000e-07	-4.967160e-06	-1.523727e-09	-3.448587e+01	-1.037016e+02
5.400000e-07	-4.946204e-06	-1.612941e-09	-3.434038e+01	-1.034393e+02
5.500000e-07	-4.924868e-06	-1.634990e-09	-3.419225e+01	-1.031774e+02
5.600000e-07	-4.903153e-06	-1.525505e-09	-3.404148e+01	-1.029161e+02
5.700000e-07	-4.881190e-06	-1.554405e-09	-3.388900e+01	-1.026559e+02
5.800000e-07	-4.859026e-06	-1.619862e-09	-3.373512e+01	-1.023971e+02
5.900000e-07	-4.836482e-06	-1.543542e-09	-3.357860e+01	-1.021398e+02
6.000000e-07	-4.813450e-06	-1.517993e-09	-3.341869e+01	-1.018841e+02
6.100000e-07	-4.790060e-06	-1.584997e-09	-3.325630e+01	-1.016303e+02
6.200000e-07	-4.766375e-06	-1.549776e-09	-3.309186e+01	-1.013782e+02
6.300000e-07	-4.742493e-06	-1.502819e-09	-3.292605e+01	-1.011277e+02
6.400000e-07	-4.718492e-06	-1.548220e-09	-3.275942e+01	-1.008788e+02
6.500000e-07	-4.694249e-06	-1.546901e-09	-3.259111e+01	-1.006313e+02
6.600000e-07	-4.669551e-06	-1.499330e-09	-3.241964e+01	-1.003848e+02
6.700000e-07	-4.644331e-06	-1.525640e-09	-3.224454e+01	-1.001392e+02
6.800000e-07	-4.618454e-06	-1.540704e-09	-3.206488e+01	-9.989411e+01
6.900000e-07	-4.591917e-06	-1.500193e-09	-3.188064e+01	-9.964917e+01
7.000000e-07	-4.564965e-06	-1.499166e-09	-3.169352e+01	-9.940399e+01
7.100000e-07	-4.537668e-06	-1.519690e-09	-3.150400e+01	-9.915819e+01
7.200000e-07	-4.510066e-06	-1.495708e-09	-3.131237e+01	-9.891132e+01
7.300000e-07	-4.482325e-06	-1.485633e-09	-3.111977e+01	-9.866297e+01
7.400000e-07	-4.454431e-06	-1.499243e-09	-3.092611e+01	-9.841271e+01
7.500000e-07	-4.426290e-06	-1.484922e-09	-3.073073e+01	-9.816009e+01
7.600000e-07	-4.397908e-06	-1.466131e-09	-3.053368e+01	-9.790470e+01
7.700000e-07	-4.369281e-06	-1.472604e-09	-3.033493e+01	-9.764612e+01
7.800000e-07	-4.340326e-06	-1.464233e-09	-3.013390e+01	-9.738394e+01
7.900000e-07	-4.310989e-06	-1.448069e-09	-2.993022e+01	-9.711779e+01
8.000000e-07	-4.281350e-06	-1.456966e-09	-2.972444e+01	-9.684731e+01
8.100000e-07	-4.251484e-06	-1.454585e-09	-2.951709e+01	-9.657216e+01
8.200000e-07	-4.221344e-06	-1.429099e-09	-2.930784e+01	-9.629204e+01
8.300000e-07	-4.190825e-06	-1.425894e-09	-2.909595e+01	-9.600666e+01
8.400000e-07	-4.159894e-06	-1.433286e-09	-2.888120e+01	-9.571579e+01
8.500000e-07	-4.128652e-06	-1.420503e-09	-2.866430e+01	-9.541922e+01
8.600000e-07	-4.097233e-06	-1.413377e-09	-2.844616e+01	-9.511676e+01
8.700000e-07	-4.065664e-06	-1.416988e-09	-2.822698e+01	-9.480828e+01
8.800000e-07	-4.033956e-06	-1.402779e-09	-2.800685e+01	-9.449366e+01
8.900000e-07	-4.002075e-06	-1.384991e-09	-2.778550e+01	-9.417284e+01
9.000000e-07	-3.969972e-06	-1.388169e-09	-2.756262e+01	-9.384579e+01
9.100000e-07	-3.937601e-06	-1.383027e-09	-2.733787e+01	-9.351250e+01
9.200000e-07	-3.904923e-06	-1.369197e-09	-2.711100e+01	-9.317302e+01
9.300000e-07	-3.871903e-06	-1.371642e-09	-2.688175e+01	-9.282741e+01
9.400000e-07	-3.838418e-06	-1.374834e-09	-2.664927e+01	-9.247577e+01
9.500000e-07	-3.804381e-06	-1.358576e-09	-2.641296e+01	-9.211823e+01
9.600000e-07	-3.769809e-06	-1.349285e-09	-2.617293e+01	-9.175497e+01
9.700000e-07	-3.734838e-06	-1.350761e-09	-2.593014e+01	-9.138615e+01
9.800000e-07	-3.699580e-06	-1.338388e-09	-2.568535e+01	-9.101199e+01
9.900000e-07	-3.664056e-06	-1.322471e-09	-2.543871e+01	-9.063272e+01
1.000000e-06	-3.628336e-06	-1.320853e-09	-2.519071e+01	-9.024859e+01
1.010000e-06	-3.592524e-06	-1.316676e-09	-2.494208e+01	-8.985985e+01
1.020000e-06	-3.556630e-06	-1.307362e-09	-2.469288e+01	-8.946677e+01
1.030000e-06	-3.520615e-06	-1.306096e-09	-2.444284e+01	-8.906963e+01
1.040000e-06	-3.484369e-06	-1.306026e-09	-2.419118e+01	-8.866869e+01
1.050000e-06	-3.447798e-06	-1.294041e-09	-2.393728e+01	-8.826424e+01
1.060000e-06	-3.410976e-06	-1.282581e-09	-2.368163e+01	-8.785652e+01
1.070000e-06	-3.373867e-06	-1.276101e-09	-2.342400e+01	-8.744578e+01
1.080000e-06	-3.336465e-06	-1.264557e-09	-2.316432e+01	-8.703226e+01
1.090000e-06	-3.298846e-06	-1.252442e-09	-2.290314e+01	-8.661616e+01
1.100000e-06	-3.261083e-06	-1.249320e-09	-2.264096e+01	-8.619766e+01
1.110000e-06	-3.223105e-06	-1.243730e-09	-2.237729e+01	-8.577690e+01
1.120000e-06	-3.184799e-06	-1.232525e-09	-2.211134e+01	-8.535400e+01
1.130000e-06	-3.146370e-06	-1.225034e-09	-2.184454e+01	-8.492903e+01
1.140000e-06	-3.107738e-06	-1.219308e-09	-2.157632e+01	-8.450202e+01
1.150000e-06	-3.068725e-06	-1.210371e-09	-2.130547e+01	-8.407295e+01
1.160000e-06	-3.029553e-06	-1.201289e-09	-2.103350e+01	-8.364177e+01
1.170000e-06	-2.990280e-06	-1.196029e-09	-2.076084e+01	-8.320836e+01
1.180000e-06	-2.950789e-06	-1.190140e-09	-2.048666e+01	-8.277257e+01
1.190000e-06	-2.911151e-06	-1.182502e-09	-2.021146e+01	-8.233418e+01
1.200000e-06	-2.871407e-06	-1.176952e-09	-1.993553e+01	-8.189295e+01
1.210000e-06	-2.831547e-06	-1.170358e-09	-1.965879e+01	-8.144857e+01
1.220000e-06	-2.791566e-06	-1.157601e-09	-1.938121e+01	-8.100070e+01
1.230000e-06	-2.751483e-06	-1.150455e-09	-1.910293e+01	-8.054895e+01
1.240000e-06	-2.711250e-06	-1.146200e-09	-1.882360e+01	-8.009290e+01
1.250000e-06	-2.670739e-06	-1.141551e-09	-1.854233e+01	-7.963208e+01
1.260000e-06	-2.629988e-06	-1.137560e-09	-1.825941e+01	-7.916602e+01
1.270000e-06	-2.588990e-06	-1.132900e-09	-1.797477e+01	-7.869421e+01
1.280000e-06	-2.547736e-06	-1.123295e-09	-1.768836e+01	-7.821612e+01
1.290000e-06	-2.506150e-06	-1.110064e-09	-1.739963e+01	-7.773122e+01
1.300000e-06	-2.464214e-06	-1.097381e-09	-1.710848e+01	-7.723896e+01
1.310000e-06	-2.422007e-06	-1.085650e-09	-1.681545e+01	-7.673880e+01
1.320000e-06	-2.379574e-06	-1.077196e-09	-1.652084e+01	-7.623021e+01
1.330000e-06	-2.336805e-06	-1.072645e-09	-1.622391e+01	-7.571266e+01
1.340000e-06	-2.293728e-06	-1.067293e-09	-1.592484e+01	-7.518566e+01
1.350000e-06	-2.250521e-06	-1.058249e-09	-1.562486e+01	-7.464870e+01
1.360000e-06	-2.207117e-06	-1.047515e-09	-1.532351e+01	-7.410134e+01
1.370000e-06	-2.163540e-06	-1.037472e-09	-1.502097e+01	-7.354315e+01
1.380000e-06	-2.119857e-06	-1.025879e-09	-1.471769e+01	-7.297372e+01
1.390000e-06	-2.076071e-06	-1.013722e-09	-1.441369e+01	-7.239270e+01
1.400000e-06	-2.032157e-06	-1.003648e-09	-1.410881e+01	-7.179974e+01
1.410000e-06	-1.988165e-06	-9.933894e-10	-1.380338e+01	-7.119454e+01
1.420000e-06	-1.944133e-06	-9.825431e-10	-1.349768e+01	-7.057685e+01
1.430000e-06	-1.900015e-06	-9.701548e-10	-1.319138e+01	-6.994642e+01
1.440000e-06	-1.855735e-06	-9.596365e-10	-1.288395e+01	-6.930302e+01
1.450000e-06	-1.811396e-06	-9.491265e-10	-1.257611e+01	-6.864648e+01
1.460000e-06	-1.767093e-06	-9.375731e-10	-1.226853e+01	-6.797660e+01
1.470000e-06	-1.722660e-06	-9.242830e-10	-1.196004e+01	-6.729322e+01
1.480000e-06	-1.677995e-06	-9.105430e-10	-1.164994e+01	-6.659617e+01
1.490000e-06	-1.633205e-06	-8.957693e-10	-1.133897e+01	-6.588527e+01
1.500000e-06	-1.588356e-06	-8.784774e-10	-1.102759e+01	-6.516035e+01
1.510000e-06	-1.543326e-06	-8.633376e-10	-1.071497e+01	-6.442119e+01
1.520000e-06	-1.498102e-06	-8.519814e-10	-1.040099e+01	-6.366756e+01
1.530000e-06	-1.452769e-06	-8.422359e-10	-1.008625e+01	-6.289919e+01
1.540000e-06	-1.407384e-06	-8.322999e-10	-9.771146e+00	-6.211577e+01
1.550000e-06	-1.361954e-06	-8.196641e-10	-9.455741e+00	-6.131694e+01
1.560000e-06	-1.316434e-06	-8.047022e-10	-9.139703e+00	-6.050228e+01
1.570000e-06	-1.270813e-06	-7.907434e-10	-8.822967e+00	-5.967131e+01
1.580000e-06	-1.225056e-06	-7.777016e-10	-8.505285e+00	-5.882348e+01
1.590000e-06	-1.179196e-06	-7.623214e-10	-8.186888e+00	-5.795818e+01
1.600000e-06	-1.133336e-06	-7.462016e-10	-7.868499e+00	-5.707473e+01
1.610000e-06	-1.087410e-06	-7.337192e-10	-7.549644e+00	-5.617237e+01
1.620000e-06	-1.041365e-06	-7.256711e-10	-7.229961e+00	-5.525027e+01
1.630000e-06	-9.952365e-07	-7.183024e-10	-6.909702e+00	-5.430755e+01
1.640000e-06	-9.490636e-07	-7.075068e-10	-6.589134e+00	-5.334324e+01
1.650000e-06	-9.028566e-07	-6.912762e-10	-6.268329e+00	-5.235633e+01
1.660000e-06	-8.566353e-07	-6.717316e-10	-5.947425e+00	-5.134574e+01
1.670000e-06	-8.103122e-07	-6.508576e-10	-5.625814e+00	-5.031037e+01
1.680000e-06	-7.638859e-07	-6.299318e-10	-5.303487e+00	-4.924907e+01
1.690000e-06	-7.174000e-07	-6.112284e-10	-4.980746e+00	-4.816066e+01
1.700000e-06	-6.708332e-07	-5.935913e-10	-4.657443e+00	-4.704395e+01
1.710000e-06	-6.242822e-07	-5.777377e-10	-4.334250e+00	-4.589777e+01
1.720000e-06	-5.777171e-07	-5.625153e-10	-4.010959e+00	-4.472093e+01
1.730000e-06	-5.310651e-07	-5.450969e-10	-3.687065e+00	-4.351228e+01
1.740000e-06	-4.842979e-07	-5.250745e-10	-3.362371e+00	-4.227072e+01
1.750000e-06	-4.374930e-07	-5.047179e-10	-3.037415e+00	-4.099520e+01
1.760000e-06	-3.907042e-07	-4.833241e-10	-2.712571e+00	-3.968472e+01
1.770000e-06	-3.439167e-07	-4.620149e-10	-2.387736e+00	-3.833838e+01
1.780000e-06	-2.971274e-07	-4.415183e-10	-2.062889e+00	-3.695537e+01
1.790000e-06	-2.503539e-07	-4.213357e-10	-1.738151e+00	-3.553500e+01
1.800000e-06	-2.035649e-07	-4.018262e-10	-1.413305e+00	-3.407668e+01
1.810000e-06	-1.567375e-07	-3.826463e-10	-1.088193e+00	-3.257996e+01
1.820000e-06	-1.099539e-07	-3.625039e-10	-7.633851e-01	-3.104454e+01
1.830000e-06	-6.314636e-08	-3.410902e-10	-4.384109e-01	-2.947025e+01
1.840000e-06	-1.630708e-08	-3.186317e-10	-1.132164e-01	-2.785710e+01
1.850000e-06	3.057806e-08	-2.971243e-10	2.122966e-01	-2.620524e+01
1.860000e-06	7.744553e-08	-2.754131e-10	5.376868e-01	-2.451501e+01
1.870000e-06	1.242345e-07	-2.507154e-10	8.625318e-01	-2.278690e+01
1.880000e-06	1.711012e-07	-2.259525e-10	1.187917e+00	-2.102159e+01
1.890000e-06	2.180041e-07	-1.983616e-10	1.513553e+00	-1.921992e+01
1.900000e-06	2.649335e-07	-1.726254e-10	1.839373e+00	-1.738291e+01
1.910000e-06	3.118511e-07	-1.488292e-10	2.165112e+00	-1.551174e+01
1.920000e-06	3.586963e-07	-1.250444e-10	2.490347e+00	-1.360776e+01
1.930000e-06	4.054641e-07	-9.815153e-11	2.815045e+00	-1.167246e+01
1.940000e-06	4.521656e-07	-6.854413e-11	3.139284e+00	-9.707522e+00
1.950000e-06	4.988946e-07	-3.892300e-11	3.463712e+00	-7.714730e+00
1.960000e-06	5.455569e-07	-8.708392e-12	3.787678e+00	-5.696023e+00
1.970000e-06	5.921254e-07	1.902425e-11	4.110993e+00	-3.653463e+00
1.980000e-06	6.386118e-07	4.340912e-11	4.433737e+00	-1.589227e+00
1.990000e-06	6.850361e-07	6.731454e-11	4.756051e+00	4.944049e-01
2.000000e-06	7.315713e-07	9.697926e-11	5.079134e+00	2.595059e+00
2.010000e-06	7.780849e-07	1.300400e-10	5.402067e+00	4.710280e+00
2.020000e-06	8.244245e-07	1.633967e-10	5.723793e+00	6.837544e+00
2.030000e-06	8.706770e-07	1.981409e-10	6.044913e+00	8.974270e+00
2.040000e-06	9.168284e-07	2.306610e-10	6.365332e+00	1.111783e+01
2.050000e-06	9.628180e-07	2.593502e-10	6.684628e+00	1.326558e+01
2.060000e-06	1.008804e-06	2.863718e-10	7.003897e+00	1.541483e+01
2.070000e-06	1.054846e-06	3.122981e-10	7.323558e+00	1.756291e+01
2.080000e-06	1.100813e-06	3.405820e-10	7.642695e+00	1.970713e+01
2.090000e-06	1.146681e-06	3.712018e-10	7.961148e+00	2.184484e+01
2.100000e-06	1.192467e-06	4.055936e-10	8.279030e+00	2.397340e+01
2.110000e-06	1.238182e-06	4.406695e-10	8.596419e+00	2.609022e+01
2.120000e-06	1.283800e-06	4.730076e-10	8.913132e+00	2.819277e+01
2.130000e-06	1.329355e-06	5.014920e-10	9.229410e+00	3.027856e+01
2.140000e-06	1.374791e-06	5.273247e-10	9.544863e+00	3.234518e+01
2.150000e-06	1.420063e-06	5.502542e-10	9.859174e+00	3.439031e+01
2.160000e-06	1.465265e-06	5.730480e-10	1.017301e+01	3.641173e+01
2.170000e-06	1.510446e-06	5.994415e-10	1.048669e+01	3.840729e+01
2.180000e-06	1.555527e-06	6.289887e-10	1.079967e+01	4.037498e+01
2.190000e-06	1.600361e-06	6.606676e-10	1.111095e+01	4.231288e+01
2.200000e-06	1.645024e-06	6.919883e-10	1.142103e+01	4.421923e+01
2.210000e-06	1.689584e-06	7.208958e-10	1.173040e+01	4.609237e+01
2.220000e-06	1.734011e-06	7.459656e-10	1.203884e+01	4.793079e+01
2.230000e-06	1.778330e-06	7.675212e-10	1.234654e+01	4.973312e+01
2.240000e-06	1.822574e-06	7.863269e-10	1.265372e+01	5.149815e+01
2.250000e-06	1.866709e-06	8.035313e-10	1.296014e+01	5.322481e+01
2.260000e-06	1.910739e-06	8.234920e-10	1.326583e+01	5.491220e+01
2.270000e-06	1.954732e-06	8.493626e-10	1.357126e+01	5.655955e+01
2.280000e-06	1.998654e-06	8.759616e-10	1.387620e+01	5.816627e+01
2.290000e-06	2.042482e-06	8.976708e-10	1.418049e+01	5.973194e+01
2.300000e-06	2.086260e-06	9.163526e-10	1.448443e+01	6.125627e+01
2.310000e-06	2.129941e-06	9.353177e-10	1.478770e+01	6.273914e+01
2.320000e-06	2.173556e-06	9.529497e-10	1.509051e+01	6.418058e+01
2.330000e-06	2.217143e-06	9.711914e-10	1.539313e+01	6.558078e+01
2.340000e-06	2.260600e-06	9.902805e-10	1.569483e+01	6.694005e+01
2.350000e-06	2.303871e-06	1.007317e-09	1.599526e+01	6.825884e+01
2.360000e-06	2.346906e-06	1.024224e-09	1.629404e+01	6.953776e+01
2.370000e-06	2.389618e-06	1.041514e-09	1.659058e+01	7.077749e+01
2.380000e-06	2.431986e-06	1.056924e-09	1.688473e+01	7.197884e+01
2.390000e-06	2.474089e-06	1.071806e-09	1.717704e+01	7.314274e+01
2.400000e-06	2.515894e-06	1.086423e-09	1.746728e+01	7.427017e+01
2.410000e-06	2.557259e-06	1.101424e-09	1.775447e+01	7.536221e+01
2.420000e-06	2.598315e-06	1.114737e-09	1.803951e+01	7.641998e+01
2.430000e-06	2.639151e-06	1.125812e-09	1.832303e+01	7.744467e+01
2.440000e-06	2.679676e-06	1.136470e-09	1.860438e+01	7.843749e+01
2.450000e-06	2.719951e-06	1.146919e-09	1.888401e+01	7.939967e+01
2.460000e-06	2.760077e-06	1.158638e-09	1.916259e+01	8.033246e+01
2.470000e-06	2.800080e-06	1.171729e-09	1.944032e+01	8.123709e+01
2.480000e-06	2.839963e-06	1.182622e-09	1.971722e+01	8.211479e+01
2.490000e-06	2.879806e-06	1.191035e-09	1.999385e+01	8.296675e+01
2.500000e-06	2.919583e-06	1.201805e-09	2.027000e+01	8.379412e+01
2.510000e-06	2.959180e-06	1.214383e-09	2.054491e+01	8.459800e+01
2.520000e-06	2.998559e-06	1.225318e-09	2.081832e+01	8.537944e+01
2.530000e-06	3.037744e-06	1.233136e-09	2.109037e+01	8.613942e+01
2.540000e-06	3.076765e-06	1.240098e-09	2.136128e+01	8.687885e+01
2.550000e-06	3.115588e-06	1.247604e-09	2.163082e+01	8.759857e+01
2.560000e-06	3.154078e-06	1.255075e-09	2.189805e+01	8.829932e+01
2.570000e-06	3.192278e-06	1.264276e-09	2.216326e+01	8.898178e+01
2.580000e-06	3.230345e-06	1.275412e-09	2.242756e+01	8.964657e+01
2.590000e-06	3.268231e-06	1.285909e-09	2.269059e+01	9.029419e+01
2.600000e-06	3.305885e-06	1.294381e-09	2.295201e+01	9.092509e+01
2.610000e-06	3.343342e-06	1.303626e-09	2.321207e+01	9.153965e+01
2.620000e-06	3.380543e-06	1.313997e-09	2.347034e+01	9.213820e+01
2.630000e-06	3.417433e-06	1.323475e-09	2.372647e+01	9.272099e+01
2.640000e-06	3.454063e-06	1.333016e-09	2.398078e+01	9.328823e+01
2.650000e-06	3.490448e-06	1.342397e-09	2.423339e+01	9.384010e+01
2.660000e-06	3.526617e-06	1.350176e-09	2.448451e+01	9.437674e+01
2.670000e-06	3.562624e-06	1.357128e-09	2.473449e+01	9.489827e+01
2.680000e-06	3.598495e-06	1.365069e-09	2.498354e+01	9.540482e+01
2.690000e-06	3.634264e-06	1.372372e-09	2.523187e+01	9.589648e+01
2.700000e-06	3.669918e-06	1.378725e-09	2.547941e+01	9.637339e+01
2.710000e-06	3.705474e-06	1.385520e-09	2.572627e+01	9.683568e+01
2.720000e-06	3.740806e-06	1.394193e-09	2.597157e+01	9.728351e+01
2.730000e-06	3.775707e-06	1.402522e-09	2.621388e+01	9.771708e+01
2.740000e-06	3.810234e-06	1.408931e-09	2.645359e+01	9.813662e+01
2.750000e-06	3.844351e-06	1.414259e-09	2.669046e+01	9.854240e+01
2.760000e-06	3.877916e-06	1.419206e-09	2.692349e+01	9.893475e+01
2.770000e-06	3.910992e-06	1.423709e-09	2.715313e+01	9.931403e+01
2.780000e-06	3.943637e-06	1.429590e-09	2.737978e+01	9.968066e+01
2.790000e-06	3.975899e-06	1.439678e-09	2.760377e+01	1.000351e+02
2.800000e-06	4.007921e-06	1.449959e-09	2.782609e+01	1.003779e+02
2.810000e-06	4.039778e-06	1.457659e-09	2.804727e+01	1.007095e+02
2.820000e-06	4.071542e-06	1.464419e-09	2.826779e+01	1.010306e+02
2.830000e-06	4.103123e-06	1.470799e-09	2.848706e+01	1.013418e+02
2.840000e-06	4.134445e-06	1.474733e-09	2.870452e+01	1.016437e+02
2.850000e-06	4.165456e-06	1.475610e-09	2.891982e+01	1.019369e+02
2.860000e-06	4.196117e-06	1.475029e-09	2.913269e+01	1.022222e+02
2.870000e-06	4.226504e-06	1.477155e-09	2.934366e+01	1.025002e+02
2.880000e-06	4.256590e-06	1.483998e-09	2.955254e+01	1.027714e+02
2.890000e-06	4.286378e-06	1.491940e-09	2.975935e+01	1.030366e+02
2.900000e-06	4.315851e-06	1.498146e-09	2.996397e+01	1.032963e+02
