# Temperatura_=_-16.72
# Concentracion g/m^3_=_1620.0
# C_Vs_to_Am_M_A/Vsm_=_65563218390.804596
# pendiente_HvsI_1/m_=_3716.3
# ordenada_HvsI_A/m_=_1297.0
# frecuencia_Hz_=_135105.65787724082

Tiempo_(s)	Campo_(V.s)	Magnetizacion_(V.s)	Campo_(kA/m)	Magnetizacion_(A/m)
0.000000e+00	-5.539452e-06	-9.172224e-10	-3.837422e+01	-6.025994e+01
1.000000e-08	-5.539847e-06	-9.129930e-10	-3.837696e+01	-6.025736e+01
2.000000e-08	-5.539982e-06	-9.094589e-10	-3.837790e+01	-6.025866e+01
3.000000e-08	-5.539793e-06	-9.082817e-10	-3.837659e+01	-6.026371e+01
4.000000e-08	-5.539076e-06	-9.090611e-10	-3.837162e+01	-6.027235e+01
5.000000e-08	-5.537714e-06	-9.095358e-10	-3.836219e+01	-6.028436e+01
6.000000e-08	-5.535813e-06	-9.043801e-10	-3.834901e+01	-6.029945e+01
7.000000e-08	-5.533314e-06	-8.964740e-10	-3.833171e+01	-6.031728e+01
8.000000e-08	-5.530242e-06	-9.033145e-10	-3.831042e+01	-6.033747e+01
9.000000e-08	-5.526702e-06	-9.386130e-10	-3.828590e+01	-6.035960e+01
1.000000e-07	-5.522716e-06	-9.658856e-10	-3.825829e+01	-6.038319e+01
1.100000e-07	-5.518381e-06	-9.445628e-10	-3.822826e+01	-6.040775e+01
1.200000e-07	-5.513833e-06	-8.796622e-10	-3.819675e+01	-6.043273e+01
1.300000e-07	-5.509132e-06	-8.684282e-10	-3.816419e+01	-6.045761e+01
1.400000e-07	-5.504128e-06	-8.971993e-10	-3.812952e+01	-6.048180e+01
1.500000e-07	-5.498704e-06	-9.288922e-10	-3.809194e+01	-6.050477e+01
1.600000e-07	-5.492900e-06	-8.896124e-10	-3.805174e+01	-6.052594e+01
1.700000e-07	-5.486750e-06	-8.766555e-10	-3.800914e+01	-6.054480e+01
1.800000e-07	-5.480160e-06	-9.034902e-10	-3.796349e+01	-6.056082e+01
1.900000e-07	-5.473094e-06	-9.290741e-10	-3.791454e+01	-6.057353e+01
2.000000e-07	-5.465715e-06	-9.024019e-10	-3.786342e+01	-6.058251e+01
2.100000e-07	-5.458089e-06	-8.852674e-10	-3.781059e+01	-6.058736e+01
2.200000e-07	-5.450196e-06	-9.291548e-10	-3.775591e+01	-6.058777e+01
2.300000e-07	-5.442012e-06	-9.605581e-10	-3.769922e+01	-6.058348e+01
2.400000e-07	-5.433496e-06	-9.330635e-10	-3.764023e+01	-6.057430e+01
2.500000e-07	-5.424433e-06	-8.874069e-10	-3.757744e+01	-6.056010e+01
2.600000e-07	-5.414652e-06	-9.041048e-10	-3.750968e+01	-6.054087e+01
2.700000e-07	-5.404250e-06	-9.130960e-10	-3.743762e+01	-6.051662e+01
2.800000e-07	-5.393342e-06	-9.103500e-10	-3.736206e+01	-6.048749e+01
2.900000e-07	-5.381898e-06	-8.870609e-10	-3.728278e+01	-6.045365e+01
3.000000e-07	-5.370042e-06	-9.023305e-10	-3.720065e+01	-6.041540e+01
3.100000e-07	-5.357877e-06	-8.991544e-10	-3.711638e+01	-6.037305e+01
3.200000e-07	-5.345259e-06	-8.924922e-10	-3.702897e+01	-6.032703e+01
3.300000e-07	-5.332169e-06	-8.787033e-10	-3.693828e+01	-6.027779e+01
3.400000e-07	-5.318728e-06	-8.922417e-10	-3.684517e+01	-6.022586e+01
3.500000e-07	-5.304944e-06	-8.898940e-10	-3.674969e+01	-6.017180e+01
3.600000e-07	-5.290699e-06	-8.851648e-10	-3.665100e+01	-6.011621e+01
3.700000e-07	-5.275983e-06	-8.827605e-10	-3.654906e+01	-6.005972e+01
3.800000e-07	-5.260832e-06	-8.989328e-10	-3.644410e+01	-6.000297e+01
3.900000e-07	-5.245090e-06	-8.959663e-10	-3.633505e+01	-5.994660e+01
4.000000e-07	-5.228705e-06	-8.961055e-10	-3.622155e+01	-5.989127e+01
4.100000e-07	-5.211960e-06	-9.027222e-10	-3.610555e+01	-5.983760e+01
4.200000e-07	-5.194967e-06	-9.026528e-10	-3.598783e+01	-5.978620e+01
4.300000e-07	-5.177600e-06	-8.906791e-10	-3.586752e+01	-5.973765e+01
4.400000e-07	-5.159865e-06	-8.914173e-10	-3.574466e+01	-5.969247e+01
4.500000e-07	-5.141825e-06	-9.079506e-10	-3.561969e+01	-5.965114e+01
4.600000e-07	-5.123403e-06	-9.014044e-10	-3.549207e+01	-5.961409e+01
4.700000e-07	-5.104586e-06	-8.942660e-10	-3.536172e+01	-5.958167e+01
4.800000e-07	-5.085453e-06	-8.931119e-10	-3.522917e+01	-5.955416e+01
4.900000e-07	-5.066024e-06	-8.989830e-10	-3.509458e+01	-5.953179e+01
5.000000e-07	-5.046345e-06	-8.924669e-10	-3.495826e+01	-5.951469e+01
5.100000e-07	-5.026456e-06	-8.997042e-10	-3.482048e+01	-5.950291e+01
5.200000e-07	-5.006335e-06	-8.953656e-10	-3.468109e+01	-5.949644e+01
5.300000e-07	-4.985929e-06	-8.947498e-10	-3.453973e+01	-5.949519e+01
5.400000e-07	-4.965138e-06	-8.998824e-10	-3.439570e+01	-5.949899e+01
5.500000e-07	-4.943854e-06	-9.110653e-10	-3.424826e+01	-5.950760e+01
5.600000e-07	-4.922178e-06	-8.989862e-10	-3.409810e+01	-5.952072e+01
5.700000e-07	-4.900220e-06	-8.976329e-10	-3.394598e+01	-5.953797e+01
5.800000e-07	-4.877933e-06	-9.049639e-10	-3.379159e+01	-5.955895e+01
5.900000e-07	-4.855328e-06	-9.121025e-10	-3.363499e+01	-5.958319e+01
6.000000e-07	-4.832394e-06	-9.062750e-10	-3.347612e+01	-5.961019e+01
6.100000e-07	-4.809114e-06	-9.083030e-10	-3.331485e+01	-5.963943e+01
6.200000e-07	-4.785570e-06	-9.026009e-10	-3.315175e+01	-5.967034e+01
6.300000e-07	-4.761835e-06	-8.980461e-10	-3.298733e+01	-5.970236e+01
6.400000e-07	-4.737898e-06	-8.972313e-10	-3.282151e+01	-5.973493e+01
6.500000e-07	-4.713598e-06	-8.980507e-10	-3.265317e+01	-5.976749e+01
6.600000e-07	-4.688840e-06	-8.941608e-10	-3.248166e+01	-5.979950e+01
6.700000e-07	-4.663610e-06	-9.000720e-10	-3.230688e+01	-5.983042e+01
6.800000e-07	-4.637818e-06	-9.047038e-10	-3.212821e+01	-5.985976e+01
6.900000e-07	-4.611492e-06	-9.012972e-10	-3.194584e+01	-5.988706e+01
7.000000e-07	-4.584655e-06	-9.008110e-10	-3.175993e+01	-5.991190e+01
7.100000e-07	-4.557406e-06	-9.038065e-10	-3.157116e+01	-5.993391e+01
7.200000e-07	-4.529929e-06	-8.995875e-10	-3.138081e+01	-5.995278e+01
7.300000e-07	-4.502278e-06	-8.957166e-10	-3.118927e+01	-5.996821e+01
7.400000e-07	-4.474450e-06	-9.013250e-10	-3.099648e+01	-5.998002e+01
7.500000e-07	-4.446462e-06	-9.010056e-10	-3.080260e+01	-5.998803e+01
7.600000e-07	-4.418227e-06	-8.984187e-10	-3.060700e+01	-5.999214e+01
7.700000e-07	-4.389623e-06	-8.975387e-10	-3.040886e+01	-5.999232e+01
7.800000e-07	-4.360635e-06	-8.974636e-10	-3.020804e+01	-5.998855e+01
7.900000e-07	-4.331296e-06	-8.926120e-10	-3.000480e+01	-5.998091e+01
8.000000e-07	-4.301654e-06	-8.937627e-10	-2.979945e+01	-5.996949e+01
8.100000e-07	-4.271780e-06	-8.926690e-10	-2.959251e+01	-5.995443e+01
8.200000e-07	-4.241668e-06	-8.886051e-10	-2.938391e+01	-5.993592e+01
8.300000e-07	-4.211267e-06	-8.820373e-10	-2.917331e+01	-5.991418e+01
8.400000e-07	-4.180568e-06	-8.828874e-10	-2.896064e+01	-5.988944e+01
8.500000e-07	-4.149509e-06	-8.804709e-10	-2.874548e+01	-5.986197e+01
8.600000e-07	-4.118137e-06	-8.805268e-10	-2.852815e+01	-5.983205e+01
8.700000e-07	-4.086613e-06	-8.795164e-10	-2.830977e+01	-5.979995e+01
8.800000e-07	-4.054983e-06	-8.803102e-10	-2.809065e+01	-5.976598e+01
8.900000e-07	-4.023203e-06	-8.763778e-10	-2.787050e+01	-5.973042e+01
9.000000e-07	-3.991235e-06	-8.749704e-10	-2.764905e+01	-5.969356e+01
9.100000e-07	-3.958986e-06	-8.709247e-10	-2.742564e+01	-5.965565e+01
9.200000e-07	-3.926390e-06	-8.660072e-10	-2.719983e+01	-5.961696e+01
9.300000e-07	-3.893279e-06	-8.652646e-10	-2.697046e+01	-5.957772e+01
9.400000e-07	-3.859616e-06	-8.695775e-10	-2.673726e+01	-5.953813e+01
9.500000e-07	-3.825513e-06	-8.694749e-10	-2.650101e+01	-5.949838e+01
9.600000e-07	-3.790989e-06	-8.677849e-10	-2.626185e+01	-5.945863e+01
9.700000e-07	-3.756060e-06	-8.674423e-10	-2.601988e+01	-5.941900e+01
9.800000e-07	-3.720792e-06	-8.672837e-10	-2.577557e+01	-5.937959e+01
9.900000e-07	-3.685357e-06	-8.646982e-10	-2.553009e+01	-5.934046e+01
1.000000e-06	-3.649773e-06	-8.641914e-10	-2.528358e+01	-5.930166e+01
1.010000e-06	-3.614063e-06	-8.643615e-10	-2.503621e+01	-5.926318e+01
1.020000e-06	-3.578231e-06	-8.626960e-10	-2.478798e+01	-5.922502e+01
1.030000e-06	-3.542208e-06	-8.623650e-10	-2.453844e+01	-5.918712e+01
1.040000e-06	-3.505970e-06	-8.623749e-10	-2.428740e+01	-5.914942e+01
1.050000e-06	-3.469377e-06	-8.616967e-10	-2.403390e+01	-5.911183e+01
1.060000e-06	-3.432431e-06	-8.579872e-10	-2.377796e+01	-5.907424e+01
1.070000e-06	-3.395337e-06	-8.586925e-10	-2.352100e+01	-5.903652e+01
1.080000e-06	-3.358053e-06	-8.598726e-10	-2.326271e+01	-5.899856e+01
1.090000e-06	-3.320503e-06	-8.595135e-10	-2.300259e+01	-5.896019e+01
1.100000e-06	-3.282768e-06	-8.568714e-10	-2.274118e+01	-5.892126e+01
1.110000e-06	-3.244841e-06	-8.539740e-10	-2.247845e+01	-5.888162e+01
1.120000e-06	-3.206757e-06	-8.482158e-10	-2.221462e+01	-5.884110e+01
1.130000e-06	-3.168422e-06	-8.454833e-10	-2.194905e+01	-5.879954e+01
1.140000e-06	-3.129819e-06	-8.442509e-10	-2.168163e+01	-5.875677e+01
1.150000e-06	-3.090970e-06	-8.461458e-10	-2.141251e+01	-5.871265e+01
1.160000e-06	-3.051859e-06	-8.481633e-10	-2.114158e+01	-5.866700e+01
1.170000e-06	-3.012557e-06	-8.493643e-10	-2.086931e+01	-5.861967e+01
1.180000e-06	-2.973081e-06	-8.487616e-10	-2.059584e+01	-5.857052e+01
1.190000e-06	-2.933452e-06	-8.504360e-10	-2.032131e+01	-5.851939e+01
1.200000e-06	-2.893665e-06	-8.515814e-10	-2.004570e+01	-5.846614e+01
1.210000e-06	-2.853793e-06	-8.506457e-10	-1.976948e+01	-5.841062e+01
1.220000e-06	-2.813855e-06	-8.476006e-10	-1.949281e+01	-5.835270e+01
1.230000e-06	-2.773773e-06	-8.465677e-10	-1.921515e+01	-5.829223e+01
1.240000e-06	-2.733455e-06	-8.452465e-10	-1.893585e+01	-5.822906e+01
1.250000e-06	-2.692877e-06	-8.435799e-10	-1.865475e+01	-5.816305e+01
1.260000e-06	-2.652089e-06	-8.418295e-10	-1.837219e+01	-5.809405e+01
1.270000e-06	-2.611021e-06	-8.386002e-10	-1.808770e+01	-5.802189e+01
1.280000e-06	-2.569603e-06	-8.350613e-10	-1.780077e+01	-5.794641e+01
1.290000e-06	-2.527886e-06	-8.318813e-10	-1.751178e+01	-5.786743e+01
1.300000e-06	-2.485966e-06	-8.290578e-10	-1.722138e+01	-5.778476e+01
1.310000e-06	-2.443783e-06	-8.255531e-10	-1.692916e+01	-5.769818e+01
1.320000e-06	-2.401177e-06	-8.226200e-10	-1.663401e+01	-5.760749e+01
1.330000e-06	-2.358226e-06	-8.203102e-10	-1.633647e+01	-5.751245e+01
1.340000e-06	-2.315021e-06	-8.185620e-10	-1.603717e+01	-5.741279e+01
1.350000e-06	-2.271672e-06	-8.182910e-10	-1.573687e+01	-5.730825e+01
1.360000e-06	-2.228229e-06	-8.215802e-10	-1.543592e+01	-5.719854e+01
1.370000e-06	-2.184626e-06	-8.235628e-10	-1.513386e+01	-5.708335e+01
1.380000e-06	-2.140930e-06	-8.214098e-10	-1.483117e+01	-5.696235e+01
1.390000e-06	-2.097188e-06	-8.167622e-10	-1.452815e+01	-5.683520e+01
1.400000e-06	-2.053427e-06	-8.119135e-10	-1.422499e+01	-5.670152e+01
1.410000e-06	-2.009597e-06	-8.065722e-10	-1.392137e+01	-5.656094e+01
1.420000e-06	-1.965610e-06	-8.017871e-10	-1.361665e+01	-5.641305e+01
1.430000e-06	-1.921529e-06	-7.981905e-10	-1.331128e+01	-5.625743e+01
1.440000e-06	-1.877375e-06	-7.982480e-10	-1.300540e+01	-5.609367e+01
1.450000e-06	-1.833132e-06	-7.961930e-10	-1.269891e+01	-5.592130e+01
1.460000e-06	-1.788774e-06	-7.912604e-10	-1.239162e+01	-5.573987e+01
1.470000e-06	-1.744239e-06	-7.849720e-10	-1.208311e+01	-5.554892e+01
1.480000e-06	-1.699588e-06	-7.783105e-10	-1.177380e+01	-5.534794e+01
1.490000e-06	-1.654786e-06	-7.709168e-10	-1.146343e+01	-5.513646e+01
1.500000e-06	-1.609820e-06	-7.628196e-10	-1.115193e+01	-5.491397e+01
1.510000e-06	-1.564706e-06	-7.563666e-10	-1.083941e+01	-5.467995e+01
1.520000e-06	-1.519418e-06	-7.516054e-10	-1.052568e+01	-5.443388e+01
1.530000e-06	-1.474071e-06	-7.463560e-10	-1.021154e+01	-5.417524e+01
1.540000e-06	-1.428674e-06	-7.415241e-10	-9.897055e+00	-5.390347e+01
1.550000e-06	-1.383189e-06	-7.361433e-10	-9.581960e+00	-5.361805e+01
1.560000e-06	-1.337637e-06	-7.294622e-10	-9.266399e+00	-5.331840e+01
1.570000e-06	-1.292036e-06	-7.213011e-10	-8.950505e+00	-5.300396e+01
1.580000e-06	-1.246345e-06	-7.143141e-10	-8.633984e+00	-5.267416e+01
1.590000e-06	-1.200499e-06	-7.080583e-10	-8.316385e+00	-5.232840e+01
1.600000e-06	-1.154485e-06	-7.021927e-10	-7.997624e+00	-5.196609e+01
1.610000e-06	-1.108395e-06	-6.988244e-10	-7.678344e+00	-5.158662e+01
1.620000e-06	-1.062329e-06	-6.962391e-10	-7.359223e+00	-5.118937e+01
1.630000e-06	-1.016246e-06	-6.938183e-10	-7.039985e+00	-5.077368e+01
1.640000e-06	-9.700905e-07	-6.896406e-10	-6.720244e+00	-5.033892e+01
1.650000e-06	-9.237955e-07	-6.822881e-10	-6.399539e+00	-4.988442e+01
1.660000e-06	-8.773797e-07	-6.717876e-10	-6.077996e+00	-4.940948e+01
1.670000e-06	-8.308993e-07	-6.610865e-10	-5.756005e+00	-4.891342e+01
1.680000e-06	-7.843558e-07	-6.493726e-10	-5.433579e+00	-4.839553e+01
1.690000e-06	-7.377870e-07	-6.404061e-10	-5.110976e+00	-4.785507e+01
1.700000e-06	-6.911588e-07	-6.330219e-10	-4.787962e+00	-4.729131e+01
1.710000e-06	-6.444442e-07	-6.255265e-10	-4.464349e+00	-4.670350e+01
1.720000e-06	-5.977119e-07	-6.195279e-10	-4.140614e+00	-4.609089e+01
1.730000e-06	-5.510374e-07	-6.116711e-10	-3.817279e+00	-4.545272e+01
1.740000e-06	-5.043015e-07	-6.017607e-10	-3.493519e+00	-4.478822e+01
1.750000e-06	-4.574463e-07	-5.909621e-10	-3.168932e+00	-4.409663e+01
1.760000e-06	-4.105433e-07	-5.793560e-10	-2.844014e+00	-4.337720e+01
1.770000e-06	-3.635948e-07	-5.657869e-10	-2.518782e+00	-4.262919e+01
1.780000e-06	-3.166371e-07	-5.520340e-10	-2.193485e+00	-4.185188e+01
1.790000e-06	-2.696589e-07	-5.406605e-10	-1.868046e+00	-4.104456e+01
1.800000e-06	-2.226518e-07	-5.307426e-10	-1.542407e+00	-4.020658e+01
1.810000e-06	-1.756424e-07	-5.231420e-10	-1.216752e+00	-3.933730e+01
1.820000e-06	-1.286181e-07	-5.161064e-10	-8.909941e-01	-3.843613e+01
1.830000e-06	-8.158095e-08	-5.042717e-10	-5.651472e-01	-3.750255e+01
1.840000e-06	-3.461256e-08	-4.887079e-10	-2.397765e-01	-3.653609e+01
1.850000e-06	1.225711e-08	-4.720507e-10	8.491041e-02	-3.553634e+01
1.860000e-06	5.911061e-08	-4.560827e-10	4.094852e-01	-3.450299e+01
1.870000e-06	1.060595e-07	-4.400919e-10	7.347208e-01	-3.343580e+01
1.880000e-06	1.530965e-07	-4.233504e-10	1.060567e+00	-3.233461e+01
1.890000e-06	2.001275e-07	-4.079637e-10	1.386371e+00	-3.119940e+01
1.900000e-06	2.471102e-07	-3.926076e-10	1.711841e+00	-3.003022e+01
1.910000e-06	2.939840e-07	-3.759461e-10	2.036557e+00	-2.882725e+01
1.920000e-06	3.407635e-07	-3.577117e-10	2.360619e+00	-2.759077e+01
1.930000e-06	3.875199e-07	-3.387211e-10	2.684521e+00	-2.632123e+01
1.940000e-06	4.343117e-07	-3.190018e-10	3.008669e+00	-2.501915e+01
1.950000e-06	4.810968e-07	-2.988532e-10	3.332770e+00	-2.368522e+01
1.960000e-06	5.278227e-07	-2.805362e-10	3.656461e+00	-2.232026e+01
1.970000e-06	5.745706e-07	-2.652225e-10	3.980304e+00	-2.092521e+01
1.980000e-06	6.212987e-07	-2.510607e-10	4.304010e+00	-1.950116e+01
1.990000e-06	6.679127e-07	-2.354032e-10	4.626926e+00	-1.804933e+01
2.000000e-06	7.144713e-07	-2.136344e-10	4.949458e+00	-1.657106e+01
2.010000e-06	7.610237e-07	-1.877985e-10	5.271947e+00	-1.506783e+01
2.020000e-06	8.075327e-07	-1.631033e-10	5.594135e+00	-1.354124e+01
2.030000e-06	8.539539e-07	-1.402922e-10	5.915715e+00	-1.199300e+01
2.040000e-06	9.003003e-07	-1.187501e-10	6.236777e+00	-1.042496e+01
2.050000e-06	9.466389e-07	-9.784728e-11	6.557785e+00	-8.839022e+00
2.060000e-06	9.928269e-07	-7.713585e-11	6.877750e+00	-7.237227e+00
2.070000e-06	1.038845e-06	-5.565507e-11	7.196534e+00	-5.621675e+00
2.080000e-06	1.084929e-06	-3.348203e-11	7.515785e+00	-3.994544e+00
2.090000e-06	1.130980e-06	-1.147113e-11	7.834799e+00	-2.358073e+00
2.100000e-06	1.176896e-06	1.283612e-11	8.152875e+00	-7.145472e-01
2.110000e-06	1.222729e-06	3.746532e-11	8.470381e+00	9.337108e-01
2.120000e-06	1.268454e-06	5.919463e-11	8.787142e+00	2.584357e+00
2.130000e-06	1.314085e-06	8.041118e-11	9.103247e+00	4.235037e+00
2.140000e-06	1.359611e-06	1.021237e-10	9.418627e+00	5.883401e+00
2.150000e-06	1.405026e-06	1.226482e-10	9.733234e+00	7.527118e+00
2.160000e-06	1.450336e-06	1.418357e-10	1.004712e+01	9.163886e+00
2.170000e-06	1.495611e-06	1.623804e-10	1.036076e+01	1.079145e+01
2.180000e-06	1.540833e-06	1.843372e-10	1.067403e+01	1.240759e+01
2.190000e-06	1.585916e-06	2.066874e-10	1.098634e+01	1.401019e+01
2.200000e-06	1.630880e-06	2.293214e-10	1.129783e+01	1.559718e+01
2.210000e-06	1.675702e-06	2.528675e-10	1.160833e+01	1.716660e+01
2.220000e-06	1.720335e-06	2.746401e-10	1.191752e+01	1.871655e+01
2.230000e-06	1.764797e-06	2.958108e-10	1.222553e+01	2.024528e+01
2.240000e-06	1.809107e-06	3.160272e-10	1.253248e+01	2.175112e+01
2.250000e-06	1.853328e-06	3.345468e-10	1.283882e+01	2.323253e+01
2.260000e-06	1.897448e-06	3.518564e-10	1.314446e+01	2.468809e+01
2.270000e-06	1.941440e-06	3.693837e-10	1.344921e+01	2.611649e+01
2.280000e-06	1.985374e-06	3.877704e-10	1.375356e+01	2.751656e+01
2.290000e-06	2.029255e-06	4.060618e-10	1.405754e+01	2.888726e+01
2.300000e-06	2.073075e-06	4.243746e-10	1.436111e+01	3.022767e+01
2.310000e-06	2.116822e-06	4.420515e-10	1.466416e+01	3.153699e+01
2.320000e-06	2.160448e-06	4.587156e-10	1.496638e+01	3.281456e+01
2.330000e-06	2.204000e-06	4.754367e-10	1.526808e+01	3.405981e+01
2.340000e-06	2.247479e-06	4.927044e-10	1.556928e+01	3.527231e+01
2.350000e-06	2.290805e-06	5.095397e-10	1.586942e+01	3.645173e+01
2.360000e-06	2.333907e-06	5.249477e-10	1.616800e+01	3.759785e+01
2.370000e-06	2.376783e-06	5.392227e-10	1.646502e+01	3.871053e+01
2.380000e-06	2.419455e-06	5.517537e-10	1.676063e+01	3.978974e+01
2.390000e-06	2.461964e-06	5.626971e-10	1.705511e+01	4.083552e+01
2.400000e-06	2.504189e-06	5.758434e-10	1.734762e+01	4.184800e+01
2.410000e-06	2.546034e-06	5.898218e-10	1.763750e+01	4.282736e+01
2.420000e-06	2.587619e-06	6.031778e-10	1.792558e+01	4.377385e+01
2.430000e-06	2.628896e-06	6.141825e-10	1.821152e+01	4.468779e+01
2.440000e-06	2.669846e-06	6.226845e-10	1.849520e+01	4.556952e+01
2.450000e-06	2.710562e-06	6.304882e-10	1.877726e+01	4.641944e+01
2.460000e-06	2.751087e-06	6.399679e-10	1.905799e+01	4.723798e+01
2.470000e-06	2.791396e-06	6.510572e-10	1.933723e+01	4.802561e+01
2.480000e-06	2.831482e-06	6.617292e-10	1.961492e+01	4.878280e+01
2.490000e-06	2.871380e-06	6.705890e-10	1.989132e+01	4.951007e+01
2.500000e-06	2.911096e-06	6.787665e-10	2.016644e+01	5.020795e+01
2.510000e-06	2.950688e-06	6.860681e-10	2.044072e+01	5.087698e+01
2.520000e-06	2.990227e-06	6.929588e-10	2.071462e+01	5.151771e+01
2.530000e-06	3.029614e-06	6.997304e-10	2.098747e+01	5.213072e+01
2.540000e-06	3.068739e-06	7.066294e-10	2.125851e+01	5.271658e+01
2.550000e-06	3.107664e-06	7.155094e-10	2.152816e+01	5.327590e+01
2.560000e-06	3.146321e-06	7.249253e-10	2.179595e+01	5.380926e+01
2.570000e-06	3.184644e-06	7.337084e-10	2.206144e+01	5.431729e+01
2.580000e-06	3.222701e-06	7.420154e-10	2.232507e+01	5.480062e+01
2.590000e-06	3.260584e-06	7.506328e-10	2.258750e+01	5.525989e+01
2.600000e-06	3.298343e-06	7.581251e-10	2.284907e+01	5.569575e+01
2.610000e-06	3.335900e-06	7.631851e-10	2.310925e+01	5.610889e+01
2.620000e-06	3.373244e-06	7.695379e-10	2.336795e+01	5.650000e+01
2.630000e-06	3.410351e-06	7.770173e-10	2.362500e+01	5.686979e+01
2.640000e-06	3.447170e-06	7.844404e-10	2.388007e+01	5.721900e+01
2.650000e-06	3.483717e-06	7.929279e-10	2.413324e+01	5.754838e+01
2.660000e-06	3.520043e-06	8.002216e-10	2.438489e+01	5.785870e+01
2.670000e-06	3.556210e-06	8.054252e-10	2.463543e+01	5.815078e+01
2.680000e-06	3.592222e-06	8.089950e-10	2.488491e+01	5.842541e+01
2.690000e-06	3.628042e-06	8.130611e-10	2.513304e+01	5.868344e+01
2.700000e-06	3.663709e-06	8.155982e-10	2.538013e+01	5.892571e+01
2.710000e-06	3.699218e-06	8.180851e-10	2.562611e+01	5.915310e+01
2.720000e-06	3.734502e-06	8.221288e-10	2.587054e+01	5.936648e+01
2.730000e-06	3.769598e-06	8.292872e-10	2.611367e+01	5.956673e+01
2.740000e-06	3.804434e-06	8.366854e-10	2.635499e+01	5.975473e+01
2.750000e-06	3.838841e-06	8.424184e-10	2.659335e+01	5.993136e+01
2.760000e-06	3.872861e-06	8.468740e-10	2.682902e+01	6.009751e+01
2.770000e-06	3.906482e-06	8.484160e-10	2.706192e+01	6.025402e+01
2.780000e-06	3.939551e-06	8.484596e-10	2.729100e+01	6.040174e+01
2.790000e-06	3.972125e-06	8.510161e-10	2.751666e+01	6.054149e+01
2.800000e-06	4.004383e-06	8.567669e-10	2.774012e+01	6.067404e+01
2.810000e-06	4.036438e-06	8.625581e-10	2.796218e+01	6.080015e+01
2.820000e-06	4.068310e-06	8.670584e-10	2.818297e+01	6.092051e+01
2.830000e-06	4.099956e-06	8.710232e-10	2.840220e+01	6.103579e+01
2.840000e-06	4.131429e-06	8.720414e-10	2.862023e+01	6.114657e+01
2.850000e-06	4.162686e-06	8.694221e-10	2.883676e+01	6.125342e+01
2.860000e-06	4.193630e-06	8.674086e-10	2.905113e+01	6.135680e+01
2.870000e-06	4.224283e-06	8.676816e-10	2.926347e+01	6.145714e+01
2.880000e-06	4.254659e-06	8.711889e-10	2.947390e+01	6.155478e+01
2.890000e-06	4.284697e-06	8.763653e-10	2.968199e+01	6.165002e+01
2.900000e-06	4.314401e-06	8.794101e-10	2.988776e+01	6.174305e+01
