# Temperatura_=_-8.64
# Concentracion g/m^3_=_1620.0
# C_Vs_to_Am_M_A/Vsm_=_65563218390.804596
# pendiente_HvsI_1/m_=_3716.3
# ordenada_HvsI_A/m_=_1297.0
# frecuencia_Hz_=_135105.56732747232

Tiempo_(s)	Campo_(V.s)	Magnetizacion_(V.s)	Campo_(kA/m)	Magnetizacion_(A/m)
0.000000e+00	-5.530527e-06	-1.134612e-09	-3.836525e+01	-7.573095e+01
1.000000e-08	-5.530721e-06	-1.130571e-09	-3.836660e+01	-7.566709e+01
2.000000e-08	-5.530654e-06	-1.127481e-09	-3.836613e+01	-7.560731e+01
3.000000e-08	-5.530240e-06	-1.126192e-09	-3.836326e+01	-7.555194e+01
4.000000e-08	-5.529350e-06	-1.128154e-09	-3.835709e+01	-7.550124e+01
5.000000e-08	-5.527872e-06	-1.132489e-09	-3.834683e+01	-7.545539e+01
6.000000e-08	-5.525784e-06	-1.141890e-09	-3.833235e+01	-7.541447e+01
7.000000e-08	-5.523132e-06	-1.139788e-09	-3.831395e+01	-7.537846e+01
8.000000e-08	-5.519966e-06	-1.115838e-09	-3.829199e+01	-7.534725e+01
9.000000e-08	-5.516316e-06	-1.104167e-09	-3.826667e+01	-7.532065e+01
1.000000e-07	-5.512237e-06	-1.150629e-09	-3.823838e+01	-7.529834e+01
1.100000e-07	-5.507798e-06	-1.166181e-09	-3.820758e+01	-7.527996e+01
1.200000e-07	-5.503047e-06	-1.111445e-09	-3.817462e+01	-7.526503e+01
1.300000e-07	-5.498147e-06	-1.065672e-09	-3.814063e+01	-7.525302e+01
1.400000e-07	-5.492956e-06	-1.155217e-09	-3.810462e+01	-7.524331e+01
1.500000e-07	-5.487225e-06	-1.169965e-09	-3.806486e+01	-7.523525e+01
1.600000e-07	-5.481153e-06	-1.119193e-09	-3.802274e+01	-7.522815e+01
1.700000e-07	-5.474821e-06	-1.043807e-09	-3.797882e+01	-7.522126e+01
1.800000e-07	-5.468093e-06	-1.142759e-09	-3.793215e+01	-7.521385e+01
1.900000e-07	-5.460877e-06	-1.179066e-09	-3.788209e+01	-7.520515e+01
2.000000e-07	-5.453326e-06	-1.142579e-09	-3.782971e+01	-7.519442e+01
2.100000e-07	-5.445635e-06	-1.097469e-09	-3.777635e+01	-7.518093e+01
2.200000e-07	-5.437663e-06	-1.152213e-09	-3.772106e+01	-7.516400e+01
2.300000e-07	-5.429218e-06	-1.186737e-09	-3.766247e+01	-7.514298e+01
2.400000e-07	-5.420371e-06	-1.145848e-09	-3.760110e+01	-7.511727e+01
2.500000e-07	-5.410972e-06	-1.126633e-09	-3.753590e+01	-7.508635e+01
2.600000e-07	-5.400761e-06	-1.146849e-09	-3.746507e+01	-7.504976e+01
2.700000e-07	-5.389934e-06	-1.186775e-09	-3.738996e+01	-7.500714e+01
2.800000e-07	-5.378709e-06	-1.142178e-09	-3.731209e+01	-7.495819e+01
2.900000e-07	-5.367105e-06	-1.131580e-09	-3.723159e+01	-7.490271e+01
3.000000e-07	-5.355122e-06	-1.120089e-09	-3.714846e+01	-7.484059e+01
3.100000e-07	-5.342765e-06	-1.157543e-09	-3.706275e+01	-7.477180e+01
3.200000e-07	-5.329973e-06	-1.124229e-09	-3.697401e+01	-7.469641e+01
3.300000e-07	-5.316745e-06	-1.133815e-09	-3.688224e+01	-7.461458e+01
3.400000e-07	-5.303066e-06	-1.131617e-09	-3.678735e+01	-7.452653e+01
3.500000e-07	-5.288939e-06	-1.169131e-09	-3.668935e+01	-7.443256e+01
3.600000e-07	-5.274415e-06	-1.123714e-09	-3.658861e+01	-7.433306e+01
3.700000e-07	-5.259537e-06	-1.119983e-09	-3.648539e+01	-7.422846e+01
3.800000e-07	-5.244173e-06	-1.129423e-09	-3.637881e+01	-7.411922e+01
3.900000e-07	-5.228282e-06	-1.145880e-09	-3.626858e+01	-7.400587e+01
4.000000e-07	-5.211866e-06	-1.102309e-09	-3.615470e+01	-7.388897e+01
4.100000e-07	-5.195027e-06	-1.132305e-09	-3.603789e+01	-7.376908e+01
4.200000e-07	-5.177984e-06	-1.162797e-09	-3.591966e+01	-7.364678e+01
4.300000e-07	-5.160634e-06	-1.118270e-09	-3.579930e+01	-7.352263e+01
4.400000e-07	-5.142844e-06	-1.083376e-09	-3.567589e+01	-7.339722e+01
4.500000e-07	-5.124781e-06	-1.138564e-09	-3.555059e+01	-7.327108e+01
4.600000e-07	-5.106380e-06	-1.141317e-09	-3.542294e+01	-7.314473e+01
4.700000e-07	-5.087431e-06	-1.080346e-09	-3.529150e+01	-7.301864e+01
4.800000e-07	-5.068049e-06	-1.111155e-09	-3.515704e+01	-7.289326e+01
4.900000e-07	-5.048431e-06	-1.151324e-09	-3.502095e+01	-7.276897e+01
5.000000e-07	-5.028678e-06	-1.108792e-09	-3.488392e+01	-7.264612e+01
5.100000e-07	-5.008734e-06	-1.092056e-09	-3.474557e+01	-7.252498e+01
5.200000e-07	-4.988378e-06	-1.142214e-09	-3.460436e+01	-7.240578e+01
5.300000e-07	-4.967589e-06	-1.105373e-09	-3.446015e+01	-7.228869e+01
5.400000e-07	-4.946561e-06	-1.074044e-09	-3.431428e+01	-7.217383e+01
5.500000e-07	-4.925301e-06	-1.119833e-09	-3.416680e+01	-7.206126e+01
5.600000e-07	-4.903694e-06	-1.137720e-09	-3.401691e+01	-7.195098e+01
5.700000e-07	-4.881686e-06	-1.076843e-09	-3.386424e+01	-7.184296e+01
5.800000e-07	-4.859344e-06	-1.099751e-09	-3.370926e+01	-7.173711e+01
5.900000e-07	-4.836590e-06	-1.120019e-09	-3.355141e+01	-7.163333e+01
6.000000e-07	-4.813493e-06	-1.083680e-09	-3.339119e+01	-7.153146e+01
6.100000e-07	-4.790172e-06	-1.068132e-09	-3.322941e+01	-7.143132e+01
6.200000e-07	-4.766624e-06	-1.110409e-09	-3.306606e+01	-7.133271e+01
6.300000e-07	-4.742845e-06	-1.087867e-09	-3.290110e+01	-7.123543e+01
6.400000e-07	-4.718721e-06	-1.073116e-09	-3.273375e+01	-7.113925e+01
6.500000e-07	-4.694169e-06	-1.093525e-09	-3.256344e+01	-7.104395e+01
6.600000e-07	-4.669183e-06	-1.097615e-09	-3.239011e+01	-7.094930e+01
6.700000e-07	-4.643762e-06	-1.070290e-09	-3.221377e+01	-7.085510e+01
6.800000e-07	-4.617823e-06	-1.082643e-09	-3.203382e+01	-7.076114e+01
6.900000e-07	-4.591332e-06	-1.084877e-09	-3.185006e+01	-7.066723e+01
7.000000e-07	-4.564359e-06	-1.072302e-09	-3.166294e+01	-7.057318e+01
7.100000e-07	-4.537047e-06	-1.073591e-09	-3.147348e+01	-7.047885e+01
7.200000e-07	-4.509500e-06	-1.083585e-09	-3.128239e+01	-7.038409e+01
7.300000e-07	-4.481759e-06	-1.069640e-09	-3.108995e+01	-7.028878e+01
7.400000e-07	-4.453843e-06	-1.066157e-09	-3.089630e+01	-7.019282e+01
7.500000e-07	-4.425672e-06	-1.072539e-09	-3.070087e+01	-7.009614e+01
7.600000e-07	-4.397217e-06	-1.068327e-09	-3.050348e+01	-6.999865e+01
7.700000e-07	-4.368515e-06	-1.064994e-09	-3.030437e+01	-6.990031e+01
7.800000e-07	-4.339499e-06	-1.062621e-09	-3.010309e+01	-6.980108e+01
7.900000e-07	-4.310094e-06	-1.058025e-09	-2.989911e+01	-6.970091e+01
8.000000e-07	-4.280432e-06	-1.054777e-09	-2.969335e+01	-6.959979e+01
8.100000e-07	-4.250561e-06	-1.062334e-09	-2.948613e+01	-6.949768e+01
8.200000e-07	-4.220289e-06	-1.056533e-09	-2.927613e+01	-6.939457e+01
8.300000e-07	-4.189622e-06	-1.050998e-09	-2.906340e+01	-6.929043e+01
8.400000e-07	-4.158767e-06	-1.050857e-09	-2.884936e+01	-6.918522e+01
8.500000e-07	-4.127738e-06	-1.056295e-09	-2.863411e+01	-6.907890e+01
8.600000e-07	-4.096431e-06	-1.046723e-09	-2.841693e+01	-6.897143e+01
8.700000e-07	-4.064875e-06	-1.045662e-09	-2.819803e+01	-6.886275e+01
8.800000e-07	-4.033139e-06	-1.042761e-09	-2.797787e+01	-6.875279e+01
8.900000e-07	-4.001254e-06	-1.040568e-09	-2.775669e+01	-6.864146e+01
9.000000e-07	-3.969116e-06	-1.035202e-09	-2.753375e+01	-6.852867e+01
9.100000e-07	-3.936629e-06	-1.038899e-09	-2.730839e+01	-6.841433e+01
9.200000e-07	-3.903795e-06	-1.030347e-09	-2.708061e+01	-6.829832e+01
9.300000e-07	-3.870575e-06	-1.025918e-09	-2.685017e+01	-6.818052e+01
9.400000e-07	-3.836875e-06	-1.024786e-09	-2.661639e+01	-6.806080e+01
9.500000e-07	-3.802691e-06	-1.027771e-09	-2.637926e+01	-6.793905e+01
9.600000e-07	-3.768062e-06	-1.022726e-09	-2.613903e+01	-6.781512e+01
9.700000e-07	-3.733025e-06	-1.024268e-09	-2.589599e+01	-6.768890e+01
9.800000e-07	-3.697698e-06	-1.023946e-09	-2.565092e+01	-6.756027e+01
9.900000e-07	-3.662201e-06	-1.019359e-09	-2.540468e+01	-6.742910e+01
1.000000e-06	-3.626556e-06	-1.012607e-09	-2.515741e+01	-6.729530e+01
1.010000e-06	-3.590753e-06	-1.013470e-09	-2.490905e+01	-6.715878e+01
1.020000e-06	-3.554841e-06	-1.012545e-09	-2.465992e+01	-6.701945e+01
1.030000e-06	-3.518812e-06	-1.008329e-09	-2.440999e+01	-6.687726e+01
1.040000e-06	-3.482479e-06	-1.007227e-09	-2.415795e+01	-6.673215e+01
1.050000e-06	-3.445809e-06	-1.004608e-09	-2.390357e+01	-6.658411e+01
1.060000e-06	-3.408940e-06	-9.980279e-10	-2.364781e+01	-6.643311e+01
1.070000e-06	-3.371835e-06	-9.930749e-10	-2.339041e+01	-6.627916e+01
1.080000e-06	-3.334422e-06	-9.913152e-10	-2.313088e+01	-6.612228e+01
1.090000e-06	-3.296759e-06	-9.865846e-10	-2.286961e+01	-6.596251e+01
1.100000e-06	-3.258899e-06	-9.847925e-10	-2.260698e+01	-6.579988e+01
1.110000e-06	-3.220854e-06	-9.807134e-10	-2.234305e+01	-6.563445e+01
1.120000e-06	-3.182658e-06	-9.735682e-10	-2.207809e+01	-6.546628e+01
1.130000e-06	-3.144207e-06	-9.633173e-10	-2.181136e+01	-6.529543e+01
1.140000e-06	-3.105471e-06	-9.615220e-10	-2.154264e+01	-6.512194e+01
1.150000e-06	-3.066507e-06	-9.606628e-10	-2.127235e+01	-6.494589e+01
1.160000e-06	-3.027371e-06	-9.590005e-10	-2.100086e+01	-6.476730e+01
1.170000e-06	-2.988114e-06	-9.525266e-10	-2.072854e+01	-6.458620e+01
1.180000e-06	-2.948739e-06	-9.495038e-10	-2.045539e+01	-6.440260e+01
1.190000e-06	-2.909193e-06	-9.436333e-10	-2.018107e+01	-6.421650e+01
1.200000e-06	-2.869426e-06	-9.397855e-10	-1.990520e+01	-6.402785e+01
1.210000e-06	-2.829532e-06	-9.353556e-10	-1.962845e+01	-6.383659e+01
1.220000e-06	-2.789544e-06	-9.330400e-10	-1.935106e+01	-6.364262e+01
1.230000e-06	-2.749353e-06	-9.299296e-10	-1.907225e+01	-6.344583e+01
1.240000e-06	-2.708921e-06	-9.288155e-10	-1.879178e+01	-6.324606e+01
1.250000e-06	-2.668335e-06	-9.244575e-10	-1.851023e+01	-6.304311e+01
1.260000e-06	-2.627507e-06	-9.189798e-10	-1.822701e+01	-6.283677e+01
1.270000e-06	-2.586348e-06	-9.127940e-10	-1.794149e+01	-6.262678e+01
1.280000e-06	-2.544908e-06	-9.079352e-10	-1.765402e+01	-6.241285e+01
1.290000e-06	-2.503082e-06	-9.027714e-10	-1.736388e+01	-6.219467e+01
1.300000e-06	-2.460874e-06	-8.985634e-10	-1.707108e+01	-6.197191e+01
1.310000e-06	-2.418414e-06	-8.963676e-10	-1.677653e+01	-6.174419e+01
1.320000e-06	-2.375724e-06	-8.948293e-10	-1.648039e+01	-6.151115e+01
1.330000e-06	-2.332816e-06	-8.891994e-10	-1.618274e+01	-6.127238e+01
1.340000e-06	-2.289697e-06	-8.813907e-10	-1.588362e+01	-6.102748e+01
1.350000e-06	-2.246412e-06	-8.768286e-10	-1.558336e+01	-6.077603e+01
1.360000e-06	-2.202974e-06	-8.738889e-10	-1.528202e+01	-6.051761e+01
1.370000e-06	-2.159410e-06	-8.700475e-10	-1.497982e+01	-6.025181e+01
1.380000e-06	-2.115778e-06	-8.627899e-10	-1.467715e+01	-5.997820e+01
1.390000e-06	-2.072037e-06	-8.553266e-10	-1.437372e+01	-5.969639e+01
1.400000e-06	-2.028256e-06	-8.497484e-10	-1.407001e+01	-5.940597e+01
1.410000e-06	-1.984442e-06	-8.465841e-10	-1.376607e+01	-5.910656e+01
1.420000e-06	-1.940558e-06	-8.399052e-10	-1.346165e+01	-5.879778e+01
1.430000e-06	-1.896593e-06	-8.335151e-10	-1.315666e+01	-5.847928e+01
1.440000e-06	-1.852498e-06	-8.284253e-10	-1.285078e+01	-5.815069e+01
1.450000e-06	-1.808233e-06	-8.246689e-10	-1.254371e+01	-5.781169e+01
1.460000e-06	-1.763796e-06	-8.187936e-10	-1.223545e+01	-5.746196e+01
1.470000e-06	-1.719208e-06	-8.116951e-10	-1.192614e+01	-5.710117e+01
1.480000e-06	-1.674554e-06	-8.042513e-10	-1.161637e+01	-5.672901e+01
1.490000e-06	-1.629838e-06	-7.963280e-10	-1.130618e+01	-5.634517e+01
1.500000e-06	-1.584883e-06	-7.860565e-10	-1.099433e+01	-5.594934e+01
1.510000e-06	-1.539736e-06	-7.774060e-10	-1.068114e+01	-5.554120e+01
1.520000e-06	-1.494512e-06	-7.686063e-10	-1.036743e+01	-5.512041e+01
1.530000e-06	-1.449200e-06	-7.603147e-10	-1.005310e+01	-5.468661e+01
1.540000e-06	-1.403761e-06	-7.512017e-10	-9.737883e+00	-5.423943e+01
1.550000e-06	-1.358189e-06	-7.417642e-10	-9.421755e+00	-5.377846e+01
1.560000e-06	-1.312555e-06	-7.332932e-10	-9.105189e+00	-5.330325e+01
1.570000e-06	-1.266861e-06	-7.271730e-10	-8.788209e+00	-5.281332e+01
1.580000e-06	-1.221138e-06	-7.203434e-10	-8.471031e+00	-5.230814e+01
1.590000e-06	-1.175337e-06	-7.130462e-10	-8.153307e+00	-5.178713e+01
1.600000e-06	-1.129394e-06	-7.059412e-10	-7.834602e+00	-5.124967e+01
1.610000e-06	-1.083361e-06	-6.988242e-10	-7.515275e+00	-5.069508e+01
1.620000e-06	-1.037269e-06	-6.907279e-10	-7.195531e+00	-5.012261e+01
1.630000e-06	-9.911316e-07	-6.835458e-10	-6.875477e+00	-4.953148e+01
1.640000e-06	-9.449207e-07	-6.763891e-10	-6.554913e+00	-4.892085e+01
1.650000e-06	-8.987014e-07	-6.655581e-10	-6.234289e+00	-4.828983e+01
1.660000e-06	-8.524123e-07	-6.526294e-10	-5.913182e+00	-4.763746e+01
1.670000e-06	-8.059467e-07	-6.387415e-10	-5.590850e+00	-4.696277e+01
1.680000e-06	-7.593997e-07	-6.243351e-10	-5.267954e+00	-4.626474e+01
1.690000e-06	-7.127746e-07	-6.096829e-10	-4.944516e+00	-4.554232e+01
1.700000e-06	-6.660524e-07	-5.961310e-10	-4.620404e+00	-4.479443e+01
1.710000e-06	-6.193759e-07	-5.847471e-10	-4.296609e+00	-4.402001e+01
1.720000e-06	-5.728186e-07	-5.760426e-10	-3.973641e+00	-4.321795e+01
1.730000e-06	-5.262244e-07	-5.644342e-10	-3.650417e+00	-4.238720e+01
1.740000e-06	-4.794760e-07	-5.494085e-10	-3.326124e+00	-4.152669e+01
1.750000e-06	-4.326943e-07	-5.324239e-10	-3.001599e+00	-4.063540e+01
1.760000e-06	-3.858692e-07	-5.154562e-10	-2.676774e+00	-3.971236e+01
1.770000e-06	-3.389549e-07	-4.988150e-10	-2.351329e+00	-3.875664e+01
1.780000e-06	-2.920292e-07	-4.830936e-10	-2.025806e+00	-3.776738e+01
1.790000e-06	-2.450652e-07	-4.686824e-10	-1.700017e+00	-3.674382e+01
1.800000e-06	-1.980905e-07	-4.569891e-10	-1.374153e+00	-3.568527e+01
1.810000e-06	-1.511925e-07	-4.437833e-10	-1.048822e+00	-3.459115e+01
1.820000e-06	-1.042705e-07	-4.276641e-10	-7.233243e-01	-3.346098e+01
1.830000e-06	-5.731232e-08	-4.092183e-10	-3.975754e-01	-3.229443e+01
1.840000e-06	-1.035345e-08	-3.903983e-10	-7.182189e-02	-3.109126e+01
1.850000e-06	3.664373e-08	-3.731018e-10	2.541975e-01	-2.985139e+01
1.860000e-06	8.357445e-08	-3.572861e-10	5.797557e-01	-2.857488e+01
1.870000e-06	1.305208e-07	-3.400366e-10	9.054228e-01	-2.726192e+01
1.880000e-06	1.775352e-07	-3.209168e-10	1.231561e+00	-2.591286e+01
1.890000e-06	2.244575e-07	-3.019248e-10	1.557061e+00	-2.452820e+01
1.900000e-06	2.713348e-07	-2.828289e-10	1.882249e+00	-2.310858e+01
1.910000e-06	3.182774e-07	-2.624926e-10	2.207889e+00	-2.165480e+01
1.920000e-06	3.651748e-07	-2.412037e-10	2.533216e+00	-2.016781e+01
1.930000e-06	4.120418e-07	-2.205727e-10	2.858333e+00	-1.864868e+01
1.940000e-06	4.589028e-07	-1.993597e-10	3.183408e+00	-1.709864e+01
1.950000e-06	5.056463e-07	-1.779528e-10	3.507667e+00	-1.551904e+01
1.960000e-06	5.523173e-07	-1.568192e-10	3.831423e+00	-1.391137e+01
1.970000e-06	5.989912e-07	-1.354580e-10	4.155200e+00	-1.227721e+01
1.980000e-06	6.455588e-07	-1.144433e-10	4.478240e+00	-1.061827e+01
1.990000e-06	6.920805e-07	-9.078084e-11	4.800961e+00	-8.936363e+00
2.000000e-06	7.385922e-07	-6.317328e-11	5.123612e+00	-7.233379e+00
2.010000e-06	7.849365e-07	-3.632430e-11	5.445102e+00	-5.511292e+00
2.020000e-06	8.312006e-07	-1.148752e-11	5.766036e+00	-3.772147e+00
2.030000e-06	8.774991e-07	1.166282e-11	6.087209e+00	-2.018047e+00
2.040000e-06	9.237913e-07	3.405164e-11	6.408338e+00	-2.511416e-01
2.050000e-06	9.700345e-07	5.550196e-11	6.729127e+00	1.526379e+00
2.060000e-06	1.016174e-06	7.730687e-11	7.049198e+00	3.312300e+00
2.070000e-06	1.062225e-06	1.021191e-10	7.368649e+00	5.104388e+00
2.080000e-06	1.108204e-06	1.289981e-10	7.687611e+00	6.900403e+00
2.090000e-06	1.154041e-06	1.555918e-10	8.005577e+00	8.698109e+00
2.100000e-06	1.199804e-06	1.818296e-10	8.323035e+00	1.049528e+01
2.110000e-06	1.245507e-06	2.055166e-10	8.640082e+00	1.228971e+01
2.120000e-06	1.291161e-06	2.276747e-10	8.956782e+00	1.407923e+01
2.130000e-06	1.336768e-06	2.517139e-10	9.273158e+00	1.586170e+01
2.140000e-06	1.382225e-06	2.763713e-10	9.588492e+00	1.763502e+01
2.150000e-06	1.427493e-06	3.012386e-10	9.902516e+00	1.939715e+01
2.160000e-06	1.472629e-06	3.260498e-10	1.021562e+01	2.114610e+01
2.170000e-06	1.517690e-06	3.498782e-10	1.052821e+01	2.287996e+01
2.180000e-06	1.562637e-06	3.732232e-10	1.084001e+01	2.459687e+01
2.190000e-06	1.607569e-06	3.953532e-10	1.115170e+01	2.629505e+01
2.200000e-06	1.652501e-06	4.190861e-10	1.146340e+01	2.797280e+01
2.210000e-06	1.697255e-06	4.420991e-10	1.177385e+01	2.962850e+01
2.220000e-06	1.741749e-06	4.675289e-10	1.208251e+01	3.126062e+01
2.230000e-06	1.786018e-06	4.923695e-10	1.238960e+01	3.286772e+01
2.240000e-06	1.830224e-06	5.125637e-10	1.269626e+01	3.444845e+01
2.250000e-06	1.874339e-06	5.294159e-10	1.300229e+01	3.600155e+01
2.260000e-06	1.918321e-06	5.460144e-10	1.330739e+01	3.752587e+01
2.270000e-06	1.962234e-06	5.660963e-10	1.361201e+01	3.902035e+01
2.280000e-06	2.006129e-06	5.891427e-10	1.391651e+01	4.048402e+01
2.290000e-06	2.049999e-06	6.112956e-10	1.422084e+01	4.191602e+01
2.300000e-06	2.093755e-06	6.310952e-10	1.452437e+01	4.331560e+01
2.310000e-06	2.137434e-06	6.476768e-10	1.482737e+01	4.468211e+01
2.320000e-06	2.181040e-06	6.626059e-10	1.512987e+01	4.601498e+01
2.330000e-06	2.224554e-06	6.786705e-10	1.543173e+01	4.731376e+01
2.340000e-06	2.267964e-06	6.957413e-10	1.573286e+01	4.857808e+01
2.350000e-06	2.311243e-06	7.162846e-10	1.603309e+01	4.980770e+01
2.360000e-06	2.354301e-06	7.365658e-10	1.633178e+01	5.100244e+01
2.370000e-06	2.397016e-06	7.543052e-10	1.662809e+01	5.216222e+01
2.380000e-06	2.439475e-06	7.661262e-10	1.692263e+01	5.328707e+01
2.390000e-06	2.481721e-06	7.759929e-10	1.721569e+01	5.437707e+01
2.400000e-06	2.523699e-06	7.890597e-10	1.750689e+01	5.543241e+01
2.410000e-06	2.565374e-06	8.042941e-10	1.779599e+01	5.645334e+01
2.420000e-06	2.606667e-06	8.179429e-10	1.808244e+01	5.744019e+01
2.430000e-06	2.647598e-06	8.312280e-10	1.836638e+01	5.839335e+01
2.440000e-06	2.688249e-06	8.434864e-10	1.864838e+01	5.931329e+01
2.450000e-06	2.728675e-06	8.538931e-10	1.892881e+01	6.020052e+01
2.460000e-06	2.768906e-06	8.627089e-10	1.920790e+01	6.105559e+01
2.470000e-06	2.808960e-06	8.719957e-10	1.948575e+01	6.187913e+01
2.480000e-06	2.848879e-06	8.822155e-10	1.976267e+01	6.267178e+01
2.490000e-06	2.888634e-06	8.942710e-10	2.003844e+01	6.343422e+01
2.500000e-06	2.928219e-06	9.050923e-10	2.031305e+01	6.416716e+01
2.510000e-06	2.967666e-06	9.139078e-10	2.058669e+01	6.487135e+01
2.520000e-06	3.007030e-06	9.220622e-10	2.085976e+01	6.554753e+01
2.530000e-06	3.046207e-06	9.284532e-10	2.113153e+01	6.619648e+01
2.540000e-06	3.085084e-06	9.349755e-10	2.140122e+01	6.681898e+01
2.550000e-06	3.123717e-06	9.436419e-10	2.166922e+01	6.741580e+01
2.560000e-06	3.162106e-06	9.533745e-10	2.193552e+01	6.798774e+01
2.570000e-06	3.200285e-06	9.620948e-10	2.220037e+01	6.853558e+01
2.580000e-06	3.238292e-06	9.702123e-10	2.246403e+01	6.906010e+01
2.590000e-06	3.276119e-06	9.769390e-10	2.272643e+01	6.956207e+01
2.600000e-06	3.313735e-06	9.817919e-10	2.298737e+01	7.004226e+01
2.610000e-06	3.351191e-06	9.859004e-10	2.324721e+01	7.050143e+01
2.620000e-06	3.388432e-06	9.930236e-10	2.350554e+01	7.094033e+01
2.630000e-06	3.425388e-06	1.001864e-09	2.376191e+01	7.135968e+01
2.640000e-06	3.462121e-06	1.010696e-09	2.401672e+01	7.176023e+01
2.650000e-06	3.498590e-06	1.018996e-09	2.426971e+01	7.214267e+01
2.660000e-06	3.534781e-06	1.025982e-09	2.452077e+01	7.250770e+01
2.670000e-06	3.570782e-06	1.029736e-09	2.477050e+01	7.285602e+01
2.680000e-06	3.606614e-06	1.032001e-09	2.501907e+01	7.318830e+01
2.690000e-06	3.642305e-06	1.034524e-09	2.526666e+01	7.350521e+01
2.700000e-06	3.677894e-06	1.037464e-09	2.551354e+01	7.380739e+01
2.710000e-06	3.713305e-06	1.041155e-09	2.575919e+01	7.409550e+01
2.720000e-06	3.748457e-06	1.047670e-09	2.600303e+01	7.437016e+01
2.730000e-06	3.783350e-06	1.055742e-09	2.624509e+01	7.463199e+01
2.740000e-06	3.817850e-06	1.062545e-09	2.648441e+01	7.488159e+01
2.750000e-06	3.851788e-06	1.067292e-09	2.671984e+01	7.511955e+01
2.760000e-06	3.885256e-06	1.069514e-09	2.695201e+01	7.534645e+01
2.770000e-06	3.918326e-06	1.069653e-09	2.718141e+01	7.556285e+01
2.780000e-06	3.951027e-06	1.069566e-09	2.740826e+01	7.576928e+01
2.790000e-06	3.983422e-06	1.074981e-09	2.763299e+01	7.596627e+01
2.800000e-06	4.015482e-06	1.084243e-09	2.785539e+01	7.615430e+01
2.810000e-06	4.047294e-06	1.091678e-09	2.807607e+01	7.633386e+01
2.820000e-06	4.078930e-06	1.097011e-09	2.829553e+01	7.650538e+01
2.830000e-06	4.110408e-06	1.097703e-09	2.851389e+01	7.666928e+01
2.840000e-06	4.141665e-06	1.094901e-09	2.873072e+01	7.682593e+01
2.850000e-06	4.172583e-06	1.091526e-09	2.894520e+01	7.697569e+01
2.860000e-06	4.203231e-06	1.090984e-09	2.915780e+01	7.711885e+01
2.870000e-06	4.233608e-06	1.097448e-09	2.936852e+01	7.725569e+01
2.880000e-06	4.263673e-06	1.105508e-09	2.957709e+01	7.738644e+01
2.890000e-06	4.293490e-06	1.112885e-09	2.978393e+01	7.751128e+01
2.900000e-06	4.323021e-06	1.116831e-09	2.998879e+01	7.763037e+01
