# Temperatura_=_7.24
# Concentracion g/m^3_=_1620.0
# C_Vs_to_Am_M_A/Vsm_=_65563218390.804596
# pendiente_HvsI_1/m_=_3716.3
# ordenada_HvsI_A/m_=_1297.0
# frecuencia_Hz_=_135096.5984621137

Tiempo_(s)	Campo_(V.s)	Magnetizacion_(V.s)	Campo_(kA/m)	Magnetizacion_(A/m)
0.000000e+00	-5.531106e-06	-1.546754e-09	-3.836033e+01	-9.994054e+01
1.000000e-08	-5.531279e-06	-1.544651e-09	-3.836153e+01	-9.990044e+01
2.000000e-08	-5.531123e-06	-1.542813e-09	-3.836044e+01	-9.986139e+01
3.000000e-08	-5.530600e-06	-1.540111e-09	-3.835682e+01	-9.982342e+01
4.000000e-08	-5.529515e-06	-1.537567e-09	-3.834929e+01	-9.978652e+01
5.000000e-08	-5.527791e-06	-1.531730e-09	-3.833734e+01	-9.975062e+01
6.000000e-08	-5.525489e-06	-1.517648e-09	-3.832137e+01	-9.971561e+01
7.000000e-08	-5.522625e-06	-1.509567e-09	-3.830151e+01	-9.968132e+01
8.000000e-08	-5.519313e-06	-1.543028e-09	-3.827854e+01	-9.964751e+01
9.000000e-08	-5.515580e-06	-1.631825e-09	-3.825265e+01	-9.961392e+01
1.000000e-07	-5.511398e-06	-1.645579e-09	-3.822364e+01	-9.958021e+01
1.100000e-07	-5.506876e-06	-1.512670e-09	-3.819228e+01	-9.954599e+01
1.200000e-07	-5.502255e-06	-1.407114e-09	-3.816024e+01	-9.951085e+01
1.300000e-07	-5.497384e-06	-1.498855e-09	-3.812645e+01	-9.947430e+01
1.400000e-07	-5.492089e-06	-1.600158e-09	-3.808973e+01	-9.943583e+01
1.500000e-07	-5.486441e-06	-1.552066e-09	-3.805056e+01	-9.939492e+01
1.600000e-07	-5.480452e-06	-1.440084e-09	-3.800902e+01	-9.935100e+01
1.700000e-07	-5.474062e-06	-1.521064e-09	-3.796471e+01	-9.930350e+01
1.800000e-07	-5.467065e-06	-1.609035e-09	-3.791618e+01	-9.925184e+01
1.900000e-07	-5.459689e-06	-1.547878e-09	-3.786502e+01	-9.919545e+01
2.000000e-07	-5.452121e-06	-1.422347e-09	-3.781254e+01	-9.913376e+01
2.100000e-07	-5.444329e-06	-1.477203e-09	-3.775850e+01	-9.906624e+01
2.200000e-07	-5.436342e-06	-1.586768e-09	-3.770310e+01	-9.899238e+01
2.300000e-07	-5.428081e-06	-1.579859e-09	-3.764581e+01	-9.891172e+01
2.400000e-07	-5.419282e-06	-1.493732e-09	-3.758478e+01	-9.882384e+01
2.500000e-07	-5.409606e-06	-1.488569e-09	-3.751768e+01	-9.872838e+01
2.600000e-07	-5.399133e-06	-1.538793e-09	-3.744505e+01	-9.862504e+01
2.700000e-07	-5.388192e-06	-1.526201e-09	-3.736916e+01	-9.851359e+01
2.800000e-07	-5.376896e-06	-1.494768e-09	-3.729082e+01	-9.839388e+01
2.900000e-07	-5.365232e-06	-1.497184e-09	-3.720993e+01	-9.826583e+01
3.000000e-07	-5.353254e-06	-1.543202e-09	-3.712686e+01	-9.812942e+01
3.100000e-07	-5.340932e-06	-1.519208e-09	-3.704140e+01	-9.798475e+01
3.200000e-07	-5.328085e-06	-1.492157e-09	-3.695230e+01	-9.783196e+01
3.300000e-07	-5.314756e-06	-1.483286e-09	-3.685985e+01	-9.767127e+01
3.400000e-07	-5.301184e-06	-1.532211e-09	-3.676573e+01	-9.750300e+01
3.500000e-07	-5.287238e-06	-1.506136e-09	-3.666901e+01	-9.732751e+01
3.600000e-07	-5.272841e-06	-1.484238e-09	-3.656916e+01	-9.714523e+01
3.700000e-07	-5.258057e-06	-1.498575e-09	-3.646663e+01	-9.695663e+01
3.800000e-07	-5.242758e-06	-1.526517e-09	-3.636052e+01	-9.676225e+01
3.900000e-07	-5.226801e-06	-1.470705e-09	-3.624985e+01	-9.656265e+01
4.000000e-07	-5.210381e-06	-1.470459e-09	-3.613598e+01	-9.635843e+01
4.100000e-07	-5.193566e-06	-1.524679e-09	-3.601936e+01	-9.615019e+01
4.200000e-07	-5.176413e-06	-1.497852e-09	-3.590040e+01	-9.593857e+01
4.300000e-07	-5.159016e-06	-1.429406e-09	-3.577974e+01	-9.572417e+01
4.400000e-07	-5.141353e-06	-1.490140e-09	-3.565724e+01	-9.550761e+01
4.500000e-07	-5.123291e-06	-1.523500e-09	-3.553198e+01	-9.528947e+01
4.600000e-07	-5.104760e-06	-1.429451e-09	-3.540346e+01	-9.507032e+01
4.700000e-07	-5.085805e-06	-1.419256e-09	-3.527199e+01	-9.485067e+01
4.800000e-07	-5.066431e-06	-1.505196e-09	-3.513763e+01	-9.463102e+01
4.900000e-07	-5.046849e-06	-1.468415e-09	-3.500182e+01	-9.441178e+01
5.000000e-07	-5.027129e-06	-1.418913e-09	-3.486505e+01	-9.419334e+01
5.100000e-07	-5.007213e-06	-1.486491e-09	-3.472693e+01	-9.397602e+01
5.200000e-07	-4.986952e-06	-1.476871e-09	-3.458641e+01	-9.376007e+01
5.300000e-07	-4.966289e-06	-1.403724e-09	-3.444311e+01	-9.354567e+01
5.400000e-07	-4.945323e-06	-1.449751e-09	-3.429770e+01	-9.333298e+01
5.500000e-07	-4.924018e-06	-1.488678e-09	-3.414994e+01	-9.312205e+01
5.600000e-07	-4.902294e-06	-1.403898e-09	-3.399928e+01	-9.291290e+01
5.700000e-07	-4.880227e-06	-1.408893e-09	-3.384623e+01	-9.270548e+01
5.800000e-07	-4.857891e-06	-1.475206e-09	-3.369132e+01	-9.249970e+01
5.900000e-07	-4.835093e-06	-1.436086e-09	-3.353321e+01	-9.229540e+01
6.000000e-07	-4.811901e-06	-1.393869e-09	-3.337237e+01	-9.209240e+01
6.100000e-07	-4.788511e-06	-1.441024e-09	-3.321015e+01	-9.189049e+01
6.200000e-07	-4.764865e-06	-1.421976e-09	-3.304615e+01	-9.168940e+01
6.300000e-07	-4.741012e-06	-1.380600e-09	-3.288072e+01	-9.148887e+01
6.400000e-07	-4.716937e-06	-1.406681e-09	-3.271376e+01	-9.128860e+01
6.500000e-07	-4.692497e-06	-1.417792e-09	-3.254426e+01	-9.108830e+01
6.600000e-07	-4.667510e-06	-1.382324e-09	-3.237096e+01	-9.088767e+01
6.700000e-07	-4.641980e-06	-1.401904e-09	-3.219390e+01	-9.068639e+01
6.800000e-07	-4.615927e-06	-1.410443e-09	-3.201321e+01	-9.048419e+01
6.900000e-07	-4.589345e-06	-1.383526e-09	-3.182885e+01	-9.028078e+01
7.000000e-07	-4.562311e-06	-1.384764e-09	-3.164136e+01	-9.007590e+01
7.100000e-07	-4.534937e-06	-1.400746e-09	-3.145152e+01	-8.986931e+01
7.200000e-07	-4.507372e-06	-1.376084e-09	-3.126035e+01	-8.966079e+01
7.300000e-07	-4.479648e-06	-1.371462e-09	-3.106807e+01	-8.945014e+01
7.400000e-07	-4.451736e-06	-1.381589e-09	-3.087449e+01	-8.923718e+01
7.500000e-07	-4.423573e-06	-1.363747e-09	-3.067917e+01	-8.902178e+01
7.600000e-07	-4.395162e-06	-1.350353e-09	-3.048213e+01	-8.880380e+01
7.700000e-07	-4.366445e-06	-1.359397e-09	-3.028296e+01	-8.858314e+01
7.800000e-07	-4.337300e-06	-1.347427e-09	-3.008083e+01	-8.835973e+01
7.900000e-07	-4.307823e-06	-1.336617e-09	-2.987640e+01	-8.813348e+01
8.000000e-07	-4.278099e-06	-1.351345e-09	-2.967024e+01	-8.790436e+01
8.100000e-07	-4.248092e-06	-1.345466e-09	-2.946214e+01	-8.767233e+01
8.200000e-07	-4.217843e-06	-1.322062e-09	-2.925235e+01	-8.743734e+01
8.300000e-07	-4.187282e-06	-1.322335e-09	-2.904040e+01	-8.719938e+01
8.400000e-07	-4.156316e-06	-1.328513e-09	-2.882564e+01	-8.695842e+01
8.500000e-07	-4.125078e-06	-1.312207e-09	-2.860898e+01	-8.671443e+01
8.600000e-07	-4.093683e-06	-1.308466e-09	-2.839125e+01	-8.646739e+01
8.700000e-07	-4.062137e-06	-1.313298e-09	-2.817247e+01	-8.621725e+01
8.800000e-07	-4.030396e-06	-1.301834e-09	-2.795233e+01	-8.596398e+01
8.900000e-07	-3.998476e-06	-1.285044e-09	-2.773096e+01	-8.570753e+01
9.000000e-07	-3.966380e-06	-1.291074e-09	-2.750835e+01	-8.544783e+01
9.100000e-07	-3.933876e-06	-1.286368e-09	-2.728293e+01	-8.518482e+01
9.200000e-07	-3.900957e-06	-1.274252e-09	-2.705462e+01	-8.491842e+01
9.300000e-07	-3.867594e-06	-1.274232e-09	-2.682324e+01	-8.464854e+01
9.400000e-07	-3.833690e-06	-1.275740e-09	-2.658810e+01	-8.437511e+01
9.500000e-07	-3.799477e-06	-1.255836e-09	-2.635082e+01	-8.409802e+01
9.600000e-07	-3.764856e-06	-1.246282e-09	-2.611071e+01	-8.381719e+01
9.700000e-07	-3.729802e-06	-1.247509e-09	-2.586759e+01	-8.353253e+01
9.800000e-07	-3.694479e-06	-1.240764e-09	-2.562262e+01	-8.324396e+01
9.900000e-07	-3.658908e-06	-1.231530e-09	-2.537592e+01	-8.295141e+01
1.000000e-06	-3.623247e-06	-1.235736e-09	-2.512860e+01	-8.265482e+01
1.010000e-06	-3.587529e-06	-1.233489e-09	-2.488088e+01	-8.235413e+01
1.020000e-06	-3.551573e-06	-1.223529e-09	-2.463151e+01	-8.204933e+01
1.030000e-06	-3.515389e-06	-1.219877e-09	-2.438056e+01	-8.174040e+01
1.040000e-06	-3.478985e-06	-1.216863e-09	-2.412809e+01	-8.142736e+01
1.050000e-06	-3.442274e-06	-1.204094e-09	-2.387348e+01	-8.111023e+01
1.060000e-06	-3.405327e-06	-1.196550e-09	-2.361724e+01	-8.078907e+01
1.070000e-06	-3.368139e-06	-1.197146e-09	-2.335932e+01	-8.046396e+01
1.080000e-06	-3.330737e-06	-1.192490e-09	-2.309993e+01	-8.013500e+01
1.090000e-06	-3.293099e-06	-1.185857e-09	-2.283890e+01	-7.980228e+01
1.100000e-06	-3.255225e-06	-1.183750e-09	-2.257622e+01	-7.946594e+01
1.110000e-06	-3.217116e-06	-1.179042e-09	-2.231192e+01	-7.912612e+01
1.120000e-06	-3.178798e-06	-1.169201e-09	-2.204617e+01	-7.878295e+01
1.130000e-06	-3.140328e-06	-1.163872e-09	-2.177937e+01	-7.843658e+01
1.140000e-06	-3.101696e-06	-1.157801e-09	-2.151144e+01	-7.808715e+01
1.150000e-06	-3.062822e-06	-1.149328e-09	-2.124183e+01	-7.773478e+01
1.160000e-06	-3.023661e-06	-1.141761e-09	-2.097024e+01	-7.737959e+01
1.170000e-06	-2.984313e-06	-1.137294e-09	-2.069735e+01	-7.702166e+01
1.180000e-06	-2.944861e-06	-1.129541e-09	-2.042373e+01	-7.666105e+01
1.190000e-06	-2.905269e-06	-1.125798e-09	-2.014915e+01	-7.629779e+01
1.200000e-06	-2.865490e-06	-1.124384e-09	-1.987327e+01	-7.593186e+01
1.210000e-06	-2.825598e-06	-1.119917e-09	-1.959660e+01	-7.556319e+01
1.220000e-06	-2.785519e-06	-1.111025e-09	-1.931864e+01	-7.519168e+01
1.230000e-06	-2.745176e-06	-1.105103e-09	-1.903884e+01	-7.481716e+01
1.240000e-06	-2.704698e-06	-1.097166e-09	-1.875811e+01	-7.443941e+01
1.250000e-06	-2.664009e-06	-1.087133e-09	-1.847592e+01	-7.405815e+01
1.260000e-06	-2.622998e-06	-1.080767e-09	-1.819149e+01	-7.367305e+01
1.270000e-06	-2.581779e-06	-1.075740e-09	-1.790562e+01	-7.328371e+01
1.280000e-06	-2.540376e-06	-1.066698e-09	-1.761848e+01	-7.288969e+01
1.290000e-06	-2.498751e-06	-1.059286e-09	-1.732979e+01	-7.249049e+01
1.300000e-06	-2.456814e-06	-1.052304e-09	-1.703894e+01	-7.208557e+01
1.310000e-06	-2.414430e-06	-1.045565e-09	-1.674499e+01	-7.167433e+01
1.320000e-06	-2.371655e-06	-1.037950e-09	-1.644833e+01	-7.125617e+01
1.330000e-06	-2.328591e-06	-1.031102e-09	-1.614966e+01	-7.083043e+01
1.340000e-06	-2.285347e-06	-1.023279e-09	-1.584975e+01	-7.039643e+01
1.350000e-06	-2.241966e-06	-1.016202e-09	-1.554889e+01	-6.995350e+01
1.360000e-06	-2.198463e-06	-1.010805e-09	-1.524718e+01	-6.950094e+01
1.370000e-06	-2.154870e-06	-1.003577e-09	-1.494485e+01	-6.903808e+01
1.380000e-06	-2.111119e-06	-9.934756e-10	-1.464141e+01	-6.856424e+01
1.390000e-06	-2.067385e-06	-9.839700e-10	-1.433810e+01	-6.807877e+01
1.400000e-06	-2.023654e-06	-9.755439e-10	-1.403481e+01	-6.758106e+01
1.410000e-06	-1.979771e-06	-9.666708e-10	-1.373047e+01	-6.707051e+01
1.420000e-06	-1.935788e-06	-9.576345e-10	-1.342543e+01	-6.654659e+01
1.430000e-06	-1.891712e-06	-9.485018e-10	-1.311975e+01	-6.600879e+01
1.440000e-06	-1.847560e-06	-9.383195e-10	-1.281353e+01	-6.545666e+01
1.450000e-06	-1.803295e-06	-9.271523e-10	-1.250654e+01	-6.488982e+01
1.460000e-06	-1.758913e-06	-9.157055e-10	-1.219873e+01	-6.430790e+01
1.470000e-06	-1.714394e-06	-9.030300e-10	-1.188998e+01	-6.371062e+01
1.480000e-06	-1.669733e-06	-8.929492e-10	-1.158024e+01	-6.309773e+01
1.490000e-06	-1.624945e-06	-8.811109e-10	-1.126961e+01	-6.246903e+01
1.500000e-06	-1.579945e-06	-8.669433e-10	-1.095752e+01	-6.182435e+01
1.510000e-06	-1.534791e-06	-8.535873e-10	-1.064436e+01	-6.116357e+01
1.520000e-06	-1.489559e-06	-8.436224e-10	-1.033066e+01	-6.048656e+01
1.530000e-06	-1.444220e-06	-8.338061e-10	-1.001622e+01	-5.979325e+01
1.540000e-06	-1.398777e-06	-8.239073e-10	-9.701049e+00	-5.908354e+01
1.550000e-06	-1.353256e-06	-8.093704e-10	-9.385343e+00	-5.835733e+01
1.560000e-06	-1.307637e-06	-7.931575e-10	-9.068958e+00	-5.761451e+01
1.570000e-06	-1.261947e-06	-7.786191e-10	-8.752081e+00	-5.685495e+01
1.580000e-06	-1.216128e-06	-7.660474e-10	-8.434311e+00	-5.607844e+01
1.590000e-06	-1.170269e-06	-7.531251e-10	-8.116264e+00	-5.528476e+01
1.600000e-06	-1.124442e-06	-7.420555e-10	-7.798436e+00	-5.447362e+01
1.610000e-06	-1.078462e-06	-7.326491e-10	-7.479546e+00	-5.364463e+01
1.620000e-06	-1.032290e-06	-7.245706e-10	-7.159328e+00	-5.279737e+01
1.630000e-06	-9.860688e-07	-7.161833e-10	-6.838763e+00	-5.193129e+01
1.640000e-06	-9.398247e-07	-7.036604e-10	-6.518042e+00	-5.104579e+01
1.650000e-06	-8.935231e-07	-6.870725e-10	-6.196923e+00	-5.014013e+01
1.660000e-06	-8.471712e-07	-6.677266e-10	-5.875455e+00	-4.921353e+01
1.670000e-06	-8.007267e-07	-6.480506e-10	-5.553344e+00	-4.826508e+01
1.680000e-06	-7.542512e-07	-6.319267e-10	-5.231019e+00	-4.729379e+01
1.690000e-06	-7.077167e-07	-6.194432e-10	-4.908285e+00	-4.629861e+01
1.700000e-06	-6.610980e-07	-6.060402e-10	-4.584966e+00	-4.527838e+01
1.710000e-06	-6.144622e-07	-5.930002e-10	-4.261529e+00	-4.423192e+01
1.720000e-06	-5.678165e-07	-5.775146e-10	-3.938024e+00	-4.315796e+01
1.730000e-06	-5.210921e-07	-5.574307e-10	-3.613973e+00	-4.205522e+01
1.740000e-06	-4.742571e-07	-5.352451e-10	-3.289154e+00	-4.092240e+01
1.750000e-06	-4.273804e-07	-5.136109e-10	-2.964046e+00	-3.975819e+01
1.760000e-06	-3.804868e-07	-4.927145e-10	-2.638821e+00	-3.856129e+01
1.770000e-06	-3.335850e-07	-4.750575e-10	-2.313539e+00	-3.733046e+01
1.780000e-06	-2.866770e-07	-4.613918e-10	-1.988214e+00	-3.606451e+01
1.790000e-06	-2.397165e-07	-4.477673e-10	-1.662526e+00	-3.476232e+01
1.800000e-06	-1.926956e-07	-4.311821e-10	-1.336417e+00	-3.342290e+01
1.810000e-06	-1.457166e-07	-4.118808e-10	-1.010600e+00	-3.204533e+01
1.820000e-06	-9.877374e-08	-3.899880e-10	-6.850335e-01	-3.062889e+01
1.830000e-06	-5.192863e-08	-3.667418e-10	-3.601448e-01	-2.917298e+01
1.840000e-06	-5.082429e-09	-3.432207e-10	-3.524858e-02	-2.767719e+01
1.850000e-06	4.186989e-08	-3.216670e-10	2.903836e-01	-2.614129e+01
1.860000e-06	8.883366e-08	-3.013708e-10	6.160953e-01	-2.456527e+01
1.870000e-06	1.357803e-07	-2.817488e-10	9.416885e-01	-2.294932e+01
1.880000e-06	1.826358e-07	-2.608825e-10	1.266649e+00	-2.129388e+01
1.890000e-06	2.295340e-07	-2.368009e-10	1.591906e+00	-1.959958e+01
1.900000e-06	2.765319e-07	-2.102311e-10	1.917854e+00	-1.786730e+01
1.910000e-06	3.234792e-07	-1.819131e-10	2.243452e+00	-1.609817e+01
1.920000e-06	3.703638e-07	-1.527789e-10	2.568614e+00	-1.429351e+01
1.930000e-06	4.172587e-07	-1.256024e-10	2.893848e+00	-1.245489e+01
1.940000e-06	4.642137e-07	-1.000764e-10	3.219499e+00	-1.058408e+01
1.950000e-06	5.110450e-07	-7.501966e-11	3.544292e+00	-8.683062e+00
1.960000e-06	5.576863e-07	-4.956953e-11	3.867767e+00	-6.754000e+00
1.970000e-06	6.042930e-07	-2.376568e-11	4.191002e+00	-4.799233e+00
1.980000e-06	6.508409e-07	2.066296e-12	4.513830e+00	-2.821252e+00
1.990000e-06	6.973467e-07	3.207276e-11	4.836365e+00	-8.226859e-01
2.000000e-06	7.438281e-07	6.501100e-11	5.158731e+00	1.193724e+00
2.010000e-06	7.902748e-07	9.486199e-11	5.480857e+00	3.225143e+00
2.020000e-06	8.366424e-07	1.218353e-10	5.802434e+00	5.268667e+00
2.030000e-06	8.829236e-07	1.493011e-10	6.123411e+00	7.321346e+00
2.040000e-06	9.291652e-07	1.768032e-10	6.444115e+00	9.380205e+00
2.050000e-06	9.753861e-07	2.050881e-10	6.764674e+00	1.144227e+01
2.060000e-06	1.021530e-06	2.348044e-10	7.084701e+00	1.350458e+01
2.070000e-06	1.067547e-06	2.660633e-10	7.403848e+00	1.556424e+01
2.080000e-06	1.113464e-06	2.958706e-10	7.722294e+00	1.761838e+01
2.090000e-06	1.159243e-06	3.256933e-10	8.039795e+00	1.966424e+01
2.100000e-06	1.204965e-06	3.564053e-10	8.356894e+00	2.169916e+01
2.110000e-06	1.250744e-06	3.848667e-10	8.674389e+00	2.372056e+01
2.120000e-06	1.296429e-06	4.119913e-10	8.991230e+00	2.572602e+01
2.130000e-06	1.341954e-06	4.375652e-10	9.306963e+00	2.771323e+01
2.140000e-06	1.387375e-06	4.615280e-10	9.621976e+00	2.968004e+01
2.150000e-06	1.432679e-06	4.874881e-10	9.936176e+00	3.162446e+01
2.160000e-06	1.477920e-06	5.167452e-10	1.024993e+01	3.354463e+01
2.170000e-06	1.523112e-06	5.471305e-10	1.056336e+01	3.543886e+01
2.180000e-06	1.568187e-06	5.755590e-10	1.087597e+01	3.730563e+01
2.190000e-06	1.613105e-06	6.017108e-10	1.118750e+01	3.914355e+01
2.200000e-06	1.657822e-06	6.255965e-10	1.149763e+01	4.095141e+01
2.210000e-06	1.702367e-06	6.475060e-10	1.180657e+01	4.272814e+01
2.220000e-06	1.746828e-06	6.703051e-10	1.211492e+01	4.447281e+01
2.230000e-06	1.791195e-06	6.940467e-10	1.242262e+01	4.618462e+01
2.240000e-06	1.835431e-06	7.172069e-10	1.272941e+01	4.786292e+01
2.250000e-06	1.879482e-06	7.408838e-10	1.303492e+01	4.950716e+01
2.260000e-06	1.923476e-06	7.654422e-10	1.334004e+01	5.111689e+01
2.270000e-06	1.967389e-06	7.877085e-10	1.364459e+01	5.269181e+01
2.280000e-06	2.011180e-06	8.063629e-10	1.394830e+01	5.423165e+01
2.290000e-06	2.054923e-06	8.235033e-10	1.425167e+01	5.573627e+01
2.300000e-06	2.098596e-06	8.411801e-10	1.455456e+01	5.720558e+01
2.310000e-06	2.142236e-06	8.594369e-10	1.485722e+01	5.863957e+01
2.320000e-06	2.185827e-06	8.787359e-10	1.515954e+01	6.003827e+01
2.330000e-06	2.229381e-06	8.988913e-10	1.546161e+01	6.140179e+01
2.340000e-06	2.272831e-06	9.190833e-10	1.576295e+01	6.273026e+01
2.350000e-06	2.316111e-06	9.373694e-10	1.606311e+01	6.402387e+01
2.360000e-06	2.359145e-06	9.537477e-10	1.636157e+01	6.528281e+01
2.370000e-06	2.401946e-06	9.699379e-10	1.665841e+01	6.650736e+01
2.380000e-06	2.444562e-06	9.846816e-10	1.695397e+01	6.769777e+01
2.390000e-06	2.486937e-06	9.983031e-10	1.724786e+01	6.885436e+01
2.400000e-06	2.529047e-06	1.012252e-09	1.753991e+01	6.997746e+01
2.410000e-06	2.570659e-06	1.027778e-09	1.782850e+01	7.106741e+01
2.420000e-06	2.611796e-06	1.042838e-09	1.811380e+01	7.212460e+01
2.430000e-06	2.652660e-06	1.055613e-09	1.839721e+01	7.314944e+01
2.440000e-06	2.693241e-06	1.067236e-09	1.867865e+01	7.414236e+01
2.450000e-06	2.733561e-06	1.078885e-09	1.895828e+01	7.510380e+01
2.460000e-06	2.773696e-06	1.090793e-09	1.923664e+01	7.603426e+01
2.470000e-06	2.813722e-06	1.103723e-09	1.951423e+01	7.693425e+01
2.480000e-06	2.853614e-06	1.117270e-09	1.979090e+01	7.780431e+01
2.490000e-06	2.893330e-06	1.129636e-09	2.006634e+01	7.864501e+01
2.500000e-06	2.932888e-06	1.141403e-09	2.034070e+01	7.945695e+01
2.510000e-06	2.972368e-06	1.151434e-09	2.061450e+01	8.024075e+01
2.520000e-06	3.011771e-06	1.158708e-09	2.088778e+01	8.099707e+01
2.530000e-06	3.050971e-06	1.164381e-09	2.115964e+01	8.172660e+01
2.540000e-06	3.089971e-06	1.172590e-09	2.143012e+01	8.243005e+01
2.550000e-06	3.128774e-06	1.183491e-09	2.169924e+01	8.310815e+01
2.560000e-06	3.167256e-06	1.195744e-09	2.196613e+01	8.376166e+01
2.570000e-06	3.205536e-06	1.208519e-09	2.223161e+01	8.439135e+01
2.580000e-06	3.243659e-06	1.218124e-09	2.249601e+01	8.499803e+01
2.590000e-06	3.281544e-06	1.223999e-09	2.275876e+01	8.558248e+01
2.600000e-06	3.319238e-06	1.228178e-09	2.302018e+01	8.614553e+01
2.610000e-06	3.356700e-06	1.233670e-09	2.327999e+01	8.668800e+01
2.620000e-06	3.393861e-06	1.240561e-09	2.353772e+01	8.721071e+01
2.630000e-06	3.430804e-06	1.248812e-09	2.379393e+01	8.771447e+01
2.640000e-06	3.467513e-06	1.259033e-09	2.404852e+01	8.820010e+01
2.650000e-06	3.503878e-06	1.268850e-09	2.430073e+01	8.866840e+01
2.660000e-06	3.540033e-06	1.276874e-09	2.455147e+01	8.912015e+01
2.670000e-06	3.576024e-06	1.282701e-09	2.480109e+01	8.955613e+01
2.680000e-06	3.611818e-06	1.287405e-09	2.504933e+01	8.997709e+01
2.690000e-06	3.647463e-06	1.292585e-09	2.529655e+01	9.038376e+01
2.700000e-06	3.683016e-06	1.298651e-09	2.554312e+01	9.077682e+01
2.710000e-06	3.718425e-06	1.305539e-09	2.578869e+01	9.115696e+01
2.720000e-06	3.753579e-06	1.312100e-09	2.603250e+01	9.152482e+01
2.730000e-06	3.788440e-06	1.318336e-09	2.627428e+01	9.188100e+01
2.740000e-06	3.822859e-06	1.324933e-09	2.651298e+01	9.222610e+01
2.750000e-06	3.856764e-06	1.328958e-09	2.674813e+01	9.256066e+01
2.760000e-06	3.890175e-06	1.332079e-09	2.697985e+01	9.288520e+01
2.770000e-06	3.923145e-06	1.336989e-09	2.720851e+01	9.320019e+01
2.780000e-06	3.955701e-06	1.344187e-09	2.743429e+01	9.350610e+01
2.790000e-06	3.987870e-06	1.353095e-09	2.765740e+01	9.380336e+01
2.800000e-06	4.019783e-06	1.360814e-09	2.787873e+01	9.409234e+01
2.810000e-06	4.051535e-06	1.365013e-09	2.809894e+01	9.437343e+01
2.820000e-06	4.083137e-06	1.366678e-09	2.831811e+01	9.464696e+01
2.830000e-06	4.114567e-06	1.368782e-09	2.853609e+01	9.491324e+01
2.840000e-06	4.145819e-06	1.372523e-09	2.875284e+01	9.517256e+01
2.850000e-06	4.176903e-06	1.376459e-09	2.896841e+01	9.542519e+01
2.860000e-06	4.207709e-06	1.380443e-09	2.918207e+01	9.567138e+01
2.870000e-06	4.238147e-06	1.386914e-09	2.939316e+01	9.591134e+01
2.880000e-06	4.268268e-06	1.393725e-09	2.960206e+01	9.614527e+01
2.890000e-06	4.298067e-06	1.398935e-09	2.980873e+01	9.637337e+01
2.900000e-06	4.327475e-06	1.401551e-09	3.001268e+01	9.659579e+01
