# Temperatura_=_12.62
# Concentracion g/m^3_=_1620.0
# C_Vs_to_Am_M_A/Vsm_=_65563218390.804596
# pendiente_HvsI_1/m_=_3716.3
# ordenada_HvsI_A/m_=_1297.0
# frecuencia_Hz_=_135096.65332854135

Tiempo_(s)	Campo_(V.s)	Magnetizacion_(V.s)	Campo_(kA/m)	Magnetizacion_(A/m)
0.000000e+00	-5.525206e-06	-1.705884e-09	-3.837424e+01	-1.119296e+02
1.000000e-08	-5.525396e-06	-1.702697e-09	-3.837557e+01	-1.118684e+02
2.000000e-08	-5.525451e-06	-1.698812e-09	-3.837595e+01	-1.118104e+02
3.000000e-08	-5.525155e-06	-1.697196e-09	-3.837389e+01	-1.117564e+02
4.000000e-08	-5.524316e-06	-1.699180e-09	-3.836807e+01	-1.117069e+02
5.000000e-08	-5.522920e-06	-1.697829e-09	-3.835837e+01	-1.116625e+02
6.000000e-08	-5.520953e-06	-1.688558e-09	-3.834471e+01	-1.116236e+02
7.000000e-08	-5.518379e-06	-1.683492e-09	-3.832683e+01	-1.115905e+02
8.000000e-08	-5.515311e-06	-1.695254e-09	-3.830553e+01	-1.115632e+02
9.000000e-08	-5.511813e-06	-1.742762e-09	-3.828123e+01	-1.115417e+02
1.000000e-07	-5.507862e-06	-1.772685e-09	-3.825378e+01	-1.115256e+02
1.100000e-07	-5.503601e-06	-1.714573e-09	-3.822420e+01	-1.115147e+02
1.200000e-07	-5.499126e-06	-1.608431e-09	-3.819312e+01	-1.115084e+02
1.300000e-07	-5.494391e-06	-1.638827e-09	-3.816023e+01	-1.115059e+02
1.400000e-07	-5.489244e-06	-1.725217e-09	-3.812448e+01	-1.115064e+02
1.500000e-07	-5.483705e-06	-1.736351e-09	-3.808601e+01	-1.115089e+02
1.600000e-07	-5.477862e-06	-1.638837e-09	-3.804543e+01	-1.115123e+02
1.700000e-07	-5.471690e-06	-1.649766e-09	-3.800256e+01	-1.115155e+02
1.800000e-07	-5.464976e-06	-1.749251e-09	-3.795593e+01	-1.115172e+02
1.900000e-07	-5.457735e-06	-1.743904e-09	-3.790564e+01	-1.115162e+02
2.000000e-07	-5.450292e-06	-1.645783e-09	-3.785395e+01	-1.115110e+02
2.100000e-07	-5.442659e-06	-1.627596e-09	-3.780094e+01	-1.115005e+02
2.200000e-07	-5.434731e-06	-1.739662e-09	-3.774587e+01	-1.114833e+02
2.300000e-07	-5.426552e-06	-1.768533e-09	-3.768907e+01	-1.114581e+02
2.400000e-07	-5.418043e-06	-1.712361e-09	-3.762997e+01	-1.114238e+02
2.500000e-07	-5.408915e-06	-1.667739e-09	-3.756657e+01	-1.113793e+02
2.600000e-07	-5.398940e-06	-1.713438e-09	-3.749729e+01	-1.113236e+02
2.700000e-07	-5.388279e-06	-1.718645e-09	-3.742325e+01	-1.112558e+02
2.800000e-07	-5.377187e-06	-1.694325e-09	-3.734621e+01	-1.111754e+02
2.900000e-07	-5.365693e-06	-1.677399e-09	-3.726638e+01	-1.110816e+02
3.000000e-07	-5.353916e-06	-1.711926e-09	-3.718459e+01	-1.109742e+02
3.100000e-07	-5.341861e-06	-1.705141e-09	-3.710086e+01	-1.108529e+02
3.200000e-07	-5.329320e-06	-1.673726e-09	-3.701376e+01	-1.107177e+02
3.300000e-07	-5.316244e-06	-1.661161e-09	-3.692294e+01	-1.105687e+02
3.400000e-07	-5.302831e-06	-1.691533e-09	-3.682978e+01	-1.104062e+02
3.500000e-07	-5.289055e-06	-1.693350e-09	-3.673410e+01	-1.102307e+02
3.600000e-07	-5.274782e-06	-1.666723e-09	-3.663498e+01	-1.100429e+02
3.700000e-07	-5.260113e-06	-1.671846e-09	-3.653310e+01	-1.098434e+02
3.800000e-07	-5.245016e-06	-1.697159e-09	-3.642824e+01	-1.096333e+02
3.900000e-07	-5.229251e-06	-1.674213e-09	-3.631875e+01	-1.094134e+02
4.000000e-07	-5.212834e-06	-1.639987e-09	-3.620473e+01	-1.091849e+02
4.100000e-07	-5.196107e-06	-1.672377e-09	-3.608855e+01	-1.089489e+02
4.200000e-07	-5.179130e-06	-1.681136e-09	-3.597064e+01	-1.087067e+02
4.300000e-07	-5.161818e-06	-1.635344e-09	-3.585040e+01	-1.084595e+02
4.400000e-07	-5.144180e-06	-1.639712e-09	-3.572790e+01	-1.082085e+02
4.500000e-07	-5.126182e-06	-1.692501e-09	-3.560290e+01	-1.079549e+02
4.600000e-07	-5.107823e-06	-1.649594e-09	-3.547540e+01	-1.076999e+02
4.700000e-07	-5.089008e-06	-1.603552e-09	-3.534472e+01	-1.074446e+02
4.800000e-07	-5.069856e-06	-1.643662e-09	-3.521171e+01	-1.071900e+02
4.900000e-07	-5.050467e-06	-1.659022e-09	-3.507704e+01	-1.069371e+02
5.000000e-07	-5.030820e-06	-1.603884e-09	-3.494059e+01	-1.066867e+02
5.100000e-07	-5.010941e-06	-1.623545e-09	-3.480252e+01	-1.064394e+02
5.200000e-07	-4.990768e-06	-1.647811e-09	-3.466241e+01	-1.061958e+02
5.300000e-07	-4.970224e-06	-1.604617e-09	-3.451973e+01	-1.059564e+02
5.400000e-07	-4.949365e-06	-1.600700e-09	-3.437486e+01	-1.057213e+02
5.500000e-07	-4.928113e-06	-1.649896e-09	-3.422726e+01	-1.054908e+02
5.600000e-07	-4.906411e-06	-1.606713e-09	-3.407653e+01	-1.052648e+02
5.700000e-07	-4.884421e-06	-1.568493e-09	-3.392380e+01	-1.050432e+02
5.800000e-07	-4.862084e-06	-1.614033e-09	-3.376867e+01	-1.048256e+02
5.900000e-07	-4.839363e-06	-1.617662e-09	-3.361086e+01	-1.046116e+02
6.000000e-07	-4.816364e-06	-1.568132e-09	-3.345112e+01	-1.044007e+02
6.100000e-07	-4.793118e-06	-1.593351e-09	-3.328967e+01	-1.041923e+02
6.200000e-07	-4.769595e-06	-1.611890e-09	-3.312630e+01	-1.039857e+02
6.300000e-07	-4.745833e-06	-1.568858e-09	-3.296126e+01	-1.037801e+02
6.400000e-07	-4.721828e-06	-1.570617e-09	-3.279454e+01	-1.035747e+02
6.500000e-07	-4.697564e-06	-1.598304e-09	-3.262602e+01	-1.033686e+02
6.600000e-07	-4.672962e-06	-1.569128e-09	-3.245515e+01	-1.031610e+02
6.700000e-07	-4.647850e-06	-1.560729e-09	-3.228074e+01	-1.029511e+02
6.800000e-07	-4.622188e-06	-1.588875e-09	-3.210251e+01	-1.027379e+02
6.900000e-07	-4.595920e-06	-1.570449e-09	-3.192007e+01	-1.025206e+02
7.000000e-07	-4.569060e-06	-1.551380e-09	-3.173352e+01	-1.022986e+02
7.100000e-07	-4.541818e-06	-1.569824e-09	-3.154432e+01	-1.020712e+02
7.200000e-07	-4.514302e-06	-1.560723e-09	-3.135321e+01	-1.018376e+02
7.300000e-07	-4.486606e-06	-1.533087e-09	-3.116086e+01	-1.015974e+02
7.400000e-07	-4.458783e-06	-1.546619e-09	-3.096761e+01	-1.013501e+02
7.500000e-07	-4.430732e-06	-1.547392e-09	-3.077279e+01	-1.010954e+02
7.600000e-07	-4.402392e-06	-1.521702e-09	-3.057596e+01	-1.008330e+02
7.700000e-07	-4.373828e-06	-1.520853e-09	-3.037757e+01	-1.005628e+02
7.800000e-07	-4.344927e-06	-1.532417e-09	-3.017685e+01	-1.002846e+02
7.900000e-07	-4.315581e-06	-1.515012e-09	-2.997303e+01	-9.999850e+01
8.000000e-07	-4.285909e-06	-1.512602e-09	-2.976695e+01	-9.970461e+01
8.100000e-07	-4.256041e-06	-1.518499e-09	-2.955951e+01	-9.940308e+01
8.200000e-07	-4.225957e-06	-1.500223e-09	-2.935057e+01	-9.909418e+01
8.300000e-07	-4.195526e-06	-1.478979e-09	-2.913921e+01	-9.877819e+01
8.400000e-07	-4.164797e-06	-1.485194e-09	-2.892579e+01	-9.845548e+01
8.500000e-07	-4.133745e-06	-1.480712e-09	-2.871013e+01	-9.812644e+01
8.600000e-07	-4.102424e-06	-1.469297e-09	-2.849259e+01	-9.779146e+01
8.700000e-07	-4.070986e-06	-1.471227e-09	-2.827425e+01	-9.745099e+01
8.800000e-07	-4.039369e-06	-1.468423e-09	-2.805465e+01	-9.710544e+01
8.900000e-07	-4.007604e-06	-1.447825e-09	-2.783404e+01	-9.675524e+01
9.000000e-07	-3.975650e-06	-1.440656e-09	-2.761210e+01	-9.640078e+01
9.100000e-07	-3.943387e-06	-1.441927e-09	-2.738803e+01	-9.604243e+01
9.200000e-07	-3.910658e-06	-1.431795e-09	-2.716072e+01	-9.568054e+01
9.300000e-07	-3.877389e-06	-1.426210e-09	-2.692966e+01	-9.531538e+01
9.400000e-07	-3.843658e-06	-1.432515e-09	-2.669538e+01	-9.494721e+01
9.500000e-07	-3.809596e-06	-1.427199e-09	-2.645881e+01	-9.457622e+01
9.600000e-07	-3.775211e-06	-1.415326e-09	-2.622000e+01	-9.420255e+01
9.700000e-07	-3.740478e-06	-1.413923e-09	-2.597877e+01	-9.382629e+01
9.800000e-07	-3.705452e-06	-1.407482e-09	-2.573550e+01	-9.344748e+01
9.900000e-07	-3.670049e-06	-1.392641e-09	-2.548961e+01	-9.306609e+01
1.000000e-06	-3.634393e-06	-1.385933e-09	-2.524197e+01	-9.268206e+01
1.010000e-06	-3.598627e-06	-1.384142e-09	-2.499357e+01	-9.229529e+01
1.020000e-06	-3.562733e-06	-1.372945e-09	-2.474427e+01	-9.190562e+01
1.030000e-06	-3.526693e-06	-1.365442e-09	-2.449396e+01	-9.151288e+01
1.040000e-06	-3.490496e-06	-1.364745e-09	-2.424256e+01	-9.111687e+01
1.050000e-06	-3.454079e-06	-1.358790e-09	-2.398964e+01	-9.071737e+01
1.060000e-06	-3.417407e-06	-1.348124e-09	-2.373494e+01	-9.031414e+01
1.070000e-06	-3.380350e-06	-1.344491e-09	-2.347757e+01	-8.990694e+01
1.080000e-06	-3.342955e-06	-1.335460e-09	-2.321785e+01	-8.949555e+01
1.090000e-06	-3.305367e-06	-1.323033e-09	-2.295679e+01	-8.907973e+01
1.100000e-06	-3.267528e-06	-1.316419e-09	-2.269399e+01	-8.865926e+01
1.110000e-06	-3.229511e-06	-1.312517e-09	-2.242994e+01	-8.823396e+01
1.120000e-06	-3.191294e-06	-1.302309e-09	-2.216451e+01	-8.780364e+01
1.130000e-06	-3.152776e-06	-1.295629e-09	-2.189699e+01	-8.736816e+01
1.140000e-06	-3.113967e-06	-1.290043e-09	-2.162745e+01	-8.692738e+01
1.150000e-06	-3.074932e-06	-1.280209e-09	-2.135635e+01	-8.648121e+01
1.160000e-06	-3.035760e-06	-1.270443e-09	-2.108428e+01	-8.602957e+01
1.170000e-06	-2.996511e-06	-1.263680e-09	-2.081169e+01	-8.557241e+01
1.180000e-06	-2.957130e-06	-1.255890e-09	-2.053817e+01	-8.510969e+01
1.190000e-06	-2.917585e-06	-1.250390e-09	-2.026352e+01	-8.464140e+01
1.200000e-06	-2.877893e-06	-1.247335e-09	-1.998785e+01	-8.416753e+01
1.210000e-06	-2.838022e-06	-1.240562e-09	-1.971093e+01	-8.368809e+01
1.220000e-06	-2.798014e-06	-1.228830e-09	-1.943306e+01	-8.320308e+01
1.230000e-06	-2.757878e-06	-1.219577e-09	-1.915431e+01	-8.271250e+01
1.240000e-06	-2.717561e-06	-1.212401e-09	-1.887430e+01	-8.221634e+01
1.250000e-06	-2.677071e-06	-1.204108e-09	-1.859308e+01	-8.171456e+01
1.260000e-06	-2.636409e-06	-1.197954e-09	-1.831067e+01	-8.120713e+01
1.270000e-06	-2.595556e-06	-1.193014e-09	-1.802693e+01	-8.069396e+01
1.280000e-06	-2.554387e-06	-1.184578e-09	-1.774100e+01	-8.017495e+01
1.290000e-06	-2.512893e-06	-1.173875e-09	-1.745281e+01	-7.964993e+01
1.300000e-06	-2.471167e-06	-1.163490e-09	-1.716301e+01	-7.911874e+01
1.310000e-06	-2.429140e-06	-1.152215e-09	-1.687112e+01	-7.858113e+01
1.320000e-06	-2.386817e-06	-1.140333e-09	-1.657718e+01	-7.803683e+01
1.330000e-06	-2.344178e-06	-1.129102e-09	-1.628103e+01	-7.748553e+01
1.340000e-06	-2.301266e-06	-1.118507e-09	-1.598300e+01	-7.692685e+01
1.350000e-06	-2.258205e-06	-1.109660e-09	-1.568393e+01	-7.636039e+01
1.360000e-06	-2.214944e-06	-1.103306e-09	-1.538347e+01	-7.578571e+01
1.370000e-06	-2.171447e-06	-1.095271e-09	-1.508136e+01	-7.520232e+01
1.380000e-06	-2.127760e-06	-1.085602e-09	-1.477794e+01	-7.460971e+01
1.390000e-06	-2.084005e-06	-1.072702e-09	-1.447405e+01	-7.400732e+01
1.400000e-06	-2.040221e-06	-1.059444e-09	-1.416996e+01	-7.339460e+01
1.410000e-06	-1.996334e-06	-1.046254e-09	-1.386515e+01	-7.277095e+01
1.420000e-06	-1.952353e-06	-1.032352e-09	-1.355969e+01	-7.213579e+01
1.430000e-06	-1.908336e-06	-1.018947e-09	-1.325397e+01	-7.148851e+01
1.440000e-06	-1.864206e-06	-1.009197e-09	-1.294748e+01	-7.082851e+01
1.450000e-06	-1.819981e-06	-9.985208e-10	-1.264033e+01	-7.015519e+01
1.460000e-06	-1.775656e-06	-9.877904e-10	-1.233248e+01	-6.946799e+01
1.470000e-06	-1.731182e-06	-9.750560e-10	-1.202359e+01	-6.876632e+01
1.480000e-06	-1.686624e-06	-9.601434e-10	-1.171412e+01	-6.804964e+01
1.490000e-06	-1.641966e-06	-9.440776e-10	-1.140396e+01	-6.731744e+01
1.500000e-06	-1.597204e-06	-9.264749e-10	-1.109307e+01	-6.656919e+01
1.510000e-06	-1.552218e-06	-9.100628e-10	-1.078063e+01	-6.580444e+01
1.520000e-06	-1.507080e-06	-8.960652e-10	-1.046713e+01	-6.502273e+01
1.530000e-06	-1.461911e-06	-8.856856e-10	-1.015342e+01	-6.422363e+01
1.540000e-06	-1.416570e-06	-8.761822e-10	-9.838511e+00	-6.340673e+01
1.550000e-06	-1.371189e-06	-8.629579e-10	-9.523328e+00	-6.257165e+01
1.560000e-06	-1.325809e-06	-8.465124e-10	-9.208148e+00	-6.171800e+01
1.570000e-06	-1.280239e-06	-8.317298e-10	-8.891652e+00	-6.084543e+01
1.580000e-06	-1.234517e-06	-8.171844e-10	-8.574097e+00	-5.995356e+01
1.590000e-06	-1.188721e-06	-8.009152e-10	-8.256031e+00	-5.904203e+01
1.600000e-06	-1.142877e-06	-7.860830e-10	-7.937634e+00	-5.811047e+01
1.610000e-06	-1.096996e-06	-7.715411e-10	-7.618976e+00	-5.715847e+01
1.620000e-06	-1.050977e-06	-7.572376e-10	-7.299358e+00	-5.618562e+01
1.630000e-06	-1.004840e-06	-7.447391e-10	-6.978925e+00	-5.519147e+01
1.640000e-06	-9.586327e-07	-7.325114e-10	-6.657998e+00	-5.417555e+01
1.650000e-06	-9.123590e-07	-7.150894e-10	-6.336613e+00	-5.313734e+01
1.660000e-06	-8.661188e-07	-6.943055e-10	-6.015461e+00	-5.207626e+01
1.670000e-06	-8.198091e-07	-6.759321e-10	-5.693825e+00	-5.099172e+01
1.680000e-06	-7.734369e-07	-6.588789e-10	-5.371756e+00	-4.988305e+01
1.690000e-06	-7.270986e-07	-6.433950e-10	-5.049922e+00	-4.874955e+01
1.700000e-06	-6.806815e-07	-6.273132e-10	-4.727542e+00	-4.759047e+01
1.710000e-06	-6.341379e-07	-6.097431e-10	-4.404282e+00	-4.640500e+01
1.720000e-06	-5.875913e-07	-5.905879e-10	-4.081001e+00	-4.519231e+01
1.730000e-06	-5.410367e-07	-5.699594e-10	-3.757666e+00	-4.395152e+01
1.740000e-06	-4.943688e-07	-5.496001e-10	-3.433543e+00	-4.268175e+01
1.750000e-06	-4.475992e-07	-5.281568e-10	-3.108714e+00	-4.138208e+01
1.760000e-06	-4.007735e-07	-5.069353e-10	-2.783494e+00	-4.005159e+01
1.770000e-06	-3.540109e-07	-4.867750e-10	-2.458714e+00	-3.868937e+01
1.780000e-06	-3.072386e-07	-4.666683e-10	-2.133866e+00	-3.729452e+01
1.790000e-06	-2.603074e-07	-4.474515e-10	-1.807915e+00	-3.586619e+01
1.800000e-06	-2.132564e-07	-4.271079e-10	-1.481131e+00	-3.440356e+01
1.810000e-06	-1.662668e-07	-4.063730e-10	-1.154774e+00	-3.290590e+01
1.820000e-06	-1.193891e-07	-3.842086e-10	-8.291939e-01	-3.137255e+01
1.830000e-06	-7.258670e-08	-3.620343e-10	-5.041369e-01	-2.980294e+01
1.840000e-06	-2.573375e-08	-3.409906e-10	-1.787288e-01	-2.819661e+01
1.850000e-06	2.114954e-08	-3.199522e-10	1.468900e-01	-2.655325e+01
1.860000e-06	6.796150e-08	-2.987212e-10	4.720134e-01	-2.487267e+01
1.870000e-06	1.148405e-07	-2.751917e-10	7.976025e-01	-2.315486e+01
1.880000e-06	1.617498e-07	-2.500930e-10	1.123402e+00	-2.139996e+01
1.890000e-06	2.086061e-07	-2.256480e-10	1.448833e+00	-1.960831e+01
1.900000e-06	2.553414e-07	-1.995441e-10	1.773424e+00	-1.778041e+01
1.910000e-06	3.020193e-07	-1.713869e-10	2.097617e+00	-1.591697e+01
1.920000e-06	3.488407e-07	-1.434359e-10	2.422806e+00	-1.401893e+01
1.930000e-06	3.957100e-07	-1.163206e-10	2.748327e+00	-1.208738e+01
1.940000e-06	4.424849e-07	-8.907994e-11	3.073193e+00	-1.012366e+01
1.950000e-06	4.891284e-07	-6.114651e-11	3.397146e+00	-8.129295e+00
1.960000e-06	5.356949e-07	-3.463503e-11	3.720565e+00	-6.106005e+00
1.970000e-06	5.823607e-07	-7.836049e-12	4.044673e+00	-4.055710e+00
1.980000e-06	6.290659e-07	1.986332e-11	4.369055e+00	-1.980512e+00
1.990000e-06	6.756393e-07	4.965489e-11	4.692522e+00	1.173152e-01
2.000000e-06	7.220554e-07	8.338382e-11	5.014896e+00	2.235337e+00
2.010000e-06	7.684028e-07	1.189326e-10	5.336792e+00	4.370976e+00
2.020000e-06	8.146253e-07	1.522465e-10	5.657822e+00	6.521522e+00
2.030000e-06	8.607292e-07	1.823207e-10	5.978028e+00	8.684159e+00
2.040000e-06	9.067794e-07	2.109953e-10	6.297861e+00	1.085598e+01
2.050000e-06	9.528337e-07	2.405988e-10	6.617722e+00	1.303400e+01
2.060000e-06	9.988915e-07	2.711973e-10	6.937607e+00	1.521520e+01
2.070000e-06	1.044814e-06	3.021759e-10	7.256554e+00	1.739651e+01
2.080000e-06	1.090673e-06	3.342500e-10	7.575061e+00	1.957488e+01
2.090000e-06	1.136491e-06	3.664115e-10	7.893280e+00	2.174726e+01
2.100000e-06	1.182270e-06	3.992296e-10	8.211225e+00	2.391064e+01
2.110000e-06	1.228017e-06	4.316525e-10	8.528955e+00	2.606206e+01
2.120000e-06	1.273673e-06	4.622896e-10	8.846049e+00	2.819866e+01
2.130000e-06	1.319275e-06	4.923221e-10	9.162769e+00	3.031766e+01
2.140000e-06	1.364716e-06	5.221431e-10	9.478371e+00	3.241640e+01
2.150000e-06	1.409983e-06	5.499247e-10	9.792761e+00	3.449234e+01
2.160000e-06	1.455151e-06	5.764717e-10	1.010647e+01	3.654311e+01
2.170000e-06	1.500261e-06	6.042356e-10	1.041977e+01	3.856646e+01
2.180000e-06	1.545300e-06	6.330897e-10	1.073258e+01	4.056036e+01
2.190000e-06	1.590166e-06	6.621478e-10	1.104419e+01	4.252290e+01
2.200000e-06	1.634988e-06	6.899489e-10	1.135549e+01	4.445240e+01
2.210000e-06	1.679722e-06	7.167382e-10	1.166618e+01	4.634735e+01
2.220000e-06	1.724216e-06	7.439932e-10	1.197521e+01	4.820643e+01
2.230000e-06	1.768629e-06	7.695928e-10	1.228367e+01	5.002851e+01
2.240000e-06	1.812944e-06	7.923462e-10	1.259145e+01	5.181268e+01
2.250000e-06	1.857060e-06	8.136969e-10	1.289785e+01	5.355817e+01
2.260000e-06	1.901046e-06	8.348341e-10	1.320335e+01	5.526443e+01
2.270000e-06	1.944967e-06	8.566932e-10	1.350839e+01	5.693107e+01
2.280000e-06	1.988837e-06	8.790993e-10	1.381308e+01	5.855787e+01
2.290000e-06	2.032625e-06	9.013535e-10	1.411720e+01	6.014478e+01
2.300000e-06	2.076375e-06	9.231278e-10	1.442106e+01	6.169188e+01
2.310000e-06	2.120110e-06	9.435840e-10	1.472481e+01	6.319939e+01
2.320000e-06	2.163772e-06	9.623917e-10	1.502806e+01	6.466766e+01
2.330000e-06	2.207310e-06	9.808969e-10	1.533045e+01	6.609716e+01
2.340000e-06	2.250712e-06	9.999917e-10	1.563188e+01	6.748842e+01
2.350000e-06	2.293990e-06	1.019601e-09	1.593246e+01	6.884209e+01
2.360000e-06	2.337093e-06	1.039539e-09	1.623183e+01	7.015888e+01
2.370000e-06	2.379887e-06	1.057647e-09	1.652904e+01	7.143955e+01
2.380000e-06	2.422467e-06	1.073141e-09	1.682477e+01	7.268489e+01
2.390000e-06	2.464767e-06	1.086752e-09	1.711856e+01	7.389574e+01
2.400000e-06	2.506701e-06	1.100866e-09	1.740981e+01	7.507296e+01
2.410000e-06	2.548324e-06	1.115323e-09	1.769889e+01	7.621740e+01
2.420000e-06	2.589587e-06	1.129063e-09	1.798547e+01	7.732991e+01
2.430000e-06	2.630459e-06	1.141972e-09	1.826935e+01	7.841133e+01
2.440000e-06	2.671033e-06	1.154030e-09	1.855114e+01	7.946247e+01
2.450000e-06	2.711465e-06	1.166837e-09	1.883195e+01	8.048413e+01
2.460000e-06	2.751716e-06	1.180297e-09	1.911151e+01	8.147706e+01
2.470000e-06	2.791761e-06	1.193467e-09	1.938964e+01	8.244197e+01
2.480000e-06	2.831657e-06	1.205711e-09	1.966673e+01	8.337955e+01
2.490000e-06	2.871484e-06	1.217502e-09	1.994333e+01	8.429041e+01
2.500000e-06	2.911185e-06	1.230176e-09	2.021907e+01	8.517514e+01
2.510000e-06	2.950722e-06	1.241534e-09	2.049367e+01	8.603429e+01
2.520000e-06	2.990155e-06	1.252125e-09	2.076754e+01	8.686837e+01
2.530000e-06	3.029355e-06	1.263046e-09	2.103980e+01	8.767783e+01
2.540000e-06	3.068327e-06	1.272819e-09	2.131047e+01	8.846311e+01
2.550000e-06	3.107103e-06	1.282253e-09	2.157978e+01	8.922461e+01
2.560000e-06	3.145617e-06	1.291404e-09	2.184727e+01	8.996271e+01
2.570000e-06	3.183979e-06	1.301447e-09	2.211371e+01	9.067777e+01
2.580000e-06	3.222124e-06	1.311906e-09	2.237864e+01	9.137014e+01
2.590000e-06	3.259964e-06	1.321412e-09	2.264145e+01	9.204017e+01
2.600000e-06	3.297614e-06	1.328971e-09	2.290294e+01	9.268822e+01
2.610000e-06	3.335147e-06	1.336771e-09	2.316362e+01	9.331464e+01
2.620000e-06	3.372465e-06	1.345923e-09	2.342280e+01	9.391982e+01
2.630000e-06	3.409538e-06	1.355188e-09	2.368029e+01	9.450416e+01
2.640000e-06	3.446375e-06	1.366228e-09	2.393613e+01	9.506810e+01
2.650000e-06	3.482880e-06	1.377705e-09	2.418967e+01	9.561211e+01
2.660000e-06	3.519066e-06	1.385859e-09	2.444099e+01	9.613670e+01
2.670000e-06	3.555061e-06	1.390960e-09	2.469099e+01	9.664243e+01
2.680000e-06	3.590927e-06	1.395655e-09	2.494009e+01	9.712989e+01
2.690000e-06	3.626663e-06	1.400221e-09	2.518829e+01	9.759974e+01
2.700000e-06	3.662300e-06	1.404816e-09	2.543580e+01	9.805267e+01
2.710000e-06	3.697760e-06	1.411856e-09	2.568207e+01	9.848944e+01
2.720000e-06	3.733027e-06	1.421162e-09	2.592702e+01	9.891082e+01
2.730000e-06	3.767983e-06	1.431438e-09	2.616979e+01	9.931765e+01
2.740000e-06	3.802461e-06	1.440662e-09	2.640926e+01	9.971079e+01
2.750000e-06	3.836553e-06	1.447074e-09	2.664604e+01	1.000911e+02
2.760000e-06	3.870213e-06	1.450077e-09	2.687981e+01	1.004596e+02
2.770000e-06	3.903324e-06	1.453079e-09	2.710978e+01	1.008172e+02
2.780000e-06	3.935921e-06	1.457605e-09	2.733618e+01	1.011648e+02
2.790000e-06	3.968131e-06	1.464130e-09	2.755989e+01	1.015033e+02
2.800000e-06	4.000093e-06	1.473569e-09	2.778187e+01	1.018337e+02
2.810000e-06	4.031937e-06	1.482953e-09	2.800304e+01	1.021569e+02
2.820000e-06	4.063722e-06	1.488730e-09	2.822379e+01	1.024738e+02
2.830000e-06	4.095370e-06	1.493198e-09	2.844360e+01	1.027852e+02
2.840000e-06	4.126776e-06	1.497014e-09	2.866172e+01	1.030918e+02
2.850000e-06	4.157892e-06	1.497845e-09	2.887783e+01	1.033944e+02
2.860000e-06	4.188727e-06	1.497431e-09	2.909199e+01	1.036936e+02
2.870000e-06	4.219223e-06	1.500069e-09	2.930380e+01	1.039900e+02
2.880000e-06	4.249301e-06	1.506770e-09	2.951270e+01	1.042840e+02
2.890000e-06	4.279111e-06	1.513892e-09	2.971974e+01	1.045759e+02
2.900000e-06	4.308688e-06	1.521350e-09	2.992516e+01	1.048662e+02
