# Temperatura_=_-17.74
# Concentracion g/m^3_=_1620.0
# C_Vs_to_Am_M_A/Vsm_=_65563218390.804596
# pendiente_HvsI_1/m_=_3716.3
# ordenada_HvsI_A/m_=_1297.0
# frecuencia_Hz_=_135107.23191066264

Tiempo_(s)	Campo_(V.s)	Magnetizacion_(V.s)	Campo_(kA/m)	Magnetizacion_(A/m)
0.000000e+00	-5.528966e-06	-9.196148e-10	-3.837888e+01	-5.990572e+01
1.000000e-08	-5.529075e-06	-9.170356e-10	-3.837963e+01	-5.989171e+01
2.000000e-08	-5.528851e-06	-9.159079e-10	-3.837807e+01	-5.988420e+01
3.000000e-08	-5.528154e-06	-9.166160e-10	-3.837324e+01	-5.988308e+01
4.000000e-08	-5.526921e-06	-9.168147e-10	-3.836468e+01	-5.988808e+01
5.000000e-08	-5.525132e-06	-9.149869e-10	-3.835226e+01	-5.989883e+01
6.000000e-08	-5.522799e-06	-9.140570e-10	-3.833606e+01	-5.991486e+01
7.000000e-08	-5.519973e-06	-9.132051e-10	-3.831645e+01	-5.993555e+01
8.000000e-08	-5.516636e-06	-9.263508e-10	-3.829329e+01	-5.996020e+01
9.000000e-08	-5.512861e-06	-9.355216e-10	-3.826708e+01	-5.998800e+01
1.000000e-07	-5.508719e-06	-9.090026e-10	-3.823833e+01	-6.001809e+01
1.100000e-07	-5.504272e-06	-8.808105e-10	-3.820746e+01	-6.004949e+01
1.200000e-07	-5.499589e-06	-9.101888e-10	-3.817496e+01	-6.008121e+01
1.300000e-07	-5.494539e-06	-9.169319e-10	-3.813990e+01	-6.011220e+01
1.400000e-07	-5.489135e-06	-9.226794e-10	-3.810239e+01	-6.014141e+01
1.500000e-07	-5.483440e-06	-8.714120e-10	-3.806286e+01	-6.016777e+01
1.600000e-07	-5.477426e-06	-9.135853e-10	-3.802112e+01	-6.019025e+01
1.700000e-07	-5.470895e-06	-9.251276e-10	-3.797578e+01	-6.020787e+01
1.800000e-07	-5.463898e-06	-9.248603e-10	-3.792721e+01	-6.021968e+01
1.900000e-07	-5.456600e-06	-8.694323e-10	-3.787655e+01	-6.022483e+01
2.000000e-07	-5.448984e-06	-8.830183e-10	-3.782368e+01	-6.022256e+01
2.100000e-07	-5.441118e-06	-9.212286e-10	-3.776908e+01	-6.021223e+01
2.200000e-07	-5.432970e-06	-9.343670e-10	-3.771252e+01	-6.019332e+01
2.300000e-07	-5.424436e-06	-9.041918e-10	-3.765329e+01	-6.016544e+01
2.400000e-07	-5.415286e-06	-8.767657e-10	-3.758977e+01	-6.012836e+01
2.500000e-07	-5.405416e-06	-8.990375e-10	-3.752126e+01	-6.008198e+01
2.600000e-07	-5.395019e-06	-8.954749e-10	-3.744909e+01	-6.002638e+01
2.700000e-07	-5.384164e-06	-8.935854e-10	-3.737375e+01	-5.996177e+01
2.800000e-07	-5.372807e-06	-8.765322e-10	-3.729491e+01	-5.988853e+01
2.900000e-07	-5.361082e-06	-9.035528e-10	-3.721352e+01	-5.980719e+01
3.000000e-07	-5.349017e-06	-8.804253e-10	-3.712977e+01	-5.971841e+01
3.100000e-07	-5.336542e-06	-8.825581e-10	-3.704318e+01	-5.962298e+01
3.200000e-07	-5.323622e-06	-8.739983e-10	-3.695350e+01	-5.952179e+01
3.300000e-07	-5.310280e-06	-9.089557e-10	-3.686088e+01	-5.941587e+01
3.400000e-07	-5.296481e-06	-8.749422e-10	-3.676510e+01	-5.930629e+01
3.500000e-07	-5.282175e-06	-8.711296e-10	-3.666580e+01	-5.919420e+01
3.600000e-07	-5.267479e-06	-8.722262e-10	-3.656378e+01	-5.908081e+01
3.700000e-07	-5.252424e-06	-8.969993e-10	-3.645928e+01	-5.896732e+01
3.800000e-07	-5.236796e-06	-8.601730e-10	-3.635080e+01	-5.885495e+01
3.900000e-07	-5.220580e-06	-8.708596e-10	-3.623824e+01	-5.874491e+01
4.000000e-07	-5.203960e-06	-8.866964e-10	-3.612287e+01	-5.863835e+01
4.100000e-07	-5.186994e-06	-8.795322e-10	-3.600510e+01	-5.853638e+01
4.200000e-07	-5.169739e-06	-8.589977e-10	-3.588533e+01	-5.844001e+01
4.300000e-07	-5.152279e-06	-8.876738e-10	-3.576413e+01	-5.835018e+01
4.400000e-07	-5.134512e-06	-8.893948e-10	-3.564080e+01	-5.826771e+01
4.500000e-07	-5.116287e-06	-8.549449e-10	-3.551430e+01	-5.819330e+01
4.600000e-07	-5.097580e-06	-8.682749e-10	-3.538444e+01	-5.812751e+01
4.700000e-07	-5.078509e-06	-8.924863e-10	-3.525207e+01	-5.807077e+01
4.800000e-07	-5.059113e-06	-8.716638e-10	-3.511743e+01	-5.802338e+01
4.900000e-07	-5.039383e-06	-8.647486e-10	-3.498047e+01	-5.798548e+01
5.000000e-07	-5.019468e-06	-9.012883e-10	-3.484224e+01	-5.795706e+01
5.100000e-07	-4.999361e-06	-8.818389e-10	-3.470266e+01	-5.793798e+01
5.200000e-07	-4.978906e-06	-8.656782e-10	-3.456068e+01	-5.792797e+01
5.300000e-07	-4.958096e-06	-8.958544e-10	-3.441622e+01	-5.792662e+01
5.400000e-07	-4.936981e-06	-9.023626e-10	-3.426966e+01	-5.793341e+01
5.500000e-07	-4.915489e-06	-8.554836e-10	-3.412047e+01	-5.794773e+01
5.600000e-07	-4.893597e-06	-8.746562e-10	-3.396851e+01	-5.796886e+01
5.700000e-07	-4.871396e-06	-8.961389e-10	-3.381441e+01	-5.799602e+01
5.800000e-07	-4.848857e-06	-8.772649e-10	-3.365795e+01	-5.802839e+01
5.900000e-07	-4.825991e-06	-8.698011e-10	-3.349923e+01	-5.806507e+01
6.000000e-07	-4.802886e-06	-9.027409e-10	-3.333885e+01	-5.810518e+01
6.100000e-07	-4.779474e-06	-8.810612e-10	-3.317634e+01	-5.814782e+01
6.200000e-07	-4.755793e-06	-8.651564e-10	-3.301196e+01	-5.819208e+01
6.300000e-07	-4.731949e-06	-8.779499e-10	-3.284645e+01	-5.823713e+01
6.400000e-07	-4.707803e-06	-8.805204e-10	-3.267884e+01	-5.828214e+01
6.500000e-07	-4.683162e-06	-8.574397e-10	-3.250779e+01	-5.832634e+01
6.600000e-07	-4.658040e-06	-8.760433e-10	-3.233341e+01	-5.836906e+01
6.700000e-07	-4.632353e-06	-8.870731e-10	-3.215511e+01	-5.840967e+01
6.800000e-07	-4.606019e-06	-8.780246e-10	-3.197231e+01	-5.844766e+01
6.900000e-07	-4.579233e-06	-8.780068e-10	-3.178638e+01	-5.848259e+01
7.000000e-07	-4.552150e-06	-8.913177e-10	-3.159838e+01	-5.851412e+01
7.100000e-07	-4.524746e-06	-8.774987e-10	-3.140816e+01	-5.854200e+01
7.200000e-07	-4.497071e-06	-8.718284e-10	-3.121606e+01	-5.856610e+01
7.300000e-07	-4.469247e-06	-8.817241e-10	-3.102292e+01	-5.858637e+01
7.400000e-07	-4.441285e-06	-8.831042e-10	-3.082882e+01	-5.860283e+01
7.500000e-07	-4.413080e-06	-8.772206e-10	-3.063304e+01	-5.861560e+01
7.600000e-07	-4.384533e-06	-8.829403e-10	-3.043489e+01	-5.862488e+01
7.700000e-07	-4.355615e-06	-8.862063e-10	-3.023415e+01	-5.863092e+01
7.800000e-07	-4.326421e-06	-8.776512e-10	-3.003151e+01	-5.863402e+01
7.900000e-07	-4.296965e-06	-8.760568e-10	-2.982704e+01	-5.863454e+01
8.000000e-07	-4.267175e-06	-8.744406e-10	-2.962025e+01	-5.863285e+01
8.100000e-07	-4.237077e-06	-8.681205e-10	-2.941133e+01	-5.862935e+01
8.200000e-07	-4.206717e-06	-8.626098e-10	-2.920059e+01	-5.862445e+01
8.300000e-07	-4.176103e-06	-8.697437e-10	-2.898808e+01	-5.861854e+01
8.400000e-07	-4.145188e-06	-8.669605e-10	-2.877349e+01	-5.861200e+01
8.500000e-07	-4.114043e-06	-8.687487e-10	-2.855730e+01	-5.860518e+01
8.600000e-07	-4.082698e-06	-8.718483e-10	-2.833972e+01	-5.859841e+01
8.700000e-07	-4.051079e-06	-8.703257e-10	-2.812024e+01	-5.859195e+01
8.800000e-07	-4.019274e-06	-8.585339e-10	-2.789947e+01	-5.858603e+01
8.900000e-07	-3.987328e-06	-8.595496e-10	-2.767772e+01	-5.858083e+01
9.000000e-07	-3.955120e-06	-8.568988e-10	-2.745415e+01	-5.857644e+01
9.100000e-07	-3.922530e-06	-8.560178e-10	-2.722793e+01	-5.857293e+01
9.200000e-07	-3.889538e-06	-8.587214e-10	-2.699892e+01	-5.857029e+01
9.300000e-07	-3.856068e-06	-8.658040e-10	-2.676659e+01	-5.856845e+01
9.400000e-07	-3.822160e-06	-8.601606e-10	-2.653122e+01	-5.856728e+01
9.500000e-07	-3.787910e-06	-8.579810e-10	-2.629348e+01	-5.856662e+01
9.600000e-07	-3.753259e-06	-8.564869e-10	-2.605295e+01	-5.856625e+01
9.700000e-07	-3.718283e-06	-8.534606e-10	-2.581016e+01	-5.856592e+01
9.800000e-07	-3.682992e-06	-8.489691e-10	-2.556519e+01	-5.856532e+01
9.900000e-07	-3.647425e-06	-8.532490e-10	-2.531831e+01	-5.856417e+01
1.000000e-06	-3.611684e-06	-8.537847e-10	-2.507021e+01	-5.856211e+01
1.010000e-06	-3.575809e-06	-8.534911e-10	-2.482119e+01	-5.855884e+01
1.020000e-06	-3.539814e-06	-8.572285e-10	-2.457134e+01	-5.855400e+01
1.030000e-06	-3.503649e-06	-8.600251e-10	-2.432030e+01	-5.854729e+01
1.040000e-06	-3.467246e-06	-8.544019e-10	-2.406761e+01	-5.853840e+01
1.050000e-06	-3.430608e-06	-8.477375e-10	-2.381329e+01	-5.852705e+01
1.060000e-06	-3.393698e-06	-8.465253e-10	-2.355708e+01	-5.851299e+01
1.070000e-06	-3.356490e-06	-8.443570e-10	-2.329881e+01	-5.849601e+01
1.080000e-06	-3.319080e-06	-8.443922e-10	-2.303913e+01	-5.847593e+01
1.090000e-06	-3.281426e-06	-8.476011e-10	-2.277776e+01	-5.845264e+01
1.100000e-06	-3.243548e-06	-8.495272e-10	-2.251483e+01	-5.842604e+01
1.110000e-06	-3.205465e-06	-8.451538e-10	-2.225048e+01	-5.839610e+01
1.120000e-06	-3.167176e-06	-8.442812e-10	-2.198470e+01	-5.836281e+01
1.130000e-06	-3.128636e-06	-8.421620e-10	-2.171718e+01	-5.832622e+01
1.140000e-06	-3.089826e-06	-8.409320e-10	-2.144778e+01	-5.828642e+01
1.150000e-06	-3.050875e-06	-8.411381e-10	-2.117741e+01	-5.824352e+01
1.160000e-06	-3.011737e-06	-8.447003e-10	-2.090573e+01	-5.819767e+01
1.170000e-06	-2.972376e-06	-8.444642e-10	-2.063251e+01	-5.814904e+01
1.180000e-06	-2.932864e-06	-8.459902e-10	-2.035824e+01	-5.809781e+01
1.190000e-06	-2.893236e-06	-8.489843e-10	-2.008317e+01	-5.804416e+01
1.200000e-06	-2.853445e-06	-8.509617e-10	-1.980696e+01	-5.798831e+01
1.210000e-06	-2.813498e-06	-8.468224e-10	-1.952967e+01	-5.793042e+01
1.220000e-06	-2.773470e-06	-8.449929e-10	-1.925182e+01	-5.787068e+01
1.230000e-06	-2.733310e-06	-8.430648e-10	-1.897305e+01	-5.780924e+01
1.240000e-06	-2.692941e-06	-8.424028e-10	-1.869283e+01	-5.774621e+01
1.250000e-06	-2.652330e-06	-8.412166e-10	-1.841094e+01	-5.768169e+01
1.260000e-06	-2.611416e-06	-8.423539e-10	-1.812693e+01	-5.761573e+01
1.270000e-06	-2.570168e-06	-8.401201e-10	-1.784062e+01	-5.754833e+01
1.280000e-06	-2.528648e-06	-8.365388e-10	-1.755241e+01	-5.747944e+01
1.290000e-06	-2.486818e-06	-8.336393e-10	-1.726205e+01	-5.740898e+01
1.300000e-06	-2.444619e-06	-8.326172e-10	-1.696913e+01	-5.733679e+01
1.310000e-06	-2.402192e-06	-8.289318e-10	-1.667462e+01	-5.726266e+01
1.320000e-06	-2.359472e-06	-8.261403e-10	-1.637808e+01	-5.718636e+01
1.330000e-06	-2.316381e-06	-8.254869e-10	-1.607897e+01	-5.710756e+01
1.340000e-06	-2.273116e-06	-8.241579e-10	-1.577865e+01	-5.702590e+01
1.350000e-06	-2.229782e-06	-8.261277e-10	-1.547786e+01	-5.694100e+01
1.360000e-06	-2.186321e-06	-8.259235e-10	-1.517617e+01	-5.685238e+01
1.370000e-06	-2.142737e-06	-8.217310e-10	-1.487363e+01	-5.675957e+01
1.380000e-06	-2.099044e-06	-8.154053e-10	-1.457035e+01	-5.666205e+01
1.390000e-06	-2.055218e-06	-8.129133e-10	-1.426613e+01	-5.655927e+01
1.400000e-06	-2.011313e-06	-8.098338e-10	-1.396137e+01	-5.645064e+01
1.410000e-06	-1.967373e-06	-8.057119e-10	-1.365637e+01	-5.633558e+01
1.420000e-06	-1.923424e-06	-8.017200e-10	-1.335129e+01	-5.621348e+01
1.430000e-06	-1.879410e-06	-8.009309e-10	-1.304578e+01	-5.608373e+01
1.440000e-06	-1.835204e-06	-7.978054e-10	-1.273892e+01	-5.594571e+01
1.450000e-06	-1.790819e-06	-7.948275e-10	-1.243083e+01	-5.579881e+01
1.460000e-06	-1.746372e-06	-7.913635e-10	-1.212230e+01	-5.564243e+01
1.470000e-06	-1.701882e-06	-7.859200e-10	-1.181348e+01	-5.547595e+01
1.480000e-06	-1.657268e-06	-7.798507e-10	-1.150379e+01	-5.529879e+01
1.490000e-06	-1.612397e-06	-7.741825e-10	-1.119232e+01	-5.511038e+01
1.500000e-06	-1.567287e-06	-7.678044e-10	-1.087919e+01	-5.491015e+01
1.510000e-06	-1.522047e-06	-7.622144e-10	-1.056517e+01	-5.469754e+01
1.520000e-06	-1.476709e-06	-7.567063e-10	-1.025046e+01	-5.447202e+01
1.530000e-06	-1.431338e-06	-7.522835e-10	-9.935519e+00	-5.423307e+01
1.540000e-06	-1.385915e-06	-7.466974e-10	-9.620219e+00	-5.398016e+01
1.550000e-06	-1.340385e-06	-7.410416e-10	-9.304175e+00	-5.371277e+01
1.560000e-06	-1.294741e-06	-7.348627e-10	-8.987344e+00	-5.343041e+01
1.570000e-06	-1.248994e-06	-7.290620e-10	-8.669788e+00	-5.313255e+01
1.580000e-06	-1.203220e-06	-7.230898e-10	-8.352059e+00	-5.281868e+01
1.590000e-06	-1.157399e-06	-7.148626e-10	-8.033989e+00	-5.248826e+01
1.600000e-06	-1.111463e-06	-7.080375e-10	-7.715134e+00	-5.214077e+01
1.610000e-06	-1.065459e-06	-7.035145e-10	-7.395797e+00	-5.177564e+01
1.620000e-06	-1.019432e-06	-6.985743e-10	-7.076308e+00	-5.139230e+01
1.630000e-06	-9.733679e-07	-6.915455e-10	-6.756555e+00	-5.099014e+01
1.640000e-06	-9.271939e-07	-6.836550e-10	-6.436042e+00	-5.056852e+01
1.650000e-06	-8.809524e-07	-6.748264e-10	-6.115060e+00	-5.012680e+01
1.660000e-06	-8.346979e-07	-6.672765e-10	-5.793988e+00	-4.966427e+01
1.670000e-06	-7.883316e-07	-6.594032e-10	-5.472141e+00	-4.918021e+01
1.680000e-06	-7.418682e-07	-6.522775e-10	-5.149619e+00	-4.867387e+01
1.690000e-06	-6.954305e-07	-6.416904e-10	-4.827275e+00	-4.814446e+01
1.700000e-06	-6.489100e-07	-6.294369e-10	-4.504357e+00	-4.759117e+01
1.710000e-06	-6.022266e-07	-6.215371e-10	-4.180308e+00	-4.701316e+01
1.720000e-06	-5.555028e-07	-6.135492e-10	-3.855978e+00	-4.640957e+01
1.730000e-06	-5.088332e-07	-6.025249e-10	-3.532025e+00	-4.577951e+01
1.740000e-06	-4.622389e-07	-5.931029e-10	-3.208594e+00	-4.512211e+01
1.750000e-06	-4.155479e-07	-5.842275e-10	-2.884493e+00	-4.443647e+01
1.760000e-06	-3.686775e-07	-5.731014e-10	-2.559146e+00	-4.372171e+01
1.770000e-06	-3.217532e-07	-5.603858e-10	-2.233424e+00	-4.297695e+01
1.780000e-06	-2.748735e-07	-5.492907e-10	-1.908012e+00	-4.220134e+01
1.790000e-06	-2.279818e-07	-5.369145e-10	-1.582517e+00	-4.139406e+01
1.800000e-06	-1.810060e-07	-5.236483e-10	-1.256438e+00	-4.055433e+01
1.810000e-06	-1.340426e-07	-5.123387e-10	-9.304461e-01	-3.968143e+01
1.820000e-06	-8.716057e-08	-5.012853e-10	-6.050181e-01	-3.877468e+01
1.830000e-06	-4.035348e-08	-4.898162e-10	-2.801104e-01	-3.783348e+01
1.840000e-06	6.467380e-09	-4.792072e-10	4.489280e-02	-3.685733e+01
1.850000e-06	5.336736e-08	-4.672625e-10	3.704452e-01	-3.584579e+01
1.860000e-06	1.002636e-07	-4.525807e-10	6.959718e-01	-3.479855e+01
1.870000e-06	1.471692e-07	-4.354329e-10	1.021563e+00	-3.371539e+01
1.880000e-06	1.941309e-07	-4.178990e-10	1.347544e+00	-3.259621e+01
1.890000e-06	2.411133e-07	-4.004128e-10	1.673668e+00	-3.144103e+01
1.900000e-06	2.880350e-07	-3.827427e-10	1.999372e+00	-3.025003e+01
1.910000e-06	3.348976e-07	-3.662489e-10	2.324665e+00	-2.902349e+01
1.920000e-06	3.817134e-07	-3.498548e-10	2.649633e+00	-2.776184e+01
1.930000e-06	4.284805e-07	-3.350010e-10	2.974263e+00	-2.646567e+01
1.940000e-06	4.751720e-07	-3.192929e-10	3.298368e+00	-2.513570e+01
1.950000e-06	5.217846e-07	-3.001204e-10	3.621926e+00	-2.377281e+01
1.960000e-06	5.683716e-07	-2.794656e-10	3.945306e+00	-2.237801e+01
1.970000e-06	6.149296e-07	-2.586567e-10	4.268484e+00	-2.095248e+01
1.980000e-06	6.614084e-07	-2.374716e-10	4.591113e+00	-1.949752e+01
1.990000e-06	7.078129e-07	-2.151800e-10	4.913226e+00	-1.801459e+01
2.000000e-06	7.542358e-07	-1.924899e-10	5.235467e+00	-1.650527e+01
2.010000e-06	8.006229e-07	-1.729700e-10	5.557460e+00	-1.497127e+01
2.020000e-06	8.469272e-07	-1.545522e-10	5.878877e+00	-1.341442e+01
2.030000e-06	8.931969e-07	-1.345234e-10	6.200055e+00	-1.183666e+01
2.040000e-06	9.394969e-07	-1.118776e-10	6.521442e+00	-1.024005e+01
2.050000e-06	9.857170e-07	-8.774513e-11	6.842275e+00	-8.626732e+00
2.060000e-06	1.031759e-06	-6.300285e-11	7.161874e+00	-6.998915e+00
2.070000e-06	1.077725e-06	-3.859335e-11	7.480943e+00	-5.358896e+00
2.080000e-06	1.123692e-06	-1.593041e-11	7.800021e+00	-3.709019e+00
2.090000e-06	1.169534e-06	5.962953e-12	8.118227e+00	-2.051677e+00
2.100000e-06	1.215234e-06	2.951048e-11	8.435451e+00	-3.892888e-01
2.110000e-06	1.260877e-06	5.492993e-11	8.752275e+00	1.275708e+00
2.120000e-06	1.306447e-06	8.117161e-11	9.068596e+00	2.940874e+00
2.130000e-06	1.351946e-06	1.068413e-10	9.384422e+00	4.603782e+00
2.140000e-06	1.397386e-06	1.300214e-10	9.699845e+00	6.262031e+00
2.150000e-06	1.442745e-06	1.517529e-10	1.001470e+01	7.913258e+00
2.160000e-06	1.488005e-06	1.737142e-10	1.032887e+01	9.555153e+00
2.170000e-06	1.533174e-06	1.954208e-10	1.064240e+01	1.118547e+01
2.180000e-06	1.578198e-06	2.170235e-10	1.095493e+01	1.280205e+01
2.190000e-06	1.623054e-06	2.389820e-10	1.126630e+01	1.440280e+01
2.200000e-06	1.667765e-06	2.616194e-10	1.157666e+01	1.598576e+01
2.210000e-06	1.712426e-06	2.833167e-10	1.188667e+01	1.754904e+01
2.220000e-06	1.756958e-06	3.043808e-10	1.219578e+01	1.909091e+01
2.230000e-06	1.801267e-06	3.247057e-10	1.250335e+01	2.060972e+01
2.240000e-06	1.845461e-06	3.427639e-10	1.281012e+01	2.210399e+01
2.250000e-06	1.889521e-06	3.599921e-10	1.311596e+01	2.357235e+01
2.260000e-06	1.933438e-06	3.774849e-10	1.342080e+01	2.501358e+01
2.270000e-06	1.977276e-06	3.969294e-10	1.372511e+01	2.642659e+01
2.280000e-06	2.021037e-06	4.150397e-10	1.402887e+01	2.781045e+01
2.290000e-06	2.064760e-06	4.316245e-10	1.433236e+01	2.916434e+01
2.300000e-06	2.108465e-06	4.491875e-10	1.463574e+01	3.048761e+01
2.310000e-06	2.152122e-06	4.677533e-10	1.493879e+01	3.177972e+01
2.320000e-06	2.195718e-06	4.863297e-10	1.524140e+01	3.304026e+01
2.330000e-06	2.239261e-06	5.039718e-10	1.554365e+01	3.426896e+01
2.340000e-06	2.282664e-06	5.223229e-10	1.584493e+01	3.546564e+01
2.350000e-06	2.325851e-06	5.397404e-10	1.614470e+01	3.663025e+01
2.360000e-06	2.368891e-06	5.556354e-10	1.644347e+01	3.776281e+01
2.370000e-06	2.411827e-06	5.703416e-10	1.674151e+01	3.886346e+01
2.380000e-06	2.454464e-06	5.823529e-10	1.703747e+01	3.993238e+01
2.390000e-06	2.496497e-06	5.959263e-10	1.732923e+01	4.096985e+01
2.400000e-06	2.538085e-06	6.109192e-10	1.761791e+01	4.197619e+01
2.410000e-06	2.579435e-06	6.245209e-10	1.790494e+01	4.295175e+01
2.420000e-06	2.620450e-06	6.339201e-10	1.818964e+01	4.389695e+01
2.430000e-06	2.661123e-06	6.416651e-10	1.847197e+01	4.481219e+01
2.440000e-06	2.701552e-06	6.500627e-10	1.875260e+01	4.569791e+01
2.450000e-06	2.741779e-06	6.585039e-10	1.903184e+01	4.655456e+01
2.460000e-06	2.781856e-06	6.696423e-10	1.931003e+01	4.738257e+01
2.470000e-06	2.821813e-06	6.804062e-10	1.958739e+01	4.818237e+01
2.480000e-06	2.861596e-06	6.894258e-10	1.986354e+01	4.895437e+01
2.490000e-06	2.901274e-06	6.963667e-10	2.013896e+01	4.969896e+01
2.500000e-06	2.940859e-06	7.043668e-10	2.041374e+01	5.041651e+01
2.510000e-06	2.980319e-06	7.121169e-10	2.068765e+01	5.110736e+01
2.520000e-06	3.019612e-06	7.190286e-10	2.096039e+01	5.177184e+01
2.530000e-06	3.058608e-06	7.266035e-10	2.123108e+01	5.241024e+01
2.540000e-06	3.097365e-06	7.343345e-10	2.150011e+01	5.302283e+01
2.550000e-06	3.135964e-06	7.433107e-10	2.176804e+01	5.360987e+01
2.560000e-06	3.174312e-06	7.517102e-10	2.203423e+01	5.417159e+01
2.570000e-06	3.212392e-06	7.590433e-10	2.229856e+01	5.470824e+01
2.580000e-06	3.250331e-06	7.640994e-10	2.256191e+01	5.522004e+01
2.590000e-06	3.288167e-06	7.682229e-10	2.282455e+01	5.570723e+01
2.600000e-06	3.325753e-06	7.725944e-10	2.308545e+01	5.617007e+01
2.610000e-06	3.363056e-06	7.784638e-10	2.334438e+01	5.660884e+01
2.620000e-06	3.400102e-06	7.859828e-10	2.360154e+01	5.702383e+01
2.630000e-06	3.436853e-06	7.946595e-10	2.385664e+01	5.741539e+01
2.640000e-06	3.473352e-06	8.026247e-10	2.410999e+01	5.778392e+01
2.650000e-06	3.509612e-06	8.073715e-10	2.436169e+01	5.812986e+01
2.660000e-06	3.545652e-06	8.114650e-10	2.461186e+01	5.845370e+01
2.670000e-06	3.581533e-06	8.170978e-10	2.486092e+01	5.875602e+01
2.680000e-06	3.617314e-06	8.198236e-10	2.510929e+01	5.903745e+01
2.690000e-06	3.652996e-06	8.229321e-10	2.535698e+01	5.929869e+01
2.700000e-06	3.688525e-06	8.267026e-10	2.560360e+01	5.954053e+01
2.710000e-06	3.723846e-06	8.290536e-10	2.584878e+01	5.976380e+01
2.720000e-06	3.758816e-06	8.318663e-10	2.609152e+01	5.996944e+01
2.730000e-06	3.793430e-06	8.379459e-10	2.633179e+01	6.015841e+01
2.740000e-06	3.827762e-06	8.473310e-10	2.657011e+01	6.033177e+01
2.750000e-06	3.861650e-06	8.542301e-10	2.680533e+01	6.049061e+01
2.760000e-06	3.894919e-06	8.580693e-10	2.703627e+01	6.063607e+01
2.770000e-06	3.927642e-06	8.570743e-10	2.726341e+01	6.076933e+01
2.780000e-06	3.960015e-06	8.543540e-10	2.748813e+01	6.089159e+01
2.790000e-06	3.992161e-06	8.541611e-10	2.771126e+01	6.100405e+01
2.800000e-06	4.024051e-06	8.582736e-10	2.793263e+01	6.110794e+01
2.810000e-06	4.055739e-06	8.647580e-10	2.815259e+01	6.120444e+01
2.820000e-06	4.087337e-06	8.716326e-10	2.837192e+01	6.129473e+01
2.830000e-06	4.118820e-06	8.771035e-10	2.859046e+01	6.137993e+01
2.840000e-06	4.150078e-06	8.784880e-10	2.880743e+01	6.146111e+01
2.850000e-06	4.180972e-06	8.760320e-10	2.902189e+01	6.153927e+01
2.860000e-06	4.211514e-06	8.734738e-10	2.923389e+01	6.161534e+01
2.870000e-06	4.241757e-06	8.725995e-10	2.944382e+01	6.169014e+01
2.880000e-06	4.271746e-06	8.750136e-10	2.965198e+01	6.176440e+01
2.890000e-06	4.301454e-06	8.801082e-10	2.985820e+01	6.183874e+01
2.900000e-06	4.330841e-06	8.852422e-10	3.006219e+01	6.191367e+01
