# Temperatura_=_-16.2
# Concentracion g/m^3_=_1620.0
# C_Vs_to_Am_M_A/Vsm_=_65563218390.804596
# pendiente_HvsI_1/m_=_3716.3
# ordenada_HvsI_A/m_=_1297.0
# frecuencia_Hz_=_135105.9215690238

Tiempo_(s)	Campo_(V.s)	Magnetizacion_(V.s)	Campo_(kA/m)	Magnetizacion_(A/m)
0.000000e+00	-5.524420e-06	-8.745926e-10	-3.836824e+01	-5.745660e+01
1.000000e-08	-5.524699e-06	-8.702710e-10	-3.837018e+01	-5.742575e+01
2.000000e-08	-5.524799e-06	-8.706526e-10	-3.837087e+01	-5.739790e+01
3.000000e-08	-5.524594e-06	-8.761364e-10	-3.836945e+01	-5.737350e+01
4.000000e-08	-5.523938e-06	-8.834883e-10	-3.836489e+01	-5.735292e+01
5.000000e-08	-5.522618e-06	-8.855233e-10	-3.835573e+01	-5.733649e+01
6.000000e-08	-5.520590e-06	-8.748293e-10	-3.834164e+01	-5.732447e+01
7.000000e-08	-5.518012e-06	-8.534178e-10	-3.832373e+01	-5.731706e+01
8.000000e-08	-5.514928e-06	-8.584316e-10	-3.830232e+01	-5.731435e+01
9.000000e-08	-5.511325e-06	-9.162845e-10	-3.827729e+01	-5.731637e+01
1.000000e-07	-5.507291e-06	-9.710672e-10	-3.824927e+01	-5.732307e+01
1.100000e-07	-5.502926e-06	-9.169179e-10	-3.821896e+01	-5.733427e+01
1.200000e-07	-5.498305e-06	-7.851979e-10	-3.818686e+01	-5.734976e+01
1.300000e-07	-5.493474e-06	-8.001889e-10	-3.815331e+01	-5.736921e+01
1.400000e-07	-5.488341e-06	-9.056177e-10	-3.811766e+01	-5.739222e+01
1.500000e-07	-5.482817e-06	-9.197497e-10	-3.807930e+01	-5.741832e+01
1.600000e-07	-5.476953e-06	-8.102951e-10	-3.803857e+01	-5.744696e+01
1.700000e-07	-5.470792e-06	-7.754589e-10	-3.799578e+01	-5.747757e+01
1.800000e-07	-5.464143e-06	-9.160365e-10	-3.794960e+01	-5.750950e+01
1.900000e-07	-5.456978e-06	-9.403060e-10	-3.789984e+01	-5.754209e+01
2.000000e-07	-5.449593e-06	-8.713284e-10	-3.784855e+01	-5.757464e+01
2.100000e-07	-5.441997e-06	-8.061508e-10	-3.779579e+01	-5.760648e+01
2.200000e-07	-5.434050e-06	-8.978839e-10	-3.774060e+01	-5.763690e+01
2.300000e-07	-5.425778e-06	-9.212501e-10	-3.768315e+01	-5.766524e+01
2.400000e-07	-5.417215e-06	-8.790084e-10	-3.762368e+01	-5.769087e+01
2.500000e-07	-5.408030e-06	-8.216942e-10	-3.755989e+01	-5.771318e+01
2.600000e-07	-5.397992e-06	-8.687554e-10	-3.749017e+01	-5.773164e+01
2.700000e-07	-5.387289e-06	-8.957668e-10	-3.741584e+01	-5.774578e+01
2.800000e-07	-5.376128e-06	-8.744364e-10	-3.733832e+01	-5.775521e+01
2.900000e-07	-5.364560e-06	-8.436531e-10	-3.725798e+01	-5.775959e+01
3.000000e-07	-5.352632e-06	-8.585841e-10	-3.717514e+01	-5.775872e+01
3.100000e-07	-5.340421e-06	-8.753094e-10	-3.709033e+01	-5.775244e+01
3.200000e-07	-5.327805e-06	-8.356228e-10	-3.700271e+01	-5.774072e+01
3.300000e-07	-5.314690e-06	-8.254020e-10	-3.691162e+01	-5.772361e+01
3.400000e-07	-5.301213e-06	-8.546353e-10	-3.681802e+01	-5.770125e+01
3.500000e-07	-5.287412e-06	-9.034380e-10	-3.672217e+01	-5.767389e+01
3.600000e-07	-5.273080e-06	-8.639428e-10	-3.662263e+01	-5.764184e+01
3.700000e-07	-5.258275e-06	-8.598961e-10	-3.651981e+01	-5.760551e+01
3.800000e-07	-5.243098e-06	-8.692764e-10	-3.641440e+01	-5.756537e+01
3.900000e-07	-5.227354e-06	-8.620785e-10	-3.630506e+01	-5.752196e+01
4.000000e-07	-5.211026e-06	-8.225007e-10	-3.619166e+01	-5.747587e+01
4.100000e-07	-5.194263e-06	-8.748869e-10	-3.607523e+01	-5.742772e+01
4.200000e-07	-5.177191e-06	-8.882187e-10	-3.595666e+01	-5.737817e+01
4.300000e-07	-5.159855e-06	-8.419470e-10	-3.583626e+01	-5.732791e+01
4.400000e-07	-5.142187e-06	-8.410346e-10	-3.571355e+01	-5.727762e+01
4.500000e-07	-5.124189e-06	-9.213880e-10	-3.558855e+01	-5.722797e+01
4.600000e-07	-5.105741e-06	-8.739495e-10	-3.546043e+01	-5.717963e+01
4.700000e-07	-5.086829e-06	-8.173710e-10	-3.532908e+01	-5.713322e+01
4.800000e-07	-5.067632e-06	-8.610235e-10	-3.519575e+01	-5.708935e+01
4.900000e-07	-5.048182e-06	-8.880935e-10	-3.506067e+01	-5.704854e+01
5.000000e-07	-5.028482e-06	-8.162375e-10	-3.492385e+01	-5.701129e+01
5.100000e-07	-5.008639e-06	-8.428895e-10	-3.478603e+01	-5.697802e+01
5.200000e-07	-4.988565e-06	-8.881662e-10	-3.464661e+01	-5.694909e+01
5.300000e-07	-4.968113e-06	-8.416336e-10	-3.450457e+01	-5.692476e+01
5.400000e-07	-4.947249e-06	-8.320080e-10	-3.435967e+01	-5.690526e+01
5.500000e-07	-4.926013e-06	-9.065354e-10	-3.421218e+01	-5.689070e+01
5.600000e-07	-4.904475e-06	-8.779445e-10	-3.406260e+01	-5.688114e+01
5.700000e-07	-4.882666e-06	-8.172695e-10	-3.391112e+01	-5.687654e+01
5.800000e-07	-4.860518e-06	-8.591180e-10	-3.375730e+01	-5.687683e+01
5.900000e-07	-4.837984e-06	-8.740892e-10	-3.360080e+01	-5.688182e+01
6.000000e-07	-4.815022e-06	-8.239498e-10	-3.344133e+01	-5.689131e+01
6.100000e-07	-4.791679e-06	-8.411522e-10	-3.327920e+01	-5.690501e+01
6.200000e-07	-4.768097e-06	-8.808206e-10	-3.311542e+01	-5.692259e+01
6.300000e-07	-4.744351e-06	-8.442002e-10	-3.295050e+01	-5.694369e+01
6.400000e-07	-4.720417e-06	-8.392045e-10	-3.278427e+01	-5.696791e+01
6.500000e-07	-4.696186e-06	-8.633848e-10	-3.261598e+01	-5.699483e+01
6.600000e-07	-4.671492e-06	-8.499220e-10	-3.244448e+01	-5.702402e+01
6.700000e-07	-4.646258e-06	-8.339330e-10	-3.226923e+01	-5.705503e+01
6.800000e-07	-4.620540e-06	-8.663711e-10	-3.209061e+01	-5.708743e+01
6.900000e-07	-4.594233e-06	-8.595728e-10	-3.190790e+01	-5.712080e+01
7.000000e-07	-4.567290e-06	-8.476289e-10	-3.172078e+01	-5.715471e+01
7.100000e-07	-4.539955e-06	-8.576857e-10	-3.153093e+01	-5.718879e+01
7.200000e-07	-4.512479e-06	-8.636015e-10	-3.134010e+01	-5.722268e+01
7.300000e-07	-4.484854e-06	-8.411032e-10	-3.114824e+01	-5.725605e+01
7.400000e-07	-4.457087e-06	-8.505782e-10	-3.095539e+01	-5.728861e+01
7.500000e-07	-4.429175e-06	-8.561023e-10	-3.076154e+01	-5.732012e+01
7.600000e-07	-4.400982e-06	-8.531559e-10	-3.056573e+01	-5.735036e+01
7.700000e-07	-4.372368e-06	-8.533428e-10	-3.036700e+01	-5.737918e+01
7.800000e-07	-4.343357e-06	-8.615081e-10	-3.016551e+01	-5.740643e+01
7.900000e-07	-4.314038e-06	-8.505578e-10	-2.996189e+01	-5.743204e+01
8.000000e-07	-4.284472e-06	-8.539927e-10	-2.975654e+01	-5.745595e+01
8.100000e-07	-4.254660e-06	-8.577789e-10	-2.954949e+01	-5.747814e+01
8.200000e-07	-4.224587e-06	-8.472735e-10	-2.934063e+01	-5.749862e+01
8.300000e-07	-4.194282e-06	-8.383161e-10	-2.913016e+01	-5.751742e+01
8.400000e-07	-4.163699e-06	-8.502821e-10	-2.891775e+01	-5.753460e+01
8.500000e-07	-4.132682e-06	-8.551908e-10	-2.870233e+01	-5.755023e+01
8.600000e-07	-4.101312e-06	-8.509993e-10	-2.848446e+01	-5.756439e+01
8.700000e-07	-4.069800e-06	-8.539739e-10	-2.826560e+01	-5.757717e+01
8.800000e-07	-4.038160e-06	-8.526977e-10	-2.804586e+01	-5.758867e+01
8.900000e-07	-4.006382e-06	-8.418062e-10	-2.782515e+01	-5.759896e+01
9.000000e-07	-3.974434e-06	-8.372087e-10	-2.760326e+01	-5.760812e+01
9.100000e-07	-3.942198e-06	-8.415457e-10	-2.737938e+01	-5.761623e+01
9.200000e-07	-3.909620e-06	-8.353496e-10	-2.715312e+01	-5.762334e+01
9.300000e-07	-3.876646e-06	-8.365361e-10	-2.692411e+01	-5.762949e+01
9.400000e-07	-3.843223e-06	-8.460662e-10	-2.669198e+01	-5.763471e+01
9.500000e-07	-3.809292e-06	-8.500291e-10	-2.645632e+01	-5.763899e+01
9.600000e-07	-3.774812e-06	-8.398885e-10	-2.621685e+01	-5.764234e+01
9.700000e-07	-3.739942e-06	-8.420564e-10	-2.597467e+01	-5.764470e+01
9.800000e-07	-3.704711e-06	-8.406040e-10	-2.572999e+01	-5.764604e+01
9.900000e-07	-3.669177e-06	-8.340679e-10	-2.548319e+01	-5.764629e+01
1.000000e-06	-3.633546e-06	-8.311424e-10	-2.523573e+01	-5.764537e+01
1.010000e-06	-3.597852e-06	-8.400911e-10	-2.498783e+01	-5.764319e+01
1.020000e-06	-3.562034e-06	-8.396327e-10	-2.473906e+01	-5.763964e+01
1.030000e-06	-3.526056e-06	-8.391171e-10	-2.448919e+01	-5.763463e+01
1.040000e-06	-3.489914e-06	-8.420350e-10	-2.423817e+01	-5.762803e+01
1.050000e-06	-3.453595e-06	-8.465116e-10	-2.398593e+01	-5.761975e+01
1.060000e-06	-3.416973e-06	-8.414721e-10	-2.373159e+01	-5.760967e+01
1.070000e-06	-3.380011e-06	-8.422357e-10	-2.347488e+01	-5.759769e+01
1.080000e-06	-3.342811e-06	-8.430377e-10	-2.321652e+01	-5.758371e+01
1.090000e-06	-3.305380e-06	-8.410613e-10	-2.295655e+01	-5.756765e+01
1.100000e-06	-3.267695e-06	-8.388737e-10	-2.269482e+01	-5.754943e+01
1.110000e-06	-3.229782e-06	-8.403641e-10	-2.243150e+01	-5.752900e+01
1.120000e-06	-3.191674e-06	-8.360362e-10	-2.216684e+01	-5.750629e+01
1.130000e-06	-3.153364e-06	-8.314229e-10	-2.190076e+01	-5.748129e+01
1.140000e-06	-3.114825e-06	-8.329314e-10	-2.163311e+01	-5.745396e+01
1.150000e-06	-3.075968e-06	-8.350597e-10	-2.136324e+01	-5.742429e+01
1.160000e-06	-3.036790e-06	-8.347209e-10	-2.109114e+01	-5.739229e+01
1.170000e-06	-2.997492e-06	-8.347359e-10	-2.081820e+01	-5.735795e+01
1.180000e-06	-2.958116e-06	-8.356293e-10	-2.054473e+01	-5.732130e+01
1.190000e-06	-2.918603e-06	-8.345692e-10	-2.027030e+01	-5.728234e+01
1.200000e-06	-2.878982e-06	-8.345004e-10	-1.999513e+01	-5.724110e+01
1.210000e-06	-2.839264e-06	-8.319561e-10	-1.971928e+01	-5.719758e+01
1.220000e-06	-2.799445e-06	-8.278829e-10	-1.944273e+01	-5.715179e+01
1.230000e-06	-2.759473e-06	-8.245686e-10	-1.916511e+01	-5.710372e+01
1.240000e-06	-2.719222e-06	-8.264668e-10	-1.888556e+01	-5.705335e+01
1.250000e-06	-2.678743e-06	-8.267457e-10	-1.860442e+01	-5.700063e+01
1.260000e-06	-2.638119e-06	-8.292174e-10	-1.832228e+01	-5.694552e+01
1.270000e-06	-2.597237e-06	-8.288473e-10	-1.803835e+01	-5.688792e+01
1.280000e-06	-2.556016e-06	-8.269516e-10	-1.775206e+01	-5.682771e+01
1.290000e-06	-2.514507e-06	-8.197814e-10	-1.746377e+01	-5.676476e+01
1.300000e-06	-2.472716e-06	-8.139286e-10	-1.717353e+01	-5.669890e+01
1.310000e-06	-2.430503e-06	-8.107359e-10	-1.688035e+01	-5.662991e+01
1.320000e-06	-2.387936e-06	-8.111318e-10	-1.658471e+01	-5.655756e+01
1.330000e-06	-2.345188e-06	-8.119125e-10	-1.628782e+01	-5.648158e+01
1.340000e-06	-2.302212e-06	-8.149505e-10	-1.598934e+01	-5.640165e+01
1.350000e-06	-2.259045e-06	-8.184826e-10	-1.568953e+01	-5.631745e+01
1.360000e-06	-2.215733e-06	-8.229889e-10	-1.538872e+01	-5.622860e+01
1.370000e-06	-2.172242e-06	-8.223509e-10	-1.508667e+01	-5.613471e+01
1.380000e-06	-2.128593e-06	-8.167740e-10	-1.478352e+01	-5.603535e+01
1.390000e-06	-2.084865e-06	-8.091572e-10	-1.447982e+01	-5.593007e+01
1.400000e-06	-2.041117e-06	-8.030023e-10	-1.417598e+01	-5.581842e+01
1.410000e-06	-1.997304e-06	-7.970804e-10	-1.387169e+01	-5.569989e+01
1.420000e-06	-1.953368e-06	-7.917243e-10	-1.356655e+01	-5.557399e+01
1.430000e-06	-1.909372e-06	-7.897855e-10	-1.326098e+01	-5.544021e+01
1.440000e-06	-1.865328e-06	-7.898904e-10	-1.295509e+01	-5.529803e+01
1.450000e-06	-1.821112e-06	-7.895046e-10	-1.264800e+01	-5.514691e+01
1.460000e-06	-1.776779e-06	-7.859063e-10	-1.234010e+01	-5.498633e+01
1.470000e-06	-1.732343e-06	-7.818265e-10	-1.203148e+01	-5.481577e+01
1.480000e-06	-1.687703e-06	-7.763028e-10	-1.172145e+01	-5.463468e+01
1.490000e-06	-1.642917e-06	-7.701210e-10	-1.141040e+01	-5.444256e+01
1.500000e-06	-1.598025e-06	-7.622832e-10	-1.109861e+01	-5.423888e+01
1.510000e-06	-1.552995e-06	-7.560634e-10	-1.078587e+01	-5.402313e+01
1.520000e-06	-1.507796e-06	-7.519715e-10	-1.047195e+01	-5.379481e+01
1.530000e-06	-1.462520e-06	-7.492192e-10	-1.015750e+01	-5.355341e+01
1.540000e-06	-1.417207e-06	-7.451883e-10	-9.842794e+00	-5.329844e+01
1.550000e-06	-1.371774e-06	-7.400535e-10	-9.527252e+00	-5.302941e+01
1.560000e-06	-1.326307e-06	-7.348360e-10	-9.211478e+00	-5.274583e+01
1.570000e-06	-1.280775e-06	-7.293806e-10	-8.895248e+00	-5.244722e+01
1.580000e-06	-1.235045e-06	-7.240752e-10	-8.577643e+00	-5.213308e+01
1.590000e-06	-1.189175e-06	-7.178714e-10	-8.259069e+00	-5.180293e+01
1.600000e-06	-1.143300e-06	-7.100915e-10	-7.940456e+00	-5.145625e+01
1.610000e-06	-1.097388e-06	-7.032909e-10	-7.621588e+00	-5.109253e+01
1.620000e-06	-1.051394e-06	-6.966507e-10	-7.302150e+00	-5.071126e+01
1.630000e-06	-1.005368e-06	-6.909835e-10	-6.982486e+00	-5.031188e+01
1.640000e-06	-9.592677e-07	-6.862720e-10	-6.662313e+00	-4.989384e+01
1.650000e-06	-9.130257e-07	-6.820311e-10	-6.341153e+00	-4.945655e+01
1.660000e-06	-8.667171e-07	-6.750006e-10	-6.019529e+00	-4.899941e+01
1.670000e-06	-8.203715e-07	-6.662467e-10	-5.697650e+00	-4.852178e+01
1.680000e-06	-7.739897e-07	-6.564546e-10	-5.375518e+00	-4.802302e+01
1.690000e-06	-7.275939e-07	-6.454213e-10	-5.053290e+00	-4.750244e+01
1.700000e-06	-6.811474e-07	-6.332383e-10	-4.730710e+00	-4.695932e+01
1.710000e-06	-6.346139e-07	-6.224295e-10	-4.407525e+00	-4.639295e+01
1.720000e-06	-5.879885e-07	-6.145141e-10	-4.083702e+00	-4.580256e+01
1.730000e-06	-5.413172e-07	-6.071655e-10	-3.759560e+00	-4.518737e+01
1.740000e-06	-4.947018e-07	-5.985617e-10	-3.435807e+00	-4.454660e+01
1.750000e-06	-4.480608e-07	-5.884234e-10	-3.111875e+00	-4.387945e+01
1.760000e-06	-4.013058e-07	-5.767487e-10	-2.787152e+00	-4.318509e+01
1.770000e-06	-3.545198e-07	-5.642992e-10	-2.462213e+00	-4.246273e+01
1.780000e-06	-3.077080e-07	-5.519704e-10	-2.137096e+00	-4.171155e+01
1.790000e-06	-2.609056e-07	-5.398797e-10	-1.812043e+00	-4.093076e+01
1.800000e-06	-2.140631e-07	-5.282811e-10	-1.486712e+00	-4.011959e+01
1.810000e-06	-1.671850e-07	-5.166532e-10	-1.161134e+00	-3.927730e+01
1.820000e-06	-1.203052e-07	-5.050315e-10	-8.355442e-01	-3.840318e+01
1.830000e-06	-7.337776e-08	-4.917739e-10	-5.096237e-01	-3.749657e+01
1.840000e-06	-2.642371e-08	-4.782241e-10	-1.835181e-01	-3.655689e+01
1.850000e-06	2.043121e-08	-4.651699e-10	1.418990e-01	-3.558359e+01
1.860000e-06	6.717497e-08	-4.517626e-10	4.665440e-01	-3.457623e+01
1.870000e-06	1.139839e-07	-4.373369e-10	7.916418e-01	-3.353443e+01
1.880000e-06	1.608616e-07	-4.212181e-10	1.117217e+00	-3.245791e+01
1.890000e-06	2.076959e-07	-4.044177e-10	1.442491e+00	-3.134652e+01
1.900000e-06	2.544302e-07	-3.868872e-10	1.767070e+00	-3.020019e+01
1.910000e-06	3.011541e-07	-3.687241e-10	2.091577e+00	-2.901899e+01
1.920000e-06	3.479582e-07	-3.520075e-10	2.416642e+00	-2.780311e+01
1.930000e-06	3.947627e-07	-3.359869e-10	2.741709e+00	-2.655286e+01
1.940000e-06	4.415205e-07	-3.198481e-10	3.066451e+00	-2.526873e+01
1.950000e-06	4.881978e-07	-3.037113e-10	3.390635e+00	-2.395130e+01
1.960000e-06	5.348264e-07	-2.885247e-10	3.714480e+00	-2.260135e+01
1.970000e-06	5.814522e-07	-2.722856e-10	4.038306e+00	-2.121976e+01
1.980000e-06	6.279619e-07	-2.534991e-10	4.361325e+00	-1.980760e+01
1.990000e-06	6.743423e-07	-2.330683e-10	4.683447e+00	-1.836605e+01
2.000000e-06	7.207052e-07	-2.090075e-10	5.005447e+00	-1.689648e+01
2.010000e-06	7.670233e-07	-1.828042e-10	5.327136e+00	-1.540037e+01
2.020000e-06	8.132703e-07	-1.592191e-10	5.648331e+00	-1.387936e+01
2.030000e-06	8.594721e-07	-1.374616e-10	5.969212e+00	-1.233520e+01
2.040000e-06	9.056575e-07	-1.181958e-10	6.289979e+00	-1.076981e+01
2.050000e-06	9.517736e-07	-1.004728e-10	6.610265e+00	-9.185194e+00
2.060000e-06	9.977433e-07	-8.167956e-11	6.929534e+00	-7.583473e+00
2.070000e-06	1.043694e-06	-5.920464e-11	7.248669e+00	-5.966876e+00
2.080000e-06	1.089614e-06	-3.414417e-11	7.567597e+00	-4.337716e+00
2.090000e-06	1.135374e-06	-9.822583e-12	7.885410e+00	-2.698383e+00
2.100000e-06	1.181078e-06	1.457823e-11	8.202832e+00	-1.051331e+00
2.110000e-06	1.226778e-06	3.972914e-11	8.520231e+00	6.009378e-01
2.120000e-06	1.272401e-06	6.401007e-11	8.837085e+00	2.255885e+00
2.130000e-06	1.317965e-06	8.608332e-11	9.153542e+00	3.910953e+00
2.140000e-06	1.363389e-06	1.065138e-10	9.469017e+00	5.563580e+00
2.150000e-06	1.408681e-06	1.255235e-10	9.783579e+00	7.211213e+00
2.160000e-06	1.453944e-06	1.444056e-10	1.009794e+01	8.851325e+00
2.170000e-06	1.499117e-06	1.664851e-10	1.041168e+01	1.048143e+01
2.180000e-06	1.544144e-06	1.889781e-10	1.072440e+01	1.209910e+01
2.190000e-06	1.589067e-06	2.114448e-10	1.103640e+01	1.370198e+01
2.200000e-06	1.633884e-06	2.356270e-10	1.134766e+01	1.528779e+01
2.210000e-06	1.678565e-06	2.595974e-10	1.165798e+01	1.685435e+01
2.220000e-06	1.723113e-06	2.833677e-10	1.196738e+01	1.839960e+01
2.230000e-06	1.767495e-06	3.033565e-10	1.227562e+01	1.992159e+01
2.240000e-06	1.811741e-06	3.212892e-10	1.258291e+01	2.141851e+01
2.250000e-06	1.855852e-06	3.371679e-10	1.288928e+01	2.288867e+01
2.260000e-06	1.899815e-06	3.529654e-10	1.319460e+01	2.433054e+01
2.270000e-06	1.943725e-06	3.701974e-10	1.349957e+01	2.574276e+01
2.280000e-06	1.987595e-06	3.889164e-10	1.380426e+01	2.712410e+01
2.290000e-06	2.031400e-06	4.083211e-10	1.410849e+01	2.847350e+01
2.300000e-06	2.075160e-06	4.270354e-10	1.441241e+01	2.979006e+01
2.310000e-06	2.118876e-06	4.442537e-10	1.471603e+01	3.107305e+01
2.320000e-06	2.162512e-06	4.610092e-10	1.501909e+01	3.232189e+01
2.330000e-06	2.206016e-06	4.776787e-10	1.532124e+01	3.353615e+01
2.340000e-06	2.249456e-06	4.933219e-10	1.562294e+01	3.471557e+01
2.350000e-06	2.292751e-06	5.083445e-10	1.592363e+01	3.586002e+01
2.360000e-06	2.335762e-06	5.228913e-10	1.622235e+01	3.696951e+01
2.370000e-06	2.378499e-06	5.361809e-10	1.651917e+01	3.804418e+01
2.380000e-06	2.420944e-06	5.480764e-10	1.681396e+01	3.908429e+01
2.390000e-06	2.463172e-06	5.591940e-10	1.710724e+01	4.009021e+01
2.400000e-06	2.505128e-06	5.719876e-10	1.739863e+01	4.106238e+01
2.410000e-06	2.546767e-06	5.865611e-10	1.768782e+01	4.200137e+01
2.420000e-06	2.588041e-06	5.996316e-10	1.797448e+01	4.290779e+01
2.430000e-06	2.628942e-06	6.104007e-10	1.825855e+01	4.378231e+01
2.440000e-06	2.669590e-06	6.200796e-10	1.854086e+01	4.462567e+01
2.450000e-06	2.710004e-06	6.289471e-10	1.882154e+01	4.543862e+01
2.460000e-06	2.750262e-06	6.371834e-10	1.910114e+01	4.622194e+01
2.470000e-06	2.790379e-06	6.460764e-10	1.937976e+01	4.697643e+01
2.480000e-06	2.830303e-06	6.549380e-10	1.965704e+01	4.770288e+01
2.490000e-06	2.870095e-06	6.643787e-10	1.993340e+01	4.840207e+01
2.500000e-06	2.909747e-06	6.746349e-10	2.020880e+01	4.907477e+01
2.510000e-06	2.949212e-06	6.858133e-10	2.048289e+01	4.972172e+01
2.520000e-06	2.988617e-06	6.979964e-10	2.075657e+01	5.034364e+01
2.530000e-06	3.027876e-06	7.072516e-10	2.102923e+01	5.094119e+01
2.540000e-06	3.066903e-06	7.137378e-10	2.130028e+01	5.151500e+01
2.550000e-06	3.105734e-06	7.190107e-10	2.156996e+01	5.206568e+01
2.560000e-06	3.144288e-06	7.217159e-10	2.183773e+01	5.259375e+01
2.570000e-06	3.182586e-06	7.245558e-10	2.210372e+01	5.309973e+01
2.580000e-06	3.220683e-06	7.300911e-10	2.236831e+01	5.358408e+01
2.590000e-06	3.258544e-06	7.381131e-10	2.263126e+01	5.404721e+01
2.600000e-06	3.296189e-06	7.458798e-10	2.289271e+01	5.448953e+01
2.610000e-06	3.333622e-06	7.550966e-10	2.315270e+01	5.491138e+01
2.620000e-06	3.370843e-06	7.631778e-10	2.341120e+01	5.531312e+01
2.630000e-06	3.407844e-06	7.688261e-10	2.366818e+01	5.569504e+01
2.640000e-06	3.444547e-06	7.728700e-10	2.392309e+01	5.605748e+01
2.650000e-06	3.480969e-06	7.786378e-10	2.417605e+01	5.640073e+01
2.660000e-06	3.517150e-06	7.848112e-10	2.442734e+01	5.672511e+01
2.670000e-06	3.553105e-06	7.873530e-10	2.467705e+01	5.703095e+01
2.680000e-06	3.588900e-06	7.902813e-10	2.492566e+01	5.731858e+01
2.690000e-06	3.624604e-06	7.952947e-10	2.517362e+01	5.758837e+01
2.700000e-06	3.660242e-06	8.025559e-10	2.542114e+01	5.784074e+01
2.710000e-06	3.695776e-06	8.090786e-10	2.566793e+01	5.807611e+01
2.720000e-06	3.731118e-06	8.128536e-10	2.591339e+01	5.829496e+01
2.730000e-06	3.766187e-06	8.170296e-10	2.615695e+01	5.849781e+01
2.740000e-06	3.800782e-06	8.212100e-10	2.639722e+01	5.868523e+01
2.750000e-06	3.834878e-06	8.270158e-10	2.663402e+01	5.885783e+01
2.760000e-06	3.868577e-06	8.310228e-10	2.686807e+01	5.901626e+01
2.770000e-06	3.901802e-06	8.335778e-10	2.709882e+01	5.916122e+01
2.780000e-06	3.934520e-06	8.367212e-10	2.732606e+01	5.929345e+01
2.790000e-06	3.966890e-06	8.385797e-10	2.755087e+01	5.941371e+01
2.800000e-06	3.999011e-06	8.412821e-10	2.777396e+01	5.952280e+01
2.810000e-06	4.030898e-06	8.434687e-10	2.799542e+01	5.962154e+01
2.820000e-06	4.062610e-06	8.456923e-10	2.821566e+01	5.971077e+01
2.830000e-06	4.094135e-06	8.498086e-10	2.843462e+01	5.979132e+01
2.840000e-06	4.125467e-06	8.554926e-10	2.865222e+01	5.986402e+01
2.850000e-06	4.156562e-06	8.593069e-10	2.886819e+01	5.992970e+01
2.860000e-06	4.187428e-06	8.579173e-10	2.908255e+01	5.998916e+01
2.870000e-06	4.217958e-06	8.535337e-10	2.929459e+01	6.004315e+01
2.880000e-06	4.248064e-06	8.474887e-10	2.950369e+01	6.009240e+01
2.890000e-06	4.277855e-06	8.419569e-10	2.971059e+01	6.013757e+01
2.900000e-06	4.307397e-06	8.420013e-10	2.991576e+01	6.017929e+01
