# Temperatura_=_15.4
# Concentracion g/m^3_=_1620.0
# C_Vs_to_Am_M_A/Vsm_=_65563218390.804596
# pendiente_HvsI_1/m_=_3716.3
# ordenada_HvsI_A/m_=_1297.0
# frecuencia_Hz_=_135095.07377602145

Tiempo_(s)	Campo_(V.s)	Magnetizacion_(V.s)	Campo_(kA/m)	Magnetizacion_(A/m)
0.000000e+00	-5.523177e-06	-1.602635e-09	-3.837662e+01	-1.055847e+02
1.000000e-08	-5.523190e-06	-1.599728e-09	-3.837671e+01	-1.055315e+02
2.000000e-08	-5.522916e-06	-1.596472e-09	-3.837481e+01	-1.054813e+02
3.000000e-08	-5.522256e-06	-1.593886e-09	-3.837022e+01	-1.054347e+02
4.000000e-08	-5.521113e-06	-1.594404e-09	-3.836227e+01	-1.053918e+02
5.000000e-08	-5.519500e-06	-1.600317e-09	-3.835107e+01	-1.053528e+02
6.000000e-08	-5.517394e-06	-1.596404e-09	-3.833643e+01	-1.053177e+02
7.000000e-08	-5.514706e-06	-1.577325e-09	-3.831776e+01	-1.052863e+02
8.000000e-08	-5.511453e-06	-1.579667e-09	-3.829516e+01	-1.052586e+02
9.000000e-08	-5.507731e-06	-1.622168e-09	-3.826930e+01	-1.052340e+02
1.000000e-07	-5.503582e-06	-1.613017e-09	-3.824047e+01	-1.052121e+02
1.100000e-07	-5.499150e-06	-1.594715e-09	-3.820967e+01	-1.051924e+02
1.200000e-07	-5.494552e-06	-1.540441e-09	-3.817772e+01	-1.051742e+02
1.300000e-07	-5.489650e-06	-1.573472e-09	-3.814366e+01	-1.051566e+02
1.400000e-07	-5.484233e-06	-1.599448e-09	-3.810602e+01	-1.051389e+02
1.500000e-07	-5.478399e-06	-1.599005e-09	-3.806549e+01	-1.051201e+02
1.600000e-07	-5.472265e-06	-1.585053e-09	-3.802287e+01	-1.050992e+02
1.700000e-07	-5.465825e-06	-1.573687e-09	-3.797812e+01	-1.050754e+02
1.800000e-07	-5.458915e-06	-1.595612e-09	-3.793011e+01	-1.050475e+02
1.900000e-07	-5.451568e-06	-1.559038e-09	-3.787906e+01	-1.050147e+02
2.000000e-07	-5.444004e-06	-1.571166e-09	-3.782650e+01	-1.049758e+02
2.100000e-07	-5.436148e-06	-1.593911e-09	-3.777192e+01	-1.049301e+02
2.200000e-07	-5.427988e-06	-1.640348e-09	-3.771522e+01	-1.048767e+02
2.300000e-07	-5.419624e-06	-1.596370e-09	-3.765710e+01	-1.048148e+02
2.400000e-07	-5.410807e-06	-1.579229e-09	-3.759584e+01	-1.047437e+02
2.500000e-07	-5.401317e-06	-1.571709e-09	-3.752990e+01	-1.046628e+02
2.600000e-07	-5.391199e-06	-1.585536e-09	-3.745960e+01	-1.045717e+02
2.700000e-07	-5.380422e-06	-1.567347e-09	-3.738471e+01	-1.044700e+02
2.800000e-07	-5.369144e-06	-1.578718e-09	-3.730635e+01	-1.043575e+02
2.900000e-07	-5.357471e-06	-1.576501e-09	-3.722524e+01	-1.042340e+02
3.000000e-07	-5.345399e-06	-1.581004e-09	-3.714136e+01	-1.040997e+02
3.100000e-07	-5.332873e-06	-1.573316e-09	-3.705433e+01	-1.039546e+02
3.200000e-07	-5.319870e-06	-1.568627e-09	-3.696398e+01	-1.037991e+02
3.300000e-07	-5.306540e-06	-1.557639e-09	-3.687136e+01	-1.036336e+02
3.400000e-07	-5.292943e-06	-1.546845e-09	-3.677689e+01	-1.034585e+02
3.500000e-07	-5.278961e-06	-1.555477e-09	-3.667973e+01	-1.032745e+02
3.600000e-07	-5.264586e-06	-1.569736e-09	-3.657985e+01	-1.030822e+02
3.700000e-07	-5.249643e-06	-1.575894e-09	-3.647602e+01	-1.028823e+02
3.800000e-07	-5.234023e-06	-1.545847e-09	-3.636749e+01	-1.026758e+02
3.900000e-07	-5.217864e-06	-1.536248e-09	-3.625521e+01	-1.024634e+02
4.000000e-07	-5.201289e-06	-1.538221e-09	-3.614005e+01	-1.022461e+02
4.100000e-07	-5.184388e-06	-1.550741e-09	-3.602262e+01	-1.020246e+02
4.200000e-07	-5.167232e-06	-1.535121e-09	-3.590341e+01	-1.017998e+02
4.300000e-07	-5.149788e-06	-1.542670e-09	-3.578221e+01	-1.015726e+02
4.400000e-07	-5.131980e-06	-1.541091e-09	-3.565847e+01	-1.013438e+02
4.500000e-07	-5.113800e-06	-1.537562e-09	-3.553215e+01	-1.011141e+02
4.600000e-07	-5.095251e-06	-1.515860e-09	-3.540326e+01	-1.008842e+02
4.700000e-07	-5.076300e-06	-1.520765e-09	-3.527159e+01	-1.006547e+02
4.800000e-07	-5.056976e-06	-1.510903e-09	-3.513732e+01	-1.004262e+02
4.900000e-07	-5.037389e-06	-1.513138e-09	-3.500122e+01	-1.001990e+02
5.000000e-07	-5.017547e-06	-1.507252e-09	-3.486335e+01	-9.997350e+01
5.100000e-07	-4.997475e-06	-1.512731e-09	-3.472389e+01	-9.974996e+01
5.200000e-07	-4.977105e-06	-1.501599e-09	-3.458236e+01	-9.952851e+01
5.300000e-07	-4.956362e-06	-1.504615e-09	-3.443822e+01	-9.930919e+01
5.400000e-07	-4.935268e-06	-1.489210e-09	-3.429166e+01	-9.909198e+01
5.500000e-07	-4.913804e-06	-1.479829e-09	-3.414252e+01	-9.887672e+01
5.600000e-07	-4.891997e-06	-1.480081e-09	-3.399100e+01	-9.866322e+01
5.700000e-07	-4.869898e-06	-1.490038e-09	-3.383745e+01	-9.845119e+01
5.800000e-07	-4.847441e-06	-1.483507e-09	-3.368141e+01	-9.824027e+01
5.900000e-07	-4.824631e-06	-1.481410e-09	-3.352292e+01	-9.803007e+01
6.000000e-07	-4.801477e-06	-1.479403e-09	-3.336204e+01	-9.782014e+01
6.100000e-07	-4.778039e-06	-1.466382e-09	-3.319919e+01	-9.761000e+01
6.200000e-07	-4.754373e-06	-1.451624e-09	-3.303475e+01	-9.739915e+01
6.300000e-07	-4.730454e-06	-1.453184e-09	-3.286855e+01	-9.718709e+01
6.400000e-07	-4.706292e-06	-1.453727e-09	-3.270067e+01	-9.697329e+01
6.500000e-07	-4.681786e-06	-1.442540e-09	-3.253039e+01	-9.675727e+01
6.600000e-07	-4.656851e-06	-1.447414e-09	-3.235713e+01	-9.653853e+01
6.700000e-07	-4.631428e-06	-1.453846e-09	-3.218049e+01	-9.631664e+01
6.800000e-07	-4.605425e-06	-1.445436e-09	-3.199982e+01	-9.609116e+01
6.900000e-07	-4.578878e-06	-1.430252e-09	-3.181536e+01	-9.586173e+01
7.000000e-07	-4.551896e-06	-1.436538e-09	-3.162788e+01	-9.562800e+01
7.100000e-07	-4.524553e-06	-1.429921e-09	-3.143790e+01	-9.538970e+01
7.200000e-07	-4.496893e-06	-1.424393e-09	-3.124571e+01	-9.514660e+01
7.300000e-07	-4.469000e-06	-1.427331e-09	-3.105189e+01	-9.489851e+01
7.400000e-07	-4.440989e-06	-1.430512e-09	-3.085726e+01	-9.464530e+01
7.500000e-07	-4.412794e-06	-1.410951e-09	-3.066136e+01	-9.438689e+01
7.600000e-07	-4.384299e-06	-1.409701e-09	-3.046337e+01	-9.412325e+01
7.700000e-07	-4.355510e-06	-1.410076e-09	-3.026333e+01	-9.385440e+01
7.800000e-07	-4.326342e-06	-1.402368e-09	-3.006067e+01	-9.358037e+01
7.900000e-07	-4.296868e-06	-1.393978e-09	-2.985587e+01	-9.330125e+01
8.000000e-07	-4.267209e-06	-1.402092e-09	-2.964979e+01	-9.301716e+01
8.100000e-07	-4.237255e-06	-1.390801e-09	-2.944167e+01	-9.272824e+01
8.200000e-07	-4.207041e-06	-1.378361e-09	-2.923173e+01	-9.243463e+01
8.300000e-07	-4.176560e-06	-1.373927e-09	-2.901994e+01	-9.213651e+01
8.400000e-07	-4.145730e-06	-1.372269e-09	-2.880572e+01	-9.183405e+01
8.500000e-07	-4.114541e-06	-1.363363e-09	-2.858901e+01	-9.152743e+01
8.600000e-07	-4.083018e-06	-1.363549e-09	-2.836998e+01	-9.121683e+01
8.700000e-07	-4.051337e-06	-1.358405e-09	-2.814985e+01	-9.090242e+01
8.800000e-07	-4.019552e-06	-1.347137e-09	-2.792900e+01	-9.058437e+01
8.900000e-07	-3.987573e-06	-1.338713e-09	-2.770680e+01	-9.026282e+01
9.000000e-07	-3.955412e-06	-1.334251e-09	-2.748334e+01	-8.993792e+01
9.100000e-07	-3.922936e-06	-1.328428e-09	-2.725768e+01	-8.960980e+01
9.200000e-07	-3.890075e-06	-1.324875e-09	-2.702936e+01	-8.927857e+01
9.300000e-07	-3.856824e-06	-1.325615e-09	-2.679832e+01	-8.894433e+01
9.400000e-07	-3.823121e-06	-1.318550e-09	-2.656414e+01	-8.860716e+01
9.500000e-07	-3.788990e-06	-1.311498e-09	-2.632699e+01	-8.826715e+01
9.600000e-07	-3.754392e-06	-1.305790e-09	-2.608659e+01	-8.792436e+01
9.700000e-07	-3.719340e-06	-1.300403e-09	-2.584304e+01	-8.757885e+01
9.800000e-07	-3.683941e-06	-1.290136e-09	-2.559708e+01	-8.723066e+01
9.900000e-07	-3.648339e-06	-1.280726e-09	-2.534971e+01	-8.687985e+01
1.000000e-06	-3.612634e-06	-1.269984e-09	-2.510162e+01	-8.652646e+01
1.010000e-06	-3.576738e-06	-1.266248e-09	-2.485220e+01	-8.617054e+01
1.020000e-06	-3.540679e-06	-1.266028e-09	-2.460165e+01	-8.581213e+01
1.030000e-06	-3.504546e-06	-1.266390e-09	-2.435059e+01	-8.545127e+01
1.040000e-06	-3.468254e-06	-1.258884e-09	-2.409842e+01	-8.508802e+01
1.050000e-06	-3.431704e-06	-1.249888e-09	-2.384446e+01	-8.472242e+01
1.060000e-06	-3.394798e-06	-1.237707e-09	-2.358803e+01	-8.435452e+01
1.070000e-06	-3.357593e-06	-1.229593e-09	-2.332952e+01	-8.398438e+01
1.080000e-06	-3.320179e-06	-1.221532e-09	-2.306956e+01	-8.361202e+01
1.090000e-06	-3.282534e-06	-1.216716e-09	-2.280799e+01	-8.323750e+01
1.100000e-06	-3.244684e-06	-1.210169e-09	-2.254500e+01	-8.286085e+01
1.110000e-06	-3.206609e-06	-1.206028e-09	-2.228044e+01	-8.248209e+01
1.120000e-06	-3.168357e-06	-1.199349e-09	-2.201466e+01	-8.210121e+01
1.130000e-06	-3.129895e-06	-1.190734e-09	-2.174741e+01	-8.171821e+01
1.140000e-06	-3.091148e-06	-1.183018e-09	-2.147818e+01	-8.133305e+01
1.150000e-06	-3.052125e-06	-1.176786e-09	-2.120704e+01	-8.094565e+01
1.160000e-06	-3.012871e-06	-1.168374e-09	-2.093429e+01	-8.055593e+01
1.170000e-06	-2.973503e-06	-1.161524e-09	-2.066075e+01	-8.016374e+01
1.180000e-06	-2.933978e-06	-1.158784e-09	-2.038612e+01	-7.976892e+01
1.190000e-06	-2.894283e-06	-1.157362e-09	-2.011031e+01	-7.937125e+01
1.200000e-06	-2.854458e-06	-1.149874e-09	-1.983359e+01	-7.897048e+01
1.210000e-06	-2.814492e-06	-1.142622e-09	-1.955590e+01	-7.856631e+01
1.220000e-06	-2.774395e-06	-1.135471e-09	-1.927729e+01	-7.815840e+01
1.230000e-06	-2.734156e-06	-1.127853e-09	-1.899770e+01	-7.774636e+01
1.240000e-06	-2.693779e-06	-1.121798e-09	-1.871715e+01	-7.732976e+01
1.250000e-06	-2.653222e-06	-1.115450e-09	-1.843535e+01	-7.690814e+01
1.260000e-06	-2.612404e-06	-1.110760e-09	-1.815173e+01	-7.648099e+01
1.270000e-06	-2.571379e-06	-1.103601e-09	-1.786668e+01	-7.604778e+01
1.280000e-06	-2.530156e-06	-1.096397e-09	-1.758025e+01	-7.560794e+01
1.290000e-06	-2.488679e-06	-1.087842e-09	-1.729206e+01	-7.516089e+01
1.300000e-06	-2.446885e-06	-1.078899e-09	-1.700166e+01	-7.470603e+01
1.310000e-06	-2.404710e-06	-1.067557e-09	-1.670861e+01	-7.424274e+01
1.320000e-06	-2.362182e-06	-1.058836e-09	-1.641312e+01	-7.377042e+01
1.330000e-06	-2.319414e-06	-1.051440e-09	-1.611596e+01	-7.328846e+01
1.340000e-06	-2.276384e-06	-1.047560e-09	-1.581697e+01	-7.279626e+01
1.350000e-06	-2.233047e-06	-1.043008e-09	-1.551585e+01	-7.229324e+01
1.360000e-06	-2.189465e-06	-1.034945e-09	-1.521303e+01	-7.177886e+01
1.370000e-06	-2.145806e-06	-1.024900e-09	-1.490967e+01	-7.125258e+01
1.380000e-06	-2.102133e-06	-1.015819e-09	-1.460623e+01	-7.071393e+01
1.390000e-06	-2.058334e-06	-1.005166e-09	-1.430189e+01	-7.016245e+01
1.400000e-06	-2.014440e-06	-9.951424e-10	-1.399690e+01	-6.959773e+01
1.410000e-06	-1.970470e-06	-9.851903e-10	-1.369139e+01	-6.901940e+01
1.420000e-06	-1.926425e-06	-9.750565e-10	-1.338535e+01	-6.842715e+01
1.430000e-06	-1.882276e-06	-9.646989e-10	-1.307859e+01	-6.782069e+01
1.440000e-06	-1.838029e-06	-9.533709e-10	-1.277115e+01	-6.719978e+01
1.450000e-06	-1.793786e-06	-9.414318e-10	-1.246374e+01	-6.656422e+01
1.460000e-06	-1.749477e-06	-9.300087e-10	-1.215587e+01	-6.591384e+01
1.470000e-06	-1.704987e-06	-9.180918e-10	-1.184674e+01	-6.524849e+01
1.480000e-06	-1.660289e-06	-9.057635e-10	-1.153616e+01	-6.456804e+01
1.490000e-06	-1.615523e-06	-8.927442e-10	-1.122512e+01	-6.387237e+01
1.500000e-06	-1.570686e-06	-8.794606e-10	-1.091358e+01	-6.316137e+01
1.510000e-06	-1.525665e-06	-8.656619e-10	-1.060076e+01	-6.243492e+01
1.520000e-06	-1.480610e-06	-8.509871e-10	-1.028770e+01	-6.169288e+01
1.530000e-06	-1.435379e-06	-8.378910e-10	-9.973428e+00	-6.093508e+01
1.540000e-06	-1.389900e-06	-8.277289e-10	-9.657427e+00	-6.016132e+01
1.550000e-06	-1.344373e-06	-8.179410e-10	-9.341088e+00	-5.937135e+01
1.560000e-06	-1.298808e-06	-8.078717e-10	-9.024493e+00	-5.856487e+01
1.570000e-06	-1.253127e-06	-7.973394e-10	-8.707084e+00	-5.774151e+01
1.580000e-06	-1.207352e-06	-7.839198e-10	-8.389030e+00	-5.690083e+01
1.590000e-06	-1.161564e-06	-7.677871e-10	-8.070882e+00	-5.604233e+01
1.600000e-06	-1.115680e-06	-7.536885e-10	-7.752065e+00	-5.516541e+01
1.610000e-06	-1.069677e-06	-7.433051e-10	-7.432420e+00	-5.426940e+01
1.620000e-06	-1.023633e-06	-7.337286e-10	-7.112497e+00	-5.335353e+01
1.630000e-06	-9.775667e-07	-7.257101e-10	-6.792414e+00	-5.241698e+01
1.640000e-06	-9.313663e-07	-7.126689e-10	-6.471400e+00	-5.145882e+01
1.650000e-06	-8.850427e-07	-6.943930e-10	-6.149531e+00	-5.047804e+01
1.660000e-06	-8.387466e-07	-6.732317e-10	-5.827852e+00	-4.947360e+01
1.670000e-06	-7.924099e-07	-6.530707e-10	-5.505891e+00	-4.844435e+01
1.680000e-06	-7.459950e-07	-6.348309e-10	-5.183387e+00	-4.738912e+01
1.690000e-06	-6.995714e-07	-6.193526e-10	-4.860823e+00	-4.630669e+01
1.700000e-06	-6.531091e-07	-6.038549e-10	-4.537989e+00	-4.519583e+01
1.710000e-06	-6.065394e-07	-5.878823e-10	-4.214410e+00	-4.405526e+01
1.720000e-06	-5.598036e-07	-5.690427e-10	-3.889676e+00	-4.288375e+01
1.730000e-06	-5.130730e-07	-5.475237e-10	-3.564978e+00	-4.168007e+01
1.740000e-06	-4.664974e-07	-5.260360e-10	-3.241358e+00	-4.044301e+01
1.750000e-06	-4.198373e-07	-5.035149e-10	-2.917150e+00	-3.917143e+01
1.760000e-06	-3.730251e-07	-4.794831e-10	-2.591885e+00	-3.786428e+01
1.770000e-06	-3.262628e-07	-4.573996e-10	-2.266968e+00	-3.652057e+01
1.780000e-06	-2.795808e-07	-4.398546e-10	-1.942607e+00	-3.513943e+01
1.790000e-06	-2.328631e-07	-4.227510e-10	-1.618000e+00	-3.372011e+01
1.800000e-06	-1.861198e-07	-4.044240e-10	-1.293213e+00	-3.226199e+01
1.810000e-06	-1.393336e-07	-3.843983e-10	-9.681295e-01	-3.076461e+01
1.820000e-06	-9.249331e-08	-3.615410e-10	-6.426701e-01	-2.922767e+01
1.830000e-06	-4.560557e-08	-3.362478e-10	-3.168806e-01	-2.765104e+01
1.840000e-06	1.312417e-09	-3.128737e-10	9.119053e-03	-2.603477e+01
1.850000e-06	4.820694e-08	-2.918128e-10	3.349557e-01	-2.437910e+01
1.860000e-06	9.506796e-08	-2.700722e-10	6.605594e-01	-2.268448e+01
1.870000e-06	1.419074e-07	-2.461090e-10	9.860133e-01	-2.095153e+01
1.880000e-06	1.887366e-07	-2.215150e-10	1.311396e+00	-1.918108e+01
1.890000e-06	2.355456e-07	-1.963631e-10	1.636639e+00	-1.737416e+01
1.900000e-06	2.823353e-07	-1.709649e-10	1.961747e+00	-1.553200e+01
1.910000e-06	3.290313e-07	-1.443558e-10	2.286204e+00	-1.365600e+01
1.920000e-06	3.757198e-07	-1.168453e-10	2.610609e+00	-1.174776e+01
1.930000e-06	4.223751e-07	-8.923186e-11	2.934783e+00	-9.809038e+00
1.940000e-06	4.689799e-07	-6.138649e-11	3.258607e+00	-7.841760e+00
1.950000e-06	5.155570e-07	-3.345649e-11	3.582238e+00	-5.848005e+00
1.960000e-06	5.620989e-07	-4.942755e-12	3.905624e+00	-3.829990e+00
1.970000e-06	6.086314e-07	2.283985e-11	4.228946e+00	-1.790055e+00
1.980000e-06	6.550764e-07	4.981793e-11	4.551658e+00	2.693467e-01
1.990000e-06	7.014294e-07	7.936016e-11	4.873733e+00	2.345671e+00
2.000000e-06	7.476918e-07	1.108607e-10	5.195177e+00	4.436293e+00
2.010000e-06	7.939762e-07	1.419627e-10	5.516775e+00	6.538524e+00
2.020000e-06	8.402083e-07	1.737676e-10	5.838008e+00	8.649629e+00
2.030000e-06	8.863868e-07	2.059175e-10	6.158870e+00	1.076684e+01
2.040000e-06	9.325642e-07	2.349610e-10	6.479724e+00	1.288738e+01
2.050000e-06	9.786311e-07	2.623757e-10	6.799809e+00	1.500846e+01
2.060000e-06	1.024605e-06	2.907502e-10	7.119247e+00	1.712731e+01
2.070000e-06	1.070509e-06	3.211523e-10	7.438203e+00	1.924120e+01
2.080000e-06	1.116397e-06	3.534633e-10	7.757045e+00	2.134742e+01
2.090000e-06	1.162243e-06	3.869682e-10	8.075601e+00	2.344333e+01
2.100000e-06	1.207982e-06	4.186404e-10	8.393403e+00	2.552636e+01
2.110000e-06	1.253668e-06	4.472769e-10	8.710845e+00	2.759400e+01
2.120000e-06	1.299308e-06	4.755381e-10	9.027968e+00	2.964384e+01
2.130000e-06	1.344776e-06	5.028716e-10	9.343890e+00	3.167357e+01
2.140000e-06	1.390058e-06	5.286779e-10	9.658524e+00	3.368096e+01
2.150000e-06	1.435266e-06	5.558271e-10	9.972642e+00	3.566393e+01
2.160000e-06	1.480453e-06	5.834987e-10	1.028661e+01	3.762049e+01
2.170000e-06	1.525443e-06	6.098104e-10	1.059921e+01	3.954878e+01
2.180000e-06	1.570196e-06	6.365814e-10	1.091017e+01	4.144708e+01
2.190000e-06	1.614962e-06	6.634831e-10	1.122122e+01	4.331380e+01
2.200000e-06	1.659718e-06	6.898865e-10	1.153220e+01	4.514747e+01
2.210000e-06	1.704284e-06	7.147399e-10	1.184185e+01	4.694679e+01
2.220000e-06	1.748759e-06	7.383115e-10	1.215088e+01	4.871057e+01
2.230000e-06	1.793171e-06	7.605206e-10	1.245946e+01	5.043779e+01
2.240000e-06	1.837362e-06	7.827561e-10	1.276652e+01	5.212755e+01
2.250000e-06	1.881413e-06	8.040828e-10	1.307260e+01	5.377912e+01
2.260000e-06	1.925456e-06	8.261167e-10	1.337862e+01	5.539189e+01
2.270000e-06	1.969458e-06	8.489180e-10	1.368436e+01	5.696540e+01
2.280000e-06	2.013353e-06	8.715418e-10	1.398936e+01	5.849932e+01
2.290000e-06	2.057236e-06	8.940381e-10	1.429427e+01	5.999348e+01
2.300000e-06	2.101090e-06	9.119397e-10	1.459898e+01	6.144781e+01
2.310000e-06	2.144785e-06	9.299022e-10	1.490258e+01	6.286238e+01
2.320000e-06	2.188370e-06	9.472099e-10	1.520542e+01	6.423741e+01
2.330000e-06	2.231874e-06	9.630352e-10	1.550770e+01	6.557319e+01
2.340000e-06	2.275224e-06	9.806557e-10	1.580891e+01	6.687014e+01
2.350000e-06	2.318309e-06	9.993543e-10	1.610828e+01	6.812880e+01
2.360000e-06	2.361161e-06	1.017020e-09	1.640602e+01	6.934978e+01
2.370000e-06	2.403792e-06	1.033210e-09	1.670224e+01	7.053380e+01
2.380000e-06	2.446025e-06	1.049499e-09	1.699568e+01	7.168162e+01
2.390000e-06	2.487850e-06	1.063534e-09	1.728629e+01	7.279411e+01
2.400000e-06	2.529314e-06	1.075728e-09	1.757440e+01	7.387218e+01
2.410000e-06	2.570478e-06	1.088850e-09	1.786042e+01	7.491678e+01
2.420000e-06	2.611459e-06	1.103544e-09	1.814516e+01	7.592890e+01
2.430000e-06	2.652163e-06	1.116843e-09	1.842799e+01	7.690958e+01
2.440000e-06	2.692590e-06	1.128148e-09	1.870889e+01	7.785984e+01
2.450000e-06	2.732864e-06	1.139324e-09	1.898872e+01	7.878074e+01
2.460000e-06	2.773033e-06	1.150905e-09	1.926783e+01	7.967332e+01
2.470000e-06	2.813105e-06	1.161446e-09	1.954626e+01	8.053861e+01
2.480000e-06	2.853017e-06	1.171632e-09	1.982358e+01	8.137761e+01
2.490000e-06	2.892799e-06	1.182326e-09	2.010000e+01	8.219131e+01
2.500000e-06	2.932478e-06	1.195400e-09	2.037570e+01	8.298066e+01
2.510000e-06	2.971963e-06	1.208470e-09	2.065005e+01	8.374654e+01
2.520000e-06	3.011266e-06	1.218414e-09	2.092314e+01	8.448982e+01
2.530000e-06	3.050351e-06	1.223666e-09	2.119471e+01	8.521129e+01
2.540000e-06	3.089148e-06	1.229920e-09	2.146429e+01	8.591172e+01
2.550000e-06	3.127654e-06	1.239139e-09	2.173184e+01	8.659178e+01
2.560000e-06	3.165957e-06	1.249870e-09	2.199798e+01	8.725211e+01
2.570000e-06	3.204139e-06	1.262237e-09	2.226328e+01	8.789330e+01
2.580000e-06	3.242135e-06	1.273393e-09	2.252728e+01	8.851588e+01
2.590000e-06	3.279894e-06	1.280619e-09	2.278964e+01	8.912032e+01
2.600000e-06	3.317434e-06	1.284285e-09	2.305048e+01	8.970706e+01
2.610000e-06	3.354823e-06	1.290203e-09	2.331027e+01	9.027649e+01
2.620000e-06	3.391975e-06	1.297771e-09	2.356842e+01	9.082898e+01
2.630000e-06	3.428769e-06	1.306539e-09	2.382407e+01	9.136485e+01
2.640000e-06	3.465283e-06	1.316862e-09	2.407778e+01	9.188442e+01
2.650000e-06	3.501627e-06	1.326085e-09	2.433031e+01	9.238798e+01
2.660000e-06	3.537781e-06	1.332128e-09	2.458152e+01	9.287583e+01
2.670000e-06	3.573758e-06	1.337889e-09	2.483150e+01	9.334827e+01
2.680000e-06	3.609646e-06	1.343951e-09	2.508085e+01	9.380560e+01
2.690000e-06	3.645422e-06	1.349612e-09	2.532944e+01	9.424813e+01
2.700000e-06	3.681014e-06	1.356741e-09	2.557674e+01	9.467621e+01
2.710000e-06	3.716330e-06	1.365833e-09	2.582213e+01	9.509020e+01
2.720000e-06	3.751283e-06	1.373926e-09	2.606499e+01	9.549050e+01
2.730000e-06	3.785880e-06	1.380036e-09	2.630538e+01	9.587753e+01
2.740000e-06	3.820046e-06	1.386059e-09	2.654277e+01	9.625175e+01
2.750000e-06	3.853703e-06	1.391417e-09	2.677663e+01	9.661366e+01
2.760000e-06	3.886829e-06	1.394458e-09	2.700681e+01	9.696380e+01
2.770000e-06	3.919487e-06	1.397880e-09	2.723372e+01	9.730271e+01
2.780000e-06	3.951840e-06	1.405025e-09	2.745852e+01	9.763099e+01
2.790000e-06	3.984038e-06	1.415398e-09	2.768224e+01	9.794924e+01
2.800000e-06	4.016120e-06	1.424575e-09	2.790515e+01	9.825811e+01
2.810000e-06	4.048007e-06	1.429651e-09	2.812671e+01	9.855821e+01
2.820000e-06	4.079701e-06	1.433594e-09	2.834694e+01	9.885020e+01
2.830000e-06	4.111192e-06	1.437925e-09	2.856574e+01	9.913470e+01
2.840000e-06	4.142374e-06	1.441070e-09	2.878240e+01	9.941234e+01
2.850000e-06	4.173211e-06	1.441755e-09	2.899667e+01	9.968370e+01
2.860000e-06	4.203731e-06	1.443151e-09	2.920873e+01	9.994936e+01
2.870000e-06	4.233974e-06	1.448288e-09	2.941887e+01	1.002098e+02
2.880000e-06	4.263929e-06	1.454472e-09	2.962700e+01	1.004656e+02
2.890000e-06	4.293639e-06	1.460079e-09	2.983344e+01	1.007170e+02
2.900000e-06	4.323053e-06	1.463135e-09	3.003781e+01	1.009645e+02
