# Temperatura_=_11.75
# Concentracion g/m^3_=_1620.0
# C_Vs_to_Am_M_A/Vsm_=_65563218390.804596
# pendiente_HvsI_1/m_=_3716.3
# ordenada_HvsI_A/m_=_1297.0
# frecuencia_Hz_=_135096.13368223418

Tiempo_(s)	Campo_(V.s)	Magnetizacion_(V.s)	Campo_(kA/m)	Magnetizacion_(A/m)
0.000000e+00	-5.530823e-06	-1.644826e-09	-3.837114e+01	-1.072200e+02
1.000000e-08	-5.531001e-06	-1.640586e-09	-3.837237e+01	-1.071420e+02
2.000000e-08	-5.530916e-06	-1.635910e-09	-3.837179e+01	-1.070672e+02
3.000000e-08	-5.530650e-06	-1.634054e-09	-3.836994e+01	-1.069964e+02
4.000000e-08	-5.530098e-06	-1.635833e-09	-3.836611e+01	-1.069300e+02
5.000000e-08	-5.529092e-06	-1.636605e-09	-3.835913e+01	-1.068684e+02
6.000000e-08	-5.527490e-06	-1.628603e-09	-3.834802e+01	-1.068121e+02
7.000000e-08	-5.525084e-06	-1.608785e-09	-3.833133e+01	-1.067613e+02
8.000000e-08	-5.522064e-06	-1.614580e-09	-3.831037e+01	-1.067160e+02
9.000000e-08	-5.518609e-06	-1.699406e-09	-3.828640e+01	-1.066763e+02
1.000000e-07	-5.514684e-06	-1.745273e-09	-3.825917e+01	-1.066419e+02
1.100000e-07	-5.510457e-06	-1.635861e-09	-3.822985e+01	-1.066126e+02
1.200000e-07	-5.506038e-06	-1.526637e-09	-3.819919e+01	-1.065880e+02
1.300000e-07	-5.501392e-06	-1.574951e-09	-3.816696e+01	-1.065675e+02
1.400000e-07	-5.496321e-06	-1.691671e-09	-3.813177e+01	-1.065503e+02
1.500000e-07	-5.490763e-06	-1.668930e-09	-3.809322e+01	-1.065357e+02
1.600000e-07	-5.484889e-06	-1.568017e-09	-3.805246e+01	-1.065229e+02
1.700000e-07	-5.478670e-06	-1.617524e-09	-3.800932e+01	-1.065107e+02
1.800000e-07	-5.471927e-06	-1.685652e-09	-3.796254e+01	-1.064981e+02
1.900000e-07	-5.464716e-06	-1.667994e-09	-3.791251e+01	-1.064841e+02
2.000000e-07	-5.457314e-06	-1.562025e-09	-3.786116e+01	-1.064674e+02
2.100000e-07	-5.449676e-06	-1.586985e-09	-3.780817e+01	-1.064469e+02
2.200000e-07	-5.441727e-06	-1.657980e-09	-3.775302e+01	-1.064215e+02
2.300000e-07	-5.433629e-06	-1.684177e-09	-3.769684e+01	-1.063900e+02
2.400000e-07	-5.425230e-06	-1.623956e-09	-3.763857e+01	-1.063514e+02
2.500000e-07	-5.416208e-06	-1.606018e-09	-3.757598e+01	-1.063045e+02
2.600000e-07	-5.406412e-06	-1.629879e-09	-3.750802e+01	-1.062486e+02
2.700000e-07	-5.395964e-06	-1.639766e-09	-3.743553e+01	-1.061826e+02
2.800000e-07	-5.384912e-06	-1.615326e-09	-3.735886e+01	-1.061061e+02
2.900000e-07	-5.373343e-06	-1.605671e-09	-3.727860e+01	-1.060182e+02
3.000000e-07	-5.361482e-06	-1.634182e-09	-3.719631e+01	-1.059186e+02
3.100000e-07	-5.349348e-06	-1.619622e-09	-3.711212e+01	-1.058070e+02
3.200000e-07	-5.336761e-06	-1.593210e-09	-3.702480e+01	-1.056832e+02
3.300000e-07	-5.323725e-06	-1.581009e-09	-3.693436e+01	-1.055472e+02
3.400000e-07	-5.310379e-06	-1.631507e-09	-3.684177e+01	-1.053991e+02
3.500000e-07	-5.296669e-06	-1.614572e-09	-3.674665e+01	-1.052392e+02
3.600000e-07	-5.282385e-06	-1.597623e-09	-3.664755e+01	-1.050679e+02
3.700000e-07	-5.267676e-06	-1.611052e-09	-3.654551e+01	-1.048857e+02
3.800000e-07	-5.252664e-06	-1.625426e-09	-3.644136e+01	-1.046934e+02
3.900000e-07	-5.236943e-06	-1.552973e-09	-3.633229e+01	-1.044916e+02
4.000000e-07	-5.220530e-06	-1.558750e-09	-3.621843e+01	-1.042812e+02
4.100000e-07	-5.203805e-06	-1.615472e-09	-3.610239e+01	-1.040632e+02
4.200000e-07	-5.186810e-06	-1.588514e-09	-3.598449e+01	-1.038384e+02
4.300000e-07	-5.169441e-06	-1.525017e-09	-3.586399e+01	-1.036080e+02
4.400000e-07	-5.151858e-06	-1.595948e-09	-3.574200e+01	-1.033728e+02
4.500000e-07	-5.133927e-06	-1.620784e-09	-3.561760e+01	-1.031339e+02
4.600000e-07	-5.115529e-06	-1.532420e-09	-3.548996e+01	-1.028924e+02
4.700000e-07	-5.096751e-06	-1.526681e-09	-3.535968e+01	-1.026490e+02
4.800000e-07	-5.077583e-06	-1.598249e-09	-3.522671e+01	-1.024048e+02
4.900000e-07	-5.058068e-06	-1.547129e-09	-3.509132e+01	-1.021604e+02
5.000000e-07	-5.038302e-06	-1.505743e-09	-3.495419e+01	-1.019167e+02
5.100000e-07	-5.018408e-06	-1.567484e-09	-3.481617e+01	-1.016742e+02
5.200000e-07	-4.998256e-06	-1.552258e-09	-3.467636e+01	-1.014335e+02
5.300000e-07	-4.977754e-06	-1.491371e-09	-3.453412e+01	-1.011949e+02
5.400000e-07	-4.956888e-06	-1.547358e-09	-3.438935e+01	-1.009587e+02
5.500000e-07	-4.935664e-06	-1.575411e-09	-3.424211e+01	-1.007252e+02
5.600000e-07	-4.914091e-06	-1.495074e-09	-3.409244e+01	-1.004943e+02
5.700000e-07	-4.892149e-06	-1.501680e-09	-3.394022e+01	-1.002660e+02
5.800000e-07	-4.869927e-06	-1.554421e-09	-3.378605e+01	-1.000402e+02
5.900000e-07	-4.847334e-06	-1.511465e-09	-3.362931e+01	-9.981644e+01
6.000000e-07	-4.824323e-06	-1.482326e-09	-3.346966e+01	-9.959453e+01
6.100000e-07	-4.800982e-06	-1.530827e-09	-3.330773e+01	-9.937399e+01
6.200000e-07	-4.777384e-06	-1.512788e-09	-3.314402e+01	-9.915430e+01
6.300000e-07	-4.753625e-06	-1.481543e-09	-3.297918e+01	-9.893494e+01
6.400000e-07	-4.729680e-06	-1.510665e-09	-3.281306e+01	-9.871529e+01
6.500000e-07	-4.705435e-06	-1.516745e-09	-3.264486e+01	-9.849475e+01
6.600000e-07	-4.680723e-06	-1.478517e-09	-3.247341e+01	-9.827270e+01
6.700000e-07	-4.655507e-06	-1.496356e-09	-3.229847e+01	-9.804852e+01
6.800000e-07	-4.629769e-06	-1.507204e-09	-3.211991e+01	-9.782161e+01
6.900000e-07	-4.603418e-06	-1.480938e-09	-3.193709e+01	-9.759140e+01
7.000000e-07	-4.576624e-06	-1.475286e-09	-3.175121e+01	-9.735737e+01
7.100000e-07	-4.549459e-06	-1.490937e-09	-3.156274e+01	-9.711905e+01
7.200000e-07	-4.521950e-06	-1.469151e-09	-3.137189e+01	-9.687601e+01
7.300000e-07	-4.494256e-06	-1.461559e-09	-3.117976e+01	-9.662791e+01
7.400000e-07	-4.466387e-06	-1.470985e-09	-3.098642e+01	-9.637447e+01
7.500000e-07	-4.438363e-06	-1.462310e-09	-3.079199e+01	-9.611547e+01
7.600000e-07	-4.410092e-06	-1.446110e-09	-3.059586e+01	-9.585079e+01
7.700000e-07	-4.381492e-06	-1.453348e-09	-3.039744e+01	-9.558035e+01
7.800000e-07	-4.352580e-06	-1.447816e-09	-3.019686e+01	-9.530416e+01
7.900000e-07	-4.323320e-06	-1.433299e-09	-2.999386e+01	-9.502229e+01
8.000000e-07	-4.293737e-06	-1.435506e-09	-2.978862e+01	-9.473486e+01
8.100000e-07	-4.263862e-06	-1.431290e-09	-2.958136e+01	-9.444204e+01
8.200000e-07	-4.233760e-06	-1.407659e-09	-2.937252e+01	-9.414407e+01
8.300000e-07	-4.203422e-06	-1.400684e-09	-2.916204e+01	-9.384117e+01
8.400000e-07	-4.172721e-06	-1.406756e-09	-2.894905e+01	-9.353363e+01
8.500000e-07	-4.141686e-06	-1.399798e-09	-2.873374e+01	-9.322173e+01
8.600000e-07	-4.110415e-06	-1.397825e-09	-2.851679e+01	-9.290576e+01
8.700000e-07	-4.078954e-06	-1.400524e-09	-2.829852e+01	-9.258600e+01
8.800000e-07	-4.047335e-06	-1.386804e-09	-2.807916e+01	-9.226273e+01
8.900000e-07	-4.015511e-06	-1.366721e-09	-2.785838e+01	-9.193619e+01
9.000000e-07	-3.983464e-06	-1.363310e-09	-2.763604e+01	-9.160659e+01
9.100000e-07	-3.951176e-06	-1.355047e-09	-2.741204e+01	-9.127413e+01
9.200000e-07	-3.918640e-06	-1.345215e-09	-2.718632e+01	-9.093893e+01
9.300000e-07	-3.885784e-06	-1.346584e-09	-2.695837e+01	-9.060109e+01
9.400000e-07	-3.852340e-06	-1.353249e-09	-2.672635e+01	-9.026066e+01
9.500000e-07	-3.818353e-06	-1.342599e-09	-2.649055e+01	-8.991765e+01
9.600000e-07	-3.784023e-06	-1.336050e-09	-2.625239e+01	-8.957200e+01
9.700000e-07	-3.749251e-06	-1.331740e-09	-2.601115e+01	-8.922363e+01
9.800000e-07	-3.714033e-06	-1.317393e-09	-2.576682e+01	-8.887241e+01
9.900000e-07	-3.678567e-06	-1.299305e-09	-2.552076e+01	-8.851817e+01
1.000000e-06	-3.642911e-06	-1.295522e-09	-2.527339e+01	-8.816071e+01
1.010000e-06	-3.607123e-06	-1.289270e-09	-2.502510e+01	-8.779982e+01
1.020000e-06	-3.571255e-06	-1.281676e-09	-2.477627e+01	-8.743524e+01
1.030000e-06	-3.535207e-06	-1.281946e-09	-2.452617e+01	-8.706672e+01
1.040000e-06	-3.498969e-06	-1.285391e-09	-2.427477e+01	-8.669402e+01
1.050000e-06	-3.462567e-06	-1.276795e-09	-2.402222e+01	-8.631686e+01
1.060000e-06	-3.425874e-06	-1.266013e-09	-2.376766e+01	-8.593500e+01
1.070000e-06	-3.388937e-06	-1.256456e-09	-2.351140e+01	-8.554822e+01
1.080000e-06	-3.351759e-06	-1.243991e-09	-2.325347e+01	-8.515631e+01
1.090000e-06	-3.314226e-06	-1.230950e-09	-2.299308e+01	-8.475908e+01
1.100000e-06	-3.276391e-06	-1.226097e-09	-2.273059e+01	-8.435639e+01
1.110000e-06	-3.238292e-06	-1.223246e-09	-2.246627e+01	-8.394811e+01
1.120000e-06	-3.199963e-06	-1.215720e-09	-2.220036e+01	-8.353416e+01
1.130000e-06	-3.161478e-06	-1.210354e-09	-2.193336e+01	-8.311449e+01
1.140000e-06	-3.122878e-06	-1.203684e-09	-2.166557e+01	-8.268910e+01
1.150000e-06	-3.084091e-06	-1.193597e-09	-2.139647e+01	-8.225800e+01
1.160000e-06	-3.045061e-06	-1.184179e-09	-2.112569e+01	-8.182123e+01
1.170000e-06	-3.005833e-06	-1.175289e-09	-2.085354e+01	-8.137889e+01
1.180000e-06	-2.966471e-06	-1.163982e-09	-2.058046e+01	-8.093106e+01
1.190000e-06	-2.927013e-06	-1.158852e-09	-2.030671e+01	-8.047786e+01
1.200000e-06	-2.887413e-06	-1.157171e-09	-2.003198e+01	-8.001941e+01
1.210000e-06	-2.847625e-06	-1.152742e-09	-1.975594e+01	-7.955584e+01
1.220000e-06	-2.807652e-06	-1.143263e-09	-1.947863e+01	-7.908727e+01
1.230000e-06	-2.767523e-06	-1.136421e-09	-1.920022e+01	-7.861381e+01
1.240000e-06	-2.727221e-06	-1.130137e-09	-1.892062e+01	-7.813556e+01
1.250000e-06	-2.686725e-06	-1.124536e-09	-1.863967e+01	-7.765258e+01
1.260000e-06	-2.646028e-06	-1.118446e-09	-1.835732e+01	-7.716492e+01
1.270000e-06	-2.605081e-06	-1.110696e-09	-1.807325e+01	-7.667257e+01
1.280000e-06	-2.563837e-06	-1.100418e-09	-1.778711e+01	-7.617551e+01
1.290000e-06	-2.522343e-06	-1.090651e-09	-1.749924e+01	-7.567365e+01
1.300000e-06	-2.480637e-06	-1.081317e-09	-1.720989e+01	-7.516688e+01
1.310000e-06	-2.438565e-06	-1.073749e-09	-1.691801e+01	-7.465501e+01
1.320000e-06	-2.396110e-06	-1.065503e-09	-1.662347e+01	-7.413784e+01
1.330000e-06	-2.353446e-06	-1.059932e-09	-1.632748e+01	-7.361509e+01
1.340000e-06	-2.310442e-06	-1.052613e-09	-1.602913e+01	-7.308646e+01
1.350000e-06	-2.267157e-06	-1.046727e-09	-1.572883e+01	-7.255159e+01
1.360000e-06	-2.223745e-06	-1.042490e-09	-1.542766e+01	-7.201008e+01
1.370000e-06	-2.180151e-06	-1.036197e-09	-1.512521e+01	-7.146151e+01
1.380000e-06	-2.136479e-06	-1.026888e-09	-1.482223e+01	-7.090542e+01
1.390000e-06	-2.092761e-06	-1.014484e-09	-1.451893e+01	-7.034133e+01
1.400000e-06	-2.048949e-06	-9.994410e-10	-1.421498e+01	-6.976873e+01
1.410000e-06	-2.005003e-06	-9.856929e-10	-1.391009e+01	-6.918711e+01
1.420000e-06	-1.960992e-06	-9.740323e-10	-1.360476e+01	-6.859595e+01
1.430000e-06	-1.916990e-06	-9.627983e-10	-1.329948e+01	-6.799471e+01
1.440000e-06	-1.872937e-06	-9.550312e-10	-1.299386e+01	-6.738287e+01
1.450000e-06	-1.828735e-06	-9.489631e-10	-1.268720e+01	-6.675992e+01
1.460000e-06	-1.784378e-06	-9.404800e-10	-1.237947e+01	-6.612533e+01
1.470000e-06	-1.739899e-06	-9.269468e-10	-1.207088e+01	-6.547862e+01
1.480000e-06	-1.695279e-06	-9.123494e-10	-1.176132e+01	-6.481929e+01
1.490000e-06	-1.650533e-06	-8.949918e-10	-1.145089e+01	-6.414687e+01
1.500000e-06	-1.605626e-06	-8.752421e-10	-1.113934e+01	-6.346091e+01
1.510000e-06	-1.560514e-06	-8.580640e-10	-1.082637e+01	-6.276095e+01
1.520000e-06	-1.515247e-06	-8.459796e-10	-1.051231e+01	-6.204655e+01
1.530000e-06	-1.469913e-06	-8.358008e-10	-1.019780e+01	-6.131726e+01
1.540000e-06	-1.424540e-06	-8.268061e-10	-9.883022e+00	-6.057266e+01
1.550000e-06	-1.379071e-06	-8.171715e-10	-9.567565e+00	-5.981229e+01
1.560000e-06	-1.333525e-06	-8.051781e-10	-9.251587e+00	-5.903570e+01
1.570000e-06	-1.287938e-06	-7.921855e-10	-8.935317e+00	-5.824240e+01
1.580000e-06	-1.242225e-06	-7.784541e-10	-8.618172e+00	-5.743188e+01
1.590000e-06	-1.196343e-06	-7.601252e-10	-8.299856e+00	-5.660362e+01
1.600000e-06	-1.150400e-06	-7.417223e-10	-7.981122e+00	-5.575703e+01
1.610000e-06	-1.104485e-06	-7.256330e-10	-7.662577e+00	-5.489148e+01
1.620000e-06	-1.058501e-06	-7.166220e-10	-7.343550e+00	-5.400629e+01
1.630000e-06	-1.012352e-06	-7.102325e-10	-7.023389e+00	-5.310075e+01
1.640000e-06	-9.660640e-07	-7.055740e-10	-6.702253e+00	-5.217405e+01
1.650000e-06	-9.197296e-07	-6.943194e-10	-6.380800e+00	-5.122534e+01
1.660000e-06	-8.733489e-07	-6.768544e-10	-6.059025e+00	-5.025372e+01
1.670000e-06	-8.269170e-07	-6.544940e-10	-5.736895e+00	-4.925820e+01
1.680000e-06	-7.804308e-07	-6.307617e-10	-5.414388e+00	-4.823775e+01
1.690000e-06	-7.338469e-07	-6.127903e-10	-5.091203e+00	-4.719131e+01
1.700000e-06	-6.871752e-07	-5.946878e-10	-4.767409e+00	-4.611772e+01
1.710000e-06	-6.405523e-07	-5.808814e-10	-4.443954e+00	-4.501584e+01
1.720000e-06	-5.939537e-07	-5.699783e-10	-4.120668e+00	-4.388447e+01
1.730000e-06	-5.472941e-07	-5.546420e-10	-3.796957e+00	-4.272241e+01
1.740000e-06	-5.006268e-07	-5.344826e-10	-3.473194e+00	-4.152844e+01
1.750000e-06	-4.539542e-07	-5.087454e-10	-3.149394e+00	-4.030138e+01
1.760000e-06	-4.072205e-07	-4.839559e-10	-2.825170e+00	-3.904005e+01
1.770000e-06	-3.603865e-07	-4.636605e-10	-2.500250e+00	-3.774336e+01
1.780000e-06	-3.134466e-07	-4.468877e-10	-2.174595e+00	-3.641023e+01
1.790000e-06	-2.664690e-07	-4.314845e-10	-1.848679e+00	-3.503971e+01
1.800000e-06	-2.194975e-07	-4.117628e-10	-1.522806e+00	-3.363092e+01
1.810000e-06	-1.725011e-07	-3.921571e-10	-1.196759e+00	-3.218312e+01
1.820000e-06	-1.255213e-07	-3.696642e-10	-8.708279e-01	-3.069569e+01
1.830000e-06	-7.855878e-08	-3.482263e-10	-5.450165e-01	-2.916817e+01
1.840000e-06	-3.164545e-08	-3.250568e-10	-2.195464e-01	-2.760027e+01
1.850000e-06	1.522306e-08	-3.041300e-10	1.056129e-01	-2.599187e+01
1.860000e-06	6.205060e-08	-2.842957e-10	4.304879e-01	-2.434304e+01
1.870000e-06	1.088680e-07	-2.626886e-10	7.552922e-01	-2.265409e+01
1.880000e-06	1.557688e-07	-2.391127e-10	1.080676e+00	-2.092548e+01
1.890000e-06	2.026445e-07	-2.151238e-10	1.405885e+00	-1.915795e+01
1.900000e-06	2.494006e-07	-1.914265e-10	1.730264e+00	-1.735241e+01
1.910000e-06	2.961448e-07	-1.643045e-10	2.054561e+00	-1.551002e+01
1.920000e-06	3.429529e-07	-1.341278e-10	2.379301e+00	-1.363214e+01
1.930000e-06	3.897632e-07	-1.045920e-10	2.704057e+00	-1.172036e+01
1.940000e-06	4.364893e-07	-7.672436e-11	3.028228e+00	-9.776463e+00
1.950000e-06	4.831584e-07	-5.143260e-11	3.352004e+00	-7.802431e+00
1.960000e-06	5.298827e-07	-2.827660e-11	3.676163e+00	-5.800434e+00
1.970000e-06	5.765858e-07	-7.554343e-12	4.000174e+00	-3.772814e+00
1.980000e-06	6.231982e-07	1.655115e-11	4.323557e+00	-1.722064e+00
1.990000e-06	6.697741e-07	4.673448e-11	4.646686e+00	3.491840e-01
2.000000e-06	7.162867e-07	8.352816e-11	4.969376e+00	2.438179e+00
2.010000e-06	7.627230e-07	1.236331e-10	5.291537e+00	4.542072e+00
2.020000e-06	8.090800e-07	1.586751e-10	5.613147e+00	6.657939e+00
2.030000e-06	8.554430e-07	1.886397e-10	5.934799e+00	8.782798e+00
2.040000e-06	9.017362e-07	2.119313e-10	6.255967e+00	1.091363e+01
2.050000e-06	9.478574e-07	2.338633e-10	6.575942e+00	1.304742e+01
2.060000e-06	9.940169e-07	2.586941e-10	6.896182e+00	1.518115e+01
2.070000e-06	1.040181e-06	2.888238e-10	7.216453e+00	1.731182e+01
2.080000e-06	1.086218e-06	3.212487e-10	7.535848e+00	1.943651e+01
2.090000e-06	1.132159e-06	3.542847e-10	7.854573e+00	2.155235e+01
2.100000e-06	1.177966e-06	3.874250e-10	8.172361e+00	2.365656e+01
2.110000e-06	1.223692e-06	4.193840e-10	8.489599e+00	2.574647e+01
2.120000e-06	1.269366e-06	4.464664e-10	8.806471e+00	2.781952e+01
2.130000e-06	1.314926e-06	4.732158e-10	9.122554e+00	2.987329e+01
2.140000e-06	1.360415e-06	4.998094e-10	9.438142e+00	3.190549e+01
2.150000e-06	1.405786e-06	5.232968e-10	9.752906e+00	3.391398e+01
2.160000e-06	1.451034e-06	5.468129e-10	1.006683e+01	3.589680e+01
2.170000e-06	1.496233e-06	5.738593e-10	1.038040e+01	3.785213e+01
2.180000e-06	1.541322e-06	6.020265e-10	1.069321e+01	3.977832e+01
2.190000e-06	1.586301e-06	6.328297e-10	1.100526e+01	4.167390e+01
2.200000e-06	1.631119e-06	6.638063e-10	1.131620e+01	4.353756e+01
2.210000e-06	1.675794e-06	6.927962e-10	1.162614e+01	4.536815e+01
2.220000e-06	1.720377e-06	7.178243e-10	1.193544e+01	4.716470e+01
2.230000e-06	1.764834e-06	7.400633e-10	1.224387e+01	4.892638e+01
2.240000e-06	1.809128e-06	7.617421e-10	1.255117e+01	5.065253e+01
2.250000e-06	1.853249e-06	7.822896e-10	1.285727e+01	5.234263e+01
2.260000e-06	1.897274e-06	8.040799e-10	1.316270e+01	5.399629e+01
2.270000e-06	1.941279e-06	8.269193e-10	1.346799e+01	5.561328e+01
2.280000e-06	1.985262e-06	8.524098e-10	1.377313e+01	5.719346e+01
2.290000e-06	2.029166e-06	8.784225e-10	1.407773e+01	5.873683e+01
2.300000e-06	2.073007e-06	9.005986e-10	1.438189e+01	6.024348e+01
2.310000e-06	2.116737e-06	9.191576e-10	1.468527e+01	6.171360e+01
2.320000e-06	2.160386e-06	9.388216e-10	1.498809e+01	6.314748e+01
2.330000e-06	2.203916e-06	9.592486e-10	1.529009e+01	6.454545e+01
2.340000e-06	2.247298e-06	9.798195e-10	1.559106e+01	6.590795e+01
2.350000e-06	2.290543e-06	1.000518e-09	1.589108e+01	6.723546e+01
2.360000e-06	2.333510e-06	1.021205e-09	1.618917e+01	6.852851e+01
2.370000e-06	2.376258e-06	1.038876e-09	1.648575e+01	6.978767e+01
2.380000e-06	2.418795e-06	1.053915e-09	1.678085e+01	7.101356e+01
2.390000e-06	2.461049e-06	1.068390e-09	1.707399e+01	7.220681e+01
2.400000e-06	2.503078e-06	1.084353e-09	1.736558e+01	7.336807e+01
2.410000e-06	2.544754e-06	1.100529e-09	1.765471e+01	7.449803e+01
2.420000e-06	2.586096e-06	1.116948e-09	1.794154e+01	7.559735e+01
2.430000e-06	2.627142e-06	1.130461e-09	1.822630e+01	7.666672e+01
2.440000e-06	2.667922e-06	1.141239e-09	1.850922e+01	7.770681e+01
2.450000e-06	2.708512e-06	1.152013e-09	1.879082e+01	7.871830e+01
2.460000e-06	2.748835e-06	1.163470e-09	1.907057e+01	7.970183e+01
2.470000e-06	2.789003e-06	1.176631e-09	1.934924e+01	8.065805e+01
2.480000e-06	2.829003e-06	1.190169e-09	1.962675e+01	8.158758e+01
2.490000e-06	2.868832e-06	1.203382e-09	1.990307e+01	8.249101e+01
2.500000e-06	2.908588e-06	1.218223e-09	2.017888e+01	8.336892e+01
2.510000e-06	2.948208e-06	1.231994e-09	2.045376e+01	8.422185e+01
2.520000e-06	2.987657e-06	1.243639e-09	2.072744e+01	8.505033e+01
2.530000e-06	3.026927e-06	1.253351e-09	2.099989e+01	8.585483e+01
2.540000e-06	3.066062e-06	1.260546e-09	2.127139e+01	8.663583e+01
2.550000e-06	3.105008e-06	1.268971e-09	2.154159e+01	8.739373e+01
2.560000e-06	3.143654e-06	1.279197e-09	2.180970e+01	8.812896e+01
2.570000e-06	3.182042e-06	1.289286e-09	2.207602e+01	8.884188e+01
2.580000e-06	3.220181e-06	1.298465e-09	2.234062e+01	8.953285e+01
2.590000e-06	3.258150e-06	1.308094e-09	2.260404e+01	9.020218e+01
2.600000e-06	3.295894e-06	1.317663e-09	2.286590e+01	9.085019e+01
2.610000e-06	3.333373e-06	1.327267e-09	2.312591e+01	9.147717e+01
2.620000e-06	3.370685e-06	1.337845e-09	2.338477e+01	9.208340e+01
2.630000e-06	3.407722e-06	1.347152e-09	2.364172e+01	9.266916e+01
2.640000e-06	3.444553e-06	1.353870e-09	2.389725e+01	9.323471e+01
2.650000e-06	3.481214e-06	1.361333e-09	2.415159e+01	9.378033e+01
2.660000e-06	3.517554e-06	1.366986e-09	2.440370e+01	9.430629e+01
2.670000e-06	3.553656e-06	1.370678e-09	2.465417e+01	9.481290e+01
2.680000e-06	3.589596e-06	1.376016e-09	2.490351e+01	9.530046e+01
2.690000e-06	3.625416e-06	1.385514e-09	2.515202e+01	9.576932e+01
2.700000e-06	3.661155e-06	1.397517e-09	2.539996e+01	9.621982e+01
2.710000e-06	3.696706e-06	1.408187e-09	2.564661e+01	9.665238e+01
2.720000e-06	3.732002e-06	1.416452e-09	2.589148e+01	9.706742e+01
2.730000e-06	3.767037e-06	1.421700e-09	2.613454e+01	9.746542e+01
2.740000e-06	3.801770e-06	1.424052e-09	2.637551e+01	9.784689e+01
2.750000e-06	3.836004e-06	1.426290e-09	2.661301e+01	9.821239e+01
2.760000e-06	3.869707e-06	1.428499e-09	2.684684e+01	9.856253e+01
2.770000e-06	3.902899e-06	1.431986e-09	2.707711e+01	9.889795e+01
2.780000e-06	3.935638e-06	1.439444e-09	2.730424e+01	9.921933e+01
2.790000e-06	3.968158e-06	1.448995e-09	2.752986e+01	9.952743e+01
2.800000e-06	4.000416e-06	1.458781e-09	2.775365e+01	9.982300e+01
2.810000e-06	4.032415e-06	1.467057e-09	2.797565e+01	1.001068e+02
2.820000e-06	4.064234e-06	1.471412e-09	2.819640e+01	1.003798e+02
2.830000e-06	4.095848e-06	1.474778e-09	2.841573e+01	1.006427e+02
2.840000e-06	4.127263e-06	1.479304e-09	2.863368e+01	1.008964e+02
2.850000e-06	4.158453e-06	1.482465e-09	2.885006e+01	1.011418e+02
2.860000e-06	4.189333e-06	1.481989e-09	2.906430e+01	1.013798e+02
2.870000e-06	4.219867e-06	1.483472e-09	2.927614e+01	1.016112e+02
2.880000e-06	4.250084e-06	1.489836e-09	2.948577e+01	1.018368e+02
2.890000e-06	4.280031e-06	1.495884e-09	2.969354e+01	1.020575e+02
2.900000e-06	4.309761e-06	1.503976e-09	2.989979e+01	1.022740e+02
