# Temperatura_=_4.72
# Concentracion g/m^3_=_1620.0
# C_Vs_to_Am_M_A/Vsm_=_65563218390.804596
# pendiente_HvsI_1/m_=_3716.3
# ordenada_HvsI_A/m_=_1297.0
# frecuencia_Hz_=_135098.6660372411

Tiempo_(s)	Campo_(V.s)	Magnetizacion_(V.s)	Campo_(kA/m)	Magnetizacion_(A/m)
0.000000e+00	-5.541524e-06	-1.511092e-09	-3.837401e+01	-9.764427e+01
1.000000e-08	-5.541699e-06	-1.506513e-09	-3.837522e+01	-9.757370e+01
2.000000e-08	-5.541618e-06	-1.505642e-09	-3.837466e+01	-9.750568e+01
3.000000e-08	-5.541237e-06	-1.509114e-09	-3.837202e+01	-9.744070e+01
4.000000e-08	-5.540454e-06	-1.511838e-09	-3.836660e+01	-9.737916e+01
5.000000e-08	-5.539192e-06	-1.508535e-09	-3.835786e+01	-9.732143e+01
6.000000e-08	-5.537294e-06	-1.494645e-09	-3.834472e+01	-9.726777e+01
7.000000e-08	-5.534709e-06	-1.483571e-09	-3.832682e+01	-9.721836e+01
8.000000e-08	-5.531557e-06	-1.518307e-09	-3.830499e+01	-9.717330e+01
9.000000e-08	-5.527918e-06	-1.558655e-09	-3.827979e+01	-9.713260e+01
1.000000e-07	-5.523838e-06	-1.526835e-09	-3.825154e+01	-9.709616e+01
1.100000e-07	-5.519488e-06	-1.482300e-09	-3.822141e+01	-9.706381e+01
1.200000e-07	-5.514957e-06	-1.485746e-09	-3.819004e+01	-9.703526e+01
1.300000e-07	-5.510105e-06	-1.509532e-09	-3.815644e+01	-9.701015e+01
1.400000e-07	-5.504942e-06	-1.497838e-09	-3.812068e+01	-9.698804e+01
1.500000e-07	-5.499436e-06	-1.469716e-09	-3.808256e+01	-9.696840e+01
1.600000e-07	-5.493435e-06	-1.507524e-09	-3.804100e+01	-9.695064e+01
1.700000e-07	-5.486982e-06	-1.495945e-09	-3.799631e+01	-9.693412e+01
1.800000e-07	-5.480134e-06	-1.473988e-09	-3.794889e+01	-9.691815e+01
1.900000e-07	-5.472992e-06	-1.454892e-09	-3.789944e+01	-9.690198e+01
2.000000e-07	-5.465562e-06	-1.480825e-09	-3.784799e+01	-9.688487e+01
2.100000e-07	-5.457791e-06	-1.486582e-09	-3.779417e+01	-9.686604e+01
2.200000e-07	-5.449763e-06	-1.487939e-09	-3.773858e+01	-9.684473e+01
2.300000e-07	-5.441533e-06	-1.488722e-09	-3.768159e+01	-9.682017e+01
2.400000e-07	-5.432830e-06	-1.481512e-09	-3.762132e+01	-9.679164e+01
2.500000e-07	-5.423329e-06	-1.468482e-09	-3.755553e+01	-9.675844e+01
2.600000e-07	-5.413220e-06	-1.465371e-09	-3.748553e+01	-9.671990e+01
2.700000e-07	-5.402638e-06	-1.475563e-09	-3.741225e+01	-9.667544e+01
2.800000e-07	-5.391514e-06	-1.481333e-09	-3.733522e+01	-9.662451e+01
2.900000e-07	-5.379967e-06	-1.484033e-09	-3.725525e+01	-9.656665e+01
3.000000e-07	-5.368063e-06	-1.469936e-09	-3.717282e+01	-9.650147e+01
3.100000e-07	-5.355718e-06	-1.469586e-09	-3.708734e+01	-9.642865e+01
3.200000e-07	-5.343004e-06	-1.456567e-09	-3.699930e+01	-9.634797e+01
3.300000e-07	-5.329984e-06	-1.469693e-09	-3.690913e+01	-9.625928e+01
3.400000e-07	-5.316535e-06	-1.455280e-09	-3.681600e+01	-9.616251e+01
3.500000e-07	-5.302610e-06	-1.453703e-09	-3.671957e+01	-9.605768e+01
3.600000e-07	-5.288200e-06	-1.470612e-09	-3.661979e+01	-9.594490e+01
3.700000e-07	-5.273329e-06	-1.481048e-09	-3.651681e+01	-9.582432e+01
3.800000e-07	-5.257899e-06	-1.436541e-09	-3.640996e+01	-9.569620e+01
3.900000e-07	-5.241862e-06	-1.438334e-09	-3.629891e+01	-9.556082e+01
4.000000e-07	-5.225408e-06	-1.473045e-09	-3.618497e+01	-9.541855e+01
4.100000e-07	-5.208587e-06	-1.453330e-09	-3.606848e+01	-9.526978e+01
4.200000e-07	-5.191400e-06	-1.418841e-09	-3.594946e+01	-9.511496e+01
4.300000e-07	-5.173994e-06	-1.463852e-09	-3.582893e+01	-9.495455e+01
4.400000e-07	-5.156359e-06	-1.466487e-09	-3.570681e+01	-9.478904e+01
4.500000e-07	-5.138273e-06	-1.408957e-09	-3.558157e+01	-9.461892e+01
4.600000e-07	-5.119659e-06	-1.425265e-09	-3.545267e+01	-9.444471e+01
4.700000e-07	-5.100651e-06	-1.470615e-09	-3.532105e+01	-9.426690e+01
4.800000e-07	-5.081348e-06	-1.417378e-09	-3.518737e+01	-9.408597e+01
4.900000e-07	-5.061760e-06	-1.401899e-09	-3.505173e+01	-9.390238e+01
5.000000e-07	-5.041940e-06	-1.460216e-09	-3.491449e+01	-9.371658e+01
5.100000e-07	-5.021949e-06	-1.436104e-09	-3.477605e+01	-9.352897e+01
5.200000e-07	-5.001695e-06	-1.385031e-09	-3.463579e+01	-9.333992e+01
5.300000e-07	-4.981142e-06	-1.432728e-09	-3.449347e+01	-9.314977e+01
5.400000e-07	-4.960225e-06	-1.446746e-09	-3.434862e+01	-9.295880e+01
5.500000e-07	-4.938914e-06	-1.385640e-09	-3.420105e+01	-9.276726e+01
5.600000e-07	-4.917214e-06	-1.408879e-09	-3.405078e+01	-9.257535e+01
5.700000e-07	-4.895171e-06	-1.448521e-09	-3.389814e+01	-9.238323e+01
5.800000e-07	-4.872751e-06	-1.394633e-09	-3.374288e+01	-9.219102e+01
5.900000e-07	-4.849970e-06	-1.371722e-09	-3.358513e+01	-9.199879e+01
6.000000e-07	-4.826879e-06	-1.419420e-09	-3.342523e+01	-9.180658e+01
6.100000e-07	-4.803505e-06	-1.396119e-09	-3.326336e+01	-9.161440e+01
6.200000e-07	-4.779923e-06	-1.363261e-09	-3.310006e+01	-9.142219e+01
6.300000e-07	-4.756063e-06	-1.397465e-09	-3.293484e+01	-9.122992e+01
6.400000e-07	-4.731924e-06	-1.404729e-09	-3.276768e+01	-9.103748e+01
6.500000e-07	-4.707492e-06	-1.360757e-09	-3.259850e+01	-9.084476e+01
6.600000e-07	-4.682629e-06	-1.371955e-09	-3.242632e+01	-9.065165e+01
6.700000e-07	-4.657232e-06	-1.387747e-09	-3.225045e+01	-9.045799e+01
6.800000e-07	-4.631266e-06	-1.358426e-09	-3.207064e+01	-9.026362e+01
6.900000e-07	-4.604737e-06	-1.350034e-09	-3.188694e+01	-9.006838e+01
7.000000e-07	-4.577817e-06	-1.378382e-09	-3.170052e+01	-8.987210e+01
7.100000e-07	-4.550545e-06	-1.368148e-09	-3.151166e+01	-8.967460e+01
7.200000e-07	-4.523049e-06	-1.352809e-09	-3.132126e+01	-8.947570e+01
7.300000e-07	-4.495356e-06	-1.363338e-09	-3.112950e+01	-8.927521e+01
7.400000e-07	-4.467452e-06	-1.358888e-09	-3.093626e+01	-8.907295e+01
7.500000e-07	-4.439415e-06	-1.333015e-09	-3.074211e+01	-8.886875e+01
7.600000e-07	-4.411072e-06	-1.335374e-09	-3.054584e+01	-8.866240e+01
7.700000e-07	-4.382345e-06	-1.342934e-09	-3.034691e+01	-8.845374e+01
7.800000e-07	-4.353244e-06	-1.330135e-09	-3.014539e+01	-8.824258e+01
7.900000e-07	-4.323827e-06	-1.326078e-09	-2.994169e+01	-8.802873e+01
8.000000e-07	-4.294186e-06	-1.333271e-09	-2.973643e+01	-8.781201e+01
8.100000e-07	-4.264311e-06	-1.321397e-09	-2.952955e+01	-8.759223e+01
8.200000e-07	-4.234165e-06	-1.307166e-09	-2.932079e+01	-8.736920e+01
8.300000e-07	-4.203606e-06	-1.307950e-09	-2.910918e+01	-8.714275e+01
8.400000e-07	-4.172744e-06	-1.300461e-09	-2.889546e+01	-8.691266e+01
8.500000e-07	-4.141653e-06	-1.291535e-09	-2.868017e+01	-8.667876e+01
8.600000e-07	-4.110271e-06	-1.294681e-09	-2.846285e+01	-8.644086e+01
8.700000e-07	-4.078746e-06	-1.292673e-09	-2.824454e+01	-8.619875e+01
8.800000e-07	-4.047061e-06	-1.277027e-09	-2.802514e+01	-8.595225e+01
8.900000e-07	-4.015159e-06	-1.273084e-09	-2.780422e+01	-8.570118e+01
9.000000e-07	-3.983053e-06	-1.270297e-09	-2.758189e+01	-8.544536e+01
9.100000e-07	-3.950657e-06	-1.260645e-09	-2.735755e+01	-8.518461e+01
9.200000e-07	-3.917763e-06	-1.257342e-09	-2.712977e+01	-8.491877e+01
9.300000e-07	-3.884516e-06	-1.260672e-09	-2.689954e+01	-8.464771e+01
9.400000e-07	-3.850961e-06	-1.251143e-09	-2.666718e+01	-8.437129e+01
9.500000e-07	-3.816810e-06	-1.242277e-09	-2.643069e+01	-8.408941e+01
9.600000e-07	-3.782171e-06	-1.239350e-09	-2.619082e+01	-8.380197e+01
9.700000e-07	-3.747134e-06	-1.233922e-09	-2.594819e+01	-8.350893e+01
9.800000e-07	-3.711780e-06	-1.225196e-09	-2.570338e+01	-8.321025e+01
9.900000e-07	-3.676313e-06	-1.224338e-09	-2.545777e+01	-8.290594e+01
1.000000e-06	-3.640705e-06	-1.218539e-09	-2.521119e+01	-8.259603e+01
1.010000e-06	-3.604919e-06	-1.207697e-09	-2.496338e+01	-8.228060e+01
1.020000e-06	-3.569006e-06	-1.203965e-09	-2.471470e+01	-8.195974e+01
1.030000e-06	-3.532900e-06	-1.206139e-09	-2.446467e+01	-8.163362e+01
1.040000e-06	-3.496552e-06	-1.200226e-09	-2.421296e+01	-8.130239e+01
1.050000e-06	-3.459891e-06	-1.192842e-09	-2.395909e+01	-8.096628e+01
1.060000e-06	-3.422872e-06	-1.186983e-09	-2.370275e+01	-8.062553e+01
1.070000e-06	-3.385645e-06	-1.176496e-09	-2.344495e+01	-8.028041e+01
1.080000e-06	-3.348254e-06	-1.166103e-09	-2.318603e+01	-7.993123e+01
1.090000e-06	-3.310652e-06	-1.162770e-09	-2.292564e+01	-7.957830e+01
1.100000e-06	-3.272782e-06	-1.158071e-09	-2.266340e+01	-7.922196e+01
1.110000e-06	-3.234681e-06	-1.149199e-09	-2.239956e+01	-7.886256e+01
1.120000e-06	-3.196342e-06	-1.143466e-09	-2.213407e+01	-7.850044e+01
1.130000e-06	-3.157771e-06	-1.138521e-09	-2.186697e+01	-7.813595e+01
1.140000e-06	-3.118996e-06	-1.130963e-09	-2.159846e+01	-7.776943e+01
1.150000e-06	-3.079895e-06	-1.124260e-09	-2.132769e+01	-7.740119e+01
1.160000e-06	-3.040555e-06	-1.118686e-09	-2.105527e+01	-7.703154e+01
1.170000e-06	-3.001113e-06	-1.106838e-09	-2.078214e+01	-7.666072e+01
1.180000e-06	-2.961575e-06	-1.097982e-09	-2.050835e+01	-7.628896e+01
1.190000e-06	-2.921935e-06	-1.096924e-09	-2.023385e+01	-7.591644e+01
1.200000e-06	-2.882150e-06	-1.097185e-09	-1.995835e+01	-7.554329e+01
1.210000e-06	-2.842225e-06	-1.092205e-09	-1.968187e+01	-7.516956e+01
1.220000e-06	-2.802236e-06	-1.087506e-09	-1.940496e+01	-7.479528e+01
1.230000e-06	-2.762090e-06	-1.081953e-09	-1.912695e+01	-7.442038e+01
1.240000e-06	-2.721633e-06	-1.073429e-09	-1.884680e+01	-7.404473e+01
1.250000e-06	-2.681030e-06	-1.065772e-09	-1.856562e+01	-7.366815e+01
1.260000e-06	-2.640194e-06	-1.062407e-09	-1.828284e+01	-7.329036e+01
1.270000e-06	-2.598984e-06	-1.058281e-09	-1.799747e+01	-7.291104e+01
1.280000e-06	-2.557450e-06	-1.052168e-09	-1.770986e+01	-7.252979e+01
1.290000e-06	-2.515585e-06	-1.045582e-09	-1.741995e+01	-7.214614e+01
1.300000e-06	-2.473374e-06	-1.039532e-09	-1.712765e+01	-7.175957e+01
1.310000e-06	-2.430840e-06	-1.032363e-09	-1.683311e+01	-7.136951e+01
1.320000e-06	-2.388104e-06	-1.027107e-09	-1.653717e+01	-7.097532e+01
1.330000e-06	-2.345166e-06	-1.022169e-09	-1.623984e+01	-7.057635e+01
1.340000e-06	-2.302003e-06	-1.015025e-09	-1.594094e+01	-7.017188e+01
1.350000e-06	-2.258715e-06	-1.008144e-09	-1.564118e+01	-6.976119e+01
1.360000e-06	-2.215322e-06	-1.003535e-09	-1.534068e+01	-6.934353e+01
1.370000e-06	-2.171720e-06	-9.968041e-10	-1.503875e+01	-6.891813e+01
1.380000e-06	-2.127982e-06	-9.853412e-10	-1.473588e+01	-6.848424e+01
1.390000e-06	-2.084174e-06	-9.719382e-10	-1.443251e+01	-6.804109e+01
1.400000e-06	-2.040313e-06	-9.612658e-10	-1.412878e+01	-6.758795e+01
1.410000e-06	-1.996352e-06	-9.523360e-10	-1.382436e+01	-6.712409e+01
1.420000e-06	-1.952287e-06	-9.436639e-10	-1.351922e+01	-6.664881e+01
1.430000e-06	-1.908132e-06	-9.363741e-10	-1.321346e+01	-6.616144e+01
1.440000e-06	-1.863843e-06	-9.289501e-10	-1.290676e+01	-6.566135e+01
1.450000e-06	-1.819427e-06	-9.203348e-10	-1.259919e+01	-6.514795e+01
1.460000e-06	-1.774858e-06	-9.088466e-10	-1.229055e+01	-6.462070e+01
1.470000e-06	-1.730193e-06	-8.939007e-10	-1.198126e+01	-6.407907e+01
1.480000e-06	-1.685444e-06	-8.796940e-10	-1.167138e+01	-6.352261e+01
1.490000e-06	-1.640446e-06	-8.684622e-10	-1.135978e+01	-6.295090e+01
1.500000e-06	-1.595248e-06	-8.584664e-10	-1.104679e+01	-6.236354e+01
1.510000e-06	-1.550016e-06	-8.499075e-10	-1.073357e+01	-6.176018e+01
1.520000e-06	-1.504772e-06	-8.413589e-10	-1.042026e+01	-6.114050e+01
1.530000e-06	-1.459455e-06	-8.314099e-10	-1.010645e+01	-6.050420e+01
1.540000e-06	-1.414006e-06	-8.163053e-10	-9.791728e+00	-5.985099e+01
1.550000e-06	-1.368424e-06	-7.993357e-10	-9.476077e+00	-5.918061e+01
1.560000e-06	-1.322750e-06	-7.832694e-10	-9.159794e+00	-5.849277e+01
1.570000e-06	-1.276966e-06	-7.688451e-10	-8.842750e+00	-5.778719e+01
1.580000e-06	-1.231122e-06	-7.564638e-10	-8.525287e+00	-5.706359e+01
1.590000e-06	-1.185268e-06	-7.455615e-10	-8.207755e+00	-5.632165e+01
1.600000e-06	-1.139315e-06	-7.358101e-10	-7.889543e+00	-5.556101e+01
1.610000e-06	-1.093225e-06	-7.281280e-10	-7.570376e+00	-5.478130e+01
1.620000e-06	-1.047072e-06	-7.206275e-10	-7.250775e+00	-5.398208e+01
1.630000e-06	-1.000857e-06	-7.123292e-10	-6.930749e+00	-5.316287e+01
1.640000e-06	-9.545994e-07	-7.009687e-10	-6.610421e+00	-5.232314e+01
1.650000e-06	-9.083294e-07	-6.853098e-10	-6.290010e+00	-5.146229e+01
1.660000e-06	-8.618861e-07	-6.682488e-10	-5.968399e+00	-5.057968e+01
1.670000e-06	-8.153460e-07	-6.509753e-10	-5.646117e+00	-4.967458e+01
1.680000e-06	-7.688341e-07	-6.357047e-10	-5.324031e+00	-4.874623e+01
1.690000e-06	-7.222017e-07	-6.223178e-10	-5.001110e+00	-4.779379e+01
1.700000e-06	-6.754890e-07	-6.084843e-10	-4.677634e+00	-4.681639e+01
1.710000e-06	-6.287643e-07	-5.942949e-10	-4.354074e+00	-4.581308e+01
1.720000e-06	-5.820131e-07	-5.796721e-10	-4.030331e+00	-4.478291e+01
1.730000e-06	-5.352300e-07	-5.629353e-10	-3.706367e+00	-4.372486e+01
1.740000e-06	-4.884022e-07	-5.434528e-10	-3.382093e+00	-4.263792e+01
1.750000e-06	-4.415649e-07	-5.242547e-10	-3.057753e+00	-4.152104e+01
1.760000e-06	-3.946393e-07	-5.049430e-10	-2.732803e+00	-4.037321e+01
1.770000e-06	-3.477265e-07	-4.851325e-10	-2.407941e+00	-3.919339e+01
1.780000e-06	-3.008893e-07	-4.667142e-10	-2.083602e+00	-3.798061e+01
1.790000e-06	-2.539872e-07	-4.503355e-10	-1.758813e+00	-3.673393e+01
1.800000e-06	-2.070246e-07	-4.340654e-10	-1.433606e+00	-3.545245e+01
1.810000e-06	-1.599741e-07	-4.163156e-10	-1.107790e+00	-3.413538e+01
1.820000e-06	-1.129238e-07	-3.987560e-10	-7.819763e-01	-3.278200e+01
1.830000e-06	-6.592289e-08	-3.788605e-10	-4.565036e-01	-3.139170e+01
1.840000e-06	-1.887981e-08	-3.588161e-10	-1.307391e-01	-2.996397e+01
1.850000e-06	2.816602e-08	-3.395175e-10	1.950444e-01	-2.849846e+01
1.860000e-06	7.524243e-08	-3.195555e-10	5.210396e-01	-2.699494e+01
1.870000e-06	1.222860e-07	-2.970118e-10	8.468072e-01	-2.545335e+01
1.880000e-06	1.692531e-07	-2.730996e-10	1.172045e+00	-2.387379e+01
1.890000e-06	2.161733e-07	-2.490900e-10	1.496959e+00	-2.225654e+01
1.900000e-06	2.631219e-07	-2.237715e-10	1.822069e+00	-2.060205e+01
1.910000e-06	3.101638e-07	-1.990771e-10	2.147826e+00	-1.891095e+01
1.920000e-06	3.571690e-07	-1.753666e-10	2.473328e+00	-1.718408e+01
1.930000e-06	4.041663e-07	-1.530116e-10	2.798775e+00	-1.542244e+01
1.940000e-06	4.510523e-07	-1.304795e-10	3.123452e+00	-1.362725e+01
1.950000e-06	4.977885e-07	-1.055980e-10	3.447091e+00	-1.179990e+01
1.960000e-06	5.445565e-07	-7.892153e-11	3.770951e+00	-9.941958e+00
1.970000e-06	5.913291e-07	-5.036074e-11	4.094842e+00	-8.055174e+00
1.980000e-06	6.381115e-07	-2.174091e-11	4.418802e+00	-6.141470e+00
1.990000e-06	6.848574e-07	4.993080e-12	4.742509e+00	-4.202920e+00
2.000000e-06	7.314357e-07	3.189274e-11	5.065054e+00	-2.241752e+00
2.010000e-06	7.779057e-07	5.952177e-11	5.386850e+00	-2.603241e-01
2.020000e-06	8.244277e-07	8.694171e-11	5.709006e+00	1.738880e+00
2.030000e-06	8.709127e-07	1.142925e-10	6.030906e+00	3.753273e+00
2.040000e-06	9.172362e-07	1.407872e-10	6.351687e+00	5.780173e+00
2.050000e-06	9.634816e-07	1.679686e-10	6.671929e+00	7.816826e+00
2.060000e-06	1.009680e-06	1.969924e-10	6.991842e+00	9.860420e+00
2.070000e-06	1.055761e-06	2.262048e-10	7.310943e+00	1.190810e+01
2.080000e-06	1.101798e-06	2.551704e-10	7.629744e+00	1.395700e+01
2.090000e-06	1.147805e-06	2.847319e-10	7.948336e+00	1.600423e+01
2.100000e-06	1.193713e-06	3.148941e-10	8.266234e+00	1.804693e+01
2.110000e-06	1.239507e-06	3.443672e-10	8.583350e+00	2.008227e+01
2.120000e-06	1.285153e-06	3.742083e-10	8.899440e+00	2.210745e+01
2.130000e-06	1.330693e-06	4.040384e-10	9.214801e+00	2.411974e+01
2.140000e-06	1.376242e-06	4.318699e-10	9.530218e+00	2.611652e+01
2.150000e-06	1.421785e-06	4.577563e-10	9.845591e+00	2.809521e+01
2.160000e-06	1.467207e-06	4.842330e-10	1.016013e+01	3.005337e+01
2.170000e-06	1.512517e-06	5.118497e-10	1.047390e+01	3.198869e+01
2.180000e-06	1.557691e-06	5.411315e-10	1.078672e+01	3.389895e+01
2.190000e-06	1.602734e-06	5.701568e-10	1.109863e+01	3.578212e+01
2.200000e-06	1.647613e-06	5.964635e-10	1.140941e+01	3.763627e+01
2.210000e-06	1.692290e-06	6.211398e-10	1.171879e+01	3.945965e+01
2.220000e-06	1.736890e-06	6.453733e-10	1.202763e+01	4.125069e+01
2.230000e-06	1.781395e-06	6.678870e-10	1.233583e+01	4.300794e+01
2.240000e-06	1.825720e-06	6.895048e-10	1.264277e+01	4.473016e+01
2.250000e-06	1.869917e-06	7.104601e-10	1.294883e+01	4.641627e+01
2.260000e-06	1.914011e-06	7.315120e-10	1.325416e+01	4.806533e+01
2.270000e-06	1.957997e-06	7.536825e-10	1.355876e+01	4.967661e+01
2.280000e-06	2.001918e-06	7.752201e-10	1.386291e+01	5.124953e+01
2.290000e-06	2.045790e-06	7.953544e-10	1.416671e+01	5.278365e+01
2.300000e-06	2.089623e-06	8.142636e-10	1.447025e+01	5.427870e+01
2.310000e-06	2.133420e-06	8.322530e-10	1.477353e+01	5.573458e+01
2.320000e-06	2.177128e-06	8.494704e-10	1.507620e+01	5.715130e+01
2.330000e-06	2.220681e-06	8.668081e-10	1.537780e+01	5.852901e+01
2.340000e-06	2.264142e-06	8.857153e-10	1.567875e+01	5.986800e+01
2.350000e-06	2.307511e-06	9.080171e-10	1.597908e+01	6.116864e+01
2.360000e-06	2.350696e-06	9.297160e-10	1.627813e+01	6.243144e+01
2.370000e-06	2.393688e-06	9.475793e-10	1.657584e+01	6.365697e+01
2.380000e-06	2.436465e-06	9.609506e-10	1.687206e+01	6.484590e+01
2.390000e-06	2.478950e-06	9.721107e-10	1.716626e+01	6.599896e+01
2.400000e-06	2.521065e-06	9.837814e-10	1.745790e+01	6.711693e+01
2.410000e-06	2.562742e-06	9.972246e-10	1.774650e+01	6.820065e+01
2.420000e-06	2.603891e-06	1.012196e-09	1.803146e+01	6.925097e+01
2.430000e-06	2.644703e-06	1.026631e-09	1.831407e+01	7.026879e+01
2.440000e-06	2.685467e-06	1.040103e-09	1.859635e+01	7.125500e+01
2.450000e-06	2.726082e-06	1.051242e-09	1.887760e+01	7.221050e+01
2.460000e-06	2.766392e-06	1.061666e-09	1.915674e+01	7.313619e+01
2.470000e-06	2.806540e-06	1.073620e-09	1.943476e+01	7.403295e+01
2.480000e-06	2.846551e-06	1.085191e-09	1.971183e+01	7.490162e+01
2.490000e-06	2.886387e-06	1.095145e-09	1.998769e+01	7.574304e+01
2.500000e-06	2.926095e-06	1.103846e-09	2.026266e+01	7.655799e+01
2.510000e-06	2.965683e-06	1.113140e-09	2.053680e+01	7.734724e+01
2.520000e-06	3.005114e-06	1.123164e-09	2.080985e+01	7.811149e+01
2.530000e-06	3.044360e-06	1.132139e-09	2.108162e+01	7.885141e+01
2.540000e-06	3.083461e-06	1.140238e-09	2.135239e+01	7.956762e+01
2.550000e-06	3.122325e-06	1.149263e-09	2.162151e+01	8.026071e+01
2.560000e-06	3.160955e-06	1.157772e-09	2.188902e+01	8.093122e+01
2.570000e-06	3.199395e-06	1.165323e-09	2.215521e+01	8.157965e+01
2.580000e-06	3.237544e-06	1.172385e-09	2.241938e+01	8.220647e+01
2.590000e-06	3.275455e-06	1.180899e-09	2.268191e+01	8.281210e+01
2.600000e-06	3.313175e-06	1.191623e-09	2.294311e+01	8.339695e+01
2.610000e-06	3.350686e-06	1.201330e-09	2.320287e+01	8.396141e+01
2.620000e-06	3.387957e-06	1.209170e-09	2.346096e+01	8.450585e+01
2.630000e-06	3.424963e-06	1.218513e-09	2.371722e+01	8.503063e+01
2.640000e-06	3.461739e-06	1.225746e-09	2.397189e+01	8.553612e+01
2.650000e-06	3.498220e-06	1.229775e-09	2.422451e+01	8.602267e+01
2.660000e-06	3.534400e-06	1.234134e-09	2.447505e+01	8.649067e+01
2.670000e-06	3.570401e-06	1.237655e-09	2.472436e+01	8.694051e+01
2.680000e-06	3.606277e-06	1.244164e-09	2.497279e+01	8.737259e+01
2.690000e-06	3.642009e-06	1.252595e-09	2.522022e+01	8.778737e+01
2.700000e-06	3.677633e-06	1.262470e-09	2.546692e+01	8.818532e+01
2.710000e-06	3.713198e-06	1.270271e-09	2.571319e+01	8.856694e+01
2.720000e-06	3.748542e-06	1.276830e-09	2.595794e+01	8.893278e+01
2.730000e-06	3.783482e-06	1.281932e-09	2.619990e+01	8.928342e+01
2.740000e-06	3.818083e-06	1.284861e-09	2.643951e+01	8.961950e+01
2.750000e-06	3.852286e-06	1.287151e-09	2.667636e+01	8.994165e+01
2.760000e-06	3.885907e-06	1.292036e-09	2.690917e+01	9.025060e+01
2.770000e-06	3.919051e-06	1.299061e-09	2.713869e+01	9.054705e+01
2.780000e-06	3.951800e-06	1.306443e-09	2.736547e+01	9.083177e+01
2.790000e-06	3.984202e-06	1.315822e-09	2.758985e+01	9.110554e+01
2.800000e-06	4.016411e-06	1.326151e-09	2.781289e+01	9.136915e+01
2.810000e-06	4.048422e-06	1.331872e-09	2.803456e+01	9.162342e+01
2.820000e-06	4.080209e-06	1.331471e-09	2.825468e+01	9.186915e+01
2.830000e-06	4.111789e-06	1.331201e-09	2.847336e+01	9.210715e+01
2.840000e-06	4.143129e-06	1.332603e-09	2.869039e+01	9.233821e+01
2.850000e-06	4.174195e-06	1.334567e-09	2.890551e+01	9.256310e+01
2.860000e-06	4.204944e-06	1.337340e-09	2.911844e+01	9.278255e+01
2.870000e-06	4.235366e-06	1.342602e-09	2.932911e+01	9.299727e+01
2.880000e-06	4.265525e-06	1.349743e-09	2.953795e+01	9.320790e+01
2.890000e-06	4.295392e-06	1.356524e-09	2.974478e+01	9.341505e+01
2.900000e-06	4.325004e-06	1.360507e-09	2.994983e+01	9.361923e+01
