# Temperatura_=_-8.2
# Concentracion g/m^3_=_1620.0
# C_Vs_to_Am_M_A/Vsm_=_65563218390.804596
# pendiente_HvsI_1/m_=_3716.3
# ordenada_HvsI_A/m_=_1297.0
# frecuencia_Hz_=_135101.70591083114

Tiempo_(s)	Campo_(V.s)	Magnetizacion_(V.s)	Campo_(kA/m)	Magnetizacion_(A/m)
0.000000e+00	-5.527099e-06	-1.189295e-09	-3.836773e+01	-7.899834e+01
1.000000e-08	-5.527187e-06	-1.185415e-09	-3.836834e+01	-7.896118e+01
2.000000e-08	-5.526972e-06	-1.183292e-09	-3.836685e+01	-7.892799e+01
3.000000e-08	-5.526440e-06	-1.184825e-09	-3.836316e+01	-7.889857e+01
4.000000e-08	-5.525441e-06	-1.187013e-09	-3.835622e+01	-7.887265e+01
5.000000e-08	-5.523864e-06	-1.185286e-09	-3.834527e+01	-7.884983e+01
6.000000e-08	-5.521768e-06	-1.175604e-09	-3.833073e+01	-7.882959e+01
7.000000e-08	-5.519096e-06	-1.168369e-09	-3.831218e+01	-7.881135e+01
8.000000e-08	-5.515790e-06	-1.199058e-09	-3.828923e+01	-7.879442e+01
9.000000e-08	-5.511999e-06	-1.240688e-09	-3.826291e+01	-7.877803e+01
1.000000e-07	-5.507750e-06	-1.238141e-09	-3.823342e+01	-7.876135e+01
1.100000e-07	-5.503249e-06	-1.169776e-09	-3.820217e+01	-7.874353e+01
1.200000e-07	-5.498615e-06	-1.134392e-09	-3.817000e+01	-7.872365e+01
1.300000e-07	-5.493673e-06	-1.151224e-09	-3.813570e+01	-7.870082e+01
1.400000e-07	-5.488356e-06	-1.215040e-09	-3.809879e+01	-7.867411e+01
1.500000e-07	-5.482663e-06	-1.181147e-09	-3.805927e+01	-7.864266e+01
1.600000e-07	-5.476565e-06	-1.162435e-09	-3.801693e+01	-7.860562e+01
1.700000e-07	-5.470073e-06	-1.166821e-09	-3.797187e+01	-7.856222e+01
1.800000e-07	-5.463163e-06	-1.223287e-09	-3.792390e+01	-7.851176e+01
1.900000e-07	-5.455857e-06	-1.185270e-09	-3.787319e+01	-7.845363e+01
2.000000e-07	-5.448269e-06	-1.142062e-09	-3.782051e+01	-7.838732e+01
2.100000e-07	-5.440473e-06	-1.164212e-09	-3.776639e+01	-7.831244e+01
2.200000e-07	-5.432491e-06	-1.225217e-09	-3.771099e+01	-7.822873e+01
2.300000e-07	-5.424153e-06	-1.221830e-09	-3.765310e+01	-7.813604e+01
2.400000e-07	-5.415314e-06	-1.169078e-09	-3.759175e+01	-7.803438e+01
2.500000e-07	-5.405798e-06	-1.172588e-09	-3.752569e+01	-7.792387e+01
2.600000e-07	-5.395532e-06	-1.177607e-09	-3.745443e+01	-7.780479e+01
2.700000e-07	-5.384638e-06	-1.179360e-09	-3.737880e+01	-7.767750e+01
2.800000e-07	-5.373294e-06	-1.147690e-09	-3.730006e+01	-7.754254e+01
2.900000e-07	-5.361652e-06	-1.168536e-09	-3.721924e+01	-7.740052e+01
3.000000e-07	-5.349622e-06	-1.163808e-09	-3.713573e+01	-7.725215e+01
3.100000e-07	-5.337130e-06	-1.166293e-09	-3.704901e+01	-7.709825e+01
3.200000e-07	-5.324209e-06	-1.137340e-09	-3.695932e+01	-7.693970e+01
3.300000e-07	-5.310943e-06	-1.160465e-09	-3.686723e+01	-7.677742e+01
3.400000e-07	-5.297301e-06	-1.150775e-09	-3.677253e+01	-7.661237e+01
3.500000e-07	-5.283197e-06	-1.155504e-09	-3.667463e+01	-7.644555e+01
3.600000e-07	-5.268636e-06	-1.142437e-09	-3.657355e+01	-7.627792e+01
3.700000e-07	-5.253649e-06	-1.162707e-09	-3.646951e+01	-7.611046e+01
3.800000e-07	-5.238112e-06	-1.145844e-09	-3.636166e+01	-7.594409e+01
3.900000e-07	-5.221975e-06	-1.143793e-09	-3.624964e+01	-7.577968e+01
4.000000e-07	-5.205517e-06	-1.137560e-09	-3.613539e+01	-7.561804e+01
4.100000e-07	-5.188768e-06	-1.141379e-09	-3.601913e+01	-7.545989e+01
4.200000e-07	-5.171596e-06	-1.134523e-09	-3.589992e+01	-7.530585e+01
4.300000e-07	-5.154128e-06	-1.135422e-09	-3.577866e+01	-7.515646e+01
4.400000e-07	-5.136420e-06	-1.138258e-09	-3.565574e+01	-7.501213e+01
4.500000e-07	-5.118374e-06	-1.137294e-09	-3.553046e+01	-7.487315e+01
4.600000e-07	-5.099784e-06	-1.139320e-09	-3.540142e+01	-7.473970e+01
4.700000e-07	-5.080695e-06	-1.128180e-09	-3.526891e+01	-7.461185e+01
4.800000e-07	-5.061339e-06	-1.126632e-09	-3.513454e+01	-7.448954e+01
4.900000e-07	-5.041787e-06	-1.134901e-09	-3.499882e+01	-7.437261e+01
5.000000e-07	-5.021991e-06	-1.141021e-09	-3.486140e+01	-7.426077e+01
5.100000e-07	-5.001941e-06	-1.118689e-09	-3.472222e+01	-7.415367e+01
5.200000e-07	-4.981637e-06	-1.123335e-09	-3.458127e+01	-7.405086e+01
5.300000e-07	-4.961036e-06	-1.135188e-09	-3.443827e+01	-7.395180e+01
5.400000e-07	-4.940066e-06	-1.134190e-09	-3.429270e+01	-7.385593e+01
5.500000e-07	-4.918694e-06	-1.116354e-09	-3.414434e+01	-7.376260e+01
5.600000e-07	-4.896977e-06	-1.125601e-09	-3.399358e+01	-7.367116e+01
5.700000e-07	-4.874854e-06	-1.115796e-09	-3.384001e+01	-7.358094e+01
5.800000e-07	-4.852357e-06	-1.109817e-09	-3.368384e+01	-7.349127e+01
5.900000e-07	-4.829571e-06	-1.116399e-09	-3.352567e+01	-7.340148e+01
6.000000e-07	-4.806521e-06	-1.126290e-09	-3.336566e+01	-7.331094e+01
6.100000e-07	-4.783185e-06	-1.105947e-09	-3.320367e+01	-7.321907e+01
6.200000e-07	-4.759572e-06	-1.109449e-09	-3.303975e+01	-7.312531e+01
6.300000e-07	-4.735668e-06	-1.113716e-09	-3.287382e+01	-7.302920e+01
6.400000e-07	-4.711445e-06	-1.103157e-09	-3.270567e+01	-7.293032e+01
6.500000e-07	-4.686851e-06	-1.092283e-09	-3.253494e+01	-7.282834e+01
6.600000e-07	-4.661841e-06	-1.110395e-09	-3.236133e+01	-7.272300e+01
6.700000e-07	-4.636382e-06	-1.108409e-09	-3.218460e+01	-7.261413e+01
6.800000e-07	-4.610405e-06	-1.097500e-09	-3.200428e+01	-7.250164e+01
6.900000e-07	-4.583908e-06	-1.098626e-09	-3.182034e+01	-7.238552e+01
7.000000e-07	-4.556905e-06	-1.101372e-09	-3.163289e+01	-7.226584e+01
7.100000e-07	-4.529494e-06	-1.085664e-09	-3.144261e+01	-7.214273e+01
7.200000e-07	-4.501835e-06	-1.084263e-09	-3.125060e+01	-7.201639e+01
7.300000e-07	-4.474069e-06	-1.091404e-09	-3.105786e+01	-7.188709e+01
7.400000e-07	-4.446155e-06	-1.085721e-09	-3.086409e+01	-7.175513e+01
7.500000e-07	-4.417978e-06	-1.079784e-09	-3.066849e+01	-7.162085e+01
7.600000e-07	-4.389498e-06	-1.081907e-09	-3.047079e+01	-7.148462e+01
7.700000e-07	-4.360741e-06	-1.078369e-09	-3.027117e+01	-7.134684e+01
7.800000e-07	-4.331639e-06	-1.069021e-09	-3.006915e+01	-7.120788e+01
7.900000e-07	-4.302183e-06	-1.072006e-09	-2.986467e+01	-7.106814e+01
8.000000e-07	-4.272469e-06	-1.071029e-09	-2.965840e+01	-7.092799e+01
8.100000e-07	-4.242485e-06	-1.063089e-09	-2.945027e+01	-7.078776e+01
8.200000e-07	-4.212238e-06	-1.055661e-09	-2.924030e+01	-7.064777e+01
8.300000e-07	-4.181687e-06	-1.057603e-09	-2.902822e+01	-7.050829e+01
8.400000e-07	-4.150778e-06	-1.052218e-09	-2.881366e+01	-7.036952e+01
8.500000e-07	-4.119531e-06	-1.053748e-09	-2.859675e+01	-7.023164e+01
8.600000e-07	-4.088074e-06	-1.053933e-09	-2.837838e+01	-7.009475e+01
8.700000e-07	-4.056478e-06	-1.050349e-09	-2.815905e+01	-6.995890e+01
8.800000e-07	-4.024679e-06	-1.040115e-09	-2.793831e+01	-6.982407e+01
8.900000e-07	-3.992691e-06	-1.038865e-09	-2.771626e+01	-6.969021e+01
9.000000e-07	-3.960506e-06	-1.034769e-09	-2.749284e+01	-6.955719e+01
9.100000e-07	-3.928051e-06	-1.031041e-09	-2.726754e+01	-6.942481e+01
9.200000e-07	-3.895291e-06	-1.028644e-09	-2.704013e+01	-6.929287e+01
9.300000e-07	-3.862006e-06	-1.033586e-09	-2.680907e+01	-6.916108e+01
9.400000e-07	-3.828204e-06	-1.031649e-09	-2.657443e+01	-6.902915e+01
9.500000e-07	-3.793982e-06	-1.030801e-09	-2.633687e+01	-6.889674e+01
9.600000e-07	-3.759332e-06	-1.027435e-09	-2.609634e+01	-6.876349e+01
9.700000e-07	-3.724314e-06	-1.022630e-09	-2.585325e+01	-6.862904e+01
9.800000e-07	-3.688989e-06	-1.015878e-09	-2.560803e+01	-6.849302e+01
9.900000e-07	-3.653431e-06	-1.012597e-09	-2.536120e+01	-6.835505e+01
1.000000e-06	-3.617678e-06	-1.006787e-09	-2.511301e+01	-6.821477e+01
1.010000e-06	-3.581814e-06	-1.002752e-09	-2.486405e+01	-6.807185e+01
1.020000e-06	-3.545843e-06	-1.001532e-09	-2.461435e+01	-6.792595e+01
1.030000e-06	-3.509743e-06	-9.995213e-10	-2.436375e+01	-6.777678e+01
1.040000e-06	-3.473458e-06	-9.954215e-10	-2.411188e+01	-6.762409e+01
1.050000e-06	-3.436882e-06	-9.917538e-10	-2.385797e+01	-6.746763e+01
1.060000e-06	-3.399989e-06	-9.922208e-10	-2.360187e+01	-6.730723e+01
1.070000e-06	-3.362847e-06	-9.916794e-10	-2.334404e+01	-6.714273e+01
1.080000e-06	-3.325466e-06	-9.905198e-10	-2.308455e+01	-6.697402e+01
1.090000e-06	-3.287834e-06	-9.859651e-10	-2.282332e+01	-6.680101e+01
1.100000e-06	-3.249960e-06	-9.805473e-10	-2.256041e+01	-6.662367e+01
1.110000e-06	-3.211834e-06	-9.726339e-10	-2.229574e+01	-6.644199e+01
1.120000e-06	-3.173555e-06	-9.664933e-10	-2.203002e+01	-6.625598e+01
1.130000e-06	-3.135083e-06	-9.622719e-10	-2.176296e+01	-6.606568e+01
1.140000e-06	-3.096327e-06	-9.602557e-10	-2.149393e+01	-6.587116e+01
1.150000e-06	-3.057340e-06	-9.613386e-10	-2.122329e+01	-6.567249e+01
1.160000e-06	-3.018144e-06	-9.619329e-10	-2.095120e+01	-6.546975e+01
1.170000e-06	-2.978809e-06	-9.559160e-10	-2.067814e+01	-6.526301e+01
1.180000e-06	-2.939341e-06	-9.539738e-10	-2.040417e+01	-6.505236e+01
1.190000e-06	-2.899744e-06	-9.513435e-10	-2.012929e+01	-6.483786e+01
1.200000e-06	-2.860049e-06	-9.464333e-10	-1.985374e+01	-6.461956e+01
1.210000e-06	-2.820199e-06	-9.381390e-10	-1.957711e+01	-6.439751e+01
1.220000e-06	-2.780161e-06	-9.366858e-10	-1.929918e+01	-6.417169e+01
1.230000e-06	-2.739939e-06	-9.355502e-10	-1.901997e+01	-6.394211e+01
1.240000e-06	-2.699471e-06	-9.347158e-10	-1.873905e+01	-6.370871e+01
1.250000e-06	-2.658691e-06	-9.322312e-10	-1.845597e+01	-6.347141e+01
1.260000e-06	-2.617668e-06	-9.300132e-10	-1.817120e+01	-6.323011e+01
1.270000e-06	-2.576410e-06	-9.229880e-10	-1.788479e+01	-6.298465e+01
1.280000e-06	-2.534888e-06	-9.150162e-10	-1.759656e+01	-6.273487e+01
1.290000e-06	-2.493092e-06	-9.099695e-10	-1.730642e+01	-6.248055e+01
1.300000e-06	-2.450972e-06	-9.062854e-10	-1.701403e+01	-6.222147e+01
1.310000e-06	-2.408628e-06	-9.011848e-10	-1.672009e+01	-6.195735e+01
1.320000e-06	-2.366046e-06	-8.985356e-10	-1.642450e+01	-6.168792e+01
1.330000e-06	-2.323108e-06	-8.946989e-10	-1.612643e+01	-6.141286e+01
1.340000e-06	-2.279878e-06	-8.874565e-10	-1.582634e+01	-6.113186e+01
1.350000e-06	-2.236510e-06	-8.820237e-10	-1.552529e+01	-6.084458e+01
1.360000e-06	-2.193039e-06	-8.784561e-10	-1.522353e+01	-6.055066e+01
1.370000e-06	-2.149424e-06	-8.733114e-10	-1.492076e+01	-6.024976e+01
1.380000e-06	-2.105683e-06	-8.671059e-10	-1.461712e+01	-5.994152e+01
1.390000e-06	-2.061888e-06	-8.607224e-10	-1.431311e+01	-5.962559e+01
1.400000e-06	-2.018023e-06	-8.528352e-10	-1.400861e+01	-5.930160e+01
1.410000e-06	-1.974073e-06	-8.451213e-10	-1.370352e+01	-5.896922e+01
1.420000e-06	-1.930049e-06	-8.371232e-10	-1.339791e+01	-5.862808e+01
1.430000e-06	-1.885936e-06	-8.321628e-10	-1.309169e+01	-5.827787e+01
1.440000e-06	-1.841764e-06	-8.259809e-10	-1.278506e+01	-5.791823e+01
1.450000e-06	-1.797466e-06	-8.210605e-10	-1.247756e+01	-5.754884e+01
1.460000e-06	-1.753003e-06	-8.108693e-10	-1.216890e+01	-5.716939e+01
1.470000e-06	-1.708427e-06	-8.017900e-10	-1.185947e+01	-5.677954e+01
1.480000e-06	-1.663809e-06	-7.939305e-10	-1.154974e+01	-5.637897e+01
1.490000e-06	-1.619052e-06	-7.835300e-10	-1.123905e+01	-5.596736e+01
1.500000e-06	-1.574062e-06	-7.713851e-10	-1.092674e+01	-5.554436e+01
1.510000e-06	-1.528936e-06	-7.620349e-10	-1.061349e+01	-5.510965e+01
1.520000e-06	-1.483750e-06	-7.543438e-10	-1.029982e+01	-5.466285e+01
1.530000e-06	-1.438419e-06	-7.486271e-10	-9.985141e+00	-5.420358e+01
1.540000e-06	-1.392953e-06	-7.409437e-10	-9.669532e+00	-5.373144e+01
1.550000e-06	-1.347411e-06	-7.324515e-10	-9.353390e+00	-5.324601e+01
1.560000e-06	-1.301806e-06	-7.225510e-10	-9.036813e+00	-5.274681e+01
1.570000e-06	-1.256203e-06	-7.133935e-10	-8.720249e+00	-5.223335e+01
1.580000e-06	-1.210516e-06	-7.056314e-10	-8.403098e+00	-5.170510e+01
1.590000e-06	-1.164670e-06	-6.963689e-10	-8.084845e+00	-5.116148e+01
1.600000e-06	-1.118742e-06	-6.887177e-10	-7.766026e+00	-5.060188e+01
1.610000e-06	-1.072725e-06	-6.840965e-10	-7.446590e+00	-5.002562e+01
1.620000e-06	-1.026629e-06	-6.787539e-10	-7.126603e+00	-4.943201e+01
1.630000e-06	-9.804452e-07	-6.714958e-10	-6.806004e+00	-4.882030e+01
1.640000e-06	-9.341653e-07	-6.614196e-10	-6.484741e+00	-4.818969e+01
1.650000e-06	-8.879128e-07	-6.480662e-10	-6.163668e+00	-4.753936e+01
1.660000e-06	-8.416600e-07	-6.333378e-10	-5.842592e+00	-4.686843e+01
1.670000e-06	-7.953724e-07	-6.182864e-10	-5.521275e+00	-4.617601e+01
1.680000e-06	-7.489661e-07	-6.055040e-10	-5.199134e+00	-4.546116e+01
1.690000e-06	-7.024152e-07	-5.942096e-10	-4.875990e+00	-4.472292e+01
1.700000e-06	-6.559104e-07	-5.819443e-10	-4.553165e+00	-4.396033e+01
1.710000e-06	-6.094156e-07	-5.696692e-10	-4.230410e+00	-4.317239e+01
1.720000e-06	-5.628043e-07	-5.568594e-10	-3.906846e+00	-4.235812e+01
1.730000e-06	-5.161701e-07	-5.414956e-10	-3.583123e+00	-4.151652e+01
1.740000e-06	-4.694738e-07	-5.265554e-10	-3.258969e+00	-4.064663e+01
1.750000e-06	-4.227059e-07	-5.121291e-10	-2.934318e+00	-3.974748e+01
1.760000e-06	-3.759638e-07	-4.994517e-10	-2.609846e+00	-3.881815e+01
1.770000e-06	-3.292198e-07	-4.870607e-10	-2.285361e+00	-3.785773e+01
1.780000e-06	-2.824200e-07	-4.737779e-10	-1.960489e+00	-3.686538e+01
1.790000e-06	-2.355418e-07	-4.587236e-10	-1.635072e+00	-3.584031e+01
1.800000e-06	-1.885978e-07	-4.430371e-10	-1.309199e+00	-3.478178e+01
1.810000e-06	-1.416184e-07	-4.266430e-10	-9.830795e-01	-3.368912e+01
1.820000e-06	-9.471636e-08	-4.100014e-10	-6.574972e-01	-3.256175e+01
1.830000e-06	-4.789366e-08	-3.938987e-10	-3.324658e-01	-3.139916e+01
1.840000e-06	-1.070342e-09	-3.789504e-10	-7.430043e-03	-3.020095e+01
1.850000e-06	4.577085e-08	-3.638176e-10	3.177297e-01	-2.896682e+01
1.860000e-06	9.258075e-08	-3.493587e-10	6.426723e-01	-2.769655e+01
1.870000e-06	1.394414e-07	-3.324735e-10	9.679671e-01	-2.639007e+01
1.880000e-06	1.863960e-07	-3.135761e-10	1.293915e+00	-2.504741e+01
1.890000e-06	2.332908e-07	-2.942333e-10	1.619446e+00	-2.366872e+01
1.900000e-06	2.800874e-07	-2.721951e-10	1.944296e+00	-2.225430e+01
1.910000e-06	3.268813e-07	-2.491699e-10	2.269128e+00	-2.080455e+01
1.920000e-06	3.737426e-07	-2.273592e-10	2.594427e+00	-1.932003e+01
1.930000e-06	4.205347e-07	-2.074531e-10	2.919246e+00	-1.780144e+01
1.940000e-06	4.671804e-07	-1.866354e-10	3.243049e+00	-1.624962e+01
1.950000e-06	5.137262e-07	-1.647496e-10	3.566158e+00	-1.466554e+01
1.960000e-06	5.602830e-07	-1.458372e-10	3.889344e+00	-1.305033e+01
1.970000e-06	6.068657e-07	-1.261191e-10	4.212709e+00	-1.140525e+01
1.980000e-06	6.534102e-07	-1.034004e-10	4.535809e+00	-9.731715e+00
1.990000e-06	6.999393e-07	-7.738219e-11	4.858803e+00	-8.031269e+00
2.000000e-06	7.464021e-07	-4.829979e-11	5.181336e+00	-6.305599e+00
2.010000e-06	7.927954e-07	-1.997949e-11	5.503386e+00	-4.556525e+00
2.020000e-06	8.391936e-07	6.569208e-12	5.825471e+00	-2.785997e+00
2.030000e-06	8.854834e-07	3.128381e-11	6.146803e+00	-9.960836e-01
2.040000e-06	9.316634e-07	5.368486e-11	6.467373e+00	8.110273e-01
2.050000e-06	9.777798e-07	7.548403e-11	6.787502e+00	2.633042e+00
2.060000e-06	1.023894e-06	1.010168e-10	7.107616e+00	4.467569e+00
2.070000e-06	1.069999e-06	1.285304e-10	7.427662e+00	6.312129e+00
2.080000e-06	1.115950e-06	1.546049e-10	7.746645e+00	8.164167e+00
2.090000e-06	1.161760e-06	1.793549e-10	8.064644e+00	1.002106e+01
2.100000e-06	1.207498e-06	2.050399e-10	8.382148e+00	1.188015e+01
2.110000e-06	1.253114e-06	2.319801e-10	8.698801e+00	1.373872e+01
2.120000e-06	1.298569e-06	2.593812e-10	9.014337e+00	1.559405e+01
2.130000e-06	1.344019e-06	2.856771e-10	9.329841e+00	1.744341e+01
2.140000e-06	1.389457e-06	3.094450e-10	9.645258e+00	1.928409e+01
2.150000e-06	1.434796e-06	3.319330e-10	9.959996e+00	2.111338e+01
2.160000e-06	1.479995e-06	3.551417e-10	1.027375e+01	2.292865e+01
2.170000e-06	1.525043e-06	3.781855e-10	1.058646e+01	2.472732e+01
2.180000e-06	1.569997e-06	4.010999e-10	1.089852e+01	2.650688e+01
2.190000e-06	1.614877e-06	4.247915e-10	1.121007e+01	2.826493e+01
2.200000e-06	1.659654e-06	4.500692e-10	1.152090e+01	2.999917e+01
2.210000e-06	1.704283e-06	4.751535e-10	1.183071e+01	3.170742e+01
2.220000e-06	1.748788e-06	5.006138e-10	1.213965e+01	3.338767e+01
2.230000e-06	1.793183e-06	5.250393e-10	1.244783e+01	3.503803e+01
2.240000e-06	1.837390e-06	5.468429e-10	1.275470e+01	3.665678e+01
2.250000e-06	1.881486e-06	5.655899e-10	1.306080e+01	3.824240e+01
2.260000e-06	1.925515e-06	5.823430e-10	1.336644e+01	3.979351e+01
2.270000e-06	1.969451e-06	5.999381e-10	1.367143e+01	4.130895e+01
2.280000e-06	2.013303e-06	6.191849e-10	1.397584e+01	4.278774e+01
2.290000e-06	2.057089e-06	6.391901e-10	1.427980e+01	4.422909e+01
2.300000e-06	2.100841e-06	6.596120e-10	1.458351e+01	4.563239e+01
2.310000e-06	2.144529e-06	6.807604e-10	1.488678e+01	4.699725e+01
2.320000e-06	2.188145e-06	6.998990e-10	1.518955e+01	4.832344e+01
2.330000e-06	2.231633e-06	7.161159e-10	1.549143e+01	4.961092e+01
2.340000e-06	2.274966e-06	7.302672e-10	1.579224e+01	5.085981e+01
2.350000e-06	2.318178e-06	7.447983e-10	1.609221e+01	5.207039e+01
2.360000e-06	2.361169e-06	7.597418e-10	1.639064e+01	5.324309e+01
2.370000e-06	2.403742e-06	7.733053e-10	1.668617e+01	5.437847e+01
2.380000e-06	2.446028e-06	7.863900e-10	1.697971e+01	5.547721e+01
2.390000e-06	2.488051e-06	8.015557e-10	1.727142e+01	5.654008e+01
2.400000e-06	2.529701e-06	8.186746e-10	1.756055e+01	5.756796e+01
2.410000e-06	2.571099e-06	8.346758e-10	1.784793e+01	5.856176e+01
2.420000e-06	2.612170e-06	8.478822e-10	1.813303e+01	5.952248e+01
2.430000e-06	2.652929e-06	8.577474e-10	1.841597e+01	6.045112e+01
2.440000e-06	2.693498e-06	8.653047e-10	1.869759e+01	6.134872e+01
2.450000e-06	2.733851e-06	8.735376e-10	1.897771e+01	6.221630e+01
2.460000e-06	2.774003e-06	8.840253e-10	1.925643e+01	6.305489e+01
2.470000e-06	2.813998e-06	8.970417e-10	1.953407e+01	6.386547e+01
2.480000e-06	2.853876e-06	9.106499e-10	1.981089e+01	6.464901e+01
2.490000e-06	2.893674e-06	9.231511e-10	2.008716e+01	6.540640e+01
2.500000e-06	2.933335e-06	9.337007e-10	2.036248e+01	6.613849e+01
2.510000e-06	2.972842e-06	9.411233e-10	2.063672e+01	6.684607e+01
2.520000e-06	3.012261e-06	9.473098e-10	2.091036e+01	6.752985e+01
2.530000e-06	3.051464e-06	9.538280e-10	2.118250e+01	6.819049e+01
2.540000e-06	3.090372e-06	9.604650e-10	2.145259e+01	6.882857e+01
2.550000e-06	3.129009e-06	9.679106e-10	2.172079e+01	6.944459e+01
2.560000e-06	3.167389e-06	9.771679e-10	2.198722e+01	7.003902e+01
2.570000e-06	3.205539e-06	9.890226e-10	2.225204e+01	7.061224e+01
2.580000e-06	3.243512e-06	1.000093e-09	2.251565e+01	7.116460e+01
2.590000e-06	3.281281e-06	1.007345e-09	2.277783e+01	7.169640e+01
2.600000e-06	3.318816e-06	1.012446e-09	2.303839e+01	7.220792e+01
2.610000e-06	3.356230e-06	1.018780e-09	2.329810e+01	7.269941e+01
2.620000e-06	3.393405e-06	1.024808e-09	2.355617e+01	7.317110e+01
2.630000e-06	3.430228e-06	1.031491e-09	2.381178e+01	7.362323e+01
2.640000e-06	3.466836e-06	1.040602e-09	2.406590e+01	7.405607e+01
2.650000e-06	3.503255e-06	1.048522e-09	2.431872e+01	7.446988e+01
2.660000e-06	3.539417e-06	1.055078e-09	2.456974e+01	7.486497e+01
2.670000e-06	3.575413e-06	1.061711e-09	2.481962e+01	7.524170e+01
2.680000e-06	3.611312e-06	1.067166e-09	2.506882e+01	7.560044e+01
2.690000e-06	3.647070e-06	1.070791e-09	2.531705e+01	7.594166e+01
2.700000e-06	3.682646e-06	1.074559e-09	2.556400e+01	7.626585e+01
2.710000e-06	3.718000e-06	1.079770e-09	2.580942e+01	7.657360e+01
2.720000e-06	3.753052e-06	1.086507e-09	2.605275e+01	7.686552e+01
2.730000e-06	3.787767e-06	1.095916e-09	2.629373e+01	7.714230e+01
2.740000e-06	3.821988e-06	1.104772e-09	2.653128e+01	7.740469e+01
2.750000e-06	3.855719e-06	1.109826e-09	2.676543e+01	7.765349e+01
2.760000e-06	3.888989e-06	1.110246e-09	2.699638e+01	7.788954e+01
2.770000e-06	3.921756e-06	1.108702e-09	2.722385e+01	7.811371e+01
2.780000e-06	3.954214e-06	1.108273e-09	2.744916e+01	7.832691e+01
2.790000e-06	3.986432e-06	1.112178e-09	2.767281e+01	7.853004e+01
2.800000e-06	4.018428e-06	1.120920e-09	2.789492e+01	7.872404e+01
2.810000e-06	4.050229e-06	1.130057e-09	2.811567e+01	7.890979e+01
2.820000e-06	4.081924e-06	1.138356e-09	2.833569e+01	7.908819e+01
2.830000e-06	4.113464e-06	1.142736e-09	2.855463e+01	7.926008e+01
2.840000e-06	4.144743e-06	1.140970e-09	2.877177e+01	7.942625e+01
2.850000e-06	4.175764e-06	1.134767e-09	2.898710e+01	7.958742e+01
2.860000e-06	4.206471e-06	1.131801e-09	2.920026e+01	7.974426e+01
2.870000e-06	4.236809e-06	1.135759e-09	2.941086e+01	7.989732e+01
2.880000e-06	4.266788e-06	1.143462e-09	2.961897e+01	8.004708e+01
2.890000e-06	4.296458e-06	1.152220e-09	2.982493e+01	8.019392e+01
2.900000e-06	4.325901e-06	1.155241e-09	3.002932e+01	8.033809e+01
