# Temperatura_=_15.0
# Concentracion g/m^3_=_1620.0
# C_Vs_to_Am_M_A/Vsm_=_65563218390.804596
# pendiente_HvsI_1/m_=_3716.3
# ordenada_HvsI_A/m_=_1297.0
# frecuencia_Hz_=_135092.98246110446

Tiempo_(s)	Campo_(V.s)	Magnetizacion_(V.s)	Campo_(kA/m)	Magnetizacion_(A/m)
0.000000e+00	-5.535471e-06	-1.626836e-09	-3.837794e+01	-1.057196e+02
1.000000e-08	-5.535534e-06	-1.624410e-09	-3.837838e+01	-1.056656e+02
2.000000e-08	-5.535412e-06	-1.621990e-09	-3.837753e+01	-1.056130e+02
3.000000e-08	-5.535040e-06	-1.618615e-09	-3.837495e+01	-1.055618e+02
4.000000e-08	-5.534255e-06	-1.614787e-09	-3.836951e+01	-1.055119e+02
5.000000e-08	-5.532911e-06	-1.608368e-09	-3.836020e+01	-1.054632e+02
6.000000e-08	-5.530928e-06	-1.595498e-09	-3.834645e+01	-1.054153e+02
7.000000e-08	-5.528213e-06	-1.593085e-09	-3.832762e+01	-1.053679e+02
8.000000e-08	-5.524915e-06	-1.617152e-09	-3.830476e+01	-1.053208e+02
9.000000e-08	-5.521210e-06	-1.665561e-09	-3.827907e+01	-1.052733e+02
1.000000e-07	-5.517127e-06	-1.688306e-09	-3.825076e+01	-1.052251e+02
1.100000e-07	-5.512756e-06	-1.656812e-09	-3.822046e+01	-1.051756e+02
1.200000e-07	-5.508133e-06	-1.525691e-09	-3.818841e+01	-1.051242e+02
1.300000e-07	-5.503335e-06	-1.556461e-09	-3.815514e+01	-1.050703e+02
1.400000e-07	-5.498155e-06	-1.624330e-09	-3.811923e+01	-1.050133e+02
1.500000e-07	-5.492470e-06	-1.669184e-09	-3.807981e+01	-1.049526e+02
1.600000e-07	-5.486370e-06	-1.578945e-09	-3.803752e+01	-1.048876e+02
1.700000e-07	-5.479929e-06	-1.564482e-09	-3.799286e+01	-1.048176e+02
1.800000e-07	-5.473049e-06	-1.637595e-09	-3.794516e+01	-1.047421e+02
1.900000e-07	-5.465714e-06	-1.627163e-09	-3.789431e+01	-1.046605e+02
2.000000e-07	-5.458073e-06	-1.556929e-09	-3.784134e+01	-1.045723e+02
2.100000e-07	-5.450242e-06	-1.544545e-09	-3.778704e+01	-1.044772e+02
2.200000e-07	-5.442089e-06	-1.634825e-09	-3.773052e+01	-1.043747e+02
2.300000e-07	-5.433617e-06	-1.644368e-09	-3.767178e+01	-1.042646e+02
2.400000e-07	-5.424841e-06	-1.601937e-09	-3.761094e+01	-1.041465e+02
2.500000e-07	-5.415459e-06	-1.551529e-09	-3.754589e+01	-1.040205e+02
2.600000e-07	-5.405385e-06	-1.586209e-09	-3.747605e+01	-1.038863e+02
2.700000e-07	-5.394617e-06	-1.578854e-09	-3.740139e+01	-1.037440e+02
2.800000e-07	-5.383257e-06	-1.570796e-09	-3.732263e+01	-1.035937e+02
2.900000e-07	-5.371515e-06	-1.545048e-09	-3.724122e+01	-1.034356e+02
3.000000e-07	-5.359453e-06	-1.577256e-09	-3.715759e+01	-1.032700e+02
3.100000e-07	-5.346987e-06	-1.565641e-09	-3.707116e+01	-1.030971e+02
3.200000e-07	-5.334110e-06	-1.559148e-09	-3.698189e+01	-1.029174e+02
3.300000e-07	-5.320850e-06	-1.526226e-09	-3.688995e+01	-1.027314e+02
3.400000e-07	-5.307269e-06	-1.551623e-09	-3.679580e+01	-1.025395e+02
3.500000e-07	-5.293271e-06	-1.556773e-09	-3.669875e+01	-1.023424e+02
3.600000e-07	-5.278858e-06	-1.550024e-09	-3.659882e+01	-1.021405e+02
3.700000e-07	-5.263812e-06	-1.524839e-09	-3.649451e+01	-1.019346e+02
3.800000e-07	-5.248143e-06	-1.554316e-09	-3.638587e+01	-1.017252e+02
3.900000e-07	-5.232077e-06	-1.545819e-09	-3.627449e+01	-1.015130e+02
4.000000e-07	-5.215574e-06	-1.510015e-09	-3.616007e+01	-1.012987e+02
4.100000e-07	-5.198692e-06	-1.536933e-09	-3.604302e+01	-1.010827e+02
4.200000e-07	-5.181469e-06	-1.570777e-09	-3.592361e+01	-1.008658e+02
4.300000e-07	-5.163896e-06	-1.525767e-09	-3.580178e+01	-1.006484e+02
4.400000e-07	-5.146021e-06	-1.498264e-09	-3.567785e+01	-1.004311e+02
4.500000e-07	-5.127831e-06	-1.565216e-09	-3.555173e+01	-1.002143e+02
4.600000e-07	-5.109186e-06	-1.538197e-09	-3.542247e+01	-9.999852e+01
4.700000e-07	-5.090207e-06	-1.474406e-09	-3.529088e+01	-9.978396e+01
4.800000e-07	-5.070885e-06	-1.510477e-09	-3.515692e+01	-9.957096e+01
4.900000e-07	-5.051213e-06	-1.557825e-09	-3.502053e+01	-9.935971e+01
5.000000e-07	-5.031332e-06	-1.482220e-09	-3.488270e+01	-9.915038e+01
5.100000e-07	-5.011265e-06	-1.487661e-09	-3.474358e+01	-9.894302e+01
5.200000e-07	-4.990981e-06	-1.538483e-09	-3.460294e+01	-9.873764e+01
5.300000e-07	-4.970318e-06	-1.504173e-09	-3.445968e+01	-9.853417e+01
5.400000e-07	-4.949138e-06	-1.462379e-09	-3.431284e+01	-9.833251e+01
5.500000e-07	-4.927644e-06	-1.524840e-09	-3.416382e+01	-9.813245e+01
5.600000e-07	-4.905868e-06	-1.497963e-09	-3.401285e+01	-9.793376e+01
5.700000e-07	-4.883684e-06	-1.441456e-09	-3.385904e+01	-9.773615e+01
5.800000e-07	-4.861092e-06	-1.479228e-09	-3.370241e+01	-9.753931e+01
5.900000e-07	-4.838202e-06	-1.513115e-09	-3.354371e+01	-9.734286e+01
6.000000e-07	-4.815141e-06	-1.450869e-09	-3.338383e+01	-9.714641e+01
6.100000e-07	-4.791750e-06	-1.460115e-09	-3.322165e+01	-9.694955e+01
6.200000e-07	-4.768049e-06	-1.493557e-09	-3.305733e+01	-9.675185e+01
6.300000e-07	-4.744134e-06	-1.459648e-09	-3.289153e+01	-9.655288e+01
6.400000e-07	-4.719981e-06	-1.438129e-09	-3.272407e+01	-9.635219e+01
6.500000e-07	-4.695572e-06	-1.469513e-09	-3.255485e+01	-9.614936e+01
6.600000e-07	-4.670749e-06	-1.452964e-09	-3.238274e+01	-9.594396e+01
6.700000e-07	-4.645390e-06	-1.432412e-09	-3.220692e+01	-9.573561e+01
6.800000e-07	-4.619471e-06	-1.452237e-09	-3.202723e+01	-9.552390e+01
6.900000e-07	-4.592914e-06	-1.447367e-09	-3.184311e+01	-9.530849e+01
7.000000e-07	-4.565758e-06	-1.420585e-09	-3.165483e+01	-9.508904e+01
7.100000e-07	-4.538305e-06	-1.428036e-09	-3.146450e+01	-9.486527e+01
7.200000e-07	-4.510674e-06	-1.434284e-09	-3.127293e+01	-9.463691e+01
7.300000e-07	-4.482796e-06	-1.414775e-09	-3.107965e+01	-9.440373e+01
7.400000e-07	-4.454781e-06	-1.417906e-09	-3.088542e+01	-9.416553e+01
7.500000e-07	-4.426624e-06	-1.418412e-09	-3.069020e+01	-9.392216e+01
7.600000e-07	-4.398199e-06	-1.401532e-09	-3.049313e+01	-9.367348e+01
7.700000e-07	-4.369496e-06	-1.389115e-09	-3.029413e+01	-9.341941e+01
7.800000e-07	-4.340397e-06	-1.394323e-09	-3.009238e+01	-9.315987e+01
7.900000e-07	-4.310910e-06	-1.380860e-09	-2.988795e+01	-9.289483e+01
8.000000e-07	-4.281191e-06	-1.379183e-09	-2.968190e+01	-9.262427e+01
8.100000e-07	-4.251257e-06	-1.382828e-09	-2.947436e+01	-9.234821e+01
8.200000e-07	-4.220947e-06	-1.376351e-09	-2.926423e+01	-9.206667e+01
8.300000e-07	-4.190274e-06	-1.358130e-09	-2.905156e+01	-9.177971e+01
8.400000e-07	-4.159422e-06	-1.362840e-09	-2.883766e+01	-9.148737e+01
8.500000e-07	-4.128338e-06	-1.360102e-09	-2.862216e+01	-9.118973e+01
8.600000e-07	-4.096990e-06	-1.349742e-09	-2.840482e+01	-9.088687e+01
8.700000e-07	-4.065391e-06	-1.341333e-09	-2.818574e+01	-9.057887e+01
8.800000e-07	-4.033573e-06	-1.341465e-09	-2.796514e+01	-9.026582e+01
8.900000e-07	-4.001593e-06	-1.326253e-09	-2.774342e+01	-8.994780e+01
9.000000e-07	-3.969401e-06	-1.321796e-09	-2.752023e+01	-8.962491e+01
9.100000e-07	-3.936905e-06	-1.324285e-09	-2.729493e+01	-8.929723e+01
9.200000e-07	-3.904067e-06	-1.320296e-09	-2.706727e+01	-8.896485e+01
9.300000e-07	-3.870887e-06	-1.310944e-09	-2.683723e+01	-8.862783e+01
9.400000e-07	-3.837261e-06	-1.312277e-09	-2.660409e+01	-8.828628e+01
9.500000e-07	-3.803055e-06	-1.305795e-09	-2.636694e+01	-8.794024e+01
9.600000e-07	-3.768387e-06	-1.292452e-09	-2.612658e+01	-8.758981e+01
9.700000e-07	-3.733401e-06	-1.287217e-09	-2.588402e+01	-8.723503e+01
9.800000e-07	-3.698022e-06	-1.282529e-09	-2.563874e+01	-8.687598e+01
9.900000e-07	-3.662342e-06	-1.269695e-09	-2.539136e+01	-8.651272e+01
1.000000e-06	-3.626521e-06	-1.259306e-09	-2.514301e+01	-8.614531e+01
1.010000e-06	-3.590604e-06	-1.257896e-09	-2.489399e+01	-8.577381e+01
1.020000e-06	-3.554600e-06	-1.250738e-09	-2.464438e+01	-8.539827e+01
1.030000e-06	-3.518406e-06	-1.243022e-09	-2.439344e+01	-8.501875e+01
1.040000e-06	-3.481945e-06	-1.239655e-09	-2.414065e+01	-8.463532e+01
1.050000e-06	-3.445271e-06	-1.235940e-09	-2.388639e+01	-8.424802e+01
1.060000e-06	-3.408387e-06	-1.223985e-09	-2.363067e+01	-8.385693e+01
1.070000e-06	-3.371253e-06	-1.217251e-09	-2.337322e+01	-8.346209e+01
1.080000e-06	-3.333897e-06	-1.208695e-09	-2.311422e+01	-8.306356e+01
1.090000e-06	-3.296261e-06	-1.199892e-09	-2.285329e+01	-8.266141e+01
1.100000e-06	-3.258356e-06	-1.193937e-09	-2.259049e+01	-8.225568e+01
1.110000e-06	-3.220217e-06	-1.193954e-09	-2.232607e+01	-8.184642e+01
1.120000e-06	-3.181801e-06	-1.184377e-09	-2.205972e+01	-8.143369e+01
1.130000e-06	-3.143165e-06	-1.174050e-09	-2.179186e+01	-8.101752e+01
1.140000e-06	-3.104455e-06	-1.167338e-09	-2.152348e+01	-8.059794e+01
1.150000e-06	-3.065557e-06	-1.162873e-09	-2.125379e+01	-8.017497e+01
1.160000e-06	-3.026342e-06	-1.151017e-09	-2.098192e+01	-7.974863e+01
1.170000e-06	-2.986897e-06	-1.142957e-09	-2.070844e+01	-7.931891e+01
1.180000e-06	-2.947296e-06	-1.137333e-09	-2.043388e+01	-7.888578e+01
1.190000e-06	-2.907611e-06	-1.132813e-09	-2.015874e+01	-7.844922e+01
1.200000e-06	-2.867853e-06	-1.128008e-09	-1.988309e+01	-7.800917e+01
1.210000e-06	-2.827961e-06	-1.124738e-09	-1.960652e+01	-7.756554e+01
1.220000e-06	-2.787882e-06	-1.116012e-09	-1.932865e+01	-7.711825e+01
1.230000e-06	-2.747630e-06	-1.107323e-09	-1.904958e+01	-7.666717e+01
1.240000e-06	-2.707189e-06	-1.101167e-09	-1.876920e+01	-7.621216e+01
1.250000e-06	-2.666591e-06	-1.093881e-09	-1.848773e+01	-7.575304e+01
1.260000e-06	-2.625810e-06	-1.084789e-09	-1.820499e+01	-7.528964e+01
1.270000e-06	-2.584791e-06	-1.075373e-09	-1.792060e+01	-7.482172e+01
1.280000e-06	-2.543463e-06	-1.066132e-09	-1.763407e+01	-7.434904e+01
1.290000e-06	-2.501774e-06	-1.056352e-09	-1.734504e+01	-7.387134e+01
1.300000e-06	-2.459703e-06	-1.048127e-09	-1.705335e+01	-7.338832e+01
1.310000e-06	-2.417396e-06	-1.040225e-09	-1.676004e+01	-7.289968e+01
1.320000e-06	-2.374908e-06	-1.033495e-09	-1.646546e+01	-7.240508e+01
1.330000e-06	-2.332091e-06	-1.024507e-09	-1.616860e+01	-7.190416e+01
1.340000e-06	-2.288970e-06	-1.015219e-09	-1.586964e+01	-7.139656e+01
1.350000e-06	-2.245654e-06	-1.006594e-09	-1.556933e+01	-7.088187e+01
1.360000e-06	-2.202178e-06	-9.990481e-10	-1.526791e+01	-7.035970e+01
1.370000e-06	-2.158544e-06	-9.901779e-10	-1.496539e+01	-6.982963e+01
1.380000e-06	-2.114840e-06	-9.811001e-10	-1.466239e+01	-6.929121e+01
1.390000e-06	-2.071061e-06	-9.696849e-10	-1.435886e+01	-6.874401e+01
1.400000e-06	-2.027177e-06	-9.609925e-10	-1.405461e+01	-6.818758e+01
1.410000e-06	-1.983228e-06	-9.532214e-10	-1.374991e+01	-6.762144e+01
1.420000e-06	-1.939183e-06	-9.441242e-10	-1.344454e+01	-6.704512e+01
1.430000e-06	-1.895021e-06	-9.354899e-10	-1.313836e+01	-6.645814e+01
1.440000e-06	-1.850830e-06	-9.262989e-10	-1.283198e+01	-6.586002e+01
1.450000e-06	-1.806500e-06	-9.131060e-10	-1.252464e+01	-6.525025e+01
1.460000e-06	-1.761968e-06	-9.010577e-10	-1.221589e+01	-6.462832e+01
1.470000e-06	-1.717371e-06	-8.895495e-10	-1.190670e+01	-6.399372e+01
1.480000e-06	-1.672742e-06	-8.777862e-10	-1.159728e+01	-6.334592e+01
1.490000e-06	-1.628028e-06	-8.642851e-10	-1.128727e+01	-6.268439e+01
1.500000e-06	-1.583144e-06	-8.514911e-10	-1.097608e+01	-6.200857e+01
1.510000e-06	-1.538043e-06	-8.407201e-10	-1.066340e+01	-6.131790e+01
1.520000e-06	-1.492813e-06	-8.311679e-10	-1.034981e+01	-6.061180e+01
1.530000e-06	-1.447467e-06	-8.202453e-10	-1.003542e+01	-5.988967e+01
1.540000e-06	-1.402014e-06	-8.096379e-10	-9.720294e+00	-5.915089e+01
1.550000e-06	-1.356438e-06	-7.967448e-10	-9.404313e+00	-5.839483e+01
1.560000e-06	-1.310784e-06	-7.834622e-10	-9.087791e+00	-5.762081e+01
1.570000e-06	-1.265024e-06	-7.696850e-10	-8.770530e+00	-5.682816e+01
1.580000e-06	-1.219149e-06	-7.553150e-10	-8.452476e+00	-5.601616e+01
1.590000e-06	-1.173269e-06	-7.405044e-10	-8.134384e+00	-5.518407e+01
1.600000e-06	-1.127305e-06	-7.249680e-10	-7.815710e+00	-5.433113e+01
1.610000e-06	-1.081293e-06	-7.115797e-10	-7.496707e+00	-5.345654e+01
1.620000e-06	-1.035217e-06	-7.030355e-10	-7.177261e+00	-5.255949e+01
1.630000e-06	-9.890093e-07	-6.967585e-10	-6.856895e+00	-5.163914e+01
1.640000e-06	-9.427177e-07	-6.845316e-10	-6.535951e+00	-5.069462e+01
1.650000e-06	-8.964009e-07	-6.665353e-10	-6.214832e+00	-4.972503e+01
1.660000e-06	-8.500239e-07	-6.460286e-10	-5.893296e+00	-4.872949e+01
1.670000e-06	-8.035687e-07	-6.247489e-10	-5.571217e+00	-4.770705e+01
1.680000e-06	-7.571381e-07	-6.026811e-10	-5.249310e+00	-4.665681e+01
1.690000e-06	-7.107018e-07	-5.858206e-10	-4.927363e+00	-4.557782e+01
1.700000e-06	-6.641778e-07	-5.718803e-10	-4.604807e+00	-4.446915e+01
1.710000e-06	-6.175363e-07	-5.588851e-10	-4.281437e+00	-4.332988e+01
1.720000e-06	-5.707640e-07	-5.446344e-10	-3.957160e+00	-4.215911e+01
1.730000e-06	-5.239056e-07	-5.276826e-10	-3.632287e+00	-4.095596e+01
1.740000e-06	-4.770847e-07	-5.055850e-10	-3.307673e+00	-3.971956e+01
1.750000e-06	-4.303084e-07	-4.796626e-10	-2.983369e+00	-3.844912e+01
1.760000e-06	-3.834903e-07	-4.535861e-10	-2.658774e+00	-3.714388e+01
1.770000e-06	-3.366323e-07	-4.305249e-10	-2.333903e+00	-3.580314e+01
1.780000e-06	-2.898038e-07	-4.116806e-10	-2.009237e+00	-3.442628e+01
1.790000e-06	-2.429643e-07	-3.948005e-10	-1.684495e+00	-3.301275e+01
1.800000e-06	-1.960690e-07	-3.781147e-10	-1.359365e+00	-3.156210e+01
1.810000e-06	-1.491146e-07	-3.607111e-10	-1.033826e+00	-3.007397e+01
1.820000e-06	-1.021836e-07	-3.408207e-10	-7.084487e-01	-2.854814e+01
1.830000e-06	-5.525523e-08	-3.185670e-10	-3.830897e-01	-2.698447e+01
1.840000e-06	-8.308124e-09	-2.969715e-10	-5.760101e-02	-2.538297e+01
1.850000e-06	3.852346e-08	-2.763209e-10	2.670868e-01	-2.374379e+01
1.860000e-06	8.539431e-08	-2.538733e-10	5.920468e-01	-2.206723e+01
1.870000e-06	1.323464e-07	-2.293208e-10	9.175699e-01	-2.035372e+01
1.880000e-06	1.792059e-07	-2.041741e-10	1.242451e+00	-1.860386e+01
1.890000e-06	2.260663e-07	-1.783178e-10	1.567339e+00	-1.681842e+01
1.900000e-06	2.729517e-07	-1.522641e-10	1.892400e+00	-1.499832e+01
1.910000e-06	3.197694e-07	-1.268197e-10	2.216992e+00	-1.314466e+01
1.920000e-06	3.666017e-07	-1.008182e-10	2.541684e+00	-1.125871e+01
1.930000e-06	4.134717e-07	-7.597692e-11	2.866638e+00	-9.341893e+00
1.940000e-06	4.603895e-07	-5.134798e-11	3.191924e+00	-7.395813e+00
1.950000e-06	5.072948e-07	-2.241908e-11	3.517123e+00	-5.422230e+00
1.960000e-06	5.541481e-07	7.676700e-12	3.841961e+00	-3.423063e+00
1.970000e-06	6.009159e-07	3.569309e-11	4.166207e+00	-1.400383e+00
1.980000e-06	6.475010e-07	6.301133e-11	4.489185e+00	6.435967e-01
1.990000e-06	6.939111e-07	9.228086e-11	4.810951e+00	2.706528e+00
2.000000e-06	7.403276e-07	1.228156e-10	5.132761e+00	4.785941e+00
2.010000e-06	7.867887e-07	1.524072e-10	5.454880e+00	6.879255e+00
2.020000e-06	8.332260e-07	1.800346e-10	5.776835e+00	8.983791e+00
2.030000e-06	8.795548e-07	2.079141e-10	6.098037e+00	1.109679e+01
2.040000e-06	9.257750e-07	2.349941e-10	6.418486e+00	1.321542e+01
2.050000e-06	9.719672e-07	2.619777e-10	6.738740e+00	1.533681e+01
2.060000e-06	1.018150e-06	2.905585e-10	7.058927e+00	1.745804e+01
2.070000e-06	1.064254e-06	3.232324e-10	7.378570e+00	1.957618e+01
2.080000e-06	1.110230e-06	3.578252e-10	7.697330e+00	2.168832e+01
2.090000e-06	1.156142e-06	3.901485e-10	8.015644e+00	2.379155e+01
2.100000e-06	1.201932e-06	4.213616e-10	8.333109e+00	2.588300e+01
2.110000e-06	1.247635e-06	4.495869e-10	8.649969e+00	2.795987e+01
2.120000e-06	1.293306e-06	4.760701e-10	8.966613e+00	3.001944e+01
2.130000e-06	1.338862e-06	5.016263e-10	9.282456e+00	3.205905e+01
2.140000e-06	1.384300e-06	5.253571e-10	9.597485e+00	3.407619e+01
2.150000e-06	1.429655e-06	5.495374e-10	9.911934e+00	3.606845e+01
2.160000e-06	1.474910e-06	5.760731e-10	1.022569e+01	3.803357e+01
2.170000e-06	1.520052e-06	6.057307e-10	1.053867e+01	3.996944e+01
2.180000e-06	1.565063e-06	6.352972e-10	1.085073e+01	4.187411e+01
2.190000e-06	1.610049e-06	6.639827e-10	1.116262e+01	4.374581e+01
2.200000e-06	1.654933e-06	6.913949e-10	1.147381e+01	4.558295e+01
2.210000e-06	1.699618e-06	7.152075e-10	1.178361e+01	4.738413e+01
2.220000e-06	1.744211e-06	7.376767e-10	1.209278e+01	4.914813e+01
2.230000e-06	1.788658e-06	7.616478e-10	1.240093e+01	5.087394e+01
2.240000e-06	1.832995e-06	7.847558e-10	1.270833e+01	5.256074e+01
2.250000e-06	1.877246e-06	8.049005e-10	1.301512e+01	5.420792e+01
2.260000e-06	1.921355e-06	8.238992e-10	1.332093e+01	5.581503e+01
2.270000e-06	1.965416e-06	8.441726e-10	1.362642e+01	5.738184e+01
2.280000e-06	2.009399e-06	8.679542e-10	1.393135e+01	5.890826e+01
2.290000e-06	2.053266e-06	8.907097e-10	1.423548e+01	6.039440e+01
2.300000e-06	2.097098e-06	9.111708e-10	1.453938e+01	6.184053e+01
2.310000e-06	2.140890e-06	9.318120e-10	1.484299e+01	6.324704e+01
2.320000e-06	2.184629e-06	9.490128e-10	1.514624e+01	6.461447e+01
2.330000e-06	2.228197e-06	9.622162e-10	1.544830e+01	6.594349e+01
2.340000e-06	2.271581e-06	9.763302e-10	1.574909e+01	6.723486e+01
2.350000e-06	2.314839e-06	9.945638e-10	1.604900e+01	6.848943e+01
2.360000e-06	2.357843e-06	1.014634e-09	1.634715e+01	6.970812e+01
2.370000e-06	2.400580e-06	1.033345e-09	1.664345e+01	7.089193e+01
2.380000e-06	2.442995e-06	1.049822e-09	1.693752e+01	7.204186e+01
2.390000e-06	2.485073e-06	1.064281e-09	1.722925e+01	7.315898e+01
2.400000e-06	2.526845e-06	1.077372e-09	1.751886e+01	7.424433e+01
2.410000e-06	2.568252e-06	1.089622e-09	1.780593e+01	7.529897e+01
2.420000e-06	2.609290e-06	1.100986e-09	1.809045e+01	7.632393e+01
2.430000e-06	2.650056e-06	1.111115e-09	1.837309e+01	7.732022e+01
2.440000e-06	2.690669e-06	1.122281e-09	1.865466e+01	7.828880e+01
2.450000e-06	2.731240e-06	1.135421e-09	1.893594e+01	7.923059e+01
2.460000e-06	2.771588e-06	1.149396e-09	1.921568e+01	8.014644e+01
2.470000e-06	2.811675e-06	1.163736e-09	1.949361e+01	8.103714e+01
2.480000e-06	2.851643e-06	1.176992e-09	1.977071e+01	8.190342e+01
2.490000e-06	2.891485e-06	1.188986e-09	2.004694e+01	8.274593e+01
2.500000e-06	2.931231e-06	1.199587e-09	2.032250e+01	8.356525e+01
2.510000e-06	2.970837e-06	1.208786e-09	2.059710e+01	8.436190e+01
2.520000e-06	3.010184e-06	1.216942e-09	2.086989e+01	8.513631e+01
2.530000e-06	3.049389e-06	1.224692e-09	2.114170e+01	8.588887e+01
2.540000e-06	3.088414e-06	1.234546e-09	2.141226e+01	8.661989e+01
2.550000e-06	3.127088e-06	1.245818e-09	2.168039e+01	8.732966e+01
2.560000e-06	3.165542e-06	1.256924e-09	2.194700e+01	8.801839e+01
2.570000e-06	3.203936e-06	1.268075e-09	2.221319e+01	8.868628e+01
2.580000e-06	3.242183e-06	1.278175e-09	2.247836e+01	8.933350e+01
2.590000e-06	3.280160e-06	1.288655e-09	2.274166e+01	8.996021e+01
2.600000e-06	3.317895e-06	1.299098e-09	2.300328e+01	9.056654e+01
2.610000e-06	3.355295e-06	1.307932e-09	2.326258e+01	9.115266e+01
2.620000e-06	3.392456e-06	1.313957e-09	2.352022e+01	9.171872e+01
2.630000e-06	3.429461e-06	1.318580e-09	2.377678e+01	9.226493e+01
2.640000e-06	3.466213e-06	1.325735e-09	2.403158e+01	9.279151e+01
2.650000e-06	3.502716e-06	1.334567e-09	2.428466e+01	9.329872e+01
2.660000e-06	3.538995e-06	1.343426e-09	2.453618e+01	9.378688e+01
2.670000e-06	3.575001e-06	1.352282e-09	2.478582e+01	9.425634e+01
2.680000e-06	3.610872e-06	1.361551e-09	2.503452e+01	9.470754e+01
2.690000e-06	3.646636e-06	1.367037e-09	2.528247e+01	9.514095e+01
2.700000e-06	3.682221e-06	1.369885e-09	2.552918e+01	9.555712e+01
2.710000e-06	3.717640e-06	1.373056e-09	2.577475e+01	9.595664e+01
2.720000e-06	3.752816e-06	1.378733e-09	2.601863e+01	9.634018e+01
2.730000e-06	3.787699e-06	1.386934e-09	2.626047e+01	9.670845e+01
2.740000e-06	3.822055e-06	1.395563e-09	2.649867e+01	9.706222e+01
2.750000e-06	3.855883e-06	1.403003e-09	2.673320e+01	9.740229e+01
2.760000e-06	3.889334e-06	1.406383e-09	2.696512e+01	9.772951e+01
2.770000e-06	3.922298e-06	1.407995e-09	2.719366e+01	9.804474e+01
2.780000e-06	3.954860e-06	1.411261e-09	2.741941e+01	9.834889e+01
2.790000e-06	3.987171e-06	1.417678e-09	2.764343e+01	9.864285e+01
2.800000e-06	4.019243e-06	1.428034e-09	2.786579e+01	9.892752e+01
2.810000e-06	4.051099e-06	1.437274e-09	2.808665e+01	9.920378e+01
2.820000e-06	4.082812e-06	1.442995e-09	2.830652e+01	9.947248e+01
2.830000e-06	4.114401e-06	1.447703e-09	2.852553e+01	9.973446e+01
2.840000e-06	4.145769e-06	1.449961e-09	2.874301e+01	9.999050e+01
2.850000e-06	4.176788e-06	1.446411e-09	2.895806e+01	1.002413e+02
2.860000e-06	4.207489e-06	1.441398e-09	2.917092e+01	1.004876e+02
2.870000e-06	4.237833e-06	1.444184e-09	2.938129e+01	1.007299e+02
2.880000e-06	4.267897e-06	1.452778e-09	2.958973e+01	1.009687e+02
2.890000e-06	4.297703e-06	1.463839e-09	2.979638e+01	1.012046e+02
2.900000e-06	4.327242e-06	1.473417e-09	3.000118e+01	1.014378e+02
