# Temperatura_=_2.46
# Concentracion g/m^3_=_1620.0
# C_Vs_to_Am_M_A/Vsm_=_65563218390.804596
# pendiente_HvsI_1/m_=_3716.3
# ordenada_HvsI_A/m_=_1297.0
# frecuencia_Hz_=_135100.4677803873

Tiempo_(s)	Campo_(V.s)	Magnetizacion_(V.s)	Campo_(kA/m)	Magnetizacion_(A/m)
0.000000e+00	-5.530395e-06	-1.447643e-09	-3.837847e+01	-9.381720e+01
1.000000e-08	-5.530444e-06	-1.447370e-09	-3.837881e+01	-9.377648e+01
2.000000e-08	-5.530199e-06	-1.448923e-09	-3.837712e+01	-9.373925e+01
3.000000e-08	-5.529450e-06	-1.449583e-09	-3.837192e+01	-9.370559e+01
4.000000e-08	-5.528134e-06	-1.449042e-09	-3.836278e+01	-9.367550e+01
5.000000e-08	-5.526327e-06	-1.447947e-09	-3.835025e+01	-9.364887e+01
6.000000e-08	-5.523944e-06	-1.458537e-09	-3.833371e+01	-9.362554e+01
7.000000e-08	-5.520993e-06	-1.477328e-09	-3.831323e+01	-9.360526e+01
8.000000e-08	-5.517542e-06	-1.467136e-09	-3.828928e+01	-9.358770e+01
9.000000e-08	-5.513699e-06	-1.412825e-09	-3.826261e+01	-9.357244e+01
1.000000e-07	-5.509516e-06	-1.409633e-09	-3.823359e+01	-9.355903e+01
1.100000e-07	-5.505017e-06	-1.444620e-09	-3.820236e+01	-9.354693e+01
1.200000e-07	-5.500264e-06	-1.467769e-09	-3.816938e+01	-9.353555e+01
1.300000e-07	-5.495158e-06	-1.434904e-09	-3.813394e+01	-9.352427e+01
1.400000e-07	-5.489702e-06	-1.429918e-09	-3.809608e+01	-9.351242e+01
1.500000e-07	-5.483901e-06	-1.475293e-09	-3.805583e+01	-9.349932e+01
1.600000e-07	-5.477695e-06	-1.468923e-09	-3.801276e+01	-9.348427e+01
1.700000e-07	-5.471142e-06	-1.421354e-09	-3.796728e+01	-9.346657e+01
1.800000e-07	-5.464188e-06	-1.411398e-09	-3.791903e+01	-9.344553e+01
1.900000e-07	-5.456817e-06	-1.443851e-09	-3.786788e+01	-9.342049e+01
2.000000e-07	-5.449130e-06	-1.466319e-09	-3.781453e+01	-9.339082e+01
2.100000e-07	-5.441194e-06	-1.465669e-09	-3.775946e+01	-9.335591e+01
2.200000e-07	-5.433027e-06	-1.466755e-09	-3.770279e+01	-9.331523e+01
2.300000e-07	-5.424515e-06	-1.464908e-09	-3.764371e+01	-9.326829e+01
2.400000e-07	-5.415489e-06	-1.442379e-09	-3.758108e+01	-9.321467e+01
2.500000e-07	-5.405795e-06	-1.436454e-09	-3.751381e+01	-9.315403e+01
2.600000e-07	-5.395428e-06	-1.445587e-09	-3.744186e+01	-9.308609e+01
2.700000e-07	-5.384490e-06	-1.454388e-09	-3.736596e+01	-9.301067e+01
2.800000e-07	-5.373066e-06	-1.440329e-09	-3.728668e+01	-9.292764e+01
2.900000e-07	-5.361261e-06	-1.429602e-09	-3.720476e+01	-9.283697e+01
3.000000e-07	-5.349107e-06	-1.426318e-09	-3.712042e+01	-9.273870e+01
3.100000e-07	-5.336461e-06	-1.437994e-09	-3.703266e+01	-9.263295e+01
3.200000e-07	-5.323345e-06	-1.436569e-09	-3.694164e+01	-9.251992e+01
3.300000e-07	-5.309899e-06	-1.429617e-09	-3.684833e+01	-9.239984e+01
3.400000e-07	-5.296168e-06	-1.430395e-09	-3.675304e+01	-9.227305e+01
3.500000e-07	-5.282049e-06	-1.444481e-09	-3.665506e+01	-9.213989e+01
3.600000e-07	-5.267320e-06	-1.429085e-09	-3.655285e+01	-9.200079e+01
3.700000e-07	-5.252078e-06	-1.405613e-09	-3.644708e+01	-9.185618e+01
3.800000e-07	-5.236424e-06	-1.415590e-09	-3.633844e+01	-9.170654e+01
3.900000e-07	-5.220335e-06	-1.425470e-09	-3.622680e+01	-9.155236e+01
4.000000e-07	-5.203899e-06	-1.400421e-09	-3.611274e+01	-9.139413e+01
4.100000e-07	-5.187088e-06	-1.395316e-09	-3.599607e+01	-9.123236e+01
4.200000e-07	-5.169832e-06	-1.426022e-09	-3.587633e+01	-9.106753e+01
4.300000e-07	-5.152249e-06	-1.414295e-09	-3.575431e+01	-9.090014e+01
4.400000e-07	-5.134389e-06	-1.385500e-09	-3.563037e+01	-9.073062e+01
4.500000e-07	-5.116116e-06	-1.398667e-09	-3.550356e+01	-9.055941e+01
4.600000e-07	-5.097369e-06	-1.411793e-09	-3.537346e+01	-9.038690e+01
4.700000e-07	-5.078275e-06	-1.386513e-09	-3.524096e+01	-9.021343e+01
4.800000e-07	-5.058951e-06	-1.381482e-09	-3.510686e+01	-9.003934e+01
4.900000e-07	-5.039376e-06	-1.392965e-09	-3.497102e+01	-8.986488e+01
5.000000e-07	-5.019523e-06	-1.382366e-09	-3.483325e+01	-8.969027e+01
5.100000e-07	-4.999404e-06	-1.377671e-09	-3.469363e+01	-8.951570e+01
5.200000e-07	-4.978985e-06	-1.395362e-09	-3.455193e+01	-8.934131e+01
5.300000e-07	-4.958217e-06	-1.388135e-09	-3.440781e+01	-8.916717e+01
5.400000e-07	-4.937098e-06	-1.371108e-09	-3.426126e+01	-8.899335e+01
5.500000e-07	-4.915641e-06	-1.378137e-09	-3.411235e+01	-8.881986e+01
5.600000e-07	-4.893803e-06	-1.378243e-09	-3.396081e+01	-8.864666e+01
5.700000e-07	-4.871601e-06	-1.358311e-09	-3.380674e+01	-8.847373e+01
5.800000e-07	-4.849012e-06	-1.354505e-09	-3.364998e+01	-8.830097e+01
5.900000e-07	-4.826071e-06	-1.360243e-09	-3.349078e+01	-8.812830e+01
6.000000e-07	-4.802851e-06	-1.353331e-09	-3.332964e+01	-8.795559e+01
6.100000e-07	-4.779340e-06	-1.346274e-09	-3.316649e+01	-8.778273e+01
6.200000e-07	-4.755611e-06	-1.349200e-09	-3.300182e+01	-8.760958e+01
6.300000e-07	-4.731645e-06	-1.351404e-09	-3.283551e+01	-8.743601e+01
6.400000e-07	-4.707375e-06	-1.345088e-09	-3.266708e+01	-8.726187e+01
6.500000e-07	-4.682668e-06	-1.336643e-09	-3.249563e+01	-8.708705e+01
6.600000e-07	-4.657518e-06	-1.333024e-09	-3.232109e+01	-8.691141e+01
6.700000e-07	-4.631903e-06	-1.327783e-09	-3.214334e+01	-8.673483e+01
6.800000e-07	-4.605683e-06	-1.318699e-09	-3.196139e+01	-8.655721e+01
6.900000e-07	-4.578930e-06	-1.316616e-09	-3.177573e+01	-8.637844e+01
7.000000e-07	-4.551793e-06	-1.320459e-09	-3.158741e+01	-8.619843e+01
7.100000e-07	-4.524333e-06	-1.318762e-09	-3.139685e+01	-8.601711e+01
7.200000e-07	-4.496652e-06	-1.314895e-09	-3.120476e+01	-8.583439e+01
7.300000e-07	-4.468853e-06	-1.314847e-09	-3.101185e+01	-8.565022e+01
7.400000e-07	-4.440887e-06	-1.308190e-09	-3.081778e+01	-8.546454e+01
7.500000e-07	-4.412603e-06	-1.298451e-09	-3.062149e+01	-8.527728e+01
7.600000e-07	-4.383989e-06	-1.295694e-09	-3.042292e+01	-8.508840e+01
7.700000e-07	-4.355159e-06	-1.296125e-09	-3.022286e+01	-8.489783e+01
7.800000e-07	-4.326035e-06	-1.292359e-09	-3.002075e+01	-8.470552e+01
7.900000e-07	-4.296564e-06	-1.289205e-09	-2.981624e+01	-8.451140e+01
8.000000e-07	-4.266807e-06	-1.286155e-09	-2.960974e+01	-8.431540e+01
8.100000e-07	-4.236803e-06	-1.277851e-09	-2.940152e+01	-8.411743e+01
8.200000e-07	-4.206520e-06	-1.266887e-09	-2.919137e+01	-8.391740e+01
8.300000e-07	-4.175898e-06	-1.263701e-09	-2.897887e+01	-8.371520e+01
8.400000e-07	-4.144919e-06	-1.266379e-09	-2.876389e+01	-8.351072e+01
8.500000e-07	-4.113697e-06	-1.267239e-09	-2.854722e+01	-8.330383e+01
8.600000e-07	-4.082256e-06	-1.264414e-09	-2.832904e+01	-8.309439e+01
8.700000e-07	-4.050606e-06	-1.258725e-09	-2.810940e+01	-8.288225e+01
8.800000e-07	-4.018826e-06	-1.248336e-09	-2.788886e+01	-8.266725e+01
8.900000e-07	-3.986851e-06	-1.236685e-09	-2.766697e+01	-8.244923e+01
9.000000e-07	-3.954559e-06	-1.230686e-09	-2.744287e+01	-8.222802e+01
9.100000e-07	-3.921913e-06	-1.228671e-09	-2.721633e+01	-8.200346e+01
9.200000e-07	-3.888911e-06	-1.227680e-09	-2.698731e+01	-8.177536e+01
9.300000e-07	-3.855462e-06	-1.228991e-09	-2.675518e+01	-8.154359e+01
9.400000e-07	-3.821557e-06	-1.230425e-09	-2.651990e+01	-8.130798e+01
9.500000e-07	-3.787219e-06	-1.228105e-09	-2.628161e+01	-8.106841e+01
9.600000e-07	-3.752470e-06	-1.221710e-09	-2.604047e+01	-8.082474e+01
9.700000e-07	-3.717370e-06	-1.212172e-09	-2.579689e+01	-8.057687e+01
9.800000e-07	-3.682036e-06	-1.200390e-09	-2.555168e+01	-8.032473e+01
9.900000e-07	-3.646547e-06	-1.188192e-09	-2.530541e+01	-8.006826e+01
1.000000e-06	-3.610875e-06	-1.180151e-09	-2.505786e+01	-7.980742e+01
1.010000e-06	-3.574989e-06	-1.178001e-09	-2.480883e+01	-7.954221e+01
1.020000e-06	-3.538951e-06	-1.178708e-09	-2.455874e+01	-7.927265e+01
1.030000e-06	-3.502800e-06	-1.178914e-09	-2.430787e+01	-7.899880e+01
1.040000e-06	-3.466394e-06	-1.176951e-09	-2.405523e+01	-7.872071e+01
1.050000e-06	-3.429661e-06	-1.170836e-09	-2.380032e+01	-7.843850e+01
1.060000e-06	-3.392687e-06	-1.162401e-09	-2.354374e+01	-7.815229e+01
1.070000e-06	-3.355471e-06	-1.153132e-09	-2.328547e+01	-7.786220e+01
1.080000e-06	-3.317980e-06	-1.143879e-09	-2.302530e+01	-7.756839e+01
1.090000e-06	-3.280264e-06	-1.136458e-09	-2.276357e+01	-7.727104e+01
1.100000e-06	-3.242343e-06	-1.132760e-09	-2.250041e+01	-7.697029e+01
1.110000e-06	-3.204217e-06	-1.130109e-09	-2.223583e+01	-7.666634e+01
1.120000e-06	-3.165889e-06	-1.127547e-09	-2.196986e+01	-7.635933e+01
1.130000e-06	-3.127341e-06	-1.124595e-09	-2.170235e+01	-7.604943e+01
1.140000e-06	-3.088489e-06	-1.120562e-09	-2.143273e+01	-7.573678e+01
1.150000e-06	-3.049427e-06	-1.114789e-09	-2.116166e+01	-7.542148e+01
1.160000e-06	-3.010256e-06	-1.107756e-09	-2.088983e+01	-7.510363e+01
1.170000e-06	-2.970873e-06	-1.100198e-09	-2.061653e+01	-7.478330e+01
1.180000e-06	-2.931279e-06	-1.094735e-09	-2.034177e+01	-7.446049e+01
1.190000e-06	-2.891589e-06	-1.092350e-09	-2.006634e+01	-7.413521e+01
1.200000e-06	-2.851831e-06	-1.089846e-09	-1.979043e+01	-7.380737e+01
1.210000e-06	-2.811948e-06	-1.084825e-09	-1.951366e+01	-7.347690e+01
1.220000e-06	-2.771860e-06	-1.078703e-09	-1.923547e+01	-7.314362e+01
1.230000e-06	-2.731576e-06	-1.074294e-09	-1.895592e+01	-7.280735e+01
1.240000e-06	-2.691102e-06	-1.068876e-09	-1.867505e+01	-7.246784e+01
1.250000e-06	-2.650427e-06	-1.062577e-09	-1.839278e+01	-7.212480e+01
1.260000e-06	-2.609513e-06	-1.057071e-09	-1.810886e+01	-7.177791e+01
1.270000e-06	-2.568342e-06	-1.051029e-09	-1.782315e+01	-7.142678e+01
1.280000e-06	-2.526829e-06	-1.042571e-09	-1.753507e+01	-7.107102e+01
1.290000e-06	-2.484949e-06	-1.033764e-09	-1.724444e+01	-7.071017e+01
1.300000e-06	-2.442801e-06	-1.025684e-09	-1.695195e+01	-7.034378e+01
1.310000e-06	-2.400402e-06	-1.016533e-09	-1.665772e+01	-6.997135e+01
1.320000e-06	-2.357780e-06	-1.009330e-09	-1.636194e+01	-6.959237e+01
1.330000e-06	-2.314875e-06	-1.004439e-09	-1.606420e+01	-6.920635e+01
1.340000e-06	-2.271660e-06	-1.002092e-09	-1.576431e+01	-6.881274e+01
1.350000e-06	-2.228203e-06	-1.001159e-09	-1.546273e+01	-6.841104e+01
1.360000e-06	-2.184611e-06	-9.973901e-10	-1.516022e+01	-6.800075e+01
1.370000e-06	-2.140893e-06	-9.888796e-10	-1.485684e+01	-6.758136e+01
1.380000e-06	-2.097113e-06	-9.763364e-10	-1.455303e+01	-6.715240e+01
1.390000e-06	-2.053330e-06	-9.638021e-10	-1.424919e+01	-6.671341e+01
1.400000e-06	-2.009521e-06	-9.530653e-10	-1.394518e+01	-6.626396e+01
1.410000e-06	-1.965636e-06	-9.448906e-10	-1.364064e+01	-6.580365e+01
1.420000e-06	-1.921643e-06	-9.401816e-10	-1.333535e+01	-6.533210e+01
1.430000e-06	-1.877542e-06	-9.386631e-10	-1.302930e+01	-6.484898e+01
1.440000e-06	-1.833351e-06	-9.341082e-10	-1.272264e+01	-6.435396e+01
1.450000e-06	-1.789072e-06	-9.254627e-10	-1.241536e+01	-6.384675e+01
1.460000e-06	-1.744653e-06	-9.131947e-10	-1.210711e+01	-6.332709e+01
1.470000e-06	-1.700051e-06	-8.976263e-10	-1.179759e+01	-6.279473e+01
1.480000e-06	-1.655333e-06	-8.805389e-10	-1.148728e+01	-6.224944e+01
1.490000e-06	-1.610464e-06	-8.628795e-10	-1.117590e+01	-6.169100e+01
1.500000e-06	-1.565435e-06	-8.486542e-10	-1.086342e+01	-6.111920e+01
1.510000e-06	-1.520319e-06	-8.408239e-10	-1.055033e+01	-6.053381e+01
1.520000e-06	-1.475031e-06	-8.348758e-10	-1.023606e+01	-5.993462e+01
1.530000e-06	-1.429606e-06	-8.274239e-10	-9.920830e+00	-5.932136e+01
1.540000e-06	-1.384160e-06	-8.180387e-10	-9.605451e+00	-5.869377e+01
1.550000e-06	-1.338686e-06	-8.054276e-10	-9.289883e+00	-5.805154e+01
1.560000e-06	-1.293053e-06	-7.918866e-10	-8.973214e+00	-5.739433e+01
1.570000e-06	-1.247324e-06	-7.783429e-10	-8.655872e+00	-5.672174e+01
1.580000e-06	-1.201554e-06	-7.632450e-10	-8.338246e+00	-5.603333e+01
1.590000e-06	-1.155690e-06	-7.486299e-10	-8.019974e+00	-5.532859e+01
1.600000e-06	-1.109702e-06	-7.389625e-10	-7.700838e+00	-5.460696e+01
1.610000e-06	-1.063649e-06	-7.298263e-10	-7.381248e+00	-5.386780e+01
1.620000e-06	-1.017554e-06	-7.190007e-10	-7.061372e+00	-5.311041e+01
1.630000e-06	-9.713299e-07	-7.100581e-10	-6.740596e+00	-5.233403e+01
1.640000e-06	-9.250939e-07	-6.994664e-10	-6.419739e+00	-5.153780e+01
1.650000e-06	-8.788464e-07	-6.868391e-10	-6.098802e+00	-5.072084e+01
1.660000e-06	-8.325516e-07	-6.727535e-10	-5.777537e+00	-4.988216e+01
1.670000e-06	-7.862317e-07	-6.575890e-10	-5.456097e+00	-4.902074e+01
1.680000e-06	-7.397621e-07	-6.413121e-10	-5.133619e+00	-4.813551e+01
1.690000e-06	-6.931506e-07	-6.230308e-10	-4.810156e+00	-4.722535e+01
1.700000e-06	-6.465370e-07	-6.056423e-10	-4.486678e+00	-4.628909e+01
1.710000e-06	-5.999215e-07	-5.904112e-10	-4.163187e+00	-4.532558e+01
1.720000e-06	-5.532599e-07	-5.762940e-10	-3.839377e+00	-4.433361e+01
1.730000e-06	-5.065288e-07	-5.611095e-10	-3.515084e+00	-4.331200e+01
1.740000e-06	-4.597040e-07	-5.456119e-10	-3.190141e+00	-4.225958e+01
1.750000e-06	-4.128339e-07	-5.292932e-10	-2.864883e+00	-4.117520e+01
1.760000e-06	-3.660029e-07	-5.105080e-10	-2.539897e+00	-4.005775e+01
1.770000e-06	-3.192004e-07	-4.900881e-10	-2.215108e+00	-3.890620e+01
1.780000e-06	-2.723135e-07	-4.706888e-10	-1.889734e+00	-3.771957e+01
1.790000e-06	-2.253233e-07	-4.533770e-10	-1.563643e+00	-3.649696e+01
1.800000e-06	-1.783347e-07	-4.358640e-10	-1.237563e+00	-3.523760e+01
1.810000e-06	-1.313612e-07	-4.194173e-10	-9.115878e-01	-3.394080e+01
1.820000e-06	-8.448487e-08	-4.019563e-10	-5.862873e-01	-3.260601e+01
1.830000e-06	-3.761737e-08	-3.828667e-10	-2.610477e-01	-3.123284e+01
1.840000e-06	9.345445e-09	-3.644641e-10	6.485322e-02	-2.982100e+01
1.850000e-06	5.628354e-08	-3.458679e-10	3.905827e-01	-2.837040e+01
1.860000e-06	1.032520e-07	-3.246154e-10	7.165225e-01	-2.688109e+01
1.870000e-06	1.502389e-07	-3.026148e-10	1.042591e+00	-2.535331e+01
1.880000e-06	1.971665e-07	-2.819631e-10	1.368248e+00	-2.378746e+01
1.890000e-06	2.440173e-07	-2.587641e-10	1.693371e+00	-2.218414e+01
1.900000e-06	2.908383e-07	-2.337246e-10	2.018288e+00	-2.054410e+01
1.910000e-06	3.376648e-07	-2.089829e-10	2.343243e+00	-1.886831e+01
1.920000e-06	3.844700e-07	-1.857410e-10	2.668050e+00	-1.715789e+01
1.930000e-06	4.312399e-07	-1.639327e-10	2.992612e+00	-1.541415e+01
1.940000e-06	4.780123e-07	-1.403635e-10	3.317192e+00	-1.363857e+01
1.950000e-06	5.246918e-07	-1.158298e-10	3.641127e+00	-1.183280e+01
1.960000e-06	5.712999e-07	-9.087465e-11	3.964567e+00	-9.998621e+00
1.970000e-06	6.179401e-07	-6.650302e-11	4.288228e+00	-8.137998e+00
1.980000e-06	6.645157e-07	-4.098334e-11	4.611442e+00	-6.253012e+00
1.990000e-06	7.109789e-07	-1.054167e-11	4.933876e+00	-4.345875e+00
2.000000e-06	7.572756e-07	2.181593e-11	5.255155e+00	-2.418911e+00
2.010000e-06	8.034666e-07	5.415957e-11	5.575699e+00	-4.745453e-01
2.020000e-06	8.497655e-07	8.095473e-11	5.896993e+00	1.484713e+00
2.030000e-06	8.961228e-07	1.024482e-10	6.218693e+00	3.456282e+00
2.040000e-06	9.423303e-07	1.218891e-10	6.539352e+00	5.437525e+00
2.050000e-06	9.884874e-07	1.445069e-10	6.859661e+00	7.425763e+00
2.060000e-06	1.034648e-06	1.736384e-10	7.179993e+00	9.418294e+00
2.070000e-06	1.080691e-06	2.067099e-10	7.499512e+00	1.141240e+01
2.080000e-06	1.126593e-06	2.392273e-10	7.818052e+00	1.340538e+01
2.090000e-06	1.172459e-06	2.701215e-10	8.136341e+00	1.539454e+01
2.100000e-06	1.218316e-06	2.991917e-10	8.454568e+00	1.737723e+01
2.110000e-06	1.264016e-06	3.246495e-10	8.771706e+00	1.935084e+01
2.120000e-06	1.309611e-06	3.490082e-10	9.088113e+00	2.131283e+01
2.130000e-06	1.355238e-06	3.744258e-10	9.404744e+00	2.326072e+01
2.140000e-06	1.400737e-06	3.984971e-10	9.720490e+00	2.519215e+01
2.150000e-06	1.446010e-06	4.232757e-10	1.003466e+01	2.710481e+01
2.160000e-06	1.491216e-06	4.506290e-10	1.034837e+01	2.899654e+01
2.170000e-06	1.536366e-06	4.772395e-10	1.066169e+01	3.086527e+01
2.180000e-06	1.581391e-06	5.025267e-10	1.097415e+01	3.270906e+01
2.190000e-06	1.626262e-06	5.297642e-10	1.128553e+01	3.452611e+01
2.200000e-06	1.671022e-06	5.589017e-10	1.159615e+01	3.631475e+01
2.210000e-06	1.715619e-06	5.857513e-10	1.190563e+01	3.807345e+01
2.220000e-06	1.760055e-06	6.101007e-10	1.221400e+01	3.980084e+01
2.230000e-06	1.804409e-06	6.307490e-10	1.252179e+01	4.149566e+01
2.240000e-06	1.848596e-06	6.484041e-10	1.282843e+01	4.315685e+01
2.250000e-06	1.892633e-06	6.660752e-10	1.313403e+01	4.478347e+01
2.260000e-06	1.936598e-06	6.863312e-10	1.343913e+01	4.637472e+01
2.270000e-06	1.980507e-06	7.089537e-10	1.374384e+01	4.792997e+01
2.280000e-06	2.024324e-06	7.322757e-10	1.404790e+01	4.944872e+01
2.290000e-06	2.068072e-06	7.541190e-10	1.435150e+01	5.093060e+01
2.300000e-06	2.111820e-06	7.744369e-10	1.465509e+01	5.237539e+01
2.310000e-06	2.155501e-06	7.942323e-10	1.495822e+01	5.378300e+01
2.320000e-06	2.199118e-06	8.121913e-10	1.526089e+01	5.515344e+01
2.330000e-06	2.242623e-06	8.283591e-10	1.556280e+01	5.648686e+01
2.340000e-06	2.285898e-06	8.456301e-10	1.586311e+01	5.778350e+01
2.350000e-06	2.329016e-06	8.639228e-10	1.616233e+01	5.904370e+01
2.360000e-06	2.371896e-06	8.826638e-10	1.645990e+01	6.026789e+01
2.370000e-06	2.414521e-06	9.002222e-10	1.675570e+01	6.145657e+01
2.380000e-06	2.456929e-06	9.156217e-10	1.704999e+01	6.261034e+01
2.390000e-06	2.498982e-06	9.313341e-10	1.734182e+01	6.372982e+01
2.400000e-06	2.540702e-06	9.477421e-10	1.763134e+01	6.481571e+01
2.410000e-06	2.582070e-06	9.642073e-10	1.791842e+01	6.586874e+01
2.420000e-06	2.623144e-06	9.768850e-10	1.820345e+01	6.688966e+01
2.430000e-06	2.664047e-06	9.874255e-10	1.848729e+01	6.787928e+01
2.440000e-06	2.704677e-06	9.985470e-10	1.876925e+01	6.883838e+01
2.450000e-06	2.745058e-06	1.008474e-09	1.904948e+01	6.976777e+01
2.460000e-06	2.785290e-06	1.022124e-09	1.932867e+01	7.066825e+01
2.470000e-06	2.825294e-06	1.035752e-09	1.960628e+01	7.154063e+01
2.480000e-06	2.865087e-06	1.047089e-09	1.988242e+01	7.238569e+01
2.490000e-06	2.904808e-06	1.058071e-09	2.015807e+01	7.320419e+01
2.500000e-06	2.944432e-06	1.068752e-09	2.043304e+01	7.399687e+01
2.510000e-06	2.983900e-06	1.080077e-09	2.070693e+01	7.476445e+01
2.520000e-06	3.023202e-06	1.091716e-09	2.097967e+01	7.550762e+01
2.530000e-06	3.062304e-06	1.102392e-09	2.125102e+01	7.622704e+01
2.540000e-06	3.101133e-06	1.110180e-09	2.152048e+01	7.692333e+01
2.550000e-06	3.139729e-06	1.115882e-09	2.178832e+01	7.759710e+01
2.560000e-06	3.178170e-06	1.121085e-09	2.205508e+01	7.824890e+01
2.570000e-06	3.216435e-06	1.128534e-09	2.232063e+01	7.887928e+01
2.580000e-06	3.254457e-06	1.137651e-09	2.258448e+01	7.948877e+01
2.590000e-06	3.292206e-06	1.148627e-09	2.284644e+01	8.007784e+01
2.600000e-06	3.329778e-06	1.160014e-09	2.310717e+01	8.064700e+01
2.610000e-06	3.367139e-06	1.169479e-09	2.336644e+01	8.119668e+01
2.620000e-06	3.404185e-06	1.176653e-09	2.362352e+01	8.172737e+01
2.630000e-06	3.440957e-06	1.182400e-09	2.387870e+01	8.223949e+01
2.640000e-06	3.477476e-06	1.186739e-09	2.413213e+01	8.273351e+01
2.650000e-06	3.513733e-06	1.190982e-09	2.438374e+01	8.320986e+01
2.660000e-06	3.549777e-06	1.196737e-09	2.463387e+01	8.366903e+01
2.670000e-06	3.585671e-06	1.206327e-09	2.488296e+01	8.411146e+01
2.680000e-06	3.621488e-06	1.216707e-09	2.513151e+01	8.453765e+01
2.690000e-06	3.657166e-06	1.225656e-09	2.537910e+01	8.494809e+01
2.700000e-06	3.692687e-06	1.231575e-09	2.562560e+01	8.534330e+01
2.710000e-06	3.728054e-06	1.236204e-09	2.587103e+01	8.572382e+01
2.720000e-06	3.763178e-06	1.241580e-09	2.611478e+01	8.609021e+01
2.730000e-06	3.798002e-06	1.247942e-09	2.635644e+01	8.644303e+01
2.740000e-06	3.832341e-06	1.255262e-09	2.659473e+01	8.678288e+01
2.750000e-06	3.866066e-06	1.259413e-09	2.682877e+01	8.711037e+01
2.760000e-06	3.899353e-06	1.263469e-09	2.705977e+01	8.742612e+01
2.770000e-06	3.932239e-06	1.265546e-09	2.728799e+01	8.773075e+01
2.780000e-06	3.964705e-06	1.270017e-09	2.751328e+01	8.802491e+01
2.790000e-06	3.996871e-06	1.278800e-09	2.773650e+01	8.830921e+01
2.800000e-06	4.028808e-06	1.285633e-09	2.795813e+01	8.858430e+01
2.810000e-06	4.060614e-06	1.289373e-09	2.817885e+01	8.885078e+01
2.820000e-06	4.092311e-06	1.293400e-09	2.839881e+01	8.910927e+01
2.830000e-06	4.123787e-06	1.300128e-09	2.861724e+01	8.936033e+01
2.840000e-06	4.154947e-06	1.303267e-09	2.883348e+01	8.960451e+01
2.850000e-06	4.185789e-06	1.302893e-09	2.904751e+01	8.984233e+01
2.860000e-06	4.216355e-06	1.302564e-09	2.925962e+01	9.007427e+01
2.870000e-06	4.246635e-06	1.304364e-09	2.946975e+01	9.030075e+01
2.880000e-06	4.276586e-06	1.307383e-09	2.967760e+01	9.052215e+01
2.890000e-06	4.306252e-06	1.311650e-09	2.988347e+01	9.073880e+01
2.900000e-06	4.335620e-06	1.314613e-09	3.008727e+01	9.095098e+01
