# Temperatura_=_14.3
# Concentracion g/m^3_=_1620.0
# C_Vs_to_Am_M_A/Vsm_=_65563218390.804596
# pendiente_HvsI_1/m_=_3716.3
# ordenada_HvsI_A/m_=_1297.0
# frecuencia_Hz_=_135094.29590255852

Tiempo_(s)	Campo_(V.s)	Magnetizacion_(V.s)	Campo_(kA/m)	Magnetizacion_(A/m)
0.000000e+00	-5.525780e-06	-1.612792e-09	-3.836643e+01	-1.061258e+02
1.000000e-08	-5.525830e-06	-1.609756e-09	-3.836678e+01	-1.060447e+02
2.000000e-08	-5.525625e-06	-1.607243e-09	-3.836535e+01	-1.059662e+02
3.000000e-08	-5.525090e-06	-1.605349e-09	-3.836163e+01	-1.058909e+02
4.000000e-08	-5.523953e-06	-1.604151e-09	-3.835374e+01	-1.058194e+02
5.000000e-08	-5.522215e-06	-1.600884e-09	-3.834167e+01	-1.057522e+02
6.000000e-08	-5.519936e-06	-1.599648e-09	-3.832585e+01	-1.056896e+02
7.000000e-08	-5.517134e-06	-1.594734e-09	-3.830639e+01	-1.056318e+02
8.000000e-08	-5.513781e-06	-1.597042e-09	-3.828311e+01	-1.055792e+02
9.000000e-08	-5.510025e-06	-1.629639e-09	-3.825703e+01	-1.055315e+02
1.000000e-07	-5.505961e-06	-1.625712e-09	-3.822882e+01	-1.054889e+02
1.100000e-07	-5.501562e-06	-1.553549e-09	-3.819828e+01	-1.054509e+02
1.200000e-07	-5.497009e-06	-1.544200e-09	-3.816667e+01	-1.054172e+02
1.300000e-07	-5.492123e-06	-1.591919e-09	-3.813274e+01	-1.053873e+02
1.400000e-07	-5.486679e-06	-1.625846e-09	-3.809494e+01	-1.053607e+02
1.500000e-07	-5.480821e-06	-1.571147e-09	-3.805427e+01	-1.053365e+02
1.600000e-07	-5.474620e-06	-1.548888e-09	-3.801121e+01	-1.053139e+02
1.700000e-07	-5.467983e-06	-1.631386e-09	-3.796513e+01	-1.052921e+02
1.800000e-07	-5.460905e-06	-1.656811e-09	-3.791599e+01	-1.052700e+02
1.900000e-07	-5.453499e-06	-1.593142e-09	-3.786457e+01	-1.052466e+02
2.000000e-07	-5.445862e-06	-1.537702e-09	-3.781154e+01	-1.052209e+02
2.100000e-07	-5.438014e-06	-1.608871e-09	-3.775705e+01	-1.051917e+02
2.200000e-07	-5.429888e-06	-1.660382e-09	-3.770063e+01	-1.051580e+02
2.300000e-07	-5.421485e-06	-1.637828e-09	-3.764229e+01	-1.051187e+02
2.400000e-07	-5.412655e-06	-1.582907e-09	-3.758098e+01	-1.050727e+02
2.500000e-07	-5.403047e-06	-1.613705e-09	-3.751427e+01	-1.050192e+02
2.600000e-07	-5.392666e-06	-1.623672e-09	-3.744219e+01	-1.049571e+02
2.700000e-07	-5.381774e-06	-1.598306e-09	-3.736657e+01	-1.048858e+02
2.800000e-07	-5.370419e-06	-1.578858e-09	-3.728773e+01	-1.048045e+02
2.900000e-07	-5.358703e-06	-1.605097e-09	-3.720638e+01	-1.047125e+02
3.000000e-07	-5.346690e-06	-1.611442e-09	-3.712297e+01	-1.046095e+02
3.100000e-07	-5.334186e-06	-1.584450e-09	-3.703615e+01	-1.044952e+02
3.200000e-07	-5.321115e-06	-1.580297e-09	-3.694540e+01	-1.043692e+02
3.300000e-07	-5.307748e-06	-1.598132e-09	-3.685259e+01	-1.042316e+02
3.400000e-07	-5.294136e-06	-1.610340e-09	-3.675808e+01	-1.040824e+02
3.500000e-07	-5.280031e-06	-1.574754e-09	-3.666015e+01	-1.039218e+02
3.600000e-07	-5.265495e-06	-1.566612e-09	-3.655923e+01	-1.037503e+02
3.700000e-07	-5.250519e-06	-1.591958e-09	-3.645524e+01	-1.035682e+02
3.800000e-07	-5.235102e-06	-1.596907e-09	-3.634820e+01	-1.033761e+02
3.900000e-07	-5.219040e-06	-1.552098e-09	-3.623668e+01	-1.031747e+02
4.000000e-07	-5.202445e-06	-1.564046e-09	-3.612145e+01	-1.029649e+02
4.100000e-07	-5.185595e-06	-1.590196e-09	-3.600446e+01	-1.027473e+02
4.200000e-07	-5.168455e-06	-1.556438e-09	-3.588546e+01	-1.025229e+02
4.300000e-07	-5.151102e-06	-1.528065e-09	-3.576497e+01	-1.022927e+02
4.400000e-07	-5.133385e-06	-1.582673e-09	-3.564196e+01	-1.020576e+02
4.500000e-07	-5.115097e-06	-1.568012e-09	-3.551498e+01	-1.018186e+02
4.600000e-07	-5.096326e-06	-1.507377e-09	-3.538466e+01	-1.015765e+02
4.700000e-07	-5.077346e-06	-1.528405e-09	-3.525287e+01	-1.013324e+02
4.800000e-07	-5.058110e-06	-1.569955e-09	-3.511932e+01	-1.010871e+02
4.900000e-07	-5.038506e-06	-1.515705e-09	-3.498320e+01	-1.008414e+02
5.000000e-07	-5.018661e-06	-1.514695e-09	-3.484541e+01	-1.005961e+02
5.100000e-07	-4.998602e-06	-1.557436e-09	-3.470614e+01	-1.003518e+02
5.200000e-07	-4.978196e-06	-1.524415e-09	-3.456446e+01	-1.001092e+02
5.300000e-07	-4.957370e-06	-1.497637e-09	-3.441986e+01	-9.986870e+01
5.400000e-07	-4.936247e-06	-1.552264e-09	-3.427320e+01	-9.963070e+01
5.500000e-07	-4.914794e-06	-1.531320e-09	-3.412424e+01	-9.939547e+01
5.600000e-07	-4.892969e-06	-1.471869e-09	-3.397271e+01	-9.916319e+01
5.700000e-07	-4.870837e-06	-1.509755e-09	-3.381905e+01	-9.893392e+01
5.800000e-07	-4.848381e-06	-1.535265e-09	-3.366313e+01	-9.870763e+01
5.900000e-07	-4.825545e-06	-1.483272e-09	-3.350457e+01	-9.848419e+01
6.000000e-07	-4.802451e-06	-1.490225e-09	-3.334423e+01	-9.826337e+01
6.100000e-07	-4.779053e-06	-1.523921e-09	-3.318177e+01	-9.804487e+01
6.200000e-07	-4.755296e-06	-1.480832e-09	-3.301682e+01	-9.782832e+01
6.300000e-07	-4.731336e-06	-1.465782e-09	-3.285047e+01	-9.761326e+01
6.400000e-07	-4.707079e-06	-1.498003e-09	-3.268205e+01	-9.739921e+01
6.500000e-07	-4.682459e-06	-1.479959e-09	-3.251111e+01	-9.718565e+01
6.600000e-07	-4.657478e-06	-1.457238e-09	-3.233766e+01	-9.697200e+01
6.700000e-07	-4.631986e-06	-1.488264e-09	-3.216067e+01	-9.675768e+01
6.800000e-07	-4.605899e-06	-1.480258e-09	-3.197954e+01	-9.654213e+01
6.900000e-07	-4.579238e-06	-1.454533e-09	-3.179442e+01	-9.632476e+01
7.000000e-07	-4.552060e-06	-1.466778e-09	-3.160572e+01	-9.610500e+01
7.100000e-07	-4.524600e-06	-1.467960e-09	-3.141506e+01	-9.588233e+01
7.200000e-07	-4.496964e-06	-1.437415e-09	-3.122318e+01	-9.565624e+01
7.300000e-07	-4.469185e-06	-1.447814e-09	-3.103031e+01	-9.542627e+01
7.400000e-07	-4.441182e-06	-1.458566e-09	-3.083588e+01	-9.519199e+01
7.500000e-07	-4.412938e-06	-1.437747e-09	-3.063978e+01	-9.495305e+01
7.600000e-07	-4.384480e-06	-1.429085e-09	-3.044218e+01	-9.470912e+01
7.700000e-07	-4.355704e-06	-1.441201e-09	-3.024239e+01	-9.445996e+01
7.800000e-07	-4.326600e-06	-1.422381e-09	-3.004032e+01	-9.420535e+01
7.900000e-07	-4.297169e-06	-1.410389e-09	-2.983597e+01	-9.394514e+01
8.000000e-07	-4.267385e-06	-1.420053e-09	-2.962918e+01	-9.367924e+01
8.100000e-07	-4.237280e-06	-1.413640e-09	-2.942015e+01	-9.340760e+01
8.200000e-07	-4.206966e-06	-1.396673e-09	-2.920968e+01	-9.313021e+01
8.300000e-07	-4.176436e-06	-1.405480e-09	-2.899770e+01	-9.284712e+01
8.400000e-07	-4.145503e-06	-1.407781e-09	-2.878293e+01	-9.255838e+01
8.500000e-07	-4.114280e-06	-1.392404e-09	-2.856614e+01	-9.226411e+01
8.600000e-07	-4.082939e-06	-1.389279e-09	-2.834854e+01	-9.196442e+01
8.700000e-07	-4.051404e-06	-1.387928e-09	-2.812959e+01	-9.165946e+01
8.800000e-07	-4.019664e-06	-1.371042e-09	-2.790921e+01	-9.134937e+01
8.900000e-07	-3.987735e-06	-1.364655e-09	-2.768752e+01	-9.103431e+01
9.000000e-07	-3.955572e-06	-1.373018e-09	-2.746420e+01	-9.071444e+01
9.100000e-07	-3.923119e-06	-1.366278e-09	-2.723888e+01	-9.038991e+01
9.200000e-07	-3.890286e-06	-1.357033e-09	-2.701091e+01	-9.006087e+01
9.300000e-07	-3.857095e-06	-1.359424e-09	-2.678047e+01	-8.972744e+01
9.400000e-07	-3.823430e-06	-1.354327e-09	-2.654672e+01	-8.938974e+01
9.500000e-07	-3.789122e-06	-1.336768e-09	-2.630852e+01	-8.904786e+01
9.600000e-07	-3.754369e-06	-1.330779e-09	-2.606722e+01	-8.870190e+01
9.700000e-07	-3.719238e-06	-1.326359e-09	-2.582330e+01	-8.835190e+01
9.800000e-07	-3.683813e-06	-1.315793e-09	-2.557733e+01	-8.799790e+01
9.900000e-07	-3.648185e-06	-1.308048e-09	-2.532997e+01	-8.763993e+01
1.000000e-06	-3.612407e-06	-1.307822e-09	-2.508155e+01	-8.727799e+01
1.010000e-06	-3.576576e-06	-1.300380e-09	-2.483278e+01	-8.691207e+01
1.020000e-06	-3.540634e-06	-1.295224e-09	-2.458322e+01	-8.654213e+01
1.030000e-06	-3.504553e-06	-1.294402e-09	-2.433271e+01	-8.616815e+01
1.040000e-06	-3.468236e-06	-1.287902e-09	-2.408055e+01	-8.579007e+01
1.050000e-06	-3.431602e-06	-1.272091e-09	-2.382619e+01	-8.540783e+01
1.060000e-06	-3.394676e-06	-1.263523e-09	-2.356981e+01	-8.502138e+01
1.070000e-06	-3.357537e-06	-1.256156e-09	-2.331195e+01	-8.463066e+01
1.080000e-06	-3.320153e-06	-1.246030e-09	-2.305239e+01	-8.423558e+01
1.090000e-06	-3.282512e-06	-1.238609e-09	-2.279104e+01	-8.383611e+01
1.100000e-06	-3.244684e-06	-1.235454e-09	-2.252839e+01	-8.343216e+01
1.110000e-06	-3.206622e-06	-1.227193e-09	-2.226412e+01	-8.302369e+01
1.120000e-06	-3.168242e-06	-1.220401e-09	-2.199764e+01	-8.261064e+01
1.130000e-06	-3.129574e-06	-1.215222e-09	-2.172916e+01	-8.219294e+01
1.140000e-06	-3.090773e-06	-1.207647e-09	-2.145976e+01	-8.177056e+01
1.150000e-06	-3.051868e-06	-1.200483e-09	-2.118964e+01	-8.134344e+01
1.160000e-06	-3.012763e-06	-1.193832e-09	-2.091813e+01	-8.091153e+01
1.170000e-06	-2.973443e-06	-1.184085e-09	-2.064512e+01	-8.047478e+01
1.180000e-06	-2.933920e-06	-1.176213e-09	-2.037070e+01	-8.003312e+01
1.190000e-06	-2.894245e-06	-1.174361e-09	-2.009523e+01	-7.958650e+01
1.200000e-06	-2.854464e-06	-1.170541e-09	-1.981903e+01	-7.913483e+01
1.210000e-06	-2.814553e-06	-1.163471e-09	-1.954192e+01	-7.867805e+01
1.220000e-06	-2.774514e-06	-1.156793e-09	-1.926392e+01	-7.821604e+01
1.230000e-06	-2.734301e-06	-1.150934e-09	-1.898472e+01	-7.774870e+01
1.240000e-06	-2.693907e-06	-1.139388e-09	-1.870426e+01	-7.727590e+01
1.250000e-06	-2.653292e-06	-1.128921e-09	-1.842226e+01	-7.679749e+01
1.260000e-06	-2.612521e-06	-1.120567e-09	-1.813917e+01	-7.631329e+01
1.270000e-06	-2.571544e-06	-1.111583e-09	-1.785467e+01	-7.582313e+01
1.280000e-06	-2.530168e-06	-1.102141e-09	-1.756739e+01	-7.532680e+01
1.290000e-06	-2.488475e-06	-1.095433e-09	-1.727790e+01	-7.482406e+01
1.300000e-06	-2.446504e-06	-1.087836e-09	-1.698649e+01	-7.431466e+01
1.310000e-06	-2.404153e-06	-1.079084e-09	-1.669244e+01	-7.379835e+01
1.320000e-06	-2.361482e-06	-1.070861e-09	-1.639617e+01	-7.327484e+01
1.330000e-06	-2.318575e-06	-1.062376e-09	-1.609826e+01	-7.274383e+01
1.340000e-06	-2.275409e-06	-1.053798e-09	-1.579855e+01	-7.220502e+01
1.350000e-06	-2.232052e-06	-1.047922e-09	-1.549751e+01	-7.165807e+01
1.360000e-06	-2.188538e-06	-1.038863e-09	-1.519539e+01	-7.110268e+01
1.370000e-06	-2.144883e-06	-1.026956e-09	-1.489229e+01	-7.053851e+01
1.380000e-06	-2.101165e-06	-1.013756e-09	-1.458874e+01	-6.996523e+01
1.390000e-06	-2.057384e-06	-1.002978e-09	-1.428477e+01	-6.938251e+01
1.400000e-06	-2.013514e-06	-9.930786e-10	-1.398017e+01	-6.879003e+01
1.410000e-06	-1.969544e-06	-9.826960e-10	-1.367488e+01	-6.818745e+01
1.420000e-06	-1.925465e-06	-9.722635e-10	-1.336883e+01	-6.757447e+01
1.430000e-06	-1.881343e-06	-9.646279e-10	-1.306248e+01	-6.695078e+01
1.440000e-06	-1.837215e-06	-9.567729e-10	-1.275609e+01	-6.631607e+01
1.450000e-06	-1.792980e-06	-9.462626e-10	-1.244896e+01	-6.567003e+01
1.460000e-06	-1.748585e-06	-9.327352e-10	-1.214072e+01	-6.501239e+01
1.470000e-06	-1.704105e-06	-9.177557e-10	-1.183189e+01	-6.434284e+01
1.480000e-06	-1.659505e-06	-9.043928e-10	-1.152222e+01	-6.366109e+01
1.490000e-06	-1.614582e-06	-8.899627e-10	-1.121031e+01	-6.296684e+01
1.500000e-06	-1.569528e-06	-8.740965e-10	-1.089750e+01	-6.225978e+01
1.510000e-06	-1.524460e-06	-8.624393e-10	-1.058459e+01	-6.153958e+01
1.520000e-06	-1.479184e-06	-8.542502e-10	-1.027023e+01	-6.080590e+01
1.530000e-06	-1.433755e-06	-8.423751e-10	-9.954807e+00	-6.005836e+01
1.540000e-06	-1.388301e-06	-8.258643e-10	-9.639210e+00	-5.929655e+01
1.550000e-06	-1.342772e-06	-8.060323e-10	-9.323091e+00	-5.852005e+01
1.560000e-06	-1.297136e-06	-7.898452e-10	-9.006232e+00	-5.772834e+01
1.570000e-06	-1.251462e-06	-7.770605e-10	-8.689115e+00	-5.692091e+01
1.580000e-06	-1.205717e-06	-7.650718e-10	-8.371495e+00	-5.609714e+01
1.590000e-06	-1.159880e-06	-7.537204e-10	-8.053244e+00	-5.525639e+01
1.600000e-06	-1.113942e-06	-7.429379e-10	-7.734287e+00	-5.439794e+01
1.610000e-06	-1.067966e-06	-7.312490e-10	-7.415068e+00	-5.352100e+01
1.620000e-06	-1.021947e-06	-7.196396e-10	-7.095550e+00	-5.262472e+01
1.630000e-06	-9.758131e-07	-7.086218e-10	-6.775236e+00	-5.170817e+01
1.640000e-06	-9.295602e-07	-6.954836e-10	-6.454094e+00	-5.077037e+01
1.650000e-06	-8.831956e-07	-6.786517e-10	-6.132176e+00	-4.981027e+01
1.660000e-06	-8.368791e-07	-6.611227e-10	-5.810594e+00	-4.882675e+01
1.670000e-06	-7.905721e-07	-6.406475e-10	-5.489076e+00	-4.781864e+01
1.680000e-06	-7.441641e-07	-6.195164e-10	-5.166857e+00	-4.678473e+01
1.690000e-06	-6.976812e-07	-6.004013e-10	-4.844119e+00	-4.572377e+01
1.700000e-06	-6.511442e-07	-5.838399e-10	-4.521004e+00	-4.463446e+01
1.710000e-06	-6.046525e-07	-5.696008e-10	-4.198205e+00	-4.351553e+01
1.720000e-06	-5.581613e-07	-5.556260e-10	-3.875408e+00	-4.236566e+01
1.730000e-06	-5.115454e-07	-5.388291e-10	-3.551747e+00	-4.118357e+01
1.740000e-06	-4.647541e-07	-5.175524e-10	-3.226867e+00	-3.996801e+01
1.750000e-06	-4.179254e-07	-4.936684e-10	-2.901727e+00	-3.871774e+01
1.760000e-06	-3.711548e-07	-4.697957e-10	-2.576990e+00	-3.743162e+01
1.770000e-06	-3.243133e-07	-4.489089e-10	-2.251762e+00	-3.610855e+01
1.780000e-06	-2.773656e-07	-4.309158e-10	-1.925796e+00	-3.474756e+01
1.790000e-06	-2.304249e-07	-4.136209e-10	-1.599879e+00	-3.334775e+01
1.800000e-06	-1.834952e-07	-3.955756e-10	-1.274038e+00	-3.190838e+01
1.810000e-06	-1.366273e-07	-3.757838e-10	-9.486265e-01	-3.042882e+01
1.820000e-06	-8.983318e-08	-3.548314e-10	-6.237270e-01	-2.890861e+01
1.830000e-06	-4.295686e-08	-3.314866e-10	-2.982567e-01	-2.734747e+01
1.840000e-06	3.957850e-09	-3.046633e-10	2.748003e-02	-2.574526e+01
1.850000e-06	5.083346e-08	-2.779750e-10	3.529453e-01	-2.410207e+01
1.860000e-06	9.775018e-08	-2.535848e-10	6.786960e-01	-2.241817e+01
1.870000e-06	1.446393e-07	-2.314877e-10	1.004256e+00	-2.069403e+01
1.880000e-06	1.914508e-07	-2.089185e-10	1.329275e+00	-1.893033e+01
1.890000e-06	2.382811e-07	-1.861534e-10	1.654426e+00	-1.712795e+01
1.900000e-06	2.851324e-07	-1.611842e-10	1.979722e+00	-1.528801e+01
1.910000e-06	3.319969e-07	-1.334348e-10	2.305111e+00	-1.341181e+01
1.920000e-06	3.787950e-07	-1.044862e-10	2.630037e+00	-1.150084e+01
1.930000e-06	4.255229e-07	-7.643378e-11	2.954478e+00	-9.556833e+00
1.940000e-06	4.722061e-07	-4.919172e-11	3.278607e+00	-7.581664e+00
1.950000e-06	5.188695e-07	-2.143632e-11	3.602599e+00	-5.577409e+00
1.960000e-06	5.654993e-07	5.413348e-12	3.926357e+00	-3.546302e+00
1.970000e-06	6.120909e-07	3.099403e-11	4.249851e+00	-1.490730e+00
1.980000e-06	6.585805e-07	5.658226e-11	4.572636e+00	5.867812e-01
1.990000e-06	7.049477e-07	8.576991e-11	4.894571e+00	2.683588e+00
2.000000e-06	7.512918e-07	1.196815e-10	5.216346e+00	4.796942e+00
2.010000e-06	7.976354e-07	1.527752e-10	5.538118e+00	6.924007e+00
2.020000e-06	8.439109e-07	1.830132e-10	5.859417e+00	9.061883e+00
2.030000e-06	8.900679e-07	2.122216e-10	6.179892e+00	1.120762e+01
2.040000e-06	9.362753e-07	2.395700e-10	6.500718e+00	1.335823e+01
2.050000e-06	9.824522e-07	2.648264e-10	6.821332e+00	1.551072e+01
2.060000e-06	1.028440e-06	2.923746e-10	7.140631e+00	1.766211e+01
2.070000e-06	1.074410e-06	3.248068e-10	7.459813e+00	1.980943e+01
2.080000e-06	1.120334e-06	3.566369e-10	7.778670e+00	2.194975e+01
2.090000e-06	1.166151e-06	3.872409e-10	8.096787e+00	2.408022e+01
2.100000e-06	1.211961e-06	4.182286e-10	8.414847e+00	2.619803e+01
2.110000e-06	1.257742e-06	4.481372e-10	8.732715e+00	2.830047e+01
2.120000e-06	1.303429e-06	4.771563e-10	9.049927e+00	3.038493e+01
2.130000e-06	1.348910e-06	5.048592e-10	9.365712e+00	3.244891e+01
2.140000e-06	1.394241e-06	5.298869e-10	9.680448e+00	3.449004e+01
2.150000e-06	1.439505e-06	5.561587e-10	9.994730e+00	3.650605e+01
2.160000e-06	1.484729e-06	5.856995e-10	1.030872e+01	3.849484e+01
2.170000e-06	1.529798e-06	6.156197e-10	1.062165e+01	4.045443e+01
2.180000e-06	1.574732e-06	6.439211e-10	1.093363e+01	4.238301e+01
2.190000e-06	1.619554e-06	6.711334e-10	1.124484e+01	4.427891e+01
2.200000e-06	1.664151e-06	6.963411e-10	1.155448e+01	4.614062e+01
2.210000e-06	1.708640e-06	7.187558e-10	1.186338e+01	4.796678e+01
2.220000e-06	1.753065e-06	7.415830e-10	1.217183e+01	4.975621e+01
2.230000e-06	1.797378e-06	7.647941e-10	1.247950e+01	5.150787e+01
2.240000e-06	1.841558e-06	7.872776e-10	1.278625e+01	5.322088e+01
2.250000e-06	1.885633e-06	8.097419e-10	1.309227e+01	5.489452e+01
2.260000e-06	1.929640e-06	8.345655e-10	1.339782e+01	5.652823e+01
2.270000e-06	1.973554e-06	8.594801e-10	1.370272e+01	5.812158e+01
2.280000e-06	2.017352e-06	8.804485e-10	1.400681e+01	5.967431e+01
2.290000e-06	2.061112e-06	8.999043e-10	1.431065e+01	6.118628e+01
2.300000e-06	2.104903e-06	9.193700e-10	1.461470e+01	6.265749e+01
2.310000e-06	2.148603e-06	9.380386e-10	1.491811e+01	6.408808e+01
2.320000e-06	2.192178e-06	9.559933e-10	1.522066e+01	6.547830e+01
2.330000e-06	2.235653e-06	9.746465e-10	1.552252e+01	6.682852e+01
2.340000e-06	2.278910e-06	9.940932e-10	1.582286e+01	6.813922e+01
2.350000e-06	2.321904e-06	1.013260e-09	1.612137e+01	6.941098e+01
2.360000e-06	2.364644e-06	1.032451e-09	1.641812e+01	7.064448e+01
2.370000e-06	2.407179e-06	1.051028e-09	1.671345e+01	7.184046e+01
2.380000e-06	2.449526e-06	1.066325e-09	1.700747e+01	7.299976e+01
2.390000e-06	2.491421e-06	1.081481e-09	1.729836e+01	7.412328e+01
2.400000e-06	2.532992e-06	1.098130e-09	1.758699e+01	7.521197e+01
2.410000e-06	2.574409e-06	1.113027e-09	1.787456e+01	7.626684e+01
2.420000e-06	2.615403e-06	1.125689e-09	1.815919e+01	7.728892e+01
2.430000e-06	2.656076e-06	1.138304e-09	1.844159e+01	7.827929e+01
2.440000e-06	2.696601e-06	1.150115e-09	1.872296e+01	7.923902e+01
2.450000e-06	2.736959e-06	1.162018e-09	1.900317e+01	8.016921e+01
2.460000e-06	2.777139e-06	1.177589e-09	1.928215e+01	8.107096e+01
2.470000e-06	2.817168e-06	1.191734e-09	1.956008e+01	8.194535e+01
2.480000e-06	2.857090e-06	1.200940e-09	1.983726e+01	8.279345e+01
2.490000e-06	2.896855e-06	1.208924e-09	2.011336e+01	8.361629e+01
2.500000e-06	2.936422e-06	1.217810e-09	2.038808e+01	8.441488e+01
2.510000e-06	2.975899e-06	1.228504e-09	2.066217e+01	8.519019e+01
2.520000e-06	3.015267e-06	1.240149e-09	2.093551e+01	8.594313e+01
2.530000e-06	3.054437e-06	1.251511e-09	2.120747e+01	8.667455e+01
2.540000e-06	3.093324e-06	1.263223e-09	2.147747e+01	8.738528e+01
2.550000e-06	3.131892e-06	1.272844e-09	2.174526e+01	8.807604e+01
2.560000e-06	3.170229e-06	1.280344e-09	2.201144e+01	8.874752e+01
2.570000e-06	3.208337e-06	1.288960e-09	2.227602e+01	8.940033e+01
2.580000e-06	3.246272e-06	1.298434e-09	2.253942e+01	9.003503e+01
2.590000e-06	3.284114e-06	1.307891e-09	2.280216e+01	9.065209e+01
2.600000e-06	3.321756e-06	1.317482e-09	2.306351e+01	9.125194e+01
2.610000e-06	3.359087e-06	1.326766e-09	2.332271e+01	9.183495e+01
2.620000e-06	3.396161e-06	1.334090e-09	2.358012e+01	9.240142e+01
2.630000e-06	3.432923e-06	1.340645e-09	2.383537e+01	9.295161e+01
2.640000e-06	3.469395e-06	1.348793e-09	2.408860e+01	9.348574e+01
2.650000e-06	3.505756e-06	1.356683e-09	2.434106e+01	9.400398e+01
2.660000e-06	3.541954e-06	1.363911e-09	2.459239e+01	9.450649e+01
2.670000e-06	3.577896e-06	1.371010e-09	2.484193e+01	9.499339e+01
2.680000e-06	3.613704e-06	1.377611e-09	2.509056e+01	9.546479e+01
2.690000e-06	3.649409e-06	1.383259e-09	2.533846e+01	9.592080e+01
2.700000e-06	3.684945e-06	1.387649e-09	2.558520e+01	9.636153e+01
2.710000e-06	3.720280e-06	1.391771e-09	2.583053e+01	9.678709e+01
2.720000e-06	3.755344e-06	1.396673e-09	2.607399e+01	9.719762e+01
2.730000e-06	3.789970e-06	1.403475e-09	2.631440e+01	9.759328e+01
2.740000e-06	3.824076e-06	1.411875e-09	2.655121e+01	9.797425e+01
2.750000e-06	3.857802e-06	1.418096e-09	2.678538e+01	9.834078e+01
2.760000e-06	3.891135e-06	1.421278e-09	2.701681e+01	9.869311e+01
2.770000e-06	3.924023e-06	1.423534e-09	2.724515e+01	9.903156e+01
2.780000e-06	3.956469e-06	1.428355e-09	2.747044e+01	9.935649e+01
2.790000e-06	3.988632e-06	1.436788e-09	2.769375e+01	9.966829e+01
2.800000e-06	4.020638e-06	1.446265e-09	2.791597e+01	9.996742e+01
2.810000e-06	4.052449e-06	1.451808e-09	2.813684e+01	1.002543e+02
2.820000e-06	4.084104e-06	1.454527e-09	2.835662e+01	1.005296e+02
2.830000e-06	4.115560e-06	1.456921e-09	2.857503e+01	1.007938e+02
2.840000e-06	4.146694e-06	1.459013e-09	2.879120e+01	1.010475e+02
2.850000e-06	4.177509e-06	1.461410e-09	2.900515e+01	1.012913e+02
2.860000e-06	4.208035e-06	1.464617e-09	2.921710e+01	1.015259e+02
2.870000e-06	4.238310e-06	1.471254e-09	2.942730e+01	1.017519e+02
2.880000e-06	4.268304e-06	1.479569e-09	2.963556e+01	1.019699e+02
2.890000e-06	4.297944e-06	1.486112e-09	2.984135e+01	1.021807e+02
2.900000e-06	4.327357e-06	1.488748e-09	3.004558e+01	1.023848e+02
