# Temperatura_=_-27.5
# Concentracion g/m^3_=_1620.0
# C_Vs_to_Am_M_A/Vsm_=_65563218390.804596
# pendiente_HvsI_1/m_=_3716.3
# ordenada_HvsI_A/m_=_1297.0
# frecuencia_Hz_=_135107.81207326907

Tiempo_(s)	Campo_(V.s)	Magnetizacion_(V.s)	Campo_(kA/m)	Magnetizacion_(A/m)
0.000000e+00	-5.526989e-06	-8.516145e-10	-3.836803e+01	-5.564535e+01
1.000000e-08	-5.527178e-06	-8.488336e-10	-3.836934e+01	-5.563024e+01
2.000000e-08	-5.527044e-06	-8.479917e-10	-3.836842e+01	-5.561678e+01
3.000000e-08	-5.526498e-06	-8.518365e-10	-3.836463e+01	-5.560504e+01
4.000000e-08	-5.525487e-06	-8.552153e-10	-3.835761e+01	-5.559510e+01
5.000000e-08	-5.523856e-06	-8.500718e-10	-3.834629e+01	-5.558701e+01
6.000000e-08	-5.521587e-06	-8.299348e-10	-3.833054e+01	-5.558082e+01
7.000000e-08	-5.518765e-06	-8.079594e-10	-3.831094e+01	-5.557657e+01
8.000000e-08	-5.515492e-06	-8.529006e-10	-3.828823e+01	-5.557427e+01
9.000000e-08	-5.511802e-06	-9.475887e-10	-3.826261e+01	-5.557392e+01
1.000000e-07	-5.507631e-06	-9.212394e-10	-3.823365e+01	-5.557549e+01
1.100000e-07	-5.503242e-06	-7.713389e-10	-3.820319e+01	-5.557893e+01
1.200000e-07	-5.498796e-06	-7.414487e-10	-3.817232e+01	-5.558417e+01
1.300000e-07	-5.493944e-06	-8.568937e-10	-3.813864e+01	-5.559111e+01
1.400000e-07	-5.488482e-06	-9.240606e-10	-3.810072e+01	-5.559963e+01
1.500000e-07	-5.482647e-06	-8.069263e-10	-3.806022e+01	-5.560959e+01
1.600000e-07	-5.476610e-06	-7.723630e-10	-3.801831e+01	-5.562081e+01
1.700000e-07	-5.470125e-06	-8.716432e-10	-3.797329e+01	-5.563310e+01
1.800000e-07	-5.463137e-06	-9.301456e-10	-3.792478e+01	-5.564627e+01
1.900000e-07	-5.455880e-06	-8.260006e-10	-3.787440e+01	-5.566010e+01
2.000000e-07	-5.448333e-06	-7.652613e-10	-3.782201e+01	-5.567435e+01
2.100000e-07	-5.440502e-06	-8.375392e-10	-3.776764e+01	-5.568878e+01
2.200000e-07	-5.432419e-06	-9.123997e-10	-3.771153e+01	-5.570316e+01
2.300000e-07	-5.423999e-06	-8.742375e-10	-3.765308e+01	-5.571726e+01
2.400000e-07	-5.415101e-06	-8.154244e-10	-3.759132e+01	-5.573082e+01
2.500000e-07	-5.405461e-06	-8.442029e-10	-3.752440e+01	-5.574365e+01
2.600000e-07	-5.395153e-06	-8.668664e-10	-3.745284e+01	-5.575551e+01
2.700000e-07	-5.384362e-06	-8.507949e-10	-3.737792e+01	-5.576624e+01
2.800000e-07	-5.373003e-06	-8.268382e-10	-3.729908e+01	-5.577566e+01
2.900000e-07	-5.361200e-06	-8.699820e-10	-3.721714e+01	-5.578363e+01
3.000000e-07	-5.349184e-06	-8.871354e-10	-3.713372e+01	-5.579005e+01
3.100000e-07	-5.336846e-06	-8.630288e-10	-3.704807e+01	-5.579483e+01
3.200000e-07	-5.324000e-06	-8.268051e-10	-3.695889e+01	-5.579794e+01
3.300000e-07	-5.310700e-06	-8.685181e-10	-3.686657e+01	-5.579936e+01
3.400000e-07	-5.297014e-06	-8.851315e-10	-3.677156e+01	-5.579913e+01
3.500000e-07	-5.282890e-06	-8.540498e-10	-3.667351e+01	-5.579731e+01
3.600000e-07	-5.268344e-06	-8.449087e-10	-3.657254e+01	-5.579400e+01
3.700000e-07	-5.253490e-06	-9.006834e-10	-3.646942e+01	-5.578934e+01
3.800000e-07	-5.238041e-06	-8.748716e-10	-3.636217e+01	-5.578350e+01
3.900000e-07	-5.221849e-06	-8.273610e-10	-3.624977e+01	-5.577668e+01
4.000000e-07	-5.205220e-06	-8.712584e-10	-3.613433e+01	-5.576910e+01
4.100000e-07	-5.188287e-06	-9.060514e-10	-3.601679e+01	-5.576102e+01
4.200000e-07	-5.170982e-06	-8.283139e-10	-3.589665e+01	-5.575270e+01
4.300000e-07	-5.153363e-06	-8.284633e-10	-3.577434e+01	-5.574443e+01
4.400000e-07	-5.135518e-06	-9.169708e-10	-3.565046e+01	-5.573650e+01
4.500000e-07	-5.117273e-06	-8.780322e-10	-3.552381e+01	-5.572920e+01
4.600000e-07	-5.098577e-06	-8.041414e-10	-3.539402e+01	-5.572283e+01
4.700000e-07	-5.079543e-06	-8.685121e-10	-3.526189e+01	-5.571769e+01
4.800000e-07	-5.060281e-06	-8.964464e-10	-3.512817e+01	-5.571404e+01
4.900000e-07	-5.040792e-06	-8.164455e-10	-3.499288e+01	-5.571216e+01
5.000000e-07	-5.021051e-06	-8.416620e-10	-3.485585e+01	-5.571228e+01
5.100000e-07	-5.001018e-06	-8.954237e-10	-3.471678e+01	-5.571463e+01
5.200000e-07	-4.980601e-06	-8.290745e-10	-3.457504e+01	-5.571938e+01
5.300000e-07	-4.959866e-06	-8.158766e-10	-3.443110e+01	-5.572670e+01
5.400000e-07	-4.938901e-06	-9.049132e-10	-3.428556e+01	-5.573670e+01
5.500000e-07	-4.917564e-06	-8.690637e-10	-3.413744e+01	-5.574946e+01
5.600000e-07	-4.895744e-06	-8.057170e-10	-3.398597e+01	-5.576503e+01
5.700000e-07	-4.873624e-06	-8.666637e-10	-3.383241e+01	-5.578342e+01
5.800000e-07	-4.851199e-06	-8.887326e-10	-3.367674e+01	-5.580457e+01
5.900000e-07	-4.828307e-06	-8.155309e-10	-3.351783e+01	-5.582843e+01
6.000000e-07	-4.805121e-06	-8.370510e-10	-3.335687e+01	-5.585486e+01
6.100000e-07	-4.781737e-06	-8.777179e-10	-3.319454e+01	-5.588372e+01
6.200000e-07	-4.758117e-06	-8.331829e-10	-3.303057e+01	-5.591482e+01
6.300000e-07	-4.734311e-06	-8.239968e-10	-3.286531e+01	-5.594794e+01
6.400000e-07	-4.710188e-06	-8.699547e-10	-3.269785e+01	-5.598284e+01
6.500000e-07	-4.685614e-06	-8.467635e-10	-3.252726e+01	-5.601925e+01
6.600000e-07	-4.660621e-06	-8.298037e-10	-3.235376e+01	-5.605687e+01
6.700000e-07	-4.635132e-06	-8.657588e-10	-3.217682e+01	-5.609541e+01
6.800000e-07	-4.609027e-06	-8.649427e-10	-3.199559e+01	-5.613456e+01
6.900000e-07	-4.582272e-06	-8.368831e-10	-3.180987e+01	-5.617399e+01
7.000000e-07	-4.555069e-06	-8.568299e-10	-3.162102e+01	-5.621340e+01
7.100000e-07	-4.527649e-06	-8.628492e-10	-3.143068e+01	-5.625246e+01
7.200000e-07	-4.500083e-06	-8.396672e-10	-3.123932e+01	-5.629087e+01
7.300000e-07	-4.472372e-06	-8.476907e-10	-3.104694e+01	-5.632837e+01
7.400000e-07	-4.444481e-06	-8.634010e-10	-3.085333e+01	-5.636467e+01
7.500000e-07	-4.416350e-06	-8.454607e-10	-3.065804e+01	-5.639953e+01
7.600000e-07	-4.387882e-06	-8.388701e-10	-3.046042e+01	-5.643275e+01
7.700000e-07	-4.359121e-06	-8.504530e-10	-3.026076e+01	-5.646414e+01
7.800000e-07	-4.330124e-06	-8.421095e-10	-3.005947e+01	-5.649355e+01
7.900000e-07	-4.300755e-06	-8.395464e-10	-2.985559e+01	-5.652087e+01
8.000000e-07	-4.271016e-06	-8.538480e-10	-2.964914e+01	-5.654602e+01
8.100000e-07	-4.241017e-06	-8.477820e-10	-2.944089e+01	-5.656897e+01
8.200000e-07	-4.210738e-06	-8.308724e-10	-2.923069e+01	-5.658972e+01
8.300000e-07	-4.180193e-06	-8.388220e-10	-2.901866e+01	-5.660832e+01
8.400000e-07	-4.149294e-06	-8.391090e-10	-2.880416e+01	-5.662484e+01
8.500000e-07	-4.118063e-06	-8.298150e-10	-2.858735e+01	-5.663939e+01
8.600000e-07	-4.086684e-06	-8.329207e-10	-2.836952e+01	-5.665214e+01
8.700000e-07	-4.055126e-06	-8.407402e-10	-2.815045e+01	-5.666327e+01
8.800000e-07	-4.023380e-06	-8.300869e-10	-2.793007e+01	-5.667299e+01
8.900000e-07	-3.991490e-06	-8.292013e-10	-2.770869e+01	-5.668154e+01
9.000000e-07	-3.959402e-06	-8.384317e-10	-2.748594e+01	-5.668919e+01
9.100000e-07	-3.927009e-06	-8.316684e-10	-2.726106e+01	-5.669621e+01
9.200000e-07	-3.894174e-06	-8.237144e-10	-2.703313e+01	-5.670290e+01
9.300000e-07	-3.860886e-06	-8.340483e-10	-2.680205e+01	-5.670956e+01
9.400000e-07	-3.827087e-06	-8.342872e-10	-2.656741e+01	-5.671650e+01
9.500000e-07	-3.792790e-06	-8.247266e-10	-2.632932e+01	-5.672401e+01
9.600000e-07	-3.758117e-06	-8.299406e-10	-2.608863e+01	-5.673242e+01
9.700000e-07	-3.723127e-06	-8.387946e-10	-2.584573e+01	-5.674199e+01
9.800000e-07	-3.687861e-06	-8.327910e-10	-2.560091e+01	-5.675299e+01
9.900000e-07	-3.652343e-06	-8.323381e-10	-2.535435e+01	-5.676569e+01
1.000000e-06	-3.616673e-06	-8.360300e-10	-2.510673e+01	-5.678031e+01
1.010000e-06	-3.580891e-06	-8.289625e-10	-2.485833e+01	-5.679703e+01
1.020000e-06	-3.544926e-06	-8.227191e-10	-2.460867e+01	-5.681603e+01
1.030000e-06	-3.508741e-06	-8.310599e-10	-2.435747e+01	-5.683741e+01
1.040000e-06	-3.472353e-06	-8.364416e-10	-2.410487e+01	-5.686128e+01
1.050000e-06	-3.435725e-06	-8.345418e-10	-2.385060e+01	-5.688767e+01
1.060000e-06	-3.398798e-06	-8.404527e-10	-2.359426e+01	-5.691657e+01
1.070000e-06	-3.361590e-06	-8.455554e-10	-2.333596e+01	-5.694793e+01
1.080000e-06	-3.324122e-06	-8.410703e-10	-2.307586e+01	-5.698166e+01
1.090000e-06	-3.286423e-06	-8.387837e-10	-2.281416e+01	-5.701761e+01
1.100000e-06	-3.248584e-06	-8.398233e-10	-2.255148e+01	-5.705559e+01
1.110000e-06	-3.210586e-06	-8.338742e-10	-2.228770e+01	-5.709536e+01
1.120000e-06	-3.172349e-06	-8.312114e-10	-2.202226e+01	-5.713663e+01
1.130000e-06	-3.133815e-06	-8.359341e-10	-2.175476e+01	-5.717908e+01
1.140000e-06	-3.094952e-06	-8.396474e-10	-2.148497e+01	-5.722233e+01
1.150000e-06	-3.055914e-06	-8.423898e-10	-2.121397e+01	-5.726599e+01
1.160000e-06	-3.016767e-06	-8.469965e-10	-2.094222e+01	-5.730962e+01
1.170000e-06	-2.977468e-06	-8.453818e-10	-2.066941e+01	-5.735275e+01
1.180000e-06	-2.938048e-06	-8.413561e-10	-2.039576e+01	-5.739489e+01
1.190000e-06	-2.898470e-06	-8.418859e-10	-2.012101e+01	-5.743553e+01
1.200000e-06	-2.858707e-06	-8.429400e-10	-1.984498e+01	-5.747414e+01
1.210000e-06	-2.818819e-06	-8.401543e-10	-1.956808e+01	-5.751019e+01
1.220000e-06	-2.778815e-06	-8.409097e-10	-1.929037e+01	-5.754314e+01
1.230000e-06	-2.738592e-06	-8.466998e-10	-1.901115e+01	-5.757246e+01
1.240000e-06	-2.698157e-06	-8.517622e-10	-1.873045e+01	-5.759761e+01
1.250000e-06	-2.657545e-06	-8.517125e-10	-1.844852e+01	-5.761808e+01
1.260000e-06	-2.616735e-06	-8.514278e-10	-1.816522e+01	-5.763337e+01
1.270000e-06	-2.575661e-06	-8.505302e-10	-1.788009e+01	-5.764301e+01
1.280000e-06	-2.534168e-06	-8.482892e-10	-1.759205e+01	-5.764654e+01
1.290000e-06	-2.492350e-06	-8.462524e-10	-1.730175e+01	-5.764355e+01
1.300000e-06	-2.450259e-06	-8.449932e-10	-1.700955e+01	-5.763365e+01
1.310000e-06	-2.407824e-06	-8.423218e-10	-1.671498e+01	-5.761649e+01
1.320000e-06	-2.365069e-06	-8.423977e-10	-1.641817e+01	-5.759177e+01
1.330000e-06	-2.322099e-06	-8.444599e-10	-1.611988e+01	-5.755921e+01
1.340000e-06	-2.279037e-06	-8.455942e-10	-1.582094e+01	-5.751858e+01
1.350000e-06	-2.235826e-06	-8.474148e-10	-1.552098e+01	-5.746970e+01
1.360000e-06	-2.192399e-06	-8.502919e-10	-1.521951e+01	-5.741242e+01
1.370000e-06	-2.148814e-06	-8.502490e-10	-1.491694e+01	-5.734662e+01
1.380000e-06	-2.105115e-06	-8.467784e-10	-1.461358e+01	-5.727223e+01
1.390000e-06	-2.061341e-06	-8.432097e-10	-1.430971e+01	-5.718920e+01
1.400000e-06	-2.017510e-06	-8.401226e-10	-1.400543e+01	-5.709752e+01
1.410000e-06	-1.973538e-06	-8.355831e-10	-1.370018e+01	-5.699717e+01
1.420000e-06	-1.929502e-06	-8.306668e-10	-1.339449e+01	-5.688819e+01
1.430000e-06	-1.885459e-06	-8.314597e-10	-1.308875e+01	-5.677060e+01
1.440000e-06	-1.841341e-06	-8.320687e-10	-1.278248e+01	-5.664444e+01
1.450000e-06	-1.797076e-06	-8.293210e-10	-1.247519e+01	-5.650972e+01
1.460000e-06	-1.752653e-06	-8.234839e-10	-1.216682e+01	-5.636648e+01
1.470000e-06	-1.708099e-06	-8.193070e-10	-1.185753e+01	-5.621471e+01
1.480000e-06	-1.663431e-06	-8.164680e-10	-1.154744e+01	-5.605439e+01
1.490000e-06	-1.618582e-06	-8.126562e-10	-1.123610e+01	-5.588547e+01
1.500000e-06	-1.573512e-06	-8.067658e-10	-1.092323e+01	-5.570784e+01
1.510000e-06	-1.528381e-06	-8.014623e-10	-1.060993e+01	-5.552136e+01
1.520000e-06	-1.483198e-06	-7.977094e-10	-1.029628e+01	-5.532585e+01
1.530000e-06	-1.437932e-06	-7.954217e-10	-9.982043e+00	-5.512105e+01
1.540000e-06	-1.392594e-06	-7.915368e-10	-9.667303e+00	-5.490665e+01
1.550000e-06	-1.347136e-06	-7.879866e-10	-9.351737e+00	-5.468228e+01
1.560000e-06	-1.301576e-06	-7.851042e-10	-9.035466e+00	-5.444748e+01
1.570000e-06	-1.255937e-06	-7.810321e-10	-8.718641e+00	-5.420174e+01
1.580000e-06	-1.210208e-06	-7.766204e-10	-8.401195e+00	-5.394447e+01
1.590000e-06	-1.164415e-06	-7.722285e-10	-8.083300e+00	-5.367500e+01
1.600000e-06	-1.118492e-06	-7.674045e-10	-7.764506e+00	-5.339261e+01
1.610000e-06	-1.072399e-06	-7.625116e-10	-7.444529e+00	-5.309649e+01
1.620000e-06	-1.026247e-06	-7.583309e-10	-7.124144e+00	-5.278578e+01
1.630000e-06	-9.800753e-07	-7.544225e-10	-6.803625e+00	-5.245956e+01
1.640000e-06	-9.338754e-07	-7.506179e-10	-6.482909e+00	-5.211683e+01
1.650000e-06	-8.875966e-07	-7.455839e-10	-6.161644e+00	-5.175657e+01
1.660000e-06	-8.412308e-07	-7.385806e-10	-5.839775e+00	-5.137771e+01
1.670000e-06	-7.948211e-07	-7.282976e-10	-5.517601e+00	-5.097914e+01
1.680000e-06	-7.483214e-07	-7.187424e-10	-5.194803e+00	-5.055973e+01
1.690000e-06	-7.017842e-07	-7.124556e-10	-4.871745e+00	-5.011835e+01
1.700000e-06	-6.552877e-07	-7.055305e-10	-4.548969e+00	-4.965383e+01
1.710000e-06	-6.087888e-07	-6.980788e-10	-4.226177e+00	-4.916503e+01
1.720000e-06	-5.622872e-07	-6.915964e-10	-3.903365e+00	-4.865083e+01
1.730000e-06	-5.157560e-07	-6.818692e-10	-3.580348e+00	-4.811011e+01
1.740000e-06	-4.691081e-07	-6.700738e-10	-3.256521e+00	-4.754180e+01
1.750000e-06	-4.223384e-07	-6.564248e-10	-2.931848e+00	-4.694488e+01
1.760000e-06	-3.755006e-07	-6.443353e-10	-2.606703e+00	-4.631837e+01
1.770000e-06	-3.286827e-07	-6.347960e-10	-2.281696e+00	-4.566137e+01
1.780000e-06	-2.818439e-07	-6.260198e-10	-1.956544e+00	-4.497303e+01
1.790000e-06	-2.349339e-07	-6.162101e-10	-1.630898e+00	-4.425260e+01
1.800000e-06	-1.880295e-07	-6.058978e-10	-1.305290e+00	-4.349941e+01
1.810000e-06	-1.411217e-07	-5.942739e-10	-9.796588e-01	-4.271287e+01
1.820000e-06	-9.425919e-08	-5.793859e-10	-6.543418e-01	-4.189250e+01
1.830000e-06	-4.743732e-08	-5.640537e-10	-3.293071e-01	-4.103791e+01
1.840000e-06	-5.565266e-10	-5.527729e-10	-3.863375e-03	-4.014884e+01
1.850000e-06	4.634675e-08	-5.426788e-10	3.217364e-01	-3.922510e+01
1.860000e-06	9.319195e-08	-5.308165e-10	6.469330e-01	-3.826663e+01
1.870000e-06	1.399936e-07	-5.160293e-10	9.718273e-01	-3.727349e+01
1.880000e-06	1.868403e-07	-4.990655e-10	1.297034e+00	-3.624583e+01
1.890000e-06	2.336898e-07	-4.816408e-10	1.622261e+00	-3.518391e+01
1.900000e-06	2.804847e-07	-4.617292e-10	1.947108e+00	-3.408810e+01
1.910000e-06	3.272530e-07	-4.425956e-10	2.271772e+00	-3.295887e+01
1.920000e-06	3.740341e-07	-4.270545e-10	2.596523e+00	-3.179680e+01
1.930000e-06	4.208088e-07	-4.138752e-10	2.921230e+00	-3.060256e+01
1.940000e-06	4.675062e-07	-4.002225e-10	3.245401e+00	-2.937692e+01
1.950000e-06	5.141195e-07	-3.833839e-10	3.568987e+00	-2.812074e+01
1.960000e-06	5.606980e-07	-3.650737e-10	3.892333e+00	-2.683495e+01
1.970000e-06	6.072268e-07	-3.447767e-10	4.215333e+00	-2.552059e+01
1.980000e-06	6.536877e-07	-3.237166e-10	4.537862e+00	-2.417876e+01
1.990000e-06	7.001481e-07	-3.025636e-10	4.860387e+00	-2.281064e+01
2.000000e-06	7.466422e-07	-2.818070e-10	5.183146e+00	-2.141747e+01
2.010000e-06	7.930680e-07	-2.636595e-10	5.505432e+00	-2.000058e+01
2.020000e-06	8.394277e-07	-2.461365e-10	5.827258e+00	-1.856135e+01
2.030000e-06	8.856985e-07	-2.264946e-10	6.148467e+00	-1.710121e+01
2.040000e-06	9.318597e-07	-2.064870e-10	6.468916e+00	-1.562166e+01
2.050000e-06	9.779822e-07	-1.850388e-10	6.789095e+00	-1.412425e+01
2.060000e-06	1.024081e-06	-1.617706e-10	7.109109e+00	-1.261058e+01
2.070000e-06	1.070106e-06	-1.384052e-10	7.428611e+00	-1.108231e+01
2.080000e-06	1.115990e-06	-1.153194e-10	7.747135e+00	-9.541111e+00
2.090000e-06	1.161769e-06	-9.470566e-11	8.064933e+00	-7.988737e+00
2.100000e-06	1.207480e-06	-7.500697e-11	8.382256e+00	-6.426959e+00
2.110000e-06	1.253162e-06	-5.485937e-11	8.699375e+00	-4.857592e+00
2.120000e-06	1.298776e-06	-3.283245e-11	9.016025e+00	-3.282482e+00
2.130000e-06	1.344307e-06	-9.566178e-12	9.332102e+00	-1.703507e+00
2.140000e-06	1.389817e-06	1.234189e-11	9.648030e+00	-1.225716e-01
2.150000e-06	1.435270e-06	3.386454e-11	9.963561e+00	1.458397e+00
2.160000e-06	1.480599e-06	5.611543e-11	1.027823e+01	3.037455e+00
2.170000e-06	1.525847e-06	7.829016e-11	1.059234e+01	4.612643e+00
2.180000e-06	1.570981e-06	9.920304e-11	1.090566e+01	6.181998e+00
2.190000e-06	1.615892e-06	1.185821e-10	1.121743e+01	7.743554e+00
2.200000e-06	1.660584e-06	1.396137e-10	1.152768e+01	9.295350e+00
2.210000e-06	1.705091e-06	1.611540e-10	1.183664e+01	1.083544e+01
2.220000e-06	1.749463e-06	1.837318e-10	1.214467e+01	1.236190e+01
2.230000e-06	1.793727e-06	2.070750e-10	1.245195e+01	1.387283e+01
2.240000e-06	1.837841e-06	2.299394e-10	1.275819e+01	1.536638e+01
2.250000e-06	1.881842e-06	2.503594e-10	1.306363e+01	1.684074e+01
2.260000e-06	1.925780e-06	2.683350e-10	1.336865e+01	1.829414e+01
2.270000e-06	1.969617e-06	2.859182e-10	1.367296e+01	1.972491e+01
2.280000e-06	2.013338e-06	3.027520e-10	1.397647e+01	2.113143e+01
2.290000e-06	2.057028e-06	3.197733e-10	1.427977e+01	2.251218e+01
2.300000e-06	2.100728e-06	3.395511e-10	1.458313e+01	2.386571e+01
2.310000e-06	2.144373e-06	3.608709e-10	1.488611e+01	2.519071e+01
2.320000e-06	2.187920e-06	3.821696e-10	1.518842e+01	2.648596e+01
2.330000e-06	2.231419e-06	4.020315e-10	1.549038e+01	2.775034e+01
2.340000e-06	2.274834e-06	4.194969e-10	1.579177e+01	2.898288e+01
2.350000e-06	2.318046e-06	4.348858e-10	1.609174e+01	3.018275e+01
2.360000e-06	2.361037e-06	4.495832e-10	1.639018e+01	3.134921e+01
2.370000e-06	2.403839e-06	4.638479e-10	1.668731e+01	3.248172e+01
2.380000e-06	2.446332e-06	4.760303e-10	1.698230e+01	3.357982e+01
2.390000e-06	2.488423e-06	4.887807e-10	1.727449e+01	3.464322e+01
2.400000e-06	2.530200e-06	5.026649e-10	1.756450e+01	3.567179e+01
2.410000e-06	2.571707e-06	5.171963e-10	1.785264e+01	3.666549e+01
2.420000e-06	2.612899e-06	5.305937e-10	1.813859e+01	3.762446e+01
2.430000e-06	2.653686e-06	5.427993e-10	1.842173e+01	3.854895e+01
2.440000e-06	2.694259e-06	5.527235e-10	1.870339e+01	3.943932e+01
2.450000e-06	2.734712e-06	5.606761e-10	1.898421e+01	4.029609e+01
2.460000e-06	2.774863e-06	5.712011e-10	1.926294e+01	4.111984e+01
2.470000e-06	2.814802e-06	5.840885e-10	1.954019e+01	4.191127e+01
2.480000e-06	2.854620e-06	5.956465e-10	1.981661e+01	4.267118e+01
2.490000e-06	2.894326e-06	6.064765e-10	2.009224e+01	4.340042e+01
2.500000e-06	2.933952e-06	6.165540e-10	2.036732e+01	4.409993e+01
2.510000e-06	2.973458e-06	6.246831e-10	2.064157e+01	4.477068e+01
2.520000e-06	3.012793e-06	6.325490e-10	2.091464e+01	4.541371e+01
2.530000e-06	3.051935e-06	6.396023e-10	2.118636e+01	4.603005e+01
2.540000e-06	3.090934e-06	6.459002e-10	2.145708e+01	4.662077e+01
2.550000e-06	3.129754e-06	6.523619e-10	2.172657e+01	4.718695e+01
2.560000e-06	3.168202e-06	6.588576e-10	2.199348e+01	4.772964e+01
2.570000e-06	3.206292e-06	6.669027e-10	2.225789e+01	4.824989e+01
2.580000e-06	3.244235e-06	6.751731e-10	2.252129e+01	4.874871e+01
2.590000e-06	3.282041e-06	6.818422e-10	2.278374e+01	4.922708e+01
2.600000e-06	3.319651e-06	6.870866e-10	2.304482e+01	4.968592e+01
2.610000e-06	3.356976e-06	6.928146e-10	2.330393e+01	5.012613e+01
2.620000e-06	3.394041e-06	6.987118e-10	2.356123e+01	5.054853e+01
2.630000e-06	3.430901e-06	7.055052e-10	2.381712e+01	5.095388e+01
2.640000e-06	3.467460e-06	7.140769e-10	2.407091e+01	5.134288e+01
2.650000e-06	3.503684e-06	7.195848e-10	2.432237e+01	5.171618e+01
2.660000e-06	3.539653e-06	7.230506e-10	2.457207e+01	5.207434e+01
2.670000e-06	3.575509e-06	7.284354e-10	2.482098e+01	5.241789e+01
2.680000e-06	3.611290e-06	7.350361e-10	2.506936e+01	5.274727e+01
2.690000e-06	3.646972e-06	7.401333e-10	2.531707e+01	5.306289e+01
2.700000e-06	3.682550e-06	7.435167e-10	2.556405e+01	5.336509e+01
2.710000e-06	3.717948e-06	7.467083e-10	2.580978e+01	5.365417e+01
2.720000e-06	3.753058e-06	7.498764e-10	2.605351e+01	5.393041e+01
2.730000e-06	3.787863e-06	7.524947e-10	2.629512e+01	5.419403e+01
2.740000e-06	3.822163e-06	7.570500e-10	2.653323e+01	5.444523e+01
2.750000e-06	3.855958e-06	7.608709e-10	2.676784e+01	5.468421e+01
2.760000e-06	3.889354e-06	7.637504e-10	2.699967e+01	5.491115e+01
2.770000e-06	3.922207e-06	7.673809e-10	2.722773e+01	5.512621e+01
2.780000e-06	3.954649e-06	7.700039e-10	2.745294e+01	5.532958e+01
2.790000e-06	3.986841e-06	7.736183e-10	2.767642e+01	5.552145e+01
2.800000e-06	4.018801e-06	7.787331e-10	2.789829e+01	5.570201e+01
2.810000e-06	4.050576e-06	7.825255e-10	2.811886e+01	5.587148e+01
2.820000e-06	4.082230e-06	7.864781e-10	2.833860e+01	5.603011e+01
2.830000e-06	4.113741e-06	7.899265e-10	2.855735e+01	5.617817e+01
2.840000e-06	4.144988e-06	7.922660e-10	2.877426e+01	5.631596e+01
2.850000e-06	4.175913e-06	7.929613e-10	2.898894e+01	5.644381e+01
2.860000e-06	4.206577e-06	7.918372e-10	2.920181e+01	5.656207e+01
2.870000e-06	4.236933e-06	7.925549e-10	2.941254e+01	5.667114e+01
2.880000e-06	4.266887e-06	7.948133e-10	2.962048e+01	5.677142e+01
2.890000e-06	4.296557e-06	7.978422e-10	2.982645e+01	5.686336e+01
2.900000e-06	4.326037e-06	7.999160e-10	3.003110e+01	5.694741e+01
