# Temperatura_=_14.0
# Concentracion g/m^3_=_1620.0
# C_Vs_to_Am_M_A/Vsm_=_65563218390.804596
# pendiente_HvsI_1/m_=_3716.3
# ordenada_HvsI_A/m_=_1297.0
# frecuencia_Hz_=_135096.0384454876

Tiempo_(s)	Campo_(V.s)	Magnetizacion_(V.s)	Campo_(kA/m)	Magnetizacion_(A/m)
0.000000e+00	-5.545606e-06	-1.656689e-09	-3.837566e+01	-1.067922e+02
1.000000e-08	-5.545861e-06	-1.651209e-09	-3.837743e+01	-1.067263e+02
2.000000e-08	-5.545818e-06	-1.647238e-09	-3.837713e+01	-1.066623e+02
3.000000e-08	-5.545382e-06	-1.646844e-09	-3.837411e+01	-1.066005e+02
4.000000e-08	-5.544591e-06	-1.647163e-09	-3.836864e+01	-1.065411e+02
5.000000e-08	-5.543331e-06	-1.645475e-09	-3.835992e+01	-1.064845e+02
6.000000e-08	-5.541386e-06	-1.639831e-09	-3.834646e+01	-1.064307e+02
7.000000e-08	-5.538802e-06	-1.642288e-09	-3.832858e+01	-1.063800e+02
8.000000e-08	-5.535767e-06	-1.664727e-09	-3.830758e+01	-1.063323e+02
9.000000e-08	-5.532280e-06	-1.666517e-09	-3.828344e+01	-1.062875e+02
1.000000e-07	-5.528279e-06	-1.632948e-09	-3.825576e+01	-1.062456e+02
1.100000e-07	-5.523902e-06	-1.624986e-09	-3.822547e+01	-1.062062e+02
1.200000e-07	-5.519319e-06	-1.646358e-09	-3.819376e+01	-1.061692e+02
1.300000e-07	-5.514455e-06	-1.630736e-09	-3.816010e+01	-1.061340e+02
1.400000e-07	-5.509194e-06	-1.615010e-09	-3.812369e+01	-1.061003e+02
1.500000e-07	-5.503613e-06	-1.616325e-09	-3.808507e+01	-1.060674e+02
1.600000e-07	-5.497673e-06	-1.662451e-09	-3.804397e+01	-1.060349e+02
1.700000e-07	-5.491247e-06	-1.639336e-09	-3.799950e+01	-1.060019e+02
1.800000e-07	-5.484521e-06	-1.624430e-09	-3.795295e+01	-1.059679e+02
1.900000e-07	-5.477526e-06	-1.616486e-09	-3.790455e+01	-1.059320e+02
2.000000e-07	-5.470138e-06	-1.647583e-09	-3.785342e+01	-1.058935e+02
2.100000e-07	-5.462394e-06	-1.641973e-09	-3.779984e+01	-1.058517e+02
2.200000e-07	-5.454387e-06	-1.646465e-09	-3.774442e+01	-1.058057e+02
2.300000e-07	-5.446091e-06	-1.647366e-09	-3.768701e+01	-1.057548e+02
2.400000e-07	-5.437337e-06	-1.645304e-09	-3.762644e+01	-1.056984e+02
2.500000e-07	-5.427954e-06	-1.635040e-09	-3.756151e+01	-1.056356e+02
2.600000e-07	-5.417948e-06	-1.622009e-09	-3.749227e+01	-1.055660e+02
2.700000e-07	-5.407392e-06	-1.630588e-09	-3.741922e+01	-1.054889e+02
2.800000e-07	-5.396271e-06	-1.632612e-09	-3.734226e+01	-1.054039e+02
2.900000e-07	-5.384642e-06	-1.633959e-09	-3.726179e+01	-1.053106e+02
3.000000e-07	-5.372660e-06	-1.613499e-09	-3.717887e+01	-1.052087e+02
3.100000e-07	-5.360271e-06	-1.619976e-09	-3.709314e+01	-1.050980e+02
3.200000e-07	-5.347434e-06	-1.616927e-09	-3.700431e+01	-1.049784e+02
3.300000e-07	-5.334324e-06	-1.633751e-09	-3.691359e+01	-1.048499e+02
3.400000e-07	-5.320862e-06	-1.604561e-09	-3.682043e+01	-1.047127e+02
3.500000e-07	-5.306912e-06	-1.611702e-09	-3.672390e+01	-1.045668e+02
3.600000e-07	-5.292459e-06	-1.617367e-09	-3.662388e+01	-1.044128e+02
3.700000e-07	-5.277597e-06	-1.616673e-09	-3.652103e+01	-1.042509e+02
3.800000e-07	-5.262266e-06	-1.576327e-09	-3.641494e+01	-1.040816e+02
3.900000e-07	-5.246300e-06	-1.603267e-09	-3.630446e+01	-1.039055e+02
4.000000e-07	-5.229793e-06	-1.614666e-09	-3.619023e+01	-1.037232e+02
4.100000e-07	-5.213022e-06	-1.582328e-09	-3.607418e+01	-1.035353e+02
4.200000e-07	-5.196061e-06	-1.572876e-09	-3.595681e+01	-1.033426e+02
4.300000e-07	-5.178734e-06	-1.619038e-09	-3.583690e+01	-1.031458e+02
4.400000e-07	-5.161023e-06	-1.594920e-09	-3.571434e+01	-1.029455e+02
4.500000e-07	-5.142927e-06	-1.553581e-09	-3.558912e+01	-1.027426e+02
4.600000e-07	-5.124358e-06	-1.587204e-09	-3.546062e+01	-1.025376e+02
4.700000e-07	-5.105456e-06	-1.598246e-09	-3.532982e+01	-1.023314e+02
4.800000e-07	-5.086284e-06	-1.544238e-09	-3.519715e+01	-1.021244e+02
4.900000e-07	-5.066818e-06	-1.553943e-09	-3.506244e+01	-1.019173e+02
5.000000e-07	-5.047095e-06	-1.589871e-09	-3.492596e+01	-1.017105e+02
5.100000e-07	-5.027074e-06	-1.546883e-09	-3.478741e+01	-1.015044e+02
5.200000e-07	-5.006732e-06	-1.534634e-09	-3.464665e+01	-1.012994e+02
5.300000e-07	-4.986109e-06	-1.579925e-09	-3.450394e+01	-1.010958e+02
5.400000e-07	-4.965127e-06	-1.563044e-09	-3.435874e+01	-1.008935e+02
5.500000e-07	-4.943749e-06	-1.519651e-09	-3.421080e+01	-1.006928e+02
5.600000e-07	-4.922085e-06	-1.555121e-09	-3.406089e+01	-1.004935e+02
5.700000e-07	-4.900093e-06	-1.556058e-09	-3.390871e+01	-1.002955e+02
5.800000e-07	-4.877689e-06	-1.513494e-09	-3.375367e+01	-1.000986e+02
5.900000e-07	-4.854911e-06	-1.524334e-09	-3.359604e+01	-9.990248e+01
6.000000e-07	-4.831877e-06	-1.551050e-09	-3.343665e+01	-9.970675e+01
6.100000e-07	-4.808641e-06	-1.514969e-09	-3.327586e+01	-9.951095e+01
6.200000e-07	-4.785135e-06	-1.512063e-09	-3.311319e+01	-9.931459e+01
6.300000e-07	-4.761332e-06	-1.532566e-09	-3.294848e+01	-9.911710e+01
6.400000e-07	-4.737223e-06	-1.517037e-09	-3.278164e+01	-9.891792e+01
6.500000e-07	-4.712732e-06	-1.494755e-09	-3.261217e+01	-9.871643e+01
6.600000e-07	-4.687846e-06	-1.510435e-09	-3.243995e+01	-9.851201e+01
6.700000e-07	-4.662529e-06	-1.501779e-09	-3.226476e+01	-9.830406e+01
6.800000e-07	-4.636593e-06	-1.489249e-09	-3.208528e+01	-9.809197e+01
6.900000e-07	-4.610051e-06	-1.497556e-09	-3.190161e+01	-9.787519e+01
7.000000e-07	-4.583060e-06	-1.503548e-09	-3.171483e+01	-9.765318e+01
7.100000e-07	-4.555686e-06	-1.488870e-09	-3.152541e+01	-9.742545e+01
7.200000e-07	-4.528124e-06	-1.487314e-09	-3.133468e+01	-9.719157e+01
7.300000e-07	-4.500424e-06	-1.482859e-09	-3.114299e+01	-9.695118e+01
7.400000e-07	-4.472459e-06	-1.471362e-09	-3.094947e+01	-9.670397e+01
7.500000e-07	-4.444259e-06	-1.465911e-09	-3.075433e+01	-9.644972e+01
7.600000e-07	-4.415792e-06	-1.463040e-09	-3.055734e+01	-9.618827e+01
7.700000e-07	-4.387002e-06	-1.454441e-09	-3.035811e+01	-9.591954e+01
7.800000e-07	-4.357950e-06	-1.452690e-09	-3.015707e+01	-9.564352e+01
7.900000e-07	-4.328665e-06	-1.452125e-09	-2.995442e+01	-9.536028e+01
8.000000e-07	-4.299049e-06	-1.445391e-09	-2.974947e+01	-9.506996e+01
8.100000e-07	-4.269091e-06	-1.438904e-09	-2.954216e+01	-9.477276e+01
8.200000e-07	-4.238818e-06	-1.433642e-09	-2.933267e+01	-9.446893e+01
8.300000e-07	-4.208276e-06	-1.424011e-09	-2.912133e+01	-9.415878e+01
8.400000e-07	-4.177495e-06	-1.412008e-09	-2.890832e+01	-9.384267e+01
8.500000e-07	-4.146417e-06	-1.411497e-09	-2.869325e+01	-9.352098e+01
8.600000e-07	-4.115083e-06	-1.407347e-09	-2.847643e+01	-9.319411e+01
8.700000e-07	-4.083534e-06	-1.399328e-09	-2.825810e+01	-9.286251e+01
8.800000e-07	-4.051776e-06	-1.390204e-09	-2.803834e+01	-9.252662e+01
8.900000e-07	-4.019846e-06	-1.387549e-09	-2.781739e+01	-9.218687e+01
9.000000e-07	-3.987650e-06	-1.376264e-09	-2.759458e+01	-9.184369e+01
9.100000e-07	-3.955034e-06	-1.368557e-09	-2.736888e+01	-9.149751e+01
9.200000e-07	-3.922143e-06	-1.367799e-09	-2.714128e+01	-9.114871e+01
9.300000e-07	-3.888997e-06	-1.366544e-09	-2.691191e+01	-9.079766e+01
9.400000e-07	-3.855289e-06	-1.357557e-09	-2.667865e+01	-9.044469e+01
9.500000e-07	-3.820964e-06	-1.355052e-09	-2.644112e+01	-9.009010e+01
9.600000e-07	-3.786277e-06	-1.348731e-09	-2.620108e+01	-8.973413e+01
9.700000e-07	-3.751314e-06	-1.339451e-09	-2.595914e+01	-8.937699e+01
9.800000e-07	-3.716071e-06	-1.330454e-09	-2.571525e+01	-8.901884e+01
9.900000e-07	-3.680570e-06	-1.325409e-09	-2.546959e+01	-8.865980e+01
1.000000e-06	-3.644905e-06	-1.313438e-09	-2.522279e+01	-8.829993e+01
1.010000e-06	-3.609122e-06	-1.304187e-09	-2.497517e+01	-8.793927e+01
1.020000e-06	-3.573195e-06	-1.302084e-09	-2.472655e+01	-8.757779e+01
1.030000e-06	-3.537135e-06	-1.299948e-09	-2.447702e+01	-8.721544e+01
1.040000e-06	-3.500831e-06	-1.293255e-09	-2.422579e+01	-8.685212e+01
1.050000e-06	-3.464239e-06	-1.287558e-09	-2.397257e+01	-8.648772e+01
1.060000e-06	-3.427347e-06	-1.278816e-09	-2.371729e+01	-8.612207e+01
1.070000e-06	-3.390164e-06	-1.265650e-09	-2.345998e+01	-8.575500e+01
1.080000e-06	-3.352780e-06	-1.254624e-09	-2.320128e+01	-8.538630e+01
1.090000e-06	-3.315210e-06	-1.245986e-09	-2.294129e+01	-8.501577e+01
1.100000e-06	-3.277427e-06	-1.238620e-09	-2.267984e+01	-8.464315e+01
1.110000e-06	-3.239370e-06	-1.233043e-09	-2.241648e+01	-8.426821e+01
1.120000e-06	-3.201094e-06	-1.229889e-09	-2.215161e+01	-8.389070e+01
1.130000e-06	-3.162592e-06	-1.224133e-09	-2.188518e+01	-8.351034e+01
1.140000e-06	-3.123825e-06	-1.217296e-09	-2.161691e+01	-8.312688e+01
1.150000e-06	-3.084838e-06	-1.209709e-09	-2.134712e+01	-8.274004e+01
1.160000e-06	-3.045709e-06	-1.201297e-09	-2.107634e+01	-8.234955e+01
1.170000e-06	-3.006431e-06	-1.187808e-09	-2.080454e+01	-8.195514e+01
1.180000e-06	-2.966879e-06	-1.177446e-09	-2.053084e+01	-8.155651e+01
1.190000e-06	-2.927185e-06	-1.172672e-09	-2.025616e+01	-8.115340e+01
1.200000e-06	-2.887436e-06	-1.171463e-09	-1.998109e+01	-8.074551e+01
1.210000e-06	-2.847562e-06	-1.166871e-09	-1.970517e+01	-8.033255e+01
1.220000e-06	-2.807491e-06	-1.161285e-09	-1.942787e+01	-7.991422e+01
1.230000e-06	-2.767228e-06	-1.154730e-09	-1.914925e+01	-7.949021e+01
1.240000e-06	-2.726721e-06	-1.149129e-09	-1.886894e+01	-7.906021e+01
1.250000e-06	-2.685947e-06	-1.141156e-09	-1.858679e+01	-7.862389e+01
1.260000e-06	-2.645029e-06	-1.131999e-09	-1.830363e+01	-7.818093e+01
1.270000e-06	-2.603909e-06	-1.121952e-09	-1.801908e+01	-7.773096e+01
1.280000e-06	-2.562359e-06	-1.111680e-09	-1.773155e+01	-7.727365e+01
1.290000e-06	-2.520423e-06	-1.101568e-09	-1.744136e+01	-7.680862e+01
1.300000e-06	-2.478357e-06	-1.094074e-09	-1.715026e+01	-7.633550e+01
1.310000e-06	-2.436035e-06	-1.085917e-09	-1.685739e+01	-7.585390e+01
1.320000e-06	-2.393482e-06	-1.076776e-09	-1.656293e+01	-7.536345e+01
1.330000e-06	-2.350656e-06	-1.066887e-09	-1.626657e+01	-7.486373e+01
1.340000e-06	-2.307447e-06	-1.057342e-09	-1.596756e+01	-7.435437e+01
1.350000e-06	-2.264053e-06	-1.049262e-09	-1.566728e+01	-7.383497e+01
1.360000e-06	-2.220615e-06	-1.042353e-09	-1.536669e+01	-7.330513e+01
1.370000e-06	-2.177123e-06	-1.033467e-09	-1.506572e+01	-7.276448e+01
1.380000e-06	-2.133491e-06	-1.023341e-09	-1.476379e+01	-7.221264e+01
1.390000e-06	-2.089779e-06	-1.013758e-09	-1.446129e+01	-7.164925e+01
1.400000e-06	-2.045948e-06	-1.005728e-09	-1.415798e+01	-7.107396e+01
1.410000e-06	-2.001969e-06	-9.981596e-10	-1.385365e+01	-7.048646e+01
1.420000e-06	-1.957940e-06	-9.891669e-10	-1.354897e+01	-6.988643e+01
1.430000e-06	-1.913857e-06	-9.797900e-10	-1.324391e+01	-6.927358e+01
1.440000e-06	-1.869625e-06	-9.698491e-10	-1.293783e+01	-6.864765e+01
1.450000e-06	-1.825225e-06	-9.592284e-10	-1.263058e+01	-6.800839e+01
1.460000e-06	-1.780695e-06	-9.469631e-10	-1.232243e+01	-6.735557e+01
1.470000e-06	-1.735996e-06	-9.360005e-10	-1.201312e+01	-6.668898e+01
1.480000e-06	-1.691195e-06	-9.244411e-10	-1.170309e+01	-6.600842e+01
1.490000e-06	-1.646339e-06	-9.094908e-10	-1.139269e+01	-6.531372e+01
1.500000e-06	-1.601352e-06	-8.931010e-10	-1.108138e+01	-6.460469e+01
1.510000e-06	-1.556185e-06	-8.773423e-10	-1.076882e+01	-6.388114e+01
1.520000e-06	-1.510843e-06	-8.674391e-10	-1.045505e+01	-6.314289e+01
1.530000e-06	-1.465398e-06	-8.618650e-10	-1.014057e+01	-6.238975e+01
1.540000e-06	-1.419895e-06	-8.547796e-10	-9.825689e+00	-6.162149e+01
1.550000e-06	-1.374320e-06	-8.444640e-10	-9.510308e+00	-6.083787e+01
1.560000e-06	-1.328626e-06	-8.284553e-10	-9.194106e+00	-6.003859e+01
1.570000e-06	-1.282823e-06	-8.119087e-10	-8.877148e+00	-5.922334e+01
1.580000e-06	-1.236966e-06	-7.941568e-10	-8.559820e+00	-5.839173e+01
1.590000e-06	-1.191061e-06	-7.790311e-10	-8.242159e+00	-5.754332e+01
1.600000e-06	-1.145063e-06	-7.666322e-10	-7.923852e+00	-5.667761e+01
1.610000e-06	-1.099004e-06	-7.577440e-10	-7.605120e+00	-5.579403e+01
1.620000e-06	-1.052900e-06	-7.482293e-10	-7.286081e+00	-5.489194e+01
1.630000e-06	-1.006652e-06	-7.391468e-10	-6.966042e+00	-5.397060e+01
1.640000e-06	-9.602840e-07	-7.286552e-10	-6.645177e+00	-5.302921e+01
1.650000e-06	-9.138314e-07	-7.122091e-10	-6.323725e+00	-5.206689e+01
1.660000e-06	-8.674337e-07	-6.909401e-10	-6.002652e+00	-5.108267e+01
1.670000e-06	-8.210292e-07	-6.703197e-10	-5.681532e+00	-5.007553e+01
1.680000e-06	-7.745046e-07	-6.532820e-10	-5.359581e+00	-4.904435e+01
1.690000e-06	-7.279406e-07	-6.388639e-10	-5.037358e+00	-4.798797e+01
1.700000e-06	-6.812790e-07	-6.231452e-10	-4.714459e+00	-4.690516e+01
1.710000e-06	-6.345166e-07	-6.081635e-10	-4.390863e+00	-4.579468e+01
1.720000e-06	-5.877402e-07	-5.939623e-10	-4.067170e+00	-4.465522e+01
1.730000e-06	-5.409568e-07	-5.745990e-10	-3.743428e+00	-4.348547e+01
1.740000e-06	-4.940497e-07	-5.508680e-10	-3.418830e+00	-4.228414e+01
1.750000e-06	-4.470504e-07	-5.263874e-10	-3.093594e+00	-4.104993e+01
1.760000e-06	-4.000227e-07	-5.049056e-10	-2.768162e+00	-3.978157e+01
1.770000e-06	-3.530221e-07	-4.830901e-10	-2.442918e+00	-3.847788e+01
1.780000e-06	-3.060338e-07	-4.632886e-10	-2.117758e+00	-3.713770e+01
1.790000e-06	-2.590408e-07	-4.456595e-10	-1.792566e+00	-3.576001e+01
1.800000e-06	-2.120936e-07	-4.274639e-10	-1.467691e+00	-3.434386e+01
1.810000e-06	-1.651848e-07	-4.068405e-10	-1.143081e+00	-3.288844e+01
1.820000e-06	-1.182118e-07	-3.847340e-10	-8.180268e-01	-3.139310e+01
1.830000e-06	-7.114895e-08	-3.618864e-10	-4.923516e-01	-2.985731e+01
1.840000e-06	-2.407020e-08	-3.385695e-10	-1.665661e-01	-2.828076e+01
1.850000e-06	2.298483e-08	-3.146476e-10	1.590553e-01	-2.666329e+01
1.860000e-06	7.003014e-08	-2.922712e-10	4.846094e-01	-2.500497e+01
1.870000e-06	1.171661e-07	-2.695339e-10	8.107910e-01	-2.330607e+01
1.880000e-06	1.643378e-07	-2.472406e-10	1.137219e+00	-2.156706e+01
1.890000e-06	2.113877e-07	-2.234568e-10	1.462806e+00	-1.978865e+01
1.900000e-06	2.583843e-07	-1.949705e-10	1.788023e+00	-1.797175e+01
1.910000e-06	3.053927e-07	-1.636067e-10	2.113321e+00	-1.611753e+01
1.920000e-06	3.523684e-07	-1.336430e-10	2.438394e+00	-1.422735e+01
1.930000e-06	3.993007e-07	-1.067014e-10	2.763166e+00	-1.230278e+01
1.940000e-06	4.461688e-07	-8.116254e-11	3.087494e+00	-1.034562e+01
1.950000e-06	4.930447e-07	-5.427692e-11	3.411876e+00	-8.357854e+00
1.960000e-06	5.398997e-07	-2.675831e-11	3.736113e+00	-6.341644e+00
1.970000e-06	5.866548e-07	6.797502e-13	4.059659e+00	-4.299333e+00
1.980000e-06	6.332884e-07	2.974082e-11	4.382364e+00	-2.233412e+00
1.990000e-06	6.798664e-07	6.032954e-11	4.704684e+00	-1.465115e-01
2.000000e-06	7.264114e-07	9.254360e-11	5.026776e+00	1.958623e+00
2.010000e-06	7.729372e-07	1.256493e-10	5.348735e+00	4.079147e+00
2.020000e-06	8.194520e-07	1.551784e-10	5.670618e+00	6.212136e+00
2.030000e-06	8.658495e-07	1.826096e-10	5.991689e+00	8.354613e+00
2.040000e-06	9.122099e-07	2.100636e-10	6.312504e+00	1.050356e+01
2.050000e-06	9.584913e-07	2.359661e-10	6.632772e+00	1.265595e+01
2.060000e-06	1.004719e-06	2.648500e-10	6.952670e+00	1.480876e+01
2.070000e-06	1.050951e-06	2.982552e-10	7.272597e+00	1.695898e+01
2.080000e-06	1.097074e-06	3.325693e-10	7.591769e+00	1.910365e+01
2.090000e-06	1.143082e-06	3.644932e-10	7.910143e+00	2.123989e+01
2.100000e-06	1.188941e-06	3.962760e-10	8.227485e+00	2.336486e+01
2.110000e-06	1.234681e-06	4.269630e-10	8.544010e+00	2.547585e+01
2.120000e-06	1.280407e-06	4.553431e-10	8.860432e+00	2.757023e+01
2.130000e-06	1.326130e-06	4.837173e-10	9.176836e+00	2.964549e+01
2.140000e-06	1.371790e-06	5.110736e-10	9.492806e+00	3.169926e+01
2.150000e-06	1.417402e-06	5.369657e-10	9.808439e+00	3.372929e+01
2.160000e-06	1.462866e-06	5.639550e-10	1.012305e+01	3.573348e+01
2.170000e-06	1.508123e-06	5.917939e-10	1.043623e+01	3.770987e+01
2.180000e-06	1.553302e-06	6.200136e-10	1.074887e+01	3.965667e+01
2.190000e-06	1.598402e-06	6.476914e-10	1.106096e+01	4.157220e+01
2.200000e-06	1.643301e-06	6.756244e-10	1.137166e+01	4.345499e+01
2.210000e-06	1.688056e-06	7.018578e-10	1.168137e+01	4.530367e+01
2.220000e-06	1.732730e-06	7.274859e-10	1.199051e+01	4.711705e+01
2.230000e-06	1.777308e-06	7.517847e-10	1.229899e+01	4.889409e+01
2.240000e-06	1.821782e-06	7.730139e-10	1.260675e+01	5.063387e+01
2.250000e-06	1.866054e-06	7.920913e-10	1.291311e+01	5.233564e+01
2.260000e-06	1.910202e-06	8.115904e-10	1.321862e+01	5.399876e+01
2.270000e-06	1.954322e-06	8.337184e-10	1.352393e+01	5.562274e+01
2.280000e-06	1.998309e-06	8.574312e-10	1.382832e+01	5.720722e+01
2.290000e-06	2.042156e-06	8.820108e-10	1.413175e+01	5.875193e+01
2.300000e-06	2.085933e-06	9.033160e-10	1.443468e+01	6.025675e+01
2.310000e-06	2.129644e-06	9.228488e-10	1.473716e+01	6.172165e+01
2.320000e-06	2.173341e-06	9.414272e-10	1.503955e+01	6.314671e+01
2.330000e-06	2.217012e-06	9.593539e-10	1.534175e+01	6.453213e+01
2.340000e-06	2.260584e-06	9.763096e-10	1.564327e+01	6.587816e+01
2.350000e-06	2.303997e-06	9.942762e-10	1.594369e+01	6.718518e+01
2.360000e-06	2.347174e-06	1.012735e-09	1.624247e+01	6.845363e+01
2.370000e-06	2.390060e-06	1.029849e-09	1.653924e+01	6.968405e+01
2.380000e-06	2.432675e-06	1.046665e-09	1.683414e+01	7.087704e+01
2.390000e-06	2.475101e-06	1.062969e-09	1.712773e+01	7.203328e+01
2.400000e-06	2.517246e-06	1.079567e-09	1.741937e+01	7.315351e+01
2.410000e-06	2.558916e-06	1.095546e-09	1.770773e+01	7.423853e+01
2.420000e-06	2.600237e-06	1.109440e-09	1.799367e+01	7.528921e+01
2.430000e-06	2.641332e-06	1.120978e-09	1.827805e+01	7.630644e+01
2.440000e-06	2.682169e-06	1.132106e-09	1.856064e+01	7.729118e+01
2.450000e-06	2.722790e-06	1.143893e-09	1.884174e+01	7.824442e+01
2.460000e-06	2.763113e-06	1.156411e-09	1.912077e+01	7.916719e+01
2.470000e-06	2.803188e-06	1.169074e-09	1.939810e+01	8.006055e+01
2.480000e-06	2.843164e-06	1.181564e-09	1.967473e+01	8.092555e+01
2.490000e-06	2.883006e-06	1.194301e-09	1.995043e+01	8.176328e+01
2.500000e-06	2.922744e-06	1.207965e-09	2.022543e+01	8.257484e+01
2.510000e-06	2.962369e-06	1.218590e-09	2.049963e+01	8.336130e+01
2.520000e-06	3.001826e-06	1.226219e-09	2.077267e+01	8.412375e+01
2.530000e-06	3.041133e-06	1.232845e-09	2.104468e+01	8.486324e+01
2.540000e-06	3.080292e-06	1.238893e-09	2.131566e+01	8.558081e+01
2.550000e-06	3.119183e-06	1.246798e-09	2.158478e+01	8.627746e+01
2.560000e-06	3.157764e-06	1.255655e-09	2.185177e+01	8.695416e+01
2.570000e-06	3.196119e-06	1.265283e-09	2.211718e+01	8.761183e+01
2.580000e-06	3.234255e-06	1.276442e-09	2.238108e+01	8.825134e+01
2.590000e-06	3.272222e-06	1.286794e-09	2.264381e+01	8.887349e+01
2.600000e-06	3.310062e-06	1.295842e-09	2.290567e+01	8.947906e+01
2.610000e-06	3.347727e-06	1.304354e-09	2.316631e+01	9.006871e+01
2.620000e-06	3.385132e-06	1.311846e-09	2.342516e+01	9.064309e+01
2.630000e-06	3.422293e-06	1.318892e-09	2.368231e+01	9.120274e+01
2.640000e-06	3.459231e-06	1.326310e-09	2.393792e+01	9.174815e+01
2.650000e-06	3.495790e-06	1.334752e-09	2.419091e+01	9.227974e+01
2.660000e-06	3.532042e-06	1.342437e-09	2.444177e+01	9.279788e+01
2.670000e-06	3.568207e-06	1.350333e-09	2.469203e+01	9.330284e+01
2.680000e-06	3.604199e-06	1.359450e-09	2.494110e+01	9.379487e+01
2.690000e-06	3.640004e-06	1.368062e-09	2.518887e+01	9.427415e+01
2.700000e-06	3.675703e-06	1.378882e-09	2.543591e+01	9.474080e+01
2.710000e-06	3.711262e-06	1.387680e-09	2.568198e+01	9.519493e+01
2.720000e-06	3.746657e-06	1.393848e-09	2.592692e+01	9.563659e+01
2.730000e-06	3.781782e-06	1.398394e-09	2.616997e+01	9.606580e+01
2.740000e-06	3.816541e-06	1.401121e-09	2.641051e+01	9.648260e+01
2.750000e-06	3.850872e-06	1.403996e-09	2.664808e+01	9.688698e+01
2.760000e-06	3.884649e-06	1.407937e-09	2.688182e+01	9.727896e+01
2.770000e-06	3.917944e-06	1.414765e-09	2.711222e+01	9.765854e+01
2.780000e-06	3.950800e-06	1.423122e-09	2.733958e+01	9.802576e+01
2.790000e-06	3.983232e-06	1.434391e-09	2.756402e+01	9.838066e+01
2.800000e-06	4.015429e-06	1.445580e-09	2.778682e+01	9.872335e+01
2.810000e-06	4.047467e-06	1.452620e-09	2.800852e+01	9.905392e+01
2.820000e-06	4.079301e-06	1.453910e-09	2.822881e+01	9.937255e+01
2.830000e-06	4.110912e-06	1.454149e-09	2.844756e+01	9.967943e+01
2.840000e-06	4.142339e-06	1.456819e-09	2.866504e+01	9.997483e+01
2.850000e-06	4.173559e-06	1.459435e-09	2.888108e+01	1.002590e+02
2.860000e-06	4.204463e-06	1.461873e-09	2.909494e+01	1.005324e+02
2.870000e-06	4.234993e-06	1.467688e-09	2.930620e+01	1.007953e+02
2.880000e-06	4.265207e-06	1.476388e-09	2.951529e+01	1.010482e+02
2.890000e-06	4.295185e-06	1.482469e-09	2.972273e+01	1.012916e+02
2.900000e-06	4.324874e-06	1.484550e-09	2.992818e+01	1.015261e+02
