# Temperatura_=_-7.4
# Concentracion g/m^3_=_1620.0
# C_Vs_to_Am_M_A/Vsm_=_65563218390.804596
# pendiente_HvsI_1/m_=_3716.3
# ordenada_HvsI_A/m_=_1297.0
# frecuencia_Hz_=_135103.12586201433

Tiempo_(s)	Campo_(V.s)	Magnetizacion_(V.s)	Campo_(kA/m)	Magnetizacion_(A/m)
0.000000e+00	-5.535843e-06	-1.256038e-09	-3.837059e+01	-8.198012e+01
1.000000e-08	-5.536037e-06	-1.253759e-09	-3.837194e+01	-8.191786e+01
2.000000e-08	-5.535898e-06	-1.254782e-09	-3.837097e+01	-8.186074e+01
3.000000e-08	-5.535339e-06	-1.259363e-09	-3.836710e+01	-8.180881e+01
4.000000e-08	-5.534339e-06	-1.260976e-09	-3.836016e+01	-8.176200e+01
5.000000e-08	-5.532720e-06	-1.254272e-09	-3.834894e+01	-8.172013e+01
6.000000e-08	-5.530505e-06	-1.237179e-09	-3.833359e+01	-8.168290e+01
7.000000e-08	-5.527750e-06	-1.226121e-09	-3.831450e+01	-8.164988e+01
8.000000e-08	-5.524463e-06	-1.277563e-09	-3.829171e+01	-8.162055e+01
9.000000e-08	-5.520691e-06	-1.353361e-09	-3.826556e+01	-8.159429e+01
1.000000e-07	-5.516478e-06	-1.317661e-09	-3.823636e+01	-8.157036e+01
1.100000e-07	-5.512048e-06	-1.196225e-09	-3.820566e+01	-8.154797e+01
1.200000e-07	-5.507535e-06	-1.186879e-09	-3.817438e+01	-8.152625e+01
1.300000e-07	-5.502763e-06	-1.285195e-09	-3.814130e+01	-8.150429e+01
1.400000e-07	-5.497526e-06	-1.317534e-09	-3.810500e+01	-8.148112e+01
1.500000e-07	-5.491836e-06	-1.203578e-09	-3.806556e+01	-8.145579e+01
1.600000e-07	-5.485881e-06	-1.194494e-09	-3.802429e+01	-8.142732e+01
1.700000e-07	-5.479494e-06	-1.287145e-09	-3.798002e+01	-8.139477e+01
1.800000e-07	-5.472577e-06	-1.338760e-09	-3.793208e+01	-8.135722e+01
1.900000e-07	-5.465280e-06	-1.228841e-09	-3.788150e+01	-8.131381e+01
2.000000e-07	-5.457696e-06	-1.184503e-09	-3.782893e+01	-8.126377e+01
2.100000e-07	-5.449894e-06	-1.253023e-09	-3.777485e+01	-8.120639e+01
2.200000e-07	-5.441901e-06	-1.325692e-09	-3.771945e+01	-8.114107e+01
2.300000e-07	-5.433562e-06	-1.276166e-09	-3.766165e+01	-8.106733e+01
2.400000e-07	-5.424638e-06	-1.216725e-09	-3.759979e+01	-8.098479e+01
2.500000e-07	-5.415038e-06	-1.242110e-09	-3.753325e+01	-8.089321e+01
2.600000e-07	-5.404768e-06	-1.267697e-09	-3.746207e+01	-8.079250e+01
2.700000e-07	-5.393935e-06	-1.236607e-09	-3.738698e+01	-8.068267e+01
2.800000e-07	-5.382666e-06	-1.199693e-09	-3.730887e+01	-8.056389e+01
2.900000e-07	-5.371009e-06	-1.237167e-09	-3.722807e+01	-8.043645e+01
3.000000e-07	-5.358973e-06	-1.243873e-09	-3.714465e+01	-8.030078e+01
3.100000e-07	-5.346562e-06	-1.214915e-09	-3.705862e+01	-8.015741e+01
3.200000e-07	-5.333658e-06	-1.178129e-09	-3.696918e+01	-8.000699e+01
3.300000e-07	-5.320323e-06	-1.225254e-09	-3.687676e+01	-7.985025e+01
3.400000e-07	-5.306683e-06	-1.222916e-09	-3.678221e+01	-7.968804e+01
3.500000e-07	-5.292599e-06	-1.194072e-09	-3.668459e+01	-7.952122e+01
3.600000e-07	-5.278067e-06	-1.186564e-09	-3.658387e+01	-7.935075e+01
3.700000e-07	-5.263157e-06	-1.238722e-09	-3.648052e+01	-7.917759e+01
3.800000e-07	-5.247625e-06	-1.203456e-09	-3.637287e+01	-7.900274e+01
3.900000e-07	-5.231527e-06	-1.178167e-09	-3.626128e+01	-7.882717e+01
4.000000e-07	-5.215093e-06	-1.214701e-09	-3.614737e+01	-7.865186e+01
4.100000e-07	-5.198303e-06	-1.227515e-09	-3.603100e+01	-7.847773e+01
4.200000e-07	-5.181113e-06	-1.158404e-09	-3.591185e+01	-7.830565e+01
4.300000e-07	-5.163601e-06	-1.180229e-09	-3.579046e+01	-7.813643e+01
4.400000e-07	-5.145836e-06	-1.241165e-09	-3.566733e+01	-7.797080e+01
4.500000e-07	-5.127654e-06	-1.194250e-09	-3.554131e+01	-7.780938e+01
4.600000e-07	-5.108953e-06	-1.144988e-09	-3.541169e+01	-7.765272e+01
4.700000e-07	-5.089886e-06	-1.202313e-09	-3.527953e+01	-7.750123e+01
4.800000e-07	-5.070567e-06	-1.206514e-09	-3.514562e+01	-7.735522e+01
4.900000e-07	-5.051017e-06	-1.147390e-09	-3.501012e+01	-7.721488e+01
5.000000e-07	-5.031295e-06	-1.180449e-09	-3.487342e+01	-7.708030e+01
5.100000e-07	-5.011374e-06	-1.209670e-09	-3.473533e+01	-7.695143e+01
5.200000e-07	-4.991115e-06	-1.151879e-09	-3.459491e+01	-7.682812e+01
5.300000e-07	-4.970438e-06	-1.156287e-09	-3.445160e+01	-7.671012e+01
5.400000e-07	-4.949362e-06	-1.217804e-09	-3.430551e+01	-7.659709e+01
5.500000e-07	-4.927903e-06	-1.169467e-09	-3.415677e+01	-7.648857e+01
5.600000e-07	-4.906082e-06	-1.125771e-09	-3.400553e+01	-7.638407e+01
5.700000e-07	-4.883989e-06	-1.175371e-09	-3.385239e+01	-7.628300e+01
5.800000e-07	-4.861577e-06	-1.185700e-09	-3.369705e+01	-7.618475e+01
5.900000e-07	-4.838732e-06	-1.135825e-09	-3.353871e+01	-7.608864e+01
6.000000e-07	-4.815619e-06	-1.161034e-09	-3.337850e+01	-7.599399e+01
6.100000e-07	-4.792259e-06	-1.179207e-09	-3.321658e+01	-7.590011e+01
6.200000e-07	-4.768646e-06	-1.139980e-09	-3.305292e+01	-7.580630e+01
6.300000e-07	-4.744838e-06	-1.131716e-09	-3.288790e+01	-7.571191e+01
6.400000e-07	-4.720713e-06	-1.160348e-09	-3.272068e+01	-7.561627e+01
6.500000e-07	-4.696142e-06	-1.135575e-09	-3.255037e+01	-7.551880e+01
6.600000e-07	-4.671133e-06	-1.127591e-09	-3.237702e+01	-7.541894e+01
6.700000e-07	-4.645613e-06	-1.151263e-09	-3.220014e+01	-7.531620e+01
6.800000e-07	-4.619524e-06	-1.148751e-09	-3.201931e+01	-7.521015e+01
6.900000e-07	-4.592929e-06	-1.129350e-09	-3.183497e+01	-7.510043e+01
7.000000e-07	-4.565910e-06	-1.144449e-09	-3.164769e+01	-7.498677e+01
7.100000e-07	-4.538567e-06	-1.137948e-09	-3.145817e+01	-7.486896e+01
7.200000e-07	-4.510999e-06	-1.117701e-09	-3.126709e+01	-7.474686e+01
7.300000e-07	-4.483280e-06	-1.121851e-09	-3.107496e+01	-7.462041e+01
7.400000e-07	-4.455308e-06	-1.131550e-09	-3.088108e+01	-7.448963e+01
7.500000e-07	-4.427053e-06	-1.118065e-09	-3.068523e+01	-7.435459e+01
7.600000e-07	-4.398584e-06	-1.114177e-09	-3.048791e+01	-7.421542e+01
7.700000e-07	-4.369819e-06	-1.116697e-09	-3.028852e+01	-7.407231e+01
7.800000e-07	-4.340617e-06	-1.106325e-09	-3.008612e+01	-7.392550e+01
7.900000e-07	-4.311077e-06	-1.102986e-09	-2.988137e+01	-7.377525e+01
8.000000e-07	-4.281279e-06	-1.107109e-09	-2.967483e+01	-7.362186e+01
8.100000e-07	-4.251250e-06	-1.094617e-09	-2.946669e+01	-7.346563e+01
8.200000e-07	-4.220943e-06	-1.080306e-09	-2.925663e+01	-7.330689e+01
8.300000e-07	-4.190260e-06	-1.085914e-09	-2.904395e+01	-7.314597e+01
8.400000e-07	-4.159315e-06	-1.082914e-09	-2.882946e+01	-7.298316e+01
8.500000e-07	-4.128163e-06	-1.073972e-09	-2.861354e+01	-7.281878e+01
8.600000e-07	-4.096821e-06	-1.076038e-09	-2.839630e+01	-7.265309e+01
8.700000e-07	-4.065303e-06	-1.076527e-09	-2.817783e+01	-7.248633e+01
8.800000e-07	-4.033578e-06	-1.060777e-09	-2.795794e+01	-7.231873e+01
8.900000e-07	-4.001650e-06	-1.059373e-09	-2.773664e+01	-7.215044e+01
9.000000e-07	-3.969414e-06	-1.061773e-09	-2.751320e+01	-7.198161e+01
9.100000e-07	-3.936862e-06	-1.055026e-09	-2.728757e+01	-7.181232e+01
9.200000e-07	-3.903983e-06	-1.051195e-09	-2.705968e+01	-7.164262e+01
9.300000e-07	-3.870671e-06	-1.063596e-09	-2.682878e+01	-7.147251e+01
9.400000e-07	-3.836869e-06	-1.061804e-09	-2.659449e+01	-7.130195e+01
9.500000e-07	-3.802584e-06	-1.051973e-09	-2.635685e+01	-7.113087e+01
9.600000e-07	-3.767896e-06	-1.049173e-09	-2.611642e+01	-7.095916e+01
9.700000e-07	-3.732823e-06	-1.045741e-09	-2.587331e+01	-7.078667e+01
9.800000e-07	-3.697497e-06	-1.031831e-09	-2.562846e+01	-7.061325e+01
9.900000e-07	-3.661995e-06	-1.029419e-09	-2.538239e+01	-7.043869e+01
1.000000e-06	-3.626298e-06	-1.030559e-09	-2.513496e+01	-7.026281e+01
1.010000e-06	-3.590422e-06	-1.025220e-09	-2.488629e+01	-7.008538e+01
1.020000e-06	-3.554431e-06	-1.021048e-09	-2.463683e+01	-6.990618e+01
1.030000e-06	-3.518324e-06	-1.025106e-09	-2.438656e+01	-6.972500e+01
1.040000e-06	-3.481980e-06	-1.020339e-09	-2.413465e+01	-6.954163e+01
1.050000e-06	-3.445320e-06	-1.009102e-09	-2.388055e+01	-6.935586e+01
1.060000e-06	-3.408354e-06	-1.005085e-09	-2.362432e+01	-6.916750e+01
1.070000e-06	-3.371161e-06	-1.004711e-09	-2.336653e+01	-6.897638e+01
1.080000e-06	-3.333691e-06	-1.002262e-09	-2.310681e+01	-6.878235e+01
1.090000e-06	-3.295962e-06	-1.002696e-09	-2.284530e+01	-6.858528e+01
1.100000e-06	-3.258106e-06	-1.002990e-09	-2.258291e+01	-6.838505e+01
1.110000e-06	-3.220046e-06	-9.926585e-10	-2.231910e+01	-6.818158e+01
1.120000e-06	-3.181716e-06	-9.803341e-10	-2.205343e+01	-6.797481e+01
1.130000e-06	-3.143119e-06	-9.728942e-10	-2.178590e+01	-6.776469e+01
1.140000e-06	-3.104294e-06	-9.671815e-10	-2.151679e+01	-6.755119e+01
1.150000e-06	-3.065322e-06	-9.623198e-10	-2.124667e+01	-6.733430e+01
1.160000e-06	-3.026160e-06	-9.629512e-10	-2.097522e+01	-6.711404e+01
1.170000e-06	-2.986799e-06	-9.610186e-10	-2.070240e+01	-6.689040e+01
1.180000e-06	-2.947260e-06	-9.596021e-10	-2.042835e+01	-6.666341e+01
1.190000e-06	-2.907611e-06	-9.585040e-10	-2.015353e+01	-6.643310e+01
1.200000e-06	-2.867857e-06	-9.549694e-10	-1.987798e+01	-6.619947e+01
1.210000e-06	-2.827938e-06	-9.462615e-10	-1.960129e+01	-6.596255e+01
1.220000e-06	-2.787857e-06	-9.401777e-10	-1.932347e+01	-6.572234e+01
1.230000e-06	-2.747676e-06	-9.375985e-10	-1.904496e+01	-6.547883e+01
1.240000e-06	-2.707275e-06	-9.350953e-10	-1.876493e+01	-6.523198e+01
1.250000e-06	-2.666534e-06	-9.314163e-10	-1.848255e+01	-6.498177e+01
1.260000e-06	-2.625547e-06	-9.302627e-10	-1.819845e+01	-6.472811e+01
1.270000e-06	-2.584308e-06	-9.254165e-10	-1.791262e+01	-6.447091e+01
1.280000e-06	-2.542837e-06	-9.171633e-10	-1.762517e+01	-6.421005e+01
1.290000e-06	-2.501008e-06	-9.085994e-10	-1.733523e+01	-6.394539e+01
1.300000e-06	-2.458738e-06	-9.042087e-10	-1.704225e+01	-6.367675e+01
1.310000e-06	-2.416094e-06	-9.009593e-10	-1.674667e+01	-6.340393e+01
1.320000e-06	-2.373192e-06	-8.987382e-10	-1.644930e+01	-6.312670e+01
1.330000e-06	-2.330210e-06	-8.958607e-10	-1.615139e+01	-6.284479e+01
1.340000e-06	-2.287064e-06	-8.929301e-10	-1.585232e+01	-6.255793e+01
1.350000e-06	-2.243687e-06	-8.905026e-10	-1.555167e+01	-6.226580e+01
1.360000e-06	-2.200133e-06	-8.871418e-10	-1.524978e+01	-6.196807e+01
1.370000e-06	-2.156485e-06	-8.820165e-10	-1.494725e+01	-6.166440e+01
1.380000e-06	-2.112794e-06	-8.756791e-10	-1.464441e+01	-6.135439e+01
1.390000e-06	-2.068993e-06	-8.694074e-10	-1.434081e+01	-6.103766e+01
1.400000e-06	-2.025114e-06	-8.635732e-10	-1.403667e+01	-6.071381e+01
1.410000e-06	-1.981202e-06	-8.589344e-10	-1.373230e+01	-6.038240e+01
1.420000e-06	-1.937186e-06	-8.530755e-10	-1.342722e+01	-6.004300e+01
1.430000e-06	-1.893051e-06	-8.478520e-10	-1.312130e+01	-5.969515e+01
1.440000e-06	-1.848775e-06	-8.421517e-10	-1.281442e+01	-5.933840e+01
1.450000e-06	-1.804352e-06	-8.353696e-10	-1.250651e+01	-5.897226e+01
1.460000e-06	-1.759901e-06	-8.269498e-10	-1.219840e+01	-5.859624e+01
1.470000e-06	-1.715391e-06	-8.171757e-10	-1.188989e+01	-5.820986e+01
1.480000e-06	-1.670691e-06	-8.071283e-10	-1.158006e+01	-5.781258e+01
1.490000e-06	-1.625839e-06	-7.987861e-10	-1.126917e+01	-5.740390e+01
1.500000e-06	-1.580839e-06	-7.906761e-10	-1.095727e+01	-5.698325e+01
1.510000e-06	-1.535655e-06	-7.837197e-10	-1.064408e+01	-5.655010e+01
1.520000e-06	-1.490353e-06	-7.765540e-10	-1.033009e+01	-5.610385e+01
1.530000e-06	-1.444981e-06	-7.663812e-10	-1.001560e+01	-5.564392e+01
1.540000e-06	-1.399546e-06	-7.536414e-10	-9.700674e+00	-5.516968e+01
1.550000e-06	-1.353982e-06	-7.424059e-10	-9.384853e+00	-5.468051e+01
1.560000e-06	-1.308253e-06	-7.339244e-10	-9.067897e+00	-5.417573e+01
1.570000e-06	-1.262464e-06	-7.289099e-10	-8.750513e+00	-5.365467e+01
1.580000e-06	-1.216685e-06	-7.235544e-10	-8.433208e+00	-5.311661e+01
1.590000e-06	-1.170852e-06	-7.167526e-10	-8.115525e+00	-5.256081e+01
1.600000e-06	-1.124885e-06	-7.079911e-10	-7.796916e+00	-5.198651e+01
1.610000e-06	-1.078770e-06	-6.987308e-10	-7.477281e+00	-5.139293e+01
1.620000e-06	-1.032529e-06	-6.899155e-10	-7.156765e+00	-5.077926e+01
1.630000e-06	-9.862853e-07	-6.830402e-10	-6.836239e+00	-5.014466e+01
1.640000e-06	-9.400168e-07	-6.760165e-10	-6.515538e+00	-4.948828e+01
1.650000e-06	-8.935899e-07	-6.666178e-10	-6.193740e+00	-4.880926e+01
1.660000e-06	-8.471584e-07	-6.550174e-10	-5.871909e+00	-4.810672e+01
1.670000e-06	-8.007590e-07	-6.412322e-10	-5.550301e+00	-4.737976e+01
1.680000e-06	-7.542376e-07	-6.270411e-10	-5.227847e+00	-4.662751e+01
1.690000e-06	-7.076834e-07	-6.125989e-10	-4.905166e+00	-4.584906e+01
1.700000e-06	-6.611178e-07	-5.978240e-10	-4.582406e+00	-4.504355e+01
1.710000e-06	-6.144049e-07	-5.848216e-10	-4.258624e+00	-4.421010e+01
1.720000e-06	-5.676287e-07	-5.736422e-10	-3.934405e+00	-4.334787e+01
1.730000e-06	-5.208435e-07	-5.607732e-10	-3.610123e+00	-4.245603e+01
1.740000e-06	-4.739861e-07	-5.465303e-10	-3.285340e+00	-4.153381e+01
1.750000e-06	-4.271354e-07	-5.305864e-10	-2.960604e+00	-4.058047e+01
1.760000e-06	-3.802541e-07	-5.134704e-10	-2.635655e+00	-3.959530e+01
1.770000e-06	-3.333359e-07	-4.960891e-10	-2.310451e+00	-3.857767e+01
1.780000e-06	-2.864537e-07	-4.802031e-10	-1.985497e+00	-3.752702e+01
1.790000e-06	-2.395426e-07	-4.661749e-10	-1.660341e+00	-3.644283e+01
1.800000e-06	-1.925852e-07	-4.534261e-10	-1.334866e+00	-3.532467e+01
1.810000e-06	-1.455879e-07	-4.401075e-10	-1.009113e+00	-3.417221e+01
1.820000e-06	-9.857724e-08	-4.247895e-10	-6.832684e-01	-3.298518e+01
1.830000e-06	-5.158938e-08	-4.068196e-10	-3.575815e-01	-3.176342e+01
1.840000e-06	-4.659884e-09	-3.879870e-10	-3.229905e-02	-3.050686e+01
1.850000e-06	4.227252e-08	-3.689094e-10	2.930035e-01	-2.921554e+01
1.860000e-06	8.924261e-08	-3.505004e-10	6.185673e-01	-2.788960e+01
1.870000e-06	1.361596e-07	-3.333270e-10	9.437632e-01	-2.652929e+01
1.880000e-06	1.830570e-07	-3.155509e-10	1.268823e+00	-2.513498e+01
1.890000e-06	2.299657e-07	-2.964553e-10	1.593961e+00	-2.370713e+01
1.900000e-06	2.769192e-07	-2.748034e-10	1.919410e+00	-2.224634e+01
1.910000e-06	3.239883e-07	-2.508277e-10	2.245660e+00	-2.075331e+01
1.920000e-06	3.710308e-07	-2.276522e-10	2.571726e+00	-1.922887e+01
1.930000e-06	4.178831e-07	-2.060833e-10	2.896473e+00	-1.767394e+01
1.940000e-06	4.647332e-07	-1.861464e-10	3.221205e+00	-1.608959e+01
1.950000e-06	5.116636e-07	-1.644568e-10	3.546494e+00	-1.447696e+01
1.960000e-06	5.584699e-07	-1.428200e-10	3.870922e+00	-1.283733e+01
1.970000e-06	6.051131e-07	-1.203007e-10	4.194221e+00	-1.117209e+01
1.980000e-06	6.517284e-07	-9.688350e-11	4.517325e+00	-9.482711e+00
1.990000e-06	6.983777e-07	-7.259084e-11	4.840666e+00	-7.770780e+00
2.000000e-06	7.449326e-07	-4.783104e-11	5.163351e+00	-6.037979e+00
2.010000e-06	7.913668e-07	-2.293667e-11	5.485201e+00	-4.286082e+00
2.020000e-06	8.377603e-07	6.106742e-13	5.806768e+00	-2.516948e+00
2.030000e-06	8.841190e-07	2.276373e-11	6.128094e+00	-7.325158e-01
2.040000e-06	9.304331e-07	4.524863e-11	6.449111e+00	1.065199e+00
2.050000e-06	9.766056e-07	7.074556e-11	6.769147e+00	2.874115e+00
2.060000e-06	1.022677e-06	9.845267e-11	7.088482e+00	4.692089e+00
2.070000e-06	1.068738e-06	1.249394e-10	7.407744e+00	6.516929e+00
2.080000e-06	1.114662e-06	1.514597e-10	7.726060e+00	8.346397e+00
2.090000e-06	1.160485e-06	1.781957e-10	8.043672e+00	1.017822e+01
2.100000e-06	1.206250e-06	2.043315e-10	8.360881e+00	1.201010e+01
2.110000e-06	1.251915e-06	2.283819e-10	8.677400e+00	1.383974e+01
2.120000e-06	1.297526e-06	2.511102e-10	8.993539e+00	1.566480e+01
2.130000e-06	1.343083e-06	2.755576e-10	9.309312e+00	1.748299e+01
2.140000e-06	1.388561e-06	3.006587e-10	9.624533e+00	1.929201e+01
2.150000e-06	1.433898e-06	3.272424e-10	9.938778e+00	2.108960e+01
2.160000e-06	1.479158e-06	3.548998e-10	1.025249e+01	2.287354e+01
2.170000e-06	1.524397e-06	3.795556e-10	1.056605e+01	2.464166e+01
2.180000e-06	1.569462e-06	4.026481e-10	1.087841e+01	2.639186e+01
2.190000e-06	1.614383e-06	4.228577e-10	1.118977e+01	2.812210e+01
2.200000e-06	1.659275e-06	4.436964e-10	1.150093e+01	2.983045e+01
2.210000e-06	1.704016e-06	4.673844e-10	1.181105e+01	3.151505e+01
2.220000e-06	1.748530e-06	4.921092e-10	1.211959e+01	3.317418e+01
2.230000e-06	1.792875e-06	5.180454e-10	1.242696e+01	3.480621e+01
2.240000e-06	1.837084e-06	5.436318e-10	1.273338e+01	3.640965e+01
2.250000e-06	1.881214e-06	5.642189e-10	1.303926e+01	3.798313e+01
2.260000e-06	1.925283e-06	5.817878e-10	1.334471e+01	3.952543e+01
2.270000e-06	1.969253e-06	5.951869e-10	1.364948e+01	4.103548e+01
2.280000e-06	2.013167e-06	6.118766e-10	1.395386e+01	4.251235e+01
2.290000e-06	2.057034e-06	6.331204e-10	1.425792e+01	4.395525e+01
2.300000e-06	2.100800e-06	6.584970e-10	1.456128e+01	4.536357e+01
2.310000e-06	2.144457e-06	6.842463e-10	1.486388e+01	4.673684e+01
2.320000e-06	2.187994e-06	7.053550e-10	1.516564e+01	4.807472e+01
2.330000e-06	2.231430e-06	7.212540e-10	1.546671e+01	4.937704e+01
2.340000e-06	2.274771e-06	7.337924e-10	1.576712e+01	5.064378e+01
2.350000e-06	2.317946e-06	7.475166e-10	1.606638e+01	5.187502e+01
2.360000e-06	2.361001e-06	7.624483e-10	1.636481e+01	5.307099e+01
2.370000e-06	2.403882e-06	7.789648e-10	1.666203e+01	5.423204e+01
2.380000e-06	2.446345e-06	7.965651e-10	1.695635e+01	5.535861e+01
2.390000e-06	2.488492e-06	8.137761e-10	1.724848e+01	5.645126e+01
2.400000e-06	2.530561e-06	8.287003e-10	1.754007e+01	5.751061e+01
2.410000e-06	2.572345e-06	8.423628e-10	1.782969e+01	5.853736e+01
2.420000e-06	2.613621e-06	8.529850e-10	1.811579e+01	5.953226e+01
2.430000e-06	2.654499e-06	8.613753e-10	1.839913e+01	6.049613e+01
2.440000e-06	2.695142e-06	8.702503e-10	1.868084e+01	6.142979e+01
2.450000e-06	2.735521e-06	8.815390e-10	1.896072e+01	6.233409e+01
2.460000e-06	2.775692e-06	8.951927e-10	1.923916e+01	6.320988e+01
2.470000e-06	2.815783e-06	9.087050e-10	1.951704e+01	6.405801e+01
2.480000e-06	2.855755e-06	9.197522e-10	1.979409e+01	6.487932e+01
2.490000e-06	2.895557e-06	9.304351e-10	2.006997e+01	6.567460e+01
2.500000e-06	2.935199e-06	9.402980e-10	2.034475e+01	6.644462e+01
2.510000e-06	2.974707e-06	9.494057e-10	2.061858e+01	6.719010e+01
2.520000e-06	3.014062e-06	9.568979e-10	2.089137e+01	6.791171e+01
2.530000e-06	3.053256e-06	9.646164e-10	2.116303e+01	6.861008e+01
2.540000e-06	3.092187e-06	9.747721e-10	2.143288e+01	6.928576e+01
2.550000e-06	3.130881e-06	9.858485e-10	2.170108e+01	6.993927e+01
2.560000e-06	3.169477e-06	9.953151e-10	2.196860e+01	7.057105e+01
2.570000e-06	3.207848e-06	1.003067e-09	2.223456e+01	7.118150e+01
2.580000e-06	3.245952e-06	1.010426e-09	2.249867e+01	7.177098e+01
2.590000e-06	3.283843e-06	1.016142e-09	2.276130e+01	7.233979e+01
2.600000e-06	3.321478e-06	1.020869e-09	2.302216e+01	7.288820e+01
2.610000e-06	3.358826e-06	1.028310e-09	2.328103e+01	7.341645e+01
2.620000e-06	3.395972e-06	1.037011e-09	2.353850e+01	7.392474e+01
2.630000e-06	3.432946e-06	1.045909e-09	2.379478e+01	7.441330e+01
2.640000e-06	3.469614e-06	1.054327e-09	2.404894e+01	7.488232e+01
2.650000e-06	3.505978e-06	1.060835e-09	2.430099e+01	7.533201e+01
2.660000e-06	3.542119e-06	1.067246e-09	2.455149e+01	7.576260e+01
2.670000e-06	3.578097e-06	1.072263e-09	2.480086e+01	7.617433e+01
2.680000e-06	3.613958e-06	1.077100e-09	2.504943e+01	7.656748e+01
2.690000e-06	3.649731e-06	1.079937e-09	2.529738e+01	7.694239e+01
2.700000e-06	3.685406e-06	1.083576e-09	2.554465e+01	7.729942e+01
2.710000e-06	3.720900e-06	1.089793e-09	2.579067e+01	7.763898e+01
2.720000e-06	3.756178e-06	1.097648e-09	2.603519e+01	7.796157e+01
2.730000e-06	3.791140e-06	1.106283e-09	2.627753e+01	7.826771e+01
2.740000e-06	3.825576e-06	1.113608e-09	2.651622e+01	7.855800e+01
2.750000e-06	3.859601e-06	1.118388e-09	2.675205e+01	7.883309e+01
2.760000e-06	3.893210e-06	1.120661e-09	2.698501e+01	7.909369e+01
2.770000e-06	3.926225e-06	1.123533e-09	2.721384e+01	7.934056e+01
2.780000e-06	3.958756e-06	1.126940e-09	2.743932e+01	7.957450e+01
2.790000e-06	3.990981e-06	1.132525e-09	2.766269e+01	7.979636e+01
2.800000e-06	4.023004e-06	1.138880e-09	2.788465e+01	8.000700e+01
2.810000e-06	4.054822e-06	1.143460e-09	2.810519e+01	8.020733e+01
2.820000e-06	4.086458e-06	1.146170e-09	2.832447e+01	8.039825e+01
2.830000e-06	4.117997e-06	1.148915e-09	2.854307e+01	8.058065e+01
2.840000e-06	4.149353e-06	1.152385e-09	2.876041e+01	8.075543e+01
2.850000e-06	4.180354e-06	1.153482e-09	2.897529e+01	8.092345e+01
2.860000e-06	4.211048e-06	1.153585e-09	2.918804e+01	8.108554e+01
2.870000e-06	4.241507e-06	1.157136e-09	2.939916e+01	8.124250e+01
2.880000e-06	4.271601e-06	1.160978e-09	2.960775e+01	8.139504e+01
2.890000e-06	4.301393e-06	1.165018e-09	2.981424e+01	8.154383e+01
2.900000e-06	4.330918e-06	1.167445e-09	3.001889e+01	8.168945e+01
