# Temperatura_=_9.14
# Concentracion g/m^3_=_1620.0
# C_Vs_to_Am_M_A/Vsm_=_65563218390.804596
# pendiente_HvsI_1/m_=_3716.3
# ordenada_HvsI_A/m_=_1297.0
# frecuencia_Hz_=_135098.23474234107

Tiempo_(s)	Campo_(V.s)	Magnetizacion_(V.s)	Campo_(kA/m)	Magnetizacion_(A/m)
0.000000e+00	-5.520329e-06	-1.552939e-09	-3.837258e+01	-1.013028e+02
1.000000e-08	-5.520677e-06	-1.548781e-09	-3.837500e+01	-1.012512e+02
2.000000e-08	-5.520730e-06	-1.544432e-09	-3.837537e+01	-1.012028e+02
3.000000e-08	-5.520414e-06	-1.542860e-09	-3.837317e+01	-1.011581e+02
4.000000e-08	-5.519626e-06	-1.543374e-09	-3.836769e+01	-1.011176e+02
5.000000e-08	-5.518341e-06	-1.544153e-09	-3.835876e+01	-1.010818e+02
6.000000e-08	-5.516559e-06	-1.540019e-09	-3.834638e+01	-1.010509e+02
7.000000e-08	-5.514150e-06	-1.533042e-09	-3.832963e+01	-1.010251e+02
8.000000e-08	-5.511194e-06	-1.543888e-09	-3.830908e+01	-1.010046e+02
9.000000e-08	-5.507830e-06	-1.584519e-09	-3.828570e+01	-1.009892e+02
1.000000e-07	-5.504016e-06	-1.592749e-09	-3.825918e+01	-1.009789e+02
1.100000e-07	-5.499784e-06	-1.522155e-09	-3.822977e+01	-1.009733e+02
1.200000e-07	-5.495285e-06	-1.491665e-09	-3.819850e+01	-1.009719e+02
1.300000e-07	-5.490622e-06	-1.516764e-09	-3.816608e+01	-1.009744e+02
1.400000e-07	-5.485670e-06	-1.554621e-09	-3.813166e+01	-1.009799e+02
1.500000e-07	-5.480310e-06	-1.526846e-09	-3.809440e+01	-1.009878e+02
1.600000e-07	-5.474521e-06	-1.488108e-09	-3.805416e+01	-1.009972e+02
1.700000e-07	-5.468270e-06	-1.522826e-09	-3.801071e+01	-1.010071e+02
1.800000e-07	-5.461525e-06	-1.563832e-09	-3.796383e+01	-1.010165e+02
1.900000e-07	-5.454394e-06	-1.570976e-09	-3.791426e+01	-1.010243e+02
2.000000e-07	-5.447038e-06	-1.530666e-09	-3.786312e+01	-1.010295e+02
2.100000e-07	-5.439420e-06	-1.528880e-09	-3.781017e+01	-1.010309e+02
2.200000e-07	-5.431502e-06	-1.553392e-09	-3.775513e+01	-1.010274e+02
2.300000e-07	-5.423337e-06	-1.564348e-09	-3.769837e+01	-1.010178e+02
2.400000e-07	-5.414842e-06	-1.541328e-09	-3.763933e+01	-1.010011e+02
2.500000e-07	-5.405680e-06	-1.537088e-09	-3.757564e+01	-1.009764e+02
2.600000e-07	-5.395767e-06	-1.550307e-09	-3.750673e+01	-1.009425e+02
2.700000e-07	-5.385276e-06	-1.551088e-09	-3.743381e+01	-1.008987e+02
2.800000e-07	-5.374283e-06	-1.530551e-09	-3.735740e+01	-1.008443e+02
2.900000e-07	-5.362797e-06	-1.517705e-09	-3.727755e+01	-1.007786e+02
3.000000e-07	-5.350917e-06	-1.526127e-09	-3.719497e+01	-1.007010e+02
3.100000e-07	-5.338748e-06	-1.526918e-09	-3.711039e+01	-1.006113e+02
3.200000e-07	-5.326163e-06	-1.514701e-09	-3.702290e+01	-1.005091e+02
3.300000e-07	-5.313156e-06	-1.516706e-09	-3.693249e+01	-1.003944e+02
3.400000e-07	-5.299785e-06	-1.534620e-09	-3.683955e+01	-1.002673e+02
3.500000e-07	-5.285977e-06	-1.531762e-09	-3.674357e+01	-1.001279e+02
3.600000e-07	-5.271649e-06	-1.515854e-09	-3.664397e+01	-9.997658e+01
3.700000e-07	-5.256859e-06	-1.516568e-09	-3.654116e+01	-9.981381e+01
3.800000e-07	-5.241661e-06	-1.507723e-09	-3.643552e+01	-9.964018e+01
3.900000e-07	-5.225961e-06	-1.489310e-09	-3.632638e+01	-9.945637e+01
4.000000e-07	-5.209810e-06	-1.505902e-09	-3.621412e+01	-9.926318e+01
4.100000e-07	-5.193296e-06	-1.522821e-09	-3.609933e+01	-9.906149e+01
4.200000e-07	-5.176366e-06	-1.499412e-09	-3.598164e+01	-9.885224e+01
4.300000e-07	-5.159097e-06	-1.488517e-09	-3.586161e+01	-9.863642e+01
4.400000e-07	-5.141565e-06	-1.523916e-09	-3.573974e+01	-9.841505e+01
4.500000e-07	-5.123634e-06	-1.512168e-09	-3.561509e+01	-9.818917e+01
4.600000e-07	-5.105236e-06	-1.470526e-09	-3.548721e+01	-9.795979e+01
4.700000e-07	-5.086445e-06	-1.480830e-09	-3.535659e+01	-9.772793e+01
4.800000e-07	-5.067322e-06	-1.497008e-09	-3.522367e+01	-9.749454e+01
4.900000e-07	-5.047868e-06	-1.460031e-09	-3.508844e+01	-9.726054e+01
5.000000e-07	-5.028234e-06	-1.459757e-09	-3.495196e+01	-9.702677e+01
5.100000e-07	-5.008466e-06	-1.491461e-09	-3.481455e+01	-9.679397e+01
5.200000e-07	-4.988357e-06	-1.467640e-09	-3.467477e+01	-9.656282e+01
5.300000e-07	-4.967936e-06	-1.442416e-09	-3.453282e+01	-9.633387e+01
5.400000e-07	-4.947128e-06	-1.477111e-09	-3.438818e+01	-9.610758e+01
5.500000e-07	-4.925857e-06	-1.474203e-09	-3.424032e+01	-9.588429e+01
5.600000e-07	-4.904335e-06	-1.432275e-09	-3.409072e+01	-9.566422e+01
5.700000e-07	-4.882539e-06	-1.442740e-09	-3.393921e+01	-9.544748e+01
5.800000e-07	-4.860421e-06	-1.458120e-09	-3.378547e+01	-9.523408e+01
5.900000e-07	-4.837904e-06	-1.424001e-09	-3.362895e+01	-9.502390e+01
6.000000e-07	-4.815000e-06	-1.423016e-09	-3.346974e+01	-9.481674e+01
6.100000e-07	-4.791743e-06	-1.451188e-09	-3.330808e+01	-9.461230e+01
6.200000e-07	-4.768205e-06	-1.431117e-09	-3.314446e+01	-9.441019e+01
6.300000e-07	-4.744516e-06	-1.412658e-09	-3.297980e+01	-9.420996e+01
6.400000e-07	-4.720630e-06	-1.432926e-09	-3.281376e+01	-9.401111e+01
6.500000e-07	-4.696400e-06	-1.424379e-09	-3.264533e+01	-9.381306e+01
6.600000e-07	-4.671672e-06	-1.397918e-09	-3.247345e+01	-9.361523e+01
6.700000e-07	-4.646500e-06	-1.413054e-09	-3.229847e+01	-9.341702e+01
6.800000e-07	-4.620813e-06	-1.418439e-09	-3.211992e+01	-9.321780e+01
6.900000e-07	-4.594517e-06	-1.392407e-09	-3.193713e+01	-9.301697e+01
7.000000e-07	-4.567798e-06	-1.393995e-09	-3.175140e+01	-9.281394e+01
7.100000e-07	-4.540719e-06	-1.406486e-09	-3.156317e+01	-9.260815e+01
7.200000e-07	-4.513307e-06	-1.384709e-09	-3.137263e+01	-9.239910e+01
7.300000e-07	-4.485723e-06	-1.373327e-09	-3.118089e+01	-9.218632e+01
7.400000e-07	-4.457939e-06	-1.384956e-09	-3.098776e+01	-9.196940e+01
7.500000e-07	-4.429939e-06	-1.379486e-09	-3.079312e+01	-9.174799e+01
7.600000e-07	-4.401705e-06	-1.368822e-09	-3.059687e+01	-9.152183e+01
7.700000e-07	-4.373131e-06	-1.377141e-09	-3.039825e+01	-9.129071e+01
7.800000e-07	-4.344244e-06	-1.368749e-09	-3.019745e+01	-9.105449e+01
7.900000e-07	-4.315050e-06	-1.347929e-09	-2.999452e+01	-9.081311e+01
8.000000e-07	-4.285568e-06	-1.348539e-09	-2.978958e+01	-9.056658e+01
8.100000e-07	-4.255798e-06	-1.351320e-09	-2.958265e+01	-9.031496e+01
8.200000e-07	-4.225676e-06	-1.335471e-09	-2.937326e+01	-9.005839e+01
8.300000e-07	-4.195233e-06	-1.331171e-09	-2.916165e+01	-8.979704e+01
8.400000e-07	-4.164450e-06	-1.336247e-09	-2.894767e+01	-8.953113e+01
8.500000e-07	-4.133419e-06	-1.329276e-09	-2.873198e+01	-8.926094e+01
8.600000e-07	-4.102252e-06	-1.323731e-09	-2.851533e+01	-8.898675e+01
8.700000e-07	-4.070908e-06	-1.325483e-09	-2.829745e+01	-8.870889e+01
8.800000e-07	-4.039372e-06	-1.314603e-09	-2.807824e+01	-8.842767e+01
8.900000e-07	-4.007667e-06	-1.300170e-09	-2.785786e+01	-8.814342e+01
9.000000e-07	-3.975771e-06	-1.298338e-09	-2.763614e+01	-8.785647e+01
9.100000e-07	-3.943593e-06	-1.295777e-09	-2.741247e+01	-8.756714e+01
9.200000e-07	-3.911073e-06	-1.287310e-09	-2.718642e+01	-8.727571e+01
9.300000e-07	-3.877995e-06	-1.288098e-09	-2.695649e+01	-8.698245e+01
9.400000e-07	-3.844418e-06	-1.289838e-09	-2.672309e+01	-8.668760e+01
9.500000e-07	-3.810509e-06	-1.281652e-09	-2.648738e+01	-8.639136e+01
9.600000e-07	-3.776160e-06	-1.275136e-09	-2.624861e+01	-8.609388e+01
9.700000e-07	-3.741392e-06	-1.271684e-09	-2.600694e+01	-8.579530e+01
9.800000e-07	-3.706307e-06	-1.259983e-09	-2.576306e+01	-8.549568e+01
9.900000e-07	-3.670981e-06	-1.244520e-09	-2.551750e+01	-8.519506e+01
1.000000e-06	-3.635463e-06	-1.238335e-09	-2.527061e+01	-8.489344e+01
1.010000e-06	-3.599802e-06	-1.234716e-09	-2.502273e+01	-8.459078e+01
1.020000e-06	-3.563989e-06	-1.233301e-09	-2.477379e+01	-8.428698e+01
1.030000e-06	-3.528030e-06	-1.238005e-09	-2.452383e+01	-8.398193e+01
1.040000e-06	-3.491885e-06	-1.240879e-09	-2.427258e+01	-8.367548e+01
1.050000e-06	-3.455506e-06	-1.231997e-09	-2.401971e+01	-8.336746e+01
1.060000e-06	-3.418867e-06	-1.220215e-09	-2.376502e+01	-8.305768e+01
1.070000e-06	-3.381969e-06	-1.213041e-09	-2.350854e+01	-8.274592e+01
1.080000e-06	-3.344779e-06	-1.204431e-09	-2.325003e+01	-8.243195e+01
1.090000e-06	-3.307209e-06	-1.197094e-09	-2.298887e+01	-8.211554e+01
1.100000e-06	-3.269370e-06	-1.197442e-09	-2.272585e+01	-8.179644e+01
1.110000e-06	-3.231428e-06	-1.195642e-09	-2.246211e+01	-8.147441e+01
1.120000e-06	-3.193355e-06	-1.189939e-09	-2.219746e+01	-8.114921e+01
1.130000e-06	-3.155047e-06	-1.183950e-09	-2.193117e+01	-8.082060e+01
1.140000e-06	-3.116513e-06	-1.176842e-09	-2.166332e+01	-8.048833e+01
1.150000e-06	-3.077718e-06	-1.168542e-09	-2.139365e+01	-8.015218e+01
1.160000e-06	-3.038603e-06	-1.162950e-09	-2.112176e+01	-7.981193e+01
1.170000e-06	-2.999372e-06	-1.157919e-09	-2.084906e+01	-7.946734e+01
1.180000e-06	-2.960063e-06	-1.150924e-09	-2.057581e+01	-7.911821e+01
1.190000e-06	-2.920581e-06	-1.147124e-09	-2.030137e+01	-7.876431e+01
1.200000e-06	-2.880946e-06	-1.146131e-09	-2.002586e+01	-7.840543e+01
1.210000e-06	-2.841137e-06	-1.141594e-09	-1.974914e+01	-7.804137e+01
1.220000e-06	-2.801170e-06	-1.135426e-09	-1.947132e+01	-7.767188e+01
1.230000e-06	-2.761071e-06	-1.131531e-09	-1.919259e+01	-7.729675e+01
1.240000e-06	-2.720866e-06	-1.126666e-09	-1.891312e+01	-7.691574e+01
1.250000e-06	-2.680491e-06	-1.118955e-09	-1.863247e+01	-7.652859e+01
1.260000e-06	-2.639926e-06	-1.112568e-09	-1.835049e+01	-7.613504e+01
1.270000e-06	-2.599155e-06	-1.107062e-09	-1.806709e+01	-7.573479e+01
1.280000e-06	-2.557909e-06	-1.099320e-09	-1.778039e+01	-7.532756e+01
1.290000e-06	-2.516291e-06	-1.088837e-09	-1.749109e+01	-7.491300e+01
1.300000e-06	-2.474548e-06	-1.078114e-09	-1.720093e+01	-7.449077e+01
1.310000e-06	-2.432472e-06	-1.068883e-09	-1.690845e+01	-7.406052e+01
1.320000e-06	-2.390082e-06	-1.060596e-09	-1.661380e+01	-7.362184e+01
1.330000e-06	-2.347391e-06	-1.054425e-09	-1.631705e+01	-7.317433e+01
1.340000e-06	-2.304430e-06	-1.047533e-09	-1.601842e+01	-7.271757e+01
1.350000e-06	-2.261333e-06	-1.041784e-09	-1.571885e+01	-7.225113e+01
1.360000e-06	-2.218058e-06	-1.038671e-09	-1.541803e+01	-7.177454e+01
1.370000e-06	-2.174648e-06	-1.033531e-09	-1.511628e+01	-7.128735e+01
1.380000e-06	-2.131172e-06	-1.023524e-09	-1.481407e+01	-7.078911e+01
1.390000e-06	-2.087593e-06	-1.010495e-09	-1.451115e+01	-7.027935e+01
1.400000e-06	-2.043916e-06	-9.979498e-10	-1.420755e+01	-6.975762e+01
1.410000e-06	-2.000180e-06	-9.890844e-10	-1.390353e+01	-6.922346e+01
1.420000e-06	-1.956313e-06	-9.809113e-10	-1.359861e+01	-6.867645e+01
1.430000e-06	-1.912403e-06	-9.734608e-10	-1.329338e+01	-6.811617e+01
1.440000e-06	-1.868521e-06	-9.680122e-10	-1.298835e+01	-6.754222e+01
1.450000e-06	-1.824512e-06	-9.598727e-10	-1.268244e+01	-6.695423e+01
1.460000e-06	-1.780247e-06	-9.466419e-10	-1.237474e+01	-6.635184e+01
1.470000e-06	-1.735752e-06	-9.295700e-10	-1.206545e+01	-6.573474e+01
1.480000e-06	-1.691094e-06	-9.136868e-10	-1.175503e+01	-6.510263e+01
1.490000e-06	-1.646374e-06	-8.989317e-10	-1.144418e+01	-6.445524e+01
1.500000e-06	-1.601594e-06	-8.822535e-10	-1.113290e+01	-6.379231e+01
1.510000e-06	-1.556666e-06	-8.677834e-10	-1.082060e+01	-6.311363e+01
1.520000e-06	-1.511576e-06	-8.583666e-10	-1.050718e+01	-6.241899e+01
1.530000e-06	-1.466310e-06	-8.504949e-10	-1.019252e+01	-6.170819e+01
1.540000e-06	-1.420973e-06	-8.411118e-10	-9.877385e+00	-6.098105e+01
1.550000e-06	-1.375615e-06	-8.288896e-10	-9.562094e+00	-6.023737e+01
1.560000e-06	-1.330152e-06	-8.148419e-10	-9.246070e+00	-5.947698e+01
1.570000e-06	-1.284546e-06	-8.015677e-10	-8.929056e+00	-5.869965e+01
1.580000e-06	-1.238892e-06	-7.895006e-10	-8.611711e+00	-5.790517e+01
1.590000e-06	-1.193168e-06	-7.766656e-10	-8.293879e+00	-5.709328e+01
1.600000e-06	-1.147383e-06	-7.629391e-10	-7.975619e+00	-5.626369e+01
1.610000e-06	-1.101537e-06	-7.510426e-10	-7.656938e+00	-5.541607e+01
1.620000e-06	-1.055618e-06	-7.408453e-10	-7.337748e+00	-5.455002e+01
1.630000e-06	-1.009669e-06	-7.319782e-10	-7.018349e+00	-5.366511e+01
1.640000e-06	-9.636479e-07	-7.230368e-10	-6.698451e+00	-5.276082e+01
1.650000e-06	-9.174819e-07	-7.109460e-10	-6.377545e+00	-5.183659e+01
1.660000e-06	-8.711866e-07	-6.957740e-10	-6.055740e+00	-5.089176e+01
1.670000e-06	-8.248393e-07	-6.777648e-10	-5.733573e+00	-4.992562e+01
1.680000e-06	-7.784252e-07	-6.581310e-10	-5.410943e+00	-4.893739e+01
1.690000e-06	-7.319523e-07	-6.413197e-10	-5.087903e+00	-4.792621e+01
1.700000e-06	-6.854750e-07	-6.252087e-10	-4.764833e+00	-4.689114e+01
1.710000e-06	-6.390012e-07	-6.094016e-10	-4.441787e+00	-4.583122e+01
1.720000e-06	-5.924159e-07	-5.956276e-10	-4.117966e+00	-4.474539e+01
1.730000e-06	-5.457347e-07	-5.801286e-10	-3.793478e+00	-4.363259e+01
1.740000e-06	-4.990597e-07	-5.612528e-10	-3.469034e+00	-4.249169e+01
1.750000e-06	-4.523611e-07	-5.407576e-10	-3.144425e+00	-4.132155e+01
1.760000e-06	-4.056272e-07	-5.195196e-10	-2.819572e+00	-4.012103e+01
1.770000e-06	-3.589099e-07	-4.969631e-10	-2.494833e+00	-3.888899e+01
1.780000e-06	-3.120943e-07	-4.760918e-10	-2.169411e+00	-3.762432e+01
1.790000e-06	-2.652568e-07	-4.572432e-10	-1.843837e+00	-3.632595e+01
1.800000e-06	-2.184233e-07	-4.382627e-10	-1.518291e+00	-3.499286e+01
1.810000e-06	-1.715611e-07	-4.190620e-10	-1.192545e+00	-3.362411e+01
1.820000e-06	-1.247444e-07	-3.998862e-10	-8.671157e-01	-3.221886e+01
1.830000e-06	-7.796677e-08	-3.795223e-10	-5.419579e-01	-3.077637e+01
1.840000e-06	-3.120103e-08	-3.593095e-10	-2.168827e-01	-2.929604e+01
1.850000e-06	1.563005e-08	-3.396312e-10	1.086466e-01	-2.777742e+01
1.860000e-06	6.246770e-08	-3.206980e-10	4.342218e-01	-2.622021e+01
1.870000e-06	1.093072e-07	-3.009944e-10	7.598093e-01	-2.462428e+01
1.880000e-06	1.561396e-07	-2.775861e-10	1.085348e+00	-2.298969e+01
1.890000e-06	2.030046e-07	-2.519495e-10	1.411114e+00	-2.131672e+01
1.900000e-06	2.498865e-07	-2.252726e-10	1.736996e+00	-1.960582e+01
1.910000e-06	2.967372e-07	-1.979360e-10	2.062662e+00	-1.785767e+01
1.920000e-06	3.436074e-07	-1.701545e-10	2.388463e+00	-1.607316e+01
1.930000e-06	3.904639e-07	-1.438526e-10	2.714169e+00	-1.425340e+01
1.940000e-06	4.371979e-07	-1.215045e-10	3.039024e+00	-1.239971e+01
1.950000e-06	4.838525e-07	-9.897603e-11	3.363326e+00	-1.051363e+01
1.960000e-06	5.305215e-07	-7.343632e-11	3.687729e+00	-8.596881e+00
1.970000e-06	5.770936e-07	-4.663489e-11	4.011458e+00	-6.651409e+00
1.980000e-06	6.235562e-07	-1.728404e-11	4.334427e+00	-4.679332e+00
1.990000e-06	6.699566e-07	1.291227e-11	4.656962e+00	-2.682943e+00
2.000000e-06	7.162795e-07	4.378566e-11	4.978959e+00	-6.646924e-01
2.010000e-06	7.626271e-07	7.618830e-11	5.301128e+00	1.372827e+00
2.020000e-06	8.089546e-07	1.062709e-10	5.623157e+00	3.426898e+00
2.030000e-06	8.552158e-07	1.316560e-10	5.944725e+00	5.494700e+00
2.040000e-06	9.014993e-07	1.551980e-10	6.266448e+00	7.573326e+00
2.050000e-06	9.476844e-07	1.805881e-10	6.587487e+00	9.659809e+00
2.060000e-06	9.937694e-07	2.087877e-10	6.907830e+00	1.175113e+01
2.070000e-06	1.039755e-06	2.399889e-10	7.227481e+00	1.384427e+01
2.080000e-06	1.085575e-06	2.751605e-10	7.545983e+00	1.593619e+01
2.090000e-06	1.131304e-06	3.107622e-10	7.863856e+00	1.802387e+01
2.100000e-06	1.176967e-06	3.434800e-10	8.181262e+00	2.010436e+01
2.110000e-06	1.222566e-06	3.733817e-10	8.498228e+00	2.217473e+01
2.120000e-06	1.268124e-06	4.009892e-10	8.814909e+00	2.423217e+01
2.130000e-06	1.313604e-06	4.269590e-10	9.131047e+00	2.627393e+01
2.140000e-06	1.358978e-06	4.524638e-10	9.446449e+00	2.829739e+01
2.150000e-06	1.404267e-06	4.770587e-10	9.761260e+00	3.030007e+01
2.160000e-06	1.449495e-06	5.018475e-10	1.007564e+01	3.227959e+01
2.170000e-06	1.494650e-06	5.283798e-10	1.038952e+01	3.423375e+01
2.180000e-06	1.539735e-06	5.558588e-10	1.070292e+01	3.616049e+01
2.190000e-06	1.584691e-06	5.833369e-10	1.101541e+01	3.805793e+01
2.200000e-06	1.629467e-06	6.105765e-10	1.132665e+01	3.992434e+01
2.210000e-06	1.674055e-06	6.384304e-10	1.163659e+01	4.175817e+01
2.220000e-06	1.718428e-06	6.644799e-10	1.194503e+01	4.355804e+01
2.230000e-06	1.762707e-06	6.876435e-10	1.225282e+01	4.532275e+01
2.240000e-06	1.806926e-06	7.088024e-10	1.256019e+01	4.705126e+01
2.250000e-06	1.851010e-06	7.301115e-10	1.286663e+01	4.874272e+01
2.260000e-06	1.895000e-06	7.518669e-10	1.317241e+01	5.039642e+01
2.270000e-06	1.938894e-06	7.730654e-10	1.347753e+01	5.201181e+01
2.280000e-06	1.982710e-06	7.947992e-10	1.378210e+01	5.358851e+01
2.290000e-06	2.026458e-06	8.166597e-10	1.408619e+01	5.512627e+01
2.300000e-06	2.070123e-06	8.371128e-10	1.438972e+01	5.662497e+01
2.310000e-06	2.113749e-06	8.565804e-10	1.469297e+01	5.808464e+01
2.320000e-06	2.157296e-06	8.752371e-10	1.499567e+01	5.950541e+01
2.330000e-06	2.200758e-06	8.936454e-10	1.529778e+01	6.088751e+01
2.340000e-06	2.244087e-06	9.113009e-10	1.559896e+01	6.223129e+01
2.350000e-06	2.287269e-06	9.274871e-10	1.589913e+01	6.353719e+01
2.360000e-06	2.330370e-06	9.440223e-10	1.619873e+01	6.480570e+01
2.370000e-06	2.373234e-06	9.599067e-10	1.649668e+01	6.603742e+01
2.380000e-06	2.415669e-06	9.744025e-10	1.679165e+01	6.723298e+01
2.390000e-06	2.457835e-06	9.887103e-10	1.708476e+01	6.839308e+01
2.400000e-06	2.499765e-06	1.005286e-09	1.737622e+01	6.951845e+01
2.410000e-06	2.541279e-06	1.023469e-09	1.766478e+01	7.060987e+01
2.420000e-06	2.582477e-06	1.040802e-09	1.795116e+01	7.166815e+01
2.430000e-06	2.623465e-06	1.054496e-09	1.823607e+01	7.269410e+01
2.440000e-06	2.664110e-06	1.064414e-09	1.851860e+01	7.368856e+01
2.450000e-06	2.704416e-06	1.072742e-09	1.879878e+01	7.465238e+01
2.460000e-06	2.744590e-06	1.081081e-09	1.907803e+01	7.558642e+01
2.470000e-06	2.784660e-06	1.092141e-09	1.935656e+01	7.649152e+01
2.480000e-06	2.824539e-06	1.104927e-09	1.963377e+01	7.736853e+01
2.490000e-06	2.864258e-06	1.118480e-09	1.990986e+01	7.821828e+01
2.500000e-06	2.903847e-06	1.133725e-09	2.018504e+01	7.904160e+01
2.510000e-06	2.943258e-06	1.147987e-09	2.045900e+01	7.983929e+01
2.520000e-06	2.982592e-06	1.158458e-09	2.073241e+01	8.061214e+01
2.530000e-06	3.021801e-06	1.165192e-09	2.100496e+01	8.136093e+01
2.540000e-06	3.060759e-06	1.171140e-09	2.127576e+01	8.208639e+01
2.550000e-06	3.099473e-06	1.178584e-09	2.154487e+01	8.278926e+01
2.560000e-06	3.137948e-06	1.186319e-09	2.181232e+01	8.347023e+01
2.570000e-06	3.176172e-06	1.195697e-09	2.207802e+01	8.412999e+01
2.580000e-06	3.214125e-06	1.206781e-09	2.234183e+01	8.476920e+01
2.590000e-06	3.251959e-06	1.218054e-09	2.260482e+01	8.538849e+01
2.600000e-06	3.289635e-06	1.229048e-09	2.286672e+01	8.598846e+01
2.610000e-06	3.327106e-06	1.238609e-09	2.312718e+01	8.656971e+01
2.620000e-06	3.364408e-06	1.245518e-09	2.338647e+01	8.713281e+01
2.630000e-06	3.401458e-06	1.249793e-09	2.364401e+01	8.767832e+01
2.640000e-06	3.438132e-06	1.255524e-09	2.389894e+01	8.820675e+01
2.650000e-06	3.474491e-06	1.263350e-09	2.415168e+01	8.871864e+01
2.660000e-06	3.510710e-06	1.270896e-09	2.440344e+01	8.921448e+01
2.670000e-06	3.546765e-06	1.279303e-09	2.465406e+01	8.969477e+01
2.680000e-06	3.582599e-06	1.288872e-09	2.490315e+01	9.015998e+01
2.690000e-06	3.618252e-06	1.297696e-09	2.515098e+01	9.061059e+01
2.700000e-06	3.653812e-06	1.304928e-09	2.539816e+01	9.104706e+01
2.710000e-06	3.689264e-06	1.310356e-09	2.564459e+01	9.146984e+01
2.720000e-06	3.724531e-06	1.315212e-09	2.588974e+01	9.187940e+01
2.730000e-06	3.759473e-06	1.321762e-09	2.613262e+01	9.227617e+01
2.740000e-06	3.794059e-06	1.329084e-09	2.637304e+01	9.266061e+01
2.750000e-06	3.828219e-06	1.337035e-09	2.661048e+01	9.303316e+01
2.760000e-06	3.861857e-06	1.343010e-09	2.684431e+01	9.339424e+01
2.770000e-06	3.895087e-06	1.345977e-09	2.707530e+01	9.374431e+01
2.780000e-06	3.927947e-06	1.348511e-09	2.730371e+01	9.408379e+01
2.790000e-06	3.960374e-06	1.354053e-09	2.752912e+01	9.441312e+01
2.800000e-06	3.992465e-06	1.362838e-09	2.775218e+01	9.473270e+01
2.810000e-06	4.024306e-06	1.371410e-09	2.797352e+01	9.504297e+01
2.820000e-06	4.055973e-06	1.378781e-09	2.819364e+01	9.534432e+01
2.830000e-06	4.087542e-06	1.384895e-09	2.841308e+01	9.563715e+01
2.840000e-06	4.118907e-06	1.388737e-09	2.863110e+01	9.592184e+01
2.850000e-06	4.150028e-06	1.390189e-09	2.884743e+01	9.619875e+01
2.860000e-06	4.180789e-06	1.388829e-09	2.906125e+01	9.646823e+01
2.870000e-06	4.211148e-06	1.388059e-09	2.927228e+01	9.673059e+01
2.880000e-06	4.241235e-06	1.392002e-09	2.948142e+01	9.698613e+01
2.890000e-06	4.271092e-06	1.399239e-09	2.968896e+01	9.723512e+01
2.900000e-06	4.300662e-06	1.408180e-09	2.989450e+01	9.747780e+01
