# Temperatura_=_12.22
# Concentracion g/m^3_=_1620.0
# C_Vs_to_Am_M_A/Vsm_=_65563218390.804596
# pendiente_HvsI_1/m_=_3716.3
# ordenada_HvsI_A/m_=_1297.0
# frecuencia_Hz_=_135098.42210383923

Tiempo_(s)	Campo_(V.s)	Magnetizacion_(V.s)	Campo_(kA/m)	Magnetizacion_(A/m)
0.000000e+00	-5.521846e-06	-1.640559e-09	-3.836606e+01	-1.083173e+02
1.000000e-08	-5.521970e-06	-1.636446e-09	-3.836693e+01	-1.082641e+02
2.000000e-08	-5.521883e-06	-1.634028e-09	-3.836632e+01	-1.082145e+02
3.000000e-08	-5.521474e-06	-1.632361e-09	-3.836348e+01	-1.081685e+02
4.000000e-08	-5.520559e-06	-1.631017e-09	-3.835712e+01	-1.081262e+02
5.000000e-08	-5.518986e-06	-1.624847e-09	-3.834619e+01	-1.080875e+02
6.000000e-08	-5.516792e-06	-1.608266e-09	-3.833094e+01	-1.080523e+02
7.000000e-08	-5.514013e-06	-1.596429e-09	-3.831164e+01	-1.080200e+02
8.000000e-08	-5.510780e-06	-1.627548e-09	-3.828917e+01	-1.079904e+02
9.000000e-08	-5.507104e-06	-1.705229e-09	-3.826363e+01	-1.079628e+02
1.000000e-07	-5.503017e-06	-1.726617e-09	-3.823524e+01	-1.079365e+02
1.100000e-07	-5.498678e-06	-1.626064e-09	-3.820509e+01	-1.079108e+02
1.200000e-07	-5.494108e-06	-1.516089e-09	-3.817334e+01	-1.078846e+02
1.300000e-07	-5.489277e-06	-1.581293e-09	-3.813977e+01	-1.078572e+02
1.400000e-07	-5.484020e-06	-1.677353e-09	-3.810325e+01	-1.078275e+02
1.500000e-07	-5.478350e-06	-1.643187e-09	-3.806385e+01	-1.077944e+02
1.600000e-07	-5.472326e-06	-1.545573e-09	-3.802199e+01	-1.077571e+02
1.700000e-07	-5.465885e-06	-1.594310e-09	-3.797725e+01	-1.077144e+02
1.800000e-07	-5.459005e-06	-1.712422e-09	-3.792944e+01	-1.076653e+02
1.900000e-07	-5.451713e-06	-1.658011e-09	-3.787878e+01	-1.076089e+02
2.000000e-07	-5.444128e-06	-1.542664e-09	-3.782607e+01	-1.075444e+02
2.100000e-07	-5.436318e-06	-1.558559e-09	-3.777181e+01	-1.074709e+02
2.200000e-07	-5.428285e-06	-1.685435e-09	-3.771600e+01	-1.073877e+02
2.300000e-07	-5.420023e-06	-1.686223e-09	-3.765859e+01	-1.072942e+02
2.400000e-07	-5.411405e-06	-1.611030e-09	-3.759871e+01	-1.071900e+02
2.500000e-07	-5.402109e-06	-1.594886e-09	-3.753413e+01	-1.070746e+02
2.600000e-07	-5.392036e-06	-1.645177e-09	-3.746413e+01	-1.069479e+02
2.700000e-07	-5.381235e-06	-1.628059e-09	-3.738909e+01	-1.068098e+02
2.800000e-07	-5.369910e-06	-1.593148e-09	-3.731041e+01	-1.066603e+02
2.900000e-07	-5.358241e-06	-1.601467e-09	-3.722933e+01	-1.064997e+02
3.000000e-07	-5.346216e-06	-1.634425e-09	-3.714577e+01	-1.063282e+02
3.100000e-07	-5.333810e-06	-1.617635e-09	-3.705958e+01	-1.061463e+02
3.200000e-07	-5.320910e-06	-1.586796e-09	-3.696995e+01	-1.059546e+02
3.300000e-07	-5.307552e-06	-1.589960e-09	-3.687714e+01	-1.057537e+02
3.400000e-07	-5.293956e-06	-1.613123e-09	-3.678267e+01	-1.055443e+02
3.500000e-07	-5.280076e-06	-1.605087e-09	-3.668623e+01	-1.053273e+02
3.600000e-07	-5.265783e-06	-1.571706e-09	-3.658692e+01	-1.051036e+02
3.700000e-07	-5.251020e-06	-1.582073e-09	-3.648435e+01	-1.048742e+02
3.800000e-07	-5.235739e-06	-1.600684e-09	-3.637817e+01	-1.046398e+02
3.900000e-07	-5.219812e-06	-1.573371e-09	-3.626752e+01	-1.044015e+02
4.000000e-07	-5.203330e-06	-1.546072e-09	-3.615300e+01	-1.041603e+02
4.100000e-07	-5.186511e-06	-1.586658e-09	-3.603614e+01	-1.039170e+02
4.200000e-07	-5.169405e-06	-1.581948e-09	-3.591728e+01	-1.036726e+02
4.300000e-07	-5.152055e-06	-1.527709e-09	-3.579674e+01	-1.034278e+02
4.400000e-07	-5.134436e-06	-1.545261e-09	-3.567432e+01	-1.031833e+02
4.500000e-07	-5.116429e-06	-1.599269e-09	-3.554920e+01	-1.029399e+02
4.600000e-07	-5.097940e-06	-1.538043e-09	-3.542074e+01	-1.026981e+02
4.700000e-07	-5.079012e-06	-1.497183e-09	-3.528923e+01	-1.024584e+02
4.800000e-07	-5.059706e-06	-1.556516e-09	-3.515509e+01	-1.022211e+02
4.900000e-07	-5.040121e-06	-1.567703e-09	-3.501901e+01	-1.019865e+02
5.000000e-07	-5.020307e-06	-1.508039e-09	-3.488135e+01	-1.017548e+02
5.100000e-07	-5.000267e-06	-1.533729e-09	-3.474211e+01	-1.015259e+02
5.200000e-07	-4.980037e-06	-1.557042e-09	-3.460155e+01	-1.012999e+02
5.300000e-07	-4.959512e-06	-1.508273e-09	-3.445894e+01	-1.010766e+02
5.400000e-07	-4.938569e-06	-1.514406e-09	-3.431343e+01	-1.008558e+02
5.500000e-07	-4.917186e-06	-1.559059e-09	-3.416485e+01	-1.006371e+02
5.600000e-07	-4.895417e-06	-1.503109e-09	-3.401360e+01	-1.004201e+02
5.700000e-07	-4.873362e-06	-1.469774e-09	-3.386036e+01	-1.002044e+02
5.800000e-07	-4.850974e-06	-1.526569e-09	-3.370481e+01	-9.998949e+01
5.900000e-07	-4.828290e-06	-1.529334e-09	-3.354720e+01	-9.977482e+01
6.000000e-07	-4.805257e-06	-1.485117e-09	-3.338716e+01	-9.955986e+01
6.100000e-07	-4.781854e-06	-1.508066e-09	-3.322456e+01	-9.934403e+01
6.200000e-07	-4.758225e-06	-1.517901e-09	-3.306039e+01	-9.912677e+01
6.300000e-07	-4.734395e-06	-1.472814e-09	-3.289482e+01	-9.890753e+01
6.400000e-07	-4.710326e-06	-1.470360e-09	-3.272758e+01	-9.868579e+01
6.500000e-07	-4.685958e-06	-1.487866e-09	-3.255827e+01	-9.846107e+01
6.600000e-07	-4.661246e-06	-1.469660e-09	-3.238657e+01	-9.823292e+01
6.700000e-07	-4.636039e-06	-1.467817e-09	-3.221143e+01	-9.800094e+01
6.800000e-07	-4.610226e-06	-1.486155e-09	-3.203208e+01	-9.776481e+01
6.900000e-07	-4.583905e-06	-1.472278e-09	-3.184920e+01	-9.752423e+01
7.000000e-07	-4.557048e-06	-1.461330e-09	-3.166260e+01	-9.727901e+01
7.100000e-07	-4.529695e-06	-1.463111e-09	-3.147255e+01	-9.702899e+01
7.200000e-07	-4.502054e-06	-1.450449e-09	-3.128050e+01	-9.677408e+01
7.300000e-07	-4.474269e-06	-1.435605e-09	-3.108745e+01	-9.651424e+01
7.400000e-07	-4.446394e-06	-1.444042e-09	-3.089376e+01	-9.624952e+01
7.500000e-07	-4.418322e-06	-1.439630e-09	-3.069872e+01	-9.597999e+01
7.600000e-07	-4.390022e-06	-1.431284e-09	-3.050209e+01	-9.570578e+01
7.700000e-07	-4.361409e-06	-1.431973e-09	-3.030329e+01	-9.542706e+01
7.800000e-07	-4.332372e-06	-1.428051e-09	-3.010154e+01	-9.514402e+01
7.900000e-07	-4.302977e-06	-1.416130e-09	-2.989730e+01	-9.485690e+01
8.000000e-07	-4.273361e-06	-1.417046e-09	-2.969152e+01	-9.456593e+01
8.100000e-07	-4.243519e-06	-1.411342e-09	-2.948418e+01	-9.427135e+01
8.200000e-07	-4.213368e-06	-1.395514e-09	-2.927469e+01	-9.397343e+01
8.300000e-07	-4.182957e-06	-1.388288e-09	-2.906339e+01	-9.367240e+01
8.400000e-07	-4.152117e-06	-1.390667e-09	-2.884911e+01	-9.336850e+01
8.500000e-07	-4.120887e-06	-1.382148e-09	-2.863213e+01	-9.306193e+01
8.600000e-07	-4.089466e-06	-1.375410e-09	-2.841382e+01	-9.275288e+01
8.700000e-07	-4.057874e-06	-1.374540e-09	-2.819431e+01	-9.244150e+01
8.800000e-07	-4.026142e-06	-1.367023e-09	-2.797384e+01	-9.212790e+01
8.900000e-07	-3.994256e-06	-1.354050e-09	-2.775229e+01	-9.181218e+01
9.000000e-07	-3.962195e-06	-1.351134e-09	-2.752953e+01	-9.149438e+01
9.100000e-07	-3.929831e-06	-1.347893e-09	-2.730466e+01	-9.117450e+01
9.200000e-07	-3.897102e-06	-1.337274e-09	-2.707726e+01	-9.085251e+01
9.300000e-07	-3.863975e-06	-1.335166e-09	-2.684709e+01	-9.052834e+01
9.400000e-07	-3.830335e-06	-1.335929e-09	-2.661336e+01	-9.020190e+01
9.500000e-07	-3.796269e-06	-1.327213e-09	-2.637667e+01	-8.987304e+01
9.600000e-07	-3.761825e-06	-1.316617e-09	-2.613735e+01	-8.954162e+01
9.700000e-07	-3.727010e-06	-1.314248e-09	-2.589545e+01	-8.920744e+01
9.800000e-07	-3.691857e-06	-1.308687e-09	-2.565121e+01	-8.887031e+01
9.900000e-07	-3.656336e-06	-1.298894e-09	-2.540440e+01	-8.853003e+01
1.000000e-06	-3.620613e-06	-1.294896e-09	-2.515620e+01	-8.818636e+01
1.010000e-06	-3.584776e-06	-1.294412e-09	-2.490720e+01	-8.783909e+01
1.020000e-06	-3.548818e-06	-1.286851e-09	-2.465736e+01	-8.748800e+01
1.030000e-06	-3.512763e-06	-1.280702e-09	-2.440685e+01	-8.713288e+01
1.040000e-06	-3.476513e-06	-1.277629e-09	-2.415498e+01	-8.677351e+01
1.050000e-06	-3.439981e-06	-1.269821e-09	-2.390116e+01	-8.640972e+01
1.060000e-06	-3.403160e-06	-1.258396e-09	-2.364533e+01	-8.604134e+01
1.070000e-06	-3.366068e-06	-1.254568e-09	-2.338761e+01	-8.566820e+01
1.080000e-06	-3.328687e-06	-1.248234e-09	-2.312789e+01	-8.529017e+01
1.090000e-06	-3.291062e-06	-1.240321e-09	-2.286647e+01	-8.490715e+01
1.100000e-06	-3.253273e-06	-1.234612e-09	-2.260390e+01	-8.451904e+01
1.110000e-06	-3.215336e-06	-1.227724e-09	-2.234031e+01	-8.412577e+01
1.120000e-06	-3.177232e-06	-1.218398e-09	-2.207557e+01	-8.372727e+01
1.130000e-06	-3.138917e-06	-1.212772e-09	-2.180936e+01	-8.332351e+01
1.140000e-06	-3.100282e-06	-1.206619e-09	-2.154092e+01	-8.291447e+01
1.150000e-06	-3.061292e-06	-1.199037e-09	-2.127001e+01	-8.250012e+01
1.160000e-06	-3.022058e-06	-1.191052e-09	-2.099741e+01	-8.208045e+01
1.170000e-06	-2.982711e-06	-1.185061e-09	-2.072402e+01	-8.165545e+01
1.180000e-06	-2.943265e-06	-1.180277e-09	-2.044995e+01	-8.122510e+01
1.190000e-06	-2.903616e-06	-1.178411e-09	-2.017447e+01	-8.078939e+01
1.200000e-06	-2.863811e-06	-1.174927e-09	-1.989790e+01	-8.034829e+01
1.210000e-06	-2.823918e-06	-1.168220e-09	-1.962072e+01	-7.990175e+01
1.220000e-06	-2.783893e-06	-1.160079e-09	-1.934263e+01	-7.944971e+01
1.230000e-06	-2.743728e-06	-1.153137e-09	-1.906356e+01	-7.899210e+01
1.240000e-06	-2.703455e-06	-1.146770e-09	-1.878374e+01	-7.852880e+01
1.250000e-06	-2.663008e-06	-1.138205e-09	-1.850272e+01	-7.805969e+01
1.260000e-06	-2.622289e-06	-1.131027e-09	-1.821980e+01	-7.758463e+01
1.270000e-06	-2.581249e-06	-1.123866e-09	-1.793465e+01	-7.710342e+01
1.280000e-06	-2.539994e-06	-1.115895e-09	-1.764800e+01	-7.661587e+01
1.290000e-06	-2.498526e-06	-1.106994e-09	-1.735988e+01	-7.612174e+01
1.300000e-06	-2.456757e-06	-1.097558e-09	-1.706967e+01	-7.562077e+01
1.310000e-06	-2.414733e-06	-1.088427e-09	-1.677769e+01	-7.511268e+01
1.320000e-06	-2.372251e-06	-1.080014e-09	-1.648252e+01	-7.459717e+01
1.330000e-06	-2.329404e-06	-1.069888e-09	-1.618482e+01	-7.407391e+01
1.340000e-06	-2.286345e-06	-1.060532e-09	-1.588564e+01	-7.354255e+01
1.350000e-06	-2.242971e-06	-1.053962e-09	-1.558427e+01	-7.300276e+01
1.360000e-06	-2.199473e-06	-1.047353e-09	-1.528205e+01	-7.245415e+01
1.370000e-06	-2.155896e-06	-1.037922e-09	-1.497927e+01	-7.189634e+01
1.380000e-06	-2.112152e-06	-1.028875e-09	-1.467534e+01	-7.132896e+01
1.390000e-06	-2.068355e-06	-1.018751e-09	-1.437103e+01	-7.075162e+01
1.400000e-06	-2.024499e-06	-1.009461e-09	-1.406632e+01	-7.016392e+01
1.410000e-06	-1.980565e-06	-9.992229e-10	-1.376107e+01	-6.956548e+01
1.420000e-06	-1.936533e-06	-9.864153e-10	-1.345513e+01	-6.895591e+01
1.430000e-06	-1.892404e-06	-9.730229e-10	-1.314851e+01	-6.833481e+01
1.440000e-06	-1.848253e-06	-9.609779e-10	-1.284175e+01	-6.770180e+01
1.450000e-06	-1.803994e-06	-9.496322e-10	-1.253424e+01	-6.705650e+01
1.460000e-06	-1.759575e-06	-9.382716e-10	-1.222562e+01	-6.639853e+01
1.470000e-06	-1.715061e-06	-9.269214e-10	-1.191633e+01	-6.572749e+01
1.480000e-06	-1.670440e-06	-9.157333e-10	-1.160630e+01	-6.504301e+01
1.490000e-06	-1.625664e-06	-9.029948e-10	-1.129519e+01	-6.434469e+01
1.500000e-06	-1.580781e-06	-8.890391e-10	-1.098334e+01	-6.363212e+01
1.510000e-06	-1.535793e-06	-8.759239e-10	-1.067076e+01	-6.290491e+01
1.520000e-06	-1.490600e-06	-8.641494e-10	-1.035676e+01	-6.216260e+01
1.530000e-06	-1.445293e-06	-8.517440e-10	-1.004197e+01	-6.140477e+01
1.540000e-06	-1.399990e-06	-8.402364e-10	-9.727202e+00	-6.063094e+01
1.550000e-06	-1.354658e-06	-8.270069e-10	-9.412228e+00	-5.984060e+01
1.560000e-06	-1.309231e-06	-8.113516e-10	-9.096605e+00	-5.903324e+01
1.570000e-06	-1.263688e-06	-7.972957e-10	-8.780166e+00	-5.820829e+01
1.580000e-06	-1.217986e-06	-7.838575e-10	-8.462626e+00	-5.736514e+01
1.590000e-06	-1.172142e-06	-7.687320e-10	-8.144101e+00	-5.650318e+01
1.600000e-06	-1.126240e-06	-7.552072e-10	-7.825171e+00	-5.562170e+01
1.610000e-06	-1.080337e-06	-7.416148e-10	-7.506235e+00	-5.472001e+01
1.620000e-06	-1.034413e-06	-7.286211e-10	-7.187154e+00	-5.379732e+01
1.630000e-06	-9.883599e-07	-7.184670e-10	-6.867174e+00	-5.285285e+01
1.640000e-06	-9.421369e-07	-7.052706e-10	-6.546014e+00	-5.188574e+01
1.650000e-06	-8.958164e-07	-6.880357e-10	-6.224177e+00	-5.089512e+01
1.660000e-06	-8.494880e-07	-6.675151e-10	-5.902285e+00	-4.988007e+01
1.670000e-06	-8.031113e-07	-6.475129e-10	-5.580057e+00	-4.883966e+01
1.680000e-06	-7.566956e-07	-6.282038e-10	-5.257559e+00	-4.777291e+01
1.690000e-06	-7.102779e-07	-6.115699e-10	-4.935047e+00	-4.667885e+01
1.700000e-06	-6.638149e-07	-5.952731e-10	-4.612219e+00	-4.555649e+01
1.710000e-06	-6.173211e-07	-5.800588e-10	-4.289178e+00	-4.440483e+01
1.720000e-06	-5.707084e-07	-5.648073e-10	-3.965310e+00	-4.322290e+01
1.730000e-06	-5.239930e-07	-5.468718e-10	-3.640729e+00	-4.200972e+01
1.740000e-06	-4.772060e-07	-5.236125e-10	-3.315651e+00	-4.076437e+01
1.750000e-06	-4.303438e-07	-4.988277e-10	-2.990050e+00	-3.948594e+01
1.760000e-06	-3.835257e-07	-4.762296e-10	-2.664756e+00	-3.817360e+01
1.770000e-06	-3.367908e-07	-4.558809e-10	-2.340039e+00	-3.682654e+01
1.780000e-06	-2.901055e-07	-4.396373e-10	-2.015667e+00	-3.544407e+01
1.790000e-06	-2.432892e-07	-4.244844e-10	-1.690385e+00	-3.402555e+01
1.800000e-06	-1.963299e-07	-4.073216e-10	-1.364110e+00	-3.257045e+01
1.810000e-06	-1.494593e-07	-3.866451e-10	-1.038450e+00	-3.107834e+01
1.820000e-06	-1.026794e-07	-3.616907e-10	-7.134214e-01	-2.954889e+01
1.830000e-06	-5.587603e-08	-3.359771e-10	-3.882294e-01	-2.798194e+01
1.840000e-06	-9.061235e-09	-3.130443e-10	-6.295791e-02	-2.637740e+01
1.850000e-06	3.771085e-08	-2.930980e-10	2.620169e-01	-2.473538e+01
1.860000e-06	8.452941e-08	-2.736931e-10	5.873146e-01	-2.305610e+01
1.870000e-06	1.314506e-07	-2.523009e-10	9.133250e-01	-2.133994e+01
1.880000e-06	1.783151e-07	-2.297982e-10	1.238942e+00	-1.958745e+01
1.890000e-06	2.250473e-07	-2.043908e-10	1.563640e+00	-1.779934e+01
1.900000e-06	2.717342e-07	-1.766190e-10	1.888023e+00	-1.597648e+01
1.910000e-06	3.184715e-07	-1.478813e-10	2.212756e+00	-1.411989e+01
1.920000e-06	3.652784e-07	-1.201601e-10	2.537973e+00	-1.223079e+01
1.930000e-06	4.119925e-07	-9.361485e-11	2.862544e+00	-1.031054e+01
1.940000e-06	4.586213e-07	-6.744434e-11	3.186524e+00	-8.360660e+00
1.950000e-06	5.052580e-07	-4.089122e-11	3.510558e+00	-6.382837e+00
1.960000e-06	5.519261e-07	-1.339355e-11	3.834810e+00	-4.378904e+00
1.970000e-06	5.985655e-07	1.442885e-11	4.158863e+00	-2.350841e+00
1.980000e-06	6.450081e-07	4.072074e-11	4.481549e+00	-3.007631e-01
1.990000e-06	6.912954e-07	6.942109e-11	4.803155e+00	1.769084e+00
2.000000e-06	7.376075e-07	1.021806e-10	5.124934e+00	3.856338e+00
2.010000e-06	7.839865e-07	1.343666e-10	5.447177e+00	5.958531e+00
2.020000e-06	8.303421e-07	1.649726e-10	5.769258e+00	8.073099e+00
2.030000e-06	8.765646e-07	1.951764e-10	6.090415e+00	1.019740e+01
2.040000e-06	9.226689e-07	2.236677e-10	6.410750e+00	1.232871e+01
2.050000e-06	9.687531e-07	2.525857e-10	6.730945e+00	1.446428e+01
2.060000e-06	1.014796e-06	2.826460e-10	7.050851e+00	1.660129e+01
2.070000e-06	1.060772e-06	3.138630e-10	7.370298e+00	1.873692e+01
2.080000e-06	1.106646e-06	3.438641e-10	7.689034e+00	2.086834e+01
2.090000e-06	1.152424e-06	3.723261e-10	8.007099e+00	2.299273e+01
2.100000e-06	1.198197e-06	4.022411e-10	8.325132e+00	2.510728e+01
2.110000e-06	1.244003e-06	4.335896e-10	8.643395e+00	2.720924e+01
2.120000e-06	1.289697e-06	4.664146e-10	8.960881e+00	2.929592e+01
2.130000e-06	1.335197e-06	4.973720e-10	9.277016e+00	3.136469e+01
2.140000e-06	1.380605e-06	5.231780e-10	9.592510e+00	3.341302e+01
2.150000e-06	1.425924e-06	5.481442e-10	9.907391e+00	3.543847e+01
2.160000e-06	1.471110e-06	5.756639e-10	1.022135e+01	3.743874e+01
2.170000e-06	1.516140e-06	6.036284e-10	1.053422e+01	3.941164e+01
2.180000e-06	1.561062e-06	6.307911e-10	1.084634e+01	4.135513e+01
2.190000e-06	1.605912e-06	6.578751e-10	1.115795e+01	4.326732e+01
2.200000e-06	1.650635e-06	6.855471e-10	1.146870e+01	4.514649e+01
2.210000e-06	1.695261e-06	7.111308e-10	1.177876e+01	4.699108e+01
2.220000e-06	1.739760e-06	7.355608e-10	1.208794e+01	4.879971e+01
2.230000e-06	1.784065e-06	7.597960e-10	1.239577e+01	5.057119e+01
2.240000e-06	1.828225e-06	7.819782e-10	1.270260e+01	5.230449e+01
2.250000e-06	1.872291e-06	8.031438e-10	1.300877e+01	5.399878e+01
2.260000e-06	1.916286e-06	8.251842e-10	1.331445e+01	5.565343e+01
2.270000e-06	1.960247e-06	8.480636e-10	1.361990e+01	5.726797e+01
2.280000e-06	2.004160e-06	8.712907e-10	1.392500e+01	5.884210e+01
2.290000e-06	2.048002e-06	8.915882e-10	1.422962e+01	6.037572e+01
2.300000e-06	2.091765e-06	9.102454e-10	1.453369e+01	6.186888e+01
2.310000e-06	2.135492e-06	9.291308e-10	1.483750e+01	6.332177e+01
2.320000e-06	2.179169e-06	9.488898e-10	1.514098e+01	6.473477e+01
2.330000e-06	2.222675e-06	9.692226e-10	1.544326e+01	6.610834e+01
2.340000e-06	2.265986e-06	9.903163e-10	1.574418e+01	6.744309e+01
2.350000e-06	2.309137e-06	1.014290e-09	1.604400e+01	6.873973e+01
2.360000e-06	2.352047e-06	1.037166e-09	1.634214e+01	6.999907e+01
2.370000e-06	2.394714e-06	1.052974e-09	1.663860e+01	7.122198e+01
2.380000e-06	2.437116e-06	1.062151e-09	1.693321e+01	7.240940e+01
2.390000e-06	2.479095e-06	1.071825e-09	1.722488e+01	7.356232e+01
2.400000e-06	2.520752e-06	1.085900e-09	1.751431e+01	7.468173e+01
2.410000e-06	2.562161e-06	1.103658e-09	1.780202e+01	7.576868e+01
2.420000e-06	2.603205e-06	1.120919e-09	1.808720e+01	7.682419e+01
2.430000e-06	2.643943e-06	1.133916e-09	1.837025e+01	7.784927e+01
2.440000e-06	2.684499e-06	1.143890e-09	1.865203e+01	7.884491e+01
2.450000e-06	2.724888e-06	1.153449e-09	1.893266e+01	7.981205e+01
2.460000e-06	2.765130e-06	1.165367e-09	1.921226e+01	8.075159e+01
2.470000e-06	2.805199e-06	1.176983e-09	1.949066e+01	8.166439e+01
2.480000e-06	2.845111e-06	1.186734e-09	1.976797e+01	8.255122e+01
2.490000e-06	2.884937e-06	1.198558e-09	2.004469e+01	8.341280e+01
2.500000e-06	2.924609e-06	1.210671e-09	2.032033e+01	8.424978e+01
2.510000e-06	2.964129e-06	1.222676e-09	2.059492e+01	8.506273e+01
2.520000e-06	3.003416e-06	1.231637e-09	2.086788e+01	8.585217e+01
2.530000e-06	3.042483e-06	1.238751e-09	2.113932e+01	8.661853e+01
2.540000e-06	3.081353e-06	1.246179e-09	2.140940e+01	8.736219e+01
2.550000e-06	3.119960e-06	1.255152e-09	2.167764e+01	8.808347e+01
2.560000e-06	3.158338e-06	1.266220e-09	2.194429e+01	8.878266e+01
2.570000e-06	3.196568e-06	1.278215e-09	2.220991e+01	8.945999e+01
2.580000e-06	3.234697e-06	1.289918e-09	2.247484e+01	9.011567e+01
2.590000e-06	3.272554e-06	1.298382e-09	2.273787e+01	9.074988e+01
2.600000e-06	3.310099e-06	1.303823e-09	2.299873e+01	9.136281e+01
2.610000e-06	3.347446e-06	1.310095e-09	2.325822e+01	9.195464e+01
2.620000e-06	3.384581e-06	1.317116e-09	2.351624e+01	9.252558e+01
2.630000e-06	3.421470e-06	1.323905e-09	2.377254e+01	9.307585e+01
2.640000e-06	3.458070e-06	1.333129e-09	2.402684e+01	9.360571e+01
2.650000e-06	3.494420e-06	1.341978e-09	2.427940e+01	9.411548e+01
2.660000e-06	3.530597e-06	1.349537e-09	2.453077e+01	9.460552e+01
2.670000e-06	3.566583e-06	1.357111e-09	2.478079e+01	9.507625e+01
2.680000e-06	3.602442e-06	1.363564e-09	2.502995e+01	9.552819e+01
2.690000e-06	3.638219e-06	1.369749e-09	2.527853e+01	9.596188e+01
2.700000e-06	3.673874e-06	1.376989e-09	2.552626e+01	9.637798e+01
2.710000e-06	3.709332e-06	1.383104e-09	2.577262e+01	9.677720e+01
2.720000e-06	3.744440e-06	1.388235e-09	2.601655e+01	9.716032e+01
2.730000e-06	3.779117e-06	1.394390e-09	2.625750e+01	9.752819e+01
2.740000e-06	3.813382e-06	1.402884e-09	2.649557e+01	9.788175e+01
2.750000e-06	3.847198e-06	1.409902e-09	2.673052e+01	9.822195e+01
2.760000e-06	3.880480e-06	1.414524e-09	2.696177e+01	9.854981e+01
2.770000e-06	3.913299e-06	1.418746e-09	2.718980e+01	9.886639e+01
2.780000e-06	3.945792e-06	1.424279e-09	2.741556e+01	9.917277e+01
2.790000e-06	3.978022e-06	1.432034e-09	2.763950e+01	9.947002e+01
2.800000e-06	4.010042e-06	1.440434e-09	2.786197e+01	9.975923e+01
2.810000e-06	4.041921e-06	1.446343e-09	2.808347e+01	1.000415e+02
2.820000e-06	4.073669e-06	1.451563e-09	2.830406e+01	1.003177e+02
2.830000e-06	4.105230e-06	1.455767e-09	2.852334e+01	1.005890e+02
2.840000e-06	4.136558e-06	1.458095e-09	2.874101e+01	1.008563e+02
2.850000e-06	4.167560e-06	1.459598e-09	2.895641e+01	1.011203e+02
2.860000e-06	4.198197e-06	1.461615e-09	2.916928e+01	1.013818e+02
2.870000e-06	4.228516e-06	1.466615e-09	2.937994e+01	1.016416e+02
2.880000e-06	4.258542e-06	1.473154e-09	2.958856e+01	1.019000e+02
2.890000e-06	4.288289e-06	1.478699e-09	2.979525e+01	1.021577e+02
2.900000e-06	4.317837e-06	1.482197e-09	3.000055e+01	1.024148e+02
