# Temperatura_=_-6.95
# Concentracion g/m^3_=_1620.0
# C_Vs_to_Am_M_A/Vsm_=_65563218390.804596
# pendiente_HvsI_1/m_=_3716.3
# ordenada_HvsI_A/m_=_1297.0
# frecuencia_Hz_=_135101.0396062506

Tiempo_(s)	Campo_(V.s)	Magnetizacion_(V.s)	Campo_(kA/m)	Magnetizacion_(A/m)
0.000000e+00	-5.539439e-06	-1.235684e-09	-3.836529e+01	-8.144608e+01
1.000000e-08	-5.539662e-06	-1.230570e-09	-3.836684e+01	-8.135951e+01
2.000000e-08	-5.539763e-06	-1.225821e-09	-3.836754e+01	-8.127021e+01
3.000000e-08	-5.539514e-06	-1.226084e-09	-3.836581e+01	-8.117861e+01
4.000000e-08	-5.538773e-06	-1.227809e-09	-3.836068e+01	-8.108514e+01
5.000000e-08	-5.537493e-06	-1.226345e-09	-3.835182e+01	-8.099028e+01
6.000000e-08	-5.535641e-06	-1.220030e-09	-3.833899e+01	-8.089454e+01
7.000000e-08	-5.533283e-06	-1.215601e-09	-3.832266e+01	-8.079842e+01
8.000000e-08	-5.530338e-06	-1.226612e-09	-3.830226e+01	-8.070243e+01
9.000000e-08	-5.526857e-06	-1.255248e-09	-3.827816e+01	-8.060707e+01
1.000000e-07	-5.522935e-06	-1.240858e-09	-3.825099e+01	-8.051280e+01
1.100000e-07	-5.518691e-06	-1.191930e-09	-3.822160e+01	-8.042005e+01
1.200000e-07	-5.514168e-06	-1.201936e-09	-3.819027e+01	-8.032923e+01
1.300000e-07	-5.509342e-06	-1.205194e-09	-3.815685e+01	-8.024066e+01
1.400000e-07	-5.504221e-06	-1.210058e-09	-3.812138e+01	-8.015463e+01
1.500000e-07	-5.498792e-06	-1.200847e-09	-3.808378e+01	-8.007133e+01
1.600000e-07	-5.493013e-06	-1.208160e-09	-3.804375e+01	-7.999091e+01
1.700000e-07	-5.486759e-06	-1.234652e-09	-3.800044e+01	-7.991342e+01
1.800000e-07	-5.480040e-06	-1.187703e-09	-3.795391e+01	-7.983884e+01
1.900000e-07	-5.472990e-06	-1.195514e-09	-3.790508e+01	-7.976706e+01
2.000000e-07	-5.465624e-06	-1.172003e-09	-3.785406e+01	-7.969791e+01
2.100000e-07	-5.457952e-06	-1.189028e-09	-3.780093e+01	-7.963113e+01
2.200000e-07	-5.450022e-06	-1.170870e-09	-3.774601e+01	-7.956640e+01
2.300000e-07	-5.441856e-06	-1.196593e-09	-3.768945e+01	-7.950331e+01
2.400000e-07	-5.433253e-06	-1.185696e-09	-3.762987e+01	-7.944142e+01
2.500000e-07	-5.424028e-06	-1.175607e-09	-3.756598e+01	-7.938024e+01
2.600000e-07	-5.414200e-06	-1.161169e-09	-3.749791e+01	-7.931922e+01
2.700000e-07	-5.403819e-06	-1.179304e-09	-3.742601e+01	-7.925779e+01
2.800000e-07	-5.392871e-06	-1.181491e-09	-3.735019e+01	-7.919538e+01
2.900000e-07	-5.381355e-06	-1.173269e-09	-3.727043e+01	-7.913138e+01
3.000000e-07	-5.369467e-06	-1.183274e-09	-3.718810e+01	-7.906523e+01
3.100000e-07	-5.357255e-06	-1.181732e-09	-3.710352e+01	-7.899635e+01
3.200000e-07	-5.344601e-06	-1.179079e-09	-3.701587e+01	-7.892420e+01
3.300000e-07	-5.331524e-06	-1.164751e-09	-3.692531e+01	-7.884830e+01
3.400000e-07	-5.318153e-06	-1.189064e-09	-3.683270e+01	-7.876819e+01
3.500000e-07	-5.304418e-06	-1.170536e-09	-3.673758e+01	-7.868348e+01
3.600000e-07	-5.290140e-06	-1.178725e-09	-3.663869e+01	-7.859386e+01
3.700000e-07	-5.275385e-06	-1.181284e-09	-3.653650e+01	-7.849908e+01
3.800000e-07	-5.260195e-06	-1.180047e-09	-3.643129e+01	-7.839898e+01
3.900000e-07	-5.244413e-06	-1.151776e-09	-3.632199e+01	-7.829345e+01
4.000000e-07	-5.228202e-06	-1.183240e-09	-3.620971e+01	-7.818251e+01
4.100000e-07	-5.211498e-06	-1.174701e-09	-3.609403e+01	-7.806624e+01
4.200000e-07	-5.194411e-06	-1.150478e-09	-3.597569e+01	-7.794478e+01
4.300000e-07	-5.177181e-06	-1.161976e-09	-3.585635e+01	-7.781839e+01
4.400000e-07	-5.159611e-06	-1.201434e-09	-3.573466e+01	-7.768738e+01
4.500000e-07	-5.141581e-06	-1.151643e-09	-3.560979e+01	-7.755213e+01
4.600000e-07	-5.123038e-06	-1.143841e-09	-3.548136e+01	-7.741308e+01
4.700000e-07	-5.104086e-06	-1.183320e-09	-3.535011e+01	-7.727072e+01
4.800000e-07	-5.084881e-06	-1.167887e-09	-3.521710e+01	-7.712558e+01
4.900000e-07	-5.065434e-06	-1.117165e-09	-3.508241e+01	-7.697823e+01
5.000000e-07	-5.045755e-06	-1.160990e-09	-3.494612e+01	-7.682925e+01
5.100000e-07	-5.025882e-06	-1.170700e-09	-3.480848e+01	-7.667922e+01
5.200000e-07	-5.005785e-06	-1.119510e-09	-3.466929e+01	-7.652874e+01
5.300000e-07	-4.985341e-06	-1.132112e-09	-3.452770e+01	-7.637837e+01
5.400000e-07	-4.964463e-06	-1.173393e-09	-3.438310e+01	-7.622867e+01
5.500000e-07	-4.943160e-06	-1.129180e-09	-3.423556e+01	-7.608013e+01
5.600000e-07	-4.921507e-06	-1.113563e-09	-3.408560e+01	-7.593323e+01
5.700000e-07	-4.899535e-06	-1.158264e-09	-3.393342e+01	-7.578838e+01
5.800000e-07	-4.877216e-06	-1.136118e-09	-3.377884e+01	-7.564592e+01
5.900000e-07	-4.854550e-06	-1.100672e-09	-3.362186e+01	-7.550614e+01
6.000000e-07	-4.831587e-06	-1.130625e-09	-3.346282e+01	-7.536925e+01
6.100000e-07	-4.808336e-06	-1.136560e-09	-3.330179e+01	-7.523539e+01
6.200000e-07	-4.784831e-06	-1.096360e-09	-3.313900e+01	-7.510461e+01
6.300000e-07	-4.761103e-06	-1.112318e-09	-3.297466e+01	-7.497690e+01
6.400000e-07	-4.737135e-06	-1.129259e-09	-3.280866e+01	-7.485217e+01
6.500000e-07	-4.712817e-06	-1.108121e-09	-3.264024e+01	-7.473025e+01
6.600000e-07	-4.687977e-06	-1.099069e-09	-3.246820e+01	-7.461092e+01
6.700000e-07	-4.662655e-06	-1.121604e-09	-3.229283e+01	-7.449388e+01
6.800000e-07	-4.636838e-06	-1.105340e-09	-3.211402e+01	-7.437878e+01
6.900000e-07	-4.610555e-06	-1.094847e-09	-3.193199e+01	-7.426522e+01
7.000000e-07	-4.583848e-06	-1.100306e-09	-3.174702e+01	-7.415277e+01
7.100000e-07	-4.556669e-06	-1.104429e-09	-3.155879e+01	-7.404096e+01
7.200000e-07	-4.529170e-06	-1.089167e-09	-3.136833e+01	-7.392930e+01
7.300000e-07	-4.501533e-06	-1.094675e-09	-3.117692e+01	-7.381729e+01
7.400000e-07	-4.473766e-06	-1.096510e-09	-3.098461e+01	-7.370442e+01
7.500000e-07	-4.445723e-06	-1.094469e-09	-3.079039e+01	-7.359020e+01
7.600000e-07	-4.417361e-06	-1.086643e-09	-3.059396e+01	-7.347415e+01
7.700000e-07	-4.388684e-06	-1.089613e-09	-3.039535e+01	-7.335581e+01
7.800000e-07	-4.359650e-06	-1.085702e-09	-3.019426e+01	-7.323475e+01
7.900000e-07	-4.330310e-06	-1.082718e-09	-2.999106e+01	-7.311060e+01
8.000000e-07	-4.300649e-06	-1.078374e-09	-2.978563e+01	-7.298300e+01
8.100000e-07	-4.270636e-06	-1.076681e-09	-2.957776e+01	-7.285167e+01
8.200000e-07	-4.240314e-06	-1.068873e-09	-2.936776e+01	-7.271638e+01
8.300000e-07	-4.209758e-06	-1.065463e-09	-2.915613e+01	-7.257693e+01
8.400000e-07	-4.179017e-06	-1.065225e-09	-2.894322e+01	-7.243320e+01
8.500000e-07	-4.148104e-06	-1.063962e-09	-2.872912e+01	-7.228513e+01
8.600000e-07	-4.116910e-06	-1.064112e-09	-2.851308e+01	-7.213270e+01
8.700000e-07	-4.085425e-06	-1.062525e-09	-2.829502e+01	-7.197595e+01
8.800000e-07	-4.053769e-06	-1.055861e-09	-2.807578e+01	-7.181497e+01
8.900000e-07	-4.021993e-06	-1.047697e-09	-2.785570e+01	-7.164992e+01
9.000000e-07	-3.990029e-06	-1.046288e-09	-2.763432e+01	-7.148095e+01
9.100000e-07	-3.957745e-06	-1.041253e-09	-2.741073e+01	-7.130830e+01
9.200000e-07	-3.925105e-06	-1.039090e-09	-2.718467e+01	-7.113221e+01
9.300000e-07	-3.892063e-06	-1.040258e-09	-2.695583e+01	-7.095295e+01
9.400000e-07	-3.858629e-06	-1.043161e-09	-2.672426e+01	-7.077082e+01
9.500000e-07	-3.824760e-06	-1.037003e-09	-2.648969e+01	-7.058610e+01
9.600000e-07	-3.790343e-06	-1.035612e-09	-2.625133e+01	-7.039910e+01
9.700000e-07	-3.755406e-06	-1.030033e-09	-2.600936e+01	-7.021012e+01
9.800000e-07	-3.720168e-06	-1.022543e-09	-2.576530e+01	-7.001945e+01
9.900000e-07	-3.684802e-06	-1.014760e-09	-2.552037e+01	-6.982736e+01
1.000000e-06	-3.649251e-06	-1.013889e-09	-2.527415e+01	-6.963411e+01
1.010000e-06	-3.613524e-06	-1.006118e-09	-2.502671e+01	-6.943993e+01
1.020000e-06	-3.577682e-06	-1.003625e-09	-2.477847e+01	-6.924501e+01
1.030000e-06	-3.541671e-06	-1.005387e-09	-2.452906e+01	-6.904952e+01
1.040000e-06	-3.505438e-06	-1.007186e-09	-2.427812e+01	-6.885359e+01
1.050000e-06	-3.468954e-06	-1.003074e-09	-2.402544e+01	-6.865731e+01
1.060000e-06	-3.432173e-06	-1.001485e-09	-2.377070e+01	-6.846075e+01
1.070000e-06	-3.395094e-06	-9.955553e-10	-2.351389e+01	-6.826390e+01
1.080000e-06	-3.357647e-06	-9.880635e-10	-2.325454e+01	-6.806675e+01
1.090000e-06	-3.319961e-06	-9.808587e-10	-2.299354e+01	-6.786925e+01
1.100000e-06	-3.282201e-06	-9.801267e-10	-2.273202e+01	-6.767129e+01
1.110000e-06	-3.244185e-06	-9.779530e-10	-2.246872e+01	-6.747274e+01
1.120000e-06	-3.205946e-06	-9.756230e-10	-2.220389e+01	-6.727344e+01
1.130000e-06	-3.167510e-06	-9.727474e-10	-2.193768e+01	-6.707319e+01
1.140000e-06	-3.128863e-06	-9.664657e-10	-2.167002e+01	-6.687179e+01
1.150000e-06	-3.089975e-06	-9.573837e-10	-2.140069e+01	-6.666900e+01
1.160000e-06	-3.050838e-06	-9.512273e-10	-2.112963e+01	-6.646454e+01
1.170000e-06	-3.011582e-06	-9.506915e-10	-2.085775e+01	-6.625815e+01
1.180000e-06	-2.972131e-06	-9.488226e-10	-2.058452e+01	-6.604954e+01
1.190000e-06	-2.932518e-06	-9.503070e-10	-2.031017e+01	-6.583842e+01
1.200000e-06	-2.892874e-06	-9.521812e-10	-2.003560e+01	-6.562446e+01
1.210000e-06	-2.853137e-06	-9.484455e-10	-1.976038e+01	-6.540738e+01
1.220000e-06	-2.813152e-06	-9.406922e-10	-1.948346e+01	-6.518684e+01
1.230000e-06	-2.772952e-06	-9.386082e-10	-1.920504e+01	-6.496255e+01
1.240000e-06	-2.732593e-06	-9.373382e-10	-1.892551e+01	-6.473419e+01
1.250000e-06	-2.691997e-06	-9.358296e-10	-1.864436e+01	-6.450144e+01
1.260000e-06	-2.651189e-06	-9.331130e-10	-1.836172e+01	-6.426402e+01
1.270000e-06	-2.610142e-06	-9.337282e-10	-1.807744e+01	-6.402161e+01
1.280000e-06	-2.568760e-06	-9.278984e-10	-1.779084e+01	-6.377391e+01
1.290000e-06	-2.527066e-06	-9.188402e-10	-1.750207e+01	-6.352064e+01
1.300000e-06	-2.485101e-06	-9.090472e-10	-1.721143e+01	-6.326151e+01
1.310000e-06	-2.442821e-06	-9.000955e-10	-1.691860e+01	-6.299624e+01
1.320000e-06	-2.400261e-06	-8.913883e-10	-1.662384e+01	-6.272453e+01
1.330000e-06	-2.357463e-06	-8.893978e-10	-1.632742e+01	-6.244612e+01
1.340000e-06	-2.314403e-06	-8.884136e-10	-1.602920e+01	-6.216073e+01
1.350000e-06	-2.271181e-06	-8.861450e-10	-1.572985e+01	-6.186808e+01
1.360000e-06	-2.227798e-06	-8.844660e-10	-1.542938e+01	-6.156789e+01
1.370000e-06	-2.184201e-06	-8.837125e-10	-1.512743e+01	-6.125988e+01
1.380000e-06	-2.140526e-06	-8.759900e-10	-1.482495e+01	-6.094379e+01
1.390000e-06	-2.096805e-06	-8.642109e-10	-1.452215e+01	-6.061932e+01
1.400000e-06	-2.053029e-06	-8.532113e-10	-1.421896e+01	-6.028618e+01
1.410000e-06	-2.009176e-06	-8.432346e-10	-1.391524e+01	-5.994409e+01
1.420000e-06	-1.965195e-06	-8.332311e-10	-1.361064e+01	-5.959274e+01
1.430000e-06	-1.921096e-06	-8.267645e-10	-1.330522e+01	-5.923184e+01
1.440000e-06	-1.876955e-06	-8.246171e-10	-1.299950e+01	-5.886107e+01
1.450000e-06	-1.832759e-06	-8.208552e-10	-1.269340e+01	-5.848011e+01
1.460000e-06	-1.788310e-06	-8.142927e-10	-1.238556e+01	-5.808863e+01
1.470000e-06	-1.743630e-06	-8.056438e-10	-1.207611e+01	-5.768630e+01
1.480000e-06	-1.698865e-06	-7.953635e-10	-1.176607e+01	-5.727276e+01
1.490000e-06	-1.653949e-06	-7.826572e-10	-1.145499e+01	-5.684766e+01
1.500000e-06	-1.608879e-06	-7.704782e-10	-1.114285e+01	-5.641061e+01
1.510000e-06	-1.563768e-06	-7.602214e-10	-1.083041e+01	-5.596124e+01
1.520000e-06	-1.518563e-06	-7.521463e-10	-1.051733e+01	-5.549913e+01
1.530000e-06	-1.473171e-06	-7.452940e-10	-1.020296e+01	-5.502386e+01
1.540000e-06	-1.427699e-06	-7.403455e-10	-9.888025e+00	-5.453499e+01
1.550000e-06	-1.382189e-06	-7.338802e-10	-9.572825e+00	-5.403206e+01
1.560000e-06	-1.336516e-06	-7.268783e-10	-9.256501e+00	-5.351459e+01
1.570000e-06	-1.290739e-06	-7.180693e-10	-8.939457e+00	-5.298205e+01
1.580000e-06	-1.244963e-06	-7.096578e-10	-8.622423e+00	-5.243393e+01
1.590000e-06	-1.199179e-06	-6.985741e-10	-8.305330e+00	-5.186964e+01
1.600000e-06	-1.153290e-06	-6.875811e-10	-7.987511e+00	-5.128860e+01
1.610000e-06	-1.107271e-06	-6.804266e-10	-7.668785e+00	-5.069019e+01
1.620000e-06	-1.061176e-06	-6.763091e-10	-7.349543e+00	-5.007373e+01
1.630000e-06	-1.014878e-06	-6.716554e-10	-7.028887e+00	-4.943855e+01
1.640000e-06	-9.684647e-07	-6.653994e-10	-6.707436e+00	-4.878392e+01
1.650000e-06	-9.221358e-07	-6.550977e-10	-6.386569e+00	-4.810907e+01
1.660000e-06	-8.758419e-07	-6.425783e-10	-6.065945e+00	-4.741321e+01
1.670000e-06	-8.294582e-07	-6.287264e-10	-5.744699e+00	-4.669553e+01
1.680000e-06	-7.829478e-07	-6.131385e-10	-5.422575e+00	-4.595516e+01
1.690000e-06	-7.364437e-07	-5.985025e-10	-5.100495e+00	-4.519123e+01
1.700000e-06	-6.899611e-07	-5.846656e-10	-4.778564e+00	-4.440282e+01
1.710000e-06	-6.433667e-07	-5.708973e-10	-4.455858e+00	-4.358902e+01
1.720000e-06	-5.966457e-07	-5.604129e-10	-4.132276e+00	-4.274889e+01
1.730000e-06	-5.498790e-07	-5.490620e-10	-3.808377e+00	-4.188147e+01
1.740000e-06	-5.030310e-07	-5.326159e-10	-3.483915e+00	-4.098583e+01
1.750000e-06	-4.561292e-07	-5.153661e-10	-3.159080e+00	-4.006101e+01
1.760000e-06	-4.092416e-07	-4.970286e-10	-2.834344e+00	-3.910611e+01
1.770000e-06	-3.623132e-07	-4.808265e-10	-2.509325e+00	-3.812020e+01
1.780000e-06	-3.154109e-07	-4.677610e-10	-2.184487e+00	-3.710243e+01
1.790000e-06	-2.684731e-07	-4.559504e-10	-1.859403e+00	-3.605196e+01
1.800000e-06	-2.214357e-07	-4.428384e-10	-1.533630e+00	-3.496803e+01
1.810000e-06	-1.743380e-07	-4.285090e-10	-1.207438e+00	-3.384994e+01
1.820000e-06	-1.272472e-07	-4.123992e-10	-8.812943e-01	-3.269705e+01
1.830000e-06	-8.026146e-08	-3.934304e-10	-5.558784e-01	-3.150882e+01
1.840000e-06	-3.333962e-08	-3.739240e-10	-2.309050e-01	-3.028481e+01
1.850000e-06	1.366625e-08	-3.573644e-10	9.465032e-02	-2.902468e+01
1.860000e-06	6.072648e-08	-3.423523e-10	4.205822e-01	-2.772821e+01
1.870000e-06	1.077733e-07	-3.258565e-10	7.464210e-01	-2.639531e+01
1.880000e-06	1.548152e-07	-3.067948e-10	1.072226e+00	-2.502602e+01
1.890000e-06	2.017924e-07	-2.869089e-10	1.397583e+00	-2.362053e+01
1.900000e-06	2.487235e-07	-2.643312e-10	1.722620e+00	-2.217916e+01
1.910000e-06	2.956487e-07	-2.399331e-10	2.047617e+00	-2.070242e+01
1.920000e-06	3.425759e-07	-2.164619e-10	2.372628e+00	-1.919093e+01
1.930000e-06	3.894865e-07	-1.939410e-10	2.697523e+00	-1.764551e+01
1.940000e-06	4.364035e-07	-1.724987e-10	3.022463e+00	-1.606711e+01
1.950000e-06	4.833073e-07	-1.509397e-10	3.347311e+00	-1.445686e+01
1.960000e-06	5.301147e-07	-1.293770e-10	3.671492e+00	-1.281604e+01
1.970000e-06	5.768160e-07	-1.080008e-10	3.994938e+00	-1.114609e+01
1.980000e-06	6.234893e-07	-8.678565e-11	4.318190e+00	-9.448574e+00
1.990000e-06	6.700705e-07	-6.540242e-11	4.640804e+00	-7.725226e+00
2.000000e-06	7.166385e-07	-4.115754e-11	4.963327e+00	-5.977899e+00
2.010000e-06	7.631770e-07	-1.310076e-11	5.285646e+00	-4.208571e+00
2.020000e-06	8.096471e-07	1.473682e-11	5.607490e+00	-2.419334e+00
2.030000e-06	8.561208e-07	3.953964e-11	5.929360e+00	-6.123814e-01
2.040000e-06	9.025019e-07	6.283506e-11	6.250588e+00	1.210004e+00
2.050000e-06	9.487366e-07	8.572006e-11	6.570803e+00	3.045464e+00
2.060000e-06	9.948730e-07	1.081898e-10	6.890336e+00	4.891579e+00
2.070000e-06	1.040992e-06	1.331141e-10	7.209749e+00	6.745883e+00
2.080000e-06	1.087048e-06	1.617600e-10	7.528726e+00	8.605876e+00
2.090000e-06	1.133027e-06	1.902055e-10	7.847166e+00	1.046904e+01
2.100000e-06	1.178897e-06	2.171544e-10	8.164857e+00	1.233285e+01
2.110000e-06	1.224671e-06	2.447441e-10	8.481883e+00	1.419481e+01
2.120000e-06	1.270397e-06	2.711195e-10	8.798573e+00	1.605242e+01
2.130000e-06	1.315995e-06	2.950523e-10	9.114379e+00	1.790324e+01
2.140000e-06	1.361526e-06	3.173200e-10	9.429719e+00	1.974486e+01
2.150000e-06	1.407031e-06	3.394789e-10	9.744877e+00	2.157497e+01
2.160000e-06	1.452376e-06	3.633782e-10	1.005893e+01	2.339129e+01
2.170000e-06	1.497579e-06	3.887984e-10	1.037200e+01	2.519166e+01
2.180000e-06	1.542713e-06	4.144001e-10	1.068459e+01	2.697399e+01
2.190000e-06	1.587775e-06	4.400689e-10	1.099668e+01	2.873629e+01
2.200000e-06	1.632730e-06	4.648201e-10	1.130804e+01	3.047670e+01
2.210000e-06	1.677562e-06	4.902180e-10	1.161854e+01	3.219345e+01
2.220000e-06	1.722242e-06	5.157834e-10	1.192798e+01	3.388490e+01
2.230000e-06	1.766757e-06	5.398494e-10	1.223629e+01	3.554952e+01
2.240000e-06	1.811139e-06	5.598253e-10	1.254367e+01	3.718592e+01
2.250000e-06	1.855339e-06	5.759544e-10	1.284979e+01	3.879283e+01
2.260000e-06	1.899407e-06	5.917734e-10	1.315500e+01	4.036908e+01
2.270000e-06	1.943408e-06	6.097443e-10	1.345974e+01	4.191367e+01
2.280000e-06	1.987322e-06	6.292460e-10	1.376389e+01	4.342568e+01
2.290000e-06	2.031132e-06	6.504785e-10	1.406731e+01	4.490434e+01
2.300000e-06	2.074862e-06	6.723711e-10	1.437017e+01	4.634898e+01
2.310000e-06	2.118569e-06	6.934777e-10	1.467288e+01	4.775905e+01
2.320000e-06	2.162208e-06	7.129039e-10	1.497512e+01	4.913412e+01
2.330000e-06	2.205793e-06	7.276371e-10	1.527698e+01	5.047387e+01
2.340000e-06	2.249314e-06	7.416390e-10	1.557840e+01	5.177805e+01
2.350000e-06	2.292700e-06	7.568239e-10	1.587888e+01	5.304655e+01
2.360000e-06	2.335930e-06	7.769474e-10	1.617829e+01	5.427932e+01
2.370000e-06	2.378938e-06	7.972542e-10	1.647615e+01	5.547642e+01
2.380000e-06	2.421855e-06	8.149272e-10	1.677339e+01	5.663798e+01
2.390000e-06	2.464547e-06	8.297455e-10	1.706907e+01	5.776421e+01
2.400000e-06	2.506753e-06	8.413183e-10	1.736138e+01	5.885539e+01
2.410000e-06	2.548619e-06	8.520525e-10	1.765134e+01	5.991187e+01
2.420000e-06	2.590113e-06	8.657361e-10	1.793872e+01	6.093406e+01
2.430000e-06	2.631228e-06	8.795903e-10	1.822348e+01	6.192243e+01
2.440000e-06	2.672115e-06	8.921022e-10	1.850665e+01	6.287751e+01
2.450000e-06	2.712775e-06	9.029914e-10	1.878826e+01	6.379984e+01
2.460000e-06	2.753165e-06	9.126168e-10	1.906799e+01	6.469005e+01
2.470000e-06	2.793313e-06	9.236433e-10	1.934605e+01	6.554878e+01
2.480000e-06	2.833315e-06	9.330872e-10	1.962310e+01	6.637672e+01
2.490000e-06	2.873197e-06	9.431732e-10	1.989932e+01	6.717456e+01
2.500000e-06	2.912920e-06	9.552737e-10	2.017443e+01	6.794305e+01
2.510000e-06	2.952535e-06	9.665949e-10	2.044880e+01	6.868293e+01
2.520000e-06	2.992050e-06	9.746004e-10	2.072247e+01	6.939498e+01
2.530000e-06	3.031423e-06	9.815526e-10	2.099517e+01	7.007999e+01
2.540000e-06	3.070547e-06	9.894586e-10	2.126613e+01	7.073873e+01
2.550000e-06	3.109397e-06	9.968974e-10	2.153520e+01	7.137202e+01
2.560000e-06	3.148066e-06	1.003140e-09	2.180301e+01	7.198063e+01
2.570000e-06	3.186512e-06	1.010032e-09	2.206929e+01	7.256537e+01
2.580000e-06	3.224738e-06	1.019098e-09	2.233403e+01	7.312703e+01
2.590000e-06	3.262764e-06	1.029470e-09	2.259740e+01	7.366638e+01
2.600000e-06	3.300544e-06	1.037272e-09	2.285905e+01	7.418419e+01
2.610000e-06	3.338138e-06	1.044443e-09	2.311942e+01	7.468122e+01
2.620000e-06	3.375549e-06	1.051651e-09	2.337853e+01	7.515821e+01
2.630000e-06	3.412699e-06	1.061074e-09	2.363583e+01	7.561586e+01
2.640000e-06	3.449593e-06	1.068896e-09	2.389135e+01	7.605489e+01
2.650000e-06	3.486182e-06	1.075060e-09	2.414475e+01	7.647597e+01
2.660000e-06	3.522497e-06	1.079044e-09	2.439627e+01	7.687975e+01
2.670000e-06	3.558616e-06	1.081721e-09	2.464642e+01	7.726687e+01
2.680000e-06	3.594519e-06	1.085814e-09	2.489508e+01	7.763794e+01
2.690000e-06	3.630266e-06	1.092679e-09	2.514266e+01	7.799354e+01
2.700000e-06	3.665959e-06	1.101856e-09	2.538987e+01	7.833423e+01
2.710000e-06	3.701572e-06	1.109158e-09	2.563651e+01	7.866055e+01
2.720000e-06	3.736984e-06	1.115701e-09	2.588177e+01	7.897303e+01
2.730000e-06	3.772006e-06	1.120488e-09	2.612433e+01	7.927215e+01
2.740000e-06	3.806580e-06	1.123930e-09	2.636379e+01	7.955840e+01
2.750000e-06	3.840741e-06	1.126754e-09	2.660037e+01	7.983225e+01
2.760000e-06	3.874526e-06	1.128429e-09	2.683437e+01	8.009413e+01
2.770000e-06	3.907876e-06	1.131440e-09	2.706534e+01	8.034448e+01
2.780000e-06	3.940685e-06	1.136165e-09	2.729257e+01	8.058371e+01
2.790000e-06	3.973079e-06	1.142929e-09	2.751693e+01	8.081224e+01
2.800000e-06	4.005238e-06	1.150821e-09	2.773966e+01	8.103045e+01
2.810000e-06	4.037209e-06	1.155362e-09	2.796108e+01	8.123875e+01
2.820000e-06	4.069004e-06	1.158923e-09	2.818129e+01	8.143751e+01
2.830000e-06	4.100677e-06	1.161427e-09	2.840065e+01	8.162710e+01
2.840000e-06	4.132166e-06	1.164668e-09	2.861874e+01	8.180789e+01
2.850000e-06	4.163307e-06	1.166141e-09	2.883442e+01	8.198024e+01
2.860000e-06	4.194117e-06	1.163921e-09	2.904780e+01	8.214452e+01
2.870000e-06	4.224749e-06	1.163930e-09	2.925996e+01	8.230106e+01
2.880000e-06	4.255088e-06	1.167743e-09	2.947008e+01	8.245021e+01
2.890000e-06	4.285067e-06	1.173715e-09	2.967771e+01	8.259229e+01
2.900000e-06	4.314783e-06	1.177419e-09	2.988352e+01	8.272764e+01
