# Temperatura_=_8.78
# Concentracion g/m^3_=_1620.0
# C_Vs_to_Am_M_A/Vsm_=_65563218390.804596
# pendiente_HvsI_1/m_=_3716.3
# ordenada_HvsI_A/m_=_1297.0
# frecuencia_Hz_=_135097.73569003327

Tiempo_(s)	Campo_(V.s)	Magnetizacion_(V.s)	Campo_(kA/m)	Magnetizacion_(A/m)
0.000000e+00	-5.531518e-06	-1.604334e-09	-3.837400e+01	-1.031668e+02
1.000000e-08	-5.531651e-06	-1.600067e-09	-3.837492e+01	-1.031189e+02
2.000000e-08	-5.531413e-06	-1.596609e-09	-3.837327e+01	-1.030737e+02
3.000000e-08	-5.530708e-06	-1.593552e-09	-3.836838e+01	-1.030317e+02
4.000000e-08	-5.529453e-06	-1.591124e-09	-3.835967e+01	-1.029928e+02
5.000000e-08	-5.527624e-06	-1.589834e-09	-3.834699e+01	-1.029572e+02
6.000000e-08	-5.525185e-06	-1.601289e-09	-3.833006e+01	-1.029248e+02
7.000000e-08	-5.522202e-06	-1.625053e-09	-3.830937e+01	-1.028955e+02
8.000000e-08	-5.518823e-06	-1.624289e-09	-3.828593e+01	-1.028690e+02
9.000000e-08	-5.514983e-06	-1.558711e-09	-3.825929e+01	-1.028448e+02
1.000000e-07	-5.510801e-06	-1.531834e-09	-3.823027e+01	-1.028226e+02
1.100000e-07	-5.506391e-06	-1.609844e-09	-3.819968e+01	-1.028018e+02
1.200000e-07	-5.501652e-06	-1.637138e-09	-3.816680e+01	-1.027817e+02
1.300000e-07	-5.496570e-06	-1.566500e-09	-3.813155e+01	-1.027617e+02
1.400000e-07	-5.491174e-06	-1.534360e-09	-3.809412e+01	-1.027409e+02
1.500000e-07	-5.485374e-06	-1.598897e-09	-3.805388e+01	-1.027186e+02
1.600000e-07	-5.479167e-06	-1.659634e-09	-3.801082e+01	-1.026940e+02
1.700000e-07	-5.472541e-06	-1.559629e-09	-3.796486e+01	-1.026661e+02
1.800000e-07	-5.465577e-06	-1.542582e-09	-3.791654e+01	-1.026342e+02
1.900000e-07	-5.458332e-06	-1.557554e-09	-3.786628e+01	-1.025973e+02
2.000000e-07	-5.450708e-06	-1.633923e-09	-3.781339e+01	-1.025548e+02
2.100000e-07	-5.442741e-06	-1.605137e-09	-3.775812e+01	-1.025058e+02
2.200000e-07	-5.434528e-06	-1.612555e-09	-3.770114e+01	-1.024496e+02
2.300000e-07	-5.425877e-06	-1.590683e-09	-3.764113e+01	-1.023856e+02
2.400000e-07	-5.416607e-06	-1.592085e-09	-3.757682e+01	-1.023133e+02
2.500000e-07	-5.406791e-06	-1.565853e-09	-3.750873e+01	-1.022321e+02
2.600000e-07	-5.396382e-06	-1.550771e-09	-3.743651e+01	-1.021416e+02
2.700000e-07	-5.385381e-06	-1.557773e-09	-3.736020e+01	-1.020417e+02
2.800000e-07	-5.373978e-06	-1.572624e-09	-3.728109e+01	-1.019321e+02
2.900000e-07	-5.362274e-06	-1.574336e-09	-3.719989e+01	-1.018128e+02
3.000000e-07	-5.350184e-06	-1.535332e-09	-3.711602e+01	-1.016838e+02
3.100000e-07	-5.337599e-06	-1.553861e-09	-3.702871e+01	-1.015453e+02
3.200000e-07	-5.324594e-06	-1.554658e-09	-3.693850e+01	-1.013975e+02
3.300000e-07	-5.311247e-06	-1.555725e-09	-3.684590e+01	-1.012408e+02
3.400000e-07	-5.297481e-06	-1.499225e-09	-3.675040e+01	-1.010757e+02
3.500000e-07	-5.283258e-06	-1.554065e-09	-3.665173e+01	-1.009025e+02
3.600000e-07	-5.268739e-06	-1.559539e-09	-3.655101e+01	-1.007220e+02
3.700000e-07	-5.253703e-06	-1.536497e-09	-3.644670e+01	-1.005348e+02
3.800000e-07	-5.238020e-06	-1.510957e-09	-3.633791e+01	-1.003416e+02
3.900000e-07	-5.222015e-06	-1.571823e-09	-3.622687e+01	-1.001430e+02
4.000000e-07	-5.205610e-06	-1.513551e-09	-3.611306e+01	-9.993991e+01
4.100000e-07	-5.188784e-06	-1.478359e-09	-3.599634e+01	-9.973299e+01
4.200000e-07	-5.171637e-06	-1.539457e-09	-3.587738e+01	-9.952300e+01
4.300000e-07	-5.154187e-06	-1.575188e-09	-3.575632e+01	-9.931066e+01
4.400000e-07	-5.136331e-06	-1.467432e-09	-3.563245e+01	-9.909668e+01
4.500000e-07	-5.117973e-06	-1.485099e-09	-3.550510e+01	-9.888168e+01
4.600000e-07	-5.099189e-06	-1.556749e-09	-3.537478e+01	-9.866628e+01
4.700000e-07	-5.080103e-06	-1.496010e-09	-3.524238e+01	-9.845099e+01
4.800000e-07	-5.060748e-06	-1.439114e-09	-3.510810e+01	-9.823628e+01
4.900000e-07	-5.041201e-06	-1.524538e-09	-3.497250e+01	-9.802252e+01
5.000000e-07	-5.021455e-06	-1.511454e-09	-3.483552e+01	-9.781002e+01
5.100000e-07	-5.001363e-06	-1.433328e-09	-3.469614e+01	-9.759899e+01
5.200000e-07	-4.980871e-06	-1.491580e-09	-3.455398e+01	-9.738956e+01
5.300000e-07	-4.960062e-06	-1.528397e-09	-3.440962e+01	-9.718176e+01
5.400000e-07	-4.938856e-06	-1.436615e-09	-3.426250e+01	-9.697557e+01
5.500000e-07	-4.917236e-06	-1.439902e-09	-3.411252e+01	-9.677086e+01
5.600000e-07	-4.895307e-06	-1.515196e-09	-3.396039e+01	-9.656743e+01
5.700000e-07	-4.873023e-06	-1.459022e-09	-3.380580e+01	-9.636502e+01
5.800000e-07	-4.850414e-06	-1.423927e-09	-3.364895e+01	-9.616331e+01
5.900000e-07	-4.827475e-06	-1.480394e-09	-3.348981e+01	-9.596190e+01
6.000000e-07	-4.804244e-06	-1.468402e-09	-3.332865e+01	-9.576039e+01
6.100000e-07	-4.780791e-06	-1.404824e-09	-3.316595e+01	-9.555831e+01
6.200000e-07	-4.757092e-06	-1.443100e-09	-3.300155e+01	-9.535519e+01
6.300000e-07	-4.733149e-06	-1.453500e-09	-3.283545e+01	-9.515054e+01
6.400000e-07	-4.708906e-06	-1.415849e-09	-3.266726e+01	-9.494386e+01
6.500000e-07	-4.684209e-06	-1.413262e-09	-3.249593e+01	-9.473468e+01
6.600000e-07	-4.659049e-06	-1.439934e-09	-3.232138e+01	-9.452251e+01
6.700000e-07	-4.633387e-06	-1.406910e-09	-3.214336e+01	-9.430692e+01
6.800000e-07	-4.607193e-06	-1.402499e-09	-3.196164e+01	-9.408750e+01
6.900000e-07	-4.580538e-06	-1.415479e-09	-3.177673e+01	-9.386390e+01
7.000000e-07	-4.553436e-06	-1.412968e-09	-3.158871e+01	-9.363579e+01
7.100000e-07	-4.526026e-06	-1.395246e-09	-3.139856e+01	-9.340292e+01
7.200000e-07	-4.498452e-06	-1.408845e-09	-3.120727e+01	-9.316508e+01
7.300000e-07	-4.470691e-06	-1.400641e-09	-3.101468e+01	-9.292214e+01
7.400000e-07	-4.442714e-06	-1.388503e-09	-3.082060e+01	-9.267400e+01
7.500000e-07	-4.414468e-06	-1.377834e-09	-3.062464e+01	-9.242065e+01
7.600000e-07	-4.385851e-06	-1.375630e-09	-3.042612e+01	-9.216212e+01
7.700000e-07	-4.356928e-06	-1.367850e-09	-3.022547e+01	-9.189852e+01
7.800000e-07	-4.327747e-06	-1.370680e-09	-3.002303e+01	-9.163000e+01
7.900000e-07	-4.298240e-06	-1.369397e-09	-2.981833e+01	-9.135675e+01
8.000000e-07	-4.268423e-06	-1.363106e-09	-2.961148e+01	-9.107901e+01
8.100000e-07	-4.238273e-06	-1.356949e-09	-2.940232e+01	-9.079707e+01
8.200000e-07	-4.207832e-06	-1.346933e-09	-2.919114e+01	-9.051123e+01
8.300000e-07	-4.177109e-06	-1.331291e-09	-2.897801e+01	-9.022183e+01
8.400000e-07	-4.146114e-06	-1.323452e-09	-2.876299e+01	-8.992920e+01
8.500000e-07	-4.114904e-06	-1.329991e-09	-2.854647e+01	-8.963370e+01
8.600000e-07	-4.083528e-06	-1.327430e-09	-2.832880e+01	-8.933569e+01
8.700000e-07	-4.052034e-06	-1.320372e-09	-2.811032e+01	-8.903549e+01
8.800000e-07	-4.020333e-06	-1.316511e-09	-2.789040e+01	-8.873343e+01
8.900000e-07	-3.988396e-06	-1.312442e-09	-2.766884e+01	-8.842982e+01
9.000000e-07	-3.956184e-06	-1.295389e-09	-2.744537e+01	-8.812492e+01
9.100000e-07	-3.923703e-06	-1.294693e-09	-2.722005e+01	-8.781897e+01
9.200000e-07	-3.890781e-06	-1.294461e-09	-2.699165e+01	-8.751216e+01
9.300000e-07	-3.857363e-06	-1.288931e-09	-2.675982e+01	-8.720464e+01
9.400000e-07	-3.823438e-06	-1.280928e-09	-2.652447e+01	-8.689651e+01
9.500000e-07	-3.788971e-06	-1.286448e-09	-2.628536e+01	-8.658783e+01
9.600000e-07	-3.754165e-06	-1.276302e-09	-2.604390e+01	-8.627861e+01
9.700000e-07	-3.719094e-06	-1.264716e-09	-2.580060e+01	-8.596879e+01
9.800000e-07	-3.683795e-06	-1.259667e-09	-2.555572e+01	-8.565829e+01
9.900000e-07	-3.648311e-06	-1.257295e-09	-2.530955e+01	-8.534697e+01
1.000000e-06	-3.612663e-06	-1.242547e-09	-2.506226e+01	-8.503463e+01
1.010000e-06	-3.576854e-06	-1.241911e-09	-2.481384e+01	-8.472105e+01
1.020000e-06	-3.540884e-06	-1.243658e-09	-2.456430e+01	-8.440597e+01
1.030000e-06	-3.504730e-06	-1.239564e-09	-2.431349e+01	-8.408909e+01
1.040000e-06	-3.468330e-06	-1.231153e-09	-2.406097e+01	-8.377010e+01
1.050000e-06	-3.431650e-06	-1.228843e-09	-2.380651e+01	-8.344865e+01
1.060000e-06	-3.394697e-06	-1.219388e-09	-2.355015e+01	-8.312438e+01
1.070000e-06	-3.357509e-06	-1.207904e-09	-2.329217e+01	-8.279691e+01
1.080000e-06	-3.320068e-06	-1.201486e-09	-2.303243e+01	-8.246589e+01
1.090000e-06	-3.282348e-06	-1.196634e-09	-2.277075e+01	-8.213093e+01
1.100000e-06	-3.244407e-06	-1.188729e-09	-2.250754e+01	-8.179167e+01
1.110000e-06	-3.206268e-06	-1.184191e-09	-2.224296e+01	-8.144774e+01
1.120000e-06	-3.167921e-06	-1.182083e-09	-2.197693e+01	-8.109882e+01
1.130000e-06	-3.129283e-06	-1.172499e-09	-2.170889e+01	-8.074459e+01
1.140000e-06	-3.090423e-06	-1.164404e-09	-2.143930e+01	-8.038473e+01
1.150000e-06	-3.051372e-06	-1.160381e-09	-2.116839e+01	-8.001898e+01
1.160000e-06	-3.012081e-06	-1.152507e-09	-2.089582e+01	-7.964709e+01
1.170000e-06	-2.972710e-06	-1.139453e-09	-2.062269e+01	-7.926885e+01
1.180000e-06	-2.933258e-06	-1.136231e-09	-2.034899e+01	-7.888406e+01
1.190000e-06	-2.893671e-06	-1.134634e-09	-2.007437e+01	-7.849256e+01
1.200000e-06	-2.853965e-06	-1.130290e-09	-1.979891e+01	-7.809422e+01
1.210000e-06	-2.814117e-06	-1.123428e-09	-1.952247e+01	-7.768893e+01
1.220000e-06	-2.774068e-06	-1.119946e-09	-1.924464e+01	-7.727661e+01
1.230000e-06	-2.733720e-06	-1.112870e-09	-1.896474e+01	-7.685720e+01
1.240000e-06	-2.693164e-06	-1.106951e-09	-1.868338e+01	-7.643065e+01
1.250000e-06	-2.652546e-06	-1.099955e-09	-1.840160e+01	-7.599694e+01
1.260000e-06	-2.611729e-06	-1.093376e-09	-1.811844e+01	-7.555605e+01
1.270000e-06	-2.570575e-06	-1.083864e-09	-1.783294e+01	-7.510796e+01
1.280000e-06	-2.529141e-06	-1.076381e-09	-1.754550e+01	-7.465269e+01
1.290000e-06	-2.487281e-06	-1.068353e-09	-1.725510e+01	-7.419021e+01
1.300000e-06	-2.445031e-06	-1.061850e-09	-1.696200e+01	-7.372052e+01
1.310000e-06	-2.402553e-06	-1.053829e-09	-1.666731e+01	-7.324361e+01
1.320000e-06	-2.359807e-06	-1.048971e-09	-1.637077e+01	-7.275942e+01
1.330000e-06	-2.316834e-06	-1.040416e-09	-1.607265e+01	-7.226793e+01
1.340000e-06	-2.273680e-06	-1.029868e-09	-1.577328e+01	-7.176906e+01
1.350000e-06	-2.230352e-06	-1.021753e-09	-1.547270e+01	-7.126272e+01
1.360000e-06	-2.186854e-06	-1.015897e-09	-1.517094e+01	-7.074880e+01
1.370000e-06	-2.143196e-06	-1.007175e-09	-1.486807e+01	-7.022715e+01
1.380000e-06	-2.099463e-06	-9.974264e-10	-1.456468e+01	-6.969761e+01
1.390000e-06	-2.055715e-06	-9.873866e-10	-1.426118e+01	-6.915996e+01
1.400000e-06	-2.011902e-06	-9.772536e-10	-1.395724e+01	-6.861398e+01
1.410000e-06	-1.968006e-06	-9.659034e-10	-1.365272e+01	-6.805939e+01
1.420000e-06	-1.924016e-06	-9.546386e-10	-1.334755e+01	-6.749590e+01
1.430000e-06	-1.879930e-06	-9.459968e-10	-1.304171e+01	-6.692318e+01
1.440000e-06	-1.835803e-06	-9.371564e-10	-1.273558e+01	-6.634085e+01
1.450000e-06	-1.791537e-06	-9.284162e-10	-1.242849e+01	-6.574851e+01
1.460000e-06	-1.747066e-06	-9.190863e-10	-1.211998e+01	-6.514575e+01
1.470000e-06	-1.702478e-06	-9.080025e-10	-1.181066e+01	-6.453208e+01
1.480000e-06	-1.657745e-06	-8.941870e-10	-1.150033e+01	-6.390702e+01
1.490000e-06	-1.612882e-06	-8.807990e-10	-1.118911e+01	-6.327004e+01
1.500000e-06	-1.567875e-06	-8.693244e-10	-1.087688e+01	-6.262059e+01
1.510000e-06	-1.522698e-06	-8.614728e-10	-1.056347e+01	-6.195810e+01
1.520000e-06	-1.477414e-06	-8.521752e-10	-1.024932e+01	-6.128195e+01
1.530000e-06	-1.432085e-06	-8.442335e-10	-9.934858e+00	-6.059151e+01
1.540000e-06	-1.386631e-06	-8.337254e-10	-9.619523e+00	-5.988612e+01
1.550000e-06	-1.340970e-06	-8.215532e-10	-9.302759e+00	-5.916511e+01
1.560000e-06	-1.295184e-06	-8.085050e-10	-8.985125e+00	-5.842775e+01
1.570000e-06	-1.249393e-06	-7.968746e-10	-8.667461e+00	-5.767334e+01
1.580000e-06	-1.203628e-06	-7.831070e-10	-8.349971e+00	-5.690110e+01
1.590000e-06	-1.157883e-06	-7.709429e-10	-8.032619e+00	-5.611027e+01
1.600000e-06	-1.112050e-06	-7.603583e-10	-7.714665e+00	-5.530006e+01
1.610000e-06	-1.066067e-06	-7.502077e-10	-7.395667e+00	-5.446964e+01
1.620000e-06	-1.020009e-06	-7.401066e-10	-7.076142e+00	-5.361818e+01
1.630000e-06	-9.738535e-07	-7.316975e-10	-6.755948e+00	-5.274483e+01
1.640000e-06	-9.275559e-07	-7.199565e-10	-6.434767e+00	-5.184872e+01
1.650000e-06	-8.812020e-07	-7.046652e-10	-6.113194e+00	-5.092895e+01
1.660000e-06	-8.348363e-07	-6.863468e-10	-5.791539e+00	-4.998463e+01
1.670000e-06	-7.883353e-07	-6.668626e-10	-5.468947e+00	-4.901485e+01
1.680000e-06	-7.417948e-07	-6.494986e-10	-5.146079e+00	-4.801869e+01
1.690000e-06	-6.952819e-07	-6.319842e-10	-4.823404e+00	-4.699522e+01
1.700000e-06	-6.487072e-07	-6.160367e-10	-4.500299e+00	-4.594353e+01
1.710000e-06	-6.021185e-07	-6.021500e-10	-4.177098e+00	-4.486269e+01
1.720000e-06	-5.554364e-07	-5.871849e-10	-3.853249e+00	-4.375179e+01
1.730000e-06	-5.087009e-07	-5.669443e-10	-3.529029e+00	-4.260995e+01
1.740000e-06	-4.620359e-07	-5.451316e-10	-3.205298e+00	-4.143629e+01
1.750000e-06	-4.152292e-07	-5.231217e-10	-2.880584e+00	-4.022997e+01
1.760000e-06	-3.683330e-07	-5.010973e-10	-2.555250e+00	-3.899019e+01
1.770000e-06	-3.215341e-07	-4.807646e-10	-2.230590e+00	-3.771620e+01
1.780000e-06	-2.747153e-07	-4.633774e-10	-1.905792e+00	-3.640730e+01
1.790000e-06	-2.277956e-07	-4.468428e-10	-1.580294e+00	-3.506284e+01
1.800000e-06	-1.808858e-07	-4.305507e-10	-1.254865e+00	-3.368229e+01
1.810000e-06	-1.339908e-07	-4.135700e-10	-9.295389e-01	-3.226515e+01
1.820000e-06	-8.704659e-08	-3.946356e-10	-6.038714e-01	-3.081105e+01
1.830000e-06	-4.012054e-08	-3.723914e-10	-2.783297e-01	-2.931972e+01
1.840000e-06	6.723792e-09	-3.482302e-10	4.664520e-02	-2.779099e+01
1.850000e-06	5.352223e-08	-3.243474e-10	3.713017e-01	-2.622484e+01
1.860000e-06	1.004121e-07	-3.024635e-10	6.965922e-01	-2.462136e+01
1.870000e-06	1.473661e-07	-2.812514e-10	1.022328e+00	-2.298080e+01
1.880000e-06	1.942935e-07	-2.596166e-10	1.347879e+00	-2.130355e+01
1.890000e-06	2.411367e-07	-2.365075e-10	1.672846e+00	-1.959015e+01
1.900000e-06	2.879383e-07	-2.118446e-10	1.997525e+00	-1.784133e+01
1.910000e-06	3.347737e-07	-1.839360e-10	2.322437e+00	-1.605796e+01
1.920000e-06	3.815869e-07	-1.540085e-10	2.647196e+00	-1.424110e+01
1.930000e-06	4.283624e-07	-1.255941e-10	2.971694e+00	-1.239197e+01
1.940000e-06	4.750592e-07	-9.997331e-11	3.295645e+00	-1.051196e+01
1.950000e-06	5.217253e-07	-7.550735e-11	3.619384e+00	-8.602661e+00
1.960000e-06	5.683934e-07	-5.104697e-11	3.943136e+00	-6.665798e+00
1.970000e-06	6.150201e-07	-2.600874e-11	4.266601e+00	-4.703279e+00
1.980000e-06	6.615616e-07	4.622530e-13	4.589475e+00	-2.717165e+00
1.990000e-06	7.080125e-07	3.079897e-11	4.911721e+00	-7.096678e-01
2.000000e-06	7.543931e-07	6.435947e-11	5.233478e+00	1.316862e+00
2.010000e-06	8.008057e-07	9.638279e-11	5.555458e+00	3.359946e+00
2.020000e-06	8.471897e-07	1.259117e-10	5.877239e+00	5.416990e+00
2.030000e-06	8.934177e-07	1.526576e-10	6.197939e+00	7.485300e+00
2.040000e-06	9.396410e-07	1.770976e-10	6.518605e+00	9.562097e+00
2.050000e-06	9.858514e-07	2.035350e-10	6.839182e+00	1.164454e+01
2.060000e-06	1.031893e-06	2.340330e-10	7.158588e+00	1.372972e+01
2.070000e-06	1.077800e-06	2.673494e-10	7.477060e+00	1.581473e+01
2.080000e-06	1.123662e-06	2.996346e-10	7.795219e+00	1.789663e+01
2.090000e-06	1.169446e-06	3.281403e-10	8.112837e+00	1.997248e+01
2.100000e-06	1.215243e-06	3.560704e-10	8.430546e+00	2.203939e+01
2.110000e-06	1.260976e-06	3.843535e-10	8.747813e+00	2.409452e+01
2.120000e-06	1.306567e-06	4.124986e-10	9.064092e+00	2.613507e+01
2.130000e-06	1.352163e-06	4.399387e-10	9.380407e+00	2.815837e+01
2.140000e-06	1.397672e-06	4.661352e-10	9.696119e+00	3.016181e+01
2.150000e-06	1.442973e-06	4.926429e-10	1.001038e+01	3.214293e+01
2.160000e-06	1.488137e-06	5.206503e-10	1.032371e+01	3.409940e+01
2.170000e-06	1.533205e-06	5.496113e-10	1.063635e+01	3.602904e+01
2.180000e-06	1.578154e-06	5.778897e-10	1.094819e+01	3.792985e+01
2.190000e-06	1.622994e-06	6.040064e-10	1.125925e+01	3.979997e+01
2.200000e-06	1.667730e-06	6.285257e-10	1.156960e+01	4.163777e+01
2.210000e-06	1.712363e-06	6.520596e-10	1.187924e+01	4.344176e+01
2.220000e-06	1.756919e-06	6.758061e-10	1.218834e+01	4.521069e+01
2.230000e-06	1.801409e-06	6.979529e-10	1.249698e+01	4.694347e+01
2.240000e-06	1.845700e-06	7.196400e-10	1.280424e+01	4.863924e+01
2.250000e-06	1.889851e-06	7.425264e-10	1.311053e+01	5.029730e+01
2.260000e-06	1.933953e-06	7.650762e-10	1.341648e+01	5.191718e+01
2.270000e-06	1.977907e-06	7.870742e-10	1.372140e+01	5.349855e+01
2.280000e-06	2.021714e-06	8.103079e-10	1.402531e+01	5.504130e+01
2.290000e-06	2.065489e-06	8.321264e-10	1.432899e+01	5.654546e+01
2.300000e-06	2.109204e-06	8.514566e-10	1.463226e+01	5.801121e+01
2.310000e-06	2.152820e-06	8.713777e-10	1.493483e+01	5.943890e+01
2.320000e-06	2.196422e-06	8.918557e-10	1.523732e+01	6.082897e+01
2.330000e-06	2.239870e-06	9.122727e-10	1.553873e+01	6.218201e+01
2.340000e-06	2.283129e-06	9.322329e-10	1.583883e+01	6.349868e+01
2.350000e-06	2.326223e-06	9.518222e-10	1.613779e+01	6.477973e+01
2.360000e-06	2.369111e-06	9.701381e-10	1.643532e+01	6.602598e+01
2.370000e-06	2.411834e-06	9.856580e-10	1.673170e+01	6.723829e+01
2.380000e-06	2.454338e-06	9.990278e-10	1.702657e+01	6.841755e+01
2.390000e-06	2.496467e-06	1.013889e-09	1.731883e+01	6.956468e+01
2.400000e-06	2.538200e-06	1.030547e-09	1.760834e+01	7.068059e+01
2.410000e-06	2.579624e-06	1.046899e-09	1.789571e+01	7.176619e+01
2.420000e-06	2.620703e-06	1.061739e-09	1.818070e+01	7.282236e+01
2.430000e-06	2.661542e-06	1.074455e-09	1.846401e+01	7.384994e+01
2.440000e-06	2.702229e-06	1.084634e-09	1.874627e+01	7.484974e+01
2.450000e-06	2.742702e-06	1.095847e-09	1.902704e+01	7.582251e+01
2.460000e-06	2.782937e-06	1.110078e-09	1.930617e+01	7.676896e+01
2.470000e-06	2.822952e-06	1.124461e-09	1.958376e+01	7.768971e+01
2.480000e-06	2.862849e-06	1.137252e-09	1.986054e+01	7.858536e+01
2.490000e-06	2.902613e-06	1.149721e-09	2.013640e+01	7.945641e+01
2.500000e-06	2.942270e-06	1.161319e-09	2.041151e+01	8.030331e+01
2.510000e-06	2.981788e-06	1.171460e-09	2.068566e+01	8.112647e+01
2.520000e-06	3.021018e-06	1.179891e-09	2.095782e+01	8.192622e+01
2.530000e-06	3.060018e-06	1.188306e-09	2.122837e+01	8.270286e+01
2.540000e-06	3.098889e-06	1.198917e-09	2.149803e+01	8.345663e+01
2.550000e-06	3.137566e-06	1.209240e-09	2.176635e+01	8.418777e+01
2.560000e-06	3.175956e-06	1.219323e-09	2.203268e+01	8.489647e+01
2.570000e-06	3.214109e-06	1.230282e-09	2.229736e+01	8.558290e+01
2.580000e-06	3.252058e-06	1.240503e-09	2.256062e+01	8.624726e+01
2.590000e-06	3.289792e-06	1.249779e-09	2.282239e+01	8.688972e+01
2.600000e-06	3.327394e-06	1.258153e-09	2.308325e+01	8.751047e+01
2.610000e-06	3.364780e-06	1.266097e-09	2.334261e+01	8.810974e+01
2.620000e-06	3.401861e-06	1.274605e-09	2.359985e+01	8.868778e+01
2.630000e-06	3.438772e-06	1.283903e-09	2.385591e+01	8.924489e+01
2.640000e-06	3.475387e-06	1.293483e-09	2.410992e+01	8.978139e+01
2.650000e-06	3.511685e-06	1.301058e-09	2.436174e+01	9.029768e+01
2.660000e-06	3.547824e-06	1.307652e-09	2.461244e+01	9.079420e+01
2.670000e-06	3.583764e-06	1.313233e-09	2.486178e+01	9.127146e+01
2.680000e-06	3.619507e-06	1.317106e-09	2.510974e+01	9.173002e+01
2.690000e-06	3.655102e-06	1.321347e-09	2.535667e+01	9.217051e+01
2.700000e-06	3.690513e-06	1.327653e-09	2.560232e+01	9.259359e+01
2.710000e-06	3.725759e-06	1.336211e-09	2.584684e+01	9.300000e+01
2.720000e-06	3.760746e-06	1.344784e-09	2.608956e+01	9.339052e+01
2.730000e-06	3.795416e-06	1.351811e-09	2.633008e+01	9.376598e+01
2.740000e-06	3.829719e-06	1.358508e-09	2.656805e+01	9.412724e+01
2.750000e-06	3.863519e-06	1.362220e-09	2.680253e+01	9.447517e+01
2.760000e-06	3.896946e-06	1.364077e-09	2.703442e+01	9.481067e+01
2.770000e-06	3.930004e-06	1.367927e-09	2.726376e+01	9.513466e+01
2.780000e-06	3.962615e-06	1.374152e-09	2.748999e+01	9.544802e+01
2.790000e-06	3.994914e-06	1.381485e-09	2.771406e+01	9.575166e+01
2.800000e-06	4.026970e-06	1.388397e-09	2.793644e+01	9.604642e+01
2.810000e-06	4.058813e-06	1.393134e-09	2.815735e+01	9.633312e+01
2.820000e-06	4.090473e-06	1.397041e-09	2.837698e+01	9.661254e+01
2.830000e-06	4.121869e-06	1.400360e-09	2.859479e+01	9.688539e+01
2.840000e-06	4.152971e-06	1.402332e-09	2.881056e+01	9.715231e+01
2.850000e-06	4.183824e-06	1.401786e-09	2.902459e+01	9.741388e+01
2.860000e-06	4.214433e-06	1.402143e-09	2.923693e+01	9.767059e+01
2.870000e-06	4.244737e-06	1.406837e-09	2.944716e+01	9.792284e+01
2.880000e-06	4.274713e-06	1.412861e-09	2.965512e+01	9.817095e+01
2.890000e-06	4.304379e-06	1.419577e-09	2.986092e+01	9.841513e+01
2.900000e-06	4.333734e-06	1.423437e-09	3.006457e+01	9.865553e+01
