# Temperatura_=_10.98
# Concentracion g/m^3_=_1620.0
# C_Vs_to_Am_M_A/Vsm_=_65563218390.804596
# pendiente_HvsI_1/m_=_3716.3
# ordenada_HvsI_A/m_=_1297.0
# frecuencia_Hz_=_135097.1047072198

Tiempo_(s)	Campo_(V.s)	Magnetizacion_(V.s)	Campo_(kA/m)	Magnetizacion_(A/m)
0.000000e+00	-5.518151e-06	-1.639895e-09	-3.837637e+01	-1.073608e+02
1.000000e-08	-5.518466e-06	-1.637968e-09	-3.837856e+01	-1.073000e+02
2.000000e-08	-5.518619e-06	-1.635787e-09	-3.837963e+01	-1.072415e+02
3.000000e-08	-5.518502e-06	-1.635737e-09	-3.837882e+01	-1.071858e+02
4.000000e-08	-5.517863e-06	-1.637207e-09	-3.837437e+01	-1.071330e+02
5.000000e-08	-5.516604e-06	-1.638260e-09	-3.836561e+01	-1.070832e+02
6.000000e-08	-5.514696e-06	-1.632245e-09	-3.835234e+01	-1.070364e+02
7.000000e-08	-5.512155e-06	-1.619617e-09	-3.833467e+01	-1.069927e+02
8.000000e-08	-5.509119e-06	-1.636627e-09	-3.831356e+01	-1.069518e+02
9.000000e-08	-5.505599e-06	-1.695205e-09	-3.828908e+01	-1.069135e+02
1.000000e-07	-5.501585e-06	-1.709449e-09	-3.826117e+01	-1.068774e+02
1.100000e-07	-5.497225e-06	-1.612233e-09	-3.823084e+01	-1.068431e+02
1.200000e-07	-5.492743e-06	-1.563490e-09	-3.819967e+01	-1.068100e+02
1.300000e-07	-5.488104e-06	-1.607173e-09	-3.816741e+01	-1.067776e+02
1.400000e-07	-5.483150e-06	-1.681023e-09	-3.813295e+01	-1.067451e+02
1.500000e-07	-5.477747e-06	-1.629489e-09	-3.809538e+01	-1.067119e+02
1.600000e-07	-5.471978e-06	-1.589074e-09	-3.805526e+01	-1.066771e+02
1.700000e-07	-5.465854e-06	-1.621287e-09	-3.801267e+01	-1.066400e+02
1.800000e-07	-5.459308e-06	-1.680879e-09	-3.796715e+01	-1.065997e+02
1.900000e-07	-5.452329e-06	-1.629740e-09	-3.791861e+01	-1.065553e+02
2.000000e-07	-5.444996e-06	-1.576641e-09	-3.786761e+01	-1.065061e+02
2.100000e-07	-5.437387e-06	-1.597537e-09	-3.781469e+01	-1.064513e+02
2.200000e-07	-5.429533e-06	-1.679022e-09	-3.776007e+01	-1.063900e+02
2.300000e-07	-5.421425e-06	-1.680565e-09	-3.770369e+01	-1.063215e+02
2.400000e-07	-5.412898e-06	-1.623467e-09	-3.764439e+01	-1.062452e+02
2.500000e-07	-5.403813e-06	-1.607617e-09	-3.758120e+01	-1.061606e+02
2.600000e-07	-5.394034e-06	-1.624432e-09	-3.751319e+01	-1.060671e+02
2.700000e-07	-5.383597e-06	-1.627443e-09	-3.744061e+01	-1.059643e+02
2.800000e-07	-5.372654e-06	-1.595757e-09	-3.736450e+01	-1.058519e+02
2.900000e-07	-5.361275e-06	-1.606481e-09	-3.728536e+01	-1.057298e+02
3.000000e-07	-5.349508e-06	-1.614974e-09	-3.720353e+01	-1.055978e+02
3.100000e-07	-5.337426e-06	-1.614595e-09	-3.711951e+01	-1.054560e+02
3.200000e-07	-5.324899e-06	-1.573859e-09	-3.703239e+01	-1.053045e+02
3.300000e-07	-5.311946e-06	-1.593224e-09	-3.694231e+01	-1.051436e+02
3.400000e-07	-5.298733e-06	-1.598213e-09	-3.685042e+01	-1.049736e+02
3.500000e-07	-5.285210e-06	-1.595652e-09	-3.675637e+01	-1.047949e+02
3.600000e-07	-5.271182e-06	-1.566838e-09	-3.665881e+01	-1.046080e+02
3.700000e-07	-5.256672e-06	-1.607130e-09	-3.655790e+01	-1.044136e+02
3.800000e-07	-5.241594e-06	-1.592229e-09	-3.645304e+01	-1.042122e+02
3.900000e-07	-5.225868e-06	-1.556036e-09	-3.634367e+01	-1.040046e+02
4.000000e-07	-5.209573e-06	-1.559963e-09	-3.623034e+01	-1.037916e+02
4.100000e-07	-5.193003e-06	-1.602322e-09	-3.611511e+01	-1.035737e+02
4.200000e-07	-5.176180e-06	-1.559718e-09	-3.599811e+01	-1.033520e+02
4.300000e-07	-5.158924e-06	-1.536117e-09	-3.587810e+01	-1.031270e+02
4.400000e-07	-5.141414e-06	-1.586001e-09	-3.575633e+01	-1.028995e+02
4.500000e-07	-5.123604e-06	-1.587532e-09	-3.563246e+01	-1.026703e+02
4.600000e-07	-5.105268e-06	-1.524997e-09	-3.550495e+01	-1.024399e+02
4.700000e-07	-5.086434e-06	-1.540106e-09	-3.537396e+01	-1.022090e+02
4.800000e-07	-5.067319e-06	-1.579099e-09	-3.524103e+01	-1.019782e+02
4.900000e-07	-5.048009e-06	-1.534099e-09	-3.510674e+01	-1.017479e+02
5.000000e-07	-5.028485e-06	-1.517042e-09	-3.497096e+01	-1.015184e+02
5.100000e-07	-5.008746e-06	-1.554775e-09	-3.483368e+01	-1.012901e+02
5.200000e-07	-4.988660e-06	-1.533369e-09	-3.469399e+01	-1.010633e+02
5.300000e-07	-4.968161e-06	-1.497792e-09	-3.455143e+01	-1.008379e+02
5.400000e-07	-4.947434e-06	-1.544367e-09	-3.440728e+01	-1.006141e+02
5.500000e-07	-4.926428e-06	-1.545805e-09	-3.426119e+01	-1.003918e+02
5.600000e-07	-4.904949e-06	-1.491876e-09	-3.411182e+01	-1.001709e+02
5.700000e-07	-4.883132e-06	-1.498368e-09	-3.396009e+01	-9.995122e+01
5.800000e-07	-4.860958e-06	-1.533183e-09	-3.380587e+01	-9.973244e+01
5.900000e-07	-4.838335e-06	-1.492886e-09	-3.364854e+01	-9.951426e+01
6.000000e-07	-4.815400e-06	-1.485158e-09	-3.348904e+01	-9.929631e+01
6.100000e-07	-4.792242e-06	-1.514044e-09	-3.332799e+01	-9.907817e+01
6.200000e-07	-4.768826e-06	-1.501843e-09	-3.316514e+01	-9.885941e+01
6.300000e-07	-4.745167e-06	-1.472209e-09	-3.300060e+01	-9.863957e+01
6.400000e-07	-4.721286e-06	-1.498998e-09	-3.283452e+01	-9.841819e+01
6.500000e-07	-4.697030e-06	-1.496419e-09	-3.266583e+01	-9.819480e+01
6.600000e-07	-4.672253e-06	-1.470036e-09	-3.249351e+01	-9.796898e+01
6.700000e-07	-4.646978e-06	-1.477491e-09	-3.231773e+01	-9.774030e+01
6.800000e-07	-4.621334e-06	-1.491064e-09	-3.213939e+01	-9.750837e+01
6.900000e-07	-4.595173e-06	-1.464519e-09	-3.195746e+01	-9.727285e+01
7.000000e-07	-4.568417e-06	-1.462108e-09	-3.177138e+01	-9.703344e+01
7.100000e-07	-4.541304e-06	-1.469285e-09	-3.158282e+01	-9.678990e+01
7.200000e-07	-4.513961e-06	-1.456685e-09	-3.139267e+01	-9.654202e+01
7.300000e-07	-4.486433e-06	-1.446031e-09	-3.120122e+01	-9.628967e+01
7.400000e-07	-4.458717e-06	-1.460107e-09	-3.100847e+01	-9.603277e+01
7.500000e-07	-4.430798e-06	-1.449923e-09	-3.081430e+01	-9.577130e+01
7.600000e-07	-4.402677e-06	-1.433321e-09	-3.061873e+01	-9.550528e+01
7.700000e-07	-4.374253e-06	-1.435692e-09	-3.042105e+01	-9.523480e+01
7.800000e-07	-4.345414e-06	-1.431259e-09	-3.022049e+01	-9.495997e+01
7.900000e-07	-4.316209e-06	-1.422238e-09	-3.001738e+01	-9.468097e+01
8.000000e-07	-4.286774e-06	-1.426555e-09	-2.981268e+01	-9.439797e+01
8.100000e-07	-4.257117e-06	-1.428796e-09	-2.960642e+01	-9.411121e+01
8.200000e-07	-4.227206e-06	-1.408482e-09	-2.939840e+01	-9.382093e+01
8.300000e-07	-4.196974e-06	-1.399484e-09	-2.918815e+01	-9.352735e+01
8.400000e-07	-4.166380e-06	-1.397416e-09	-2.897539e+01	-9.323074e+01
8.500000e-07	-4.135497e-06	-1.386790e-09	-2.876061e+01	-9.293132e+01
8.600000e-07	-4.104392e-06	-1.381026e-09	-2.854429e+01	-9.262933e+01
8.700000e-07	-4.073106e-06	-1.391753e-09	-2.832671e+01	-9.232497e+01
8.800000e-07	-4.041635e-06	-1.383971e-09	-2.810784e+01	-9.201840e+01
8.900000e-07	-4.009967e-06	-1.372333e-09	-2.788760e+01	-9.170976e+01
9.000000e-07	-3.978060e-06	-1.364640e-09	-2.766570e+01	-9.139917e+01
9.100000e-07	-3.945888e-06	-1.357071e-09	-2.744196e+01	-9.108666e+01
9.200000e-07	-3.913368e-06	-1.341872e-09	-2.721579e+01	-9.077227e+01
9.300000e-07	-3.880398e-06	-1.344317e-09	-2.698650e+01	-9.045596e+01
9.400000e-07	-3.846929e-06	-1.347283e-09	-2.675374e+01	-9.013764e+01
9.500000e-07	-3.813105e-06	-1.339877e-09	-2.651851e+01	-8.981722e+01
9.600000e-07	-3.778861e-06	-1.334043e-09	-2.628035e+01	-8.949451e+01
9.700000e-07	-3.744048e-06	-1.335187e-09	-2.603825e+01	-8.916933e+01
9.800000e-07	-3.708920e-06	-1.323062e-09	-2.579395e+01	-8.884144e+01
9.900000e-07	-3.673616e-06	-1.311130e-09	-2.554843e+01	-8.851058e+01
1.000000e-06	-3.638135e-06	-1.304012e-09	-2.530167e+01	-8.817647e+01
1.010000e-06	-3.602481e-06	-1.293122e-09	-2.505371e+01	-8.783880e+01
1.020000e-06	-3.566713e-06	-1.280156e-09	-2.480496e+01	-8.749728e+01
1.030000e-06	-3.530815e-06	-1.279278e-09	-2.455530e+01	-8.715158e+01
1.040000e-06	-3.494751e-06	-1.281219e-09	-2.430449e+01	-8.680139e+01
1.050000e-06	-3.458390e-06	-1.275746e-09	-2.405162e+01	-8.644643e+01
1.060000e-06	-3.421691e-06	-1.269185e-09	-2.379640e+01	-8.608641e+01
1.070000e-06	-3.384777e-06	-1.265083e-09	-2.353967e+01	-8.572107e+01
1.080000e-06	-3.347629e-06	-1.256701e-09	-2.328132e+01	-8.535018e+01
1.090000e-06	-3.310194e-06	-1.241752e-09	-2.302098e+01	-8.497354e+01
1.100000e-06	-3.272557e-06	-1.231882e-09	-2.275923e+01	-8.459098e+01
1.110000e-06	-3.234763e-06	-1.220407e-09	-2.249639e+01	-8.420238e+01
1.120000e-06	-3.196700e-06	-1.212811e-09	-2.223168e+01	-8.380764e+01
1.130000e-06	-3.158411e-06	-1.212433e-09	-2.196539e+01	-8.340672e+01
1.140000e-06	-3.119902e-06	-1.212512e-09	-2.169758e+01	-8.299960e+01
1.150000e-06	-3.081174e-06	-1.207039e-09	-2.142824e+01	-8.258629e+01
1.160000e-06	-3.042234e-06	-1.198759e-09	-2.115743e+01	-8.216685e+01
1.170000e-06	-3.003120e-06	-1.186798e-09	-2.088541e+01	-8.174137e+01
1.180000e-06	-2.963891e-06	-1.173398e-09	-2.061259e+01	-8.130994e+01
1.190000e-06	-2.924481e-06	-1.164609e-09	-2.033851e+01	-8.087268e+01
1.200000e-06	-2.884868e-06	-1.162307e-09	-2.006302e+01	-8.042975e+01
1.210000e-06	-2.845106e-06	-1.157044e-09	-1.978649e+01	-7.998127e+01
1.220000e-06	-2.805222e-06	-1.153029e-09	-1.950911e+01	-7.952740e+01
1.230000e-06	-2.765203e-06	-1.149567e-09	-1.923080e+01	-7.906826e+01
1.240000e-06	-2.725014e-06	-1.144010e-09	-1.895131e+01	-7.860398e+01
1.250000e-06	-2.684610e-06	-1.132961e-09	-1.867031e+01	-7.813467e+01
1.260000e-06	-2.643952e-06	-1.123503e-09	-1.838755e+01	-7.766040e+01
1.270000e-06	-2.602972e-06	-1.114402e-09	-1.810255e+01	-7.718122e+01
1.280000e-06	-2.561712e-06	-1.107122e-09	-1.781561e+01	-7.669715e+01
1.290000e-06	-2.520206e-06	-1.102686e-09	-1.752695e+01	-7.620814e+01
1.300000e-06	-2.478431e-06	-1.099627e-09	-1.723642e+01	-7.571414e+01
1.310000e-06	-2.436327e-06	-1.092790e-09	-1.694361e+01	-7.521502e+01
1.320000e-06	-2.393906e-06	-1.082764e-09	-1.664859e+01	-7.471062e+01
1.330000e-06	-2.351245e-06	-1.071698e-09	-1.635190e+01	-7.420073e+01
1.340000e-06	-2.308377e-06	-1.058266e-09	-1.605377e+01	-7.368508e+01
1.350000e-06	-2.265221e-06	-1.047747e-09	-1.575364e+01	-7.316336e+01
1.360000e-06	-2.221840e-06	-1.044720e-09	-1.545194e+01	-7.263522e+01
1.370000e-06	-2.178390e-06	-1.042110e-09	-1.514977e+01	-7.210026e+01
1.380000e-06	-2.134899e-06	-1.038311e-09	-1.484731e+01	-7.155804e+01
1.390000e-06	-2.091381e-06	-1.032156e-09	-1.454466e+01	-7.100809e+01
1.400000e-06	-2.047766e-06	-1.021317e-09	-1.424133e+01	-7.044991e+01
1.410000e-06	-2.004038e-06	-1.006701e-09	-1.393723e+01	-6.988295e+01
1.420000e-06	-1.960192e-06	-9.912778e-10	-1.363230e+01	-6.930666e+01
1.430000e-06	-1.916218e-06	-9.779099e-10	-1.332647e+01	-6.872046e+01
1.440000e-06	-1.872173e-06	-9.692683e-10	-1.302016e+01	-6.812376e+01
1.450000e-06	-1.828081e-06	-9.649505e-10	-1.271352e+01	-6.751595e+01
1.460000e-06	-1.783865e-06	-9.578464e-10	-1.240602e+01	-6.689642e+01
1.470000e-06	-1.739530e-06	-9.468332e-10	-1.209768e+01	-6.626455e+01
1.480000e-06	-1.695102e-06	-9.339561e-10	-1.178871e+01	-6.561973e+01
1.490000e-06	-1.650435e-06	-9.193512e-10	-1.147807e+01	-6.496134e+01
1.500000e-06	-1.605546e-06	-9.013481e-10	-1.116588e+01	-6.428876e+01
1.510000e-06	-1.560577e-06	-8.840877e-10	-1.085315e+01	-6.360139e+01
1.520000e-06	-1.515413e-06	-8.720364e-10	-1.053905e+01	-6.289860e+01
1.530000e-06	-1.470141e-06	-8.642041e-10	-1.022420e+01	-6.217978e+01
1.540000e-06	-1.424877e-06	-8.548832e-10	-9.909405e+00	-6.144434e+01
1.550000e-06	-1.379500e-06	-8.459711e-10	-9.593833e+00	-6.069165e+01
1.560000e-06	-1.334027e-06	-8.341969e-10	-9.277583e+00	-5.992110e+01
1.570000e-06	-1.288452e-06	-8.198770e-10	-8.960632e+00	-5.913206e+01
1.580000e-06	-1.242795e-06	-8.039073e-10	-8.643109e+00	-5.832391e+01
1.590000e-06	-1.197056e-06	-7.880467e-10	-8.325010e+00	-5.749600e+01
1.600000e-06	-1.151189e-06	-7.703954e-10	-8.006026e+00	-5.664766e+01
1.610000e-06	-1.105266e-06	-7.565862e-10	-7.686652e+00	-5.577821e+01
1.620000e-06	-1.059291e-06	-7.472689e-10	-7.366912e+00	-5.488696e+01
1.630000e-06	-1.013268e-06	-7.376994e-10	-7.046841e+00	-5.397316e+01
1.640000e-06	-9.671690e-07	-7.273006e-10	-6.726245e+00	-5.303608e+01
1.650000e-06	-9.209820e-07	-7.135439e-10	-6.405035e+00	-5.207492e+01
1.660000e-06	-8.747851e-07	-6.951042e-10	-6.083755e+00	-5.108889e+01
1.670000e-06	-8.285697e-07	-6.734528e-10	-5.762347e+00	-5.007715e+01
1.680000e-06	-7.823017e-07	-6.528716e-10	-5.440573e+00	-4.903884e+01
1.690000e-06	-7.359203e-07	-6.345647e-10	-5.118010e+00	-4.797309e+01
1.700000e-06	-6.894784e-07	-6.169548e-10	-4.795027e+00	-4.687900e+01
1.710000e-06	-6.430071e-07	-5.996737e-10	-4.471839e+00	-4.575567e+01
1.720000e-06	-5.964669e-07	-5.845869e-10	-4.148171e+00	-4.460220e+01
1.730000e-06	-5.498528e-07	-5.682849e-10	-3.823990e+00	-4.341767e+01
1.740000e-06	-5.031985e-07	-5.491218e-10	-3.499530e+00	-4.220119e+01
1.750000e-06	-4.565288e-07	-5.293023e-10	-3.174962e+00	-4.095189e+01
1.760000e-06	-4.098157e-07	-5.092695e-10	-2.850092e+00	-3.966893e+01
1.770000e-06	-3.630263e-07	-4.880396e-10	-2.524692e+00	-3.835151e+01
1.780000e-06	-3.162108e-07	-4.676783e-10	-2.199110e+00	-3.699887e+01
1.790000e-06	-2.694930e-07	-4.476944e-10	-1.874208e+00	-3.561036e+01
1.800000e-06	-2.227325e-07	-4.270966e-10	-1.549009e+00	-3.418536e+01
1.810000e-06	-1.759172e-07	-4.053484e-10	-1.223428e+00	-3.272338e+01
1.820000e-06	-1.291298e-07	-3.839657e-10	-8.980424e-01	-3.122400e+01
1.830000e-06	-8.229025e-08	-3.627274e-10	-5.722934e-01	-2.968695e+01
1.840000e-06	-3.547210e-08	-3.412040e-10	-2.466932e-01	-2.811206e+01
1.850000e-06	1.137787e-08	-3.202961e-10	7.912818e-02	-2.649931e+01
1.860000e-06	5.825911e-08	-2.997459e-10	4.051671e-01	-2.484882e+01
1.870000e-06	1.049970e-07	-2.774295e-10	7.302090e-01	-2.316088e+01
1.880000e-06	1.517108e-07	-2.535591e-10	1.055083e+00	-2.143594e+01
1.890000e-06	1.985496e-07	-2.288593e-10	1.380827e+00	-1.967460e+01
1.900000e-06	2.454087e-07	-2.034830e-10	1.706712e+00	-1.787765e+01
1.910000e-06	2.922007e-07	-1.765838e-10	2.032130e+00	-1.604605e+01
1.920000e-06	3.389422e-07	-1.499620e-10	2.357198e+00	-1.418095e+01
1.930000e-06	3.856410e-07	-1.228249e-10	2.681967e+00	-1.228365e+01
1.940000e-06	4.323241e-07	-9.590096e-11	3.006628e+00	-1.035566e+01
1.950000e-06	4.789412e-07	-6.986429e-11	3.330831e+00	-8.398618e+00
1.960000e-06	5.255057e-07	-4.352581e-11	3.654667e+00	-6.414362e+00
1.970000e-06	5.720241e-07	-1.724512e-11	3.978182e+00	-4.404865e+00
1.980000e-06	6.184329e-07	9.089323e-12	4.300936e+00	-2.372253e+00
1.990000e-06	6.648440e-07	3.466444e-11	4.623705e+00	-3.187865e-01
2.000000e-06	7.111454e-07	6.566737e-11	4.945711e+00	1.753149e+00
2.010000e-06	7.573666e-07	1.012093e-10	5.267160e+00	3.841059e+00
2.020000e-06	8.036535e-07	1.338207e-10	5.589065e+00	5.942351e+00
2.030000e-06	8.498631e-07	1.624509e-10	5.910433e+00	8.054355e+00
2.040000e-06	8.959165e-07	1.890985e-10	6.230715e+00	1.017433e+01
2.050000e-06	9.419295e-07	2.145902e-10	6.550715e+00	1.229950e+01
2.060000e-06	9.879748e-07	2.415693e-10	6.870940e+00	1.442705e+01
2.070000e-06	1.033974e-06	2.714334e-10	7.190847e+00	1.655414e+01
2.080000e-06	1.079931e-06	3.035816e-10	7.510458e+00	1.867796e+01
2.090000e-06	1.125798e-06	3.359412e-10	7.829443e+00	2.079569e+01
2.100000e-06	1.171521e-06	3.673768e-10	8.147427e+00	2.290458e+01
2.110000e-06	1.217153e-06	3.988489e-10	8.464774e+00	2.500190e+01
2.120000e-06	1.262701e-06	4.292833e-10	8.781547e+00	2.708501e+01
2.130000e-06	1.308179e-06	4.582089e-10	9.097826e+00	2.915135e+01
2.140000e-06	1.353580e-06	4.866124e-10	9.413566e+00	3.119845e+01
2.150000e-06	1.398825e-06	5.124270e-10	9.728224e+00	3.322396e+01
2.160000e-06	1.443996e-06	5.378268e-10	1.004237e+01	3.522564e+01
2.170000e-06	1.489119e-06	5.659931e-10	1.035618e+01	3.720139e+01
2.180000e-06	1.534079e-06	5.940584e-10	1.066886e+01	3.914924e+01
2.190000e-06	1.578902e-06	6.216590e-10	1.098058e+01	4.106738e+01
2.200000e-06	1.623614e-06	6.485938e-10	1.129154e+01	4.295413e+01
2.210000e-06	1.668214e-06	6.743788e-10	1.160171e+01	4.480801e+01
2.220000e-06	1.712682e-06	7.009878e-10	1.191097e+01	4.662765e+01
2.230000e-06	1.756992e-06	7.278260e-10	1.221913e+01	4.841189e+01
2.240000e-06	1.801135e-06	7.517686e-10	1.252612e+01	5.015970e+01
2.250000e-06	1.845245e-06	7.740041e-10	1.283289e+01	5.187023e+01
2.260000e-06	1.889304e-06	7.959857e-10	1.313930e+01	5.354279e+01
2.270000e-06	1.933167e-06	8.185880e-10	1.344435e+01	5.517684e+01
2.280000e-06	1.976970e-06	8.426808e-10	1.374898e+01	5.677200e+01
2.290000e-06	2.020736e-06	8.651483e-10	1.405335e+01	5.832805e+01
2.300000e-06	2.064390e-06	8.854386e-10	1.435695e+01	5.984488e+01
2.310000e-06	2.107949e-06	9.052390e-10	1.465988e+01	6.132255e+01
2.320000e-06	2.151474e-06	9.255870e-10	1.496258e+01	6.276121e+01
2.330000e-06	2.194962e-06	9.462461e-10	1.526502e+01	6.416118e+01
2.340000e-06	2.238339e-06	9.662014e-10	1.556669e+01	6.552282e+01
2.350000e-06	2.281574e-06	9.864071e-10	1.586737e+01	6.684666e+01
2.360000e-06	2.324585e-06	1.006661e-09	1.616649e+01	6.813325e+01
2.370000e-06	2.367358e-06	1.025054e-09	1.646396e+01	6.938328e+01
2.380000e-06	2.409929e-06	1.040772e-09	1.676002e+01	7.059747e+01
2.390000e-06	2.452236e-06	1.054271e-09	1.705425e+01	7.177660e+01
2.400000e-06	2.494143e-06	1.069418e-09	1.734569e+01	7.292151e+01
2.410000e-06	2.535754e-06	1.087011e-09	1.763508e+01	7.403307e+01
2.420000e-06	2.577167e-06	1.105331e-09	1.792309e+01	7.511218e+01
2.430000e-06	2.618189e-06	1.120628e-09	1.820838e+01	7.615974e+01
2.440000e-06	2.658881e-06	1.131595e-09	1.849138e+01	7.717667e+01
2.450000e-06	2.699380e-06	1.140937e-09	1.877303e+01	7.816391e+01
2.460000e-06	2.739629e-06	1.152697e-09	1.905294e+01	7.912234e+01
2.470000e-06	2.779575e-06	1.167022e-09	1.933075e+01	8.005287e+01
2.480000e-06	2.819373e-06	1.179502e-09	1.960753e+01	8.095636e+01
2.490000e-06	2.859120e-06	1.190935e-09	1.988395e+01	8.183365e+01
2.500000e-06	2.898750e-06	1.203629e-09	2.015956e+01	8.268555e+01
2.510000e-06	2.938315e-06	1.214501e-09	2.043472e+01	8.351283e+01
2.520000e-06	2.977724e-06	1.223164e-09	2.070880e+01	8.431621e+01
2.530000e-06	3.016934e-06	1.232120e-09	2.098148e+01	8.509637e+01
2.540000e-06	3.056035e-06	1.240070e-09	2.125341e+01	8.585396e+01
2.550000e-06	3.094980e-06	1.247333e-09	2.152426e+01	8.658958e+01
2.560000e-06	3.133579e-06	1.255857e-09	2.179270e+01	8.730377e+01
2.570000e-06	3.171802e-06	1.265449e-09	2.205852e+01	8.799705e+01
2.580000e-06	3.209833e-06	1.274775e-09	2.232301e+01	8.866989e+01
2.590000e-06	3.247716e-06	1.283970e-09	2.258647e+01	8.932272e+01
2.600000e-06	3.285383e-06	1.291512e-09	2.284843e+01	8.995596e+01
2.610000e-06	3.322810e-06	1.298915e-09	2.310872e+01	9.056997e+01
2.620000e-06	3.360023e-06	1.308513e-09	2.336752e+01	9.116511e+01
2.630000e-06	3.396978e-06	1.317686e-09	2.362453e+01	9.174172e+01
2.640000e-06	3.433690e-06	1.325146e-09	2.387984e+01	9.230012e+01
2.650000e-06	3.470168e-06	1.332071e-09	2.413353e+01	9.284062e+01
2.660000e-06	3.506371e-06	1.339106e-09	2.438531e+01	9.336355e+01
2.670000e-06	3.542306e-06	1.345580e-09	2.463522e+01	9.386923e+01
2.680000e-06	3.578091e-06	1.351909e-09	2.488409e+01	9.435800e+01
2.690000e-06	3.613771e-06	1.358888e-09	2.513223e+01	9.483019e+01
2.700000e-06	3.649331e-06	1.367169e-09	2.537953e+01	9.528617e+01
2.710000e-06	3.684717e-06	1.376520e-09	2.562563e+01	9.572634e+01
2.720000e-06	3.719867e-06	1.384956e-09	2.587008e+01	9.615112e+01
2.730000e-06	3.754846e-06	1.393013e-09	2.611334e+01	9.656094e+01
2.740000e-06	3.789550e-06	1.400884e-09	2.635469e+01	9.695629e+01
2.750000e-06	3.823766e-06	1.407575e-09	2.659265e+01	9.733768e+01
2.760000e-06	3.857468e-06	1.412112e-09	2.682704e+01	9.770564e+01
2.770000e-06	3.890699e-06	1.415795e-09	2.705814e+01	9.806074e+01
2.780000e-06	3.923586e-06	1.419323e-09	2.728686e+01	9.840358e+01
2.790000e-06	3.956052e-06	1.425696e-09	2.751265e+01	9.873478e+01
2.800000e-06	3.988060e-06	1.434726e-09	2.773525e+01	9.905498e+01
2.810000e-06	4.019853e-06	1.442926e-09	2.795636e+01	9.936484e+01
2.820000e-06	4.051492e-06	1.447841e-09	2.817639e+01	9.966503e+01
2.830000e-06	4.082972e-06	1.452018e-09	2.839532e+01	9.995622e+01
2.840000e-06	4.114318e-06	1.456915e-09	2.861331e+01	1.002391e+02
2.850000e-06	4.145510e-06	1.460063e-09	2.883024e+01	1.005143e+02
2.860000e-06	4.176380e-06	1.461300e-09	2.904493e+01	1.007825e+02
2.870000e-06	4.206833e-06	1.463187e-09	2.925672e+01	1.010443e+02
2.880000e-06	4.236983e-06	1.467498e-09	2.946640e+01	1.013003e+02
2.890000e-06	4.266863e-06	1.472359e-09	2.967420e+01	1.015511e+02
2.900000e-06	4.296506e-06	1.478545e-09	2.988036e+01	1.017971e+02
