# Temperatura_=_-6.72
# Concentracion g/m^3_=_1620.0
# C_Vs_to_Am_M_A/Vsm_=_65563218390.804596
# pendiente_HvsI_1/m_=_3716.3
# ordenada_HvsI_A/m_=_1297.0
# frecuencia_Hz_=_135101.98836391087

Tiempo_(s)	Campo_(V.s)	Magnetizacion_(V.s)	Campo_(kA/m)	Magnetizacion_(A/m)
0.000000e+00	-5.524706e-06	-1.334708e-09	-3.837246e+01	-8.582430e+01
1.000000e-08	-5.524913e-06	-1.333139e-09	-3.837390e+01	-8.576614e+01
2.000000e-08	-5.524942e-06	-1.331365e-09	-3.837409e+01	-8.570896e+01
3.000000e-08	-5.524572e-06	-1.331808e-09	-3.837153e+01	-8.565275e+01
4.000000e-08	-5.523637e-06	-1.332712e-09	-3.836503e+01	-8.559748e+01
5.000000e-08	-5.522148e-06	-1.329310e-09	-3.835469e+01	-8.554307e+01
6.000000e-08	-5.520103e-06	-1.316276e-09	-3.834049e+01	-8.548943e+01
7.000000e-08	-5.517585e-06	-1.305818e-09	-3.832300e+01	-8.543642e+01
8.000000e-08	-5.514614e-06	-1.346786e-09	-3.830236e+01	-8.538386e+01
9.000000e-08	-5.511111e-06	-1.417271e-09	-3.827803e+01	-8.533157e+01
1.000000e-07	-5.507085e-06	-1.373710e-09	-3.825007e+01	-8.527932e+01
1.100000e-07	-5.502702e-06	-1.248399e-09	-3.821962e+01	-8.522686e+01
1.200000e-07	-5.498170e-06	-1.233854e-09	-3.818815e+01	-8.517392e+01
1.300000e-07	-5.493437e-06	-1.343512e-09	-3.815527e+01	-8.512023e+01
1.400000e-07	-5.488260e-06	-1.393903e-09	-3.811932e+01	-8.506548e+01
1.500000e-07	-5.482665e-06	-1.300590e-09	-3.808046e+01	-8.500939e+01
1.600000e-07	-5.476821e-06	-1.272769e-09	-3.803987e+01	-8.495165e+01
1.700000e-07	-5.470585e-06	-1.349752e-09	-3.799656e+01	-8.489197e+01
1.800000e-07	-5.463715e-06	-1.368215e-09	-3.794884e+01	-8.483007e+01
1.900000e-07	-5.456394e-06	-1.279419e-09	-3.789799e+01	-8.476568e+01
2.000000e-07	-5.448910e-06	-1.228915e-09	-3.784601e+01	-8.469856e+01
2.100000e-07	-5.441202e-06	-1.298868e-09	-3.779247e+01	-8.462847e+01
2.200000e-07	-5.433232e-06	-1.346839e-09	-3.773711e+01	-8.455524e+01
2.300000e-07	-5.425022e-06	-1.310807e-09	-3.768009e+01	-8.447868e+01
2.400000e-07	-5.416456e-06	-1.246751e-09	-3.762059e+01	-8.439869e+01
2.500000e-07	-5.407245e-06	-1.241925e-09	-3.755662e+01	-8.431515e+01
2.600000e-07	-5.397256e-06	-1.269278e-09	-3.748724e+01	-8.422803e+01
2.700000e-07	-5.386643e-06	-1.289743e-09	-3.741353e+01	-8.413729e+01
2.800000e-07	-5.375543e-06	-1.276658e-09	-3.733643e+01	-8.404298e+01
2.900000e-07	-5.364002e-06	-1.268448e-09	-3.725627e+01	-8.394513e+01
3.000000e-07	-5.352082e-06	-1.275286e-09	-3.717348e+01	-8.384386e+01
3.100000e-07	-5.339796e-06	-1.272924e-09	-3.708814e+01	-8.373929e+01
3.200000e-07	-5.327052e-06	-1.239388e-09	-3.699963e+01	-8.363159e+01
3.300000e-07	-5.313898e-06	-1.236290e-09	-3.690826e+01	-8.352093e+01
3.400000e-07	-5.300431e-06	-1.273531e-09	-3.681473e+01	-8.340753e+01
3.500000e-07	-5.286619e-06	-1.268007e-09	-3.671880e+01	-8.329163e+01
3.600000e-07	-5.272362e-06	-1.248075e-09	-3.661977e+01	-8.317345e+01
3.700000e-07	-5.257691e-06	-1.265191e-09	-3.651788e+01	-8.305327e+01
3.800000e-07	-5.242502e-06	-1.260661e-09	-3.641238e+01	-8.293133e+01
3.900000e-07	-5.226658e-06	-1.213873e-09	-3.630233e+01	-8.280789e+01
4.000000e-07	-5.210415e-06	-1.236387e-09	-3.618952e+01	-8.268321e+01
4.100000e-07	-5.193850e-06	-1.270694e-09	-3.607446e+01	-8.255753e+01
4.200000e-07	-5.176843e-06	-1.225103e-09	-3.595633e+01	-8.243106e+01
4.300000e-07	-5.159477e-06	-1.206626e-09	-3.583572e+01	-8.230403e+01
4.400000e-07	-5.141889e-06	-1.269345e-09	-3.571356e+01	-8.217661e+01
4.500000e-07	-5.123911e-06	-1.247372e-09	-3.558869e+01	-8.204895e+01
4.600000e-07	-5.105426e-06	-1.181428e-09	-3.546030e+01	-8.192121e+01
4.700000e-07	-5.086561e-06	-1.222190e-09	-3.532927e+01	-8.179346e+01
4.800000e-07	-5.067336e-06	-1.259179e-09	-3.519574e+01	-8.166578e+01
4.900000e-07	-5.047851e-06	-1.200243e-09	-3.506041e+01	-8.153820e+01
5.000000e-07	-5.028222e-06	-1.202358e-09	-3.492407e+01	-8.141072e+01
5.100000e-07	-5.008408e-06	-1.248672e-09	-3.478645e+01	-8.128332e+01
5.200000e-07	-4.988226e-06	-1.206605e-09	-3.464627e+01	-8.115593e+01
5.300000e-07	-4.967662e-06	-1.182673e-09	-3.450345e+01	-8.102845e+01
5.400000e-07	-4.946774e-06	-1.237619e-09	-3.435837e+01	-8.090077e+01
5.500000e-07	-4.925456e-06	-1.219236e-09	-3.421030e+01	-8.077274e+01
5.600000e-07	-4.903805e-06	-1.164417e-09	-3.405992e+01	-8.064420e+01
5.700000e-07	-4.881874e-06	-1.201506e-09	-3.390760e+01	-8.051496e+01
5.800000e-07	-4.859568e-06	-1.225083e-09	-3.375267e+01	-8.038481e+01
5.900000e-07	-4.836926e-06	-1.175439e-09	-3.359540e+01	-8.025356e+01
6.000000e-07	-4.813935e-06	-1.177057e-09	-3.343572e+01	-8.012098e+01
6.100000e-07	-4.790643e-06	-1.210339e-09	-3.327394e+01	-7.998685e+01
6.200000e-07	-4.767141e-06	-1.183475e-09	-3.311070e+01	-7.985095e+01
6.300000e-07	-4.743434e-06	-1.167419e-09	-3.294604e+01	-7.971306e+01
6.400000e-07	-4.719512e-06	-1.194052e-09	-3.277989e+01	-7.957298e+01
6.500000e-07	-4.695238e-06	-1.185442e-09	-3.261129e+01	-7.943050e+01
6.600000e-07	-4.670405e-06	-1.162271e-09	-3.243881e+01	-7.928545e+01
6.700000e-07	-4.644941e-06	-1.179607e-09	-3.226196e+01	-7.913767e+01
6.800000e-07	-4.618990e-06	-1.184879e-09	-3.208171e+01	-7.898699e+01
6.900000e-07	-4.592578e-06	-1.162291e-09	-3.189826e+01	-7.883330e+01
7.000000e-07	-4.565729e-06	-1.164117e-09	-3.171178e+01	-7.867650e+01
7.100000e-07	-4.538558e-06	-1.176357e-09	-3.152306e+01	-7.851649e+01
7.200000e-07	-4.511152e-06	-1.159748e-09	-3.133271e+01	-7.835322e+01
7.300000e-07	-4.483576e-06	-1.150342e-09	-3.114117e+01	-7.818666e+01
7.400000e-07	-4.455786e-06	-1.157932e-09	-3.094815e+01	-7.801680e+01
7.500000e-07	-4.427746e-06	-1.153355e-09	-3.075340e+01	-7.784363e+01
7.600000e-07	-4.399457e-06	-1.142906e-09	-3.055691e+01	-7.766720e+01
7.700000e-07	-4.370838e-06	-1.149326e-09	-3.035814e+01	-7.748755e+01
7.800000e-07	-4.341855e-06	-1.152330e-09	-3.015683e+01	-7.730474e+01
7.900000e-07	-4.312554e-06	-1.145011e-09	-2.995332e+01	-7.711885e+01
8.000000e-07	-4.282957e-06	-1.144712e-09	-2.974776e+01	-7.692999e+01
8.100000e-07	-4.253062e-06	-1.143003e-09	-2.954011e+01	-7.673824e+01
8.200000e-07	-4.222870e-06	-1.127555e-09	-2.933041e+01	-7.654374e+01
8.300000e-07	-4.192401e-06	-1.120680e-09	-2.911879e+01	-7.634658e+01
8.400000e-07	-4.161570e-06	-1.122671e-09	-2.890465e+01	-7.614690e+01
8.500000e-07	-4.130476e-06	-1.117753e-09	-2.868868e+01	-7.594481e+01
8.600000e-07	-4.099206e-06	-1.114548e-09	-2.847149e+01	-7.574045e+01
8.700000e-07	-4.067733e-06	-1.118186e-09	-2.825289e+01	-7.553392e+01
8.800000e-07	-4.036111e-06	-1.112995e-09	-2.803326e+01	-7.532534e+01
8.900000e-07	-4.004274e-06	-1.102696e-09	-2.781213e+01	-7.511481e+01
9.000000e-07	-3.972253e-06	-1.100888e-09	-2.758972e+01	-7.490244e+01
9.100000e-07	-3.939951e-06	-1.097592e-09	-2.736537e+01	-7.468832e+01
9.200000e-07	-3.907264e-06	-1.089224e-09	-2.713834e+01	-7.447251e+01
9.300000e-07	-3.874193e-06	-1.089457e-09	-2.690863e+01	-7.425510e+01
9.400000e-07	-3.840623e-06	-1.091623e-09	-2.667547e+01	-7.403614e+01
9.500000e-07	-3.806602e-06	-1.082904e-09	-2.643918e+01	-7.381567e+01
9.600000e-07	-3.772160e-06	-1.077920e-09	-2.619995e+01	-7.359372e+01
9.700000e-07	-3.737284e-06	-1.080041e-09	-2.595772e+01	-7.337033e+01
9.800000e-07	-3.702073e-06	-1.074533e-09	-2.571316e+01	-7.314548e+01
9.900000e-07	-3.666617e-06	-1.066139e-09	-2.546690e+01	-7.291920e+01
1.000000e-06	-3.631053e-06	-1.066392e-09	-2.521988e+01	-7.269145e+01
1.010000e-06	-3.595385e-06	-1.062355e-09	-2.497215e+01	-7.246223e+01
1.020000e-06	-3.559528e-06	-1.052191e-09	-2.472310e+01	-7.223149e+01
1.030000e-06	-3.523470e-06	-1.049066e-09	-2.447265e+01	-7.199921e+01
1.040000e-06	-3.487204e-06	-1.050248e-09	-2.422076e+01	-7.176533e+01
1.050000e-06	-3.450671e-06	-1.043628e-09	-2.396702e+01	-7.152979e+01
1.060000e-06	-3.413856e-06	-1.038068e-09	-2.371132e+01	-7.129253e+01
1.070000e-06	-3.376810e-06	-1.038396e-09	-2.345401e+01	-7.105350e+01
1.080000e-06	-3.339505e-06	-1.032699e-09	-2.319490e+01	-7.081260e+01
1.090000e-06	-3.301957e-06	-1.022985e-09	-2.293411e+01	-7.056977e+01
1.100000e-06	-3.264220e-06	-1.019881e-09	-2.267200e+01	-7.032492e+01
1.110000e-06	-3.226287e-06	-1.014947e-09	-2.240853e+01	-7.007796e+01
1.120000e-06	-3.188142e-06	-1.005060e-09	-2.214360e+01	-6.982880e+01
1.130000e-06	-3.149749e-06	-1.000964e-09	-2.187693e+01	-6.957735e+01
1.140000e-06	-3.111094e-06	-1.000766e-09	-2.160845e+01	-6.932350e+01
1.150000e-06	-3.072248e-06	-9.953312e-10	-2.133864e+01	-6.906715e+01
1.160000e-06	-3.033211e-06	-9.909699e-10	-2.106750e+01	-6.880819e+01
1.170000e-06	-2.993991e-06	-9.896267e-10	-2.079509e+01	-6.854650e+01
1.180000e-06	-2.954604e-06	-9.848733e-10	-2.052153e+01	-6.828197e+01
1.190000e-06	-2.915033e-06	-9.797023e-10	-2.024668e+01	-6.801448e+01
1.200000e-06	-2.875313e-06	-9.781493e-10	-1.997080e+01	-6.774388e+01
1.210000e-06	-2.835478e-06	-9.739475e-10	-1.969413e+01	-6.747005e+01
1.220000e-06	-2.795510e-06	-9.652160e-10	-1.941652e+01	-6.719284e+01
1.230000e-06	-2.755391e-06	-9.614820e-10	-1.913788e+01	-6.691210e+01
1.240000e-06	-2.715092e-06	-9.597428e-10	-1.885797e+01	-6.662768e+01
1.250000e-06	-2.674503e-06	-9.533053e-10	-1.857606e+01	-6.633940e+01
1.260000e-06	-2.633701e-06	-9.465796e-10	-1.829266e+01	-6.604710e+01
1.270000e-06	-2.592739e-06	-9.438515e-10	-1.800815e+01	-6.575060e+01
1.280000e-06	-2.551512e-06	-9.420447e-10	-1.772181e+01	-6.544969e+01
1.290000e-06	-2.509948e-06	-9.370412e-10	-1.743313e+01	-6.514418e+01
1.300000e-06	-2.468086e-06	-9.323001e-10	-1.714236e+01	-6.483387e+01
1.310000e-06	-2.425996e-06	-9.259499e-10	-1.685002e+01	-6.451853e+01
1.320000e-06	-2.383531e-06	-9.166500e-10	-1.655508e+01	-6.419792e+01
1.330000e-06	-2.340773e-06	-9.096964e-10	-1.625810e+01	-6.387181e+01
1.340000e-06	-2.297790e-06	-9.044942e-10	-1.595956e+01	-6.353995e+01
1.350000e-06	-2.254559e-06	-9.002536e-10	-1.565929e+01	-6.320207e+01
1.360000e-06	-2.211153e-06	-8.977245e-10	-1.535781e+01	-6.285789e+01
1.370000e-06	-2.167623e-06	-8.940980e-10	-1.505546e+01	-6.250714e+01
1.380000e-06	-2.124013e-06	-8.901898e-10	-1.475257e+01	-6.214949e+01
1.390000e-06	-2.080249e-06	-8.867980e-10	-1.444860e+01	-6.178466e+01
1.400000e-06	-2.036402e-06	-8.831200e-10	-1.414406e+01	-6.141230e+01
1.410000e-06	-1.992523e-06	-8.780640e-10	-1.383929e+01	-6.103208e+01
1.420000e-06	-1.948554e-06	-8.682672e-10	-1.353390e+01	-6.064364e+01
1.430000e-06	-1.904509e-06	-8.569952e-10	-1.322798e+01	-6.024660e+01
1.440000e-06	-1.860389e-06	-8.465208e-10	-1.292154e+01	-5.984059e+01
1.450000e-06	-1.816110e-06	-8.387236e-10	-1.261399e+01	-5.942519e+01
1.460000e-06	-1.771718e-06	-8.333890e-10	-1.230567e+01	-5.899999e+01
1.470000e-06	-1.727234e-06	-8.287948e-10	-1.199669e+01	-5.856454e+01
1.480000e-06	-1.682620e-06	-8.218761e-10	-1.168683e+01	-5.811839e+01
1.490000e-06	-1.637910e-06	-8.113566e-10	-1.137629e+01	-5.766104e+01
1.500000e-06	-1.593032e-06	-7.967393e-10	-1.106458e+01	-5.719201e+01
1.510000e-06	-1.548010e-06	-7.816758e-10	-1.075188e+01	-5.671077e+01
1.520000e-06	-1.502803e-06	-7.676398e-10	-1.043789e+01	-5.621676e+01
1.530000e-06	-1.457462e-06	-7.573262e-10	-1.012297e+01	-5.570943e+01
1.540000e-06	-1.412095e-06	-7.536821e-10	-9.807860e+00	-5.518817e+01
1.550000e-06	-1.366638e-06	-7.504083e-10	-9.492137e+00	-5.465238e+01
1.560000e-06	-1.321160e-06	-7.425778e-10	-9.176262e+00	-5.410141e+01
1.570000e-06	-1.275645e-06	-7.312493e-10	-8.860131e+00	-5.353459e+01
1.580000e-06	-1.229994e-06	-7.189656e-10	-8.543062e+00	-5.295123e+01
1.590000e-06	-1.184268e-06	-7.070422e-10	-8.225466e+00	-5.235062e+01
1.600000e-06	-1.138539e-06	-6.955926e-10	-7.907848e+00	-5.173203e+01
1.610000e-06	-1.092714e-06	-6.875454e-10	-7.589567e+00	-5.109469e+01
1.620000e-06	-1.046798e-06	-6.834610e-10	-7.270654e+00	-5.043782e+01
1.630000e-06	-1.000793e-06	-6.793013e-10	-6.951121e+00	-4.976061e+01
1.640000e-06	-9.546010e-07	-6.716212e-10	-6.630287e+00	-4.906226e+01
1.650000e-06	-9.082535e-07	-6.581419e-10	-6.308375e+00	-4.834192e+01
1.660000e-06	-8.618167e-07	-6.409241e-10	-5.985843e+00	-4.759875e+01
1.670000e-06	-8.154415e-07	-6.232572e-10	-5.663739e+00	-4.683189e+01
1.680000e-06	-7.690406e-07	-6.082529e-10	-5.341457e+00	-4.604047e+01
1.690000e-06	-7.225203e-07	-5.946319e-10	-5.018345e+00	-4.522362e+01
1.700000e-06	-6.760167e-07	-5.832187e-10	-4.695349e+00	-4.438048e+01
1.710000e-06	-6.294306e-07	-5.748000e-10	-4.371780e+00	-4.351018e+01
1.720000e-06	-5.827501e-07	-5.657594e-10	-4.047556e+00	-4.261187e+01
1.730000e-06	-5.360724e-07	-5.514729e-10	-3.723350e+00	-4.168471e+01
1.740000e-06	-4.894103e-07	-5.316302e-10	-3.399253e+00	-4.072788e+01
1.750000e-06	-4.426569e-07	-5.104992e-10	-3.074522e+00	-3.974059e+01
1.760000e-06	-3.958511e-07	-4.899707e-10	-2.749428e+00	-3.872210e+01
1.770000e-06	-3.491034e-07	-4.721508e-10	-2.424736e+00	-3.767166e+01
1.780000e-06	-3.023395e-07	-4.595453e-10	-2.099932e+00	-3.658863e+01
1.790000e-06	-2.555416e-07	-4.477960e-10	-1.774892e+00	-3.547238e+01
1.800000e-06	-2.088060e-07	-4.332309e-10	-1.450285e+00	-3.432234e+01
1.810000e-06	-1.621188e-07	-4.177884e-10	-1.126014e+00	-3.313803e+01
1.820000e-06	-1.152279e-07	-4.009926e-10	-8.003281e-01	-3.191904e+01
1.830000e-06	-6.823478e-08	-3.812102e-10	-4.739322e-01	-3.066502e+01
1.840000e-06	-2.127132e-08	-3.601691e-10	-1.477423e-01	-2.937574e+01
1.850000e-06	2.564250e-08	-3.414952e-10	1.781028e-01	-2.805104e+01
1.860000e-06	7.249042e-08	-3.264566e-10	5.034902e-01	-2.669088e+01
1.870000e-06	1.193691e-07	-3.107090e-10	8.290915e-01	-2.529532e+01
1.880000e-06	1.662434e-07	-2.925390e-10	1.154662e+00	-2.386454e+01
1.890000e-06	2.131304e-07	-2.726662e-10	1.480321e+00	-2.239883e+01
1.900000e-06	2.600019e-07	-2.509095e-10	1.805872e+00	-2.089862e+01
1.910000e-06	3.068530e-07	-2.269778e-10	2.131281e+00	-1.936446e+01
1.920000e-06	3.536764e-07	-2.025252e-10	2.456499e+00	-1.779703e+01
1.930000e-06	4.004412e-07	-1.792183e-10	2.781309e+00	-1.619718e+01
1.940000e-06	4.471000e-07	-1.562927e-10	3.105382e+00	-1.456584e+01
1.950000e-06	4.936689e-07	-1.343854e-10	3.428832e+00	-1.290413e+01
1.960000e-06	5.402343e-07	-1.126453e-10	3.752257e+00	-1.121329e+01
1.970000e-06	5.867540e-07	-9.047660e-11	4.075365e+00	-9.494682e+00
1.980000e-06	6.331922e-07	-6.909917e-11	4.397907e+00	-7.749835e+00
1.990000e-06	6.796204e-07	-4.579407e-11	4.720378e+00	-5.980389e+00
2.000000e-06	7.260481e-07	-1.843908e-11	5.042847e+00	-4.188120e+00
2.010000e-06	7.723454e-07	9.672512e-12	5.364410e+00	-2.374924e+00
2.020000e-06	8.185333e-07	3.621695e-11	5.685214e+00	-5.428116e-01
2.030000e-06	8.647140e-07	6.180219e-11	6.005967e+00	1.306097e+00
2.040000e-06	9.109125e-07	8.616941e-11	6.326844e+00	3.169584e+00
2.050000e-06	9.571114e-07	1.089914e-10	6.647723e+00	5.045343e+00
2.060000e-06	1.003208e-06	1.319239e-10	6.967890e+00	6.930994e+00
2.070000e-06	1.049147e-06	1.569643e-10	7.286969e+00	8.824087e+00
2.080000e-06	1.095020e-06	1.839767e-10	7.605585e+00	1.072212e+01
2.090000e-06	1.140844e-06	2.110273e-10	7.923861e+00	1.262257e+01
2.100000e-06	1.186629e-06	2.394947e-10	8.241863e+00	1.452286e+01
2.110000e-06	1.232413e-06	2.679639e-10	8.559861e+00	1.642042e+01
2.120000e-06	1.278106e-06	2.951411e-10	8.877226e+00	1.831269e+01
2.130000e-06	1.323622e-06	3.216123e-10	9.193364e+00	2.019712e+01
2.140000e-06	1.368984e-06	3.453654e-10	9.508433e+00	2.207121e+01
2.150000e-06	1.414293e-06	3.675370e-10	9.823125e+00	2.393250e+01
2.160000e-06	1.459548e-06	3.902361e-10	1.013745e+01	2.577859e+01
2.170000e-06	1.504660e-06	4.141298e-10	1.045078e+01	2.760717e+01
2.180000e-06	1.549669e-06	4.398562e-10	1.076340e+01	2.941603e+01
2.190000e-06	1.594646e-06	4.660380e-10	1.107579e+01	3.120304e+01
2.200000e-06	1.639421e-06	4.907607e-10	1.138678e+01	3.296622e+01
2.210000e-06	1.683973e-06	5.153179e-10	1.169622e+01	3.470368e+01
2.220000e-06	1.728419e-06	5.405485e-10	1.200492e+01	3.641370e+01
2.230000e-06	1.772741e-06	5.647289e-10	1.231277e+01	3.809469e+01
2.240000e-06	1.816940e-06	5.869881e-10	1.261976e+01	3.974522e+01
2.250000e-06	1.860997e-06	6.089697e-10	1.292576e+01	4.136400e+01
2.260000e-06	1.904962e-06	6.303253e-10	1.323113e+01	4.294990e+01
2.270000e-06	1.948866e-06	6.499187e-10	1.353606e+01	4.450197e+01
2.280000e-06	1.992705e-06	6.691468e-10	1.384055e+01	4.601941e+01
2.290000e-06	2.036508e-06	6.883715e-10	1.414479e+01	4.750158e+01
2.300000e-06	2.080276e-06	7.079460e-10	1.444879e+01	4.894798e+01
2.310000e-06	2.123981e-06	7.275478e-10	1.475235e+01	5.035828e+01
2.320000e-06	2.167578e-06	7.468409e-10	1.505515e+01	5.173230e+01
2.330000e-06	2.211101e-06	7.662883e-10	1.535745e+01	5.306998e+01
2.340000e-06	2.254516e-06	7.848696e-10	1.565899e+01	5.437140e+01
2.350000e-06	2.297706e-06	8.015149e-10	1.595897e+01	5.563675e+01
2.360000e-06	2.340680e-06	8.176374e-10	1.625745e+01	5.686633e+01
2.370000e-06	2.383416e-06	8.349570e-10	1.655428e+01	5.806055e+01
2.380000e-06	2.425816e-06	8.514854e-10	1.684877e+01	5.921989e+01
2.390000e-06	2.467890e-06	8.659079e-10	1.714100e+01	6.034491e+01
2.400000e-06	2.509731e-06	8.783004e-10	1.743161e+01	6.143623e+01
2.410000e-06	2.551243e-06	8.909773e-10	1.771994e+01	6.249452e+01
2.420000e-06	2.592435e-06	9.052211e-10	1.800604e+01	6.352048e+01
2.430000e-06	2.633289e-06	9.201110e-10	1.828980e+01	6.451484e+01
2.440000e-06	2.673810e-06	9.345779e-10	1.857124e+01	6.547835e+01
2.450000e-06	2.714117e-06	9.482941e-10	1.885120e+01	6.641174e+01
2.460000e-06	2.754266e-06	9.610591e-10	1.913006e+01	6.731577e+01
2.470000e-06	2.794295e-06	9.712769e-10	1.940808e+01	6.819115e+01
2.480000e-06	2.834168e-06	9.803466e-10	1.968502e+01	6.903859e+01
2.490000e-06	2.873891e-06	9.880125e-10	1.996093e+01	6.985878e+01
2.500000e-06	2.913503e-06	9.949684e-10	2.023606e+01	7.065235e+01
2.510000e-06	2.953006e-06	1.001530e-09	2.051043e+01	7.141991e+01
2.520000e-06	2.992346e-06	1.009920e-09	2.078367e+01	7.216205e+01
2.530000e-06	3.031478e-06	1.021651e-09	2.105547e+01	7.287930e+01
2.540000e-06	3.070362e-06	1.035568e-09	2.132554e+01	7.357215e+01
2.550000e-06	3.109062e-06	1.047961e-09	2.159433e+01	7.424106e+01
2.560000e-06	3.147630e-06	1.055535e-09	2.186222e+01	7.488648e+01
2.570000e-06	3.185937e-06	1.061216e-09	2.212828e+01	7.550879e+01
2.580000e-06	3.223953e-06	1.067112e-09	2.239232e+01	7.610837e+01
2.590000e-06	3.261787e-06	1.075043e-09	2.265510e+01	7.668559e+01
2.600000e-06	3.299484e-06	1.082649e-09	2.291693e+01	7.724079e+01
2.610000e-06	3.336952e-06	1.091266e-09	2.317717e+01	7.777430e+01
2.620000e-06	3.374116e-06	1.102612e-09	2.343529e+01	7.828646e+01
2.630000e-06	3.410998e-06	1.113093e-09	2.369147e+01	7.877761e+01
2.640000e-06	3.447594e-06	1.120552e-09	2.394564e+01	7.924810e+01
2.650000e-06	3.484023e-06	1.125688e-09	2.419867e+01	7.969832e+01
2.660000e-06	3.520257e-06	1.129083e-09	2.445033e+01	8.012866e+01
2.670000e-06	3.556244e-06	1.132266e-09	2.470029e+01	8.053954e+01
2.680000e-06	3.592111e-06	1.136564e-09	2.494941e+01	8.093141e+01
2.690000e-06	3.627848e-06	1.142826e-09	2.519762e+01	8.130478e+01
2.700000e-06	3.663442e-06	1.149794e-09	2.544484e+01	8.166018e+01
2.710000e-06	3.698879e-06	1.157072e-09	2.569097e+01	8.199818e+01
2.720000e-06	3.734072e-06	1.165554e-09	2.593541e+01	8.231938e+01
2.730000e-06	3.768918e-06	1.172306e-09	2.617744e+01	8.262444e+01
2.740000e-06	3.803352e-06	1.176365e-09	2.641660e+01	8.291405e+01
2.750000e-06	3.837423e-06	1.179325e-09	2.665325e+01	8.318892e+01
2.760000e-06	3.871027e-06	1.180854e-09	2.688664e+01	8.344980e+01
2.770000e-06	3.904145e-06	1.182918e-09	2.711667e+01	8.369747e+01
2.780000e-06	3.936799e-06	1.188183e-09	2.734347e+01	8.393272e+01
2.790000e-06	3.969041e-06	1.194986e-09	2.756741e+01	8.415635e+01
2.800000e-06	4.001126e-06	1.202529e-09	2.779026e+01	8.436918e+01
2.810000e-06	4.033072e-06	1.208555e-09	2.801215e+01	8.457200e+01
2.820000e-06	4.064833e-06	1.211346e-09	2.823275e+01	8.476561e+01
2.830000e-06	4.096433e-06	1.212140e-09	2.845223e+01	8.495079e+01
2.840000e-06	4.127825e-06	1.213087e-09	2.867026e+01	8.512829e+01
2.850000e-06	4.158898e-06	1.213593e-09	2.888608e+01	8.529882e+01
2.860000e-06	4.189632e-06	1.213659e-09	2.909955e+01	8.546305e+01
2.870000e-06	4.220059e-06	1.217403e-09	2.931089e+01	8.562161e+01
2.880000e-06	4.250177e-06	1.223588e-09	2.952008e+01	8.577506e+01
2.890000e-06	4.280008e-06	1.228378e-09	2.972727e+01	8.592392e+01
2.900000e-06	4.309542e-06	1.231302e-09	2.993240e+01	8.606864e+01
