# Temperatura_=_-22.88
# Concentracion g/m^3_=_1620.0
# C_Vs_to_Am_M_A/Vsm_=_65563218390.804596
# pendiente_HvsI_1/m_=_3716.3
# ordenada_HvsI_A/m_=_1297.0
# frecuencia_Hz_=_135105.29336230177

Tiempo_(s)	Campo_(V.s)	Magnetizacion_(V.s)	Campo_(kA/m)	Magnetizacion_(A/m)
0.000000e+00	-5.515836e-06	-7.958542e-10	-3.837416e+01	-5.236634e+01
1.000000e-08	-5.515970e-06	-7.913424e-10	-3.837509e+01	-5.237103e+01
2.000000e-08	-5.515916e-06	-7.889872e-10	-3.837471e+01	-5.237999e+01
3.000000e-08	-5.515410e-06	-7.900417e-10	-3.837120e+01	-5.239280e+01
4.000000e-08	-5.514333e-06	-7.933167e-10	-3.836370e+01	-5.240897e+01
5.000000e-08	-5.512674e-06	-7.908491e-10	-3.835216e+01	-5.242790e+01
6.000000e-08	-5.510440e-06	-7.765330e-10	-3.833662e+01	-5.244897e+01
7.000000e-08	-5.507636e-06	-7.629858e-10	-3.831711e+01	-5.247146e+01
8.000000e-08	-5.504298e-06	-7.742702e-10	-3.829389e+01	-5.249464e+01
9.000000e-08	-5.500500e-06	-8.409731e-10	-3.826747e+01	-5.251776e+01
1.000000e-07	-5.496305e-06	-9.023496e-10	-3.823828e+01	-5.254002e+01
1.100000e-07	-5.491785e-06	-8.295829e-10	-3.820684e+01	-5.256068e+01
1.200000e-07	-5.487066e-06	-6.653139e-10	-3.817400e+01	-5.257897e+01
1.300000e-07	-5.482201e-06	-7.249648e-10	-3.814016e+01	-5.259421e+01
1.400000e-07	-5.476958e-06	-8.442462e-10	-3.810368e+01	-5.260573e+01
1.500000e-07	-5.471246e-06	-8.619096e-10	-3.806395e+01	-5.261295e+01
1.600000e-07	-5.465086e-06	-7.114206e-10	-3.802109e+01	-5.261538e+01
1.700000e-07	-5.458612e-06	-7.300084e-10	-3.797605e+01	-5.261260e+01
1.800000e-07	-5.451795e-06	-8.810406e-10	-3.792862e+01	-5.260433e+01
1.900000e-07	-5.444474e-06	-8.542542e-10	-3.787769e+01	-5.259036e+01
2.000000e-07	-5.436846e-06	-7.211971e-10	-3.782462e+01	-5.257063e+01
2.100000e-07	-5.429038e-06	-7.042723e-10	-3.777030e+01	-5.254520e+01
2.200000e-07	-5.420980e-06	-8.405644e-10	-3.771424e+01	-5.251422e+01
2.300000e-07	-5.412569e-06	-8.466569e-10	-3.765572e+01	-5.247800e+01
2.400000e-07	-5.403696e-06	-7.735797e-10	-3.759399e+01	-5.243694e+01
2.500000e-07	-5.394138e-06	-7.254250e-10	-3.752750e+01	-5.239156e+01
2.600000e-07	-5.383741e-06	-7.878840e-10	-3.745516e+01	-5.234249e+01
2.700000e-07	-5.372798e-06	-7.783498e-10	-3.737903e+01	-5.229041e+01
2.800000e-07	-5.361552e-06	-7.600828e-10	-3.730079e+01	-5.223612e+01
2.900000e-07	-5.349908e-06	-7.462888e-10	-3.721978e+01	-5.218047e+01
3.000000e-07	-5.337845e-06	-7.911037e-10	-3.713586e+01	-5.212433e+01
3.100000e-07	-5.325402e-06	-7.845332e-10	-3.704929e+01	-5.206864e+01
3.200000e-07	-5.312536e-06	-7.611808e-10	-3.695979e+01	-5.201431e+01
3.300000e-07	-5.299275e-06	-7.341832e-10	-3.686752e+01	-5.196228e+01
3.400000e-07	-5.285732e-06	-7.705222e-10	-3.677331e+01	-5.191345e+01
3.500000e-07	-5.271829e-06	-7.876609e-10	-3.667658e+01	-5.186867e+01
3.600000e-07	-5.257276e-06	-7.533007e-10	-3.657533e+01	-5.182876e+01
3.700000e-07	-5.242038e-06	-7.479110e-10	-3.646932e+01	-5.179445e+01
3.800000e-07	-5.226477e-06	-8.031726e-10	-3.636107e+01	-5.176640e+01
3.900000e-07	-5.210400e-06	-7.790791e-10	-3.624922e+01	-5.174515e+01
4.000000e-07	-5.193734e-06	-7.202776e-10	-3.613327e+01	-5.173118e+01
4.100000e-07	-5.176878e-06	-7.887166e-10	-3.601600e+01	-5.172481e+01
4.200000e-07	-5.159833e-06	-8.218160e-10	-3.589741e+01	-5.172629e+01
4.300000e-07	-5.142409e-06	-7.291487e-10	-3.577620e+01	-5.173571e+01
4.400000e-07	-5.124660e-06	-7.309468e-10	-3.565271e+01	-5.175308e+01
4.500000e-07	-5.106604e-06	-8.512704e-10	-3.552710e+01	-5.177826e+01
4.600000e-07	-5.088029e-06	-7.755908e-10	-3.539787e+01	-5.181103e+01
4.700000e-07	-5.068963e-06	-6.917607e-10	-3.526523e+01	-5.185105e+01
4.800000e-07	-5.049646e-06	-7.948501e-10	-3.513084e+01	-5.189789e+01
4.900000e-07	-5.030168e-06	-8.351379e-10	-3.499532e+01	-5.195102e+01
5.000000e-07	-5.010438e-06	-7.106606e-10	-3.485806e+01	-5.200986e+01
5.100000e-07	-4.990505e-06	-7.600653e-10	-3.471939e+01	-5.207376e+01
5.200000e-07	-4.970297e-06	-8.338852e-10	-3.457880e+01	-5.214202e+01
5.300000e-07	-4.949651e-06	-7.478069e-10	-3.443516e+01	-5.221391e+01
5.400000e-07	-4.928593e-06	-7.327325e-10	-3.428866e+01	-5.228870e+01
5.500000e-07	-4.907250e-06	-8.462823e-10	-3.414018e+01	-5.236564e+01
5.600000e-07	-4.885603e-06	-7.781095e-10	-3.398957e+01	-5.244399e+01
5.700000e-07	-4.863584e-06	-7.093480e-10	-3.383639e+01	-5.252305e+01
5.800000e-07	-4.841269e-06	-8.058191e-10	-3.368114e+01	-5.260214e+01
5.900000e-07	-4.818650e-06	-8.233247e-10	-3.352378e+01	-5.268066e+01
6.000000e-07	-4.795640e-06	-7.304565e-10	-3.336369e+01	-5.275802e+01
6.100000e-07	-4.772284e-06	-7.790357e-10	-3.320121e+01	-5.283374e+01
6.200000e-07	-4.748661e-06	-8.221515e-10	-3.303686e+01	-5.290739e+01
6.300000e-07	-4.724808e-06	-7.539439e-10	-3.287091e+01	-5.297862e+01
6.400000e-07	-4.700720e-06	-7.608476e-10	-3.270333e+01	-5.304717e+01
6.500000e-07	-4.676301e-06	-8.177670e-10	-3.253344e+01	-5.311282e+01
6.600000e-07	-4.651353e-06	-7.808598e-10	-3.235988e+01	-5.317548e+01
6.700000e-07	-4.625856e-06	-7.695342e-10	-3.218249e+01	-5.323510e+01
6.800000e-07	-4.599818e-06	-8.184674e-10	-3.200134e+01	-5.329170e+01
6.900000e-07	-4.573248e-06	-8.007189e-10	-3.181649e+01	-5.334537e+01
7.000000e-07	-4.546225e-06	-7.778602e-10	-3.162849e+01	-5.339626e+01
7.100000e-07	-4.518857e-06	-8.067377e-10	-3.143809e+01	-5.344455e+01
7.200000e-07	-4.491329e-06	-8.092186e-10	-3.124657e+01	-5.349047e+01
7.300000e-07	-4.463640e-06	-7.859312e-10	-3.105394e+01	-5.353428e+01
7.400000e-07	-4.435821e-06	-8.082604e-10	-3.086040e+01	-5.357623e+01
7.500000e-07	-4.407819e-06	-8.114131e-10	-3.066559e+01	-5.361661e+01
7.600000e-07	-4.379493e-06	-7.915709e-10	-3.046852e+01	-5.365569e+01
7.700000e-07	-4.350836e-06	-7.933318e-10	-3.026915e+01	-5.369373e+01
7.800000e-07	-4.321774e-06	-8.049030e-10	-3.006696e+01	-5.373098e+01
7.900000e-07	-4.292359e-06	-7.877210e-10	-2.986232e+01	-5.376765e+01
8.000000e-07	-4.262675e-06	-7.964595e-10	-2.965581e+01	-5.380393e+01
8.100000e-07	-4.232749e-06	-8.081994e-10	-2.944761e+01	-5.383996e+01
8.200000e-07	-4.202560e-06	-7.957562e-10	-2.923758e+01	-5.387585e+01
8.300000e-07	-4.172028e-06	-7.824577e-10	-2.902517e+01	-5.391166e+01
8.400000e-07	-4.141275e-06	-7.998130e-10	-2.881122e+01	-5.394741e+01
8.500000e-07	-4.110278e-06	-7.981588e-10	-2.859557e+01	-5.398308e+01
8.600000e-07	-4.078942e-06	-7.887813e-10	-2.837756e+01	-5.401861e+01
8.700000e-07	-4.047454e-06	-7.950979e-10	-2.815850e+01	-5.405389e+01
8.800000e-07	-4.015851e-06	-8.017257e-10	-2.793863e+01	-5.408881e+01
8.900000e-07	-3.984077e-06	-7.871062e-10	-2.771758e+01	-5.412320e+01
9.000000e-07	-3.952168e-06	-7.891402e-10	-2.749559e+01	-5.415690e+01
9.100000e-07	-3.920010e-06	-7.977950e-10	-2.727186e+01	-5.418971e+01
9.200000e-07	-3.887335e-06	-7.909960e-10	-2.704453e+01	-5.422145e+01
9.300000e-07	-3.854101e-06	-7.887103e-10	-2.681332e+01	-5.425192e+01
9.400000e-07	-3.820470e-06	-8.023670e-10	-2.657935e+01	-5.428096e+01
9.500000e-07	-3.786326e-06	-8.002213e-10	-2.634181e+01	-5.430839e+01
9.600000e-07	-3.751703e-06	-7.883537e-10	-2.610093e+01	-5.433409e+01
9.700000e-07	-3.716750e-06	-7.935708e-10	-2.585776e+01	-5.435794e+01
9.800000e-07	-3.681531e-06	-7.953909e-10	-2.561274e+01	-5.437986e+01
9.900000e-07	-3.646104e-06	-7.852447e-10	-2.536627e+01	-5.439983e+01
1.000000e-06	-3.610547e-06	-7.849571e-10	-2.511890e+01	-5.441785e+01
1.010000e-06	-3.574881e-06	-7.964911e-10	-2.487076e+01	-5.443395e+01
1.020000e-06	-3.539039e-06	-7.933951e-10	-2.462141e+01	-5.444823e+01
1.030000e-06	-3.503095e-06	-7.916065e-10	-2.437134e+01	-5.446080e+01
1.040000e-06	-3.466959e-06	-7.973885e-10	-2.411994e+01	-5.447185e+01
1.050000e-06	-3.430476e-06	-7.986700e-10	-2.386613e+01	-5.448155e+01
1.060000e-06	-3.393631e-06	-7.917720e-10	-2.360979e+01	-5.449014e+01
1.070000e-06	-3.356494e-06	-7.962508e-10	-2.335143e+01	-5.449786e+01
1.080000e-06	-3.319127e-06	-7.984494e-10	-2.309146e+01	-5.450498e+01
1.090000e-06	-3.281527e-06	-7.971623e-10	-2.282988e+01	-5.451176e+01
1.100000e-06	-3.243725e-06	-7.978617e-10	-2.256688e+01	-5.451849e+01
1.110000e-06	-3.205741e-06	-8.010263e-10	-2.230262e+01	-5.452541e+01
1.120000e-06	-3.167603e-06	-7.941362e-10	-2.203730e+01	-5.453278e+01
1.130000e-06	-3.129314e-06	-7.908836e-10	-2.177091e+01	-5.454081e+01
1.140000e-06	-3.090759e-06	-7.922326e-10	-2.150268e+01	-5.454970e+01
1.150000e-06	-3.051930e-06	-7.936446e-10	-2.123255e+01	-5.455959e+01
1.160000e-06	-3.012858e-06	-7.889233e-10	-2.096072e+01	-5.457058e+01
1.170000e-06	-2.973523e-06	-7.896261e-10	-2.068706e+01	-5.458272e+01
1.180000e-06	-2.934074e-06	-7.935222e-10	-2.041261e+01	-5.459598e+01
1.190000e-06	-2.894538e-06	-7.959371e-10	-2.013756e+01	-5.461032e+01
1.200000e-06	-2.854874e-06	-7.972090e-10	-1.986161e+01	-5.462557e+01
1.210000e-06	-2.815141e-06	-7.999722e-10	-1.958519e+01	-5.464156e+01
1.220000e-06	-2.775270e-06	-8.000036e-10	-1.930780e+01	-5.465801e+01
1.230000e-06	-2.735215e-06	-8.005837e-10	-1.902913e+01	-5.467459e+01
1.240000e-06	-2.694954e-06	-8.019742e-10	-1.874903e+01	-5.469093e+01
1.250000e-06	-2.654492e-06	-8.004144e-10	-1.846754e+01	-5.470659e+01
1.260000e-06	-2.613811e-06	-7.973778e-10	-1.818452e+01	-5.472108e+01
1.270000e-06	-2.572910e-06	-7.964623e-10	-1.789996e+01	-5.473386e+01
1.280000e-06	-2.531795e-06	-7.975838e-10	-1.761392e+01	-5.474437e+01
1.290000e-06	-2.490342e-06	-7.958044e-10	-1.732553e+01	-5.475202e+01
1.300000e-06	-2.448479e-06	-7.958708e-10	-1.703429e+01	-5.475620e+01
1.310000e-06	-2.406283e-06	-7.965166e-10	-1.674073e+01	-5.475627e+01
1.320000e-06	-2.363810e-06	-7.967930e-10	-1.644524e+01	-5.475161e+01
1.330000e-06	-2.321051e-06	-7.928913e-10	-1.614776e+01	-5.474159e+01
1.340000e-06	-2.278020e-06	-7.910092e-10	-1.584839e+01	-5.472562e+01
1.350000e-06	-2.234761e-06	-7.904328e-10	-1.554743e+01	-5.470309e+01
1.360000e-06	-2.191350e-06	-7.941846e-10	-1.524542e+01	-5.467345e+01
1.370000e-06	-2.147846e-06	-7.979732e-10	-1.494275e+01	-5.463616e+01
1.380000e-06	-2.104243e-06	-8.012141e-10	-1.463941e+01	-5.459074e+01
1.390000e-06	-2.060554e-06	-7.981404e-10	-1.433545e+01	-5.453673e+01
1.400000e-06	-2.016831e-06	-7.932599e-10	-1.403127e+01	-5.447372e+01
1.410000e-06	-1.973046e-06	-7.871393e-10	-1.372666e+01	-5.440135e+01
1.420000e-06	-1.929158e-06	-7.811121e-10	-1.342132e+01	-5.431928e+01
1.430000e-06	-1.885160e-06	-7.796649e-10	-1.311523e+01	-5.422725e+01
1.440000e-06	-1.841112e-06	-7.847216e-10	-1.280878e+01	-5.412501e+01
1.450000e-06	-1.796996e-06	-7.868538e-10	-1.250186e+01	-5.401234e+01
1.460000e-06	-1.752738e-06	-7.842362e-10	-1.219395e+01	-5.388907e+01
1.470000e-06	-1.708329e-06	-7.781438e-10	-1.188500e+01	-5.375503e+01
1.480000e-06	-1.663730e-06	-7.715800e-10	-1.157472e+01	-5.361008e+01
1.490000e-06	-1.618991e-06	-7.635386e-10	-1.126346e+01	-5.345409e+01
1.500000e-06	-1.574166e-06	-7.537092e-10	-1.095161e+01	-5.328692e+01
1.510000e-06	-1.529187e-06	-7.498531e-10	-1.063869e+01	-5.310844e+01
1.520000e-06	-1.484071e-06	-7.523065e-10	-1.032482e+01	-5.291848e+01
1.530000e-06	-1.438876e-06	-7.556059e-10	-1.001039e+01	-5.271685e+01
1.540000e-06	-1.393509e-06	-7.533164e-10	-9.694762e+00	-5.250336e+01
1.550000e-06	-1.347991e-06	-7.453052e-10	-9.378091e+00	-5.227774e+01
1.560000e-06	-1.302494e-06	-7.349510e-10	-9.061565e+00	-5.203970e+01
1.570000e-06	-1.256939e-06	-7.262960e-10	-8.744637e+00	-5.178890e+01
1.580000e-06	-1.211239e-06	-7.185629e-10	-8.426697e+00	-5.152492e+01
1.590000e-06	-1.165516e-06	-7.111909e-10	-8.108598e+00	-5.124731e+01
1.600000e-06	-1.119785e-06	-7.056732e-10	-7.790443e+00	-5.095554e+01
1.610000e-06	-1.073957e-06	-7.046779e-10	-7.471616e+00	-5.064904e+01
1.620000e-06	-1.027947e-06	-7.028973e-10	-7.151520e+00	-5.032714e+01
1.630000e-06	-9.817984e-07	-7.005426e-10	-6.830458e+00	-4.998915e+01
1.640000e-06	-9.356441e-07	-6.941749e-10	-6.509359e+00	-4.963430e+01
1.650000e-06	-8.894930e-07	-6.842080e-10	-6.188282e+00	-4.926177e+01
1.660000e-06	-8.433175e-07	-6.715530e-10	-5.867035e+00	-4.887068e+01
1.670000e-06	-7.970487e-07	-6.604161e-10	-5.545138e+00	-4.846012e+01
1.680000e-06	-7.506605e-07	-6.523252e-10	-5.222412e+00	-4.802913e+01
1.690000e-06	-7.042766e-07	-6.460083e-10	-4.899715e+00	-4.757674e+01
1.700000e-06	-6.579807e-07	-6.407274e-10	-4.577630e+00	-4.710192e+01
1.710000e-06	-6.116523e-07	-6.379774e-10	-4.255319e+00	-4.660367e+01
1.720000e-06	-5.651603e-07	-6.355130e-10	-3.931871e+00	-4.608095e+01
1.730000e-06	-5.186372e-07	-6.272581e-10	-3.608205e+00	-4.553275e+01
1.740000e-06	-4.720959e-07	-6.137348e-10	-3.284413e+00	-4.495805e+01
1.750000e-06	-4.254330e-07	-5.987419e-10	-2.959775e+00	-4.435587e+01
1.760000e-06	-3.788039e-07	-5.849344e-10	-2.635372e+00	-4.372525e+01
1.770000e-06	-3.321795e-07	-5.735259e-10	-2.311002e+00	-4.306527e+01
1.780000e-06	-2.854892e-07	-5.667014e-10	-1.986174e+00	-4.237508e+01
1.790000e-06	-2.387532e-07	-5.625575e-10	-1.661027e+00	-4.165384e+01
1.800000e-06	-1.919310e-07	-5.557513e-10	-1.335281e+00	-4.090083e+01
1.810000e-06	-1.451067e-07	-5.430296e-10	-1.009520e+00	-4.011535e+01
1.820000e-06	-9.835276e-08	-5.260490e-10	-6.842489e-01	-3.929681e+01
1.830000e-06	-5.162804e-08	-5.092360e-10	-3.591808e-01	-3.844469e+01
1.840000e-06	-4.901607e-09	-4.956581e-10	-3.410091e-02	-3.755856e+01
1.850000e-06	4.191128e-08	-4.849058e-10	2.915805e-01	-3.663807e+01
1.860000e-06	8.877584e-08	-4.744899e-10	6.176214e-01	-3.568299e+01
1.870000e-06	1.356118e-07	-4.628137e-10	9.434635e-01	-3.469317e+01
1.880000e-06	1.824373e-07	-4.496445e-10	1.269232e+00	-3.366856e+01
1.890000e-06	2.292252e-07	-4.341303e-10	1.594740e+00	-3.260924e+01
1.900000e-06	2.760267e-07	-4.154983e-10	1.920342e+00	-3.151538e+01
1.910000e-06	3.228335e-07	-3.940516e-10	2.245981e+00	-3.038724e+01
1.920000e-06	3.695692e-07	-3.736202e-10	2.571126e+00	-2.922524e+01
1.930000e-06	4.162381e-07	-3.569499e-10	2.895805e+00	-2.802987e+01
1.940000e-06	4.629179e-07	-3.423996e-10	3.220561e+00	-2.680175e+01
1.950000e-06	5.095548e-07	-3.281930e-10	3.545018e+00	-2.554161e+01
1.960000e-06	5.560051e-07	-3.120528e-10	3.868177e+00	-2.425030e+01
1.970000e-06	6.023211e-07	-2.946738e-10	4.190401e+00	-2.292877e+01
1.980000e-06	6.486401e-07	-2.766116e-10	4.512647e+00	-2.157811e+01
1.990000e-06	6.950605e-07	-2.558502e-10	4.835598e+00	-2.019950e+01
2.000000e-06	7.414908e-07	-2.341059e-10	5.158617e+00	-1.879424e+01
2.010000e-06	7.877717e-07	-2.126661e-10	5.480597e+00	-1.736373e+01
2.020000e-06	8.339606e-07	-1.920131e-10	5.801938e+00	-1.590951e+01
2.030000e-06	8.801161e-07	-1.716105e-10	6.123046e+00	-1.443319e+01
2.040000e-06	9.261701e-07	-1.526351e-10	6.443447e+00	-1.293650e+01
2.050000e-06	9.721409e-07	-1.336771e-10	6.763270e+00	-1.142127e+01
2.060000e-06	1.018121e-06	-1.138951e-10	7.083158e+00	-9.889421e+00
2.070000e-06	1.064018e-06	-9.267731e-11	7.402464e+00	-8.342953e+00
2.080000e-06	1.109825e-06	-7.108246e-11	7.721150e+00	-6.783955e+00
2.090000e-06	1.155597e-06	-4.982963e-11	8.039593e+00	-5.214589e+00
2.100000e-06	1.201249e-06	-2.684250e-11	8.357194e+00	-3.637077e+00
2.110000e-06	1.246770e-06	-4.271932e-12	8.673892e+00	-2.053699e+00
2.120000e-06	1.292213e-06	1.798005e-11	8.990043e+00	-4.667779e-01
2.130000e-06	1.337591e-06	3.892749e-11	9.305740e+00	1.121332e+00
2.140000e-06	1.382909e-06	5.607875e-11	9.621019e+00	2.708255e+00
2.150000e-06	1.428106e-06	7.352424e-11	9.935457e+00	4.291609e+00
2.160000e-06	1.473126e-06	9.246668e-11	1.024867e+01	5.869015e+00
2.170000e-06	1.518094e-06	1.120731e-10	1.056152e+01	7.438117e+00
2.180000e-06	1.562967e-06	1.339070e-10	1.087370e+01	8.996592e+00
2.190000e-06	1.607646e-06	1.583271e-10	1.118454e+01	1.054217e+01
2.200000e-06	1.652195e-06	1.826250e-10	1.149447e+01	1.207263e+01
2.210000e-06	1.696647e-06	2.037706e-10	1.180373e+01	1.358584e+01
2.220000e-06	1.741017e-06	2.236328e-10	1.211241e+01	1.507977e+01
2.230000e-06	1.785264e-06	2.432391e-10	1.242024e+01	1.655245e+01
2.240000e-06	1.829341e-06	2.623316e-10	1.272688e+01	1.800208e+01
2.250000e-06	1.873293e-06	2.808075e-10	1.303267e+01	1.942695e+01
2.260000e-06	1.917237e-06	2.993646e-10	1.333839e+01	2.082549e+01
2.270000e-06	1.961164e-06	3.183678e-10	1.364399e+01	2.219628e+01
2.280000e-06	2.004969e-06	3.380005e-10	1.394875e+01	2.353805e+01
2.290000e-06	2.048669e-06	3.567384e-10	1.425277e+01	2.484967e+01
2.300000e-06	2.092335e-06	3.740349e-10	1.455656e+01	2.613020e+01
2.310000e-06	2.135924e-06	3.902073e-10	1.485981e+01	2.737883e+01
2.320000e-06	2.179403e-06	4.057960e-10	1.516230e+01	2.859492e+01
2.330000e-06	2.222792e-06	4.228421e-10	1.546416e+01	2.977798e+01
2.340000e-06	2.266098e-06	4.404970e-10	1.576545e+01	3.092768e+01
2.350000e-06	2.309280e-06	4.555874e-10	1.606587e+01	3.204382e+01
2.360000e-06	2.352229e-06	4.689244e-10	1.636466e+01	3.312636e+01
2.370000e-06	2.394826e-06	4.839917e-10	1.666102e+01	3.417537e+01
2.380000e-06	2.437088e-06	4.989207e-10	1.695504e+01	3.519105e+01
2.390000e-06	2.479077e-06	5.138410e-10	1.724716e+01	3.617369e+01
2.400000e-06	2.520746e-06	5.288257e-10	1.753706e+01	3.712370e+01
2.410000e-06	2.562091e-06	5.412405e-10	1.782470e+01	3.804155e+01
2.420000e-06	2.603165e-06	5.504630e-10	1.811045e+01	3.892778e+01
2.430000e-06	2.643982e-06	5.596775e-10	1.839442e+01	3.978299e+01
2.440000e-06	2.684550e-06	5.698671e-10	1.867665e+01	4.060783e+01
2.450000e-06	2.724905e-06	5.802681e-10	1.895741e+01	4.140294e+01
2.460000e-06	2.765081e-06	5.915999e-10	1.923691e+01	4.216902e+01
2.470000e-06	2.805054e-06	6.027099e-10	1.951501e+01	4.290676e+01
2.480000e-06	2.844867e-06	6.122654e-10	1.979199e+01	4.361682e+01
2.490000e-06	2.884583e-06	6.201095e-10	2.006830e+01	4.429987e+01
2.500000e-06	2.924194e-06	6.267262e-10	2.034388e+01	4.495656e+01
2.510000e-06	2.963640e-06	6.340895e-10	2.061831e+01	4.558749e+01
2.520000e-06	3.002871e-06	6.431843e-10	2.089124e+01	4.619325e+01
2.530000e-06	3.041848e-06	6.533407e-10	2.116240e+01	4.677438e+01
2.540000e-06	3.080569e-06	6.629437e-10	2.143180e+01	4.733138e+01
2.550000e-06	3.119076e-06	6.697722e-10	2.169969e+01	4.786472e+01
2.560000e-06	3.157400e-06	6.744283e-10	2.196631e+01	4.837484e+01
2.570000e-06	3.195556e-06	6.799495e-10	2.223177e+01	4.886215e+01
2.580000e-06	3.233513e-06	6.861787e-10	2.249584e+01	4.932703e+01
2.590000e-06	3.271241e-06	6.911779e-10	2.275831e+01	4.976984e+01
2.600000e-06	3.308707e-06	6.961917e-10	2.301897e+01	5.019093e+01
2.610000e-06	3.345972e-06	7.027998e-10	2.327822e+01	5.059064e+01
2.620000e-06	3.383010e-06	7.105939e-10	2.353590e+01	5.096933e+01
2.630000e-06	3.419796e-06	7.167971e-10	2.379182e+01	5.132735e+01
2.640000e-06	3.456348e-06	7.217187e-10	2.404612e+01	5.166507e+01
2.650000e-06	3.492658e-06	7.267934e-10	2.429873e+01	5.198292e+01
2.660000e-06	3.528732e-06	7.306756e-10	2.454970e+01	5.228131e+01
2.670000e-06	3.564614e-06	7.332470e-10	2.479933e+01	5.256073e+01
2.680000e-06	3.600366e-06	7.362899e-10	2.504806e+01	5.282171e+01
2.690000e-06	3.635983e-06	7.404803e-10	2.529586e+01	5.306481e+01
2.700000e-06	3.671486e-06	7.448790e-10	2.554285e+01	5.329065e+01
2.710000e-06	3.706780e-06	7.499649e-10	2.578840e+01	5.349991e+01
2.720000e-06	3.741759e-06	7.556197e-10	2.603175e+01	5.369330e+01
2.730000e-06	3.776348e-06	7.591523e-10	2.627238e+01	5.387161e+01
2.740000e-06	3.810544e-06	7.637647e-10	2.651029e+01	5.403565e+01
2.750000e-06	3.844345e-06	7.675844e-10	2.674545e+01	5.418626e+01
2.760000e-06	3.877595e-06	7.699401e-10	2.697678e+01	5.432434e+01
2.770000e-06	3.910333e-06	7.708693e-10	2.720453e+01	5.445080e+01
2.780000e-06	3.942730e-06	7.704745e-10	2.742992e+01	5.456656e+01
2.790000e-06	3.974870e-06	7.720841e-10	2.765352e+01	5.467256e+01
2.800000e-06	4.006769e-06	7.760640e-10	2.787544e+01	5.476971e+01
2.810000e-06	4.038500e-06	7.816726e-10	2.809620e+01	5.485893e+01
2.820000e-06	4.070124e-06	7.869802e-10	2.831621e+01	5.494109e+01
2.830000e-06	4.101563e-06	7.921173e-10	2.853494e+01	5.501702e+01
2.840000e-06	4.132727e-06	7.942670e-10	2.875175e+01	5.508752e+01
2.850000e-06	4.163604e-06	7.910785e-10	2.896656e+01	5.515330e+01
2.860000e-06	4.194179e-06	7.846266e-10	2.917927e+01	5.521503e+01
2.870000e-06	4.224413e-06	7.813957e-10	2.938962e+01	5.527327e+01
2.880000e-06	4.254339e-06	7.833788e-10	2.959781e+01	5.532852e+01
2.890000e-06	4.283963e-06	7.895178e-10	2.980391e+01	5.538119e+01
2.900000e-06	4.313405e-06	7.957237e-10	3.000874e+01	5.543157e+01
