# Temperatura_=_-30.47
# Concentracion g/m^3_=_1620.0
# C_Vs_to_Am_M_A/Vsm_=_65563218390.804596
# pendiente_HvsI_1/m_=_3716.3
# ordenada_HvsI_A/m_=_1297.0
# frecuencia_Hz_=_135109.95327600374

Tiempo_(s)	Campo_(V.s)	Magnetizacion_(V.s)	Campo_(kA/m)	Magnetizacion_(A/m)
0.000000e+00	-5.535031e-06	-8.541582e-10	-3.836249e+01	-5.502648e+01
1.000000e-08	-5.535231e-06	-8.501842e-10	-3.836388e+01	-5.505678e+01
2.000000e-08	-5.535109e-06	-8.472345e-10	-3.836303e+01	-5.509287e+01
3.000000e-08	-5.534493e-06	-8.473967e-10	-3.835877e+01	-5.513446e+01
4.000000e-08	-5.533407e-06	-8.501442e-10	-3.835124e+01	-5.518118e+01
5.000000e-08	-5.531819e-06	-8.516044e-10	-3.834023e+01	-5.523256e+01
6.000000e-08	-5.529587e-06	-8.429920e-10	-3.832476e+01	-5.528807e+01
7.000000e-08	-5.526767e-06	-8.398662e-10	-3.830522e+01	-5.534707e+01
8.000000e-08	-5.523456e-06	-8.580063e-10	-3.828227e+01	-5.540890e+01
9.000000e-08	-5.519646e-06	-8.905795e-10	-3.825586e+01	-5.547280e+01
1.000000e-07	-5.515432e-06	-9.103323e-10	-3.822666e+01	-5.553799e+01
1.100000e-07	-5.510925e-06	-8.789111e-10	-3.819542e+01	-5.560365e+01
1.200000e-07	-5.506213e-06	-7.888611e-10	-3.816276e+01	-5.566892e+01
1.300000e-07	-5.501335e-06	-8.057396e-10	-3.812895e+01	-5.573297e+01
1.400000e-07	-5.496123e-06	-8.861130e-10	-3.809283e+01	-5.579495e+01
1.500000e-07	-5.490498e-06	-9.096388e-10	-3.805384e+01	-5.585403e+01
1.600000e-07	-5.484483e-06	-8.371479e-10	-3.801215e+01	-5.590943e+01
1.700000e-07	-5.478055e-06	-7.985620e-10	-3.796760e+01	-5.596041e+01
1.800000e-07	-5.471146e-06	-9.018870e-10	-3.791972e+01	-5.600628e+01
1.900000e-07	-5.463829e-06	-9.199682e-10	-3.786900e+01	-5.604646e+01
2.000000e-07	-5.456261e-06	-8.505128e-10	-3.781655e+01	-5.608040e+01
2.100000e-07	-5.448401e-06	-8.006775e-10	-3.776207e+01	-5.610770e+01
2.200000e-07	-5.440276e-06	-8.797522e-10	-3.770576e+01	-5.612802e+01
2.300000e-07	-5.431918e-06	-9.110241e-10	-3.764783e+01	-5.614114e+01
2.400000e-07	-5.423057e-06	-8.674230e-10	-3.758642e+01	-5.614695e+01
2.500000e-07	-5.413518e-06	-8.200423e-10	-3.752030e+01	-5.614544e+01
2.600000e-07	-5.403321e-06	-8.576327e-10	-3.744963e+01	-5.613671e+01
2.700000e-07	-5.392441e-06	-8.803662e-10	-3.737422e+01	-5.612099e+01
2.800000e-07	-5.381126e-06	-8.578593e-10	-3.729580e+01	-5.609858e+01
2.900000e-07	-5.369487e-06	-8.423903e-10	-3.721513e+01	-5.606990e+01
3.000000e-07	-5.357368e-06	-8.647566e-10	-3.713114e+01	-5.603543e+01
3.100000e-07	-5.344843e-06	-8.746713e-10	-3.704433e+01	-5.599577e+01
3.200000e-07	-5.331963e-06	-8.480563e-10	-3.695506e+01	-5.595153e+01
3.300000e-07	-5.318677e-06	-8.427006e-10	-3.686298e+01	-5.590342e+01
3.400000e-07	-5.304937e-06	-8.590622e-10	-3.676774e+01	-5.585217e+01
3.500000e-07	-5.290772e-06	-8.843327e-10	-3.666957e+01	-5.579854e+01
3.600000e-07	-5.276115e-06	-8.587308e-10	-3.656799e+01	-5.574331e+01
3.700000e-07	-5.260831e-06	-8.434562e-10	-3.646205e+01	-5.568725e+01
3.800000e-07	-5.245091e-06	-8.549762e-10	-3.635296e+01	-5.563112e+01
3.900000e-07	-5.228895e-06	-8.725322e-10	-3.624071e+01	-5.557567e+01
4.000000e-07	-5.212210e-06	-8.385923e-10	-3.612507e+01	-5.552160e+01
4.100000e-07	-5.195254e-06	-8.528006e-10	-3.600755e+01	-5.546955e+01
4.200000e-07	-5.178072e-06	-8.857725e-10	-3.588846e+01	-5.542014e+01
4.300000e-07	-5.160571e-06	-8.640150e-10	-3.576716e+01	-5.537388e+01
4.400000e-07	-5.142661e-06	-8.282186e-10	-3.564304e+01	-5.533125e+01
4.500000e-07	-5.124395e-06	-8.814808e-10	-3.551644e+01	-5.529264e+01
4.600000e-07	-5.105773e-06	-8.832617e-10	-3.538737e+01	-5.525835e+01
4.700000e-07	-5.086777e-06	-8.220146e-10	-3.525571e+01	-5.522863e+01
4.800000e-07	-5.067404e-06	-8.375514e-10	-3.512144e+01	-5.520362e+01
4.900000e-07	-5.047783e-06	-8.952934e-10	-3.498545e+01	-5.518343e+01
5.000000e-07	-5.027931e-06	-8.523561e-10	-3.484786e+01	-5.516805e+01
5.100000e-07	-5.007778e-06	-8.355696e-10	-3.470818e+01	-5.515744e+01
5.200000e-07	-4.987386e-06	-8.876210e-10	-3.456684e+01	-5.515149e+01
5.300000e-07	-4.966679e-06	-8.696173e-10	-3.442333e+01	-5.515003e+01
5.400000e-07	-4.945569e-06	-8.258799e-10	-3.427702e+01	-5.515286e+01
5.500000e-07	-4.924116e-06	-8.742670e-10	-3.412833e+01	-5.515974e+01
5.600000e-07	-4.902334e-06	-8.827341e-10	-3.397737e+01	-5.517040e+01
5.700000e-07	-4.880231e-06	-8.245810e-10	-3.382417e+01	-5.518456e+01
5.800000e-07	-4.857809e-06	-8.486616e-10	-3.366877e+01	-5.520192e+01
5.900000e-07	-4.835055e-06	-8.902798e-10	-3.351106e+01	-5.522220e+01
6.000000e-07	-4.811927e-06	-8.471874e-10	-3.335077e+01	-5.524510e+01
6.100000e-07	-4.788480e-06	-8.339763e-10	-3.318826e+01	-5.527036e+01
6.200000e-07	-4.764838e-06	-8.729454e-10	-3.302440e+01	-5.529772e+01
6.300000e-07	-4.740999e-06	-8.528587e-10	-3.285918e+01	-5.532695e+01
6.400000e-07	-4.716884e-06	-8.308885e-10	-3.269204e+01	-5.535786e+01
6.500000e-07	-4.692363e-06	-8.531710e-10	-3.252209e+01	-5.539027e+01
6.600000e-07	-4.667314e-06	-8.587513e-10	-3.234848e+01	-5.542404e+01
6.700000e-07	-4.641717e-06	-8.414170e-10	-3.217106e+01	-5.545906e+01
6.800000e-07	-4.615615e-06	-8.554280e-10	-3.199016e+01	-5.549526e+01
6.900000e-07	-4.588951e-06	-8.581204e-10	-3.180535e+01	-5.553257e+01
7.000000e-07	-4.561721e-06	-8.490084e-10	-3.161662e+01	-5.557097e+01
7.100000e-07	-4.534208e-06	-8.505058e-10	-3.142593e+01	-5.561045e+01
7.200000e-07	-4.506604e-06	-8.548064e-10	-3.123461e+01	-5.565100e+01
7.300000e-07	-4.478866e-06	-8.439165e-10	-3.104237e+01	-5.569263e+01
7.400000e-07	-4.450958e-06	-8.494874e-10	-3.084894e+01	-5.573536e+01
7.500000e-07	-4.422793e-06	-8.533360e-10	-3.065374e+01	-5.577920e+01
7.600000e-07	-4.394381e-06	-8.520924e-10	-3.045681e+01	-5.582415e+01
7.700000e-07	-4.365645e-06	-8.517153e-10	-3.025765e+01	-5.587020e+01
7.800000e-07	-4.336518e-06	-8.520273e-10	-3.005577e+01	-5.591731e+01
7.900000e-07	-4.307055e-06	-8.428893e-10	-2.985157e+01	-5.596544e+01
8.000000e-07	-4.277260e-06	-8.430502e-10	-2.964507e+01	-5.601451e+01
8.100000e-07	-4.247175e-06	-8.447791e-10	-2.943655e+01	-5.606441e+01
8.200000e-07	-4.216864e-06	-8.396176e-10	-2.922647e+01	-5.611500e+01
8.300000e-07	-4.186289e-06	-8.377847e-10	-2.901456e+01	-5.616614e+01
8.400000e-07	-4.155428e-06	-8.489852e-10	-2.880067e+01	-5.621762e+01
8.500000e-07	-4.124324e-06	-8.529007e-10	-2.858509e+01	-5.626922e+01
8.600000e-07	-4.092962e-06	-8.459963e-10	-2.836772e+01	-5.632071e+01
8.700000e-07	-4.061398e-06	-8.425493e-10	-2.814896e+01	-5.637184e+01
8.800000e-07	-4.029625e-06	-8.396565e-10	-2.792874e+01	-5.642232e+01
8.900000e-07	-3.997673e-06	-8.326035e-10	-2.770729e+01	-5.647189e+01
9.000000e-07	-3.965473e-06	-8.325211e-10	-2.748411e+01	-5.652025e+01
9.100000e-07	-3.932890e-06	-8.403861e-10	-2.725829e+01	-5.656715e+01
9.200000e-07	-3.899970e-06	-8.404570e-10	-2.703012e+01	-5.661230e+01
9.300000e-07	-3.866687e-06	-8.414733e-10	-2.679944e+01	-5.665548e+01
9.400000e-07	-3.832884e-06	-8.456276e-10	-2.656516e+01	-5.669645e+01
9.500000e-07	-3.798537e-06	-8.440627e-10	-2.632711e+01	-5.673505e+01
9.600000e-07	-3.763715e-06	-8.334912e-10	-2.608576e+01	-5.677111e+01
9.700000e-07	-3.728540e-06	-8.323431e-10	-2.584197e+01	-5.680452e+01
9.800000e-07	-3.693211e-06	-8.339304e-10	-2.559711e+01	-5.683524e+01
9.900000e-07	-3.657741e-06	-8.330800e-10	-2.535127e+01	-5.686325e+01
1.000000e-06	-3.622094e-06	-8.326731e-10	-2.510420e+01	-5.688859e+01
1.010000e-06	-3.586326e-06	-8.407144e-10	-2.485630e+01	-5.691134e+01
1.020000e-06	-3.550422e-06	-8.415461e-10	-2.460746e+01	-5.693164e+01
1.030000e-06	-3.514350e-06	-8.389039e-10	-2.435745e+01	-5.694968e+01
1.040000e-06	-3.478013e-06	-8.389591e-10	-2.410560e+01	-5.696568e+01
1.050000e-06	-3.441367e-06	-8.375746e-10	-2.385162e+01	-5.697991e+01
1.060000e-06	-3.404455e-06	-8.329684e-10	-2.359578e+01	-5.699265e+01
1.070000e-06	-3.367247e-06	-8.360422e-10	-2.333790e+01	-5.700423e+01
1.080000e-06	-3.329776e-06	-8.405788e-10	-2.307819e+01	-5.701497e+01
1.090000e-06	-3.292079e-06	-8.412334e-10	-2.281692e+01	-5.702521e+01
1.100000e-06	-3.254180e-06	-8.411469e-10	-2.255425e+01	-5.703529e+01
1.110000e-06	-3.216111e-06	-8.424456e-10	-2.229039e+01	-5.704552e+01
1.120000e-06	-3.177798e-06	-8.399572e-10	-2.202485e+01	-5.705619e+01
1.130000e-06	-3.139192e-06	-8.385020e-10	-2.175728e+01	-5.706757e+01
1.140000e-06	-3.100310e-06	-8.417734e-10	-2.148780e+01	-5.707987e+01
1.150000e-06	-3.061282e-06	-8.465249e-10	-2.121730e+01	-5.709326e+01
1.160000e-06	-3.022165e-06	-8.468606e-10	-2.094619e+01	-5.710784e+01
1.170000e-06	-2.982884e-06	-8.458498e-10	-2.067393e+01	-5.712365e+01
1.180000e-06	-2.943417e-06	-8.471446e-10	-2.040040e+01	-5.714067e+01
1.190000e-06	-2.903831e-06	-8.481309e-10	-2.012603e+01	-5.715879e+01
1.200000e-06	-2.864111e-06	-8.480416e-10	-1.985073e+01	-5.717782e+01
1.210000e-06	-2.824172e-06	-8.472583e-10	-1.957392e+01	-5.719751e+01
1.220000e-06	-2.784079e-06	-8.481544e-10	-1.929605e+01	-5.721753e+01
1.230000e-06	-2.743819e-06	-8.514500e-10	-1.901701e+01	-5.723745e+01
1.240000e-06	-2.703366e-06	-8.547757e-10	-1.873663e+01	-5.725680e+01
1.250000e-06	-2.662669e-06	-8.552032e-10	-1.845457e+01	-5.727505e+01
1.260000e-06	-2.621697e-06	-8.535872e-10	-1.817060e+01	-5.729158e+01
1.270000e-06	-2.580454e-06	-8.480200e-10	-1.788475e+01	-5.730576e+01
1.280000e-06	-2.538942e-06	-8.437598e-10	-1.759704e+01	-5.731689e+01
1.290000e-06	-2.497132e-06	-8.394954e-10	-1.730726e+01	-5.732427e+01
1.300000e-06	-2.454968e-06	-8.380549e-10	-1.701502e+01	-5.732716e+01
1.310000e-06	-2.412593e-06	-8.371017e-10	-1.672133e+01	-5.732483e+01
1.320000e-06	-2.370012e-06	-8.394365e-10	-1.642621e+01	-5.731655e+01
1.330000e-06	-2.327102e-06	-8.393000e-10	-1.612880e+01	-5.730162e+01
1.340000e-06	-2.283968e-06	-8.378704e-10	-1.582985e+01	-5.727934e+01
1.350000e-06	-2.240655e-06	-8.378332e-10	-1.552965e+01	-5.724906e+01
1.360000e-06	-2.197136e-06	-8.368642e-10	-1.522803e+01	-5.721020e+01
1.370000e-06	-2.153530e-06	-8.327628e-10	-1.492580e+01	-5.716220e+01
1.380000e-06	-2.109893e-06	-8.295455e-10	-1.462336e+01	-5.710459e+01
1.390000e-06	-2.066146e-06	-8.283938e-10	-1.432016e+01	-5.703693e+01
1.400000e-06	-2.022257e-06	-8.282734e-10	-1.401597e+01	-5.695889e+01
1.410000e-06	-1.978292e-06	-8.268784e-10	-1.371125e+01	-5.687017e+01
1.420000e-06	-1.934335e-06	-8.241143e-10	-1.340659e+01	-5.677058e+01
1.430000e-06	-1.890306e-06	-8.230295e-10	-1.310143e+01	-5.665995e+01
1.440000e-06	-1.846088e-06	-8.208745e-10	-1.279496e+01	-5.653822e+01
1.450000e-06	-1.801747e-06	-8.159601e-10	-1.248765e+01	-5.640534e+01
1.460000e-06	-1.757271e-06	-8.104069e-10	-1.217939e+01	-5.626135e+01
1.470000e-06	-1.712605e-06	-8.053088e-10	-1.186981e+01	-5.610630e+01
1.480000e-06	-1.667785e-06	-8.010230e-10	-1.155918e+01	-5.594028e+01
1.490000e-06	-1.622895e-06	-7.965494e-10	-1.124805e+01	-5.576340e+01
1.500000e-06	-1.577948e-06	-7.905349e-10	-1.093653e+01	-5.557577e+01
1.510000e-06	-1.532838e-06	-7.864577e-10	-1.062388e+01	-5.537750e+01
1.520000e-06	-1.487524e-06	-7.837430e-10	-1.030981e+01	-5.516868e+01
1.530000e-06	-1.442020e-06	-7.815785e-10	-9.994432e+00	-5.494935e+01
1.540000e-06	-1.396409e-06	-7.769676e-10	-9.678304e+00	-5.471954e+01
1.550000e-06	-1.350846e-06	-7.704863e-10	-9.362518e+00	-5.447920e+01
1.560000e-06	-1.305257e-06	-7.631708e-10	-9.046548e+00	-5.422822e+01
1.570000e-06	-1.259524e-06	-7.567892e-10	-8.729578e+00	-5.396642e+01
1.580000e-06	-1.213711e-06	-7.505901e-10	-8.412055e+00	-5.369354e+01
1.590000e-06	-1.167857e-06	-7.438752e-10	-8.094245e+00	-5.340921e+01
1.600000e-06	-1.121915e-06	-7.380119e-10	-7.775828e+00	-5.311300e+01
1.610000e-06	-1.075910e-06	-7.343759e-10	-7.456976e+00	-5.280436e+01
1.620000e-06	-1.029807e-06	-7.319498e-10	-7.137444e+00	-5.248266e+01
1.630000e-06	-9.835524e-07	-7.291226e-10	-6.816858e+00	-5.214715e+01
1.640000e-06	-9.373047e-07	-7.231830e-10	-6.496323e+00	-5.179703e+01
1.650000e-06	-8.910153e-07	-7.135513e-10	-6.175497e+00	-5.143138e+01
1.660000e-06	-8.446320e-07	-7.034611e-10	-5.854022e+00	-5.104922e+01
1.670000e-06	-7.982572e-07	-6.942559e-10	-5.532604e+00	-5.064948e+01
1.680000e-06	-7.518548e-07	-6.857452e-10	-5.210996e+00	-5.023107e+01
1.690000e-06	-7.053521e-07	-6.793921e-10	-4.888692e+00	-4.979281e+01
1.700000e-06	-6.587119e-07	-6.716203e-10	-4.565436e+00	-4.933352e+01
1.710000e-06	-6.120664e-07	-6.663495e-10	-4.242143e+00	-4.885197e+01
1.720000e-06	-5.654465e-07	-6.624610e-10	-3.919028e+00	-4.834695e+01
1.730000e-06	-5.187575e-07	-6.554677e-10	-3.595433e+00	-4.781723e+01
1.740000e-06	-4.719730e-07	-6.469543e-10	-3.271176e+00	-4.726164e+01
1.750000e-06	-4.250972e-07	-6.359181e-10	-2.946287e+00	-4.667901e+01
1.760000e-06	-3.782720e-07	-6.238270e-10	-2.621748e+00	-4.606824e+01
1.770000e-06	-3.315370e-07	-6.122120e-10	-2.297834e+00	-4.542829e+01
1.780000e-06	-2.846498e-07	-6.023961e-10	-1.972866e+00	-4.475819e+01
1.790000e-06	-2.376487e-07	-5.943005e-10	-1.647109e+00	-4.405708e+01
1.800000e-06	-1.906992e-07	-5.837509e-10	-1.321708e+00	-4.332415e+01
1.810000e-06	-1.437300e-07	-5.734121e-10	-9.961717e-01	-4.255875e+01
1.820000e-06	-9.678294e-08	-5.667028e-10	-6.707885e-01	-4.176030e+01
1.830000e-06	-4.985782e-08	-5.593231e-10	-3.455573e-01	-4.092835e+01
1.840000e-06	-2.899587e-09	-5.482198e-10	-2.009661e-02	-4.006257e+01
1.850000e-06	4.409344e-08	-5.325877e-10	3.056052e-01	-3.916276e+01
1.860000e-06	9.112666e-08	-5.154579e-10	6.315856e-01	-3.822882e+01
1.870000e-06	1.381684e-07	-4.991958e-10	9.576252e-01	-3.726081e+01
1.880000e-06	1.851834e-07	-4.842809e-10	1.283479e+00	-3.625886e+01
1.890000e-06	2.321708e-07	-4.699238e-10	1.609142e+00	-3.522327e+01
1.900000e-06	2.790851e-07	-4.550018e-10	1.934298e+00	-3.415440e+01
1.910000e-06	3.259498e-07	-4.400467e-10	2.259111e+00	-3.305275e+01
1.920000e-06	3.728287e-07	-4.248110e-10	2.584021e+00	-3.191892e+01
1.930000e-06	4.197373e-07	-4.098168e-10	2.909138e+00	-3.075358e+01
1.940000e-06	4.666194e-07	-3.941315e-10	3.234071e+00	-2.955753e+01
1.950000e-06	5.134363e-07	-3.758880e-10	3.558552e+00	-2.833160e+01
1.960000e-06	5.601694e-07	-3.579893e-10	3.882453e+00	-2.707675e+01
1.970000e-06	6.067837e-07	-3.399197e-10	4.205530e+00	-2.579397e+01
1.980000e-06	6.533228e-07	-3.240949e-10	4.528085e+00	-2.448433e+01
1.990000e-06	6.998516e-07	-3.077906e-10	4.850570e+00	-2.314896e+01
2.000000e-06	7.463815e-07	-2.880750e-10	5.173061e+00	-2.178904e+01
2.010000e-06	7.928162e-07	-2.673621e-10	5.494894e+00	-2.040581e+01
2.020000e-06	8.391392e-07	-2.473568e-10	5.815952e+00	-1.900055e+01
2.030000e-06	8.854735e-07	-2.276345e-10	6.137088e+00	-1.757457e+01
2.040000e-06	9.317964e-07	-2.077063e-10	6.458145e+00	-1.612926e+01
2.050000e-06	9.780175e-07	-1.875930e-10	6.778497e+00	-1.466603e+01
2.060000e-06	1.024137e-06	-1.669065e-10	7.098142e+00	-1.318633e+01
2.070000e-06	1.070156e-06	-1.454896e-10	7.417093e+00	-1.169166e+01
2.080000e-06	1.116132e-06	-1.244256e-10	7.735749e+00	-1.018355e+01
2.090000e-06	1.162067e-06	-1.032192e-10	8.054118e+00	-8.663591e+00
2.100000e-06	1.207956e-06	-8.128148e-11	8.372170e+00	-7.133398e+00
2.110000e-06	1.253737e-06	-5.834479e-11	8.689467e+00	-5.594634e+00
2.120000e-06	1.299370e-06	-3.457679e-11	9.005742e+00	-4.049006e+00
2.130000e-06	1.344935e-06	-1.129197e-11	9.321548e+00	-2.498258e+00
2.140000e-06	1.390451e-06	9.204072e-12	9.637014e+00	-9.441745e-01
2.150000e-06	1.435876e-06	2.726581e-11	9.951845e+00	6.114233e-01
2.160000e-06	1.481185e-06	4.659651e-11	1.026588e+01	2.166681e+00
2.170000e-06	1.526413e-06	6.743403e-11	1.057935e+01	3.719714e+00
2.180000e-06	1.571467e-06	9.024763e-11	1.089161e+01	5.268613e+00
2.190000e-06	1.616379e-06	1.143376e-10	1.120289e+01	6.811452e+00
2.200000e-06	1.661257e-06	1.392336e-10	1.151393e+01	8.346291e+00
2.210000e-06	1.705962e-06	1.619871e-10	1.182378e+01	9.871187e+00
2.220000e-06	1.750416e-06	1.822347e-10	1.213188e+01	1.138420e+01
2.230000e-06	1.794741e-06	2.006278e-10	1.243909e+01	1.288342e+01
2.240000e-06	1.839027e-06	2.170038e-10	1.274603e+01	1.436693e+01
2.250000e-06	1.883194e-06	2.338948e-10	1.305214e+01	1.583289e+01
2.260000e-06	1.927222e-06	2.515676e-10	1.335729e+01	1.727948e+01
2.270000e-06	1.971190e-06	2.704004e-10	1.366203e+01	1.870494e+01
2.280000e-06	2.015111e-06	2.918720e-10	1.396644e+01	2.010760e+01
2.290000e-06	2.058920e-06	3.130237e-10	1.427008e+01	2.148585e+01
2.300000e-06	2.102622e-06	3.328139e-10	1.457297e+01	2.283820e+01
2.310000e-06	2.146286e-06	3.505476e-10	1.487560e+01	2.416323e+01
2.320000e-06	2.189930e-06	3.666448e-10	1.517809e+01	2.545966e+01
2.330000e-06	2.233536e-06	3.811768e-10	1.548031e+01	2.672632e+01
2.340000e-06	2.277017e-06	3.960634e-10	1.578167e+01	2.796217e+01
2.350000e-06	2.320303e-06	4.130259e-10	1.608168e+01	2.916629e+01
2.360000e-06	2.363434e-06	4.316585e-10	1.638062e+01	3.033793e+01
2.370000e-06	2.406250e-06	4.495530e-10	1.667737e+01	3.147645e+01
2.380000e-06	2.448761e-06	4.648475e-10	1.697201e+01	3.258136e+01
2.390000e-06	2.491101e-06	4.793858e-10	1.726546e+01	3.365233e+01
2.400000e-06	2.533109e-06	4.920262e-10	1.755661e+01	3.468913e+01
2.410000e-06	2.574612e-06	5.025790e-10	1.784426e+01	3.569171e+01
2.420000e-06	2.615632e-06	5.111226e-10	1.812856e+01	3.666010e+01
2.430000e-06	2.656401e-06	5.209534e-10	1.841113e+01	3.759451e+01
2.440000e-06	2.696962e-06	5.340879e-10	1.869225e+01	3.849520e+01
2.450000e-06	2.737344e-06	5.481947e-10	1.897214e+01	3.936259e+01
2.460000e-06	2.777618e-06	5.614809e-10	1.925127e+01	4.019716e+01
2.470000e-06	2.817723e-06	5.717729e-10	1.952923e+01	4.099948e+01
2.480000e-06	2.857663e-06	5.799783e-10	1.980605e+01	4.177020e+01
2.490000e-06	2.897501e-06	5.884978e-10	2.008216e+01	4.251002e+01
2.500000e-06	2.937215e-06	5.976477e-10	2.035741e+01	4.321971e+01
2.510000e-06	2.976705e-06	6.076493e-10	2.063111e+01	4.390004e+01
2.520000e-06	3.016016e-06	6.161038e-10	2.090357e+01	4.455183e+01
2.530000e-06	3.055142e-06	6.229888e-10	2.117474e+01	4.517593e+01
2.540000e-06	3.093977e-06	6.295617e-10	2.144391e+01	4.577315e+01
2.550000e-06	3.132515e-06	6.380055e-10	2.171101e+01	4.634434e+01
2.560000e-06	3.170805e-06	6.468438e-10	2.197639e+01	4.689032e+01
2.570000e-06	3.208980e-06	6.546582e-10	2.224097e+01	4.741190e+01
2.580000e-06	3.247100e-06	6.608303e-10	2.250518e+01	4.790987e+01
2.590000e-06	3.285035e-06	6.674375e-10	2.276810e+01	4.838499e+01
2.600000e-06	3.322691e-06	6.747087e-10	2.302909e+01	4.883798e+01
2.610000e-06	3.360078e-06	6.804271e-10	2.328821e+01	4.926957e+01
2.620000e-06	3.397210e-06	6.849705e-10	2.354557e+01	4.968043e+01
2.630000e-06	3.434074e-06	6.907606e-10	2.380107e+01	5.007122e+01
2.640000e-06	3.470657e-06	6.978522e-10	2.405462e+01	5.044257e+01
2.650000e-06	3.507020e-06	7.043708e-10	2.430664e+01	5.079510e+01
2.660000e-06	3.543160e-06	7.099952e-10	2.455713e+01	5.112939e+01
2.670000e-06	3.579077e-06	7.144592e-10	2.480606e+01	5.144606e+01
2.680000e-06	3.614825e-06	7.196333e-10	2.505382e+01	5.174566e+01
2.690000e-06	3.650466e-06	7.264229e-10	2.530085e+01	5.202880e+01
2.700000e-06	3.686038e-06	7.326319e-10	2.554739e+01	5.229606e+01
2.710000e-06	3.721455e-06	7.385420e-10	2.579286e+01	5.254803e+01
2.720000e-06	3.756580e-06	7.452181e-10	2.603631e+01	5.278534e+01
2.730000e-06	3.791399e-06	7.492129e-10	2.627763e+01	5.300860e+01
2.740000e-06	3.825903e-06	7.532659e-10	2.651678e+01	5.321846e+01
2.750000e-06	3.859922e-06	7.540811e-10	2.675256e+01	5.341561e+01
2.760000e-06	3.893436e-06	7.547283e-10	2.698484e+01	5.360072e+01
2.770000e-06	3.926416e-06	7.561894e-10	2.721342e+01	5.377452e+01
2.780000e-06	3.958897e-06	7.624618e-10	2.743854e+01	5.393773e+01
2.790000e-06	3.991065e-06	7.734355e-10	2.766149e+01	5.409110e+01
2.800000e-06	4.023028e-06	7.819633e-10	2.788302e+01	5.423541e+01
2.810000e-06	4.054841e-06	7.855227e-10	2.810351e+01	5.437141e+01
2.820000e-06	4.086516e-06	7.849918e-10	2.832305e+01	5.449988e+01
2.830000e-06	4.118087e-06	7.834155e-10	2.854186e+01	5.462159e+01
2.840000e-06	4.149451e-06	7.811473e-10	2.875924e+01	5.473729e+01
2.850000e-06	4.180480e-06	7.795955e-10	2.897430e+01	5.484771e+01
2.860000e-06	4.211072e-06	7.799732e-10	2.918633e+01	5.495357e+01
2.870000e-06	4.241239e-06	7.849738e-10	2.939541e+01	5.505551e+01
2.880000e-06	4.271140e-06	7.929378e-10	2.960265e+01	5.515418e+01
2.890000e-06	4.300830e-06	7.992445e-10	2.980843e+01	5.525014e+01
2.900000e-06	4.330275e-06	8.009324e-10	3.001251e+01	5.534390e+01
