# Temperatura_=_-15.57
# Concentracion g/m^3_=_1620.0
# C_Vs_to_Am_M_A/Vsm_=_65563218390.804596
# pendiente_HvsI_1/m_=_3716.3
# ordenada_HvsI_A/m_=_1297.0
# frecuencia_Hz_=_135107.8353518114

Tiempo_(s)	Campo_(V.s)	Magnetizacion_(V.s)	Campo_(kA/m)	Magnetizacion_(A/m)
0.000000e+00	-5.513290e-06	-9.083388e-10	-3.837400e+01	-5.883952e+01
1.000000e-08	-5.513557e-06	-9.072539e-10	-3.837586e+01	-5.883812e+01
2.000000e-08	-5.513550e-06	-9.057074e-10	-3.837581e+01	-5.884052e+01
3.000000e-08	-5.513218e-06	-9.054676e-10	-3.837350e+01	-5.884629e+01
4.000000e-08	-5.512475e-06	-9.064400e-10	-3.836833e+01	-5.885496e+01
5.000000e-08	-5.511221e-06	-9.108053e-10	-3.835959e+01	-5.886594e+01
6.000000e-08	-5.509478e-06	-9.157434e-10	-3.834746e+01	-5.887859e+01
7.000000e-08	-5.507185e-06	-8.973413e-10	-3.833151e+01	-5.889222e+01
8.000000e-08	-5.504259e-06	-8.559833e-10	-3.831114e+01	-5.890609e+01
9.000000e-08	-5.500834e-06	-8.724153e-10	-3.828730e+01	-5.891941e+01
1.000000e-07	-5.497002e-06	-9.722791e-10	-3.826063e+01	-5.893140e+01
1.100000e-07	-5.492732e-06	-1.000286e-09	-3.823091e+01	-5.894126e+01
1.200000e-07	-5.488143e-06	-8.391440e-10	-3.819897e+01	-5.894822e+01
1.300000e-07	-5.483461e-06	-7.845366e-10	-3.816638e+01	-5.895151e+01
1.400000e-07	-5.478559e-06	-9.103674e-10	-3.813226e+01	-5.895042e+01
1.500000e-07	-5.473138e-06	-9.997994e-10	-3.809453e+01	-5.894430e+01
1.600000e-07	-5.467235e-06	-8.851062e-10	-3.805344e+01	-5.893254e+01
1.700000e-07	-5.461016e-06	-7.920519e-10	-3.801015e+01	-5.891466e+01
1.800000e-07	-5.454375e-06	-9.329558e-10	-3.796393e+01	-5.889021e+01
1.900000e-07	-5.447121e-06	-1.001867e-09	-3.791344e+01	-5.885888e+01
2.000000e-07	-5.439569e-06	-8.960414e-10	-3.786088e+01	-5.882045e+01
2.100000e-07	-5.431893e-06	-7.798805e-10	-3.780745e+01	-5.877481e+01
2.200000e-07	-5.423925e-06	-8.657404e-10	-3.775200e+01	-5.872196e+01
2.300000e-07	-5.415664e-06	-9.331582e-10	-3.769449e+01	-5.866200e+01
2.400000e-07	-5.407149e-06	-8.897488e-10	-3.763523e+01	-5.859516e+01
2.500000e-07	-5.398176e-06	-8.079743e-10	-3.757277e+01	-5.852175e+01
2.600000e-07	-5.388474e-06	-8.390280e-10	-3.750525e+01	-5.844220e+01
2.700000e-07	-5.377999e-06	-8.767384e-10	-3.743233e+01	-5.835701e+01
2.800000e-07	-5.366977e-06	-8.551969e-10	-3.735562e+01	-5.826678e+01
2.900000e-07	-5.355562e-06	-8.122242e-10	-3.727617e+01	-5.817216e+01
3.000000e-07	-5.343716e-06	-8.359334e-10	-3.719372e+01	-5.807388e+01
3.100000e-07	-5.331571e-06	-8.770719e-10	-3.710919e+01	-5.797269e+01
3.200000e-07	-5.319098e-06	-8.452090e-10	-3.702237e+01	-5.786939e+01
3.300000e-07	-5.306081e-06	-8.015753e-10	-3.693176e+01	-5.776480e+01
3.400000e-07	-5.292625e-06	-8.220766e-10	-3.683811e+01	-5.765973e+01
3.500000e-07	-5.278956e-06	-8.731782e-10	-3.674297e+01	-5.755500e+01
3.600000e-07	-5.264850e-06	-8.352028e-10	-3.664479e+01	-5.745138e+01
3.700000e-07	-5.250247e-06	-8.149723e-10	-3.654315e+01	-5.734964e+01
3.800000e-07	-5.235221e-06	-8.708130e-10	-3.643856e+01	-5.725048e+01
3.900000e-07	-5.219652e-06	-8.776555e-10	-3.633020e+01	-5.715457e+01
4.000000e-07	-5.203403e-06	-7.981825e-10	-3.621710e+01	-5.706250e+01
4.100000e-07	-5.186624e-06	-8.374531e-10	-3.610031e+01	-5.697480e+01
4.200000e-07	-5.169692e-06	-9.041953e-10	-3.598246e+01	-5.689192e+01
4.300000e-07	-5.152492e-06	-8.317908e-10	-3.586274e+01	-5.681425e+01
4.400000e-07	-5.134899e-06	-7.854203e-10	-3.574029e+01	-5.674209e+01
4.500000e-07	-5.117047e-06	-9.073625e-10	-3.561604e+01	-5.667566e+01
4.600000e-07	-5.098805e-06	-8.929354e-10	-3.548907e+01	-5.661511e+01
4.700000e-07	-5.080055e-06	-7.754758e-10	-3.535856e+01	-5.656050e+01
4.800000e-07	-5.060880e-06	-8.285985e-10	-3.522510e+01	-5.651186e+01
4.900000e-07	-5.041428e-06	-9.138305e-10	-3.508971e+01	-5.646910e+01
5.000000e-07	-5.021754e-06	-8.079898e-10	-3.495278e+01	-5.643212e+01
5.100000e-07	-5.001861e-06	-8.010919e-10	-3.481431e+01	-5.640075e+01
5.200000e-07	-4.981782e-06	-9.026602e-10	-3.467456e+01	-5.637476e+01
5.300000e-07	-4.961373e-06	-8.437396e-10	-3.453251e+01	-5.635391e+01
5.400000e-07	-4.940496e-06	-7.730309e-10	-3.438719e+01	-5.633792e+01
5.500000e-07	-4.919352e-06	-8.860909e-10	-3.424003e+01	-5.632649e+01
5.600000e-07	-4.897919e-06	-8.875779e-10	-3.409085e+01	-5.631929e+01
5.700000e-07	-4.876079e-06	-7.738320e-10	-3.393884e+01	-5.631602e+01
5.800000e-07	-4.853970e-06	-8.286798e-10	-3.378495e+01	-5.631633e+01
5.900000e-07	-4.831504e-06	-9.008352e-10	-3.362858e+01	-5.631992e+01
6.000000e-07	-4.808477e-06	-8.127421e-10	-3.346831e+01	-5.632647e+01
6.100000e-07	-4.785077e-06	-8.060588e-10	-3.330543e+01	-5.633568e+01
6.200000e-07	-4.761506e-06	-8.872701e-10	-3.314138e+01	-5.634725e+01
6.300000e-07	-4.737701e-06	-8.392053e-10	-3.297568e+01	-5.636093e+01
6.400000e-07	-4.713643e-06	-7.999439e-10	-3.280824e+01	-5.637644e+01
6.500000e-07	-4.689324e-06	-8.624275e-10	-3.263897e+01	-5.639356e+01
6.600000e-07	-4.664701e-06	-8.546233e-10	-3.246759e+01	-5.641206e+01
6.700000e-07	-4.639770e-06	-8.067664e-10	-3.229406e+01	-5.643173e+01
6.800000e-07	-4.614303e-06	-8.543668e-10	-3.211680e+01	-5.645235e+01
6.900000e-07	-4.588155e-06	-8.675414e-10	-3.193480e+01	-5.647375e+01
7.000000e-07	-4.561525e-06	-8.253257e-10	-3.174945e+01	-5.649573e+01
7.100000e-07	-4.534465e-06	-8.407321e-10	-3.156111e+01	-5.651811e+01
7.200000e-07	-4.507049e-06	-8.709115e-10	-3.137029e+01	-5.654070e+01
7.300000e-07	-4.479411e-06	-8.389487e-10	-3.117792e+01	-5.656331e+01
7.400000e-07	-4.451593e-06	-8.416832e-10	-3.098430e+01	-5.658574e+01
7.500000e-07	-4.423599e-06	-8.641145e-10	-3.078945e+01	-5.660779e+01
7.600000e-07	-4.395376e-06	-8.464911e-10	-3.059301e+01	-5.662926e+01
7.700000e-07	-4.366850e-06	-8.341291e-10	-3.039446e+01	-5.664992e+01
7.800000e-07	-4.337985e-06	-8.556002e-10	-3.019356e+01	-5.666954e+01
7.900000e-07	-4.308797e-06	-8.445939e-10	-2.999040e+01	-5.668790e+01
8.000000e-07	-4.279378e-06	-8.348839e-10	-2.978564e+01	-5.670475e+01
8.100000e-07	-4.249669e-06	-8.528726e-10	-2.957886e+01	-5.671986e+01
8.200000e-07	-4.219660e-06	-8.502929e-10	-2.936998e+01	-5.673298e+01
8.300000e-07	-4.189416e-06	-8.256972e-10	-2.915947e+01	-5.674389e+01
8.400000e-07	-4.158852e-06	-8.362029e-10	-2.894674e+01	-5.675236e+01
8.500000e-07	-4.127963e-06	-8.473236e-10	-2.873174e+01	-5.675819e+01
8.600000e-07	-4.096741e-06	-8.349503e-10	-2.851443e+01	-5.676119e+01
8.700000e-07	-4.065222e-06	-8.365131e-10	-2.829505e+01	-5.676120e+01
8.800000e-07	-4.033522e-06	-8.495700e-10	-2.807441e+01	-5.675810e+01
8.900000e-07	-4.001680e-06	-8.382423e-10	-2.785278e+01	-5.675180e+01
9.000000e-07	-3.969700e-06	-8.286284e-10	-2.763019e+01	-5.674224e+01
9.100000e-07	-3.937483e-06	-8.401561e-10	-2.740595e+01	-5.672942e+01
9.200000e-07	-3.904916e-06	-8.358687e-10	-2.717928e+01	-5.671338e+01
9.300000e-07	-3.871984e-06	-8.253843e-10	-2.695006e+01	-5.669422e+01
9.400000e-07	-3.838764e-06	-8.376239e-10	-2.671884e+01	-5.667208e+01
9.500000e-07	-3.805166e-06	-8.473385e-10	-2.648499e+01	-5.664716e+01
9.600000e-07	-3.770909e-06	-8.322541e-10	-2.624655e+01	-5.661969e+01
9.700000e-07	-3.736146e-06	-8.305200e-10	-2.600460e+01	-5.658997e+01
9.800000e-07	-3.701098e-06	-8.369985e-10	-2.576065e+01	-5.655833e+01
9.900000e-07	-3.665751e-06	-8.263160e-10	-2.551462e+01	-5.652513e+01
1.000000e-06	-3.630185e-06	-8.157652e-10	-2.526707e+01	-5.649078e+01
1.010000e-06	-3.594454e-06	-8.264193e-10	-2.501838e+01	-5.645569e+01
1.020000e-06	-3.558602e-06	-8.269124e-10	-2.476884e+01	-5.642030e+01
1.030000e-06	-3.522617e-06	-8.201973e-10	-2.451837e+01	-5.638505e+01
1.040000e-06	-3.486462e-06	-8.259441e-10	-2.426672e+01	-5.635037e+01
1.050000e-06	-3.450109e-06	-8.312033e-10	-2.401370e+01	-5.631669e+01
1.060000e-06	-3.413498e-06	-8.210758e-10	-2.375888e+01	-5.628440e+01
1.070000e-06	-3.376583e-06	-8.208575e-10	-2.350193e+01	-5.625386e+01
1.080000e-06	-3.339380e-06	-8.257143e-10	-2.324299e+01	-5.622537e+01
1.090000e-06	-3.301885e-06	-8.205882e-10	-2.298202e+01	-5.619919e+01
1.100000e-06	-3.264075e-06	-8.155985e-10	-2.271885e+01	-5.617552e+01
1.110000e-06	-3.226096e-06	-8.227564e-10	-2.245450e+01	-5.615448e+01
1.120000e-06	-3.188045e-06	-8.224375e-10	-2.218966e+01	-5.613611e+01
1.130000e-06	-3.149784e-06	-8.171787e-10	-2.192335e+01	-5.612036e+01
1.140000e-06	-3.111309e-06	-8.198764e-10	-2.165556e+01	-5.610711e+01
1.150000e-06	-3.072674e-06	-8.220348e-10	-2.138665e+01	-5.609614e+01
1.160000e-06	-3.033685e-06	-8.164713e-10	-2.111527e+01	-5.608715e+01
1.170000e-06	-2.994394e-06	-8.149976e-10	-2.084179e+01	-5.607975e+01
1.180000e-06	-2.954948e-06	-8.183123e-10	-2.056724e+01	-5.607347e+01
1.190000e-06	-2.915378e-06	-8.182570e-10	-2.029183e+01	-5.606775e+01
1.200000e-06	-2.875715e-06	-8.200417e-10	-2.001576e+01	-5.606197e+01
1.210000e-06	-2.835856e-06	-8.242813e-10	-1.973833e+01	-5.605544e+01
1.220000e-06	-2.795833e-06	-8.235527e-10	-1.945975e+01	-5.604744e+01
1.230000e-06	-2.755714e-06	-8.209318e-10	-1.918052e+01	-5.603718e+01
1.240000e-06	-2.715465e-06	-8.220641e-10	-1.890037e+01	-5.602386e+01
1.250000e-06	-2.675096e-06	-8.219569e-10	-1.861940e+01	-5.600665e+01
1.260000e-06	-2.634571e-06	-8.209056e-10	-1.833733e+01	-5.598471e+01
1.270000e-06	-2.593866e-06	-8.210769e-10	-1.805401e+01	-5.595724e+01
1.280000e-06	-2.552965e-06	-8.219452e-10	-1.776933e+01	-5.592342e+01
1.290000e-06	-2.511762e-06	-8.162919e-10	-1.748254e+01	-5.588249e+01
1.300000e-06	-2.470291e-06	-8.104158e-10	-1.719389e+01	-5.583374e+01
1.310000e-06	-2.428552e-06	-8.071901e-10	-1.690338e+01	-5.577648e+01
1.320000e-06	-2.386440e-06	-8.063879e-10	-1.661027e+01	-5.571012e+01
1.330000e-06	-2.343978e-06	-8.051602e-10	-1.631473e+01	-5.563412e+01
1.340000e-06	-2.301190e-06	-8.066490e-10	-1.601691e+01	-5.554804e+01
1.350000e-06	-2.258127e-06	-8.084718e-10	-1.571718e+01	-5.545150e+01
1.360000e-06	-2.214820e-06	-8.084207e-10	-1.541575e+01	-5.534421e+01
1.370000e-06	-2.171297e-06	-8.049105e-10	-1.511282e+01	-5.522597e+01
1.380000e-06	-2.127675e-06	-7.982389e-10	-1.480920e+01	-5.509665e+01
1.390000e-06	-2.084004e-06	-7.897796e-10	-1.450523e+01	-5.495623e+01
1.400000e-06	-2.040242e-06	-7.853615e-10	-1.420064e+01	-5.480472e+01
1.410000e-06	-1.996376e-06	-7.856330e-10	-1.389532e+01	-5.464222e+01
1.420000e-06	-1.952454e-06	-7.846380e-10	-1.358961e+01	-5.446890e+01
1.430000e-06	-1.908483e-06	-7.794966e-10	-1.328356e+01	-5.428494e+01
1.440000e-06	-1.864439e-06	-7.754879e-10	-1.297700e+01	-5.409058e+01
1.450000e-06	-1.820303e-06	-7.708476e-10	-1.266980e+01	-5.388608e+01
1.460000e-06	-1.776071e-06	-7.634016e-10	-1.236194e+01	-5.367170e+01
1.470000e-06	-1.731709e-06	-7.564635e-10	-1.205316e+01	-5.344770e+01
1.480000e-06	-1.687233e-06	-7.515066e-10	-1.174360e+01	-5.321433e+01
1.490000e-06	-1.642666e-06	-7.455344e-10	-1.143340e+01	-5.297178e+01
1.500000e-06	-1.597931e-06	-7.363436e-10	-1.112204e+01	-5.272023e+01
1.510000e-06	-1.553052e-06	-7.289846e-10	-1.080967e+01	-5.245977e+01
1.520000e-06	-1.508058e-06	-7.252108e-10	-1.049649e+01	-5.219045e+01
1.530000e-06	-1.462862e-06	-7.221457e-10	-1.018192e+01	-5.191222e+01
1.540000e-06	-1.417542e-06	-7.174590e-10	-9.866475e+00	-5.162495e+01
1.550000e-06	-1.372204e-06	-7.089956e-10	-9.550913e+00	-5.132843e+01
1.560000e-06	-1.326798e-06	-6.987354e-10	-9.234874e+00	-5.102233e+01
1.570000e-06	-1.281241e-06	-6.915793e-10	-8.917784e+00	-5.070624e+01
1.580000e-06	-1.235566e-06	-6.864590e-10	-8.599872e+00	-5.037962e+01
1.590000e-06	-1.189847e-06	-6.812486e-10	-8.281661e+00	-5.004186e+01
1.600000e-06	-1.144049e-06	-6.763768e-10	-7.962894e+00	-4.969224e+01
1.610000e-06	-1.098126e-06	-6.739713e-10	-7.643253e+00	-4.932994e+01
1.620000e-06	-1.052144e-06	-6.709863e-10	-7.323207e+00	-4.895405e+01
1.630000e-06	-1.006126e-06	-6.666310e-10	-7.002914e+00	-4.856360e+01
1.640000e-06	-9.600720e-07	-6.606050e-10	-6.682363e+00	-4.815754e+01
1.650000e-06	-9.139517e-07	-6.525722e-10	-6.361352e+00	-4.773477e+01
1.660000e-06	-8.677527e-07	-6.412351e-10	-6.039795e+00	-4.729411e+01
1.670000e-06	-8.215593e-07	-6.303395e-10	-5.718276e+00	-4.683440e+01
1.680000e-06	-7.753277e-07	-6.213473e-10	-5.396492e+00	-4.635441e+01
1.690000e-06	-7.291331e-07	-6.141407e-10	-5.074965e+00	-4.585292e+01
1.700000e-06	-6.829737e-07	-6.049208e-10	-4.753683e+00	-4.532872e+01
1.710000e-06	-6.366649e-07	-5.943193e-10	-4.431361e+00	-4.478062e+01
1.720000e-06	-5.902036e-07	-5.854224e-10	-4.107977e+00	-4.420743e+01
1.730000e-06	-5.436247e-07	-5.779443e-10	-3.783776e+00	-4.360803e+01
1.740000e-06	-4.970375e-07	-5.695797e-10	-3.459516e+00	-4.298135e+01
1.750000e-06	-4.504517e-07	-5.596543e-10	-3.135267e+00	-4.232636e+01
1.760000e-06	-4.038031e-07	-5.482493e-10	-2.810579e+00	-4.164211e+01
1.770000e-06	-3.570497e-07	-5.361557e-10	-2.485163e+00	-4.092773e+01
1.780000e-06	-3.102015e-07	-5.239861e-10	-2.159087e+00	-4.018244e+01
1.790000e-06	-2.634309e-07	-5.114974e-10	-1.833551e+00	-3.940552e+01
1.800000e-06	-2.167084e-07	-4.993164e-10	-1.508349e+00	-3.859637e+01
1.810000e-06	-1.699328e-07	-4.881572e-10	-1.182779e+00	-3.775446e+01
1.820000e-06	-1.231682e-07	-4.782147e-10	-8.572844e-01	-3.687938e+01
1.830000e-06	-7.637963e-08	-4.672479e-10	-5.316230e-01	-3.597079e+01
1.840000e-06	-2.963319e-08	-4.550376e-10	-2.062551e-01	-3.502845e+01
1.850000e-06	1.703759e-08	-4.421755e-10	1.185863e-01	-3.405222e+01
1.860000e-06	6.372322e-08	-4.273492e-10	4.435310e-01	-3.304206e+01
1.870000e-06	1.103669e-07	-4.102195e-10	7.681833e-01	-3.199798e+01
1.880000e-06	1.571055e-07	-3.928763e-10	1.093497e+00	-3.092013e+01
1.890000e-06	2.039452e-07	-3.773275e-10	1.419514e+00	-2.980870e+01
1.900000e-06	2.507518e-07	-3.648164e-10	1.745300e+00	-2.866400e+01
1.910000e-06	2.975588e-07	-3.515390e-10	2.071090e+00	-2.748638e+01
1.920000e-06	3.442534e-07	-3.349085e-10	2.396097e+00	-2.627630e+01
1.930000e-06	3.908789e-07	-3.152754e-10	2.720623e+00	-2.503429e+01
1.940000e-06	4.374860e-07	-2.960902e-10	3.045022e+00	-2.376096e+01
1.950000e-06	4.839911e-07	-2.773021e-10	3.368710e+00	-2.245700e+01
1.960000e-06	5.304551e-07	-2.582234e-10	3.692112e+00	-2.112315e+01
1.970000e-06	5.769525e-07	-2.401515e-10	4.015746e+00	-1.976028e+01
1.980000e-06	6.234281e-07	-2.224104e-10	4.339229e+00	-1.836929e+01
1.990000e-06	6.698446e-07	-2.036434e-10	4.662300e+00	-1.695121e+01
2.000000e-06	7.162247e-07	-1.836727e-10	4.985119e+00	-1.550713e+01
2.010000e-06	7.625273e-07	-1.609846e-10	5.307397e+00	-1.403822e+01
2.020000e-06	8.087801e-07	-1.367200e-10	5.629329e+00	-1.254577e+01
2.030000e-06	8.549499e-07	-1.145831e-10	5.950684e+00	-1.103114e+01
2.040000e-06	9.010516e-07	-9.446125e-11	6.271564e+00	-9.495806e+00
2.050000e-06	9.471379e-07	-7.465874e-11	6.592337e+00	-7.941319e+00
2.060000e-06	9.931480e-07	-5.507959e-11	6.912580e+00	-6.369343e+00
2.070000e-06	1.039059e-06	-3.420120e-11	7.232134e+00	-4.781636e+00
2.080000e-06	1.084921e-06	-1.137114e-11	7.551345e+00	-3.180052e+00
2.090000e-06	1.130695e-06	1.247169e-11	7.869948e+00	-1.566540e+00
2.100000e-06	1.176436e-06	3.592003e-11	8.188314e+00	5.686128e-02
2.110000e-06	1.222173e-06	5.934523e-11	8.506660e+00	1.688029e+00
2.120000e-06	1.267743e-06	8.295389e-11	8.823838e+00	3.324761e+00
2.130000e-06	1.313145e-06	1.058781e-10	9.139844e+00	4.964787e+00
2.140000e-06	1.358424e-06	1.281211e-10	9.455001e+00	6.605774e+00
2.150000e-06	1.403633e-06	1.489759e-10	9.769670e+00	8.245345e+00
2.160000e-06	1.448809e-06	1.701431e-10	1.008410e+01	9.881083e+00
2.170000e-06	1.493831e-06	1.919282e-10	1.039747e+01	1.151055e+01
2.180000e-06	1.538709e-06	2.150774e-10	1.070984e+01	1.313131e+01
2.190000e-06	1.583585e-06	2.393165e-10	1.102218e+01	1.474092e+01
2.200000e-06	1.628334e-06	2.624108e-10	1.133365e+01	1.633698e+01
2.210000e-06	1.672836e-06	2.843159e-10	1.164339e+01	1.791711e+01
2.220000e-06	1.717255e-06	3.055601e-10	1.195256e+01	1.947903e+01
2.230000e-06	1.761612e-06	3.269533e-10	1.226130e+01	2.102049e+01
2.240000e-06	1.805846e-06	3.467826e-10	1.256918e+01	2.253938e+01
2.250000e-06	1.849968e-06	3.643666e-10	1.287628e+01	2.403365e+01
2.260000e-06	1.893998e-06	3.824287e-10	1.318274e+01	2.550143e+01
2.270000e-06	1.937986e-06	4.020749e-10	1.348891e+01	2.694094e+01
2.280000e-06	1.981879e-06	4.220941e-10	1.379442e+01	2.835057e+01
2.290000e-06	2.025687e-06	4.411578e-10	1.409933e+01	2.972888e+01
2.300000e-06	2.069439e-06	4.586793e-10	1.440386e+01	3.107459e+01
2.310000e-06	2.113062e-06	4.744333e-10	1.470748e+01	3.238659e+01
2.320000e-06	2.156592e-06	4.896864e-10	1.501047e+01	3.366396e+01
2.330000e-06	2.199975e-06	5.059370e-10	1.531243e+01	3.490595e+01
2.340000e-06	2.243152e-06	5.237418e-10	1.561295e+01	3.611199e+01
2.350000e-06	2.286188e-06	5.420549e-10	1.591249e+01	3.728169e+01
2.360000e-06	2.329058e-06	5.599886e-10	1.621088e+01	3.841484e+01
2.370000e-06	2.371636e-06	5.751256e-10	1.650723e+01	3.951139e+01
2.380000e-06	2.413864e-06	5.863380e-10	1.680115e+01	4.057143e+01
2.390000e-06	2.455811e-06	5.974069e-10	1.709311e+01	4.159520e+01
2.400000e-06	2.497475e-06	6.097812e-10	1.738310e+01	4.258309e+01
2.410000e-06	2.538808e-06	6.226769e-10	1.767079e+01	4.353558e+01
2.420000e-06	2.579846e-06	6.368022e-10	1.795643e+01	4.445327e+01
2.430000e-06	2.620652e-06	6.503207e-10	1.824045e+01	4.533685e+01
2.440000e-06	2.661208e-06	6.608298e-10	1.852273e+01	4.618705e+01
2.450000e-06	2.701536e-06	6.687505e-10	1.880342e+01	4.700468e+01
2.460000e-06	2.741695e-06	6.767491e-10	1.908294e+01	4.779060e+01
2.470000e-06	2.781721e-06	6.849791e-10	1.936154e+01	4.854567e+01
2.480000e-06	2.821630e-06	6.928369e-10	1.963931e+01	4.927077e+01
2.490000e-06	2.861405e-06	7.016506e-10	1.991616e+01	4.996678e+01
2.500000e-06	2.901092e-06	7.116408e-10	2.019239e+01	5.063456e+01
2.510000e-06	2.940679e-06	7.218272e-10	2.046792e+01	5.127494e+01
2.520000e-06	2.980049e-06	7.318799e-10	2.074195e+01	5.188873e+01
2.530000e-06	3.019193e-06	7.409252e-10	2.101440e+01	5.247671e+01
2.540000e-06	3.058179e-06	7.471199e-10	2.128576e+01	5.303959e+01
2.550000e-06	3.096988e-06	7.507494e-10	2.155588e+01	5.357806e+01
2.560000e-06	3.135549e-06	7.541360e-10	2.182427e+01	5.409274e+01
2.570000e-06	3.173849e-06	7.591755e-10	2.209085e+01	5.458423e+01
2.580000e-06	3.211928e-06	7.657137e-10	2.235589e+01	5.505308e+01
2.590000e-06	3.249765e-06	7.744507e-10	2.261925e+01	5.549979e+01
2.600000e-06	3.287355e-06	7.830548e-10	2.288088e+01	5.592485e+01
2.610000e-06	3.324799e-06	7.869868e-10	2.314150e+01	5.632871e+01
2.620000e-06	3.362074e-06	7.890956e-10	2.340095e+01	5.671180e+01
2.630000e-06	3.399049e-06	7.930777e-10	2.365830e+01	5.707456e+01
2.640000e-06	3.435739e-06	7.975877e-10	2.391368e+01	5.741742e+01
2.650000e-06	3.472198e-06	8.029258e-10	2.416745e+01	5.774081e+01
2.660000e-06	3.508423e-06	8.092479e-10	2.441958e+01	5.804519e+01
2.670000e-06	3.544461e-06	8.141387e-10	2.467041e+01	5.833104e+01
2.680000e-06	3.580339e-06	8.185639e-10	2.492013e+01	5.859886e+01
2.690000e-06	3.616057e-06	8.222105e-10	2.516874e+01	5.884920e+01
2.700000e-06	3.651619e-06	8.243781e-10	2.541626e+01	5.908264e+01
2.710000e-06	3.687006e-06	8.271769e-10	2.566256e+01	5.929982e+01
2.720000e-06	3.722102e-06	8.317142e-10	2.590685e+01	5.950140e+01
2.730000e-06	3.756924e-06	8.374342e-10	2.614921e+01	5.968812e+01
2.740000e-06	3.791397e-06	8.429892e-10	2.638916e+01	5.986072e+01
2.750000e-06	3.825379e-06	8.476815e-10	2.662568e+01	6.002000e+01
2.760000e-06	3.858902e-06	8.485793e-10	2.685901e+01	6.016681e+01
2.770000e-06	3.891939e-06	8.467584e-10	2.708896e+01	6.030200e+01
2.780000e-06	3.924542e-06	8.461901e-10	2.731588e+01	6.042645e+01
2.790000e-06	3.956853e-06	8.498674e-10	2.754077e+01	6.054106e+01
2.800000e-06	3.988932e-06	8.574380e-10	2.776405e+01	6.064672e+01
2.810000e-06	4.020830e-06	8.647726e-10	2.798607e+01	6.074430e+01
2.820000e-06	4.052614e-06	8.684105e-10	2.820729e+01	6.083467e+01
2.830000e-06	4.084245e-06	8.688084e-10	2.842746e+01	6.091866e+01
2.840000e-06	4.115597e-06	8.678628e-10	2.864567e+01	6.099706e+01
2.850000e-06	4.146642e-06	8.662875e-10	2.886175e+01	6.107059e+01
2.860000e-06	4.177334e-06	8.648053e-10	2.907538e+01	6.113994e+01
2.870000e-06	4.207669e-06	8.660226e-10	2.928652e+01	6.120568e+01
2.880000e-06	4.237788e-06	8.701611e-10	2.949615e+01	6.126836e+01
2.890000e-06	4.267606e-06	8.744341e-10	2.970370e+01	6.132840e+01
2.900000e-06	4.297101e-06	8.763326e-10	2.990899e+01	6.138615e+01
