# Temperatura_=_6.63
# Concentracion g/m^3_=_1620.0
# C_Vs_to_Am_M_A/Vsm_=_65563218390.804596
# pendiente_HvsI_1/m_=_3716.3
# ordenada_HvsI_A/m_=_1297.0
# frecuencia_Hz_=_135098.9279555261

Tiempo_(s)	Campo_(V.s)	Magnetizacion_(V.s)	Campo_(kA/m)	Magnetizacion_(A/m)
0.000000e+00	-5.524837e-06	-1.525795e-09	-3.837499e+01	-9.903517e+01
1.000000e-08	-5.525163e-06	-1.520968e-09	-3.837725e+01	-9.897409e+01
2.000000e-08	-5.525241e-06	-1.515999e-09	-3.837780e+01	-9.891295e+01
3.000000e-08	-5.524964e-06	-1.513858e-09	-3.837588e+01	-9.885215e+01
4.000000e-08	-5.524282e-06	-1.514984e-09	-3.837114e+01	-9.879208e+01
5.000000e-08	-5.523033e-06	-1.515513e-09	-3.836246e+01	-9.873308e+01
6.000000e-08	-5.521169e-06	-1.510036e-09	-3.834951e+01	-9.867545e+01
7.000000e-08	-5.518684e-06	-1.509778e-09	-3.833226e+01	-9.861944e+01
8.000000e-08	-5.515620e-06	-1.537788e-09	-3.831097e+01	-9.856525e+01
9.000000e-08	-5.512078e-06	-1.565104e-09	-3.828637e+01	-9.851300e+01
1.000000e-07	-5.508151e-06	-1.518895e-09	-3.825909e+01	-9.846273e+01
1.100000e-07	-5.503920e-06	-1.458920e-09	-3.822970e+01	-9.841443e+01
1.200000e-07	-5.499476e-06	-1.475408e-09	-3.819884e+01	-9.836796e+01
1.300000e-07	-5.494703e-06	-1.546822e-09	-3.816568e+01	-9.832315e+01
1.400000e-07	-5.489460e-06	-1.515833e-09	-3.812927e+01	-9.827970e+01
1.500000e-07	-5.483877e-06	-1.476890e-09	-3.809049e+01	-9.823726e+01
1.600000e-07	-5.478016e-06	-1.494073e-09	-3.804978e+01	-9.819538e+01
1.700000e-07	-5.471808e-06	-1.556046e-09	-3.800666e+01	-9.815356e+01
1.800000e-07	-5.465106e-06	-1.522971e-09	-3.796010e+01	-9.811122e+01
1.900000e-07	-5.458027e-06	-1.451804e-09	-3.791093e+01	-9.806772e+01
2.000000e-07	-5.450745e-06	-1.465632e-09	-3.786035e+01	-9.802238e+01
2.100000e-07	-5.443123e-06	-1.519788e-09	-3.780742e+01	-9.797449e+01
2.200000e-07	-5.435223e-06	-1.548449e-09	-3.775254e+01	-9.792332e+01
2.300000e-07	-5.427092e-06	-1.507178e-09	-3.769607e+01	-9.786812e+01
2.400000e-07	-5.418513e-06	-1.499712e-09	-3.763647e+01	-9.780814e+01
2.500000e-07	-5.409268e-06	-1.498251e-09	-3.757226e+01	-9.774267e+01
2.600000e-07	-5.399336e-06	-1.511105e-09	-3.750328e+01	-9.767100e+01
2.700000e-07	-5.388851e-06	-1.483727e-09	-3.743045e+01	-9.759251e+01
2.800000e-07	-5.377901e-06	-1.489486e-09	-3.735439e+01	-9.750659e+01
2.900000e-07	-5.366529e-06	-1.487403e-09	-3.727540e+01	-9.741273e+01
3.000000e-07	-5.354803e-06	-1.488975e-09	-3.719395e+01	-9.731048e+01
3.100000e-07	-5.342692e-06	-1.460239e-09	-3.710983e+01	-9.719950e+01
3.200000e-07	-5.330081e-06	-1.463564e-09	-3.702223e+01	-9.707954e+01
3.300000e-07	-5.317021e-06	-1.475960e-09	-3.693152e+01	-9.695045e+01
3.400000e-07	-5.303656e-06	-1.481564e-09	-3.683869e+01	-9.681217e+01
3.500000e-07	-5.289871e-06	-1.454313e-09	-3.674294e+01	-9.666479e+01
3.600000e-07	-5.275610e-06	-1.457933e-09	-3.664388e+01	-9.650848e+01
3.700000e-07	-5.260905e-06	-1.478032e-09	-3.654175e+01	-9.634351e+01
3.800000e-07	-5.245603e-06	-1.454138e-09	-3.643546e+01	-9.617028e+01
3.900000e-07	-5.229733e-06	-1.428662e-09	-3.632523e+01	-9.598928e+01
4.000000e-07	-5.213529e-06	-1.459803e-09	-3.621268e+01	-9.580106e+01
4.100000e-07	-5.196989e-06	-1.468096e-09	-3.609779e+01	-9.560630e+01
4.200000e-07	-5.179971e-06	-1.413010e-09	-3.597959e+01	-9.540571e+01
4.300000e-07	-5.162660e-06	-1.426366e-09	-3.585934e+01	-9.520006e+01
4.400000e-07	-5.145146e-06	-1.468106e-09	-3.573769e+01	-9.499020e+01
4.500000e-07	-5.127263e-06	-1.426378e-09	-3.561348e+01	-9.477696e+01
4.600000e-07	-5.108896e-06	-1.379863e-09	-3.548591e+01	-9.456121e+01
4.700000e-07	-5.090070e-06	-1.448460e-09	-3.535514e+01	-9.434383e+01
4.800000e-07	-5.070911e-06	-1.450286e-09	-3.522207e+01	-9.412567e+01
4.900000e-07	-5.051486e-06	-1.387237e-09	-3.508714e+01	-9.390754e+01
5.000000e-07	-5.031863e-06	-1.399246e-09	-3.495084e+01	-9.369023e+01
5.100000e-07	-5.012080e-06	-1.439946e-09	-3.481343e+01	-9.347446e+01
5.200000e-07	-4.991991e-06	-1.377776e-09	-3.467389e+01	-9.326089e+01
5.300000e-07	-4.971498e-06	-1.378528e-09	-3.453155e+01	-9.305009e+01
5.400000e-07	-4.950673e-06	-1.434604e-09	-3.438691e+01	-9.284255e+01
5.500000e-07	-4.929436e-06	-1.404275e-09	-3.423939e+01	-9.263867e+01
5.600000e-07	-4.907833e-06	-1.351580e-09	-3.408934e+01	-9.243872e+01
5.700000e-07	-4.885966e-06	-1.405702e-09	-3.393745e+01	-9.224291e+01
5.800000e-07	-4.863772e-06	-1.406482e-09	-3.378330e+01	-9.205131e+01
5.900000e-07	-4.841208e-06	-1.350065e-09	-3.362657e+01	-9.186389e+01
6.000000e-07	-4.818247e-06	-1.368774e-09	-3.346708e+01	-9.168054e+01
6.100000e-07	-4.795034e-06	-1.400474e-09	-3.330585e+01	-9.150100e+01
6.200000e-07	-4.771570e-06	-1.351523e-09	-3.314287e+01	-9.132498e+01
6.300000e-07	-4.747813e-06	-1.343615e-09	-3.297786e+01	-9.115204e+01
6.400000e-07	-4.723833e-06	-1.378068e-09	-3.281130e+01	-9.098172e+01
6.500000e-07	-4.699596e-06	-1.354680e-09	-3.264295e+01	-9.081344e+01
6.600000e-07	-4.674929e-06	-1.332404e-09	-3.247161e+01	-9.064660e+01
6.700000e-07	-4.649769e-06	-1.361056e-09	-3.229686e+01	-9.048053e+01
6.800000e-07	-4.624060e-06	-1.357913e-09	-3.211828e+01	-9.031456e+01
6.900000e-07	-4.597647e-06	-1.327144e-09	-3.193482e+01	-9.014796e+01
7.000000e-07	-4.570716e-06	-1.338290e-09	-3.174776e+01	-8.998003e+01
7.100000e-07	-4.543552e-06	-1.341084e-09	-3.155908e+01	-8.981004e+01
7.200000e-07	-4.516195e-06	-1.318849e-09	-3.136906e+01	-8.963730e+01
7.300000e-07	-4.488626e-06	-1.318901e-09	-3.117757e+01	-8.946114e+01
7.400000e-07	-4.460853e-06	-1.335327e-09	-3.098466e+01	-8.928094e+01
7.500000e-07	-4.432841e-06	-1.322744e-09	-3.079009e+01	-8.909612e+01
7.600000e-07	-4.404450e-06	-1.317893e-09	-3.059289e+01	-8.890614e+01
7.700000e-07	-4.375766e-06	-1.320659e-09	-3.039365e+01	-8.871056e+01
7.800000e-07	-4.346890e-06	-1.312943e-09	-3.019308e+01	-8.850898e+01
7.900000e-07	-4.317643e-06	-1.298544e-09	-2.998994e+01	-8.830108e+01
8.000000e-07	-4.288063e-06	-1.302643e-09	-2.978448e+01	-8.808662e+01
8.100000e-07	-4.258237e-06	-1.294624e-09	-2.957731e+01	-8.786543e+01
8.200000e-07	-4.228069e-06	-1.285027e-09	-2.936776e+01	-8.763742e+01
8.300000e-07	-4.197568e-06	-1.285292e-09	-2.915591e+01	-8.740257e+01
8.400000e-07	-4.166793e-06	-1.288804e-09	-2.894215e+01	-8.716092e+01
8.500000e-07	-4.135741e-06	-1.279405e-09	-2.872646e+01	-8.691260e+01
8.600000e-07	-4.104475e-06	-1.279385e-09	-2.850929e+01	-8.665777e+01
8.700000e-07	-4.073044e-06	-1.276984e-09	-2.829098e+01	-8.639667e+01
8.800000e-07	-4.041450e-06	-1.261088e-09	-2.807153e+01	-8.612955e+01
8.900000e-07	-4.009673e-06	-1.248092e-09	-2.785080e+01	-8.585674e+01
9.000000e-07	-3.977654e-06	-1.248871e-09	-2.762841e+01	-8.557855e+01
9.100000e-07	-3.945365e-06	-1.243662e-09	-2.740413e+01	-8.529536e+01
9.200000e-07	-3.912810e-06	-1.239547e-09	-2.717801e+01	-8.500752e+01
9.300000e-07	-3.879790e-06	-1.243021e-09	-2.694865e+01	-8.471541e+01
9.400000e-07	-3.846212e-06	-1.242144e-09	-2.671542e+01	-8.441938e+01
9.500000e-07	-3.812219e-06	-1.231316e-09	-2.647931e+01	-8.411978e+01
9.600000e-07	-3.777810e-06	-1.226098e-09	-2.624031e+01	-8.381695e+01
9.700000e-07	-3.743005e-06	-1.220128e-09	-2.599855e+01	-8.351118e+01
9.800000e-07	-3.707901e-06	-1.205652e-09	-2.575473e+01	-8.320275e+01
9.900000e-07	-3.672528e-06	-1.198323e-09	-2.550903e+01	-8.289189e+01
1.000000e-06	-3.637007e-06	-1.197592e-09	-2.526230e+01	-8.257879e+01
1.010000e-06	-3.601406e-06	-1.194369e-09	-2.501502e+01	-8.226361e+01
1.020000e-06	-3.565633e-06	-1.187620e-09	-2.476655e+01	-8.194645e+01
1.030000e-06	-3.529661e-06	-1.186207e-09	-2.451669e+01	-8.162737e+01
1.040000e-06	-3.493534e-06	-1.177862e-09	-2.426575e+01	-8.130640e+01
1.050000e-06	-3.457130e-06	-1.165131e-09	-2.401289e+01	-8.098351e+01
1.060000e-06	-3.420455e-06	-1.157872e-09	-2.375815e+01	-8.065863e+01
1.070000e-06	-3.383532e-06	-1.157772e-09	-2.350169e+01	-8.033167e+01
1.080000e-06	-3.346251e-06	-1.152268e-09	-2.324274e+01	-8.000249e+01
1.090000e-06	-3.308692e-06	-1.151077e-09	-2.298186e+01	-7.967092e+01
1.100000e-06	-3.270867e-06	-1.150883e-09	-2.271913e+01	-7.933677e+01
1.110000e-06	-3.232803e-06	-1.143853e-09	-2.245474e+01	-7.899983e+01
1.120000e-06	-3.194575e-06	-1.128234e-09	-2.218922e+01	-7.865987e+01
1.130000e-06	-3.156137e-06	-1.118972e-09	-2.192223e+01	-7.831664e+01
1.140000e-06	-3.117445e-06	-1.110614e-09	-2.165348e+01	-7.796990e+01
1.150000e-06	-3.078617e-06	-1.105817e-09	-2.138378e+01	-7.761940e+01
1.160000e-06	-3.039669e-06	-1.108618e-09	-2.111325e+01	-7.726489e+01
1.170000e-06	-3.000463e-06	-1.113900e-09	-2.084093e+01	-7.690612e+01
1.180000e-06	-2.961032e-06	-1.111094e-09	-2.056704e+01	-7.654285e+01
1.190000e-06	-2.921445e-06	-1.106236e-09	-2.029208e+01	-7.617487e+01
1.200000e-06	-2.881720e-06	-1.100092e-09	-2.001615e+01	-7.580196e+01
1.210000e-06	-2.841927e-06	-1.090160e-09	-1.973976e+01	-7.542391e+01
1.220000e-06	-2.802045e-06	-1.080520e-09	-1.946274e+01	-7.504055e+01
1.230000e-06	-2.762053e-06	-1.076828e-09	-1.918496e+01	-7.465171e+01
1.240000e-06	-2.721844e-06	-1.075243e-09	-1.890567e+01	-7.425723e+01
1.250000e-06	-2.681355e-06	-1.073328e-09	-1.862444e+01	-7.385699e+01
1.260000e-06	-2.640708e-06	-1.072671e-09	-1.834210e+01	-7.345084e+01
1.270000e-06	-2.599837e-06	-1.067821e-09	-1.805822e+01	-7.303869e+01
1.280000e-06	-2.558621e-06	-1.055992e-09	-1.777194e+01	-7.262042e+01
1.290000e-06	-2.517031e-06	-1.042074e-09	-1.748306e+01	-7.219595e+01
1.300000e-06	-2.474996e-06	-1.031461e-09	-1.719108e+01	-7.176516e+01
1.310000e-06	-2.432649e-06	-1.023027e-09	-1.689695e+01	-7.132798e+01
1.320000e-06	-2.390065e-06	-1.016405e-09	-1.660117e+01	-7.088431e+01
1.330000e-06	-2.347176e-06	-1.012282e-09	-1.630326e+01	-7.043404e+01
1.340000e-06	-2.304036e-06	-1.007329e-09	-1.600362e+01	-6.997706e+01
1.350000e-06	-2.260749e-06	-1.000070e-09	-1.570295e+01	-6.951325e+01
1.360000e-06	-2.217359e-06	-9.949437e-10	-1.540156e+01	-6.904249e+01
1.370000e-06	-2.173822e-06	-9.884453e-10	-1.509916e+01	-6.856460e+01
1.380000e-06	-2.130171e-06	-9.787488e-10	-1.479597e+01	-6.807942e+01
1.390000e-06	-2.086490e-06	-9.667330e-10	-1.449256e+01	-6.758675e+01
1.400000e-06	-2.042798e-06	-9.573415e-10	-1.418908e+01	-6.708636e+01
1.410000e-06	-1.998977e-06	-9.483559e-10	-1.388470e+01	-6.657801e+01
1.420000e-06	-1.955063e-06	-9.413968e-10	-1.357968e+01	-6.606142e+01
1.430000e-06	-1.911131e-06	-9.337895e-10	-1.327453e+01	-6.553628e+01
1.440000e-06	-1.867088e-06	-9.264701e-10	-1.296862e+01	-6.500224e+01
1.450000e-06	-1.822951e-06	-9.169568e-10	-1.266204e+01	-6.445895e+01
1.460000e-06	-1.778717e-06	-9.084390e-10	-1.235480e+01	-6.390598e+01
1.470000e-06	-1.734308e-06	-8.980946e-10	-1.204634e+01	-6.334289e+01
1.480000e-06	-1.689754e-06	-8.869007e-10	-1.173687e+01	-6.276922e+01
1.490000e-06	-1.645068e-06	-8.754324e-10	-1.142648e+01	-6.218445e+01
1.500000e-06	-1.600242e-06	-8.625148e-10	-1.111513e+01	-6.158804e+01
1.510000e-06	-1.555252e-06	-8.484262e-10	-1.080263e+01	-6.097939e+01
1.520000e-06	-1.510076e-06	-8.384077e-10	-1.048885e+01	-6.035791e+01
1.530000e-06	-1.464833e-06	-8.296560e-10	-1.017459e+01	-5.972292e+01
1.540000e-06	-1.419494e-06	-8.193674e-10	-9.859668e+00	-5.907375e+01
1.550000e-06	-1.374005e-06	-8.103918e-10	-9.543707e+00	-5.840967e+01
1.560000e-06	-1.328443e-06	-8.017877e-10	-9.227241e+00	-5.772993e+01
1.570000e-06	-1.282800e-06	-7.935060e-10	-8.910207e+00	-5.703372e+01
1.580000e-06	-1.237116e-06	-7.831309e-10	-8.592891e+00	-5.632023e+01
1.590000e-06	-1.191419e-06	-7.686718e-10	-8.275481e+00	-5.558860e+01
1.600000e-06	-1.145621e-06	-7.533616e-10	-7.957374e+00	-5.483793e+01
1.610000e-06	-1.099648e-06	-7.421341e-10	-7.638051e+00	-5.406732e+01
1.620000e-06	-1.053591e-06	-7.315387e-10	-7.318143e+00	-5.327581e+01
1.630000e-06	-1.007473e-06	-7.204661e-10	-6.997808e+00	-5.246243e+01
1.640000e-06	-9.613924e-07	-7.098161e-10	-6.677740e+00	-5.162619e+01
1.650000e-06	-9.153650e-07	-6.978876e-10	-6.358038e+00	-5.076608e+01
1.660000e-06	-8.691881e-07	-6.823062e-10	-6.037298e+00	-4.988107e+01
1.670000e-06	-8.228694e-07	-6.641545e-10	-5.715572e+00	-4.897013e+01
1.680000e-06	-7.765130e-07	-6.469397e-10	-5.393585e+00	-4.803220e+01
1.690000e-06	-7.302078e-07	-6.308081e-10	-5.071954e+00	-4.706625e+01
1.700000e-06	-6.838438e-07	-6.141508e-10	-4.749914e+00	-4.607124e+01
1.710000e-06	-6.373518e-07	-5.998033e-10	-4.426985e+00	-4.504613e+01
1.720000e-06	-5.907861e-07	-5.867838e-10	-4.103544e+00	-4.398994e+01
1.730000e-06	-5.441852e-07	-5.718460e-10	-3.779859e+00	-4.290168e+01
1.740000e-06	-4.975307e-07	-5.520858e-10	-3.455801e+00	-4.178042e+01
1.750000e-06	-4.507433e-07	-5.314966e-10	-3.130820e+00	-4.062525e+01
1.760000e-06	-4.038683e-07	-5.095627e-10	-2.805230e+00	-3.943534e+01
1.770000e-06	-3.570160e-07	-4.877157e-10	-2.479799e+00	-3.820992e+01
1.780000e-06	-3.101165e-07	-4.686575e-10	-2.154040e+00	-3.694827e+01
1.790000e-06	-2.631316e-07	-4.536619e-10	-1.827687e+00	-3.564979e+01
1.800000e-06	-2.161252e-07	-4.406226e-10	-1.501185e+00	-3.431395e+01
1.810000e-06	-1.692139e-07	-4.261527e-10	-1.175344e+00	-3.294032e+01
1.820000e-06	-1.224169e-07	-4.068171e-10	-8.502964e-01	-3.152859e+01
1.830000e-06	-7.560062e-08	-3.818515e-10	-5.251147e-01	-3.007857e+01
1.840000e-06	-2.874818e-08	-3.548535e-10	-1.996821e-01	-2.859019e+01
1.850000e-06	1.814562e-08	-3.302384e-10	1.260377e-01	-2.706353e+01
1.860000e-06	6.508406e-08	-3.101223e-10	4.520677e-01	-2.549879e+01
1.870000e-06	1.119545e-07	-2.921764e-10	7.776252e-01	-2.389634e+01
1.880000e-06	1.587495e-07	-2.724904e-10	1.102659e+00	-2.225669e+01
1.890000e-06	2.055710e-07	-2.486838e-10	1.427877e+00	-2.058051e+01
1.900000e-06	2.524330e-07	-2.204611e-10	1.753375e+00	-1.886862e+01
1.910000e-06	2.992726e-07	-1.900202e-10	2.078719e+00	-1.712202e+01
1.920000e-06	3.461100e-07	-1.600620e-10	2.404047e+00	-1.534184e+01
1.930000e-06	3.929074e-07	-1.312159e-10	2.729097e+00	-1.352939e+01
1.940000e-06	4.396652e-07	-1.067266e-10	3.053872e+00	-1.168613e+01
1.950000e-06	4.863875e-07	-8.450997e-11	3.378401e+00	-9.813650e+00
1.960000e-06	5.330871e-07	-6.158782e-11	3.702772e+00	-7.913712e+00
1.970000e-06	5.798052e-07	-3.662701e-11	4.027272e+00	-5.988198e+00
1.980000e-06	6.263792e-07	-9.523625e-12	4.350771e+00	-4.039128e+00
1.990000e-06	6.728305e-07	1.949593e-11	4.673417e+00	-2.068635e+00
2.000000e-06	7.192213e-07	5.188415e-11	4.995642e+00	-7.896626e-02
2.010000e-06	7.655618e-07	8.608521e-11	5.317519e+00	1.927535e+00
2.020000e-06	8.118505e-07	1.165288e-10	5.639036e+00	3.948438e+00
2.030000e-06	8.580943e-07	1.438516e-10	5.960241e+00	5.981240e+00
2.040000e-06	9.043372e-07	1.701622e-10	6.281440e+00	8.023378e+00
2.050000e-06	9.505242e-07	1.956404e-10	6.602251e+00	1.007224e+01
2.060000e-06	9.966122e-07	2.226677e-10	6.922374e+00	1.212519e+01
2.070000e-06	1.042569e-06	2.527388e-10	7.241588e+00	1.417957e+01
2.080000e-06	1.088398e-06	2.845919e-10	7.559906e+00	1.623271e+01
2.090000e-06	1.134223e-06	3.152600e-10	7.878203e+00	1.828196e+01
2.100000e-06	1.180022e-06	3.443324e-10	8.196320e+00	2.032469e+01
2.110000e-06	1.225697e-06	3.734643e-10	8.513572e+00	2.235832e+01
2.120000e-06	1.271305e-06	4.018332e-10	8.830362e+00	2.438031e+01
2.130000e-06	1.316854e-06	4.303651e-10	9.146741e+00	2.638817e+01
2.140000e-06	1.362265e-06	4.589982e-10	9.462164e+00	2.837952e+01
2.150000e-06	1.407595e-06	4.852340e-10	9.777020e+00	3.035203e+01
2.160000e-06	1.452911e-06	5.101984e-10	1.009178e+01	3.230349e+01
2.170000e-06	1.498193e-06	5.359580e-10	1.040631e+01	3.423179e+01
2.180000e-06	1.543280e-06	5.618747e-10	1.071948e+01	3.613491e+01
2.190000e-06	1.588169e-06	5.880328e-10	1.103127e+01	3.801099e+01
2.200000e-06	1.632941e-06	6.148331e-10	1.134225e+01	3.985826e+01
2.210000e-06	1.677523e-06	6.413911e-10	1.165192e+01	4.167511e+01
2.220000e-06	1.721924e-06	6.674334e-10	1.196032e+01	4.346004e+01
2.230000e-06	1.766256e-06	6.928846e-10	1.226825e+01	4.521170e+01
2.240000e-06	1.810540e-06	7.157325e-10	1.257584e+01	4.692889e+01
2.250000e-06	1.854709e-06	7.363594e-10	1.288263e+01	4.861054e+01
2.260000e-06	1.898807e-06	7.577772e-10	1.318893e+01	5.025571e+01
2.270000e-06	1.942801e-06	7.781580e-10	1.349451e+01	5.186362e+01
2.280000e-06	1.986637e-06	7.977881e-10	1.379899e+01	5.343363e+01
2.290000e-06	2.030365e-06	8.188144e-10	1.410272e+01	5.496521e+01
2.300000e-06	2.074013e-06	8.380458e-10	1.440590e+01	5.645800e+01
2.310000e-06	2.117585e-06	8.575915e-10	1.470854e+01	5.791174e+01
2.320000e-06	2.161124e-06	8.772289e-10	1.501096e+01	5.932631e+01
2.330000e-06	2.204571e-06	8.948741e-10	1.531274e+01	6.070171e+01
2.340000e-06	2.247915e-06	9.122202e-10	1.561380e+01	6.203804e+01
2.350000e-06	2.291171e-06	9.313675e-10	1.591425e+01	6.333552e+01
2.360000e-06	2.334247e-06	9.520539e-10	1.621346e+01	6.459447e+01
2.370000e-06	2.377080e-06	9.712286e-10	1.651097e+01	6.581530e+01
2.380000e-06	2.419690e-06	9.890594e-10	1.680694e+01	6.699853e+01
2.390000e-06	2.462050e-06	1.003543e-09	1.710117e+01	6.814471e+01
2.400000e-06	2.504064e-06	1.016276e-09	1.739299e+01	6.925452e+01
2.410000e-06	2.545761e-06	1.027674e-09	1.768262e+01	7.032866e+01
2.420000e-06	2.587226e-06	1.040894e-09	1.797063e+01	7.136791e+01
2.430000e-06	2.628445e-06	1.055434e-09	1.825693e+01	7.237310e+01
2.440000e-06	2.669321e-06	1.068984e-09	1.854085e+01	7.334509e+01
2.450000e-06	2.709843e-06	1.083694e-09	1.882231e+01	7.428478e+01
2.460000e-06	2.750127e-06	1.097099e-09	1.910212e+01	7.519308e+01
2.470000e-06	2.790200e-06	1.107080e-09	1.938047e+01	7.607095e+01
2.480000e-06	2.830108e-06	1.113604e-09	1.965766e+01	7.691933e+01
2.490000e-06	2.869899e-06	1.118339e-09	1.993405e+01	7.773919e+01
2.500000e-06	2.909540e-06	1.127155e-09	2.020939e+01	7.853147e+01
2.510000e-06	2.949000e-06	1.138694e-09	2.048347e+01	7.929713e+01
2.520000e-06	2.988324e-06	1.151899e-09	2.075662e+01	8.003709e+01
2.530000e-06	3.027483e-06	1.163625e-09	2.102861e+01	8.075227e+01
2.540000e-06	3.066396e-06	1.173871e-09	2.129889e+01	8.144356e+01
2.550000e-06	3.105148e-06	1.182734e-09	2.156806e+01	8.211182e+01
2.560000e-06	3.143690e-06	1.187858e-09	2.183577e+01	8.275789e+01
2.570000e-06	3.181921e-06	1.193611e-09	2.210132e+01	8.338256e+01
2.580000e-06	3.219946e-06	1.200553e-09	2.236544e+01	8.398660e+01
2.590000e-06	3.257780e-06	1.208587e-09	2.262823e+01	8.457073e+01
2.600000e-06	3.295361e-06	1.218109e-09	2.288926e+01	8.513565e+01
2.610000e-06	3.332769e-06	1.227957e-09	2.314910e+01	8.568199e+01
2.620000e-06	3.369998e-06	1.238728e-09	2.340768e+01	8.621039e+01
2.630000e-06	3.407016e-06	1.249033e-09	2.366481e+01	8.672141e+01
2.640000e-06	3.443760e-06	1.257331e-09	2.392003e+01	8.721561e+01
2.650000e-06	3.480191e-06	1.264820e-09	2.417307e+01	8.769350e+01
2.660000e-06	3.516422e-06	1.269639e-09	2.442473e+01	8.815556e+01
2.670000e-06	3.552453e-06	1.274600e-09	2.467500e+01	8.860226e+01
2.680000e-06	3.588281e-06	1.278945e-09	2.492386e+01	8.903404e+01
2.690000e-06	3.624034e-06	1.284140e-09	2.517219e+01	8.945131e+01
2.700000e-06	3.659657e-06	1.289578e-09	2.541963e+01	8.985448e+01
2.710000e-06	3.695089e-06	1.296054e-09	2.566574e+01	9.024396e+01
2.720000e-06	3.730360e-06	1.303927e-09	2.591073e+01	9.062012e+01
2.730000e-06	3.765366e-06	1.311856e-09	2.615388e+01	9.098336e+01
2.740000e-06	3.799946e-06	1.319205e-09	2.639406e+01	9.133407e+01
2.750000e-06	3.834108e-06	1.325880e-09	2.663135e+01	9.167263e+01
2.760000e-06	3.867852e-06	1.328934e-09	2.686573e+01	9.199943e+01
2.770000e-06	3.901169e-06	1.330020e-09	2.709715e+01	9.231490e+01
2.780000e-06	3.934080e-06	1.332343e-09	2.732574e+01	9.261943e+01
2.790000e-06	3.966533e-06	1.338534e-09	2.755116e+01	9.291346e+01
2.800000e-06	3.998622e-06	1.346910e-09	2.777405e+01	9.319741e+01
2.810000e-06	4.030478e-06	1.353783e-09	2.799532e+01	9.347175e+01
2.820000e-06	4.062177e-06	1.360086e-09	2.821550e+01	9.373691e+01
2.830000e-06	4.093741e-06	1.366338e-09	2.843474e+01	9.399338e+01
2.840000e-06	4.125093e-06	1.372817e-09	2.865250e+01	9.424161e+01
2.850000e-06	4.156183e-06	1.375523e-09	2.886845e+01	9.448208e+01
2.860000e-06	4.186970e-06	1.374390e-09	2.908230e+01	9.471527e+01
2.870000e-06	4.217418e-06	1.373618e-09	2.929378e+01	9.494163e+01
2.880000e-06	4.247569e-06	1.376502e-09	2.950321e+01	9.516163e+01
2.890000e-06	4.277339e-06	1.380629e-09	2.970999e+01	9.537571e+01
2.900000e-06	4.306766e-06	1.385647e-09	2.991439e+01	9.558429e+01
