# Temperatura_=_-11.01
# Concentracion g/m^3_=_1620.0
# C_Vs_to_Am_M_A/Vsm_=_65563218390.804596
# pendiente_HvsI_1/m_=_3716.3
# ordenada_HvsI_A/m_=_1297.0
# frecuencia_Hz_=_135105.8754294422

Tiempo_(s)	Campo_(V.s)	Magnetizacion_(V.s)	Campo_(kA/m)	Magnetizacion_(A/m)
0.000000e+00	-5.532212e-06	-1.127087e-09	-3.836226e+01	-7.352457e+01
1.000000e-08	-5.532474e-06	-1.124062e-09	-3.836408e+01	-7.348637e+01
2.000000e-08	-5.532522e-06	-1.122924e-09	-3.836441e+01	-7.345062e+01
3.000000e-08	-5.532294e-06	-1.123957e-09	-3.836283e+01	-7.341720e+01
4.000000e-08	-5.531608e-06	-1.127310e-09	-3.835807e+01	-7.338590e+01
5.000000e-08	-5.530309e-06	-1.129653e-09	-3.834907e+01	-7.335644e+01
6.000000e-08	-5.528435e-06	-1.123779e-09	-3.833607e+01	-7.332849e+01
7.000000e-08	-5.525999e-06	-1.109954e-09	-3.831918e+01	-7.330166e+01
8.000000e-08	-5.523001e-06	-1.101850e-09	-3.829839e+01	-7.327549e+01
9.000000e-08	-5.519601e-06	-1.125375e-09	-3.827481e+01	-7.324948e+01
1.000000e-07	-5.515767e-06	-1.170227e-09	-3.824822e+01	-7.322309e+01
1.100000e-07	-5.511470e-06	-1.159467e-09	-3.821843e+01	-7.319575e+01
1.200000e-07	-5.506934e-06	-1.081874e-09	-3.818697e+01	-7.316687e+01
1.300000e-07	-5.502224e-06	-1.047453e-09	-3.815432e+01	-7.313583e+01
1.400000e-07	-5.497156e-06	-1.114844e-09	-3.811917e+01	-7.310204e+01
1.500000e-07	-5.491632e-06	-1.166780e-09	-3.808087e+01	-7.306490e+01
1.600000e-07	-5.485769e-06	-1.111905e-09	-3.804021e+01	-7.302385e+01
1.700000e-07	-5.479637e-06	-1.049268e-09	-3.799769e+01	-7.297833e+01
1.800000e-07	-5.473093e-06	-1.091188e-09	-3.795231e+01	-7.292787e+01
1.900000e-07	-5.466055e-06	-1.155093e-09	-3.790351e+01	-7.287201e+01
2.000000e-07	-5.458584e-06	-1.119107e-09	-3.785170e+01	-7.281039e+01
2.100000e-07	-5.450821e-06	-1.060478e-09	-3.779787e+01	-7.274270e+01
2.200000e-07	-5.442819e-06	-1.084352e-09	-3.774238e+01	-7.266870e+01
2.300000e-07	-5.434559e-06	-1.139753e-09	-3.768510e+01	-7.258824e+01
2.400000e-07	-5.425946e-06	-1.121501e-09	-3.762538e+01	-7.250125e+01
2.500000e-07	-5.416781e-06	-1.074005e-09	-3.756183e+01	-7.240774e+01
2.600000e-07	-5.406914e-06	-1.074652e-09	-3.749341e+01	-7.230783e+01
2.700000e-07	-5.396397e-06	-1.105368e-09	-3.742048e+01	-7.220169e+01
2.800000e-07	-5.385340e-06	-1.104074e-09	-3.734380e+01	-7.208958e+01
2.900000e-07	-5.373758e-06	-1.076362e-09	-3.726349e+01	-7.197185e+01
3.000000e-07	-5.361839e-06	-1.070951e-09	-3.718084e+01	-7.184890e+01
3.100000e-07	-5.349663e-06	-1.088208e-09	-3.709641e+01	-7.172121e+01
3.200000e-07	-5.337105e-06	-1.086186e-09	-3.700932e+01	-7.158929e+01
3.300000e-07	-5.324082e-06	-1.059325e-09	-3.691902e+01	-7.145372e+01
3.400000e-07	-5.310608e-06	-1.063584e-09	-3.682558e+01	-7.131510e+01
3.500000e-07	-5.296803e-06	-1.097763e-09	-3.672986e+01	-7.117405e+01
3.600000e-07	-5.282554e-06	-1.091270e-09	-3.663105e+01	-7.103122e+01
3.700000e-07	-5.267725e-06	-1.060653e-09	-3.652822e+01	-7.088725e+01
3.800000e-07	-5.252399e-06	-1.068413e-09	-3.642194e+01	-7.074278e+01
3.900000e-07	-5.236671e-06	-1.076613e-09	-3.631288e+01	-7.059843e+01
4.000000e-07	-5.220431e-06	-1.050855e-09	-3.620027e+01	-7.045479e+01
4.100000e-07	-5.203754e-06	-1.058593e-09	-3.608462e+01	-7.031244e+01
4.200000e-07	-5.186792e-06	-1.092281e-09	-3.596700e+01	-7.017190e+01
4.300000e-07	-5.169451e-06	-1.063247e-09	-3.584675e+01	-7.003363e+01
4.400000e-07	-5.151792e-06	-1.035799e-09	-3.572430e+01	-6.989806e+01
4.500000e-07	-5.133864e-06	-1.080623e-09	-3.559998e+01	-6.976557e+01
4.600000e-07	-5.115570e-06	-1.087548e-09	-3.547312e+01	-6.963644e+01
4.700000e-07	-5.096829e-06	-1.030668e-09	-3.534317e+01	-6.951094e+01
4.800000e-07	-5.077697e-06	-1.044901e-09	-3.521050e+01	-6.938925e+01
4.900000e-07	-5.058266e-06	-1.084176e-09	-3.507576e+01	-6.927149e+01
5.000000e-07	-5.038626e-06	-1.046285e-09	-3.493957e+01	-6.915773e+01
5.100000e-07	-5.018789e-06	-1.030392e-09	-3.480201e+01	-6.904800e+01
5.200000e-07	-4.998678e-06	-1.073108e-09	-3.466255e+01	-6.894223e+01
5.300000e-07	-4.978218e-06	-1.051052e-09	-3.452068e+01	-6.884037e+01
5.400000e-07	-4.957323e-06	-1.017425e-09	-3.437579e+01	-6.874227e+01
5.500000e-07	-4.936049e-06	-1.063506e-09	-3.422826e+01	-6.864778e+01
5.600000e-07	-4.914460e-06	-1.076000e-09	-3.407856e+01	-6.855670e+01
5.700000e-07	-4.892543e-06	-1.021918e-09	-3.392658e+01	-6.846882e+01
5.800000e-07	-4.870269e-06	-1.027587e-09	-3.377212e+01	-6.838390e+01
5.900000e-07	-4.847588e-06	-1.054679e-09	-3.361485e+01	-6.830168e+01
6.000000e-07	-4.824541e-06	-1.020448e-09	-3.345503e+01	-6.822192e+01
6.100000e-07	-4.801227e-06	-1.008209e-09	-3.329336e+01	-6.814433e+01
6.200000e-07	-4.777696e-06	-1.038492e-09	-3.313019e+01	-6.806867e+01
6.300000e-07	-4.753974e-06	-1.027966e-09	-3.296569e+01	-6.799467e+01
6.400000e-07	-4.730048e-06	-1.010807e-09	-3.279978e+01	-6.792207e+01
6.500000e-07	-4.705821e-06	-1.030673e-09	-3.263178e+01	-6.785063e+01
6.600000e-07	-4.681133e-06	-1.028567e-09	-3.246059e+01	-6.778010e+01
6.700000e-07	-4.655876e-06	-1.009606e-09	-3.228545e+01	-6.771027e+01
6.800000e-07	-4.630113e-06	-1.017988e-09	-3.210680e+01	-6.764090e+01
6.900000e-07	-4.603843e-06	-1.019181e-09	-3.192463e+01	-6.757180e+01
7.000000e-07	-4.577047e-06	-1.002250e-09	-3.173882e+01	-6.750277e+01
7.100000e-07	-4.549810e-06	-1.008959e-09	-3.154995e+01	-6.743361e+01
7.200000e-07	-4.522350e-06	-1.020960e-09	-3.135953e+01	-6.736414e+01
7.300000e-07	-4.494725e-06	-1.013864e-09	-3.116797e+01	-6.729418e+01
7.400000e-07	-4.466913e-06	-1.012774e-09	-3.097511e+01	-6.722355e+01
7.500000e-07	-4.438937e-06	-1.018449e-09	-3.078112e+01	-6.715208e+01
7.600000e-07	-4.410653e-06	-1.009631e-09	-3.058498e+01	-6.707959e+01
7.700000e-07	-4.381995e-06	-1.003531e-09	-3.038626e+01	-6.700590e+01
7.800000e-07	-4.353005e-06	-1.004602e-09	-3.018524e+01	-6.693083e+01
7.900000e-07	-4.323710e-06	-9.976813e-10	-2.998209e+01	-6.685421e+01
8.000000e-07	-4.294119e-06	-9.924146e-10	-2.977690e+01	-6.677585e+01
8.100000e-07	-4.264284e-06	-9.967223e-10	-2.957001e+01	-6.669557e+01
8.200000e-07	-4.234187e-06	-9.917483e-10	-2.936131e+01	-6.661318e+01
8.300000e-07	-4.203748e-06	-9.816257e-10	-2.915023e+01	-6.652850e+01
8.400000e-07	-4.173052e-06	-9.838703e-10	-2.893738e+01	-6.644136e+01
8.500000e-07	-4.142099e-06	-9.880975e-10	-2.872274e+01	-6.635157e+01
8.600000e-07	-4.110848e-06	-9.796588e-10	-2.850603e+01	-6.625898e+01
8.700000e-07	-4.079379e-06	-9.724515e-10	-2.828782e+01	-6.616345e+01
8.800000e-07	-4.047710e-06	-9.700672e-10	-2.806821e+01	-6.606483e+01
8.900000e-07	-4.015837e-06	-9.609555e-10	-2.784719e+01	-6.596301e+01
9.000000e-07	-3.983802e-06	-9.532676e-10	-2.762505e+01	-6.585792e+01
9.100000e-07	-3.951505e-06	-9.579017e-10	-2.740110e+01	-6.574947e+01
9.200000e-07	-3.918800e-06	-9.597168e-10	-2.717431e+01	-6.563765e+01
9.300000e-07	-3.885696e-06	-9.559533e-10	-2.694475e+01	-6.552245e+01
9.400000e-07	-3.852184e-06	-9.599400e-10	-2.671237e+01	-6.540392e+01
9.500000e-07	-3.818197e-06	-9.634626e-10	-2.647669e+01	-6.528211e+01
9.600000e-07	-3.783746e-06	-9.561432e-10	-2.623780e+01	-6.515714e+01
9.700000e-07	-3.748888e-06	-9.485629e-10	-2.599608e+01	-6.502915e+01
9.800000e-07	-3.713711e-06	-9.462909e-10	-2.575215e+01	-6.489832e+01
9.900000e-07	-3.678308e-06	-9.382000e-10	-2.550665e+01	-6.476486e+01
1.000000e-06	-3.642721e-06	-9.297824e-10	-2.525988e+01	-6.462902e+01
1.010000e-06	-3.606974e-06	-9.315711e-10	-2.501200e+01	-6.449106e+01
1.020000e-06	-3.571086e-06	-9.342833e-10	-2.476314e+01	-6.435128e+01
1.030000e-06	-3.535077e-06	-9.313550e-10	-2.451344e+01	-6.420997e+01
1.040000e-06	-3.498857e-06	-9.317028e-10	-2.426228e+01	-6.406746e+01
1.050000e-06	-3.462386e-06	-9.321796e-10	-2.400937e+01	-6.392407e+01
1.060000e-06	-3.425594e-06	-9.257165e-10	-2.375425e+01	-6.378012e+01
1.070000e-06	-3.388489e-06	-9.186059e-10	-2.349695e+01	-6.363589e+01
1.080000e-06	-3.351242e-06	-9.175151e-10	-2.323866e+01	-6.349170e+01
1.090000e-06	-3.313822e-06	-9.147033e-10	-2.297918e+01	-6.334778e+01
1.100000e-06	-3.276156e-06	-9.100353e-10	-2.271800e+01	-6.320437e+01
1.110000e-06	-3.238242e-06	-9.093269e-10	-2.245508e+01	-6.306165e+01
1.120000e-06	-3.200046e-06	-9.074489e-10	-2.219022e+01	-6.291976e+01
1.130000e-06	-3.161613e-06	-9.017405e-10	-2.192371e+01	-6.277879e+01
1.140000e-06	-3.122972e-06	-8.994070e-10	-2.165576e+01	-6.263876e+01
1.150000e-06	-3.084134e-06	-9.009928e-10	-2.138645e+01	-6.249963e+01
1.160000e-06	-3.045061e-06	-8.996695e-10	-2.111550e+01	-6.236132e+01
1.170000e-06	-3.005742e-06	-8.953317e-10	-2.084285e+01	-6.222365e+01
1.180000e-06	-2.966294e-06	-8.918180e-10	-2.056930e+01	-6.208641e+01
1.190000e-06	-2.926747e-06	-8.889280e-10	-2.029507e+01	-6.194929e+01
1.200000e-06	-2.887106e-06	-8.893052e-10	-2.002018e+01	-6.181195e+01
1.210000e-06	-2.847325e-06	-8.920100e-10	-1.974433e+01	-6.167398e+01
1.220000e-06	-2.807372e-06	-8.936230e-10	-1.946728e+01	-6.153490e+01
1.230000e-06	-2.767281e-06	-8.905226e-10	-1.918928e+01	-6.139421e+01
1.240000e-06	-2.727071e-06	-8.888878e-10	-1.891045e+01	-6.125136e+01
1.250000e-06	-2.686681e-06	-8.887259e-10	-1.863037e+01	-6.110576e+01
1.260000e-06	-2.646018e-06	-8.848341e-10	-1.834840e+01	-6.095680e+01
1.270000e-06	-2.604941e-06	-8.812246e-10	-1.806356e+01	-6.080386e+01
1.280000e-06	-2.563538e-06	-8.780967e-10	-1.777646e+01	-6.064630e+01
1.290000e-06	-2.521932e-06	-8.728314e-10	-1.748795e+01	-6.048350e+01
1.300000e-06	-2.480065e-06	-8.657347e-10	-1.719763e+01	-6.031485e+01
1.310000e-06	-2.437917e-06	-8.601428e-10	-1.690536e+01	-6.013973e+01
1.320000e-06	-2.395487e-06	-8.566548e-10	-1.661113e+01	-5.995759e+01
1.330000e-06	-2.352828e-06	-8.553581e-10	-1.631532e+01	-5.976789e+01
1.340000e-06	-2.309964e-06	-8.548209e-10	-1.601809e+01	-5.957014e+01
1.350000e-06	-2.266821e-06	-8.567419e-10	-1.571892e+01	-5.936388e+01
1.360000e-06	-2.223412e-06	-8.578950e-10	-1.541790e+01	-5.914873e+01
1.370000e-06	-2.179845e-06	-8.553103e-10	-1.511579e+01	-5.892433e+01
1.380000e-06	-2.136200e-06	-8.471433e-10	-1.481315e+01	-5.869040e+01
1.390000e-06	-2.092493e-06	-8.346976e-10	-1.451007e+01	-5.844670e+01
1.400000e-06	-2.048696e-06	-8.247755e-10	-1.420636e+01	-5.819303e+01
1.410000e-06	-2.004835e-06	-8.219191e-10	-1.390222e+01	-5.792926e+01
1.420000e-06	-1.960894e-06	-8.218572e-10	-1.359751e+01	-5.765528e+01
1.430000e-06	-1.916827e-06	-8.194539e-10	-1.329194e+01	-5.737104e+01
1.440000e-06	-1.872658e-06	-8.160964e-10	-1.298565e+01	-5.707650e+01
1.450000e-06	-1.828358e-06	-8.113128e-10	-1.267847e+01	-5.677166e+01
1.460000e-06	-1.783912e-06	-8.029236e-10	-1.237026e+01	-5.645649e+01
1.470000e-06	-1.739368e-06	-7.933732e-10	-1.206138e+01	-5.613102e+01
1.480000e-06	-1.694700e-06	-7.843917e-10	-1.175163e+01	-5.579524e+01
1.490000e-06	-1.649913e-06	-7.759935e-10	-1.144107e+01	-5.544911e+01
1.500000e-06	-1.605000e-06	-7.675256e-10	-1.112962e+01	-5.509260e+01
1.510000e-06	-1.559977e-06	-7.600951e-10	-1.081742e+01	-5.472560e+01
1.520000e-06	-1.514884e-06	-7.548829e-10	-1.050472e+01	-5.434799e+01
1.530000e-06	-1.469652e-06	-7.508101e-10	-1.019108e+01	-5.395956e+01
1.540000e-06	-1.424275e-06	-7.450009e-10	-9.876413e+00	-5.356007e+01
1.550000e-06	-1.378778e-06	-7.356785e-10	-9.560924e+00	-5.314919e+01
1.560000e-06	-1.333160e-06	-7.252062e-10	-9.244587e+00	-5.272651e+01
1.570000e-06	-1.287535e-06	-7.161513e-10	-8.928211e+00	-5.229157e+01
1.580000e-06	-1.241897e-06	-7.081170e-10	-8.611739e+00	-5.184379e+01
1.590000e-06	-1.196099e-06	-6.989351e-10	-8.294162e+00	-5.138254e+01
1.600000e-06	-1.150196e-06	-6.896334e-10	-7.975853e+00	-5.090709e+01
1.610000e-06	-1.104271e-06	-6.814384e-10	-7.657396e+00	-5.041664e+01
1.620000e-06	-1.058202e-06	-6.728832e-10	-7.337937e+00	-4.991032e+01
1.630000e-06	-1.012032e-06	-6.659003e-10	-7.017775e+00	-4.938718e+01
1.640000e-06	-9.658833e-07	-6.609329e-10	-6.697767e+00	-4.884621e+01
1.650000e-06	-9.197123e-07	-6.522735e-10	-6.377602e+00	-4.828636e+01
1.660000e-06	-8.734566e-07	-6.412564e-10	-6.056849e+00	-4.770652e+01
1.670000e-06	-8.271468e-07	-6.305775e-10	-5.735721e+00	-4.710554e+01
1.680000e-06	-7.807628e-07	-6.189439e-10	-5.414078e+00	-4.648226e+01
1.690000e-06	-7.341957e-07	-6.051737e-10	-5.091166e+00	-4.583552e+01
1.700000e-06	-6.875579e-07	-5.910696e-10	-4.767763e+00	-4.516412e+01
1.710000e-06	-6.409272e-07	-5.787190e-10	-4.444410e+00	-4.446690e+01
1.720000e-06	-5.942733e-07	-5.697330e-10	-4.120896e+00	-4.374273e+01
1.730000e-06	-5.475903e-07	-5.620969e-10	-3.797180e+00	-4.299048e+01
1.740000e-06	-5.008433e-07	-5.526641e-10	-3.473020e+00	-4.220910e+01
1.750000e-06	-4.540148e-07	-5.404639e-10	-3.148295e+00	-4.139757e+01
1.760000e-06	-4.071669e-07	-5.255644e-10	-2.823436e+00	-4.055496e+01
1.770000e-06	-3.602355e-07	-5.106251e-10	-2.497997e+00	-3.968039e+01
1.780000e-06	-3.132671e-07	-4.965796e-10	-2.172302e+00	-3.877308e+01
1.790000e-06	-2.663310e-07	-4.833855e-10	-1.846831e+00	-3.783233e+01
1.800000e-06	-2.193864e-07	-4.693970e-10	-1.521301e+00	-3.685753e+01
1.810000e-06	-1.724515e-07	-4.557281e-10	-1.195838e+00	-3.584818e+01
1.820000e-06	-1.255463e-07	-4.425441e-10	-8.705814e-01	-3.480389e+01
1.830000e-06	-7.866694e-08	-4.303777e-10	-5.455036e-01	-3.372434e+01
1.840000e-06	-3.175058e-08	-4.208913e-10	-2.201694e-01	-3.260935e+01
1.850000e-06	1.518639e-08	-4.094792e-10	1.053077e-01	-3.145884e+01
1.860000e-06	6.213757e-08	-3.935228e-10	4.308833e-01	-3.027284e+01
1.870000e-06	1.091347e-07	-3.741457e-10	7.567774e-01	-2.905148e+01
1.880000e-06	1.560762e-07	-3.544137e-10	1.082286e+00	-2.779500e+01
1.890000e-06	2.028898e-07	-3.360802e-10	1.406907e+00	-2.650373e+01
1.900000e-06	2.497102e-07	-3.183858e-10	1.731576e+00	-2.517814e+01
1.910000e-06	2.966072e-07	-2.996602e-10	2.056777e+00	-2.381876e+01
1.920000e-06	3.435606e-07	-2.810929e-10	2.382368e+00	-2.242625e+01
1.930000e-06	3.905063e-07	-2.624822e-10	2.707905e+00	-2.100134e+01
1.940000e-06	4.373267e-07	-2.434000e-10	3.032574e+00	-1.954488e+01
1.950000e-06	4.840198e-07	-2.217119e-10	3.356360e+00	-1.805780e+01
1.960000e-06	5.306758e-07	-1.978452e-10	3.679889e+00	-1.654112e+01
1.970000e-06	5.773501e-07	-1.755538e-10	4.003544e+00	-1.499595e+01
1.980000e-06	6.240412e-07	-1.558425e-10	4.327316e+00	-1.342350e+01
1.990000e-06	6.706187e-07	-1.377150e-10	4.650301e+00	-1.182507e+01
2.000000e-06	7.171246e-07	-1.166291e-10	4.972789e+00	-1.020203e+01
2.010000e-06	7.636647e-07	-9.071421e-11	5.295514e+00	-8.555862e+00
2.020000e-06	8.101216e-07	-6.361818e-11	5.617662e+00	-6.888115e+00
2.030000e-06	8.565165e-07	-3.902368e-11	5.939380e+00	-5.200436e+00
2.040000e-06	9.028923e-07	-1.833286e-11	6.260966e+00	-3.494556e+00
2.050000e-06	9.491267e-07	3.374920e-14	6.581571e+00	-1.772290e+00
2.060000e-06	9.952526e-07	2.062071e-11	6.901424e+00	-3.553351e-02
2.070000e-06	1.041310e-06	4.473213e-11	7.220799e+00	1.713734e+00
2.080000e-06	1.087286e-06	7.082565e-11	7.539613e+00	3.473460e+00
2.090000e-06	1.133208e-06	9.853674e-11	7.858052e+00	5.241516e+00
2.100000e-06	1.179018e-06	1.275833e-10	8.175718e+00	7.015708e+00
2.110000e-06	1.224745e-06	1.538965e-10	8.492801e+00	8.793781e+00
2.120000e-06	1.270442e-06	1.773207e-10	8.809685e+00	1.057343e+01
2.130000e-06	1.316070e-06	1.997942e-10	9.126080e+00	1.235229e+01
2.140000e-06	1.361615e-06	2.199956e-10	9.441908e+00	1.412798e+01
2.150000e-06	1.407079e-06	2.374622e-10	9.757168e+00	1.589809e+01
2.160000e-06	1.452423e-06	2.569055e-10	1.007160e+01	1.766019e+01
2.170000e-06	1.497625e-06	2.815089e-10	1.038505e+01	1.941186e+01
2.180000e-06	1.542733e-06	3.092558e-10	1.069784e+01	2.115069e+01
2.190000e-06	1.587766e-06	3.372035e-10	1.101011e+01	2.287430e+01
2.200000e-06	1.632701e-06	3.643155e-10	1.132171e+01	2.458036e+01
2.210000e-06	1.677528e-06	3.889202e-10	1.163256e+01	2.626660e+01
2.220000e-06	1.722152e-06	4.099940e-10	1.194199e+01	2.793082e+01
2.230000e-06	1.766610e-06	4.279144e-10	1.225028e+01	2.957093e+01
2.240000e-06	1.810957e-06	4.442039e-10	1.255780e+01	3.118493e+01
2.250000e-06	1.855201e-06	4.637248e-10	1.286460e+01	3.277094e+01
2.260000e-06	1.899375e-06	4.878816e-10	1.317092e+01	3.432724e+01
2.270000e-06	1.943363e-06	5.124803e-10	1.347595e+01	3.585224e+01
2.280000e-06	1.987169e-06	5.351962e-10	1.377972e+01	3.734450e+01
2.290000e-06	2.030962e-06	5.559246e-10	1.408339e+01	3.880278e+01
2.300000e-06	2.074754e-06	5.744469e-10	1.438706e+01	4.022599e+01
2.310000e-06	2.118511e-06	5.918068e-10	1.469049e+01	4.161322e+01
2.320000e-06	2.162219e-06	6.092586e-10	1.499357e+01	4.296377e+01
2.330000e-06	2.205792e-06	6.271252e-10	1.529572e+01	4.427711e+01
2.340000e-06	2.249328e-06	6.457564e-10	1.559762e+01	4.555288e+01
2.350000e-06	2.292820e-06	6.649999e-10	1.589920e+01	4.679093e+01
2.360000e-06	2.336072e-06	6.838358e-10	1.619913e+01	4.799127e+01
2.370000e-06	2.379020e-06	7.006352e-10	1.649694e+01	4.915407e+01
2.380000e-06	2.421666e-06	7.144927e-10	1.679266e+01	5.027967e+01
2.390000e-06	2.464007e-06	7.264111e-10	1.708627e+01	5.136854e+01
2.400000e-06	2.506015e-06	7.398454e-10	1.737757e+01	5.242129e+01
2.410000e-06	2.547703e-06	7.560719e-10	1.766665e+01	5.343865e+01
2.420000e-06	2.589097e-06	7.726306e-10	1.795369e+01	5.442143e+01
2.430000e-06	2.630198e-06	7.866167e-10	1.823869e+01	5.537052e+01
2.440000e-06	2.671010e-06	7.975579e-10	1.852171e+01	5.628691e+01
2.450000e-06	2.711582e-06	8.069877e-10	1.880304e+01	5.717158e+01
2.460000e-06	2.751970e-06	8.156421e-10	1.908311e+01	5.802556e+01
2.470000e-06	2.792177e-06	8.243154e-10	1.936192e+01	5.884991e+01
2.480000e-06	2.832185e-06	8.331799e-10	1.963934e+01	5.964564e+01
2.490000e-06	2.872004e-06	8.430446e-10	1.991547e+01	6.041377e+01
2.500000e-06	2.911714e-06	8.543847e-10	2.019083e+01	6.115526e+01
2.510000e-06	2.951358e-06	8.642134e-10	2.046573e+01	6.187103e+01
2.520000e-06	2.990816e-06	8.736074e-10	2.073935e+01	6.256193e+01
2.530000e-06	3.030081e-06	8.807475e-10	2.101162e+01	6.322875e+01
2.540000e-06	3.069210e-06	8.852707e-10	2.128296e+01	6.387220e+01
2.550000e-06	3.108077e-06	8.909894e-10	2.155248e+01	6.449289e+01
2.560000e-06	3.146643e-06	8.966937e-10	2.181990e+01	6.509138e+01
2.570000e-06	3.184966e-06	9.037140e-10	2.208565e+01	6.566812e+01
2.580000e-06	3.223121e-06	9.131536e-10	2.235023e+01	6.622351e+01
2.590000e-06	3.261082e-06	9.232227e-10	2.261346e+01	6.675785e+01
2.600000e-06	3.298790e-06	9.315794e-10	2.287495e+01	6.727138e+01
2.610000e-06	3.336276e-06	9.383872e-10	2.313488e+01	6.776430e+01
2.620000e-06	3.373513e-06	9.441530e-10	2.339310e+01	6.823674e+01
2.630000e-06	3.410501e-06	9.495868e-10	2.364958e+01	6.868881e+01
2.640000e-06	3.447275e-06	9.549870e-10	2.390459e+01	6.912059e+01
2.650000e-06	3.483787e-06	9.616790e-10	2.415778e+01	6.953216e+01
2.660000e-06	3.520016e-06	9.686113e-10	2.440900e+01	6.992358e+01
2.670000e-06	3.556057e-06	9.754661e-10	2.465892e+01	7.029496e+01
2.680000e-06	3.591916e-06	9.820867e-10	2.490758e+01	7.064642e+01
2.690000e-06	3.627634e-06	9.875234e-10	2.515526e+01	7.097813e+01
2.700000e-06	3.663299e-06	9.935232e-10	2.540257e+01	7.129030e+01
2.710000e-06	3.698859e-06	1.000127e-09	2.564916e+01	7.158322e+01
2.720000e-06	3.734218e-06	1.005022e-09	2.589435e+01	7.185725e+01
2.730000e-06	3.769253e-06	1.009551e-09	2.613730e+01	7.211282e+01
2.740000e-06	3.803867e-06	1.014485e-09	2.637732e+01	7.235044e+01
2.750000e-06	3.838034e-06	1.020122e-09	2.661425e+01	7.257071e+01
2.760000e-06	3.871681e-06	1.022441e-09	2.684757e+01	7.277432e+01
2.770000e-06	3.904777e-06	1.022634e-09	2.707707e+01	7.296204e+01
2.780000e-06	3.937513e-06	1.025228e-09	2.730407e+01	7.313469e+01
2.790000e-06	3.970053e-06	1.029893e-09	2.752972e+01	7.329320e+01
2.800000e-06	4.002302e-06	1.035717e-09	2.775334e+01	7.343854e+01
2.810000e-06	4.034252e-06	1.041143e-09	2.797489e+01	7.357175e+01
2.820000e-06	4.066019e-06	1.046151e-09	2.819518e+01	7.369388e+01
2.830000e-06	4.097636e-06	1.049304e-09	2.841442e+01	7.380603e+01
2.840000e-06	4.129122e-06	1.049687e-09	2.863275e+01	7.390933e+01
2.850000e-06	4.160382e-06	1.048655e-09	2.884952e+01	7.400487e+01
2.860000e-06	4.191323e-06	1.047584e-09	2.906408e+01	7.409375e+01
2.870000e-06	4.221877e-06	1.046114e-09	2.927595e+01	7.417704e+01
2.880000e-06	4.252090e-06	1.046886e-09	2.948546e+01	7.425576e+01
2.890000e-06	4.281990e-06	1.050280e-09	2.969279e+01	7.433086e+01
2.900000e-06	4.311587e-06	1.054722e-09	2.989803e+01	7.440324e+01
