# Temperatura_=_10.4
# Concentracion g/m^3_=_1620.0
# C_Vs_to_Am_M_A/Vsm_=_65563218390.804596
# pendiente_HvsI_1/m_=_3716.3
# ordenada_HvsI_A/m_=_1297.0
# frecuencia_Hz_=_135095.70053257697

Tiempo_(s)	Campo_(V.s)	Magnetizacion_(V.s)	Campo_(kA/m)	Magnetizacion_(A/m)
0.000000e+00	-5.524695e-06	-1.636183e-09	-3.837623e+01	-1.065338e+02
1.000000e-08	-5.524994e-06	-1.629530e-09	-3.837830e+01	-1.064618e+02
2.000000e-08	-5.525103e-06	-1.627655e-09	-3.837906e+01	-1.063920e+02
3.000000e-08	-5.524854e-06	-1.630170e-09	-3.837734e+01	-1.063248e+02
4.000000e-08	-5.524035e-06	-1.635480e-09	-3.837164e+01	-1.062607e+02
5.000000e-08	-5.522661e-06	-1.635979e-09	-3.836210e+01	-1.062001e+02
6.000000e-08	-5.520630e-06	-1.625886e-09	-3.834800e+01	-1.061432e+02
7.000000e-08	-5.517894e-06	-1.607811e-09	-3.832899e+01	-1.060902e+02
8.000000e-08	-5.514703e-06	-1.612019e-09	-3.830682e+01	-1.060411e+02
9.000000e-08	-5.511175e-06	-1.674667e-09	-3.828232e+01	-1.059960e+02
1.000000e-07	-5.507208e-06	-1.759818e-09	-3.825476e+01	-1.059547e+02
1.100000e-07	-5.502800e-06	-1.696337e-09	-3.822414e+01	-1.059170e+02
1.200000e-07	-5.498165e-06	-1.503548e-09	-3.819195e+01	-1.058825e+02
1.300000e-07	-5.493440e-06	-1.517150e-09	-3.815912e+01	-1.058508e+02
1.400000e-07	-5.488399e-06	-1.660060e-09	-3.812411e+01	-1.058213e+02
1.500000e-07	-5.482842e-06	-1.713478e-09	-3.808550e+01	-1.057935e+02
1.600000e-07	-5.476855e-06	-1.569810e-09	-3.804392e+01	-1.057665e+02
1.700000e-07	-5.470573e-06	-1.534906e-09	-3.800028e+01	-1.057397e+02
1.800000e-07	-5.463839e-06	-1.700295e-09	-3.795351e+01	-1.057122e+02
1.900000e-07	-5.456566e-06	-1.718176e-09	-3.790298e+01	-1.056830e+02
2.000000e-07	-5.449028e-06	-1.588286e-09	-3.785062e+01	-1.056514e+02
2.100000e-07	-5.441356e-06	-1.510313e-09	-3.779733e+01	-1.056163e+02
2.200000e-07	-5.433460e-06	-1.643624e-09	-3.774248e+01	-1.055769e+02
2.300000e-07	-5.425196e-06	-1.704735e-09	-3.768508e+01	-1.055323e+02
2.400000e-07	-5.416561e-06	-1.641352e-09	-3.762510e+01	-1.054815e+02
2.500000e-07	-5.407361e-06	-1.570143e-09	-3.756119e+01	-1.054238e+02
2.600000e-07	-5.397257e-06	-1.628651e-09	-3.749101e+01	-1.053583e+02
2.700000e-07	-5.386453e-06	-1.641665e-09	-3.741596e+01	-1.052843e+02
2.800000e-07	-5.375226e-06	-1.604259e-09	-3.733797e+01	-1.052013e+02
2.900000e-07	-5.363535e-06	-1.574614e-09	-3.725676e+01	-1.051086e+02
3.000000e-07	-5.351537e-06	-1.614257e-09	-3.717342e+01	-1.050059e+02
3.100000e-07	-5.339297e-06	-1.631619e-09	-3.708840e+01	-1.048928e+02
3.200000e-07	-5.326634e-06	-1.590806e-09	-3.700044e+01	-1.047690e+02
3.300000e-07	-5.313460e-06	-1.566280e-09	-3.690893e+01	-1.046345e+02
3.400000e-07	-5.299985e-06	-1.602274e-09	-3.681532e+01	-1.044893e+02
3.500000e-07	-5.286253e-06	-1.634088e-09	-3.671994e+01	-1.043334e+02
3.600000e-07	-5.272024e-06	-1.581459e-09	-3.662110e+01	-1.041670e+02
3.700000e-07	-5.257306e-06	-1.568217e-09	-3.651887e+01	-1.039906e+02
3.800000e-07	-5.242023e-06	-1.619429e-09	-3.641270e+01	-1.038045e+02
3.900000e-07	-5.226052e-06	-1.604102e-09	-3.630177e+01	-1.036092e+02
4.000000e-07	-5.209589e-06	-1.530040e-09	-3.618740e+01	-1.034053e+02
4.100000e-07	-5.192838e-06	-1.586445e-09	-3.607105e+01	-1.031935e+02
4.200000e-07	-5.175880e-06	-1.625108e-09	-3.595326e+01	-1.029744e+02
4.300000e-07	-5.158620e-06	-1.530947e-09	-3.583336e+01	-1.027489e+02
4.400000e-07	-5.140959e-06	-1.511471e-09	-3.571069e+01	-1.025178e+02
4.500000e-07	-5.122967e-06	-1.638093e-09	-3.558571e+01	-1.022817e+02
4.600000e-07	-5.104504e-06	-1.580901e-09	-3.545745e+01	-1.020417e+02
4.700000e-07	-5.085520e-06	-1.474977e-09	-3.532559e+01	-1.017984e+02
4.800000e-07	-5.066262e-06	-1.554629e-09	-3.519181e+01	-1.015528e+02
4.900000e-07	-5.046858e-06	-1.613077e-09	-3.505703e+01	-1.013055e+02
5.000000e-07	-5.027288e-06	-1.493862e-09	-3.492109e+01	-1.010573e+02
5.100000e-07	-5.007532e-06	-1.516418e-09	-3.478386e+01	-1.008089e+02
5.200000e-07	-4.987460e-06	-1.592519e-09	-3.464443e+01	-1.005610e+02
5.300000e-07	-4.966902e-06	-1.508632e-09	-3.450163e+01	-1.003140e+02
5.400000e-07	-4.945875e-06	-1.475509e-09	-3.435557e+01	-1.000685e+02
5.500000e-07	-4.924521e-06	-1.591792e-09	-3.420724e+01	-9.982498e+01
5.600000e-07	-4.902896e-06	-1.541215e-09	-3.405702e+01	-9.958368e+01
5.700000e-07	-4.880910e-06	-1.443010e-09	-3.390430e+01	-9.934490e+01
5.800000e-07	-4.858579e-06	-1.521309e-09	-3.374918e+01	-9.910882e+01
5.900000e-07	-4.835886e-06	-1.553721e-09	-3.359155e+01	-9.887555e+01
6.000000e-07	-4.812751e-06	-1.456261e-09	-3.343085e+01	-9.864510e+01
6.100000e-07	-4.789308e-06	-1.479094e-09	-3.326800e+01	-9.841745e+01
6.200000e-07	-4.765728e-06	-1.537962e-09	-3.310421e+01	-9.819246e+01
6.300000e-07	-4.742018e-06	-1.475306e-09	-3.293951e+01	-9.796996e+01
6.400000e-07	-4.718099e-06	-1.461504e-09	-3.277337e+01	-9.774971e+01
6.500000e-07	-4.693900e-06	-1.513414e-09	-3.260527e+01	-9.753142e+01
6.600000e-07	-4.669219e-06	-1.484793e-09	-3.243383e+01	-9.731475e+01
6.700000e-07	-4.643903e-06	-1.453295e-09	-3.225798e+01	-9.709933e+01
6.800000e-07	-4.618034e-06	-1.496691e-09	-3.207829e+01	-9.688476e+01
6.900000e-07	-4.591599e-06	-1.488305e-09	-3.189466e+01	-9.667061e+01
7.000000e-07	-4.564702e-06	-1.458328e-09	-3.170782e+01	-9.645644e+01
7.100000e-07	-4.537506e-06	-1.473425e-09	-3.151891e+01	-9.624180e+01
7.200000e-07	-4.510059e-06	-1.476087e-09	-3.132826e+01	-9.602626e+01
7.300000e-07	-4.482414e-06	-1.439545e-09	-3.113623e+01	-9.580935e+01
7.400000e-07	-4.454607e-06	-1.446714e-09	-3.094307e+01	-9.559064e+01
7.500000e-07	-4.426639e-06	-1.452393e-09	-3.074879e+01	-9.536972e+01
7.600000e-07	-4.398316e-06	-1.434059e-09	-3.055205e+01	-9.514618e+01
7.700000e-07	-4.369608e-06	-1.430691e-09	-3.035264e+01	-9.491963e+01
7.800000e-07	-4.340587e-06	-1.443457e-09	-3.015105e+01	-9.468974e+01
7.900000e-07	-4.311257e-06	-1.425909e-09	-2.994732e+01	-9.445617e+01
8.000000e-07	-4.281634e-06	-1.423679e-09	-2.974155e+01	-9.421861e+01
8.100000e-07	-4.251726e-06	-1.429207e-09	-2.953379e+01	-9.397681e+01
8.200000e-07	-4.221609e-06	-1.410967e-09	-2.932459e+01	-9.373051e+01
8.300000e-07	-4.191221e-06	-1.389244e-09	-2.911351e+01	-9.347951e+01
8.400000e-07	-4.160425e-06	-1.400889e-09	-2.889959e+01	-9.322362e+01
8.500000e-07	-4.129306e-06	-1.399934e-09	-2.868343e+01	-9.296268e+01
8.600000e-07	-4.097987e-06	-1.386372e-09	-2.846588e+01	-9.269656e+01
8.700000e-07	-4.066481e-06	-1.389118e-09	-2.824703e+01	-9.242515e+01
8.800000e-07	-4.034866e-06	-1.391687e-09	-2.802742e+01	-9.214836e+01
8.900000e-07	-4.003121e-06	-1.370687e-09	-2.780691e+01	-9.186611e+01
9.000000e-07	-3.971182e-06	-1.359478e-09	-2.758505e+01	-9.157837e+01
9.100000e-07	-3.938982e-06	-1.360953e-09	-2.736138e+01	-9.128508e+01
9.200000e-07	-3.906312e-06	-1.346803e-09	-2.713444e+01	-9.098622e+01
9.300000e-07	-3.873161e-06	-1.339556e-09	-2.690417e+01	-9.068179e+01
9.400000e-07	-3.839579e-06	-1.351676e-09	-2.667089e+01	-9.037177e+01
9.500000e-07	-3.805494e-06	-1.353454e-09	-2.643413e+01	-9.005619e+01
9.600000e-07	-3.770825e-06	-1.337921e-09	-2.619331e+01	-8.973505e+01
9.700000e-07	-3.735739e-06	-1.334010e-09	-2.594959e+01	-8.940837e+01
9.800000e-07	-3.700428e-06	-1.326949e-09	-2.570431e+01	-8.907620e+01
9.900000e-07	-3.664890e-06	-1.309226e-09	-2.545745e+01	-8.873856e+01
1.000000e-06	-3.629299e-06	-1.299427e-09	-2.521022e+01	-8.839551e+01
1.010000e-06	-3.593650e-06	-1.304263e-09	-2.496260e+01	-8.804709e+01
1.020000e-06	-3.557849e-06	-1.297130e-09	-2.471391e+01	-8.769335e+01
1.030000e-06	-3.521857e-06	-1.290296e-09	-2.446390e+01	-8.733437e+01
1.040000e-06	-3.485615e-06	-1.290350e-09	-2.421215e+01	-8.697020e+01
1.050000e-06	-3.449105e-06	-1.284528e-09	-2.395854e+01	-8.660094e+01
1.060000e-06	-3.412280e-06	-1.267498e-09	-2.370274e+01	-8.622665e+01
1.070000e-06	-3.375167e-06	-1.262366e-09	-2.344495e+01	-8.584742e+01
1.080000e-06	-3.337859e-06	-1.256865e-09	-2.318580e+01	-8.546336e+01
1.090000e-06	-3.300359e-06	-1.245128e-09	-2.292531e+01	-8.507455e+01
1.100000e-06	-3.262612e-06	-1.237492e-09	-2.266310e+01	-8.468110e+01
1.110000e-06	-3.224655e-06	-1.237813e-09	-2.239945e+01	-8.428310e+01
1.120000e-06	-3.186508e-06	-1.228600e-09	-2.213447e+01	-8.388067e+01
1.130000e-06	-3.148165e-06	-1.217457e-09	-2.186812e+01	-8.347390e+01
1.140000e-06	-3.109581e-06	-1.210913e-09	-2.160011e+01	-8.306289e+01
1.150000e-06	-3.070713e-06	-1.205208e-09	-2.133012e+01	-8.264773e+01
1.160000e-06	-3.031610e-06	-1.195848e-09	-2.105850e+01	-8.222852e+01
1.170000e-06	-2.992266e-06	-1.191414e-09	-2.078520e+01	-8.180532e+01
1.180000e-06	-2.952838e-06	-1.190307e-09	-2.051132e+01	-8.137820e+01
1.190000e-06	-2.913376e-06	-1.185570e-09	-2.023720e+01	-8.094721e+01
1.200000e-06	-2.873718e-06	-1.179675e-09	-1.996173e+01	-8.051238e+01
1.210000e-06	-2.833929e-06	-1.172280e-09	-1.968534e+01	-8.007371e+01
1.220000e-06	-2.794015e-06	-1.161020e-09	-1.940809e+01	-7.963119e+01
1.230000e-06	-2.753917e-06	-1.150764e-09	-1.912955e+01	-7.918478e+01
1.240000e-06	-2.713601e-06	-1.145963e-09	-1.884951e+01	-7.873442e+01
1.250000e-06	-2.673067e-06	-1.139896e-09	-1.856794e+01	-7.828001e+01
1.260000e-06	-2.632287e-06	-1.134455e-09	-1.828467e+01	-7.782143e+01
1.270000e-06	-2.591258e-06	-1.130478e-09	-1.799967e+01	-7.735851e+01
1.280000e-06	-2.549969e-06	-1.125003e-09	-1.771287e+01	-7.689107e+01
1.290000e-06	-2.508307e-06	-1.114275e-09	-1.742347e+01	-7.641890e+01
1.300000e-06	-2.466332e-06	-1.103632e-09	-1.713190e+01	-7.594174e+01
1.310000e-06	-2.424042e-06	-1.094213e-09	-1.683814e+01	-7.545931e+01
1.320000e-06	-2.381412e-06	-1.085734e-09	-1.654202e+01	-7.497130e+01
1.330000e-06	-2.338556e-06	-1.076695e-09	-1.624433e+01	-7.447737e+01
1.340000e-06	-2.295516e-06	-1.069428e-09	-1.594536e+01	-7.397716e+01
1.350000e-06	-2.252321e-06	-1.063581e-09	-1.564532e+01	-7.347027e+01
1.360000e-06	-2.208924e-06	-1.059290e-09	-1.534386e+01	-7.295630e+01
1.370000e-06	-2.165364e-06	-1.052508e-09	-1.504128e+01	-7.243480e+01
1.380000e-06	-2.121765e-06	-1.044062e-09	-1.473843e+01	-7.190535e+01
1.390000e-06	-2.078113e-06	-1.031267e-09	-1.443521e+01	-7.136746e+01
1.400000e-06	-2.034384e-06	-1.018975e-09	-1.413146e+01	-7.082067e+01
1.410000e-06	-1.990573e-06	-1.007486e-09	-1.382713e+01	-7.026449e+01
1.420000e-06	-1.946708e-06	-9.973773e-10	-1.352243e+01	-6.969842e+01
1.430000e-06	-1.902795e-06	-9.873693e-10	-1.321740e+01	-6.912197e+01
1.440000e-06	-1.858715e-06	-9.791679e-10	-1.291121e+01	-6.853463e+01
1.450000e-06	-1.814547e-06	-9.721759e-10	-1.260440e+01	-6.793590e+01
1.460000e-06	-1.770215e-06	-9.656145e-10	-1.229646e+01	-6.732526e+01
1.470000e-06	-1.725649e-06	-9.546427e-10	-1.198689e+01	-6.670220e+01
1.480000e-06	-1.681015e-06	-9.406603e-10	-1.167685e+01	-6.606621e+01
1.490000e-06	-1.636292e-06	-9.248005e-10	-1.136619e+01	-6.541676e+01
1.500000e-06	-1.591369e-06	-9.068607e-10	-1.105414e+01	-6.475333e+01
1.510000e-06	-1.546282e-06	-8.890147e-10	-1.074095e+01	-6.407539e+01
1.520000e-06	-1.501182e-06	-8.758324e-10	-1.042767e+01	-6.338241e+01
1.530000e-06	-1.455964e-06	-8.666143e-10	-1.011357e+01	-6.267383e+01
1.540000e-06	-1.410601e-06	-8.569192e-10	-9.798471e+00	-6.194908e+01
1.550000e-06	-1.365175e-06	-8.448164e-10	-9.482929e+00	-6.120760e+01
1.560000e-06	-1.319629e-06	-8.301746e-10	-9.166551e+00	-6.044879e+01
1.570000e-06	-1.273960e-06	-8.174912e-10	-8.849316e+00	-5.967202e+01
1.580000e-06	-1.228227e-06	-8.047527e-10	-8.531646e+00	-5.887665e+01
1.590000e-06	-1.182493e-06	-7.917964e-10	-8.213960e+00	-5.806202e+01
1.600000e-06	-1.136697e-06	-7.761121e-10	-7.895848e+00	-5.722742e+01
1.610000e-06	-1.090809e-06	-7.606311e-10	-7.577096e+00	-5.637213e+01
1.620000e-06	-1.044816e-06	-7.487281e-10	-7.257616e+00	-5.549538e+01
1.630000e-06	-9.986825e-07	-7.401388e-10	-6.937155e+00	-5.459638e+01
1.640000e-06	-9.525075e-07	-7.310237e-10	-6.616410e+00	-5.367431e+01
1.650000e-06	-9.063180e-07	-7.180083e-10	-6.295563e+00	-5.272830e+01
1.660000e-06	-8.600918e-07	-7.009382e-10	-5.974462e+00	-5.175747e+01
1.670000e-06	-8.138209e-07	-6.825048e-10	-5.653050e+00	-5.076091e+01
1.680000e-06	-7.674592e-07	-6.626105e-10	-5.331007e+00	-4.973768e+01
1.690000e-06	-7.210682e-07	-6.430048e-10	-5.008762e+00	-4.868683e+01
1.700000e-06	-6.746208e-07	-6.252993e-10	-4.686124e+00	-4.760740e+01
1.710000e-06	-6.281398e-07	-6.102742e-10	-4.363252e+00	-4.649840e+01
1.720000e-06	-5.815910e-07	-5.948367e-10	-4.039910e+00	-4.535889e+01
1.730000e-06	-5.349197e-07	-5.774272e-10	-3.715717e+00	-4.418790e+01
1.740000e-06	-4.882620e-07	-5.564622e-10	-3.391618e+00	-4.298450e+01
1.750000e-06	-4.414976e-07	-5.350536e-10	-3.066778e+00	-4.174778e+01
1.760000e-06	-3.946336e-07	-5.145086e-10	-2.741246e+00	-4.047690e+01
1.770000e-06	-3.477480e-07	-4.959463e-10	-2.415565e+00	-3.917104e+01
1.780000e-06	-3.009011e-07	-4.785341e-10	-2.090152e+00	-3.782946e+01
1.790000e-06	-2.540595e-07	-4.607030e-10	-1.764776e+00	-3.645151e+01
1.800000e-06	-2.070767e-07	-4.418152e-10	-1.438419e+00	-3.503661e+01
1.810000e-06	-1.601812e-07	-4.216116e-10	-1.112668e+00	-3.358430e+01
1.820000e-06	-1.132883e-07	-3.999276e-10	-7.869351e-01	-3.209421e+01
1.830000e-06	-6.634615e-08	-3.772760e-10	-4.608607e-01	-3.056611e+01
1.840000e-06	-1.949248e-08	-3.548177e-10	-1.354007e-01	-2.899990e+01
1.850000e-06	2.738124e-08	-3.309657e-10	1.901985e-01	-2.739563e+01
1.860000e-06	7.414767e-08	-3.079535e-10	5.150525e-01	-2.575350e+01
1.870000e-06	1.208672e-07	-2.845473e-10	8.395809e-01	-2.407386e+01
1.880000e-06	1.676266e-07	-2.603250e-10	1.164386e+00	-2.235724e+01
1.890000e-06	2.143915e-07	-2.361981e-10	1.489229e+00	-2.060434e+01
1.900000e-06	2.612197e-07	-2.125461e-10	1.814512e+00	-1.881601e+01
1.910000e-06	3.080628e-07	-1.855816e-10	2.139899e+00	-1.699332e+01
1.920000e-06	3.548407e-07	-1.569946e-10	2.464833e+00	-1.513748e+01
1.930000e-06	4.016667e-07	-1.294852e-10	2.790100e+00	-1.324988e+01
1.940000e-06	4.485024e-07	-1.020704e-10	3.115436e+00	-1.133209e+01
1.950000e-06	4.952899e-07	-7.587535e-11	3.440436e+00	-9.385847e+00
1.960000e-06	5.419318e-07	-5.101457e-11	3.764425e+00	-7.413040e+00
1.970000e-06	5.883231e-07	-2.526960e-11	4.086673e+00	-5.415713e+00
1.980000e-06	6.346164e-07	1.139962e-12	4.408240e+00	-3.396050e+00
1.990000e-06	6.808945e-07	2.926967e-11	4.729702e+00	-1.356365e+00
2.000000e-06	7.272781e-07	6.017863e-11	5.051897e+00	7.009103e-01
2.010000e-06	7.737009e-07	9.260292e-11	5.374364e+00	2.773241e+00
2.020000e-06	8.199930e-07	1.241878e-10	5.695923e+00	4.858004e+00
2.030000e-06	8.662597e-07	1.535360e-10	6.017306e+00	6.952503e+00
2.040000e-06	9.124541e-07	1.795404e-10	6.338187e+00	9.053987e+00
2.050000e-06	9.584978e-07	2.043052e-10	6.658020e+00	1.115967e+01
2.060000e-06	1.004495e-06	2.313567e-10	6.977531e+00	1.326673e+01
2.070000e-06	1.050441e-06	2.607910e-10	7.296683e+00	1.537235e+01
2.080000e-06	1.096267e-06	2.920915e-10	7.615005e+00	1.747375e+01
2.090000e-06	1.142098e-06	3.231012e-10	7.933367e+00	1.956815e+01
2.100000e-06	1.187929e-06	3.541988e-10	8.251719e+00	2.165282e+01
2.110000e-06	1.233605e-06	3.851288e-10	8.568996e+00	2.372512e+01
2.120000e-06	1.279150e-06	4.151899e-10	8.885369e+00	2.578248e+01
2.130000e-06	1.324635e-06	4.432078e-10	9.201324e+00	2.782242e+01
2.140000e-06	1.370142e-06	4.695701e-10	9.517429e+00	2.984257e+01
2.150000e-06	1.415553e-06	4.958197e-10	9.832864e+00	3.184070e+01
2.160000e-06	1.460859e-06	5.222568e-10	1.014758e+01	3.381470e+01
2.170000e-06	1.506095e-06	5.498621e-10	1.046180e+01	3.576261e+01
2.180000e-06	1.551193e-06	5.787051e-10	1.077506e+01	3.768262e+01
2.190000e-06	1.596113e-06	6.057279e-10	1.108709e+01	3.957309e+01
2.200000e-06	1.640797e-06	6.319050e-10	1.139748e+01	4.143252e+01
2.210000e-06	1.685298e-06	6.602523e-10	1.170660e+01	4.325962e+01
2.220000e-06	1.729675e-06	6.891574e-10	1.201485e+01	4.505323e+01
2.230000e-06	1.773933e-06	7.163850e-10	1.232229e+01	4.681240e+01
2.240000e-06	1.818069e-06	7.399093e-10	1.262887e+01	4.853631e+01
2.250000e-06	1.862106e-06	7.600363e-10	1.293476e+01	5.022433e+01
2.260000e-06	1.906057e-06	7.808980e-10	1.324006e+01	5.187600e+01
2.270000e-06	1.949892e-06	8.027155e-10	1.354455e+01	5.349099e+01
2.280000e-06	1.993667e-06	8.238305e-10	1.384863e+01	5.506915e+01
2.290000e-06	2.037389e-06	8.451580e-10	1.415233e+01	5.661044e+01
2.300000e-06	2.081060e-06	8.677278e-10	1.445568e+01	5.811498e+01
2.310000e-06	2.124695e-06	8.900643e-10	1.475878e+01	5.958300e+01
2.320000e-06	2.168267e-06	9.104736e-10	1.506145e+01	6.101482e+01
2.330000e-06	2.211776e-06	9.287495e-10	1.536367e+01	6.241089e+01
2.340000e-06	2.255166e-06	9.464365e-10	1.566508e+01	6.377173e+01
2.350000e-06	2.298423e-06	9.644406e-10	1.596555e+01	6.509792e+01
2.360000e-06	2.341492e-06	9.824535e-10	1.626472e+01	6.639013e+01
2.370000e-06	2.384275e-06	9.998929e-10	1.656191e+01	6.764905e+01
2.380000e-06	2.426745e-06	1.015844e-09	1.685692e+01	6.887542e+01
2.390000e-06	2.468851e-06	1.031751e-09	1.714940e+01	7.006999e+01
2.400000e-06	2.510658e-06	1.048484e-09	1.743980e+01	7.123354e+01
2.410000e-06	2.552212e-06	1.065349e-09	1.772845e+01	7.236683e+01
2.420000e-06	2.593369e-06	1.081193e-09	1.801434e+01	7.347062e+01
2.430000e-06	2.634231e-06	1.094878e-09	1.829818e+01	7.454566e+01
2.440000e-06	2.674929e-06	1.107136e-09	1.858088e+01	7.559265e+01
2.450000e-06	2.715347e-06	1.119447e-09	1.886164e+01	7.661227e+01
2.460000e-06	2.755522e-06	1.131689e-09	1.914071e+01	7.760517e+01
2.470000e-06	2.795517e-06	1.143713e-09	1.941852e+01	7.857194e+01
2.480000e-06	2.835344e-06	1.155475e-09	1.969517e+01	7.951312e+01
2.490000e-06	2.875057e-06	1.167443e-09	1.997103e+01	8.042922e+01
2.500000e-06	2.914634e-06	1.180388e-09	2.024594e+01	8.132068e+01
2.510000e-06	2.954108e-06	1.193090e-09	2.052014e+01	8.218792e+01
2.520000e-06	2.993498e-06	1.204645e-09	2.079376e+01	8.303127e+01
2.530000e-06	3.032715e-06	1.213930e-09	2.106617e+01	8.385106e+01
2.540000e-06	3.071690e-06	1.221791e-09	2.133691e+01	8.464755e+01
2.550000e-06	3.110379e-06	1.230701e-09	2.160565e+01	8.542098e+01
2.560000e-06	3.148790e-06	1.239755e-09	2.187247e+01	8.617156e+01
2.570000e-06	3.187035e-06	1.249719e-09	2.213812e+01	8.689949e+01
2.580000e-06	3.225130e-06	1.260285e-09	2.240274e+01	8.760495e+01
2.590000e-06	3.263002e-06	1.270527e-09	2.266582e+01	8.828809e+01
2.600000e-06	3.300671e-06	1.279955e-09	2.292748e+01	8.894910e+01
2.610000e-06	3.338133e-06	1.289013e-09	2.318770e+01	8.958816e+01
2.620000e-06	3.375312e-06	1.298798e-09	2.344596e+01	9.020547e+01
2.630000e-06	3.412227e-06	1.308588e-09	2.370238e+01	9.080127e+01
2.640000e-06	3.448801e-06	1.318356e-09	2.395643e+01	9.137582e+01
2.650000e-06	3.485084e-06	1.326761e-09	2.420846e+01	9.192942e+01
2.660000e-06	3.521225e-06	1.333264e-09	2.445951e+01	9.246243e+01
2.670000e-06	3.557166e-06	1.339417e-09	2.470917e+01	9.297524e+01
2.680000e-06	3.592905e-06	1.345469e-09	2.495742e+01	9.346832e+01
2.690000e-06	3.628549e-06	1.350782e-09	2.520502e+01	9.394218e+01
2.700000e-06	3.664087e-06	1.357716e-09	2.545187e+01	9.439739e+01
2.710000e-06	3.699418e-06	1.366334e-09	2.569730e+01	9.483459e+01
2.720000e-06	3.734589e-06	1.374866e-09	2.594160e+01	9.525448e+01
2.730000e-06	3.769519e-06	1.383216e-09	2.618424e+01	9.565781e+01
2.740000e-06	3.804086e-06	1.390179e-09	2.642435e+01	9.604538e+01
2.750000e-06	3.838274e-06	1.395615e-09	2.666183e+01	9.641806e+01
2.760000e-06	3.871893e-06	1.399238e-09	2.689536e+01	9.677672e+01
2.770000e-06	3.904934e-06	1.402266e-09	2.712487e+01	9.712231e+01
2.780000e-06	3.937535e-06	1.407251e-09	2.735133e+01	9.745578e+01
2.790000e-06	3.969764e-06	1.415439e-09	2.757520e+01	9.777811e+01
2.800000e-06	4.001746e-06	1.424760e-09	2.779736e+01	9.809028e+01
2.810000e-06	4.033548e-06	1.431370e-09	2.801827e+01	9.839327e+01
2.820000e-06	4.065138e-06	1.436866e-09	2.823770e+01	9.868805e+01
2.830000e-06	4.096569e-06	1.442813e-09	2.845603e+01	9.897556e+01
2.840000e-06	4.127893e-06	1.449778e-09	2.867361e+01	9.925672e+01
2.850000e-06	4.158955e-06	1.455113e-09	2.888938e+01	9.953237e+01
2.860000e-06	4.189691e-06	1.456749e-09	2.910288e+01	9.980334e+01
2.870000e-06	4.220088e-06	1.459169e-09	2.931403e+01	1.000704e+02
2.880000e-06	4.250175e-06	1.463763e-09	2.952302e+01	1.003341e+02
2.890000e-06	4.280008e-06	1.468600e-09	2.973025e+01	1.005952e+02
2.900000e-06	4.309557e-06	1.473952e-09	2.993551e+01	1.008540e+02
