# Temperatura_=_-8.2
# Concentracion g/m^3_=_1620.0
# C_Vs_to_Am_M_A/Vsm_=_65563218390.804596
# pendiente_HvsI_1/m_=_3716.3
# ordenada_HvsI_A/m_=_1297.0
# frecuencia_Hz_=_135103.66598530705

Tiempo_(s)	Campo_(V.s)	Magnetizacion_(V.s)	Campo_(kA/m)	Magnetizacion_(A/m)
0.000000e+00	-5.524311e-06	-1.195810e-09	-3.837133e+01	-7.899663e+01
1.000000e-08	-5.524504e-06	-1.188818e-09	-3.837267e+01	-7.894748e+01
2.000000e-08	-5.524408e-06	-1.182838e-09	-3.837200e+01	-7.890267e+01
3.000000e-08	-5.523965e-06	-1.180388e-09	-3.836893e+01	-7.886258e+01
4.000000e-08	-5.523176e-06	-1.178742e-09	-3.836345e+01	-7.882749e+01
5.000000e-08	-5.521943e-06	-1.175435e-09	-3.835489e+01	-7.879761e+01
6.000000e-08	-5.520074e-06	-1.168223e-09	-3.834191e+01	-7.877306e+01
7.000000e-08	-5.517563e-06	-1.166826e-09	-3.832446e+01	-7.875382e+01
8.000000e-08	-5.514514e-06	-1.191260e-09	-3.830329e+01	-7.873981e+01
9.000000e-08	-5.510918e-06	-1.226351e-09	-3.827831e+01	-7.873079e+01
1.000000e-07	-5.506837e-06	-1.193251e-09	-3.824996e+01	-7.872645e+01
1.100000e-07	-5.502505e-06	-1.109648e-09	-3.821987e+01	-7.872634e+01
1.200000e-07	-5.498045e-06	-1.134859e-09	-3.818889e+01	-7.872992e+01
1.300000e-07	-5.493310e-06	-1.211969e-09	-3.815600e+01	-7.873657e+01
1.400000e-07	-5.488141e-06	-1.203535e-09	-3.812010e+01	-7.874554e+01
1.500000e-07	-5.482608e-06	-1.136048e-09	-3.808166e+01	-7.875605e+01
1.600000e-07	-5.476726e-06	-1.124878e-09	-3.804081e+01	-7.876721e+01
1.700000e-07	-5.470402e-06	-1.211334e-09	-3.799689e+01	-7.877810e+01
1.800000e-07	-5.463583e-06	-1.187136e-09	-3.794952e+01	-7.878779e+01
1.900000e-07	-5.456386e-06	-1.136922e-09	-3.789953e+01	-7.879528e+01
2.000000e-07	-5.448928e-06	-1.135828e-09	-3.784773e+01	-7.879961e+01
2.100000e-07	-5.441214e-06	-1.214273e-09	-3.779415e+01	-7.879981e+01
2.200000e-07	-5.433203e-06	-1.221704e-09	-3.773851e+01	-7.879497e+01
2.300000e-07	-5.424905e-06	-1.181822e-09	-3.768087e+01	-7.878418e+01
2.400000e-07	-5.416196e-06	-1.156607e-09	-3.762038e+01	-7.876665e+01
2.500000e-07	-5.406835e-06	-1.174889e-09	-3.755536e+01	-7.874163e+01
2.600000e-07	-5.396825e-06	-1.187945e-09	-3.748583e+01	-7.870849e+01
2.700000e-07	-5.386291e-06	-1.167543e-09	-3.741266e+01	-7.866667e+01
2.800000e-07	-5.375284e-06	-1.164645e-09	-3.733620e+01	-7.861577e+01
2.900000e-07	-5.363777e-06	-1.179909e-09	-3.725628e+01	-7.855546e+01
3.000000e-07	-5.351915e-06	-1.192493e-09	-3.717389e+01	-7.848558e+01
3.100000e-07	-5.339693e-06	-1.156127e-09	-3.708900e+01	-7.840608e+01
3.200000e-07	-5.326933e-06	-1.146781e-09	-3.700037e+01	-7.831703e+01
3.300000e-07	-5.313807e-06	-1.162114e-09	-3.690919e+01	-7.821866e+01
3.400000e-07	-5.300425e-06	-1.185422e-09	-3.681624e+01	-7.811130e+01
3.500000e-07	-5.286586e-06	-1.150843e-09	-3.672012e+01	-7.799540e+01
3.600000e-07	-5.272248e-06	-1.163866e-09	-3.662053e+01	-7.787154e+01
3.700000e-07	-5.257487e-06	-1.195317e-09	-3.651800e+01	-7.774036e+01
3.800000e-07	-5.242233e-06	-1.174954e-09	-3.641204e+01	-7.760264e+01
3.900000e-07	-5.226320e-06	-1.125584e-09	-3.630151e+01	-7.745919e+01
4.000000e-07	-5.209995e-06	-1.173750e-09	-3.618813e+01	-7.731091e+01
4.100000e-07	-5.193413e-06	-1.188379e-09	-3.607295e+01	-7.715872e+01
4.200000e-07	-5.176368e-06	-1.128372e-09	-3.595456e+01	-7.700358e+01
4.300000e-07	-5.158927e-06	-1.140038e-09	-3.583341e+01	-7.684646e+01
4.400000e-07	-5.141267e-06	-1.215207e-09	-3.571074e+01	-7.668833e+01
4.500000e-07	-5.123258e-06	-1.155550e-09	-3.558566e+01	-7.653012e+01
4.600000e-07	-5.104777e-06	-1.100164e-09	-3.545729e+01	-7.637275e+01
4.700000e-07	-5.085984e-06	-1.177269e-09	-3.532676e+01	-7.621707e+01
4.800000e-07	-5.066880e-06	-1.187756e-09	-3.519406e+01	-7.606388e+01
4.900000e-07	-5.047366e-06	-1.102449e-09	-3.505852e+01	-7.591387e+01
5.000000e-07	-5.027612e-06	-1.142993e-09	-3.492131e+01	-7.576770e+01
5.100000e-07	-5.007680e-06	-1.200688e-09	-3.478286e+01	-7.562588e+01
5.200000e-07	-4.987382e-06	-1.121630e-09	-3.464187e+01	-7.548885e+01
5.300000e-07	-4.966700e-06	-1.114024e-09	-3.449822e+01	-7.535694e+01
5.400000e-07	-4.945734e-06	-1.192749e-09	-3.435259e+01	-7.523037e+01
5.500000e-07	-4.924417e-06	-1.145009e-09	-3.420453e+01	-7.510924e+01
5.600000e-07	-4.902661e-06	-1.085584e-09	-3.405341e+01	-7.499356e+01
5.700000e-07	-4.880629e-06	-1.164045e-09	-3.390038e+01	-7.488322e+01
5.800000e-07	-4.858347e-06	-1.170492e-09	-3.374561e+01	-7.477802e+01
5.900000e-07	-4.835674e-06	-1.096668e-09	-3.358812e+01	-7.467766e+01
6.000000e-07	-4.812626e-06	-1.125551e-09	-3.342803e+01	-7.458176e+01
6.100000e-07	-4.789288e-06	-1.166352e-09	-3.326593e+01	-7.448987e+01
6.200000e-07	-4.765726e-06	-1.102183e-09	-3.310227e+01	-7.440145e+01
6.300000e-07	-4.741931e-06	-1.098902e-09	-3.293700e+01	-7.431594e+01
6.400000e-07	-4.717858e-06	-1.143266e-09	-3.276979e+01	-7.423270e+01
6.500000e-07	-4.693415e-06	-1.115532e-09	-3.260001e+01	-7.415108e+01
6.600000e-07	-4.668632e-06	-1.090030e-09	-3.242787e+01	-7.407040e+01
6.700000e-07	-4.643387e-06	-1.132160e-09	-3.225252e+01	-7.398998e+01
6.800000e-07	-4.617560e-06	-1.127038e-09	-3.207313e+01	-7.390913e+01
6.900000e-07	-4.591282e-06	-1.100615e-09	-3.189060e+01	-7.382718e+01
7.000000e-07	-4.564538e-06	-1.117082e-09	-3.170484e+01	-7.374347e+01
7.100000e-07	-4.537355e-06	-1.124886e-09	-3.151603e+01	-7.365740e+01
7.200000e-07	-4.509863e-06	-1.097365e-09	-3.132508e+01	-7.356836e+01
7.300000e-07	-4.482167e-06	-1.100140e-09	-3.113270e+01	-7.347584e+01
7.400000e-07	-4.454262e-06	-1.107025e-09	-3.093888e+01	-7.337933e+01
7.500000e-07	-4.426114e-06	-1.090304e-09	-3.074336e+01	-7.327842e+01
7.600000e-07	-4.397692e-06	-1.083841e-09	-3.054594e+01	-7.317273e+01
7.700000e-07	-4.369027e-06	-1.095166e-09	-3.034684e+01	-7.306194e+01
7.800000e-07	-4.340102e-06	-1.089999e-09	-3.014593e+01	-7.294581e+01
7.900000e-07	-4.310819e-06	-1.083658e-09	-2.994253e+01	-7.282413e+01
8.000000e-07	-4.281209e-06	-1.087564e-09	-2.973687e+01	-7.269679e+01
8.100000e-07	-4.251351e-06	-1.078292e-09	-2.952948e+01	-7.256370e+01
8.200000e-07	-4.221240e-06	-1.064107e-09	-2.932032e+01	-7.242485e+01
8.300000e-07	-4.190816e-06	-1.065665e-09	-2.910901e+01	-7.228026e+01
8.400000e-07	-4.160108e-06	-1.067708e-09	-2.889571e+01	-7.213002e+01
8.500000e-07	-4.129107e-06	-1.058275e-09	-2.868038e+01	-7.197423e+01
8.600000e-07	-4.097806e-06	-1.061492e-09	-2.846297e+01	-7.181306e+01
8.700000e-07	-4.066288e-06	-1.063643e-09	-2.824404e+01	-7.164670e+01
8.800000e-07	-4.034603e-06	-1.051271e-09	-2.802397e+01	-7.147536e+01
8.900000e-07	-4.002722e-06	-1.042889e-09	-2.780252e+01	-7.129929e+01
9.000000e-07	-3.970631e-06	-1.048372e-09	-2.757962e+01	-7.111874e+01
9.100000e-07	-3.938278e-06	-1.040560e-09	-2.735490e+01	-7.093399e+01
9.200000e-07	-3.905580e-06	-1.033977e-09	-2.712778e+01	-7.074532e+01
9.300000e-07	-3.872514e-06	-1.039581e-09	-2.689811e+01	-7.055303e+01
9.400000e-07	-3.839001e-06	-1.039713e-09	-2.666533e+01	-7.035741e+01
9.500000e-07	-3.804998e-06	-1.025666e-09	-2.642915e+01	-7.015876e+01
9.600000e-07	-3.770536e-06	-1.025293e-09	-2.618978e+01	-6.995737e+01
9.700000e-07	-3.735700e-06	-1.025076e-09	-2.594781e+01	-6.975354e+01
9.800000e-07	-3.700550e-06	-1.014680e-09	-2.570367e+01	-6.954755e+01
9.900000e-07	-3.665136e-06	-1.010030e-09	-2.545768e+01	-6.933968e+01
1.000000e-06	-3.629504e-06	-1.014257e-09	-2.521018e+01	-6.913021e+01
1.010000e-06	-3.593660e-06	-1.008080e-09	-2.496122e+01	-6.891939e+01
1.020000e-06	-3.557679e-06	-1.002000e-09	-2.471130e+01	-6.870747e+01
1.030000e-06	-3.521557e-06	-1.003728e-09	-2.446040e+01	-6.849470e+01
1.040000e-06	-3.485221e-06	-1.000685e-09	-2.420801e+01	-6.828130e+01
1.050000e-06	-3.448678e-06	-9.909927e-10	-2.395419e+01	-6.806749e+01
1.060000e-06	-3.411882e-06	-9.906620e-10	-2.369860e+01	-6.785346e+01
1.070000e-06	-3.374779e-06	-9.914273e-10	-2.344089e+01	-6.763938e+01
1.080000e-06	-3.337431e-06	-9.844414e-10	-2.318148e+01	-6.742543e+01
1.090000e-06	-3.299830e-06	-9.817787e-10	-2.292030e+01	-6.721174e+01
1.100000e-06	-3.261988e-06	-9.853265e-10	-2.265745e+01	-6.699844e+01
1.110000e-06	-3.224008e-06	-9.813934e-10	-2.239365e+01	-6.678561e+01
1.120000e-06	-3.185792e-06	-9.733754e-10	-2.212821e+01	-6.657332e+01
1.130000e-06	-3.147322e-06	-9.727235e-10	-2.186100e+01	-6.636161e+01
1.140000e-06	-3.108634e-06	-9.700494e-10	-2.159227e+01	-6.615049e+01
1.150000e-06	-3.069750e-06	-9.653894e-10	-2.132219e+01	-6.593992e+01
1.160000e-06	-3.030696e-06	-9.654302e-10	-2.105092e+01	-6.572985e+01
1.170000e-06	-2.991430e-06	-9.638701e-10	-2.077819e+01	-6.552015e+01
1.180000e-06	-2.951973e-06	-9.575886e-10	-2.050412e+01	-6.531070e+01
1.190000e-06	-2.912320e-06	-9.565018e-10	-2.022870e+01	-6.510129e+01
1.200000e-06	-2.872525e-06	-9.568130e-10	-1.995228e+01	-6.489171e+01
1.210000e-06	-2.832603e-06	-9.524405e-10	-1.967499e+01	-6.468166e+01
1.220000e-06	-2.792511e-06	-9.427313e-10	-1.939652e+01	-6.447084e+01
1.230000e-06	-2.752295e-06	-9.373416e-10	-1.911718e+01	-6.425887e+01
1.240000e-06	-2.711971e-06	-9.318062e-10	-1.883709e+01	-6.404535e+01
1.250000e-06	-2.671493e-06	-9.279078e-10	-1.855594e+01	-6.382983e+01
1.260000e-06	-2.630792e-06	-9.266050e-10	-1.827323e+01	-6.361183e+01
1.270000e-06	-2.589798e-06	-9.251003e-10	-1.798849e+01	-6.339083e+01
1.280000e-06	-2.548514e-06	-9.202713e-10	-1.770173e+01	-6.316627e+01
1.290000e-06	-2.506928e-06	-9.127995e-10	-1.741288e+01	-6.293758e+01
1.300000e-06	-2.465106e-06	-9.075451e-10	-1.712239e+01	-6.270416e+01
1.310000e-06	-2.422960e-06	-9.019222e-10	-1.682965e+01	-6.246538e+01
1.320000e-06	-2.380411e-06	-8.962897e-10	-1.653411e+01	-6.222064e+01
1.330000e-06	-2.337623e-06	-8.927412e-10	-1.623691e+01	-6.196930e+01
1.340000e-06	-2.294664e-06	-8.879676e-10	-1.593852e+01	-6.171073e+01
1.350000e-06	-2.251511e-06	-8.841633e-10	-1.563878e+01	-6.144432e+01
1.360000e-06	-2.208176e-06	-8.826586e-10	-1.533778e+01	-6.116947e+01
1.370000e-06	-2.164643e-06	-8.812870e-10	-1.503540e+01	-6.088559e+01
1.380000e-06	-2.120901e-06	-8.752216e-10	-1.473158e+01	-6.059214e+01
1.390000e-06	-2.077071e-06	-8.689805e-10	-1.442714e+01	-6.028860e+01
1.400000e-06	-2.033229e-06	-8.643628e-10	-1.412261e+01	-5.997447e+01
1.410000e-06	-1.989312e-06	-8.589215e-10	-1.381757e+01	-5.964931e+01
1.420000e-06	-1.945216e-06	-8.513524e-10	-1.351129e+01	-5.931272e+01
1.430000e-06	-1.901036e-06	-8.432892e-10	-1.320441e+01	-5.896434e+01
1.440000e-06	-1.856805e-06	-8.367515e-10	-1.289719e+01	-5.860384e+01
1.450000e-06	-1.812482e-06	-8.298773e-10	-1.258933e+01	-5.823096e+01
1.460000e-06	-1.768080e-06	-8.237339e-10	-1.228091e+01	-5.784546e+01
1.470000e-06	-1.723553e-06	-8.171453e-10	-1.197163e+01	-5.744715e+01
1.480000e-06	-1.678900e-06	-8.090491e-10	-1.166148e+01	-5.703587e+01
1.490000e-06	-1.634098e-06	-7.997098e-10	-1.135029e+01	-5.661149e+01
1.500000e-06	-1.589259e-06	-7.889307e-10	-1.103884e+01	-5.617390e+01
1.510000e-06	-1.544310e-06	-7.771766e-10	-1.072663e+01	-5.572301e+01
1.520000e-06	-1.499191e-06	-7.668376e-10	-1.041324e+01	-5.525874e+01
1.530000e-06	-1.454012e-06	-7.589552e-10	-1.009943e+01	-5.478102e+01
1.540000e-06	-1.408689e-06	-7.514097e-10	-9.784617e+00	-5.428974e+01
1.550000e-06	-1.363254e-06	-7.416320e-10	-9.469031e+00	-5.378482e+01
1.560000e-06	-1.317710e-06	-7.319722e-10	-9.152685e+00	-5.326611e+01
1.570000e-06	-1.272039e-06	-7.244700e-10	-8.835462e+00	-5.273346e+01
1.580000e-06	-1.226341e-06	-7.183959e-10	-8.518046e+00	-5.218665e+01
1.590000e-06	-1.180558e-06	-7.115333e-10	-8.200042e+00	-5.162543e+01
1.600000e-06	-1.134690e-06	-7.046356e-10	-7.881444e+00	-5.104949e+01
1.610000e-06	-1.088722e-06	-6.980638e-10	-7.562157e+00	-5.045844e+01
1.620000e-06	-1.042609e-06	-6.921748e-10	-7.241864e+00	-4.985184e+01
1.630000e-06	-9.964723e-07	-6.863444e-10	-6.921401e+00	-4.922917e+01
1.640000e-06	-9.503240e-07	-6.778980e-10	-6.600859e+00	-4.858983e+01
1.650000e-06	-9.041080e-07	-6.662534e-10	-6.279847e+00	-4.793314e+01
1.660000e-06	-8.578556e-07	-6.535036e-10	-5.958583e+00	-4.725836e+01
1.670000e-06	-8.116131e-07	-6.394059e-10	-5.637386e+00	-4.656466e+01
1.680000e-06	-7.652925e-07	-6.264896e-10	-5.315648e+00	-4.585115e+01
1.690000e-06	-7.188816e-07	-6.150899e-10	-4.993283e+00	-4.511686e+01
1.700000e-06	-6.724948e-07	-6.023835e-10	-4.671084e+00	-4.436076e+01
1.710000e-06	-6.260102e-07	-5.904889e-10	-4.348207e+00	-4.358179e+01
1.720000e-06	-5.793547e-07	-5.800898e-10	-4.024142e+00	-4.277884e+01
1.730000e-06	-5.326578e-07	-5.672891e-10	-3.699790e+00	-4.195074e+01
1.740000e-06	-4.859310e-07	-5.523478e-10	-3.375230e+00	-4.109634e+01
1.750000e-06	-4.391626e-07	-5.381608e-10	-3.050381e+00	-4.021445e+01
1.760000e-06	-3.923485e-07	-5.243711e-10	-2.725215e+00	-3.930392e+01
1.770000e-06	-3.455153e-07	-5.109971e-10	-2.399916e+00	-3.836360e+01
1.780000e-06	-2.987112e-07	-4.987328e-10	-2.074819e+00	-3.739236e+01
1.790000e-06	-2.519167e-07	-4.870180e-10	-1.749789e+00	-3.638916e+01
1.800000e-06	-2.051346e-07	-4.742776e-10	-1.424845e+00	-3.535299e+01
1.810000e-06	-1.583824e-07	-4.604608e-10	-1.100109e+00	-3.428292e+01
1.820000e-06	-1.115545e-07	-4.450984e-10	-7.748469e-01	-3.317814e+01
1.830000e-06	-6.475297e-08	-4.276257e-10	-4.497679e-01	-3.203791e+01
1.840000e-06	-1.801374e-08	-4.100950e-10	-1.251217e-01	-3.086165e+01
1.850000e-06	2.875334e-08	-3.940805e-10	1.997179e-01	-2.964885e+01
1.860000e-06	7.553241e-08	-3.777035e-10	5.246409e-01	-2.839920e+01
1.870000e-06	1.223437e-07	-3.591777e-10	8.497876e-01	-2.711251e+01
1.880000e-06	1.692031e-07	-3.401194e-10	1.175268e+00	-2.578873e+01
1.890000e-06	2.160796e-07	-3.213384e-10	1.500868e+00	-2.442799e+01
1.900000e-06	2.629350e-07	-3.005682e-10	1.826321e+00	-2.303060e+01
1.910000e-06	3.097256e-07	-2.773392e-10	2.151324e+00	-2.159701e+01
1.920000e-06	3.564056e-07	-2.532960e-10	2.475559e+00	-2.012785e+01
1.930000e-06	4.030759e-07	-2.313912e-10	2.799727e+00	-1.862393e+01
1.940000e-06	4.497426e-07	-2.102672e-10	3.123869e+00	-1.708621e+01
1.950000e-06	4.963848e-07	-1.875693e-10	3.447841e+00	-1.551583e+01
1.960000e-06	5.430419e-07	-1.651314e-10	3.771917e+00	-1.391408e+01
1.970000e-06	5.896586e-07	-1.439476e-10	4.095712e+00	-1.228242e+01
1.980000e-06	6.361852e-07	-1.223728e-10	4.418881e+00	-1.062242e+01
1.990000e-06	6.826165e-07	-9.953265e-11	4.741389e+00	-8.935829e+00
2.000000e-06	7.290170e-07	-7.369939e-11	5.063682e+00	-7.224498e+00
2.010000e-06	7.753460e-07	-4.571141e-11	5.385479e+00	-5.490407e+00
2.020000e-06	8.215836e-07	-1.883835e-11	5.706641e+00	-3.735639e+00
2.030000e-06	8.678132e-07	5.369397e-12	6.027747e+00	-1.962374e+00
2.040000e-06	9.139595e-07	2.817309e-11	6.348275e+00	-1.728750e-01
2.050000e-06	9.601366e-07	5.210220e-11	6.669016e+00	1.630526e+00
2.060000e-06	1.006316e-06	7.735621e-11	6.989774e+00	3.445436e+00
2.070000e-06	1.052319e-06	1.041339e-10	7.309306e+00	5.269421e+00
2.080000e-06	1.098211e-06	1.308014e-10	7.628071e+00	7.100011e+00
2.090000e-06	1.144036e-06	1.567309e-10	7.946363e+00	8.934718e+00
2.100000e-06	1.189799e-06	1.828739e-10	8.264232e+00	1.077105e+01
2.110000e-06	1.235475e-06	2.085348e-10	8.581488e+00	1.260651e+01
2.120000e-06	1.281045e-06	2.346055e-10	8.898013e+00	1.443864e+01
2.130000e-06	1.326541e-06	2.620255e-10	9.214027e+00	1.626499e+01
2.140000e-06	1.371937e-06	2.879241e-10	9.529344e+00	1.808315e+01
2.150000e-06	1.417263e-06	3.118373e-10	9.844172e+00	1.989078e+01
2.160000e-06	1.462489e-06	3.363392e-10	1.015831e+01	2.168559e+01
2.170000e-06	1.507526e-06	3.604330e-10	1.047113e+01	2.346536e+01
2.180000e-06	1.552441e-06	3.829406e-10	1.078310e+01	2.522795e+01
2.190000e-06	1.597300e-06	4.066648e-10	1.109470e+01	2.697130e+01
2.200000e-06	1.642021e-06	4.313888e-10	1.140532e+01	2.869347e+01
2.210000e-06	1.686586e-06	4.543908e-10	1.171486e+01	3.039260e+01
2.220000e-06	1.731064e-06	4.762918e-10	1.202380e+01	3.206694e+01
2.230000e-06	1.775426e-06	4.979453e-10	1.233194e+01	3.371488e+01
2.240000e-06	1.819645e-06	5.182927e-10	1.263908e+01	3.533489e+01
2.250000e-06	1.863761e-06	5.383562e-10	1.294551e+01	3.692559e+01
2.260000e-06	1.907841e-06	5.595575e-10	1.325168e+01	3.848572e+01
2.270000e-06	1.951883e-06	5.814771e-10	1.355759e+01	4.001415e+01
2.280000e-06	1.995829e-06	6.032097e-10	1.386284e+01	4.150987e+01
2.290000e-06	2.039716e-06	6.223721e-10	1.416767e+01	4.297203e+01
2.300000e-06	2.083575e-06	6.390131e-10	1.447231e+01	4.439988e+01
2.310000e-06	2.127343e-06	6.560851e-10	1.477632e+01	4.579281e+01
2.320000e-06	2.171004e-06	6.739302e-10	1.507959e+01	4.715034e+01
2.330000e-06	2.214556e-06	6.923463e-10	1.538209e+01	4.847213e+01
2.340000e-06	2.257990e-06	7.112035e-10	1.568378e+01	4.975793e+01
2.350000e-06	2.301302e-06	7.304697e-10	1.598462e+01	5.100764e+01
2.360000e-06	2.344313e-06	7.494188e-10	1.628338e+01	5.222125e+01
2.370000e-06	2.386952e-06	7.665336e-10	1.657954e+01	5.339888e+01
2.380000e-06	2.429243e-06	7.808935e-10	1.687329e+01	5.454072e+01
2.390000e-06	2.471184e-06	7.925145e-10	1.716460e+01	5.564709e+01
2.400000e-06	2.512882e-06	8.031573e-10	1.745424e+01	5.671837e+01
2.410000e-06	2.554376e-06	8.149507e-10	1.774245e+01	5.775502e+01
2.420000e-06	2.595581e-06	8.274794e-10	1.802866e+01	5.875757e+01
2.430000e-06	2.636420e-06	8.403364e-10	1.831232e+01	5.972663e+01
2.440000e-06	2.677016e-06	8.537084e-10	1.859430e+01	6.066283e+01
2.450000e-06	2.717436e-06	8.653170e-10	1.887505e+01	6.156687e+01
2.460000e-06	2.757651e-06	8.779336e-10	1.915438e+01	6.243946e+01
2.470000e-06	2.797730e-06	8.895734e-10	1.943276e+01	6.328136e+01
2.480000e-06	2.837677e-06	8.977231e-10	1.971023e+01	6.409332e+01
2.490000e-06	2.877473e-06	9.058365e-10	1.998665e+01	6.487612e+01
2.500000e-06	2.917128e-06	9.157487e-10	2.026209e+01	6.563052e+01
2.510000e-06	2.956633e-06	9.271103e-10	2.053649e+01	6.635730e+01
2.520000e-06	2.995973e-06	9.375098e-10	2.080974e+01	6.705720e+01
2.530000e-06	3.035147e-06	9.469726e-10	2.108184e+01	6.773098e+01
2.540000e-06	3.074044e-06	9.552885e-10	2.135202e+01	6.837934e+01
2.550000e-06	3.112649e-06	9.644659e-10	2.162016e+01	6.900298e+01
2.560000e-06	3.151073e-06	9.738307e-10	2.188705e+01	6.960257e+01
2.570000e-06	3.189338e-06	9.840387e-10	2.215284e+01	7.017875e+01
2.580000e-06	3.227475e-06	9.950562e-10	2.241773e+01	7.073213e+01
2.590000e-06	3.265405e-06	1.002348e-09	2.268119e+01	7.126331e+01
2.600000e-06	3.303062e-06	1.006161e-09	2.294275e+01	7.177283e+01
2.610000e-06	3.340516e-06	1.010122e-09	2.320290e+01	7.226125e+01
2.620000e-06	3.377698e-06	1.016167e-09	2.346117e+01	7.272909e+01
2.630000e-06	3.414582e-06	1.023447e-09	2.371736e+01	7.317684e+01
2.640000e-06	3.451227e-06	1.031805e-09	2.397189e+01	7.360502e+01
2.650000e-06	3.487640e-06	1.040892e-09	2.422481e+01	7.401410e+01
2.660000e-06	3.523839e-06	1.048416e-09	2.447625e+01	7.440458e+01
2.670000e-06	3.559895e-06	1.054003e-09	2.472669e+01	7.477695e+01
2.680000e-06	3.595852e-06	1.058241e-09	2.497644e+01	7.513172e+01
2.690000e-06	3.631687e-06	1.062739e-09	2.522535e+01	7.546940e+01
2.700000e-06	3.667360e-06	1.067084e-09	2.547313e+01	7.579053e+01
2.710000e-06	3.702870e-06	1.071798e-09	2.571978e+01	7.609568e+01
2.720000e-06	3.738143e-06	1.078734e-09	2.596478e+01	7.638542e+01
2.730000e-06	3.772959e-06	1.085897e-09	2.620661e+01	7.666036e+01
2.740000e-06	3.807278e-06	1.092520e-09	2.644499e+01	7.692116e+01
2.750000e-06	3.841047e-06	1.099371e-09	2.667954e+01	7.716847e+01
2.760000e-06	3.874317e-06	1.103571e-09	2.691063e+01	7.740300e+01
2.770000e-06	3.907239e-06	1.106384e-09	2.713931e+01	7.762546e+01
2.780000e-06	3.939785e-06	1.111113e-09	2.736537e+01	7.783661e+01
2.790000e-06	3.972030e-06	1.117020e-09	2.758934e+01	7.803721e+01
2.800000e-06	4.004135e-06	1.124036e-09	2.781234e+01	7.822803e+01
2.810000e-06	4.036121e-06	1.128695e-09	2.803451e+01	7.840987e+01
2.820000e-06	4.067940e-06	1.131698e-09	2.825552e+01	7.858351e+01
2.830000e-06	4.099554e-06	1.134058e-09	2.847511e+01	7.874972e+01
2.840000e-06	4.130949e-06	1.136052e-09	2.869318e+01	7.890927e+01
2.850000e-06	4.162052e-06	1.137378e-09	2.890922e+01	7.906291e+01
2.860000e-06	4.192716e-06	1.138793e-09	2.912221e+01	7.921133e+01
2.870000e-06	4.223037e-06	1.141296e-09	2.933281e+01	7.935519e+01
2.880000e-06	4.253097e-06	1.145882e-09	2.954160e+01	7.949512e+01
2.890000e-06	4.282892e-06	1.152664e-09	2.974855e+01	7.963166e+01
2.900000e-06	4.312451e-06	1.157954e-09	2.995387e+01	7.976531e+01
