# Temperatura_=_-13.41
# Concentracion g/m^3_=_1620.0
# C_Vs_to_Am_M_A/Vsm_=_65563218390.804596
# pendiente_HvsI_1/m_=_3716.3
# ordenada_HvsI_A/m_=_1297.0
# frecuencia_Hz_=_135104.71027832926

Tiempo_(s)	Campo_(V.s)	Magnetizacion_(V.s)	Campo_(kA/m)	Magnetizacion_(A/m)
0.000000e+00	-5.515910e-06	-9.817592e-10	-3.836929e+01	-6.451258e+01
1.000000e-08	-5.516094e-06	-9.830918e-10	-3.837056e+01	-6.451008e+01
2.000000e-08	-5.516060e-06	-9.843856e-10	-3.837033e+01	-6.451214e+01
3.000000e-08	-5.515757e-06	-9.855202e-10	-3.836822e+01	-6.451870e+01
4.000000e-08	-5.515009e-06	-9.860533e-10	-3.836302e+01	-6.452959e+01
5.000000e-08	-5.513704e-06	-9.836134e-10	-3.835394e+01	-6.454457e+01
6.000000e-08	-5.511836e-06	-9.718763e-10	-3.834095e+01	-6.456331e+01
7.000000e-08	-5.509362e-06	-9.583421e-10	-3.832374e+01	-6.458541e+01
8.000000e-08	-5.506248e-06	-9.716010e-10	-3.830208e+01	-6.461038e+01
9.000000e-08	-5.502650e-06	-1.009921e-09	-3.827705e+01	-6.463768e+01
1.000000e-07	-5.498706e-06	-1.031551e-09	-3.824962e+01	-6.466670e+01
1.100000e-07	-5.494472e-06	-1.006194e-09	-3.822016e+01	-6.469678e+01
1.200000e-07	-5.489955e-06	-9.317404e-10	-3.818874e+01	-6.472724e+01
1.300000e-07	-5.485180e-06	-9.196597e-10	-3.815552e+01	-6.475735e+01
1.400000e-07	-5.480056e-06	-9.764058e-10	-3.811988e+01	-6.478638e+01
1.500000e-07	-5.474542e-06	-1.008314e-09	-3.808153e+01	-6.481360e+01
1.600000e-07	-5.468676e-06	-9.730793e-10	-3.804072e+01	-6.483829e+01
1.700000e-07	-5.462490e-06	-9.325754e-10	-3.799769e+01	-6.485976e+01
1.800000e-07	-5.455888e-06	-9.796892e-10	-3.795177e+01	-6.487733e+01
1.900000e-07	-5.448781e-06	-1.000690e-09	-3.790233e+01	-6.489040e+01
2.000000e-07	-5.441322e-06	-9.743486e-10	-3.785045e+01	-6.489843e+01
2.100000e-07	-5.433609e-06	-9.375771e-10	-3.779679e+01	-6.490092e+01
2.200000e-07	-5.425674e-06	-9.841549e-10	-3.774160e+01	-6.489747e+01
2.300000e-07	-5.417521e-06	-1.006300e-09	-3.768489e+01	-6.488776e+01
2.400000e-07	-5.408978e-06	-9.889663e-10	-3.762545e+01	-6.487157e+01
2.500000e-07	-5.399799e-06	-9.542747e-10	-3.756160e+01	-6.484874e+01
2.600000e-07	-5.389889e-06	-9.627146e-10	-3.749267e+01	-6.481925e+01
2.700000e-07	-5.379286e-06	-9.838946e-10	-3.741891e+01	-6.478314e+01
2.800000e-07	-5.368161e-06	-9.865645e-10	-3.734153e+01	-6.474057e+01
2.900000e-07	-5.356677e-06	-9.733061e-10	-3.726164e+01	-6.469177e+01
3.000000e-07	-5.344834e-06	-9.682029e-10	-3.717926e+01	-6.463707e+01
3.100000e-07	-5.332587e-06	-9.737249e-10	-3.709407e+01	-6.457687e+01
3.200000e-07	-5.319963e-06	-9.620345e-10	-3.700626e+01	-6.451166e+01
3.300000e-07	-5.306925e-06	-9.573783e-10	-3.691556e+01	-6.444196e+01
3.400000e-07	-5.293441e-06	-9.585941e-10	-3.682177e+01	-6.436839e+01
3.500000e-07	-5.279599e-06	-9.831181e-10	-3.672548e+01	-6.429158e+01
3.600000e-07	-5.265429e-06	-9.827500e-10	-3.662692e+01	-6.421220e+01
3.700000e-07	-5.250677e-06	-9.758556e-10	-3.652429e+01	-6.413095e+01
3.800000e-07	-5.235298e-06	-9.642141e-10	-3.641732e+01	-6.404852e+01
3.900000e-07	-5.219434e-06	-9.692399e-10	-3.630697e+01	-6.396564e+01
4.000000e-07	-5.203110e-06	-9.559523e-10	-3.619342e+01	-6.388298e+01
4.100000e-07	-5.186458e-06	-9.641871e-10	-3.607758e+01	-6.380121e+01
4.200000e-07	-5.169506e-06	-9.802505e-10	-3.595966e+01	-6.372098e+01
4.300000e-07	-5.152196e-06	-9.773842e-10	-3.583925e+01	-6.364288e+01
4.400000e-07	-5.134464e-06	-9.538767e-10	-3.571591e+01	-6.356746e+01
4.500000e-07	-5.116393e-06	-9.737870e-10	-3.559020e+01	-6.349521e+01
4.600000e-07	-5.098051e-06	-9.753176e-10	-3.546261e+01	-6.342656e+01
4.700000e-07	-5.079318e-06	-9.397615e-10	-3.533230e+01	-6.336188e+01
4.800000e-07	-5.060177e-06	-9.340874e-10	-3.519916e+01	-6.330146e+01
4.900000e-07	-5.040765e-06	-9.734602e-10	-3.506413e+01	-6.324554e+01
5.000000e-07	-5.021118e-06	-9.597282e-10	-3.492746e+01	-6.319426e+01
5.100000e-07	-5.001224e-06	-9.385713e-10	-3.478907e+01	-6.314773e+01
5.200000e-07	-4.981029e-06	-9.628380e-10	-3.464859e+01	-6.310595e+01
5.300000e-07	-4.960536e-06	-9.681868e-10	-3.450605e+01	-6.306889e+01
5.400000e-07	-4.939696e-06	-9.356899e-10	-3.436108e+01	-6.303643e+01
5.500000e-07	-4.918472e-06	-9.483812e-10	-3.421344e+01	-6.300841e+01
5.600000e-07	-4.896959e-06	-9.658687e-10	-3.406379e+01	-6.298461e+01
5.700000e-07	-4.875080e-06	-9.360487e-10	-3.391160e+01	-6.296477e+01
5.800000e-07	-4.852835e-06	-9.300861e-10	-3.375686e+01	-6.294859e+01
5.900000e-07	-4.830279e-06	-9.559185e-10	-3.359996e+01	-6.293573e+01
6.000000e-07	-4.807349e-06	-9.415232e-10	-3.344046e+01	-6.292584e+01
6.100000e-07	-4.784107e-06	-9.204177e-10	-3.327878e+01	-6.291851e+01
6.200000e-07	-4.760626e-06	-9.443550e-10	-3.311544e+01	-6.291337e+01
6.300000e-07	-4.736860e-06	-9.475130e-10	-3.295013e+01	-6.291000e+01
6.400000e-07	-4.712840e-06	-9.290204e-10	-3.278305e+01	-6.290799e+01
6.500000e-07	-4.688628e-06	-9.346876e-10	-3.261462e+01	-6.290694e+01
6.600000e-07	-4.664003e-06	-9.464220e-10	-3.244333e+01	-6.290644e+01
6.700000e-07	-4.638825e-06	-9.296490e-10	-3.226819e+01	-6.290611e+01
6.800000e-07	-4.613170e-06	-9.306664e-10	-3.208973e+01	-6.290557e+01
6.900000e-07	-4.586933e-06	-9.398464e-10	-3.190722e+01	-6.290447e+01
7.000000e-07	-4.560130e-06	-9.329276e-10	-3.172077e+01	-6.290248e+01
7.100000e-07	-4.532917e-06	-9.248398e-10	-3.153148e+01	-6.289928e+01
7.200000e-07	-4.505421e-06	-9.378402e-10	-3.134021e+01	-6.289459e+01
7.300000e-07	-4.477729e-06	-9.358974e-10	-3.114758e+01	-6.288813e+01
7.400000e-07	-4.449907e-06	-9.287445e-10	-3.095405e+01	-6.287969e+01
7.500000e-07	-4.421889e-06	-9.282683e-10	-3.075915e+01	-6.286903e+01
7.600000e-07	-4.393606e-06	-9.272678e-10	-3.056242e+01	-6.285597e+01
7.700000e-07	-4.365058e-06	-9.174024e-10	-3.036383e+01	-6.284036e+01
7.800000e-07	-4.336136e-06	-9.179253e-10	-3.016265e+01	-6.282205e+01
7.900000e-07	-4.306847e-06	-9.206160e-10	-2.995891e+01	-6.280092e+01
8.000000e-07	-4.277240e-06	-9.202209e-10	-2.975296e+01	-6.277688e+01
8.100000e-07	-4.247372e-06	-9.195313e-10	-2.954520e+01	-6.274986e+01
8.200000e-07	-4.217258e-06	-9.204765e-10	-2.933572e+01	-6.271981e+01
8.300000e-07	-4.186875e-06	-9.129975e-10	-2.912437e+01	-6.268669e+01
8.400000e-07	-4.156215e-06	-9.094273e-10	-2.891110e+01	-6.265049e+01
8.500000e-07	-4.125261e-06	-9.126110e-10	-2.869578e+01	-6.261122e+01
8.600000e-07	-4.094036e-06	-9.103920e-10	-2.847857e+01	-6.256889e+01
8.700000e-07	-4.062546e-06	-9.041002e-10	-2.825953e+01	-6.252353e+01
8.800000e-07	-4.030851e-06	-9.046362e-10	-2.803905e+01	-6.247522e+01
8.900000e-07	-3.999021e-06	-9.036827e-10	-2.781764e+01	-6.242400e+01
9.000000e-07	-3.967010e-06	-8.985936e-10	-2.759497e+01	-6.236998e+01
9.100000e-07	-3.934768e-06	-9.003229e-10	-2.737069e+01	-6.231323e+01
9.200000e-07	-3.902199e-06	-9.026980e-10	-2.714414e+01	-6.225389e+01
9.300000e-07	-3.869165e-06	-9.045676e-10	-2.691434e+01	-6.219206e+01
9.400000e-07	-3.835663e-06	-9.058165e-10	-2.668130e+01	-6.212789e+01
9.500000e-07	-3.801744e-06	-9.075356e-10	-2.644536e+01	-6.206152e+01
9.600000e-07	-3.767452e-06	-8.998961e-10	-2.620682e+01	-6.199312e+01
9.700000e-07	-3.732781e-06	-8.932055e-10	-2.596564e+01	-6.192285e+01
9.800000e-07	-3.697754e-06	-8.922210e-10	-2.572199e+01	-6.185088e+01
9.900000e-07	-3.662425e-06	-8.929263e-10	-2.547624e+01	-6.177739e+01
1.000000e-06	-3.626867e-06	-8.901471e-10	-2.522889e+01	-6.170257e+01
1.010000e-06	-3.591104e-06	-8.931319e-10	-2.498012e+01	-6.162658e+01
1.020000e-06	-3.555201e-06	-8.944241e-10	-2.473037e+01	-6.154962e+01
1.030000e-06	-3.519214e-06	-8.919526e-10	-2.448005e+01	-6.147185e+01
1.040000e-06	-3.482995e-06	-8.876743e-10	-2.422810e+01	-6.139345e+01
1.050000e-06	-3.446533e-06	-8.894509e-10	-2.397447e+01	-6.131455e+01
1.060000e-06	-3.409821e-06	-8.884931e-10	-2.371909e+01	-6.123532e+01
1.070000e-06	-3.372848e-06	-8.879252e-10	-2.346191e+01	-6.115586e+01
1.080000e-06	-3.335666e-06	-8.890199e-10	-2.320327e+01	-6.107628e+01
1.090000e-06	-3.298164e-06	-8.864985e-10	-2.294240e+01	-6.099666e+01
1.100000e-06	-3.260408e-06	-8.791594e-10	-2.267977e+01	-6.091705e+01
1.110000e-06	-3.222479e-06	-8.765117e-10	-2.241592e+01	-6.083748e+01
1.120000e-06	-3.184319e-06	-8.760802e-10	-2.215048e+01	-6.075793e+01
1.130000e-06	-3.145929e-06	-8.763566e-10	-2.188344e+01	-6.067838e+01
1.140000e-06	-3.107306e-06	-8.796169e-10	-2.161477e+01	-6.059873e+01
1.150000e-06	-3.068506e-06	-8.843976e-10	-2.134487e+01	-6.051890e+01
1.160000e-06	-3.029557e-06	-8.847641e-10	-2.107394e+01	-6.043874e+01
1.170000e-06	-2.990425e-06	-8.795014e-10	-2.080173e+01	-6.035807e+01
1.180000e-06	-2.951096e-06	-8.739129e-10	-2.052815e+01	-6.027668e+01
1.190000e-06	-2.911561e-06	-8.680275e-10	-2.025315e+01	-6.019434e+01
1.200000e-06	-2.871863e-06	-8.624922e-10	-1.997700e+01	-6.011076e+01
1.210000e-06	-2.832035e-06	-8.602864e-10	-1.969996e+01	-6.002565e+01
1.220000e-06	-2.792070e-06	-8.627301e-10	-1.942195e+01	-5.993869e+01
1.230000e-06	-2.751967e-06	-8.667521e-10	-1.914299e+01	-5.984953e+01
1.240000e-06	-2.711707e-06	-8.729109e-10	-1.886294e+01	-5.975780e+01
1.250000e-06	-2.671264e-06	-8.746209e-10	-1.858161e+01	-5.966313e+01
1.260000e-06	-2.630597e-06	-8.713057e-10	-1.829873e+01	-5.956512e+01
1.270000e-06	-2.589695e-06	-8.637380e-10	-1.801421e+01	-5.946338e+01
1.280000e-06	-2.548567e-06	-8.566991e-10	-1.772811e+01	-5.935751e+01
1.290000e-06	-2.507075e-06	-8.482082e-10	-1.743949e+01	-5.924711e+01
1.300000e-06	-2.465237e-06	-8.434675e-10	-1.714847e+01	-5.913179e+01
1.310000e-06	-2.423180e-06	-8.455086e-10	-1.685591e+01	-5.901116e+01
1.320000e-06	-2.380819e-06	-8.503234e-10	-1.656125e+01	-5.888485e+01
1.330000e-06	-2.338071e-06	-8.497925e-10	-1.626388e+01	-5.875249e+01
1.340000e-06	-2.295016e-06	-8.444837e-10	-1.596439e+01	-5.861375e+01
1.350000e-06	-2.251777e-06	-8.383073e-10	-1.566362e+01	-5.846828e+01
1.360000e-06	-2.208414e-06	-8.339326e-10	-1.536197e+01	-5.831577e+01
1.370000e-06	-2.164905e-06	-8.292321e-10	-1.505932e+01	-5.815594e+01
1.380000e-06	-2.121239e-06	-8.259768e-10	-1.475557e+01	-5.798849e+01
1.390000e-06	-2.077546e-06	-8.236921e-10	-1.445165e+01	-5.781318e+01
1.400000e-06	-2.033840e-06	-8.219169e-10	-1.414762e+01	-5.762973e+01
1.410000e-06	-1.990069e-06	-8.217164e-10	-1.384314e+01	-5.743793e+01
1.420000e-06	-1.946235e-06	-8.202209e-10	-1.353823e+01	-5.723753e+01
1.430000e-06	-1.902309e-06	-8.144038e-10	-1.323267e+01	-5.702830e+01
1.440000e-06	-1.858287e-06	-8.073490e-10	-1.292645e+01	-5.681003e+01
1.450000e-06	-1.814160e-06	-8.015413e-10	-1.261950e+01	-5.658248e+01
1.460000e-06	-1.769889e-06	-7.960456e-10	-1.231154e+01	-5.634541e+01
1.470000e-06	-1.725499e-06	-7.921686e-10	-1.200276e+01	-5.609857e+01
1.480000e-06	-1.680970e-06	-7.879342e-10	-1.169302e+01	-5.584169e+01
1.490000e-06	-1.636239e-06	-7.808777e-10	-1.138186e+01	-5.557450e+01
1.500000e-06	-1.591383e-06	-7.694106e-10	-1.106984e+01	-5.529667e+01
1.510000e-06	-1.546427e-06	-7.592030e-10	-1.075712e+01	-5.500786e+01
1.520000e-06	-1.501335e-06	-7.535451e-10	-1.044345e+01	-5.470769e+01
1.530000e-06	-1.456125e-06	-7.497804e-10	-1.012897e+01	-5.439576e+01
1.540000e-06	-1.410829e-06	-7.458361e-10	-9.813885e+00	-5.407162e+01
1.550000e-06	-1.365447e-06	-7.390666e-10	-9.498199e+00	-5.373477e+01
1.560000e-06	-1.319965e-06	-7.285248e-10	-9.181822e+00	-5.338469e+01
1.570000e-06	-1.274409e-06	-7.190721e-10	-8.864930e+00	-5.302081e+01
1.580000e-06	-1.228774e-06	-7.112079e-10	-8.547489e+00	-5.264252e+01
1.590000e-06	-1.183036e-06	-7.037549e-10	-8.229331e+00	-5.224916e+01
1.600000e-06	-1.137231e-06	-6.970225e-10	-7.910709e+00	-5.184003e+01
1.610000e-06	-1.091389e-06	-6.937253e-10	-7.591824e+00	-5.141442e+01
1.620000e-06	-1.045462e-06	-6.916107e-10	-7.272351e+00	-5.097156e+01
1.630000e-06	-9.994343e-07	-6.875983e-10	-6.952177e+00	-5.051066e+01
1.640000e-06	-9.533695e-07	-6.812395e-10	-6.631745e+00	-5.003089e+01
1.650000e-06	-9.073018e-07	-6.715420e-10	-6.311293e+00	-4.953142e+01
1.660000e-06	-8.610779e-07	-6.585322e-10	-5.989754e+00	-4.901140e+01
1.670000e-06	-8.147091e-07	-6.460111e-10	-5.667208e+00	-4.846994e+01
1.680000e-06	-7.683524e-07	-6.350820e-10	-5.344745e+00	-4.790617e+01
1.690000e-06	-7.219868e-07	-6.258995e-10	-5.022221e+00	-4.731922e+01
1.700000e-06	-6.755920e-07	-6.189221e-10	-4.699493e+00	-4.670821e+01
1.710000e-06	-6.291295e-07	-6.131963e-10	-4.376295e+00	-4.607227e+01
1.720000e-06	-5.825595e-07	-6.044258e-10	-4.052349e+00	-4.541055e+01
1.730000e-06	-5.359577e-07	-5.931164e-10	-3.728182e+00	-4.472222e+01
1.740000e-06	-4.893780e-07	-5.795927e-10	-3.404168e+00	-4.400647e+01
1.750000e-06	-4.427867e-07	-5.682843e-10	-3.080074e+00	-4.326252e+01
1.760000e-06	-3.961418e-07	-5.579263e-10	-2.755607e+00	-4.248964e+01
1.770000e-06	-3.494083e-07	-5.458127e-10	-2.430523e+00	-4.168712e+01
1.780000e-06	-3.025820e-07	-5.321118e-10	-2.104794e+00	-4.085430e+01
1.790000e-06	-2.557226e-07	-5.177793e-10	-1.778835e+00	-3.999056e+01
1.800000e-06	-2.088966e-07	-5.039688e-10	-1.453108e+00	-3.909535e+01
1.810000e-06	-1.621608e-07	-4.910562e-10	-1.128009e+00	-3.816816e+01
1.820000e-06	-1.154784e-07	-4.827773e-10	-8.032805e-01	-3.720853e+01
1.830000e-06	-6.877281e-08	-4.739003e-10	-4.783914e-01	-3.621607e+01
1.840000e-06	-2.206216e-08	-4.630216e-10	-1.534669e-01	-3.519048e+01
1.850000e-06	2.460498e-08	-4.496758e-10	1.711550e-01	-3.413149e+01
1.860000e-06	7.129387e-08	-4.338623e-10	4.959281e-01	-3.303892e+01
1.870000e-06	1.181311e-07	-4.160190e-10	8.217334e-01	-3.191267e+01
1.880000e-06	1.649355e-07	-3.975386e-10	1.147310e+00	-3.075271e+01
1.890000e-06	2.116708e-07	-3.811812e-10	1.472406e+00	-2.955910e+01
1.900000e-06	2.584202e-07	-3.655102e-10	1.797600e+00	-2.833198e+01
1.910000e-06	3.051144e-07	-3.486154e-10	2.122410e+00	-2.707158e+01
1.920000e-06	3.517453e-07	-3.307628e-10	2.446780e+00	-2.577824e+01
1.930000e-06	3.983279e-07	-3.101475e-10	2.770814e+00	-2.445237e+01
1.940000e-06	4.449344e-07	-2.901087e-10	3.095014e+00	-2.309452e+01
1.950000e-06	4.916103e-07	-2.701649e-10	3.419697e+00	-2.170532e+01
1.960000e-06	5.383162e-07	-2.513330e-10	3.744588e+00	-2.028552e+01
1.970000e-06	5.848283e-07	-2.326119e-10	4.068131e+00	-1.883598e+01
1.980000e-06	6.311723e-07	-2.123959e-10	4.390505e+00	-1.735767e+01
1.990000e-06	6.775571e-07	-1.903560e-10	4.713163e+00	-1.585170e+01
2.000000e-06	7.238681e-07	-1.663692e-10	5.035307e+00	-1.431928e+01
2.010000e-06	7.701123e-07	-1.416977e-10	5.356988e+00	-1.276176e+01
2.020000e-06	8.163291e-07	-1.185633e-10	5.678477e+00	-1.118060e+01
2.030000e-06	8.624982e-07	-9.692294e-11	5.999634e+00	-9.577386e+00
2.040000e-06	9.086560e-07	-7.700372e-11	6.320713e+00	-7.953837e+00
2.050000e-06	9.547110e-07	-5.764938e-11	6.641076e+00	-6.311776e+00
2.060000e-06	1.000667e-06	-3.625071e-11	6.960754e+00	-4.653146e+00
2.070000e-06	1.046527e-06	-1.208702e-11	7.279762e+00	-2.979998e+00
2.080000e-06	1.092326e-06	1.443247e-11	7.598341e+00	-1.294488e+00
2.090000e-06	1.138164e-06	4.101414e-11	7.917198e+00	4.011367e-01
2.100000e-06	1.183938e-06	6.627357e-11	8.235607e+00	2.104542e+00
2.110000e-06	1.229506e-06	8.962400e-11	8.552585e+00	3.813319e+00
2.120000e-06	1.275007e-06	1.121915e-10	8.869088e+00	5.524998e+00
2.130000e-06	1.320511e-06	1.352752e-10	9.185622e+00	7.237059e+00
2.140000e-06	1.365936e-06	1.575918e-10	9.501600e+00	8.946949e+00
2.150000e-06	1.411245e-06	1.777137e-10	9.816776e+00	1.065209e+01
2.160000e-06	1.456387e-06	1.985316e-10	1.013079e+01	1.234992e+01
2.170000e-06	1.501504e-06	2.204776e-10	1.044463e+01	1.403786e+01
2.180000e-06	1.546556e-06	2.450348e-10	1.075802e+01	1.571339e+01
2.190000e-06	1.591370e-06	2.696421e-10	1.106974e+01	1.737402e+01
2.200000e-06	1.636025e-06	2.934124e-10	1.138037e+01	1.901733e+01
2.210000e-06	1.680531e-06	3.163975e-10	1.168996e+01	2.064100e+01
2.220000e-06	1.724965e-06	3.392658e-10	1.199905e+01	2.224277e+01
2.230000e-06	1.769274e-06	3.610021e-10	1.230727e+01	2.382054e+01
2.240000e-06	1.813397e-06	3.800009e-10	1.261419e+01	2.537230e+01
2.250000e-06	1.857500e-06	3.982974e-10	1.292098e+01	2.689620e+01
2.260000e-06	1.901547e-06	4.170753e-10	1.322737e+01	2.839055e+01
2.270000e-06	1.945460e-06	4.369736e-10	1.353284e+01	2.985380e+01
2.280000e-06	1.989268e-06	4.582672e-10	1.383757e+01	3.128461e+01
2.290000e-06	2.032990e-06	4.780823e-10	1.414171e+01	3.268177e+01
2.300000e-06	2.076655e-06	4.958965e-10	1.444544e+01	3.404430e+01
2.310000e-06	2.120289e-06	5.119891e-10	1.474896e+01	3.537136e+01
2.320000e-06	2.163902e-06	5.274351e-10	1.505234e+01	3.666232e+01
2.330000e-06	2.207475e-06	5.422635e-10	1.535544e+01	3.791673e+01
2.340000e-06	2.250952e-06	5.571963e-10	1.565788e+01	3.913431e+01
2.350000e-06	2.294210e-06	5.726938e-10	1.595878e+01	4.031495e+01
2.360000e-06	2.337205e-06	5.882189e-10	1.625786e+01	4.145870e+01
2.370000e-06	2.379985e-06	6.037210e-10	1.655544e+01	4.256576e+01
2.380000e-06	2.422546e-06	6.184058e-10	1.685150e+01	4.363648e+01
2.390000e-06	2.464742e-06	6.320391e-10	1.714502e+01	4.467132e+01
2.400000e-06	2.506511e-06	6.448233e-10	1.743557e+01	4.567086e+01
2.410000e-06	2.547902e-06	6.572256e-10	1.772349e+01	4.663578e+01
2.420000e-06	2.588938e-06	6.676443e-10	1.800894e+01	4.756683e+01
2.430000e-06	2.629676e-06	6.772807e-10	1.829232e+01	4.846484e+01
2.440000e-06	2.670237e-06	6.874051e-10	1.857447e+01	4.933066e+01
2.450000e-06	2.710597e-06	6.967878e-10	1.885521e+01	5.016521e+01
2.460000e-06	2.750700e-06	7.058031e-10	1.913417e+01	5.096942e+01
2.470000e-06	2.790632e-06	7.156571e-10	1.941195e+01	5.174419e+01
2.480000e-06	2.830454e-06	7.254631e-10	1.968895e+01	5.249046e+01
2.490000e-06	2.870192e-06	7.354486e-10	1.996538e+01	5.320912e+01
2.500000e-06	2.909802e-06	7.464170e-10	2.024091e+01	5.390105e+01
2.510000e-06	2.949261e-06	7.571268e-10	2.051539e+01	5.456707e+01
2.520000e-06	2.988548e-06	7.652764e-10	2.078868e+01	5.520799e+01
2.530000e-06	3.027674e-06	7.719669e-10	2.106084e+01	5.582452e+01
2.540000e-06	3.066683e-06	7.778460e-10	2.133219e+01	5.641738e+01
2.550000e-06	3.105539e-06	7.837308e-10	2.160248e+01	5.698718e+01
2.560000e-06	3.144036e-06	7.892212e-10	2.187027e+01	5.753452e+01
2.570000e-06	3.182207e-06	7.963239e-10	2.213579e+01	5.805993e+01
2.580000e-06	3.220217e-06	8.052642e-10	2.240019e+01	5.856390e+01
2.590000e-06	3.258081e-06	8.143569e-10	2.266358e+01	5.904687e+01
2.600000e-06	3.295772e-06	8.229499e-10	2.292576e+01	5.950928e+01
2.610000e-06	3.333288e-06	8.318615e-10	2.318673e+01	5.995149e+01
2.620000e-06	3.370569e-06	8.397360e-10	2.344606e+01	6.037389e+01
2.630000e-06	3.407552e-06	8.463684e-10	2.370331e+01	6.077684e+01
2.640000e-06	3.444283e-06	8.519796e-10	2.395882e+01	6.116070e+01
2.650000e-06	3.480743e-06	8.552772e-10	2.421244e+01	6.152584e+01
2.660000e-06	3.516883e-06	8.585611e-10	2.446383e+01	6.187263e+01
2.670000e-06	3.552769e-06	8.632436e-10	2.471346e+01	6.220150e+01
2.680000e-06	3.588549e-06	8.701870e-10	2.496235e+01	6.251286e+01
2.690000e-06	3.624255e-06	8.759268e-10	2.521072e+01	6.280721e+01
2.700000e-06	3.659834e-06	8.812556e-10	2.545821e+01	6.308505e+01
2.710000e-06	3.695287e-06	8.874726e-10	2.570483e+01	6.334694e+01
2.720000e-06	3.730453e-06	8.932452e-10	2.594945e+01	6.359348e+01
2.730000e-06	3.765296e-06	8.977283e-10	2.619182e+01	6.382532e+01
2.740000e-06	3.799849e-06	9.031811e-10	2.643217e+01	6.404314e+01
2.750000e-06	3.833844e-06	9.071079e-10	2.666865e+01	6.424767e+01
2.760000e-06	3.867251e-06	9.076525e-10	2.690103e+01	6.443967e+01
2.770000e-06	3.900192e-06	9.083006e-10	2.713018e+01	6.461995e+01
2.780000e-06	3.932733e-06	9.108287e-10	2.735653e+01	6.478931e+01
2.790000e-06	3.964983e-06	9.150798e-10	2.758086e+01	6.494857e+01
2.800000e-06	3.997004e-06	9.220436e-10	2.780360e+01	6.509858e+01
2.810000e-06	4.028890e-06	9.295670e-10	2.802541e+01	6.524016e+01
2.820000e-06	4.060654e-06	9.337857e-10	2.824636e+01	6.537411e+01
2.830000e-06	4.092173e-06	9.360848e-10	2.846561e+01	6.550122e+01
2.840000e-06	4.123455e-06	9.375793e-10	2.868321e+01	6.562222e+01
2.850000e-06	4.154555e-06	9.361798e-10	2.889955e+01	6.573783e+01
2.860000e-06	4.185364e-06	9.331495e-10	2.911386e+01	6.584866e+01
2.870000e-06	4.215770e-06	9.350759e-10	2.932537e+01	6.595531e+01
2.880000e-06	4.245812e-06	9.412514e-10	2.953434e+01	6.605825e+01
2.890000e-06	4.275563e-06	9.470289e-10	2.974129e+01	6.615791e+01
2.900000e-06	4.305097e-06	9.515334e-10	2.994674e+01	6.625461e+01
