# Temperatura_=_-11.69
# Concentracion g/m^3_=_1620.0
# C_Vs_to_Am_M_A/Vsm_=_65563218390.804596
# pendiente_HvsI_1/m_=_3716.3
# ordenada_HvsI_A/m_=_1297.0
# frecuencia_Hz_=_135105.0358522767

Tiempo_(s)	Campo_(V.s)	Magnetizacion_(V.s)	Campo_(kA/m)	Magnetizacion_(A/m)
0.000000e+00	-5.510034e-06	-1.077005e-09	-3.837345e+01	-6.929139e+01
1.000000e-08	-5.510392e-06	-1.077629e-09	-3.837595e+01	-6.925895e+01
2.000000e-08	-5.510489e-06	-1.076625e-09	-3.837662e+01	-6.922822e+01
3.000000e-08	-5.510227e-06	-1.075275e-09	-3.837480e+01	-6.919944e+01
4.000000e-08	-5.509487e-06	-1.074773e-09	-3.836965e+01	-6.917280e+01
5.000000e-08	-5.508274e-06	-1.072074e-09	-3.836120e+01	-6.914846e+01
6.000000e-08	-5.506581e-06	-1.063232e-09	-3.834941e+01	-6.912654e+01
7.000000e-08	-5.504267e-06	-1.049172e-09	-3.833329e+01	-6.910712e+01
8.000000e-08	-5.501327e-06	-1.045385e-09	-3.831281e+01	-6.909022e+01
9.000000e-08	-5.497901e-06	-1.095711e-09	-3.828895e+01	-6.907579e+01
1.000000e-07	-5.494080e-06	-1.165938e-09	-3.826234e+01	-6.906372e+01
1.100000e-07	-5.489832e-06	-1.136852e-09	-3.823276e+01	-6.905384e+01
1.200000e-07	-5.485290e-06	-1.009467e-09	-3.820112e+01	-6.904590e+01
1.300000e-07	-5.480594e-06	-9.765643e-10	-3.816842e+01	-6.903960e+01
1.400000e-07	-5.475592e-06	-1.067694e-09	-3.813359e+01	-6.903456e+01
1.500000e-07	-5.470129e-06	-1.125712e-09	-3.809554e+01	-6.903034e+01
1.600000e-07	-5.464290e-06	-1.035386e-09	-3.805488e+01	-6.902647e+01
1.700000e-07	-5.458177e-06	-9.985404e-10	-3.801231e+01	-6.902241e+01
1.800000e-07	-5.451670e-06	-1.073647e-09	-3.796699e+01	-6.901757e+01
1.900000e-07	-5.444637e-06	-1.130440e-09	-3.791801e+01	-6.901136e+01
2.000000e-07	-5.437211e-06	-1.035510e-09	-3.786629e+01	-6.900314e+01
2.100000e-07	-5.429554e-06	-9.788138e-10	-3.781297e+01	-6.899228e+01
2.200000e-07	-5.421689e-06	-1.045975e-09	-3.775819e+01	-6.897815e+01
2.300000e-07	-5.413594e-06	-1.122512e-09	-3.770182e+01	-6.896012e+01
2.400000e-07	-5.405221e-06	-1.086866e-09	-3.764350e+01	-6.893761e+01
2.500000e-07	-5.396239e-06	-1.022387e-09	-3.758095e+01	-6.891004e+01
2.600000e-07	-5.386386e-06	-1.040053e-09	-3.751233e+01	-6.887692e+01
2.700000e-07	-5.375840e-06	-1.070453e-09	-3.743889e+01	-6.883779e+01
2.800000e-07	-5.364792e-06	-1.061548e-09	-3.736195e+01	-6.879226e+01
2.900000e-07	-5.353367e-06	-1.026912e-09	-3.728238e+01	-6.874004e+01
3.000000e-07	-5.341632e-06	-1.049783e-09	-3.720065e+01	-6.868088e+01
3.100000e-07	-5.329573e-06	-1.063677e-09	-3.711667e+01	-6.861467e+01
3.200000e-07	-5.317131e-06	-1.048850e-09	-3.703002e+01	-6.854136e+01
3.300000e-07	-5.304247e-06	-1.011971e-09	-3.694029e+01	-6.846100e+01
3.400000e-07	-5.290961e-06	-1.037416e-09	-3.684776e+01	-6.837376e+01
3.500000e-07	-5.277275e-06	-1.052607e-09	-3.675245e+01	-6.827987e+01
3.600000e-07	-5.263048e-06	-1.044852e-09	-3.665337e+01	-6.817969e+01
3.700000e-07	-5.248434e-06	-1.033244e-09	-3.655159e+01	-6.807365e+01
3.800000e-07	-5.233421e-06	-1.062298e-09	-3.644704e+01	-6.796227e+01
3.900000e-07	-5.217795e-06	-1.042496e-09	-3.633821e+01	-6.784615e+01
4.000000e-07	-5.201619e-06	-1.013974e-09	-3.622556e+01	-6.772596e+01
4.100000e-07	-5.185092e-06	-1.033861e-09	-3.611046e+01	-6.760243e+01
4.200000e-07	-5.168293e-06	-1.060395e-09	-3.599347e+01	-6.747633e+01
4.300000e-07	-5.151138e-06	-1.018088e-09	-3.587400e+01	-6.734848e+01
4.400000e-07	-5.133686e-06	-1.010760e-09	-3.575246e+01	-6.721972e+01
4.500000e-07	-5.115897e-06	-1.059949e-09	-3.562857e+01	-6.709091e+01
4.600000e-07	-5.097712e-06	-1.046576e-09	-3.550192e+01	-6.696290e+01
4.700000e-07	-5.079135e-06	-9.936664e-10	-3.537255e+01	-6.683653e+01
4.800000e-07	-5.060132e-06	-1.016666e-09	-3.524020e+01	-6.671263e+01
4.900000e-07	-5.040769e-06	-1.046020e-09	-3.510535e+01	-6.659197e+01
5.000000e-07	-5.021175e-06	-1.007486e-09	-3.496890e+01	-6.647530e+01
5.100000e-07	-5.001414e-06	-1.008800e-09	-3.483128e+01	-6.636330e+01
5.200000e-07	-4.981444e-06	-1.041674e-09	-3.469220e+01	-6.625657e+01
5.300000e-07	-4.961057e-06	-1.017505e-09	-3.455022e+01	-6.615565e+01
5.400000e-07	-4.940295e-06	-9.986244e-10	-3.440563e+01	-6.606100e+01
5.500000e-07	-4.919234e-06	-1.039909e-09	-3.425895e+01	-6.597299e+01
5.600000e-07	-4.897767e-06	-1.024914e-09	-3.410945e+01	-6.589189e+01
5.700000e-07	-4.875967e-06	-9.832911e-10	-3.395763e+01	-6.581788e+01
5.800000e-07	-4.853856e-06	-1.006789e-09	-3.380364e+01	-6.575106e+01
5.900000e-07	-4.831464e-06	-1.031935e-09	-3.364769e+01	-6.569140e+01
6.000000e-07	-4.808691e-06	-9.969750e-10	-3.348910e+01	-6.563882e+01
6.100000e-07	-4.785537e-06	-1.000202e-09	-3.332785e+01	-6.559312e+01
6.200000e-07	-4.762171e-06	-1.021414e-09	-3.316512e+01	-6.555402e+01
6.300000e-07	-4.738470e-06	-1.000994e-09	-3.300006e+01	-6.552116e+01
6.400000e-07	-4.714517e-06	-9.874331e-10	-3.283324e+01	-6.549412e+01
6.500000e-07	-4.690411e-06	-1.010588e-09	-3.266536e+01	-6.547239e+01
6.600000e-07	-4.665842e-06	-9.997058e-10	-3.249426e+01	-6.545541e+01
6.700000e-07	-4.640679e-06	-9.894253e-10	-3.231902e+01	-6.544260e+01
6.800000e-07	-4.615029e-06	-1.008117e-09	-3.214038e+01	-6.543329e+01
6.900000e-07	-4.588835e-06	-1.009967e-09	-3.195796e+01	-6.542681e+01
7.000000e-07	-4.562080e-06	-9.916579e-10	-3.177163e+01	-6.542248e+01
7.100000e-07	-4.534956e-06	-1.001048e-09	-3.158273e+01	-6.541959e+01
7.200000e-07	-4.507592e-06	-1.002124e-09	-3.139216e+01	-6.541743e+01
7.300000e-07	-4.480014e-06	-9.873363e-10	-3.120010e+01	-6.541531e+01
7.400000e-07	-4.452310e-06	-9.919103e-10	-3.100716e+01	-6.541254e+01
7.500000e-07	-4.424426e-06	-1.002260e-09	-3.081297e+01	-6.540848e+01
7.600000e-07	-4.396232e-06	-9.910649e-10	-3.061662e+01	-6.540250e+01
7.700000e-07	-4.367776e-06	-9.885756e-10	-3.041844e+01	-6.539403e+01
7.800000e-07	-4.339036e-06	-9.964962e-10	-3.021829e+01	-6.538253e+01
7.900000e-07	-4.309985e-06	-9.868472e-10	-3.001597e+01	-6.536751e+01
8.000000e-07	-4.280600e-06	-9.821018e-10	-2.981133e+01	-6.534856e+01
8.100000e-07	-4.250857e-06	-9.902035e-10	-2.960418e+01	-6.532529e+01
8.200000e-07	-4.220781e-06	-9.827547e-10	-2.939472e+01	-6.529740e+01
8.300000e-07	-4.190426e-06	-9.684678e-10	-2.918333e+01	-6.526465e+01
8.400000e-07	-4.159839e-06	-9.760541e-10	-2.897031e+01	-6.522684e+01
8.500000e-07	-4.128932e-06	-9.793357e-10	-2.875506e+01	-6.518386e+01
8.600000e-07	-4.097775e-06	-9.718208e-10	-2.853808e+01	-6.513565e+01
8.700000e-07	-4.066444e-06	-9.713431e-10	-2.831988e+01	-6.508219e+01
8.800000e-07	-4.034896e-06	-9.737062e-10	-2.810017e+01	-6.502355e+01
8.900000e-07	-4.003122e-06	-9.609463e-10	-2.787888e+01	-6.495983e+01
9.000000e-07	-3.971179e-06	-9.554064e-10	-2.765643e+01	-6.489118e+01
9.100000e-07	-3.939076e-06	-9.579760e-10	-2.743285e+01	-6.481779e+01
9.200000e-07	-3.906649e-06	-9.548548e-10	-2.720702e+01	-6.473991e+01
9.300000e-07	-3.873720e-06	-9.496476e-10	-2.697769e+01	-6.465779e+01
9.400000e-07	-3.840214e-06	-9.567190e-10	-2.674435e+01	-6.457174e+01
9.500000e-07	-3.806262e-06	-9.551755e-10	-2.650790e+01	-6.448207e+01
9.600000e-07	-3.771991e-06	-9.465245e-10	-2.626922e+01	-6.438913e+01
9.700000e-07	-3.737388e-06	-9.433282e-10	-2.602824e+01	-6.429324e+01
9.800000e-07	-3.702488e-06	-9.423068e-10	-2.578519e+01	-6.419477e+01
9.900000e-07	-3.667287e-06	-9.332558e-10	-2.554004e+01	-6.409406e+01
1.000000e-06	-3.631838e-06	-9.299281e-10	-2.529316e+01	-6.399147e+01
1.010000e-06	-3.596249e-06	-9.319566e-10	-2.504531e+01	-6.388730e+01
1.020000e-06	-3.560511e-06	-9.295592e-10	-2.479642e+01	-6.378190e+01
1.030000e-06	-3.524590e-06	-9.269302e-10	-2.454625e+01	-6.367554e+01
1.040000e-06	-3.488500e-06	-9.303857e-10	-2.429491e+01	-6.356850e+01
1.050000e-06	-3.452181e-06	-9.296005e-10	-2.404198e+01	-6.346102e+01
1.060000e-06	-3.415597e-06	-9.233752e-10	-2.378720e+01	-6.335331e+01
1.070000e-06	-3.378775e-06	-9.211855e-10	-2.353075e+01	-6.324554e+01
1.080000e-06	-3.341639e-06	-9.197837e-10	-2.327213e+01	-6.313785e+01
1.090000e-06	-3.304239e-06	-9.153858e-10	-2.301167e+01	-6.303034e+01
1.100000e-06	-3.266643e-06	-9.139932e-10	-2.274983e+01	-6.292305e+01
1.110000e-06	-3.228878e-06	-9.180511e-10	-2.248683e+01	-6.281601e+01
1.120000e-06	-3.190892e-06	-9.150393e-10	-2.222229e+01	-6.270919e+01
1.130000e-06	-3.152634e-06	-9.108981e-10	-2.195584e+01	-6.260251e+01
1.140000e-06	-3.114150e-06	-9.092064e-10	-2.168783e+01	-6.249587e+01
1.150000e-06	-3.075514e-06	-9.075406e-10	-2.141876e+01	-6.238911e+01
1.160000e-06	-3.036752e-06	-9.055891e-10	-2.114881e+01	-6.228204e+01
1.170000e-06	-2.997706e-06	-9.047261e-10	-2.087688e+01	-6.217444e+01
1.180000e-06	-2.958363e-06	-9.029003e-10	-2.060289e+01	-6.206603e+01
1.190000e-06	-2.918893e-06	-9.006938e-10	-2.032800e+01	-6.195654e+01
1.200000e-06	-2.879324e-06	-9.003359e-10	-2.005244e+01	-6.184563e+01
1.210000e-06	-2.839579e-06	-8.987678e-10	-1.977564e+01	-6.173295e+01
1.220000e-06	-2.799675e-06	-8.940407e-10	-1.949774e+01	-6.161814e+01
1.230000e-06	-2.759711e-06	-8.908542e-10	-1.921941e+01	-6.150081e+01
1.240000e-06	-2.719653e-06	-8.903243e-10	-1.894044e+01	-6.138055e+01
1.250000e-06	-2.679379e-06	-8.911858e-10	-1.865996e+01	-6.125696e+01
1.260000e-06	-2.638780e-06	-8.910038e-10	-1.837722e+01	-6.112961e+01
1.270000e-06	-2.597929e-06	-8.904362e-10	-1.809272e+01	-6.099809e+01
1.280000e-06	-2.556887e-06	-8.867067e-10	-1.780689e+01	-6.086197e+01
1.290000e-06	-2.515546e-06	-8.809758e-10	-1.751898e+01	-6.072085e+01
1.300000e-06	-2.474045e-06	-8.751992e-10	-1.722995e+01	-6.057432e+01
1.310000e-06	-2.432303e-06	-8.712494e-10	-1.693925e+01	-6.042198e+01
1.320000e-06	-2.390174e-06	-8.686480e-10	-1.664586e+01	-6.026346e+01
1.330000e-06	-2.347707e-06	-8.686082e-10	-1.635010e+01	-6.009839e+01
1.340000e-06	-2.304858e-06	-8.665989e-10	-1.605169e+01	-5.992644e+01
1.350000e-06	-2.261776e-06	-8.628257e-10	-1.575166e+01	-5.974727e+01
1.360000e-06	-2.218583e-06	-8.606812e-10	-1.545085e+01	-5.956059e+01
1.370000e-06	-2.175217e-06	-8.575908e-10	-1.514883e+01	-5.936611e+01
1.380000e-06	-2.131686e-06	-8.525927e-10	-1.484567e+01	-5.916357e+01
1.390000e-06	-2.088044e-06	-8.466826e-10	-1.454173e+01	-5.895272e+01
1.400000e-06	-2.044330e-06	-8.400414e-10	-1.423730e+01	-5.873334e+01
1.410000e-06	-2.000573e-06	-8.347168e-10	-1.393256e+01	-5.850521e+01
1.420000e-06	-1.956767e-06	-8.299186e-10	-1.362748e+01	-5.826814e+01
1.430000e-06	-1.912879e-06	-8.244308e-10	-1.332184e+01	-5.802192e+01
1.440000e-06	-1.868871e-06	-8.212486e-10	-1.301535e+01	-5.776638e+01
1.450000e-06	-1.824745e-06	-8.159736e-10	-1.270804e+01	-5.750131e+01
1.460000e-06	-1.780496e-06	-8.108550e-10	-1.239988e+01	-5.722653e+01
1.470000e-06	-1.736133e-06	-8.046939e-10	-1.209093e+01	-5.694184e+01
1.480000e-06	-1.691673e-06	-7.967546e-10	-1.178129e+01	-5.664702e+01
1.490000e-06	-1.647085e-06	-7.870149e-10	-1.147077e+01	-5.634182e+01
1.500000e-06	-1.602319e-06	-7.752782e-10	-1.115900e+01	-5.602599e+01
1.510000e-06	-1.557425e-06	-7.642672e-10	-1.084635e+01	-5.569924e+01
1.520000e-06	-1.512494e-06	-7.560629e-10	-1.053344e+01	-5.536123e+01
1.530000e-06	-1.467478e-06	-7.507213e-10	-1.021993e+01	-5.501159e+01
1.540000e-06	-1.422345e-06	-7.443117e-10	-9.905616e+00	-5.464991e+01
1.550000e-06	-1.377074e-06	-7.366550e-10	-9.590340e+00	-5.427574e+01
1.560000e-06	-1.331715e-06	-7.270032e-10	-9.274446e+00	-5.388857e+01
1.570000e-06	-1.286308e-06	-7.174841e-10	-8.958218e+00	-5.348782e+01
1.580000e-06	-1.240776e-06	-7.095261e-10	-8.641120e+00	-5.307289e+01
1.590000e-06	-1.195137e-06	-6.996372e-10	-8.323279e+00	-5.264311e+01
1.600000e-06	-1.149440e-06	-6.911322e-10	-8.005026e+00	-5.219774e+01
1.610000e-06	-1.103677e-06	-6.855551e-10	-7.686322e+00	-5.173601e+01
1.620000e-06	-1.057823e-06	-6.810567e-10	-7.366981e+00	-5.125709e+01
1.630000e-06	-1.011863e-06	-6.776642e-10	-7.046901e+00	-5.076010e+01
1.640000e-06	-9.657873e-07	-6.711376e-10	-6.726019e+00	-5.024412e+01
1.650000e-06	-9.196600e-07	-6.618393e-10	-6.404775e+00	-4.970818e+01
1.660000e-06	-8.735082e-07	-6.489929e-10	-6.083361e+00	-4.915129e+01
1.670000e-06	-8.272564e-07	-6.339698e-10	-5.761250e+00	-4.857242e+01
1.680000e-06	-7.809109e-07	-6.218787e-10	-5.438487e+00	-4.797052e+01
1.690000e-06	-7.345386e-07	-6.126366e-10	-5.115537e+00	-4.734455e+01
1.700000e-06	-6.881846e-07	-6.043051e-10	-4.792714e+00	-4.669343e+01
1.710000e-06	-6.418284e-07	-5.971757e-10	-4.469877e+00	-4.601611e+01
1.720000e-06	-5.953997e-07	-5.905139e-10	-4.146534e+00	-4.531154e+01
1.730000e-06	-5.489197e-07	-5.803431e-10	-3.822834e+00	-4.457871e+01
1.740000e-06	-5.024458e-07	-5.654483e-10	-3.499176e+00	-4.381661e+01
1.750000e-06	-4.559189e-07	-5.494845e-10	-3.175150e+00	-4.302431e+01
1.760000e-06	-4.092466e-07	-5.329963e-10	-2.850110e+00	-4.220090e+01
1.770000e-06	-3.625133e-07	-5.187912e-10	-2.524646e+00	-4.134554e+01
1.780000e-06	-3.157865e-07	-5.090653e-10	-2.199228e+00	-4.045746e+01
1.790000e-06	-2.690336e-07	-5.028735e-10	-1.873627e+00	-3.953597e+01
1.800000e-06	-2.222232e-07	-4.948765e-10	-1.547626e+00	-3.858046e+01
1.810000e-06	-1.754839e-07	-4.830588e-10	-1.222120e+00	-3.759041e+01
1.820000e-06	-1.288377e-07	-4.695426e-10	-8.972628e-01	-3.656540e+01
1.830000e-06	-8.215039e-08	-4.526854e-10	-5.721188e-01	-3.550510e+01
1.840000e-06	-3.537741e-08	-4.332310e-10	-2.463784e-01	-3.440932e+01
1.850000e-06	1.141106e-08	-4.137169e-10	7.946987e-02	-3.327794e+01
1.860000e-06	5.811880e-08	-3.975530e-10	4.047559e-01	-3.211100e+01
1.870000e-06	1.048072e-07	-3.844817e-10	7.299074e-01	-3.090862e+01
1.880000e-06	1.515447e-07	-3.714661e-10	1.055400e+00	-2.967106e+01
1.890000e-06	1.983045e-07	-3.570914e-10	1.381049e+00	-2.839870e+01
1.900000e-06	2.450389e-07	-3.400370e-10	1.706521e+00	-2.709203e+01
1.910000e-06	2.917601e-07	-3.191370e-10	2.031901e+00	-2.575167e+01
1.920000e-06	3.383730e-07	-2.953696e-10	2.356526e+00	-2.437835e+01
1.930000e-06	3.849255e-07	-2.728348e-10	2.680731e+00	-2.297293e+01
1.940000e-06	4.314429e-07	-2.541705e-10	3.004692e+00	-2.153636e+01
1.950000e-06	4.778803e-07	-2.356058e-10	3.328095e+00	-2.006973e+01
1.960000e-06	5.243784e-07	-2.177132e-10	3.651921e+00	-1.857422e+01
1.970000e-06	5.709104e-07	-2.010166e-10	3.975983e+00	-1.705111e+01
1.980000e-06	6.173889e-07	-1.830062e-10	4.299673e+00	-1.550178e+01
1.990000e-06	6.637572e-07	-1.623432e-10	4.622595e+00	-1.392772e+01
2.000000e-06	7.099707e-07	-1.392755e-10	4.944439e+00	-1.233050e+01
2.010000e-06	7.562110e-07	-1.142928e-10	5.266470e+00	-1.071175e+01
2.020000e-06	8.024110e-07	-8.991915e-11	5.588220e+00	-9.073208e+00
2.030000e-06	8.484621e-07	-6.748211e-11	5.908932e+00	-7.416673e+00
2.040000e-06	8.945054e-07	-4.692083e-11	6.229592e+00	-5.744008e+00
2.050000e-06	9.405519e-07	-2.835916e-11	6.550272e+00	-4.057137e+00
2.060000e-06	9.865041e-07	-9.029283e-12	6.870297e+00	-2.358036e+00
2.070000e-06	1.032372e-06	1.489495e-11	7.189730e+00	-6.487280e-01
2.080000e-06	1.078211e-06	4.284815e-11	7.508967e+00	1.068724e+00
2.090000e-06	1.123930e-06	7.055521e-11	7.827369e+00	2.792225e+00
2.100000e-06	1.169563e-06	9.823948e-11	8.145171e+00	4.519655e+00
2.110000e-06	1.215184e-06	1.251170e-10	8.462890e+00	6.248874e+00
2.120000e-06	1.260713e-06	1.485013e-10	8.779964e+00	7.977732e+00
2.130000e-06	1.306124e-06	1.714005e-10	9.096221e+00	9.704079e+00
2.140000e-06	1.351470e-06	1.941445e-10	9.412025e+00	1.142576e+01
2.150000e-06	1.396668e-06	2.159097e-10	9.726793e+00	1.314066e+01
2.160000e-06	1.441707e-06	2.398707e-10	1.004046e+01	1.484664e+01
2.170000e-06	1.486720e-06	2.666397e-10	1.035395e+01	1.654164e+01
2.180000e-06	1.531699e-06	2.940028e-10	1.066719e+01	1.822360e+01
2.190000e-06	1.576527e-06	3.198023e-10	1.097938e+01	1.989052e+01
2.200000e-06	1.621158e-06	3.437795e-10	1.129021e+01	2.154047e+01
2.210000e-06	1.665601e-06	3.658872e-10	1.159972e+01	2.317157e+01
2.220000e-06	1.709921e-06	3.854695e-10	1.190838e+01	2.478200e+01
2.230000e-06	1.754191e-06	4.052797e-10	1.221669e+01	2.637003e+01
2.240000e-06	1.798339e-06	4.269660e-10	1.252415e+01	2.793404e+01
2.250000e-06	1.842336e-06	4.488271e-10	1.283055e+01	2.947247e+01
2.260000e-06	1.886239e-06	4.706593e-10	1.313630e+01	3.098388e+01
2.270000e-06	1.930084e-06	4.922988e-10	1.344166e+01	3.246694e+01
2.280000e-06	1.973901e-06	5.117335e-10	1.374681e+01	3.392041e+01
2.290000e-06	2.017669e-06	5.277518e-10	1.405163e+01	3.534321e+01
2.300000e-06	2.061363e-06	5.421105e-10	1.435592e+01	3.673435e+01
2.310000e-06	2.105009e-06	5.581035e-10	1.465989e+01	3.809296e+01
2.320000e-06	2.148613e-06	5.770594e-10	1.496355e+01	3.941833e+01
2.330000e-06	2.192146e-06	5.970902e-10	1.526673e+01	4.070985e+01
2.340000e-06	2.235544e-06	6.167448e-10	1.556897e+01	4.196705e+01
2.350000e-06	2.278744e-06	6.349616e-10	1.586983e+01	4.318958e+01
2.360000e-06	2.321761e-06	6.509335e-10	1.616941e+01	4.437721e+01
2.370000e-06	2.364605e-06	6.640515e-10	1.646779e+01	4.552984e+01
2.380000e-06	2.407141e-06	6.743510e-10	1.676402e+01	4.664749e+01
2.390000e-06	2.449204e-06	6.845595e-10	1.705696e+01	4.773027e+01
2.400000e-06	2.490908e-06	6.989677e-10	1.734739e+01	4.877842e+01
2.410000e-06	2.532318e-06	7.157820e-10	1.763578e+01	4.979224e+01
2.420000e-06	2.573398e-06	7.325724e-10	1.792188e+01	5.077215e+01
2.430000e-06	2.614242e-06	7.469573e-10	1.820633e+01	5.171863e+01
2.440000e-06	2.654881e-06	7.573558e-10	1.848935e+01	5.263223e+01
2.450000e-06	2.695249e-06	7.653000e-10	1.877048e+01	5.351357e+01
2.460000e-06	2.735387e-06	7.729058e-10	1.905002e+01	5.436330e+01
2.470000e-06	2.775335e-06	7.819650e-10	1.932823e+01	5.518213e+01
2.480000e-06	2.815133e-06	7.919018e-10	1.960539e+01	5.597079e+01
2.490000e-06	2.854829e-06	8.028506e-10	1.988184e+01	5.673001e+01
2.500000e-06	2.894418e-06	8.135678e-10	2.015755e+01	5.746055e+01
2.510000e-06	2.933924e-06	8.215216e-10	2.043269e+01	5.816318e+01
2.520000e-06	2.973281e-06	8.283712e-10	2.070678e+01	5.883865e+01
2.530000e-06	3.012384e-06	8.351957e-10	2.097910e+01	5.948768e+01
2.540000e-06	3.051285e-06	8.415335e-10	2.125002e+01	6.011101e+01
2.550000e-06	3.089963e-06	8.506681e-10	2.151939e+01	6.070932e+01
2.560000e-06	3.128388e-06	8.610158e-10	2.178699e+01	6.128329e+01
2.570000e-06	3.166655e-06	8.701253e-10	2.205349e+01	6.183355e+01
2.580000e-06	3.204715e-06	8.776522e-10	2.231855e+01	6.236070e+01
2.590000e-06	3.242560e-06	8.834507e-10	2.258212e+01	6.286533e+01
2.600000e-06	3.280232e-06	8.882541e-10	2.284448e+01	6.334798e+01
2.610000e-06	3.317693e-06	8.930944e-10	2.310536e+01	6.380917e+01
2.620000e-06	3.354935e-06	8.988228e-10	2.336473e+01	6.424939e+01
2.630000e-06	3.391965e-06	9.051398e-10	2.362261e+01	6.466912e+01
2.640000e-06	3.428720e-06	9.139016e-10	2.387859e+01	6.506881e+01
2.650000e-06	3.465166e-06	9.222750e-10	2.413241e+01	6.544892e+01
2.660000e-06	3.501337e-06	9.278460e-10	2.438431e+01	6.580988e+01
2.670000e-06	3.537287e-06	9.318008e-10	2.463468e+01	6.615217e+01
2.680000e-06	3.573091e-06	9.355167e-10	2.488403e+01	6.647622e+01
2.690000e-06	3.608822e-06	9.395376e-10	2.513287e+01	6.678251e+01
2.700000e-06	3.644468e-06	9.431386e-10	2.538112e+01	6.707154e+01
2.710000e-06	3.679965e-06	9.482806e-10	2.562833e+01	6.734383e+01
2.720000e-06	3.715270e-06	9.540927e-10	2.587421e+01	6.759994e+01
2.730000e-06	3.750283e-06	9.585789e-10	2.611804e+01	6.784045e+01
2.740000e-06	3.784823e-06	9.630903e-10	2.635859e+01	6.806599e+01
2.750000e-06	3.818840e-06	9.696359e-10	2.659550e+01	6.827723e+01
2.760000e-06	3.852437e-06	9.744824e-10	2.682947e+01	6.847487e+01
2.770000e-06	3.885599e-06	9.768373e-10	2.706042e+01	6.865966e+01
2.780000e-06	3.918264e-06	9.799060e-10	2.728791e+01	6.883239e+01
2.790000e-06	3.950514e-06	9.848595e-10	2.751251e+01	6.899388e+01
2.800000e-06	3.982499e-06	9.901509e-10	2.773526e+01	6.914498e+01
2.810000e-06	4.014283e-06	9.944389e-10	2.795662e+01	6.928656e+01
2.820000e-06	4.045940e-06	9.976142e-10	2.817708e+01	6.941951e+01
2.830000e-06	4.077505e-06	1.000632e-09	2.839691e+01	6.954474e+01
2.840000e-06	4.108927e-06	1.004144e-09	2.861575e+01	6.966315e+01
2.850000e-06	4.140146e-06	1.006219e-09	2.883316e+01	6.977563e+01
2.860000e-06	4.171076e-06	1.005496e-09	2.904857e+01	6.988305e+01
2.870000e-06	4.201638e-06	1.004771e-09	2.926141e+01	6.998626e+01
2.880000e-06	4.231783e-06	1.007393e-09	2.947135e+01	7.008607e+01
2.890000e-06	4.261575e-06	1.012404e-09	2.967882e+01	7.018322e+01
2.900000e-06	4.291113e-06	1.016753e-09	2.988454e+01	7.027841e+01
