# Temperatura_=_14.97
# Concentracion g/m^3_=_1620.0
# C_Vs_to_Am_M_A/Vsm_=_65563218390.804596
# pendiente_HvsI_1/m_=_3716.3
# ordenada_HvsI_A/m_=_1297.0
# frecuencia_Hz_=_135093.73957668364

Tiempo_(s)	Campo_(V.s)	Magnetizacion_(V.s)	Campo_(kA/m)	Magnetizacion_(A/m)
0.000000e+00	-5.530530e-06	-1.612004e-09	-3.837542e+01	-1.070448e+02
1.000000e-08	-5.530669e-06	-1.605335e-09	-3.837638e+01	-1.069978e+02
2.000000e-08	-5.530633e-06	-1.602209e-09	-3.837613e+01	-1.069516e+02
3.000000e-08	-5.530364e-06	-1.604019e-09	-3.837426e+01	-1.069067e+02
4.000000e-08	-5.529555e-06	-1.607124e-09	-3.836865e+01	-1.068637e+02
5.000000e-08	-5.528119e-06	-1.607985e-09	-3.835869e+01	-1.068230e+02
6.000000e-08	-5.526196e-06	-1.601154e-09	-3.834534e+01	-1.067849e+02
7.000000e-08	-5.523680e-06	-1.595886e-09	-3.832789e+01	-1.067498e+02
8.000000e-08	-5.520561e-06	-1.576989e-09	-3.830625e+01	-1.067177e+02
9.000000e-08	-5.516929e-06	-1.605866e-09	-3.828104e+01	-1.066887e+02
1.000000e-07	-5.512930e-06	-1.697093e-09	-3.825329e+01	-1.066629e+02
1.100000e-07	-5.508645e-06	-1.690455e-09	-3.822356e+01	-1.066399e+02
1.200000e-07	-5.504099e-06	-1.524352e-09	-3.819202e+01	-1.066196e+02
1.300000e-07	-5.499409e-06	-1.473749e-09	-3.815947e+01	-1.066015e+02
1.400000e-07	-5.494405e-06	-1.605921e-09	-3.812475e+01	-1.065850e+02
1.500000e-07	-5.488837e-06	-1.708429e-09	-3.808612e+01	-1.065695e+02
1.600000e-07	-5.482805e-06	-1.554790e-09	-3.804426e+01	-1.065543e+02
1.700000e-07	-5.476512e-06	-1.492528e-09	-3.800060e+01	-1.065385e+02
1.800000e-07	-5.469866e-06	-1.611288e-09	-3.795448e+01	-1.065212e+02
1.900000e-07	-5.462698e-06	-1.704480e-09	-3.790475e+01	-1.065014e+02
2.000000e-07	-5.455158e-06	-1.579958e-09	-3.785242e+01	-1.064781e+02
2.100000e-07	-5.447380e-06	-1.516397e-09	-3.779845e+01	-1.064503e+02
2.200000e-07	-5.439397e-06	-1.602861e-09	-3.774306e+01	-1.064168e+02
2.300000e-07	-5.431205e-06	-1.671765e-09	-3.768622e+01	-1.063767e+02
2.400000e-07	-5.422648e-06	-1.605601e-09	-3.762684e+01	-1.063290e+02
2.500000e-07	-5.413497e-06	-1.544917e-09	-3.756335e+01	-1.062726e+02
2.600000e-07	-5.403553e-06	-1.591936e-09	-3.749435e+01	-1.062066e+02
2.700000e-07	-5.392916e-06	-1.630673e-09	-3.742054e+01	-1.061304e+02
2.800000e-07	-5.381890e-06	-1.615689e-09	-3.734403e+01	-1.060432e+02
2.900000e-07	-5.370434e-06	-1.568104e-09	-3.726454e+01	-1.059444e+02
3.000000e-07	-5.358486e-06	-1.603158e-09	-3.718163e+01	-1.058335e+02
3.100000e-07	-5.346168e-06	-1.614355e-09	-3.709616e+01	-1.057104e+02
3.200000e-07	-5.333486e-06	-1.603431e-09	-3.700816e+01	-1.055748e+02
3.300000e-07	-5.320356e-06	-1.539676e-09	-3.691705e+01	-1.054267e+02
3.400000e-07	-5.306785e-06	-1.582471e-09	-3.682289e+01	-1.052664e+02
3.500000e-07	-5.292927e-06	-1.618403e-09	-3.672673e+01	-1.050942e+02
3.600000e-07	-5.278696e-06	-1.596613e-09	-3.662798e+01	-1.049104e+02
3.700000e-07	-5.263959e-06	-1.551390e-09	-3.652572e+01	-1.047158e+02
3.800000e-07	-5.248763e-06	-1.617585e-09	-3.642029e+01	-1.045111e+02
3.900000e-07	-5.233021e-06	-1.609285e-09	-3.631105e+01	-1.042971e+02
4.000000e-07	-5.216572e-06	-1.532935e-09	-3.619691e+01	-1.040748e+02
4.100000e-07	-5.199696e-06	-1.566758e-09	-3.607982e+01	-1.038453e+02
4.200000e-07	-5.182698e-06	-1.643902e-09	-3.596187e+01	-1.036097e+02
4.300000e-07	-5.165340e-06	-1.542520e-09	-3.584142e+01	-1.033692e+02
4.400000e-07	-5.147590e-06	-1.498803e-09	-3.571826e+01	-1.031249e+02
4.500000e-07	-5.129585e-06	-1.622174e-09	-3.559333e+01	-1.028780e+02
4.600000e-07	-5.111171e-06	-1.609106e-09	-3.546556e+01	-1.026297e+02
4.700000e-07	-5.092242e-06	-1.474754e-09	-3.533421e+01	-1.023812e+02
4.800000e-07	-5.072969e-06	-1.545030e-09	-3.520048e+01	-1.021336e+02
4.900000e-07	-5.053466e-06	-1.624297e-09	-3.506515e+01	-1.018877e+02
5.000000e-07	-5.033674e-06	-1.503714e-09	-3.492781e+01	-1.016446e+02
5.100000e-07	-5.013646e-06	-1.493184e-09	-3.478885e+01	-1.014050e+02
5.200000e-07	-4.993409e-06	-1.601043e-09	-3.464843e+01	-1.011696e+02
5.300000e-07	-4.972844e-06	-1.529582e-09	-3.450573e+01	-1.009389e+02
5.400000e-07	-4.951890e-06	-1.459013e-09	-3.436033e+01	-1.007132e+02
5.500000e-07	-4.930628e-06	-1.580602e-09	-3.421280e+01	-1.004929e+02
5.600000e-07	-4.909026e-06	-1.569383e-09	-3.406291e+01	-1.002780e+02
5.700000e-07	-4.887050e-06	-1.451182e-09	-3.391042e+01	-1.000684e+02
5.800000e-07	-4.864793e-06	-1.510539e-09	-3.375598e+01	-9.986396e+01
5.900000e-07	-4.842187e-06	-1.578004e-09	-3.359912e+01	-9.966430e+01
6.000000e-07	-4.819089e-06	-1.472899e-09	-3.343885e+01	-9.946894e+01
6.100000e-07	-4.795639e-06	-1.470475e-09	-3.327614e+01	-9.927730e+01
6.200000e-07	-4.772013e-06	-1.542570e-09	-3.311219e+01	-9.908867e+01
6.300000e-07	-4.748169e-06	-1.492276e-09	-3.294675e+01	-9.890227e+01
6.400000e-07	-4.724117e-06	-1.446542e-09	-3.277985e+01	-9.871725e+01
6.500000e-07	-4.699800e-06	-1.513080e-09	-3.261112e+01	-9.853269e+01
6.600000e-07	-4.675156e-06	-1.501993e-09	-3.244012e+01	-9.834765e+01
6.700000e-07	-4.650004e-06	-1.459229e-09	-3.226560e+01	-9.816116e+01
6.800000e-07	-4.624243e-06	-1.489947e-09	-3.208685e+01	-9.797227e+01
6.900000e-07	-4.597928e-06	-1.502250e-09	-3.190425e+01	-9.778004e+01
7.000000e-07	-4.570982e-06	-1.450442e-09	-3.171728e+01	-9.758357e+01
7.100000e-07	-4.543604e-06	-1.461678e-09	-3.152730e+01	-9.738201e+01
7.200000e-07	-4.516020e-06	-1.482628e-09	-3.133591e+01	-9.717457e+01
7.300000e-07	-4.488266e-06	-1.457016e-09	-3.114332e+01	-9.696056e+01
7.400000e-07	-4.460342e-06	-1.445241e-09	-3.094957e+01	-9.673936e+01
7.500000e-07	-4.432212e-06	-1.461242e-09	-3.075437e+01	-9.651046e+01
7.600000e-07	-4.403721e-06	-1.443544e-09	-3.055668e+01	-9.627343e+01
7.700000e-07	-4.374875e-06	-1.428018e-09	-3.035652e+01	-9.602799e+01
7.800000e-07	-4.345766e-06	-1.441616e-09	-3.015454e+01	-9.577391e+01
7.900000e-07	-4.316399e-06	-1.435543e-09	-2.995077e+01	-9.551112e+01
8.000000e-07	-4.286787e-06	-1.421776e-09	-2.974529e+01	-9.523962e+01
8.100000e-07	-4.256878e-06	-1.428747e-09	-2.953776e+01	-9.495951e+01
8.200000e-07	-4.226666e-06	-1.420628e-09	-2.932812e+01	-9.467099e+01
8.300000e-07	-4.196102e-06	-1.392800e-09	-2.911605e+01	-9.437433e+01
8.400000e-07	-4.165180e-06	-1.394233e-09	-2.890149e+01	-9.406987e+01
8.500000e-07	-4.134041e-06	-1.401973e-09	-2.868542e+01	-9.375800e+01
8.600000e-07	-4.102741e-06	-1.392280e-09	-2.846823e+01	-9.343918e+01
8.700000e-07	-4.071209e-06	-1.386240e-09	-2.824944e+01	-9.311388e+01
8.800000e-07	-4.039439e-06	-1.395697e-09	-2.802899e+01	-9.278260e+01
8.900000e-07	-4.007460e-06	-1.378681e-09	-2.780709e+01	-9.244585e+01
9.000000e-07	-3.975271e-06	-1.363834e-09	-2.758374e+01	-9.210411e+01
9.100000e-07	-3.942896e-06	-1.363098e-09	-2.735909e+01	-9.175789e+01
9.200000e-07	-3.910205e-06	-1.354655e-09	-2.713225e+01	-9.140764e+01
9.300000e-07	-3.877181e-06	-1.334740e-09	-2.690311e+01	-9.105378e+01
9.400000e-07	-3.843778e-06	-1.339351e-09	-2.667133e+01	-9.069670e+01
9.500000e-07	-3.809771e-06	-1.339315e-09	-2.643536e+01	-9.033673e+01
9.600000e-07	-3.775295e-06	-1.324385e-09	-2.619614e+01	-8.997416e+01
9.700000e-07	-3.740521e-06	-1.318235e-09	-2.595485e+01	-8.960921e+01
9.800000e-07	-3.705326e-06	-1.324140e-09	-2.571063e+01	-8.924205e+01
9.900000e-07	-3.669794e-06	-1.312002e-09	-2.546408e+01	-8.887281e+01
1.000000e-06	-3.634067e-06	-1.297384e-09	-2.521618e+01	-8.850154e+01
1.010000e-06	-3.598197e-06	-1.298336e-09	-2.496728e+01	-8.812826e+01
1.020000e-06	-3.562259e-06	-1.297734e-09	-2.471791e+01	-8.775293e+01
1.030000e-06	-3.526163e-06	-1.286109e-09	-2.446745e+01	-8.737548e+01
1.040000e-06	-3.489975e-06	-1.287954e-09	-2.421635e+01	-8.699580e+01
1.050000e-06	-3.453578e-06	-1.286565e-09	-2.396380e+01	-8.661377e+01
1.060000e-06	-3.416823e-06	-1.273121e-09	-2.370876e+01	-8.622922e+01
1.070000e-06	-3.379771e-06	-1.264542e-09	-2.345166e+01	-8.584200e+01
1.080000e-06	-3.342422e-06	-1.264044e-09	-2.319251e+01	-8.545192e+01
1.090000e-06	-3.304828e-06	-1.256072e-09	-2.293165e+01	-8.505882e+01
1.100000e-06	-3.267012e-06	-1.247801e-09	-2.266925e+01	-8.466254e+01
1.110000e-06	-3.228973e-06	-1.246273e-09	-2.240530e+01	-8.426292e+01
1.120000e-06	-3.190724e-06	-1.235401e-09	-2.213989e+01	-8.385983e+01
1.130000e-06	-3.152157e-06	-1.220712e-09	-2.187229e+01	-8.345315e+01
1.140000e-06	-3.113378e-06	-1.216165e-09	-2.160321e+01	-8.304278e+01
1.150000e-06	-3.074447e-06	-1.217123e-09	-2.133307e+01	-8.262865e+01
1.160000e-06	-3.035263e-06	-1.206984e-09	-2.106118e+01	-8.221070e+01
1.170000e-06	-2.995964e-06	-1.201741e-09	-2.078849e+01	-8.178890e+01
1.180000e-06	-2.956594e-06	-1.195588e-09	-2.051531e+01	-8.136324e+01
1.190000e-06	-2.917023e-06	-1.185868e-09	-2.024074e+01	-8.093369e+01
1.200000e-06	-2.877242e-06	-1.177427e-09	-1.996470e+01	-8.050025e+01
1.210000e-06	-2.837331e-06	-1.175984e-09	-1.968776e+01	-8.006293e+01
1.220000e-06	-2.797292e-06	-1.169000e-09	-1.940994e+01	-7.962171e+01
1.230000e-06	-2.757127e-06	-1.159488e-09	-1.913124e+01	-7.917658e+01
1.240000e-06	-2.716858e-06	-1.153244e-09	-1.885182e+01	-7.872749e+01
1.250000e-06	-2.676394e-06	-1.146543e-09	-1.857105e+01	-7.827437e+01
1.260000e-06	-2.635570e-06	-1.134845e-09	-1.828778e+01	-7.781713e+01
1.270000e-06	-2.594544e-06	-1.126148e-09	-1.800311e+01	-7.735562e+01
1.280000e-06	-2.553352e-06	-1.121065e-09	-1.771728e+01	-7.688965e+01
1.290000e-06	-2.511835e-06	-1.115626e-09	-1.742920e+01	-7.641899e+01
1.300000e-06	-2.469919e-06	-1.107294e-09	-1.713835e+01	-7.594335e+01
1.310000e-06	-2.427643e-06	-1.098780e-09	-1.684501e+01	-7.546239e+01
1.320000e-06	-2.385119e-06	-1.085597e-09	-1.654994e+01	-7.497570e+01
1.330000e-06	-2.342350e-06	-1.072720e-09	-1.625317e+01	-7.448284e+01
1.340000e-06	-2.299246e-06	-1.061726e-09	-1.595408e+01	-7.398329e+01
1.350000e-06	-2.255913e-06	-1.055908e-09	-1.565340e+01	-7.347649e+01
1.360000e-06	-2.212481e-06	-1.053116e-09	-1.535204e+01	-7.296184e+01
1.370000e-06	-2.168869e-06	-1.049596e-09	-1.504942e+01	-7.243868e+01
1.380000e-06	-2.125170e-06	-1.042327e-09	-1.474619e+01	-7.190632e+01
1.390000e-06	-2.081378e-06	-1.030026e-09	-1.444233e+01	-7.136407e+01
1.400000e-06	-2.037468e-06	-1.017009e-09	-1.413765e+01	-7.081118e+01
1.410000e-06	-1.993513e-06	-1.003401e-09	-1.383265e+01	-7.024691e+01
1.420000e-06	-1.949524e-06	-9.895965e-10	-1.352742e+01	-6.967051e+01
1.430000e-06	-1.905395e-06	-9.785704e-10	-1.322122e+01	-6.908125e+01
1.440000e-06	-1.861137e-06	-9.714980e-10	-1.291412e+01	-6.847840e+01
1.450000e-06	-1.816818e-06	-9.624425e-10	-1.260659e+01	-6.786125e+01
1.460000e-06	-1.772361e-06	-9.503766e-10	-1.229811e+01	-6.722914e+01
1.470000e-06	-1.727724e-06	-9.372643e-10	-1.198839e+01	-6.658141e+01
1.480000e-06	-1.682992e-06	-9.245106e-10	-1.167800e+01	-6.591748e+01
1.490000e-06	-1.638208e-06	-9.096997e-10	-1.136725e+01	-6.523679e+01
1.500000e-06	-1.593268e-06	-8.949988e-10	-1.105542e+01	-6.453883e+01
1.510000e-06	-1.548182e-06	-8.797948e-10	-1.074257e+01	-6.382315e+01
1.520000e-06	-1.502934e-06	-8.673071e-10	-1.042861e+01	-6.308933e+01
1.530000e-06	-1.457572e-06	-8.560072e-10	-1.011385e+01	-6.233699e+01
1.540000e-06	-1.412167e-06	-8.438461e-10	-9.798792e+00	-6.156582e+01
1.550000e-06	-1.366678e-06	-8.282642e-10	-9.483151e+00	-6.077551e+01
1.560000e-06	-1.321203e-06	-8.138717e-10	-9.167603e+00	-5.996580e+01
1.570000e-06	-1.275633e-06	-8.011500e-10	-8.851404e+00	-5.913643e+01
1.580000e-06	-1.229941e-06	-7.901758e-10	-8.534351e+00	-5.828718e+01
1.590000e-06	-1.184173e-06	-7.801611e-10	-8.216779e+00	-5.741779e+01
1.600000e-06	-1.138240e-06	-7.681628e-10	-7.898053e+00	-5.652803e+01
1.610000e-06	-1.092229e-06	-7.545075e-10	-7.578794e+00	-5.561762e+01
1.620000e-06	-1.046140e-06	-7.406438e-10	-7.258989e+00	-5.468627e+01
1.630000e-06	-9.999728e-07	-7.279619e-10	-6.938643e+00	-5.373363e+01
1.640000e-06	-9.538156e-07	-7.154952e-10	-6.618366e+00	-5.275931e+01
1.650000e-06	-9.075760e-07	-6.992527e-10	-6.297517e+00	-5.176287e+01
1.660000e-06	-8.612094e-07	-6.851090e-10	-5.975788e+00	-5.074380e+01
1.670000e-06	-8.148120e-07	-6.724735e-10	-5.653844e+00	-4.970151e+01
1.680000e-06	-7.683208e-07	-6.581407e-10	-5.331249e+00	-4.863534e+01
1.690000e-06	-7.217777e-07	-6.404908e-10	-5.008294e+00	-4.754457e+01
1.700000e-06	-6.752093e-07	-6.209805e-10	-4.685164e+00	-4.642839e+01
1.710000e-06	-6.285700e-07	-6.001136e-10	-4.361541e+00	-4.528593e+01
1.720000e-06	-5.819261e-07	-5.819295e-10	-4.037887e+00	-4.411625e+01
1.730000e-06	-5.352409e-07	-5.661010e-10	-3.713946e+00	-4.291836e+01
1.740000e-06	-4.885447e-07	-5.478632e-10	-3.389930e+00	-4.169121e+01
1.750000e-06	-4.417702e-07	-5.291017e-10	-3.065369e+00	-4.043374e+01
1.760000e-06	-3.949920e-07	-5.083738e-10	-2.740783e+00	-3.914485e+01
1.770000e-06	-3.482352e-07	-4.868800e-10	-2.416345e+00	-3.782344e+01
1.780000e-06	-3.014404e-07	-4.687730e-10	-2.091644e+00	-3.646843e+01
1.790000e-06	-2.546815e-07	-4.529625e-10	-1.767192e+00	-3.507879e+01
1.800000e-06	-2.077299e-07	-4.346469e-10	-1.441403e+00	-3.365353e+01
1.810000e-06	-1.606595e-07	-4.137907e-10	-1.114790e+00	-3.219174e+01
1.820000e-06	-1.136816e-07	-3.911290e-10	-7.888173e-01	-3.069260e+01
1.830000e-06	-6.682077e-08	-3.680001e-10	-4.636581e-01	-2.915543e+01
1.840000e-06	-1.998454e-08	-3.433228e-10	-1.386694e-01	-2.757967e+01
1.850000e-06	2.693659e-08	-3.228978e-10	1.869085e-01	-2.596494e+01
1.860000e-06	7.387413e-08	-3.044314e-10	5.126002e-01	-2.431102e+01
1.870000e-06	1.208332e-07	-2.823343e-10	8.384414e-01	-2.261791e+01
1.880000e-06	1.677885e-07	-2.563036e-10	1.164256e+00	-2.088578e+01
1.890000e-06	2.146732e-07	-2.295707e-10	1.489581e+00	-1.911507e+01
1.900000e-06	2.614428e-07	-1.999474e-10	1.814108e+00	-1.730641e+01
1.910000e-06	3.082396e-07	-1.693650e-10	2.138823e+00	-1.546069e+01
1.920000e-06	3.550568e-07	-1.416938e-10	2.463679e+00	-1.357904e+01
1.930000e-06	4.018369e-07	-1.179291e-10	2.788279e+00	-1.166283e+01
1.940000e-06	4.486633e-07	-9.448113e-11	3.113199e+00	-9.713654e+00
1.950000e-06	4.954340e-07	-6.794765e-11	3.437734e+00	-7.733362e+00
1.960000e-06	5.420604e-07	-3.752340e-11	3.761266e+00	-5.724016e+00
1.970000e-06	5.886666e-07	-4.963137e-12	4.084659e+00	-3.687889e+00
1.980000e-06	6.352166e-07	2.637872e-11	4.407661e+00	-1.627452e+00
1.990000e-06	6.815602e-07	5.469571e-11	4.729231e+00	4.546453e-01
2.000000e-06	7.278350e-07	8.446844e-11	5.050325e+00	2.555596e+00
2.010000e-06	7.741318e-07	1.159617e-10	5.371571e+00	4.672455e+00
2.020000e-06	8.204153e-07	1.468084e-10	5.692724e+00	6.802167e+00
2.030000e-06	8.666655e-07	1.788271e-10	6.013646e+00	8.941587e+00
2.040000e-06	9.129072e-07	2.099393e-10	6.334510e+00	1.108751e+01
2.050000e-06	9.591128e-07	2.415925e-10	6.655123e+00	1.323670e+01
2.060000e-06	1.005213e-06	2.728368e-10	6.975003e+00	1.538590e+01
2.070000e-06	1.051320e-06	3.037627e-10	7.294933e+00	1.753188e+01
2.080000e-06	1.097388e-06	3.333784e-10	7.614591e+00	1.967146e+01
2.090000e-06	1.143287e-06	3.605168e-10	7.933079e+00	2.180151e+01
2.100000e-06	1.189077e-06	3.889994e-10	8.250803e+00	2.391900e+01
2.110000e-06	1.234750e-06	4.203424e-10	8.567721e+00	2.602102e+01
2.120000e-06	1.280384e-06	4.529786e-10	8.884372e+00	2.810477e+01
2.130000e-06	1.325913e-06	4.856343e-10	9.200291e+00	3.016762e+01
2.140000e-06	1.371311e-06	5.152910e-10	9.515294e+00	3.220709e+01
2.150000e-06	1.416671e-06	5.402769e-10	9.830043e+00	3.422087e+01
2.160000e-06	1.462006e-06	5.624549e-10	1.014461e+01	3.620686e+01
2.170000e-06	1.507302e-06	5.859365e-10	1.045891e+01	3.816311e+01
2.180000e-06	1.552445e-06	6.106407e-10	1.077215e+01	4.008790e+01
2.190000e-06	1.597434e-06	6.370603e-10	1.108432e+01	4.197969e+01
2.200000e-06	1.642220e-06	6.666043e-10	1.139509e+01	4.383713e+01
2.210000e-06	1.686810e-06	6.972545e-10	1.170449e+01	4.565909e+01
2.220000e-06	1.731335e-06	7.246500e-10	1.201345e+01	4.744459e+01
2.230000e-06	1.775786e-06	7.474896e-10	1.232188e+01	4.919286e+01
2.240000e-06	1.820115e-06	7.676839e-10	1.262947e+01	5.090328e+01
2.250000e-06	1.864322e-06	7.868796e-10	1.293622e+01	5.257541e+01
2.260000e-06	1.908386e-06	8.065656e-10	1.324197e+01	5.420895e+01
2.270000e-06	1.952361e-06	8.279144e-10	1.354711e+01	5.580373e+01
2.280000e-06	1.996301e-06	8.501254e-10	1.385200e+01	5.735972e+01
2.290000e-06	2.040192e-06	8.707418e-10	1.415655e+01	5.887701e+01
2.300000e-06	2.083998e-06	8.902807e-10	1.446052e+01	6.035576e+01
2.310000e-06	2.127763e-06	9.091960e-10	1.476419e+01	6.179624e+01
2.320000e-06	2.171484e-06	9.269217e-10	1.506756e+01	6.319880e+01
2.330000e-06	2.215110e-06	9.446332e-10	1.537028e+01	6.456383e+01
2.340000e-06	2.258623e-06	9.622999e-10	1.567221e+01	6.589180e+01
2.350000e-06	2.301995e-06	9.801771e-10	1.597315e+01	6.718319e+01
2.360000e-06	2.345083e-06	9.991612e-10	1.627213e+01	6.843856e+01
2.370000e-06	2.387885e-06	1.017574e-09	1.656914e+01	6.965846e+01
2.380000e-06	2.430465e-06	1.033221e-09	1.686459e+01	7.084347e+01
2.390000e-06	2.472622e-06	1.046832e-09	1.715711e+01	7.199419e+01
2.400000e-06	2.514389e-06	1.060380e-09	1.744692e+01	7.311123e+01
2.410000e-06	2.555836e-06	1.074639e-09	1.773452e+01	7.419520e+01
2.420000e-06	2.596950e-06	1.088957e-09	1.801980e+01	7.524673e+01
2.430000e-06	2.637888e-06	1.102398e-09	1.830386e+01	7.626644e+01
2.440000e-06	2.678674e-06	1.114685e-09	1.858687e+01	7.725496e+01
2.450000e-06	2.719183e-06	1.125518e-09	1.886795e+01	7.821293e+01
2.460000e-06	2.759448e-06	1.136782e-09	1.914735e+01	7.914097e+01
2.470000e-06	2.799590e-06	1.148060e-09	1.942589e+01	8.003974e+01
2.480000e-06	2.839632e-06	1.159411e-09	1.970373e+01	8.090987e+01
2.490000e-06	2.879567e-06	1.171318e-09	1.998083e+01	8.175204e+01
2.500000e-06	2.919353e-06	1.182603e-09	2.025690e+01	8.256689e+01
2.510000e-06	2.958966e-06	1.192489e-09	2.053176e+01	8.335512e+01
2.520000e-06	2.998453e-06	1.201640e-09	2.080576e+01	8.411740e+01
2.530000e-06	3.037758e-06	1.210997e-09	2.107849e+01	8.485444e+01
2.540000e-06	3.076777e-06	1.220453e-09	2.134924e+01	8.556694e+01
2.550000e-06	3.115572e-06	1.230626e-09	2.161843e+01	8.625563e+01
2.560000e-06	3.154138e-06	1.240443e-09	2.188603e+01	8.692125e+01
2.570000e-06	3.192430e-06	1.249365e-09	2.215174e+01	8.756455e+01
2.580000e-06	3.230540e-06	1.257530e-09	2.241617e+01	8.818627e+01
2.590000e-06	3.268485e-06	1.265562e-09	2.267947e+01	8.878719e+01
2.600000e-06	3.306248e-06	1.272204e-09	2.294150e+01	8.936807e+01
2.610000e-06	3.343814e-06	1.278706e-09	2.320216e+01	8.992970e+01
2.620000e-06	3.381168e-06	1.288099e-09	2.346136e+01	9.047284e+01
2.630000e-06	3.418155e-06	1.299315e-09	2.371800e+01	9.099827e+01
2.640000e-06	3.454786e-06	1.313922e-09	2.397218e+01	9.150675e+01
2.650000e-06	3.491176e-06	1.327523e-09	2.422468e+01	9.199906e+01
2.660000e-06	3.527335e-06	1.334595e-09	2.447558e+01	9.247593e+01
2.670000e-06	3.563393e-06	1.339026e-09	2.472578e+01	9.293811e+01
2.680000e-06	3.599402e-06	1.342930e-09	2.497565e+01	9.338633e+01
2.690000e-06	3.635313e-06	1.346929e-09	2.522483e+01	9.382127e+01
2.700000e-06	3.671076e-06	1.351869e-09	2.547298e+01	9.424363e+01
2.710000e-06	3.706598e-06	1.359084e-09	2.571946e+01	9.465406e+01
2.720000e-06	3.741771e-06	1.370154e-09	2.596352e+01	9.505320e+01
2.730000e-06	3.776589e-06	1.380527e-09	2.620511e+01	9.544166e+01
2.740000e-06	3.811087e-06	1.386996e-09	2.644449e+01	9.582003e+01
2.750000e-06	3.845110e-06	1.392396e-09	2.668058e+01	9.618886e+01
2.760000e-06	3.878557e-06	1.395955e-09	2.691265e+01	9.654869e+01
2.770000e-06	3.911593e-06	1.397475e-09	2.714189e+01	9.690001e+01
2.780000e-06	3.944239e-06	1.400580e-09	2.736841e+01	9.724330e+01
2.790000e-06	3.976502e-06	1.408559e-09	2.759228e+01	9.757901e+01
2.800000e-06	4.008583e-06	1.419481e-09	2.781488e+01	9.790755e+01
2.810000e-06	4.040483e-06	1.427397e-09	2.803623e+01	9.822932e+01
2.820000e-06	4.072220e-06	1.433418e-09	2.825645e+01	9.854469e+01
2.830000e-06	4.103810e-06	1.438896e-09	2.847564e+01	9.885400e+01
2.840000e-06	4.135249e-06	1.441938e-09	2.869380e+01	9.915755e+01
2.850000e-06	4.166439e-06	1.444441e-09	2.891022e+01	9.945563e+01
2.860000e-06	4.197215e-06	1.447310e-09	2.912377e+01	9.974850e+01
2.870000e-06	4.227591e-06	1.450454e-09	2.933454e+01	1.000364e+02
2.880000e-06	4.257676e-06	1.455629e-09	2.954330e+01	1.003195e+02
2.890000e-06	4.287567e-06	1.461154e-09	2.975070e+01	1.005980e+02
2.900000e-06	4.317200e-06	1.464147e-09	2.995632e+01	1.008721e+02
