# Temperatura_=_-7.0
# Concentracion g/m^3_=_1620.0
# C_Vs_to_Am_M_A/Vsm_=_65563218390.804596
# pendiente_HvsI_1/m_=_3716.3
# ordenada_HvsI_A/m_=_1297.0
# frecuencia_Hz_=_135102.94215736544

Tiempo_(s)	Campo_(V.s)	Magnetizacion_(V.s)	Campo_(kA/m)	Magnetizacion_(A/m)
0.000000e+00	-5.507226e-06	-1.326849e-09	-3.836999e+01	-8.524980e+01
1.000000e-08	-5.507376e-06	-1.321639e-09	-3.837103e+01	-8.518578e+01
2.000000e-08	-5.507333e-06	-1.317290e-09	-3.837074e+01	-8.512229e+01
3.000000e-08	-5.506994e-06	-1.315126e-09	-3.836837e+01	-8.505935e+01
4.000000e-08	-5.506167e-06	-1.315354e-09	-3.836261e+01	-8.499696e+01
5.000000e-08	-5.504753e-06	-1.314926e-09	-3.835276e+01	-8.493513e+01
6.000000e-08	-5.502673e-06	-1.304618e-09	-3.833826e+01	-8.487384e+01
7.000000e-08	-5.499918e-06	-1.296879e-09	-3.831907e+01	-8.481308e+01
8.000000e-08	-5.496661e-06	-1.311100e-09	-3.829638e+01	-8.475280e+01
9.000000e-08	-5.493002e-06	-1.358695e-09	-3.827089e+01	-8.469292e+01
1.000000e-07	-5.488941e-06	-1.391000e-09	-3.824260e+01	-8.463337e+01
1.100000e-07	-5.484579e-06	-1.341708e-09	-3.821220e+01	-8.457405e+01
1.200000e-07	-5.480074e-06	-1.215813e-09	-3.818081e+01	-8.451481e+01
1.300000e-07	-5.475357e-06	-1.236487e-09	-3.814795e+01	-8.445552e+01
1.400000e-07	-5.470211e-06	-1.322281e-09	-3.811210e+01	-8.439600e+01
1.500000e-07	-5.464630e-06	-1.363932e-09	-3.807321e+01	-8.433606e+01
1.600000e-07	-5.458670e-06	-1.267064e-09	-3.803169e+01	-8.427549e+01
1.700000e-07	-5.452380e-06	-1.254213e-09	-3.798786e+01	-8.421406e+01
1.800000e-07	-5.445600e-06	-1.334252e-09	-3.794063e+01	-8.415154e+01
1.900000e-07	-5.438320e-06	-1.335476e-09	-3.788990e+01	-8.408767e+01
2.000000e-07	-5.430793e-06	-1.250817e-09	-3.783746e+01	-8.402219e+01
2.100000e-07	-5.423020e-06	-1.224316e-09	-3.778331e+01	-8.395485e+01
2.200000e-07	-5.414975e-06	-1.306954e-09	-3.772725e+01	-8.388536e+01
2.300000e-07	-5.406643e-06	-1.327728e-09	-3.766921e+01	-8.381348e+01
2.400000e-07	-5.397954e-06	-1.277295e-09	-3.760867e+01	-8.373894e+01
2.500000e-07	-5.388704e-06	-1.225689e-09	-3.754422e+01	-8.366150e+01
2.600000e-07	-5.378699e-06	-1.264423e-09	-3.747451e+01	-8.358092e+01
2.700000e-07	-5.367997e-06	-1.279564e-09	-3.739995e+01	-8.349698e+01
2.800000e-07	-5.356794e-06	-1.271264e-09	-3.732190e+01	-8.340949e+01
2.900000e-07	-5.345229e-06	-1.236180e-09	-3.724132e+01	-8.331827e+01
3.000000e-07	-5.333299e-06	-1.255422e-09	-3.715820e+01	-8.322318e+01
3.100000e-07	-5.320969e-06	-1.255182e-09	-3.707229e+01	-8.312408e+01
3.200000e-07	-5.308202e-06	-1.240609e-09	-3.698335e+01	-8.302089e+01
3.300000e-07	-5.295014e-06	-1.205488e-09	-3.689147e+01	-8.291353e+01
3.400000e-07	-5.281491e-06	-1.235337e-09	-3.679725e+01	-8.280198e+01
3.500000e-07	-5.267544e-06	-1.261674e-09	-3.670007e+01	-8.268622e+01
3.600000e-07	-5.253156e-06	-1.252691e-09	-3.659983e+01	-8.256629e+01
3.700000e-07	-5.238306e-06	-1.227927e-09	-3.649636e+01	-8.244225e+01
3.800000e-07	-5.222953e-06	-1.250385e-09	-3.638940e+01	-8.231416e+01
3.900000e-07	-5.207098e-06	-1.238858e-09	-3.627894e+01	-8.218216e+01
4.000000e-07	-5.190751e-06	-1.200694e-09	-3.616504e+01	-8.204637e+01
4.100000e-07	-5.174015e-06	-1.223133e-09	-3.604844e+01	-8.190696e+01
4.200000e-07	-5.156971e-06	-1.253202e-09	-3.592969e+01	-8.176410e+01
4.300000e-07	-5.139668e-06	-1.213555e-09	-3.580913e+01	-8.161801e+01
4.400000e-07	-5.122075e-06	-1.202717e-09	-3.568656e+01	-8.146888e+01
4.500000e-07	-5.104080e-06	-1.264222e-09	-3.556119e+01	-8.131696e+01
4.600000e-07	-5.085649e-06	-1.237083e-09	-3.543278e+01	-8.116247e+01
4.700000e-07	-5.066775e-06	-1.176766e-09	-3.530127e+01	-8.100567e+01
4.800000e-07	-5.047609e-06	-1.210305e-09	-3.516774e+01	-8.084680e+01
4.900000e-07	-5.028238e-06	-1.243563e-09	-3.503278e+01	-8.068611e+01
5.000000e-07	-5.008602e-06	-1.182104e-09	-3.489597e+01	-8.052385e+01
5.100000e-07	-4.988716e-06	-1.189774e-09	-3.475742e+01	-8.036026e+01
5.200000e-07	-4.968502e-06	-1.228876e-09	-3.461659e+01	-8.019557e+01
5.300000e-07	-4.948002e-06	-1.191809e-09	-3.447376e+01	-8.003003e+01
5.400000e-07	-4.927144e-06	-1.165937e-09	-3.432844e+01	-7.986384e+01
5.500000e-07	-4.905874e-06	-1.223682e-09	-3.418025e+01	-7.969721e+01
5.600000e-07	-4.884252e-06	-1.201372e-09	-3.402960e+01	-7.953034e+01
5.700000e-07	-4.862278e-06	-1.155652e-09	-3.387650e+01	-7.936339e+01
5.800000e-07	-4.839954e-06	-1.189556e-09	-3.372097e+01	-7.919654e+01
5.900000e-07	-4.817248e-06	-1.209684e-09	-3.356277e+01	-7.902991e+01
6.000000e-07	-4.794163e-06	-1.156418e-09	-3.340193e+01	-7.886364e+01
6.100000e-07	-4.770822e-06	-1.165824e-09	-3.323931e+01	-7.869783e+01
6.200000e-07	-4.747295e-06	-1.189737e-09	-3.307539e+01	-7.853257e+01
6.300000e-07	-4.723535e-06	-1.160210e-09	-3.290985e+01	-7.836793e+01
6.400000e-07	-4.699502e-06	-1.151079e-09	-3.274241e+01	-7.820396e+01
6.500000e-07	-4.675178e-06	-1.179781e-09	-3.257294e+01	-7.804068e+01
6.600000e-07	-4.650401e-06	-1.165410e-09	-3.240031e+01	-7.787811e+01
6.700000e-07	-4.625154e-06	-1.155368e-09	-3.222441e+01	-7.771623e+01
6.800000e-07	-4.599398e-06	-1.174406e-09	-3.204496e+01	-7.755503e+01
6.900000e-07	-4.573055e-06	-1.164252e-09	-3.186142e+01	-7.739445e+01
7.000000e-07	-4.546246e-06	-1.142763e-09	-3.167464e+01	-7.723443e+01
7.100000e-07	-4.519029e-06	-1.152852e-09	-3.148501e+01	-7.707488e+01
7.200000e-07	-4.491525e-06	-1.152027e-09	-3.129339e+01	-7.691571e+01
7.300000e-07	-4.463824e-06	-1.133677e-09	-3.110039e+01	-7.675680e+01
7.400000e-07	-4.435978e-06	-1.140610e-09	-3.090638e+01	-7.659801e+01
7.500000e-07	-4.407972e-06	-1.143649e-09	-3.071126e+01	-7.643921e+01
7.600000e-07	-4.379738e-06	-1.130965e-09	-3.051454e+01	-7.628022e+01
7.700000e-07	-4.351190e-06	-1.129182e-09	-3.031565e+01	-7.612087e+01
7.800000e-07	-4.322232e-06	-1.135684e-09	-3.011389e+01	-7.596098e+01
7.900000e-07	-4.292932e-06	-1.121132e-09	-2.990975e+01	-7.580035e+01
8.000000e-07	-4.263402e-06	-1.117975e-09	-2.970401e+01	-7.563876e+01
8.100000e-07	-4.233644e-06	-1.120159e-09	-2.949668e+01	-7.547601e+01
8.200000e-07	-4.203600e-06	-1.107697e-09	-2.928736e+01	-7.531187e+01
8.300000e-07	-4.173292e-06	-1.092461e-09	-2.907619e+01	-7.514613e+01
8.400000e-07	-4.142740e-06	-1.101285e-09	-2.886333e+01	-7.497855e+01
8.500000e-07	-4.111819e-06	-1.100198e-09	-2.864790e+01	-7.480892e+01
8.600000e-07	-4.080518e-06	-1.090803e-09	-2.842982e+01	-7.463701e+01
8.700000e-07	-4.049029e-06	-1.087640e-09	-2.821043e+01	-7.446260e+01
8.800000e-07	-4.017405e-06	-1.088467e-09	-2.799010e+01	-7.428549e+01
8.900000e-07	-3.985599e-06	-1.074251e-09	-2.776849e+01	-7.410549e+01
9.000000e-07	-3.953609e-06	-1.068524e-09	-2.754561e+01	-7.392240e+01
9.100000e-07	-3.921410e-06	-1.070264e-09	-2.732128e+01	-7.373606e+01
9.200000e-07	-3.888858e-06	-1.067366e-09	-2.709448e+01	-7.354632e+01
9.300000e-07	-3.855812e-06	-1.063046e-09	-2.686424e+01	-7.335305e+01
9.400000e-07	-3.822334e-06	-1.068730e-09	-2.663100e+01	-7.315613e+01
9.500000e-07	-3.788380e-06	-1.065517e-09	-2.639443e+01	-7.295548e+01
9.600000e-07	-3.753982e-06	-1.053571e-09	-2.615477e+01	-7.275104e+01
9.700000e-07	-3.719230e-06	-1.049628e-09	-2.591265e+01	-7.254276e+01
9.800000e-07	-3.684058e-06	-1.048247e-09	-2.566760e+01	-7.233063e+01
9.900000e-07	-3.648584e-06	-1.037641e-09	-2.542044e+01	-7.211467e+01
1.000000e-06	-3.612969e-06	-1.031198e-09	-2.517230e+01	-7.189490e+01
1.010000e-06	-3.577255e-06	-1.033328e-09	-2.492348e+01	-7.167138e+01
1.020000e-06	-3.541393e-06	-1.029505e-09	-2.467362e+01	-7.144420e+01
1.030000e-06	-3.505370e-06	-1.025311e-09	-2.442264e+01	-7.121346e+01
1.040000e-06	-3.469172e-06	-1.026784e-09	-2.417044e+01	-7.097928e+01
1.050000e-06	-3.432714e-06	-1.025888e-09	-2.391643e+01	-7.074178e+01
1.060000e-06	-3.396011e-06	-1.017462e-09	-2.366071e+01	-7.050111e+01
1.070000e-06	-3.359107e-06	-1.015473e-09	-2.340360e+01	-7.025742e+01
1.080000e-06	-3.321903e-06	-1.012322e-09	-2.314439e+01	-7.001088e+01
1.090000e-06	-3.284434e-06	-1.005750e-09	-2.288333e+01	-6.976163e+01
1.100000e-06	-3.246771e-06	-1.001743e-09	-2.262093e+01	-6.950982e+01
1.110000e-06	-3.208841e-06	-1.001995e-09	-2.235666e+01	-6.925561e+01
1.120000e-06	-3.170649e-06	-9.936718e-10	-2.209057e+01	-6.899913e+01
1.130000e-06	-3.132282e-06	-9.847502e-10	-2.182326e+01	-6.874048e+01
1.140000e-06	-3.093687e-06	-9.808661e-10	-2.155436e+01	-6.847976e+01
1.150000e-06	-3.054834e-06	-9.794605e-10	-2.128366e+01	-6.821704e+01
1.160000e-06	-3.015849e-06	-9.738636e-10	-2.101205e+01	-6.795237e+01
1.170000e-06	-2.976708e-06	-9.720144e-10	-2.073935e+01	-6.768576e+01
1.180000e-06	-2.937380e-06	-9.709181e-10	-2.046533e+01	-6.741718e+01
1.190000e-06	-2.897896e-06	-9.680932e-10	-2.019025e+01	-6.714659e+01
1.200000e-06	-2.858241e-06	-9.639725e-10	-1.991396e+01	-6.687389e+01
1.210000e-06	-2.818434e-06	-9.592202e-10	-1.963661e+01	-6.659897e+01
1.220000e-06	-2.778525e-06	-9.506569e-10	-1.935856e+01	-6.632164e+01
1.230000e-06	-2.738546e-06	-9.447236e-10	-1.908002e+01	-6.604173e+01
1.240000e-06	-2.698410e-06	-9.435020e-10	-1.880039e+01	-6.575900e+01
1.250000e-06	-2.658041e-06	-9.420463e-10	-1.851912e+01	-6.547318e+01
1.260000e-06	-2.617444e-06	-9.396176e-10	-1.823628e+01	-6.518400e+01
1.270000e-06	-2.576650e-06	-9.362255e-10	-1.795206e+01	-6.489112e+01
1.280000e-06	-2.535764e-06	-9.304554e-10	-1.766719e+01	-6.459422e+01
1.290000e-06	-2.494675e-06	-9.231983e-10	-1.738092e+01	-6.429292e+01
1.300000e-06	-2.453174e-06	-9.160345e-10	-1.709177e+01	-6.398688e+01
1.310000e-06	-2.411223e-06	-9.099775e-10	-1.679949e+01	-6.367569e+01
1.320000e-06	-2.368866e-06	-9.045555e-10	-1.650438e+01	-6.335898e+01
1.330000e-06	-2.326227e-06	-8.993306e-10	-1.620731e+01	-6.303635e+01
1.340000e-06	-2.283419e-06	-8.955792e-10	-1.590906e+01	-6.270742e+01
1.350000e-06	-2.240418e-06	-8.934448e-10	-1.560946e+01	-6.237181e+01
1.360000e-06	-2.197211e-06	-8.911219e-10	-1.530843e+01	-6.202916e+01
1.370000e-06	-2.153778e-06	-8.877812e-10	-1.500582e+01	-6.167910e+01
1.380000e-06	-2.110161e-06	-8.810708e-10	-1.470193e+01	-6.132131e+01
1.390000e-06	-2.066451e-06	-8.722783e-10	-1.439739e+01	-6.095545e+01
1.400000e-06	-2.022705e-06	-8.639934e-10	-1.409260e+01	-6.058123e+01
1.410000e-06	-1.978924e-06	-8.552666e-10	-1.378758e+01	-6.019835e+01
1.420000e-06	-1.935051e-06	-8.490242e-10	-1.348190e+01	-5.980657e+01
1.430000e-06	-1.891103e-06	-8.418588e-10	-1.317571e+01	-5.940561e+01
1.440000e-06	-1.847079e-06	-8.353020e-10	-1.286898e+01	-5.899526e+01
1.450000e-06	-1.802918e-06	-8.260972e-10	-1.256131e+01	-5.857528e+01
1.460000e-06	-1.758617e-06	-8.174209e-10	-1.225265e+01	-5.814546e+01
1.470000e-06	-1.714205e-06	-8.059131e-10	-1.194322e+01	-5.770558e+01
1.480000e-06	-1.669743e-06	-7.965786e-10	-1.163345e+01	-5.725543e+01
1.490000e-06	-1.625195e-06	-7.868433e-10	-1.132307e+01	-5.679478e+01
1.500000e-06	-1.580452e-06	-7.743955e-10	-1.101134e+01	-5.632339e+01
1.510000e-06	-1.535607e-06	-7.616058e-10	-1.069890e+01	-5.584100e+01
1.520000e-06	-1.490694e-06	-7.517804e-10	-1.038598e+01	-5.534734e+01
1.530000e-06	-1.445636e-06	-7.429567e-10	-1.007204e+01	-5.484206e+01
1.540000e-06	-1.400444e-06	-7.334867e-10	-9.757185e+00	-5.432482e+01
1.550000e-06	-1.355057e-06	-7.219973e-10	-9.440965e+00	-5.379521e+01
1.560000e-06	-1.309564e-06	-7.092203e-10	-9.124008e+00	-5.325278e+01
1.570000e-06	-1.264081e-06	-6.968974e-10	-8.807117e+00	-5.269700e+01
1.580000e-06	-1.218505e-06	-6.855003e-10	-8.489575e+00	-5.212730e+01
1.590000e-06	-1.172802e-06	-6.751987e-10	-8.171155e+00	-5.154306e+01
1.600000e-06	-1.127070e-06	-6.656353e-10	-7.852528e+00	-5.094355e+01
1.610000e-06	-1.081340e-06	-6.565859e-10	-7.533921e+00	-5.032803e+01
1.620000e-06	-1.035563e-06	-6.482456e-10	-7.214985e+00	-4.969565e+01
1.630000e-06	-9.895922e-07	-6.414061e-10	-6.894694e+00	-4.904552e+01
1.640000e-06	-9.434859e-07	-6.329710e-10	-6.573463e+00	-4.837666e+01
1.650000e-06	-8.973652e-07	-6.227023e-10	-6.252130e+00	-4.768808e+01
1.660000e-06	-8.511827e-07	-6.110108e-10	-5.930367e+00	-4.697869e+01
1.670000e-06	-8.049977e-07	-5.993887e-10	-5.608586e+00	-4.624738e+01
1.680000e-06	-7.588023e-07	-5.864315e-10	-5.286733e+00	-4.549301e+01
1.690000e-06	-7.125605e-07	-5.753325e-10	-4.964557e+00	-4.471438e+01
1.700000e-06	-6.663070e-07	-5.627388e-10	-4.642299e+00	-4.391029e+01
1.710000e-06	-6.199526e-07	-5.499969e-10	-4.319338e+00	-4.307955e+01
1.720000e-06	-5.735332e-07	-5.358818e-10	-3.995925e+00	-4.222095e+01
1.730000e-06	-5.271345e-07	-5.208893e-10	-3.672656e+00	-4.133331e+01
1.740000e-06	-4.807397e-07	-5.054183e-10	-3.349413e+00	-4.041546e+01
1.750000e-06	-4.342872e-07	-4.894132e-10	-3.025769e+00	-3.946629e+01
1.760000e-06	-3.877432e-07	-4.717784e-10	-2.701488e+00	-3.848476e+01
1.770000e-06	-3.411380e-07	-4.537209e-10	-2.376779e+00	-3.746985e+01
1.780000e-06	-2.944931e-07	-4.379136e-10	-2.051795e+00	-3.642068e+01
1.790000e-06	-2.478674e-07	-4.238638e-10	-1.726943e+00	-3.533641e+01
1.800000e-06	-2.012355e-07	-4.087207e-10	-1.402050e+00	-3.421633e+01
1.810000e-06	-1.546033e-07	-3.931738e-10	-1.077153e+00	-3.305986e+01
1.820000e-06	-1.079321e-07	-3.772730e-10	-7.519854e-01	-3.186650e+01
1.830000e-06	-6.126904e-08	-3.597603e-10	-4.268742e-01	-3.063593e+01
1.840000e-06	-1.460120e-08	-3.422806e-10	-1.017296e-01	-2.936794e+01
1.850000e-06	3.210487e-08	-3.261584e-10	2.236813e-01	-2.806246e+01
1.860000e-06	7.881818e-08	-3.088250e-10	5.491427e-01	-2.671960e+01
1.870000e-06	1.255780e-07	-2.897842e-10	8.749281e-01	-2.533960e+01
1.880000e-06	1.723138e-07	-2.698471e-10	1.200546e+00	-2.392286e+01
1.890000e-06	2.189631e-07	-2.503618e-10	1.525561e+00	-2.246993e+01
1.900000e-06	2.656086e-07	-2.304738e-10	1.850551e+00	-2.098153e+01
1.910000e-06	3.123429e-07	-2.084405e-10	2.176158e+00	-1.945850e+01
1.920000e-06	3.590892e-07	-1.841424e-10	2.501849e+00	-1.790187e+01
1.930000e-06	4.057538e-07	-1.590180e-10	2.826971e+00	-1.631277e+01
1.940000e-06	4.523585e-07	-1.363433e-10	3.151676e+00	-1.469248e+01
1.950000e-06	4.988755e-07	-1.135113e-10	3.475769e+00	-1.304242e+01
1.960000e-06	5.453253e-07	-9.307531e-11	3.799395e+00	-1.136411e+01
1.970000e-06	5.918771e-07	-7.426782e-11	4.123731e+00	-9.659200e+00
1.980000e-06	6.383637e-07	-5.445047e-11	4.447613e+00	-7.929424e+00
1.990000e-06	6.846577e-07	-3.037128e-11	4.770153e+00	-6.176616e+00
2.000000e-06	7.308776e-07	-1.919988e-12	5.092176e+00	-4.402688e+00
2.010000e-06	7.771017e-07	2.834431e-11	5.414229e+00	-2.609623e+00
2.020000e-06	8.232844e-07	5.697210e-11	5.735994e+00	-7.994636e-01
2.030000e-06	8.693830e-07	8.272281e-11	6.057172e+00	1.025701e+00
2.040000e-06	9.154281e-07	1.051647e-10	6.377978e+00	2.863740e+00
2.050000e-06	9.614227e-07	1.268533e-10	6.698432e+00	4.712498e+00
2.060000e-06	1.007389e-06	1.499137e-10	7.018685e+00	6.569797e+00
2.070000e-06	1.053268e-06	1.762856e-10	7.338338e+00	8.433453e+00
2.080000e-06	1.099074e-06	2.048940e-10	7.657478e+00	1.030128e+01
2.090000e-06	1.144827e-06	2.339535e-10	7.976250e+00	1.217110e+01
2.100000e-06	1.190445e-06	2.628661e-10	8.294076e+00	1.404076e+01
2.110000e-06	1.235948e-06	2.903818e-10	8.611108e+00	1.590811e+01
2.120000e-06	1.281420e-06	3.168404e-10	8.927917e+00	1.777104e+01
2.130000e-06	1.326840e-06	3.429580e-10	9.244371e+00	1.962749e+01
2.140000e-06	1.372166e-06	3.670041e-10	9.560169e+00	2.147542e+01
2.150000e-06	1.417350e-06	3.886836e-10	9.874970e+00	2.331285e+01
2.160000e-06	1.462417e-06	4.114066e-10	1.018896e+01	2.513783e+01
2.170000e-06	1.507455e-06	4.364567e-10	1.050275e+01	2.694851e+01
2.180000e-06	1.552385e-06	4.632395e-10	1.081579e+01	2.874305e+01
2.190000e-06	1.597150e-06	4.904056e-10	1.112767e+01	3.051970e+01
2.200000e-06	1.641744e-06	5.169722e-10	1.143837e+01	3.227678e+01
2.210000e-06	1.686191e-06	5.416153e-10	1.174804e+01	3.401265e+01
2.220000e-06	1.730589e-06	5.648721e-10	1.205737e+01	3.572578e+01
2.230000e-06	1.774881e-06	5.873910e-10	1.236597e+01	3.741468e+01
2.240000e-06	1.819025e-06	6.085042e-10	1.267353e+01	3.907798e+01
2.250000e-06	1.863001e-06	6.277333e-10	1.297992e+01	4.071434e+01
2.260000e-06	1.906860e-06	6.471592e-10	1.328549e+01	4.232254e+01
2.270000e-06	1.950695e-06	6.678271e-10	1.359090e+01	4.390143e+01
2.280000e-06	1.994488e-06	6.886681e-10	1.389601e+01	4.544996e+01
2.290000e-06	2.038226e-06	7.087862e-10	1.420074e+01	4.696715e+01
2.300000e-06	2.081902e-06	7.287227e-10	1.450504e+01	4.845212e+01
2.310000e-06	2.125521e-06	7.478888e-10	1.480895e+01	4.990409e+01
2.320000e-06	2.169081e-06	7.670503e-10	1.511243e+01	5.132237e+01
2.330000e-06	2.212515e-06	7.854925e-10	1.541505e+01	5.270637e+01
2.340000e-06	2.255769e-06	8.050300e-10	1.571641e+01	5.405558e+01
2.350000e-06	2.298843e-06	8.243482e-10	1.601652e+01	5.536961e+01
2.360000e-06	2.341736e-06	8.424736e-10	1.631536e+01	5.664815e+01
2.370000e-06	2.384355e-06	8.596179e-10	1.661230e+01	5.789100e+01
2.380000e-06	2.426591e-06	8.746828e-10	1.690657e+01	5.909806e+01
2.390000e-06	2.468481e-06	8.889174e-10	1.719842e+01	6.026930e+01
2.400000e-06	2.510061e-06	9.029572e-10	1.748811e+01	6.140480e+01
2.410000e-06	2.551288e-06	9.164843e-10	1.777536e+01	6.250474e+01
2.420000e-06	2.592210e-06	9.293894e-10	1.806047e+01	6.356938e+01
2.430000e-06	2.632856e-06	9.424886e-10	1.834365e+01	6.459904e+01
2.440000e-06	2.673257e-06	9.558095e-10	1.862514e+01	6.559416e+01
2.450000e-06	2.713514e-06	9.670660e-10	1.890562e+01	6.655521e+01
2.460000e-06	2.753583e-06	9.761876e-10	1.918479e+01	6.748278e+01
2.470000e-06	2.793470e-06	9.856863e-10	1.946269e+01	6.837747e+01
2.480000e-06	2.833274e-06	9.967741e-10	1.974001e+01	6.923996e+01
2.490000e-06	2.873008e-06	1.007855e-09	2.001685e+01	7.007100e+01
2.500000e-06	2.912678e-06	1.018880e-09	2.029324e+01	7.087134e+01
2.510000e-06	2.952195e-06	1.030293e-09	2.056856e+01	7.164180e+01
2.520000e-06	2.991472e-06	1.039887e-09	2.084221e+01	7.238322e+01
2.530000e-06	3.030563e-06	1.047000e-09	2.111456e+01	7.309644e+01
2.540000e-06	3.069458e-06	1.054198e-09	2.138555e+01	7.378235e+01
2.550000e-06	3.108085e-06	1.062550e-09	2.165467e+01	7.444181e+01
2.560000e-06	3.146385e-06	1.069403e-09	2.192152e+01	7.507572e+01
2.570000e-06	3.184409e-06	1.076534e-09	2.218644e+01	7.568495e+01
2.580000e-06	3.222268e-06	1.084431e-09	2.245021e+01	7.627036e+01
2.590000e-06	3.260008e-06	1.091514e-09	2.271315e+01	7.683281e+01
2.600000e-06	3.297602e-06	1.097918e-09	2.297508e+01	7.737312e+01
2.610000e-06	3.334981e-06	1.105507e-09	2.323550e+01	7.789210e+01
2.620000e-06	3.372030e-06	1.113755e-09	2.349363e+01	7.839053e+01
2.630000e-06	3.408767e-06	1.121929e-09	2.374959e+01	7.886918e+01
2.640000e-06	3.445298e-06	1.130421e-09	2.400411e+01	7.932875e+01
2.650000e-06	3.481608e-06	1.137959e-09	2.425709e+01	7.976995e+01
2.660000e-06	3.517651e-06	1.142673e-09	2.450821e+01	8.019343e+01
2.670000e-06	3.553508e-06	1.146507e-09	2.475803e+01	8.059983e+01
2.680000e-06	3.589282e-06	1.150656e-09	2.500727e+01	8.098974e+01
2.690000e-06	3.624940e-06	1.156064e-09	2.525571e+01	8.136375e+01
2.700000e-06	3.660494e-06	1.163296e-09	2.550342e+01	8.172240e+01
2.710000e-06	3.695880e-06	1.170620e-09	2.574997e+01	8.206622e+01
2.720000e-06	3.730960e-06	1.177773e-09	2.599437e+01	8.239571e+01
2.730000e-06	3.765631e-06	1.183255e-09	2.623593e+01	8.271136e+01
2.740000e-06	3.799833e-06	1.187383e-09	2.647423e+01	8.301365e+01
2.750000e-06	3.833443e-06	1.189560e-09	2.670839e+01	8.330304e+01
2.760000e-06	3.866522e-06	1.191955e-09	2.693886e+01	8.357998e+01
2.770000e-06	3.899207e-06	1.194636e-09	2.716659e+01	8.384492e+01
2.780000e-06	3.931545e-06	1.198111e-09	2.739189e+01	8.409830e+01
2.790000e-06	3.963665e-06	1.205076e-09	2.761568e+01	8.434056e+01
2.800000e-06	3.995589e-06	1.210122e-09	2.783810e+01	8.457214e+01
2.810000e-06	4.027355e-06	1.212449e-09	2.805942e+01	8.479348e+01
2.820000e-06	4.058962e-06	1.213753e-09	2.827963e+01	8.500503e+01
2.830000e-06	4.090323e-06	1.216845e-09	2.849813e+01	8.520721e+01
2.840000e-06	4.121460e-06	1.220768e-09	2.871507e+01	8.540047e+01
2.850000e-06	4.152392e-06	1.223426e-09	2.893058e+01	8.558526e+01
2.860000e-06	4.183038e-06	1.225851e-09	2.914410e+01	8.576199e+01
2.870000e-06	4.213295e-06	1.227226e-09	2.935490e+01	8.593111e+01
2.880000e-06	4.243206e-06	1.227534e-09	2.956330e+01	8.609303e+01
2.890000e-06	4.272879e-06	1.228755e-09	2.977004e+01	8.624816e+01
2.900000e-06	4.302303e-06	1.230080e-09	2.997504e+01	8.639691e+01
