# Temperatura_=_12.99
# Concentracion g/m^3_=_1620.0
# C_Vs_to_Am_M_A/Vsm_=_65563218390.804596
# pendiente_HvsI_1/m_=_3716.3
# ordenada_HvsI_A/m_=_1297.0
# frecuencia_Hz_=_135096.21906170296

Tiempo_(s)	Campo_(V.s)	Magnetizacion_(V.s)	Campo_(kA/m)	Magnetizacion_(A/m)
0.000000e+00	-5.514653e-06	-1.724227e-09	-3.837386e+01	-1.107559e+02
1.000000e-08	-5.514861e-06	-1.725321e-09	-3.837531e+01	-1.107041e+02
2.000000e-08	-5.514777e-06	-1.720576e-09	-3.837473e+01	-1.106508e+02
3.000000e-08	-5.514284e-06	-1.717313e-09	-3.837129e+01	-1.105960e+02
4.000000e-08	-5.513282e-06	-1.714629e-09	-3.836432e+01	-1.105397e+02
5.000000e-08	-5.511646e-06	-1.712804e-09	-3.835294e+01	-1.104817e+02
6.000000e-08	-5.509423e-06	-1.710634e-09	-3.833747e+01	-1.104220e+02
7.000000e-08	-5.506643e-06	-1.692824e-09	-3.831813e+01	-1.103604e+02
8.000000e-08	-5.503405e-06	-1.714388e-09	-3.829559e+01	-1.102966e+02
9.000000e-08	-5.499771e-06	-1.801170e-09	-3.827031e+01	-1.102305e+02
1.000000e-07	-5.495638e-06	-1.807782e-09	-3.824155e+01	-1.101617e+02
1.100000e-07	-5.491214e-06	-1.638647e-09	-3.821076e+01	-1.100901e+02
1.200000e-07	-5.486678e-06	-1.590670e-09	-3.817920e+01	-1.100153e+02
1.300000e-07	-5.481922e-06	-1.700953e-09	-3.814610e+01	-1.099369e+02
1.400000e-07	-5.476674e-06	-1.804608e-09	-3.810958e+01	-1.098546e+02
1.500000e-07	-5.470864e-06	-1.680371e-09	-3.806915e+01	-1.097681e+02
1.600000e-07	-5.464762e-06	-1.633932e-09	-3.802669e+01	-1.096770e+02
1.700000e-07	-5.458351e-06	-1.736126e-09	-3.798208e+01	-1.095810e+02
1.800000e-07	-5.451505e-06	-1.778772e-09	-3.793445e+01	-1.094798e+02
1.900000e-07	-5.444249e-06	-1.638774e-09	-3.788396e+01	-1.093730e+02
2.000000e-07	-5.436749e-06	-1.565283e-09	-3.783177e+01	-1.092604e+02
2.100000e-07	-5.429014e-06	-1.658491e-09	-3.777794e+01	-1.091417e+02
2.200000e-07	-5.420941e-06	-1.727738e-09	-3.772176e+01	-1.090167e+02
2.300000e-07	-5.412606e-06	-1.681452e-09	-3.766377e+01	-1.088853e+02
2.400000e-07	-5.403849e-06	-1.611824e-09	-3.760283e+01	-1.087474e+02
2.500000e-07	-5.394356e-06	-1.636172e-09	-3.753677e+01	-1.086028e+02
2.600000e-07	-5.384098e-06	-1.651343e-09	-3.746539e+01	-1.084515e+02
2.700000e-07	-5.373305e-06	-1.655573e-09	-3.739029e+01	-1.082936e+02
2.800000e-07	-5.362075e-06	-1.632235e-09	-3.731214e+01	-1.081292e+02
2.900000e-07	-5.350464e-06	-1.644417e-09	-3.723135e+01	-1.079583e+02
3.000000e-07	-5.338594e-06	-1.638253e-09	-3.714875e+01	-1.077812e+02
3.100000e-07	-5.326261e-06	-1.656084e-09	-3.706294e+01	-1.075980e+02
3.200000e-07	-5.313308e-06	-1.615423e-09	-3.697280e+01	-1.074091e+02
3.300000e-07	-5.300025e-06	-1.617441e-09	-3.688037e+01	-1.072146e+02
3.400000e-07	-5.286488e-06	-1.637236e-09	-3.678617e+01	-1.070151e+02
3.500000e-07	-5.272493e-06	-1.645327e-09	-3.668879e+01	-1.068107e+02
3.600000e-07	-5.257964e-06	-1.595156e-09	-3.658769e+01	-1.066019e+02
3.700000e-07	-5.243116e-06	-1.630016e-09	-3.648437e+01	-1.063892e+02
3.800000e-07	-5.227791e-06	-1.636189e-09	-3.637773e+01	-1.061727e+02
3.900000e-07	-5.211611e-06	-1.574457e-09	-3.626514e+01	-1.059531e+02
4.000000e-07	-5.194992e-06	-1.575516e-09	-3.614950e+01	-1.057307e+02
4.100000e-07	-5.178282e-06	-1.649538e-09	-3.603322e+01	-1.055058e+02
4.200000e-07	-5.161184e-06	-1.596634e-09	-3.591424e+01	-1.052789e+02
4.300000e-07	-5.143695e-06	-1.539871e-09	-3.579254e+01	-1.050503e+02
4.400000e-07	-5.126025e-06	-1.626284e-09	-3.566959e+01	-1.048203e+02
4.500000e-07	-5.108080e-06	-1.629272e-09	-3.554471e+01	-1.045893e+02
4.600000e-07	-5.089675e-06	-1.513321e-09	-3.541664e+01	-1.043574e+02
4.700000e-07	-5.070773e-06	-1.542721e-09	-3.528511e+01	-1.041250e+02
4.800000e-07	-5.051504e-06	-1.629104e-09	-3.515103e+01	-1.038921e+02
4.900000e-07	-5.031938e-06	-1.547549e-09	-3.501488e+01	-1.036590e+02
5.000000e-07	-5.012162e-06	-1.526989e-09	-3.487727e+01	-1.034257e+02
5.100000e-07	-4.992179e-06	-1.610281e-09	-3.473822e+01	-1.031924e+02
5.200000e-07	-4.971882e-06	-1.566268e-09	-3.459698e+01	-1.029590e+02
5.300000e-07	-4.951258e-06	-1.492570e-09	-3.445346e+01	-1.027255e+02
5.400000e-07	-4.930270e-06	-1.579267e-09	-3.430742e+01	-1.024919e+02
5.500000e-07	-4.908908e-06	-1.578134e-09	-3.415877e+01	-1.022581e+02
5.600000e-07	-4.887203e-06	-1.485884e-09	-3.400773e+01	-1.020240e+02
5.700000e-07	-4.865234e-06	-1.525874e-09	-3.385487e+01	-1.017895e+02
5.800000e-07	-4.842949e-06	-1.587329e-09	-3.369979e+01	-1.015544e+02
5.900000e-07	-4.820264e-06	-1.500326e-09	-3.354193e+01	-1.013185e+02
6.000000e-07	-4.797257e-06	-1.491731e-09	-3.338185e+01	-1.010817e+02
6.100000e-07	-4.773958e-06	-1.553122e-09	-3.321972e+01	-1.008437e+02
6.200000e-07	-4.750401e-06	-1.515389e-09	-3.305579e+01	-1.006043e+02
6.300000e-07	-4.726605e-06	-1.473151e-09	-3.289021e+01	-1.003635e+02
6.400000e-07	-4.702536e-06	-1.530762e-09	-3.272273e+01	-1.001209e+02
6.500000e-07	-4.678100e-06	-1.520740e-09	-3.255269e+01	-9.987632e+01
6.600000e-07	-4.653247e-06	-1.473426e-09	-3.237975e+01	-9.962968e+01
6.700000e-07	-4.628009e-06	-1.496335e-09	-3.220413e+01	-9.938077e+01
6.800000e-07	-4.602266e-06	-1.510492e-09	-3.202499e+01	-9.912943e+01
6.900000e-07	-4.575865e-06	-1.466763e-09	-3.184128e+01	-9.887554e+01
7.000000e-07	-4.548925e-06	-1.472964e-09	-3.165382e+01	-9.861897e+01
7.100000e-07	-4.521668e-06	-1.496245e-09	-3.146415e+01	-9.835963e+01
7.200000e-07	-4.494167e-06	-1.473177e-09	-3.127278e+01	-9.809742e+01
7.300000e-07	-4.466477e-06	-1.461036e-09	-3.108010e+01	-9.783228e+01
7.400000e-07	-4.438594e-06	-1.476923e-09	-3.088608e+01	-9.756416e+01
7.500000e-07	-4.410481e-06	-1.462373e-09	-3.069045e+01	-9.729303e+01
7.600000e-07	-4.382154e-06	-1.440832e-09	-3.049334e+01	-9.701887e+01
7.700000e-07	-4.353546e-06	-1.451653e-09	-3.029427e+01	-9.674165e+01
7.800000e-07	-4.324540e-06	-1.448219e-09	-3.009243e+01	-9.646138e+01
7.900000e-07	-4.295178e-06	-1.430905e-09	-2.988811e+01	-9.617806e+01
8.000000e-07	-4.265512e-06	-1.431421e-09	-2.968168e+01	-9.589171e+01
8.100000e-07	-4.235632e-06	-1.432841e-09	-2.947376e+01	-9.560232e+01
8.200000e-07	-4.205552e-06	-1.408349e-09	-2.926445e+01	-9.530991e+01
8.300000e-07	-4.175148e-06	-1.405202e-09	-2.905288e+01	-9.501447e+01
8.400000e-07	-4.144342e-06	-1.412634e-09	-2.883852e+01	-9.471602e+01
8.500000e-07	-4.113258e-06	-1.403613e-09	-2.862222e+01	-9.441455e+01
8.600000e-07	-4.081998e-06	-1.391351e-09	-2.840469e+01	-9.411002e+01
8.700000e-07	-4.050556e-06	-1.395225e-09	-2.818590e+01	-9.380243e+01
8.800000e-07	-4.018909e-06	-1.377722e-09	-2.796569e+01	-9.349172e+01
8.900000e-07	-3.986983e-06	-1.360374e-09	-2.774353e+01	-9.317785e+01
9.000000e-07	-3.954819e-06	-1.361529e-09	-2.751972e+01	-9.286076e+01
9.100000e-07	-3.922415e-06	-1.364123e-09	-2.729423e+01	-9.254036e+01
9.200000e-07	-3.889685e-06	-1.353554e-09	-2.706648e+01	-9.221657e+01
9.300000e-07	-3.856608e-06	-1.359777e-09	-2.683631e+01	-9.188930e+01
9.400000e-07	-3.823172e-06	-1.361808e-09	-2.660364e+01	-9.155844e+01
9.500000e-07	-3.789208e-06	-1.345351e-09	-2.636731e+01	-9.122385e+01
9.600000e-07	-3.754711e-06	-1.330436e-09	-2.612726e+01	-9.088544e+01
9.700000e-07	-3.719843e-06	-1.327688e-09	-2.588463e+01	-9.054305e+01
9.800000e-07	-3.684689e-06	-1.314314e-09	-2.564001e+01	-9.019657e+01
9.900000e-07	-3.649328e-06	-1.302581e-09	-2.539395e+01	-8.984585e+01
1.000000e-06	-3.613755e-06	-1.304580e-09	-2.514641e+01	-8.949077e+01
1.010000e-06	-3.577966e-06	-1.303613e-09	-2.489737e+01	-8.913120e+01
1.020000e-06	-3.542077e-06	-1.293015e-09	-2.464764e+01	-8.876700e+01
1.030000e-06	-3.506088e-06	-1.289990e-09	-2.439721e+01	-8.839806e+01
1.040000e-06	-3.469946e-06	-1.288962e-09	-2.414571e+01	-8.802427e+01
1.050000e-06	-3.433569e-06	-1.275050e-09	-2.389258e+01	-8.764553e+01
1.060000e-06	-3.396902e-06	-1.263943e-09	-2.363743e+01	-8.726175e+01
1.070000e-06	-3.359987e-06	-1.260186e-09	-2.338056e+01	-8.687285e+01
1.080000e-06	-3.322732e-06	-1.251479e-09	-2.312132e+01	-8.647878e+01
1.090000e-06	-3.285172e-06	-1.239205e-09	-2.285996e+01	-8.607947e+01
1.100000e-06	-3.247405e-06	-1.238188e-09	-2.259715e+01	-8.567490e+01
1.110000e-06	-3.209396e-06	-1.234156e-09	-2.233267e+01	-8.526504e+01
1.120000e-06	-3.171205e-06	-1.225104e-09	-2.206692e+01	-8.484987e+01
1.130000e-06	-3.132820e-06	-1.218154e-09	-2.179982e+01	-8.442940e+01
1.140000e-06	-3.094196e-06	-1.215502e-09	-2.153105e+01	-8.400363e+01
1.150000e-06	-3.055392e-06	-1.205719e-09	-2.126103e+01	-8.357259e+01
1.160000e-06	-3.016355e-06	-1.198727e-09	-2.098939e+01	-8.313630e+01
1.170000e-06	-2.977117e-06	-1.194015e-09	-2.071635e+01	-8.269479e+01
1.180000e-06	-2.937696e-06	-1.188581e-09	-2.044203e+01	-8.224810e+01
1.190000e-06	-2.898118e-06	-1.181450e-09	-2.016663e+01	-8.179625e+01
1.200000e-06	-2.858430e-06	-1.178455e-09	-1.989046e+01	-8.133929e+01
1.210000e-06	-2.818602e-06	-1.173738e-09	-1.961332e+01	-8.087723e+01
1.220000e-06	-2.778635e-06	-1.167522e-09	-1.933521e+01	-8.041010e+01
1.230000e-06	-2.738497e-06	-1.163885e-09	-1.905590e+01	-7.993791e+01
1.240000e-06	-2.698239e-06	-1.160358e-09	-1.877577e+01	-7.946065e+01
1.250000e-06	-2.657793e-06	-1.150626e-09	-1.849433e+01	-7.897832e+01
1.260000e-06	-2.617220e-06	-1.144407e-09	-1.821200e+01	-7.849087e+01
1.270000e-06	-2.576384e-06	-1.137401e-09	-1.792784e+01	-7.799826e+01
1.280000e-06	-2.535045e-06	-1.128220e-09	-1.764018e+01	-7.750041e+01
1.290000e-06	-2.493515e-06	-1.114992e-09	-1.735119e+01	-7.699723e+01
1.300000e-06	-2.451823e-06	-1.106014e-09	-1.706107e+01	-7.648859e+01
1.310000e-06	-2.409776e-06	-1.098812e-09	-1.676850e+01	-7.597434e+01
1.320000e-06	-2.367342e-06	-1.088816e-09	-1.647321e+01	-7.545431e+01
1.330000e-06	-2.324608e-06	-1.081756e-09	-1.617585e+01	-7.492829e+01
1.340000e-06	-2.281670e-06	-1.076809e-09	-1.587706e+01	-7.439606e+01
1.350000e-06	-2.238531e-06	-1.071743e-09	-1.557688e+01	-7.385733e+01
1.360000e-06	-2.195210e-06	-1.063603e-09	-1.527543e+01	-7.331183e+01
1.370000e-06	-2.151764e-06	-1.054662e-09	-1.497311e+01	-7.275921e+01
1.380000e-06	-2.108225e-06	-1.043242e-09	-1.467014e+01	-7.219912e+01
1.390000e-06	-2.064597e-06	-1.027890e-09	-1.436656e+01	-7.163118e+01
1.400000e-06	-2.020892e-06	-1.015302e-09	-1.406243e+01	-7.105496e+01
1.410000e-06	-1.977099e-06	-1.008805e-09	-1.375769e+01	-7.047000e+01
1.420000e-06	-1.933260e-06	-9.994311e-10	-1.345265e+01	-6.987583e+01
1.430000e-06	-1.889319e-06	-9.899471e-10	-1.314688e+01	-6.927193e+01
1.440000e-06	-1.845247e-06	-9.780713e-10	-1.284020e+01	-6.865775e+01
1.450000e-06	-1.801106e-06	-9.662761e-10	-1.253304e+01	-6.803274e+01
1.460000e-06	-1.756871e-06	-9.515657e-10	-1.222523e+01	-6.739628e+01
1.470000e-06	-1.712446e-06	-9.376770e-10	-1.191610e+01	-6.674776e+01
1.480000e-06	-1.667894e-06	-9.238691e-10	-1.160608e+01	-6.608651e+01
1.490000e-06	-1.623271e-06	-9.085728e-10	-1.129558e+01	-6.541187e+01
1.500000e-06	-1.578513e-06	-8.907914e-10	-1.098413e+01	-6.472311e+01
1.510000e-06	-1.533529e-06	-8.769120e-10	-1.067111e+01	-6.401953e+01
1.520000e-06	-1.488307e-06	-8.661857e-10	-1.035642e+01	-6.330036e+01
1.530000e-06	-1.442982e-06	-8.576743e-10	-1.004103e+01	-6.256483e+01
1.540000e-06	-1.397616e-06	-8.476344e-10	-9.725346e+00	-6.181215e+01
1.550000e-06	-1.352200e-06	-8.352639e-10	-9.409322e+00	-6.104151e+01
1.560000e-06	-1.306710e-06	-8.205964e-10	-9.092780e+00	-6.025208e+01
1.570000e-06	-1.261158e-06	-8.072844e-10	-8.775806e+00	-5.944299e+01
1.580000e-06	-1.215507e-06	-7.928150e-10	-8.458140e+00	-5.861341e+01
1.590000e-06	-1.169752e-06	-7.757977e-10	-8.139749e+00	-5.776243e+01
1.600000e-06	-1.123972e-06	-7.596656e-10	-7.821189e+00	-5.688918e+01
1.610000e-06	-1.078081e-06	-7.466243e-10	-7.501856e+00	-5.599276e+01
1.620000e-06	-1.032114e-06	-7.357591e-10	-7.181996e+00	-5.507225e+01
1.630000e-06	-9.861326e-07	-7.255869e-10	-6.862030e+00	-5.412675e+01
1.640000e-06	-9.399728e-07	-7.125366e-10	-6.540827e+00	-5.315535e+01
1.650000e-06	-8.937130e-07	-6.952767e-10	-6.218926e+00	-5.215712e+01
1.660000e-06	-8.474512e-07	-6.753007e-10	-5.897012e+00	-5.113117e+01
1.670000e-06	-8.011580e-07	-6.521298e-10	-5.574880e+00	-5.007660e+01
1.680000e-06	-7.548415e-07	-6.316963e-10	-5.252585e+00	-4.899251e+01
1.690000e-06	-7.084576e-07	-6.141760e-10	-4.929822e+00	-4.787803e+01
1.700000e-06	-6.620360e-07	-5.985485e-10	-4.606795e+00	-4.673232e+01
1.710000e-06	-6.156337e-07	-5.837368e-10	-4.283904e+00	-4.555456e+01
1.720000e-06	-5.692021e-07	-5.695387e-10	-3.960808e+00	-4.434395e+01
1.730000e-06	-5.226464e-07	-5.510477e-10	-3.636849e+00	-4.309975e+01
1.740000e-06	-4.760091e-07	-5.308337e-10	-3.312322e+00	-4.182124e+01
1.750000e-06	-4.293786e-07	-5.091296e-10	-2.987843e+00	-4.050777e+01
1.760000e-06	-3.826962e-07	-4.876430e-10	-2.663002e+00	-3.915874e+01
1.770000e-06	-3.359414e-07	-4.662594e-10	-2.337657e+00	-3.777362e+01
1.780000e-06	-2.891814e-07	-4.469982e-10	-2.012276e+00	-3.635194e+01
1.790000e-06	-2.424568e-07	-4.272851e-10	-1.687142e+00	-3.489332e+01
1.800000e-06	-1.957062e-07	-4.073186e-10	-1.361827e+00	-3.339745e+01
1.810000e-06	-1.489181e-07	-3.878944e-10	-1.036251e+00	-3.186414e+01
1.820000e-06	-1.022145e-07	-3.671311e-10	-7.112621e-01	-3.029328e+01
1.830000e-06	-5.550468e-08	-3.448371e-10	-3.862308e-01	-2.868486e+01
1.840000e-06	-8.826683e-09	-3.229908e-10	-6.142072e-02	-2.703901e+01
1.850000e-06	3.782459e-08	-3.004653e-10	2.632034e-01	-2.535597e+01
1.860000e-06	8.456026e-08	-2.773181e-10	5.884149e-01	-2.363610e+01
1.870000e-06	1.313473e-07	-2.540050e-10	9.139837e-01	-2.187989e+01
1.880000e-06	1.782347e-07	-2.296109e-10	1.240251e+00	-2.008799e+01
1.890000e-06	2.251327e-07	-2.039649e-10	1.566592e+00	-1.826117e+01
1.900000e-06	2.719678e-07	-1.778701e-10	1.892495e+00	-1.640036e+01
1.910000e-06	3.187134e-07	-1.506216e-10	2.217776e+00	-1.450662e+01
1.920000e-06	3.654175e-07	-1.235891e-10	2.542768e+00	-1.258119e+01
1.930000e-06	4.121117e-07	-9.814965e-11	2.867691e+00	-1.062542e+01
1.940000e-06	4.587236e-07	-7.239270e-11	3.192041e+00	-8.640856e+00
1.950000e-06	5.052472e-07	-4.657937e-11	3.515776e+00	-6.629155e+00
1.960000e-06	5.516682e-07	-2.033858e-11	3.838798e+00	-4.592139e+00
1.970000e-06	5.981072e-07	6.610527e-12	4.161945e+00	-2.531765e+00
1.980000e-06	6.445886e-07	3.384108e-11	4.485387e+00	-4.501285e-01
1.990000e-06	6.909252e-07	6.301993e-11	4.807822e+00	1.650548e+00
2.000000e-06	7.371564e-07	9.642844e-11	5.129523e+00	3.767921e+00
2.010000e-06	7.833920e-07	1.285115e-10	5.451255e+00	5.899537e+00
2.020000e-06	8.296490e-07	1.584049e-10	5.773135e+00	8.042842e+00
2.030000e-06	8.758425e-07	1.862715e-10	6.094574e+00	1.019519e+01
2.040000e-06	9.219037e-07	2.138781e-10	6.415092e+00	1.235387e+01
2.050000e-06	9.679234e-07	2.415857e-10	6.735322e+00	1.451611e+01
2.060000e-06	1.013924e-06	2.721578e-10	7.055415e+00	1.667908e+01
2.070000e-06	1.059885e-06	3.065900e-10	7.375236e+00	1.883993e+01
2.080000e-06	1.105735e-06	3.412899e-10	7.694285e+00	2.099581e+01
2.090000e-06	1.151433e-06	3.741699e-10	8.012275e+00	2.314385e+01
2.100000e-06	1.197037e-06	4.052097e-10	8.329615e+00	2.528122e+01
2.110000e-06	1.242571e-06	4.338766e-10	8.646464e+00	2.740514e+01
2.120000e-06	1.288075e-06	4.611142e-10	8.963108e+00	2.951288e+01
2.130000e-06	1.333497e-06	4.868150e-10	9.279178e+00	3.160177e+01
2.140000e-06	1.378732e-06	5.115021e-10	9.593943e+00	3.366926e+01
2.150000e-06	1.423904e-06	5.376234e-10	9.908274e+00	3.571289e+01
2.160000e-06	1.469063e-06	5.664972e-10	1.022252e+01	3.773034e+01
2.170000e-06	1.514096e-06	5.970147e-10	1.053588e+01	3.971943e+01
2.180000e-06	1.559046e-06	6.274279e-10	1.084866e+01	4.167813e+01
2.190000e-06	1.603898e-06	6.569755e-10	1.116077e+01	4.360456e+01
2.200000e-06	1.648589e-06	6.846119e-10	1.147175e+01	4.549705e+01
2.210000e-06	1.693101e-06	7.099139e-10	1.178149e+01	4.735408e+01
2.220000e-06	1.737381e-06	7.334558e-10	1.208961e+01	4.917434e+01
2.230000e-06	1.781564e-06	7.559539e-10	1.239706e+01	5.095671e+01
2.240000e-06	1.825642e-06	7.792238e-10	1.270378e+01	5.270027e+01
2.250000e-06	1.869570e-06	8.039075e-10	1.300945e+01	5.440430e+01
2.260000e-06	1.913428e-06	8.270499e-10	1.331464e+01	5.606828e+01
2.270000e-06	1.957223e-06	8.521956e-10	1.361939e+01	5.769185e+01
2.280000e-06	2.000994e-06	8.760555e-10	1.392397e+01	5.927490e+01
2.290000e-06	2.044702e-06	8.978939e-10	1.422812e+01	6.081743e+01
2.300000e-06	2.088371e-06	9.183440e-10	1.453199e+01	6.231967e+01
2.310000e-06	2.132024e-06	9.356463e-10	1.483575e+01	6.378197e+01
2.320000e-06	2.175559e-06	9.540978e-10	1.513868e+01	6.520485e+01
2.330000e-06	2.218943e-06	9.714793e-10	1.544058e+01	6.658893e+01
2.340000e-06	2.262208e-06	9.905099e-10	1.574164e+01	6.793499e+01
2.350000e-06	2.305312e-06	1.008921e-09	1.604158e+01	6.924387e+01
2.360000e-06	2.348229e-06	1.028454e-09	1.634021e+01	7.051652e+01
2.370000e-06	2.390795e-06	1.046930e-09	1.663641e+01	7.175394e+01
2.380000e-06	2.433021e-06	1.062123e-09	1.693024e+01	7.295719e+01
2.390000e-06	2.475001e-06	1.077452e-09	1.722237e+01	7.412735e+01
2.400000e-06	2.516517e-06	1.093925e-09	1.751125e+01	7.526553e+01
2.410000e-06	2.557683e-06	1.110205e-09	1.779771e+01	7.637282e+01
2.420000e-06	2.598709e-06	1.123774e-09	1.808319e+01	7.745030e+01
2.430000e-06	2.639513e-06	1.134736e-09	1.836712e+01	7.849903e+01
2.440000e-06	2.680009e-06	1.142599e-09	1.864892e+01	7.952001e+01
2.450000e-06	2.720263e-06	1.151701e-09	1.892903e+01	8.051418e+01
2.460000e-06	2.760353e-06	1.162937e-09	1.920799e+01	8.148245e+01
2.470000e-06	2.800282e-06	1.178902e-09	1.948584e+01	8.242560e+01
2.480000e-06	2.840091e-06	1.196087e-09	1.976285e+01	8.334439e+01
2.490000e-06	2.879775e-06	1.211636e-09	2.003899e+01	8.423946e+01
2.500000e-06	2.919313e-06	1.223223e-09	2.031412e+01	8.511137e+01
2.510000e-06	2.958713e-06	1.226533e-09	2.058828e+01	8.596061e+01
2.520000e-06	2.997960e-06	1.226923e-09	2.086139e+01	8.678758e+01
2.530000e-06	3.036998e-06	1.230147e-09	2.113303e+01	8.759260e+01
2.540000e-06	3.075747e-06	1.239571e-09	2.140267e+01	8.837593e+01
2.550000e-06	3.114305e-06	1.253397e-09	2.167098e+01	8.913773e+01
2.560000e-06	3.152696e-06	1.267648e-09	2.193812e+01	8.987815e+01
2.570000e-06	3.190829e-06	1.279456e-09	2.220347e+01	9.059727e+01
2.580000e-06	3.228782e-06	1.288025e-09	2.246757e+01	9.129512e+01
2.590000e-06	3.266516e-06	1.293331e-09	2.273014e+01	9.197175e+01
2.600000e-06	3.304041e-06	1.297325e-09	2.299126e+01	9.262715e+01
2.610000e-06	3.341339e-06	1.304001e-09	2.325080e+01	9.326135e+01
2.620000e-06	3.378331e-06	1.314478e-09	2.350821e+01	9.387437e+01
2.630000e-06	3.415152e-06	1.325356e-09	2.376443e+01	9.446625e+01
2.640000e-06	3.451722e-06	1.335218e-09	2.401890e+01	9.503709e+01
2.650000e-06	3.487936e-06	1.343544e-09	2.427089e+01	9.558703e+01
2.660000e-06	3.523932e-06	1.347655e-09	2.452138e+01	9.611625e+01
2.670000e-06	3.559827e-06	1.351261e-09	2.477116e+01	9.662501e+01
2.680000e-06	3.595641e-06	1.359041e-09	2.502036e+01	9.711364e+01
2.690000e-06	3.631374e-06	1.370449e-09	2.526901e+01	9.758253e+01
2.700000e-06	3.666951e-06	1.380000e-09	2.551658e+01	9.803218e+01
2.710000e-06	3.702288e-06	1.386909e-09	2.576247e+01	9.846314e+01
2.720000e-06	3.737356e-06	1.393736e-09	2.600649e+01	9.887606e+01
2.730000e-06	3.772081e-06	1.399957e-09	2.624813e+01	9.927167e+01
2.740000e-06	3.806438e-06	1.405238e-09	2.648720e+01	9.965075e+01
2.750000e-06	3.840351e-06	1.409626e-09	2.672318e+01	1.000142e+02
2.760000e-06	3.873747e-06	1.413771e-09	2.695557e+01	1.003629e+02
2.770000e-06	3.906635e-06	1.418380e-09	2.718443e+01	1.006978e+02
2.780000e-06	3.939057e-06	1.425210e-09	2.741004e+01	1.010201e+02
2.790000e-06	3.971162e-06	1.434985e-09	2.763344e+01	1.013307e+02
2.800000e-06	4.003103e-06	1.444073e-09	2.785570e+01	1.016306e+02
2.810000e-06	4.034925e-06	1.451372e-09	2.807714e+01	1.019211e+02
2.820000e-06	4.066582e-06	1.456956e-09	2.829742e+01	1.022032e+02
2.830000e-06	4.098065e-06	1.460844e-09	2.851650e+01	1.024778e+02
2.840000e-06	4.129395e-06	1.463271e-09	2.873451e+01	1.027461e+02
2.850000e-06	4.160427e-06	1.463382e-09	2.895045e+01	1.030090e+02
2.860000e-06	4.191053e-06	1.463409e-09	2.916356e+01	1.032675e+02
2.870000e-06	4.221286e-06	1.468986e-09	2.937394e+01	1.035223e+02
2.880000e-06	4.251175e-06	1.478311e-09	2.958192e+01	1.037743e+02
2.890000e-06	4.280839e-06	1.487213e-09	2.978834e+01	1.040240e+02
2.900000e-06	4.310297e-06	1.493315e-09	2.999332e+01	1.042722e+02
