# Temperatura_=_-13.18
# Concentracion g/m^3_=_1620.0
# C_Vs_to_Am_M_A/Vsm_=_65563218390.804596
# pendiente_HvsI_1/m_=_3716.3
# ordenada_HvsI_A/m_=_1297.0
# frecuencia_Hz_=_135107.61811748732

Tiempo_(s)	Campo_(V.s)	Magnetizacion_(V.s)	Campo_(kA/m)	Magnetizacion_(A/m)
0.000000e+00	-5.536303e-06	-1.032388e-09	-3.836159e+01	-6.685547e+01
1.000000e-08	-5.536450e-06	-1.026223e-09	-3.836260e+01	-6.683470e+01
2.000000e-08	-5.536382e-06	-1.022635e-09	-3.836213e+01	-6.681645e+01
3.000000e-08	-5.535973e-06	-1.022278e-09	-3.835929e+01	-6.680070e+01
4.000000e-08	-5.535129e-06	-1.022117e-09	-3.835345e+01	-6.678738e+01
5.000000e-08	-5.533729e-06	-1.019515e-09	-3.834375e+01	-6.677639e+01
6.000000e-08	-5.531686e-06	-1.011153e-09	-3.832959e+01	-6.676759e+01
7.000000e-08	-5.529015e-06	-9.943594e-10	-3.831109e+01	-6.676079e+01
8.000000e-08	-5.525748e-06	-1.001704e-09	-3.828845e+01	-6.675574e+01
9.000000e-08	-5.522035e-06	-1.064950e-09	-3.826272e+01	-6.675219e+01
1.000000e-07	-5.517980e-06	-1.115419e-09	-3.823462e+01	-6.674981e+01
1.100000e-07	-5.513541e-06	-1.032931e-09	-3.820387e+01	-6.674826e+01
1.200000e-07	-5.508936e-06	-9.407168e-10	-3.817195e+01	-6.674714e+01
1.300000e-07	-5.504240e-06	-9.524993e-10	-3.813941e+01	-6.674607e+01
1.400000e-07	-5.499154e-06	-1.065358e-09	-3.810417e+01	-6.674460e+01
1.500000e-07	-5.493556e-06	-1.052370e-09	-3.806538e+01	-6.674229e+01
1.600000e-07	-5.487580e-06	-9.614349e-10	-3.802398e+01	-6.673868e+01
1.700000e-07	-5.481252e-06	-9.670894e-10	-3.798013e+01	-6.673332e+01
1.800000e-07	-5.474473e-06	-1.059273e-09	-3.793316e+01	-6.672577e+01
1.900000e-07	-5.467219e-06	-1.078500e-09	-3.788289e+01	-6.671557e+01
2.000000e-07	-5.459682e-06	-9.864317e-10	-3.783067e+01	-6.670232e+01
2.100000e-07	-5.451952e-06	-9.759677e-10	-3.777710e+01	-6.668562e+01
2.200000e-07	-5.443893e-06	-1.034660e-09	-3.772126e+01	-6.666513e+01
2.300000e-07	-5.435537e-06	-1.073087e-09	-3.766337e+01	-6.664053e+01
2.400000e-07	-5.426767e-06	-1.007458e-09	-3.760260e+01	-6.661155e+01
2.500000e-07	-5.417423e-06	-9.864537e-10	-3.753785e+01	-6.657798e+01
2.600000e-07	-5.407433e-06	-1.005697e-09	-3.746863e+01	-6.653968e+01
2.700000e-07	-5.396800e-06	-1.028256e-09	-3.739495e+01	-6.649654e+01
2.800000e-07	-5.385618e-06	-9.937039e-10	-3.731747e+01	-6.644855e+01
2.900000e-07	-5.373989e-06	-9.910516e-10	-3.723689e+01	-6.639573e+01
3.000000e-07	-5.362012e-06	-1.015278e-09	-3.715391e+01	-6.633820e+01
3.100000e-07	-5.349714e-06	-1.024244e-09	-3.706869e+01	-6.627613e+01
3.200000e-07	-5.336963e-06	-9.850821e-10	-3.698033e+01	-6.620976e+01
3.300000e-07	-5.323701e-06	-9.756973e-10	-3.688845e+01	-6.613938e+01
3.400000e-07	-5.310090e-06	-1.005454e-09	-3.679413e+01	-6.606536e+01
3.500000e-07	-5.296199e-06	-1.008797e-09	-3.669788e+01	-6.598811e+01
3.600000e-07	-5.281811e-06	-9.847651e-10	-3.659819e+01	-6.590808e+01
3.700000e-07	-5.266847e-06	-9.979201e-10	-3.649450e+01	-6.582579e+01
3.800000e-07	-5.251440e-06	-1.017317e-09	-3.638774e+01	-6.574175e+01
3.900000e-07	-5.235550e-06	-9.837358e-10	-3.627764e+01	-6.565655e+01
4.000000e-07	-5.219115e-06	-9.782376e-10	-3.616376e+01	-6.557074e+01
4.100000e-07	-5.202371e-06	-1.015045e-09	-3.604774e+01	-6.548492e+01
4.200000e-07	-5.185378e-06	-1.006500e-09	-3.592999e+01	-6.539966e+01
4.300000e-07	-5.168002e-06	-9.594613e-10	-3.580959e+01	-6.531555e+01
4.400000e-07	-5.150275e-06	-9.982859e-10	-3.568675e+01	-6.523313e+01
4.500000e-07	-5.132177e-06	-1.027977e-09	-3.556136e+01	-6.515293e+01
4.600000e-07	-5.113638e-06	-9.858988e-10	-3.543290e+01	-6.507543e+01
4.700000e-07	-5.094633e-06	-9.635116e-10	-3.530121e+01	-6.500108e+01
4.800000e-07	-5.075286e-06	-1.007796e-09	-3.516715e+01	-6.493026e+01
4.900000e-07	-5.055710e-06	-9.925822e-10	-3.503151e+01	-6.486332e+01
5.000000e-07	-5.035981e-06	-9.724101e-10	-3.489481e+01	-6.480051e+01
5.100000e-07	-5.016077e-06	-9.963640e-10	-3.475688e+01	-6.474204e+01
5.200000e-07	-4.995844e-06	-1.001044e-09	-3.461669e+01	-6.468804e+01
5.300000e-07	-4.975183e-06	-9.626448e-10	-3.447352e+01	-6.463856e+01
5.400000e-07	-4.954165e-06	-9.856968e-10	-3.432789e+01	-6.459360e+01
5.500000e-07	-4.932804e-06	-1.006840e-09	-3.417988e+01	-6.455307e+01
5.600000e-07	-4.911091e-06	-9.734232e-10	-3.402942e+01	-6.451681e+01
5.700000e-07	-4.889074e-06	-9.587504e-10	-3.387687e+01	-6.448459e+01
5.800000e-07	-4.866724e-06	-9.917361e-10	-3.372200e+01	-6.445613e+01
5.900000e-07	-4.843955e-06	-9.843119e-10	-3.356424e+01	-6.443109e+01
6.000000e-07	-4.820886e-06	-9.668920e-10	-3.340439e+01	-6.440907e+01
6.100000e-07	-4.797607e-06	-9.798331e-10	-3.324309e+01	-6.438962e+01
6.200000e-07	-4.774030e-06	-9.815287e-10	-3.307972e+01	-6.437228e+01
6.300000e-07	-4.750207e-06	-9.629325e-10	-3.291464e+01	-6.435654e+01
6.400000e-07	-4.726123e-06	-9.684973e-10	-3.274776e+01	-6.434187e+01
6.500000e-07	-4.701664e-06	-9.760153e-10	-3.257828e+01	-6.432774e+01
6.600000e-07	-4.676771e-06	-9.679093e-10	-3.240580e+01	-6.431361e+01
6.700000e-07	-4.651405e-06	-9.721439e-10	-3.223004e+01	-6.429895e+01
6.800000e-07	-4.625510e-06	-9.786113e-10	-3.205061e+01	-6.428325e+01
6.900000e-07	-4.599035e-06	-9.728796e-10	-3.186716e+01	-6.426602e+01
7.000000e-07	-4.572019e-06	-9.661600e-10	-3.167997e+01	-6.424680e+01
7.100000e-07	-4.544648e-06	-9.699168e-10	-3.149031e+01	-6.422517e+01
7.200000e-07	-4.517070e-06	-9.650477e-10	-3.129922e+01	-6.420075e+01
7.300000e-07	-4.489318e-06	-9.634139e-10	-3.110692e+01	-6.417323e+01
7.400000e-07	-4.461394e-06	-9.639217e-10	-3.091343e+01	-6.414232e+01
7.500000e-07	-4.433268e-06	-9.620765e-10	-3.071855e+01	-6.410783e+01
7.600000e-07	-4.404858e-06	-9.581580e-10	-3.052169e+01	-6.406959e+01
7.700000e-07	-4.376100e-06	-9.632693e-10	-3.032242e+01	-6.402752e+01
7.800000e-07	-4.347009e-06	-9.579264e-10	-3.012085e+01	-6.398158e+01
7.900000e-07	-4.317623e-06	-9.553634e-10	-2.991723e+01	-6.393180e+01
8.000000e-07	-4.287929e-06	-9.544188e-10	-2.971147e+01	-6.387826e+01
8.100000e-07	-4.257877e-06	-9.536326e-10	-2.950325e+01	-6.382110e+01
8.200000e-07	-4.227532e-06	-9.394399e-10	-2.929298e+01	-6.376051e+01
8.300000e-07	-4.196909e-06	-9.351881e-10	-2.908079e+01	-6.369672e+01
8.400000e-07	-4.166059e-06	-9.359841e-10	-2.886703e+01	-6.362999e+01
8.500000e-07	-4.134940e-06	-9.367198e-10	-2.865140e+01	-6.356063e+01
8.600000e-07	-4.103537e-06	-9.359355e-10	-2.843380e+01	-6.348895e+01
8.700000e-07	-4.072008e-06	-9.385578e-10	-2.821534e+01	-6.341531e+01
8.800000e-07	-4.040302e-06	-9.319335e-10	-2.799564e+01	-6.334006e+01
8.900000e-07	-4.008370e-06	-9.244300e-10	-2.777439e+01	-6.326355e+01
9.000000e-07	-3.976223e-06	-9.256269e-10	-2.755163e+01	-6.318614e+01
9.100000e-07	-3.943749e-06	-9.260363e-10	-2.732662e+01	-6.310816e+01
9.200000e-07	-3.910856e-06	-9.200234e-10	-2.709870e+01	-6.302995e+01
9.300000e-07	-3.877539e-06	-9.197015e-10	-2.686784e+01	-6.295179e+01
9.400000e-07	-3.843757e-06	-9.212658e-10	-2.663377e+01	-6.287397e+01
9.500000e-07	-3.809507e-06	-9.168816e-10	-2.639644e+01	-6.279672e+01
9.600000e-07	-3.774858e-06	-9.141910e-10	-2.615636e+01	-6.272024e+01
9.700000e-07	-3.739884e-06	-9.163201e-10	-2.591402e+01	-6.264469e+01
9.800000e-07	-3.704639e-06	-9.168074e-10	-2.566981e+01	-6.257019e+01
9.900000e-07	-3.669186e-06	-9.127666e-10	-2.542415e+01	-6.249679e+01
1.000000e-06	-3.633557e-06	-9.121853e-10	-2.517727e+01	-6.242455e+01
1.010000e-06	-3.597762e-06	-9.096129e-10	-2.492924e+01	-6.235342e+01
1.020000e-06	-3.561834e-06	-9.061743e-10	-2.468029e+01	-6.228336e+01
1.030000e-06	-3.525756e-06	-9.034630e-10	-2.443031e+01	-6.221425e+01
1.040000e-06	-3.489443e-06	-9.059875e-10	-2.417869e+01	-6.214596e+01
1.050000e-06	-3.452868e-06	-9.031173e-10	-2.392526e+01	-6.207830e+01
1.060000e-06	-3.415979e-06	-9.011285e-10	-2.366965e+01	-6.201106e+01
1.070000e-06	-3.378815e-06	-9.011800e-10	-2.341214e+01	-6.194402e+01
1.080000e-06	-3.341452e-06	-9.000717e-10	-2.315325e+01	-6.187689e+01
1.090000e-06	-3.303883e-06	-8.940456e-10	-2.289293e+01	-6.180942e+01
1.100000e-06	-3.266099e-06	-8.925558e-10	-2.263112e+01	-6.174130e+01
1.110000e-06	-3.227953e-06	-8.904927e-10	-2.236680e+01	-6.167223e+01
1.120000e-06	-3.189470e-06	-8.861838e-10	-2.210015e+01	-6.160190e+01
1.130000e-06	-3.150832e-06	-8.826818e-10	-2.183242e+01	-6.153002e+01
1.140000e-06	-3.112074e-06	-8.845735e-10	-2.156386e+01	-6.145628e+01
1.150000e-06	-3.073105e-06	-8.835667e-10	-2.129385e+01	-6.138039e+01
1.160000e-06	-3.033970e-06	-8.804275e-10	-2.102268e+01	-6.130208e+01
1.170000e-06	-2.994677e-06	-8.787161e-10	-2.075041e+01	-6.122107e+01
1.180000e-06	-2.955159e-06	-8.799838e-10	-2.047658e+01	-6.113713e+01
1.190000e-06	-2.915510e-06	-8.814433e-10	-2.020186e+01	-6.105002e+01
1.200000e-06	-2.875750e-06	-8.830238e-10	-1.992635e+01	-6.095953e+01
1.210000e-06	-2.835849e-06	-8.809900e-10	-1.964987e+01	-6.086548e+01
1.220000e-06	-2.795846e-06	-8.760965e-10	-1.937269e+01	-6.076770e+01
1.230000e-06	-2.755662e-06	-8.735481e-10	-1.909425e+01	-6.066602e+01
1.240000e-06	-2.715296e-06	-8.732565e-10	-1.881455e+01	-6.056032e+01
1.250000e-06	-2.674708e-06	-8.744013e-10	-1.853332e+01	-6.045048e+01
1.260000e-06	-2.633873e-06	-8.739671e-10	-1.825037e+01	-6.033638e+01
1.270000e-06	-2.592825e-06	-8.723500e-10	-1.796594e+01	-6.021792e+01
1.280000e-06	-2.551488e-06	-8.690089e-10	-1.767951e+01	-6.009501e+01
1.290000e-06	-2.509777e-06	-8.632586e-10	-1.739049e+01	-5.996756e+01
1.300000e-06	-2.467694e-06	-8.569712e-10	-1.709889e+01	-5.983548e+01
1.310000e-06	-2.425381e-06	-8.534078e-10	-1.680570e+01	-5.969865e+01
1.320000e-06	-2.382815e-06	-8.522616e-10	-1.651075e+01	-5.955698e+01
1.330000e-06	-2.339926e-06	-8.504164e-10	-1.621358e+01	-5.941034e+01
1.340000e-06	-2.296760e-06	-8.475634e-10	-1.591448e+01	-5.925860e+01
1.350000e-06	-2.253407e-06	-8.467086e-10	-1.561408e+01	-5.910160e+01
1.360000e-06	-2.209879e-06	-8.453066e-10	-1.531246e+01	-5.893915e+01
1.370000e-06	-2.166177e-06	-8.466822e-10	-1.500965e+01	-5.877106e+01
1.380000e-06	-2.122414e-06	-8.470908e-10	-1.470641e+01	-5.859710e+01
1.390000e-06	-2.078641e-06	-8.454615e-10	-1.440311e+01	-5.841701e+01
1.400000e-06	-2.034825e-06	-8.421846e-10	-1.409950e+01	-5.823049e+01
1.410000e-06	-1.990944e-06	-8.375007e-10	-1.379544e+01	-5.803724e+01
1.420000e-06	-1.946963e-06	-8.296813e-10	-1.349070e+01	-5.783689e+01
1.430000e-06	-1.902881e-06	-8.247197e-10	-1.318525e+01	-5.762906e+01
1.440000e-06	-1.858676e-06	-8.230049e-10	-1.287895e+01	-5.741335e+01
1.450000e-06	-1.814319e-06	-8.207236e-10	-1.257159e+01	-5.718931e+01
1.460000e-06	-1.769897e-06	-8.162298e-10	-1.226379e+01	-5.695646e+01
1.470000e-06	-1.725357e-06	-8.113628e-10	-1.195517e+01	-5.671431e+01
1.480000e-06	-1.680628e-06	-8.057165e-10	-1.164523e+01	-5.646233e+01
1.490000e-06	-1.635768e-06	-7.998637e-10	-1.133439e+01	-5.619997e+01
1.500000e-06	-1.590774e-06	-7.908247e-10	-1.102263e+01	-5.592664e+01
1.510000e-06	-1.545652e-06	-7.810147e-10	-1.070997e+01	-5.564177e+01
1.520000e-06	-1.500409e-06	-7.740345e-10	-1.039648e+01	-5.534474e+01
1.530000e-06	-1.455075e-06	-7.700114e-10	-1.008236e+01	-5.503490e+01
1.540000e-06	-1.409649e-06	-7.661406e-10	-9.767598e+00	-5.471163e+01
1.550000e-06	-1.364154e-06	-7.615936e-10	-9.452359e+00	-5.437425e+01
1.560000e-06	-1.318564e-06	-7.562521e-10	-9.136457e+00	-5.402208e+01
1.570000e-06	-1.272843e-06	-7.493351e-10	-8.819652e+00	-5.365446e+01
1.580000e-06	-1.227044e-06	-7.412292e-10	-8.502305e+00	-5.327067e+01
1.590000e-06	-1.181140e-06	-7.325873e-10	-8.184235e+00	-5.287002e+01
1.600000e-06	-1.135140e-06	-7.258480e-10	-7.865495e+00	-5.245179e+01
1.610000e-06	-1.089093e-06	-7.210899e-10	-7.546433e+00	-5.201525e+01
1.620000e-06	-1.043035e-06	-7.182887e-10	-7.227291e+00	-5.155968e+01
1.630000e-06	-9.969088e-07	-7.140761e-10	-6.907678e+00	-5.108432e+01
1.640000e-06	-9.506593e-07	-7.071534e-10	-6.587211e+00	-5.058845e+01
1.650000e-06	-9.043119e-07	-6.971859e-10	-6.266065e+00	-5.007129e+01
1.660000e-06	-8.578704e-07	-6.852373e-10	-5.944268e+00	-4.953209e+01
1.670000e-06	-8.113691e-07	-6.715836e-10	-5.622055e+00	-4.897008e+01
1.680000e-06	-7.648283e-07	-6.613208e-10	-5.299570e+00	-4.838449e+01
1.690000e-06	-7.182479e-07	-6.536724e-10	-4.976809e+00	-4.777452e+01
1.700000e-06	-6.716238e-07	-6.486655e-10	-4.653747e+00	-4.713941e+01
1.710000e-06	-6.249538e-07	-6.438958e-10	-4.330366e+00	-4.647837e+01
1.720000e-06	-5.783240e-07	-6.373688e-10	-4.007264e+00	-4.579060e+01
1.730000e-06	-5.316839e-07	-6.240328e-10	-3.684090e+00	-4.507534e+01
1.740000e-06	-4.849302e-07	-6.079945e-10	-3.360129e+00	-4.433180e+01
1.750000e-06	-4.381451e-07	-5.925159e-10	-3.035950e+00	-4.355922e+01
1.760000e-06	-3.912723e-07	-5.771952e-10	-2.711164e+00	-4.275686e+01
1.770000e-06	-3.443146e-07	-5.647968e-10	-2.385790e+00	-4.192397e+01
1.780000e-06	-2.973848e-07	-5.561519e-10	-2.060608e+00	-4.105987e+01
1.790000e-06	-2.504628e-07	-5.485423e-10	-1.735481e+00	-4.016388e+01
1.800000e-06	-2.034954e-07	-5.378993e-10	-1.410039e+00	-3.923536e+01
1.810000e-06	-1.564768e-07	-5.234970e-10	-1.084243e+00	-3.827374e+01
1.820000e-06	-1.094076e-07	-5.069772e-10	-7.580960e-01	-3.727849e+01
1.830000e-06	-6.233743e-08	-4.878194e-10	-4.319422e-01	-3.624913e+01
1.840000e-06	-1.534563e-08	-4.699142e-10	-1.063314e-01	-3.518527e+01
1.850000e-06	3.168921e-08	-4.575760e-10	2.195776e-01	-3.408659e+01
1.860000e-06	7.875030e-08	-4.468769e-10	5.456685e-01	-3.295286e+01
1.870000e-06	1.257136e-07	-4.334877e-10	8.710816e-01	-3.178394e+01
1.880000e-06	1.726773e-07	-4.164844e-10	1.196498e+00	-3.057980e+01
1.890000e-06	2.196985e-07	-3.983433e-10	1.522313e+00	-2.934052e+01
1.900000e-06	2.667231e-07	-3.763720e-10	1.848150e+00	-2.806630e+01
1.910000e-06	3.136713e-07	-3.544230e-10	2.173459e+00	-2.675747e+01
1.920000e-06	3.605391e-07	-3.338424e-10	2.498210e+00	-2.541446e+01
1.930000e-06	4.074164e-07	-3.146627e-10	2.823028e+00	-2.403788e+01
1.940000e-06	4.542886e-07	-2.946111e-10	3.147810e+00	-2.262845e+01
1.950000e-06	5.010447e-07	-2.757118e-10	3.471788e+00	-2.118704e+01
1.960000e-06	5.477094e-07	-2.604392e-10	3.795131e+00	-1.971467e+01
1.970000e-06	5.943211e-07	-2.439515e-10	4.118108e+00	-1.821248e+01
1.980000e-06	6.408479e-07	-2.238544e-10	4.440498e+00	-1.668178e+01
1.990000e-06	6.873252e-07	-2.006880e-10	4.762543e+00	-1.512401e+01
2.000000e-06	7.338212e-07	-1.740089e-10	5.084718e+00	-1.354074e+01
2.010000e-06	7.803106e-07	-1.483600e-10	5.406848e+00	-1.193367e+01
2.020000e-06	8.267862e-07	-1.260928e-10	5.728882e+00	-1.030465e+01
2.030000e-06	8.732138e-07	-1.055052e-10	6.050583e+00	-8.655608e+00
2.040000e-06	9.195008e-07	-8.506917e-11	6.371310e+00	-6.988607e+00
2.050000e-06	9.657377e-07	-6.495803e-11	6.691691e+00	-5.305799e+00
2.060000e-06	1.011906e-06	-4.362126e-11	7.011595e+00	-3.609420e+00
2.070000e-06	1.057926e-06	-1.884481e-11	7.330471e+00	-1.901781e+00
2.080000e-06	1.103900e-06	8.865213e-12	7.649030e+00	-1.852562e-01
2.090000e-06	1.149833e-06	3.600634e-11	7.967308e+00	1.537736e+00
2.100000e-06	1.195702e-06	6.207727e-11	8.285137e+00	3.264745e+00
2.110000e-06	1.241456e-06	8.661118e-11	8.602169e+00	4.993298e+00
2.120000e-06	1.287054e-06	1.087434e-10	8.918120e+00	6.720922e+00
2.130000e-06	1.332597e-06	1.312548e-10	9.233695e+00	8.445155e+00
2.140000e-06	1.378103e-06	1.529438e-10	9.549007e+00	1.016356e+01
2.150000e-06	1.423585e-06	1.730939e-10	9.864161e+00	1.187374e+01
2.160000e-06	1.469065e-06	1.963148e-10	1.017929e+01	1.357336e+01
2.170000e-06	1.514448e-06	2.229736e-10	1.049376e+01	1.526013e+01
2.180000e-06	1.559595e-06	2.483303e-10	1.080658e+01	1.693186e+01
2.190000e-06	1.604555e-06	2.734538e-10	1.111812e+01	1.858645e+01
2.200000e-06	1.649396e-06	2.968537e-10	1.142882e+01	2.022190e+01
2.210000e-06	1.694136e-06	3.199064e-10	1.173883e+01	2.183630e+01
2.220000e-06	1.738695e-06	3.400285e-10	1.204759e+01	2.342789e+01
2.230000e-06	1.783058e-06	3.598982e-10	1.235498e+01	2.499502e+01
2.240000e-06	1.827365e-06	3.800402e-10	1.266199e+01	2.653617e+01
2.250000e-06	1.871561e-06	3.995212e-10	1.296823e+01	2.804995e+01
2.260000e-06	1.915600e-06	4.206360e-10	1.327338e+01	2.953513e+01
2.270000e-06	1.959544e-06	4.412910e-10	1.357787e+01	3.099058e+01
2.280000e-06	2.003439e-06	4.609887e-10	1.388202e+01	3.241536e+01
2.290000e-06	2.047255e-06	4.762406e-10	1.418563e+01	3.380861e+01
2.300000e-06	2.091029e-06	4.927257e-10	1.448895e+01	3.516966e+01
2.310000e-06	2.134763e-06	5.102381e-10	1.479198e+01	3.649793e+01
2.320000e-06	2.178402e-06	5.289593e-10	1.509436e+01	3.779300e+01
2.330000e-06	2.221958e-06	5.487174e-10	1.539616e+01	3.905453e+01
2.340000e-06	2.265406e-06	5.677874e-10	1.569722e+01	4.028234e+01
2.350000e-06	2.308722e-06	5.871729e-10	1.599736e+01	4.147633e+01
2.360000e-06	2.351857e-06	6.043252e-10	1.629624e+01	4.263650e+01
2.370000e-06	2.394744e-06	6.204268e-10	1.659341e+01	4.376296e+01
2.380000e-06	2.437419e-06	6.340804e-10	1.688911e+01	4.485589e+01
2.390000e-06	2.479766e-06	6.439766e-10	1.718254e+01	4.591554e+01
2.400000e-06	2.521669e-06	6.558516e-10	1.747289e+01	4.694225e+01
2.410000e-06	2.563199e-06	6.693356e-10	1.776065e+01	4.793640e+01
2.420000e-06	2.604391e-06	6.821815e-10	1.804608e+01	4.889841e+01
2.430000e-06	2.645233e-06	6.941834e-10	1.832908e+01	4.982877e+01
2.440000e-06	2.685846e-06	7.058387e-10	1.861049e+01	5.072799e+01
2.450000e-06	2.726324e-06	7.182872e-10	1.889097e+01	5.159661e+01
2.460000e-06	2.766557e-06	7.288062e-10	1.916974e+01	5.243519e+01
2.470000e-06	2.806571e-06	7.377888e-10	1.944700e+01	5.324430e+01
2.480000e-06	2.846494e-06	7.458384e-10	1.972363e+01	5.402454e+01
2.490000e-06	2.886344e-06	7.538048e-10	1.999976e+01	5.477650e+01
2.500000e-06	2.926077e-06	7.640500e-10	2.027507e+01	5.550078e+01
2.510000e-06	2.965657e-06	7.760970e-10	2.054932e+01	5.619798e+01
2.520000e-06	3.005073e-06	7.889863e-10	2.082244e+01	5.686868e+01
2.530000e-06	3.044319e-06	7.999586e-10	2.109439e+01	5.751349e+01
2.540000e-06	3.083387e-06	8.073499e-10	2.136509e+01	5.813299e+01
2.550000e-06	3.122237e-06	8.138679e-10	2.163429e+01	5.872776e+01
2.560000e-06	3.160910e-06	8.201107e-10	2.190225e+01	5.929838e+01
2.570000e-06	3.199383e-06	8.268146e-10	2.216883e+01	5.984542e+01
2.580000e-06	3.237611e-06	8.330795e-10	2.243372e+01	6.036945e+01
2.590000e-06	3.275612e-06	8.403388e-10	2.269704e+01	6.087102e+01
2.600000e-06	3.313333e-06	8.474172e-10	2.295841e+01	6.135072e+01
2.610000e-06	3.350773e-06	8.532854e-10	2.321783e+01	6.180909e+01
2.620000e-06	3.387986e-06	8.593984e-10	2.347568e+01	6.224671e+01
2.630000e-06	3.424974e-06	8.670019e-10	2.373198e+01	6.266414e+01
2.640000e-06	3.461715e-06	8.751640e-10	2.398656e+01	6.306196e+01
2.650000e-06	3.498267e-06	8.829244e-10	2.423983e+01	6.344074e+01
2.660000e-06	3.534516e-06	8.893631e-10	2.449101e+01	6.380108e+01
2.670000e-06	3.570457e-06	8.951239e-10	2.474005e+01	6.414356e+01
2.680000e-06	3.606299e-06	9.007641e-10	2.498840e+01	6.446878e+01
2.690000e-06	3.642066e-06	9.045599e-10	2.523623e+01	6.477737e+01
2.700000e-06	3.677731e-06	9.079042e-10	2.548336e+01	6.506992e+01
2.710000e-06	3.713262e-06	9.126992e-10	2.572956e+01	6.534707e+01
2.720000e-06	3.748571e-06	9.184942e-10	2.597421e+01	6.560945e+01
2.730000e-06	3.783609e-06	9.241514e-10	2.621699e+01	6.585768e+01
2.740000e-06	3.818243e-06	9.294772e-10	2.645698e+01	6.609240e+01
2.750000e-06	3.852388e-06	9.350170e-10	2.669357e+01	6.631425e+01
2.760000e-06	3.886010e-06	9.394312e-10	2.692654e+01	6.652386e+01
2.770000e-06	3.919069e-06	9.412253e-10	2.715561e+01	6.672185e+01
2.780000e-06	3.951723e-06	9.424028e-10	2.738187e+01	6.690884e+01
2.790000e-06	3.984142e-06	9.461258e-10	2.760651e+01	6.708544e+01
2.800000e-06	4.016307e-06	9.511768e-10	2.782938e+01	6.725223e+01
2.810000e-06	4.048230e-06	9.545863e-10	2.805058e+01	6.740980e+01
2.820000e-06	4.079983e-06	9.580051e-10	2.827060e+01	6.755869e+01
2.830000e-06	4.111519e-06	9.616017e-10	2.848912e+01	6.769942e+01
2.840000e-06	4.142842e-06	9.642147e-10	2.870616e+01	6.783250e+01
2.850000e-06	4.173944e-06	9.660763e-10	2.892167e+01	6.795838e+01
2.860000e-06	4.204754e-06	9.671072e-10	2.913515e+01	6.807752e+01
2.870000e-06	4.235226e-06	9.679269e-10	2.934629e+01	6.819030e+01
2.880000e-06	4.265346e-06	9.698524e-10	2.955500e+01	6.829710e+01
2.890000e-06	4.295180e-06	9.718930e-10	2.976172e+01	6.839823e+01
2.900000e-06	4.324844e-06	9.728382e-10	2.996727e+01	6.849399e+01
