# Temperatura_=_-9.2
# Concentracion g/m^3_=_1620.0
# C_Vs_to_Am_M_A/Vsm_=_65563218390.804596
# pendiente_HvsI_1/m_=_3716.3
# ordenada_HvsI_A/m_=_1297.0
# frecuencia_Hz_=_135103.18342667838

Tiempo_(s)	Campo_(V.s)	Magnetizacion_(V.s)	Campo_(kA/m)	Magnetizacion_(A/m)
0.000000e+00	-5.530742e-06	-1.154989e-09	-3.836102e+01	-7.599346e+01
1.000000e-08	-5.530984e-06	-1.147140e-09	-3.836270e+01	-7.595325e+01
2.000000e-08	-5.531030e-06	-1.139464e-09	-3.836301e+01	-7.591627e+01
3.000000e-08	-5.530760e-06	-1.136218e-09	-3.836114e+01	-7.588281e+01
4.000000e-08	-5.529980e-06	-1.136178e-09	-3.835573e+01	-7.585311e+01
5.000000e-08	-5.528653e-06	-1.136391e-09	-3.834653e+01	-7.582732e+01
6.000000e-08	-5.526722e-06	-1.130829e-09	-3.833313e+01	-7.580548e+01
7.000000e-08	-5.524151e-06	-1.115113e-09	-3.831531e+01	-7.578757e+01
8.000000e-08	-5.521072e-06	-1.123124e-09	-3.829395e+01	-7.577345e+01
9.000000e-08	-5.517579e-06	-1.181655e-09	-3.826972e+01	-7.576289e+01
1.000000e-07	-5.513639e-06	-1.225765e-09	-3.824239e+01	-7.575556e+01
1.100000e-07	-5.509309e-06	-1.154382e-09	-3.821236e+01	-7.575106e+01
1.200000e-07	-5.504747e-06	-1.045728e-09	-3.818072e+01	-7.574888e+01
1.300000e-07	-5.500072e-06	-1.059347e-09	-3.814829e+01	-7.574845e+01
1.400000e-07	-5.495056e-06	-1.169067e-09	-3.811351e+01	-7.574915e+01
1.500000e-07	-5.489555e-06	-1.175712e-09	-3.807535e+01	-7.575026e+01
1.600000e-07	-5.483818e-06	-1.100174e-09	-3.803556e+01	-7.575107e+01
1.700000e-07	-5.477728e-06	-1.081071e-09	-3.799332e+01	-7.575081e+01
1.800000e-07	-5.471093e-06	-1.183667e-09	-3.794729e+01	-7.574870e+01
1.900000e-07	-5.463980e-06	-1.185427e-09	-3.789796e+01	-7.574398e+01
2.000000e-07	-5.456551e-06	-1.097372e-09	-3.784643e+01	-7.573587e+01
2.100000e-07	-5.448863e-06	-1.059404e-09	-3.779311e+01	-7.572366e+01
2.200000e-07	-5.440889e-06	-1.154102e-09	-3.773780e+01	-7.570666e+01
2.300000e-07	-5.432685e-06	-1.198110e-09	-3.768090e+01	-7.568424e+01
2.400000e-07	-5.424197e-06	-1.143943e-09	-3.762203e+01	-7.565585e+01
2.500000e-07	-5.415100e-06	-1.090601e-09	-3.755893e+01	-7.562099e+01
2.600000e-07	-5.405202e-06	-1.114603e-09	-3.749028e+01	-7.557929e+01
2.700000e-07	-5.394617e-06	-1.138308e-09	-3.741686e+01	-7.553043e+01
2.800000e-07	-5.383534e-06	-1.108418e-09	-3.733999e+01	-7.547423e+01
2.900000e-07	-5.372063e-06	-1.097709e-09	-3.726043e+01	-7.541058e+01
3.000000e-07	-5.360239e-06	-1.117868e-09	-3.717842e+01	-7.533949e+01
3.100000e-07	-5.348102e-06	-1.135754e-09	-3.709424e+01	-7.526107e+01
3.200000e-07	-5.335523e-06	-1.096472e-09	-3.700699e+01	-7.517553e+01
3.300000e-07	-5.322446e-06	-1.095735e-09	-3.691628e+01	-7.508316e+01
3.400000e-07	-5.309028e-06	-1.116917e-09	-3.682322e+01	-7.498435e+01
3.500000e-07	-5.295338e-06	-1.139725e-09	-3.672826e+01	-7.487958e+01
3.600000e-07	-5.281160e-06	-1.102491e-09	-3.662993e+01	-7.476936e+01
3.700000e-07	-5.266532e-06	-1.111088e-09	-3.652847e+01	-7.465430e+01
3.800000e-07	-5.251490e-06	-1.120305e-09	-3.642414e+01	-7.453504e+01
3.900000e-07	-5.235890e-06	-1.104722e-09	-3.631593e+01	-7.441223e+01
4.000000e-07	-5.219686e-06	-1.082213e-09	-3.620355e+01	-7.428658e+01
4.100000e-07	-5.202998e-06	-1.124183e-09	-3.608780e+01	-7.415877e+01
4.200000e-07	-5.186039e-06	-1.124273e-09	-3.597018e+01	-7.402951e+01
4.300000e-07	-5.168842e-06	-1.083991e-09	-3.585089e+01	-7.389946e+01
4.400000e-07	-5.151316e-06	-1.095739e-09	-3.572934e+01	-7.376928e+01
4.500000e-07	-5.133406e-06	-1.139570e-09	-3.560511e+01	-7.363956e+01
4.600000e-07	-5.115051e-06	-1.096958e-09	-3.547780e+01	-7.351087e+01
4.700000e-07	-5.096206e-06	-1.063297e-09	-3.534709e+01	-7.338372e+01
4.800000e-07	-5.077065e-06	-1.105110e-09	-3.521433e+01	-7.325852e+01
4.900000e-07	-5.057712e-06	-1.112911e-09	-3.508010e+01	-7.313567e+01
5.000000e-07	-5.038078e-06	-1.072368e-09	-3.494392e+01	-7.301546e+01
5.100000e-07	-5.018289e-06	-1.092126e-09	-3.480666e+01	-7.289811e+01
5.200000e-07	-4.998273e-06	-1.109185e-09	-3.466783e+01	-7.278379e+01
5.300000e-07	-4.977858e-06	-1.064287e-09	-3.452624e+01	-7.267257e+01
5.400000e-07	-4.957070e-06	-1.072291e-09	-3.438205e+01	-7.256449e+01
5.500000e-07	-4.935925e-06	-1.113528e-09	-3.423539e+01	-7.245948e+01
5.600000e-07	-4.914444e-06	-1.084909e-09	-3.408640e+01	-7.235745e+01
5.700000e-07	-4.892653e-06	-1.055653e-09	-3.393526e+01	-7.225825e+01
5.800000e-07	-4.870543e-06	-1.098485e-09	-3.378190e+01	-7.216168e+01
5.900000e-07	-4.848060e-06	-1.096861e-09	-3.362596e+01	-7.206751e+01
6.000000e-07	-4.825163e-06	-1.062811e-09	-3.346715e+01	-7.197547e+01
6.100000e-07	-4.801924e-06	-1.076425e-09	-3.330597e+01	-7.188530e+01
6.200000e-07	-4.778445e-06	-1.091973e-09	-3.314311e+01	-7.179669e+01
6.300000e-07	-4.754764e-06	-1.061325e-09	-3.297886e+01	-7.170936e+01
6.400000e-07	-4.730879e-06	-1.066303e-09	-3.281320e+01	-7.162303e+01
6.500000e-07	-4.706656e-06	-1.081230e-09	-3.264519e+01	-7.153741e+01
6.600000e-07	-4.681996e-06	-1.068085e-09	-3.247415e+01	-7.145224e+01
6.700000e-07	-4.656833e-06	-1.063595e-09	-3.229962e+01	-7.136729e+01
6.800000e-07	-4.631062e-06	-1.082098e-09	-3.212087e+01	-7.128235e+01
6.900000e-07	-4.604765e-06	-1.067203e-09	-3.193848e+01	-7.119723e+01
7.000000e-07	-4.578002e-06	-1.059569e-09	-3.175285e+01	-7.111178e+01
7.100000e-07	-4.550807e-06	-1.070494e-09	-3.156422e+01	-7.102587e+01
7.200000e-07	-4.523299e-06	-1.069590e-09	-3.137343e+01	-7.093941e+01
7.300000e-07	-4.495581e-06	-1.057640e-09	-3.118118e+01	-7.085233e+01
7.400000e-07	-4.467773e-06	-1.065420e-09	-3.098831e+01	-7.076458e+01
7.500000e-07	-4.439816e-06	-1.064777e-09	-3.079439e+01	-7.067614e+01
7.600000e-07	-4.411600e-06	-1.053889e-09	-3.059869e+01	-7.058700e+01
7.700000e-07	-4.383096e-06	-1.052723e-09	-3.040099e+01	-7.049717e+01
7.800000e-07	-4.354197e-06	-1.053625e-09	-3.020055e+01	-7.040665e+01
7.900000e-07	-4.324895e-06	-1.044960e-09	-2.999731e+01	-7.031545e+01
8.000000e-07	-4.295343e-06	-1.046217e-09	-2.979234e+01	-7.022357e+01
8.100000e-07	-4.265550e-06	-1.048923e-09	-2.958569e+01	-7.013100e+01
8.200000e-07	-4.235446e-06	-1.034738e-09	-2.937690e+01	-7.003772e+01
8.300000e-07	-4.205064e-06	-1.025525e-09	-2.916617e+01	-6.994369e+01
8.400000e-07	-4.174419e-06	-1.028695e-09	-2.895362e+01	-6.984884e+01
8.500000e-07	-4.143411e-06	-1.027063e-09	-2.873854e+01	-6.975307e+01
8.600000e-07	-4.112038e-06	-1.019904e-09	-2.852094e+01	-6.965626e+01
8.700000e-07	-4.080460e-06	-1.023946e-09	-2.830192e+01	-6.955825e+01
8.800000e-07	-4.048800e-06	-1.021161e-09	-2.808233e+01	-6.945888e+01
8.900000e-07	-4.017015e-06	-1.011042e-09	-2.786187e+01	-6.935792e+01
9.000000e-07	-3.985017e-06	-1.007575e-09	-2.763993e+01	-6.925513e+01
9.100000e-07	-3.952776e-06	-1.009732e-09	-2.741631e+01	-6.915027e+01
9.200000e-07	-3.920181e-06	-1.002243e-09	-2.719023e+01	-6.904304e+01
9.300000e-07	-3.887203e-06	-1.001768e-09	-2.696150e+01	-6.893315e+01
9.400000e-07	-3.853760e-06	-1.007128e-09	-2.672954e+01	-6.882031e+01
9.500000e-07	-3.819768e-06	-1.005623e-09	-2.649377e+01	-6.870421e+01
9.600000e-07	-3.785209e-06	-9.976147e-10	-2.625407e+01	-6.858454e+01
9.700000e-07	-3.750243e-06	-1.000243e-09	-2.601154e+01	-6.846102e+01
9.800000e-07	-3.715092e-06	-9.979628e-10	-2.576774e+01	-6.833337e+01
9.900000e-07	-3.679730e-06	-9.895003e-10	-2.552247e+01	-6.820134e+01
1.000000e-06	-3.644144e-06	-9.840670e-10	-2.527565e+01	-6.806472e+01
1.010000e-06	-3.608407e-06	-9.843277e-10	-2.502778e+01	-6.792331e+01
1.020000e-06	-3.572593e-06	-9.804644e-10	-2.477937e+01	-6.777699e+01
1.030000e-06	-3.536655e-06	-9.807328e-10	-2.453011e+01	-6.762565e+01
1.040000e-06	-3.500510e-06	-9.851487e-10	-2.427940e+01	-6.746924e+01
1.050000e-06	-3.464058e-06	-9.836897e-10	-2.402658e+01	-6.730777e+01
1.060000e-06	-3.427312e-06	-9.766071e-10	-2.377170e+01	-6.714129e+01
1.070000e-06	-3.390297e-06	-9.752824e-10	-2.351497e+01	-6.696990e+01
1.080000e-06	-3.352986e-06	-9.723766e-10	-2.325618e+01	-6.679377e+01
1.090000e-06	-3.315443e-06	-9.666424e-10	-2.299579e+01	-6.661310e+01
1.100000e-06	-3.277712e-06	-9.662328e-10	-2.273409e+01	-6.642814e+01
1.110000e-06	-3.239804e-06	-9.691467e-10	-2.247116e+01	-6.623917e+01
1.120000e-06	-3.201701e-06	-9.683818e-10	-2.220688e+01	-6.604651e+01
1.130000e-06	-3.163267e-06	-9.647503e-10	-2.194030e+01	-6.585052e+01
1.140000e-06	-3.124440e-06	-9.632136e-10	-2.167100e+01	-6.565156e+01
1.150000e-06	-3.085446e-06	-9.550524e-10	-2.140054e+01	-6.545001e+01
1.160000e-06	-3.046317e-06	-9.471206e-10	-2.112914e+01	-6.524624e+01
1.170000e-06	-3.006993e-06	-9.439143e-10	-2.085639e+01	-6.504063e+01
1.180000e-06	-2.967546e-06	-9.430466e-10	-2.058279e+01	-6.483353e+01
1.190000e-06	-2.927997e-06	-9.429651e-10	-2.030848e+01	-6.462528e+01
1.200000e-06	-2.888322e-06	-9.459137e-10	-2.003330e+01	-6.441616e+01
1.210000e-06	-2.848522e-06	-9.448465e-10	-1.975724e+01	-6.420644e+01
1.220000e-06	-2.808613e-06	-9.397314e-10	-1.948044e+01	-6.399632e+01
1.230000e-06	-2.768567e-06	-9.329467e-10	-1.920268e+01	-6.378595e+01
1.240000e-06	-2.728326e-06	-9.288751e-10	-1.892357e+01	-6.357542e+01
1.250000e-06	-2.687776e-06	-9.237080e-10	-1.864231e+01	-6.336475e+01
1.260000e-06	-2.646965e-06	-9.200947e-10	-1.835925e+01	-6.315390e+01
1.270000e-06	-2.605950e-06	-9.177156e-10	-1.807477e+01	-6.294274e+01
1.280000e-06	-2.564608e-06	-9.157098e-10	-1.778802e+01	-6.273108e+01
1.290000e-06	-2.522940e-06	-9.119216e-10	-1.749902e+01	-6.251866e+01
1.300000e-06	-2.480986e-06	-9.077391e-10	-1.720803e+01	-6.230515e+01
1.310000e-06	-2.438734e-06	-9.024888e-10	-1.691497e+01	-6.209013e+01
1.320000e-06	-2.396178e-06	-8.973221e-10	-1.661980e+01	-6.187315e+01
1.330000e-06	-2.353284e-06	-8.944166e-10	-1.632229e+01	-6.165366e+01
1.340000e-06	-2.310141e-06	-8.907855e-10	-1.602305e+01	-6.143109e+01
1.350000e-06	-2.266820e-06	-8.872856e-10	-1.572258e+01	-6.120480e+01
1.360000e-06	-2.223372e-06	-8.874673e-10	-1.542123e+01	-6.097413e+01
1.370000e-06	-2.179840e-06	-8.880315e-10	-1.511929e+01	-6.073836e+01
1.380000e-06	-2.136187e-06	-8.835892e-10	-1.481652e+01	-6.049676e+01
1.390000e-06	-2.092452e-06	-8.768422e-10	-1.451317e+01	-6.024857e+01
1.400000e-06	-2.048605e-06	-8.714367e-10	-1.420905e+01	-5.999305e+01
1.410000e-06	-2.004714e-06	-8.660973e-10	-1.390462e+01	-5.972941e+01
1.420000e-06	-1.960792e-06	-8.594545e-10	-1.359998e+01	-5.945689e+01
1.430000e-06	-1.916692e-06	-8.537921e-10	-1.329410e+01	-5.917474e+01
1.440000e-06	-1.872464e-06	-8.496729e-10	-1.298734e+01	-5.888222e+01
1.450000e-06	-1.828138e-06	-8.445607e-10	-1.267990e+01	-5.857860e+01
1.460000e-06	-1.783734e-06	-8.381572e-10	-1.237191e+01	-5.826319e+01
1.470000e-06	-1.739201e-06	-8.315025e-10	-1.206304e+01	-5.793532e+01
1.480000e-06	-1.694460e-06	-8.231232e-10	-1.175271e+01	-5.759435e+01
1.490000e-06	-1.649567e-06	-8.129537e-10	-1.144133e+01	-5.723965e+01
1.500000e-06	-1.604575e-06	-7.993696e-10	-1.112927e+01	-5.687065e+01
1.510000e-06	-1.559519e-06	-7.881608e-10	-1.081676e+01	-5.648680e+01
1.520000e-06	-1.514348e-06	-7.817757e-10	-1.050346e+01	-5.608756e+01
1.530000e-06	-1.469020e-06	-7.765119e-10	-1.018907e+01	-5.567243e+01
1.540000e-06	-1.423571e-06	-7.693569e-10	-9.873837e+00	-5.524093e+01
1.550000e-06	-1.378048e-06	-7.597071e-10	-9.558090e+00	-5.479259e+01
1.560000e-06	-1.332468e-06	-7.470992e-10	-9.241947e+00	-5.432697e+01
1.570000e-06	-1.286821e-06	-7.353688e-10	-8.925344e+00	-5.384362e+01
1.580000e-06	-1.241054e-06	-7.257483e-10	-8.607905e+00	-5.334210e+01
1.590000e-06	-1.195194e-06	-7.155216e-10	-8.289822e+00	-5.282198e+01
1.600000e-06	-1.149305e-06	-7.056008e-10	-7.971535e+00	-5.228282e+01
1.610000e-06	-1.103364e-06	-6.997924e-10	-7.652890e+00	-5.172415e+01
1.620000e-06	-1.057360e-06	-6.962176e-10	-7.333806e+00	-5.114552e+01
1.630000e-06	-1.011319e-06	-6.919040e-10	-7.014473e+00	-5.054643e+01
1.640000e-06	-9.651167e-07	-6.854324e-10	-6.694013e+00	-4.992640e+01
1.650000e-06	-9.187109e-07	-6.764460e-10	-6.372144e+00	-4.928489e+01
1.660000e-06	-8.722394e-07	-6.641420e-10	-6.049820e+00	-4.862136e+01
1.670000e-06	-8.258259e-07	-6.496621e-10	-5.727897e+00	-4.793524e+01
1.680000e-06	-7.794450e-07	-6.358631e-10	-5.406202e+00	-4.722593e+01
1.690000e-06	-7.330180e-07	-6.227877e-10	-5.084185e+00	-4.649282e+01
1.700000e-06	-6.865356e-07	-6.086004e-10	-4.761785e+00	-4.573527e+01
1.710000e-06	-6.399811e-07	-5.958618e-10	-4.438885e+00	-4.495264e+01
1.720000e-06	-5.933769e-07	-5.853398e-10	-4.115640e+00	-4.414426e+01
1.730000e-06	-5.467502e-07	-5.748210e-10	-3.792239e+00	-4.330946e+01
1.740000e-06	-5.000586e-07	-5.638508e-10	-3.468388e+00	-4.244755e+01
1.750000e-06	-4.532561e-07	-5.523915e-10	-3.143767e+00	-4.155788e+01
1.760000e-06	-4.063705e-07	-5.402562e-10	-2.818571e+00	-4.063978e+01
1.770000e-06	-3.594966e-07	-5.233283e-10	-2.493455e+00	-3.969259e+01
1.780000e-06	-3.125920e-07	-5.057678e-10	-2.168126e+00	-3.871571e+01
1.790000e-06	-2.656201e-07	-4.883835e-10	-1.842331e+00	-3.770854e+01
1.800000e-06	-2.186608e-07	-4.726925e-10	-1.516623e+00	-3.667052e+01
1.810000e-06	-1.717063e-07	-4.602738e-10	-1.190948e+00	-3.560116e+01
1.820000e-06	-1.247634e-07	-4.509994e-10	-8.653543e-01	-3.450001e+01
1.830000e-06	-7.781005e-08	-4.416782e-10	-5.396876e-01	-3.336667e+01
1.840000e-06	-3.081601e-08	-4.288909e-10	-2.137387e-01	-3.220084e+01
1.850000e-06	1.612151e-08	-4.126844e-10	1.118182e-01	-3.100226e+01
1.860000e-06	6.299249e-08	-3.938387e-10	4.369135e-01	-2.977078e+01
1.870000e-06	1.098250e-07	-3.715304e-10	7.617418e-01	-2.850632e+01
1.880000e-06	1.566794e-07	-3.494508e-10	1.086722e+00	-2.720892e+01
1.890000e-06	2.035778e-07	-3.320352e-10	1.412008e+00	-2.587870e+01
1.900000e-06	2.504382e-07	-3.172962e-10	1.737030e+00	-2.451588e+01
1.910000e-06	2.972377e-07	-3.020418e-10	2.061629e+00	-2.312081e+01
1.920000e-06	3.439999e-07	-2.846246e-10	2.385970e+00	-2.169392e+01
1.930000e-06	3.907407e-07	-2.649215e-10	2.710163e+00	-2.023579e+01
1.940000e-06	4.374418e-07	-2.426754e-10	3.034080e+00	-1.874708e+01
1.950000e-06	4.841645e-07	-2.179416e-10	3.358147e+00	-1.722860e+01
1.960000e-06	5.308977e-07	-1.926635e-10	3.682286e+00	-1.568126e+01
1.970000e-06	5.775823e-07	-1.709890e-10	4.006089e+00	-1.410608e+01
1.980000e-06	6.242667e-07	-1.520936e-10	4.329890e+00	-1.250422e+01
1.990000e-06	6.708179e-07	-1.347756e-10	4.652768e+00	-1.087695e+01
2.000000e-06	7.172311e-07	-1.157348e-10	4.974688e+00	-9.225631e+00
2.010000e-06	7.636509e-07	-9.342769e-11	5.296654e+00	-7.551770e+00
2.020000e-06	8.100662e-07	-6.826070e-11	5.618589e+00	-5.856962e+00
2.030000e-06	8.564481e-07	-3.990933e-11	5.940292e+00	-4.142913e+00
2.040000e-06	9.027550e-07	-1.131272e-11	6.261475e+00	-2.411427e+00
2.050000e-06	9.490114e-07	1.407347e-11	6.582307e+00	-6.644056e-01
2.060000e-06	9.951555e-07	3.751864e-11	6.902361e+00	1.096162e+00
2.070000e-06	1.041151e-06	6.011080e-11	7.221387e+00	2.868204e+00
2.080000e-06	1.087113e-06	8.243625e-11	7.540176e+00	4.649571e+00
2.090000e-06	1.133031e-06	1.049623e-10	7.858662e+00	6.438050e+00
2.100000e-06	1.178806e-06	1.308745e-10	8.176153e+00	8.231367e+00
2.110000e-06	1.224457e-06	1.599030e-10	8.492786e+00	1.002720e+01
2.120000e-06	1.270105e-06	1.898677e-10	8.809400e+00	1.182318e+01
2.130000e-06	1.315772e-06	2.185655e-10	9.126142e+00	1.361693e+01
2.140000e-06	1.361279e-06	2.435475e-10	9.441777e+00	1.540604e+01
2.150000e-06	1.406667e-06	2.635621e-10	9.756588e+00	1.718809e+01
2.160000e-06	1.452056e-06	2.820961e-10	1.007141e+01	1.896068e+01
2.170000e-06	1.497290e-06	3.034524e-10	1.038515e+01	2.072142e+01
2.180000e-06	1.542326e-06	3.272475e-10	1.069751e+01	2.246796e+01
2.190000e-06	1.587257e-06	3.522443e-10	1.100915e+01	2.419800e+01
2.200000e-06	1.632062e-06	3.803199e-10	1.131992e+01	2.590928e+01
2.210000e-06	1.676783e-06	4.096671e-10	1.163011e+01	2.759964e+01
2.220000e-06	1.721391e-06	4.346028e-10	1.193950e+01	2.926697e+01
2.230000e-06	1.765859e-06	4.556673e-10	1.224793e+01	3.090930e+01
2.240000e-06	1.810192e-06	4.728214e-10	1.255542e+01	3.252472e+01
2.250000e-06	1.854462e-06	4.891556e-10	1.286248e+01	3.411150e+01
2.260000e-06	1.898692e-06	5.074169e-10	1.316925e+01	3.566798e+01
2.270000e-06	1.942738e-06	5.295181e-10	1.347476e+01	3.719269e+01
2.280000e-06	1.986633e-06	5.531644e-10	1.377921e+01	3.868428e+01
2.290000e-06	2.030430e-06	5.759676e-10	1.408299e+01	4.014157e+01
2.300000e-06	2.074122e-06	5.971565e-10	1.438604e+01	4.156353e+01
2.310000e-06	2.117785e-06	6.161607e-10	1.468888e+01	4.294930e+01
2.320000e-06	2.161441e-06	6.333298e-10	1.499168e+01	4.429820e+01
2.330000e-06	2.204989e-06	6.503125e-10	1.529372e+01	4.560970e+01
2.340000e-06	2.248459e-06	6.683288e-10	1.559523e+01	4.688344e+01
2.350000e-06	2.291833e-06	6.874687e-10	1.589607e+01	4.811924e+01
2.360000e-06	2.334965e-06	7.077965e-10	1.619523e+01	4.931706e+01
2.370000e-06	2.377833e-06	7.266506e-10	1.649256e+01	5.047702e+01
2.380000e-06	2.420473e-06	7.413195e-10	1.678831e+01	5.159939e+01
2.390000e-06	2.462729e-06	7.534915e-10	1.708140e+01	5.268457e+01
2.400000e-06	2.504704e-06	7.665931e-10	1.737253e+01	5.373310e+01
2.410000e-06	2.546488e-06	7.791708e-10	1.766234e+01	5.474561e+01
2.420000e-06	2.587906e-06	7.910232e-10	1.794962e+01	5.572284e+01
2.430000e-06	2.628991e-06	8.013849e-10	1.823458e+01	5.666563e+01
2.440000e-06	2.669808e-06	8.103177e-10	1.851769e+01	5.757488e+01
2.450000e-06	2.710392e-06	8.184670e-10	1.879918e+01	5.845154e+01
2.460000e-06	2.750778e-06	8.295557e-10	1.907929e+01	5.929662e+01
2.470000e-06	2.790982e-06	8.433135e-10	1.935815e+01	6.011115e+01
2.480000e-06	2.830945e-06	8.559889e-10	1.963533e+01	6.089617e+01
2.490000e-06	2.870707e-06	8.672838e-10	1.991112e+01	6.165273e+01
2.500000e-06	2.910399e-06	8.774139e-10	2.018641e+01	6.238187e+01
2.510000e-06	2.950007e-06	8.848509e-10	2.046114e+01	6.308458e+01
2.520000e-06	2.989484e-06	8.904969e-10	2.073495e+01	6.376186e+01
2.530000e-06	3.028736e-06	8.967582e-10	2.100720e+01	6.441462e+01
2.540000e-06	3.067671e-06	9.038955e-10	2.127725e+01	6.504377e+01
2.550000e-06	3.106423e-06	9.124617e-10	2.154603e+01	6.565011e+01
2.560000e-06	3.145002e-06	9.211161e-10	2.181361e+01	6.623442e+01
2.570000e-06	3.183346e-06	9.289800e-10	2.207957e+01	6.679741e+01
2.580000e-06	3.221540e-06	9.375336e-10	2.234448e+01	6.733972e+01
2.590000e-06	3.259558e-06	9.452053e-10	2.260817e+01	6.786192e+01
2.600000e-06	3.297321e-06	9.509641e-10	2.287009e+01	6.836455e+01
2.610000e-06	3.334820e-06	9.569221e-10	2.313018e+01	6.884807e+01
2.620000e-06	3.372070e-06	9.638024e-10	2.338855e+01	6.931291e+01
2.630000e-06	3.409071e-06	9.709648e-10	2.364519e+01	6.975945e+01
2.640000e-06	3.445782e-06	9.792742e-10	2.389982e+01	7.018803e+01
2.650000e-06	3.482225e-06	9.887616e-10	2.415258e+01	7.059899e+01
2.660000e-06	3.518476e-06	9.966981e-10	2.440402e+01	7.099263e+01
2.670000e-06	3.554579e-06	1.003001e-09	2.465443e+01	7.136925e+01
2.680000e-06	3.590512e-06	1.008868e-09	2.490365e+01	7.172916e+01
2.690000e-06	3.626276e-06	1.015272e-09	2.515171e+01	7.207268e+01
2.700000e-06	3.661913e-06	1.022622e-09	2.539889e+01	7.240015e+01
2.710000e-06	3.697426e-06	1.029425e-09	2.564521e+01	7.271193e+01
2.720000e-06	3.732756e-06	1.036153e-09	2.589026e+01	7.300843e+01
2.730000e-06	3.767749e-06	1.042736e-09	2.613297e+01	7.329008e+01
2.740000e-06	3.802329e-06	1.048122e-09	2.637281e+01	7.355737e+01
2.750000e-06	3.836525e-06	1.053314e-09	2.661000e+01	7.381084e+01
2.760000e-06	3.870289e-06	1.056141e-09	2.684418e+01	7.405105e+01
2.770000e-06	3.903616e-06	1.057124e-09	2.707533e+01	7.427863e+01
2.780000e-06	3.936424e-06	1.059633e-09	2.730289e+01	7.449426e+01
2.790000e-06	3.968784e-06	1.066309e-09	2.752734e+01	7.469863e+01
2.800000e-06	4.000960e-06	1.075168e-09	2.775051e+01	7.489248e+01
2.810000e-06	4.033013e-06	1.081847e-09	2.797283e+01	7.507658e+01
2.820000e-06	4.064861e-06	1.084707e-09	2.819372e+01	7.525172e+01
2.830000e-06	4.096465e-06	1.086068e-09	2.841292e+01	7.541870e+01
2.840000e-06	4.127824e-06	1.087036e-09	2.863043e+01	7.557829e+01
2.850000e-06	4.158875e-06	1.087390e-09	2.884580e+01	7.573129e+01
2.860000e-06	4.189634e-06	1.087180e-09	2.905914e+01	7.587845e+01
2.870000e-06	4.220088e-06	1.088035e-09	2.927038e+01	7.602049e+01
2.880000e-06	4.250212e-06	1.092915e-09	2.947931e+01	7.615809e+01
2.890000e-06	4.280072e-06	1.098717e-09	2.968642e+01	7.629186e+01
2.900000e-06	4.309745e-06	1.102488e-09	2.989223e+01	7.642237e+01
