# Temperatura_=_-6.5
# Concentracion g/m^3_=_1620.0
# C_Vs_to_Am_M_A/Vsm_=_65563218390.804596
# pendiente_HvsI_1/m_=_3716.3
# ordenada_HvsI_A/m_=_1297.0
# frecuencia_Hz_=_135101.71488400066

Tiempo_(s)	Campo_(V.s)	Magnetizacion_(V.s)	Campo_(kA/m)	Magnetizacion_(A/m)
0.000000e+00	-5.517377e-06	-1.339915e-09	-3.836458e+01	-8.581641e+01
1.000000e-08	-5.517610e-06	-1.335509e-09	-3.836620e+01	-8.574960e+01
2.000000e-08	-5.517583e-06	-1.330761e-09	-3.836601e+01	-8.568054e+01
3.000000e-08	-5.517208e-06	-1.326709e-09	-3.836340e+01	-8.560976e+01
4.000000e-08	-5.516356e-06	-1.324665e-09	-3.835748e+01	-8.553782e+01
5.000000e-08	-5.514947e-06	-1.325358e-09	-3.834769e+01	-8.546527e+01
6.000000e-08	-5.512969e-06	-1.335640e-09	-3.833393e+01	-8.539265e+01
7.000000e-08	-5.510400e-06	-1.352593e-09	-3.831607e+01	-8.532048e+01
8.000000e-08	-5.507269e-06	-1.334915e-09	-3.829429e+01	-8.524925e+01
9.000000e-08	-5.503643e-06	-1.273995e-09	-3.826908e+01	-8.517939e+01
1.000000e-07	-5.499700e-06	-1.280805e-09	-3.824167e+01	-8.511128e+01
1.100000e-07	-5.495382e-06	-1.330526e-09	-3.821164e+01	-8.504521e+01
1.200000e-07	-5.490670e-06	-1.354247e-09	-3.817888e+01	-8.498143e+01
1.300000e-07	-5.485712e-06	-1.303560e-09	-3.814440e+01	-8.492007e+01
1.400000e-07	-5.480477e-06	-1.269788e-09	-3.810800e+01	-8.486119e+01
1.500000e-07	-5.474983e-06	-1.340651e-09	-3.806980e+01	-8.480475e+01
1.600000e-07	-5.469102e-06	-1.358943e-09	-3.802890e+01	-8.475062e+01
1.700000e-07	-5.462689e-06	-1.310947e-09	-3.798431e+01	-8.469858e+01
1.800000e-07	-5.455894e-06	-1.256300e-09	-3.793706e+01	-8.464831e+01
1.900000e-07	-5.448809e-06	-1.287720e-09	-3.788780e+01	-8.459941e+01
2.000000e-07	-5.441408e-06	-1.317528e-09	-3.783634e+01	-8.455141e+01
2.100000e-07	-5.433669e-06	-1.301689e-09	-3.778252e+01	-8.450377e+01
2.200000e-07	-5.425671e-06	-1.279958e-09	-3.772691e+01	-8.445588e+01
2.300000e-07	-5.417430e-06	-1.286353e-09	-3.766961e+01	-8.440710e+01
2.400000e-07	-5.408763e-06	-1.288727e-09	-3.760934e+01	-8.435674e+01
2.500000e-07	-5.399458e-06	-1.274571e-09	-3.754464e+01	-8.430410e+01
2.600000e-07	-5.389451e-06	-1.266667e-09	-3.747506e+01	-8.424848e+01
2.700000e-07	-5.378912e-06	-1.270047e-09	-3.740178e+01	-8.418919e+01
2.800000e-07	-5.367850e-06	-1.286746e-09	-3.732486e+01	-8.412555e+01
2.900000e-07	-5.356295e-06	-1.270725e-09	-3.724451e+01	-8.405694e+01
3.000000e-07	-5.344358e-06	-1.255555e-09	-3.716150e+01	-8.398280e+01
3.100000e-07	-5.332053e-06	-1.267210e-09	-3.707594e+01	-8.390260e+01
3.200000e-07	-5.319369e-06	-1.298603e-09	-3.698775e+01	-8.381594e+01
3.300000e-07	-5.306249e-06	-1.282040e-09	-3.689652e+01	-8.372247e+01
3.400000e-07	-5.292703e-06	-1.263232e-09	-3.680233e+01	-8.362197e+01
3.500000e-07	-5.278781e-06	-1.279186e-09	-3.670552e+01	-8.351430e+01
3.600000e-07	-5.264543e-06	-1.283717e-09	-3.660652e+01	-8.339945e+01
3.700000e-07	-5.249821e-06	-1.252165e-09	-3.650415e+01	-8.327752e+01
3.800000e-07	-5.234525e-06	-1.261657e-09	-3.639779e+01	-8.314871e+01
3.900000e-07	-5.218699e-06	-1.280411e-09	-3.628775e+01	-8.301334e+01
4.000000e-07	-5.202403e-06	-1.252343e-09	-3.617444e+01	-8.287186e+01
4.100000e-07	-5.185751e-06	-1.238118e-09	-3.605865e+01	-8.272478e+01
4.200000e-07	-5.168745e-06	-1.276998e-09	-3.594040e+01	-8.257272e+01
4.300000e-07	-5.151458e-06	-1.262689e-09	-3.582019e+01	-8.241639e+01
4.400000e-07	-5.133875e-06	-1.219534e-09	-3.569794e+01	-8.225656e+01
4.500000e-07	-5.115848e-06	-1.242961e-09	-3.557259e+01	-8.209405e+01
4.600000e-07	-5.097350e-06	-1.265178e-09	-3.544396e+01	-8.192973e+01
4.700000e-07	-5.078484e-06	-1.226432e-09	-3.531278e+01	-8.176447e+01
4.800000e-07	-5.059305e-06	-1.219039e-09	-3.517942e+01	-8.159917e+01
4.900000e-07	-5.039816e-06	-1.242306e-09	-3.504390e+01	-8.143470e+01
5.000000e-07	-5.020083e-06	-1.216831e-09	-3.490669e+01	-8.127191e+01
5.100000e-07	-5.000148e-06	-1.206508e-09	-3.476808e+01	-8.111161e+01
5.200000e-07	-4.979950e-06	-1.240230e-09	-3.462763e+01	-8.095453e+01
5.300000e-07	-4.959388e-06	-1.231817e-09	-3.448466e+01	-8.080135e+01
5.400000e-07	-4.938499e-06	-1.195295e-09	-3.433941e+01	-8.065262e+01
5.500000e-07	-4.917318e-06	-1.211763e-09	-3.419212e+01	-8.050883e+01
5.600000e-07	-4.895755e-06	-1.222535e-09	-3.404219e+01	-8.037034e+01
5.700000e-07	-4.873827e-06	-1.198325e-09	-3.388972e+01	-8.023738e+01
5.800000e-07	-4.851566e-06	-1.194877e-09	-3.373492e+01	-8.011006e+01
5.900000e-07	-4.828951e-06	-1.209147e-09	-3.357767e+01	-7.998839e+01
6.000000e-07	-4.805993e-06	-1.196011e-09	-3.341804e+01	-7.987221e+01
6.100000e-07	-4.782809e-06	-1.190647e-09	-3.325682e+01	-7.976125e+01
6.200000e-07	-4.759424e-06	-1.196136e-09	-3.309422e+01	-7.965513e+01
6.300000e-07	-4.735718e-06	-1.191308e-09	-3.292938e+01	-7.955334e+01
6.400000e-07	-4.711734e-06	-1.183628e-09	-3.276261e+01	-7.945526e+01
6.500000e-07	-4.687480e-06	-1.186973e-09	-3.259397e+01	-7.936020e+01
6.600000e-07	-4.662751e-06	-1.186715e-09	-3.242201e+01	-7.926735e+01
6.700000e-07	-4.637453e-06	-1.184769e-09	-3.224611e+01	-7.917587e+01
6.800000e-07	-4.611686e-06	-1.183342e-09	-3.206694e+01	-7.908485e+01
6.900000e-07	-4.585459e-06	-1.180559e-09	-3.188457e+01	-7.899335e+01
7.000000e-07	-4.558756e-06	-1.176037e-09	-3.169890e+01	-7.890040e+01
7.100000e-07	-4.531660e-06	-1.174324e-09	-3.151049e+01	-7.880505e+01
7.200000e-07	-4.504248e-06	-1.170606e-09	-3.131988e+01	-7.870637e+01
7.300000e-07	-4.476610e-06	-1.170688e-09	-3.112770e+01	-7.860344e+01
7.400000e-07	-4.448768e-06	-1.171053e-09	-3.093410e+01	-7.849542e+01
7.500000e-07	-4.420668e-06	-1.167701e-09	-3.073871e+01	-7.838153e+01
7.600000e-07	-4.392315e-06	-1.163745e-09	-3.054156e+01	-7.826106e+01
7.700000e-07	-4.363712e-06	-1.163723e-09	-3.034267e+01	-7.813343e+01
7.800000e-07	-4.334766e-06	-1.161414e-09	-3.014140e+01	-7.799811e+01
7.900000e-07	-4.305487e-06	-1.154103e-09	-2.993781e+01	-7.785475e+01
8.000000e-07	-4.275913e-06	-1.149527e-09	-2.973218e+01	-7.770305e+01
8.100000e-07	-4.246060e-06	-1.146349e-09	-2.952459e+01	-7.754290e+01
8.200000e-07	-4.215954e-06	-1.139717e-09	-2.931525e+01	-7.737427e+01
8.300000e-07	-4.185580e-06	-1.130514e-09	-2.910405e+01	-7.719727e+01
8.400000e-07	-4.154884e-06	-1.127212e-09	-2.889061e+01	-7.701212e+01
8.500000e-07	-4.123856e-06	-1.127443e-09	-2.867485e+01	-7.681918e+01
8.600000e-07	-4.092626e-06	-1.126015e-09	-2.845770e+01	-7.661888e+01
8.700000e-07	-4.061258e-06	-1.121662e-09	-2.823959e+01	-7.641179e+01
8.800000e-07	-4.029641e-06	-1.115360e-09	-2.801974e+01	-7.619852e+01
8.900000e-07	-3.997785e-06	-1.104756e-09	-2.779824e+01	-7.597978e+01
9.000000e-07	-3.965709e-06	-1.097575e-09	-2.757520e+01	-7.575632e+01
9.100000e-07	-3.933343e-06	-1.095225e-09	-2.735014e+01	-7.552895e+01
9.200000e-07	-3.900625e-06	-1.095342e-09	-2.712264e+01	-7.529850e+01
9.300000e-07	-3.867517e-06	-1.092288e-09	-2.689243e+01	-7.506578e+01
9.400000e-07	-3.834031e-06	-1.092886e-09	-2.665959e+01	-7.483162e+01
9.500000e-07	-3.800096e-06	-1.092058e-09	-2.642362e+01	-7.459684e+01
9.600000e-07	-3.765710e-06	-1.086310e-09	-2.618452e+01	-7.436217e+01
9.700000e-07	-3.730957e-06	-1.078191e-09	-2.594287e+01	-7.412834e+01
9.800000e-07	-3.695894e-06	-1.072650e-09	-2.569906e+01	-7.389597e+01
9.900000e-07	-3.660651e-06	-1.066436e-09	-2.545400e+01	-7.366562e+01
1.000000e-06	-3.625191e-06	-1.060013e-09	-2.520743e+01	-7.343777e+01
1.010000e-06	-3.589478e-06	-1.057531e-09	-2.495911e+01	-7.321279e+01
1.020000e-06	-3.553590e-06	-1.058112e-09	-2.470956e+01	-7.299093e+01
1.030000e-06	-3.517495e-06	-1.058483e-09	-2.445858e+01	-7.277237e+01
1.040000e-06	-3.481216e-06	-1.058335e-09	-2.420632e+01	-7.255715e+01
1.050000e-06	-3.444733e-06	-1.056115e-09	-2.395263e+01	-7.234522e+01
1.060000e-06	-3.408048e-06	-1.049669e-09	-2.369755e+01	-7.213640e+01
1.070000e-06	-3.371100e-06	-1.042151e-09	-2.344064e+01	-7.193043e+01
1.080000e-06	-3.333838e-06	-1.036648e-09	-2.318154e+01	-7.172694e+01
1.090000e-06	-3.296373e-06	-1.032278e-09	-2.292103e+01	-7.152548e+01
1.100000e-06	-3.258629e-06	-1.031137e-09	-2.265858e+01	-7.132550e+01
1.110000e-06	-3.220630e-06	-1.031681e-09	-2.239436e+01	-7.112640e+01
1.120000e-06	-3.182406e-06	-1.033162e-09	-2.212857e+01	-7.092752e+01
1.130000e-06	-3.143898e-06	-1.026807e-09	-2.186081e+01	-7.072816e+01
1.140000e-06	-3.105312e-06	-1.017818e-09	-2.159250e+01	-7.052755e+01
1.150000e-06	-3.066637e-06	-1.014521e-09	-2.132358e+01	-7.032496e+01
1.160000e-06	-3.027679e-06	-1.012184e-09	-2.105269e+01	-7.011960e+01
1.170000e-06	-2.988472e-06	-1.009017e-09	-2.078007e+01	-6.991072e+01
1.180000e-06	-2.949060e-06	-1.005532e-09	-2.050602e+01	-6.969757e+01
1.190000e-06	-2.909472e-06	-1.004519e-09	-2.023075e+01	-6.947944e+01
1.200000e-06	-2.869749e-06	-1.001069e-09	-1.995454e+01	-6.925565e+01
1.210000e-06	-2.829954e-06	-9.949427e-10	-1.967782e+01	-6.902557e+01
1.220000e-06	-2.790115e-06	-9.903550e-10	-1.940081e+01	-6.878863e+01
1.230000e-06	-2.750097e-06	-9.887701e-10	-1.912255e+01	-6.854432e+01
1.240000e-06	-2.709853e-06	-9.875552e-10	-1.884271e+01	-6.829220e+01
1.250000e-06	-2.669395e-06	-9.867935e-10	-1.856139e+01	-6.803188e+01
1.260000e-06	-2.628705e-06	-9.840424e-10	-1.827846e+01	-6.776307e+01
1.270000e-06	-2.587806e-06	-9.774332e-10	-1.799407e+01	-6.748553e+01
1.280000e-06	-2.546564e-06	-9.677421e-10	-1.770730e+01	-6.719908e+01
1.290000e-06	-2.504980e-06	-9.598643e-10	-1.741815e+01	-6.690362e+01
1.300000e-06	-2.463227e-06	-9.531705e-10	-1.712783e+01	-6.659911e+01
1.310000e-06	-2.421163e-06	-9.493328e-10	-1.683533e+01	-6.628553e+01
1.320000e-06	-2.378688e-06	-9.465640e-10	-1.653999e+01	-6.596295e+01
1.330000e-06	-2.336019e-06	-9.416977e-10	-1.624330e+01	-6.563144e+01
1.340000e-06	-2.293206e-06	-9.334251e-10	-1.594560e+01	-6.529112e+01
1.350000e-06	-2.250132e-06	-9.286835e-10	-1.564609e+01	-6.494212e+01
1.360000e-06	-2.206795e-06	-9.244037e-10	-1.534475e+01	-6.458456e+01
1.370000e-06	-2.163342e-06	-9.187619e-10	-1.504260e+01	-6.421859e+01
1.380000e-06	-2.119845e-06	-9.128886e-10	-1.474015e+01	-6.384434e+01
1.390000e-06	-2.076227e-06	-9.053899e-10	-1.443686e+01	-6.346189e+01
1.400000e-06	-2.032459e-06	-8.946351e-10	-1.413252e+01	-6.307133e+01
1.410000e-06	-1.988629e-06	-8.859508e-10	-1.382775e+01	-6.267269e+01
1.420000e-06	-1.944734e-06	-8.793294e-10	-1.352253e+01	-6.226596e+01
1.430000e-06	-1.900750e-06	-8.710359e-10	-1.321670e+01	-6.185109e+01
1.440000e-06	-1.856735e-06	-8.615724e-10	-1.291064e+01	-6.142797e+01
1.450000e-06	-1.812612e-06	-8.530738e-10	-1.260383e+01	-6.099640e+01
1.460000e-06	-1.768312e-06	-8.441906e-10	-1.229580e+01	-6.055617e+01
1.470000e-06	-1.723903e-06	-8.331520e-10	-1.198701e+01	-6.010696e+01
1.480000e-06	-1.679408e-06	-8.233489e-10	-1.167761e+01	-5.964842e+01
1.490000e-06	-1.634726e-06	-8.119612e-10	-1.136692e+01	-5.918010e+01
1.500000e-06	-1.589890e-06	-8.003460e-10	-1.105516e+01	-5.870153e+01
1.510000e-06	-1.544956e-06	-7.908745e-10	-1.074271e+01	-5.821213e+01
1.520000e-06	-1.499897e-06	-7.824322e-10	-1.042940e+01	-5.771131e+01
1.530000e-06	-1.454739e-06	-7.735636e-10	-1.011540e+01	-5.719840e+01
1.540000e-06	-1.409476e-06	-7.659731e-10	-9.800663e+00	-5.667269e+01
1.550000e-06	-1.364057e-06	-7.568524e-10	-9.484847e+00	-5.613343e+01
1.560000e-06	-1.318494e-06	-7.477686e-10	-9.168028e+00	-5.557983e+01
1.570000e-06	-1.272846e-06	-7.406295e-10	-8.850620e+00	-5.501108e+01
1.580000e-06	-1.227167e-06	-7.336946e-10	-8.532993e+00	-5.442632e+01
1.590000e-06	-1.181410e-06	-7.228232e-10	-8.214827e+00	-5.382469e+01
1.600000e-06	-1.135548e-06	-7.101501e-10	-7.895928e+00	-5.320533e+01
1.610000e-06	-1.089676e-06	-6.984402e-10	-7.576963e+00	-5.256735e+01
1.620000e-06	-1.043756e-06	-6.880708e-10	-7.257664e+00	-5.190987e+01
1.630000e-06	-9.977032e-07	-6.806210e-10	-6.937438e+00	-5.123200e+01
1.640000e-06	-9.515495e-07	-6.771943e-10	-6.616513e+00	-5.053288e+01
1.650000e-06	-9.053782e-07	-6.697344e-10	-6.295465e+00	-4.981163e+01
1.660000e-06	-8.591657e-07	-6.571540e-10	-5.974131e+00	-4.906741e+01
1.670000e-06	-8.127985e-07	-6.434699e-10	-5.651720e+00	-4.829939e+01
1.680000e-06	-7.663353e-07	-6.287185e-10	-5.328643e+00	-4.750676e+01
1.690000e-06	-7.199390e-07	-6.121129e-10	-5.006030e+00	-4.668872e+01
1.700000e-06	-6.735624e-07	-5.960293e-10	-4.683555e+00	-4.584451e+01
1.710000e-06	-6.271464e-07	-5.845395e-10	-4.360806e+00	-4.497338e+01
1.720000e-06	-5.806952e-07	-5.763768e-10	-4.037812e+00	-4.407463e+01
1.730000e-06	-5.341663e-07	-5.650964e-10	-3.714277e+00	-4.314755e+01
1.740000e-06	-4.875938e-07	-5.486082e-10	-3.390439e+00	-4.219149e+01
1.750000e-06	-4.409721e-07	-5.283087e-10	-3.066259e+00	-4.120581e+01
1.760000e-06	-3.943045e-07	-5.063069e-10	-2.741761e+00	-4.018990e+01
1.770000e-06	-3.475983e-07	-4.858016e-10	-2.416993e+00	-3.914321e+01
1.780000e-06	-3.008627e-07	-4.687964e-10	-2.092021e+00	-3.806518e+01
1.790000e-06	-2.541036e-07	-4.561323e-10	-1.766886e+00	-3.695533e+01
1.800000e-06	-2.072720e-07	-4.452358e-10	-1.441247e+00	-3.581319e+01
1.810000e-06	-1.604079e-07	-4.320690e-10	-1.115382e+00	-3.463834e+01
1.820000e-06	-1.135726e-07	-4.160053e-10	-7.897168e-01	-3.343043e+01
1.830000e-06	-6.672411e-08	-3.996873e-10	-4.639600e-01	-3.218912e+01
1.840000e-06	-1.992320e-08	-3.806226e-10	-1.385342e-01	-3.091418e+01
1.850000e-06	2.682525e-08	-3.594480e-10	1.865269e-01	-2.960540e+01
1.860000e-06	7.357734e-08	-3.395790e-10	5.116134e-01	-2.826266e+01
1.870000e-06	1.203283e-07	-3.219246e-10	8.366916e-01	-2.688592e+01
1.880000e-06	1.670339e-07	-3.041472e-10	1.161455e+00	-2.547523e+01
1.890000e-06	2.137222e-07	-2.862571e-10	1.486098e+00	-2.403070e+01
1.900000e-06	2.604639e-07	-2.669283e-10	1.811112e+00	-2.255258e+01
1.910000e-06	3.072120e-07	-2.433848e-10	2.136171e+00	-2.104120e+01
1.920000e-06	3.539940e-07	-2.166746e-10	2.461465e+00	-1.949702e+01
1.930000e-06	4.007438e-07	-1.910966e-10	2.786535e+00	-1.792060e+01
1.940000e-06	4.474724e-07	-1.685601e-10	3.111458e+00	-1.631264e+01
1.950000e-06	4.941682e-07	-1.484211e-10	3.436154e+00	-1.467398e+01
1.960000e-06	5.407449e-07	-1.287985e-10	3.760020e+00	-1.300558e+01
1.970000e-06	5.872934e-07	-1.087228e-10	4.083692e+00	-1.130855e+01
1.980000e-06	6.337473e-07	-8.726106e-11	4.406704e+00	-9.584129e+00
1.990000e-06	6.800287e-07	-6.366611e-11	4.728518e+00	-7.833711e+00
2.000000e-06	7.263568e-07	-3.645133e-11	5.050656e+00	-6.058827e+00
2.010000e-06	7.727329e-07	-7.306424e-12	5.373128e+00	-4.261151e+00
2.020000e-06	8.189488e-07	2.159624e-11	5.694486e+00	-2.442492e+00
2.030000e-06	8.651528e-07	4.829923e-11	6.015762e+00	-6.047905e-01
2.040000e-06	9.112951e-07	7.143724e-11	6.336608e+00	1.249886e+00
2.050000e-06	9.573301e-07	9.267815e-11	6.656708e+00	3.119353e+00
2.060000e-06	1.003299e-06	1.151111e-10	6.976345e+00	5.001320e+00
2.070000e-06	1.049200e-06	1.413265e-10	7.295519e+00	6.893399e+00
2.080000e-06	1.095077e-06	1.705919e-10	7.614521e+00	8.793118e+00
2.090000e-06	1.140877e-06	2.028057e-10	7.932986e+00	1.069793e+01
2.100000e-06	1.186649e-06	2.358157e-10	8.251257e+00	1.260525e+01
2.110000e-06	1.232290e-06	2.663733e-10	8.568620e+00	1.451243e+01
2.120000e-06	1.277832e-06	2.924513e-10	8.885290e+00	1.641681e+01
2.130000e-06	1.323306e-06	3.148907e-10	9.201491e+00	1.831572e+01
2.140000e-06	1.368651e-06	3.349598e-10	9.516790e+00	2.020651e+01
2.150000e-06	1.413987e-06	3.552149e-10	9.832030e+00	2.208655e+01
2.160000e-06	1.459315e-06	3.787960e-10	1.014722e+01	2.395325e+01
2.170000e-06	1.504474e-06	4.069250e-10	1.046122e+01	2.580410e+01
2.180000e-06	1.549465e-06	4.366548e-10	1.077407e+01	2.763664e+01
2.190000e-06	1.594320e-06	4.653514e-10	1.108596e+01	2.944854e+01
2.200000e-06	1.639044e-06	4.929047e-10	1.139695e+01	3.123756e+01
2.210000e-06	1.683639e-06	5.176433e-10	1.170703e+01	3.300157e+01
2.220000e-06	1.728009e-06	5.397173e-10	1.201555e+01	3.473860e+01
2.230000e-06	1.772217e-06	5.611541e-10	1.232295e+01	3.644681e+01
2.240000e-06	1.816401e-06	5.823738e-10	1.263018e+01	3.812451e+01
2.250000e-06	1.860503e-06	6.029183e-10	1.293684e+01	3.977019e+01
2.260000e-06	1.904486e-06	6.224451e-10	1.324267e+01	4.138250e+01
2.270000e-06	1.948386e-06	6.424733e-10	1.354793e+01	4.296024e+01
2.280000e-06	1.992213e-06	6.635599e-10	1.385267e+01	4.450241e+01
2.290000e-06	2.036020e-06	6.835918e-10	1.415728e+01	4.600818e+01
2.300000e-06	2.079789e-06	7.020748e-10	1.446162e+01	4.747687e+01
2.310000e-06	2.123443e-06	7.183819e-10	1.476517e+01	4.890800e+01
2.320000e-06	2.166976e-06	7.334712e-10	1.506787e+01	5.030123e+01
2.330000e-06	2.210397e-06	7.497991e-10	1.536979e+01	5.165639e+01
2.340000e-06	2.253706e-06	7.671304e-10	1.567094e+01	5.297344e+01
2.350000e-06	2.296877e-06	7.848704e-10	1.597113e+01	5.425250e+01
2.360000e-06	2.339829e-06	8.024689e-10	1.626979e+01	5.549380e+01
2.370000e-06	2.382514e-06	8.187020e-10	1.656659e+01	5.669772e+01
2.380000e-06	2.424958e-06	8.326626e-10	1.686172e+01	5.786471e+01
2.390000e-06	2.467082e-06	8.461924e-10	1.715463e+01	5.899533e+01
2.400000e-06	2.508839e-06	8.609934e-10	1.744498e+01	6.009022e+01
2.410000e-06	2.550306e-06	8.767308e-10	1.773332e+01	6.115009e+01
2.420000e-06	2.591522e-06	8.909248e-10	1.801991e+01	6.217570e+01
2.430000e-06	2.632428e-06	9.026265e-10	1.830435e+01	6.316786e+01
2.440000e-06	2.673052e-06	9.121433e-10	1.858682e+01	6.412740e+01
2.450000e-06	2.713431e-06	9.200343e-10	1.886760e+01	6.505518e+01
2.460000e-06	2.753535e-06	9.303686e-10	1.914646e+01	6.595207e+01
2.470000e-06	2.793469e-06	9.430508e-10	1.942413e+01	6.681892e+01
2.480000e-06	2.833295e-06	9.544246e-10	1.970106e+01	6.765660e+01
2.490000e-06	2.873021e-06	9.650839e-10	1.997729e+01	6.846593e+01
2.500000e-06	2.912648e-06	9.766290e-10	2.025283e+01	6.924772e+01
2.510000e-06	2.952136e-06	9.880551e-10	2.052741e+01	7.000276e+01
2.520000e-06	2.991462e-06	9.987290e-10	2.080086e+01	7.073179e+01
2.530000e-06	3.030592e-06	1.007885e-09	2.107295e+01	7.143551e+01
2.540000e-06	3.069484e-06	1.016300e-09	2.134338e+01	7.211461e+01
2.550000e-06	3.108099e-06	1.024589e-09	2.161188e+01	7.276970e+01
2.560000e-06	3.146523e-06	1.033245e-09	2.187906e+01	7.340139e+01
2.570000e-06	3.184771e-06	1.043121e-09	2.214502e+01	7.401022e+01
2.580000e-06	3.222756e-06	1.052459e-09	2.240914e+01	7.459673e+01
2.590000e-06	3.260511e-06	1.060182e-09	2.267166e+01	7.516139e+01
2.600000e-06	3.298048e-06	1.066749e-09	2.293268e+01	7.570467e+01
2.610000e-06	3.335381e-06	1.073023e-09	2.319227e+01	7.622701e+01
2.620000e-06	3.372561e-06	1.079332e-09	2.345080e+01	7.672884e+01
2.630000e-06	3.409565e-06	1.085730e-09	2.370810e+01	7.721056e+01
2.640000e-06	3.446241e-06	1.092549e-09	2.396312e+01	7.767259e+01
2.650000e-06	3.482546e-06	1.098750e-09	2.421557e+01	7.811534e+01
2.660000e-06	3.518638e-06	1.102843e-09	2.446653e+01	7.853921e+01
2.670000e-06	3.554591e-06	1.108278e-09	2.471653e+01	7.894463e+01
2.680000e-06	3.590454e-06	1.114551e-09	2.496589e+01	7.933205e+01
2.690000e-06	3.626255e-06	1.121339e-09	2.521484e+01	7.970191e+01
2.700000e-06	3.661867e-06	1.128248e-09	2.546246e+01	8.005471e+01
2.710000e-06	3.697203e-06	1.133104e-09	2.570816e+01	8.039096e+01
2.720000e-06	3.732301e-06	1.138341e-09	2.595222e+01	8.071119e+01
2.730000e-06	3.767084e-06	1.143205e-09	2.619407e+01	8.101598e+01
2.740000e-06	3.801444e-06	1.148444e-09	2.643299e+01	8.130593e+01
2.750000e-06	3.835388e-06	1.152031e-09	2.666902e+01	8.158167e+01
2.760000e-06	3.868791e-06	1.154949e-09	2.690129e+01	8.184386e+01
2.770000e-06	3.901683e-06	1.157229e-09	2.713000e+01	8.209320e+01
2.780000e-06	3.934265e-06	1.160339e-09	2.735655e+01	8.233038e+01
2.790000e-06	3.966576e-06	1.166029e-09	2.758122e+01	8.255615e+01
2.800000e-06	3.998631e-06	1.173821e-09	2.780412e+01	8.277124e+01
2.810000e-06	4.030530e-06	1.180128e-09	2.802592e+01	8.297642e+01
2.820000e-06	4.062290e-06	1.184781e-09	2.824677e+01	8.317244e+01
2.830000e-06	4.093842e-06	1.188110e-09	2.846616e+01	8.336004e+01
2.840000e-06	4.125128e-06	1.188966e-09	2.868371e+01	8.353999e+01
2.850000e-06	4.156111e-06	1.188468e-09	2.889914e+01	8.371299e+01
2.860000e-06	4.186785e-06	1.188001e-09	2.911243e+01	8.387975e+01
2.870000e-06	4.217158e-06	1.190693e-09	2.932362e+01	8.404093e+01
2.880000e-06	4.247253e-06	1.195778e-09	2.953289e+01	8.419716e+01
2.890000e-06	4.277043e-06	1.200971e-09	2.974003e+01	8.434903e+01
2.900000e-06	4.306587e-06	1.203828e-09	2.994546e+01	8.449705e+01
