# Temperatura_=_12.9
# Concentracion g/m^3_=_1620.0
# C_Vs_to_Am_M_A/Vsm_=_65563218390.804596
# pendiente_HvsI_1/m_=_3716.3
# ordenada_HvsI_A/m_=_1297.0
# frecuencia_Hz_=_135095.73683942514

Tiempo_(s)	Campo_(V.s)	Magnetizacion_(V.s)	Campo_(kA/m)	Magnetizacion_(A/m)
0.000000e+00	-5.528156e-06	-1.681229e-09	-3.837780e+01	-1.095213e+02
1.000000e-08	-5.528280e-06	-1.677064e-09	-3.837866e+01	-1.094614e+02
2.000000e-08	-5.528167e-06	-1.676753e-09	-3.837787e+01	-1.093945e+02
3.000000e-08	-5.527710e-06	-1.678438e-09	-3.837470e+01	-1.093208e+02
4.000000e-08	-5.526678e-06	-1.680554e-09	-3.836754e+01	-1.092403e+02
5.000000e-08	-5.525126e-06	-1.678488e-09	-3.835676e+01	-1.091534e+02
6.000000e-08	-5.522978e-06	-1.664990e-09	-3.834185e+01	-1.090603e+02
7.000000e-08	-5.520208e-06	-1.659056e-09	-3.832262e+01	-1.089614e+02
8.000000e-08	-5.516943e-06	-1.693060e-09	-3.829995e+01	-1.088571e+02
9.000000e-08	-5.513206e-06	-1.747259e-09	-3.827401e+01	-1.087478e+02
1.000000e-07	-5.509117e-06	-1.728696e-09	-3.824562e+01	-1.086341e+02
1.100000e-07	-5.504800e-06	-1.664609e-09	-3.821566e+01	-1.085163e+02
1.200000e-07	-5.500322e-06	-1.595052e-09	-3.818457e+01	-1.083951e+02
1.300000e-07	-5.495546e-06	-1.643908e-09	-3.815142e+01	-1.082710e+02
1.400000e-07	-5.490292e-06	-1.703036e-09	-3.811493e+01	-1.081445e+02
1.500000e-07	-5.484609e-06	-1.695236e-09	-3.807549e+01	-1.080160e+02
1.600000e-07	-5.478565e-06	-1.635658e-09	-3.803353e+01	-1.078861e+02
1.700000e-07	-5.472099e-06	-1.639970e-09	-3.798864e+01	-1.077551e+02
1.800000e-07	-5.465141e-06	-1.690805e-09	-3.794034e+01	-1.076236e+02
1.900000e-07	-5.457826e-06	-1.669829e-09	-3.788955e+01	-1.074917e+02
2.000000e-07	-5.450264e-06	-1.615697e-09	-3.783706e+01	-1.073597e+02
2.100000e-07	-5.442370e-06	-1.611454e-09	-3.778225e+01	-1.072279e+02
2.200000e-07	-5.434240e-06	-1.658582e-09	-3.772581e+01	-1.070964e+02
2.300000e-07	-5.425919e-06	-1.648961e-09	-3.766804e+01	-1.069652e+02
2.400000e-07	-5.417152e-06	-1.607816e-09	-3.760718e+01	-1.068344e+02
2.500000e-07	-5.407683e-06	-1.576304e-09	-3.754145e+01	-1.067037e+02
2.600000e-07	-5.397476e-06	-1.601974e-09	-3.747059e+01	-1.065731e+02
2.700000e-07	-5.386567e-06	-1.619989e-09	-3.739485e+01	-1.064424e+02
2.800000e-07	-5.375154e-06	-1.608307e-09	-3.731562e+01	-1.063111e+02
2.900000e-07	-5.363484e-06	-1.580395e-09	-3.723460e+01	-1.061791e+02
3.000000e-07	-5.351497e-06	-1.601245e-09	-3.715139e+01	-1.060460e+02
3.100000e-07	-5.339166e-06	-1.608893e-09	-3.706579e+01	-1.059112e+02
3.200000e-07	-5.326419e-06	-1.589855e-09	-3.697729e+01	-1.057744e+02
3.300000e-07	-5.313147e-06	-1.562488e-09	-3.688516e+01	-1.056352e+02
3.400000e-07	-5.299519e-06	-1.589590e-09	-3.679055e+01	-1.054930e+02
3.500000e-07	-5.285498e-06	-1.606865e-09	-3.669321e+01	-1.053475e+02
3.600000e-07	-5.271035e-06	-1.601291e-09	-3.659281e+01	-1.051981e+02
3.700000e-07	-5.256134e-06	-1.586927e-09	-3.648935e+01	-1.050446e+02
3.800000e-07	-5.240664e-06	-1.585189e-09	-3.638196e+01	-1.048865e+02
3.900000e-07	-5.224680e-06	-1.574383e-09	-3.627099e+01	-1.047235e+02
4.000000e-07	-5.208194e-06	-1.564434e-09	-3.615655e+01	-1.045554e+02
4.100000e-07	-5.191300e-06	-1.580485e-09	-3.603926e+01	-1.043820e+02
4.200000e-07	-5.174103e-06	-1.577677e-09	-3.591988e+01	-1.042032e+02
4.300000e-07	-5.156611e-06	-1.557758e-09	-3.579844e+01	-1.040188e+02
4.400000e-07	-5.138881e-06	-1.564390e-09	-3.567536e+01	-1.038290e+02
4.500000e-07	-5.120758e-06	-1.585222e-09	-3.554955e+01	-1.036338e+02
4.600000e-07	-5.102131e-06	-1.560042e-09	-3.542023e+01	-1.034333e+02
4.700000e-07	-5.083032e-06	-1.540610e-09	-3.528764e+01	-1.032278e+02
4.800000e-07	-5.063610e-06	-1.559818e-09	-3.515281e+01	-1.030176e+02
4.900000e-07	-5.043967e-06	-1.561858e-09	-3.501644e+01	-1.028030e+02
5.000000e-07	-5.024171e-06	-1.530932e-09	-3.487901e+01	-1.025844e+02
5.100000e-07	-5.004155e-06	-1.541334e-09	-3.474006e+01	-1.023622e+02
5.200000e-07	-4.983868e-06	-1.554146e-09	-3.459922e+01	-1.021369e+02
5.300000e-07	-4.963246e-06	-1.534798e-09	-3.445606e+01	-1.019089e+02
5.400000e-07	-4.942242e-06	-1.529622e-09	-3.431024e+01	-1.016787e+02
5.500000e-07	-4.920995e-06	-1.554453e-09	-3.416274e+01	-1.014469e+02
5.600000e-07	-4.899375e-06	-1.534939e-09	-3.401265e+01	-1.012138e+02
5.700000e-07	-4.877290e-06	-1.510789e-09	-3.385933e+01	-1.009798e+02
5.800000e-07	-4.854880e-06	-1.523200e-09	-3.370376e+01	-1.007455e+02
5.900000e-07	-4.832146e-06	-1.524783e-09	-3.354593e+01	-1.005111e+02
6.000000e-07	-4.809024e-06	-1.498039e-09	-3.338541e+01	-1.002769e+02
6.100000e-07	-4.785641e-06	-1.504993e-09	-3.322308e+01	-1.000431e+02
6.200000e-07	-4.762076e-06	-1.514125e-09	-3.305948e+01	-9.980998e+01
6.300000e-07	-4.738285e-06	-1.496502e-09	-3.289433e+01	-9.957752e+01
6.400000e-07	-4.714212e-06	-1.491976e-09	-3.272720e+01	-9.934576e+01
6.500000e-07	-4.689841e-06	-1.501039e-09	-3.255801e+01	-9.911462e+01
6.600000e-07	-4.665026e-06	-1.487045e-09	-3.238574e+01	-9.888395e+01
6.700000e-07	-4.639709e-06	-1.480708e-09	-3.220999e+01	-9.865354e+01
6.800000e-07	-4.613837e-06	-1.488020e-09	-3.203037e+01	-9.842307e+01
6.900000e-07	-4.587262e-06	-1.478022e-09	-3.184588e+01	-9.819219e+01
7.000000e-07	-4.560182e-06	-1.465388e-09	-3.165789e+01	-9.796047e+01
7.100000e-07	-4.532786e-06	-1.470648e-09	-3.146770e+01	-9.772744e+01
7.200000e-07	-4.505200e-06	-1.467839e-09	-3.127619e+01	-9.749257e+01
7.300000e-07	-4.477493e-06	-1.454488e-09	-3.108384e+01	-9.725530e+01
7.400000e-07	-4.449561e-06	-1.454971e-09	-3.088993e+01	-9.701508e+01
7.500000e-07	-4.421391e-06	-1.453071e-09	-3.069437e+01	-9.677130e+01
7.600000e-07	-4.392965e-06	-1.443609e-09	-3.049703e+01	-9.652339e+01
7.700000e-07	-4.364169e-06	-1.440388e-09	-3.029712e+01	-9.627077e+01
7.800000e-07	-4.335029e-06	-1.439030e-09	-3.009482e+01	-9.601291e+01
7.900000e-07	-4.305663e-06	-1.425981e-09	-2.989096e+01	-9.574927e+01
8.000000e-07	-4.276022e-06	-1.420442e-09	-2.968518e+01	-9.547940e+01
8.100000e-07	-4.246078e-06	-1.416656e-09	-2.947730e+01	-9.520288e+01
8.200000e-07	-4.215809e-06	-1.403947e-09	-2.926717e+01	-9.491935e+01
8.300000e-07	-4.185200e-06	-1.391951e-09	-2.905467e+01	-9.462852e+01
8.400000e-07	-4.154336e-06	-1.394238e-09	-2.884041e+01	-9.433017e+01
8.500000e-07	-4.123250e-06	-1.390816e-09	-2.862460e+01	-9.402417e+01
8.600000e-07	-4.091899e-06	-1.382533e-09	-2.840696e+01	-9.371045e+01
8.700000e-07	-4.060397e-06	-1.377398e-09	-2.818826e+01	-9.338901e+01
8.800000e-07	-4.028753e-06	-1.373131e-09	-2.796858e+01	-9.305994e+01
8.900000e-07	-3.996896e-06	-1.361750e-09	-2.774742e+01	-9.272339e+01
9.000000e-07	-3.964776e-06	-1.356354e-09	-2.752444e+01	-9.237960e+01
9.100000e-07	-3.932281e-06	-1.354606e-09	-2.729885e+01	-9.202884e+01
9.200000e-07	-3.899478e-06	-1.348477e-09	-2.707112e+01	-9.167145e+01
9.300000e-07	-3.866295e-06	-1.342958e-09	-2.684076e+01	-9.130781e+01
9.400000e-07	-3.832716e-06	-1.342904e-09	-2.660765e+01	-9.093833e+01
9.500000e-07	-3.798633e-06	-1.335796e-09	-2.637103e+01	-9.056346e+01
9.600000e-07	-3.763982e-06	-1.324882e-09	-2.613047e+01	-9.018365e+01
9.700000e-07	-3.728991e-06	-1.319157e-09	-2.588756e+01	-8.979937e+01
9.800000e-07	-3.693724e-06	-1.311584e-09	-2.564273e+01	-8.941107e+01
9.900000e-07	-3.658228e-06	-1.295973e-09	-2.539630e+01	-8.901919e+01
1.000000e-06	-3.622582e-06	-1.283942e-09	-2.514884e+01	-8.862415e+01
1.010000e-06	-3.586794e-06	-1.279827e-09	-2.490039e+01	-8.822632e+01
1.020000e-06	-3.550829e-06	-1.272990e-09	-2.465071e+01	-8.782605e+01
1.030000e-06	-3.514709e-06	-1.267697e-09	-2.439996e+01	-8.742362e+01
1.040000e-06	-3.478383e-06	-1.265989e-09	-2.414778e+01	-8.701927e+01
1.050000e-06	-3.441776e-06	-1.259739e-09	-2.389364e+01	-8.661317e+01
1.060000e-06	-3.404831e-06	-1.249582e-09	-2.363716e+01	-8.620544e+01
1.070000e-06	-3.367655e-06	-1.243124e-09	-2.337908e+01	-8.579612e+01
1.080000e-06	-3.330351e-06	-1.235407e-09	-2.312010e+01	-8.538522e+01
1.090000e-06	-3.292787e-06	-1.225192e-09	-2.285932e+01	-8.497264e+01
1.100000e-06	-3.255004e-06	-1.217499e-09	-2.259703e+01	-8.455825e+01
1.110000e-06	-3.216998e-06	-1.213237e-09	-2.233318e+01	-8.414186e+01
1.120000e-06	-3.178716e-06	-1.203698e-09	-2.206741e+01	-8.372323e+01
1.130000e-06	-3.140109e-06	-1.195374e-09	-2.179940e+01	-8.330208e+01
1.140000e-06	-3.101309e-06	-1.190717e-09	-2.153004e+01	-8.287807e+01
1.150000e-06	-3.062403e-06	-1.185690e-09	-2.125995e+01	-8.245085e+01
1.160000e-06	-3.023189e-06	-1.175412e-09	-2.098771e+01	-8.202003e+01
1.170000e-06	-2.983751e-06	-1.165334e-09	-2.071392e+01	-8.158523e+01
1.180000e-06	-2.944231e-06	-1.158117e-09	-2.043956e+01	-8.114604e+01
1.190000e-06	-2.904645e-06	-1.153080e-09	-2.016475e+01	-8.070206e+01
1.200000e-06	-2.864884e-06	-1.148717e-09	-1.988872e+01	-8.025289e+01
1.210000e-06	-2.824927e-06	-1.142948e-09	-1.961133e+01	-7.979814e+01
1.220000e-06	-2.784883e-06	-1.134377e-09	-1.933333e+01	-7.933747e+01
1.230000e-06	-2.744735e-06	-1.126541e-09	-1.905461e+01	-7.887054e+01
1.240000e-06	-2.704435e-06	-1.119380e-09	-1.877484e+01	-7.839704e+01
1.250000e-06	-2.663833e-06	-1.111253e-09	-1.849297e+01	-7.791670e+01
1.260000e-06	-2.622938e-06	-1.103429e-09	-1.820907e+01	-7.742929e+01
1.270000e-06	-2.581890e-06	-1.097814e-09	-1.792410e+01	-7.693461e+01
1.280000e-06	-2.540561e-06	-1.090558e-09	-1.763719e+01	-7.643248e+01
1.290000e-06	-2.498803e-06	-1.078158e-09	-1.734730e+01	-7.592279e+01
1.300000e-06	-2.456721e-06	-1.065604e-09	-1.705515e+01	-7.540543e+01
1.310000e-06	-2.414386e-06	-1.055643e-09	-1.676126e+01	-7.488032e+01
1.320000e-06	-2.371810e-06	-1.046563e-09	-1.646568e+01	-7.434743e+01
1.330000e-06	-2.328955e-06	-1.038718e-09	-1.616817e+01	-7.380670e+01
1.340000e-06	-2.285802e-06	-1.032556e-09	-1.586859e+01	-7.325813e+01
1.350000e-06	-2.242446e-06	-1.027021e-09	-1.556760e+01	-7.270168e+01
1.360000e-06	-2.198942e-06	-1.022130e-09	-1.526559e+01	-7.213734e+01
1.370000e-06	-2.155389e-06	-1.014362e-09	-1.496323e+01	-7.156506e+01
1.380000e-06	-2.111774e-06	-1.003170e-09	-1.466045e+01	-7.098480e+01
1.390000e-06	-2.068044e-06	-9.904609e-10	-1.435687e+01	-7.039646e+01
1.400000e-06	-2.024229e-06	-9.784681e-10	-1.405269e+01	-6.979995e+01
1.410000e-06	-1.980311e-06	-9.675049e-10	-1.374780e+01	-6.919509e+01
1.420000e-06	-1.936266e-06	-9.578644e-10	-1.344203e+01	-6.858170e+01
1.430000e-06	-1.892179e-06	-9.495980e-10	-1.313596e+01	-6.795951e+01
1.440000e-06	-1.848031e-06	-9.422794e-10	-1.282948e+01	-6.732823e+01
1.450000e-06	-1.803837e-06	-9.311145e-10	-1.252268e+01	-6.668749e+01
1.460000e-06	-1.759552e-06	-9.159175e-10	-1.221524e+01	-6.603686e+01
1.470000e-06	-1.715064e-06	-9.018873e-10	-1.190639e+01	-6.537585e+01
1.480000e-06	-1.670455e-06	-8.898206e-10	-1.159670e+01	-6.470390e+01
1.490000e-06	-1.625674e-06	-8.755770e-10	-1.128582e+01	-6.402040e+01
1.500000e-06	-1.580658e-06	-8.616851e-10	-1.097331e+01	-6.332468e+01
1.510000e-06	-1.535475e-06	-8.493614e-10	-1.065964e+01	-6.261600e+01
1.520000e-06	-1.490244e-06	-8.381353e-10	-1.034564e+01	-6.189357e+01
1.530000e-06	-1.445023e-06	-8.274151e-10	-1.003170e+01	-6.115655e+01
1.540000e-06	-1.399670e-06	-8.166268e-10	-9.716850e+00	-6.040406e+01
1.550000e-06	-1.354163e-06	-8.041398e-10	-9.400930e+00	-5.963516e+01
1.560000e-06	-1.308594e-06	-7.908098e-10	-9.084579e+00	-5.884891e+01
1.570000e-06	-1.262981e-06	-7.776765e-10	-8.767923e+00	-5.804431e+01
1.580000e-06	-1.217249e-06	-7.623652e-10	-8.450436e+00	-5.722035e+01
1.590000e-06	-1.171305e-06	-7.447918e-10	-8.131481e+00	-5.637602e+01
1.600000e-06	-1.125300e-06	-7.281468e-10	-7.812106e+00	-5.551028e+01
1.610000e-06	-1.079253e-06	-7.153853e-10	-7.492433e+00	-5.462211e+01
1.620000e-06	-1.033134e-06	-7.051619e-10	-7.172270e+00	-5.371047e+01
1.630000e-06	-9.869984e-07	-6.953013e-10	-6.851982e+00	-5.277436e+01
1.640000e-06	-9.408290e-07	-6.835749e-10	-6.531463e+00	-5.181278e+01
1.650000e-06	-8.945886e-07	-6.681900e-10	-6.210451e+00	-5.082475e+01
1.660000e-06	-8.482534e-07	-6.505770e-10	-5.888780e+00	-4.980933e+01
1.670000e-06	-8.018936e-07	-6.315480e-10	-5.566940e+00	-4.876561e+01
1.680000e-06	-7.555108e-07	-6.125886e-10	-5.244939e+00	-4.769270e+01
1.690000e-06	-7.091279e-07	-5.959534e-10	-4.922938e+00	-4.658977e+01
1.700000e-06	-6.627138e-07	-5.786223e-10	-4.600720e+00	-4.545602e+01
1.710000e-06	-6.161909e-07	-5.624872e-10	-4.277747e+00	-4.429070e+01
1.720000e-06	-5.696390e-07	-5.468681e-10	-3.954572e+00	-4.309313e+01
1.730000e-06	-5.229825e-07	-5.284046e-10	-3.630672e+00	-4.186264e+01
1.740000e-06	-4.762479e-07	-5.067832e-10	-3.306229e+00	-4.059866e+01
1.750000e-06	-4.295038e-07	-4.845809e-10	-2.981719e+00	-3.930064e+01
1.760000e-06	-3.825781e-07	-4.619922e-10	-2.655950e+00	-3.796812e+01
1.770000e-06	-3.356625e-07	-4.394028e-10	-2.330251e+00	-3.660070e+01
1.780000e-06	-2.888181e-07	-4.196190e-10	-2.005046e+00	-3.519802e+01
1.790000e-06	-2.419368e-07	-4.010236e-10	-1.679584e+00	-3.375983e+01
1.800000e-06	-1.950648e-07	-3.830833e-10	-1.354187e+00	-3.228592e+01
1.810000e-06	-1.481249e-07	-3.652549e-10	-1.028319e+00	-3.077619e+01
1.820000e-06	-1.011660e-07	-3.445887e-10	-7.023191e-01	-2.923060e+01
1.830000e-06	-5.425711e-08	-3.221890e-10	-3.766660e-01	-2.764920e+01
1.840000e-06	-7.392710e-09	-2.994717e-10	-5.132199e-02	-2.603214e+01
1.850000e-06	3.944613e-08	-2.756414e-10	2.738446e-01	-2.437968e+01
1.860000e-06	8.627733e-08	-2.519538e-10	5.989581e-01	-2.269216e+01
1.870000e-06	1.331419e-07	-2.284605e-10	9.243033e-01	-2.097003e+01
1.880000e-06	1.800711e-07	-2.054386e-10	1.250097e+00	-1.921388e+01
1.890000e-06	2.269720e-07	-1.820172e-10	1.575695e+00	-1.742440e+01
1.900000e-06	2.738158e-07	-1.559851e-10	1.900896e+00	-1.560240e+01
1.910000e-06	3.206294e-07	-1.287254e-10	2.225887e+00	-1.374883e+01
1.920000e-06	3.673880e-07	-1.005634e-10	2.550497e+00	-1.186477e+01
1.930000e-06	4.141285e-07	-7.226392e-11	2.874980e+00	-9.951429e+00
1.940000e-06	4.607682e-07	-4.389608e-11	3.198764e+00	-8.010164e+00
1.950000e-06	5.073745e-07	-1.610046e-11	3.522317e+00	-6.042464e+00
1.960000e-06	5.539307e-07	8.484910e-12	3.845521e+00	-4.049956e+00
1.970000e-06	6.004667e-07	3.166326e-11	4.168585e+00	-2.034405e+00
1.980000e-06	6.470249e-07	5.574599e-11	4.491804e+00	2.289879e-03
1.990000e-06	6.935170e-07	8.391492e-11	4.814563e+00	2.058099e+00
2.000000e-06	7.399252e-07	1.160509e-10	5.136740e+00	4.130870e+00
2.010000e-06	7.861960e-07	1.494996e-10	5.457963e+00	6.218334e+00
2.020000e-06	8.323608e-07	1.818216e-10	5.778450e+00	8.318114e+00
2.030000e-06	8.784781e-07	2.114986e-10	6.098608e+00	1.042774e+01
2.040000e-06	9.247585e-07	2.384480e-10	6.419898e+00	1.254464e+01
2.050000e-06	9.710331e-07	2.647176e-10	6.741147e+00	1.466620e+01
2.060000e-06	1.017109e-06	2.933227e-10	7.061019e+00	1.678972e+01
2.070000e-06	1.063095e-06	3.235821e-10	7.380265e+00	1.891247e+01
2.080000e-06	1.109017e-06	3.534097e-10	7.699068e+00	2.103170e+01
2.090000e-06	1.154861e-06	3.833883e-10	8.017327e+00	2.314464e+01
2.100000e-06	1.200680e-06	4.140331e-10	8.335413e+00	2.524855e+01
2.110000e-06	1.246410e-06	4.456156e-10	8.652879e+00	2.734068e+01
2.120000e-06	1.291959e-06	4.762345e-10	8.969092e+00	2.941837e+01
2.130000e-06	1.337440e-06	5.039929e-10	9.284833e+00	3.147898e+01
2.140000e-06	1.382898e-06	5.283445e-10	9.600415e+00	3.352000e+01
2.150000e-06	1.428267e-06	5.518793e-10	9.915379e+00	3.553898e+01
2.160000e-06	1.473493e-06	5.779149e-10	1.022934e+01	3.753359e+01
2.170000e-06	1.518569e-06	6.049951e-10	1.054227e+01	3.950164e+01
2.180000e-06	1.563501e-06	6.339637e-10	1.085420e+01	4.144107e+01
2.190000e-06	1.608325e-06	6.645789e-10	1.116538e+01	4.335000e+01
2.200000e-06	1.653078e-06	6.934836e-10	1.147607e+01	4.522667e+01
2.210000e-06	1.697700e-06	7.194651e-10	1.178584e+01	4.706952e+01
2.220000e-06	1.742176e-06	7.444856e-10	1.209461e+01	4.887718e+01
2.230000e-06	1.786547e-06	7.681673e-10	1.240264e+01	5.064843e+01
2.240000e-06	1.830720e-06	7.883014e-10	1.270930e+01	5.238226e+01
2.250000e-06	1.874762e-06	8.070260e-10	1.301505e+01	5.407784e+01
2.260000e-06	1.918766e-06	8.274233e-10	1.332054e+01	5.573452e+01
2.270000e-06	1.962664e-06	8.485688e-10	1.362529e+01	5.735184e+01
2.280000e-06	2.006524e-06	8.709421e-10	1.392978e+01	5.892950e+01
2.290000e-06	2.050364e-06	8.940995e-10	1.423413e+01	6.046737e+01
2.300000e-06	2.094119e-06	9.166359e-10	1.453788e+01	6.196549e+01
2.310000e-06	2.137821e-06	9.376181e-10	1.484127e+01	6.342404e+01
2.320000e-06	2.181500e-06	9.558271e-10	1.514450e+01	6.484333e+01
2.330000e-06	2.225079e-06	9.730711e-10	1.544704e+01	6.622382e+01
2.340000e-06	2.268461e-06	9.925396e-10	1.574820e+01	6.756604e+01
2.350000e-06	2.311551e-06	1.012892e-09	1.604735e+01	6.887065e+01
2.360000e-06	2.354426e-06	1.031687e-09	1.634499e+01	7.013839e+01
2.370000e-06	2.397030e-06	1.049538e-09	1.664076e+01	7.137005e+01
2.380000e-06	2.439255e-06	1.065256e-09	1.693390e+01	7.256649e+01
2.390000e-06	2.481240e-06	1.079531e-09	1.722537e+01	7.372860e+01
2.400000e-06	2.523039e-06	1.093102e-09	1.751555e+01	7.485732e+01
2.410000e-06	2.564558e-06	1.106043e-09	1.780378e+01	7.595357e+01
2.420000e-06	2.605806e-06	1.118712e-09	1.809014e+01	7.701831e+01
2.430000e-06	2.646726e-06	1.131118e-09	1.837422e+01	7.805248e+01
2.440000e-06	2.687230e-06	1.143597e-09	1.865540e+01	7.905699e+01
2.450000e-06	2.727529e-06	1.155416e-09	1.893517e+01	8.003274e+01
2.460000e-06	2.767731e-06	1.167949e-09	1.921426e+01	8.098061e+01
2.470000e-06	2.807799e-06	1.181497e-09	1.949242e+01	8.190142e+01
2.480000e-06	2.847727e-06	1.193188e-09	1.976961e+01	8.279597e+01
2.490000e-06	2.887548e-06	1.204000e-09	2.004606e+01	8.366501e+01
2.500000e-06	2.927225e-06	1.214624e-09	2.032150e+01	8.450926e+01
2.510000e-06	2.966748e-06	1.224635e-09	2.059589e+01	8.532936e+01
2.520000e-06	3.006065e-06	1.234081e-09	2.086883e+01	8.612595e+01
2.530000e-06	3.045186e-06	1.243674e-09	2.114042e+01	8.689961e+01
2.540000e-06	3.084130e-06	1.254831e-09	2.141078e+01	8.765088e+01
2.550000e-06	3.122778e-06	1.266371e-09	2.167908e+01	8.838026e+01
2.560000e-06	3.161154e-06	1.276649e-09	2.194550e+01	8.908823e+01
2.570000e-06	3.199349e-06	1.285089e-09	2.221066e+01	8.977525e+01
2.580000e-06	3.237395e-06	1.292711e-09	2.247478e+01	9.044174e+01
2.590000e-06	3.275274e-06	1.301513e-09	2.273774e+01	9.108812e+01
2.600000e-06	3.312959e-06	1.310448e-09	2.299936e+01	9.171479e+01
2.610000e-06	3.350411e-06	1.319638e-09	2.325937e+01	9.232215e+01
2.620000e-06	3.387638e-06	1.329428e-09	2.351781e+01	9.291060e+01
2.630000e-06	3.424577e-06	1.339380e-09	2.377425e+01	9.348053e+01
2.640000e-06	3.461160e-06	1.349235e-09	2.402821e+01	9.403235e+01
2.650000e-06	3.497425e-06	1.357252e-09	2.427997e+01	9.456648e+01
2.660000e-06	3.533492e-06	1.363951e-09	2.453036e+01	9.508334e+01
2.670000e-06	3.569502e-06	1.369324e-09	2.478035e+01	9.558338e+01
2.680000e-06	3.605383e-06	1.374745e-09	2.502945e+01	9.606705e+01
2.690000e-06	3.641093e-06	1.382333e-09	2.527735e+01	9.653484e+01
2.700000e-06	3.676767e-06	1.390854e-09	2.552501e+01	9.698724e+01
2.710000e-06	3.712284e-06	1.400730e-09	2.577157e+01	9.742477e+01
2.720000e-06	3.747509e-06	1.409249e-09	2.601612e+01	9.784794e+01
2.730000e-06	3.782404e-06	1.416122e-09	2.625837e+01	9.825730e+01
2.740000e-06	3.816904e-06	1.421861e-09	2.649787e+01	9.865340e+01
2.750000e-06	3.850877e-06	1.426965e-09	2.673372e+01	9.903682e+01
2.760000e-06	3.884306e-06	1.430619e-09	2.696580e+01	9.940811e+01
2.770000e-06	3.917323e-06	1.434291e-09	2.719500e+01	9.976786e+01
2.780000e-06	3.949894e-06	1.439357e-09	2.742112e+01	1.001166e+02
2.790000e-06	3.982118e-06	1.445796e-09	2.764483e+01	1.004550e+02
2.800000e-06	4.014151e-06	1.454605e-09	2.786721e+01	1.007835e+02
2.810000e-06	4.045994e-06	1.463598e-09	2.808827e+01	1.011028e+02
2.820000e-06	4.077667e-06	1.471497e-09	2.830815e+01	1.014133e+02
2.830000e-06	4.109220e-06	1.476035e-09	2.852720e+01	1.017155e+02
2.840000e-06	4.140507e-06	1.478816e-09	2.874440e+01	1.020101e+02
2.850000e-06	4.171417e-06	1.479672e-09	2.895899e+01	1.022973e+02
2.860000e-06	4.202073e-06	1.480502e-09	2.917181e+01	1.025778e+02
2.870000e-06	4.232431e-06	1.484567e-09	2.938256e+01	1.028519e+02
2.880000e-06	4.262483e-06	1.489916e-09	2.959119e+01	1.031200e+02
2.890000e-06	4.292295e-06	1.495495e-09	2.979815e+01	1.033824e+02
2.900000e-06	4.321768e-06	1.500232e-09	3.000276e+01	1.036395e+02
