# Temperatura_=_-1.01
# Concentracion g/m^3_=_1620.0
# C_Vs_to_Am_M_A/Vsm_=_65563218390.804596
# pendiente_HvsI_1/m_=_3716.3
# ordenada_HvsI_A/m_=_1297.0
# frecuencia_Hz_=_135100.80981095956

Tiempo_(s)	Campo_(V.s)	Magnetizacion_(V.s)	Campo_(kA/m)	Magnetizacion_(A/m)
0.000000e+00	-5.525561e-06	-1.365578e-09	-3.836514e+01	-8.959832e+01
1.000000e-08	-5.525774e-06	-1.360651e-09	-3.836662e+01	-8.954513e+01
2.000000e-08	-5.525764e-06	-1.356061e-09	-3.836655e+01	-8.949636e+01
3.000000e-08	-5.525483e-06	-1.354414e-09	-3.836459e+01	-8.945265e+01
4.000000e-08	-5.524850e-06	-1.357137e-09	-3.836020e+01	-8.941458e+01
5.000000e-08	-5.523729e-06	-1.356729e-09	-3.835242e+01	-8.938262e+01
6.000000e-08	-5.522041e-06	-1.349201e-09	-3.834070e+01	-8.935715e+01
7.000000e-08	-5.519678e-06	-1.335911e-09	-3.832429e+01	-8.933845e+01
8.000000e-08	-5.516715e-06	-1.334472e-09	-3.830372e+01	-8.932668e+01
9.000000e-08	-5.513347e-06	-1.402454e-09	-3.828033e+01	-8.932188e+01
1.000000e-07	-5.509438e-06	-1.454040e-09	-3.825319e+01	-8.932394e+01
1.100000e-07	-5.505114e-06	-1.373498e-09	-3.822317e+01	-8.933265e+01
1.200000e-07	-5.500645e-06	-1.236688e-09	-3.819214e+01	-8.934765e+01
1.300000e-07	-5.496012e-06	-1.289584e-09	-3.815997e+01	-8.936848e+01
1.400000e-07	-5.491024e-06	-1.405094e-09	-3.812534e+01	-8.939452e+01
1.500000e-07	-5.485571e-06	-1.402518e-09	-3.808748e+01	-8.942506e+01
1.600000e-07	-5.479750e-06	-1.276526e-09	-3.804706e+01	-8.945929e+01
1.700000e-07	-5.473602e-06	-1.314040e-09	-3.800437e+01	-8.949629e+01
1.800000e-07	-5.466930e-06	-1.397323e-09	-3.795805e+01	-8.953507e+01
1.900000e-07	-5.459828e-06	-1.411533e-09	-3.790874e+01	-8.957458e+01
2.000000e-07	-5.452454e-06	-1.303823e-09	-3.785754e+01	-8.961373e+01
2.100000e-07	-5.444827e-06	-1.324241e-09	-3.780458e+01	-8.965138e+01
2.200000e-07	-5.436905e-06	-1.392679e-09	-3.774958e+01	-8.968641e+01
2.300000e-07	-5.428681e-06	-1.427267e-09	-3.769248e+01	-8.971767e+01
2.400000e-07	-5.420167e-06	-1.368432e-09	-3.763337e+01	-8.974408e+01
2.500000e-07	-5.411184e-06	-1.339677e-09	-3.757100e+01	-8.976459e+01
2.600000e-07	-5.401372e-06	-1.377499e-09	-3.750286e+01	-8.977820e+01
2.700000e-07	-5.390963e-06	-1.400180e-09	-3.743059e+01	-8.978401e+01
2.800000e-07	-5.380215e-06	-1.384782e-09	-3.735597e+01	-8.978120e+01
2.900000e-07	-5.368891e-06	-1.353826e-09	-3.727734e+01	-8.976908e+01
3.000000e-07	-5.357124e-06	-1.392403e-09	-3.719564e+01	-8.974705e+01
3.100000e-07	-5.345078e-06	-1.387558e-09	-3.711201e+01	-8.971467e+01
3.200000e-07	-5.332575e-06	-1.373060e-09	-3.702519e+01	-8.967161e+01
3.300000e-07	-5.319515e-06	-1.326393e-09	-3.693452e+01	-8.961770e+01
3.400000e-07	-5.306146e-06	-1.389951e-09	-3.684170e+01	-8.955288e+01
3.500000e-07	-5.292462e-06	-1.386840e-09	-3.674668e+01	-8.947727e+01
3.600000e-07	-5.278376e-06	-1.366959e-09	-3.664888e+01	-8.939110e+01
3.700000e-07	-5.263820e-06	-1.347617e-09	-3.654781e+01	-8.929472e+01
3.800000e-07	-5.248915e-06	-1.399099e-09	-3.644432e+01	-8.918864e+01
3.900000e-07	-5.233472e-06	-1.337669e-09	-3.633710e+01	-8.907343e+01
4.000000e-07	-5.217320e-06	-1.318271e-09	-3.622495e+01	-8.894979e+01
4.100000e-07	-5.200912e-06	-1.376131e-09	-3.611103e+01	-8.881850e+01
4.200000e-07	-5.184204e-06	-1.385373e-09	-3.599502e+01	-8.868040e+01
4.300000e-07	-5.166968e-06	-1.293302e-09	-3.587535e+01	-8.853637e+01
4.400000e-07	-5.149425e-06	-1.339543e-09	-3.575354e+01	-8.838736e+01
4.500000e-07	-5.131626e-06	-1.409003e-09	-3.562996e+01	-8.823429e+01
4.600000e-07	-5.113296e-06	-1.329710e-09	-3.550270e+01	-8.807811e+01
4.700000e-07	-5.094429e-06	-1.282605e-09	-3.537170e+01	-8.791975e+01
4.800000e-07	-5.075326e-06	-1.377782e-09	-3.523906e+01	-8.776007e+01
4.900000e-07	-5.055997e-06	-1.362553e-09	-3.510486e+01	-8.759993e+01
5.000000e-07	-5.036361e-06	-1.281407e-09	-3.496852e+01	-8.744008e+01
5.100000e-07	-5.016521e-06	-1.343861e-09	-3.483076e+01	-8.728123e+01
5.200000e-07	-4.996453e-06	-1.376557e-09	-3.469143e+01	-8.712399e+01
5.300000e-07	-4.976019e-06	-1.290953e-09	-3.454955e+01	-8.696885e+01
5.400000e-07	-4.955235e-06	-1.309345e-09	-3.440524e+01	-8.681624e+01
5.500000e-07	-4.934112e-06	-1.383087e-09	-3.425858e+01	-8.666645e+01
5.600000e-07	-4.912609e-06	-1.308694e-09	-3.410928e+01	-8.651969e+01
5.700000e-07	-4.890765e-06	-1.277602e-09	-3.395761e+01	-8.637603e+01
5.800000e-07	-4.868592e-06	-1.349221e-09	-3.380366e+01	-8.623546e+01
5.900000e-07	-4.846022e-06	-1.335328e-09	-3.364695e+01	-8.609787e+01
6.000000e-07	-4.823120e-06	-1.266674e-09	-3.348794e+01	-8.596303e+01
6.100000e-07	-4.799962e-06	-1.315363e-09	-3.332715e+01	-8.583067e+01
6.200000e-07	-4.776428e-06	-1.324432e-09	-3.316375e+01	-8.570040e+01
6.300000e-07	-4.752650e-06	-1.274120e-09	-3.299865e+01	-8.557179e+01
6.400000e-07	-4.728660e-06	-1.284365e-09	-3.283209e+01	-8.544435e+01
6.500000e-07	-4.704346e-06	-1.320294e-09	-3.266327e+01	-8.531754e+01
6.600000e-07	-4.679718e-06	-1.276178e-09	-3.249227e+01	-8.519083e+01
6.700000e-07	-4.654679e-06	-1.278563e-09	-3.231842e+01	-8.506362e+01
6.800000e-07	-4.629039e-06	-1.305534e-09	-3.214039e+01	-8.493536e+01
6.900000e-07	-4.602776e-06	-1.288071e-09	-3.195804e+01	-8.480548e+01
7.000000e-07	-4.576003e-06	-1.264776e-09	-3.177215e+01	-8.467345e+01
7.100000e-07	-4.548838e-06	-1.290927e-09	-3.158354e+01	-8.453876e+01
7.200000e-07	-4.521398e-06	-1.278763e-09	-3.139302e+01	-8.440095e+01
7.300000e-07	-4.493746e-06	-1.260311e-09	-3.120103e+01	-8.425961e+01
7.400000e-07	-4.465984e-06	-1.268708e-09	-3.100827e+01	-8.411439e+01
7.500000e-07	-4.438084e-06	-1.272119e-09	-3.081456e+01	-8.396498e+01
7.600000e-07	-4.409915e-06	-1.253487e-09	-3.061897e+01	-8.381118e+01
7.700000e-07	-4.381479e-06	-1.259864e-09	-3.042153e+01	-8.365281e+01
7.800000e-07	-4.352713e-06	-1.264094e-09	-3.022181e+01	-8.348978e+01
7.900000e-07	-4.323528e-06	-1.251796e-09	-3.001917e+01	-8.332206e+01
8.000000e-07	-4.294077e-06	-1.252747e-09	-2.981469e+01	-8.314968e+01
8.100000e-07	-4.264374e-06	-1.257936e-09	-2.960845e+01	-8.297273e+01
8.200000e-07	-4.234310e-06	-1.242859e-09	-2.939971e+01	-8.279135e+01
8.300000e-07	-4.203950e-06	-1.232357e-09	-2.918891e+01	-8.260571e+01
8.400000e-07	-4.173229e-06	-1.243069e-09	-2.897561e+01	-8.241604e+01
8.500000e-07	-4.142233e-06	-1.236580e-09	-2.876040e+01	-8.222258e+01
8.600000e-07	-4.111077e-06	-1.229424e-09	-2.854407e+01	-8.202560e+01
8.700000e-07	-4.079691e-06	-1.234892e-09	-2.832615e+01	-8.182536e+01
8.800000e-07	-4.048097e-06	-1.234649e-09	-2.810679e+01	-8.162215e+01
8.900000e-07	-4.016297e-06	-1.214616e-09	-2.788600e+01	-8.141622e+01
9.000000e-07	-3.984315e-06	-1.214009e-09	-2.766394e+01	-8.120784e+01
9.100000e-07	-3.952102e-06	-1.212821e-09	-2.744028e+01	-8.099725e+01
9.200000e-07	-3.919530e-06	-1.202918e-09	-2.721412e+01	-8.078463e+01
9.300000e-07	-3.886493e-06	-1.197411e-09	-2.698474e+01	-8.057016e+01
9.400000e-07	-3.853049e-06	-1.209434e-09	-2.675253e+01	-8.035398e+01
9.500000e-07	-3.819176e-06	-1.201070e-09	-2.651734e+01	-8.013617e+01
9.600000e-07	-3.784817e-06	-1.192518e-09	-2.627879e+01	-7.991678e+01
9.700000e-07	-3.750024e-06	-1.194086e-09	-2.603721e+01	-7.969583e+01
9.800000e-07	-3.714879e-06	-1.194022e-09	-2.579319e+01	-7.947326e+01
9.900000e-07	-3.679566e-06	-1.176896e-09	-2.554800e+01	-7.924901e+01
1.000000e-06	-3.644090e-06	-1.170654e-09	-2.530168e+01	-7.902295e+01
1.010000e-06	-3.608407e-06	-1.168502e-09	-2.505393e+01	-7.879494e+01
1.020000e-06	-3.572561e-06	-1.164250e-09	-2.480505e+01	-7.856479e+01
1.030000e-06	-3.536587e-06	-1.161753e-09	-2.455527e+01	-7.833228e+01
1.040000e-06	-3.500455e-06	-1.167026e-09	-2.430440e+01	-7.809720e+01
1.050000e-06	-3.464108e-06	-1.162250e-09	-2.405203e+01	-7.785930e+01
1.060000e-06	-3.427508e-06	-1.152925e-09	-2.379791e+01	-7.761833e+01
1.070000e-06	-3.390541e-06	-1.148664e-09	-2.354124e+01	-7.737404e+01
1.080000e-06	-3.353248e-06	-1.142579e-09	-2.328231e+01	-7.712618e+01
1.090000e-06	-3.315745e-06	-1.132004e-09	-2.302192e+01	-7.687451e+01
1.100000e-06	-3.278047e-06	-1.127430e-09	-2.276018e+01	-7.661880e+01
1.110000e-06	-3.240107e-06	-1.127769e-09	-2.249675e+01	-7.635885e+01
1.120000e-06	-3.201905e-06	-1.120058e-09	-2.223150e+01	-7.609447e+01
1.130000e-06	-3.163508e-06	-1.112867e-09	-2.196491e+01	-7.582551e+01
1.140000e-06	-3.124944e-06	-1.108570e-09	-2.169715e+01	-7.555183e+01
1.150000e-06	-3.086168e-06	-1.104164e-09	-2.142792e+01	-7.527331e+01
1.160000e-06	-3.047115e-06	-1.096923e-09	-2.115676e+01	-7.498989e+01
1.170000e-06	-3.007875e-06	-1.095318e-09	-2.088431e+01	-7.470151e+01
1.180000e-06	-2.968478e-06	-1.092805e-09	-2.061077e+01	-7.440815e+01
1.190000e-06	-2.928953e-06	-1.088730e-09	-2.033634e+01	-7.410979e+01
1.200000e-06	-2.889362e-06	-1.082461e-09	-2.006145e+01	-7.380644e+01
1.210000e-06	-2.849636e-06	-1.076533e-09	-1.978562e+01	-7.349815e+01
1.220000e-06	-2.809758e-06	-1.064241e-09	-1.950875e+01	-7.318494e+01
1.230000e-06	-2.769733e-06	-1.056616e-09	-1.923084e+01	-7.286686e+01
1.240000e-06	-2.729568e-06	-1.052506e-09	-1.895197e+01	-7.254396e+01
1.250000e-06	-2.689173e-06	-1.049603e-09	-1.867149e+01	-7.221627e+01
1.260000e-06	-2.648482e-06	-1.044179e-09	-1.838897e+01	-7.188383e+01
1.270000e-06	-2.607563e-06	-1.040059e-09	-1.810486e+01	-7.154666e+01
1.280000e-06	-2.566354e-06	-1.033069e-09	-1.781874e+01	-7.120475e+01
1.290000e-06	-2.524807e-06	-1.023257e-09	-1.753027e+01	-7.085808e+01
1.300000e-06	-2.482885e-06	-1.012658e-09	-1.723919e+01	-7.050661e+01
1.310000e-06	-2.440671e-06	-1.006781e-09	-1.694610e+01	-7.015025e+01
1.320000e-06	-2.398247e-06	-1.001073e-09	-1.665154e+01	-6.978889e+01
1.330000e-06	-2.355559e-06	-9.969872e-10	-1.635515e+01	-6.942240e+01
1.340000e-06	-2.312666e-06	-9.916279e-10	-1.605733e+01	-6.905059e+01
1.350000e-06	-2.269579e-06	-9.872540e-10	-1.575817e+01	-6.867326e+01
1.360000e-06	-2.226248e-06	-9.819598e-10	-1.545731e+01	-6.829016e+01
1.370000e-06	-2.182734e-06	-9.755816e-10	-1.515519e+01	-6.790101e+01
1.380000e-06	-2.139184e-06	-9.696237e-10	-1.485280e+01	-6.750551e+01
1.390000e-06	-2.095555e-06	-9.614132e-10	-1.454988e+01	-6.710331e+01
1.400000e-06	-2.051785e-06	-9.510810e-10	-1.424598e+01	-6.669406e+01
1.410000e-06	-2.007935e-06	-9.418481e-10	-1.394152e+01	-6.627736e+01
1.420000e-06	-1.964019e-06	-9.329030e-10	-1.363660e+01	-6.585281e+01
1.430000e-06	-1.920013e-06	-9.222510e-10	-1.333105e+01	-6.541997e+01
1.440000e-06	-1.875902e-06	-9.162441e-10	-1.302478e+01	-6.497840e+01
1.450000e-06	-1.831699e-06	-9.128186e-10	-1.271787e+01	-6.452763e+01
1.460000e-06	-1.787399e-06	-9.072374e-10	-1.241029e+01	-6.406720e+01
1.470000e-06	-1.742960e-06	-8.974080e-10	-1.210174e+01	-6.359662e+01
1.480000e-06	-1.698381e-06	-8.870370e-10	-1.179222e+01	-6.311540e+01
1.490000e-06	-1.653688e-06	-8.755616e-10	-1.148190e+01	-6.262304e+01
1.500000e-06	-1.608889e-06	-8.638538e-10	-1.117086e+01	-6.211902e+01
1.510000e-06	-1.563964e-06	-8.523898e-10	-1.085893e+01	-6.160283e+01
1.520000e-06	-1.518818e-06	-8.447145e-10	-1.054547e+01	-6.107394e+01
1.530000e-06	-1.473509e-06	-8.366804e-10	-1.023088e+01	-6.053179e+01
1.540000e-06	-1.428142e-06	-8.290828e-10	-9.915889e+00	-5.997584e+01
1.550000e-06	-1.382708e-06	-8.209083e-10	-9.600433e+00	-5.940551e+01
1.560000e-06	-1.337204e-06	-8.128857e-10	-9.284488e+00	-5.882020e+01
1.570000e-06	-1.291629e-06	-8.032909e-10	-8.968053e+00	-5.821929e+01
1.580000e-06	-1.245949e-06	-7.960359e-10	-8.650886e+00	-5.760214e+01
1.590000e-06	-1.200183e-06	-7.873241e-10	-8.333126e+00	-5.696806e+01
1.600000e-06	-1.154342e-06	-7.756125e-10	-8.014838e+00	-5.631634e+01
1.610000e-06	-1.108405e-06	-7.627500e-10	-7.695887e+00	-5.564624e+01
1.620000e-06	-1.062379e-06	-7.536120e-10	-7.376324e+00	-5.495697e+01
1.630000e-06	-1.016307e-06	-7.461585e-10	-7.056437e+00	-5.424771e+01
1.640000e-06	-9.701904e-07	-7.388843e-10	-6.736237e+00	-5.351758e+01
1.650000e-06	-9.239975e-07	-7.295397e-10	-6.415510e+00	-5.276569e+01
1.660000e-06	-8.777208e-07	-7.150997e-10	-6.094201e+00	-5.199108e+01
1.670000e-06	-8.313210e-07	-6.978575e-10	-5.772037e+00	-5.119277e+01
1.680000e-06	-7.848522e-07	-6.807198e-10	-5.449395e+00	-5.036975e+01
1.690000e-06	-7.383536e-07	-6.665026e-10	-5.126545e+00	-4.952097e+01
1.700000e-06	-6.918405e-07	-6.518673e-10	-4.803595e+00	-4.864536e+01
1.710000e-06	-6.453194e-07	-6.374277e-10	-4.480589e+00	-4.774184e+01
1.720000e-06	-5.987684e-07	-6.245720e-10	-4.157375e+00	-4.680933e+01
1.730000e-06	-5.521265e-07	-6.097587e-10	-3.833531e+00	-4.584675e+01
1.740000e-06	-5.054042e-07	-5.922340e-10	-3.509128e+00	-4.485301e+01
1.750000e-06	-4.586712e-07	-5.758460e-10	-3.184651e+00	-4.382708e+01
1.760000e-06	-4.119769e-07	-5.598724e-10	-2.860442e+00	-4.276795e+01
1.770000e-06	-3.652737e-07	-5.407808e-10	-2.536173e+00	-4.167466e+01
1.780000e-06	-3.185167e-07	-5.220816e-10	-2.211529e+00	-4.054634e+01
1.790000e-06	-2.717374e-07	-5.071378e-10	-1.886730e+00	-3.938215e+01
1.800000e-06	-2.248892e-07	-4.921402e-10	-1.561453e+00	-3.818139e+01
1.810000e-06	-1.780337e-07	-4.789163e-10	-1.236126e+00	-3.694343e+01
1.820000e-06	-1.312033e-07	-4.635748e-10	-9.109720e-01	-3.566778e+01
1.830000e-06	-8.436941e-08	-4.429743e-10	-5.857947e-01	-3.435406e+01
1.840000e-06	-3.751116e-08	-4.197294e-10	-2.604479e-01	-3.300204e+01
1.850000e-06	9.374631e-09	-3.972015e-10	6.509004e-02	-3.161163e+01
1.860000e-06	5.623448e-08	-3.762615e-10	3.904479e-01	-3.018292e+01
1.870000e-06	1.031309e-07	-3.555374e-10	7.160595e-01	-2.871614e+01
1.880000e-06	1.500830e-07	-3.345436e-10	1.042058e+00	-2.721170e+01
1.890000e-06	1.969384e-07	-3.147501e-10	1.367385e+00	-2.567018e+01
1.900000e-06	2.437211e-07	-2.928189e-10	1.692207e+00	-2.409233e+01
1.910000e-06	2.905290e-07	-2.693904e-10	2.017204e+00	-2.247908e+01
1.920000e-06	3.373444e-07	-2.432806e-10	2.342254e+00	-2.083155e+01
1.930000e-06	3.841380e-07	-2.173342e-10	2.667151e+00	-1.915098e+01
1.940000e-06	4.309260e-07	-1.925828e-10	2.992010e+00	-1.743882e+01
1.950000e-06	4.776939e-07	-1.672047e-10	3.316729e+00	-1.569666e+01
1.960000e-06	5.244189e-07	-1.434810e-10	3.641151e+00	-1.392621e+01
1.970000e-06	5.710733e-07	-1.231326e-10	3.965083e+00	-1.212936e+01
1.980000e-06	6.175944e-07	-1.019266e-10	4.288088e+00	-1.030808e+01
1.990000e-06	6.640963e-07	-7.760389e-11	4.610961e+00	-8.464475e+00
2.000000e-06	7.106134e-07	-5.025285e-11	4.933939e+00	-6.600737e+00
2.010000e-06	7.569998e-07	-2.001474e-11	5.256009e+00	-4.719140e+00
2.020000e-06	8.032963e-07	1.066515e-11	5.577456e+00	-2.822025e+00
2.030000e-06	8.495211e-07	3.945802e-11	5.898405e+00	-9.117804e-01
2.040000e-06	8.956999e-07	6.511797e-11	6.219033e+00	1.009167e+00
2.050000e-06	9.419132e-07	8.906549e-11	6.539902e+00	2.938373e+00
2.060000e-06	9.880626e-07	1.131306e-10	6.860327e+00	4.873388e+00
2.070000e-06	1.034122e-06	1.379598e-10	7.180126e+00	6.811770e+00
2.080000e-06	1.080097e-06	1.642200e-10	7.499341e+00	8.751102e+00
2.090000e-06	1.126006e-06	1.921768e-10	7.818100e+00	1.068900e+01
2.100000e-06	1.171847e-06	2.210566e-10	8.136383e+00	1.262313e+01
2.110000e-06	1.217619e-06	2.512172e-10	8.454185e+00	1.455122e+01
2.120000e-06	1.263296e-06	2.805357e-10	8.771329e+00	1.647105e+01
2.130000e-06	1.308854e-06	3.083103e-10	9.087648e+00	1.838048e+01
2.140000e-06	1.354306e-06	3.335673e-10	9.403230e+00	2.027746e+01
2.150000e-06	1.399674e-06	3.567836e-10	9.718235e+00	2.216002e+01
2.160000e-06	1.444978e-06	3.781565e-10	1.003279e+01	2.402629e+01
2.170000e-06	1.490150e-06	3.998745e-10	1.034643e+01	2.587447e+01
2.180000e-06	1.535235e-06	4.234120e-10	1.065946e+01	2.770288e+01
2.190000e-06	1.580251e-06	4.493588e-10	1.097202e+01	2.950993e+01
2.200000e-06	1.625122e-06	4.764976e-10	1.128356e+01	3.129413e+01
2.210000e-06	1.669797e-06	5.033477e-10	1.159375e+01	3.305408e+01
2.220000e-06	1.714315e-06	5.288739e-10	1.190285e+01	3.478848e+01
2.230000e-06	1.758756e-06	5.527879e-10	1.221141e+01	3.649612e+01
2.240000e-06	1.803043e-06	5.732192e-10	1.251891e+01	3.817589e+01
2.250000e-06	1.847181e-06	5.911667e-10	1.282537e+01	3.982675e+01
2.260000e-06	1.891207e-06	6.086096e-10	1.313105e+01	4.144776e+01
2.270000e-06	1.935101e-06	6.277628e-10	1.343581e+01	4.303808e+01
2.280000e-06	1.978902e-06	6.509705e-10	1.373994e+01	4.459692e+01
2.290000e-06	2.022669e-06	6.752139e-10	1.404382e+01	4.612359e+01
2.300000e-06	2.066435e-06	6.968179e-10	1.434769e+01	4.761747e+01
2.310000e-06	2.110179e-06	7.165326e-10	1.465142e+01	4.907801e+01
2.320000e-06	2.153826e-06	7.358023e-10	1.495447e+01	5.050474e+01
2.330000e-06	2.197396e-06	7.536265e-10	1.525699e+01	5.189727e+01
2.340000e-06	2.240864e-06	7.709072e-10	1.555879e+01	5.325527e+01
2.350000e-06	2.284197e-06	7.896387e-10	1.585966e+01	5.457847e+01
2.360000e-06	2.327360e-06	8.083541e-10	1.615935e+01	5.586670e+01
2.370000e-06	2.370321e-06	8.262252e-10	1.645764e+01	5.711983e+01
2.380000e-06	2.413000e-06	8.441913e-10	1.675397e+01	5.833782e+01
2.390000e-06	2.455260e-06	8.600466e-10	1.704739e+01	5.952068e+01
2.400000e-06	2.497186e-06	8.743050e-10	1.733849e+01	6.066851e+01
2.410000e-06	2.538777e-06	8.876897e-10	1.762726e+01	6.178146e+01
2.420000e-06	2.579999e-06	9.014806e-10	1.791348e+01	6.285976e+01
2.430000e-06	2.620904e-06	9.135642e-10	1.819749e+01	6.390370e+01
2.440000e-06	2.661577e-06	9.266219e-10	1.847989e+01	6.491364e+01
2.450000e-06	2.702097e-06	9.405928e-10	1.876123e+01	6.589001e+01
2.460000e-06	2.742370e-06	9.534801e-10	1.904085e+01	6.683328e+01
2.470000e-06	2.782423e-06	9.680151e-10	1.931895e+01	6.774401e+01
2.480000e-06	2.822388e-06	9.806470e-10	1.959644e+01	6.862280e+01
2.490000e-06	2.862197e-06	9.898568e-10	1.987284e+01	6.947030e+01
2.500000e-06	2.901853e-06	9.975887e-10	2.014818e+01	7.028722e+01
2.510000e-06	2.941439e-06	1.006545e-09	2.042303e+01	7.107432e+01
2.520000e-06	2.980955e-06	1.019141e-09	2.069740e+01	7.183237e+01
2.530000e-06	3.020268e-06	1.032735e-09	2.097036e+01	7.256222e+01
2.540000e-06	3.059363e-06	1.043785e-09	2.124180e+01	7.326471e+01
2.550000e-06	3.098292e-06	1.052006e-09	2.151209e+01	7.394073e+01
2.560000e-06	3.136852e-06	1.058613e-09	2.177982e+01	7.459117e+01
2.570000e-06	3.175049e-06	1.063549e-09	2.204503e+01	7.521694e+01
2.580000e-06	3.213125e-06	1.068859e-09	2.230940e+01	7.581895e+01
2.590000e-06	3.251075e-06	1.076026e-09	2.257290e+01	7.639812e+01
2.600000e-06	3.288854e-06	1.084581e-09	2.283521e+01	7.695536e+01
2.610000e-06	3.326397e-06	1.095968e-09	2.309588e+01	7.749157e+01
2.620000e-06	3.363717e-06	1.106448e-09	2.335500e+01	7.800761e+01
2.630000e-06	3.400887e-06	1.115782e-09	2.361308e+01	7.850436e+01
2.640000e-06	3.437746e-06	1.124133e-09	2.386899e+01	7.898264e+01
2.650000e-06	3.474216e-06	1.131522e-09	2.412221e+01	7.944326e+01
2.660000e-06	3.510405e-06	1.137909e-09	2.437348e+01	7.988700e+01
2.670000e-06	3.546405e-06	1.142767e-09	2.462344e+01	8.031461e+01
2.680000e-06	3.582279e-06	1.147553e-09	2.487252e+01	8.072678e+01
2.690000e-06	3.618062e-06	1.152996e-09	2.512097e+01	8.112420e+01
2.700000e-06	3.653769e-06	1.159493e-09	2.536889e+01	8.150750e+01
2.710000e-06	3.689325e-06	1.166527e-09	2.561576e+01	8.187730e+01
2.720000e-06	3.724718e-06	1.173623e-09	2.586151e+01	8.223415e+01
2.730000e-06	3.759889e-06	1.181117e-09	2.610570e+01	8.257860e+01
2.740000e-06	3.794675e-06	1.188466e-09	2.634723e+01	8.291117e+01
2.750000e-06	3.828884e-06	1.195633e-09	2.658475e+01	8.323233e+01
2.760000e-06	3.862579e-06	1.199787e-09	2.681870e+01	8.354254e+01
2.770000e-06	3.895862e-06	1.202151e-09	2.704980e+01	8.384224e+01
2.780000e-06	3.928722e-06	1.203385e-09	2.727794e+01	8.413183e+01
2.790000e-06	3.961218e-06	1.204445e-09	2.750358e+01	8.441172e+01
2.800000e-06	3.993404e-06	1.210838e-09	2.772705e+01	8.468229e+01
2.810000e-06	4.025385e-06	1.220188e-09	2.794910e+01	8.494389e+01
2.820000e-06	4.057200e-06	1.227292e-09	2.816999e+01	8.519689e+01
2.830000e-06	4.088886e-06	1.231816e-09	2.839000e+01	8.544163e+01
2.840000e-06	4.120397e-06	1.235923e-09	2.860879e+01	8.567844e+01
2.850000e-06	4.151663e-06	1.238089e-09	2.882587e+01	8.590764e+01
2.860000e-06	4.182663e-06	1.237405e-09	2.904111e+01	8.612956e+01
2.870000e-06	4.213273e-06	1.237991e-09	2.925364e+01	8.634448e+01
2.880000e-06	4.243447e-06	1.241418e-09	2.946315e+01	8.655271e+01
2.890000e-06	4.273324e-06	1.244793e-09	2.967059e+01	8.675453e+01
2.900000e-06	4.302926e-06	1.249213e-09	2.987613e+01	8.695021e+01
