# Temperatura_=_15.41
# Concentracion g/m^3_=_1620.0
# C_Vs_to_Am_M_A/Vsm_=_65563218390.804596
# pendiente_HvsI_1/m_=_3716.3
# ordenada_HvsI_A/m_=_1297.0
# frecuencia_Hz_=_135092.64249563223

Tiempo_(s)	Campo_(V.s)	Magnetizacion_(V.s)	Campo_(kA/m)	Magnetizacion_(A/m)
0.000000e+00	-5.537063e-06	-1.528534e-09	-3.837921e+01	-1.014910e+02
1.000000e-08	-5.537155e-06	-1.525643e-09	-3.837985e+01	-1.014151e+02
2.000000e-08	-5.537021e-06	-1.525600e-09	-3.837892e+01	-1.013400e+02
3.000000e-08	-5.536609e-06	-1.526902e-09	-3.837606e+01	-1.012662e+02
4.000000e-08	-5.535818e-06	-1.526904e-09	-3.837058e+01	-1.011942e+02
5.000000e-08	-5.534358e-06	-1.522759e-09	-3.836046e+01	-1.011246e+02
6.000000e-08	-5.532253e-06	-1.509628e-09	-3.834587e+01	-1.010579e+02
7.000000e-08	-5.529694e-06	-1.505062e-09	-3.832813e+01	-1.009943e+02
8.000000e-08	-5.526565e-06	-1.546937e-09	-3.830644e+01	-1.009341e+02
9.000000e-08	-5.522858e-06	-1.576945e-09	-3.828075e+01	-1.008776e+02
1.000000e-07	-5.518705e-06	-1.531474e-09	-3.825196e+01	-1.008248e+02
1.100000e-07	-5.514334e-06	-1.520434e-09	-3.822167e+01	-1.007756e+02
1.200000e-07	-5.509726e-06	-1.524564e-09	-3.818973e+01	-1.007300e+02
1.300000e-07	-5.504787e-06	-1.501644e-09	-3.815549e+01	-1.006877e+02
1.400000e-07	-5.499555e-06	-1.503483e-09	-3.811923e+01	-1.006485e+02
1.500000e-07	-5.493982e-06	-1.495257e-09	-3.808060e+01	-1.006118e+02
1.600000e-07	-5.487988e-06	-1.558552e-09	-3.803906e+01	-1.005773e+02
1.700000e-07	-5.481469e-06	-1.510924e-09	-3.799387e+01	-1.005443e+02
1.800000e-07	-5.474560e-06	-1.500790e-09	-3.794598e+01	-1.005122e+02
1.900000e-07	-5.467287e-06	-1.490520e-09	-3.789557e+01	-1.004803e+02
2.000000e-07	-5.459617e-06	-1.514688e-09	-3.784241e+01	-1.004478e+02
2.100000e-07	-5.451749e-06	-1.509885e-09	-3.778787e+01	-1.004141e+02
2.200000e-07	-5.443727e-06	-1.523113e-09	-3.773227e+01	-1.003782e+02
2.300000e-07	-5.435381e-06	-1.532914e-09	-3.767442e+01	-1.003394e+02
2.400000e-07	-5.426549e-06	-1.519219e-09	-3.761320e+01	-1.002969e+02
2.500000e-07	-5.417085e-06	-1.514197e-09	-3.754760e+01	-1.002499e+02
2.600000e-07	-5.407006e-06	-1.504434e-09	-3.747774e+01	-1.001978e+02
2.700000e-07	-5.396374e-06	-1.520244e-09	-3.740405e+01	-1.001397e+02
2.800000e-07	-5.385197e-06	-1.510747e-09	-3.732658e+01	-1.000751e+02
2.900000e-07	-5.373572e-06	-1.532770e-09	-3.724600e+01	-1.000035e+02
3.000000e-07	-5.361553e-06	-1.522386e-09	-3.716269e+01	-9.992430e+01
3.100000e-07	-5.349072e-06	-1.525822e-09	-3.707619e+01	-9.983715e+01
3.200000e-07	-5.336177e-06	-1.507280e-09	-3.698680e+01	-9.974172e+01
3.300000e-07	-5.323071e-06	-1.531913e-09	-3.689596e+01	-9.963781e+01
3.400000e-07	-5.309532e-06	-1.499402e-09	-3.680212e+01	-9.952528e+01
3.500000e-07	-5.295432e-06	-1.507067e-09	-3.670438e+01	-9.940411e+01
3.600000e-07	-5.281014e-06	-1.524347e-09	-3.660445e+01	-9.927435e+01
3.700000e-07	-5.266287e-06	-1.525122e-09	-3.650237e+01	-9.913616e+01
3.800000e-07	-5.250942e-06	-1.475231e-09	-3.639601e+01	-9.898977e+01
3.900000e-07	-5.234987e-06	-1.513215e-09	-3.628542e+01	-9.883548e+01
4.000000e-07	-5.218598e-06	-1.524063e-09	-3.617183e+01	-9.867369e+01
4.100000e-07	-5.201756e-06	-1.469992e-09	-3.605509e+01	-9.850484e+01
4.200000e-07	-5.184544e-06	-1.466253e-09	-3.593578e+01	-9.832940e+01
4.300000e-07	-5.167103e-06	-1.532340e-09	-3.581489e+01	-9.814793e+01
4.400000e-07	-5.149358e-06	-1.484793e-09	-3.569190e+01	-9.796099e+01
4.500000e-07	-5.131216e-06	-1.432084e-09	-3.556615e+01	-9.776915e+01
4.600000e-07	-5.112735e-06	-1.501346e-09	-3.543805e+01	-9.757300e+01
4.700000e-07	-5.093847e-06	-1.502808e-09	-3.530713e+01	-9.737314e+01
4.800000e-07	-5.074503e-06	-1.418518e-09	-3.517306e+01	-9.717013e+01
4.900000e-07	-5.054830e-06	-1.454226e-09	-3.503669e+01	-9.696452e+01
5.000000e-07	-5.034977e-06	-1.512176e-09	-3.489909e+01	-9.675684e+01
5.100000e-07	-5.014852e-06	-1.426240e-09	-3.475959e+01	-9.654754e+01
5.200000e-07	-4.994374e-06	-1.413569e-09	-3.461765e+01	-9.633706e+01
5.300000e-07	-4.973641e-06	-1.490567e-09	-3.447395e+01	-9.612578e+01
5.400000e-07	-4.952541e-06	-1.454948e-09	-3.432770e+01	-9.591400e+01
5.500000e-07	-4.931030e-06	-1.391101e-09	-3.417860e+01	-9.570198e+01
5.600000e-07	-4.909195e-06	-1.459102e-09	-3.402725e+01	-9.548990e+01
5.700000e-07	-4.887055e-06	-1.454449e-09	-3.387379e+01	-9.527789e+01
5.800000e-07	-4.864587e-06	-1.387024e-09	-3.371806e+01	-9.506601e+01
5.900000e-07	-4.841885e-06	-1.416900e-09	-3.356070e+01	-9.485426e+01
6.000000e-07	-4.818854e-06	-1.457248e-09	-3.340107e+01	-9.464258e+01
6.100000e-07	-4.795372e-06	-1.395422e-09	-3.323831e+01	-9.443086e+01
6.200000e-07	-4.771647e-06	-1.398069e-09	-3.307386e+01	-9.421893e+01
6.300000e-07	-4.747731e-06	-1.432519e-09	-3.290809e+01	-9.400660e+01
6.400000e-07	-4.723571e-06	-1.400151e-09	-3.274063e+01	-9.379361e+01
6.500000e-07	-4.699171e-06	-1.369980e-09	-3.257150e+01	-9.357969e+01
6.600000e-07	-4.674469e-06	-1.403459e-09	-3.240029e+01	-9.336455e+01
6.700000e-07	-4.649277e-06	-1.391277e-09	-3.222567e+01	-9.314788e+01
6.800000e-07	-4.623402e-06	-1.369091e-09	-3.204632e+01	-9.292935e+01
6.900000e-07	-4.596938e-06	-1.385444e-09	-3.186289e+01	-9.270866e+01
7.000000e-07	-4.569989e-06	-1.393394e-09	-3.167610e+01	-9.248547e+01
7.100000e-07	-4.542586e-06	-1.370387e-09	-3.148616e+01	-9.225949e+01
7.200000e-07	-4.514952e-06	-1.370323e-09	-3.129462e+01	-9.203042e+01
7.300000e-07	-4.487157e-06	-1.370995e-09	-3.110197e+01	-9.179801e+01
7.400000e-07	-4.459183e-06	-1.358386e-09	-3.090807e+01	-9.156201e+01
7.500000e-07	-4.430980e-06	-1.354146e-09	-3.071259e+01	-9.132222e+01
7.600000e-07	-4.402520e-06	-1.356188e-09	-3.051532e+01	-9.107845e+01
7.700000e-07	-4.373763e-06	-1.351190e-09	-3.031599e+01	-9.083057e+01
7.800000e-07	-4.344579e-06	-1.348677e-09	-3.011371e+01	-9.057847e+01
7.900000e-07	-4.315128e-06	-1.351027e-09	-2.990957e+01	-9.032208e+01
8.000000e-07	-4.285466e-06	-1.343444e-09	-2.970398e+01	-9.006136e+01
8.100000e-07	-4.255416e-06	-1.334535e-09	-2.949569e+01	-8.979631e+01
8.200000e-07	-4.225064e-06	-1.328304e-09	-2.928532e+01	-8.952696e+01
8.300000e-07	-4.194436e-06	-1.324655e-09	-2.907302e+01	-8.925338e+01
8.400000e-07	-4.163469e-06	-1.315916e-09	-2.885837e+01	-8.897564e+01
8.500000e-07	-4.132238e-06	-1.322186e-09	-2.864191e+01	-8.869387e+01
8.600000e-07	-4.100801e-06	-1.324500e-09	-2.842400e+01	-8.840819e+01
8.700000e-07	-4.069167e-06	-1.316484e-09	-2.820474e+01	-8.811875e+01
8.800000e-07	-4.037407e-06	-1.305468e-09	-2.798460e+01	-8.782572e+01
8.900000e-07	-4.005454e-06	-1.304740e-09	-2.776312e+01	-8.752926e+01
9.000000e-07	-3.973289e-06	-1.294066e-09	-2.754017e+01	-8.722955e+01
9.100000e-07	-3.940877e-06	-1.290967e-09	-2.731552e+01	-8.692677e+01
9.200000e-07	-3.908069e-06	-1.296481e-09	-2.708811e+01	-8.662109e+01
9.300000e-07	-3.874801e-06	-1.297559e-09	-2.685752e+01	-8.631270e+01
9.400000e-07	-3.841068e-06	-1.283472e-09	-2.662371e+01	-8.600175e+01
9.500000e-07	-3.806856e-06	-1.279099e-09	-2.638658e+01	-8.568841e+01
9.600000e-07	-3.772172e-06	-1.273349e-09	-2.614617e+01	-8.537281e+01
9.700000e-07	-3.737161e-06	-1.261892e-09	-2.590349e+01	-8.505508e+01
9.800000e-07	-3.701899e-06	-1.255403e-09	-2.565909e+01	-8.473535e+01
9.900000e-07	-3.666362e-06	-1.258367e-09	-2.541277e+01	-8.441370e+01
1.000000e-06	-3.630612e-06	-1.250635e-09	-2.516497e+01	-8.409021e+01
1.010000e-06	-3.594729e-06	-1.240262e-09	-2.491625e+01	-8.376496e+01
1.020000e-06	-3.558703e-06	-1.235552e-09	-2.466654e+01	-8.343797e+01
1.030000e-06	-3.522486e-06	-1.230815e-09	-2.441551e+01	-8.310927e+01
1.040000e-06	-3.486107e-06	-1.222535e-09	-2.416336e+01	-8.277885e+01
1.050000e-06	-3.449419e-06	-1.217942e-09	-2.390906e+01	-8.244670e+01
1.060000e-06	-3.412425e-06	-1.216054e-09	-2.365264e+01	-8.211276e+01
1.070000e-06	-3.375221e-06	-1.209607e-09	-2.339477e+01	-8.177699e+01
1.080000e-06	-3.337777e-06	-1.204426e-09	-2.313523e+01	-8.143929e+01
1.090000e-06	-3.300166e-06	-1.200700e-09	-2.287454e+01	-8.109956e+01
1.100000e-06	-3.262318e-06	-1.192666e-09	-2.261220e+01	-8.075767e+01
1.110000e-06	-3.224242e-06	-1.179981e-09	-2.234828e+01	-8.041346e+01
1.120000e-06	-3.185962e-06	-1.173092e-09	-2.208295e+01	-8.006676e+01
1.130000e-06	-3.147501e-06	-1.165824e-09	-2.181637e+01	-7.971738e+01
1.140000e-06	-3.108824e-06	-1.157857e-09	-2.154829e+01	-7.936509e+01
1.150000e-06	-3.069860e-06	-1.150146e-09	-2.127821e+01	-7.900967e+01
1.160000e-06	-3.030687e-06	-1.147826e-09	-2.100669e+01	-7.865083e+01
1.170000e-06	-2.991313e-06	-1.138573e-09	-2.073377e+01	-7.828831e+01
1.180000e-06	-2.951661e-06	-1.131469e-09	-2.045893e+01	-7.792179e+01
1.190000e-06	-2.911793e-06	-1.128960e-09	-2.018260e+01	-7.755093e+01
1.200000e-06	-2.871872e-06	-1.126120e-09	-1.990589e+01	-7.717541e+01
1.210000e-06	-2.831899e-06	-1.120378e-09	-1.962883e+01	-7.679483e+01
1.220000e-06	-2.791782e-06	-1.116711e-09	-1.935076e+01	-7.640883e+01
1.230000e-06	-2.751494e-06	-1.111985e-09	-1.907151e+01	-7.601699e+01
1.240000e-06	-2.711120e-06	-1.104383e-09	-1.879166e+01	-7.561891e+01
1.250000e-06	-2.670535e-06	-1.097975e-09	-1.851036e+01	-7.521416e+01
1.260000e-06	-2.629716e-06	-1.092687e-09	-1.822743e+01	-7.480230e+01
1.270000e-06	-2.588733e-06	-1.084582e-09	-1.794337e+01	-7.438289e+01
1.280000e-06	-2.547419e-06	-1.076509e-09	-1.765700e+01	-7.395550e+01
1.290000e-06	-2.505655e-06	-1.069737e-09	-1.736752e+01	-7.351968e+01
1.300000e-06	-2.463640e-06	-1.062145e-09	-1.707630e+01	-7.307499e+01
1.310000e-06	-2.421377e-06	-1.052451e-09	-1.678336e+01	-7.262103e+01
1.320000e-06	-2.378775e-06	-1.042968e-09	-1.648807e+01	-7.215736e+01
1.330000e-06	-2.335969e-06	-1.035782e-09	-1.619137e+01	-7.168360e+01
1.340000e-06	-2.292897e-06	-1.028237e-09	-1.589283e+01	-7.119938e+01
1.350000e-06	-2.249542e-06	-1.021820e-09	-1.559232e+01	-7.070434e+01
1.360000e-06	-2.205965e-06	-1.020859e-09	-1.529027e+01	-7.019815e+01
1.370000e-06	-2.162278e-06	-1.018598e-09	-1.498746e+01	-6.968053e+01
1.380000e-06	-2.118507e-06	-1.010180e-09	-1.468407e+01	-6.915120e+01
1.390000e-06	-2.074620e-06	-9.973897e-10	-1.437988e+01	-6.860992e+01
1.400000e-06	-2.030661e-06	-9.851156e-10	-1.407518e+01	-6.805651e+01
1.410000e-06	-1.986656e-06	-9.747301e-10	-1.377017e+01	-6.749078e+01
1.420000e-06	-1.942585e-06	-9.637720e-10	-1.346470e+01	-6.691259e+01
1.430000e-06	-1.898430e-06	-9.553961e-10	-1.315865e+01	-6.632182e+01
1.440000e-06	-1.854204e-06	-9.461674e-10	-1.285210e+01	-6.571839e+01
1.450000e-06	-1.809851e-06	-9.359301e-10	-1.254467e+01	-6.510223e+01
1.460000e-06	-1.765426e-06	-9.265772e-10	-1.223675e+01	-6.447327e+01
1.470000e-06	-1.720858e-06	-9.148216e-10	-1.192783e+01	-6.383147e+01
1.480000e-06	-1.676086e-06	-9.006409e-10	-1.161750e+01	-6.317679e+01
1.490000e-06	-1.631221e-06	-8.867937e-10	-1.130653e+01	-6.250918e+01
1.500000e-06	-1.586280e-06	-8.715644e-10	-1.099503e+01	-6.182858e+01
1.510000e-06	-1.541222e-06	-8.557851e-10	-1.068272e+01	-6.113489e+01
1.520000e-06	-1.496002e-06	-8.430642e-10	-1.036928e+01	-6.042802e+01
1.530000e-06	-1.450625e-06	-8.345496e-10	-1.005476e+01	-5.970782e+01
1.540000e-06	-1.405128e-06	-8.256400e-10	-9.739405e+00	-5.897407e+01
1.550000e-06	-1.359562e-06	-8.129341e-10	-9.423572e+00	-5.822655e+01
1.560000e-06	-1.313936e-06	-7.980485e-10	-9.107320e+00	-5.746492e+01
1.570000e-06	-1.268236e-06	-7.838132e-10	-8.790564e+00	-5.668881e+01
1.580000e-06	-1.222428e-06	-7.686745e-10	-8.473053e+00	-5.589776e+01
1.590000e-06	-1.176557e-06	-7.526670e-10	-8.155107e+00	-5.509122e+01
1.600000e-06	-1.130676e-06	-7.376690e-10	-7.837088e+00	-5.426857e+01
1.610000e-06	-1.084725e-06	-7.270570e-10	-7.518589e+00	-5.342910e+01
1.620000e-06	-1.038655e-06	-7.186414e-10	-7.199263e+00	-5.257199e+01
1.630000e-06	-9.924996e-07	-7.107041e-10	-6.879342e+00	-5.169636e+01
1.640000e-06	-9.462184e-07	-7.025537e-10	-6.558552e+00	-5.080121e+01
1.650000e-06	-8.998519e-07	-6.896834e-10	-6.237170e+00	-4.988548e+01
1.660000e-06	-8.534698e-07	-6.715281e-10	-5.915680e+00	-4.894802e+01
1.670000e-06	-8.070064e-07	-6.525644e-10	-5.593628e+00	-4.798761e+01
1.680000e-06	-7.604599e-07	-6.341836e-10	-5.270999e+00	-4.700298e+01
1.690000e-06	-7.138561e-07	-6.167676e-10	-4.947972e+00	-4.599278e+01
1.700000e-06	-6.672980e-07	-6.006803e-10	-4.625263e+00	-4.495565e+01
1.710000e-06	-6.208268e-07	-5.862862e-10	-4.303155e+00	-4.389017e+01
1.720000e-06	-5.742199e-07	-5.720595e-10	-3.980108e+00	-4.279494e+01
1.730000e-06	-5.274145e-07	-5.543555e-10	-3.655684e+00	-4.166855e+01
1.740000e-06	-4.806477e-07	-5.323841e-10	-3.331528e+00	-4.050961e+01
1.750000e-06	-4.339043e-07	-5.081025e-10	-3.007534e+00	-3.931677e+01
1.760000e-06	-3.870946e-07	-4.832538e-10	-2.683080e+00	-3.808872e+01
1.770000e-06	-3.402094e-07	-4.604449e-10	-2.358104e+00	-3.682427e+01
1.780000e-06	-2.932805e-07	-4.431068e-10	-2.032824e+00	-3.552228e+01
1.790000e-06	-2.464002e-07	-4.275042e-10	-1.707881e+00	-3.418173e+01
1.800000e-06	-1.993975e-07	-4.120262e-10	-1.382090e+00	-3.280173e+01
1.810000e-06	-1.524206e-07	-3.937769e-10	-1.056478e+00	-3.138156e+01
1.820000e-06	-1.055348e-07	-3.726306e-10	-7.314963e-01	-2.992061e+01
1.830000e-06	-5.862102e-08	-3.491510e-10	-4.063216e-01	-2.841849e+01
1.840000e-06	-1.177674e-08	-3.254193e-10	-8.162849e-02	-2.687497e+01
1.850000e-06	3.503012e-08	-3.025135e-10	2.428053e-01	-2.529003e+01
1.860000e-06	8.192221e-08	-2.800126e-10	5.678298e-01	-2.366384e+01
1.870000e-06	1.288623e-07	-2.577946e-10	8.931873e-01	-2.199679e+01
1.880000e-06	1.757790e-07	-2.350440e-10	1.218382e+00	-2.028950e+01
1.890000e-06	2.227457e-07	-2.111509e-10	1.543924e+00	-1.854280e+01
1.900000e-06	2.696958e-07	-1.842653e-10	1.869351e+00	-1.675773e+01
1.910000e-06	3.165979e-07	-1.547938e-10	2.194444e+00	-1.493556e+01
1.920000e-06	3.634753e-07	-1.249220e-10	2.519367e+00	-1.307777e+01
1.930000e-06	4.103339e-07	-9.595213e-11	2.844159e+00	-1.118605e+01
1.940000e-06	4.570973e-07	-6.826224e-11	3.168292e+00	-9.262284e+00
1.950000e-06	5.037488e-07	-4.051951e-11	3.491649e+00	-7.308546e+00
1.960000e-06	5.504001e-07	-1.489423e-11	3.815005e+00	-5.327087e+00
1.970000e-06	5.970984e-07	8.815189e-12	4.138686e+00	-3.320317e+00
1.980000e-06	6.437349e-07	3.369852e-11	4.461939e+00	-1.290795e+00
1.990000e-06	6.903041e-07	6.039207e-11	4.784725e+00	7.587914e-01
2.000000e-06	7.368747e-07	9.084784e-11	5.107521e+00	2.825643e+00
2.010000e-06	7.833273e-07	1.238970e-10	5.429500e+00	4.906868e+00
2.020000e-06	8.296435e-07	1.569373e-10	5.750533e+00	6.999499e+00
2.030000e-06	8.759487e-07	1.868104e-10	6.071489e+00	9.100515e+00
2.040000e-06	9.223019e-07	2.135549e-10	6.392779e+00	1.120686e+01
2.050000e-06	9.686115e-07	2.385479e-10	6.713766e+00	1.331546e+01
2.060000e-06	1.014779e-06	2.651890e-10	7.033770e+00	1.542326e+01
2.070000e-06	1.060866e-06	2.945117e-10	7.353209e+00	1.752721e+01
2.080000e-06	1.106914e-06	3.258204e-10	7.672385e+00	1.962430e+01
2.090000e-06	1.152899e-06	3.566603e-10	7.991123e+00	2.171161e+01
2.100000e-06	1.198738e-06	3.881599e-10	8.308851e+00	2.378625e+01
2.110000e-06	1.244490e-06	4.180102e-10	8.625967e+00	2.584545e+01
2.120000e-06	1.290194e-06	4.439461e-10	8.942762e+00	2.788655e+01
2.130000e-06	1.335797e-06	4.695114e-10	9.258848e+00	2.990699e+01
2.140000e-06	1.381243e-06	4.937244e-10	9.573853e+00	3.190434e+01
2.150000e-06	1.426528e-06	5.163899e-10	9.887739e+00	3.387632e+01
2.160000e-06	1.471804e-06	5.395903e-10	1.020156e+01	3.582079e+01
2.170000e-06	1.517038e-06	5.664014e-10	1.051509e+01	3.773577e+01
2.180000e-06	1.562119e-06	5.939372e-10	1.082756e+01	3.961945e+01
2.190000e-06	1.606996e-06	6.197415e-10	1.113862e+01	4.147015e+01
2.200000e-06	1.651695e-06	6.461842e-10	1.144844e+01	4.328640e+01
2.210000e-06	1.696330e-06	6.722733e-10	1.175783e+01	4.506687e+01
2.220000e-06	1.740840e-06	6.966149e-10	1.206633e+01	4.681041e+01
2.230000e-06	1.785210e-06	7.197819e-10	1.237388e+01	4.851604e+01
2.240000e-06	1.829546e-06	7.399658e-10	1.268118e+01	5.018295e+01
2.250000e-06	1.873796e-06	7.591535e-10	1.298790e+01	5.181048e+01
2.260000e-06	1.917908e-06	7.784445e-10	1.329366e+01	5.339814e+01
2.270000e-06	1.961931e-06	7.979009e-10	1.359879e+01	5.494559e+01
2.280000e-06	2.005925e-06	8.183748e-10	1.390373e+01	5.645265e+01
2.290000e-06	2.049888e-06	8.384376e-10	1.420845e+01	5.791926e+01
2.300000e-06	2.093804e-06	8.574260e-10	1.451285e+01	5.934551e+01
2.310000e-06	2.137602e-06	8.749416e-10	1.481643e+01	6.073162e+01
2.320000e-06	2.181284e-06	8.926115e-10	1.511920e+01	6.207791e+01
2.330000e-06	2.224872e-06	9.112841e-10	1.542132e+01	6.338483e+01
2.340000e-06	2.268330e-06	9.302047e-10	1.572254e+01	6.465292e+01
2.350000e-06	2.311620e-06	9.479763e-10	1.602260e+01	6.588281e+01
2.360000e-06	2.354725e-06	9.637948e-10	1.632137e+01	6.707523e+01
2.370000e-06	2.397567e-06	9.791009e-10	1.661833e+01	6.823096e+01
2.380000e-06	2.440073e-06	9.933911e-10	1.691295e+01	6.935085e+01
2.390000e-06	2.482196e-06	1.007351e-09	1.720492e+01	7.043581e+01
2.400000e-06	2.523875e-06	1.022990e-09	1.749381e+01	7.148679e+01
2.410000e-06	2.565282e-06	1.038202e-09	1.778081e+01	7.250477e+01
2.420000e-06	2.606477e-06	1.052758e-09	1.806635e+01	7.349075e+01
2.430000e-06	2.647438e-06	1.064688e-09	1.835027e+01	7.444576e+01
2.440000e-06	2.688097e-06	1.074530e-09	1.863208e+01	7.537083e+01
2.450000e-06	2.728490e-06	1.083628e-09	1.891206e+01	7.626698e+01
2.460000e-06	2.768775e-06	1.093107e-09	1.919130e+01	7.713524e+01
2.470000e-06	2.808940e-06	1.104742e-09	1.946969e+01	7.797659e+01
2.480000e-06	2.848993e-06	1.117089e-09	1.974731e+01	7.879202e+01
2.490000e-06	2.888964e-06	1.129191e-09	2.002436e+01	7.958248e+01
2.500000e-06	2.928806e-06	1.140991e-09	2.030052e+01	8.034887e+01
2.510000e-06	2.968448e-06	1.150443e-09	2.057529e+01	8.109206e+01
2.520000e-06	3.007889e-06	1.157961e-09	2.084867e+01	8.181289e+01
2.530000e-06	3.047134e-06	1.164406e-09	2.112069e+01	8.251212e+01
2.540000e-06	3.086125e-06	1.171522e-09	2.139095e+01	8.319049e+01
2.550000e-06	3.124914e-06	1.181259e-09	2.165981e+01	8.384868e+01
2.560000e-06	3.163494e-06	1.191500e-09	2.192722e+01	8.448731e+01
2.570000e-06	3.201793e-06	1.201967e-09	2.219268e+01	8.510696e+01
2.580000e-06	3.239843e-06	1.211035e-09	2.245642e+01	8.570815e+01
2.590000e-06	3.277709e-06	1.218455e-09	2.271888e+01	8.629137e+01
2.600000e-06	3.315390e-06	1.224235e-09	2.298006e+01	8.685704e+01
2.610000e-06	3.352853e-06	1.229619e-09	2.323973e+01	8.740556e+01
2.620000e-06	3.390113e-06	1.236555e-09	2.349799e+01	8.793728e+01
2.630000e-06	3.427057e-06	1.245310e-09	2.375406e+01	8.845253e+01
2.640000e-06	3.463668e-06	1.256095e-09	2.400783e+01	8.895159e+01
2.650000e-06	3.500112e-06	1.265837e-09	2.426043e+01	8.943475e+01
2.660000e-06	3.536388e-06	1.272547e-09	2.451187e+01	8.990227e+01
2.670000e-06	3.572468e-06	1.278280e-09	2.476195e+01	9.035438e+01
2.680000e-06	3.608444e-06	1.282967e-09	2.501131e+01	9.079134e+01
2.690000e-06	3.644317e-06	1.286627e-09	2.525996e+01	9.121340e+01
2.700000e-06	3.680090e-06	1.291178e-09	2.550792e+01	9.162080e+01
2.710000e-06	3.715659e-06	1.299254e-09	2.575446e+01	9.201382e+01
2.720000e-06	3.750920e-06	1.309033e-09	2.599886e+01	9.239274e+01
2.730000e-06	3.785718e-06	1.318427e-09	2.624006e+01	9.275788e+01
2.740000e-06	3.819921e-06	1.328211e-09	2.647713e+01	9.310955e+01
2.750000e-06	3.853587e-06	1.333626e-09	2.671048e+01	9.344813e+01
2.760000e-06	3.886842e-06	1.334490e-09	2.694099e+01	9.377399e+01
2.770000e-06	3.919742e-06	1.334543e-09	2.716902e+01	9.408757e+01
2.780000e-06	3.952326e-06	1.335676e-09	2.739487e+01	9.438930e+01
2.790000e-06	3.984661e-06	1.340985e-09	2.761900e+01	9.467968e+01
2.800000e-06	4.016793e-06	1.349556e-09	2.784172e+01	9.495919e+01
2.810000e-06	4.048786e-06	1.358212e-09	2.806347e+01	9.522837e+01
2.820000e-06	4.080617e-06	1.365227e-09	2.828410e+01	9.548778e+01
2.830000e-06	4.112257e-06	1.370323e-09	2.850341e+01	9.573796e+01
2.840000e-06	4.143635e-06	1.372653e-09	2.872090e+01	9.597950e+01
2.850000e-06	4.174666e-06	1.371448e-09	2.893598e+01	9.621298e+01
2.860000e-06	4.205397e-06	1.370098e-09	2.914900e+01	9.643897e+01
2.870000e-06	4.235882e-06	1.372484e-09	2.936029e+01	9.665803e+01
2.880000e-06	4.266020e-06	1.379290e-09	2.956919e+01	9.687073e+01
2.890000e-06	4.295827e-06	1.387803e-09	2.977579e+01	9.707759e+01
2.900000e-06	4.325422e-06	1.393847e-09	2.998093e+01	9.727911e+01
