# Temperatura_=_8.24
# Concentracion g/m^3_=_1620.0
# C_Vs_to_Am_M_A/Vsm_=_65563218390.804596
# pendiente_HvsI_1/m_=_3716.3
# ordenada_HvsI_A/m_=_1297.0
# frecuencia_Hz_=_135098.73463438512

Tiempo_(s)	Campo_(V.s)	Magnetizacion_(V.s)	Campo_(kA/m)	Magnetizacion_(A/m)
0.000000e+00	-5.515081e-06	-1.546467e-09	-3.837652e+01	-1.017041e+02
1.000000e-08	-5.515479e-06	-1.542705e-09	-3.837928e+01	-1.016625e+02
2.000000e-08	-5.515571e-06	-1.539049e-09	-3.837993e+01	-1.016239e+02
3.000000e-08	-5.515276e-06	-1.536698e-09	-3.837788e+01	-1.015891e+02
4.000000e-08	-5.514555e-06	-1.535795e-09	-3.837286e+01	-1.015587e+02
5.000000e-08	-5.513360e-06	-1.539953e-09	-3.836454e+01	-1.015331e+02
6.000000e-08	-5.511526e-06	-1.557646e-09	-3.835178e+01	-1.015127e+02
7.000000e-08	-5.509101e-06	-1.584400e-09	-3.833490e+01	-1.014978e+02
8.000000e-08	-5.506194e-06	-1.568887e-09	-3.831468e+01	-1.014885e+02
9.000000e-08	-5.502830e-06	-1.495180e-09	-3.829127e+01	-1.014847e+02
1.000000e-07	-5.499010e-06	-1.461207e-09	-3.826469e+01	-1.014863e+02
1.100000e-07	-5.494807e-06	-1.527955e-09	-3.823544e+01	-1.014929e+02
1.200000e-07	-5.490373e-06	-1.612854e-09	-3.820459e+01	-1.015041e+02
1.300000e-07	-5.485674e-06	-1.563187e-09	-3.817189e+01	-1.015192e+02
1.400000e-07	-5.480618e-06	-1.475730e-09	-3.813671e+01	-1.015375e+02
1.500000e-07	-5.475261e-06	-1.531248e-09	-3.809943e+01	-1.015582e+02
1.600000e-07	-5.469501e-06	-1.593110e-09	-3.805935e+01	-1.015801e+02
1.700000e-07	-5.463254e-06	-1.556894e-09	-3.801588e+01	-1.016022e+02
1.800000e-07	-5.456608e-06	-1.447358e-09	-3.796964e+01	-1.016234e+02
1.900000e-07	-5.449632e-06	-1.517696e-09	-3.792109e+01	-1.016423e+02
2.000000e-07	-5.442296e-06	-1.609124e-09	-3.787004e+01	-1.016578e+02
2.100000e-07	-5.434669e-06	-1.614954e-09	-3.781698e+01	-1.016686e+02
2.200000e-07	-5.426808e-06	-1.532402e-09	-3.776227e+01	-1.016733e+02
2.300000e-07	-5.418588e-06	-1.536981e-09	-3.770507e+01	-1.016707e+02
2.400000e-07	-5.409878e-06	-1.572046e-09	-3.764447e+01	-1.016596e+02
2.500000e-07	-5.400585e-06	-1.565718e-09	-3.757980e+01	-1.016389e+02
2.600000e-07	-5.390771e-06	-1.544608e-09	-3.751151e+01	-1.016076e+02
2.700000e-07	-5.380403e-06	-1.555719e-09	-3.743936e+01	-1.015647e+02
2.800000e-07	-5.369417e-06	-1.580239e-09	-3.736292e+01	-1.015094e+02
2.900000e-07	-5.358010e-06	-1.551193e-09	-3.728355e+01	-1.014412e+02
3.000000e-07	-5.346249e-06	-1.528031e-09	-3.720170e+01	-1.013594e+02
3.100000e-07	-5.334082e-06	-1.520565e-09	-3.711704e+01	-1.012638e+02
3.200000e-07	-5.321488e-06	-1.555293e-09	-3.702941e+01	-1.011543e+02
3.300000e-07	-5.308534e-06	-1.541012e-09	-3.693927e+01	-1.010308e+02
3.400000e-07	-5.295262e-06	-1.536425e-09	-3.684692e+01	-1.008935e+02
3.500000e-07	-5.281613e-06	-1.536407e-09	-3.675194e+01	-1.007428e+02
3.600000e-07	-5.267497e-06	-1.565708e-09	-3.665371e+01	-1.005792e+02
3.700000e-07	-5.252842e-06	-1.528143e-09	-3.655174e+01	-1.004034e+02
3.800000e-07	-5.237654e-06	-1.509360e-09	-3.644605e+01	-1.002161e+02
3.900000e-07	-5.221974e-06	-1.518437e-09	-3.633694e+01	-1.000184e+02
4.000000e-07	-5.205859e-06	-1.534380e-09	-3.622481e+01	-9.981122e+01
4.100000e-07	-5.189349e-06	-1.497664e-09	-3.610992e+01	-9.959573e+01
4.200000e-07	-5.172498e-06	-1.514758e-09	-3.599266e+01	-9.937311e+01
4.300000e-07	-5.155359e-06	-1.546409e-09	-3.587341e+01	-9.914459e+01
4.400000e-07	-5.137907e-06	-1.514981e-09	-3.575196e+01	-9.891145e+01
4.500000e-07	-5.120055e-06	-1.466108e-09	-3.562774e+01	-9.867493e+01
4.600000e-07	-5.101785e-06	-1.507276e-09	-3.550061e+01	-9.843628e+01
4.700000e-07	-5.083093e-06	-1.528219e-09	-3.537054e+01	-9.819670e+01
4.800000e-07	-5.064045e-06	-1.476227e-09	-3.523800e+01	-9.795732e+01
4.900000e-07	-5.044718e-06	-1.467570e-09	-3.510351e+01	-9.771920e+01
5.000000e-07	-5.025155e-06	-1.512823e-09	-3.496739e+01	-9.748329e+01
5.100000e-07	-5.005323e-06	-1.497155e-09	-3.482938e+01	-9.725044e+01
5.200000e-07	-4.985194e-06	-1.467788e-09	-3.468931e+01	-9.702137e+01
5.300000e-07	-4.964767e-06	-1.496792e-09	-3.454718e+01	-9.679667e+01
5.400000e-07	-4.944039e-06	-1.485543e-09	-3.440294e+01	-9.657680e+01
5.500000e-07	-4.922952e-06	-1.440928e-09	-3.425621e+01	-9.636206e+01
5.600000e-07	-4.901482e-06	-1.463570e-09	-3.410681e+01	-9.615261e+01
5.700000e-07	-4.879684e-06	-1.497124e-09	-3.395513e+01	-9.594848e+01
5.800000e-07	-4.857590e-06	-1.449265e-09	-3.380139e+01	-9.574954e+01
5.900000e-07	-4.835129e-06	-1.434859e-09	-3.364509e+01	-9.555556e+01
6.000000e-07	-4.812294e-06	-1.472702e-09	-3.348620e+01	-9.536617e+01
6.100000e-07	-4.789174e-06	-1.465544e-09	-3.332532e+01	-9.518088e+01
6.200000e-07	-4.765720e-06	-1.426013e-09	-3.316212e+01	-9.499913e+01
6.300000e-07	-4.742028e-06	-1.449304e-09	-3.299726e+01	-9.482026e+01
6.400000e-07	-4.718155e-06	-1.456880e-09	-3.283113e+01	-9.464355e+01
6.500000e-07	-4.694010e-06	-1.425509e-09	-3.266312e+01	-9.446823e+01
6.600000e-07	-4.669507e-06	-1.419996e-09	-3.249262e+01	-9.429350e+01
6.700000e-07	-4.644558e-06	-1.446298e-09	-3.231901e+01	-9.411853e+01
6.800000e-07	-4.619022e-06	-1.428414e-09	-3.214132e+01	-9.394252e+01
6.900000e-07	-4.592890e-06	-1.415720e-09	-3.195948e+01	-9.376465e+01
7.000000e-07	-4.566293e-06	-1.431275e-09	-3.177441e+01	-9.358415e+01
7.100000e-07	-4.539242e-06	-1.432910e-09	-3.158618e+01	-9.340031e+01
7.200000e-07	-4.511829e-06	-1.406506e-09	-3.139542e+01	-9.321244e+01
7.300000e-07	-4.484225e-06	-1.408580e-09	-3.120334e+01	-9.301994e+01
7.400000e-07	-4.456475e-06	-1.412786e-09	-3.101024e+01	-9.282228e+01
7.500000e-07	-4.428474e-06	-1.398765e-09	-3.081539e+01	-9.261900e+01
7.600000e-07	-4.400192e-06	-1.394216e-09	-3.061860e+01	-9.240975e+01
7.700000e-07	-4.371699e-06	-1.407971e-09	-3.042033e+01	-9.219425e+01
7.800000e-07	-4.342953e-06	-1.400349e-09	-3.022030e+01	-9.197229e+01
7.900000e-07	-4.313863e-06	-1.384006e-09	-3.001788e+01	-9.174376e+01
8.000000e-07	-4.284429e-06	-1.383535e-09	-2.981306e+01	-9.150865e+01
8.100000e-07	-4.254665e-06	-1.381157e-09	-2.960595e+01	-9.126699e+01
8.200000e-07	-4.224619e-06	-1.369110e-09	-2.939688e+01	-9.101889e+01
8.300000e-07	-4.194325e-06	-1.366327e-09	-2.918608e+01	-9.076454e+01
8.400000e-07	-4.163783e-06	-1.370046e-09	-2.897355e+01	-9.050415e+01
8.500000e-07	-4.132983e-06	-1.364193e-09	-2.875923e+01	-9.023799e+01
8.600000e-07	-4.101809e-06	-1.364426e-09	-2.854231e+01	-8.996636e+01
8.700000e-07	-4.070344e-06	-1.362357e-09	-2.832336e+01	-8.968957e+01
8.800000e-07	-4.038752e-06	-1.351250e-09	-2.810353e+01	-8.940795e+01
8.900000e-07	-4.006954e-06	-1.340273e-09	-2.788226e+01	-8.912183e+01
9.000000e-07	-3.974974e-06	-1.341079e-09	-2.765974e+01	-8.883153e+01
9.100000e-07	-3.942767e-06	-1.335497e-09	-2.743562e+01	-8.853735e+01
9.200000e-07	-3.910224e-06	-1.331622e-09	-2.720917e+01	-8.823956e+01
9.300000e-07	-3.877342e-06	-1.328950e-09	-2.698037e+01	-8.793842e+01
9.400000e-07	-3.844071e-06	-1.325875e-09	-2.674885e+01	-8.763414e+01
9.500000e-07	-3.810399e-06	-1.317194e-09	-2.651454e+01	-8.732689e+01
9.600000e-07	-3.776309e-06	-1.316590e-09	-2.627733e+01	-8.701680e+01
9.700000e-07	-3.741740e-06	-1.311699e-09	-2.603678e+01	-8.670396e+01
9.800000e-07	-3.706756e-06	-1.302410e-09	-2.579335e+01	-8.638843e+01
9.900000e-07	-3.671479e-06	-1.294252e-09	-2.554787e+01	-8.607021e+01
1.000000e-06	-3.635962e-06	-1.288664e-09	-2.530073e+01	-8.574928e+01
1.010000e-06	-3.600292e-06	-1.277948e-09	-2.505252e+01	-8.542559e+01
1.020000e-06	-3.564558e-06	-1.274489e-09	-2.480387e+01	-8.509904e+01
1.030000e-06	-3.528668e-06	-1.274007e-09	-2.455413e+01	-8.476953e+01
1.040000e-06	-3.492542e-06	-1.268694e-09	-2.430274e+01	-8.443695e+01
1.050000e-06	-3.456203e-06	-1.261281e-09	-2.404988e+01	-8.410115e+01
1.060000e-06	-3.419585e-06	-1.258329e-09	-2.379508e+01	-8.376200e+01
1.070000e-06	-3.382675e-06	-1.250884e-09	-2.353824e+01	-8.341938e+01
1.080000e-06	-3.345545e-06	-1.239438e-09	-2.327987e+01	-8.307315e+01
1.090000e-06	-3.308211e-06	-1.232647e-09	-2.302008e+01	-8.272322e+01
1.100000e-06	-3.270634e-06	-1.227710e-09	-2.275860e+01	-8.236949e+01
1.110000e-06	-3.232807e-06	-1.221734e-09	-2.249539e+01	-8.201188e+01
1.120000e-06	-3.194754e-06	-1.217150e-09	-2.223059e+01	-8.165036e+01
1.130000e-06	-3.156485e-06	-1.213359e-09	-2.196430e+01	-8.128490e+01
1.140000e-06	-3.117968e-06	-1.202629e-09	-2.169628e+01	-8.091552e+01
1.150000e-06	-3.079296e-06	-1.192926e-09	-2.142718e+01	-8.054224e+01
1.160000e-06	-3.040438e-06	-1.187481e-09	-2.115679e+01	-8.016512e+01
1.170000e-06	-3.001323e-06	-1.180027e-09	-2.088461e+01	-7.978422e+01
1.180000e-06	-2.962023e-06	-1.169462e-09	-2.061114e+01	-7.939965e+01
1.190000e-06	-2.922492e-06	-1.166033e-09	-2.033607e+01	-7.901151e+01
1.200000e-06	-2.882807e-06	-1.163254e-09	-2.005993e+01	-7.861989e+01
1.210000e-06	-2.843073e-06	-1.156290e-09	-1.978343e+01	-7.822490e+01
1.220000e-06	-2.803237e-06	-1.147644e-09	-1.950624e+01	-7.782664e+01
1.230000e-06	-2.763255e-06	-1.140371e-09	-1.922802e+01	-7.742519e+01
1.240000e-06	-2.723138e-06	-1.129941e-09	-1.894887e+01	-7.702061e+01
1.250000e-06	-2.682805e-06	-1.121487e-09	-1.866822e+01	-7.661292e+01
1.260000e-06	-2.642246e-06	-1.115674e-09	-1.838599e+01	-7.620212e+01
1.270000e-06	-2.601467e-06	-1.108883e-09	-1.810223e+01	-7.578815e+01
1.280000e-06	-2.560436e-06	-1.099584e-09	-1.781672e+01	-7.537091e+01
1.290000e-06	-2.519143e-06	-1.092482e-09	-1.752938e+01	-7.495025e+01
1.300000e-06	-2.477537e-06	-1.083532e-09	-1.723986e+01	-7.452595e+01
1.310000e-06	-2.435622e-06	-1.073326e-09	-1.694820e+01	-7.409774e+01
1.320000e-06	-2.393410e-06	-1.064248e-09	-1.665447e+01	-7.366530e+01
1.330000e-06	-2.350929e-06	-1.058874e-09	-1.635886e+01	-7.322822e+01
1.340000e-06	-2.308088e-06	-1.051169e-09	-1.606076e+01	-7.278605e+01
1.350000e-06	-2.264987e-06	-1.043898e-09	-1.576084e+01	-7.233827e+01
1.360000e-06	-2.221747e-06	-1.040545e-09	-1.545996e+01	-7.188431e+01
1.370000e-06	-2.178262e-06	-1.035954e-09	-1.515737e+01	-7.142356e+01
1.380000e-06	-2.134599e-06	-1.025814e-09	-1.485354e+01	-7.095533e+01
1.390000e-06	-2.090886e-06	-1.015225e-09	-1.454936e+01	-7.047891e+01
1.400000e-06	-2.047139e-06	-1.006316e-09	-1.424496e+01	-6.999357e+01
1.410000e-06	-2.003323e-06	-9.958654e-10	-1.394006e+01	-6.949854e+01
1.420000e-06	-1.959473e-06	-9.851449e-10	-1.363493e+01	-6.899302e+01
1.430000e-06	-1.915544e-06	-9.752556e-10	-1.332925e+01	-6.847620e+01
1.440000e-06	-1.871512e-06	-9.668405e-10	-1.302286e+01	-6.794730e+01
1.450000e-06	-1.827385e-06	-9.589240e-10	-1.271580e+01	-6.740550e+01
1.460000e-06	-1.783156e-06	-9.519321e-10	-1.240804e+01	-6.685001e+01
1.470000e-06	-1.738898e-06	-9.427733e-10	-1.210007e+01	-6.628006e+01
1.480000e-06	-1.694524e-06	-9.318152e-10	-1.179129e+01	-6.569490e+01
1.490000e-06	-1.649944e-06	-9.192216e-10	-1.148108e+01	-6.509380e+01
1.500000e-06	-1.605149e-06	-9.057645e-10	-1.116938e+01	-6.447607e+01
1.510000e-06	-1.560234e-06	-8.913826e-10	-1.085684e+01	-6.384105e+01
1.520000e-06	-1.515183e-06	-8.790846e-10	-1.054335e+01	-6.318810e+01
1.530000e-06	-1.469953e-06	-8.697206e-10	-1.022862e+01	-6.251663e+01
1.540000e-06	-1.424707e-06	-8.606955e-10	-9.913776e+00	-6.182609e+01
1.550000e-06	-1.379441e-06	-8.497478e-10	-9.598794e+00	-6.111595e+01
1.560000e-06	-1.334023e-06	-8.388985e-10	-9.282757e+00	-6.038570e+01
1.570000e-06	-1.288484e-06	-8.249995e-10	-8.965877e+00	-5.963487e+01
1.580000e-06	-1.242918e-06	-8.109217e-10	-8.648807e+00	-5.886299e+01
1.590000e-06	-1.197261e-06	-7.984046e-10	-8.331107e+00	-5.806963e+01
1.600000e-06	-1.151482e-06	-7.879017e-10	-8.012548e+00	-5.725434e+01
1.610000e-06	-1.105642e-06	-7.778844e-10	-7.693572e+00	-5.641670e+01
1.620000e-06	-1.059710e-06	-7.669389e-10	-7.373958e+00	-5.555625e+01
1.630000e-06	-1.013667e-06	-7.559695e-10	-7.053570e+00	-5.467255e+01
1.640000e-06	-9.675963e-07	-7.454463e-10	-6.732989e+00	-5.376512e+01
1.650000e-06	-9.214724e-07	-7.313760e-10	-6.412037e+00	-5.283348e+01
1.660000e-06	-8.752856e-07	-7.126298e-10	-6.090648e+00	-5.187711e+01
1.670000e-06	-8.290878e-07	-6.926536e-10	-5.769182e+00	-5.089545e+01
1.680000e-06	-7.828262e-07	-6.731436e-10	-5.447271e+00	-4.988793e+01
1.690000e-06	-7.364464e-07	-6.560371e-10	-5.124539e+00	-4.885393e+01
1.700000e-06	-6.899898e-07	-6.394431e-10	-4.801273e+00	-4.779282e+01
1.710000e-06	-6.434912e-07	-6.220539e-10	-4.477713e+00	-4.670391e+01
1.720000e-06	-5.969958e-07	-6.056918e-10	-4.154177e+00	-4.558651e+01
1.730000e-06	-5.504863e-07	-5.897425e-10	-3.830542e+00	-4.443989e+01
1.740000e-06	-5.039286e-07	-5.705226e-10	-3.506572e+00	-4.326331e+01
1.750000e-06	-4.573522e-07	-5.507595e-10	-3.182471e+00	-4.205603e+01
1.760000e-06	-4.107101e-07	-5.312186e-10	-2.857913e+00	-4.081731e+01
1.770000e-06	-3.640029e-07	-5.085992e-10	-2.532903e+00	-3.954642e+01
1.780000e-06	-3.172594e-07	-4.866327e-10	-2.207639e+00	-3.824265e+01
1.790000e-06	-2.705443e-07	-4.699638e-10	-1.882574e+00	-3.690534e+01
1.800000e-06	-2.238490e-07	-4.545193e-10	-1.557646e+00	-3.553388e+01
1.810000e-06	-1.771239e-07	-4.379499e-10	-1.232511e+00	-3.412771e+01
1.820000e-06	-1.303925e-07	-4.192856e-10	-9.073320e-01	-3.268637e+01
1.830000e-06	-8.365180e-08	-3.960286e-10	-5.820884e-01	-3.120948e+01
1.840000e-06	-3.692833e-08	-3.701818e-10	-2.569647e-01	-2.969678e+01
1.850000e-06	9.873501e-09	-3.463065e-10	6.870444e-02	-2.814811e+01
1.860000e-06	5.671952e-08	-3.239709e-10	3.946810e-01	-2.656346e+01
1.870000e-06	1.034555e-07	-3.025914e-10	7.198919e-01	-2.494295e+01
1.880000e-06	1.501474e-07	-2.813671e-10	1.044796e+00	-2.328687e+01
1.890000e-06	1.968481e-07	-2.593188e-10	1.369762e+00	-2.159565e+01
1.900000e-06	2.435543e-07	-2.342064e-10	1.694765e+00	-1.986992e+01
1.910000e-06	2.902732e-07	-2.061914e-10	2.019857e+00	-1.811046e+01
1.920000e-06	3.370166e-07	-1.772530e-10	2.345120e+00	-1.631822e+01
1.930000e-06	3.836991e-07	-1.477814e-10	2.669958e+00	-1.449436e+01
1.940000e-06	4.303380e-07	-1.202634e-10	2.994493e+00	-1.264018e+01
1.950000e-06	4.769371e-07	-9.454698e-11	3.318752e+00	-1.075718e+01
1.960000e-06	5.234489e-07	-6.932028e-11	3.642403e+00	-8.847024e+00
1.970000e-06	5.699448e-07	-4.580334e-11	3.965943e+00	-6.911523e+00
1.980000e-06	6.164068e-07	-2.213576e-11	4.289248e+00	-4.952654e+00
1.990000e-06	6.627530e-07	4.379298e-12	4.611746e+00	-2.972529e+00
2.000000e-06	7.089672e-07	3.462336e-11	4.933326e+00	-9.733886e-01
2.010000e-06	7.551892e-07	6.637436e-11	5.254960e+00	1.042410e+00
2.020000e-06	8.014156e-07	9.626247e-11	5.576626e+00	3.072412e+00
2.030000e-06	8.476025e-07	1.237481e-10	5.898015e+00	5.114081e+00
2.040000e-06	8.937597e-07	1.501409e-10	6.219199e+00	7.164813e+00
2.050000e-06	9.398233e-07	1.753890e-10	6.539731e+00	9.221957e+00
2.060000e-06	9.858662e-07	2.009900e-10	6.860119e+00	1.128283e+01
2.070000e-06	1.031841e-06	2.288397e-10	7.180030e+00	1.334474e+01
2.080000e-06	1.077698e-06	2.587126e-10	7.499128e+00	1.540501e+01
2.090000e-06	1.123505e-06	2.889709e-10	7.817872e+00	1.746096e+01
2.100000e-06	1.169208e-06	3.187706e-10	8.135899e+00	1.950997e+01
2.110000e-06	1.214799e-06	3.491641e-10	8.453142e+00	2.154948e+01
2.120000e-06	1.260345e-06	3.771901e-10	8.770074e+00	2.357700e+01
2.130000e-06	1.305810e-06	4.054075e-10	9.086436e+00	2.559009e+01
2.140000e-06	1.351199e-06	4.330445e-10	9.402279e+00	2.758647e+01
2.150000e-06	1.396562e-06	4.575730e-10	9.717930e+00	2.956391e+01
2.160000e-06	1.441797e-06	4.805153e-10	1.003270e+01	3.152033e+01
2.170000e-06	1.486919e-06	5.060525e-10	1.034668e+01	3.345378e+01
2.180000e-06	1.531942e-06	5.343926e-10	1.065997e+01	3.536242e+01
2.190000e-06	1.576831e-06	5.631570e-10	1.097233e+01	3.724456e+01
2.200000e-06	1.621613e-06	5.918553e-10	1.128394e+01	3.909865e+01
2.210000e-06	1.666279e-06	6.188319e-10	1.159475e+01	4.092329e+01
2.220000e-06	1.710787e-06	6.419343e-10	1.190446e+01	4.271721e+01
2.230000e-06	1.755117e-06	6.611209e-10	1.221293e+01	4.447930e+01
2.240000e-06	1.799306e-06	6.792400e-10	1.252041e+01	4.620857e+01
2.250000e-06	1.843366e-06	6.997812e-10	1.282700e+01	4.790417e+01
2.260000e-06	1.887327e-06	7.229099e-10	1.313291e+01	4.956540e+01
2.270000e-06	1.931249e-06	7.476210e-10	1.343853e+01	5.119168e+01
2.280000e-06	1.975104e-06	7.715413e-10	1.374370e+01	5.278254e+01
2.290000e-06	2.018874e-06	7.941958e-10	1.404827e+01	5.433763e+01
2.300000e-06	2.062549e-06	8.145941e-10	1.435218e+01	5.585671e+01
2.310000e-06	2.106153e-06	8.313203e-10	1.465560e+01	5.733965e+01
2.320000e-06	2.149691e-06	8.464538e-10	1.495856e+01	5.878639e+01
2.330000e-06	2.193135e-06	8.639165e-10	1.526086e+01	6.019697e+01
2.340000e-06	2.236429e-06	8.850691e-10	1.556212e+01	6.157151e+01
2.350000e-06	2.279575e-06	9.078152e-10	1.586235e+01	6.291018e+01
2.360000e-06	2.322537e-06	9.294151e-10	1.616130e+01	6.421323e+01
2.370000e-06	2.365163e-06	9.476354e-10	1.645791e+01	6.548097e+01
2.380000e-06	2.407449e-06	9.623868e-10	1.675216e+01	6.671373e+01
2.390000e-06	2.449504e-06	9.735241e-10	1.704480e+01	6.791190e+01
2.400000e-06	2.491334e-06	9.862004e-10	1.733587e+01	6.907592e+01
2.410000e-06	2.532816e-06	1.002300e-09	1.762452e+01	7.020622e+01
2.420000e-06	2.574005e-06	1.020853e-09	1.791113e+01	7.130329e+01
2.430000e-06	2.614937e-06	1.037726e-09	1.819596e+01	7.236763e+01
2.440000e-06	2.655640e-06	1.052197e-09	1.847919e+01	7.339976e+01
2.450000e-06	2.696123e-06	1.065766e-09	1.876089e+01	7.440019e+01
2.460000e-06	2.736395e-06	1.077865e-09	1.904112e+01	7.536946e+01
2.470000e-06	2.776493e-06	1.088809e-09	1.932014e+01	7.630814e+01
2.480000e-06	2.816423e-06	1.098695e-09	1.959799e+01	7.721676e+01
2.490000e-06	2.856209e-06	1.109921e-09	1.987484e+01	7.809588e+01
2.500000e-06	2.895878e-06	1.123126e-09	2.015088e+01	7.894607e+01
2.510000e-06	2.935428e-06	1.136404e-09	2.042609e+01	7.976789e+01
2.520000e-06	2.974795e-06	1.150984e-09	2.070002e+01	8.056190e+01
2.530000e-06	3.014005e-06	1.165554e-09	2.097286e+01	8.132869e+01
2.540000e-06	3.053017e-06	1.175967e-09	2.124432e+01	8.206882e+01
2.550000e-06	3.091796e-06	1.183337e-09	2.151417e+01	8.278289e+01
2.560000e-06	3.130383e-06	1.189665e-09	2.178267e+01	8.347147e+01
2.570000e-06	3.168724e-06	1.196572e-09	2.204947e+01	8.413516e+01
2.580000e-06	3.206756e-06	1.205523e-09	2.231411e+01	8.477456e+01
2.590000e-06	3.244548e-06	1.215910e-09	2.257708e+01	8.539029e+01
2.600000e-06	3.282175e-06	1.227023e-09	2.283891e+01	8.598298e+01
2.610000e-06	3.319613e-06	1.235875e-09	2.309943e+01	8.655326e+01
2.620000e-06	3.356789e-06	1.243566e-09	2.335811e+01	8.710179e+01
2.630000e-06	3.393766e-06	1.252052e-09	2.361541e+01	8.762924e+01
2.640000e-06	3.430446e-06	1.260070e-09	2.387065e+01	8.813630e+01
2.650000e-06	3.466829e-06	1.266000e-09	2.412382e+01	8.862366e+01
2.660000e-06	3.503040e-06	1.272224e-09	2.437579e+01	8.909207e+01
2.670000e-06	3.539101e-06	1.279678e-09	2.462673e+01	8.954225e+01
2.680000e-06	3.574995e-06	1.287646e-09	2.487649e+01	8.997498e+01
2.690000e-06	3.610697e-06	1.295828e-09	2.512492e+01	9.039103e+01
2.700000e-06	3.646286e-06	1.303396e-09	2.537257e+01	9.079121e+01
2.710000e-06	3.681712e-06	1.309816e-09	2.561908e+01	9.117632e+01
2.720000e-06	3.716909e-06	1.313797e-09	2.586399e+01	9.154721e+01
2.730000e-06	3.751760e-06	1.318578e-09	2.610650e+01	9.190470e+01
2.740000e-06	3.786187e-06	1.324283e-09	2.634606e+01	9.224966e+01
2.750000e-06	3.820176e-06	1.329945e-09	2.658258e+01	9.258293e+01
2.760000e-06	3.853798e-06	1.334608e-09	2.681653e+01	9.290537e+01
2.770000e-06	3.887021e-06	1.339071e-09	2.704771e+01	9.321783e+01
2.780000e-06	3.919765e-06	1.345112e-09	2.727556e+01	9.352115e+01
2.790000e-06	3.952181e-06	1.351926e-09	2.750113e+01	9.381616e+01
2.800000e-06	3.984379e-06	1.358154e-09	2.772518e+01	9.410366e+01
2.810000e-06	4.016336e-06	1.362908e-09	2.794755e+01	9.438442e+01
2.820000e-06	4.048048e-06	1.366417e-09	2.816822e+01	9.465920e+01
2.830000e-06	4.079580e-06	1.371928e-09	2.838763e+01	9.492868e+01
2.840000e-06	4.110886e-06	1.378101e-09	2.860547e+01	9.519353e+01
2.850000e-06	4.141953e-06	1.383035e-09	2.882165e+01	9.545435e+01
2.860000e-06	4.172743e-06	1.385502e-09	2.903590e+01	9.571167e+01
2.870000e-06	4.203179e-06	1.388333e-09	2.924769e+01	9.596597e+01
2.880000e-06	4.233305e-06	1.393538e-09	2.945732e+01	9.621765e+01
2.890000e-06	4.263183e-06	1.398299e-09	2.966523e+01	9.646704e+01
2.900000e-06	4.292878e-06	1.402895e-09	2.987186e+01	9.671439e+01
