# Temperatura_=_-11.34
# Concentracion g/m^3_=_1620.0
# C_Vs_to_Am_M_A/Vsm_=_65563218390.804596
# pendiente_HvsI_1/m_=_3716.3
# ordenada_HvsI_A/m_=_1297.0
# frecuencia_Hz_=_135104.6604143473

Tiempo_(s)	Campo_(V.s)	Magnetizacion_(V.s)	Campo_(kA/m)	Magnetizacion_(A/m)
0.000000e+00	-5.534740e-06	-1.059357e-09	-3.836951e+01	-6.891431e+01
1.000000e-08	-5.534826e-06	-1.055816e-09	-3.837010e+01	-6.889666e+01
2.000000e-08	-5.534685e-06	-1.055355e-09	-3.836913e+01	-6.888297e+01
3.000000e-08	-5.534090e-06	-1.056809e-09	-3.836500e+01	-6.887322e+01
4.000000e-08	-5.532878e-06	-1.057415e-09	-3.835661e+01	-6.886729e+01
5.000000e-08	-5.531036e-06	-1.056226e-09	-3.834383e+01	-6.886497e+01
6.000000e-08	-5.528595e-06	-1.056453e-09	-3.832691e+01	-6.886598e+01
7.000000e-08	-5.525652e-06	-1.047758e-09	-3.830651e+01	-6.886995e+01
8.000000e-08	-5.522255e-06	-1.028835e-09	-3.828296e+01	-6.887643e+01
9.000000e-08	-5.518460e-06	-1.046449e-09	-3.825665e+01	-6.888493e+01
1.000000e-07	-5.514255e-06	-1.107707e-09	-3.822750e+01	-6.889486e+01
1.100000e-07	-5.509708e-06	-1.082457e-09	-3.819598e+01	-6.890560e+01
1.200000e-07	-5.504983e-06	-1.006028e-09	-3.816322e+01	-6.891650e+01
1.300000e-07	-5.499993e-06	-9.722352e-10	-3.812863e+01	-6.892686e+01
1.400000e-07	-5.494661e-06	-1.073242e-09	-3.809166e+01	-6.893599e+01
1.500000e-07	-5.488904e-06	-1.092579e-09	-3.805175e+01	-6.894318e+01
1.600000e-07	-5.482738e-06	-1.019849e-09	-3.800901e+01	-6.894773e+01
1.700000e-07	-5.476267e-06	-9.905596e-10	-3.796415e+01	-6.894898e+01
1.800000e-07	-5.469352e-06	-1.069723e-09	-3.791621e+01	-6.894629e+01
1.900000e-07	-5.461970e-06	-1.088873e-09	-3.786503e+01	-6.893907e+01
2.000000e-07	-5.454336e-06	-1.013540e-09	-3.781211e+01	-6.892679e+01
2.100000e-07	-5.446456e-06	-1.006526e-09	-3.775749e+01	-6.890900e+01
2.200000e-07	-5.438265e-06	-1.058444e-09	-3.770070e+01	-6.888530e+01
2.300000e-07	-5.429800e-06	-1.087203e-09	-3.764201e+01	-6.885539e+01
2.400000e-07	-5.420819e-06	-1.022968e-09	-3.757975e+01	-6.881904e+01
2.500000e-07	-5.411123e-06	-1.007305e-09	-3.751254e+01	-6.877613e+01
2.600000e-07	-5.400765e-06	-1.028448e-09	-3.744073e+01	-6.872661e+01
2.700000e-07	-5.389849e-06	-1.060921e-09	-3.736506e+01	-6.867052e+01
2.800000e-07	-5.378452e-06	-1.030359e-09	-3.728605e+01	-6.860800e+01
2.900000e-07	-5.366655e-06	-1.022321e-09	-3.720427e+01	-6.853926e+01
3.000000e-07	-5.354527e-06	-1.031535e-09	-3.712019e+01	-6.846458e+01
3.100000e-07	-5.342050e-06	-1.053290e-09	-3.703369e+01	-6.838434e+01
3.200000e-07	-5.329105e-06	-1.022286e-09	-3.694395e+01	-6.829893e+01
3.300000e-07	-5.315728e-06	-1.009858e-09	-3.685122e+01	-6.820885e+01
3.400000e-07	-5.301963e-06	-1.031463e-09	-3.675579e+01	-6.811460e+01
3.500000e-07	-5.287783e-06	-1.051712e-09	-3.665749e+01	-6.801673e+01
3.600000e-07	-5.273124e-06	-1.015767e-09	-3.655586e+01	-6.791582e+01
3.700000e-07	-5.257905e-06	-1.014279e-09	-3.645036e+01	-6.781243e+01
3.800000e-07	-5.242191e-06	-1.044375e-09	-3.634142e+01	-6.770716e+01
3.900000e-07	-5.225944e-06	-1.027248e-09	-3.622879e+01	-6.760058e+01
4.000000e-07	-5.209280e-06	-9.908966e-10	-3.611326e+01	-6.749325e+01
4.100000e-07	-5.192419e-06	-1.036004e-09	-3.599638e+01	-6.738571e+01
4.200000e-07	-5.175276e-06	-1.062759e-09	-3.587754e+01	-6.727845e+01
4.300000e-07	-5.157786e-06	-9.994596e-10	-3.575628e+01	-6.717196e+01
4.400000e-07	-5.139915e-06	-1.004938e-09	-3.563239e+01	-6.706664e+01
4.500000e-07	-5.121574e-06	-1.062780e-09	-3.550524e+01	-6.696289e+01
4.600000e-07	-5.102792e-06	-1.027777e-09	-3.537504e+01	-6.686102e+01
4.700000e-07	-5.083678e-06	-9.703808e-10	-3.524253e+01	-6.676134e+01
4.800000e-07	-5.064295e-06	-1.029613e-09	-3.510816e+01	-6.666407e+01
4.900000e-07	-5.044677e-06	-1.038149e-09	-3.497216e+01	-6.656941e+01
5.000000e-07	-5.024860e-06	-9.886925e-10	-3.483478e+01	-6.647750e+01
5.100000e-07	-5.004806e-06	-1.007117e-09	-3.469575e+01	-6.638846e+01
5.200000e-07	-4.984427e-06	-1.046725e-09	-3.455447e+01	-6.630235e+01
5.300000e-07	-4.963622e-06	-9.891674e-10	-3.441024e+01	-6.621921e+01
5.400000e-07	-4.942392e-06	-9.880501e-10	-3.426307e+01	-6.613906e+01
5.500000e-07	-4.920789e-06	-1.034788e-09	-3.411331e+01	-6.606188e+01
5.600000e-07	-4.898854e-06	-1.009005e-09	-3.396124e+01	-6.598765e+01
5.700000e-07	-4.876597e-06	-9.688373e-10	-3.380694e+01	-6.591633e+01
5.800000e-07	-4.854079e-06	-1.014782e-09	-3.365084e+01	-6.584788e+01
5.900000e-07	-4.831248e-06	-1.018734e-09	-3.349256e+01	-6.578223e+01
6.000000e-07	-4.808086e-06	-9.803073e-10	-3.333200e+01	-6.571934e+01
6.100000e-07	-4.784665e-06	-9.895783e-10	-3.316962e+01	-6.565917e+01
6.200000e-07	-4.761027e-06	-1.010039e-09	-3.300576e+01	-6.560165e+01
6.300000e-07	-4.737180e-06	-9.818652e-10	-3.284044e+01	-6.554674e+01
6.400000e-07	-4.713024e-06	-9.833595e-10	-3.267298e+01	-6.549441e+01
6.500000e-07	-4.688395e-06	-1.002655e-09	-3.250224e+01	-6.544461e+01
6.600000e-07	-4.663278e-06	-9.940418e-10	-3.232811e+01	-6.539731e+01
6.700000e-07	-4.637591e-06	-9.865267e-10	-3.215004e+01	-6.535246e+01
6.800000e-07	-4.611307e-06	-9.939803e-10	-3.196782e+01	-6.531002e+01
6.900000e-07	-4.584583e-06	-9.881803e-10	-3.178256e+01	-6.526993e+01
7.000000e-07	-4.557454e-06	-9.789604e-10	-3.159449e+01	-6.523213e+01
7.100000e-07	-4.530043e-06	-9.817484e-10	-3.140446e+01	-6.519653e+01
7.200000e-07	-4.502417e-06	-9.807440e-10	-3.121295e+01	-6.516302e+01
7.300000e-07	-4.474584e-06	-9.823869e-10	-3.101999e+01	-6.513149e+01
7.400000e-07	-4.446547e-06	-9.874813e-10	-3.082562e+01	-6.510177e+01
7.500000e-07	-4.418304e-06	-9.889643e-10	-3.062983e+01	-6.507367e+01
7.600000e-07	-4.389782e-06	-9.826148e-10	-3.043211e+01	-6.504698e+01
7.700000e-07	-4.360915e-06	-9.809077e-10	-3.023198e+01	-6.502142e+01
7.800000e-07	-4.331699e-06	-9.714895e-10	-3.002945e+01	-6.499673e+01
7.900000e-07	-4.302142e-06	-9.694131e-10	-2.982454e+01	-6.497255e+01
8.000000e-07	-4.272325e-06	-9.732954e-10	-2.961783e+01	-6.494854e+01
8.100000e-07	-4.242280e-06	-9.764781e-10	-2.940955e+01	-6.492431e+01
8.200000e-07	-4.211925e-06	-9.664622e-10	-2.919912e+01	-6.489942e+01
8.300000e-07	-4.181183e-06	-9.682741e-10	-2.898600e+01	-6.487345e+01
8.400000e-07	-4.150128e-06	-9.733040e-10	-2.877070e+01	-6.484593e+01
8.500000e-07	-4.118923e-06	-9.744372e-10	-2.855438e+01	-6.481639e+01
8.600000e-07	-4.087579e-06	-9.683928e-10	-2.833708e+01	-6.478437e+01
8.700000e-07	-4.056009e-06	-9.697231e-10	-2.811823e+01	-6.474939e+01
8.800000e-07	-4.024220e-06	-9.650909e-10	-2.789785e+01	-6.471100e+01
8.900000e-07	-3.992236e-06	-9.600031e-10	-2.767612e+01	-6.466877e+01
9.000000e-07	-3.959968e-06	-9.614922e-10	-2.745242e+01	-6.462231e+01
9.100000e-07	-3.927262e-06	-9.656936e-10	-2.722569e+01	-6.457124e+01
9.200000e-07	-3.894096e-06	-9.600919e-10	-2.699577e+01	-6.451525e+01
9.300000e-07	-3.860611e-06	-9.587186e-10	-2.676363e+01	-6.445407e+01
9.400000e-07	-3.826789e-06	-9.626988e-10	-2.652916e+01	-6.438752e+01
9.500000e-07	-3.792455e-06	-9.588642e-10	-2.629115e+01	-6.431544e+01
9.600000e-07	-3.757616e-06	-9.483551e-10	-2.604962e+01	-6.423778e+01
9.700000e-07	-3.722490e-06	-9.441621e-10	-2.580611e+01	-6.415453e+01
9.800000e-07	-3.687169e-06	-9.411231e-10	-2.556125e+01	-6.406576e+01
9.900000e-07	-3.651604e-06	-9.368298e-10	-2.531469e+01	-6.397164e+01
1.000000e-06	-3.615881e-06	-9.399707e-10	-2.506705e+01	-6.387236e+01
1.010000e-06	-3.580061e-06	-9.459794e-10	-2.481873e+01	-6.376823e+01
1.020000e-06	-3.544139e-06	-9.458506e-10	-2.456970e+01	-6.365957e+01
1.030000e-06	-3.508028e-06	-9.420674e-10	-2.431936e+01	-6.354680e+01
1.040000e-06	-3.471579e-06	-9.424556e-10	-2.406667e+01	-6.343034e+01
1.050000e-06	-3.434777e-06	-9.367579e-10	-2.381155e+01	-6.331069e+01
1.060000e-06	-3.397760e-06	-9.307537e-10	-2.355493e+01	-6.318835e+01
1.070000e-06	-3.360553e-06	-9.304109e-10	-2.329699e+01	-6.306384e+01
1.080000e-06	-3.323146e-06	-9.328416e-10	-2.303767e+01	-6.293767e+01
1.090000e-06	-3.285493e-06	-9.290715e-10	-2.277664e+01	-6.281037e+01
1.100000e-06	-3.247441e-06	-9.282157e-10	-2.251284e+01	-6.268242e+01
1.110000e-06	-3.209154e-06	-9.252267e-10	-2.224741e+01	-6.255428e+01
1.120000e-06	-3.170748e-06	-9.188788e-10	-2.198117e+01	-6.242637e+01
1.130000e-06	-3.132139e-06	-9.121051e-10	-2.171351e+01	-6.229902e+01
1.140000e-06	-3.093251e-06	-9.123277e-10	-2.144392e+01	-6.217254e+01
1.150000e-06	-3.054076e-06	-9.127406e-10	-2.117234e+01	-6.204713e+01
1.160000e-06	-3.014715e-06	-9.112931e-10	-2.089947e+01	-6.192294e+01
1.170000e-06	-2.975292e-06	-9.076644e-10	-2.062617e+01	-6.179999e+01
1.180000e-06	-2.935836e-06	-9.063891e-10	-2.035264e+01	-6.167826e+01
1.190000e-06	-2.896259e-06	-9.056558e-10	-2.007828e+01	-6.155759e+01
1.200000e-06	-2.856526e-06	-9.060115e-10	-1.980283e+01	-6.143776e+01
1.210000e-06	-2.816635e-06	-9.044835e-10	-1.952629e+01	-6.131844e+01
1.220000e-06	-2.776613e-06	-9.026245e-10	-1.924883e+01	-6.119923e+01
1.230000e-06	-2.736397e-06	-9.015037e-10	-1.897003e+01	-6.107964e+01
1.240000e-06	-2.695978e-06	-8.990984e-10	-1.868983e+01	-6.095910e+01
1.250000e-06	-2.655284e-06	-8.943625e-10	-1.840772e+01	-6.083699e+01
1.260000e-06	-2.614237e-06	-8.889699e-10	-1.812317e+01	-6.071261e+01
1.270000e-06	-2.572821e-06	-8.844084e-10	-1.783605e+01	-6.058526e+01
1.280000e-06	-2.531164e-06	-8.807473e-10	-1.754726e+01	-6.045416e+01
1.290000e-06	-2.489298e-06	-8.783968e-10	-1.725702e+01	-6.031854e+01
1.300000e-06	-2.447002e-06	-8.765112e-10	-1.696381e+01	-6.017762e+01
1.310000e-06	-2.404387e-06	-8.746519e-10	-1.666838e+01	-6.003062e+01
1.320000e-06	-2.361652e-06	-8.724791e-10	-1.637212e+01	-5.987679e+01
1.330000e-06	-2.318763e-06	-8.685436e-10	-1.607479e+01	-5.971538e+01
1.340000e-06	-2.275602e-06	-8.651768e-10	-1.577558e+01	-5.954573e+01
1.350000e-06	-2.232217e-06	-8.672037e-10	-1.547482e+01	-5.936719e+01
1.360000e-06	-2.188683e-06	-8.674176e-10	-1.517302e+01	-5.917919e+01
1.370000e-06	-2.145055e-06	-8.645142e-10	-1.487057e+01	-5.898121e+01
1.380000e-06	-2.101346e-06	-8.597319e-10	-1.456756e+01	-5.877280e+01
1.390000e-06	-2.057566e-06	-8.532644e-10	-1.426405e+01	-5.855361e+01
1.400000e-06	-2.013758e-06	-8.454199e-10	-1.396035e+01	-5.832332e+01
1.410000e-06	-1.969856e-06	-8.387173e-10	-1.365600e+01	-5.808171e+01
1.420000e-06	-1.925826e-06	-8.325544e-10	-1.335076e+01	-5.782863e+01
1.430000e-06	-1.881687e-06	-8.311617e-10	-1.304477e+01	-5.756396e+01
1.440000e-06	-1.837458e-06	-8.296259e-10	-1.273815e+01	-5.728768e+01
1.450000e-06	-1.793153e-06	-8.256108e-10	-1.243101e+01	-5.699979e+01
1.460000e-06	-1.748783e-06	-8.176212e-10	-1.212341e+01	-5.670034e+01
1.470000e-06	-1.704201e-06	-8.076590e-10	-1.181435e+01	-5.638938e+01
1.480000e-06	-1.659428e-06	-7.992902e-10	-1.150396e+01	-5.606701e+01
1.490000e-06	-1.614499e-06	-7.908168e-10	-1.119249e+01	-5.573330e+01
1.500000e-06	-1.569387e-06	-7.826417e-10	-1.087976e+01	-5.538834e+01
1.510000e-06	-1.524185e-06	-7.783965e-10	-1.056639e+01	-5.503215e+01
1.520000e-06	-1.478876e-06	-7.746420e-10	-1.025229e+01	-5.466475e+01
1.530000e-06	-1.433484e-06	-7.682906e-10	-9.937606e+00	-5.428608e+01
1.540000e-06	-1.387980e-06	-7.588972e-10	-9.622153e+00	-5.389605e+01
1.550000e-06	-1.342355e-06	-7.473889e-10	-9.305860e+00	-5.349446e+01
1.560000e-06	-1.296677e-06	-7.360278e-10	-8.989196e+00	-5.308105e+01
1.570000e-06	-1.250903e-06	-7.277846e-10	-8.671867e+00	-5.265547e+01
1.580000e-06	-1.205039e-06	-7.207589e-10	-8.353920e+00	-5.221725e+01
1.590000e-06	-1.159159e-06	-7.137789e-10	-8.035857e+00	-5.176586e+01
1.600000e-06	-1.113166e-06	-7.082633e-10	-7.717006e+00	-5.130063e+01
1.610000e-06	-1.067086e-06	-7.036627e-10	-7.397559e+00	-5.082082e+01
1.620000e-06	-1.020941e-06	-6.999542e-10	-7.077658e+00	-5.032556e+01
1.630000e-06	-9.746911e-07	-6.950384e-10	-6.757033e+00	-4.981391e+01
1.640000e-06	-9.284135e-07	-6.871534e-10	-6.436214e+00	-4.928485e+01
1.650000e-06	-8.820304e-07	-6.748907e-10	-6.114664e+00	-4.873724e+01
1.660000e-06	-8.354837e-07	-6.618269e-10	-5.791980e+00	-4.816992e+01
1.670000e-06	-7.889196e-07	-6.481826e-10	-5.469175e+00	-4.758163e+01
1.680000e-06	-7.423358e-07	-6.360284e-10	-5.146233e+00	-4.697110e+01
1.690000e-06	-6.956948e-07	-6.257742e-10	-4.822895e+00	-4.633701e+01
1.700000e-06	-6.490592e-07	-6.159931e-10	-4.499594e+00	-4.567803e+01
1.710000e-06	-6.023583e-07	-6.074201e-10	-4.175841e+00	-4.499282e+01
1.720000e-06	-5.557062e-07	-5.981168e-10	-3.852426e+00	-4.428007e+01
1.730000e-06	-5.090953e-07	-5.851284e-10	-3.529296e+00	-4.353849e+01
1.740000e-06	-4.623623e-07	-5.700190e-10	-3.205320e+00	-4.276683e+01
1.750000e-06	-4.155670e-07	-5.547518e-10	-2.880913e+00	-4.196391e+01
1.760000e-06	-3.687619e-07	-5.403845e-10	-2.556437e+00	-4.112863e+01
1.770000e-06	-3.219088e-07	-5.278869e-10	-2.231629e+00	-4.025997e+01
1.780000e-06	-2.749528e-07	-5.166878e-10	-1.906106e+00	-3.935700e+01
1.790000e-06	-2.279831e-07	-5.034065e-10	-1.580490e+00	-3.841890e+01
1.800000e-06	-1.809606e-07	-4.889623e-10	-1.254507e+00	-3.744498e+01
1.810000e-06	-1.339099e-07	-4.740514e-10	-9.283289e-01	-3.643468e+01
1.820000e-06	-8.689991e-08	-4.587559e-10	-6.024325e-01	-3.538755e+01
1.830000e-06	-3.983736e-08	-4.428379e-10	-2.761719e-01	-3.430329e+01
1.840000e-06	7.254326e-09	-4.273744e-10	5.029052e-02	-3.318173e+01
1.850000e-06	5.424563e-08	-4.127641e-10	3.760571e-01	-3.202287e+01
1.860000e-06	1.011091e-07	-3.964043e-10	7.009377e-01	-3.082680e+01
1.870000e-06	1.480029e-07	-3.774198e-10	1.026028e+00	-2.959379e+01
1.880000e-06	1.949247e-07	-3.574765e-10	1.351313e+00	-2.832424e+01
1.890000e-06	2.417865e-07	-3.368147e-10	1.676182e+00	-2.701868e+01
1.900000e-06	2.886007e-07	-3.159236e-10	2.000721e+00	-2.567776e+01
1.910000e-06	3.354578e-07	-2.967112e-10	2.325557e+00	-2.430227e+01
1.920000e-06	3.823260e-07	-2.783975e-10	2.650470e+00	-2.289312e+01
1.930000e-06	4.292175e-07	-2.607125e-10	2.975545e+00	-2.145134e+01
1.940000e-06	4.760909e-07	-2.424406e-10	3.300494e+00	-1.997804e+01
1.950000e-06	5.228962e-07	-2.223588e-10	3.624971e+00	-1.847448e+01
1.960000e-06	5.696073e-07	-2.008797e-10	3.948795e+00	-1.694198e+01
1.970000e-06	6.161820e-07	-1.792093e-10	4.271673e+00	-1.538198e+01
1.980000e-06	6.627596e-07	-1.579527e-10	4.594572e+00	-1.379599e+01
1.990000e-06	7.092908e-07	-1.349372e-10	4.917149e+00	-1.218561e+01
2.000000e-06	7.557284e-07	-1.095209e-10	5.239077e+00	-1.055252e+01
2.010000e-06	8.021354e-07	-8.614699e-11	5.560793e+00	-8.898473e+00
2.020000e-06	8.485389e-07	-6.395634e-11	5.882485e+00	-7.225296e+00
2.030000e-06	8.948461e-07	-4.110445e-11	6.203509e+00	-5.534880e+00
2.040000e-06	9.410478e-07	-2.040071e-11	6.523802e+00	-3.829180e+00
2.050000e-06	9.872288e-07	-1.015351e-13	6.843950e+00	-2.110208e+00
2.060000e-06	1.033338e-06	2.429391e-11	7.163605e+00	-3.800362e-01
2.070000e-06	1.079341e-06	5.092571e-11	7.482520e+00	1.359215e+00
2.080000e-06	1.125251e-06	7.626489e-11	7.800786e+00	3.105376e+00
2.090000e-06	1.171081e-06	1.022430e-10	8.118504e+00	4.856235e+00
2.100000e-06	1.216815e-06	1.301550e-10	8.435556e+00	6.609542e+00
2.110000e-06	1.262498e-06	1.561708e-10	8.752247e+00	8.363015e+00
2.120000e-06	1.308184e-06	1.797511e-10	9.068966e+00	1.011435e+01
2.130000e-06	1.353767e-06	2.019830e-10	9.384972e+00	1.186122e+01
2.140000e-06	1.399227e-06	2.228373e-10	9.700120e+00	1.360129e+01
2.150000e-06	1.444597e-06	2.448164e-10	1.001465e+01	1.533224e+01
2.160000e-06	1.489928e-06	2.690676e-10	1.032890e+01	1.705173e+01
2.170000e-06	1.535158e-06	2.932592e-10	1.064247e+01	1.875747e+01
2.180000e-06	1.580190e-06	3.187017e-10	1.095464e+01	2.044719e+01
2.190000e-06	1.625162e-06	3.438654e-10	1.126641e+01	2.211867e+01
2.200000e-06	1.669986e-06	3.679692e-10	1.157716e+01	2.376973e+01
2.210000e-06	1.714587e-06	3.880309e-10	1.188635e+01	2.539829e+01
2.220000e-06	1.759065e-06	4.056066e-10	1.219470e+01	2.700233e+01
2.230000e-06	1.803370e-06	4.252881e-10	1.250184e+01	2.857995e+01
2.240000e-06	1.847593e-06	4.443776e-10	1.280841e+01	3.012934e+01
2.250000e-06	1.891755e-06	4.652658e-10	1.311456e+01	3.164882e+01
2.260000e-06	1.935749e-06	4.881256e-10	1.341955e+01	3.313686e+01
2.270000e-06	1.979642e-06	5.107666e-10	1.372384e+01	3.459206e+01
2.280000e-06	2.023487e-06	5.305346e-10	1.402780e+01	3.601317e+01
2.290000e-06	2.067278e-06	5.473848e-10	1.433138e+01	3.739911e+01
2.300000e-06	2.110989e-06	5.631956e-10	1.463440e+01	3.874900e+01
2.310000e-06	2.154641e-06	5.802537e-10	1.493702e+01	4.006208e+01
2.320000e-06	2.198245e-06	5.981037e-10	1.523930e+01	4.133781e+01
2.330000e-06	2.241794e-06	6.169309e-10	1.554121e+01	4.257582e+01
2.340000e-06	2.285210e-06	6.362439e-10	1.584219e+01	4.377590e+01
2.350000e-06	2.328427e-06	6.552008e-10	1.614179e+01	4.493804e+01
2.360000e-06	2.371440e-06	6.720700e-10	1.643997e+01	4.606237e+01
2.370000e-06	2.414153e-06	6.844712e-10	1.673609e+01	4.714921e+01
2.380000e-06	2.456566e-06	6.937450e-10	1.703011e+01	4.819901e+01
2.390000e-06	2.498728e-06	7.051190e-10	1.732240e+01	4.921235e+01
2.400000e-06	2.540608e-06	7.201206e-10	1.761273e+01	5.018998e+01
2.410000e-06	2.582143e-06	7.367649e-10	1.790067e+01	5.113270e+01
2.420000e-06	2.623289e-06	7.509031e-10	1.818592e+01	5.204145e+01
2.430000e-06	2.664235e-06	7.633747e-10	1.846977e+01	5.291723e+01
2.440000e-06	2.704909e-06	7.741521e-10	1.875174e+01	5.376110e+01
2.450000e-06	2.745219e-06	7.825218e-10	1.903120e+01	5.457416e+01
2.460000e-06	2.785379e-06	7.913262e-10	1.930960e+01	5.535756e+01
2.470000e-06	2.825445e-06	8.010023e-10	1.958736e+01	5.611242e+01
2.480000e-06	2.865349e-06	8.113778e-10	1.986400e+01	5.683988e+01
2.490000e-06	2.905054e-06	8.218264e-10	2.013925e+01	5.754103e+01
2.500000e-06	2.944621e-06	8.322270e-10	2.041355e+01	5.821695e+01
2.510000e-06	2.984052e-06	8.417355e-10	2.068690e+01	5.886865e+01
2.520000e-06	3.023299e-06	8.506377e-10	2.095898e+01	5.949708e+01
2.530000e-06	3.062377e-06	8.565795e-10	2.122989e+01	6.010312e+01
2.540000e-06	3.101261e-06	8.607454e-10	2.149945e+01	6.068758e+01
2.550000e-06	3.139892e-06	8.659912e-10	2.176726e+01	6.125117e+01
2.560000e-06	3.178321e-06	8.732394e-10	2.203367e+01	6.179454e+01
2.570000e-06	3.216542e-06	8.819899e-10	2.229864e+01	6.231823e+01
2.580000e-06	3.254530e-06	8.897802e-10	2.256199e+01	6.282272e+01
2.590000e-06	3.292317e-06	8.958781e-10	2.282394e+01	6.330839e+01
2.600000e-06	3.329904e-06	9.026134e-10	2.308452e+01	6.377557e+01
2.610000e-06	3.367210e-06	9.095471e-10	2.334314e+01	6.422452e+01
2.620000e-06	3.404293e-06	9.150743e-10	2.360021e+01	6.465543e+01
2.630000e-06	3.441247e-06	9.204090e-10	2.385640e+01	6.506846e+01
2.640000e-06	3.477924e-06	9.272390e-10	2.411066e+01	6.546376e+01
2.650000e-06	3.514290e-06	9.327210e-10	2.436277e+01	6.584141e+01
2.660000e-06	3.550418e-06	9.378409e-10	2.461322e+01	6.620154e+01
2.670000e-06	3.586309e-06	9.440596e-10	2.486204e+01	6.654424e+01
2.680000e-06	3.622059e-06	9.497391e-10	2.510988e+01	6.686965e+01
2.690000e-06	3.657749e-06	9.557180e-10	2.535729e+01	6.717793e+01
2.700000e-06	3.693277e-06	9.617084e-10	2.560359e+01	6.746926e+01
2.710000e-06	3.728562e-06	9.660834e-10	2.584820e+01	6.774391e+01
2.720000e-06	3.763627e-06	9.692658e-10	2.609129e+01	6.800218e+01
2.730000e-06	3.798369e-06	9.728378e-10	2.633214e+01	6.824442e+01
2.740000e-06	3.832700e-06	9.781941e-10	2.657014e+01	6.847109e+01
2.750000e-06	3.866531e-06	9.818321e-10	2.680468e+01	6.868269e+01
2.760000e-06	3.899897e-06	9.853027e-10	2.703598e+01	6.887978e+01
2.770000e-06	3.932878e-06	9.884234e-10	2.726463e+01	6.906301e+01
2.780000e-06	3.965385e-06	9.917471e-10	2.748998e+01	6.923309e+01
2.790000e-06	3.997511e-06	9.988605e-10	2.771269e+01	6.939077e+01
2.800000e-06	4.029438e-06	1.005412e-09	2.793402e+01	6.953686e+01
2.810000e-06	4.061190e-06	1.008108e-09	2.815415e+01	6.967222e+01
2.820000e-06	4.092778e-06	1.009763e-09	2.837313e+01	6.979771e+01
2.830000e-06	4.124213e-06	1.011514e-09	2.859105e+01	6.991424e+01
2.840000e-06	4.155380e-06	1.012108e-09	2.880712e+01	7.002269e+01
2.850000e-06	4.186328e-06	1.011998e-09	2.902166e+01	7.012396e+01
2.860000e-06	4.217024e-06	1.012996e-09	2.923446e+01	7.021890e+01
2.870000e-06	4.247342e-06	1.015154e-09	2.944464e+01	7.030836e+01
2.880000e-06	4.277364e-06	1.017568e-09	2.965277e+01	7.039309e+01
2.890000e-06	4.307103e-06	1.021646e-09	2.985893e+01	7.047384e+01
2.900000e-06	4.336545e-06	1.022991e-09	3.006304e+01	7.055124e+01
