# Temperatura_=_14.8
# Concentracion g/m^3_=_1620.0
# C_Vs_to_Am_M_A/Vsm_=_65563218390.804596
# pendiente_HvsI_1/m_=_3716.3
# ordenada_HvsI_A/m_=_1297.0
# frecuencia_Hz_=_135096.262700027

Tiempo_(s)	Campo_(V.s)	Magnetizacion_(V.s)	Campo_(kA/m)	Magnetizacion_(A/m)
0.000000e+00	-5.525661e-06	-1.631084e-09	-3.837675e+01	-1.072822e+02
1.000000e-08	-5.525750e-06	-1.623934e-09	-3.837737e+01	-1.072009e+02
2.000000e-08	-5.525557e-06	-1.622587e-09	-3.837603e+01	-1.071241e+02
3.000000e-08	-5.524980e-06	-1.623276e-09	-3.837202e+01	-1.070527e+02
4.000000e-08	-5.523933e-06	-1.624765e-09	-3.836475e+01	-1.069872e+02
5.000000e-08	-5.522348e-06	-1.622217e-09	-3.835374e+01	-1.069283e+02
6.000000e-08	-5.520168e-06	-1.613270e-09	-3.833860e+01	-1.068762e+02
7.000000e-08	-5.517320e-06	-1.612768e-09	-3.831882e+01	-1.068313e+02
8.000000e-08	-5.513898e-06	-1.650860e-09	-3.829505e+01	-1.067933e+02
9.000000e-08	-5.510030e-06	-1.667278e-09	-3.826819e+01	-1.067620e+02
1.000000e-07	-5.505814e-06	-1.631317e-09	-3.823891e+01	-1.067370e+02
1.100000e-07	-5.501372e-06	-1.592310e-09	-3.820806e+01	-1.067177e+02
1.200000e-07	-5.496753e-06	-1.569425e-09	-3.817598e+01	-1.067032e+02
1.300000e-07	-5.491790e-06	-1.624092e-09	-3.814151e+01	-1.066926e+02
1.400000e-07	-5.486401e-06	-1.638600e-09	-3.810408e+01	-1.066846e+02
1.500000e-07	-5.480720e-06	-1.619953e-09	-3.806463e+01	-1.066781e+02
1.600000e-07	-5.474677e-06	-1.614019e-09	-3.802266e+01	-1.066716e+02
1.700000e-07	-5.468087e-06	-1.609133e-09	-3.797689e+01	-1.066637e+02
1.800000e-07	-5.461081e-06	-1.640688e-09	-3.792823e+01	-1.066528e+02
1.900000e-07	-5.453783e-06	-1.603593e-09	-3.787754e+01	-1.066376e+02
2.000000e-07	-5.446177e-06	-1.619231e-09	-3.782472e+01	-1.066164e+02
2.100000e-07	-5.438278e-06	-1.626153e-09	-3.776986e+01	-1.065877e+02
2.200000e-07	-5.430116e-06	-1.657369e-09	-3.771317e+01	-1.065503e+02
2.300000e-07	-5.421588e-06	-1.628751e-09	-3.765395e+01	-1.065026e+02
2.400000e-07	-5.412470e-06	-1.620705e-09	-3.759061e+01	-1.064437e+02
2.500000e-07	-5.402676e-06	-1.612227e-09	-3.752259e+01	-1.063724e+02
2.600000e-07	-5.392289e-06	-1.628899e-09	-3.745045e+01	-1.062878e+02
2.700000e-07	-5.381366e-06	-1.621972e-09	-3.737459e+01	-1.061893e+02
2.800000e-07	-5.369949e-06	-1.621284e-09	-3.729530e+01	-1.060763e+02
2.900000e-07	-5.358147e-06	-1.621867e-09	-3.721333e+01	-1.059486e+02
3.000000e-07	-5.346033e-06	-1.612803e-09	-3.712920e+01	-1.058060e+02
3.100000e-07	-5.333492e-06	-1.612637e-09	-3.704210e+01	-1.056487e+02
3.200000e-07	-5.320485e-06	-1.598565e-09	-3.695177e+01	-1.054770e+02
3.300000e-07	-5.307129e-06	-1.606496e-09	-3.685900e+01	-1.052914e+02
3.400000e-07	-5.293394e-06	-1.595778e-09	-3.676361e+01	-1.050926e+02
3.500000e-07	-5.279114e-06	-1.608617e-09	-3.666443e+01	-1.048816e+02
3.600000e-07	-5.264522e-06	-1.606203e-09	-3.656309e+01	-1.046593e+02
3.700000e-07	-5.249447e-06	-1.604057e-09	-3.645839e+01	-1.044269e+02
3.800000e-07	-5.233621e-06	-1.577303e-09	-3.634847e+01	-1.041857e+02
3.900000e-07	-5.217371e-06	-1.583627e-09	-3.623562e+01	-1.039370e+02
4.000000e-07	-5.200763e-06	-1.583633e-09	-3.612027e+01	-1.036824e+02
4.100000e-07	-5.183824e-06	-1.581910e-09	-3.600263e+01	-1.034231e+02
4.200000e-07	-5.166598e-06	-1.565058e-09	-3.588299e+01	-1.031607e+02
4.300000e-07	-5.149026e-06	-1.579754e-09	-3.576095e+01	-1.028966e+02
4.400000e-07	-5.131181e-06	-1.568194e-09	-3.563701e+01	-1.026321e+02
4.500000e-07	-5.112984e-06	-1.564355e-09	-3.551063e+01	-1.023685e+02
4.600000e-07	-5.094257e-06	-1.554766e-09	-3.538057e+01	-1.021070e+02
4.700000e-07	-5.075151e-06	-1.559833e-09	-3.524787e+01	-1.018487e+02
4.800000e-07	-5.055791e-06	-1.543018e-09	-3.511341e+01	-1.015944e+02
4.900000e-07	-5.036179e-06	-1.547092e-09	-3.497721e+01	-1.013450e+02
5.000000e-07	-5.016397e-06	-1.541173e-09	-3.483982e+01	-1.011011e+02
5.100000e-07	-4.996353e-06	-1.531856e-09	-3.470061e+01	-1.008629e+02
5.200000e-07	-4.975873e-06	-1.525218e-09	-3.455837e+01	-1.006309e+02
5.300000e-07	-4.954971e-06	-1.538709e-09	-3.441320e+01	-1.004051e+02
5.400000e-07	-4.933731e-06	-1.526281e-09	-3.426568e+01	-1.001854e+02
5.500000e-07	-4.912163e-06	-1.515482e-09	-3.411589e+01	-9.997142e+01
5.600000e-07	-4.890305e-06	-1.520416e-09	-3.396408e+01	-9.976285e+01
5.700000e-07	-4.868170e-06	-1.515719e-09	-3.381035e+01	-9.955907e+01
5.800000e-07	-4.845646e-06	-1.498869e-09	-3.365392e+01	-9.935939e+01
5.900000e-07	-4.822705e-06	-1.501649e-09	-3.349459e+01	-9.916300e+01
6.000000e-07	-4.799530e-06	-1.503805e-09	-3.333363e+01	-9.896900e+01
6.100000e-07	-4.776168e-06	-1.486778e-09	-3.317138e+01	-9.877641e+01
6.200000e-07	-4.752499e-06	-1.488887e-09	-3.300699e+01	-9.858421e+01
6.300000e-07	-4.728569e-06	-1.494626e-09	-3.284080e+01	-9.839136e+01
6.400000e-07	-4.704355e-06	-1.484727e-09	-3.267263e+01	-9.819681e+01
6.500000e-07	-4.679773e-06	-1.472998e-09	-3.250190e+01	-9.799953e+01
6.600000e-07	-4.654768e-06	-1.486768e-09	-3.232823e+01	-9.779854e+01
6.700000e-07	-4.629310e-06	-1.479499e-09	-3.215142e+01	-9.759291e+01
6.800000e-07	-4.603235e-06	-1.470974e-09	-3.197033e+01	-9.738177e+01
6.900000e-07	-4.576584e-06	-1.471453e-09	-3.178523e+01	-9.716437e+01
7.000000e-07	-4.549491e-06	-1.474730e-09	-3.159707e+01	-9.694005e+01
7.100000e-07	-4.522021e-06	-1.455224e-09	-3.140628e+01	-9.670826e+01
7.200000e-07	-4.494367e-06	-1.455346e-09	-3.121422e+01	-9.646858e+01
7.300000e-07	-4.466605e-06	-1.454235e-09	-3.102141e+01	-9.622070e+01
7.400000e-07	-4.438669e-06	-1.446271e-09	-3.082739e+01	-9.596446e+01
7.500000e-07	-4.410508e-06	-1.436281e-09	-3.063180e+01	-9.569981e+01
7.600000e-07	-4.382021e-06	-1.444187e-09	-3.043396e+01	-9.542682e+01
7.700000e-07	-4.353154e-06	-1.436028e-09	-3.023347e+01	-9.514569e+01
7.800000e-07	-4.323953e-06	-1.427901e-09	-3.003066e+01	-9.485672e+01
7.900000e-07	-4.294477e-06	-1.426130e-09	-2.982594e+01	-9.456030e+01
8.000000e-07	-4.264797e-06	-1.423139e-09	-2.961981e+01	-9.425690e+01
8.100000e-07	-4.234866e-06	-1.407106e-09	-2.941194e+01	-9.394707e+01
8.200000e-07	-4.204611e-06	-1.402773e-09	-2.920181e+01	-9.363142e+01
8.300000e-07	-4.173963e-06	-1.400252e-09	-2.898896e+01	-9.331057e+01
8.400000e-07	-4.142980e-06	-1.393529e-09	-2.877377e+01	-9.298519e+01
8.500000e-07	-4.111747e-06	-1.390716e-09	-2.855685e+01	-9.265595e+01
8.600000e-07	-4.080341e-06	-1.389640e-09	-2.833873e+01	-9.232350e+01
8.700000e-07	-4.048756e-06	-1.378584e-09	-2.811937e+01	-9.198847e+01
8.800000e-07	-4.016960e-06	-1.368906e-09	-2.789854e+01	-9.165146e+01
8.900000e-07	-3.984948e-06	-1.367536e-09	-2.767621e+01	-9.131300e+01
9.000000e-07	-3.952731e-06	-1.359878e-09	-2.745246e+01	-9.097357e+01
9.100000e-07	-3.920254e-06	-1.351577e-09	-2.722690e+01	-9.063359e+01
9.200000e-07	-3.887377e-06	-1.347965e-09	-2.699856e+01	-9.029338e+01
9.300000e-07	-3.854082e-06	-1.347234e-09	-2.676732e+01	-8.995319e+01
9.400000e-07	-3.820311e-06	-1.338108e-09	-2.653277e+01	-8.961319e+01
9.500000e-07	-3.786072e-06	-1.333882e-09	-2.629498e+01	-8.927343e+01
9.600000e-07	-3.751487e-06	-1.328303e-09	-2.605478e+01	-8.893391e+01
9.700000e-07	-3.716480e-06	-1.320048e-09	-2.581165e+01	-8.859452e+01
9.800000e-07	-3.681046e-06	-1.310055e-09	-2.556555e+01	-8.825509e+01
9.900000e-07	-3.645440e-06	-1.304645e-09	-2.531826e+01	-8.791536e+01
1.000000e-06	-3.609726e-06	-1.290799e-09	-2.507022e+01	-8.757501e+01
1.010000e-06	-3.573813e-06	-1.285422e-09	-2.482080e+01	-8.723366e+01
1.020000e-06	-3.537805e-06	-1.283760e-09	-2.457072e+01	-8.689088e+01
1.030000e-06	-3.501658e-06	-1.284225e-09	-2.431967e+01	-8.654621e+01
1.040000e-06	-3.465313e-06	-1.279681e-09	-2.406725e+01	-8.619915e+01
1.050000e-06	-3.428746e-06	-1.274020e-09	-2.381328e+01	-8.584919e+01
1.060000e-06	-3.391806e-06	-1.264183e-09	-2.355673e+01	-8.549582e+01
1.070000e-06	-3.354511e-06	-1.252964e-09	-2.329770e+01	-8.513852e+01
1.080000e-06	-3.316998e-06	-1.245021e-09	-2.303717e+01	-8.477680e+01
1.090000e-06	-3.279282e-06	-1.241949e-09	-2.277522e+01	-8.441017e+01
1.100000e-06	-3.241376e-06	-1.236950e-09	-2.251196e+01	-8.403818e+01
1.110000e-06	-3.203338e-06	-1.231878e-09	-2.224778e+01	-8.366043e+01
1.120000e-06	-3.165020e-06	-1.225681e-09	-2.198166e+01	-8.327655e+01
1.130000e-06	-3.126419e-06	-1.216832e-09	-2.171357e+01	-8.288621e+01
1.140000e-06	-3.087583e-06	-1.206635e-09	-2.144384e+01	-8.248913e+01
1.150000e-06	-3.048536e-06	-1.199313e-09	-2.117265e+01	-8.208510e+01
1.160000e-06	-3.009398e-06	-1.190307e-09	-2.090083e+01	-8.167394e+01
1.170000e-06	-2.970072e-06	-1.181074e-09	-2.062771e+01	-8.125553e+01
1.180000e-06	-2.930545e-06	-1.180287e-09	-2.035318e+01	-8.082979e+01
1.190000e-06	-2.890906e-06	-1.179933e-09	-2.007788e+01	-8.039668e+01
1.200000e-06	-2.851081e-06	-1.172965e-09	-1.980129e+01	-7.995621e+01
1.210000e-06	-2.811120e-06	-1.161839e-09	-1.952376e+01	-7.950843e+01
1.220000e-06	-2.771048e-06	-1.150292e-09	-1.924545e+01	-7.905340e+01
1.230000e-06	-2.730777e-06	-1.138567e-09	-1.896575e+01	-7.859120e+01
1.240000e-06	-2.690356e-06	-1.132542e-09	-1.868502e+01	-7.812196e+01
1.250000e-06	-2.649729e-06	-1.129540e-09	-1.840286e+01	-7.764577e+01
1.260000e-06	-2.608781e-06	-1.127520e-09	-1.811847e+01	-7.716276e+01
1.270000e-06	-2.567542e-06	-1.122055e-09	-1.783206e+01	-7.667304e+01
1.280000e-06	-2.526003e-06	-1.114659e-09	-1.754356e+01	-7.617669e+01
1.290000e-06	-2.484238e-06	-1.101859e-09	-1.725350e+01	-7.567381e+01
1.300000e-06	-2.442196e-06	-1.087933e-09	-1.696151e+01	-7.516445e+01
1.310000e-06	-2.399727e-06	-1.076484e-09	-1.666655e+01	-7.464863e+01
1.320000e-06	-2.356961e-06	-1.069297e-09	-1.636953e+01	-7.412636e+01
1.330000e-06	-2.313995e-06	-1.061735e-09	-1.607113e+01	-7.359760e+01
1.340000e-06	-2.270780e-06	-1.055897e-09	-1.577099e+01	-7.306226e+01
1.350000e-06	-2.227346e-06	-1.050293e-09	-1.546933e+01	-7.252023e+01
1.360000e-06	-2.183780e-06	-1.042001e-09	-1.516676e+01	-7.197135e+01
1.370000e-06	-2.140101e-06	-1.031038e-09	-1.486340e+01	-7.141540e+01
1.380000e-06	-2.096327e-06	-1.020809e-09	-1.455938e+01	-7.085215e+01
1.390000e-06	-2.052517e-06	-1.010097e-09	-1.425511e+01	-7.028129e+01
1.400000e-06	-2.008685e-06	-9.981495e-10	-1.395069e+01	-6.970249e+01
1.410000e-06	-1.964800e-06	-9.838095e-10	-1.364591e+01	-6.911538e+01
1.420000e-06	-1.920835e-06	-9.689826e-10	-1.334056e+01	-6.851954e+01
1.430000e-06	-1.876756e-06	-9.581142e-10	-1.303442e+01	-6.791451e+01
1.440000e-06	-1.832616e-06	-9.510456e-10	-1.272786e+01	-6.729980e+01
1.450000e-06	-1.788407e-06	-9.443510e-10	-1.242082e+01	-6.667488e+01
1.460000e-06	-1.743989e-06	-9.342905e-10	-1.211233e+01	-6.603919e+01
1.470000e-06	-1.699429e-06	-9.209168e-10	-1.180285e+01	-6.539215e+01
1.480000e-06	-1.654791e-06	-9.050677e-10	-1.149283e+01	-6.473311e+01
1.490000e-06	-1.610022e-06	-8.875747e-10	-1.118190e+01	-6.406144e+01
1.500000e-06	-1.564985e-06	-8.714503e-10	-1.086912e+01	-6.337645e+01
1.510000e-06	-1.519749e-06	-8.598002e-10	-1.055494e+01	-6.267744e+01
1.520000e-06	-1.474584e-06	-8.508472e-10	-1.024126e+01	-6.196367e+01
1.530000e-06	-1.429364e-06	-8.417069e-10	-9.927197e+00	-6.123438e+01
1.540000e-06	-1.383951e-06	-8.281828e-10	-9.611800e+00	-6.048880e+01
1.550000e-06	-1.338426e-06	-8.131225e-10	-9.295621e+00	-5.972612e+01
1.560000e-06	-1.292852e-06	-7.992546e-10	-8.979096e+00	-5.894550e+01
1.570000e-06	-1.247253e-06	-7.876889e-10	-8.662404e+00	-5.814610e+01
1.580000e-06	-1.201586e-06	-7.748869e-10	-8.345237e+00	-5.732704e+01
1.590000e-06	-1.155783e-06	-7.614699e-10	-8.027131e+00	-5.648742e+01
1.600000e-06	-1.109896e-06	-7.502645e-10	-7.708437e+00	-5.562634e+01
1.610000e-06	-1.063877e-06	-7.394462e-10	-7.388825e+00	-5.474285e+01
1.620000e-06	-1.017744e-06	-7.300880e-10	-7.068426e+00	-5.383602e+01
1.630000e-06	-9.716022e-07	-7.195583e-10	-6.747959e+00	-5.290487e+01
1.640000e-06	-9.253888e-07	-7.050963e-10	-6.426998e+00	-5.194844e+01
1.650000e-06	-8.791588e-07	-6.865633e-10	-6.105922e+00	-5.096575e+01
1.660000e-06	-8.328159e-07	-6.664808e-10	-5.784062e+00	-4.995582e+01
1.670000e-06	-7.864139e-07	-6.474293e-10	-5.461792e+00	-4.891768e+01
1.680000e-06	-7.400053e-07	-6.299431e-10	-5.139475e+00	-4.785034e+01
1.690000e-06	-6.935386e-07	-6.135097e-10	-4.816756e+00	-4.675287e+01
1.700000e-06	-6.470825e-07	-5.970711e-10	-4.494109e+00	-4.562433e+01
1.710000e-06	-6.006216e-07	-5.818457e-10	-4.171429e+00	-4.446381e+01
1.720000e-06	-5.541237e-07	-5.630937e-10	-3.848493e+00	-4.327045e+01
1.730000e-06	-5.075109e-07	-5.402137e-10	-3.524758e+00	-4.204342e+01
1.740000e-06	-4.608450e-07	-5.167800e-10	-3.200655e+00	-4.078196e+01
1.750000e-06	-4.141179e-07	-4.943257e-10	-2.876126e+00	-3.948534e+01
1.760000e-06	-3.672880e-07	-4.740212e-10	-2.550884e+00	-3.815292e+01
1.770000e-06	-3.204699e-07	-4.552870e-10	-2.225723e+00	-3.678415e+01
1.780000e-06	-2.736570e-07	-4.345636e-10	-1.900599e+00	-3.537855e+01
1.790000e-06	-2.267796e-07	-4.125940e-10	-1.575027e+00	-3.393572e+01
1.800000e-06	-1.797836e-07	-3.887205e-10	-1.248631e+00	-3.245538e+01
1.810000e-06	-1.327743e-07	-3.651656e-10	-9.221426e-01	-3.093738e+01
1.820000e-06	-8.590604e-08	-3.434148e-10	-5.966335e-01	-2.938164e+01
1.830000e-06	-3.913219e-08	-3.219021e-10	-2.717804e-01	-2.778823e+01
1.840000e-06	7.642508e-09	-3.005605e-10	5.307864e-02	-2.615736e+01
1.850000e-06	5.448953e-08	-2.779784e-10	3.784400e-01	-2.448934e+01
1.860000e-06	1.013379e-07	-2.536705e-10	7.038110e-01	-2.278464e+01
1.870000e-06	1.481315e-07	-2.279919e-10	1.028801e+00	-2.104388e+01
1.880000e-06	1.948432e-07	-2.017023e-10	1.353222e+00	-1.926779e+01
1.890000e-06	2.414904e-07	-1.744897e-10	1.677196e+00	-1.745727e+01
1.900000e-06	2.882481e-07	-1.474898e-10	2.001937e+00	-1.561337e+01
1.910000e-06	3.351008e-07	-1.214132e-10	2.327338e+00	-1.373725e+01
1.920000e-06	3.819215e-07	-9.435449e-11	2.652516e+00	-1.183025e+01
1.930000e-06	4.286675e-07	-6.690862e-11	2.977176e+00	-9.893827e+00
1.940000e-06	4.753365e-07	-3.930835e-11	3.301301e+00	-7.929583e+00
1.950000e-06	5.220097e-07	-1.327514e-11	3.625455e+00	-5.939252e+00
1.960000e-06	5.685919e-07	1.164954e-11	3.948977e+00	-3.924696e+00
1.970000e-06	6.150436e-07	3.778335e-11	4.271593e+00	-1.887896e+00
1.980000e-06	6.614663e-07	6.561774e-11	4.594007e+00	1.690504e-01
1.990000e-06	7.078074e-07	9.804896e-11	4.915855e+00	2.243939e+00
2.000000e-06	7.540461e-07	1.333873e-10	5.236991e+00	4.334465e+00
2.010000e-06	8.002888e-07	1.669393e-10	5.558155e+00	6.438236e+00
2.020000e-06	8.466165e-07	1.969631e-10	5.879910e+00	8.552777e+00
2.030000e-06	8.928668e-07	2.242944e-10	6.201127e+00	1.067554e+01
2.040000e-06	9.390180e-07	2.494184e-10	6.521656e+00	1.280393e+01
2.050000e-06	9.851363e-07	2.739032e-10	6.841956e+00	1.493529e+01
2.060000e-06	1.031090e-06	3.014919e-10	7.161111e+00	1.706693e+01
2.070000e-06	1.076959e-06	3.345335e-10	7.479681e+00	1.919613e+01
2.080000e-06	1.122813e-06	3.694441e-10	7.798146e+00	2.132018e+01
2.090000e-06	1.168575e-06	4.033633e-10	8.115971e+00	2.343634e+01
2.100000e-06	1.214342e-06	4.345023e-10	8.433830e+00	2.554192e+01
2.110000e-06	1.260071e-06	4.613883e-10	8.751428e+00	2.763422e+01
2.120000e-06	1.305658e-06	4.868075e-10	9.068036e+00	2.971062e+01
2.130000e-06	1.351132e-06	5.120568e-10	9.383862e+00	3.176852e+01
2.140000e-06	1.396514e-06	5.363289e-10	9.699053e+00	3.380542e+01
2.150000e-06	1.441808e-06	5.623590e-10	1.001363e+01	3.581888e+01
2.160000e-06	1.486962e-06	5.913671e-10	1.032723e+01	3.780658e+01
2.170000e-06	1.532087e-06	6.217205e-10	1.064063e+01	3.976628e+01
2.180000e-06	1.577152e-06	6.512867e-10	1.095362e+01	4.169589e+01
2.190000e-06	1.621899e-06	6.784781e-10	1.126439e+01	4.359344e+01
2.200000e-06	1.666474e-06	7.034490e-10	1.157397e+01	4.545711e+01
2.210000e-06	1.711026e-06	7.266670e-10	1.188339e+01	4.728523e+01
2.220000e-06	1.755451e-06	7.487312e-10	1.219193e+01	4.907631e+01
2.230000e-06	1.799750e-06	7.696453e-10	1.249960e+01	5.082901e+01
2.240000e-06	1.843958e-06	7.902820e-10	1.280664e+01	5.254220e+01
2.250000e-06	1.888084e-06	8.128551e-10	1.311309e+01	5.421491e+01
2.260000e-06	1.932064e-06	8.372843e-10	1.341854e+01	5.584638e+01
2.270000e-06	1.975928e-06	8.614704e-10	1.372319e+01	5.743604e+01
2.280000e-06	2.019820e-06	8.844910e-10	1.402802e+01	5.898349e+01
2.290000e-06	2.063689e-06	9.049008e-10	1.433270e+01	6.048856e+01
2.300000e-06	2.107439e-06	9.223182e-10	1.463656e+01	6.195123e+01
2.310000e-06	2.151099e-06	9.381260e-10	1.493979e+01	6.337169e+01
2.320000e-06	2.194632e-06	9.549564e-10	1.524213e+01	6.475029e+01
2.330000e-06	2.238021e-06	9.740543e-10	1.554347e+01	6.608756e+01
2.340000e-06	2.281274e-06	9.956506e-10	1.584387e+01	6.738418e+01
2.350000e-06	2.324315e-06	1.017369e-09	1.614281e+01	6.864098e+01
2.360000e-06	2.367129e-06	1.036266e-09	1.644016e+01	6.985890e+01
2.370000e-06	2.409609e-06	1.053359e-09	1.673519e+01	7.103902e+01
2.380000e-06	2.451737e-06	1.064559e-09	1.702777e+01	7.218251e+01
2.390000e-06	2.493629e-06	1.076232e-09	1.731872e+01	7.329060e+01
2.400000e-06	2.535322e-06	1.088947e-09	1.760828e+01	7.436462e+01
2.410000e-06	2.576771e-06	1.102054e-09	1.789615e+01	7.540590e+01
2.420000e-06	2.617800e-06	1.115686e-09	1.818111e+01	7.641583e+01
2.430000e-06	2.658428e-06	1.129098e-09	1.846328e+01	7.739578e+01
2.440000e-06	2.698890e-06	1.143884e-09	1.874429e+01	7.834713e+01
2.450000e-06	2.739185e-06	1.157215e-09	1.902415e+01	7.927120e+01
2.460000e-06	2.779221e-06	1.169087e-09	1.930221e+01	8.016928e+01
2.470000e-06	2.819145e-06	1.177154e-09	1.957949e+01	8.104259e+01
2.480000e-06	2.858980e-06	1.183494e-09	1.985615e+01	8.189229e+01
2.490000e-06	2.898674e-06	1.191403e-09	2.013184e+01	8.271942e+01
2.500000e-06	2.938197e-06	1.203353e-09	2.040633e+01	8.352495e+01
2.510000e-06	2.977588e-06	1.217209e-09	2.067990e+01	8.430973e+01
2.520000e-06	3.016884e-06	1.232208e-09	2.095283e+01	8.507450e+01
2.530000e-06	3.056021e-06	1.246761e-09	2.122464e+01	8.581987e+01
2.540000e-06	3.094932e-06	1.256342e-09	2.149488e+01	8.654638e+01
2.550000e-06	3.133564e-06	1.259604e-09	2.176319e+01	8.725441e+01
2.560000e-06	3.171922e-06	1.261330e-09	2.202959e+01	8.794425e+01
2.570000e-06	3.209980e-06	1.266703e-09	2.229391e+01	8.861611e+01
2.580000e-06	3.247825e-06	1.276991e-09	2.255675e+01	8.927008e+01
2.590000e-06	3.285541e-06	1.288724e-09	2.281870e+01	8.990618e+01
2.600000e-06	3.323104e-06	1.303071e-09	2.307958e+01	9.052439e+01
2.610000e-06	3.360421e-06	1.314350e-09	2.333875e+01	9.112460e+01
2.620000e-06	3.397480e-06	1.321435e-09	2.359614e+01	9.170669e+01
2.630000e-06	3.434340e-06	1.328339e-09	2.385213e+01	9.227052e+01
2.640000e-06	3.470915e-06	1.333365e-09	2.410616e+01	9.281595e+01
2.650000e-06	3.507212e-06	1.337456e-09	2.435824e+01	9.334284e+01
2.660000e-06	3.543325e-06	1.343118e-09	2.460905e+01	9.385112e+01
2.670000e-06	3.579266e-06	1.351715e-09	2.485867e+01	9.434072e+01
2.680000e-06	3.615057e-06	1.362324e-09	2.510725e+01	9.481168e+01
2.690000e-06	3.650769e-06	1.373460e-09	2.535527e+01	9.526410e+01
2.700000e-06	3.686367e-06	1.381435e-09	2.560251e+01	9.569816e+01
2.710000e-06	3.721699e-06	1.386759e-09	2.584790e+01	9.611415e+01
2.720000e-06	3.756708e-06	1.390965e-09	2.609104e+01	9.651246e+01
2.730000e-06	3.791400e-06	1.395202e-09	2.633198e+01	9.689360e+01
2.740000e-06	3.825655e-06	1.400921e-09	2.656989e+01	9.725819e+01
2.750000e-06	3.859434e-06	1.405424e-09	2.680449e+01	9.760695e+01
2.760000e-06	3.892714e-06	1.409158e-09	2.703562e+01	9.794070e+01
2.770000e-06	3.925462e-06	1.413514e-09	2.726307e+01	9.826039e+01
2.780000e-06	3.957807e-06	1.418477e-09	2.748771e+01	9.856704e+01
2.790000e-06	3.989906e-06	1.424784e-09	2.771064e+01	9.886173e+01
2.800000e-06	4.021797e-06	1.430536e-09	2.793213e+01	9.914564e+01
2.810000e-06	4.053547e-06	1.434471e-09	2.815264e+01	9.941998e+01
2.820000e-06	4.085185e-06	1.437508e-09	2.837237e+01	9.968597e+01
2.830000e-06	4.116612e-06	1.440473e-09	2.859064e+01	9.994487e+01
2.840000e-06	4.147795e-06	1.441574e-09	2.880721e+01	1.001979e+02
2.850000e-06	4.178723e-06	1.441031e-09	2.902201e+01	1.004463e+02
2.860000e-06	4.209265e-06	1.443209e-09	2.923413e+01	1.006911e+02
2.870000e-06	4.239408e-06	1.449369e-09	2.944348e+01	1.009336e+02
2.880000e-06	4.269283e-06	1.454630e-09	2.965097e+01	1.011745e+02
2.890000e-06	4.298952e-06	1.459815e-09	2.985703e+01	1.014149e+02
2.900000e-06	4.328419e-06	1.462601e-09	3.006168e+01	1.016555e+02
