# Temperatura_=_14.3
# Concentracion g/m^3_=_1620.0
# C_Vs_to_Am_M_A/Vsm_=_65563218390.804596
# pendiente_HvsI_1/m_=_3716.3
# ordenada_HvsI_A/m_=_1297.0
# frecuencia_Hz_=_135094.41787801718

Tiempo_(s)	Campo_(V.s)	Magnetizacion_(V.s)	Campo_(kA/m)	Magnetizacion_(A/m)
0.000000e+00	-5.517238e-06	-1.656356e-09	-3.837384e+01	-1.075308e+02
1.000000e-08	-5.517479e-06	-1.657613e-09	-3.837552e+01	-1.075047e+02
2.000000e-08	-5.517429e-06	-1.658406e-09	-3.837516e+01	-1.074809e+02
3.000000e-08	-5.516984e-06	-1.656704e-09	-3.837207e+01	-1.074598e+02
4.000000e-08	-5.516133e-06	-1.653112e-09	-3.836615e+01	-1.074417e+02
5.000000e-08	-5.514782e-06	-1.646564e-09	-3.835675e+01	-1.074266e+02
6.000000e-08	-5.512798e-06	-1.639694e-09	-3.834296e+01	-1.074147e+02
7.000000e-08	-5.510246e-06	-1.661524e-09	-3.832521e+01	-1.074059e+02
8.000000e-08	-5.507214e-06	-1.683720e-09	-3.830412e+01	-1.074000e+02
9.000000e-08	-5.503585e-06	-1.657054e-09	-3.827887e+01	-1.073968e+02
1.000000e-07	-5.499507e-06	-1.616374e-09	-3.825051e+01	-1.073959e+02
1.100000e-07	-5.495185e-06	-1.631482e-09	-3.822045e+01	-1.073968e+02
1.200000e-07	-5.490623e-06	-1.598670e-09	-3.818872e+01	-1.073990e+02
1.300000e-07	-5.485792e-06	-1.636644e-09	-3.815512e+01	-1.074017e+02
1.400000e-07	-5.480589e-06	-1.640579e-09	-3.811894e+01	-1.074043e+02
1.500000e-07	-5.474999e-06	-1.667156e-09	-3.808006e+01	-1.074058e+02
1.600000e-07	-5.469071e-06	-1.633217e-09	-3.803882e+01	-1.074053e+02
1.700000e-07	-5.462777e-06	-1.609500e-09	-3.799505e+01	-1.074019e+02
1.800000e-07	-5.455974e-06	-1.655106e-09	-3.794773e+01	-1.073945e+02
1.900000e-07	-5.448731e-06	-1.637402e-09	-3.789735e+01	-1.073822e+02
2.000000e-07	-5.441301e-06	-1.613349e-09	-3.784568e+01	-1.073638e+02
2.100000e-07	-5.433673e-06	-1.622415e-09	-3.779262e+01	-1.073385e+02
2.200000e-07	-5.425737e-06	-1.698620e-09	-3.773742e+01	-1.073051e+02
2.300000e-07	-5.417478e-06	-1.684182e-09	-3.767998e+01	-1.072628e+02
2.400000e-07	-5.408743e-06	-1.634801e-09	-3.761923e+01	-1.072106e+02
2.500000e-07	-5.399378e-06	-1.599989e-09	-3.755409e+01	-1.071478e+02
2.600000e-07	-5.389415e-06	-1.646537e-09	-3.748479e+01	-1.070737e+02
2.700000e-07	-5.378915e-06	-1.651786e-09	-3.741177e+01	-1.069876e+02
2.800000e-07	-5.368008e-06	-1.648577e-09	-3.733591e+01	-1.068891e+02
2.900000e-07	-5.356661e-06	-1.617782e-09	-3.725698e+01	-1.067777e+02
3.000000e-07	-5.344735e-06	-1.620680e-09	-3.717403e+01	-1.066534e+02
3.100000e-07	-5.332328e-06	-1.607505e-09	-3.708774e+01	-1.065159e+02
3.200000e-07	-5.319650e-06	-1.609104e-09	-3.699956e+01	-1.063654e+02
3.300000e-07	-5.306559e-06	-1.595651e-09	-3.690851e+01	-1.062021e+02
3.400000e-07	-5.293063e-06	-1.608998e-09	-3.681464e+01	-1.060262e+02
3.500000e-07	-5.279325e-06	-1.635721e-09	-3.671909e+01	-1.058383e+02
3.600000e-07	-5.265075e-06	-1.628658e-09	-3.661998e+01	-1.056389e+02
3.700000e-07	-5.250235e-06	-1.589518e-09	-3.651676e+01	-1.054287e+02
3.800000e-07	-5.234994e-06	-1.597028e-09	-3.641075e+01	-1.052086e+02
3.900000e-07	-5.219223e-06	-1.611031e-09	-3.630106e+01	-1.049794e+02
4.000000e-07	-5.202841e-06	-1.557408e-09	-3.618712e+01	-1.047423e+02
4.100000e-07	-5.186104e-06	-1.562544e-09	-3.607071e+01	-1.044981e+02
4.200000e-07	-5.169130e-06	-1.623364e-09	-3.595265e+01	-1.042479e+02
4.300000e-07	-5.151849e-06	-1.602784e-09	-3.583246e+01	-1.039930e+02
4.400000e-07	-5.134235e-06	-1.546686e-09	-3.570995e+01	-1.037344e+02
4.500000e-07	-5.116269e-06	-1.609753e-09	-3.558499e+01	-1.034733e+02
4.600000e-07	-5.097882e-06	-1.608805e-09	-3.545711e+01	-1.032106e+02
4.700000e-07	-5.079027e-06	-1.522394e-09	-3.532596e+01	-1.029476e+02
4.800000e-07	-5.059803e-06	-1.543571e-09	-3.519226e+01	-1.026850e+02
4.900000e-07	-5.040334e-06	-1.611801e-09	-3.505685e+01	-1.024240e+02
5.000000e-07	-5.020608e-06	-1.528077e-09	-3.491964e+01	-1.021652e+02
5.100000e-07	-5.000638e-06	-1.511340e-09	-3.478075e+01	-1.019095e+02
5.200000e-07	-4.980423e-06	-1.601682e-09	-3.464015e+01	-1.016573e+02
5.300000e-07	-4.959845e-06	-1.575536e-09	-3.449702e+01	-1.014092e+02
5.400000e-07	-4.938929e-06	-1.496878e-09	-3.435154e+01	-1.011656e+02
5.500000e-07	-4.917700e-06	-1.563887e-09	-3.420389e+01	-1.009268e+02
5.600000e-07	-4.896031e-06	-1.569776e-09	-3.405318e+01	-1.006927e+02
5.700000e-07	-4.874084e-06	-1.487099e-09	-3.390053e+01	-1.004634e+02
5.800000e-07	-4.851836e-06	-1.518189e-09	-3.374579e+01	-1.002389e+02
5.900000e-07	-4.829213e-06	-1.568890e-09	-3.358844e+01	-1.000187e+02
6.000000e-07	-4.806241e-06	-1.494219e-09	-3.342867e+01	-9.980255e+01
6.100000e-07	-4.782958e-06	-1.488770e-09	-3.326672e+01	-9.959000e+01
6.200000e-07	-4.759475e-06	-1.547618e-09	-3.310339e+01	-9.938046e+01
6.300000e-07	-4.735743e-06	-1.510686e-09	-3.293834e+01	-9.917330e+01
6.400000e-07	-4.711750e-06	-1.479935e-09	-3.277146e+01	-9.896780e+01
6.500000e-07	-4.687494e-06	-1.525706e-09	-3.260275e+01	-9.876322e+01
6.600000e-07	-4.662791e-06	-1.513855e-09	-3.243094e+01	-9.855874e+01
6.700000e-07	-4.637607e-06	-1.478372e-09	-3.225577e+01	-9.835356e+01
6.800000e-07	-4.611935e-06	-1.504545e-09	-3.207722e+01	-9.814684e+01
6.900000e-07	-4.585610e-06	-1.502066e-09	-3.189412e+01	-9.793776e+01
7.000000e-07	-4.558850e-06	-1.469067e-09	-3.170800e+01	-9.772550e+01
7.100000e-07	-4.531688e-06	-1.480681e-09	-3.151908e+01	-9.750930e+01
7.200000e-07	-4.504108e-06	-1.492587e-09	-3.132725e+01	-9.728841e+01
7.300000e-07	-4.476372e-06	-1.465498e-09	-3.113434e+01	-9.706217e+01
7.400000e-07	-4.448528e-06	-1.467176e-09	-3.094068e+01	-9.682995e+01
7.500000e-07	-4.420523e-06	-1.470786e-09	-3.074589e+01	-9.659122e+01
7.600000e-07	-4.392336e-06	-1.450611e-09	-3.054985e+01	-9.634551e+01
7.700000e-07	-4.363822e-06	-1.442048e-09	-3.035153e+01	-9.609242e+01
7.800000e-07	-4.334940e-06	-1.451968e-09	-3.015064e+01	-9.583167e+01
7.900000e-07	-4.305662e-06	-1.434077e-09	-2.994701e+01	-9.556303e+01
8.000000e-07	-4.276084e-06	-1.425515e-09	-2.974129e+01	-9.528637e+01
8.100000e-07	-4.246312e-06	-1.430194e-09	-2.953421e+01	-9.500166e+01
8.200000e-07	-4.216298e-06	-1.421180e-09	-2.932546e+01	-9.470892e+01
8.300000e-07	-4.185974e-06	-1.403015e-09	-2.911455e+01	-9.440826e+01
8.400000e-07	-4.155216e-06	-1.408388e-09	-2.890062e+01	-9.409986e+01
8.500000e-07	-4.124166e-06	-1.406971e-09	-2.868466e+01	-9.378396e+01
8.600000e-07	-4.093028e-06	-1.392262e-09	-2.846808e+01	-9.346085e+01
8.700000e-07	-4.061722e-06	-1.385267e-09	-2.825034e+01	-9.313088e+01
8.800000e-07	-4.030131e-06	-1.385400e-09	-2.803062e+01	-9.279442e+01
8.900000e-07	-3.998295e-06	-1.366597e-09	-2.780919e+01	-9.245188e+01
9.000000e-07	-3.966230e-06	-1.354004e-09	-2.758617e+01	-9.210368e+01
9.100000e-07	-3.933931e-06	-1.358120e-09	-2.736152e+01	-9.175025e+01
9.200000e-07	-3.901355e-06	-1.351585e-09	-2.713495e+01	-9.139203e+01
9.300000e-07	-3.868335e-06	-1.337514e-09	-2.690528e+01	-9.102944e+01
9.400000e-07	-3.834827e-06	-1.340192e-09	-2.667223e+01	-9.066290e+01
9.500000e-07	-3.800922e-06	-1.339337e-09	-2.643641e+01	-9.029280e+01
9.600000e-07	-3.766497e-06	-1.323758e-09	-2.619698e+01	-8.991949e+01
9.700000e-07	-3.731563e-06	-1.317689e-09	-2.595400e+01	-8.954332e+01
9.800000e-07	-3.696417e-06	-1.316297e-09	-2.570955e+01	-8.916456e+01
9.900000e-07	-3.661061e-06	-1.303711e-09	-2.546364e+01	-8.878348e+01
1.000000e-06	-3.625467e-06	-1.292182e-09	-2.521608e+01	-8.840027e+01
1.010000e-06	-3.589750e-06	-1.294348e-09	-2.496766e+01	-8.801512e+01
1.020000e-06	-3.553884e-06	-1.290227e-09	-2.471820e+01	-8.762813e+01
1.030000e-06	-3.517912e-06	-1.284738e-09	-2.446800e+01	-8.723938e+01
1.040000e-06	-3.481832e-06	-1.285408e-09	-2.421706e+01	-8.684892e+01
1.050000e-06	-3.445447e-06	-1.281382e-09	-2.396399e+01	-8.645674e+01
1.060000e-06	-3.408708e-06	-1.266812e-09	-2.370846e+01	-8.606279e+01
1.070000e-06	-3.371734e-06	-1.260232e-09	-2.345129e+01	-8.566700e+01
1.080000e-06	-3.334512e-06	-1.253850e-09	-2.319241e+01	-8.526927e+01
1.090000e-06	-3.297065e-06	-1.242166e-09	-2.293195e+01	-8.486947e+01
1.100000e-06	-3.259405e-06	-1.232967e-09	-2.267001e+01	-8.446743e+01
1.110000e-06	-3.221446e-06	-1.232922e-09	-2.240600e+01	-8.406300e+01
1.120000e-06	-3.183299e-06	-1.226299e-09	-2.214068e+01	-8.365597e+01
1.130000e-06	-3.144971e-06	-1.218780e-09	-2.187410e+01	-8.324615e+01
1.140000e-06	-3.106323e-06	-1.215465e-09	-2.160529e+01	-8.283335e+01
1.150000e-06	-3.067478e-06	-1.213079e-09	-2.133511e+01	-8.241733e+01
1.160000e-06	-3.028423e-06	-1.204944e-09	-2.106348e+01	-8.199790e+01
1.170000e-06	-2.989181e-06	-1.197467e-09	-2.079054e+01	-8.157483e+01
1.180000e-06	-2.949843e-06	-1.187808e-09	-2.051693e+01	-8.114791e+01
1.190000e-06	-2.910315e-06	-1.177103e-09	-2.024200e+01	-8.071694e+01
1.200000e-06	-2.870619e-06	-1.169646e-09	-1.996591e+01	-8.028171e+01
1.210000e-06	-2.830802e-06	-1.165058e-09	-1.968897e+01	-7.984201e+01
1.220000e-06	-2.790840e-06	-1.160142e-09	-1.941102e+01	-7.939763e+01
1.230000e-06	-2.750715e-06	-1.155473e-09	-1.913195e+01	-7.894837e+01
1.240000e-06	-2.710528e-06	-1.152971e-09	-1.885243e+01	-7.849404e+01
1.250000e-06	-2.670188e-06	-1.146980e-09	-1.857186e+01	-7.803443e+01
1.260000e-06	-2.629589e-06	-1.138180e-09	-1.828948e+01	-7.756932e+01
1.270000e-06	-2.588778e-06	-1.129365e-09	-1.800563e+01	-7.709850e+01
1.280000e-06	-2.547661e-06	-1.119684e-09	-1.771965e+01	-7.662175e+01
1.290000e-06	-2.506297e-06	-1.110143e-09	-1.743195e+01	-7.613882e+01
1.300000e-06	-2.464632e-06	-1.103021e-09	-1.714216e+01	-7.564948e+01
1.310000e-06	-2.422528e-06	-1.096172e-09	-1.684932e+01	-7.515346e+01
1.320000e-06	-2.380187e-06	-1.088675e-09	-1.655482e+01	-7.465047e+01
1.330000e-06	-2.337536e-06	-1.078300e-09	-1.625818e+01	-7.414021e+01
1.340000e-06	-2.294509e-06	-1.068181e-09	-1.595891e+01	-7.362237e+01
1.350000e-06	-2.251246e-06	-1.059055e-09	-1.565801e+01	-7.309659e+01
1.360000e-06	-2.207833e-06	-1.052075e-09	-1.535606e+01	-7.256252e+01
1.370000e-06	-2.164280e-06	-1.044157e-09	-1.505313e+01	-7.201975e+01
1.380000e-06	-2.120642e-06	-1.034053e-09	-1.474962e+01	-7.146789e+01
1.390000e-06	-2.076935e-06	-1.020915e-09	-1.444563e+01	-7.090650e+01
1.400000e-06	-2.033136e-06	-1.007263e-09	-1.414099e+01	-7.033511e+01
1.410000e-06	-1.989345e-06	-9.944895e-10	-1.383641e+01	-6.975325e+01
1.420000e-06	-1.945501e-06	-9.840827e-10	-1.353147e+01	-6.916043e+01
1.430000e-06	-1.901579e-06	-9.745092e-10	-1.322598e+01	-6.855611e+01
1.440000e-06	-1.857608e-06	-9.655024e-10	-1.292015e+01	-6.793978e+01
1.450000e-06	-1.813555e-06	-9.549381e-10	-1.261375e+01	-6.731088e+01
1.460000e-06	-1.769280e-06	-9.430177e-10	-1.230581e+01	-6.666885e+01
1.470000e-06	-1.724822e-06	-9.289698e-10	-1.199659e+01	-6.601312e+01
1.480000e-06	-1.680381e-06	-9.149430e-10	-1.168749e+01	-6.534309e+01
1.490000e-06	-1.635817e-06	-8.995896e-10	-1.137753e+01	-6.465818e+01
1.500000e-06	-1.591007e-06	-8.834414e-10	-1.106587e+01	-6.395779e+01
1.510000e-06	-1.546025e-06	-8.693833e-10	-1.075301e+01	-6.324131e+01
1.520000e-06	-1.500929e-06	-8.588666e-10	-1.043936e+01	-6.250813e+01
1.530000e-06	-1.455753e-06	-8.479640e-10	-1.012514e+01	-6.175764e+01
1.540000e-06	-1.410545e-06	-8.347927e-10	-9.810712e+00	-6.098922e+01
1.550000e-06	-1.365299e-06	-8.190560e-10	-9.496010e+00	-6.020226e+01
1.560000e-06	-1.319935e-06	-8.032033e-10	-9.180496e+00	-5.939612e+01
1.570000e-06	-1.274358e-06	-7.892712e-10	-8.863495e+00	-5.857018e+01
1.580000e-06	-1.228681e-06	-7.774309e-10	-8.545798e+00	-5.772381e+01
1.590000e-06	-1.182984e-06	-7.648163e-10	-8.227966e+00	-5.685638e+01
1.600000e-06	-1.137188e-06	-7.515863e-10	-7.909441e+00	-5.596726e+01
1.610000e-06	-1.091328e-06	-7.405770e-10	-7.590471e+00	-5.505579e+01
1.620000e-06	-1.045431e-06	-7.292780e-10	-7.271249e+00	-5.412133e+01
1.630000e-06	-9.994618e-07	-7.185603e-10	-6.951519e+00	-5.316322e+01
1.640000e-06	-9.533828e-07	-7.067565e-10	-6.631027e+00	-5.218081e+01
1.650000e-06	-9.072587e-07	-6.920459e-10	-6.310222e+00	-5.117343e+01
1.660000e-06	-8.610710e-07	-6.746934e-10	-5.988974e+00	-5.014041e+01
1.670000e-06	-8.148021e-07	-6.567351e-10	-5.667162e+00	-4.908107e+01
1.680000e-06	-7.685891e-07	-6.375805e-10	-5.345739e+00	-4.799474e+01
1.690000e-06	-7.223486e-07	-6.187852e-10	-5.024124e+00	-4.688072e+01
1.700000e-06	-6.758962e-07	-5.988180e-10	-4.701035e+00	-4.573835e+01
1.710000e-06	-6.294576e-07	-5.806359e-10	-4.378043e+00	-4.456696e+01
1.720000e-06	-5.830912e-07	-5.663582e-10	-4.055552e+00	-4.336587e+01
1.730000e-06	-5.366453e-07	-5.507628e-10	-3.732509e+00	-4.213443e+01
1.740000e-06	-4.899614e-07	-5.308195e-10	-3.407810e+00	-4.087201e+01
1.750000e-06	-4.431765e-07	-5.083249e-10	-3.082408e+00	-3.957801e+01
1.760000e-06	-3.965008e-07	-4.844843e-10	-2.757767e+00	-3.825185e+01
1.770000e-06	-3.497845e-07	-4.609080e-10	-2.432843e+00	-3.689298e+01
1.780000e-06	-3.029749e-07	-4.399425e-10	-2.107270e+00	-3.550093e+01
1.790000e-06	-2.561751e-07	-4.205239e-10	-1.781765e+00	-3.407524e+01
1.800000e-06	-2.093795e-07	-4.009320e-10	-1.456289e+00	-3.261556e+01
1.810000e-06	-1.626521e-07	-3.815488e-10	-1.131288e+00	-3.112156e+01
1.820000e-06	-1.160048e-07	-3.620273e-10	-8.068437e-01	-2.959305e+01
1.830000e-06	-6.921238e-08	-3.412421e-10	-4.813903e-01	-2.802988e+01
1.840000e-06	-2.236782e-08	-3.173582e-10	-1.555741e-01	-2.643203e+01
1.850000e-06	2.443319e-08	-2.945090e-10	1.699393e-01	-2.479957e+01
1.860000e-06	7.118554e-08	-2.753221e-10	4.951141e-01	-2.313270e+01
1.870000e-06	1.178762e-07	-2.549405e-10	8.198599e-01	-2.143172e+01
1.880000e-06	1.645763e-07	-2.305166e-10	1.144671e+00	-1.969710e+01
1.890000e-06	2.112876e-07	-2.033814e-10	1.469561e+00	-1.792940e+01
1.900000e-06	2.580166e-07	-1.749801e-10	1.794573e+00	-1.612936e+01
1.910000e-06	3.047768e-07	-1.468028e-10	2.119802e+00	-1.429784e+01
1.920000e-06	3.514831e-07	-1.211426e-10	2.444657e+00	-1.243588e+01
1.930000e-06	3.981047e-07	-9.722287e-11	2.768922e+00	-1.054463e+01
1.940000e-06	4.447742e-07	-7.347354e-11	3.093521e+00	-8.625415e+00
1.950000e-06	4.913722e-07	-4.671452e-11	3.417622e+00	-6.679714e+00
1.960000e-06	5.377966e-07	-1.912639e-11	3.740516e+00	-4.709142e+00
1.970000e-06	5.842588e-07	7.997695e-12	4.063673e+00	-2.715464e+00
1.980000e-06	6.307391e-07	3.643495e-11	4.386956e+00	-7.005789e-01
1.990000e-06	6.771127e-07	6.604103e-11	4.709497e+00	1.333479e+00
2.000000e-06	7.233613e-07	9.779156e-11	5.031168e+00	3.384555e+00
2.010000e-06	7.695664e-07	1.294070e-10	5.352536e+00	5.450378e+00
2.020000e-06	8.157748e-07	1.572947e-10	5.673928e+00	7.528577e+00
2.030000e-06	8.618912e-07	1.839090e-10	5.994679e+00	9.616687e+00
2.040000e-06	9.079375e-07	2.108199e-10	6.314943e+00	1.171217e+01
2.050000e-06	9.540276e-07	2.379536e-10	6.635512e+00	1.381242e+01
2.060000e-06	1.000125e-06	2.673369e-10	6.956132e+00	1.591478e+01
2.070000e-06	1.046151e-06	2.987994e-10	7.276255e+00	1.801656e+01
2.080000e-06	1.092068e-06	3.307872e-10	7.595623e+00	2.011507e+01
2.090000e-06	1.137912e-06	3.622179e-10	7.914474e+00	2.220759e+01
2.100000e-06	1.183712e-06	3.933634e-10	8.233029e+00	2.429144e+01
2.110000e-06	1.229382e-06	4.232520e-10	8.550671e+00	2.636395e+01
2.120000e-06	1.274876e-06	4.520155e-10	8.867098e+00	2.842252e+01
2.130000e-06	1.320291e-06	4.813421e-10	9.182968e+00	3.046459e+01
2.140000e-06	1.365664e-06	5.080702e-10	9.498552e+00	3.248770e+01
2.150000e-06	1.411026e-06	5.313212e-10	9.814053e+00	3.448947e+01
2.160000e-06	1.456266e-06	5.561286e-10	1.012871e+01	3.646763e+01
2.170000e-06	1.501299e-06	5.833354e-10	1.044193e+01	3.842002e+01
2.180000e-06	1.546289e-06	6.119211e-10	1.075485e+01	4.034463e+01
2.190000e-06	1.591156e-06	6.413376e-10	1.106691e+01	4.223958e+01
2.200000e-06	1.635799e-06	6.691555e-10	1.137741e+01	4.410313e+01
2.210000e-06	1.680297e-06	6.948676e-10	1.168691e+01	4.593371e+01
2.220000e-06	1.724725e-06	7.193562e-10	1.199591e+01	4.772991e+01
2.230000e-06	1.769042e-06	7.424734e-10	1.230415e+01	4.949048e+01
2.240000e-06	1.813251e-06	7.629599e-10	1.261163e+01	5.121435e+01
2.250000e-06	1.857399e-06	7.831116e-10	1.291870e+01	5.290060e+01
2.260000e-06	1.901428e-06	8.052111e-10	1.322493e+01	5.454850e+01
2.270000e-06	1.945354e-06	8.268891e-10	1.353045e+01	5.615748e+01
2.280000e-06	1.989223e-06	8.494936e-10	1.383557e+01	5.772713e+01
2.290000e-06	2.033027e-06	8.719670e-10	1.414023e+01	5.925721e+01
2.300000e-06	2.076770e-06	8.918653e-10	1.444448e+01	6.074762e+01
2.310000e-06	2.120481e-06	9.109756e-10	1.474850e+01	6.219840e+01
2.320000e-06	2.164129e-06	9.310219e-10	1.505209e+01	6.360976e+01
2.330000e-06	2.207573e-06	9.499419e-10	1.535425e+01	6.498199e+01
2.340000e-06	2.250851e-06	9.665838e-10	1.565526e+01	6.631552e+01
2.350000e-06	2.293967e-06	9.831112e-10	1.595514e+01	6.761090e+01
2.360000e-06	2.336886e-06	9.995335e-10	1.625366e+01	6.886875e+01
2.370000e-06	2.379460e-06	1.015702e-09	1.654977e+01	7.008977e+01
2.380000e-06	2.421735e-06	1.032343e-09	1.684380e+01	7.127475e+01
2.390000e-06	2.463904e-06	1.049447e-09	1.713710e+01	7.242451e+01
2.400000e-06	2.505767e-06	1.066407e-09	1.742827e+01	7.353995e+01
2.410000e-06	2.547165e-06	1.082342e-09	1.771620e+01	7.462197e+01
2.420000e-06	2.588211e-06	1.097228e-09	1.800168e+01	7.567150e+01
2.430000e-06	2.629059e-06	1.111059e-09	1.828580e+01	7.668949e+01
2.440000e-06	2.669729e-06	1.123004e-09	1.856867e+01	7.767689e+01
2.450000e-06	2.710133e-06	1.133144e-09	1.884969e+01	7.863464e+01
2.460000e-06	2.750299e-06	1.143310e-09	1.912905e+01	7.956365e+01
2.470000e-06	2.790339e-06	1.154986e-09	1.940754e+01	8.046483e+01
2.480000e-06	2.830208e-06	1.167998e-09	1.968484e+01	8.133904e+01
2.490000e-06	2.869945e-06	1.180291e-09	1.996122e+01	8.218712e+01
2.500000e-06	2.909588e-06	1.192150e-09	2.023695e+01	8.300985e+01
2.510000e-06	2.949086e-06	1.202643e-09	2.051167e+01	8.380799e+01
2.520000e-06	2.988423e-06	1.210037e-09	2.078526e+01	8.458224e+01
2.530000e-06	3.027579e-06	1.216723e-09	2.105761e+01	8.533328e+01
2.540000e-06	3.066469e-06	1.225215e-09	2.132810e+01	8.606172e+01
2.550000e-06	3.105096e-06	1.235148e-09	2.159676e+01	8.676814e+01
2.560000e-06	3.143589e-06	1.244202e-09	2.186449e+01	8.745308e+01
2.570000e-06	3.181865e-06	1.252931e-09	2.213070e+01	8.811706e+01
2.580000e-06	3.219874e-06	1.261889e-09	2.239507e+01	8.876054e+01
2.590000e-06	3.257711e-06	1.272739e-09	2.265823e+01	8.938398e+01
2.600000e-06	3.295242e-06	1.283360e-09	2.291927e+01	8.998780e+01
2.610000e-06	3.332479e-06	1.292022e-09	2.317827e+01	9.057243e+01
2.620000e-06	3.369579e-06	1.299887e-09	2.343631e+01	9.113827e+01
2.630000e-06	3.406510e-06	1.306548e-09	2.369317e+01	9.168571e+01
2.640000e-06	3.443170e-06	1.313628e-09	2.394815e+01	9.221518e+01
2.650000e-06	3.479561e-06	1.320640e-09	2.420126e+01	9.272707e+01
2.660000e-06	3.515730e-06	1.326064e-09	2.445282e+01	9.322183e+01
2.670000e-06	3.551744e-06	1.333139e-09	2.470331e+01	9.369989e+01
2.680000e-06	3.587612e-06	1.342015e-09	2.495278e+01	9.416173e+01
2.690000e-06	3.623321e-06	1.350580e-09	2.520115e+01	9.460784e+01
2.700000e-06	3.658892e-06	1.359645e-09	2.544855e+01	9.503874e+01
2.710000e-06	3.694301e-06	1.368300e-09	2.569483e+01	9.545497e+01
2.720000e-06	3.729460e-06	1.375969e-09	2.593937e+01	9.585714e+01
2.730000e-06	3.764216e-06	1.383431e-09	2.618111e+01	9.624583e+01
2.740000e-06	3.798553e-06	1.390783e-09	2.641993e+01	9.662169e+01
2.750000e-06	3.832374e-06	1.397084e-09	2.665517e+01	9.698539e+01
2.760000e-06	3.865701e-06	1.402864e-09	2.688697e+01	9.733760e+01
2.770000e-06	3.898624e-06	1.408423e-09	2.711595e+01	9.767903e+01
2.780000e-06	3.931214e-06	1.412522e-09	2.734262e+01	9.801039e+01
2.790000e-06	3.963591e-06	1.418175e-09	2.756781e+01	9.833241e+01
2.800000e-06	3.995719e-06	1.426835e-09	2.779128e+01	9.864579e+01
2.810000e-06	4.027653e-06	1.434913e-09	2.801338e+01	9.895125e+01
2.820000e-06	4.059416e-06	1.440608e-09	2.823430e+01	9.924949e+01
2.830000e-06	4.090928e-06	1.446358e-09	2.845348e+01	9.954117e+01
2.840000e-06	4.122201e-06	1.451295e-09	2.867099e+01	9.982694e+01
2.850000e-06	4.153197e-06	1.453214e-09	2.888657e+01	1.001074e+02
2.860000e-06	4.183799e-06	1.453770e-09	2.909942e+01	1.003831e+02
2.870000e-06	4.214122e-06	1.456978e-09	2.931032e+01	1.006546e+02
2.880000e-06	4.244219e-06	1.463270e-09	2.951966e+01	1.009223e+02
2.890000e-06	4.273969e-06	1.469963e-09	2.972657e+01	1.011865e+02
2.900000e-06	4.303450e-06	1.476722e-09	2.993162e+01	1.014476e+02
