# Temperatura_=_-8.2
# Concentracion g/m^3_=_1620.0
# C_Vs_to_Am_M_A/Vsm_=_65563218390.804596
# pendiente_HvsI_1/m_=_3716.3
# ordenada_HvsI_A/m_=_1297.0
# frecuencia_Hz_=_135103.24092637928

Tiempo_(s)	Campo_(V.s)	Magnetizacion_(V.s)	Campo_(kA/m)	Magnetizacion_(A/m)
0.000000e+00	-5.507888e-06	-1.206855e-09	-3.837698e+01	-7.895206e+01
1.000000e-08	-5.507963e-06	-1.204460e-09	-3.837751e+01	-7.890396e+01
2.000000e-08	-5.507673e-06	-1.202358e-09	-3.837549e+01	-7.886099e+01
3.000000e-08	-5.507038e-06	-1.200411e-09	-3.837106e+01	-7.882355e+01
4.000000e-08	-5.506017e-06	-1.196271e-09	-3.836395e+01	-7.879191e+01
5.000000e-08	-5.504503e-06	-1.192632e-09	-3.835340e+01	-7.876625e+01
6.000000e-08	-5.502388e-06	-1.200154e-09	-3.833867e+01	-7.874658e+01
7.000000e-08	-5.499692e-06	-1.216989e-09	-3.831987e+01	-7.873279e+01
8.000000e-08	-5.496450e-06	-1.200232e-09	-3.829729e+01	-7.872462e+01
9.000000e-08	-5.492754e-06	-1.137704e-09	-3.827154e+01	-7.872168e+01
1.000000e-07	-5.488786e-06	-1.160610e-09	-3.824389e+01	-7.872344e+01
1.100000e-07	-5.484498e-06	-1.220213e-09	-3.821401e+01	-7.872925e+01
1.200000e-07	-5.479847e-06	-1.235023e-09	-3.818160e+01	-7.873831e+01
1.300000e-07	-5.474860e-06	-1.161264e-09	-3.814686e+01	-7.874976e+01
1.400000e-07	-5.469513e-06	-1.155543e-09	-3.810960e+01	-7.876261e+01
1.500000e-07	-5.463884e-06	-1.219627e-09	-3.807038e+01	-7.877582e+01
1.600000e-07	-5.457869e-06	-1.217646e-09	-3.802847e+01	-7.878829e+01
1.700000e-07	-5.451300e-06	-1.148736e-09	-3.798270e+01	-7.879887e+01
1.800000e-07	-5.444333e-06	-1.141219e-09	-3.793416e+01	-7.880642e+01
1.900000e-07	-5.437107e-06	-1.210157e-09	-3.788381e+01	-7.880978e+01
2.000000e-07	-5.429594e-06	-1.233319e-09	-3.783146e+01	-7.880785e+01
2.100000e-07	-5.421838e-06	-1.206334e-09	-3.777742e+01	-7.879954e+01
2.200000e-07	-5.413816e-06	-1.192177e-09	-3.772152e+01	-7.878388e+01
2.300000e-07	-5.405408e-06	-1.208184e-09	-3.766294e+01	-7.875994e+01
2.400000e-07	-5.396491e-06	-1.186618e-09	-3.760081e+01	-7.872692e+01
2.500000e-07	-5.386978e-06	-1.170298e-09	-3.753453e+01	-7.868414e+01
2.600000e-07	-5.376834e-06	-1.175581e-09	-3.746385e+01	-7.863104e+01
2.700000e-07	-5.366095e-06	-1.210583e-09	-3.738902e+01	-7.856722e+01
2.800000e-07	-5.354849e-06	-1.207289e-09	-3.731066e+01	-7.849242e+01
2.900000e-07	-5.343162e-06	-1.189838e-09	-3.722923e+01	-7.840652e+01
3.000000e-07	-5.331095e-06	-1.168763e-09	-3.714516e+01	-7.830959e+01
3.100000e-07	-5.318671e-06	-1.178869e-09	-3.705859e+01	-7.820183e+01
3.200000e-07	-5.305848e-06	-1.180306e-09	-3.696924e+01	-7.808358e+01
3.300000e-07	-5.292657e-06	-1.168883e-09	-3.687734e+01	-7.795535e+01
3.400000e-07	-5.279087e-06	-1.159030e-09	-3.678278e+01	-7.781777e+01
3.500000e-07	-5.265105e-06	-1.190370e-09	-3.668536e+01	-7.767156e+01
3.600000e-07	-5.250726e-06	-1.188514e-09	-3.658517e+01	-7.751760e+01
3.700000e-07	-5.235834e-06	-1.153969e-09	-3.648141e+01	-7.735682e+01
3.800000e-07	-5.220366e-06	-1.156614e-09	-3.637364e+01	-7.719022e+01
3.900000e-07	-5.204424e-06	-1.180846e-09	-3.626255e+01	-7.701888e+01
4.000000e-07	-5.188082e-06	-1.143870e-09	-3.614869e+01	-7.684390e+01
4.100000e-07	-5.171336e-06	-1.123803e-09	-3.603201e+01	-7.666637e+01
4.200000e-07	-5.154192e-06	-1.179203e-09	-3.591256e+01	-7.648741e+01
4.300000e-07	-5.136742e-06	-1.172896e-09	-3.579097e+01	-7.630810e+01
4.400000e-07	-5.118960e-06	-1.116304e-09	-3.566708e+01	-7.612947e+01
4.500000e-07	-5.100810e-06	-1.138543e-09	-3.554061e+01	-7.595251e+01
4.600000e-07	-5.082298e-06	-1.181155e-09	-3.541163e+01	-7.577811e+01
4.700000e-07	-5.063397e-06	-1.128006e-09	-3.527993e+01	-7.560711e+01
4.800000e-07	-5.044171e-06	-1.112750e-09	-3.514597e+01	-7.544020e+01
4.900000e-07	-5.024649e-06	-1.156774e-09	-3.500995e+01	-7.527801e+01
5.000000e-07	-5.004837e-06	-1.142094e-09	-3.487190e+01	-7.512103e+01
5.100000e-07	-4.984784e-06	-1.107941e-09	-3.473218e+01	-7.496963e+01
5.200000e-07	-4.964496e-06	-1.152492e-09	-3.459083e+01	-7.482406e+01
5.300000e-07	-4.943854e-06	-1.151961e-09	-3.444700e+01	-7.468446e+01
5.400000e-07	-4.922871e-06	-1.104075e-09	-3.430080e+01	-7.455083e+01
5.500000e-07	-4.901564e-06	-1.122724e-09	-3.415233e+01	-7.442308e+01
5.600000e-07	-4.879900e-06	-1.156709e-09	-3.400139e+01	-7.430098e+01
5.700000e-07	-4.857861e-06	-1.113186e-09	-3.384783e+01	-7.418422e+01
5.800000e-07	-4.835414e-06	-1.101046e-09	-3.369142e+01	-7.407241e+01
5.900000e-07	-4.812668e-06	-1.130009e-09	-3.353294e+01	-7.396505e+01
6.000000e-07	-4.789575e-06	-1.114444e-09	-3.337204e+01	-7.386160e+01
6.100000e-07	-4.766101e-06	-1.092220e-09	-3.320848e+01	-7.376144e+01
6.200000e-07	-4.742477e-06	-1.116096e-09	-3.304388e+01	-7.366393e+01
6.300000e-07	-4.718731e-06	-1.116704e-09	-3.287842e+01	-7.356838e+01
6.400000e-07	-4.694720e-06	-1.095640e-09	-3.271112e+01	-7.347411e+01
6.500000e-07	-4.670429e-06	-1.100381e-09	-3.254187e+01	-7.338040e+01
6.600000e-07	-4.645724e-06	-1.104694e-09	-3.236974e+01	-7.328657e+01
6.700000e-07	-4.620390e-06	-1.091118e-09	-3.219322e+01	-7.319195e+01
6.800000e-07	-4.594432e-06	-1.091635e-09	-3.201235e+01	-7.309588e+01
6.900000e-07	-4.567897e-06	-1.098440e-09	-3.182747e+01	-7.299777e+01
7.000000e-07	-4.540902e-06	-1.092652e-09	-3.163937e+01	-7.289705e+01
7.100000e-07	-4.513591e-06	-1.091537e-09	-3.144908e+01	-7.279322e+01
7.200000e-07	-4.486032e-06	-1.092618e-09	-3.125706e+01	-7.268581e+01
7.300000e-07	-4.458290e-06	-1.086484e-09	-3.106376e+01	-7.257445e+01
7.400000e-07	-4.430385e-06	-1.079735e-09	-3.086933e+01	-7.245880e+01
7.500000e-07	-4.402331e-06	-1.078424e-09	-3.067386e+01	-7.233859e+01
7.600000e-07	-4.374023e-06	-1.075549e-09	-3.047662e+01	-7.221362e+01
7.700000e-07	-4.345377e-06	-1.079459e-09	-3.027703e+01	-7.208375e+01
7.800000e-07	-4.316409e-06	-1.080934e-09	-3.007519e+01	-7.194890e+01
7.900000e-07	-4.287096e-06	-1.075997e-09	-2.987095e+01	-7.180904e+01
8.000000e-07	-4.257461e-06	-1.068929e-09	-2.966446e+01	-7.166420e+01
8.100000e-07	-4.227553e-06	-1.069011e-09	-2.945607e+01	-7.151445e+01
8.200000e-07	-4.197393e-06	-1.062032e-09	-2.924592e+01	-7.135991e+01
8.300000e-07	-4.166905e-06	-1.054746e-09	-2.903350e+01	-7.120072e+01
8.400000e-07	-4.136121e-06	-1.055031e-09	-2.881901e+01	-7.103709e+01
8.500000e-07	-4.105102e-06	-1.059618e-09	-2.860287e+01	-7.086920e+01
8.600000e-07	-4.073794e-06	-1.052939e-09	-2.838473e+01	-7.069731e+01
8.700000e-07	-4.042250e-06	-1.046564e-09	-2.816494e+01	-7.052167e+01
8.800000e-07	-4.010582e-06	-1.043991e-09	-2.794429e+01	-7.034253e+01
8.900000e-07	-3.978801e-06	-1.038731e-09	-2.772286e+01	-7.016017e+01
9.000000e-07	-3.946801e-06	-1.032642e-09	-2.749989e+01	-6.997487e+01
9.100000e-07	-3.914485e-06	-1.034230e-09	-2.727473e+01	-6.978689e+01
9.200000e-07	-3.881812e-06	-1.033790e-09	-2.704707e+01	-6.959653e+01
9.300000e-07	-3.848691e-06	-1.030209e-09	-2.681629e+01	-6.940405e+01
9.400000e-07	-3.815106e-06	-1.028768e-09	-2.658229e+01	-6.920972e+01
9.500000e-07	-3.781077e-06	-1.026746e-09	-2.634519e+01	-6.901378e+01
9.600000e-07	-3.746583e-06	-1.019268e-09	-2.610485e+01	-6.881650e+01
9.700000e-07	-3.711657e-06	-1.012529e-09	-2.586149e+01	-6.861810e+01
9.800000e-07	-3.676448e-06	-1.009745e-09	-2.561617e+01	-6.841882e+01
9.900000e-07	-3.641072e-06	-1.003401e-09	-2.536968e+01	-6.821885e+01
1.000000e-06	-3.605501e-06	-9.950758e-10	-2.512184e+01	-6.801840e+01
1.010000e-06	-3.569777e-06	-9.927797e-10	-2.487292e+01	-6.781764e+01
1.020000e-06	-3.533912e-06	-9.919562e-10	-2.462303e+01	-6.761675e+01
1.030000e-06	-3.497868e-06	-9.859795e-10	-2.437189e+01	-6.741586e+01
1.040000e-06	-3.461601e-06	-9.833653e-10	-2.411919e+01	-6.721511e+01
1.050000e-06	-3.425033e-06	-9.815037e-10	-2.386440e+01	-6.701459e+01
1.060000e-06	-3.388190e-06	-9.778467e-10	-2.360769e+01	-6.681440e+01
1.070000e-06	-3.351139e-06	-9.730411e-10	-2.334953e+01	-6.661460e+01
1.080000e-06	-3.313896e-06	-9.699928e-10	-2.309004e+01	-6.641521e+01
1.090000e-06	-3.276395e-06	-9.642112e-10	-2.282874e+01	-6.621624e+01
1.100000e-06	-3.238630e-06	-9.581979e-10	-2.256561e+01	-6.601768e+01
1.110000e-06	-3.200665e-06	-9.531674e-10	-2.230108e+01	-6.581947e+01
1.120000e-06	-3.162503e-06	-9.502649e-10	-2.203518e+01	-6.562151e+01
1.130000e-06	-3.124115e-06	-9.458625e-10	-2.176771e+01	-6.542369e+01
1.140000e-06	-3.085480e-06	-9.436942e-10	-2.149852e+01	-6.522585e+01
1.150000e-06	-3.046670e-06	-9.431794e-10	-2.122810e+01	-6.502780e+01
1.160000e-06	-3.007687e-06	-9.407677e-10	-2.095648e+01	-6.482930e+01
1.170000e-06	-2.968442e-06	-9.349632e-10	-2.068304e+01	-6.463010e+01
1.180000e-06	-2.929004e-06	-9.314586e-10	-2.040825e+01	-6.442990e+01
1.190000e-06	-2.889452e-06	-9.296332e-10	-2.013266e+01	-6.422835e+01
1.200000e-06	-2.849761e-06	-9.264628e-10	-1.985611e+01	-6.402511e+01
1.210000e-06	-2.809973e-06	-9.247984e-10	-1.957888e+01	-6.381977e+01
1.220000e-06	-2.770042e-06	-9.245617e-10	-1.930065e+01	-6.361192e+01
1.230000e-06	-2.729967e-06	-9.225544e-10	-1.902143e+01	-6.340112e+01
1.240000e-06	-2.689783e-06	-9.185962e-10	-1.874144e+01	-6.318691e+01
1.250000e-06	-2.649388e-06	-9.144191e-10	-1.845998e+01	-6.296885e+01
1.260000e-06	-2.608812e-06	-9.105300e-10	-1.817726e+01	-6.274644e+01
1.270000e-06	-2.568001e-06	-9.056336e-10	-1.789291e+01	-6.251923e+01
1.280000e-06	-2.526821e-06	-9.003061e-10	-1.760598e+01	-6.228674e+01
1.290000e-06	-2.485252e-06	-8.946449e-10	-1.731634e+01	-6.204853e+01
1.300000e-06	-2.443494e-06	-8.891373e-10	-1.702539e+01	-6.180415e+01
1.310000e-06	-2.401616e-06	-8.839711e-10	-1.673360e+01	-6.155320e+01
1.320000e-06	-2.359376e-06	-8.794127e-10	-1.643928e+01	-6.129528e+01
1.330000e-06	-2.316751e-06	-8.740767e-10	-1.614229e+01	-6.103003e+01
1.340000e-06	-2.273878e-06	-8.681256e-10	-1.584357e+01	-6.075714e+01
1.350000e-06	-2.230750e-06	-8.663614e-10	-1.554306e+01	-6.047632e+01
1.360000e-06	-2.187437e-06	-8.666971e-10	-1.524128e+01	-6.018731e+01
1.370000e-06	-2.143991e-06	-8.654836e-10	-1.493856e+01	-5.988992e+01
1.380000e-06	-2.100405e-06	-8.601008e-10	-1.463487e+01	-5.958396e+01
1.390000e-06	-2.056770e-06	-8.523523e-10	-1.433084e+01	-5.926932e+01
1.400000e-06	-2.013060e-06	-8.437915e-10	-1.402628e+01	-5.894588e+01
1.410000e-06	-1.969261e-06	-8.360906e-10	-1.372110e+01	-5.861358e+01
1.420000e-06	-1.925409e-06	-8.285798e-10	-1.341556e+01	-5.827237e+01
1.430000e-06	-1.881493e-06	-8.234620e-10	-1.310956e+01	-5.792223e+01
1.440000e-06	-1.837518e-06	-8.186983e-10	-1.280317e+01	-5.756313e+01
1.450000e-06	-1.793433e-06	-8.122820e-10	-1.249600e+01	-5.719505e+01
1.460000e-06	-1.749135e-06	-8.041890e-10	-1.218735e+01	-5.681799e+01
1.470000e-06	-1.704713e-06	-7.944471e-10	-1.187782e+01	-5.643190e+01
1.480000e-06	-1.660218e-06	-7.834786e-10	-1.156780e+01	-5.603672e+01
1.490000e-06	-1.615524e-06	-7.718944e-10	-1.125639e+01	-5.563235e+01
1.500000e-06	-1.570746e-06	-7.600747e-10	-1.094439e+01	-5.521866e+01
1.510000e-06	-1.525916e-06	-7.515167e-10	-1.063203e+01	-5.479546e+01
1.520000e-06	-1.480905e-06	-7.446599e-10	-1.031842e+01	-5.436249e+01
1.530000e-06	-1.435745e-06	-7.381256e-10	-1.000375e+01	-5.391943e+01
1.540000e-06	-1.390458e-06	-7.319800e-10	-9.688214e+00	-5.346590e+01
1.550000e-06	-1.345074e-06	-7.243599e-10	-9.371993e+00	-5.300140e+01
1.560000e-06	-1.299625e-06	-7.155945e-10	-9.055318e+00	-5.252540e+01
1.570000e-06	-1.254082e-06	-7.073156e-10	-8.737992e+00	-5.203723e+01
1.580000e-06	-1.208420e-06	-6.971770e-10	-8.419836e+00	-5.153617e+01
1.590000e-06	-1.162704e-06	-6.869294e-10	-8.101300e+00	-5.102140e+01
1.600000e-06	-1.116977e-06	-6.791840e-10	-7.782697e+00	-5.049201e+01
1.610000e-06	-1.071158e-06	-6.735494e-10	-7.463442e+00	-4.994703e+01
1.620000e-06	-1.025189e-06	-6.691399e-10	-7.143149e+00	-4.938540e+01
1.630000e-06	-9.792037e-07	-6.641094e-10	-6.822739e+00	-4.880598e+01
1.640000e-06	-9.331909e-07	-6.563363e-10	-6.502139e+00	-4.820761e+01
1.650000e-06	-8.870992e-07	-6.450088e-10	-6.180988e+00	-4.758905e+01
1.660000e-06	-8.409795e-07	-6.337657e-10	-5.859643e+00	-4.694904e+01
1.670000e-06	-7.948374e-07	-6.230915e-10	-5.538142e+00	-4.628629e+01
1.680000e-06	-7.486600e-07	-6.117815e-10	-5.216394e+00	-4.559951e+01
1.690000e-06	-7.024006e-07	-5.976493e-10	-4.894075e+00	-4.488739e+01
1.700000e-06	-6.560895e-07	-5.830202e-10	-4.571396e+00	-4.414867e+01
1.710000e-06	-6.097871e-07	-5.714181e-10	-4.248777e+00	-4.338210e+01
1.720000e-06	-5.633624e-07	-5.606172e-10	-3.925307e+00	-4.258647e+01
1.730000e-06	-5.167467e-07	-5.468146e-10	-3.600505e+00	-4.176065e+01
1.740000e-06	-4.701354e-07	-5.321150e-10	-3.275735e+00	-4.090357e+01
1.750000e-06	-4.236322e-07	-5.172484e-10	-2.951717e+00	-4.001425e+01
1.760000e-06	-3.771314e-07	-5.009628e-10	-2.627716e+00	-3.909179e+01
1.770000e-06	-3.304888e-07	-4.836825e-10	-2.302727e+00	-3.813540e+01
1.780000e-06	-2.837954e-07	-4.671368e-10	-1.977385e+00	-3.714442e+01
1.790000e-06	-2.370622e-07	-4.513394e-10	-1.651764e+00	-3.611828e+01
1.800000e-06	-1.902627e-07	-4.383242e-10	-1.325682e+00	-3.505655e+01
1.810000e-06	-1.434847e-07	-4.272265e-10	-9.997496e-01	-3.395894e+01
1.820000e-06	-9.673485e-08	-4.148198e-10	-6.740137e-01	-3.282525e+01
1.830000e-06	-5.001424e-08	-3.992219e-10	-3.484813e-01	-3.165545e+01
1.840000e-06	-3.323465e-09	-3.824245e-10	-2.315671e-02	-3.044963e+01
1.850000e-06	4.330436e-08	-3.654194e-10	3.017292e-01	-2.920798e+01
1.860000e-06	8.995012e-08	-3.477531e-10	6.267401e-01	-2.793086e+01
1.870000e-06	1.366303e-07	-3.296987e-10	9.519912e-01	-2.661871e+01
1.880000e-06	1.832620e-07	-3.119568e-10	1.276904e+00	-2.527211e+01
1.890000e-06	2.298898e-07	-2.930077e-10	1.601789e+00	-2.389173e+01
1.900000e-06	2.765637e-07	-2.713201e-10	1.926996e+00	-2.247835e+01
1.910000e-06	3.231738e-07	-2.500387e-10	2.251759e+00	-2.103286e+01
1.920000e-06	3.697224e-07	-2.288552e-10	2.576093e+00	-1.955621e+01
1.930000e-06	4.163211e-07	-2.081701e-10	2.900776e+00	-1.804946e+01
1.940000e-06	4.629469e-07	-1.877455e-10	3.225648e+00	-1.651372e+01
1.950000e-06	5.094610e-07	-1.667904e-10	3.549742e+00	-1.495021e+01
1.960000e-06	5.558657e-07	-1.450986e-10	3.873073e+00	-1.336017e+01
1.970000e-06	6.022067e-07	-1.235707e-10	4.195960e+00	-1.174493e+01
1.980000e-06	6.485250e-07	-1.028559e-10	4.518689e+00	-1.010587e+01
1.990000e-06	6.948531e-07	-7.995256e-11	4.841486e+00	-8.444438e+00
2.000000e-06	7.411612e-07	-5.463808e-11	5.164145e+00	-6.762108e+00
2.010000e-06	7.874168e-07	-2.985500e-11	5.486438e+00	-5.060423e+00
2.020000e-06	8.335657e-07	-6.648767e-12	5.807986e+00	-3.340971e+00
2.030000e-06	8.796125e-07	1.528134e-11	6.128824e+00	-1.605391e+00
2.040000e-06	9.255621e-07	3.699353e-11	6.448984e+00	1.446285e-01
2.050000e-06	9.714611e-07	5.999958e-11	6.768792e+00	1.907350e+00
2.060000e-06	1.017295e-06	8.519044e-11	7.088147e+00	3.680984e+00
2.070000e-06	1.063104e-06	1.112568e-10	7.407330e+00	5.463692e+00
2.080000e-06	1.108937e-06	1.380756e-10	7.726674e+00	7.253582e+00
2.090000e-06	1.154683e-06	1.663182e-10	8.045418e+00	9.048712e+00
2.100000e-06	1.200257e-06	1.948949e-10	8.362958e+00	1.084709e+01
2.110000e-06	1.245733e-06	2.218142e-10	8.679820e+00	1.264669e+01
2.120000e-06	1.291156e-06	2.473324e-10	8.996309e+00	1.444541e+01
2.130000e-06	1.336477e-06	2.718094e-10	9.312092e+00	1.624114e+01
2.140000e-06	1.381717e-06	2.940210e-10	9.627306e+00	1.803171e+01
2.150000e-06	1.426828e-06	3.169374e-10	9.941624e+00	1.981494e+01
2.160000e-06	1.471819e-06	3.425288e-10	1.025510e+01	2.158863e+01
2.170000e-06	1.516728e-06	3.688678e-10	1.056801e+01	2.335055e+01
2.180000e-06	1.561488e-06	3.944415e-10	1.087988e+01	2.509848e+01
2.190000e-06	1.606133e-06	4.193922e-10	1.119095e+01	2.683022e+01
2.200000e-06	1.650622e-06	4.443255e-10	1.150094e+01	2.854359e+01
2.210000e-06	1.694972e-06	4.682056e-10	1.180995e+01	3.023645e+01
2.220000e-06	1.739303e-06	4.917983e-10	1.211884e+01	3.190671e+01
2.230000e-06	1.783577e-06	5.145584e-10	1.242732e+01	3.355236e+01
2.240000e-06	1.827733e-06	5.357865e-10	1.273499e+01	3.517145e+01
2.250000e-06	1.871737e-06	5.556226e-10	1.304159e+01	3.676218e+01
2.260000e-06	1.915633e-06	5.750477e-10	1.334744e+01	3.832281e+01
2.270000e-06	1.959476e-06	5.957408e-10	1.365292e+01	3.985178e+01
2.280000e-06	2.003231e-06	6.176015e-10	1.395779e+01	4.134766e+01
2.290000e-06	2.046949e-06	6.377836e-10	1.426241e+01	4.280916e+01
2.300000e-06	2.090618e-06	6.556876e-10	1.456668e+01	4.423518e+01
2.310000e-06	2.134184e-06	6.744183e-10	1.487023e+01	4.562480e+01
2.320000e-06	2.177664e-06	6.936994e-10	1.517318e+01	4.697728e+01
2.330000e-06	2.221032e-06	7.130863e-10	1.547535e+01	4.829207e+01
2.340000e-06	2.264183e-06	7.309869e-10	1.577601e+01	4.956881e+01
2.350000e-06	2.307140e-06	7.478371e-10	1.607533e+01	5.080734e+01
2.360000e-06	2.349860e-06	7.653428e-10	1.637298e+01	5.200770e+01
2.370000e-06	2.392252e-06	7.813503e-10	1.666835e+01	5.317009e+01
2.380000e-06	2.434430e-06	7.947433e-10	1.696223e+01	5.429490e+01
2.390000e-06	2.476319e-06	8.094867e-10	1.725410e+01	5.538269e+01
2.400000e-06	2.517758e-06	8.259358e-10	1.754283e+01	5.643416e+01
2.410000e-06	2.558900e-06	8.419809e-10	1.782949e+01	5.745017e+01
2.420000e-06	2.599816e-06	8.545304e-10	1.811459e+01	5.843167e+01
2.430000e-06	2.640409e-06	8.640702e-10	1.839742e+01	5.937973e+01
2.440000e-06	2.680741e-06	8.733719e-10	1.867844e+01	6.029550e+01
2.450000e-06	2.720944e-06	8.822617e-10	1.895856e+01	6.118019e+01
2.460000e-06	2.761044e-06	8.918026e-10	1.923796e+01	6.203503e+01
2.470000e-06	2.801010e-06	9.033142e-10	1.951643e+01	6.286130e+01
2.480000e-06	2.840842e-06	9.154782e-10	1.979397e+01	6.366025e+01
2.490000e-06	2.880468e-06	9.277041e-10	2.007006e+01	6.443312e+01
2.500000e-06	2.919945e-06	9.386751e-10	2.034513e+01	6.518109e+01
2.510000e-06	2.959288e-06	9.480407e-10	2.061925e+01	6.590530e+01
2.520000e-06	2.998504e-06	9.569226e-10	2.089250e+01	6.660680e+01
2.530000e-06	3.037536e-06	9.654003e-10	2.116446e+01	6.728655e+01
2.540000e-06	3.076266e-06	9.751100e-10	2.143432e+01	6.794540e+01
2.550000e-06	3.114767e-06	9.850033e-10	2.170258e+01	6.858412e+01
2.560000e-06	3.153099e-06	9.944814e-10	2.196966e+01	6.920332e+01
2.570000e-06	3.191224e-06	1.003878e-09	2.223530e+01	6.980354e+01
2.580000e-06	3.229117e-06	1.012230e-09	2.249933e+01	7.038516e+01
2.590000e-06	3.266772e-06	1.019147e-09	2.276169e+01	7.094849e+01
2.600000e-06	3.304225e-06	1.025805e-09	2.302265e+01	7.149368e+01
2.610000e-06	3.341468e-06	1.032647e-09	2.328215e+01	7.202084e+01
2.620000e-06	3.378462e-06	1.039480e-09	2.353991e+01	7.252994e+01
2.630000e-06	3.415216e-06	1.046413e-09	2.379600e+01	7.302091e+01
2.640000e-06	3.451716e-06	1.054501e-09	2.405032e+01	7.349362e+01
2.650000e-06	3.488002e-06	1.061857e-09	2.430315e+01	7.394788e+01
2.660000e-06	3.524132e-06	1.066932e-09	2.455488e+01	7.438350e+01
2.670000e-06	3.560050e-06	1.072546e-09	2.480515e+01	7.480027e+01
2.680000e-06	3.595776e-06	1.079460e-09	2.505407e+01	7.519798e+01
2.690000e-06	3.631399e-06	1.086514e-09	2.530229e+01	7.557649e+01
2.700000e-06	3.666814e-06	1.093584e-09	2.554904e+01	7.593567e+01
2.710000e-06	3.701980e-06	1.100752e-09	2.579407e+01	7.627548e+01
2.720000e-06	3.736892e-06	1.107621e-09	2.603732e+01	7.659594e+01
2.730000e-06	3.771415e-06	1.113180e-09	2.627787e+01	7.689718e+01
2.740000e-06	3.805493e-06	1.117901e-09	2.651531e+01	7.717941e+01
2.750000e-06	3.839178e-06	1.119923e-09	2.675001e+01	7.744296e+01
2.760000e-06	3.872442e-06	1.121017e-09	2.698179e+01	7.768828e+01
2.770000e-06	3.905261e-06	1.123667e-09	2.721046e+01	7.791593e+01
2.780000e-06	3.937754e-06	1.127934e-09	2.743685e+01	7.812657e+01
2.790000e-06	3.969958e-06	1.134421e-09	2.766124e+01	7.832099e+01
2.800000e-06	4.001898e-06	1.141815e-09	2.788379e+01	7.850007e+01
2.810000e-06	4.033663e-06	1.147716e-09	2.810511e+01	7.866479e+01
2.820000e-06	4.065256e-06	1.152467e-09	2.832524e+01	7.881620e+01
2.830000e-06	4.096624e-06	1.155413e-09	2.854381e+01	7.895545e+01
2.840000e-06	4.127757e-06	1.154301e-09	2.876073e+01	7.908370e+01
2.850000e-06	4.158589e-06	1.151403e-09	2.897556e+01	7.920215e+01
2.860000e-06	4.189130e-06	1.150988e-09	2.918835e+01	7.931205e+01
2.870000e-06	4.219411e-06	1.155368e-09	2.939934e+01	7.941460e+01
2.880000e-06	4.249363e-06	1.162170e-09	2.960803e+01	7.951099e+01
2.890000e-06	4.279047e-06	1.167353e-09	2.981486e+01	7.960237e+01
2.900000e-06	4.308466e-06	1.168318e-09	3.001985e+01	7.968983e+01
