# Temperatura_=_-6.7
# Concentracion g/m^3_=_1620.0
# C_Vs_to_Am_M_A/Vsm_=_65563218390.804596
# pendiente_HvsI_1/m_=_3716.3
# ordenada_HvsI_A/m_=_1297.0
# frecuencia_Hz_=_135102.92941738904

Tiempo_(s)	Campo_(V.s)	Magnetizacion_(V.s)	Campo_(kA/m)	Magnetizacion_(A/m)
0.000000e+00	-5.534559e-06	-1.298415e-09	-3.838620e+01	-8.428563e+01
1.000000e-08	-5.534848e-06	-1.294985e-09	-3.838821e+01	-8.422311e+01
2.000000e-08	-5.534976e-06	-1.291012e-09	-3.838910e+01	-8.416066e+01
3.000000e-08	-5.534717e-06	-1.288858e-09	-3.838730e+01	-8.409818e+01
4.000000e-08	-5.533893e-06	-1.288819e-09	-3.838159e+01	-8.403553e+01
5.000000e-08	-5.532573e-06	-1.287535e-09	-3.837244e+01	-8.397255e+01
6.000000e-08	-5.530708e-06	-1.281492e-09	-3.835949e+01	-8.390906e+01
7.000000e-08	-5.528185e-06	-1.276490e-09	-3.834200e+01	-8.384484e+01
8.000000e-08	-5.525065e-06	-1.285043e-09	-3.832036e+01	-8.377967e+01
9.000000e-08	-5.521536e-06	-1.323066e-09	-3.829588e+01	-8.371331e+01
1.000000e-07	-5.517657e-06	-1.349530e-09	-3.826898e+01	-8.364549e+01
1.100000e-07	-5.513375e-06	-1.294436e-09	-3.823928e+01	-8.357598e+01
1.200000e-07	-5.508758e-06	-1.241770e-09	-3.820726e+01	-8.350450e+01
1.300000e-07	-5.503898e-06	-1.252044e-09	-3.817355e+01	-8.343082e+01
1.400000e-07	-5.498732e-06	-1.295245e-09	-3.813772e+01	-8.335470e+01
1.500000e-07	-5.493182e-06	-1.304649e-09	-3.809923e+01	-8.327592e+01
1.600000e-07	-5.487283e-06	-1.261951e-09	-3.805831e+01	-8.319429e+01
1.700000e-07	-5.480993e-06	-1.283460e-09	-3.801469e+01	-8.310963e+01
1.800000e-07	-5.474234e-06	-1.286713e-09	-3.796781e+01	-8.302180e+01
1.900000e-07	-5.467055e-06	-1.276477e-09	-3.791802e+01	-8.293070e+01
2.000000e-07	-5.459607e-06	-1.228230e-09	-3.786636e+01	-8.283626e+01
2.100000e-07	-5.451895e-06	-1.242331e-09	-3.781287e+01	-8.273842e+01
2.200000e-07	-5.443816e-06	-1.271172e-09	-3.775683e+01	-8.263721e+01
2.300000e-07	-5.435486e-06	-1.279135e-09	-3.769907e+01	-8.253266e+01
2.400000e-07	-5.426817e-06	-1.241181e-09	-3.763894e+01	-8.242484e+01
2.500000e-07	-5.417552e-06	-1.214538e-09	-3.757468e+01	-8.231387e+01
2.600000e-07	-5.407584e-06	-1.219809e-09	-3.750554e+01	-8.219990e+01
2.700000e-07	-5.397008e-06	-1.232428e-09	-3.743219e+01	-8.208310e+01
2.800000e-07	-5.385920e-06	-1.239560e-09	-3.735529e+01	-8.196369e+01
2.900000e-07	-5.374401e-06	-1.225226e-09	-3.727539e+01	-8.184189e+01
3.000000e-07	-5.362558e-06	-1.230572e-09	-3.719326e+01	-8.171796e+01
3.100000e-07	-5.350347e-06	-1.230695e-09	-3.710856e+01	-8.159217e+01
3.200000e-07	-5.337699e-06	-1.227671e-09	-3.702084e+01	-8.146479e+01
3.300000e-07	-5.324615e-06	-1.203474e-09	-3.693009e+01	-8.133612e+01
3.400000e-07	-5.311192e-06	-1.220290e-09	-3.683699e+01	-8.120644e+01
3.500000e-07	-5.297316e-06	-1.224863e-09	-3.674075e+01	-8.107603e+01
3.600000e-07	-5.282850e-06	-1.225703e-09	-3.664042e+01	-8.094518e+01
3.700000e-07	-5.267964e-06	-1.222273e-09	-3.653717e+01	-8.081416e+01
3.800000e-07	-5.252743e-06	-1.231956e-09	-3.643160e+01	-8.068321e+01
3.900000e-07	-5.236954e-06	-1.203320e-09	-3.632210e+01	-8.055257e+01
4.000000e-07	-5.220662e-06	-1.196827e-09	-3.620911e+01	-8.042244e+01
4.100000e-07	-5.203935e-06	-1.212231e-09	-3.609309e+01	-8.029302e+01
4.200000e-07	-5.186856e-06	-1.217052e-09	-3.597463e+01	-8.016446e+01
4.300000e-07	-5.169565e-06	-1.196241e-09	-3.585471e+01	-8.003690e+01
4.400000e-07	-5.151999e-06	-1.215653e-09	-3.573287e+01	-7.991042e+01
4.500000e-07	-5.134074e-06	-1.223717e-09	-3.560855e+01	-7.978511e+01
4.600000e-07	-5.115662e-06	-1.199715e-09	-3.548085e+01	-7.966101e+01
4.700000e-07	-5.096839e-06	-1.191407e-09	-3.535030e+01	-7.953812e+01
4.800000e-07	-5.077693e-06	-1.208393e-09	-3.521751e+01	-7.941643e+01
4.900000e-07	-5.058226e-06	-1.194447e-09	-3.508249e+01	-7.929588e+01
5.000000e-07	-5.038576e-06	-1.186041e-09	-3.494620e+01	-7.917642e+01
5.100000e-07	-5.018792e-06	-1.203661e-09	-3.480898e+01	-7.905793e+01
5.200000e-07	-4.998730e-06	-1.198045e-09	-3.466984e+01	-7.894031e+01
5.300000e-07	-4.978177e-06	-1.184367e-09	-3.452729e+01	-7.882342e+01
5.400000e-07	-4.957192e-06	-1.199975e-09	-3.438175e+01	-7.870709e+01
5.500000e-07	-4.935915e-06	-1.202406e-09	-3.423418e+01	-7.859116e+01
5.600000e-07	-4.914351e-06	-1.178255e-09	-3.408461e+01	-7.847545e+01
5.700000e-07	-4.892509e-06	-1.183654e-09	-3.393312e+01	-7.835977e+01
5.800000e-07	-4.870302e-06	-1.192361e-09	-3.377910e+01	-7.824392e+01
5.900000e-07	-4.847684e-06	-1.175243e-09	-3.362223e+01	-7.812769e+01
6.000000e-07	-4.824668e-06	-1.164279e-09	-3.346259e+01	-7.801088e+01
6.100000e-07	-4.801353e-06	-1.177593e-09	-3.330089e+01	-7.789329e+01
6.200000e-07	-4.777815e-06	-1.168816e-09	-3.313763e+01	-7.777472e+01
6.300000e-07	-4.754067e-06	-1.161649e-09	-3.297293e+01	-7.765496e+01
6.400000e-07	-4.730094e-06	-1.170944e-09	-3.280665e+01	-7.753382e+01
6.500000e-07	-4.705740e-06	-1.174389e-09	-3.263775e+01	-7.741113e+01
6.600000e-07	-4.680901e-06	-1.158673e-09	-3.246546e+01	-7.728669e+01
6.700000e-07	-4.655489e-06	-1.164562e-09	-3.228921e+01	-7.716034e+01
6.800000e-07	-4.629437e-06	-1.168908e-09	-3.210853e+01	-7.703193e+01
6.900000e-07	-4.602942e-06	-1.158449e-09	-3.192477e+01	-7.690132e+01
7.000000e-07	-4.576062e-06	-1.148443e-09	-3.173833e+01	-7.676836e+01
7.100000e-07	-4.548759e-06	-1.155968e-09	-3.154897e+01	-7.663295e+01
7.200000e-07	-4.521220e-06	-1.149761e-09	-3.135796e+01	-7.649497e+01
7.300000e-07	-4.493579e-06	-1.142119e-09	-3.116625e+01	-7.635433e+01
7.400000e-07	-4.465806e-06	-1.144739e-09	-3.097362e+01	-7.621096e+01
7.500000e-07	-4.437781e-06	-1.147036e-09	-3.077925e+01	-7.606479e+01
7.600000e-07	-4.409428e-06	-1.134212e-09	-3.058260e+01	-7.591578e+01
7.700000e-07	-4.380786e-06	-1.130569e-09	-3.038395e+01	-7.576389e+01
7.800000e-07	-4.351820e-06	-1.129592e-09	-3.018305e+01	-7.560911e+01
7.900000e-07	-4.322531e-06	-1.116211e-09	-2.997991e+01	-7.545143e+01
8.000000e-07	-4.292939e-06	-1.108942e-09	-2.977467e+01	-7.529087e+01
8.100000e-07	-4.263028e-06	-1.112959e-09	-2.956721e+01	-7.512745e+01
8.200000e-07	-4.232819e-06	-1.105847e-09	-2.935769e+01	-7.496121e+01
8.300000e-07	-4.202380e-06	-1.096587e-09	-2.914657e+01	-7.479220e+01
8.400000e-07	-4.171608e-06	-1.100932e-09	-2.893315e+01	-7.462049e+01
8.500000e-07	-4.140484e-06	-1.100787e-09	-2.871728e+01	-7.444616e+01
8.600000e-07	-4.109177e-06	-1.095070e-09	-2.850014e+01	-7.426929e+01
8.700000e-07	-4.077653e-06	-1.092922e-09	-2.828150e+01	-7.408997e+01
8.800000e-07	-4.045944e-06	-1.089469e-09	-2.806158e+01	-7.390832e+01
8.900000e-07	-4.014108e-06	-1.075760e-09	-2.784077e+01	-7.372443e+01
9.000000e-07	-3.982040e-06	-1.069504e-09	-2.761836e+01	-7.353843e+01
9.100000e-07	-3.949582e-06	-1.068167e-09	-2.739323e+01	-7.335042e+01
9.200000e-07	-3.916752e-06	-1.067053e-09	-2.716553e+01	-7.316054e+01
9.300000e-07	-3.883563e-06	-1.066902e-09	-2.693534e+01	-7.296888e+01
9.400000e-07	-3.849883e-06	-1.070472e-09	-2.670175e+01	-7.277555e+01
9.500000e-07	-3.815703e-06	-1.066199e-09	-2.646469e+01	-7.258068e+01
9.600000e-07	-3.781120e-06	-1.061114e-09	-2.622482e+01	-7.238433e+01
9.700000e-07	-3.746129e-06	-1.058069e-09	-2.598214e+01	-7.218661e+01
9.800000e-07	-3.710803e-06	-1.055969e-09	-2.573713e+01	-7.198758e+01
9.900000e-07	-3.675332e-06	-1.048925e-09	-2.549111e+01	-7.178730e+01
1.000000e-06	-3.639774e-06	-1.045064e-09	-2.524449e+01	-7.158581e+01
1.010000e-06	-3.604097e-06	-1.041379e-09	-2.499705e+01	-7.138312e+01
1.020000e-06	-3.568251e-06	-1.038236e-09	-2.474842e+01	-7.117924e+01
1.030000e-06	-3.532178e-06	-1.037863e-09	-2.449823e+01	-7.097415e+01
1.040000e-06	-3.495883e-06	-1.041460e-09	-2.424650e+01	-7.076781e+01
1.050000e-06	-3.459365e-06	-1.038481e-09	-2.399322e+01	-7.056016e+01
1.060000e-06	-3.422554e-06	-1.031752e-09	-2.373791e+01	-7.035110e+01
1.070000e-06	-3.385420e-06	-1.025762e-09	-2.348036e+01	-7.014054e+01
1.080000e-06	-3.347998e-06	-1.018395e-09	-2.322081e+01	-6.992835e+01
1.090000e-06	-3.310352e-06	-1.009179e-09	-2.295971e+01	-6.971437e+01
1.100000e-06	-3.272546e-06	-1.003314e-09	-2.269750e+01	-6.949845e+01
1.110000e-06	-3.234558e-06	-1.001720e-09	-2.243402e+01	-6.928040e+01
1.120000e-06	-3.196289e-06	-9.999492e-10	-2.216860e+01	-6.906003e+01
1.130000e-06	-3.157772e-06	-9.995589e-10	-2.190145e+01	-6.883712e+01
1.140000e-06	-3.119040e-06	-9.989132e-10	-2.163282e+01	-6.861147e+01
1.150000e-06	-3.080078e-06	-9.966267e-10	-2.136259e+01	-6.838284e+01
1.160000e-06	-3.040949e-06	-9.921354e-10	-2.109120e+01	-6.815100e+01
1.170000e-06	-3.001673e-06	-9.869588e-10	-2.081879e+01	-6.791574e+01
1.180000e-06	-2.962204e-06	-9.802950e-10	-2.054505e+01	-6.767680e+01
1.190000e-06	-2.922586e-06	-9.751164e-10	-2.027027e+01	-6.743398e+01
1.200000e-06	-2.882848e-06	-9.721000e-10	-1.999465e+01	-6.718704e+01
1.210000e-06	-2.843014e-06	-9.690925e-10	-1.971838e+01	-6.693578e+01
1.220000e-06	-2.803073e-06	-9.641010e-10	-1.944136e+01	-6.667999e+01
1.230000e-06	-2.762969e-06	-9.617487e-10	-1.916320e+01	-6.641947e+01
1.240000e-06	-2.722625e-06	-9.590766e-10	-1.888339e+01	-6.615404e+01
1.250000e-06	-2.682014e-06	-9.564600e-10	-1.860172e+01	-6.588354e+01
1.260000e-06	-2.641149e-06	-9.515807e-10	-1.831829e+01	-6.560780e+01
1.270000e-06	-2.600048e-06	-9.463680e-10	-1.803323e+01	-6.532666e+01
1.280000e-06	-2.558688e-06	-9.400150e-10	-1.774637e+01	-6.504000e+01
1.290000e-06	-2.516973e-06	-9.313203e-10	-1.745704e+01	-6.474768e+01
1.300000e-06	-2.474920e-06	-9.231607e-10	-1.716538e+01	-6.444957e+01
1.310000e-06	-2.432561e-06	-9.175157e-10	-1.687159e+01	-6.414555e+01
1.320000e-06	-2.389901e-06	-9.109336e-10	-1.657571e+01	-6.383549e+01
1.330000e-06	-2.347007e-06	-9.059085e-10	-1.627821e+01	-6.351928e+01
1.340000e-06	-2.303899e-06	-9.029016e-10	-1.597922e+01	-6.319676e+01
1.350000e-06	-2.260614e-06	-8.997581e-10	-1.567901e+01	-6.286782e+01
1.360000e-06	-2.217203e-06	-8.942685e-10	-1.537792e+01	-6.253227e+01
1.370000e-06	-2.173680e-06	-8.882334e-10	-1.507606e+01	-6.218996e+01
1.380000e-06	-2.130052e-06	-8.805054e-10	-1.477347e+01	-6.184068e+01
1.390000e-06	-2.086323e-06	-8.708390e-10	-1.447017e+01	-6.148422e+01
1.400000e-06	-2.042553e-06	-8.614778e-10	-1.416659e+01	-6.112033e+01
1.410000e-06	-1.998712e-06	-8.539866e-10	-1.386253e+01	-6.074872e+01
1.420000e-06	-1.954787e-06	-8.485801e-10	-1.355788e+01	-6.036909e+01
1.430000e-06	-1.910798e-06	-8.446195e-10	-1.325278e+01	-5.998110e+01
1.440000e-06	-1.866768e-06	-8.415890e-10	-1.294740e+01	-5.958435e+01
1.450000e-06	-1.822584e-06	-8.370757e-10	-1.264095e+01	-5.917844e+01
1.460000e-06	-1.778171e-06	-8.303523e-10	-1.233291e+01	-5.876291e+01
1.470000e-06	-1.733644e-06	-8.205651e-10	-1.202408e+01	-5.833727e+01
1.480000e-06	-1.689048e-06	-8.099321e-10	-1.171478e+01	-5.790099e+01
1.490000e-06	-1.644299e-06	-7.973574e-10	-1.140441e+01	-5.745352e+01
1.500000e-06	-1.599337e-06	-7.830244e-10	-1.109257e+01	-5.699425e+01
1.510000e-06	-1.554234e-06	-7.703553e-10	-1.077975e+01	-5.652258e+01
1.520000e-06	-1.509008e-06	-7.599640e-10	-1.046607e+01	-5.603786e+01
1.530000e-06	-1.463633e-06	-7.518589e-10	-1.015136e+01	-5.553941e+01
1.540000e-06	-1.418175e-06	-7.471817e-10	-9.836077e+00	-5.502656e+01
1.550000e-06	-1.372715e-06	-7.404413e-10	-9.520779e+00	-5.449861e+01
1.560000e-06	-1.327204e-06	-7.313929e-10	-9.205130e+00	-5.395484e+01
1.570000e-06	-1.281559e-06	-7.210573e-10	-8.888544e+00	-5.339455e+01
1.580000e-06	-1.235811e-06	-7.089809e-10	-8.571253e+00	-5.281700e+01
1.590000e-06	-1.189986e-06	-6.952247e-10	-8.253425e+00	-5.222148e+01
1.600000e-06	-1.144132e-06	-6.833425e-10	-7.935391e+00	-5.160727e+01
1.610000e-06	-1.098207e-06	-6.752958e-10	-7.616869e+00	-5.097368e+01
1.620000e-06	-1.052105e-06	-6.698086e-10	-7.297118e+00	-5.032000e+01
1.630000e-06	-1.005858e-06	-6.662800e-10	-6.976357e+00	-4.964555e+01
1.640000e-06	-9.595291e-07	-6.613205e-10	-6.655035e+00	-4.894966e+01
1.650000e-06	-9.132172e-07	-6.503528e-10	-6.333828e+00	-4.823168e+01
1.660000e-06	-8.668704e-07	-6.348093e-10	-6.012379e+00	-4.749096e+01
1.670000e-06	-8.205101e-07	-6.178230e-10	-5.690836e+00	-4.672688e+01
1.680000e-06	-7.741347e-07	-6.013710e-10	-5.369189e+00	-4.593883e+01
1.690000e-06	-7.276325e-07	-5.859966e-10	-5.046663e+00	-4.512622e+01
1.700000e-06	-6.811394e-07	-5.729957e-10	-4.724199e+00	-4.428848e+01
1.710000e-06	-6.346236e-07	-5.630539e-10	-4.401578e+00	-4.342503e+01
1.720000e-06	-5.880602e-07	-5.547196e-10	-4.078627e+00	-4.253533e+01
1.730000e-06	-5.413830e-07	-5.438132e-10	-3.754886e+00	-4.161883e+01
1.740000e-06	-4.946041e-07	-5.284380e-10	-3.430441e+00	-4.067499e+01
1.750000e-06	-4.478668e-07	-5.121125e-10	-3.106283e+00	-3.970330e+01
1.760000e-06	-4.010012e-07	-4.951663e-10	-2.781236e+00	-3.870323e+01
1.770000e-06	-3.540478e-07	-4.780379e-10	-2.455580e+00	-3.767430e+01
1.780000e-06	-3.071778e-07	-4.613406e-10	-2.130503e+00	-3.661598e+01
1.790000e-06	-2.602970e-07	-4.450251e-10	-1.805350e+00	-3.552781e+01
1.800000e-06	-2.133345e-07	-4.290214e-10	-1.479631e+00	-3.440932e+01
1.810000e-06	-1.663167e-07	-4.134488e-10	-1.153528e+00	-3.326004e+01
1.820000e-06	-1.193197e-07	-3.984429e-10	-8.275690e-01	-3.207955e+01
1.830000e-06	-7.233638e-08	-3.819980e-10	-5.017056e-01	-3.086744e+01
1.840000e-06	-2.533403e-08	-3.643564e-10	-1.757100e-01	-2.962334e+01
1.850000e-06	2.158315e-08	-3.477110e-10	1.496949e-01	-2.834693e+01
1.860000e-06	6.844168e-08	-3.298718e-10	4.746930e-01	-2.703791e+01
1.870000e-06	1.153363e-07	-3.108142e-10	7.999411e-01	-2.569606e+01
1.880000e-06	1.622512e-07	-2.904777e-10	1.125331e+00	-2.432123e+01
1.890000e-06	2.091577e-07	-2.707571e-10	1.450661e+00	-2.291334e+01
1.900000e-06	2.560828e-07	-2.517308e-10	1.776121e+00	-2.147240e+01
1.910000e-06	3.029816e-07	-2.319714e-10	2.101398e+00	-1.999851e+01
1.920000e-06	3.497987e-07	-2.114358e-10	2.426109e+00	-1.849190e+01
1.930000e-06	3.965606e-07	-1.904966e-10	2.750437e+00	-1.695290e+01
1.940000e-06	4.433987e-07	-1.700566e-10	3.075294e+00	-1.538198e+01
1.950000e-06	4.902620e-07	-1.478682e-10	3.400325e+00	-1.377976e+01
1.960000e-06	5.369830e-07	-1.258351e-10	3.724369e+00	-1.214700e+01
1.970000e-06	5.836842e-07	-1.056101e-10	4.048276e+00	-1.048460e+01
1.980000e-06	6.303231e-07	-8.459770e-11	4.371751e+00	-8.793652e+00
1.990000e-06	6.768665e-07	-5.947841e-11	4.694563e+00	-7.075398e+00
2.000000e-06	7.234196e-07	-2.997884e-11	5.017443e+00	-5.331252e+00
2.010000e-06	7.698840e-07	1.241044e-12	5.339708e+00	-3.562798e+00
2.020000e-06	8.162438e-07	3.067742e-11	5.661246e+00	-1.771787e+00
2.030000e-06	8.625172e-07	5.649508e-11	5.982186e+00	3.986262e-02
2.040000e-06	9.087188e-07	7.823905e-11	6.302628e+00	1.870078e+00
2.050000e-06	9.548499e-07	9.813414e-11	6.622581e+00	3.716633e+00
2.060000e-06	1.000941e-06	1.208156e-10	6.942260e+00	5.577164e+00
2.070000e-06	1.046988e-06	1.476307e-10	7.261625e+00	7.449179e+00
2.080000e-06	1.092960e-06	1.767313e-10	7.580476e+00	9.330074e+00
2.090000e-06	1.138851e-06	2.070698e-10	7.898765e+00	1.121715e+01
2.100000e-06	1.184608e-06	2.378277e-10	8.216123e+00	1.310764e+01
2.110000e-06	1.230281e-06	2.666100e-10	8.532897e+00	1.499870e+01
2.120000e-06	1.275878e-06	2.918275e-10	8.849145e+00	1.688747e+01
2.130000e-06	1.321457e-06	3.142761e-10	9.165266e+00	1.877106e+01
2.140000e-06	1.367002e-06	3.354096e-10	9.481155e+00	2.064661e+01
2.150000e-06	1.412389e-06	3.567325e-10	9.795950e+00	2.251126e+01
2.160000e-06	1.457674e-06	3.811613e-10	1.011003e+01	2.436225e+01
2.170000e-06	1.502824e-06	4.091498e-10	1.042318e+01	2.619686e+01
2.180000e-06	1.547911e-06	4.386439e-10	1.073589e+01	2.801248e+01
2.190000e-06	1.592958e-06	4.667741e-10	1.104833e+01	2.980663e+01
2.200000e-06	1.637832e-06	4.914293e-10	1.135956e+01	3.157695e+01
2.210000e-06	1.682608e-06	5.143473e-10	1.167012e+01	3.332126e+01
2.220000e-06	1.727235e-06	5.377792e-10	1.197963e+01	3.503752e+01
2.230000e-06	1.771658e-06	5.596757e-10	1.228774e+01	3.672391e+01
2.240000e-06	1.815922e-06	5.784272e-10	1.259474e+01	3.837877e+01
2.250000e-06	1.860081e-06	5.974835e-10	1.290102e+01	4.000068e+01
2.260000e-06	1.904186e-06	6.178809e-10	1.320692e+01	4.158838e+01
2.270000e-06	1.948171e-06	6.390026e-10	1.351199e+01	4.314086e+01
2.280000e-06	1.992039e-06	6.611719e-10	1.381624e+01	4.465730e+01
2.290000e-06	2.035794e-06	6.829919e-10	1.411972e+01	4.613709e+01
2.300000e-06	2.079479e-06	7.030158e-10	1.442270e+01	4.757982e+01
2.310000e-06	2.123164e-06	7.217978e-10	1.472569e+01	4.898526e+01
2.320000e-06	2.166787e-06	7.395966e-10	1.502825e+01	5.035336e+01
2.330000e-06	2.210249e-06	7.563390e-10	1.532969e+01	5.168425e+01
2.340000e-06	2.253602e-06	7.737390e-10	1.563038e+01	5.297820e+01
2.350000e-06	2.296878e-06	7.905676e-10	1.593053e+01	5.423560e+01
2.360000e-06	2.340000e-06	8.068609e-10	1.622961e+01	5.545699e+01
2.370000e-06	2.382923e-06	8.226765e-10	1.652731e+01	5.664296e+01
2.380000e-06	2.425556e-06	8.369921e-10	1.682300e+01	5.779422e+01
2.390000e-06	2.467801e-06	8.501770e-10	1.711600e+01	5.891153e+01
2.400000e-06	2.509726e-06	8.637625e-10	1.740678e+01	5.999566e+01
2.410000e-06	2.551434e-06	8.783062e-10	1.769606e+01	6.104744e+01
2.420000e-06	2.592884e-06	8.922905e-10	1.798354e+01	6.206768e+01
2.430000e-06	2.634004e-06	9.044376e-10	1.826874e+01	6.305718e+01
2.440000e-06	2.674801e-06	9.140389e-10	1.855170e+01	6.401674e+01
2.450000e-06	2.715277e-06	9.237300e-10	1.883243e+01	6.494710e+01
2.460000e-06	2.755525e-06	9.359795e-10	1.911157e+01	6.584894e+01
2.470000e-06	2.795632e-06	9.491450e-10	1.938975e+01	6.672292e+01
2.480000e-06	2.835598e-06	9.606600e-10	1.966694e+01	6.756961e+01
2.490000e-06	2.875473e-06	9.712630e-10	1.994350e+01	6.838952e+01
2.500000e-06	2.915232e-06	9.818805e-10	2.021927e+01	6.918310e+01
2.510000e-06	2.954813e-06	9.912380e-10	2.049379e+01	6.995073e+01
2.520000e-06	2.994196e-06	1.001076e-09	2.076693e+01	7.069275e+01
2.530000e-06	3.033414e-06	1.012631e-09	2.103894e+01	7.140941e+01
2.540000e-06	3.072426e-06	1.023494e-09	2.130952e+01	7.210093e+01
2.550000e-06	3.111239e-06	1.033358e-09	2.157871e+01	7.276751e+01
2.560000e-06	3.149811e-06	1.041869e-09	2.184624e+01	7.340929e+01
2.570000e-06	3.188069e-06	1.049417e-09	2.211159e+01	7.402642e+01
2.580000e-06	3.226125e-06	1.055857e-09	2.237553e+01	7.461903e+01
2.590000e-06	3.264102e-06	1.063423e-09	2.263893e+01	7.518726e+01
2.600000e-06	3.301905e-06	1.073152e-09	2.290112e+01	7.573129e+01
2.610000e-06	3.339428e-06	1.083678e-09	2.316137e+01	7.625131e+01
2.620000e-06	3.376765e-06	1.093921e-09	2.342033e+01	7.674756e+01
2.630000e-06	3.413797e-06	1.102435e-09	2.367717e+01	7.722037e+01
2.640000e-06	3.450519e-06	1.109561e-09	2.393187e+01	7.767008e+01
2.650000e-06	3.487005e-06	1.113981e-09	2.418493e+01	7.809715e+01
2.660000e-06	3.523250e-06	1.116864e-09	2.443631e+01	7.850211e+01
2.670000e-06	3.559357e-06	1.120693e-09	2.468674e+01	7.888555e+01
2.680000e-06	3.595310e-06	1.124974e-09	2.493610e+01	7.924819e+01
2.690000e-06	3.631044e-06	1.130045e-09	2.518394e+01	7.959079e+01
2.700000e-06	3.666663e-06	1.135899e-09	2.543098e+01	7.991424e+01
2.710000e-06	3.702182e-06	1.140878e-09	2.567734e+01	8.021948e+01
2.720000e-06	3.737424e-06	1.146253e-09	2.592177e+01	8.050753e+01
2.730000e-06	3.772320e-06	1.152981e-09	2.616379e+01	8.077949e+01
2.740000e-06	3.806925e-06	1.160233e-09	2.640381e+01	8.103651e+01
2.750000e-06	3.841156e-06	1.165953e-09	2.664122e+01	8.127977e+01
2.760000e-06	3.874919e-06	1.168476e-09	2.687539e+01	8.151049e+01
2.770000e-06	3.908288e-06	1.169706e-09	2.710683e+01	8.172992e+01
2.780000e-06	3.941238e-06	1.172436e-09	2.733536e+01	8.193930e+01
2.790000e-06	3.973722e-06	1.176846e-09	2.756066e+01	8.213986e+01
2.800000e-06	4.005876e-06	1.182719e-09	2.778368e+01	8.233278e+01
2.810000e-06	4.037771e-06	1.188832e-09	2.800489e+01	8.251923e+01
2.820000e-06	4.069437e-06	1.192861e-09	2.822452e+01	8.270029e+01
2.830000e-06	4.100939e-06	1.196041e-09	2.844301e+01	8.287698e+01
2.840000e-06	4.132290e-06	1.199195e-09	2.866045e+01	8.305023e+01
2.850000e-06	4.163375e-06	1.200330e-09	2.887604e+01	8.322087e+01
2.860000e-06	4.194073e-06	1.198736e-09	2.908896e+01	8.338962e+01
2.870000e-06	4.224505e-06	1.198922e-09	2.930003e+01	8.355709e+01
2.880000e-06	4.254653e-06	1.202655e-09	2.950912e+01	8.372375e+01
2.890000e-06	4.284452e-06	1.206706e-09	2.971580e+01	8.388995e+01
2.900000e-06	4.313991e-06	1.211093e-09	2.992068e+01	8.405592e+01
