# Temperatura_=_-3.08
# Concentracion g/m^3_=_1620.0
# C_Vs_to_Am_M_A/Vsm_=_65563218390.804596
# pendiente_HvsI_1/m_=_3716.3
# ordenada_HvsI_A/m_=_1297.0
# frecuencia_Hz_=_135101.69137098786

Tiempo_(s)	Campo_(V.s)	Magnetizacion_(V.s)	Campo_(kA/m)	Magnetizacion_(A/m)
0.000000e+00	-5.533126e-06	-1.355704e-09	-3.836742e+01	-8.683119e+01
1.000000e-08	-5.533316e-06	-1.353225e-09	-3.836874e+01	-8.674283e+01
2.000000e-08	-5.533209e-06	-1.349928e-09	-3.836800e+01	-8.665362e+01
3.000000e-08	-5.532700e-06	-1.347754e-09	-3.836447e+01	-8.656386e+01
4.000000e-08	-5.531727e-06	-1.347179e-09	-3.835773e+01	-8.647386e+01
5.000000e-08	-5.530174e-06	-1.349309e-09	-3.834695e+01	-8.638392e+01
6.000000e-08	-5.528043e-06	-1.355214e-09	-3.833218e+01	-8.629433e+01
7.000000e-08	-5.525312e-06	-1.356091e-09	-3.831324e+01	-8.620533e+01
8.000000e-08	-5.522066e-06	-1.358872e-09	-3.829073e+01	-8.611716e+01
9.000000e-08	-5.518387e-06	-1.342065e-09	-3.826522e+01	-8.603001e+01
1.000000e-07	-5.514243e-06	-1.310924e-09	-3.823649e+01	-8.594402e+01
1.100000e-07	-5.509814e-06	-1.333180e-09	-3.820577e+01	-8.585932e+01
1.200000e-07	-5.505169e-06	-1.374375e-09	-3.817357e+01	-8.577596e+01
1.300000e-07	-5.500168e-06	-1.334013e-09	-3.813889e+01	-8.569395e+01
1.400000e-07	-5.494852e-06	-1.311934e-09	-3.810203e+01	-8.561326e+01
1.500000e-07	-5.489251e-06	-1.325442e-09	-3.806319e+01	-8.553380e+01
1.600000e-07	-5.483209e-06	-1.394967e-09	-3.802129e+01	-8.545545e+01
1.700000e-07	-5.476677e-06	-1.335193e-09	-3.797600e+01	-8.537801e+01
1.800000e-07	-5.469804e-06	-1.305972e-09	-3.792834e+01	-8.530129e+01
1.900000e-07	-5.462650e-06	-1.300517e-09	-3.787874e+01	-8.522501e+01
2.000000e-07	-5.455201e-06	-1.330679e-09	-3.782709e+01	-8.514889e+01
2.100000e-07	-5.447426e-06	-1.294820e-09	-3.777317e+01	-8.507262e+01
2.200000e-07	-5.439340e-06	-1.286760e-09	-3.771710e+01	-8.499587e+01
2.300000e-07	-5.430922e-06	-1.301095e-09	-3.765873e+01	-8.491829e+01
2.400000e-07	-5.422001e-06	-1.304231e-09	-3.759687e+01	-8.483954e+01
2.500000e-07	-5.412547e-06	-1.292949e-09	-3.753131e+01	-8.475927e+01
2.600000e-07	-5.402615e-06	-1.281859e-09	-3.746244e+01	-8.467714e+01
2.700000e-07	-5.392015e-06	-1.301869e-09	-3.738894e+01	-8.459284e+01
2.800000e-07	-5.380795e-06	-1.286515e-09	-3.731114e+01	-8.450608e+01
2.900000e-07	-5.369174e-06	-1.284961e-09	-3.723056e+01	-8.441658e+01
3.000000e-07	-5.357218e-06	-1.273368e-09	-3.714765e+01	-8.432414e+01
3.100000e-07	-5.344853e-06	-1.294417e-09	-3.706191e+01	-8.422854e+01
3.200000e-07	-5.331994e-06	-1.273332e-09	-3.697275e+01	-8.412967e+01
3.300000e-07	-5.318766e-06	-1.301869e-09	-3.688102e+01	-8.402742e+01
3.400000e-07	-5.305196e-06	-1.282834e-09	-3.678693e+01	-8.392174e+01
3.500000e-07	-5.291212e-06	-1.279530e-09	-3.668996e+01	-8.381264e+01
3.600000e-07	-5.276838e-06	-1.266136e-09	-3.659029e+01	-8.370017e+01
3.700000e-07	-5.262088e-06	-1.283676e-09	-3.648801e+01	-8.358444e+01
3.800000e-07	-5.246732e-06	-1.245699e-09	-3.638153e+01	-8.346559e+01
3.900000e-07	-5.230790e-06	-1.260178e-09	-3.627098e+01	-8.334381e+01
4.000000e-07	-5.214522e-06	-1.275564e-09	-3.615819e+01	-8.321932e+01
4.100000e-07	-5.197837e-06	-1.258559e-09	-3.604249e+01	-8.309238e+01
4.200000e-07	-5.180733e-06	-1.237478e-09	-3.592388e+01	-8.296328e+01
4.300000e-07	-5.163390e-06	-1.282345e-09	-3.580362e+01	-8.283231e+01
4.400000e-07	-5.145680e-06	-1.265652e-09	-3.568082e+01	-8.269978e+01
4.500000e-07	-5.127466e-06	-1.214530e-09	-3.555453e+01	-8.256602e+01
4.600000e-07	-5.108817e-06	-1.244087e-09	-3.542521e+01	-8.243134e+01
4.700000e-07	-5.089825e-06	-1.277627e-09	-3.529352e+01	-8.229606e+01
4.800000e-07	-5.070499e-06	-1.219527e-09	-3.515950e+01	-8.216045e+01
4.900000e-07	-5.050889e-06	-1.212899e-09	-3.502353e+01	-8.202480e+01
5.000000e-07	-5.031060e-06	-1.271905e-09	-3.488603e+01	-8.188934e+01
5.100000e-07	-5.010971e-06	-1.240760e-09	-3.474673e+01	-8.175428e+01
5.200000e-07	-4.990593e-06	-1.203835e-09	-3.460543e+01	-8.161980e+01
5.300000e-07	-4.969976e-06	-1.251438e-09	-3.446247e+01	-8.148601e+01
5.400000e-07	-4.948991e-06	-1.251622e-09	-3.431696e+01	-8.135301e+01
5.500000e-07	-4.927551e-06	-1.191240e-09	-3.416829e+01	-8.122084e+01
5.600000e-07	-4.905831e-06	-1.228266e-09	-3.401767e+01	-8.108949e+01
5.700000e-07	-4.883796e-06	-1.253939e-09	-3.386488e+01	-8.095892e+01
5.800000e-07	-4.861354e-06	-1.205332e-09	-3.370927e+01	-8.082904e+01
5.900000e-07	-4.838560e-06	-1.203457e-09	-3.355122e+01	-8.069971e+01
6.000000e-07	-4.815488e-06	-1.252121e-09	-3.339122e+01	-8.057077e+01
6.100000e-07	-4.792110e-06	-1.210655e-09	-3.322912e+01	-8.044201e+01
6.200000e-07	-4.768478e-06	-1.187795e-09	-3.306526e+01	-8.031322e+01
6.300000e-07	-4.744671e-06	-1.220687e-09	-3.290017e+01	-8.018414e+01
6.400000e-07	-4.720564e-06	-1.218562e-09	-3.273301e+01	-8.005451e+01
6.500000e-07	-4.696061e-06	-1.181396e-09	-3.256311e+01	-7.992406e+01
6.600000e-07	-4.671224e-06	-1.208819e-09	-3.239088e+01	-7.979252e+01
6.700000e-07	-4.645984e-06	-1.214243e-09	-3.221586e+01	-7.965960e+01
6.800000e-07	-4.620047e-06	-1.186767e-09	-3.203602e+01	-7.952506e+01
6.900000e-07	-4.593412e-06	-1.186297e-09	-3.185132e+01	-7.938864e+01
7.000000e-07	-4.566336e-06	-1.204796e-09	-3.166357e+01	-7.925011e+01
7.100000e-07	-4.538989e-06	-1.181528e-09	-3.147395e+01	-7.910929e+01
7.200000e-07	-4.511401e-06	-1.176577e-09	-3.128265e+01	-7.896599e+01
7.300000e-07	-4.483593e-06	-1.190138e-09	-3.108982e+01	-7.882007e+01
7.400000e-07	-4.455607e-06	-1.185447e-09	-3.089577e+01	-7.867144e+01
7.500000e-07	-4.427386e-06	-1.171050e-09	-3.070007e+01	-7.852003e+01
7.600000e-07	-4.398922e-06	-1.178228e-09	-3.050270e+01	-7.836579e+01
7.700000e-07	-4.370113e-06	-1.176679e-09	-3.030294e+01	-7.820874e+01
7.800000e-07	-4.340946e-06	-1.162318e-09	-3.010069e+01	-7.804890e+01
7.900000e-07	-4.311637e-06	-1.160786e-09	-2.989746e+01	-7.788635e+01
8.000000e-07	-4.282025e-06	-1.161157e-09	-2.969213e+01	-7.772118e+01
8.100000e-07	-4.252017e-06	-1.151411e-09	-2.948405e+01	-7.755350e+01
8.200000e-07	-4.221762e-06	-1.146242e-09	-2.927425e+01	-7.738347e+01
8.300000e-07	-4.191181e-06	-1.151481e-09	-2.906220e+01	-7.721121e+01
8.400000e-07	-4.160245e-06	-1.144270e-09	-2.884769e+01	-7.703691e+01
8.500000e-07	-4.128991e-06	-1.141536e-09	-2.863097e+01	-7.686071e+01
8.600000e-07	-4.097554e-06	-1.141545e-09	-2.841298e+01	-7.668278e+01
8.700000e-07	-4.065975e-06	-1.134791e-09	-2.819400e+01	-7.650327e+01
8.800000e-07	-4.034186e-06	-1.119529e-09	-2.797358e+01	-7.632232e+01
8.900000e-07	-4.002230e-06	-1.118168e-09	-2.775199e+01	-7.614003e+01
9.000000e-07	-3.970061e-06	-1.112911e-09	-2.752892e+01	-7.595651e+01
9.100000e-07	-3.937539e-06	-1.107775e-09	-2.730341e+01	-7.577182e+01
9.200000e-07	-3.904585e-06	-1.106971e-09	-2.707491e+01	-7.558599e+01
9.300000e-07	-3.871216e-06	-1.111991e-09	-2.684352e+01	-7.539903e+01
9.400000e-07	-3.837494e-06	-1.103161e-09	-2.660969e+01	-7.521089e+01
9.500000e-07	-3.803469e-06	-1.100379e-09	-2.637375e+01	-7.502152e+01
9.600000e-07	-3.768956e-06	-1.099277e-09	-2.613444e+01	-7.483080e+01
9.700000e-07	-3.733967e-06	-1.094656e-09	-2.589182e+01	-7.463860e+01
9.800000e-07	-3.698726e-06	-1.085801e-09	-2.564745e+01	-7.444474e+01
9.900000e-07	-3.663273e-06	-1.085683e-09	-2.540162e+01	-7.424903e+01
1.000000e-06	-3.627596e-06	-1.079274e-09	-2.515423e+01	-7.405124e+01
1.010000e-06	-3.591694e-06	-1.071325e-09	-2.490528e+01	-7.385112e+01
1.020000e-06	-3.555582e-06	-1.070723e-09	-2.465488e+01	-7.364841e+01
1.030000e-06	-3.519374e-06	-1.075429e-09	-2.440380e+01	-7.344284e+01
1.040000e-06	-3.483023e-06	-1.072390e-09	-2.415174e+01	-7.323412e+01
1.050000e-06	-3.446410e-06	-1.069035e-09	-2.389786e+01	-7.302198e+01
1.060000e-06	-3.409521e-06	-1.067689e-09	-2.364207e+01	-7.280615e+01
1.070000e-06	-3.372393e-06	-1.061584e-09	-2.338462e+01	-7.258637e+01
1.080000e-06	-3.335050e-06	-1.054551e-09	-2.312568e+01	-7.236238e+01
1.090000e-06	-3.297446e-06	-1.052934e-09	-2.286493e+01	-7.213398e+01
1.100000e-06	-3.259618e-06	-1.052474e-09	-2.260262e+01	-7.190096e+01
1.110000e-06	-3.221594e-06	-1.046193e-09	-2.233896e+01	-7.166316e+01
1.120000e-06	-3.183318e-06	-1.041917e-09	-2.207354e+01	-7.142043e+01
1.130000e-06	-3.144796e-06	-1.038336e-09	-2.180643e+01	-7.117268e+01
1.140000e-06	-3.106009e-06	-1.034872e-09	-2.153748e+01	-7.091984e+01
1.150000e-06	-3.066995e-06	-1.030198e-09	-2.126694e+01	-7.066187e+01
1.160000e-06	-3.027806e-06	-1.026644e-09	-2.099520e+01	-7.039878e+01
1.170000e-06	-2.988503e-06	-1.017683e-09	-2.072267e+01	-7.013059e+01
1.180000e-06	-2.949052e-06	-1.009925e-09	-2.044912e+01	-6.985737e+01
1.190000e-06	-2.909360e-06	-1.005811e-09	-2.017389e+01	-6.957920e+01
1.200000e-06	-2.869499e-06	-1.004510e-09	-1.989748e+01	-6.929617e+01
1.210000e-06	-2.829569e-06	-9.992251e-10	-1.962060e+01	-6.900842e+01
1.220000e-06	-2.789444e-06	-9.963206e-10	-1.934237e+01	-6.871606e+01
1.230000e-06	-2.749094e-06	-9.926549e-10	-1.906258e+01	-6.841923e+01
1.240000e-06	-2.708692e-06	-9.884515e-10	-1.878243e+01	-6.811805e+01
1.250000e-06	-2.668145e-06	-9.817325e-10	-1.850127e+01	-6.781264e+01
1.260000e-06	-2.627366e-06	-9.767826e-10	-1.821850e+01	-6.750308e+01
1.270000e-06	-2.586340e-06	-9.701599e-10	-1.793402e+01	-6.718947e+01
1.280000e-06	-2.544976e-06	-9.623453e-10	-1.764720e+01	-6.687184e+01
1.290000e-06	-2.503273e-06	-9.553952e-10	-1.735803e+01	-6.655021e+01
1.300000e-06	-2.461372e-06	-9.501920e-10	-1.706748e+01	-6.622453e+01
1.310000e-06	-2.419090e-06	-9.437158e-10	-1.677429e+01	-6.589475e+01
1.320000e-06	-2.376376e-06	-9.381954e-10	-1.647810e+01	-6.556072e+01
1.330000e-06	-2.333447e-06	-9.321517e-10	-1.618043e+01	-6.522229e+01
1.340000e-06	-2.290356e-06	-9.293037e-10	-1.588163e+01	-6.487922e+01
1.350000e-06	-2.247128e-06	-9.284060e-10	-1.558188e+01	-6.453123e+01
1.360000e-06	-2.203722e-06	-9.277617e-10	-1.528090e+01	-6.417800e+01
1.370000e-06	-2.160127e-06	-9.204284e-10	-1.497861e+01	-6.381913e+01
1.380000e-06	-2.116412e-06	-9.085584e-10	-1.467548e+01	-6.345420e+01
1.390000e-06	-2.072589e-06	-8.986873e-10	-1.437161e+01	-6.308273e+01
1.400000e-06	-2.028728e-06	-8.925218e-10	-1.406747e+01	-6.270419e+01
1.410000e-06	-1.984860e-06	-8.876630e-10	-1.376328e+01	-6.231803e+01
1.420000e-06	-1.940847e-06	-8.818826e-10	-1.345809e+01	-6.192364e+01
1.430000e-06	-1.896729e-06	-8.782729e-10	-1.315217e+01	-6.152042e+01
1.440000e-06	-1.852523e-06	-8.729504e-10	-1.284564e+01	-6.110771e+01
1.450000e-06	-1.808164e-06	-8.639556e-10	-1.253805e+01	-6.068486e+01
1.460000e-06	-1.763681e-06	-8.533902e-10	-1.222960e+01	-6.025120e+01
1.470000e-06	-1.719054e-06	-8.434033e-10	-1.192015e+01	-5.980604e+01
1.480000e-06	-1.674286e-06	-8.315175e-10	-1.160972e+01	-5.934872e+01
1.490000e-06	-1.629376e-06	-8.198828e-10	-1.129831e+01	-5.887856e+01
1.500000e-06	-1.584296e-06	-8.091024e-10	-1.098572e+01	-5.839489e+01
1.510000e-06	-1.539126e-06	-8.021393e-10	-1.067250e+01	-5.789706e+01
1.520000e-06	-1.493889e-06	-7.933697e-10	-1.035882e+01	-5.738443e+01
1.530000e-06	-1.448528e-06	-7.835468e-10	-1.004429e+01	-5.685639e+01
1.540000e-06	-1.403028e-06	-7.712805e-10	-9.728781e+00	-5.631232e+01
1.550000e-06	-1.357424e-06	-7.590396e-10	-9.412556e+00	-5.575163e+01
1.560000e-06	-1.311774e-06	-7.478221e-10	-9.096013e+00	-5.517375e+01
1.570000e-06	-1.266034e-06	-7.404178e-10	-8.778850e+00	-5.457811e+01
1.580000e-06	-1.220245e-06	-7.321858e-10	-8.461336e+00	-5.396418e+01
1.590000e-06	-1.174393e-06	-7.207386e-10	-8.143398e+00	-5.333140e+01
1.600000e-06	-1.128427e-06	-7.065691e-10	-7.824662e+00	-5.267923e+01
1.610000e-06	-1.082382e-06	-6.948097e-10	-7.505378e+00	-5.200714e+01
1.620000e-06	-1.036183e-06	-6.848110e-10	-7.185027e+00	-5.131457e+01
1.630000e-06	-9.898921e-07	-6.754825e-10	-6.864042e+00	-5.060099e+01
1.640000e-06	-9.436027e-07	-6.685275e-10	-6.543066e+00	-4.986580e+01
1.650000e-06	-8.972184e-07	-6.622587e-10	-6.221430e+00	-4.910844e+01
1.660000e-06	-8.507565e-07	-6.511070e-10	-5.899257e+00	-4.832827e+01
1.670000e-06	-8.042363e-07	-6.355635e-10	-5.576681e+00	-4.752467e+01
1.680000e-06	-7.578156e-07	-6.187979e-10	-5.254793e+00	-4.669695e+01
1.690000e-06	-7.114000e-07	-6.000938e-10	-4.932941e+00	-4.584443e+01
1.700000e-06	-6.647696e-07	-5.812936e-10	-4.609600e+00	-4.496637e+01
1.710000e-06	-6.180718e-07	-5.653272e-10	-4.285791e+00	-4.406201e+01
1.720000e-06	-5.713137e-07	-5.522003e-10	-3.961564e+00	-4.313054e+01
1.730000e-06	-5.245152e-07	-5.381152e-10	-3.637057e+00	-4.217116e+01
1.740000e-06	-4.777112e-07	-5.237984e-10	-3.312512e+00	-4.118302e+01
1.750000e-06	-4.309167e-07	-5.097475e-10	-2.988033e+00	-4.016526e+01
1.760000e-06	-3.840979e-07	-4.936875e-10	-2.663385e+00	-3.911702e+01
1.770000e-06	-3.372074e-07	-4.751597e-10	-2.338240e+00	-3.803743e+01
1.780000e-06	-2.903501e-07	-4.567074e-10	-2.013326e+00	-3.692564e+01
1.790000e-06	-2.435080e-07	-4.388053e-10	-1.688517e+00	-3.578082e+01
1.800000e-06	-1.965367e-07	-4.218232e-10	-1.362811e+00	-3.460217e+01
1.810000e-06	-1.495216e-07	-4.049508e-10	-1.036803e+00	-3.338895e+01
1.820000e-06	-1.025545e-07	-3.888935e-10	-7.111261e-01	-3.214047e+01
1.830000e-06	-5.560640e-08	-3.725320e-10	-3.855821e-01	-3.085611e+01
1.840000e-06	-8.669312e-09	-3.571726e-10	-6.011415e-02	-2.953537e+01
1.850000e-06	3.831588e-08	-3.400708e-10	2.656874e-01	-2.817783e+01
1.860000e-06	8.529425e-08	-3.210909e-10	5.914416e-01	-2.678319e+01
1.870000e-06	1.322500e-07	-3.004610e-10	9.170392e-01	-2.535130e+01
1.880000e-06	1.792112e-07	-2.782194e-10	1.242674e+00	-2.388215e+01
1.890000e-06	2.261110e-07	-2.559111e-10	1.567883e+00	-2.237588e+01
1.900000e-06	2.729486e-07	-2.341303e-10	1.892662e+00	-2.083280e+01
1.910000e-06	3.198229e-07	-2.114374e-10	2.217694e+00	-1.925342e+01
1.920000e-06	3.667148e-07	-1.888236e-10	2.542849e+00	-1.763841e+01
1.930000e-06	4.135507e-07	-1.677552e-10	2.867615e+00	-1.598863e+01
1.940000e-06	4.603922e-07	-1.471788e-10	3.192420e+00	-1.430516e+01
1.950000e-06	5.071282e-07	-1.237332e-10	3.516494e+00	-1.258925e+01
1.960000e-06	5.537784e-07	-9.916835e-11	3.839972e+00	-1.084235e+01
1.970000e-06	6.004934e-07	-7.584771e-11	4.163900e+00	-9.066122e+00
1.980000e-06	6.471767e-07	-5.337847e-11	4.487609e+00	-7.262380e+00
1.990000e-06	6.937235e-07	-2.749425e-11	4.810370e+00	-5.433138e+00
2.000000e-06	7.401558e-07	2.388861e-12	5.132338e+00	-3.580571e+00
2.010000e-06	7.865471e-07	3.138582e-11	5.454021e+00	-1.707010e+00
2.020000e-06	8.329139e-07	5.862893e-11	5.775535e+00	1.850713e-01
2.030000e-06	8.792638e-07	8.441043e-11	6.096931e+00	2.093075e+00
2.040000e-06	9.255645e-07	1.082476e-10	6.417986e+00	4.014295e+00
2.050000e-06	9.717325e-07	1.311142e-10	6.738121e+00	5.945935e+00
2.060000e-06	1.017810e-06	1.559336e-10	7.057631e+00	7.885129e+00
2.070000e-06	1.063879e-06	1.819464e-10	7.377078e+00	9.828963e+00
2.080000e-06	1.109927e-06	2.096926e-10	7.696380e+00	1.177450e+01
2.090000e-06	1.155901e-06	2.389797e-10	8.015173e+00	1.371878e+01
2.100000e-06	1.201711e-06	2.687332e-10	8.332823e+00	1.565888e+01
2.110000e-06	1.247409e-06	2.971005e-10	8.649695e+00	1.759190e+01
2.120000e-06	1.293042e-06	3.246984e-10	8.966124e+00	1.951499e+01
2.130000e-06	1.338647e-06	3.511084e-10	9.282351e+00	2.142541e+01
2.140000e-06	1.384237e-06	3.746566e-10	9.598480e+00	2.332048e+01
2.150000e-06	1.429711e-06	3.970064e-10	9.913803e+00	2.519765e+01
2.160000e-06	1.475030e-06	4.210357e-10	1.022805e+01	2.705449e+01
2.170000e-06	1.520237e-06	4.459338e-10	1.054152e+01	2.888871e+01
2.180000e-06	1.565318e-06	4.727677e-10	1.085412e+01	3.069819e+01
2.190000e-06	1.610252e-06	5.025041e-10	1.116570e+01	3.248097e+01
2.200000e-06	1.655054e-06	5.316346e-10	1.147636e+01	3.423526e+01
2.210000e-06	1.699734e-06	5.574778e-10	1.178618e+01	3.595943e+01
2.220000e-06	1.744299e-06	5.812334e-10	1.209520e+01	3.765207e+01
2.230000e-06	1.788738e-06	6.024056e-10	1.240334e+01	3.931192e+01
2.240000e-06	1.833058e-06	6.219962e-10	1.271067e+01	4.093794e+01
2.250000e-06	1.877290e-06	6.419690e-10	1.301737e+01	4.252923e+01
2.260000e-06	1.921393e-06	6.629108e-10	1.332319e+01	4.408510e+01
2.270000e-06	1.965378e-06	6.849216e-10	1.362819e+01	4.560501e+01
2.280000e-06	2.009292e-06	7.072938e-10	1.393269e+01	4.708861e+01
2.290000e-06	2.053158e-06	7.277265e-10	1.423687e+01	4.853567e+01
2.300000e-06	2.096955e-06	7.460337e-10	1.454056e+01	4.994614e+01
2.310000e-06	2.140660e-06	7.647343e-10	1.484362e+01	5.132007e+01
2.320000e-06	2.184261e-06	7.830064e-10	1.514595e+01	5.265766e+01
2.330000e-06	2.227763e-06	8.003486e-10	1.544760e+01	5.395919e+01
2.340000e-06	2.271201e-06	8.168330e-10	1.574880e+01	5.522506e+01
2.350000e-06	2.314477e-06	8.334345e-10	1.604889e+01	5.645573e+01
2.360000e-06	2.357447e-06	8.500093e-10	1.634685e+01	5.765175e+01
2.370000e-06	2.400205e-06	8.650291e-10	1.664334e+01	5.881371e+01
2.380000e-06	2.442811e-06	8.792417e-10	1.693877e+01	5.994224e+01
2.390000e-06	2.484975e-06	8.941467e-10	1.723115e+01	6.103802e+01
2.400000e-06	2.526726e-06	9.091511e-10	1.752065e+01	6.210172e+01
2.410000e-06	2.568188e-06	9.248811e-10	1.780815e+01	6.313404e+01
2.420000e-06	2.609298e-06	9.387102e-10	1.809321e+01	6.413568e+01
2.430000e-06	2.650124e-06	9.486409e-10	1.837631e+01	6.510731e+01
2.440000e-06	2.690786e-06	9.566813e-10	1.865827e+01	6.604962e+01
2.450000e-06	2.731297e-06	9.657844e-10	1.893917e+01	6.696323e+01
2.460000e-06	2.771538e-06	9.775709e-10	1.921821e+01	6.784877e+01
2.470000e-06	2.811583e-06	9.901315e-10	1.949589e+01	6.870683e+01
2.480000e-06	2.851560e-06	1.002191e-09	1.977310e+01	6.953797e+01
2.490000e-06	2.891413e-06	1.013787e-09	2.004944e+01	7.034270e+01
2.500000e-06	2.931111e-06	1.023112e-09	2.032471e+01	7.112151e+01
2.510000e-06	2.970672e-06	1.031119e-09	2.059903e+01	7.187487e+01
2.520000e-06	3.010056e-06	1.039116e-09	2.087212e+01	7.260318e+01
2.530000e-06	3.049203e-06	1.045823e-09	2.114358e+01	7.330685e+01
2.540000e-06	3.088116e-06	1.051387e-09	2.141341e+01	7.398625e+01
2.550000e-06	3.126847e-06	1.058112e-09	2.168197e+01	7.464174e+01
2.560000e-06	3.165385e-06	1.066538e-09	2.194920e+01	7.527365e+01
2.570000e-06	3.203678e-06	1.075418e-09	2.221472e+01	7.588230e+01
2.580000e-06	3.241709e-06	1.083958e-09	2.247844e+01	7.646803e+01
2.590000e-06	3.279531e-06	1.092146e-09	2.274070e+01	7.703115e+01
2.600000e-06	3.317230e-06	1.099382e-09	2.300211e+01	7.757200e+01
2.610000e-06	3.354754e-06	1.106245e-09	2.326231e+01	7.809092e+01
2.620000e-06	3.391945e-06	1.112261e-09	2.352019e+01	7.858827e+01
2.630000e-06	3.428810e-06	1.118699e-09	2.377582e+01	7.906443e+01
2.640000e-06	3.465405e-06	1.125701e-09	2.402957e+01	7.951980e+01
2.650000e-06	3.501694e-06	1.130990e-09	2.428121e+01	7.995483e+01
2.660000e-06	3.537845e-06	1.135445e-09	2.453188e+01	8.036998e+01
2.670000e-06	3.573965e-06	1.140444e-09	2.478235e+01	8.076577e+01
2.680000e-06	3.609942e-06	1.144720e-09	2.503181e+01	8.114273e+01
2.690000e-06	3.645764e-06	1.147879e-09	2.528021e+01	8.150144e+01
2.700000e-06	3.681418e-06	1.152379e-09	2.552744e+01	8.184253e+01
2.710000e-06	3.716837e-06	1.159483e-09	2.577304e+01	8.216664e+01
2.720000e-06	3.751964e-06	1.168411e-09	2.601661e+01	8.247448e+01
2.730000e-06	3.786653e-06	1.174631e-09	2.625715e+01	8.276677e+01
2.740000e-06	3.820878e-06	1.177731e-09	2.649447e+01	8.304426e+01
2.750000e-06	3.854709e-06	1.179180e-09	2.672906e+01	8.330775e+01
2.760000e-06	3.888065e-06	1.178973e-09	2.696035e+01	8.355803e+01
2.770000e-06	3.920998e-06	1.179972e-09	2.718872e+01	8.379594e+01
2.780000e-06	3.953663e-06	1.184862e-09	2.741522e+01	8.402231e+01
2.790000e-06	3.986023e-06	1.193565e-09	2.763961e+01	8.423798e+01
2.800000e-06	4.018075e-06	1.202740e-09	2.786186e+01	8.444380e+01
2.810000e-06	4.049950e-06	1.207375e-09	2.808289e+01	8.464060e+01
2.820000e-06	4.081676e-06	1.210893e-09	2.830288e+01	8.482921e+01
2.830000e-06	4.113223e-06	1.212408e-09	2.852163e+01	8.501043e+01
2.840000e-06	4.144503e-06	1.212230e-09	2.873853e+01	8.518504e+01
2.850000e-06	4.175483e-06	1.211033e-09	2.895335e+01	8.535378e+01
2.860000e-06	4.206263e-06	1.210007e-09	2.916678e+01	8.551735e+01
2.870000e-06	4.236692e-06	1.212146e-09	2.937778e+01	8.567641e+01
2.880000e-06	4.266701e-06	1.217190e-09	2.958587e+01	8.583157e+01
2.890000e-06	4.296474e-06	1.224071e-09	2.979231e+01	8.598337e+01
2.900000e-06	4.325975e-06	1.230301e-09	2.999688e+01	8.613231e+01
