# Temperatura_=_-17.66
# Concentracion g/m^3_=_1620.0
# C_Vs_to_Am_M_A/Vsm_=_65563218390.804596
# pendiente_HvsI_1/m_=_3716.3
# ordenada_HvsI_A/m_=_1297.0
# frecuencia_Hz_=_135106.69304312003

Tiempo_(s)	Campo_(V.s)	Magnetizacion_(V.s)	Campo_(kA/m)	Magnetizacion_(A/m)
0.000000e+00	-5.529384e-06	-8.358819e-10	-3.837144e+01	-5.570930e+01
1.000000e-08	-5.529640e-06	-8.366035e-10	-3.837321e+01	-5.568112e+01
2.000000e-08	-5.529670e-06	-8.366123e-10	-3.837342e+01	-5.565585e+01
3.000000e-08	-5.529431e-06	-8.366887e-10	-3.837176e+01	-5.563408e+01
4.000000e-08	-5.528677e-06	-8.364569e-10	-3.836653e+01	-5.561636e+01
5.000000e-08	-5.527379e-06	-8.344705e-10	-3.835753e+01	-5.560320e+01
6.000000e-08	-5.525484e-06	-8.270135e-10	-3.834437e+01	-5.559503e+01
7.000000e-08	-5.522902e-06	-8.182845e-10	-3.832645e+01	-5.559221e+01
8.000000e-08	-5.519734e-06	-8.212041e-10	-3.830447e+01	-5.559502e+01
9.000000e-08	-5.516120e-06	-8.612700e-10	-3.827939e+01	-5.560364e+01
1.000000e-07	-5.512120e-06	-8.941868e-10	-3.825163e+01	-5.561813e+01
1.100000e-07	-5.507730e-06	-8.262354e-10	-3.822116e+01	-5.563845e+01
1.200000e-07	-5.503159e-06	-7.317534e-10	-3.818945e+01	-5.566445e+01
1.300000e-07	-5.498471e-06	-7.846395e-10	-3.815691e+01	-5.569585e+01
1.400000e-07	-5.493389e-06	-8.798246e-10	-3.812165e+01	-5.573227e+01
1.500000e-07	-5.487860e-06	-8.764943e-10	-3.808328e+01	-5.577321e+01
1.600000e-07	-5.482001e-06	-7.734422e-10	-3.804262e+01	-5.581808e+01
1.700000e-07	-5.475723e-06	-7.898087e-10	-3.799906e+01	-5.586619e+01
1.800000e-07	-5.468917e-06	-8.707992e-10	-3.795183e+01	-5.591677e+01
1.900000e-07	-5.461711e-06	-8.522367e-10	-3.790182e+01	-5.596899e+01
2.000000e-07	-5.454255e-06	-7.584480e-10	-3.785007e+01	-5.602195e+01
2.100000e-07	-5.446588e-06	-7.756431e-10	-3.779687e+01	-5.607472e+01
2.200000e-07	-5.438679e-06	-8.727089e-10	-3.774198e+01	-5.612636e+01
2.300000e-07	-5.430402e-06	-8.933779e-10	-3.768455e+01	-5.617592e+01
2.400000e-07	-5.421738e-06	-8.272036e-10	-3.762442e+01	-5.622245e+01
2.500000e-07	-5.412493e-06	-7.960112e-10	-3.756027e+01	-5.626507e+01
2.600000e-07	-5.402454e-06	-8.377363e-10	-3.749060e+01	-5.630292e+01
2.700000e-07	-5.391865e-06	-8.568102e-10	-3.741712e+01	-5.633523e+01
2.800000e-07	-5.380881e-06	-8.459344e-10	-3.734089e+01	-5.636130e+01
2.900000e-07	-5.369393e-06	-8.296113e-10	-3.726117e+01	-5.638053e+01
3.000000e-07	-5.357537e-06	-8.512291e-10	-3.717889e+01	-5.639245e+01
3.100000e-07	-5.345363e-06	-8.525464e-10	-3.709442e+01	-5.639669e+01
3.200000e-07	-5.332691e-06	-8.327442e-10	-3.700648e+01	-5.639302e+01
3.300000e-07	-5.319520e-06	-8.103928e-10	-3.691507e+01	-5.638135e+01
3.400000e-07	-5.305981e-06	-8.483092e-10	-3.682112e+01	-5.636171e+01
3.500000e-07	-5.292143e-06	-8.595768e-10	-3.672509e+01	-5.633429e+01
3.600000e-07	-5.277868e-06	-8.355377e-10	-3.662603e+01	-5.629940e+01
3.700000e-07	-5.263059e-06	-8.324467e-10	-3.652326e+01	-5.625750e+01
3.800000e-07	-5.247680e-06	-8.711920e-10	-3.641654e+01	-5.620916e+01
3.900000e-07	-5.231650e-06	-8.341682e-10	-3.630530e+01	-5.615508e+01
4.000000e-07	-5.215114e-06	-8.042583e-10	-3.619055e+01	-5.609603e+01
4.100000e-07	-5.198355e-06	-8.555300e-10	-3.607424e+01	-5.603291e+01
4.200000e-07	-5.181413e-06	-8.690893e-10	-3.595667e+01	-5.596668e+01
4.300000e-07	-5.164135e-06	-7.979945e-10	-3.583677e+01	-5.589834e+01
4.400000e-07	-5.146493e-06	-8.247932e-10	-3.571435e+01	-5.582896e+01
4.500000e-07	-5.128559e-06	-8.969727e-10	-3.558989e+01	-5.575960e+01
4.600000e-07	-5.110153e-06	-8.354908e-10	-3.546216e+01	-5.569135e+01
4.700000e-07	-5.091166e-06	-7.903165e-10	-3.533040e+01	-5.562526e+01
4.800000e-07	-5.071876e-06	-8.735332e-10	-3.519654e+01	-5.556237e+01
4.900000e-07	-5.052460e-06	-8.741565e-10	-3.506180e+01	-5.550366e+01
5.000000e-07	-5.032869e-06	-7.918351e-10	-3.492585e+01	-5.545003e+01
5.100000e-07	-5.013055e-06	-8.384573e-10	-3.478835e+01	-5.540230e+01
5.200000e-07	-4.992949e-06	-8.798153e-10	-3.464882e+01	-5.536122e+01
5.300000e-07	-4.972476e-06	-8.058626e-10	-3.450675e+01	-5.532741e+01
5.400000e-07	-4.951622e-06	-8.141486e-10	-3.436203e+01	-5.530136e+01
5.500000e-07	-4.930407e-06	-8.897942e-10	-3.421481e+01	-5.528348e+01
5.600000e-07	-4.908859e-06	-8.332461e-10	-3.406527e+01	-5.527401e+01
5.700000e-07	-4.886999e-06	-7.953689e-10	-3.391358e+01	-5.527308e+01
5.800000e-07	-4.864798e-06	-8.666653e-10	-3.375951e+01	-5.528069e+01
5.900000e-07	-4.842216e-06	-8.605803e-10	-3.360280e+01	-5.529671e+01
6.000000e-07	-4.819194e-06	-7.970001e-10	-3.344304e+01	-5.532088e+01
6.100000e-07	-4.795829e-06	-8.426369e-10	-3.328089e+01	-5.535284e+01
6.200000e-07	-4.772301e-06	-8.662365e-10	-3.311762e+01	-5.539209e+01
6.300000e-07	-4.748624e-06	-8.173709e-10	-3.295332e+01	-5.543807e+01
6.400000e-07	-4.724731e-06	-8.320459e-10	-3.278751e+01	-5.549012e+01
6.500000e-07	-4.700462e-06	-8.679641e-10	-3.261909e+01	-5.554749e+01
6.600000e-07	-4.675701e-06	-8.273527e-10	-3.244726e+01	-5.560940e+01
6.700000e-07	-4.650382e-06	-8.242640e-10	-3.227156e+01	-5.567500e+01
6.800000e-07	-4.624472e-06	-8.609203e-10	-3.209175e+01	-5.574343e+01
6.900000e-07	-4.598114e-06	-8.446229e-10	-3.190884e+01	-5.581379e+01
7.000000e-07	-4.571318e-06	-8.298725e-10	-3.172289e+01	-5.588522e+01
7.100000e-07	-4.544087e-06	-8.618248e-10	-3.153392e+01	-5.595684e+01
7.200000e-07	-4.516621e-06	-8.561537e-10	-3.134332e+01	-5.602780e+01
7.300000e-07	-4.488978e-06	-8.345564e-10	-3.115149e+01	-5.609732e+01
7.400000e-07	-4.461135e-06	-8.494636e-10	-3.095827e+01	-5.616462e+01
7.500000e-07	-4.433063e-06	-8.515674e-10	-3.076346e+01	-5.622904e+01
7.600000e-07	-4.404730e-06	-8.322053e-10	-3.056685e+01	-5.628995e+01
7.700000e-07	-4.376142e-06	-8.423376e-10	-3.036846e+01	-5.634680e+01
7.800000e-07	-4.347284e-06	-8.543591e-10	-3.016819e+01	-5.639914e+01
7.900000e-07	-4.318089e-06	-8.403055e-10	-2.996559e+01	-5.644659e+01
8.000000e-07	-4.288530e-06	-8.425905e-10	-2.976047e+01	-5.648886e+01
8.100000e-07	-4.258686e-06	-8.515851e-10	-2.955336e+01	-5.652576e+01
8.200000e-07	-4.228586e-06	-8.338002e-10	-2.934448e+01	-5.655717e+01
8.300000e-07	-4.198176e-06	-8.218336e-10	-2.913345e+01	-5.658306e+01
8.400000e-07	-4.167441e-06	-8.380918e-10	-2.892017e+01	-5.660349e+01
8.500000e-07	-4.136470e-06	-8.399002e-10	-2.870524e+01	-5.661856e+01
8.600000e-07	-4.105238e-06	-8.335779e-10	-2.848851e+01	-5.662849e+01
8.700000e-07	-4.073727e-06	-8.418266e-10	-2.826983e+01	-5.663352e+01
8.800000e-07	-4.042079e-06	-8.446021e-10	-2.805021e+01	-5.663395e+01
8.900000e-07	-4.010326e-06	-8.290080e-10	-2.782986e+01	-5.663014e+01
9.000000e-07	-3.978349e-06	-8.287179e-10	-2.760795e+01	-5.662248e+01
9.100000e-07	-3.946036e-06	-8.335922e-10	-2.738371e+01	-5.661138e+01
9.200000e-07	-3.913393e-06	-8.267686e-10	-2.715719e+01	-5.659728e+01
9.300000e-07	-3.880397e-06	-8.247166e-10	-2.692821e+01	-5.658062e+01
9.400000e-07	-3.846913e-06	-8.367729e-10	-2.669585e+01	-5.656186e+01
9.500000e-07	-3.812830e-06	-8.345553e-10	-2.645933e+01	-5.654143e+01
9.600000e-07	-3.778267e-06	-8.271818e-10	-2.621948e+01	-5.651978e+01
9.700000e-07	-3.743338e-06	-8.309113e-10	-2.597708e+01	-5.649733e+01
9.800000e-07	-3.708047e-06	-8.314957e-10	-2.573217e+01	-5.647446e+01
9.900000e-07	-3.672547e-06	-8.208295e-10	-2.548582e+01	-5.645154e+01
1.000000e-06	-3.636936e-06	-8.200535e-10	-2.523870e+01	-5.642892e+01
1.010000e-06	-3.601222e-06	-8.236853e-10	-2.499086e+01	-5.640688e+01
1.020000e-06	-3.565431e-06	-8.200866e-10	-2.474249e+01	-5.638571e+01
1.030000e-06	-3.529499e-06	-8.215118e-10	-2.449313e+01	-5.636562e+01
1.040000e-06	-3.493348e-06	-8.310305e-10	-2.424226e+01	-5.634681e+01
1.050000e-06	-3.456827e-06	-8.313027e-10	-2.398882e+01	-5.632942e+01
1.060000e-06	-3.419941e-06	-8.257766e-10	-2.373285e+01	-5.631357e+01
1.070000e-06	-3.382875e-06	-8.272963e-10	-2.347563e+01	-5.629932e+01
1.080000e-06	-3.345585e-06	-8.256104e-10	-2.321686e+01	-5.628672e+01
1.090000e-06	-3.308047e-06	-8.195753e-10	-2.295636e+01	-5.627575e+01
1.100000e-06	-3.270300e-06	-8.210419e-10	-2.269441e+01	-5.626638e+01
1.110000e-06	-3.232296e-06	-8.254683e-10	-2.243068e+01	-5.625855e+01
1.120000e-06	-3.193980e-06	-8.224545e-10	-2.216478e+01	-5.625216e+01
1.130000e-06	-3.155519e-06	-8.218217e-10	-2.189788e+01	-5.624707e+01
1.140000e-06	-3.116868e-06	-8.248798e-10	-2.162966e+01	-5.624313e+01
1.150000e-06	-3.077937e-06	-8.244632e-10	-2.135950e+01	-5.624016e+01
1.160000e-06	-3.038823e-06	-8.210040e-10	-2.108806e+01	-5.623796e+01
1.170000e-06	-2.999499e-06	-8.207980e-10	-2.081517e+01	-5.623628e+01
1.180000e-06	-2.960002e-06	-8.209133e-10	-2.054108e+01	-5.623489e+01
1.190000e-06	-2.920393e-06	-8.231317e-10	-2.026621e+01	-5.623351e+01
1.200000e-06	-2.880678e-06	-8.272283e-10	-1.999061e+01	-5.623185e+01
1.210000e-06	-2.840844e-06	-8.295136e-10	-1.971418e+01	-5.622960e+01
1.220000e-06	-2.800910e-06	-8.267698e-10	-1.943706e+01	-5.622643e+01
1.230000e-06	-2.760793e-06	-8.258710e-10	-1.915866e+01	-5.622200e+01
1.240000e-06	-2.720509e-06	-8.254782e-10	-1.887911e+01	-5.621595e+01
1.250000e-06	-2.680019e-06	-8.234363e-10	-1.859812e+01	-5.620790e+01
1.260000e-06	-2.639185e-06	-8.226991e-10	-1.831476e+01	-5.619747e+01
1.270000e-06	-2.598079e-06	-8.253806e-10	-1.802950e+01	-5.618426e+01
1.280000e-06	-2.556711e-06	-8.259393e-10	-1.774242e+01	-5.616784e+01
1.290000e-06	-2.514987e-06	-8.239404e-10	-1.745287e+01	-5.614780e+01
1.300000e-06	-2.472931e-06	-8.226526e-10	-1.716103e+01	-5.612370e+01
1.310000e-06	-2.430578e-06	-8.213277e-10	-1.686712e+01	-5.609510e+01
1.320000e-06	-2.387974e-06	-8.178018e-10	-1.657147e+01	-5.606157e+01
1.330000e-06	-2.345119e-06	-8.156033e-10	-1.627407e+01	-5.602265e+01
1.340000e-06	-2.302065e-06	-8.149494e-10	-1.597530e+01	-5.597791e+01
1.350000e-06	-2.258890e-06	-8.147935e-10	-1.567568e+01	-5.592688e+01
1.360000e-06	-2.215488e-06	-8.157677e-10	-1.537449e+01	-5.586914e+01
1.370000e-06	-2.171888e-06	-8.165416e-10	-1.507192e+01	-5.580424e+01
1.380000e-06	-2.128219e-06	-8.150098e-10	-1.476888e+01	-5.573177e+01
1.390000e-06	-2.084511e-06	-8.114697e-10	-1.446557e+01	-5.565131e+01
1.400000e-06	-2.040735e-06	-8.085441e-10	-1.416178e+01	-5.556246e+01
1.410000e-06	-1.996906e-06	-8.053201e-10	-1.385763e+01	-5.546482e+01
1.420000e-06	-1.953014e-06	-8.011984e-10	-1.355304e+01	-5.535804e+01
1.430000e-06	-1.908992e-06	-7.974450e-10	-1.324755e+01	-5.524174e+01
1.440000e-06	-1.864850e-06	-7.957685e-10	-1.294122e+01	-5.511559e+01
1.450000e-06	-1.820613e-06	-7.925276e-10	-1.263424e+01	-5.497927e+01
1.460000e-06	-1.776261e-06	-7.886686e-10	-1.232645e+01	-5.483247e+01
1.470000e-06	-1.731833e-06	-7.841691e-10	-1.201814e+01	-5.467489e+01
1.480000e-06	-1.687203e-06	-7.800835e-10	-1.170843e+01	-5.450625e+01
1.490000e-06	-1.642268e-06	-7.762591e-10	-1.139660e+01	-5.432627e+01
1.500000e-06	-1.597252e-06	-7.710717e-10	-1.108421e+01	-5.413468e+01
1.510000e-06	-1.552212e-06	-7.645039e-10	-1.077165e+01	-5.393121e+01
1.520000e-06	-1.507056e-06	-7.595635e-10	-1.045829e+01	-5.371560e+01
1.530000e-06	-1.461721e-06	-7.558710e-10	-1.014369e+01	-5.348756e+01
1.540000e-06	-1.416283e-06	-7.527137e-10	-9.828370e+00	-5.324681e+01
1.550000e-06	-1.370865e-06	-7.484855e-10	-9.513188e+00	-5.299303e+01
1.560000e-06	-1.325349e-06	-7.436798e-10	-9.197326e+00	-5.272589e+01
1.570000e-06	-1.279723e-06	-7.394463e-10	-8.880701e+00	-5.244505e+01
1.580000e-06	-1.234024e-06	-7.343515e-10	-8.563570e+00	-5.215009e+01
1.590000e-06	-1.188213e-06	-7.274740e-10	-8.245661e+00	-5.184060e+01
1.600000e-06	-1.142316e-06	-7.205566e-10	-7.927159e+00	-5.151609e+01
1.610000e-06	-1.096283e-06	-7.154932e-10	-7.607710e+00	-5.117606e+01
1.620000e-06	-1.050065e-06	-7.105604e-10	-7.286980e+00	-5.081993e+01
1.630000e-06	-1.003851e-06	-7.061640e-10	-6.966278e+00	-5.044707e+01
1.640000e-06	-9.577249e-07	-7.016030e-10	-6.646180e+00	-5.005683e+01
1.650000e-06	-9.114968e-07	-6.940498e-10	-6.325378e+00	-4.964846e+01
1.660000e-06	-8.651296e-07	-6.849240e-10	-6.003610e+00	-4.922118e+01
1.670000e-06	-8.187290e-07	-6.756214e-10	-5.681611e+00	-4.877416e+01
1.680000e-06	-7.723249e-07	-6.666885e-10	-5.359587e+00	-4.830652e+01
1.690000e-06	-7.258688e-07	-6.575237e-10	-5.037203e+00	-4.781732e+01
1.700000e-06	-6.793853e-07	-6.491334e-10	-4.714628e+00	-4.730561e+01
1.710000e-06	-6.328558e-07	-6.432026e-10	-4.391735e+00	-4.677038e+01
1.720000e-06	-5.862585e-07	-6.383323e-10	-4.068370e+00	-4.621060e+01
1.730000e-06	-5.396538e-07	-6.294598e-10	-3.744955e+00	-4.562522e+01
1.740000e-06	-4.930615e-07	-6.163179e-10	-3.421625e+00	-4.501320e+01
1.750000e-06	-4.463540e-07	-6.041910e-10	-3.097496e+00	-4.437349e+01
1.760000e-06	-3.995120e-07	-5.916727e-10	-2.772434e+00	-4.370504e+01
1.770000e-06	-3.526543e-07	-5.801124e-10	-2.447262e+00	-4.300684e+01
1.780000e-06	-3.058126e-07	-5.712521e-10	-2.122202e+00	-4.227792e+01
1.790000e-06	-2.589527e-07	-5.629872e-10	-1.797015e+00	-4.151734e+01
1.800000e-06	-2.120298e-07	-5.528091e-10	-1.471391e+00	-4.072423e+01
1.810000e-06	-1.650917e-07	-5.417940e-10	-1.145662e+00	-3.989778e+01
1.820000e-06	-1.182608e-07	-5.299749e-10	-8.206766e-01	-3.903729e+01
1.830000e-06	-7.148671e-08	-5.165995e-10	-4.960856e-01	-3.814212e+01
1.840000e-06	-2.463560e-08	-5.023804e-10	-1.709600e-01	-3.721176e+01
1.850000e-06	2.222634e-08	-4.893441e-10	1.542408e-01	-3.624579e+01
1.860000e-06	6.906266e-08	-4.767033e-10	4.792638e-01	-3.524392e+01
1.870000e-06	1.159359e-07	-4.624610e-10	8.045432e-01	-3.420600e+01
1.880000e-06	1.628220e-07	-4.471009e-10	1.129911e+00	-3.313199e+01
1.890000e-06	2.097405e-07	-4.307541e-10	1.455505e+00	-3.202201e+01
1.900000e-06	2.566664e-07	-4.134653e-10	1.781150e+00	-3.087632e+01
1.910000e-06	3.035096e-07	-3.958569e-10	2.106220e+00	-2.969531e+01
1.920000e-06	3.503423e-07	-3.778272e-10	2.431218e+00	-2.847954e+01
1.930000e-06	3.971401e-07	-3.592915e-10	2.755974e+00	-2.722969e+01
1.940000e-06	4.438865e-07	-3.402550e-10	3.080373e+00	-2.594660e+01
1.950000e-06	4.906095e-07	-3.211376e-10	3.404609e+00	-2.463124e+01
1.960000e-06	5.373088e-07	-3.033103e-10	3.728681e+00	-2.328473e+01
1.970000e-06	5.839845e-07	-2.865369e-10	4.052590e+00	-2.190831e+01
1.980000e-06	6.305397e-07	-2.704671e-10	4.375662e+00	-2.050335e+01
1.990000e-06	6.769850e-07	-2.524707e-10	4.697971e+00	-1.907133e+01
2.000000e-06	7.233494e-07	-2.298401e-10	5.019719e+00	-1.761386e+01
2.010000e-06	7.696748e-07	-2.057972e-10	5.341197e+00	-1.613262e+01
2.020000e-06	8.159499e-07	-1.833685e-10	5.662325e+00	-1.462941e+01
2.030000e-06	8.621886e-07	-1.616695e-10	5.983201e+00	-1.310610e+01
2.040000e-06	9.084728e-07	-1.406876e-10	6.304393e+00	-1.156462e+01
2.050000e-06	9.547183e-07	-1.205614e-10	6.625316e+00	-1.000699e+01
2.060000e-06	1.000881e-06	-9.977261e-11	6.945661e+00	-8.435254e+00
2.070000e-06	1.047012e-06	-7.683309e-11	7.265793e+00	-6.851522e+00
2.080000e-06	1.093036e-06	-5.409594e-11	7.585180e+00	-5.257922e+00
2.090000e-06	1.138909e-06	-3.154463e-11	7.903517e+00	-3.656609e+00
2.100000e-06	1.184728e-06	-6.590370e-12	8.221481e+00	-2.049751e+00
2.110000e-06	1.230440e-06	1.832529e-11	8.538702e+00	-4.395186e-01
2.120000e-06	1.276049e-06	4.239178e-11	8.855207e+00	1.171920e+00
2.130000e-06	1.321641e-06	6.640767e-11	9.171597e+00	2.782411e+00
2.140000e-06	1.367136e-06	8.770217e-11	9.487309e+00	4.389819e+00
2.150000e-06	1.412536e-06	1.062885e-10	9.802362e+00	5.992039e+00
2.160000e-06	1.457811e-06	1.262177e-10	1.011656e+01	7.587001e+00
2.170000e-06	1.502913e-06	1.480009e-10	1.042954e+01	9.172674e+00
2.180000e-06	1.547943e-06	1.690423e-10	1.074203e+01	1.074708e+01
2.190000e-06	1.592905e-06	1.913399e-10	1.105404e+01	1.230829e+01
2.200000e-06	1.637783e-06	2.159078e-10	1.136548e+01	1.385443e+01
2.210000e-06	1.682561e-06	2.389978e-10	1.167621e+01	1.538370e+01
2.220000e-06	1.727115e-06	2.592643e-10	1.198540e+01	1.689437e+01
2.230000e-06	1.771440e-06	2.793340e-10	1.229299e+01	1.838478e+01
2.240000e-06	1.815615e-06	2.987018e-10	1.259955e+01	1.985334e+01
2.250000e-06	1.859731e-06	3.158309e-10	1.290570e+01	2.129856e+01
2.260000e-06	1.903781e-06	3.330682e-10	1.321138e+01	2.271902e+01
2.270000e-06	1.947704e-06	3.516908e-10	1.351619e+01	2.411340e+01
2.280000e-06	1.991569e-06	3.708102e-10	1.382059e+01	2.548047e+01
2.290000e-06	2.035410e-06	3.889180e-10	1.412483e+01	2.681910e+01
2.300000e-06	2.079190e-06	4.051905e-10	1.442865e+01	2.812825e+01
2.310000e-06	2.122876e-06	4.203133e-10	1.473180e+01	2.940700e+01
2.320000e-06	2.166503e-06	4.357953e-10	1.503456e+01	3.065450e+01
2.330000e-06	2.210091e-06	4.526440e-10	1.533704e+01	3.187005e+01
2.340000e-06	2.253591e-06	4.699847e-10	1.563891e+01	3.305301e+01
2.350000e-06	2.296910e-06	4.873250e-10	1.593952e+01	3.420289e+01
2.360000e-06	2.339948e-06	5.035786e-10	1.623819e+01	3.531927e+01
2.370000e-06	2.382699e-06	5.177000e-10	1.653486e+01	3.640186e+01
2.380000e-06	2.425270e-06	5.295393e-10	1.683029e+01	3.745046e+01
2.390000e-06	2.467586e-06	5.397756e-10	1.712394e+01	3.846499e+01
2.400000e-06	2.509485e-06	5.517473e-10	1.741470e+01	3.944546e+01
2.410000e-06	2.551046e-06	5.651550e-10	1.770311e+01	4.039197e+01
2.420000e-06	2.592362e-06	5.768253e-10	1.798982e+01	4.130473e+01
2.430000e-06	2.633423e-06	5.866874e-10	1.827477e+01	4.218401e+01
2.440000e-06	2.674215e-06	5.959624e-10	1.855785e+01	4.303021e+01
2.450000e-06	2.714756e-06	6.056754e-10	1.883919e+01	4.384376e+01
2.460000e-06	2.755073e-06	6.153534e-10	1.911897e+01	4.462518e+01
2.470000e-06	2.795159e-06	6.241068e-10	1.939714e+01	4.537507e+01
2.480000e-06	2.835045e-06	6.321510e-10	1.967394e+01	4.609406e+01
2.490000e-06	2.874835e-06	6.405566e-10	1.995006e+01	4.678285e+01
2.500000e-06	2.914541e-06	6.490825e-10	2.022560e+01	4.744216e+01
2.510000e-06	2.954131e-06	6.565471e-10	2.050034e+01	4.807277e+01
2.520000e-06	2.993555e-06	6.633617e-10	2.077392e+01	4.867547e+01
2.530000e-06	3.032760e-06	6.700090e-10	2.104599e+01	4.925107e+01
2.540000e-06	3.071721e-06	6.774335e-10	2.131636e+01	4.980039e+01
2.550000e-06	3.110382e-06	6.848622e-10	2.158465e+01	5.032426e+01
2.560000e-06	3.148838e-06	6.921959e-10	2.185152e+01	5.082351e+01
2.570000e-06	3.187138e-06	7.000387e-10	2.211730e+01	5.129897e+01
2.580000e-06	3.225288e-06	7.064313e-10	2.238205e+01	5.175143e+01
2.590000e-06	3.263252e-06	7.112591e-10	2.264550e+01	5.218169e+01
2.600000e-06	3.300928e-06	7.154508e-10	2.290695e+01	5.259053e+01
2.610000e-06	3.338386e-06	7.195626e-10	2.316689e+01	5.297869e+01
2.620000e-06	3.375614e-06	7.250439e-10	2.342524e+01	5.334690e+01
2.630000e-06	3.412558e-06	7.311040e-10	2.368162e+01	5.369586e+01
2.640000e-06	3.449295e-06	7.379984e-10	2.393655e+01	5.402624e+01
2.650000e-06	3.485797e-06	7.450954e-10	2.418986e+01	5.433871e+01
2.660000e-06	3.522028e-06	7.508286e-10	2.444129e+01	5.463389e+01
2.670000e-06	3.558100e-06	7.558941e-10	2.469161e+01	5.491238e+01
2.680000e-06	3.594045e-06	7.581561e-10	2.494105e+01	5.517479e+01
2.690000e-06	3.629800e-06	7.606232e-10	2.518918e+01	5.542169e+01
2.700000e-06	3.665348e-06	7.646221e-10	2.543587e+01	5.565364e+01
2.710000e-06	3.700810e-06	7.698823e-10	2.568196e+01	5.587120e+01
2.720000e-06	3.736123e-06	7.755254e-10	2.592701e+01	5.607493e+01
2.730000e-06	3.771064e-06	7.808846e-10	2.616949e+01	5.626539e+01
2.740000e-06	3.805587e-06	7.867580e-10	2.640906e+01	5.644312e+01
2.750000e-06	3.839633e-06	7.910682e-10	2.664533e+01	5.660870e+01
2.760000e-06	3.873235e-06	7.937706e-10	2.687851e+01	5.676268e+01
2.770000e-06	3.906422e-06	7.942113e-10	2.710881e+01	5.690566e+01
2.780000e-06	3.939169e-06	7.954004e-10	2.733606e+01	5.703822e+01
2.790000e-06	3.971486e-06	7.986959e-10	2.756033e+01	5.716096e+01
2.800000e-06	4.003508e-06	8.041941e-10	2.778255e+01	5.727449e+01
2.810000e-06	4.035373e-06	8.094347e-10	2.800367e+01	5.737942e+01
2.820000e-06	4.067040e-06	8.150210e-10	2.822343e+01	5.747639e+01
2.830000e-06	4.098579e-06	8.208543e-10	2.844229e+01	5.756603e+01
2.840000e-06	4.130022e-06	8.237460e-10	2.866049e+01	5.764894e+01
2.850000e-06	4.161268e-06	8.227699e-10	2.887732e+01	5.772576e+01
2.860000e-06	4.192136e-06	8.192553e-10	2.909154e+01	5.779709e+01
2.870000e-06	4.222567e-06	8.177446e-10	2.930272e+01	5.786353e+01
2.880000e-06	4.252688e-06	8.195268e-10	2.951174e+01	5.792563e+01
2.890000e-06	4.282558e-06	8.215293e-10	2.971902e+01	5.798393e+01
2.900000e-06	4.312187e-06	8.238206e-10	2.992464e+01	5.803894e+01
