# Temperatura_=_13.4
# Concentracion g/m^3_=_1620.0
# C_Vs_to_Am_M_A/Vsm_=_65563218390.804596
# pendiente_HvsI_1/m_=_3716.3
# ordenada_HvsI_A/m_=_1297.0
# frecuencia_Hz_=_135095.36795416355

Tiempo_(s)	Campo_(V.s)	Magnetizacion_(V.s)	Campo_(kA/m)	Magnetizacion_(A/m)
0.000000e+00	-5.527393e-06	-1.710945e-09	-3.837325e+01	-1.112485e+02
1.000000e-08	-5.527554e-06	-1.707879e-09	-3.837436e+01	-1.111738e+02
2.000000e-08	-5.527506e-06	-1.706532e-09	-3.837403e+01	-1.111014e+02
3.000000e-08	-5.527124e-06	-1.705350e-09	-3.837138e+01	-1.110320e+02
4.000000e-08	-5.526311e-06	-1.705781e-09	-3.836574e+01	-1.109662e+02
5.000000e-08	-5.525035e-06	-1.701832e-09	-3.835688e+01	-1.109045e+02
6.000000e-08	-5.523128e-06	-1.692855e-09	-3.834364e+01	-1.108470e+02
7.000000e-08	-5.520520e-06	-1.678193e-09	-3.832553e+01	-1.107942e+02
8.000000e-08	-5.517386e-06	-1.688566e-09	-3.830377e+01	-1.107459e+02
9.000000e-08	-5.513815e-06	-1.754241e-09	-3.827898e+01	-1.107021e+02
1.000000e-07	-5.509794e-06	-1.788666e-09	-3.825107e+01	-1.106626e+02
1.100000e-07	-5.505397e-06	-1.672793e-09	-3.822054e+01	-1.106270e+02
1.200000e-07	-5.500930e-06	-1.616682e-09	-3.818953e+01	-1.105948e+02
1.300000e-07	-5.496228e-06	-1.678411e-09	-3.815689e+01	-1.105654e+02
1.400000e-07	-5.491002e-06	-1.756340e-09	-3.812060e+01	-1.105380e+02
1.500000e-07	-5.485372e-06	-1.704098e-09	-3.808152e+01	-1.105117e+02
1.600000e-07	-5.479478e-06	-1.633042e-09	-3.804060e+01	-1.104856e+02
1.700000e-07	-5.473214e-06	-1.703721e-09	-3.799712e+01	-1.104586e+02
1.800000e-07	-5.466397e-06	-1.758321e-09	-3.794979e+01	-1.104296e+02
1.900000e-07	-5.459142e-06	-1.728156e-09	-3.789942e+01	-1.103975e+02
2.000000e-07	-5.451632e-06	-1.639513e-09	-3.784728e+01	-1.103611e+02
2.100000e-07	-5.443881e-06	-1.675588e-09	-3.779347e+01	-1.103192e+02
2.200000e-07	-5.435823e-06	-1.727426e-09	-3.773753e+01	-1.102707e+02
2.300000e-07	-5.427582e-06	-1.743931e-09	-3.768032e+01	-1.102144e+02
2.400000e-07	-5.419034e-06	-1.686802e-09	-3.762098e+01	-1.101494e+02
2.500000e-07	-5.409717e-06	-1.689717e-09	-3.755629e+01	-1.100747e+02
2.600000e-07	-5.399643e-06	-1.715733e-09	-3.748636e+01	-1.099894e+02
2.700000e-07	-5.389106e-06	-1.718059e-09	-3.741320e+01	-1.098928e+02
2.800000e-07	-5.378012e-06	-1.688856e-09	-3.733619e+01	-1.097844e+02
2.900000e-07	-5.366420e-06	-1.689311e-09	-3.725571e+01	-1.096635e+02
3.000000e-07	-5.354550e-06	-1.704760e-09	-3.717330e+01	-1.095300e+02
3.100000e-07	-5.342335e-06	-1.696817e-09	-3.708850e+01	-1.093838e+02
3.200000e-07	-5.329589e-06	-1.673068e-09	-3.700002e+01	-1.092247e+02
3.300000e-07	-5.316425e-06	-1.676195e-09	-3.690863e+01	-1.090530e+02
3.400000e-07	-5.303000e-06	-1.712680e-09	-3.681542e+01	-1.088691e+02
3.500000e-07	-5.289159e-06	-1.691416e-09	-3.671933e+01	-1.086735e+02
3.600000e-07	-5.274774e-06	-1.667165e-09	-3.661947e+01	-1.084667e+02
3.700000e-07	-5.259911e-06	-1.685464e-09	-3.651628e+01	-1.082495e+02
3.800000e-07	-5.244665e-06	-1.697632e-09	-3.641044e+01	-1.080228e+02
3.900000e-07	-5.228917e-06	-1.637733e-09	-3.630111e+01	-1.077876e+02
4.000000e-07	-5.212689e-06	-1.658597e-09	-3.618845e+01	-1.075449e+02
4.100000e-07	-5.196035e-06	-1.705014e-09	-3.607284e+01	-1.072959e+02
4.200000e-07	-5.179015e-06	-1.658091e-09	-3.595467e+01	-1.070417e+02
4.300000e-07	-5.161673e-06	-1.606934e-09	-3.583428e+01	-1.067835e+02
4.400000e-07	-5.144024e-06	-1.689222e-09	-3.571175e+01	-1.065224e+02
4.500000e-07	-5.126050e-06	-1.685097e-09	-3.558697e+01	-1.062596e+02
4.600000e-07	-5.107586e-06	-1.592401e-09	-3.545879e+01	-1.059962e+02
4.700000e-07	-5.088701e-06	-1.614427e-09	-3.532768e+01	-1.057332e+02
4.800000e-07	-5.069517e-06	-1.677795e-09	-3.519450e+01	-1.054715e+02
4.900000e-07	-5.049973e-06	-1.600356e-09	-3.505882e+01	-1.052119e+02
5.000000e-07	-5.030154e-06	-1.586963e-09	-3.492123e+01	-1.049553e+02
5.100000e-07	-5.010191e-06	-1.658191e-09	-3.478263e+01	-1.047021e+02
5.200000e-07	-4.989941e-06	-1.613879e-09	-3.464205e+01	-1.044528e+02
5.300000e-07	-4.969331e-06	-1.548918e-09	-3.449897e+01	-1.042078e+02
5.400000e-07	-4.948432e-06	-1.628752e-09	-3.435388e+01	-1.039672e+02
5.500000e-07	-4.927200e-06	-1.638665e-09	-3.420648e+01	-1.037310e+02
5.600000e-07	-4.905624e-06	-1.551853e-09	-3.405669e+01	-1.034990e+02
5.700000e-07	-4.883761e-06	-1.584019e-09	-3.390491e+01	-1.032712e+02
5.800000e-07	-4.861478e-06	-1.626286e-09	-3.375021e+01	-1.030469e+02
5.900000e-07	-4.838800e-06	-1.552749e-09	-3.359278e+01	-1.028257e+02
6.000000e-07	-4.815825e-06	-1.543492e-09	-3.343327e+01	-1.026071e+02
6.100000e-07	-4.792530e-06	-1.601454e-09	-3.327155e+01	-1.023902e+02
6.200000e-07	-4.768953e-06	-1.560580e-09	-3.310787e+01	-1.021743e+02
6.300000e-07	-4.745182e-06	-1.530702e-09	-3.294284e+01	-1.019585e+02
6.400000e-07	-4.721236e-06	-1.578125e-09	-3.277660e+01	-1.017420e+02
6.500000e-07	-4.696957e-06	-1.569391e-09	-3.260804e+01	-1.015239e+02
6.600000e-07	-4.672206e-06	-1.522501e-09	-3.243621e+01	-1.013033e+02
6.700000e-07	-4.647021e-06	-1.549678e-09	-3.226137e+01	-1.010792e+02
6.800000e-07	-4.621286e-06	-1.555117e-09	-3.208271e+01	-1.008508e+02
6.900000e-07	-4.594910e-06	-1.514187e-09	-3.189960e+01	-1.006173e+02
7.000000e-07	-4.568056e-06	-1.519137e-09	-3.171316e+01	-1.003781e+02
7.100000e-07	-4.540850e-06	-1.546387e-09	-3.152430e+01	-1.001324e+02
7.200000e-07	-4.513376e-06	-1.519187e-09	-3.133356e+01	-9.987969e+01
7.300000e-07	-4.485685e-06	-1.511786e-09	-3.114132e+01	-9.961952e+01
7.400000e-07	-4.457843e-06	-1.526728e-09	-3.094802e+01	-9.935154e+01
7.500000e-07	-4.429800e-06	-1.510774e-09	-3.075334e+01	-9.907551e+01
7.600000e-07	-4.401436e-06	-1.487375e-09	-3.055642e+01	-9.879132e+01
7.700000e-07	-4.372745e-06	-1.497851e-09	-3.035724e+01	-9.849895e+01
7.800000e-07	-4.343782e-06	-1.491665e-09	-3.015617e+01	-9.819850e+01
7.900000e-07	-4.314511e-06	-1.477185e-09	-2.995296e+01	-9.789018e+01
8.000000e-07	-4.284957e-06	-1.484672e-09	-2.974778e+01	-9.757429e+01
8.100000e-07	-4.255111e-06	-1.487587e-09	-2.954058e+01	-9.725121e+01
8.200000e-07	-4.224880e-06	-1.462298e-09	-2.933071e+01	-9.692142e+01
8.300000e-07	-4.194363e-06	-1.456396e-09	-2.911885e+01	-9.658542e+01
8.400000e-07	-4.163613e-06	-1.459354e-09	-2.890537e+01	-9.624380e+01
8.500000e-07	-4.132554e-06	-1.442877e-09	-2.868975e+01	-9.589716e+01
8.600000e-07	-4.101275e-06	-1.432742e-09	-2.847259e+01	-9.554611e+01
8.700000e-07	-4.069806e-06	-1.438600e-09	-2.825413e+01	-9.519130e+01
8.800000e-07	-4.038114e-06	-1.428720e-09	-2.803411e+01	-9.483333e+01
8.900000e-07	-4.006215e-06	-1.413563e-09	-2.781265e+01	-9.447280e+01
9.000000e-07	-3.974092e-06	-1.416551e-09	-2.758964e+01	-9.411025e+01
9.100000e-07	-3.941794e-06	-1.408717e-09	-2.736542e+01	-9.374619e+01
9.200000e-07	-3.909153e-06	-1.390313e-09	-2.713881e+01	-9.338105e+01
9.300000e-07	-3.876088e-06	-1.387047e-09	-2.690926e+01	-9.301521e+01
9.400000e-07	-3.842629e-06	-1.387754e-09	-2.667698e+01	-9.264895e+01
9.500000e-07	-3.808565e-06	-1.374915e-09	-2.644049e+01	-9.228249e+01
9.600000e-07	-3.774018e-06	-1.371061e-09	-2.620065e+01	-9.191593e+01
9.700000e-07	-3.739159e-06	-1.373136e-09	-2.595865e+01	-9.154932e+01
9.800000e-07	-3.704012e-06	-1.363844e-09	-2.571465e+01	-9.118261e+01
9.900000e-07	-3.668626e-06	-1.349665e-09	-2.546898e+01	-9.081565e+01
1.000000e-06	-3.633018e-06	-1.346603e-09	-2.522178e+01	-9.044822e+01
1.010000e-06	-3.597225e-06	-1.333256e-09	-2.497329e+01	-9.008004e+01
1.020000e-06	-3.561297e-06	-1.321065e-09	-2.472386e+01	-8.971075e+01
1.030000e-06	-3.525259e-06	-1.322376e-09	-2.447368e+01	-8.933994e+01
1.040000e-06	-3.489043e-06	-1.325884e-09	-2.422225e+01	-8.896713e+01
1.050000e-06	-3.452555e-06	-1.316011e-09	-2.396894e+01	-8.859184e+01
1.060000e-06	-3.415713e-06	-1.307831e-09	-2.371317e+01	-8.821354e+01
1.070000e-06	-3.378573e-06	-1.301571e-09	-2.345533e+01	-8.783169e+01
1.080000e-06	-3.341205e-06	-1.289270e-09	-2.319591e+01	-8.744574e+01
1.090000e-06	-3.303642e-06	-1.276731e-09	-2.293512e+01	-8.705517e+01
1.100000e-06	-3.265838e-06	-1.273280e-09	-2.267268e+01	-8.665944e+01
1.110000e-06	-3.227765e-06	-1.265728e-09	-2.240836e+01	-8.625808e+01
1.120000e-06	-3.189487e-06	-1.255324e-09	-2.214262e+01	-8.585061e+01
1.130000e-06	-3.151008e-06	-1.250651e-09	-2.187549e+01	-8.543664e+01
1.140000e-06	-3.112339e-06	-1.247313e-09	-2.160703e+01	-8.501578e+01
1.150000e-06	-3.073490e-06	-1.237776e-09	-2.133733e+01	-8.458773e+01
1.160000e-06	-3.034476e-06	-1.229242e-09	-2.106648e+01	-8.415222e+01
1.170000e-06	-2.995182e-06	-1.221474e-09	-2.079368e+01	-8.370905e+01
1.180000e-06	-2.955656e-06	-1.211616e-09	-2.051928e+01	-8.325808e+01
1.190000e-06	-2.916080e-06	-1.206685e-09	-2.024452e+01	-8.279920e+01
1.200000e-06	-2.876383e-06	-1.205005e-09	-1.996893e+01	-8.233237e+01
1.210000e-06	-2.836528e-06	-1.198031e-09	-1.969225e+01	-8.185760e+01
1.220000e-06	-2.796555e-06	-1.185554e-09	-1.941474e+01	-8.137493e+01
1.230000e-06	-2.756433e-06	-1.177818e-09	-1.913620e+01	-8.088443e+01
1.240000e-06	-2.716095e-06	-1.170871e-09	-1.885616e+01	-8.038620e+01
1.250000e-06	-2.675499e-06	-1.163285e-09	-1.857432e+01	-7.988037e+01
1.260000e-06	-2.634685e-06	-1.155518e-09	-1.829097e+01	-7.936707e+01
1.270000e-06	-2.593686e-06	-1.147794e-09	-1.800634e+01	-7.884643e+01
1.280000e-06	-2.552490e-06	-1.137211e-09	-1.772035e+01	-7.831858e+01
1.290000e-06	-2.510984e-06	-1.124669e-09	-1.743220e+01	-7.778362e+01
1.300000e-06	-2.469089e-06	-1.112866e-09	-1.714135e+01	-7.724164e+01
1.310000e-06	-2.426901e-06	-1.103207e-09	-1.684846e+01	-7.669270e+01
1.320000e-06	-2.384524e-06	-1.094471e-09	-1.655426e+01	-7.613683e+01
1.330000e-06	-2.341903e-06	-1.088303e-09	-1.625837e+01	-7.557401e+01
1.340000e-06	-2.299006e-06	-1.081046e-09	-1.596056e+01	-7.500416e+01
1.350000e-06	-2.255795e-06	-1.073582e-09	-1.566058e+01	-7.442717e+01
1.360000e-06	-2.212335e-06	-1.065382e-09	-1.535886e+01	-7.384289e+01
1.370000e-06	-2.168741e-06	-1.056273e-09	-1.505622e+01	-7.325109e+01
1.380000e-06	-2.125027e-06	-1.042931e-09	-1.475274e+01	-7.265151e+01
1.390000e-06	-2.081191e-06	-1.029391e-09	-1.444841e+01	-7.204382e+01
1.400000e-06	-2.037308e-06	-1.018984e-09	-1.414376e+01	-7.142765e+01
1.410000e-06	-1.993406e-06	-1.009718e-09	-1.383898e+01	-7.080261e+01
1.420000e-06	-1.949366e-06	-9.975468e-10	-1.353324e+01	-7.016822e+01
1.430000e-06	-1.905252e-06	-9.876125e-10	-1.322698e+01	-6.952400e+01
1.440000e-06	-1.861122e-06	-9.801021e-10	-1.292061e+01	-6.886943e+01
1.450000e-06	-1.816878e-06	-9.704208e-10	-1.261345e+01	-6.820395e+01
1.460000e-06	-1.772471e-06	-9.579637e-10	-1.230516e+01	-6.752700e+01
1.470000e-06	-1.727956e-06	-9.445997e-10	-1.199612e+01	-6.683797e+01
1.480000e-06	-1.683232e-06	-9.318850e-10	-1.168563e+01	-6.613628e+01
1.490000e-06	-1.638383e-06	-9.191984e-10	-1.137427e+01	-6.542131e+01
1.500000e-06	-1.593484e-06	-9.046222e-10	-1.106257e+01	-6.469245e+01
1.510000e-06	-1.548500e-06	-8.888337e-10	-1.075027e+01	-6.394909e+01
1.520000e-06	-1.503344e-06	-8.750924e-10	-1.043678e+01	-6.319061e+01
1.530000e-06	-1.457997e-06	-8.639111e-10	-1.012196e+01	-6.241642e+01
1.540000e-06	-1.412623e-06	-8.524232e-10	-9.806958e+00	-6.162591e+01
1.550000e-06	-1.367186e-06	-8.375365e-10	-9.491519e+00	-6.081850e+01
1.560000e-06	-1.321655e-06	-8.212158e-10	-9.175429e+00	-5.999358e+01
1.570000e-06	-1.276048e-06	-8.056245e-10	-8.858807e+00	-5.915057e+01
1.580000e-06	-1.230344e-06	-7.916482e-10	-8.541511e+00	-5.828890e+01
1.590000e-06	-1.184517e-06	-7.759418e-10	-8.223363e+00	-5.740797e+01
1.600000e-06	-1.138588e-06	-7.590434e-10	-7.904508e+00	-5.650719e+01
1.610000e-06	-1.092522e-06	-7.436462e-10	-7.584699e+00	-5.558597e+01
1.620000e-06	-1.046412e-06	-7.321056e-10	-7.264588e+00	-5.464369e+01
1.630000e-06	-1.000281e-06	-7.238586e-10	-6.944324e+00	-5.367973e+01
1.640000e-06	-9.540490e-07	-7.158333e-10	-6.623367e+00	-5.269345e+01
1.650000e-06	-9.077802e-07	-7.014189e-10	-6.302152e+00	-5.168416e+01
1.660000e-06	-8.614445e-07	-6.821703e-10	-5.980472e+00	-5.065119e+01
1.670000e-06	-8.150101e-07	-6.599825e-10	-5.658107e+00	-4.959381e+01
1.680000e-06	-7.685111e-07	-6.387546e-10	-5.335294e+00	-4.851127e+01
1.690000e-06	-7.220312e-07	-6.201057e-10	-5.012612e+00	-4.740279e+01
1.700000e-06	-6.755390e-07	-6.017956e-10	-4.689846e+00	-4.626756e+01
1.710000e-06	-6.289695e-07	-5.843975e-10	-4.366543e+00	-4.510477e+01
1.720000e-06	-5.823510e-07	-5.686094e-10	-4.042900e+00	-4.391355e+01
1.730000e-06	-5.356784e-07	-5.502968e-10	-3.718881e+00	-4.269304e+01
1.740000e-06	-4.889143e-07	-5.296029e-10	-3.394227e+00	-4.144237e+01
1.750000e-06	-4.420787e-07	-5.087543e-10	-3.069077e+00	-4.016064e+01
1.760000e-06	-3.952172e-07	-4.853273e-10	-2.743746e+00	-3.884701e+01
1.770000e-06	-3.483366e-07	-4.605100e-10	-2.418284e+00	-3.750060e+01
1.780000e-06	-3.014675e-07	-4.400991e-10	-2.092901e+00	-3.612060e+01
1.790000e-06	-2.546107e-07	-4.232892e-10	-1.767604e+00	-3.470623e+01
1.800000e-06	-2.077045e-07	-4.046035e-10	-1.441963e+00	-3.325675e+01
1.810000e-06	-1.607977e-07	-3.848114e-10	-1.116318e+00	-3.177152e+01
1.820000e-06	-1.139194e-07	-3.637480e-10	-7.908712e-01	-3.024996e+01
1.830000e-06	-6.700897e-08	-3.414388e-10	-4.652015e-01	-2.869159e+01
1.840000e-06	-2.020528e-08	-3.182621e-10	-1.402727e-01	-2.709606e+01
1.850000e-06	2.656678e-08	-2.953900e-10	1.844366e-01	-2.546313e+01
1.860000e-06	7.338823e-08	-2.742077e-10	5.094888e-01	-2.379270e+01
1.870000e-06	1.202403e-07	-2.531341e-10	8.347533e-01	-2.208484e+01
1.880000e-06	1.671333e-07	-2.301176e-10	1.160302e+00	-2.033976e+01
1.890000e-06	2.140378e-07	-2.042224e-10	1.485931e+00	-1.855787e+01
1.900000e-06	2.608559e-07	-1.748840e-10	1.810960e+00	-1.673973e+01
1.910000e-06	3.076280e-07	-1.459247e-10	2.135670e+00	-1.488613e+01
1.920000e-06	3.543742e-07	-1.175103e-10	2.460199e+00	-1.299803e+01
1.930000e-06	4.010410e-07	-8.949682e-11	2.784178e+00	-1.107659e+01
1.940000e-06	4.478066e-07	-6.417931e-11	3.108842e+00	-9.123166e+00
1.950000e-06	4.944867e-07	-4.047426e-11	3.432913e+00	-7.139328e+00
1.960000e-06	5.410333e-07	-1.557658e-11	3.756057e+00	-5.126824e+00
1.970000e-06	5.875228e-07	1.222439e-11	4.078804e+00	-3.087595e+00
1.980000e-06	6.339988e-07	4.190207e-11	4.401459e+00	-1.023760e+00
1.990000e-06	6.804718e-07	7.311961e-11	4.724092e+00	1.062391e+00
2.000000e-06	7.268320e-07	1.069885e-10	5.045942e+00	3.168412e+00
2.010000e-06	7.732039e-07	1.401342e-10	5.367873e+00	5.291713e+00
2.020000e-06	8.195513e-07	1.692673e-10	5.689634e+00	7.429578e+00
2.030000e-06	8.658082e-07	1.963803e-10	6.010767e+00	9.579181e+00
2.040000e-06	9.119908e-07	2.239137e-10	6.331384e+00	1.173760e+01
2.050000e-06	9.580885e-07	2.509592e-10	6.651411e+00	1.390186e+01
2.060000e-06	1.004113e-06	2.793792e-10	6.970933e+00	1.606890e+01
2.070000e-06	1.050071e-06	3.118661e-10	7.289988e+00	1.823567e+01
2.080000e-06	1.096003e-06	3.462192e-10	7.608868e+00	2.039908e+01
2.090000e-06	1.141936e-06	3.804088e-10	7.927752e+00	2.255608e+01
2.100000e-06	1.187833e-06	4.135987e-10	8.246386e+00	2.470362e+01
2.110000e-06	1.233662e-06	4.428703e-10	8.564544e+00	2.683874e+01
2.120000e-06	1.279388e-06	4.672945e-10	8.881997e+00	2.895853e+01
2.130000e-06	1.324930e-06	4.927377e-10	9.198167e+00	3.106019e+01
2.140000e-06	1.370334e-06	5.192972e-10	9.513375e+00	3.314102e+01
2.150000e-06	1.415703e-06	5.455277e-10	9.828342e+00	3.519846e+01
2.160000e-06	1.461005e-06	5.749179e-10	1.014285e+01	3.723007e+01
2.170000e-06	1.506160e-06	6.068624e-10	1.045633e+01	3.923360e+01
2.180000e-06	1.551153e-06	6.368294e-10	1.076869e+01	4.120693e+01
2.190000e-06	1.595987e-06	6.645384e-10	1.107994e+01	4.314816e+01
2.200000e-06	1.640704e-06	6.919719e-10	1.139038e+01	4.505552e+01
2.210000e-06	1.685300e-06	7.179446e-10	1.169999e+01	4.692748e+01
2.220000e-06	1.729745e-06	7.430971e-10	1.200854e+01	4.876268e+01
2.230000e-06	1.774148e-06	7.672375e-10	1.231681e+01	5.055995e+01
2.240000e-06	1.818486e-06	7.889293e-10	1.262461e+01	5.231833e+01
2.250000e-06	1.862635e-06	8.103472e-10	1.293111e+01	5.403703e+01
2.260000e-06	1.906666e-06	8.326853e-10	1.323680e+01	5.571548e+01
2.270000e-06	1.950643e-06	8.565062e-10	1.354210e+01	5.735327e+01
2.280000e-06	1.994566e-06	8.800888e-10	1.384703e+01	5.895018e+01
2.290000e-06	2.038469e-06	9.013463e-10	1.415182e+01	6.050613e+01
2.300000e-06	2.082318e-06	9.200695e-10	1.445624e+01	6.202124e+01
2.310000e-06	2.126089e-06	9.390859e-10	1.476011e+01	6.349575e+01
2.320000e-06	2.169809e-06	9.594463e-10	1.506363e+01	6.493003e+01
2.330000e-06	2.213439e-06	9.776288e-10	1.536653e+01	6.632459e+01
2.340000e-06	2.256927e-06	9.954024e-10	1.566844e+01	6.768006e+01
2.350000e-06	2.300208e-06	1.016344e-09	1.596891e+01	6.899714e+01
2.360000e-06	2.343213e-06	1.037643e-09	1.626746e+01	7.027663e+01
2.370000e-06	2.385977e-06	1.055164e-09	1.656435e+01	7.151940e+01
2.380000e-06	2.428501e-06	1.070415e-09	1.685957e+01	7.272638e+01
2.390000e-06	2.470659e-06	1.084282e-09	1.715225e+01	7.389855e+01
2.400000e-06	2.512408e-06	1.098392e-09	1.744208e+01	7.503690e+01
2.410000e-06	2.553807e-06	1.113927e-09	1.772949e+01	7.614246e+01
2.420000e-06	2.594907e-06	1.130139e-09	1.801482e+01	7.721628e+01
2.430000e-06	2.635727e-06	1.144932e-09	1.829821e+01	7.825937e+01
2.440000e-06	2.676327e-06	1.157413e-09	1.858007e+01	7.927278e+01
2.450000e-06	2.716732e-06	1.168663e-09	1.886058e+01	8.025749e+01
2.460000e-06	2.756975e-06	1.180336e-09	1.913996e+01	8.121449e+01
2.470000e-06	2.797141e-06	1.192118e-09	1.941881e+01	8.214472e+01
2.480000e-06	2.837153e-06	1.202919e-09	1.969658e+01	8.304909e+01
2.490000e-06	2.876994e-06	1.214079e-09	1.997318e+01	8.392844e+01
2.500000e-06	2.916702e-06	1.226187e-09	2.024885e+01	8.478359e+01
2.510000e-06	2.956250e-06	1.239303e-09	2.052340e+01	8.561531e+01
2.520000e-06	2.995704e-06	1.252210e-09	2.079731e+01	8.642430e+01
2.530000e-06	3.035055e-06	1.264175e-09	2.107050e+01	8.721122e+01
2.540000e-06	3.074184e-06	1.273781e-09	2.134215e+01	8.797667e+01
2.550000e-06	3.112941e-06	1.281933e-09	2.161121e+01	8.872122e+01
2.560000e-06	3.151352e-06	1.289971e-09	2.187788e+01	8.944538e+01
2.570000e-06	3.189630e-06	1.298499e-09	2.214361e+01	9.014962e+01
2.580000e-06	3.227739e-06	1.309833e-09	2.240818e+01	9.083435e+01
2.590000e-06	3.265617e-06	1.321780e-09	2.267114e+01	9.149998e+01
2.600000e-06	3.303362e-06	1.333456e-09	2.293319e+01	9.214687e+01
2.610000e-06	3.340940e-06	1.343272e-09	2.319406e+01	9.277536e+01
2.620000e-06	3.378227e-06	1.350484e-09	2.345292e+01	9.338576e+01
2.630000e-06	3.415144e-06	1.356501e-09	2.370921e+01	9.397838e+01
2.640000e-06	3.451745e-06	1.362870e-09	2.396331e+01	9.455352e+01
2.650000e-06	3.488109e-06	1.372291e-09	2.421577e+01	9.511148e+01
2.660000e-06	3.524279e-06	1.380983e-09	2.446687e+01	9.565255e+01
2.670000e-06	3.560349e-06	1.389348e-09	2.471729e+01	9.617705e+01
2.680000e-06	3.596277e-06	1.400129e-09	2.496671e+01	9.668530e+01
2.690000e-06	3.632064e-06	1.408865e-09	2.521516e+01	9.717764e+01
2.700000e-06	3.667775e-06	1.414654e-09	2.546308e+01	9.765442e+01
2.710000e-06	3.703289e-06	1.419116e-09	2.570963e+01	9.811603e+01
2.720000e-06	3.738497e-06	1.423997e-09	2.595405e+01	9.856290e+01
2.730000e-06	3.773331e-06	1.430384e-09	2.619588e+01	9.899545e+01
2.740000e-06	3.807761e-06	1.437701e-09	2.643491e+01	9.941415e+01
2.750000e-06	3.841768e-06	1.445876e-09	2.667100e+01	9.981951e+01
2.760000e-06	3.875376e-06	1.452498e-09	2.690432e+01	1.002120e+02
2.770000e-06	3.908508e-06	1.458330e-09	2.713433e+01	1.005923e+02
2.780000e-06	3.941125e-06	1.464223e-09	2.736077e+01	1.009608e+02
2.790000e-06	3.973425e-06	1.471842e-09	2.758501e+01	1.013182e+02
2.800000e-06	4.005481e-06	1.481104e-09	2.780756e+01	1.016651e+02
2.810000e-06	4.037344e-06	1.488262e-09	2.802876e+01	1.020021e+02
2.820000e-06	4.069086e-06	1.492415e-09	2.824913e+01	1.023297e+02
2.830000e-06	4.100699e-06	1.496456e-09	2.846859e+01	1.026487e+02
2.840000e-06	4.132171e-06	1.501128e-09	2.868709e+01	1.029595e+02
2.850000e-06	4.163347e-06	1.504635e-09	2.890352e+01	1.032629e+02
2.860000e-06	4.194079e-06	1.506975e-09	2.911687e+01	1.035592e+02
2.870000e-06	4.224435e-06	1.510846e-09	2.932762e+01	1.038491e+02
2.880000e-06	4.254539e-06	1.516962e-09	2.953661e+01	1.041331e+02
2.890000e-06	4.284451e-06	1.523803e-09	2.974427e+01	1.044116e+02
2.900000e-06	4.314027e-06	1.528844e-09	2.994960e+01	1.046850e+02
