# Temperatura_=_-7.2
# Concentracion g/m^3_=_1620.0
# C_Vs_to_Am_M_A/Vsm_=_65563218390.804596
# pendiente_HvsI_1/m_=_3716.3
# ordenada_HvsI_A/m_=_1297.0
# frecuencia_Hz_=_135101.482703505

Tiempo_(s)	Campo_(V.s)	Magnetizacion_(V.s)	Campo_(kA/m)	Magnetizacion_(A/m)
0.000000e+00	-5.554401e-06	-1.256007e-09	-3.836622e+01	-8.326002e+01
1.000000e-08	-5.554582e-06	-1.253493e-09	-3.836747e+01	-8.319844e+01
2.000000e-08	-5.554585e-06	-1.251766e-09	-3.836748e+01	-8.313642e+01
3.000000e-08	-5.554217e-06	-1.254179e-09	-3.836495e+01	-8.307417e+01
4.000000e-08	-5.553292e-06	-1.256141e-09	-3.835855e+01	-8.301191e+01
5.000000e-08	-5.551850e-06	-1.253584e-09	-3.834860e+01	-8.294984e+01
6.000000e-08	-5.549811e-06	-1.243980e-09	-3.833451e+01	-8.288818e+01
7.000000e-08	-5.547133e-06	-1.225659e-09	-3.831601e+01	-8.282713e+01
8.000000e-08	-5.544001e-06	-1.233663e-09	-3.829438e+01	-8.276686e+01
9.000000e-08	-5.540457e-06	-1.304393e-09	-3.826990e+01	-8.270754e+01
1.000000e-07	-5.536405e-06	-1.351959e-09	-3.824191e+01	-8.264929e+01
1.100000e-07	-5.531973e-06	-1.227740e-09	-3.821130e+01	-8.259222e+01
1.200000e-07	-5.527430e-06	-1.129376e-09	-3.817992e+01	-8.253637e+01
1.300000e-07	-5.522675e-06	-1.194683e-09	-3.814707e+01	-8.248175e+01
1.400000e-07	-5.517485e-06	-1.331198e-09	-3.811123e+01	-8.242834e+01
1.500000e-07	-5.511869e-06	-1.270190e-09	-3.807243e+01	-8.237605e+01
1.600000e-07	-5.505979e-06	-1.151086e-09	-3.803175e+01	-8.232476e+01
1.700000e-07	-5.499736e-06	-1.207897e-09	-3.798863e+01	-8.227429e+01
1.800000e-07	-5.492863e-06	-1.322372e-09	-3.794115e+01	-8.222441e+01
1.900000e-07	-5.485567e-06	-1.277947e-09	-3.789075e+01	-8.217486e+01
2.000000e-07	-5.478128e-06	-1.133899e-09	-3.783937e+01	-8.212533e+01
2.100000e-07	-5.470434e-06	-1.156691e-09	-3.778623e+01	-8.207548e+01
2.200000e-07	-5.462424e-06	-1.250422e-09	-3.773090e+01	-8.202495e+01
2.300000e-07	-5.454115e-06	-1.275135e-09	-3.767350e+01	-8.197332e+01
2.400000e-07	-5.445456e-06	-1.188162e-09	-3.761369e+01	-8.192020e+01
2.500000e-07	-5.436087e-06	-1.176690e-09	-3.754898e+01	-8.186516e+01
2.600000e-07	-5.425869e-06	-1.205800e-09	-3.747840e+01	-8.180777e+01
2.700000e-07	-5.415149e-06	-1.227035e-09	-3.740435e+01	-8.174764e+01
2.800000e-07	-5.404148e-06	-1.188163e-09	-3.732837e+01	-8.168435e+01
2.900000e-07	-5.392693e-06	-1.181133e-09	-3.724924e+01	-8.161753e+01
3.000000e-07	-5.380751e-06	-1.206844e-09	-3.716675e+01	-8.154685e+01
3.100000e-07	-5.368516e-06	-1.234713e-09	-3.708224e+01	-8.147199e+01
3.200000e-07	-5.355833e-06	-1.201252e-09	-3.699464e+01	-8.139270e+01
3.300000e-07	-5.342568e-06	-1.179885e-09	-3.690301e+01	-8.130877e+01
3.400000e-07	-5.328939e-06	-1.220401e-09	-3.680887e+01	-8.122006e+01
3.500000e-07	-5.315027e-06	-1.239809e-09	-3.671277e+01	-8.112647e+01
3.600000e-07	-5.300619e-06	-1.190481e-09	-3.661325e+01	-8.102798e+01
3.700000e-07	-5.285791e-06	-1.185209e-09	-3.651083e+01	-8.092462e+01
3.800000e-07	-5.270482e-06	-1.228617e-09	-3.640509e+01	-8.081650e+01
3.900000e-07	-5.254505e-06	-1.195454e-09	-3.629473e+01	-8.070378e+01
4.000000e-07	-5.238037e-06	-1.172246e-09	-3.618098e+01	-8.058670e+01
4.100000e-07	-5.221385e-06	-1.224866e-09	-3.606596e+01	-8.046552e+01
4.200000e-07	-5.204475e-06	-1.220551e-09	-3.594915e+01	-8.034060e+01
4.300000e-07	-5.187028e-06	-1.136909e-09	-3.582864e+01	-8.021232e+01
4.400000e-07	-5.169280e-06	-1.186317e-09	-3.570605e+01	-8.008110e+01
4.500000e-07	-5.151273e-06	-1.242754e-09	-3.558167e+01	-7.994739e+01
4.600000e-07	-5.132722e-06	-1.165619e-09	-3.545353e+01	-7.981168e+01
4.700000e-07	-5.113675e-06	-1.127025e-09	-3.532197e+01	-7.967447e+01
4.800000e-07	-5.094320e-06	-1.216438e-09	-3.518827e+01	-7.953626e+01
4.900000e-07	-5.074744e-06	-1.187812e-09	-3.505306e+01	-7.939755e+01
5.000000e-07	-5.054965e-06	-1.125718e-09	-3.491643e+01	-7.925882e+01
5.100000e-07	-5.035018e-06	-1.180914e-09	-3.477865e+01	-7.912055e+01
5.200000e-07	-5.014802e-06	-1.200890e-09	-3.463902e+01	-7.898316e+01
5.300000e-07	-4.994170e-06	-1.119740e-09	-3.449650e+01	-7.884706e+01
5.400000e-07	-4.973151e-06	-1.161055e-09	-3.435132e+01	-7.871260e+01
5.500000e-07	-4.951690e-06	-1.217212e-09	-3.420308e+01	-7.858009e+01
5.600000e-07	-4.929893e-06	-1.144799e-09	-3.405252e+01	-7.844976e+01
5.700000e-07	-4.907844e-06	-1.117979e-09	-3.390022e+01	-7.832181e+01
5.800000e-07	-4.885494e-06	-1.192693e-09	-3.374584e+01	-7.819635e+01
5.900000e-07	-4.862767e-06	-1.165591e-09	-3.358886e+01	-7.807344e+01
6.000000e-07	-4.839599e-06	-1.115610e-09	-3.342882e+01	-7.795307e+01
6.100000e-07	-4.816097e-06	-1.161119e-09	-3.326649e+01	-7.783515e+01
6.200000e-07	-4.792402e-06	-1.168226e-09	-3.310282e+01	-7.771956e+01
6.300000e-07	-4.768551e-06	-1.115496e-09	-3.293807e+01	-7.760608e+01
6.400000e-07	-4.744433e-06	-1.133191e-09	-3.277148e+01	-7.749447e+01
6.500000e-07	-4.719961e-06	-1.157158e-09	-3.260244e+01	-7.738441e+01
6.600000e-07	-4.695042e-06	-1.121917e-09	-3.243032e+01	-7.727556e+01
6.700000e-07	-4.669672e-06	-1.126423e-09	-3.225508e+01	-7.716751e+01
6.800000e-07	-4.643768e-06	-1.151586e-09	-3.207615e+01	-7.705986e+01
6.900000e-07	-4.617271e-06	-1.126769e-09	-3.189313e+01	-7.695216e+01
7.000000e-07	-4.590307e-06	-1.109009e-09	-3.170687e+01	-7.684395e+01
7.100000e-07	-4.562976e-06	-1.131725e-09	-3.151809e+01	-7.673477e+01
7.200000e-07	-4.535396e-06	-1.119680e-09	-3.132758e+01	-7.662416e+01
7.300000e-07	-4.507620e-06	-1.104418e-09	-3.113573e+01	-7.651166e+01
7.400000e-07	-4.479663e-06	-1.118764e-09	-3.094262e+01	-7.639683e+01
7.500000e-07	-4.451506e-06	-1.123595e-09	-3.074813e+01	-7.627927e+01
7.600000e-07	-4.423090e-06	-1.103864e-09	-3.055185e+01	-7.615860e+01
7.700000e-07	-4.394336e-06	-1.107163e-09	-3.035323e+01	-7.603446e+01
7.800000e-07	-4.365192e-06	-1.105658e-09	-3.015193e+01	-7.590656e+01
7.900000e-07	-4.335694e-06	-1.093019e-09	-2.994818e+01	-7.577461e+01
8.000000e-07	-4.306011e-06	-1.091860e-09	-2.974315e+01	-7.563842e+01
8.100000e-07	-4.276028e-06	-1.098947e-09	-2.953604e+01	-7.549779e+01
8.200000e-07	-4.245646e-06	-1.080619e-09	-2.932618e+01	-7.535262e+01
8.300000e-07	-4.214970e-06	-1.072391e-09	-2.911429e+01	-7.520282e+01
8.400000e-07	-4.183979e-06	-1.078846e-09	-2.890022e+01	-7.504837e+01
8.500000e-07	-4.152781e-06	-1.076446e-09	-2.868473e+01	-7.488926e+01
8.600000e-07	-4.121395e-06	-1.067757e-09	-2.846793e+01	-7.472556e+01
8.700000e-07	-4.089803e-06	-1.074348e-09	-2.824972e+01	-7.455736e+01
8.800000e-07	-4.058069e-06	-1.072522e-09	-2.803052e+01	-7.438476e+01
8.900000e-07	-4.026180e-06	-1.058297e-09	-2.781025e+01	-7.420793e+01
9.000000e-07	-3.994095e-06	-1.054031e-09	-2.758863e+01	-7.402702e+01
9.100000e-07	-3.961673e-06	-1.053395e-09	-2.736468e+01	-7.384222e+01
9.200000e-07	-3.928759e-06	-1.041526e-09	-2.713733e+01	-7.365374e+01
9.300000e-07	-3.895323e-06	-1.040502e-09	-2.690638e+01	-7.346177e+01
9.400000e-07	-3.861370e-06	-1.051845e-09	-2.667185e+01	-7.326651e+01
9.500000e-07	-3.827052e-06	-1.049093e-09	-2.643480e+01	-7.306816e+01
9.600000e-07	-3.792390e-06	-1.040377e-09	-2.619538e+01	-7.286692e+01
9.700000e-07	-3.757306e-06	-1.040917e-09	-2.595305e+01	-7.266296e+01
9.800000e-07	-3.721930e-06	-1.036334e-09	-2.570869e+01	-7.245645e+01
9.900000e-07	-3.686365e-06	-1.020173e-09	-2.546303e+01	-7.224752e+01
1.000000e-06	-3.650696e-06	-1.016344e-09	-2.521665e+01	-7.203630e+01
1.010000e-06	-3.614923e-06	-1.017473e-09	-2.496956e+01	-7.182289e+01
1.020000e-06	-3.578985e-06	-1.013898e-09	-2.472132e+01	-7.160737e+01
1.030000e-06	-3.542833e-06	-1.013400e-09	-2.447160e+01	-7.138979e+01
1.040000e-06	-3.506436e-06	-1.021279e-09	-2.422019e+01	-7.117018e+01
1.050000e-06	-3.469712e-06	-1.016527e-09	-2.396653e+01	-7.094856e+01
1.060000e-06	-3.432632e-06	-1.008092e-09	-2.371041e+01	-7.072491e+01
1.070000e-06	-3.395337e-06	-1.006445e-09	-2.345280e+01	-7.049921e+01
1.080000e-06	-3.357806e-06	-1.003917e-09	-2.319355e+01	-7.027141e+01
1.090000e-06	-3.320015e-06	-9.926399e-10	-2.293252e+01	-7.004145e+01
1.100000e-06	-3.282044e-06	-9.897117e-10	-2.267024e+01	-6.980925e+01
1.110000e-06	-3.243792e-06	-9.888879e-10	-2.240602e+01	-6.957476e+01
1.120000e-06	-3.205325e-06	-9.829429e-10	-2.214031e+01	-6.933787e+01
1.130000e-06	-3.166749e-06	-9.788658e-10	-2.187386e+01	-6.909850e+01
1.140000e-06	-3.127961e-06	-9.813974e-10	-2.160594e+01	-6.885656e+01
1.150000e-06	-3.088857e-06	-9.782027e-10	-2.133583e+01	-6.861196e+01
1.160000e-06	-3.049542e-06	-9.706742e-10	-2.106427e+01	-6.836461e+01
1.170000e-06	-3.010097e-06	-9.658566e-10	-2.079180e+01	-6.811443e+01
1.180000e-06	-2.970516e-06	-9.640701e-10	-2.051841e+01	-6.786133e+01
1.190000e-06	-2.930800e-06	-9.598909e-10	-2.024408e+01	-6.760523e+01
1.200000e-06	-2.890930e-06	-9.565583e-10	-1.996868e+01	-6.734606e+01
1.210000e-06	-2.850957e-06	-9.553798e-10	-1.969257e+01	-6.708375e+01
1.220000e-06	-2.810908e-06	-9.521018e-10	-1.941594e+01	-6.681821e+01
1.230000e-06	-2.770643e-06	-9.490108e-10	-1.913781e+01	-6.654939e+01
1.240000e-06	-2.730127e-06	-9.477675e-10	-1.885796e+01	-6.627720e+01
1.250000e-06	-2.689475e-06	-9.443038e-10	-1.857715e+01	-6.600156e+01
1.260000e-06	-2.648428e-06	-9.383331e-10	-1.829363e+01	-6.572239e+01
1.270000e-06	-2.606948e-06	-9.344436e-10	-1.800711e+01	-6.543959e+01
1.280000e-06	-2.565267e-06	-9.288923e-10	-1.771921e+01	-6.515305e+01
1.290000e-06	-2.523364e-06	-9.205872e-10	-1.742977e+01	-6.486265e+01
1.300000e-06	-2.481169e-06	-9.129581e-10	-1.713831e+01	-6.456824e+01
1.310000e-06	-2.438706e-06	-9.089512e-10	-1.684501e+01	-6.426967e+01
1.320000e-06	-2.395917e-06	-9.045765e-10	-1.654945e+01	-6.396675e+01
1.330000e-06	-2.352864e-06	-9.011691e-10	-1.625207e+01	-6.365927e+01
1.340000e-06	-2.309702e-06	-8.983930e-10	-1.595393e+01	-6.334702e+01
1.350000e-06	-2.266380e-06	-8.973845e-10	-1.565469e+01	-6.302971e+01
1.360000e-06	-2.222845e-06	-8.947845e-10	-1.535398e+01	-6.270708e+01
1.370000e-06	-2.179163e-06	-8.912810e-10	-1.505225e+01	-6.237882e+01
1.380000e-06	-2.135427e-06	-8.859237e-10	-1.475015e+01	-6.204457e+01
1.390000e-06	-2.091615e-06	-8.759689e-10	-1.444752e+01	-6.170399e+01
1.400000e-06	-2.047681e-06	-8.633142e-10	-1.414406e+01	-6.135667e+01
1.410000e-06	-2.003622e-06	-8.547231e-10	-1.383973e+01	-6.100220e+01
1.420000e-06	-1.959493e-06	-8.478243e-10	-1.353491e+01	-6.064016e+01
1.430000e-06	-1.915315e-06	-8.424600e-10	-1.322976e+01	-6.027008e+01
1.440000e-06	-1.870982e-06	-8.394880e-10	-1.292353e+01	-5.989148e+01
1.450000e-06	-1.826474e-06	-8.366091e-10	-1.261610e+01	-5.950387e+01
1.460000e-06	-1.781885e-06	-8.292626e-10	-1.230811e+01	-5.910675e+01
1.470000e-06	-1.737253e-06	-8.194377e-10	-1.199982e+01	-5.869960e+01
1.480000e-06	-1.692497e-06	-8.101815e-10	-1.169068e+01	-5.828188e+01
1.490000e-06	-1.647522e-06	-7.997304e-10	-1.138002e+01	-5.785306e+01
1.500000e-06	-1.602339e-06	-7.873963e-10	-1.106792e+01	-5.741258e+01
1.510000e-06	-1.557053e-06	-7.766540e-10	-1.075512e+01	-5.695989e+01
1.520000e-06	-1.511683e-06	-7.685393e-10	-1.044173e+01	-5.649443e+01
1.530000e-06	-1.466154e-06	-7.625912e-10	-1.012725e+01	-5.601563e+01
1.540000e-06	-1.420484e-06	-7.558621e-10	-9.811783e+00	-5.552291e+01
1.550000e-06	-1.374826e-06	-7.472547e-10	-9.496407e+00	-5.501568e+01
1.560000e-06	-1.329132e-06	-7.369585e-10	-9.180788e+00	-5.449335e+01
1.570000e-06	-1.283287e-06	-7.264268e-10	-8.864116e+00	-5.395531e+01
1.580000e-06	-1.237345e-06	-7.176584e-10	-8.546782e+00	-5.340096e+01
1.590000e-06	-1.191328e-06	-7.086347e-10	-8.228925e+00	-5.282965e+01
1.600000e-06	-1.145287e-06	-7.010197e-10	-7.910901e+00	-5.224073e+01
1.610000e-06	-1.099171e-06	-6.942072e-10	-7.592367e+00	-5.163355e+01
1.620000e-06	-1.052948e-06	-6.886349e-10	-7.273087e+00	-5.100739e+01
1.630000e-06	-1.006611e-06	-6.843199e-10	-6.953017e+00	-5.036157e+01
1.640000e-06	-9.601703e-07	-6.798888e-10	-6.632237e+00	-4.969532e+01
1.650000e-06	-9.136396e-07	-6.701373e-10	-6.310833e+00	-4.900789e+01
1.660000e-06	-8.670519e-07	-6.554966e-10	-5.989035e+00	-4.829848e+01
1.670000e-06	-8.204325e-07	-6.400196e-10	-5.667018e+00	-4.756626e+01
1.680000e-06	-7.738027e-07	-6.267207e-10	-5.344929e+00	-4.681039e+01
1.690000e-06	-7.271123e-07	-6.131514e-10	-5.022422e+00	-4.602999e+01
1.700000e-06	-6.802383e-07	-6.006277e-10	-4.698647e+00	-4.522415e+01
1.710000e-06	-6.333385e-07	-5.867572e-10	-4.374693e+00	-4.439196e+01
1.720000e-06	-5.865308e-07	-5.744950e-10	-4.051376e+00	-4.353247e+01
1.730000e-06	-5.396438e-07	-5.630111e-10	-3.727511e+00	-4.264474e+01
1.740000e-06	-4.925898e-07	-5.480300e-10	-3.402492e+00	-4.172782e+01
1.750000e-06	-4.455204e-07	-5.307449e-10	-3.077367e+00	-4.078075e+01
1.760000e-06	-3.984711e-07	-5.116205e-10	-2.752381e+00	-3.980261e+01
1.770000e-06	-3.513387e-07	-4.949197e-10	-2.426821e+00	-3.879246e+01
1.780000e-06	-3.041473e-07	-4.803600e-10	-2.100853e+00	-3.774944e+01
1.790000e-06	-2.570428e-07	-4.672556e-10	-1.775486e+00	-3.667270e+01
1.800000e-06	-2.098953e-07	-4.535799e-10	-1.449821e+00	-3.556147e+01
1.810000e-06	-1.626293e-07	-4.391406e-10	-1.123338e+00	-3.441502e+01
1.820000e-06	-1.153616e-07	-4.224880e-10	-7.968432e-01	-3.323273e+01
1.830000e-06	-6.811224e-08	-4.050215e-10	-4.704754e-01	-3.201405e+01
1.840000e-06	-2.095378e-08	-3.878696e-10	-1.447352e-01	-3.075854e+01
1.850000e-06	2.623218e-08	-3.717422e-10	1.811950e-01	-2.946589e+01
1.860000e-06	7.345096e-08	-3.564357e-10	5.073518e-01	-2.813591e+01
1.870000e-06	1.206296e-07	-3.395760e-10	8.332311e-01	-2.676854e+01
1.880000e-06	1.678138e-07	-3.212402e-10	1.159149e+00	-2.536389e+01
1.890000e-06	2.149687e-07	-3.009343e-10	1.484865e+00	-2.392221e+01
1.900000e-06	2.620520e-07	-2.764351e-10	1.810086e+00	-2.244393e+01
1.910000e-06	3.091253e-07	-2.509388e-10	2.135238e+00	-2.092962e+01
1.920000e-06	3.562982e-07	-2.263629e-10	2.461078e+00	-1.938006e+01
1.930000e-06	4.034589e-07	-2.056784e-10	2.786834e+00	-1.779618e+01
1.940000e-06	4.505215e-07	-1.891585e-10	3.111912e+00	-1.617910e+01
1.950000e-06	4.974941e-07	-1.725530e-10	3.436368e+00	-1.453011e+01
1.960000e-06	5.444148e-07	-1.529119e-10	3.760466e+00	-1.285066e+01
1.970000e-06	5.912465e-07	-1.300448e-10	4.083949e+00	-1.114239e+01
1.980000e-06	6.379781e-07	-1.054439e-10	4.406741e+00	-9.407074e+00
1.990000e-06	6.847141e-07	-7.828328e-11	4.729563e+00	-7.646637e+00
2.000000e-06	7.313895e-07	-4.865380e-11	5.051966e+00	-5.863149e+00
2.010000e-06	7.779711e-07	-2.057586e-11	5.373722e+00	-4.058799e+00
2.020000e-06	8.245440e-07	4.888232e-12	5.695417e+00	-2.235887e+00
2.030000e-06	8.711321e-07	2.905652e-11	6.017218e+00	-3.968081e-01
2.040000e-06	9.176832e-07	5.184595e-11	6.338763e+00	1.455964e+00
2.050000e-06	9.641011e-07	7.590669e-11	6.659388e+00	3.319894e+00
2.060000e-06	1.010439e-06	1.018243e-10	6.979461e+00	5.192403e+00
2.070000e-06	1.056788e-06	1.285307e-10	7.299607e+00	7.070886e+00
2.080000e-06	1.103002e-06	1.554326e-10	7.618822e+00	8.952730e+00
2.090000e-06	1.149015e-06	1.821808e-10	7.936654e+00	1.083533e+01
2.100000e-06	1.194894e-06	2.094283e-10	8.253557e+00	1.271611e+01
2.110000e-06	1.240695e-06	2.375083e-10	8.569917e+00	1.459254e+01
2.120000e-06	1.286469e-06	2.653046e-10	8.886099e+00	1.646214e+01
2.130000e-06	1.332212e-06	2.924367e-10	9.202061e+00	1.832252e+01
2.140000e-06	1.377872e-06	3.158851e-10	9.517448e+00	2.017136e+01
2.150000e-06	1.423398e-06	3.372817e-10	9.831916e+00	2.200645e+01
2.160000e-06	1.468862e-06	3.600215e-10	1.014595e+01	2.382568e+01
2.170000e-06	1.514347e-06	3.849192e-10	1.046013e+01	2.562708e+01
2.180000e-06	1.559670e-06	4.118586e-10	1.077319e+01	2.740878e+01
2.190000e-06	1.604782e-06	4.400646e-10	1.108480e+01	2.916905e+01
2.200000e-06	1.649845e-06	4.675299e-10	1.139606e+01	3.090631e+01
2.210000e-06	1.694831e-06	4.919262e-10	1.170680e+01	3.261911e+01
2.220000e-06	1.739639e-06	5.141680e-10	1.201630e+01	3.430611e+01
2.230000e-06	1.784222e-06	5.354081e-10	1.232425e+01	3.596615e+01
2.240000e-06	1.828707e-06	5.535794e-10	1.263153e+01	3.759817e+01
2.250000e-06	1.873083e-06	5.717062e-10	1.293805e+01	3.920126e+01
2.260000e-06	1.917233e-06	5.915034e-10	1.324301e+01	4.077462e+01
2.270000e-06	1.961276e-06	6.112744e-10	1.354723e+01	4.231758e+01
2.280000e-06	2.005279e-06	6.316250e-10	1.385117e+01	4.382957e+01
2.290000e-06	2.049188e-06	6.515976e-10	1.415447e+01	4.531013e+01
2.300000e-06	2.093016e-06	6.709579e-10	1.445720e+01	4.675890e+01
2.310000e-06	2.136790e-06	6.908254e-10	1.475957e+01	4.817559e+01
2.320000e-06	2.180532e-06	7.111957e-10	1.506171e+01	4.956002e+01
2.330000e-06	2.224229e-06	7.309008e-10	1.536354e+01	5.091204e+01
2.340000e-06	2.267834e-06	7.489890e-10	1.566473e+01	5.223158e+01
2.350000e-06	2.311309e-06	7.657974e-10	1.596503e+01	5.351864e+01
2.360000e-06	2.354659e-06	7.820472e-10	1.626446e+01	5.477324e+01
2.370000e-06	2.397888e-06	7.982287e-10	1.656306e+01	5.599546e+01
2.380000e-06	2.440881e-06	8.119282e-10	1.686003e+01	5.718539e+01
2.390000e-06	2.483486e-06	8.240534e-10	1.715432e+01	5.834317e+01
2.400000e-06	2.525664e-06	8.395538e-10	1.744565e+01	5.946895e+01
2.410000e-06	2.567466e-06	8.563997e-10	1.773440e+01	6.056291e+01
2.420000e-06	2.608938e-06	8.714020e-10	1.802086e+01	6.162525e+01
2.430000e-06	2.650115e-06	8.830883e-10	1.830528e+01	6.265617e+01
2.440000e-06	2.691069e-06	8.928624e-10	1.858817e+01	6.365589e+01
2.450000e-06	2.731723e-06	9.024806e-10	1.886898e+01	6.462465e+01
2.460000e-06	2.772041e-06	9.126285e-10	1.914747e+01	6.556270e+01
2.470000e-06	2.812189e-06	9.245899e-10	1.942478e+01	6.647030e+01
2.480000e-06	2.852244e-06	9.363359e-10	1.970146e+01	6.734774e+01
2.490000e-06	2.892194e-06	9.465939e-10	1.997741e+01	6.819532e+01
2.500000e-06	2.932008e-06	9.578010e-10	2.025242e+01	6.901335e+01
2.510000e-06	2.971696e-06	9.689104e-10	2.052656e+01	6.980219e+01
2.520000e-06	3.011323e-06	9.785889e-10	2.080027e+01	7.056218e+01
2.530000e-06	3.050854e-06	9.869590e-10	2.107333e+01	7.129374e+01
2.540000e-06	3.090109e-06	9.950196e-10	2.134448e+01	7.199727e+01
2.550000e-06	3.129134e-06	1.003085e-09	2.161404e+01	7.267325e+01
2.560000e-06	3.167905e-06	1.011497e-09	2.188184e+01	7.332214e+01
2.570000e-06	3.206359e-06	1.019602e-09	2.214746e+01	7.394447e+01
2.580000e-06	3.244602e-06	1.026560e-09	2.241162e+01	7.454079e+01
2.590000e-06	3.282602e-06	1.034206e-09	2.267409e+01	7.511170e+01
2.600000e-06	3.320457e-06	1.042252e-09	2.293557e+01	7.565781e+01
2.610000e-06	3.358183e-06	1.050698e-09	2.319616e+01	7.617977e+01
2.620000e-06	3.395631e-06	1.059442e-09	2.345483e+01	7.667829e+01
2.630000e-06	3.432793e-06	1.068720e-09	2.371152e+01	7.715407e+01
2.640000e-06	3.469709e-06	1.077432e-09	2.396651e+01	7.760786e+01
2.650000e-06	3.506328e-06	1.083708e-09	2.421945e+01	7.804044e+01
2.660000e-06	3.542626e-06	1.087511e-09	2.447018e+01	7.845258e+01
2.670000e-06	3.578716e-06	1.091712e-09	2.471946e+01	7.884511e+01
2.680000e-06	3.614663e-06	1.096347e-09	2.496776e+01	7.921885e+01
2.690000e-06	3.650530e-06	1.100835e-09	2.521550e+01	7.957462e+01
2.700000e-06	3.686319e-06	1.108638e-09	2.546271e+01	7.991327e+01
2.710000e-06	3.721948e-06	1.117227e-09	2.570881e+01	8.023564e+01
2.720000e-06	3.757359e-06	1.124070e-09	2.595341e+01	8.054257e+01
2.730000e-06	3.792498e-06	1.130040e-09	2.619613e+01	8.083486e+01
2.740000e-06	3.827332e-06	1.135458e-09	2.643674e+01	8.111335e+01
2.750000e-06	3.861615e-06	1.139677e-09	2.667355e+01	8.137883e+01
2.760000e-06	3.895284e-06	1.142163e-09	2.690611e+01	8.163207e+01
2.770000e-06	3.928504e-06	1.145098e-09	2.713557e+01	8.187382e+01
2.780000e-06	3.961325e-06	1.148933e-09	2.736227e+01	8.210481e+01
2.790000e-06	3.993752e-06	1.155131e-09	2.758626e+01	8.232572e+01
2.800000e-06	4.025917e-06	1.163966e-09	2.780844e+01	8.253720e+01
2.810000e-06	4.057938e-06	1.171775e-09	2.802962e+01	8.273988e+01
2.820000e-06	4.089786e-06	1.176691e-09	2.824960e+01	8.293433e+01
2.830000e-06	4.121493e-06	1.179926e-09	2.846861e+01	8.312109e+01
2.840000e-06	4.153026e-06	1.182413e-09	2.868642e+01	8.330066e+01
2.850000e-06	4.184376e-06	1.181922e-09	2.890296e+01	8.347349e+01
2.860000e-06	4.215420e-06	1.178752e-09	2.911740e+01	8.363999e+01
2.870000e-06	4.246021e-06	1.178263e-09	2.932877e+01	8.380053e+01
2.880000e-06	4.276216e-06	1.180821e-09	2.953734e+01	8.395543e+01
2.890000e-06	4.306115e-06	1.185211e-09	2.974386e+01	8.410498e+01
2.900000e-06	4.335765e-06	1.190746e-09	2.994866e+01	8.424940e+01
