# Temperatura_=_-10.1
# Concentracion g/m^3_=_1620.0
# C_Vs_to_Am_M_A/Vsm_=_65563218390.804596
# pendiente_HvsI_1/m_=_3716.3
# ordenada_HvsI_A/m_=_1297.0
# frecuencia_Hz_=_135106.68348527263

Tiempo_(s)	Campo_(V.s)	Magnetizacion_(V.s)	Campo_(kA/m)	Magnetizacion_(A/m)
0.000000e+00	-5.516573e-06	-1.105651e-09	-3.837116e+01	-7.248457e+01
1.000000e-08	-5.516602e-06	-1.101955e-09	-3.837136e+01	-7.242583e+01
2.000000e-08	-5.516348e-06	-1.103000e-09	-3.836960e+01	-7.237024e+01
3.000000e-08	-5.515828e-06	-1.106655e-09	-3.836598e+01	-7.231823e+01
4.000000e-08	-5.514908e-06	-1.108205e-09	-3.835958e+01	-7.227013e+01
5.000000e-08	-5.513383e-06	-1.104072e-09	-3.834897e+01	-7.222621e+01
6.000000e-08	-5.511159e-06	-1.098374e-09	-3.833350e+01	-7.218662e+01
7.000000e-08	-5.508401e-06	-1.087834e-09	-3.831432e+01	-7.215141e+01
8.000000e-08	-5.505185e-06	-1.089419e-09	-3.829195e+01	-7.212054e+01
9.000000e-08	-5.501401e-06	-1.128142e-09	-3.826563e+01	-7.209385e+01
1.000000e-07	-5.497134e-06	-1.165191e-09	-3.823595e+01	-7.207108e+01
1.100000e-07	-5.492644e-06	-1.095319e-09	-3.820472e+01	-7.205187e+01
1.200000e-07	-5.488046e-06	-1.048600e-09	-3.817274e+01	-7.203576e+01
1.300000e-07	-5.483202e-06	-1.062284e-09	-3.813905e+01	-7.202222e+01
1.400000e-07	-5.477947e-06	-1.143281e-09	-3.810249e+01	-7.201063e+01
1.500000e-07	-5.472244e-06	-1.104744e-09	-3.806282e+01	-7.200032e+01
1.600000e-07	-5.466183e-06	-1.047202e-09	-3.802067e+01	-7.199055e+01
1.700000e-07	-5.459697e-06	-1.074920e-09	-3.797556e+01	-7.198058e+01
1.800000e-07	-5.452703e-06	-1.151774e-09	-3.792690e+01	-7.196960e+01
1.900000e-07	-5.445367e-06	-1.122236e-09	-3.787588e+01	-7.195683e+01
2.000000e-07	-5.437817e-06	-1.032747e-09	-3.782337e+01	-7.194148e+01
2.100000e-07	-5.429988e-06	-1.058613e-09	-3.776891e+01	-7.192280e+01
2.200000e-07	-5.421879e-06	-1.122467e-09	-3.771250e+01	-7.190006e+01
2.300000e-07	-5.413462e-06	-1.128123e-09	-3.765396e+01	-7.187258e+01
2.400000e-07	-5.404606e-06	-1.055728e-09	-3.759236e+01	-7.183976e+01
2.500000e-07	-5.394997e-06	-1.073594e-09	-3.752552e+01	-7.180106e+01
2.600000e-07	-5.384619e-06	-1.092141e-09	-3.745334e+01	-7.175603e+01
2.700000e-07	-5.373741e-06	-1.097329e-09	-3.737768e+01	-7.170430e+01
2.800000e-07	-5.362355e-06	-1.059143e-09	-3.729848e+01	-7.164560e+01
2.900000e-07	-5.350629e-06	-1.079973e-09	-3.721692e+01	-7.157975e+01
3.000000e-07	-5.338597e-06	-1.085190e-09	-3.713323e+01	-7.150670e+01
3.100000e-07	-5.326143e-06	-1.082457e-09	-3.704660e+01	-7.142647e+01
3.200000e-07	-5.313237e-06	-1.053945e-09	-3.695684e+01	-7.133919e+01
3.300000e-07	-5.299948e-06	-1.065139e-09	-3.686440e+01	-7.124508e+01
3.400000e-07	-5.286316e-06	-1.080452e-09	-3.676958e+01	-7.114446e+01
3.500000e-07	-5.272283e-06	-1.082360e-09	-3.667197e+01	-7.103772e+01
3.600000e-07	-5.257837e-06	-1.057853e-09	-3.657149e+01	-7.092533e+01
3.700000e-07	-5.242883e-06	-1.074019e-09	-3.646748e+01	-7.080782e+01
3.800000e-07	-5.227343e-06	-1.088305e-09	-3.635939e+01	-7.068578e+01
3.900000e-07	-5.211241e-06	-1.059059e-09	-3.624739e+01	-7.055985e+01
4.000000e-07	-5.194739e-06	-1.040431e-09	-3.613261e+01	-7.043069e+01
4.100000e-07	-5.177898e-06	-1.074098e-09	-3.601547e+01	-7.029899e+01
4.200000e-07	-5.160675e-06	-1.077065e-09	-3.589567e+01	-7.016543e+01
4.300000e-07	-5.143140e-06	-1.034515e-09	-3.577371e+01	-7.003073e+01
4.400000e-07	-5.125344e-06	-1.064373e-09	-3.564992e+01	-6.989557e+01
4.500000e-07	-5.107136e-06	-1.092375e-09	-3.552327e+01	-6.976061e+01
4.600000e-07	-5.088452e-06	-1.051989e-09	-3.539332e+01	-6.962650e+01
4.700000e-07	-5.069466e-06	-1.022221e-09	-3.526126e+01	-6.949383e+01
4.800000e-07	-5.050198e-06	-1.067673e-09	-3.512724e+01	-6.936316e+01
4.900000e-07	-5.030653e-06	-1.052905e-09	-3.499129e+01	-6.923501e+01
5.000000e-07	-5.010905e-06	-1.029792e-09	-3.485393e+01	-6.910983e+01
5.100000e-07	-4.990921e-06	-1.052290e-09	-3.471493e+01	-6.898802e+01
5.200000e-07	-4.970608e-06	-1.067273e-09	-3.457364e+01	-6.886992e+01
5.300000e-07	-4.949937e-06	-1.031977e-09	-3.442986e+01	-6.875582e+01
5.400000e-07	-4.928901e-06	-1.055445e-09	-3.428354e+01	-6.864592e+01
5.500000e-07	-4.907415e-06	-1.067900e-09	-3.413409e+01	-6.854040e+01
5.600000e-07	-4.885568e-06	-1.031161e-09	-3.398213e+01	-6.843936e+01
5.700000e-07	-4.863477e-06	-1.020470e-09	-3.382847e+01	-6.834284e+01
5.800000e-07	-4.841074e-06	-1.059626e-09	-3.367265e+01	-6.825083e+01
5.900000e-07	-4.818202e-06	-1.044383e-09	-3.351356e+01	-6.816328e+01
6.000000e-07	-4.794961e-06	-1.032243e-09	-3.335191e+01	-6.808009e+01
6.100000e-07	-4.771464e-06	-1.050961e-09	-3.318847e+01	-6.800111e+01
6.200000e-07	-4.747757e-06	-1.048554e-09	-3.302357e+01	-6.792616e+01
6.300000e-07	-4.723935e-06	-1.027571e-09	-3.285787e+01	-6.785502e+01
6.400000e-07	-4.699875e-06	-1.043521e-09	-3.269053e+01	-6.778743e+01
6.500000e-07	-4.675383e-06	-1.046189e-09	-3.252017e+01	-6.772312e+01
6.600000e-07	-4.650423e-06	-1.034828e-09	-3.234656e+01	-6.766179e+01
6.700000e-07	-4.624996e-06	-1.045315e-09	-3.216969e+01	-6.760311e+01
6.800000e-07	-4.599080e-06	-1.047631e-09	-3.198943e+01	-6.754674e+01
6.900000e-07	-4.572578e-06	-1.032537e-09	-3.180509e+01	-6.749234e+01
7.000000e-07	-4.545592e-06	-1.036536e-09	-3.161739e+01	-6.743952e+01
7.100000e-07	-4.518318e-06	-1.043611e-09	-3.142769e+01	-6.738792e+01
7.200000e-07	-4.490748e-06	-1.028977e-09	-3.123592e+01	-6.733714e+01
7.300000e-07	-4.462980e-06	-1.033153e-09	-3.104277e+01	-6.728680e+01
7.400000e-07	-4.435052e-06	-1.041958e-09	-3.084852e+01	-6.723650e+01
7.500000e-07	-4.406935e-06	-1.033439e-09	-3.065295e+01	-6.718584e+01
7.600000e-07	-4.378572e-06	-1.026368e-09	-3.045566e+01	-6.713443e+01
7.700000e-07	-4.349782e-06	-1.037642e-09	-3.025541e+01	-6.708187e+01
7.800000e-07	-4.320592e-06	-1.030023e-09	-3.005238e+01	-6.702777e+01
7.900000e-07	-4.291165e-06	-1.024361e-09	-2.984770e+01	-6.697176e+01
8.000000e-07	-4.261502e-06	-1.029078e-09	-2.964137e+01	-6.691346e+01
8.100000e-07	-4.231512e-06	-1.027201e-09	-2.943277e+01	-6.685252e+01
8.200000e-07	-4.201260e-06	-1.008689e-09	-2.922235e+01	-6.678859e+01
8.300000e-07	-4.170759e-06	-1.011684e-09	-2.901019e+01	-6.672136e+01
8.400000e-07	-4.139905e-06	-1.015116e-09	-2.879559e+01	-6.665053e+01
8.500000e-07	-4.108761e-06	-1.011707e-09	-2.857896e+01	-6.657583e+01
8.600000e-07	-4.077400e-06	-1.010492e-09	-2.836083e+01	-6.649702e+01
8.700000e-07	-4.045865e-06	-1.018010e-09	-2.814148e+01	-6.641390e+01
8.800000e-07	-4.014117e-06	-1.009900e-09	-2.792065e+01	-6.632630e+01
8.900000e-07	-3.982138e-06	-1.001776e-09	-2.769822e+01	-6.623410e+01
9.000000e-07	-3.949980e-06	-9.991947e-10	-2.747455e+01	-6.613720e+01
9.100000e-07	-3.917566e-06	-9.938816e-10	-2.724908e+01	-6.603558e+01
9.200000e-07	-3.884759e-06	-9.852812e-10	-2.702089e+01	-6.592924e+01
9.300000e-07	-3.851566e-06	-9.893991e-10	-2.679001e+01	-6.581825e+01
9.400000e-07	-3.817859e-06	-9.934440e-10	-2.655556e+01	-6.570271e+01
9.500000e-07	-3.783542e-06	-9.893448e-10	-2.631686e+01	-6.558277e+01
9.600000e-07	-3.748820e-06	-9.866552e-10	-2.607535e+01	-6.545863e+01
9.700000e-07	-3.713802e-06	-9.852785e-10	-2.583178e+01	-6.533054e+01
9.800000e-07	-3.678496e-06	-9.767637e-10	-2.558620e+01	-6.519879e+01
9.900000e-07	-3.642948e-06	-9.669680e-10	-2.533895e+01	-6.506370e+01
1.000000e-06	-3.607225e-06	-9.643000e-10	-2.509047e+01	-6.492561e+01
1.010000e-06	-3.571392e-06	-9.620615e-10	-2.484123e+01	-6.478490e+01
1.020000e-06	-3.535479e-06	-9.621696e-10	-2.459143e+01	-6.464197e+01
1.030000e-06	-3.499443e-06	-9.671478e-10	-2.434078e+01	-6.449722e+01
1.040000e-06	-3.463179e-06	-9.705290e-10	-2.408854e+01	-6.435106e+01
1.050000e-06	-3.426664e-06	-9.635279e-10	-2.383456e+01	-6.420388e+01
1.060000e-06	-3.389947e-06	-9.594689e-10	-2.357917e+01	-6.405606e+01
1.070000e-06	-3.352993e-06	-9.547535e-10	-2.332213e+01	-6.390797e+01
1.080000e-06	-3.315685e-06	-9.489859e-10	-2.306263e+01	-6.375993e+01
1.090000e-06	-3.278017e-06	-9.434375e-10	-2.280062e+01	-6.361222e+01
1.100000e-06	-3.240158e-06	-9.435645e-10	-2.253730e+01	-6.346508e+01
1.110000e-06	-3.202140e-06	-9.405605e-10	-2.227285e+01	-6.331869e+01
1.120000e-06	-3.163872e-06	-9.400635e-10	-2.200668e+01	-6.317316e+01
1.130000e-06	-3.125421e-06	-9.395790e-10	-2.173923e+01	-6.302854e+01
1.140000e-06	-3.086812e-06	-9.375704e-10	-2.147068e+01	-6.288481e+01
1.150000e-06	-3.047976e-06	-9.309385e-10	-2.120055e+01	-6.274188e+01
1.160000e-06	-3.008875e-06	-9.248904e-10	-2.092858e+01	-6.259957e+01
1.170000e-06	-2.969564e-06	-9.186079e-10	-2.065515e+01	-6.245764e+01
1.180000e-06	-2.930133e-06	-9.177006e-10	-2.038088e+01	-6.231578e+01
1.190000e-06	-2.890564e-06	-9.218962e-10	-2.010565e+01	-6.217359e+01
1.200000e-06	-2.850828e-06	-9.262560e-10	-1.982926e+01	-6.203063e+01
1.210000e-06	-2.810950e-06	-9.251121e-10	-1.955189e+01	-6.188638e+01
1.220000e-06	-2.770960e-06	-9.219362e-10	-1.927374e+01	-6.174030e+01
1.230000e-06	-2.730861e-06	-9.189068e-10	-1.899482e+01	-6.159177e+01
1.240000e-06	-2.690640e-06	-9.142599e-10	-1.871506e+01	-6.144018e+01
1.250000e-06	-2.650216e-06	-9.098566e-10	-1.843389e+01	-6.128485e+01
1.260000e-06	-2.609492e-06	-9.076044e-10	-1.815062e+01	-6.112514e+01
1.270000e-06	-2.568456e-06	-9.055828e-10	-1.786519e+01	-6.096036e+01
1.280000e-06	-2.527110e-06	-9.031832e-10	-1.757760e+01	-6.078988e+01
1.290000e-06	-2.485456e-06	-9.021096e-10	-1.728787e+01	-6.061304e+01
1.300000e-06	-2.443624e-06	-8.999168e-10	-1.699691e+01	-6.042925e+01
1.310000e-06	-2.401599e-06	-8.953248e-10	-1.670460e+01	-6.023795e+01
1.320000e-06	-2.359229e-06	-8.913068e-10	-1.640989e+01	-6.003862e+01
1.330000e-06	-2.316517e-06	-8.878824e-10	-1.611280e+01	-5.983080e+01
1.340000e-06	-2.273517e-06	-8.832293e-10	-1.581371e+01	-5.961409e+01
1.350000e-06	-2.230313e-06	-8.809736e-10	-1.551320e+01	-5.938817e+01
1.360000e-06	-2.186982e-06	-8.785787e-10	-1.521180e+01	-5.915276e+01
1.370000e-06	-2.143511e-06	-8.738679e-10	-1.490944e+01	-5.890766e+01
1.380000e-06	-2.099857e-06	-8.661369e-10	-1.460580e+01	-5.865274e+01
1.390000e-06	-2.056083e-06	-8.589760e-10	-1.430132e+01	-5.838792e+01
1.400000e-06	-2.012265e-06	-8.507673e-10	-1.399654e+01	-5.811319e+01
1.410000e-06	-1.968386e-06	-8.433709e-10	-1.369134e+01	-5.782859e+01
1.420000e-06	-1.924398e-06	-8.368088e-10	-1.338537e+01	-5.753417e+01
1.430000e-06	-1.880318e-06	-8.338229e-10	-1.307877e+01	-5.723005e+01
1.440000e-06	-1.836218e-06	-8.278008e-10	-1.277203e+01	-5.691634e+01
1.450000e-06	-1.792008e-06	-8.202207e-10	-1.246452e+01	-5.659318e+01
1.460000e-06	-1.747636e-06	-8.120966e-10	-1.215588e+01	-5.626068e+01
1.470000e-06	-1.703162e-06	-8.026971e-10	-1.184654e+01	-5.591895e+01
1.480000e-06	-1.658580e-06	-7.926068e-10	-1.153645e+01	-5.556805e+01
1.490000e-06	-1.613850e-06	-7.820943e-10	-1.122532e+01	-5.520800e+01
1.500000e-06	-1.568900e-06	-7.722071e-10	-1.091266e+01	-5.483877e+01
1.510000e-06	-1.523825e-06	-7.655332e-10	-1.059914e+01	-5.446023e+01
1.520000e-06	-1.478798e-06	-7.586698e-10	-1.028595e+01	-5.407220e+01
1.530000e-06	-1.433735e-06	-7.517311e-10	-9.972512e+00	-5.367440e+01
1.540000e-06	-1.388487e-06	-7.429599e-10	-9.657782e+00	-5.326642e+01
1.550000e-06	-1.343120e-06	-7.329796e-10	-9.342225e+00	-5.284780e+01
1.560000e-06	-1.297661e-06	-7.254252e-10	-9.026034e+00	-5.241791e+01
1.570000e-06	-1.252045e-06	-7.180577e-10	-8.708747e+00	-5.197607e+01
1.580000e-06	-1.206366e-06	-7.082201e-10	-8.391022e+00	-5.152144e+01
1.590000e-06	-1.160606e-06	-6.976651e-10	-8.072730e+00	-5.105310e+01
1.600000e-06	-1.114722e-06	-6.895544e-10	-7.753581e+00	-5.057001e+01
1.610000e-06	-1.068787e-06	-6.831391e-10	-7.434072e+00	-5.007107e+01
1.620000e-06	-1.022693e-06	-6.792344e-10	-7.113460e+00	-4.955505e+01
1.630000e-06	-9.764734e-07	-6.752760e-10	-6.791974e+00	-4.902068e+01
1.640000e-06	-9.302792e-07	-6.680129e-10	-6.470664e+00	-4.846662e+01
1.650000e-06	-8.840905e-07	-6.555993e-10	-6.149394e+00	-4.789148e+01
1.660000e-06	-8.378483e-07	-6.415845e-10	-5.827751e+00	-4.729384e+01
1.670000e-06	-7.914968e-07	-6.262669e-10	-5.505348e+00	-4.667228e+01
1.680000e-06	-7.450521e-07	-6.130208e-10	-5.182296e+00	-4.602536e+01
1.690000e-06	-6.986285e-07	-6.014838e-10	-4.859392e+00	-4.535169e+01
1.700000e-06	-6.522261e-07	-5.912138e-10	-4.536634e+00	-4.464989e+01
1.710000e-06	-6.057993e-07	-5.839012e-10	-4.213707e+00	-4.391866e+01
1.720000e-06	-5.592940e-07	-5.765137e-10	-3.890234e+00	-4.315675e+01
1.730000e-06	-5.126823e-07	-5.630452e-10	-3.566021e+00	-4.236302e+01
1.740000e-06	-4.660869e-07	-5.464071e-10	-3.241922e+00	-4.153640e+01
1.750000e-06	-4.194998e-07	-5.302999e-10	-2.917879e+00	-4.067597e+01
1.760000e-06	-3.728173e-07	-5.152267e-10	-2.593174e+00	-3.978090e+01
1.770000e-06	-3.260394e-07	-5.015016e-10	-2.267805e+00	-3.885051e+01
1.780000e-06	-2.792751e-07	-4.903862e-10	-1.942530e+00	-3.788425e+01
1.790000e-06	-2.325676e-07	-4.789292e-10	-1.617651e+00	-3.688173e+01
1.800000e-06	-1.859325e-07	-4.645701e-10	-1.293275e+00	-3.584267e+01
1.810000e-06	-1.393342e-07	-4.495495e-10	-9.691552e-01	-3.476698e+01
1.820000e-06	-9.260629e-08	-4.352450e-10	-6.441337e-01	-3.365467e+01
1.830000e-06	-4.581547e-08	-4.195404e-10	-3.186748e-01	-3.250594e+01
1.840000e-06	9.158656e-10	-4.038351e-10	6.370409e-03	-3.132108e+01
1.850000e-06	4.768265e-08	-3.896902e-10	3.316622e-01	-3.010055e+01
1.860000e-06	9.447912e-08	-3.737430e-10	6.571605e-01	-2.884490e+01
1.870000e-06	1.412041e-07	-3.528194e-10	9.821617e-01	-2.755482e+01
1.880000e-06	1.879171e-07	-3.303564e-10	1.307079e+00	-2.623109e+01
1.890000e-06	2.346882e-07	-3.098847e-10	1.632401e+00	-2.487459e+01
1.900000e-06	2.814496e-07	-2.906614e-10	1.957655e+00	-2.348629e+01
1.910000e-06	3.281699e-07	-2.728609e-10	2.282624e+00	-2.206723e+01
1.920000e-06	3.748487e-07	-2.540964e-10	2.607303e+00	-2.061853e+01
1.930000e-06	4.214817e-07	-2.344878e-10	2.931665e+00	-1.914136e+01
1.940000e-06	4.681119e-07	-2.148312e-10	3.256006e+00	-1.763694e+01
1.950000e-06	5.146700e-07	-1.953490e-10	3.579847e+00	-1.610654e+01
1.960000e-06	5.611628e-07	-1.748355e-10	3.903233e+00	-1.455148e+01
1.970000e-06	6.076244e-07	-1.543299e-10	4.226401e+00	-1.297310e+01
1.980000e-06	6.539767e-07	-1.347297e-10	4.548810e+00	-1.137278e+01
1.990000e-06	7.002605e-07	-1.118767e-10	4.870743e+00	-9.751926e+00
2.000000e-06	7.466218e-07	-8.587546e-11	5.193214e+00	-8.111982e+00
2.010000e-06	7.929737e-07	-6.150056e-11	5.515620e+00	-6.454419e+00
2.020000e-06	8.391826e-07	-3.790318e-11	5.837031e+00	-4.780742e+00
2.030000e-06	8.853635e-07	-1.474530e-11	6.158248e+00	-3.092491e+00
2.040000e-06	9.315151e-07	6.667310e-12	6.479261e+00	-1.391244e+00
2.050000e-06	9.775861e-07	2.764111e-11	6.799713e+00	3.213787e-01
2.060000e-06	1.023637e-06	5.164162e-11	7.120023e+00	2.043713e+00
2.070000e-06	1.069640e-06	7.837924e-11	7.440005e+00	3.774046e+00
2.080000e-06	1.115553e-06	1.048140e-10	7.759360e+00	5.510612e+00
2.090000e-06	1.161371e-06	1.311094e-10	8.078050e+00	7.251595e+00
2.100000e-06	1.207061e-06	1.581750e-10	8.395854e+00	8.995120e+00
2.110000e-06	1.252655e-06	1.835795e-10	8.712987e+00	1.073926e+01
2.120000e-06	1.298223e-06	2.078342e-10	9.029937e+00	1.248203e+01
2.130000e-06	1.343707e-06	2.323807e-10	9.346310e+00	1.422140e+01
2.140000e-06	1.389034e-06	2.545501e-10	9.661589e+00	1.595529e+01
2.150000e-06	1.434248e-06	2.764965e-10	9.976075e+00	1.768158e+01
2.160000e-06	1.479416e-06	3.016014e-10	1.029025e+01	1.939810e+01
2.170000e-06	1.524516e-06	3.273616e-10	1.060395e+01	2.110269e+01
2.180000e-06	1.569387e-06	3.514172e-10	1.091605e+01	2.279315e+01
2.190000e-06	1.614045e-06	3.751581e-10	1.122668e+01	2.446730e+01
2.200000e-06	1.658654e-06	3.990492e-10	1.153696e+01	2.612295e+01
2.210000e-06	1.703123e-06	4.206405e-10	1.184627e+01	2.775797e+01
2.220000e-06	1.747404e-06	4.417403e-10	1.215427e+01	2.937026e+01
2.230000e-06	1.791651e-06	4.632633e-10	1.246204e+01	3.095778e+01
2.240000e-06	1.835902e-06	4.829631e-10	1.276983e+01	3.251859e+01
2.250000e-06	1.879982e-06	5.011995e-10	1.307644e+01	3.405084e+01
2.260000e-06	1.923905e-06	5.206568e-10	1.338194e+01	3.555279e+01
2.270000e-06	1.967801e-06	5.411611e-10	1.368727e+01	3.702285e+01
2.280000e-06	2.011636e-06	5.623681e-10	1.399217e+01	3.845957e+01
2.290000e-06	2.055396e-06	5.827935e-10	1.429655e+01	3.986166e+01
2.300000e-06	2.099111e-06	5.997915e-10	1.460061e+01	4.122800e+01
2.310000e-06	2.142769e-06	6.154721e-10	1.490428e+01	4.255767e+01
2.320000e-06	2.186351e-06	6.316009e-10	1.520742e+01	4.384993e+01
2.330000e-06	2.229850e-06	6.497084e-10	1.550998e+01	4.510426e+01
2.340000e-06	2.273183e-06	6.688525e-10	1.581138e+01	4.632030e+01
2.350000e-06	2.316237e-06	6.886664e-10	1.611085e+01	4.749793e+01
2.360000e-06	2.358933e-06	7.067043e-10	1.640783e+01	4.863721e+01
2.370000e-06	2.401295e-06	7.196239e-10	1.670248e+01	4.973837e+01
2.380000e-06	2.443476e-06	7.297685e-10	1.699588e+01	5.080186e+01
2.390000e-06	2.485437e-06	7.408973e-10	1.728774e+01	5.182827e+01
2.400000e-06	2.526971e-06	7.547160e-10	1.757664e+01	5.281834e+01
2.410000e-06	2.568162e-06	7.706211e-10	1.786315e+01	5.377298e+01
2.420000e-06	2.609174e-06	7.851142e-10	1.814841e+01	5.469317e+01
2.430000e-06	2.649918e-06	7.960447e-10	1.843181e+01	5.558004e+01
2.440000e-06	2.690350e-06	8.044502e-10	1.871304e+01	5.643475e+01
2.450000e-06	2.730613e-06	8.118103e-10	1.899309e+01	5.725855e+01
2.460000e-06	2.770739e-06	8.215727e-10	1.927220e+01	5.805270e+01
2.470000e-06	2.810664e-06	8.336131e-10	1.954990e+01	5.881847e+01
2.480000e-06	2.850444e-06	8.447565e-10	1.982659e+01	5.955714e+01
2.490000e-06	2.890133e-06	8.545435e-10	2.010266e+01	6.026993e+01
2.500000e-06	2.929770e-06	8.626165e-10	2.037836e+01	6.095803e+01
2.510000e-06	2.969294e-06	8.696292e-10	2.065327e+01	6.162253e+01
2.520000e-06	3.008553e-06	8.745943e-10	2.092634e+01	6.226447e+01
2.530000e-06	3.047570e-06	8.781151e-10	2.119773e+01	6.288477e+01
2.540000e-06	3.086417e-06	8.842439e-10	2.146793e+01	6.348425e+01
2.550000e-06	3.125037e-06	8.934749e-10	2.173656e+01	6.406363e+01
2.560000e-06	3.163360e-06	9.029990e-10	2.200312e+01	6.462348e+01
2.570000e-06	3.201404e-06	9.109739e-10	2.226774e+01	6.516428e+01
2.580000e-06	3.239268e-06	9.199900e-10	2.253110e+01	6.568638e+01
2.590000e-06	3.276998e-06	9.275166e-10	2.279354e+01	6.619003e+01
2.600000e-06	3.314528e-06	9.334924e-10	2.305458e+01	6.667538e+01
2.610000e-06	3.351788e-06	9.382901e-10	2.331375e+01	6.714247e+01
2.620000e-06	3.388760e-06	9.411393e-10	2.357091e+01	6.759129e+01
2.630000e-06	3.425394e-06	9.471298e-10	2.382572e+01	6.802175e+01
2.640000e-06	3.461762e-06	9.550638e-10	2.407869e+01	6.843371e+01
2.650000e-06	3.498000e-06	9.659219e-10	2.433075e+01	6.882703e+01
2.660000e-06	3.534099e-06	9.746951e-10	2.458184e+01	6.920154e+01
2.670000e-06	3.570021e-06	9.825075e-10	2.483169e+01	6.955708e+01
2.680000e-06	3.605804e-06	9.887565e-10	2.508058e+01	6.989354e+01
2.690000e-06	3.641489e-06	9.921114e-10	2.532880e+01	7.021084e+01
2.700000e-06	3.677020e-06	9.938150e-10	2.557594e+01	7.050897e+01
2.710000e-06	3.712282e-06	9.976571e-10	2.582121e+01	7.078801e+01
2.720000e-06	3.747196e-06	1.004197e-09	2.606406e+01	7.104811e+01
2.730000e-06	3.781831e-06	1.010513e-09	2.630496e+01	7.128955e+01
2.740000e-06	3.816152e-06	1.018769e-09	2.654369e+01	7.151271e+01
2.750000e-06	3.849901e-06	1.024643e-09	2.677843e+01	7.171809e+01
2.760000e-06	3.883013e-06	1.027926e-09	2.700875e+01	7.190631e+01
2.770000e-06	3.915702e-06	1.028733e-09	2.723612e+01	7.207810e+01
2.780000e-06	3.948109e-06	1.030019e-09	2.746153e+01	7.223432e+01
2.790000e-06	3.980235e-06	1.034630e-09	2.768499e+01	7.237593e+01
2.800000e-06	4.012156e-06	1.041150e-09	2.790702e+01	7.250398e+01
2.810000e-06	4.043951e-06	1.046491e-09	2.812817e+01	7.261964e+01
2.820000e-06	4.075549e-06	1.051334e-09	2.834795e+01	7.272410e+01
2.830000e-06	4.106952e-06	1.055901e-09	2.856638e+01	7.281865e+01
2.840000e-06	4.138174e-06	1.056453e-09	2.878355e+01	7.290458e+01
2.850000e-06	4.169097e-06	1.052345e-09	2.899864e+01	7.298322e+01
2.860000e-06	4.199657e-06	1.048808e-09	2.921120e+01	7.305587e+01
2.870000e-06	4.229889e-06	1.049551e-09	2.942148e+01	7.312383e+01
2.880000e-06	4.259776e-06	1.052650e-09	2.962936e+01	7.318833e+01
2.890000e-06	4.289409e-06	1.056258e-09	2.983548e+01	7.325055e+01
2.900000e-06	4.318849e-06	1.058426e-09	3.004025e+01	7.331156e+01
