# Temperatura_=_-9.89
# Concentracion g/m^3_=_1620.0
# C_Vs_to_Am_M_A/Vsm_=_65563218390.804596
# pendiente_HvsI_1/m_=_3716.3
# ordenada_HvsI_A/m_=_1297.0
# frecuencia_Hz_=_135104.13317777505

Tiempo_(s)	Campo_(V.s)	Magnetizacion_(V.s)	Campo_(kA/m)	Magnetizacion_(A/m)
0.000000e+00	-5.517107e-06	-1.136108e-09	-3.836832e+01	-7.292840e+01
1.000000e-08	-5.517358e-06	-1.129265e-09	-3.837007e+01	-7.285833e+01
2.000000e-08	-5.517398e-06	-1.123643e-09	-3.837035e+01	-7.278959e+01
3.000000e-08	-5.517157e-06	-1.122512e-09	-3.836867e+01	-7.272246e+01
4.000000e-08	-5.516510e-06	-1.124958e-09	-3.836417e+01	-7.265718e+01
5.000000e-08	-5.515285e-06	-1.125132e-09	-3.835565e+01	-7.259394e+01
6.000000e-08	-5.513480e-06	-1.115687e-09	-3.834310e+01	-7.253285e+01
7.000000e-08	-5.511148e-06	-1.096945e-09	-3.832689e+01	-7.247394e+01
8.000000e-08	-5.508296e-06	-1.110365e-09	-3.830705e+01	-7.241720e+01
9.000000e-08	-5.504874e-06	-1.181908e-09	-3.828325e+01	-7.236252e+01
1.000000e-07	-5.500928e-06	-1.212021e-09	-3.825581e+01	-7.230971e+01
1.100000e-07	-5.496606e-06	-1.119797e-09	-3.822575e+01	-7.225853e+01
1.200000e-07	-5.492081e-06	-1.029138e-09	-3.819429e+01	-7.220864e+01
1.300000e-07	-5.487420e-06	-1.077876e-09	-3.816186e+01	-7.215968e+01
1.400000e-07	-5.482343e-06	-1.156861e-09	-3.812656e+01	-7.211118e+01
1.500000e-07	-5.476814e-06	-1.131384e-09	-3.808811e+01	-7.206266e+01
1.600000e-07	-5.470973e-06	-1.049334e-09	-3.804749e+01	-7.201358e+01
1.700000e-07	-5.464681e-06	-1.081585e-09	-3.800373e+01	-7.196339e+01
1.800000e-07	-5.457814e-06	-1.162430e-09	-3.795597e+01	-7.191151e+01
1.900000e-07	-5.450609e-06	-1.136393e-09	-3.790587e+01	-7.185735e+01
2.000000e-07	-5.443257e-06	-1.064512e-09	-3.785474e+01	-7.180034e+01
2.100000e-07	-5.435644e-06	-1.061779e-09	-3.780179e+01	-7.173991e+01
2.200000e-07	-5.427743e-06	-1.133975e-09	-3.774685e+01	-7.167556e+01
2.300000e-07	-5.419569e-06	-1.134405e-09	-3.769000e+01	-7.160679e+01
2.400000e-07	-5.411012e-06	-1.088458e-09	-3.763050e+01	-7.153317e+01
2.500000e-07	-5.401883e-06	-1.069832e-09	-3.756700e+01	-7.145436e+01
2.600000e-07	-5.391965e-06	-1.100029e-09	-3.749804e+01	-7.137004e+01
2.700000e-07	-5.381407e-06	-1.096160e-09	-3.742461e+01	-7.128003e+01
2.800000e-07	-5.370451e-06	-1.075763e-09	-3.734842e+01	-7.118419e+01
2.900000e-07	-5.359028e-06	-1.068026e-09	-3.726898e+01	-7.108251e+01
3.000000e-07	-5.347228e-06	-1.087514e-09	-3.718691e+01	-7.097503e+01
3.100000e-07	-5.335042e-06	-1.085572e-09	-3.710217e+01	-7.086192e+01
3.200000e-07	-5.322394e-06	-1.064825e-09	-3.701420e+01	-7.074343e+01
3.300000e-07	-5.309350e-06	-1.060662e-09	-3.692349e+01	-7.061990e+01
3.400000e-07	-5.295944e-06	-1.086008e-09	-3.683026e+01	-7.049176e+01
3.500000e-07	-5.282140e-06	-1.088125e-09	-3.673426e+01	-7.035950e+01
3.600000e-07	-5.267889e-06	-1.063135e-09	-3.663515e+01	-7.022371e+01
3.700000e-07	-5.253283e-06	-1.076574e-09	-3.653358e+01	-7.008501e+01
3.800000e-07	-5.238256e-06	-1.085916e-09	-3.642908e+01	-6.994409e+01
3.900000e-07	-5.222535e-06	-1.050011e-09	-3.631975e+01	-6.980167e+01
4.000000e-07	-5.206232e-06	-1.048966e-09	-3.620636e+01	-6.965849e+01
4.100000e-07	-5.189595e-06	-1.099490e-09	-3.609067e+01	-6.951531e+01
4.200000e-07	-5.172644e-06	-1.071966e-09	-3.597278e+01	-6.937289e+01
4.300000e-07	-5.155377e-06	-1.025161e-09	-3.585270e+01	-6.923196e+01
4.400000e-07	-5.137814e-06	-1.072964e-09	-3.573056e+01	-6.909324e+01
4.500000e-07	-5.119959e-06	-1.104518e-09	-3.560639e+01	-6.895741e+01
4.600000e-07	-5.101653e-06	-1.027472e-09	-3.547908e+01	-6.882507e+01
4.700000e-07	-5.082851e-06	-1.027633e-09	-3.534832e+01	-6.869680e+01
4.800000e-07	-5.063737e-06	-1.085938e-09	-3.521539e+01	-6.857307e+01
4.900000e-07	-5.044295e-06	-1.053311e-09	-3.508019e+01	-6.845430e+01
5.000000e-07	-5.024588e-06	-1.009154e-09	-3.494314e+01	-6.834080e+01
5.100000e-07	-5.004752e-06	-1.064863e-09	-3.480519e+01	-6.823280e+01
5.200000e-07	-4.984628e-06	-1.056625e-09	-3.466524e+01	-6.813043e+01
5.300000e-07	-4.964123e-06	-1.004608e-09	-3.452264e+01	-6.803374e+01
5.400000e-07	-4.943279e-06	-1.040888e-09	-3.437768e+01	-6.794267e+01
5.500000e-07	-4.922125e-06	-1.073802e-09	-3.423056e+01	-6.785707e+01
5.600000e-07	-4.900557e-06	-1.012320e-09	-3.408057e+01	-6.777671e+01
5.700000e-07	-4.878609e-06	-1.013182e-09	-3.392794e+01	-6.770126e+01
5.800000e-07	-4.856385e-06	-1.059090e-09	-3.377338e+01	-6.763035e+01
5.900000e-07	-4.833742e-06	-1.028131e-09	-3.361591e+01	-6.756350e+01
6.000000e-07	-4.810657e-06	-1.001727e-09	-3.345537e+01	-6.750020e+01
6.100000e-07	-4.787263e-06	-1.038772e-09	-3.329267e+01	-6.743989e+01
6.200000e-07	-4.763664e-06	-1.031496e-09	-3.312856e+01	-6.738196e+01
6.300000e-07	-4.739914e-06	-1.001564e-09	-3.296339e+01	-6.732580e+01
6.400000e-07	-4.715930e-06	-1.023139e-09	-3.279659e+01	-6.727077e+01
6.500000e-07	-4.691599e-06	-1.027709e-09	-3.262739e+01	-6.721623e+01
6.600000e-07	-4.666792e-06	-1.001047e-09	-3.245487e+01	-6.716156e+01
6.700000e-07	-4.641446e-06	-1.009463e-09	-3.227860e+01	-6.710615e+01
6.800000e-07	-4.615566e-06	-1.023718e-09	-3.209862e+01	-6.704944e+01
6.900000e-07	-4.589172e-06	-1.005522e-09	-3.191506e+01	-6.699088e+01
7.000000e-07	-4.562336e-06	-1.006226e-09	-3.172844e+01	-6.693000e+01
7.100000e-07	-4.535171e-06	-1.016020e-09	-3.153952e+01	-6.686637e+01
7.200000e-07	-4.507756e-06	-1.008645e-09	-3.134886e+01	-6.679964e+01
7.300000e-07	-4.480112e-06	-1.000863e-09	-3.115661e+01	-6.672949e+01
7.400000e-07	-4.452280e-06	-1.004830e-09	-3.096306e+01	-6.665570e+01
7.500000e-07	-4.424246e-06	-9.962284e-10	-3.076810e+01	-6.657812e+01
7.600000e-07	-4.395983e-06	-9.943175e-10	-3.057155e+01	-6.649666e+01
7.700000e-07	-4.367431e-06	-9.965883e-10	-3.037298e+01	-6.641129e+01
7.800000e-07	-4.338545e-06	-9.941184e-10	-3.017210e+01	-6.632206e+01
7.900000e-07	-4.309337e-06	-9.898351e-10	-2.996898e+01	-6.622908e+01
8.000000e-07	-4.279815e-06	-9.943187e-10	-2.976367e+01	-6.613251e+01
8.100000e-07	-4.249990e-06	-9.870186e-10	-2.955625e+01	-6.603257e+01
8.200000e-07	-4.219903e-06	-9.758667e-10	-2.934701e+01	-6.592951e+01
8.300000e-07	-4.189488e-06	-9.730836e-10	-2.913549e+01	-6.582363e+01
8.400000e-07	-4.158809e-06	-9.748489e-10	-2.892214e+01	-6.571523e+01
8.500000e-07	-4.127923e-06	-9.696594e-10	-2.870734e+01	-6.560467e+01
8.600000e-07	-4.096646e-06	-9.704796e-10	-2.848983e+01	-6.549229e+01
8.700000e-07	-4.065098e-06	-9.733159e-10	-2.827043e+01	-6.537844e+01
8.800000e-07	-4.033422e-06	-9.666231e-10	-2.805014e+01	-6.526346e+01
8.900000e-07	-4.001573e-06	-9.578337e-10	-2.782866e+01	-6.514769e+01
9.000000e-07	-3.969603e-06	-9.556420e-10	-2.760632e+01	-6.503143e+01
9.100000e-07	-3.937459e-06	-9.508111e-10	-2.738278e+01	-6.491497e+01
9.200000e-07	-3.905012e-06	-9.455535e-10	-2.715712e+01	-6.479856e+01
9.300000e-07	-3.872160e-06	-9.477628e-10	-2.692866e+01	-6.468241e+01
9.400000e-07	-3.838899e-06	-9.496583e-10	-2.669735e+01	-6.456670e+01
9.500000e-07	-3.805176e-06	-9.440275e-10	-2.646282e+01	-6.445157e+01
9.600000e-07	-3.770947e-06	-9.402016e-10	-2.622478e+01	-6.433709e+01
9.700000e-07	-3.736309e-06	-9.409598e-10	-2.598389e+01	-6.422332e+01
9.800000e-07	-3.701255e-06	-9.372627e-10	-2.574011e+01	-6.411025e+01
9.900000e-07	-3.665845e-06	-9.339228e-10	-2.549386e+01	-6.399784e+01
1.000000e-06	-3.630247e-06	-9.328757e-10	-2.524629e+01	-6.388600e+01
1.010000e-06	-3.594536e-06	-9.318503e-10	-2.499794e+01	-6.377463e+01
1.020000e-06	-3.558671e-06	-9.256819e-10	-2.474852e+01	-6.366356e+01
1.030000e-06	-3.522651e-06	-9.236036e-10	-2.449802e+01	-6.355261e+01
1.040000e-06	-3.486492e-06	-9.250113e-10	-2.424656e+01	-6.344159e+01
1.050000e-06	-3.450172e-06	-9.259096e-10	-2.399397e+01	-6.333025e+01
1.060000e-06	-3.413558e-06	-9.235870e-10	-2.373934e+01	-6.321837e+01
1.070000e-06	-3.376624e-06	-9.241866e-10	-2.348249e+01	-6.310569e+01
1.080000e-06	-3.339446e-06	-9.213314e-10	-2.322393e+01	-6.299196e+01
1.090000e-06	-3.301984e-06	-9.136754e-10	-2.296341e+01	-6.287693e+01
1.100000e-06	-3.264252e-06	-9.050215e-10	-2.270101e+01	-6.276034e+01
1.110000e-06	-3.226340e-06	-9.020884e-10	-2.243735e+01	-6.264196e+01
1.120000e-06	-3.188251e-06	-9.005998e-10	-2.217247e+01	-6.252154e+01
1.130000e-06	-3.149900e-06	-8.993544e-10	-2.190576e+01	-6.239887e+01
1.140000e-06	-3.111264e-06	-8.977476e-10	-2.163706e+01	-6.227375e+01
1.150000e-06	-3.072354e-06	-8.957598e-10	-2.136647e+01	-6.214598e+01
1.160000e-06	-3.033283e-06	-8.911610e-10	-2.109475e+01	-6.201540e+01
1.170000e-06	-2.994149e-06	-8.862029e-10	-2.082259e+01	-6.188185e+01
1.180000e-06	-2.954810e-06	-8.823494e-10	-2.054901e+01	-6.174519e+01
1.190000e-06	-2.915238e-06	-8.820706e-10	-2.027381e+01	-6.160529e+01
1.200000e-06	-2.875531e-06	-8.831249e-10	-1.999767e+01	-6.146203e+01
1.210000e-06	-2.835697e-06	-8.826610e-10	-1.972065e+01	-6.131531e+01
1.220000e-06	-2.795703e-06	-8.808398e-10	-1.944251e+01	-6.116502e+01
1.230000e-06	-2.755590e-06	-8.786619e-10	-1.916356e+01	-6.101107e+01
1.240000e-06	-2.715419e-06	-8.760292e-10	-1.888419e+01	-6.085336e+01
1.250000e-06	-2.675107e-06	-8.709698e-10	-1.860384e+01	-6.069178e+01
1.260000e-06	-2.634593e-06	-8.656795e-10	-1.832209e+01	-6.052622e+01
1.270000e-06	-2.593739e-06	-8.608916e-10	-1.803797e+01	-6.035656e+01
1.280000e-06	-2.552559e-06	-8.586305e-10	-1.775159e+01	-6.018266e+01
1.290000e-06	-2.511188e-06	-8.550499e-10	-1.746388e+01	-6.000436e+01
1.300000e-06	-2.469472e-06	-8.509686e-10	-1.717377e+01	-5.982149e+01
1.310000e-06	-2.427354e-06	-8.486786e-10	-1.688086e+01	-5.963384e+01
1.320000e-06	-2.384923e-06	-8.461764e-10	-1.658577e+01	-5.944121e+01
1.330000e-06	-2.342273e-06	-8.412731e-10	-1.628917e+01	-5.924332e+01
1.340000e-06	-2.299453e-06	-8.366291e-10	-1.599138e+01	-5.903993e+01
1.350000e-06	-2.256377e-06	-8.339323e-10	-1.569181e+01	-5.883071e+01
1.360000e-06	-2.213014e-06	-8.327005e-10	-1.539025e+01	-5.861535e+01
1.370000e-06	-2.169475e-06	-8.318065e-10	-1.508746e+01	-5.839350e+01
1.380000e-06	-2.125830e-06	-8.300823e-10	-1.478393e+01	-5.816479e+01
1.390000e-06	-2.082115e-06	-8.245645e-10	-1.447992e+01	-5.792881e+01
1.400000e-06	-2.038410e-06	-8.186813e-10	-1.417597e+01	-5.768515e+01
1.410000e-06	-1.994638e-06	-8.123405e-10	-1.387156e+01	-5.743339e+01
1.420000e-06	-1.950692e-06	-8.054550e-10	-1.356595e+01	-5.717308e+01
1.430000e-06	-1.906650e-06	-7.982957e-10	-1.325966e+01	-5.690375e+01
1.440000e-06	-1.862565e-06	-7.937253e-10	-1.295307e+01	-5.662494e+01
1.450000e-06	-1.818407e-06	-7.890531e-10	-1.264598e+01	-5.633618e+01
1.460000e-06	-1.774167e-06	-7.829131e-10	-1.233832e+01	-5.603699e+01
1.470000e-06	-1.729762e-06	-7.761717e-10	-1.202951e+01	-5.572689e+01
1.480000e-06	-1.685195e-06	-7.691988e-10	-1.171957e+01	-5.540540e+01
1.490000e-06	-1.640515e-06	-7.614097e-10	-1.140884e+01	-5.507205e+01
1.500000e-06	-1.595647e-06	-7.512410e-10	-1.109681e+01	-5.472636e+01
1.510000e-06	-1.550636e-06	-7.413783e-10	-1.078379e+01	-5.436787e+01
1.520000e-06	-1.505523e-06	-7.327050e-10	-1.047005e+01	-5.399611e+01
1.530000e-06	-1.460322e-06	-7.248543e-10	-1.015571e+01	-5.361062e+01
1.540000e-06	-1.415032e-06	-7.181259e-10	-9.840735e+00	-5.321093e+01
1.550000e-06	-1.369705e-06	-7.113854e-10	-9.525513e+00	-5.279660e+01
1.560000e-06	-1.324299e-06	-7.031621e-10	-9.209745e+00	-5.236716e+01
1.570000e-06	-1.278716e-06	-6.958420e-10	-8.892740e+00	-5.192216e+01
1.580000e-06	-1.233073e-06	-6.887362e-10	-8.575317e+00	-5.146114e+01
1.590000e-06	-1.187325e-06	-6.780902e-10	-8.257167e+00	-5.098361e+01
1.600000e-06	-1.141432e-06	-6.670514e-10	-7.938004e+00	-5.048910e+01
1.610000e-06	-1.095491e-06	-6.605161e-10	-7.618515e+00	-4.997712e+01
1.620000e-06	-1.049483e-06	-6.566219e-10	-7.298555e+00	-4.944715e+01
1.630000e-06	-1.003422e-06	-6.536308e-10	-6.978228e+00	-4.889867e+01
1.640000e-06	-9.572935e-07	-6.507001e-10	-6.657429e+00	-4.833111e+01
1.650000e-06	-9.111325e-07	-6.431273e-10	-6.336405e+00	-4.774390e+01
1.660000e-06	-8.648426e-07	-6.289493e-10	-6.014486e+00	-4.713643e+01
1.670000e-06	-8.184384e-07	-6.135260e-10	-5.691771e+00	-4.650808e+01
1.680000e-06	-7.720717e-07	-6.005051e-10	-5.369317e+00	-4.585817e+01
1.690000e-06	-7.256001e-07	-5.900096e-10	-5.046134e+00	-4.518602e+01
1.700000e-06	-6.791575e-07	-5.795336e-10	-4.723152e+00	-4.449091e+01
1.710000e-06	-6.327800e-07	-5.688446e-10	-4.400623e+00	-4.377210e+01
1.720000e-06	-5.862925e-07	-5.593202e-10	-4.077329e+00	-4.302880e+01
1.730000e-06	-5.397385e-07	-5.458153e-10	-3.753573e+00	-4.226024e+01
1.740000e-06	-4.931956e-07	-5.308937e-10	-3.429894e+00	-4.146559e+01
1.750000e-06	-4.466402e-07	-5.160829e-10	-3.106127e+00	-4.064405e+01
1.760000e-06	-4.000026e-07	-4.999235e-10	-2.781789e+00	-3.979478e+01
1.770000e-06	-3.533111e-07	-4.851805e-10	-2.457077e+00	-3.891697e+01
1.780000e-06	-3.066035e-07	-4.733120e-10	-2.132252e+00	-3.800979e+01
1.790000e-06	-2.599290e-07	-4.636032e-10	-1.807657e+00	-3.707244e+01
1.800000e-06	-2.132798e-07	-4.506504e-10	-1.483239e+00	-3.610417e+01
1.810000e-06	-1.665830e-07	-4.366548e-10	-1.158489e+00	-3.510422e+01
1.820000e-06	-1.198216e-07	-4.218851e-10	-8.332909e-01	-3.407192e+01
1.830000e-06	-7.304939e-08	-4.065764e-10	-5.080167e-01	-3.300664e+01
1.840000e-06	-2.630555e-08	-3.904430e-10	-1.829400e-01	-3.190780e+01
1.850000e-06	2.045946e-08	-3.751526e-10	1.422838e-01	-3.077493e+01
1.860000e-06	6.721191e-08	-3.610263e-10	4.674204e-01	-2.960763e+01
1.870000e-06	1.138836e-07	-3.456647e-10	7.919956e-01	-2.840561e+01
1.880000e-06	1.605484e-07	-3.296276e-10	1.116522e+00	-2.716867e+01
1.890000e-06	2.073014e-07	-3.119787e-10	1.441663e+00	-2.589674e+01
1.900000e-06	2.540576e-07	-2.927467e-10	1.766825e+00	-2.458989e+01
1.910000e-06	3.007529e-07	-2.725052e-10	2.091565e+00	-2.324831e+01
1.920000e-06	3.474265e-07	-2.507690e-10	2.416153e+00	-2.187233e+01
1.930000e-06	3.941245e-07	-2.306828e-10	2.740910e+00	-2.046243e+01
1.940000e-06	4.407537e-07	-2.111706e-10	3.065190e+00	-1.901925e+01
1.950000e-06	4.872912e-07	-1.920705e-10	3.388832e+00	-1.754358e+01
1.960000e-06	5.337778e-07	-1.741728e-10	3.712120e+00	-1.603636e+01
1.970000e-06	5.801914e-07	-1.566197e-10	4.034899e+00	-1.449869e+01
1.980000e-06	6.266284e-07	-1.388486e-10	4.357842e+00	-1.293184e+01
1.990000e-06	6.730684e-07	-1.190551e-10	4.680806e+00	-1.133723e+01
2.000000e-06	7.194747e-07	-9.597268e-11	5.003535e+00	-9.716419e+00
2.010000e-06	7.658832e-07	-6.968869e-11	5.326280e+00	-8.071121e+00
2.020000e-06	8.122686e-07	-4.421966e-11	5.648864e+00	-6.403189e+00
2.030000e-06	8.585546e-07	-2.007296e-11	5.970756e+00	-4.714606e+00
2.040000e-06	9.046950e-07	2.733723e-12	6.291636e+00	-3.007477e+00
2.050000e-06	9.507319e-07	2.443323e-11	6.611797e+00	-1.284017e+00
2.060000e-06	9.967405e-07	4.638749e-11	6.931760e+00	4.534578e-01
2.070000e-06	1.042719e-06	7.054560e-11	7.251511e+00	2.202546e+00
2.080000e-06	1.088650e-06	9.731770e-11	7.570941e+00	3.960774e+00
2.090000e-06	1.134547e-06	1.247581e-10	7.890125e+00	5.725607e+00
2.100000e-06	1.180315e-06	1.517127e-10	8.208415e+00	7.494470e+00
2.110000e-06	1.226014e-06	1.777457e-10	8.526225e+00	9.264759e+00
2.120000e-06	1.271670e-06	2.016746e-10	8.843740e+00	1.103386e+01
2.130000e-06	1.317166e-06	2.235514e-10	9.160137e+00	1.279915e+01
2.140000e-06	1.362537e-06	2.447842e-10	9.475664e+00	1.455805e+01
2.150000e-06	1.407878e-06	2.675428e-10	9.790984e+00	1.630800e+01
2.160000e-06	1.453110e-06	2.921658e-10	1.010555e+01	1.804650e+01
2.170000e-06	1.498177e-06	3.165719e-10	1.041897e+01	1.977110e+01
2.180000e-06	1.543134e-06	3.392901e-10	1.073161e+01	2.147946e+01
2.190000e-06	1.587951e-06	3.628110e-10	1.104329e+01	2.316930e+01
2.200000e-06	1.632654e-06	3.859131e-10	1.135417e+01	2.483849e+01
2.210000e-06	1.677279e-06	4.076808e-10	1.166452e+01	2.648497e+01
2.220000e-06	1.721792e-06	4.279504e-10	1.197408e+01	2.810684e+01
2.230000e-06	1.766192e-06	4.478232e-10	1.228285e+01	2.970234e+01
2.240000e-06	1.810508e-06	4.685352e-10	1.259104e+01	3.126984e+01
2.250000e-06	1.854727e-06	4.886850e-10	1.289857e+01	3.280787e+01
2.260000e-06	1.898781e-06	5.080004e-10	1.320494e+01	3.431513e+01
2.270000e-06	1.942730e-06	5.266994e-10	1.351058e+01	3.579045e+01
2.280000e-06	1.986667e-06	5.449169e-10	1.381613e+01	3.723284e+01
2.290000e-06	2.030527e-06	5.620749e-10	1.412115e+01	3.864149e+01
2.300000e-06	2.074293e-06	5.791507e-10	1.442552e+01	4.001571e+01
2.310000e-06	2.117973e-06	5.973887e-10	1.472929e+01	4.135500e+01
2.320000e-06	2.161515e-06	6.159194e-10	1.503210e+01	4.265901e+01
2.330000e-06	2.204886e-06	6.341377e-10	1.533372e+01	4.392752e+01
2.340000e-06	2.248157e-06	6.528412e-10	1.563465e+01	4.516046e+01
2.350000e-06	2.291272e-06	6.713691e-10	1.593449e+01	4.635790e+01
2.360000e-06	2.334095e-06	6.882951e-10	1.623229e+01	4.752003e+01
2.370000e-06	2.376650e-06	7.028167e-10	1.652824e+01	4.864715e+01
2.380000e-06	2.418917e-06	7.151590e-10	1.682218e+01	4.973965e+01
2.390000e-06	2.460887e-06	7.271406e-10	1.711406e+01	5.079804e+01
2.400000e-06	2.502552e-06	7.420468e-10	1.740382e+01	5.182289e+01
2.410000e-06	2.543889e-06	7.578166e-10	1.769129e+01	5.281484e+01
2.420000e-06	2.585009e-06	7.724730e-10	1.797726e+01	5.377458e+01
2.430000e-06	2.625946e-06	7.843362e-10	1.826195e+01	5.470285e+01
2.440000e-06	2.666661e-06	7.928032e-10	1.854510e+01	5.560044e+01
2.450000e-06	2.707138e-06	8.011163e-10	1.882660e+01	5.646812e+01
2.460000e-06	2.747440e-06	8.098958e-10	1.910687e+01	5.730670e+01
2.470000e-06	2.787589e-06	8.202178e-10	1.938608e+01	5.811698e+01
2.480000e-06	2.827610e-06	8.304915e-10	1.966441e+01	5.889976e+01
2.490000e-06	2.867491e-06	8.397020e-10	1.994176e+01	5.965581e+01
2.500000e-06	2.907180e-06	8.495172e-10	2.021778e+01	6.038587e+01
2.510000e-06	2.946674e-06	8.590796e-10	2.049243e+01	6.109068e+01
2.520000e-06	2.985963e-06	8.690900e-10	2.076566e+01	6.177091e+01
2.530000e-06	3.025114e-06	8.792672e-10	2.103794e+01	6.242722e+01
2.540000e-06	3.064094e-06	8.888360e-10	2.130902e+01	6.306022e+01
2.550000e-06	3.102900e-06	8.967142e-10	2.157889e+01	6.367046e+01
2.560000e-06	3.141450e-06	9.026257e-10	2.184699e+01	6.425849e+01
2.570000e-06	3.179681e-06	9.099340e-10	2.211286e+01	6.482478e+01
2.580000e-06	3.217672e-06	9.164256e-10	2.237707e+01	6.536978e+01
2.590000e-06	3.255513e-06	9.213064e-10	2.264023e+01	6.589392e+01
2.600000e-06	3.293222e-06	9.267650e-10	2.290248e+01	6.639759e+01
2.610000e-06	3.330681e-06	9.334486e-10	2.316298e+01	6.688115e+01
2.620000e-06	3.367882e-06	9.404887e-10	2.342170e+01	6.734494e+01
2.630000e-06	3.404835e-06	9.469901e-10	2.367868e+01	6.778931e+01
2.640000e-06	3.441489e-06	9.541924e-10	2.393359e+01	6.821459e+01
2.650000e-06	3.477902e-06	9.603013e-10	2.418682e+01	6.862112e+01
2.660000e-06	3.514130e-06	9.647272e-10	2.443876e+01	6.900922e+01
2.670000e-06	3.550171e-06	9.703686e-10	2.468941e+01	6.937925e+01
2.680000e-06	3.586053e-06	9.770355e-10	2.493895e+01	6.973160e+01
2.690000e-06	3.621771e-06	9.831458e-10	2.518735e+01	7.006665e+01
2.700000e-06	3.657333e-06	9.889355e-10	2.543466e+01	7.038484e+01
2.710000e-06	3.692691e-06	9.940971e-10	2.568056e+01	7.068661e+01
2.720000e-06	3.727820e-06	9.990674e-10	2.592485e+01	7.097247e+01
2.730000e-06	3.762684e-06	1.003876e-09	2.616731e+01	7.124295e+01
2.740000e-06	3.797157e-06	1.008095e-09	2.640705e+01	7.149861e+01
2.750000e-06	3.831172e-06	1.011443e-09	2.664361e+01	7.174006e+01
2.760000e-06	3.864746e-06	1.014255e-09	2.687710e+01	7.196793e+01
2.770000e-06	3.897884e-06	1.017390e-09	2.710755e+01	7.218291e+01
2.780000e-06	3.930615e-06	1.021434e-09	2.733518e+01	7.238568e+01
2.790000e-06	3.962941e-06	1.027380e-09	2.755999e+01	7.257698e+01
2.800000e-06	3.994973e-06	1.034403e-09	2.778275e+01	7.275753e+01
2.810000e-06	4.026809e-06	1.040362e-09	2.800416e+01	7.292810e+01
2.820000e-06	4.058491e-06	1.044214e-09	2.822449e+01	7.308944e+01
2.830000e-06	4.090002e-06	1.047739e-09	2.844363e+01	7.324229e+01
2.840000e-06	4.121240e-06	1.049519e-09	2.866087e+01	7.338741e+01
2.850000e-06	4.152225e-06	1.048674e-09	2.887635e+01	7.352549e+01
2.860000e-06	4.182992e-06	1.048514e-09	2.909032e+01	7.365724e+01
2.870000e-06	4.213480e-06	1.050501e-09	2.930234e+01	7.378331e+01
2.880000e-06	4.243640e-06	1.055327e-09	2.951209e+01	7.390429e+01
2.890000e-06	4.273468e-06	1.060513e-09	2.971952e+01	7.402075e+01
2.900000e-06	4.302979e-06	1.063616e-09	2.992476e+01	7.413318e+01
