# Temperatura_=_12.4
# Concentracion g/m^3_=_1620.0
# C_Vs_to_Am_M_A/Vsm_=_65563218390.804596
# pendiente_HvsI_1/m_=_3716.3
# ordenada_HvsI_A/m_=_1297.0
# frecuencia_Hz_=_135097.4366556704

Tiempo_(s)	Campo_(V.s)	Magnetizacion_(V.s)	Campo_(kA/m)	Magnetizacion_(A/m)
0.000000e+00	-5.527201e-06	-1.687173e-09	-3.837438e+01	-1.102370e+02
1.000000e-08	-5.527425e-06	-1.683914e-09	-3.837593e+01	-1.101779e+02
2.000000e-08	-5.527444e-06	-1.682019e-09	-3.837606e+01	-1.101200e+02
3.000000e-08	-5.527165e-06	-1.682470e-09	-3.837412e+01	-1.100638e+02
4.000000e-08	-5.526361e-06	-1.683614e-09	-3.836854e+01	-1.100097e+02
5.000000e-08	-5.524939e-06	-1.681128e-09	-3.835867e+01	-1.099579e+02
6.000000e-08	-5.523031e-06	-1.669732e-09	-3.834542e+01	-1.099088e+02
7.000000e-08	-5.520571e-06	-1.657616e-09	-3.832834e+01	-1.098623e+02
8.000000e-08	-5.517514e-06	-1.676925e-09	-3.830712e+01	-1.098184e+02
9.000000e-08	-5.513979e-06	-1.740825e-09	-3.828258e+01	-1.097772e+02
1.000000e-07	-5.510054e-06	-1.751561e-09	-3.825533e+01	-1.097383e+02
1.100000e-07	-5.505833e-06	-1.686285e-09	-3.822602e+01	-1.097014e+02
1.200000e-07	-5.501328e-06	-1.593633e-09	-3.819474e+01	-1.096662e+02
1.300000e-07	-5.496531e-06	-1.625482e-09	-3.816144e+01	-1.096321e+02
1.400000e-07	-5.491421e-06	-1.696674e-09	-3.812596e+01	-1.095985e+02
1.500000e-07	-5.485981e-06	-1.700605e-09	-3.808819e+01	-1.095647e+02
1.600000e-07	-5.480221e-06	-1.634106e-09	-3.804820e+01	-1.095300e+02
1.700000e-07	-5.473963e-06	-1.640157e-09	-3.800475e+01	-1.094935e+02
1.800000e-07	-5.467148e-06	-1.691841e-09	-3.795743e+01	-1.094545e+02
1.900000e-07	-5.459984e-06	-1.704193e-09	-3.790770e+01	-1.094120e+02
2.000000e-07	-5.452616e-06	-1.637059e-09	-3.785654e+01	-1.093652e+02
2.100000e-07	-5.445037e-06	-1.628841e-09	-3.780392e+01	-1.093132e+02
2.200000e-07	-5.437180e-06	-1.673280e-09	-3.774937e+01	-1.092551e+02
2.300000e-07	-5.428997e-06	-1.698898e-09	-3.769256e+01	-1.091901e+02
2.400000e-07	-5.420374e-06	-1.668874e-09	-3.763269e+01	-1.091175e+02
2.500000e-07	-5.411155e-06	-1.637597e-09	-3.756868e+01	-1.090364e+02
2.600000e-07	-5.401116e-06	-1.647916e-09	-3.749899e+01	-1.089464e+02
2.700000e-07	-5.390328e-06	-1.657749e-09	-3.742409e+01	-1.088467e+02
2.800000e-07	-5.379067e-06	-1.648595e-09	-3.734591e+01	-1.087370e+02
2.900000e-07	-5.367461e-06	-1.625956e-09	-3.726533e+01	-1.086170e+02
3.000000e-07	-5.355536e-06	-1.645815e-09	-3.718253e+01	-1.084862e+02
3.100000e-07	-5.343255e-06	-1.643799e-09	-3.709727e+01	-1.083448e+02
3.200000e-07	-5.330551e-06	-1.632182e-09	-3.700906e+01	-1.081925e+02
3.300000e-07	-5.317363e-06	-1.604113e-09	-3.691750e+01	-1.080295e+02
3.400000e-07	-5.303874e-06	-1.637609e-09	-3.682386e+01	-1.078561e+02
3.500000e-07	-5.290061e-06	-1.637875e-09	-3.672795e+01	-1.076724e+02
3.600000e-07	-5.275751e-06	-1.632092e-09	-3.662860e+01	-1.074790e+02
3.700000e-07	-5.260942e-06	-1.615619e-09	-3.652579e+01	-1.072763e+02
3.800000e-07	-5.245591e-06	-1.626518e-09	-3.641921e+01	-1.070649e+02
3.900000e-07	-5.229687e-06	-1.599004e-09	-3.630878e+01	-1.068455e+02
4.000000e-07	-5.213292e-06	-1.597423e-09	-3.619496e+01	-1.066187e+02
4.100000e-07	-5.196571e-06	-1.615953e-09	-3.607887e+01	-1.063853e+02
4.200000e-07	-5.179498e-06	-1.609799e-09	-3.596034e+01	-1.061462e+02
4.300000e-07	-5.162115e-06	-1.578232e-09	-3.583965e+01	-1.059021e+02
4.400000e-07	-5.144577e-06	-1.597707e-09	-3.571789e+01	-1.056538e+02
4.500000e-07	-5.126683e-06	-1.612867e-09	-3.559365e+01	-1.054021e+02
4.600000e-07	-5.108276e-06	-1.573763e-09	-3.546585e+01	-1.051479e+02
4.700000e-07	-5.089396e-06	-1.555586e-09	-3.533477e+01	-1.048918e+02
4.800000e-07	-5.070132e-06	-1.583051e-09	-3.520103e+01	-1.046346e+02
4.900000e-07	-5.050567e-06	-1.574925e-09	-3.506519e+01	-1.043770e+02
5.000000e-07	-5.030838e-06	-1.548505e-09	-3.492821e+01	-1.041195e+02
5.100000e-07	-5.010999e-06	-1.567986e-09	-3.479048e+01	-1.038626e+02
5.200000e-07	-4.990923e-06	-1.566980e-09	-3.465109e+01	-1.036068e+02
5.300000e-07	-4.970415e-06	-1.535234e-09	-3.450871e+01	-1.033525e+02
5.400000e-07	-4.949483e-06	-1.540935e-09	-3.436338e+01	-1.030999e+02
5.500000e-07	-4.928240e-06	-1.562916e-09	-3.421590e+01	-1.028492e+02
5.600000e-07	-4.906578e-06	-1.529575e-09	-3.406550e+01	-1.026006e+02
5.700000e-07	-4.884553e-06	-1.515553e-09	-3.391258e+01	-1.023540e+02
5.800000e-07	-4.862213e-06	-1.534059e-09	-3.375748e+01	-1.021094e+02
5.900000e-07	-4.839558e-06	-1.528572e-09	-3.360019e+01	-1.018667e+02
6.000000e-07	-4.816554e-06	-1.504445e-09	-3.344048e+01	-1.016256e+02
6.100000e-07	-4.793258e-06	-1.517354e-09	-3.327874e+01	-1.013860e+02
6.200000e-07	-4.769741e-06	-1.514182e-09	-3.311546e+01	-1.011475e+02
6.300000e-07	-4.746019e-06	-1.496829e-09	-3.295077e+01	-1.009096e+02
6.400000e-07	-4.722152e-06	-1.494269e-09	-3.278506e+01	-1.006721e+02
6.500000e-07	-4.697957e-06	-1.501169e-09	-3.261708e+01	-1.004345e+02
6.600000e-07	-4.673236e-06	-1.485957e-09	-3.244545e+01	-1.001964e+02
6.700000e-07	-4.647886e-06	-1.486352e-09	-3.226945e+01	-9.995715e+01
6.800000e-07	-4.621931e-06	-1.488390e-09	-3.208925e+01	-9.971643e+01
6.900000e-07	-4.595448e-06	-1.477615e-09	-3.190537e+01	-9.947371e+01
7.000000e-07	-4.568535e-06	-1.466113e-09	-3.171853e+01	-9.922855e+01
7.100000e-07	-4.541262e-06	-1.472880e-09	-3.152918e+01	-9.898050e+01
7.200000e-07	-4.513766e-06	-1.467300e-09	-3.133827e+01	-9.872914e+01
7.300000e-07	-4.486085e-06	-1.457638e-09	-3.114609e+01	-9.847406e+01
7.400000e-07	-4.458223e-06	-1.455583e-09	-3.095265e+01	-9.821491e+01
7.500000e-07	-4.430227e-06	-1.452724e-09	-3.075828e+01	-9.795137e+01
7.600000e-07	-4.401920e-06	-1.441816e-09	-3.056175e+01	-9.768314e+01
7.700000e-07	-4.373276e-06	-1.437423e-09	-3.036288e+01	-9.740998e+01
7.800000e-07	-4.344297e-06	-1.434150e-09	-3.016168e+01	-9.713167e+01
7.900000e-07	-4.314967e-06	-1.425505e-09	-2.995805e+01	-9.684806e+01
8.000000e-07	-4.285360e-06	-1.423274e-09	-2.975249e+01	-9.655900e+01
8.100000e-07	-4.255534e-06	-1.421806e-09	-2.954541e+01	-9.626442e+01
8.200000e-07	-4.225301e-06	-1.412673e-09	-2.933551e+01	-9.596426e+01
8.300000e-07	-4.194680e-06	-1.402336e-09	-2.912292e+01	-9.565850e+01
8.400000e-07	-4.163890e-06	-1.402989e-09	-2.890915e+01	-9.534714e+01
8.500000e-07	-4.132897e-06	-1.399010e-09	-2.869397e+01	-9.503024e+01
8.600000e-07	-4.101695e-06	-1.391152e-09	-2.847734e+01	-9.470786e+01
8.700000e-07	-4.070231e-06	-1.383245e-09	-2.825889e+01	-9.438008e+01
8.800000e-07	-4.038578e-06	-1.376186e-09	-2.803913e+01	-9.404702e+01
8.900000e-07	-4.006788e-06	-1.362687e-09	-2.781841e+01	-9.370878e+01
9.000000e-07	-3.974795e-06	-1.356524e-09	-2.759630e+01	-9.336552e+01
9.100000e-07	-3.942486e-06	-1.350114e-09	-2.737198e+01	-9.301738e+01
9.200000e-07	-3.909699e-06	-1.343773e-09	-2.714434e+01	-9.266450e+01
9.300000e-07	-3.876596e-06	-1.338035e-09	-2.691452e+01	-9.230705e+01
9.400000e-07	-3.843089e-06	-1.338648e-09	-2.668188e+01	-9.194518e+01
9.500000e-07	-3.809019e-06	-1.331643e-09	-2.644534e+01	-9.157906e+01
9.600000e-07	-3.774531e-06	-1.323844e-09	-2.620589e+01	-9.120884e+01
9.700000e-07	-3.739558e-06	-1.317004e-09	-2.596309e+01	-9.083468e+01
9.800000e-07	-3.704211e-06	-1.308131e-09	-2.571768e+01	-9.045674e+01
9.900000e-07	-3.668687e-06	-1.295062e-09	-2.547104e+01	-9.007517e+01
1.000000e-06	-3.633052e-06	-1.288586e-09	-2.522363e+01	-8.969011e+01
1.010000e-06	-3.597303e-06	-1.283946e-09	-2.497543e+01	-8.930169e+01
1.020000e-06	-3.561380e-06	-1.280052e-09	-2.472603e+01	-8.891004e+01
1.030000e-06	-3.525283e-06	-1.276999e-09	-2.447541e+01	-8.851529e+01
1.040000e-06	-3.489081e-06	-1.275169e-09	-2.422407e+01	-8.811755e+01
1.050000e-06	-3.452622e-06	-1.268231e-09	-2.397094e+01	-8.771691e+01
1.060000e-06	-3.415801e-06	-1.256045e-09	-2.371530e+01	-8.731347e+01
1.070000e-06	-3.378683e-06	-1.247615e-09	-2.345759e+01	-8.690730e+01
1.080000e-06	-3.341296e-06	-1.241891e-09	-2.319803e+01	-8.649846e+01
1.090000e-06	-3.303689e-06	-1.234527e-09	-2.293693e+01	-8.608701e+01
1.100000e-06	-3.265905e-06	-1.228404e-09	-2.267460e+01	-8.567296e+01
1.110000e-06	-3.227961e-06	-1.223857e-09	-2.241116e+01	-8.525633e+01
1.120000e-06	-3.189806e-06	-1.215575e-09	-2.214625e+01	-8.483710e+01
1.130000e-06	-3.151374e-06	-1.207993e-09	-2.187943e+01	-8.441525e+01
1.140000e-06	-3.112724e-06	-1.203056e-09	-2.161109e+01	-8.399072e+01
1.150000e-06	-3.073878e-06	-1.199977e-09	-2.134139e+01	-8.356343e+01
1.160000e-06	-3.034850e-06	-1.193466e-09	-2.107042e+01	-8.313327e+01
1.170000e-06	-2.995661e-06	-1.187068e-09	-2.079834e+01	-8.270009e+01
1.180000e-06	-2.956278e-06	-1.178423e-09	-2.052491e+01	-8.226374e+01
1.190000e-06	-2.916743e-06	-1.171746e-09	-2.025043e+01	-8.182402e+01
1.200000e-06	-2.877079e-06	-1.166612e-09	-1.997504e+01	-8.138070e+01
1.210000e-06	-2.837278e-06	-1.163188e-09	-1.969872e+01	-8.093352e+01
1.220000e-06	-2.797365e-06	-1.157113e-09	-1.942161e+01	-8.048220e+01
1.230000e-06	-2.757371e-06	-1.152532e-09	-1.914394e+01	-8.002643e+01
1.240000e-06	-2.717120e-06	-1.146995e-09	-1.886448e+01	-7.956586e+01
1.250000e-06	-2.676598e-06	-1.139356e-09	-1.858315e+01	-7.910012e+01
1.260000e-06	-2.635825e-06	-1.129828e-09	-1.830006e+01	-7.862882e+01
1.270000e-06	-2.594769e-06	-1.120111e-09	-1.801502e+01	-7.815155e+01
1.280000e-06	-2.553488e-06	-1.110741e-09	-1.772842e+01	-7.766788e+01
1.290000e-06	-2.511947e-06	-1.100914e-09	-1.744000e+01	-7.717737e+01
1.300000e-06	-2.470061e-06	-1.091839e-09	-1.714920e+01	-7.667955e+01
1.310000e-06	-2.427800e-06	-1.084144e-09	-1.685578e+01	-7.617397e+01
1.320000e-06	-2.385280e-06	-1.075744e-09	-1.656058e+01	-7.566016e+01
1.330000e-06	-2.342507e-06	-1.068878e-09	-1.626361e+01	-7.513765e+01
1.340000e-06	-2.299420e-06	-1.060155e-09	-1.596447e+01	-7.460598e+01
1.350000e-06	-2.256118e-06	-1.051781e-09	-1.566383e+01	-7.406470e+01
1.360000e-06	-2.212687e-06	-1.043616e-09	-1.536229e+01	-7.351336e+01
1.370000e-06	-2.169125e-06	-1.035800e-09	-1.505985e+01	-7.295153e+01
1.380000e-06	-2.125462e-06	-1.026376e-09	-1.475671e+01	-7.237880e+01
1.390000e-06	-2.081714e-06	-1.014127e-09	-1.445297e+01	-7.179476e+01
1.400000e-06	-2.037935e-06	-1.001992e-09	-1.414902e+01	-7.119906e+01
1.410000e-06	-1.994132e-06	-9.912922e-10	-1.384490e+01	-7.059132e+01
1.420000e-06	-1.950194e-06	-9.798344e-10	-1.353985e+01	-6.997121e+01
1.430000e-06	-1.906147e-06	-9.671725e-10	-1.323404e+01	-6.933840e+01
1.440000e-06	-1.862041e-06	-9.569912e-10	-1.292782e+01	-6.869259e+01
1.450000e-06	-1.817840e-06	-9.486952e-10	-1.262094e+01	-6.803349e+01
1.460000e-06	-1.773570e-06	-9.394859e-10	-1.231358e+01	-6.736083e+01
1.470000e-06	-1.729144e-06	-9.262319e-10	-1.200514e+01	-6.667431e+01
1.480000e-06	-1.684449e-06	-9.129227e-10	-1.169483e+01	-6.597368e+01
1.490000e-06	-1.639627e-06	-8.978564e-10	-1.138364e+01	-6.525866e+01
1.500000e-06	-1.594651e-06	-8.798113e-10	-1.107138e+01	-6.452895e+01
1.510000e-06	-1.549499e-06	-8.630072e-10	-1.075790e+01	-6.378427e+01
1.520000e-06	-1.504335e-06	-8.527510e-10	-1.044433e+01	-6.302429e+01
1.530000e-06	-1.459081e-06	-8.434667e-10	-1.013014e+01	-6.224866e+01
1.540000e-06	-1.413653e-06	-8.318937e-10	-9.814744e+00	-6.145700e+01
1.550000e-06	-1.368099e-06	-8.174097e-10	-9.498469e+00	-6.064890e+01
1.560000e-06	-1.322520e-06	-8.020703e-10	-9.182018e+00	-5.982389e+01
1.570000e-06	-1.276983e-06	-7.879322e-10	-8.865864e+00	-5.898147e+01
1.580000e-06	-1.231382e-06	-7.751327e-10	-8.549266e+00	-5.812106e+01
1.590000e-06	-1.185706e-06	-7.619787e-10	-8.232144e+00	-5.724206e+01
1.600000e-06	-1.139930e-06	-7.477077e-10	-7.914331e+00	-5.634379e+01
1.610000e-06	-1.093966e-06	-7.330596e-10	-7.595210e+00	-5.542550e+01
1.620000e-06	-1.047851e-06	-7.209702e-10	-7.275042e+00	-5.448642e+01
1.630000e-06	-1.001640e-06	-7.118322e-10	-6.954208e+00	-5.352568e+01
1.640000e-06	-9.553607e-07	-7.012519e-10	-6.632899e+00	-5.254240e+01
1.650000e-06	-9.090447e-07	-6.882732e-10	-6.311335e+00	-5.153560e+01
1.660000e-06	-8.627130e-07	-6.741393e-10	-5.989663e+00	-5.050430e+01
1.670000e-06	-8.163238e-07	-6.573848e-10	-5.667591e+00	-4.944744e+01
1.680000e-06	-7.699102e-07	-6.365521e-10	-5.345349e+00	-4.836398e+01
1.690000e-06	-7.235555e-07	-6.138359e-10	-5.023517e+00	-4.725280e+01
1.700000e-06	-6.770298e-07	-5.904897e-10	-4.700498e+00	-4.611282e+01
1.710000e-06	-6.303274e-07	-5.724403e-10	-4.376251e+00	-4.494292e+01
1.720000e-06	-5.836995e-07	-5.593834e-10	-4.052522e+00	-4.374201e+01
1.730000e-06	-5.370332e-07	-5.449047e-10	-3.728526e+00	-4.250903e+01
1.740000e-06	-4.902595e-07	-5.286137e-10	-3.403785e+00	-4.124294e+01
1.750000e-06	-4.434540e-07	-5.081655e-10	-3.078822e+00	-3.994276e+01
1.760000e-06	-3.966501e-07	-4.838757e-10	-2.753871e+00	-3.860756e+01
1.770000e-06	-3.498128e-07	-4.575999e-10	-2.428688e+00	-3.723651e+01
1.780000e-06	-3.029647e-07	-4.335291e-10	-2.103430e+00	-3.582885e+01
1.790000e-06	-2.560716e-07	-4.133329e-10	-1.777860e+00	-3.438393e+01
1.800000e-06	-2.091212e-07	-3.938458e-10	-1.451892e+00	-3.290120e+01
1.810000e-06	-1.622522e-07	-3.748316e-10	-1.126488e+00	-3.138027e+01
1.820000e-06	-1.154667e-07	-3.559492e-10	-8.016649e-01	-2.982085e+01
1.830000e-06	-6.864831e-08	-3.346173e-10	-4.766130e-01	-2.822281e+01
1.840000e-06	-2.181341e-08	-3.122297e-10	-1.514466e-01	-2.658618e+01
1.850000e-06	2.500801e-08	-2.880073e-10	1.736261e-01	-2.491114e+01
1.860000e-06	7.185888e-08	-2.631844e-10	4.989034e-01	-2.319803e+01
1.870000e-06	1.186984e-07	-2.377849e-10	8.241018e-01	-2.144738e+01
1.880000e-06	1.655482e-07	-2.125056e-10	1.149372e+00	-1.965987e+01
1.890000e-06	2.124043e-07	-1.873393e-10	1.474686e+00	-1.783636e+01
1.900000e-06	2.592416e-07	-1.610541e-10	1.799868e+00	-1.597788e+01
1.910000e-06	3.060254e-07	-1.348469e-10	2.124680e+00	-1.408564e+01
1.920000e-06	3.527724e-07	-1.083144e-10	2.449236e+00	-1.216100e+01
1.930000e-06	3.995577e-07	-8.195953e-11	2.774058e+00	-1.020549e+01
1.940000e-06	4.463210e-07	-5.441048e-11	3.098727e+00	-8.220780e+00
1.950000e-06	4.929809e-07	-2.528003e-11	3.422679e+00	-6.208698e+00
1.960000e-06	5.395665e-07	2.420937e-12	3.746114e+00	-4.171207e+00
1.970000e-06	5.862065e-07	2.938584e-11	4.069928e+00	-2.110391e+00
1.980000e-06	6.328278e-07	5.747608e-11	4.393610e+00	-2.845466e-02
1.990000e-06	6.793010e-07	8.734722e-11	4.716266e+00	2.072297e+00
2.000000e-06	7.256283e-07	1.203698e-10	5.037908e+00	4.189466e+00
2.010000e-06	7.719009e-07	1.530699e-10	5.359170e+00	6.320577e+00
2.020000e-06	8.181751e-07	1.832203e-10	5.680444e+00	8.463088e+00
2.030000e-06	8.643471e-07	2.103738e-10	6.001008e+00	1.061441e+01
2.040000e-06	9.104898e-07	2.362665e-10	6.321369e+00	1.277190e+01
2.050000e-06	9.565856e-07	2.638678e-10	6.641404e+00	1.493292e+01
2.060000e-06	1.002531e-06	2.935649e-10	6.960393e+00	1.709479e+01
2.070000e-06	1.048412e-06	3.246257e-10	7.278936e+00	1.925486e+01
2.080000e-06	1.094317e-06	3.560836e-10	7.597650e+00	2.141047e+01
2.090000e-06	1.140146e-06	3.872237e-10	7.915833e+00	2.355901e+01
2.100000e-06	1.185889e-06	4.186141e-10	8.233416e+00	2.569789e+01
2.110000e-06	1.231599e-06	4.499981e-10	8.550771e+00	2.782460e+01
2.120000e-06	1.277226e-06	4.794751e-10	8.867555e+00	2.993666e+01
2.130000e-06	1.322808e-06	5.067657e-10	9.184020e+00	3.203169e+01
2.140000e-06	1.368299e-06	5.335123e-10	9.499857e+00	3.410739e+01
2.150000e-06	1.413657e-06	5.593259e-10	9.814767e+00	3.616154e+01
2.160000e-06	1.458797e-06	5.870249e-10	1.012817e+01	3.819204e+01
2.170000e-06	1.503878e-06	6.188716e-10	1.044116e+01	4.019687e+01
2.180000e-06	1.548931e-06	6.498597e-10	1.075395e+01	4.217417e+01
2.190000e-06	1.593835e-06	6.785833e-10	1.106571e+01	4.412216e+01
2.200000e-06	1.638598e-06	7.057447e-10	1.137649e+01	4.603922e+01
2.210000e-06	1.683213e-06	7.314622e-10	1.168625e+01	4.792383e+01
2.220000e-06	1.727752e-06	7.570002e-10	1.199548e+01	4.977464e+01
2.230000e-06	1.772165e-06	7.827808e-10	1.230383e+01	5.159041e+01
2.240000e-06	1.816464e-06	8.071933e-10	1.261138e+01	5.337006e+01
2.250000e-06	1.860647e-06	8.293635e-10	1.291814e+01	5.511264e+01
2.260000e-06	1.904695e-06	8.499263e-10	1.322396e+01	5.681735e+01
2.270000e-06	1.948619e-06	8.704223e-10	1.352891e+01	5.848352e+01
2.280000e-06	1.992483e-06	8.920662e-10	1.383345e+01	6.011064e+01
2.290000e-06	2.036340e-06	9.136540e-10	1.413795e+01	6.169832e+01
2.300000e-06	2.080151e-06	9.348761e-10	1.444212e+01	6.324630e+01
2.310000e-06	2.123852e-06	9.558308e-10	1.474553e+01	6.475447e+01
2.320000e-06	2.167420e-06	9.754815e-10	1.504801e+01	6.622283e+01
2.330000e-06	2.210958e-06	9.927740e-10	1.535029e+01	6.765151e+01
2.340000e-06	2.254397e-06	1.009038e-09	1.565188e+01	6.904074e+01
2.350000e-06	2.297667e-06	1.027700e-09	1.595229e+01	7.039086e+01
2.360000e-06	2.340687e-06	1.047605e-09	1.625097e+01	7.170233e+01
2.370000e-06	2.383451e-06	1.066666e-09	1.654788e+01	7.297566e+01
2.380000e-06	2.425985e-06	1.085025e-09	1.684318e+01	7.421148e+01
2.390000e-06	2.468212e-06	1.100572e-09	1.713636e+01	7.541046e+01
2.400000e-06	2.510123e-06	1.113939e-09	1.742733e+01	7.657337e+01
2.410000e-06	2.551668e-06	1.127985e-09	1.771578e+01	7.770099e+01
2.420000e-06	2.592852e-06	1.142619e-09	1.800171e+01	7.879417e+01
2.430000e-06	2.633719e-06	1.154154e-09	1.828544e+01	7.985379e+01
2.440000e-06	2.674370e-06	1.165741e-09	1.856768e+01	8.088075e+01
2.450000e-06	2.714845e-06	1.179234e-09	1.884868e+01	8.187596e+01
2.460000e-06	2.755187e-06	1.192379e-09	1.912877e+01	8.284034e+01
2.470000e-06	2.795359e-06	1.205341e-09	1.940768e+01	8.377481e+01
2.480000e-06	2.835299e-06	1.217749e-09	1.968497e+01	8.468028e+01
2.490000e-06	2.875073e-06	1.230191e-09	1.996112e+01	8.555763e+01
2.500000e-06	2.914734e-06	1.241770e-09	2.023648e+01	8.640772e+01
2.510000e-06	2.954240e-06	1.252174e-09	2.051076e+01	8.723139e+01
2.520000e-06	2.993518e-06	1.262166e-09	2.078346e+01	8.802943e+01
2.530000e-06	3.032702e-06	1.272543e-09	2.105551e+01	8.880261e+01
2.540000e-06	3.071775e-06	1.283807e-09	2.132679e+01	8.955164e+01
2.550000e-06	3.110490e-06	1.294254e-09	2.159558e+01	9.027722e+01
2.560000e-06	3.149002e-06	1.302311e-09	2.186296e+01	9.097997e+01
2.570000e-06	3.187329e-06	1.310156e-09	2.212906e+01	9.166049e+01
2.580000e-06	3.225419e-06	1.318750e-09	2.239351e+01	9.231936e+01
2.590000e-06	3.263292e-06	1.327188e-09	2.265645e+01	9.295708e+01
2.600000e-06	3.300978e-06	1.335125e-09	2.291810e+01	9.357417e+01
2.610000e-06	3.338504e-06	1.343437e-09	2.317864e+01	9.417108e+01
2.620000e-06	3.375726e-06	1.351305e-09	2.343707e+01	9.474826e+01
2.630000e-06	3.412671e-06	1.359179e-09	2.369357e+01	9.530616e+01
2.640000e-06	3.449417e-06	1.367564e-09	2.394869e+01	9.584517e+01
2.650000e-06	3.485877e-06	1.374868e-09	2.420182e+01	9.636574e+01
2.660000e-06	3.522079e-06	1.380480e-09	2.445317e+01	9.686827e+01
2.670000e-06	3.558127e-06	1.385424e-09	2.470344e+01	9.735320e+01
2.680000e-06	3.593997e-06	1.390907e-09	2.495248e+01	9.782096e+01
2.690000e-06	3.629726e-06	1.398688e-09	2.520054e+01	9.827203e+01
2.700000e-06	3.665339e-06	1.408274e-09	2.544779e+01	9.870688e+01
2.710000e-06	3.700815e-06	1.416608e-09	2.569410e+01	9.912603e+01
2.720000e-06	3.736015e-06	1.424616e-09	2.593849e+01	9.953003e+01
2.730000e-06	3.770754e-06	1.432520e-09	2.617968e+01	9.991945e+01
2.740000e-06	3.805120e-06	1.437849e-09	2.641827e+01	1.002949e+02
2.750000e-06	3.839118e-06	1.441222e-09	2.665431e+01	1.006570e+02
2.760000e-06	3.872603e-06	1.443638e-09	2.688679e+01	1.010065e+02
2.770000e-06	3.905666e-06	1.447143e-09	2.711634e+01	1.013440e+02
2.780000e-06	3.938383e-06	1.452715e-09	2.734349e+01	1.016702e+02
2.790000e-06	3.970755e-06	1.460367e-09	2.756825e+01	1.019860e+02
2.800000e-06	4.002812e-06	1.469626e-09	2.779081e+01	1.022920e+02
2.810000e-06	4.034696e-06	1.477204e-09	2.801218e+01	1.025890e+02
2.820000e-06	4.066488e-06	1.483264e-09	2.823290e+01	1.028777e+02
2.830000e-06	4.098106e-06	1.488934e-09	2.845242e+01	1.031590e+02
2.840000e-06	4.129415e-06	1.492831e-09	2.866979e+01	1.034335e+02
2.850000e-06	4.160487e-06	1.492826e-09	2.888552e+01	1.037019e+02
2.860000e-06	4.191380e-06	1.491463e-09	2.910001e+01	1.039650e+02
2.870000e-06	4.221969e-06	1.493357e-09	2.931238e+01	1.042232e+02
2.880000e-06	4.252191e-06	1.499576e-09	2.952220e+01	1.044772e+02
2.890000e-06	4.282054e-06	1.507127e-09	2.972954e+01	1.047274e+02
2.900000e-06	4.311611e-06	1.514250e-09	2.993475e+01	1.049743e+02
