# Temperatura_=_11.3
# Concentracion g/m^3_=_1620.0
# C_Vs_to_Am_M_A/Vsm_=_65563218390.804596
# pendiente_HvsI_1/m_=_3716.3
# ordenada_HvsI_A/m_=_1297.0
# frecuencia_Hz_=_135096.82914989925

Tiempo_(s)	Campo_(V.s)	Magnetizacion_(V.s)	Campo_(kA/m)	Magnetizacion_(A/m)
0.000000e+00	-5.537537e-06	-1.622148e-09	-3.838716e+01	-1.068523e+02
1.000000e-08	-5.537875e-06	-1.616105e-09	-3.838950e+01	-1.068350e+02
2.000000e-08	-5.537998e-06	-1.611386e-09	-3.839035e+01	-1.068198e+02
3.000000e-08	-5.537806e-06	-1.609204e-09	-3.838902e+01	-1.068066e+02
4.000000e-08	-5.537134e-06	-1.609852e-09	-3.838437e+01	-1.067952e+02
5.000000e-08	-5.535822e-06	-1.611565e-09	-3.837527e+01	-1.067854e+02
6.000000e-08	-5.533802e-06	-1.606291e-09	-3.836126e+01	-1.067769e+02
7.000000e-08	-5.531239e-06	-1.595098e-09	-3.834350e+01	-1.067692e+02
8.000000e-08	-5.528258e-06	-1.583715e-09	-3.832283e+01	-1.067620e+02
9.000000e-08	-5.524799e-06	-1.620946e-09	-3.829885e+01	-1.067547e+02
1.000000e-07	-5.520873e-06	-1.695453e-09	-3.827164e+01	-1.067466e+02
1.100000e-07	-5.516584e-06	-1.690788e-09	-3.824191e+01	-1.067372e+02
1.200000e-07	-5.511994e-06	-1.546137e-09	-3.821009e+01	-1.067258e+02
1.300000e-07	-5.507223e-06	-1.499876e-09	-3.817702e+01	-1.067115e+02
1.400000e-07	-5.502206e-06	-1.603428e-09	-3.814223e+01	-1.066937e+02
1.500000e-07	-5.496697e-06	-1.689373e-09	-3.810405e+01	-1.066716e+02
1.600000e-07	-5.490715e-06	-1.582341e-09	-3.806258e+01	-1.066443e+02
1.700000e-07	-5.484466e-06	-1.520072e-09	-3.801926e+01	-1.066112e+02
1.800000e-07	-5.477756e-06	-1.630222e-09	-3.797275e+01	-1.065716e+02
1.900000e-07	-5.470532e-06	-1.713605e-09	-3.792267e+01	-1.065246e+02
2.000000e-07	-5.463098e-06	-1.604915e-09	-3.787113e+01	-1.064696e+02
2.100000e-07	-5.455480e-06	-1.504688e-09	-3.781832e+01	-1.064061e+02
2.200000e-07	-5.447619e-06	-1.569582e-09	-3.776383e+01	-1.063334e+02
2.300000e-07	-5.439465e-06	-1.657078e-09	-3.770731e+01	-1.062512e+02
2.400000e-07	-5.430985e-06	-1.623419e-09	-3.764852e+01	-1.061590e+02
2.500000e-07	-5.421904e-06	-1.550715e-09	-3.758557e+01	-1.060566e+02
2.600000e-07	-5.411937e-06	-1.579765e-09	-3.751647e+01	-1.059436e+02
2.700000e-07	-5.401237e-06	-1.612875e-09	-3.744230e+01	-1.058202e+02
2.800000e-07	-5.390112e-06	-1.586665e-09	-3.736518e+01	-1.056861e+02
2.900000e-07	-5.378664e-06	-1.537505e-09	-3.728583e+01	-1.055416e+02
3.000000e-07	-5.366858e-06	-1.569969e-09	-3.720398e+01	-1.053868e+02
3.100000e-07	-5.354770e-06	-1.588835e-09	-3.712019e+01	-1.052220e+02
3.200000e-07	-5.342196e-06	-1.571629e-09	-3.703302e+01	-1.050476e+02
3.300000e-07	-5.329124e-06	-1.532734e-09	-3.694241e+01	-1.048640e+02
3.400000e-07	-5.315775e-06	-1.571658e-09	-3.684986e+01	-1.046717e+02
3.500000e-07	-5.302011e-06	-1.596197e-09	-3.675445e+01	-1.044714e+02
3.600000e-07	-5.287778e-06	-1.565846e-09	-3.665579e+01	-1.042636e+02
3.700000e-07	-5.273066e-06	-1.528960e-09	-3.655380e+01	-1.040492e+02
3.800000e-07	-5.257893e-06	-1.573481e-09	-3.644862e+01	-1.038288e+02
3.900000e-07	-5.242132e-06	-1.576017e-09	-3.633936e+01	-1.036033e+02
4.000000e-07	-5.225742e-06	-1.526366e-09	-3.622574e+01	-1.033733e+02
4.100000e-07	-5.209017e-06	-1.544468e-09	-3.610980e+01	-1.031396e+02
4.200000e-07	-5.191994e-06	-1.595206e-09	-3.599179e+01	-1.029032e+02
4.300000e-07	-5.174629e-06	-1.539988e-09	-3.587142e+01	-1.026646e+02
4.400000e-07	-5.156971e-06	-1.503792e-09	-3.574901e+01	-1.024246e+02
4.500000e-07	-5.139003e-06	-1.582795e-09	-3.562445e+01	-1.021839e+02
4.600000e-07	-5.120545e-06	-1.577384e-09	-3.549650e+01	-1.019432e+02
4.700000e-07	-5.101581e-06	-1.489375e-09	-3.536504e+01	-1.017031e+02
4.800000e-07	-5.082331e-06	-1.517754e-09	-3.523159e+01	-1.014640e+02
4.900000e-07	-5.062870e-06	-1.576764e-09	-3.509668e+01	-1.012264e+02
5.000000e-07	-5.043246e-06	-1.511455e-09	-3.496065e+01	-1.009908e+02
5.100000e-07	-5.023465e-06	-1.498477e-09	-3.482352e+01	-1.007573e+02
5.200000e-07	-5.003325e-06	-1.552944e-09	-3.468391e+01	-1.005264e+02
5.300000e-07	-4.982761e-06	-1.509467e-09	-3.454136e+01	-1.002982e+02
5.400000e-07	-4.961866e-06	-1.466783e-09	-3.439650e+01	-1.000727e+02
5.500000e-07	-4.940646e-06	-1.541961e-09	-3.424941e+01	-9.985003e+01
5.600000e-07	-4.919072e-06	-1.532484e-09	-3.409985e+01	-9.963012e+01
5.700000e-07	-4.897108e-06	-1.455222e-09	-3.394759e+01	-9.941287e+01
5.800000e-07	-4.874760e-06	-1.487105e-09	-3.379267e+01	-9.919813e+01
5.900000e-07	-4.852110e-06	-1.531298e-09	-3.363566e+01	-9.898568e+01
6.000000e-07	-4.829151e-06	-1.470084e-09	-3.347651e+01	-9.877526e+01
6.100000e-07	-4.805928e-06	-1.464083e-09	-3.331552e+01	-9.856657e+01
6.200000e-07	-4.782531e-06	-1.502493e-09	-3.315333e+01	-9.835927e+01
6.300000e-07	-4.758914e-06	-1.468896e-09	-3.298961e+01	-9.815300e+01
6.400000e-07	-4.735059e-06	-1.441308e-09	-3.282424e+01	-9.794737e+01
6.500000e-07	-4.710908e-06	-1.478592e-09	-3.265683e+01	-9.774197e+01
6.600000e-07	-4.686258e-06	-1.468652e-09	-3.248595e+01	-9.753639e+01
6.700000e-07	-4.660962e-06	-1.445039e-09	-3.231059e+01	-9.733019e+01
6.800000e-07	-4.635044e-06	-1.465870e-09	-3.213092e+01	-9.712298e+01
6.900000e-07	-4.608682e-06	-1.465200e-09	-3.194817e+01	-9.691432e+01
7.000000e-07	-4.581922e-06	-1.435513e-09	-3.176267e+01	-9.670382e+01
7.100000e-07	-4.554743e-06	-1.444393e-09	-3.157426e+01	-9.649108e+01
7.200000e-07	-4.527320e-06	-1.447703e-09	-3.138416e+01	-9.627573e+01
7.300000e-07	-4.499762e-06	-1.424313e-09	-3.119313e+01	-9.605740e+01
7.400000e-07	-4.472040e-06	-1.429841e-09	-3.100095e+01	-9.583576e+01
7.500000e-07	-4.444100e-06	-1.442814e-09	-3.080727e+01	-9.561051e+01
7.600000e-07	-4.415795e-06	-1.427003e-09	-3.061105e+01	-9.538133e+01
7.700000e-07	-4.387162e-06	-1.419181e-09	-3.041256e+01	-9.514797e+01
7.800000e-07	-4.358268e-06	-1.424137e-09	-3.021226e+01	-9.491018e+01
7.900000e-07	-4.328996e-06	-1.404964e-09	-3.000934e+01	-9.466774e+01
8.000000e-07	-4.299445e-06	-1.393042e-09	-2.980449e+01	-9.442046e+01
8.100000e-07	-4.269670e-06	-1.399027e-09	-2.959809e+01	-9.416814e+01
8.200000e-07	-4.239527e-06	-1.388246e-09	-2.938913e+01	-9.391066e+01
8.300000e-07	-4.209085e-06	-1.368780e-09	-2.917810e+01	-9.364786e+01
8.400000e-07	-4.178382e-06	-1.377479e-09	-2.896526e+01	-9.337965e+01
8.500000e-07	-4.147368e-06	-1.381381e-09	-2.875027e+01	-9.310592e+01
8.600000e-07	-4.116094e-06	-1.368217e-09	-2.853347e+01	-9.282662e+01
8.700000e-07	-4.084646e-06	-1.361959e-09	-2.831547e+01	-9.254168e+01
8.800000e-07	-4.053080e-06	-1.361933e-09	-2.809664e+01	-9.225108e+01
8.900000e-07	-4.021395e-06	-1.343843e-09	-2.787700e+01	-9.195481e+01
9.000000e-07	-3.989513e-06	-1.334669e-09	-2.765599e+01	-9.165286e+01
9.100000e-07	-3.957282e-06	-1.338401e-09	-2.743256e+01	-9.134526e+01
9.200000e-07	-3.924551e-06	-1.331617e-09	-2.720566e+01	-9.103205e+01
9.300000e-07	-3.891368e-06	-1.321314e-09	-2.697563e+01	-9.071330e+01
9.400000e-07	-3.857834e-06	-1.329340e-09	-2.674317e+01	-9.038909e+01
9.500000e-07	-3.823791e-06	-1.328454e-09	-2.650718e+01	-9.005951e+01
9.600000e-07	-3.789254e-06	-1.313116e-09	-2.626776e+01	-8.972469e+01
9.700000e-07	-3.754317e-06	-1.307559e-09	-2.602557e+01	-8.938476e+01
9.800000e-07	-3.719100e-06	-1.307297e-09	-2.578144e+01	-8.903988e+01
9.900000e-07	-3.683716e-06	-1.294602e-09	-2.553615e+01	-8.869022e+01
1.000000e-06	-3.648173e-06	-1.285898e-09	-2.528976e+01	-8.833597e+01
1.010000e-06	-3.612532e-06	-1.285822e-09	-2.504269e+01	-8.797734e+01
1.020000e-06	-3.576750e-06	-1.280236e-09	-2.479464e+01	-8.761454e+01
1.030000e-06	-3.540758e-06	-1.271556e-09	-2.454514e+01	-8.724781e+01
1.040000e-06	-3.504516e-06	-1.270705e-09	-2.429391e+01	-8.687738e+01
1.050000e-06	-3.467996e-06	-1.266780e-09	-2.404074e+01	-8.650349e+01
1.060000e-06	-3.431180e-06	-1.254242e-09	-2.378553e+01	-8.612638e+01
1.070000e-06	-3.394130e-06	-1.247936e-09	-2.352869e+01	-8.574631e+01
1.080000e-06	-3.356758e-06	-1.242387e-09	-2.326963e+01	-8.536349e+01
1.090000e-06	-3.319149e-06	-1.232275e-09	-2.300891e+01	-8.497817e+01
1.100000e-06	-3.281463e-06	-1.225332e-09	-2.274767e+01	-8.459055e+01
1.110000e-06	-3.243602e-06	-1.222487e-09	-2.248520e+01	-8.420082e+01
1.120000e-06	-3.205402e-06	-1.210638e-09	-2.222040e+01	-8.380915e+01
1.130000e-06	-3.166913e-06	-1.199166e-09	-2.195359e+01	-8.341569e+01
1.140000e-06	-3.128128e-06	-1.194955e-09	-2.168472e+01	-8.302052e+01
1.150000e-06	-3.089145e-06	-1.192153e-09	-2.141449e+01	-8.262373e+01
1.160000e-06	-3.050149e-06	-1.187751e-09	-2.114416e+01	-8.222535e+01
1.170000e-06	-3.010965e-06	-1.185182e-09	-2.087253e+01	-8.182535e+01
1.180000e-06	-2.971634e-06	-1.176959e-09	-2.059988e+01	-8.142368e+01
1.190000e-06	-2.932183e-06	-1.166345e-09	-2.032640e+01	-8.102022e+01
1.200000e-06	-2.892605e-06	-1.157796e-09	-2.005203e+01	-8.061481e+01
1.210000e-06	-2.852819e-06	-1.150601e-09	-1.977623e+01	-8.020724e+01
1.220000e-06	-2.812863e-06	-1.141235e-09	-1.949925e+01	-7.979725e+01
1.230000e-06	-2.772781e-06	-1.136414e-09	-1.922140e+01	-7.938452e+01
1.240000e-06	-2.732559e-06	-1.135423e-09	-1.894257e+01	-7.896869e+01
1.250000e-06	-2.692136e-06	-1.131454e-09	-1.866235e+01	-7.854936e+01
1.260000e-06	-2.651313e-06	-1.125989e-09	-1.837936e+01	-7.812606e+01
1.270000e-06	-2.610244e-06	-1.121857e-09	-1.809466e+01	-7.769831e+01
1.280000e-06	-2.568969e-06	-1.112473e-09	-1.780853e+01	-7.726559e+01
1.290000e-06	-2.527292e-06	-1.099024e-09	-1.751962e+01	-7.682733e+01
1.300000e-06	-2.485244e-06	-1.087428e-09	-1.722814e+01	-7.638296e+01
1.310000e-06	-2.442873e-06	-1.079513e-09	-1.693442e+01	-7.593188e+01
1.320000e-06	-2.400184e-06	-1.073498e-09	-1.663849e+01	-7.547348e+01
1.330000e-06	-2.357284e-06	-1.068856e-09	-1.634110e+01	-7.500715e+01
1.340000e-06	-2.314138e-06	-1.062933e-09	-1.604201e+01	-7.453226e+01
1.350000e-06	-2.270849e-06	-1.056622e-09	-1.574192e+01	-7.404821e+01
1.360000e-06	-2.227472e-06	-1.051067e-09	-1.544122e+01	-7.355439e+01
1.370000e-06	-2.183982e-06	-1.044380e-09	-1.513974e+01	-7.305023e+01
1.380000e-06	-2.140391e-06	-1.036996e-09	-1.483756e+01	-7.253516e+01
1.390000e-06	-2.096668e-06	-1.026548e-09	-1.453446e+01	-7.200864e+01
1.400000e-06	-2.052876e-06	-1.014903e-09	-1.423089e+01	-7.147017e+01
1.410000e-06	-2.009013e-06	-1.001764e-09	-1.392682e+01	-7.091927e+01
1.420000e-06	-1.965064e-06	-9.888584e-10	-1.362216e+01	-7.035549e+01
1.430000e-06	-1.920969e-06	-9.780670e-10	-1.331649e+01	-6.977843e+01
1.440000e-06	-1.876802e-06	-9.716048e-10	-1.301031e+01	-6.918770e+01
1.450000e-06	-1.832571e-06	-9.644857e-10	-1.270370e+01	-6.858295e+01
1.460000e-06	-1.788172e-06	-9.556227e-10	-1.239591e+01	-6.796387e+01
1.470000e-06	-1.743637e-06	-9.439288e-10	-1.208719e+01	-6.733015e+01
1.480000e-06	-1.698980e-06	-9.303199e-10	-1.177762e+01	-6.668153e+01
1.490000e-06	-1.654179e-06	-9.148335e-10	-1.146705e+01	-6.601774e+01
1.500000e-06	-1.609251e-06	-8.973406e-10	-1.115560e+01	-6.533853e+01
1.510000e-06	-1.564197e-06	-8.817927e-10	-1.084329e+01	-6.464367e+01
1.520000e-06	-1.519025e-06	-8.711175e-10	-1.053014e+01	-6.393289e+01
1.530000e-06	-1.473723e-06	-8.620975e-10	-1.021610e+01	-6.320594e+01
1.540000e-06	-1.428323e-06	-8.529574e-10	-9.901382e+00	-6.246255e+01
1.550000e-06	-1.382857e-06	-8.406682e-10	-9.586204e+00	-6.170242e+01
1.560000e-06	-1.337282e-06	-8.262934e-10	-9.270269e+00	-6.092520e+01
1.570000e-06	-1.291632e-06	-8.127211e-10	-8.953812e+00	-6.013055e+01
1.580000e-06	-1.245900e-06	-7.992160e-10	-8.636795e+00	-5.931804e+01
1.590000e-06	-1.200106e-06	-7.858328e-10	-8.319344e+00	-5.848721e+01
1.600000e-06	-1.154255e-06	-7.738739e-10	-8.001492e+00	-5.763756e+01
1.610000e-06	-1.108276e-06	-7.617972e-10	-7.682757e+00	-5.676850e+01
1.620000e-06	-1.062234e-06	-7.505423e-10	-7.363587e+00	-5.587942e+01
1.630000e-06	-1.016066e-06	-7.417373e-10	-7.043543e+00	-5.496961e+01
1.640000e-06	-9.697361e-07	-7.330635e-10	-6.722377e+00	-5.403834e+01
1.650000e-06	-9.233754e-07	-7.198973e-10	-6.400997e+00	-5.308479e+01
1.660000e-06	-8.769406e-07	-7.028500e-10	-6.079103e+00	-5.210810e+01
1.670000e-06	-8.305487e-07	-6.853010e-10	-5.757506e+00	-5.110736e+01
1.680000e-06	-7.842044e-07	-6.659751e-10	-5.436240e+00	-5.008160e+01
1.690000e-06	-7.377717e-07	-6.476975e-10	-5.114360e+00	-4.902983e+01
1.700000e-06	-6.912086e-07	-6.301543e-10	-4.791576e+00	-4.795100e+01
1.710000e-06	-6.445195e-07	-6.128207e-10	-4.467920e+00	-4.684408e+01
1.720000e-06	-5.978696e-07	-5.970113e-10	-4.144535e+00	-4.570798e+01
1.730000e-06	-5.512208e-07	-5.798679e-10	-3.821158e+00	-4.454165e+01
1.740000e-06	-5.044623e-07	-5.591309e-10	-3.497019e+00	-4.334403e+01
1.750000e-06	-4.576618e-07	-5.380523e-10	-3.172591e+00	-4.211410e+01
1.760000e-06	-4.107474e-07	-5.176717e-10	-2.847372e+00	-4.085084e+01
1.770000e-06	-3.636725e-07	-4.978313e-10	-2.521040e+00	-3.955334e+01
1.780000e-06	-3.166617e-07	-4.786037e-10	-2.195153e+00	-3.822069e+01
1.790000e-06	-2.697670e-07	-4.606124e-10	-1.870071e+00	-3.685211e+01
1.800000e-06	-2.228429e-07	-4.427625e-10	-1.544785e+00	-3.544688e+01
1.810000e-06	-1.758795e-07	-4.237655e-10	-1.219227e+00	-3.400439e+01
1.820000e-06	-1.289074e-07	-4.022474e-10	-8.936080e-01	-3.252416e+01
1.830000e-06	-8.187987e-08	-3.781701e-10	-5.676053e-01	-3.100581e+01
1.840000e-06	-3.489667e-08	-3.548907e-10	-2.419097e-01	-2.944913e+01
1.850000e-06	1.198045e-08	-3.337160e-10	8.305054e-02	-2.785402e+01
1.860000e-06	5.888240e-08	-3.123554e-10	4.081829e-01	-2.622056e+01
1.870000e-06	1.057685e-07	-2.907772e-10	7.332056e-01	-2.454899e+01
1.880000e-06	1.526546e-07	-2.678129e-10	1.058228e+00	-2.283971e+01
1.890000e-06	1.996477e-07	-2.429033e-10	1.383992e+00	-2.109329e+01
1.900000e-06	2.465851e-07	-2.160759e-10	1.709370e+00	-1.931049e+01
1.910000e-06	2.934547e-07	-1.883241e-10	2.034278e+00	-1.749223e+01
1.920000e-06	3.404062e-07	-1.611815e-10	2.359754e+00	-1.563961e+01
1.930000e-06	3.873989e-07	-1.350570e-10	2.685516e+00	-1.375390e+01
1.940000e-06	4.343148e-07	-1.105046e-10	3.010745e+00	-1.183654e+01
1.950000e-06	4.812069e-07	-8.420453e-11	3.335809e+00	-9.889141e+00
1.960000e-06	5.281690e-07	-5.738739e-11	3.661358e+00	-7.913468e+00
1.970000e-06	5.749871e-07	-2.991441e-11	3.985909e+00	-5.911437e+00
1.980000e-06	6.216099e-07	7.457428e-13	4.309107e+00	-3.885107e+00
1.990000e-06	6.681531e-07	3.149705e-11	4.631752e+00	-1.836668e+00
2.000000e-06	7.146387e-07	6.290125e-11	4.953998e+00	2.315676e-01
2.010000e-06	7.610918e-07	9.545501e-11	5.276019e+00	2.317179e+00
2.020000e-06	8.074527e-07	1.253169e-10	5.597401e+00	4.417649e+00
2.030000e-06	8.537138e-07	1.526867e-10	5.918091e+00	6.530377e+00
2.040000e-06	8.999604e-07	1.810885e-10	6.238680e+00	8.652692e+00
2.050000e-06	9.461827e-07	2.109922e-10	6.559101e+00	1.078187e+01
2.060000e-06	9.922837e-07	2.411145e-10	6.878681e+00	1.291515e+01
2.070000e-06	1.038403e-06	2.703262e-10	7.198390e+00	1.504974e+01
2.080000e-06	1.084519e-06	2.987034e-10	7.518075e+00	1.718284e+01
2.090000e-06	1.130483e-06	3.278613e-10	7.836704e+00	1.931166e+01
2.100000e-06	1.176311e-06	3.574882e-10	8.154393e+00	2.143343e+01
2.110000e-06	1.222082e-06	3.882809e-10	8.471684e+00	2.354540e+01
2.120000e-06	1.267760e-06	4.210167e-10	8.788332e+00	2.564489e+01
2.130000e-06	1.313320e-06	4.548738e-10	9.104160e+00	2.772926e+01
2.140000e-06	1.358876e-06	4.849921e-10	9.419960e+00	2.979596e+01
2.150000e-06	1.404322e-06	5.104694e-10	9.735000e+00	3.184253e+01
2.160000e-06	1.449688e-06	5.350333e-10	1.004949e+01	3.386661e+01
2.170000e-06	1.495022e-06	5.591443e-10	1.036375e+01	3.586593e+01
2.180000e-06	1.540121e-06	5.828197e-10	1.067638e+01	3.783836e+01
2.190000e-06	1.585071e-06	6.101402e-10	1.098798e+01	3.978189e+01
2.200000e-06	1.629996e-06	6.412213e-10	1.129941e+01	4.169466e+01
2.210000e-06	1.674820e-06	6.707460e-10	1.161014e+01	4.357495e+01
2.220000e-06	1.719467e-06	6.972948e-10	1.191964e+01	4.542117e+01
2.230000e-06	1.763980e-06	7.229842e-10	1.222821e+01	4.723191e+01
2.240000e-06	1.808362e-06	7.469701e-10	1.253588e+01	4.900591e+01
2.250000e-06	1.852523e-06	7.661563e-10	1.284201e+01	5.074207e+01
2.260000e-06	1.896549e-06	7.841909e-10	1.314720e+01	5.243946e+01
2.270000e-06	1.940520e-06	8.047907e-10	1.345202e+01	5.409730e+01
2.280000e-06	1.984400e-06	8.287201e-10	1.375620e+01	5.571497e+01
2.290000e-06	2.028169e-06	8.561718e-10	1.405961e+01	5.729202e+01
2.300000e-06	2.071865e-06	8.805509e-10	1.436252e+01	5.882816e+01
2.310000e-06	2.115546e-06	9.028668e-10	1.466533e+01	6.032323e+01
2.320000e-06	2.159175e-06	9.216787e-10	1.496777e+01	6.177723e+01
2.330000e-06	2.202693e-06	9.363494e-10	1.526945e+01	6.319031e+01
2.340000e-06	2.246160e-06	9.498438e-10	1.557077e+01	6.456273e+01
2.350000e-06	2.289583e-06	9.656159e-10	1.587179e+01	6.589487e+01
2.360000e-06	2.332864e-06	9.850256e-10	1.617181e+01	6.718726e+01
2.370000e-06	2.375950e-06	1.005131e-09	1.647049e+01	6.844050e+01
2.380000e-06	2.418860e-06	1.023243e-09	1.676795e+01	6.965529e+01
2.390000e-06	2.461589e-06	1.036835e-09	1.706416e+01	7.083243e+01
2.400000e-06	2.504023e-06	1.050673e-09	1.735832e+01	7.197279e+01
2.410000e-06	2.546081e-06	1.064194e-09	1.764987e+01	7.307729e+01
2.420000e-06	2.587823e-06	1.077927e-09	1.793923e+01	7.414690e+01
2.430000e-06	2.629228e-06	1.090482e-09	1.822626e+01	7.518266e+01
2.440000e-06	2.670108e-06	1.103370e-09	1.850965e+01	7.618560e+01
2.450000e-06	2.710614e-06	1.117103e-09	1.879044e+01	7.715680e+01
2.460000e-06	2.750938e-06	1.128016e-09	1.906998e+01	7.809733e+01
2.470000e-06	2.791074e-06	1.137530e-09	1.934821e+01	7.900828e+01
2.480000e-06	2.831050e-06	1.147961e-09	1.962533e+01	7.989070e+01
2.490000e-06	2.870834e-06	1.157835e-09	1.990112e+01	8.074566e+01
2.500000e-06	2.910471e-06	1.168543e-09	2.017589e+01	8.157417e+01
2.510000e-06	2.950015e-06	1.179677e-09	2.045001e+01	8.237725e+01
2.520000e-06	2.989505e-06	1.192598e-09	2.072376e+01	8.315584e+01
2.530000e-06	3.028922e-06	1.204188e-09	2.099701e+01	8.391088e+01
2.540000e-06	3.068102e-06	1.212796e-09	2.126861e+01	8.464324e+01
2.550000e-06	3.106986e-06	1.220844e-09	2.153816e+01	8.535375e+01
2.560000e-06	3.145720e-06	1.229038e-09	2.180667e+01	8.604321e+01
2.570000e-06	3.184248e-06	1.238174e-09	2.207376e+01	8.671236e+01
2.580000e-06	3.222483e-06	1.246900e-09	2.233881e+01	8.736189e+01
2.590000e-06	3.260384e-06	1.255799e-09	2.260154e+01	8.799246e+01
2.600000e-06	3.298007e-06	1.264600e-09	2.286235e+01	8.860466e+01
2.610000e-06	3.335470e-06	1.274036e-09	2.312205e+01	8.919908e+01
2.620000e-06	3.372821e-06	1.284386e-09	2.338098e+01	8.977625e+01
2.630000e-06	3.410034e-06	1.294129e-09	2.363894e+01	9.033667e+01
2.640000e-06	3.446956e-06	1.303217e-09	2.389489e+01	9.088081e+01
2.650000e-06	3.483485e-06	1.310912e-09	2.414812e+01	9.140914e+01
2.660000e-06	3.519734e-06	1.316082e-09	2.439940e+01	9.192208e+01
2.670000e-06	3.555772e-06	1.320977e-09	2.464922e+01	9.242006e+01
2.680000e-06	3.591557e-06	1.326229e-09	2.489729e+01	9.290350e+01
2.690000e-06	3.627216e-06	1.331484e-09	2.514448e+01	9.337280e+01
2.700000e-06	3.662818e-06	1.337546e-09	2.539128e+01	9.382838e+01
2.710000e-06	3.698340e-06	1.346541e-09	2.563753e+01	9.427064e+01
2.720000e-06	3.733661e-06	1.355999e-09	2.588238e+01	9.470000e+01
2.730000e-06	3.768722e-06	1.365384e-09	2.612543e+01	9.511689e+01
2.740000e-06	3.803488e-06	1.374249e-09	2.636643e+01	9.552174e+01
2.750000e-06	3.837899e-06	1.380582e-09	2.660497e+01	9.591499e+01
2.760000e-06	3.871885e-06	1.382682e-09	2.684057e+01	9.629709e+01
2.770000e-06	3.905365e-06	1.383581e-09	2.707266e+01	9.666851e+01
2.780000e-06	3.938345e-06	1.386488e-09	2.730129e+01	9.702972e+01
2.790000e-06	3.970857e-06	1.391676e-09	2.752667e+01	9.738117e+01
2.800000e-06	4.002985e-06	1.400685e-09	2.774938e+01	9.772334e+01
2.810000e-06	4.034872e-06	1.411880e-09	2.797043e+01	9.805672e+01
2.820000e-06	4.066580e-06	1.421567e-09	2.819023e+01	9.838175e+01
2.830000e-06	4.098146e-06	1.428931e-09	2.840906e+01	9.869889e+01
2.840000e-06	4.129598e-06	1.432895e-09	2.862708e+01	9.900859e+01
2.850000e-06	4.160830e-06	1.433073e-09	2.884359e+01	9.931126e+01
2.860000e-06	4.191734e-06	1.431262e-09	2.905782e+01	9.960731e+01
2.870000e-06	4.222303e-06	1.432681e-09	2.926973e+01	9.989710e+01
2.880000e-06	4.252563e-06	1.439023e-09	2.947950e+01	1.001810e+02
2.890000e-06	4.282492e-06	1.445885e-09	2.968697e+01	1.004592e+02
2.900000e-06	4.312118e-06	1.453228e-09	2.989234e+01	1.007321e+02
