# Temperatura_=_5.1
# Concentracion g/m^3_=_1620.0
# C_Vs_to_Am_M_A/Vsm_=_65563218390.804596
# pendiente_HvsI_1/m_=_3716.3
# ordenada_HvsI_A/m_=_1297.0
# frecuencia_Hz_=_135099.14324766328

Tiempo_(s)	Campo_(V.s)	Magnetizacion_(V.s)	Campo_(kA/m)	Magnetizacion_(A/m)
0.000000e+00	-5.531531e-06	-1.472894e-09	-3.836856e+01	-9.600278e+01
1.000000e-08	-5.531711e-06	-1.468617e-09	-3.836981e+01	-9.593759e+01
2.000000e-08	-5.531639e-06	-1.466642e-09	-3.836931e+01	-9.587653e+01
3.000000e-08	-5.531273e-06	-1.468701e-09	-3.836677e+01	-9.582011e+01
4.000000e-08	-5.530505e-06	-1.470335e-09	-3.836144e+01	-9.576881e+01
5.000000e-08	-5.529287e-06	-1.469302e-09	-3.835300e+01	-9.572301e+01
6.000000e-08	-5.527509e-06	-1.461513e-09	-3.834066e+01	-9.568299e+01
7.000000e-08	-5.525069e-06	-1.459402e-09	-3.832374e+01	-9.564895e+01
8.000000e-08	-5.522074e-06	-1.480499e-09	-3.830296e+01	-9.562098e+01
9.000000e-08	-5.518651e-06	-1.497509e-09	-3.827922e+01	-9.559904e+01
1.000000e-07	-5.514795e-06	-1.459731e-09	-3.825247e+01	-9.558299e+01
1.100000e-07	-5.510489e-06	-1.460750e-09	-3.822261e+01	-9.557255e+01
1.200000e-07	-5.505907e-06	-1.455981e-09	-3.819082e+01	-9.556735e+01
1.300000e-07	-5.501101e-06	-1.461829e-09	-3.815749e+01	-9.556688e+01
1.400000e-07	-5.495937e-06	-1.425401e-09	-3.812167e+01	-9.557053e+01
1.500000e-07	-5.490451e-06	-1.450671e-09	-3.808362e+01	-9.557759e+01
1.600000e-07	-5.484498e-06	-1.479997e-09	-3.804232e+01	-9.558726e+01
1.700000e-07	-5.478110e-06	-1.472550e-09	-3.799801e+01	-9.559864e+01
1.800000e-07	-5.471417e-06	-1.419302e-09	-3.795159e+01	-9.561078e+01
1.900000e-07	-5.464341e-06	-1.424677e-09	-3.790251e+01	-9.562268e+01
2.000000e-07	-5.456905e-06	-1.457574e-09	-3.785093e+01	-9.563329e+01
2.100000e-07	-5.449188e-06	-1.482175e-09	-3.779740e+01	-9.564155e+01
2.200000e-07	-5.441220e-06	-1.481192e-09	-3.774213e+01	-9.564638e+01
2.300000e-07	-5.432952e-06	-1.480470e-09	-3.768478e+01	-9.564675e+01
2.400000e-07	-5.424226e-06	-1.487628e-09	-3.762426e+01	-9.564163e+01
2.500000e-07	-5.414943e-06	-1.461733e-09	-3.755987e+01	-9.563006e+01
2.600000e-07	-5.405129e-06	-1.455682e-09	-3.749179e+01	-9.561113e+01
2.700000e-07	-5.394698e-06	-1.449080e-09	-3.741944e+01	-9.558404e+01
2.800000e-07	-5.383670e-06	-1.476934e-09	-3.734295e+01	-9.554804e+01
2.900000e-07	-5.372253e-06	-1.472306e-09	-3.726375e+01	-9.550253e+01
3.000000e-07	-5.360476e-06	-1.471002e-09	-3.718206e+01	-9.544700e+01
3.100000e-07	-5.348252e-06	-1.445632e-09	-3.709728e+01	-9.538108e+01
3.200000e-07	-5.335645e-06	-1.464897e-09	-3.700983e+01	-9.530453e+01
3.300000e-07	-5.322593e-06	-1.451145e-09	-3.691929e+01	-9.521722e+01
3.400000e-07	-5.309121e-06	-1.445427e-09	-3.682585e+01	-9.511917e+01
3.500000e-07	-5.295292e-06	-1.427417e-09	-3.672993e+01	-9.501054e+01
3.600000e-07	-5.281107e-06	-1.469110e-09	-3.663153e+01	-9.489160e+01
3.700000e-07	-5.266555e-06	-1.459345e-09	-3.653059e+01	-9.476275e+01
3.800000e-07	-5.251355e-06	-1.435868e-09	-3.642516e+01	-9.462449e+01
3.900000e-07	-5.235482e-06	-1.428197e-09	-3.631506e+01	-9.447743e+01
4.000000e-07	-5.219242e-06	-1.447653e-09	-3.620242e+01	-9.432225e+01
4.100000e-07	-5.202602e-06	-1.415064e-09	-3.608700e+01	-9.415972e+01
4.200000e-07	-5.185543e-06	-1.412075e-09	-3.596867e+01	-9.399066e+01
4.300000e-07	-5.168278e-06	-1.455659e-09	-3.584892e+01	-9.381593e+01
4.400000e-07	-5.150757e-06	-1.441304e-09	-3.572738e+01	-9.363641e+01
4.500000e-07	-5.132780e-06	-1.398174e-09	-3.560269e+01	-9.345301e+01
4.600000e-07	-5.114352e-06	-1.420590e-09	-3.547486e+01	-9.326659e+01
4.700000e-07	-5.095510e-06	-1.441718e-09	-3.534417e+01	-9.307802e+01
4.800000e-07	-5.076261e-06	-1.386681e-09	-3.521065e+01	-9.288812e+01
4.900000e-07	-5.056717e-06	-1.392998e-09	-3.507509e+01	-9.269764e+01
5.000000e-07	-5.037008e-06	-1.436888e-09	-3.493838e+01	-9.250728e+01
5.100000e-07	-5.017105e-06	-1.411953e-09	-3.480033e+01	-9.231766e+01
5.200000e-07	-4.996864e-06	-1.377782e-09	-3.465993e+01	-9.212930e+01
5.300000e-07	-4.976268e-06	-1.431102e-09	-3.451707e+01	-9.194264e+01
5.400000e-07	-4.955370e-06	-1.420777e-09	-3.437211e+01	-9.175801e+01
5.500000e-07	-4.934137e-06	-1.369177e-09	-3.422483e+01	-9.157564e+01
5.600000e-07	-4.912585e-06	-1.388562e-09	-3.407534e+01	-9.139566e+01
5.700000e-07	-4.890728e-06	-1.424997e-09	-3.392373e+01	-9.121810e+01
5.800000e-07	-4.868503e-06	-1.373198e-09	-3.376957e+01	-9.104288e+01
5.900000e-07	-4.845865e-06	-1.369568e-09	-3.361255e+01	-9.086985e+01
6.000000e-07	-4.822898e-06	-1.403513e-09	-3.345324e+01	-9.069874e+01
6.100000e-07	-4.799648e-06	-1.383481e-09	-3.329198e+01	-9.052923e+01
6.200000e-07	-4.776088e-06	-1.353635e-09	-3.312855e+01	-9.036094e+01
6.300000e-07	-4.752313e-06	-1.390995e-09	-3.296364e+01	-9.019340e+01
6.400000e-07	-4.728298e-06	-1.390366e-09	-3.279706e+01	-9.002614e+01
6.500000e-07	-4.703942e-06	-1.361429e-09	-3.262812e+01	-8.985862e+01
6.600000e-07	-4.679209e-06	-1.370664e-09	-3.245657e+01	-8.969031e+01
6.700000e-07	-4.654009e-06	-1.383266e-09	-3.228177e+01	-8.952066e+01
6.800000e-07	-4.628299e-06	-1.354524e-09	-3.210344e+01	-8.934911e+01
6.900000e-07	-4.602021e-06	-1.350039e-09	-3.192117e+01	-8.917516e+01
7.000000e-07	-4.575206e-06	-1.362791e-09	-3.173517e+01	-8.899830e+01
7.100000e-07	-4.547956e-06	-1.350779e-09	-3.154616e+01	-8.881808e+01
7.200000e-07	-4.520387e-06	-1.339481e-09	-3.135493e+01	-8.863407e+01
7.300000e-07	-4.492669e-06	-1.352803e-09	-3.116266e+01	-8.844591e+01
7.400000e-07	-4.464787e-06	-1.348865e-09	-3.096926e+01	-8.825331e+01
7.500000e-07	-4.436753e-06	-1.326031e-09	-3.077481e+01	-8.805600e+01
7.600000e-07	-4.408489e-06	-1.321067e-09	-3.057876e+01	-8.785381e+01
7.700000e-07	-4.379845e-06	-1.319216e-09	-3.038008e+01	-8.764662e+01
7.800000e-07	-4.350858e-06	-1.311508e-09	-3.017901e+01	-8.743436e+01
7.900000e-07	-4.321566e-06	-1.310985e-09	-2.997583e+01	-8.721703e+01
8.000000e-07	-4.291958e-06	-1.318684e-09	-2.977047e+01	-8.699467e+01
8.100000e-07	-4.262106e-06	-1.309544e-09	-2.956340e+01	-8.676739e+01
8.200000e-07	-4.231926e-06	-1.301577e-09	-2.935406e+01	-8.653533e+01
8.300000e-07	-4.201353e-06	-1.294911e-09	-2.914200e+01	-8.629864e+01
8.400000e-07	-4.170413e-06	-1.287345e-09	-2.892739e+01	-8.605754e+01
8.500000e-07	-4.139205e-06	-1.277485e-09	-2.871092e+01	-8.581224e+01
8.600000e-07	-4.107868e-06	-1.280264e-09	-2.849356e+01	-8.556296e+01
8.700000e-07	-4.076336e-06	-1.272460e-09	-2.827484e+01	-8.530993e+01
8.800000e-07	-4.044620e-06	-1.263462e-09	-2.805485e+01	-8.505337e+01
8.900000e-07	-4.012809e-06	-1.257179e-09	-2.783419e+01	-8.479348e+01
9.000000e-07	-3.980789e-06	-1.252396e-09	-2.761209e+01	-8.453045e+01
9.100000e-07	-3.948436e-06	-1.240714e-09	-2.738768e+01	-8.426443e+01
9.200000e-07	-3.915832e-06	-1.240260e-09	-2.716153e+01	-8.399556e+01
9.300000e-07	-3.882917e-06	-1.238961e-09	-2.693322e+01	-8.372391e+01
9.400000e-07	-3.849415e-06	-1.230901e-09	-2.670084e+01	-8.344954e+01
9.500000e-07	-3.815405e-06	-1.222782e-09	-2.646493e+01	-8.317247e+01
9.600000e-07	-3.781005e-06	-1.222037e-09	-2.622632e+01	-8.289267e+01
9.700000e-07	-3.746129e-06	-1.211353e-09	-2.598441e+01	-8.261008e+01
9.800000e-07	-3.710910e-06	-1.199746e-09	-2.574012e+01	-8.232461e+01
9.900000e-07	-3.675471e-06	-1.195697e-09	-2.549430e+01	-8.203613e+01
1.000000e-06	-3.639805e-06	-1.190886e-09	-2.524691e+01	-8.174448e+01
1.010000e-06	-3.603994e-06	-1.181417e-09	-2.499851e+01	-8.144948e+01
1.020000e-06	-3.568117e-06	-1.180294e-09	-2.474966e+01	-8.115095e+01
1.030000e-06	-3.532109e-06	-1.182755e-09	-2.449990e+01	-8.084868e+01
1.040000e-06	-3.495906e-06	-1.176664e-09	-2.424878e+01	-8.054247e+01
1.050000e-06	-3.459472e-06	-1.170228e-09	-2.399606e+01	-8.023211e+01
1.060000e-06	-3.422661e-06	-1.164365e-09	-2.374073e+01	-7.991741e+01
1.070000e-06	-3.385544e-06	-1.155916e-09	-2.348327e+01	-7.959818e+01
1.080000e-06	-3.348206e-06	-1.147914e-09	-2.322428e+01	-7.927427e+01
1.090000e-06	-3.310658e-06	-1.147813e-09	-2.296384e+01	-7.894555e+01
1.100000e-06	-3.272904e-06	-1.144632e-09	-2.270196e+01	-7.861190e+01
1.110000e-06	-3.234945e-06	-1.139277e-09	-2.243867e+01	-7.827324e+01
1.120000e-06	-3.196781e-06	-1.135584e-09	-2.217395e+01	-7.792954e+01
1.130000e-06	-3.158408e-06	-1.130915e-09	-2.190778e+01	-7.758077e+01
1.140000e-06	-3.119831e-06	-1.118475e-09	-2.164020e+01	-7.722696e+01
1.150000e-06	-3.080973e-06	-1.112602e-09	-2.137066e+01	-7.686816e+01
1.160000e-06	-3.041854e-06	-1.110087e-09	-2.109932e+01	-7.650444e+01
1.170000e-06	-3.002520e-06	-1.104263e-09	-2.082649e+01	-7.613590e+01
1.180000e-06	-2.963037e-06	-1.094603e-09	-2.055262e+01	-7.576267e+01
1.190000e-06	-2.923427e-06	-1.090985e-09	-2.027787e+01	-7.538486e+01
1.200000e-06	-2.883709e-06	-1.085556e-09	-2.000238e+01	-7.500263e+01
1.210000e-06	-2.843923e-06	-1.079767e-09	-1.972641e+01	-7.461610e+01
1.220000e-06	-2.803976e-06	-1.076427e-09	-1.944932e+01	-7.422540e+01
1.230000e-06	-2.763865e-06	-1.075813e-09	-1.917110e+01	-7.383066e+01
1.240000e-06	-2.723614e-06	-1.072166e-09	-1.889190e+01	-7.343197e+01
1.250000e-06	-2.683173e-06	-1.067915e-09	-1.861139e+01	-7.302938e+01
1.260000e-06	-2.642525e-06	-1.061620e-09	-1.832945e+01	-7.262295e+01
1.270000e-06	-2.601621e-06	-1.052008e-09	-1.804572e+01	-7.221264e+01
1.280000e-06	-2.560432e-06	-1.041594e-09	-1.776002e+01	-7.179843e+01
1.290000e-06	-2.518987e-06	-1.033382e-09	-1.747254e+01	-7.138020e+01
1.300000e-06	-2.477238e-06	-1.026255e-09	-1.718296e+01	-7.095780e+01
1.310000e-06	-2.435135e-06	-1.019385e-09	-1.689092e+01	-7.053103e+01
1.320000e-06	-2.392691e-06	-1.014532e-09	-1.659651e+01	-7.009964e+01
1.330000e-06	-2.349913e-06	-1.010496e-09	-1.629979e+01	-6.966330e+01
1.340000e-06	-2.306848e-06	-1.003056e-09	-1.600107e+01	-6.922166e+01
1.350000e-06	-2.263540e-06	-9.949922e-10	-1.570068e+01	-6.877432e+01
1.360000e-06	-2.220048e-06	-9.894291e-10	-1.539900e+01	-6.832081e+01
1.370000e-06	-2.176493e-06	-9.826574e-10	-1.509689e+01	-6.786065e+01
1.380000e-06	-2.132789e-06	-9.740340e-10	-1.479374e+01	-6.739331e+01
1.390000e-06	-2.088935e-06	-9.650570e-10	-1.448955e+01	-6.691824e+01
1.400000e-06	-2.045084e-06	-9.567513e-10	-1.418539e+01	-6.643487e+01
1.410000e-06	-2.001164e-06	-9.468535e-10	-1.388075e+01	-6.594261e+01
1.420000e-06	-1.957144e-06	-9.367949e-10	-1.357541e+01	-6.544088e+01
1.430000e-06	-1.913033e-06	-9.275233e-10	-1.326944e+01	-6.492908e+01
1.440000e-06	-1.868845e-06	-9.196171e-10	-1.296294e+01	-6.440664e+01
1.450000e-06	-1.824531e-06	-9.098023e-10	-1.265556e+01	-6.387298e+01
1.460000e-06	-1.780157e-06	-8.999223e-10	-1.234777e+01	-6.332755e+01
1.470000e-06	-1.735684e-06	-8.878027e-10	-1.203928e+01	-6.276983e+01
1.480000e-06	-1.691066e-06	-8.747315e-10	-1.172980e+01	-6.219932e+01
1.490000e-06	-1.646369e-06	-8.612680e-10	-1.141977e+01	-6.161554e+01
1.500000e-06	-1.601493e-06	-8.473110e-10	-1.110850e+01	-6.101805e+01
1.510000e-06	-1.556444e-06	-8.346201e-10	-1.079602e+01	-6.040644e+01
1.520000e-06	-1.511268e-06	-8.262592e-10	-1.048266e+01	-5.978030e+01
1.530000e-06	-1.466027e-06	-8.179888e-10	-1.016886e+01	-5.913927e+01
1.540000e-06	-1.420705e-06	-8.081597e-10	-9.854489e+00	-5.848301e+01
1.550000e-06	-1.375209e-06	-7.940615e-10	-9.538914e+00	-5.781116e+01
1.560000e-06	-1.329625e-06	-7.789228e-10	-9.222728e+00	-5.712341e+01
1.570000e-06	-1.284001e-06	-7.635853e-10	-8.906261e+00	-5.641942e+01
1.580000e-06	-1.238287e-06	-7.488892e-10	-8.589174e+00	-5.569884e+01
1.590000e-06	-1.192438e-06	-7.344774e-10	-8.271154e+00	-5.496131e+01
1.600000e-06	-1.146453e-06	-7.217529e-10	-7.952185e+00	-5.420644e+01
1.610000e-06	-1.100377e-06	-7.125348e-10	-7.632587e+00	-5.343381e+01
1.620000e-06	-1.054185e-06	-7.055644e-10	-7.312181e+00	-5.264294e+01
1.630000e-06	-1.007990e-06	-6.981381e-10	-6.991758e+00	-5.183331e+01
1.640000e-06	-9.616840e-07	-6.897249e-10	-6.670564e+00	-5.100434e+01
1.650000e-06	-9.152531e-07	-6.756842e-10	-6.348503e+00	-5.015538e+01
1.660000e-06	-8.688080e-07	-6.538291e-10	-6.026344e+00	-4.928571e+01
1.670000e-06	-8.223577e-07	-6.310841e-10	-5.704149e+00	-4.839456e+01
1.680000e-06	-7.759528e-07	-6.111081e-10	-5.382270e+00	-4.748105e+01
1.690000e-06	-7.294873e-07	-5.958490e-10	-5.059969e+00	-4.654425e+01
1.700000e-06	-6.829671e-07	-5.825955e-10	-4.737289e+00	-4.558317e+01
1.710000e-06	-6.364131e-07	-5.704880e-10	-4.414375e+00	-4.459672e+01
1.720000e-06	-5.897425e-07	-5.598998e-10	-4.090652e+00	-4.358380e+01
1.730000e-06	-5.429488e-07	-5.461087e-10	-3.766075e+00	-4.254321e+01
1.740000e-06	-4.961131e-07	-5.263769e-10	-3.441207e+00	-4.147375e+01
1.750000e-06	-4.492117e-07	-5.054176e-10	-3.115883e+00	-4.037419e+01
1.760000e-06	-4.022569e-07	-4.848144e-10	-2.790189e+00	-3.924328e+01
1.770000e-06	-3.552948e-07	-4.649797e-10	-2.464444e+00	-3.807978e+01
1.780000e-06	-3.083794e-07	-4.464990e-10	-2.139023e+00	-3.688247e+01
1.790000e-06	-2.615565e-07	-4.302029e-10	-1.814244e+00	-3.565019e+01
1.800000e-06	-2.146463e-07	-4.159881e-10	-1.488859e+00	-3.438182e+01
1.810000e-06	-1.676350e-07	-4.022448e-10	-1.162773e+00	-3.307633e+01
1.820000e-06	-1.206574e-07	-3.850847e-10	-8.369205e-01	-3.173281e+01
1.830000e-06	-7.364928e-08	-3.640046e-10	-5.108562e-01	-3.035045e+01
1.840000e-06	-2.664962e-08	-3.403389e-10	-1.848507e-01	-2.892858e+01
1.850000e-06	2.038519e-08	-3.172683e-10	1.413985e-01	-2.746671e+01
1.860000e-06	6.737712e-08	-2.966369e-10	4.673504e-01	-2.596450e+01
1.870000e-06	1.142906e-07	-2.774458e-10	7.927583e-01	-2.442182e+01
1.880000e-06	1.612696e-07	-2.580737e-10	1.118620e+00	-2.283873e+01
1.890000e-06	2.082078e-07	-2.381737e-10	1.444199e+00	-2.121552e+01
1.900000e-06	2.550890e-07	-2.152514e-10	1.769383e+00	-1.955270e+01
1.910000e-06	3.019442e-07	-1.888838e-10	2.094386e+00	-1.785100e+01
1.920000e-06	3.487888e-07	-1.623536e-10	2.419317e+00	-1.611139e+01
1.930000e-06	3.955758e-07	-1.375395e-10	2.743847e+00	-1.433509e+01
1.940000e-06	4.422767e-07	-1.133531e-10	3.067780e+00	-1.252352e+01
1.950000e-06	4.889642e-07	-8.959441e-11	3.391620e+00	-1.067836e+01
1.960000e-06	5.356077e-07	-6.727344e-11	3.715155e+00	-8.801478e+00
1.970000e-06	5.822264e-07	-4.456501e-11	4.038518e+00	-6.894981e+00
1.980000e-06	6.287746e-07	-1.912482e-11	4.361392e+00	-4.961154e+00
1.990000e-06	6.752159e-07	9.020741e-12	4.683524e+00	-3.002466e+00
2.000000e-06	7.216340e-07	3.985224e-11	5.005496e+00	-1.021548e+00
2.010000e-06	7.681298e-07	7.043865e-11	5.328007e+00	9.788252e-01
2.020000e-06	8.146097e-07	9.772200e-11	5.650407e+00	2.995759e+00
2.030000e-06	8.609647e-07	1.231630e-10	5.971940e+00	5.026257e+00
2.040000e-06	9.072385e-07	1.497034e-10	6.292911e+00	7.067250e+00
2.050000e-06	9.534828e-07	1.777383e-10	6.613677e+00	9.115615e+00
2.060000e-06	9.996427e-07	2.054243e-10	6.933858e+00	1.116820e+01
2.070000e-06	1.045683e-06	2.354552e-10	7.253206e+00	1.322186e+01
2.080000e-06	1.091680e-06	2.675795e-10	7.572258e+00	1.527345e+01
2.090000e-06	1.137675e-06	2.997524e-10	7.891296e+00	1.731989e+01
2.100000e-06	1.183602e-06	3.312827e-10	8.209860e+00	1.935815e+01
2.110000e-06	1.229410e-06	3.604204e-10	8.527604e+00	2.138531e+01
2.120000e-06	1.275119e-06	3.868923e-10	8.844651e+00	2.339852e+01
2.130000e-06	1.320700e-06	4.121536e-10	9.160820e+00	2.539508e+01
2.140000e-06	1.366189e-06	4.366260e-10	9.476345e+00	2.737242e+01
2.150000e-06	1.411625e-06	4.606799e-10	9.791507e+00	2.932813e+01
2.160000e-06	1.457016e-06	4.862956e-10	1.010635e+01	3.125996e+01
2.170000e-06	1.502230e-06	5.144764e-10	1.041998e+01	3.316581e+01
2.180000e-06	1.547250e-06	5.429205e-10	1.073225e+01	3.504380e+01
2.190000e-06	1.592102e-06	5.703471e-10	1.104336e+01	3.689220e+01
2.200000e-06	1.636791e-06	5.979486e-10	1.135333e+01	3.870948e+01
2.210000e-06	1.681431e-06	6.250980e-10	1.166297e+01	4.049429e+01
2.220000e-06	1.726004e-06	6.484746e-10	1.197214e+01	4.224548e+01
2.230000e-06	1.770435e-06	6.698903e-10	1.228033e+01	4.396205e+01
2.240000e-06	1.814766e-06	6.909066e-10	1.258783e+01	4.564321e+01
2.250000e-06	1.858971e-06	7.113823e-10	1.289445e+01	4.728832e+01
2.260000e-06	1.903042e-06	7.326859e-10	1.320014e+01	4.889688e+01
2.270000e-06	1.947035e-06	7.555113e-10	1.350529e+01	5.046858e+01
2.280000e-06	1.990952e-06	7.785881e-10	1.380991e+01	5.200322e+01
2.290000e-06	2.034809e-06	7.993927e-10	1.411412e+01	5.350074e+01
2.300000e-06	2.078661e-06	8.180310e-10	1.441829e+01	5.496120e+01
2.310000e-06	2.122503e-06	8.369534e-10	1.472240e+01	5.638476e+01
2.320000e-06	2.166204e-06	8.557105e-10	1.502552e+01	5.777168e+01
2.330000e-06	2.209764e-06	8.731602e-10	1.532767e+01	5.912228e+01
2.340000e-06	2.253270e-06	8.903214e-10	1.562944e+01	6.043699e+01
2.350000e-06	2.296538e-06	9.078803e-10	1.592956e+01	6.171626e+01
2.360000e-06	2.339541e-06	9.263675e-10	1.622785e+01	6.296063e+01
2.370000e-06	2.382344e-06	9.447114e-10	1.652474e+01	6.417063e+01
2.380000e-06	2.424809e-06	9.618787e-10	1.681929e+01	6.534686e+01
2.390000e-06	2.466972e-06	9.770131e-10	1.711175e+01	6.648993e+01
2.400000e-06	2.508835e-06	9.914826e-10	1.740212e+01	6.760047e+01
2.410000e-06	2.550318e-06	1.006233e-09	1.768987e+01	6.867911e+01
2.420000e-06	2.591522e-06	1.020440e-09	1.797567e+01	6.972647e+01
2.430000e-06	2.632504e-06	1.032077e-09	1.825993e+01	7.074321e+01
2.440000e-06	2.673174e-06	1.042014e-09	1.854203e+01	7.172994e+01
2.450000e-06	2.713620e-06	1.052550e-09	1.882258e+01	7.268729e+01
2.460000e-06	2.753868e-06	1.064414e-09	1.910175e+01	7.361585e+01
2.470000e-06	2.793982e-06	1.078015e-09	1.938000e+01	7.451624e+01
2.480000e-06	2.834008e-06	1.091334e-09	1.965763e+01	7.538902e+01
2.490000e-06	2.873901e-06	1.103336e-09	1.993435e+01	7.623477e+01
2.500000e-06	2.913657e-06	1.112379e-09	2.021010e+01	7.705404e+01
2.510000e-06	2.953275e-06	1.118264e-09	2.048491e+01	7.784736e+01
2.520000e-06	2.992698e-06	1.124863e-09	2.075836e+01	7.861528e+01
2.530000e-06	3.031841e-06	1.131607e-09	2.102987e+01	7.935829e+01
2.540000e-06	3.070888e-06	1.141083e-09	2.130071e+01	8.007691e+01
2.550000e-06	3.109810e-06	1.151780e-09	2.157069e+01	8.077163e+01
2.560000e-06	3.148404e-06	1.165861e-09	2.183839e+01	8.144295e+01
2.570000e-06	3.186760e-06	1.178415e-09	2.210444e+01	8.209136e+01
2.580000e-06	3.224984e-06	1.185957e-09	2.236958e+01	8.271733e+01
2.590000e-06	3.263006e-06	1.191727e-09	2.263331e+01	8.332135e+01
2.600000e-06	3.300792e-06	1.196537e-09	2.289540e+01	8.390390e+01
2.610000e-06	3.338352e-06	1.202722e-09	2.315593e+01	8.446548e+01
2.620000e-06	3.375676e-06	1.209428e-09	2.341483e+01	8.500656e+01
2.630000e-06	3.412693e-06	1.217842e-09	2.367158e+01	8.552767e+01
2.640000e-06	3.449476e-06	1.226155e-09	2.392673e+01	8.602928e+01
2.650000e-06	3.486015e-06	1.234170e-09	2.418017e+01	8.651193e+01
2.660000e-06	3.522279e-06	1.239230e-09	2.443171e+01	8.697614e+01
2.670000e-06	3.558363e-06	1.242810e-09	2.468201e+01	8.742244e+01
2.680000e-06	3.594274e-06	1.248171e-09	2.493109e+01	8.785137e+01
2.690000e-06	3.630093e-06	1.255016e-09	2.517955e+01	8.826351e+01
2.700000e-06	3.665755e-06	1.261124e-09	2.542691e+01	8.865941e+01
2.710000e-06	3.701191e-06	1.266582e-09	2.567271e+01	8.903966e+01
2.720000e-06	3.736456e-06	1.273741e-09	2.591732e+01	8.940486e+01
2.730000e-06	3.771438e-06	1.281712e-09	2.615996e+01	8.975561e+01
2.740000e-06	3.806011e-06	1.290021e-09	2.639977e+01	9.009253e+01
2.750000e-06	3.840092e-06	1.298057e-09	2.663617e+01	9.041624e+01
2.760000e-06	3.873666e-06	1.301152e-09	2.686905e+01	9.072736e+01
2.770000e-06	3.906791e-06	1.303916e-09	2.709881e+01	9.102655e+01
2.780000e-06	3.939512e-06	1.307217e-09	2.732578e+01	9.131443e+01
2.790000e-06	3.971923e-06	1.312683e-09	2.755060e+01	9.159164e+01
2.800000e-06	4.004140e-06	1.320073e-09	2.777406e+01	9.185882e+01
2.810000e-06	4.036212e-06	1.328159e-09	2.799652e+01	9.211660e+01
2.820000e-06	4.067996e-06	1.334335e-09	2.821699e+01	9.236559e+01
2.830000e-06	4.099529e-06	1.338459e-09	2.843571e+01	9.260639e+01
2.840000e-06	4.130873e-06	1.342985e-09	2.865313e+01	9.283959e+01
2.850000e-06	4.161921e-06	1.344422e-09	2.886849e+01	9.306576e+01
2.860000e-06	4.192662e-06	1.342310e-09	2.908171e+01	9.328543e+01
2.870000e-06	4.223161e-06	1.342011e-09	2.929326e+01	9.349912e+01
2.880000e-06	4.253390e-06	1.347164e-09	2.950294e+01	9.370728e+01
2.890000e-06	4.283256e-06	1.354382e-09	2.971010e+01	9.391035e+01
2.900000e-06	4.312863e-06	1.362107e-09	2.991547e+01	9.410873e+01
