# Temperatura_=_14.67
# Concentracion g/m^3_=_1620.0
# C_Vs_to_Am_M_A/Vsm_=_65563218390.804596
# pendiente_HvsI_1/m_=_3716.3
# ordenada_HvsI_A/m_=_1297.0
# frecuencia_Hz_=_135095.2160414481

Tiempo_(s)	Campo_(V.s)	Magnetizacion_(V.s)	Campo_(kA/m)	Magnetizacion_(A/m)
0.000000e+00	-5.547906e-06	-1.605539e-09	-3.836983e+01	-1.053991e+02
1.000000e-08	-5.548033e-06	-1.601163e-09	-3.837071e+01	-1.053356e+02
2.000000e-08	-5.547942e-06	-1.593247e-09	-3.837008e+01	-1.052763e+02
3.000000e-08	-5.547573e-06	-1.589665e-09	-3.836753e+01	-1.052220e+02
4.000000e-08	-5.546751e-06	-1.593949e-09	-3.836185e+01	-1.051733e+02
5.000000e-08	-5.545484e-06	-1.609620e-09	-3.835308e+01	-1.051310e+02
6.000000e-08	-5.543609e-06	-1.613708e-09	-3.834011e+01	-1.050953e+02
7.000000e-08	-5.540999e-06	-1.577552e-09	-3.832206e+01	-1.050666e+02
8.000000e-08	-5.537876e-06	-1.555056e-09	-3.830046e+01	-1.050450e+02
9.000000e-08	-5.534318e-06	-1.608745e-09	-3.827585e+01	-1.050304e+02
1.000000e-07	-5.530272e-06	-1.655167e-09	-3.824788e+01	-1.050226e+02
1.100000e-07	-5.525930e-06	-1.615466e-09	-3.821785e+01	-1.050212e+02
1.200000e-07	-5.521478e-06	-1.578800e-09	-3.818705e+01	-1.050255e+02
1.300000e-07	-5.516784e-06	-1.498399e-09	-3.815459e+01	-1.050349e+02
1.400000e-07	-5.511736e-06	-1.604962e-09	-3.811968e+01	-1.050485e+02
1.500000e-07	-5.506198e-06	-1.602866e-09	-3.808138e+01	-1.050653e+02
1.600000e-07	-5.500278e-06	-1.614232e-09	-3.804043e+01	-1.050841e+02
1.700000e-07	-5.493961e-06	-1.537382e-09	-3.799674e+01	-1.051037e+02
1.800000e-07	-5.487177e-06	-1.582832e-09	-3.794982e+01	-1.051228e+02
1.900000e-07	-5.480127e-06	-1.656207e-09	-3.790107e+01	-1.051400e+02
2.000000e-07	-5.472707e-06	-1.625938e-09	-3.784975e+01	-1.051541e+02
2.100000e-07	-5.464910e-06	-1.569542e-09	-3.779582e+01	-1.051635e+02
2.200000e-07	-5.456896e-06	-1.558016e-09	-3.774040e+01	-1.051669e+02
2.300000e-07	-5.448676e-06	-1.638816e-09	-3.768355e+01	-1.051630e+02
2.400000e-07	-5.440142e-06	-1.611916e-09	-3.762453e+01	-1.051506e+02
2.500000e-07	-5.431032e-06	-1.603370e-09	-3.756152e+01	-1.051285e+02
2.600000e-07	-5.421253e-06	-1.580003e-09	-3.749389e+01	-1.050957e+02
2.700000e-07	-5.410802e-06	-1.644787e-09	-3.742161e+01	-1.050513e+02
2.800000e-07	-5.399665e-06	-1.602147e-09	-3.734458e+01	-1.049945e+02
2.900000e-07	-5.388128e-06	-1.602087e-09	-3.726479e+01	-1.049247e+02
3.000000e-07	-5.376301e-06	-1.590920e-09	-3.718300e+01	-1.048414e+02
3.100000e-07	-5.364061e-06	-1.642897e-09	-3.709834e+01	-1.047446e+02
3.200000e-07	-5.351320e-06	-1.597006e-09	-3.701022e+01	-1.046340e+02
3.300000e-07	-5.338110e-06	-1.615667e-09	-3.691886e+01	-1.045097e+02
3.400000e-07	-5.324598e-06	-1.608670e-09	-3.682542e+01	-1.043721e+02
3.500000e-07	-5.310706e-06	-1.625370e-09	-3.672933e+01	-1.042217e+02
3.600000e-07	-5.296367e-06	-1.599781e-09	-3.663017e+01	-1.040589e+02
3.700000e-07	-5.281717e-06	-1.620539e-09	-3.652885e+01	-1.038845e+02
3.800000e-07	-5.266531e-06	-1.581260e-09	-3.642382e+01	-1.036995e+02
3.900000e-07	-5.250779e-06	-1.582436e-09	-3.631487e+01	-1.035047e+02
4.000000e-07	-5.234582e-06	-1.608862e-09	-3.620285e+01	-1.033013e+02
4.100000e-07	-5.217916e-06	-1.601039e-09	-3.608759e+01	-1.030903e+02
4.200000e-07	-5.200837e-06	-1.570797e-09	-3.596947e+01	-1.028730e+02
4.300000e-07	-5.183438e-06	-1.591063e-09	-3.584914e+01	-1.026504e+02
4.400000e-07	-5.165781e-06	-1.608389e-09	-3.572702e+01	-1.024239e+02
4.500000e-07	-5.147790e-06	-1.551108e-09	-3.560259e+01	-1.021945e+02
4.600000e-07	-5.129458e-06	-1.580089e-09	-3.547581e+01	-1.019633e+02
4.700000e-07	-5.110654e-06	-1.598517e-09	-3.534576e+01	-1.017315e+02
4.800000e-07	-5.091337e-06	-1.550820e-09	-3.521216e+01	-1.014998e+02
4.900000e-07	-5.071686e-06	-1.519970e-09	-3.507625e+01	-1.012692e+02
5.000000e-07	-5.051849e-06	-1.600506e-09	-3.493906e+01	-1.010405e+02
5.100000e-07	-5.031862e-06	-1.562316e-09	-3.480083e+01	-1.008141e+02
5.200000e-07	-5.011586e-06	-1.520633e-09	-3.466060e+01	-1.005905e+02
5.300000e-07	-4.991004e-06	-1.551703e-09	-3.451825e+01	-1.003702e+02
5.400000e-07	-4.970086e-06	-1.578031e-09	-3.437357e+01	-1.001532e+02
5.500000e-07	-4.948794e-06	-1.508041e-09	-3.422632e+01	-9.993958e+01
5.600000e-07	-4.927171e-06	-1.546031e-09	-3.407677e+01	-9.972924e+01
5.700000e-07	-4.905161e-06	-1.557515e-09	-3.392455e+01	-9.952194e+01
5.800000e-07	-4.882716e-06	-1.505909e-09	-3.376931e+01	-9.931732e+01
5.900000e-07	-4.859960e-06	-1.496716e-09	-3.361193e+01	-9.911490e+01
6.000000e-07	-4.836961e-06	-1.557015e-09	-3.345287e+01	-9.891411e+01
6.100000e-07	-4.813543e-06	-1.505269e-09	-3.329091e+01	-9.871430e+01
6.200000e-07	-4.789775e-06	-1.483456e-09	-3.312653e+01	-9.851475e+01
6.300000e-07	-4.765897e-06	-1.522799e-09	-3.296138e+01	-9.831469e+01
6.400000e-07	-4.741834e-06	-1.516524e-09	-3.279496e+01	-9.811334e+01
6.500000e-07	-4.717376e-06	-1.470902e-09	-3.262581e+01	-9.790987e+01
6.600000e-07	-4.692516e-06	-1.500345e-09	-3.245388e+01	-9.770350e+01
6.700000e-07	-4.667172e-06	-1.511161e-09	-3.227859e+01	-9.749343e+01
6.800000e-07	-4.641242e-06	-1.478224e-09	-3.209926e+01	-9.727895e+01
6.900000e-07	-4.614777e-06	-1.479398e-09	-3.191623e+01	-9.705936e+01
7.000000e-07	-4.587933e-06	-1.494329e-09	-3.173057e+01	-9.683404e+01
7.100000e-07	-4.560827e-06	-1.471995e-09	-3.154310e+01	-9.660248e+01
7.200000e-07	-4.533336e-06	-1.459085e-09	-3.135297e+01	-9.636421e+01
7.300000e-07	-4.505548e-06	-1.472435e-09	-3.116078e+01	-9.611888e+01
7.400000e-07	-4.477624e-06	-1.457406e-09	-3.096766e+01	-9.586625e+01
7.500000e-07	-4.449427e-06	-1.448717e-09	-3.077265e+01	-9.560616e+01
7.600000e-07	-4.420988e-06	-1.453626e-09	-3.057597e+01	-9.533856e+01
7.700000e-07	-4.392296e-06	-1.454980e-09	-3.037753e+01	-9.506350e+01
7.800000e-07	-4.363199e-06	-1.429671e-09	-3.017629e+01	-9.478112e+01
7.900000e-07	-4.333820e-06	-1.428750e-09	-2.997310e+01	-9.449166e+01
8.000000e-07	-4.304191e-06	-1.422876e-09	-2.976818e+01	-9.419541e+01
8.100000e-07	-4.274268e-06	-1.416244e-09	-2.956123e+01	-9.389275e+01
8.200000e-07	-4.244093e-06	-1.400882e-09	-2.935254e+01	-9.358412e+01
8.300000e-07	-4.213692e-06	-1.405000e-09	-2.914229e+01	-9.326999e+01
8.400000e-07	-4.182915e-06	-1.393025e-09	-2.892943e+01	-9.295087e+01
8.500000e-07	-4.151784e-06	-1.394775e-09	-2.871412e+01	-9.262730e+01
8.600000e-07	-4.120452e-06	-1.392811e-09	-2.849743e+01	-9.229980e+01
8.700000e-07	-4.088883e-06	-1.389469e-09	-2.827909e+01	-9.196890e+01
8.800000e-07	-4.057162e-06	-1.369956e-09	-2.805971e+01	-9.163512e+01
8.900000e-07	-4.025308e-06	-1.368493e-09	-2.783941e+01	-9.129893e+01
9.000000e-07	-3.993178e-06	-1.358953e-09	-2.761719e+01	-9.096079e+01
9.100000e-07	-3.960746e-06	-1.350577e-09	-2.739289e+01	-9.062107e+01
9.200000e-07	-3.927919e-06	-1.344687e-09	-2.716585e+01	-9.028012e+01
9.300000e-07	-3.894627e-06	-1.350476e-09	-2.693560e+01	-8.993822e+01
9.400000e-07	-3.860914e-06	-1.346807e-09	-2.670244e+01	-8.959558e+01
9.500000e-07	-3.826749e-06	-1.347711e-09	-2.646615e+01	-8.925235e+01
9.600000e-07	-3.792134e-06	-1.347349e-09	-2.622675e+01	-8.890862e+01
9.700000e-07	-3.757092e-06	-1.339093e-09	-2.598440e+01	-8.856439e+01
9.800000e-07	-3.721733e-06	-1.326601e-09	-2.573985e+01	-8.821962e+01
9.900000e-07	-3.686212e-06	-1.318365e-09	-2.549418e+01	-8.787420e+01
1.000000e-06	-3.650512e-06	-1.309598e-09	-2.524728e+01	-8.752799e+01
1.010000e-06	-3.614635e-06	-1.299169e-09	-2.499915e+01	-8.718077e+01
1.020000e-06	-3.578643e-06	-1.300484e-09	-2.475023e+01	-8.683230e+01
1.030000e-06	-3.542455e-06	-1.300362e-09	-2.449995e+01	-8.648231e+01
1.040000e-06	-3.506033e-06	-1.297375e-09	-2.424805e+01	-8.613049e+01
1.050000e-06	-3.469367e-06	-1.291039e-09	-2.399447e+01	-8.577654e+01
1.060000e-06	-3.432428e-06	-1.288549e-09	-2.373899e+01	-8.542013e+01
1.070000e-06	-3.395259e-06	-1.274622e-09	-2.348193e+01	-8.506094e+01
1.080000e-06	-3.357851e-06	-1.264316e-09	-2.322321e+01	-8.469865e+01
1.090000e-06	-3.320247e-06	-1.254517e-09	-2.296314e+01	-8.433297e+01
1.100000e-06	-3.282382e-06	-1.251044e-09	-2.270126e+01	-8.396361e+01
1.110000e-06	-3.244255e-06	-1.241098e-09	-2.243757e+01	-8.359030e+01
1.120000e-06	-3.205970e-06	-1.235815e-09	-2.217279e+01	-8.321282e+01
1.130000e-06	-3.167454e-06	-1.226785e-09	-2.190641e+01	-8.283095e+01
1.140000e-06	-3.128684e-06	-1.219637e-09	-2.163827e+01	-8.244451e+01
1.150000e-06	-3.089676e-06	-1.211049e-09	-2.136848e+01	-8.205334e+01
1.160000e-06	-3.050438e-06	-1.208649e-09	-2.109711e+01	-8.165731e+01
1.170000e-06	-3.011014e-06	-1.198961e-09	-2.082445e+01	-8.125632e+01
1.180000e-06	-2.971470e-06	-1.192789e-09	-2.055096e+01	-8.085026e+01
1.190000e-06	-2.931806e-06	-1.188287e-09	-2.027664e+01	-8.043906e+01
1.200000e-06	-2.892025e-06	-1.185036e-09	-2.000151e+01	-8.002265e+01
1.210000e-06	-2.852146e-06	-1.175133e-09	-1.972571e+01	-7.960095e+01
1.220000e-06	-2.812097e-06	-1.167576e-09	-1.944872e+01	-7.917389e+01
1.230000e-06	-2.771918e-06	-1.159235e-09	-1.917084e+01	-7.874138e+01
1.240000e-06	-2.731565e-06	-1.152303e-09	-1.889176e+01	-7.830332e+01
1.250000e-06	-2.690882e-06	-1.146719e-09	-1.861039e+01	-7.785958e+01
1.260000e-06	-2.649881e-06	-1.141254e-09	-1.832682e+01	-7.741000e+01
1.270000e-06	-2.608595e-06	-1.134331e-09	-1.804129e+01	-7.695441e+01
1.280000e-06	-2.567080e-06	-1.124152e-09	-1.775417e+01	-7.649257e+01
1.290000e-06	-2.525322e-06	-1.112927e-09	-1.746536e+01	-7.602424e+01
1.300000e-06	-2.483247e-06	-1.101387e-09	-1.717437e+01	-7.554911e+01
1.310000e-06	-2.440863e-06	-1.090383e-09	-1.688124e+01	-7.506684e+01
1.320000e-06	-2.398181e-06	-1.080060e-09	-1.658604e+01	-7.457705e+01
1.330000e-06	-2.355141e-06	-1.071501e-09	-1.628837e+01	-7.407934e+01
1.340000e-06	-2.311863e-06	-1.061733e-09	-1.598906e+01	-7.357326e+01
1.350000e-06	-2.268419e-06	-1.055974e-09	-1.568859e+01	-7.305832e+01
1.360000e-06	-2.224818e-06	-1.052144e-09	-1.538705e+01	-7.253403e+01
1.370000e-06	-2.181197e-06	-1.046698e-09	-1.508536e+01	-7.199985e+01
1.380000e-06	-2.137472e-06	-1.033457e-09	-1.478295e+01	-7.145527e+01
1.390000e-06	-2.093615e-06	-1.019663e-09	-1.447964e+01	-7.089973e+01
1.400000e-06	-2.049708e-06	-1.006142e-09	-1.417597e+01	-7.033269e+01
1.410000e-06	-2.005784e-06	-9.952872e-10	-1.387219e+01	-6.975362e+01
1.420000e-06	-1.961757e-06	-9.831605e-10	-1.356770e+01	-6.916200e+01
1.430000e-06	-1.917581e-06	-9.754899e-10	-1.326217e+01	-6.855733e+01
1.440000e-06	-1.873371e-06	-9.681333e-10	-1.295641e+01	-6.793912e+01
1.450000e-06	-1.829105e-06	-9.604933e-10	-1.265026e+01	-6.730693e+01
1.460000e-06	-1.784667e-06	-9.484833e-10	-1.234292e+01	-6.666035e+01
1.470000e-06	-1.740063e-06	-9.342945e-10	-1.203444e+01	-6.599899e+01
1.480000e-06	-1.695306e-06	-9.186783e-10	-1.172489e+01	-6.532250e+01
1.490000e-06	-1.650385e-06	-9.049817e-10	-1.141422e+01	-6.463059e+01
1.500000e-06	-1.605272e-06	-8.899802e-10	-1.110221e+01	-6.392296e+01
1.510000e-06	-1.559934e-06	-8.766656e-10	-1.078865e+01	-6.319937e+01
1.520000e-06	-1.514536e-06	-8.652540e-10	-1.047467e+01	-6.245960e+01
1.530000e-06	-1.469134e-06	-8.574195e-10	-1.016066e+01	-6.170345e+01
1.540000e-06	-1.423585e-06	-8.479521e-10	-9.845648e+00	-6.093073e+01
1.550000e-06	-1.377935e-06	-8.361065e-10	-9.529928e+00	-6.014125e+01
1.560000e-06	-1.332235e-06	-8.194307e-10	-9.213859e+00	-5.933482e+01
1.570000e-06	-1.286451e-06	-8.032342e-10	-8.897215e+00	-5.851124e+01
1.580000e-06	-1.240585e-06	-7.880751e-10	-8.579998e+00	-5.767026e+01
1.590000e-06	-1.194593e-06	-7.729640e-10	-8.261918e+00	-5.681164e+01
1.600000e-06	-1.148450e-06	-7.591529e-10	-7.942789e+00	-5.593506e+01
1.610000e-06	-1.102314e-06	-7.455820e-10	-7.623703e+00	-5.504015e+01
1.620000e-06	-1.056174e-06	-7.357578e-10	-7.304594e+00	-5.412648e+01
1.630000e-06	-1.009964e-06	-7.270934e-10	-6.985006e+00	-5.319357e+01
1.640000e-06	-9.637344e-07	-7.193490e-10	-6.665277e+00	-5.224082e+01
1.650000e-06	-9.174154e-07	-7.049727e-10	-6.344930e+00	-5.126759e+01
1.660000e-06	-8.709579e-07	-6.859526e-10	-6.023626e+00	-5.027312e+01
1.670000e-06	-8.243982e-07	-6.646521e-10	-5.701614e+00	-4.925659e+01
1.680000e-06	-7.778136e-07	-6.450188e-10	-5.379431e+00	-4.821707e+01
1.690000e-06	-7.312072e-07	-6.257960e-10	-5.057097e+00	-4.715357e+01
1.700000e-06	-6.845933e-07	-6.093334e-10	-4.734711e+00	-4.606500e+01
1.710000e-06	-6.379502e-07	-5.951728e-10	-4.412123e+00	-4.495021e+01
1.720000e-06	-5.912603e-07	-5.824145e-10	-4.089211e+00	-4.380799e+01
1.730000e-06	-5.444879e-07	-5.658522e-10	-3.765729e+00	-4.263707e+01
1.740000e-06	-4.976271e-07	-5.452894e-10	-3.441635e+00	-4.143617e+01
1.750000e-06	-4.508105e-07	-5.217394e-10	-3.117847e+00	-4.020396e+01
1.760000e-06	-4.039694e-07	-4.981175e-10	-2.793890e+00	-3.893912e+01
1.770000e-06	-3.569576e-07	-4.759789e-10	-2.468752e+00	-3.764037e+01
1.780000e-06	-3.098626e-07	-4.593144e-10	-2.143039e+00	-3.630644e+01
1.790000e-06	-2.627752e-07	-4.447804e-10	-1.817377e+00	-3.493612e+01
1.800000e-06	-2.156736e-07	-4.258505e-10	-1.491619e+00	-3.352830e+01
1.810000e-06	-1.685500e-07	-4.038382e-10	-1.165708e+00	-3.208196e+01
1.820000e-06	-1.214474e-07	-3.806802e-10	-8.399412e-01	-3.059620e+01
1.830000e-06	-7.433560e-08	-3.581153e-10	-5.141119e-01	-2.907028e+01
1.840000e-06	-2.717899e-08	-3.358030e-10	-1.879724e-01	-2.750362e+01
1.850000e-06	2.000443e-08	-3.157126e-10	1.383525e-01	-2.589580e+01
1.860000e-06	6.710858e-08	-2.974873e-10	4.641292e-01	-2.424664e+01
1.870000e-06	1.141845e-07	-2.753520e-10	7.897109e-01	-2.255614e+01
1.880000e-06	1.612414e-07	-2.485575e-10	1.115161e+00	-2.082455e+01
1.890000e-06	2.082934e-07	-2.198797e-10	1.440577e+00	-1.905236e+01
1.900000e-06	2.553790e-07	-1.893347e-10	1.766225e+00	-1.724029e+01
1.910000e-06	3.024063e-07	-1.594160e-10	2.091470e+00	-1.538931e+01
1.920000e-06	3.494062e-07	-1.337452e-10	2.416525e+00	-1.350067e+01
1.930000e-06	3.964116e-07	-1.093559e-10	2.741619e+00	-1.157583e+01
1.940000e-06	4.433658e-07	-8.230727e-11	3.066359e+00	-9.616526e+00
1.950000e-06	4.901696e-07	-5.406768e-11	3.390059e+00	-7.624723e+00
1.960000e-06	5.369442e-07	-2.528883e-11	3.713556e+00	-5.602612e+00
1.970000e-06	5.837651e-07	3.004645e-12	4.037373e+00	-3.552602e+00
1.980000e-06	6.305225e-07	3.218296e-11	4.360752e+00	-1.477300e+00
1.990000e-06	6.771531e-07	6.183058e-11	4.683254e+00	6.205057e-01
2.000000e-06	7.237562e-07	9.332157e-11	5.005565e+00	2.737866e+00
2.010000e-06	7.703825e-07	1.253195e-10	5.328037e+00	4.871694e+00
2.020000e-06	8.169534e-07	1.557280e-10	5.650126e+00	7.018788e+00
2.030000e-06	8.634091e-07	1.856500e-10	5.971417e+00	9.175855e+00
2.040000e-06	9.098050e-07	2.146239e-10	6.292296e+00	1.133954e+01
2.050000e-06	9.561375e-07	2.419497e-10	6.612735e+00	1.350645e+01
2.060000e-06	1.002368e-06	2.707343e-10	6.932469e+00	1.567317e+01
2.070000e-06	1.048610e-06	3.003569e-10	7.252285e+00	1.783632e+01
2.080000e-06	1.094789e-06	3.299945e-10	7.571664e+00	1.999254e+01
2.090000e-06	1.140797e-06	3.616509e-10	7.889855e+00	2.213855e+01
2.100000e-06	1.186687e-06	3.963665e-10	8.207235e+00	2.427114e+01
2.110000e-06	1.232561e-06	4.295183e-10	8.524504e+00	2.638723e+01
2.120000e-06	1.278407e-06	4.603515e-10	8.841581e+00	2.848387e+01
2.130000e-06	1.324084e-06	4.897470e-10	9.157487e+00	3.055823e+01
2.140000e-06	1.369602e-06	5.157330e-10	9.472297e+00	3.260767e+01
2.150000e-06	1.415046e-06	5.379611e-10	9.786588e+00	3.462973e+01
2.160000e-06	1.460518e-06	5.593847e-10	1.010108e+01	3.662214e+01
2.170000e-06	1.506012e-06	5.831397e-10	1.041572e+01	3.858282e+01
2.180000e-06	1.551349e-06	6.099292e-10	1.072927e+01	4.050990e+01
2.190000e-06	1.596572e-06	6.400806e-10	1.104204e+01	4.240173e+01
2.200000e-06	1.641681e-06	6.699982e-10	1.135402e+01	4.425687e+01
2.210000e-06	1.686542e-06	6.974307e-10	1.166428e+01	4.607409e+01
2.220000e-06	1.731175e-06	7.218918e-10	1.197297e+01	4.785237e+01
2.230000e-06	1.775718e-06	7.431345e-10	1.228103e+01	4.959091e+01
2.240000e-06	1.820126e-06	7.617198e-10	1.258816e+01	5.128910e+01
2.250000e-06	1.864354e-06	7.800741e-10	1.289405e+01	5.294652e+01
2.260000e-06	1.908508e-06	8.001797e-10	1.319942e+01	5.456295e+01
2.270000e-06	1.952582e-06	8.226569e-10	1.350424e+01	5.613833e+01
2.280000e-06	1.996595e-06	8.460234e-10	1.380864e+01	5.767275e+01
2.290000e-06	2.040528e-06	8.678576e-10	1.411248e+01	5.916647e+01
2.300000e-06	2.084393e-06	8.870491e-10	1.441585e+01	6.061988e+01
2.310000e-06	2.128204e-06	9.052911e-10	1.471886e+01	6.203347e+01
2.320000e-06	2.171968e-06	9.231538e-10	1.502153e+01	6.340786e+01
2.330000e-06	2.215628e-06	9.413468e-10	1.532349e+01	6.474375e+01
2.340000e-06	2.259133e-06	9.601661e-10	1.562438e+01	6.604193e+01
2.350000e-06	2.302555e-06	9.784540e-10	1.592468e+01	6.730322e+01
2.360000e-06	2.345812e-06	9.956544e-10	1.622386e+01	6.852852e+01
2.370000e-06	2.388788e-06	1.011564e-09	1.652108e+01	6.971876e+01
2.380000e-06	2.431453e-06	1.026141e-09	1.681615e+01	7.087489e+01
2.390000e-06	2.473860e-06	1.040553e-09	1.710944e+01	7.199786e+01
2.400000e-06	2.515962e-06	1.056089e-09	1.740063e+01	7.308865e+01
2.410000e-06	2.557725e-06	1.072151e-09	1.768946e+01	7.414821e+01
2.420000e-06	2.599196e-06	1.088440e-09	1.797628e+01	7.517746e+01
2.430000e-06	2.640363e-06	1.102754e-09	1.826099e+01	7.617734e+01
2.440000e-06	2.681228e-06	1.112818e-09	1.854362e+01	7.714871e+01
2.450000e-06	2.721834e-06	1.121542e-09	1.882446e+01	7.809241e+01
2.460000e-06	2.762272e-06	1.130951e-09	1.910413e+01	7.900926e+01
2.470000e-06	2.802532e-06	1.141935e-09	1.938257e+01	7.990001e+01
2.480000e-06	2.842540e-06	1.154556e-09	1.965927e+01	8.076538e+01
2.490000e-06	2.882398e-06	1.168888e-09	1.993493e+01	8.160602e+01
2.500000e-06	2.922155e-06	1.184519e-09	2.020989e+01	8.242255e+01
2.510000e-06	2.961803e-06	1.199508e-09	2.048410e+01	8.321556e+01
2.520000e-06	3.001324e-06	1.211387e-09	2.075743e+01	8.398556e+01
2.530000e-06	3.040694e-06	1.218841e-09	2.102972e+01	8.473303e+01
2.540000e-06	3.079938e-06	1.226068e-09	2.130114e+01	8.545844e+01
2.550000e-06	3.118901e-06	1.235154e-09	2.157061e+01	8.616219e+01
2.560000e-06	3.157633e-06	1.245694e-09	2.183849e+01	8.684467e+01
2.570000e-06	3.196091e-06	1.257749e-09	2.210447e+01	8.750624e+01
2.580000e-06	3.234266e-06	1.268958e-09	2.236849e+01	8.814723e+01
2.590000e-06	3.272336e-06	1.277065e-09	2.263178e+01	8.876799e+01
2.600000e-06	3.310155e-06	1.284157e-09	2.289334e+01	8.936883e+01
2.610000e-06	3.347644e-06	1.291779e-09	2.315262e+01	8.995009e+01
2.620000e-06	3.384986e-06	1.301236e-09	2.341088e+01	9.051207e+01
2.630000e-06	3.422237e-06	1.311048e-09	2.366851e+01	9.105513e+01
2.640000e-06	3.459269e-06	1.319613e-09	2.392463e+01	9.157961e+01
2.650000e-06	3.496011e-06	1.327190e-09	2.417873e+01	9.208590e+01
2.660000e-06	3.532441e-06	1.332854e-09	2.443069e+01	9.257439e+01
2.670000e-06	3.568579e-06	1.337880e-09	2.468063e+01	9.304552e+01
2.680000e-06	3.604521e-06	1.344288e-09	2.492920e+01	9.349974e+01
2.690000e-06	3.640329e-06	1.351925e-09	2.517685e+01	9.393755e+01
2.700000e-06	3.676052e-06	1.361435e-09	2.542391e+01	9.435949e+01
2.710000e-06	3.711666e-06	1.371824e-09	2.567023e+01	9.476613e+01
2.720000e-06	3.747102e-06	1.380580e-09	2.591531e+01	9.515806e+01
2.730000e-06	3.782293e-06	1.386562e-09	2.615869e+01	9.553593e+01
2.740000e-06	3.817137e-06	1.391663e-09	2.639968e+01	9.590042e+01
2.750000e-06	3.851477e-06	1.396670e-09	2.663717e+01	9.625221e+01
2.760000e-06	3.885293e-06	1.400669e-09	2.687105e+01	9.659203e+01
2.770000e-06	3.918638e-06	1.406035e-09	2.710166e+01	9.692064e+01
2.780000e-06	3.951588e-06	1.412196e-09	2.732955e+01	9.723877e+01
2.790000e-06	3.984142e-06	1.418362e-09	2.755469e+01	9.754720e+01
2.800000e-06	4.016280e-06	1.426288e-09	2.777696e+01	9.784668e+01
2.810000e-06	4.048174e-06	1.433027e-09	2.799755e+01	9.813796e+01
2.820000e-06	4.079971e-06	1.436838e-09	2.821746e+01	9.842178e+01
2.830000e-06	4.111594e-06	1.440583e-09	2.843617e+01	9.869883e+01
2.840000e-06	4.142997e-06	1.444390e-09	2.865335e+01	9.896980e+01
2.850000e-06	4.174198e-06	1.447835e-09	2.886914e+01	9.923531e+01
2.860000e-06	4.205106e-06	1.448650e-09	2.908290e+01	9.949594e+01
2.870000e-06	4.235627e-06	1.450085e-09	2.929399e+01	9.975220e+01
2.880000e-06	4.265867e-06	1.455514e-09	2.950313e+01	1.000045e+02
2.890000e-06	4.295861e-06	1.462088e-09	2.971057e+01	1.002534e+02
2.900000e-06	4.325518e-06	1.467892e-09	2.991568e+01	1.004989e+02
