# Temperatura_=_-14.74
# Concentracion g/m^3_=_1620.0
# C_Vs_to_Am_M_A/Vsm_=_65563218390.804596
# pendiente_HvsI_1/m_=_3716.3
# ordenada_HvsI_A/m_=_1297.0
# frecuencia_Hz_=_135105.54137222105

Tiempo_(s)	Campo_(V.s)	Magnetizacion_(V.s)	Campo_(kA/m)	Magnetizacion_(A/m)
0.000000e+00	-5.529882e-06	-9.195014e-10	-3.836573e+01	-6.218846e+01
1.000000e-08	-5.530088e-06	-9.181481e-10	-3.836716e+01	-6.215031e+01
2.000000e-08	-5.530055e-06	-9.188201e-10	-3.836693e+01	-6.211652e+01
3.000000e-08	-5.529744e-06	-9.209032e-10	-3.836477e+01	-6.208739e+01
4.000000e-08	-5.528966e-06	-9.216661e-10	-3.835937e+01	-6.206317e+01
5.000000e-08	-5.527569e-06	-9.180030e-10	-3.834968e+01	-6.204402e+01
6.000000e-08	-5.525512e-06	-9.050282e-10	-3.833541e+01	-6.202998e+01
7.000000e-08	-5.522855e-06	-8.968868e-10	-3.831698e+01	-6.202104e+01
8.000000e-08	-5.519640e-06	-9.296826e-10	-3.829467e+01	-6.201707e+01
9.000000e-08	-5.515933e-06	-9.940072e-10	-3.826895e+01	-6.201783e+01
1.000000e-07	-5.511816e-06	-9.857181e-10	-3.824039e+01	-6.202301e+01
1.100000e-07	-5.507431e-06	-8.871895e-10	-3.820996e+01	-6.203220e+01
1.200000e-07	-5.502854e-06	-8.200173e-10	-3.817822e+01	-6.204491e+01
1.300000e-07	-5.497979e-06	-9.246708e-10	-3.814439e+01	-6.206057e+01
1.400000e-07	-5.492668e-06	-9.871661e-10	-3.810754e+01	-6.207856e+01
1.500000e-07	-5.486929e-06	-9.257716e-10	-3.806773e+01	-6.209818e+01
1.600000e-07	-5.480891e-06	-8.474930e-10	-3.802584e+01	-6.211872e+01
1.700000e-07	-5.474524e-06	-9.088678e-10	-3.798166e+01	-6.213941e+01
1.800000e-07	-5.467696e-06	-9.799458e-10	-3.793429e+01	-6.215951e+01
1.900000e-07	-5.460443e-06	-9.053632e-10	-3.788397e+01	-6.217823e+01
2.000000e-07	-5.452977e-06	-8.410588e-10	-3.783217e+01	-6.219485e+01
2.100000e-07	-5.445339e-06	-9.092360e-10	-3.777918e+01	-6.220864e+01
2.200000e-07	-5.437424e-06	-1.011368e-09	-3.772427e+01	-6.221893e+01
2.300000e-07	-5.429136e-06	-9.727831e-10	-3.766676e+01	-6.222512e+01
2.400000e-07	-5.420380e-06	-8.936731e-10	-3.760602e+01	-6.222665e+01
2.500000e-07	-5.411002e-06	-8.877029e-10	-3.754095e+01	-6.222308e+01
2.600000e-07	-5.400845e-06	-9.416225e-10	-3.747048e+01	-6.221402e+01
2.700000e-07	-5.390109e-06	-9.368028e-10	-3.739600e+01	-6.219919e+01
2.800000e-07	-5.378972e-06	-9.171625e-10	-3.731874e+01	-6.217841e+01
2.900000e-07	-5.367368e-06	-9.162300e-10	-3.723822e+01	-6.215160e+01
3.000000e-07	-5.355409e-06	-9.418651e-10	-3.715525e+01	-6.211879e+01
3.100000e-07	-5.343052e-06	-9.240165e-10	-3.706952e+01	-6.208011e+01
3.200000e-07	-5.330246e-06	-8.965903e-10	-3.698068e+01	-6.203577e+01
3.300000e-07	-5.317078e-06	-8.968765e-10	-3.688932e+01	-6.198609e+01
3.400000e-07	-5.303505e-06	-9.322526e-10	-3.679515e+01	-6.193147e+01
3.500000e-07	-5.289434e-06	-9.238429e-10	-3.669753e+01	-6.187240e+01
3.600000e-07	-5.274909e-06	-9.053548e-10	-3.659675e+01	-6.180942e+01
3.700000e-07	-5.259936e-06	-9.219064e-10	-3.649288e+01	-6.174313e+01
3.800000e-07	-5.244409e-06	-9.323342e-10	-3.638515e+01	-6.167418e+01
3.900000e-07	-5.228317e-06	-8.898069e-10	-3.627351e+01	-6.160325e+01
4.000000e-07	-5.211776e-06	-8.909736e-10	-3.615875e+01	-6.153102e+01
4.100000e-07	-5.194979e-06	-9.427367e-10	-3.604221e+01	-6.145820e+01
4.200000e-07	-5.177884e-06	-9.168892e-10	-3.592361e+01	-6.138547e+01
4.300000e-07	-5.160420e-06	-8.763283e-10	-3.580244e+01	-6.131351e+01
4.400000e-07	-5.142664e-06	-9.285656e-10	-3.567925e+01	-6.124295e+01
4.500000e-07	-5.124547e-06	-9.577308e-10	-3.555356e+01	-6.117439e+01
4.600000e-07	-5.106002e-06	-8.739360e-10	-3.542490e+01	-6.110836e+01
4.700000e-07	-5.087064e-06	-8.732023e-10	-3.529351e+01	-6.104534e+01
4.800000e-07	-5.067750e-06	-9.410894e-10	-3.515951e+01	-6.098575e+01
4.900000e-07	-5.048171e-06	-9.097800e-10	-3.502367e+01	-6.092991e+01
5.000000e-07	-5.028412e-06	-8.641033e-10	-3.488659e+01	-6.087810e+01
5.100000e-07	-5.008433e-06	-9.267207e-10	-3.474797e+01	-6.083049e+01
5.200000e-07	-4.988135e-06	-9.248226e-10	-3.460715e+01	-6.078719e+01
5.300000e-07	-4.967476e-06	-8.682504e-10	-3.446381e+01	-6.074822e+01
5.400000e-07	-4.946503e-06	-9.053950e-10	-3.431831e+01	-6.071353e+01
5.500000e-07	-4.925169e-06	-9.398401e-10	-3.417030e+01	-6.068301e+01
5.600000e-07	-4.903386e-06	-8.721378e-10	-3.401916e+01	-6.065648e+01
5.700000e-07	-4.881355e-06	-8.776362e-10	-3.386632e+01	-6.063369e+01
5.800000e-07	-4.859071e-06	-9.368786e-10	-3.371171e+01	-6.061436e+01
5.900000e-07	-4.836394e-06	-9.013796e-10	-3.355439e+01	-6.059816e+01
6.000000e-07	-4.813346e-06	-8.645207e-10	-3.339448e+01	-6.058472e+01
6.100000e-07	-4.790015e-06	-9.119677e-10	-3.323261e+01	-6.057366e+01
6.200000e-07	-4.766506e-06	-9.061808e-10	-3.306951e+01	-6.056458e+01
6.300000e-07	-4.742773e-06	-8.677848e-10	-3.290485e+01	-6.055708e+01
6.400000e-07	-4.718827e-06	-8.970450e-10	-3.273872e+01	-6.055075e+01
6.500000e-07	-4.694546e-06	-9.111687e-10	-3.257026e+01	-6.054521e+01
6.600000e-07	-4.669747e-06	-8.769816e-10	-3.239820e+01	-6.054008e+01
6.700000e-07	-4.644411e-06	-8.893377e-10	-3.222243e+01	-6.053503e+01
6.800000e-07	-4.618435e-06	-9.111697e-10	-3.204221e+01	-6.052973e+01
6.900000e-07	-4.591870e-06	-8.853674e-10	-3.185791e+01	-6.052392e+01
7.000000e-07	-4.564859e-06	-8.850291e-10	-3.167050e+01	-6.051734e+01
7.100000e-07	-4.537491e-06	-9.079703e-10	-3.148063e+01	-6.050981e+01
7.200000e-07	-4.509918e-06	-8.944788e-10	-3.128933e+01	-6.050117e+01
7.300000e-07	-4.482192e-06	-8.820068e-10	-3.109697e+01	-6.049130e+01
7.400000e-07	-4.454333e-06	-8.982606e-10	-3.090369e+01	-6.048013e+01
7.500000e-07	-4.426206e-06	-8.907263e-10	-3.070854e+01	-6.046764e+01
7.600000e-07	-4.397669e-06	-8.786197e-10	-3.051056e+01	-6.045381e+01
7.700000e-07	-4.368771e-06	-8.896741e-10	-3.031007e+01	-6.043870e+01
7.800000e-07	-4.339584e-06	-8.932795e-10	-3.010757e+01	-6.042236e+01
7.900000e-07	-4.310143e-06	-8.830428e-10	-2.990331e+01	-6.040487e+01
8.000000e-07	-4.280448e-06	-8.929964e-10	-2.969729e+01	-6.038636e+01
8.100000e-07	-4.250504e-06	-8.946713e-10	-2.948955e+01	-6.036692e+01
8.200000e-07	-4.220263e-06	-8.801077e-10	-2.927973e+01	-6.034669e+01
8.300000e-07	-4.189736e-06	-8.790395e-10	-2.906794e+01	-6.032580e+01
8.400000e-07	-4.158975e-06	-8.904285e-10	-2.885452e+01	-6.030438e+01
8.500000e-07	-4.127807e-06	-8.851111e-10	-2.863828e+01	-6.028253e+01
8.600000e-07	-4.096375e-06	-8.845195e-10	-2.842021e+01	-6.026038e+01
8.700000e-07	-4.064863e-06	-8.936558e-10	-2.820158e+01	-6.023801e+01
8.800000e-07	-4.033152e-06	-8.900923e-10	-2.798158e+01	-6.021550e+01
8.900000e-07	-4.001187e-06	-8.784820e-10	-2.775980e+01	-6.019291e+01
9.000000e-07	-3.968990e-06	-8.818042e-10	-2.753643e+01	-6.017026e+01
9.100000e-07	-3.936571e-06	-8.811819e-10	-2.731151e+01	-6.014758e+01
9.200000e-07	-3.903795e-06	-8.727896e-10	-2.708411e+01	-6.012485e+01
9.300000e-07	-3.870607e-06	-8.766765e-10	-2.685386e+01	-6.010205e+01
9.400000e-07	-3.836993e-06	-8.843571e-10	-2.662065e+01	-6.007911e+01
9.500000e-07	-3.802873e-06	-8.786785e-10	-2.638392e+01	-6.005596e+01
9.600000e-07	-3.768297e-06	-8.763401e-10	-2.614404e+01	-6.003253e+01
9.700000e-07	-3.733425e-06	-8.823276e-10	-2.590210e+01	-6.000870e+01
9.800000e-07	-3.698275e-06	-8.775653e-10	-2.565823e+01	-5.998436e+01
9.900000e-07	-3.662809e-06	-8.682838e-10	-2.541218e+01	-5.995938e+01
1.000000e-06	-3.627147e-06	-8.687750e-10	-2.516476e+01	-5.993362e+01
1.010000e-06	-3.591365e-06	-8.715062e-10	-2.491650e+01	-5.990697e+01
1.020000e-06	-3.555433e-06	-8.690776e-10	-2.466722e+01	-5.987926e+01
1.030000e-06	-3.519319e-06	-8.751888e-10	-2.441666e+01	-5.985038e+01
1.040000e-06	-3.482986e-06	-8.829128e-10	-2.416459e+01	-5.982018e+01
1.050000e-06	-3.446405e-06	-8.794028e-10	-2.391079e+01	-5.978853e+01
1.060000e-06	-3.409548e-06	-8.717713e-10	-2.365508e+01	-5.975533e+01
1.070000e-06	-3.372457e-06	-8.700770e-10	-2.339774e+01	-5.972044e+01
1.080000e-06	-3.335128e-06	-8.648295e-10	-2.313876e+01	-5.968376e+01
1.090000e-06	-3.297579e-06	-8.607127e-10	-2.287825e+01	-5.964519e+01
1.100000e-06	-3.259858e-06	-8.633890e-10	-2.261654e+01	-5.960465e+01
1.110000e-06	-3.221862e-06	-8.651976e-10	-2.235293e+01	-5.956204e+01
1.120000e-06	-3.183562e-06	-8.621689e-10	-2.208721e+01	-5.951729e+01
1.130000e-06	-3.145050e-06	-8.639192e-10	-2.182002e+01	-5.947031e+01
1.140000e-06	-3.106322e-06	-8.657185e-10	-2.155133e+01	-5.942104e+01
1.150000e-06	-3.067352e-06	-8.638830e-10	-2.128096e+01	-5.936941e+01
1.160000e-06	-3.028164e-06	-8.610590e-10	-2.100908e+01	-5.931533e+01
1.170000e-06	-2.988855e-06	-8.604201e-10	-2.073635e+01	-5.925873e+01
1.180000e-06	-2.949438e-06	-8.596233e-10	-2.046289e+01	-5.919953e+01
1.190000e-06	-2.909859e-06	-8.613053e-10	-2.018829e+01	-5.913764e+01
1.200000e-06	-2.870165e-06	-8.637885e-10	-1.991290e+01	-5.907297e+01
1.210000e-06	-2.830336e-06	-8.636870e-10	-1.963657e+01	-5.900539e+01
1.220000e-06	-2.790319e-06	-8.621703e-10	-1.935894e+01	-5.893480e+01
1.230000e-06	-2.750109e-06	-8.622943e-10	-1.907996e+01	-5.886107e+01
1.240000e-06	-2.709764e-06	-8.610330e-10	-1.880006e+01	-5.878405e+01
1.250000e-06	-2.669276e-06	-8.578392e-10	-1.851915e+01	-5.870360e+01
1.260000e-06	-2.628508e-06	-8.563388e-10	-1.823631e+01	-5.861954e+01
1.270000e-06	-2.587433e-06	-8.555940e-10	-1.795133e+01	-5.853171e+01
1.280000e-06	-2.546093e-06	-8.545433e-10	-1.766452e+01	-5.843991e+01
1.290000e-06	-2.504519e-06	-8.537170e-10	-1.737609e+01	-5.834395e+01
1.300000e-06	-2.462651e-06	-8.548725e-10	-1.708561e+01	-5.824364e+01
1.310000e-06	-2.420377e-06	-8.537082e-10	-1.679232e+01	-5.813876e+01
1.320000e-06	-2.377720e-06	-8.513245e-10	-1.649637e+01	-5.802909e+01
1.330000e-06	-2.334761e-06	-8.479119e-10	-1.619832e+01	-5.791444e+01
1.340000e-06	-2.291650e-06	-8.443955e-10	-1.589922e+01	-5.779456e+01
1.350000e-06	-2.248455e-06	-8.416187e-10	-1.559954e+01	-5.766926e+01
1.360000e-06	-2.205053e-06	-8.411457e-10	-1.529842e+01	-5.753829e+01
1.370000e-06	-2.161482e-06	-8.419415e-10	-1.499613e+01	-5.740146e+01
1.380000e-06	-2.117820e-06	-8.418200e-10	-1.469321e+01	-5.725852e+01
1.390000e-06	-2.074045e-06	-8.390214e-10	-1.438950e+01	-5.710927e+01
1.400000e-06	-2.030183e-06	-8.361933e-10	-1.408519e+01	-5.695348e+01
1.410000e-06	-1.986276e-06	-8.319970e-10	-1.378057e+01	-5.679091e+01
1.420000e-06	-1.942267e-06	-8.262172e-10	-1.347524e+01	-5.662135e+01
1.430000e-06	-1.898197e-06	-8.226228e-10	-1.316949e+01	-5.644454e+01
1.440000e-06	-1.854114e-06	-8.215130e-10	-1.286365e+01	-5.626024e+01
1.450000e-06	-1.809851e-06	-8.213837e-10	-1.255656e+01	-5.606818e+01
1.460000e-06	-1.765377e-06	-8.206662e-10	-1.224800e+01	-5.586807e+01
1.470000e-06	-1.720751e-06	-8.174543e-10	-1.193839e+01	-5.565962e+01
1.480000e-06	-1.675982e-06	-8.114864e-10	-1.162778e+01	-5.544247e+01
1.490000e-06	-1.631133e-06	-8.038312e-10	-1.131662e+01	-5.521628e+01
1.500000e-06	-1.586229e-06	-7.952020e-10	-1.100509e+01	-5.498064e+01
1.510000e-06	-1.541186e-06	-7.872161e-10	-1.069258e+01	-5.473511e+01
1.520000e-06	-1.495954e-06	-7.817799e-10	-1.037877e+01	-5.447920e+01
1.530000e-06	-1.450584e-06	-7.786607e-10	-1.006400e+01	-5.421240e+01
1.540000e-06	-1.405143e-06	-7.748880e-10	-9.748729e+00	-5.393412e+01
1.550000e-06	-1.359627e-06	-7.691084e-10	-9.432946e+00	-5.364373e+01
1.560000e-06	-1.313976e-06	-7.632697e-10	-9.116224e+00	-5.334054e+01
1.570000e-06	-1.268224e-06	-7.572524e-10	-8.798806e+00	-5.302383e+01
1.580000e-06	-1.222443e-06	-7.493209e-10	-8.481182e+00	-5.269278e+01
1.590000e-06	-1.176622e-06	-7.407673e-10	-8.163276e+00	-5.234657e+01
1.600000e-06	-1.130697e-06	-7.341727e-10	-7.844656e+00	-5.198430e+01
1.610000e-06	-1.084668e-06	-7.303818e-10	-7.525310e+00	-5.160501e+01
1.620000e-06	-1.038536e-06	-7.282981e-10	-7.205254e+00	-5.120773e+01
1.630000e-06	-9.923290e-07	-7.278041e-10	-6.884672e+00	-5.079141e+01
1.640000e-06	-9.460612e-07	-7.235065e-10	-6.563672e+00	-5.035502e+01
1.650000e-06	-8.996779e-07	-7.137541e-10	-6.241869e+00	-4.989744e+01
1.660000e-06	-8.532568e-07	-7.010328e-10	-5.919804e+00	-4.941759e+01
1.670000e-06	-8.068712e-07	-6.884015e-10	-5.597986e+00	-4.891434e+01
1.680000e-06	-7.604370e-07	-6.779223e-10	-5.275831e+00	-4.838657e+01
1.690000e-06	-7.138956e-07	-6.699151e-10	-4.952931e+00	-4.783318e+01
1.700000e-06	-6.672698e-07	-6.632829e-10	-4.629447e+00	-4.725306e+01
1.710000e-06	-6.205819e-07	-6.565740e-10	-4.305531e+00	-4.664516e+01
1.720000e-06	-5.738525e-07	-6.492581e-10	-3.981327e+00	-4.600843e+01
1.730000e-06	-5.271527e-07	-6.382541e-10	-3.657329e+00	-4.534188e+01
1.740000e-06	-4.804814e-07	-6.237515e-10	-3.333529e+00	-4.464458e+01
1.750000e-06	-4.337818e-07	-6.076622e-10	-3.009532e+00	-4.391567e+01
1.760000e-06	-3.870057e-07	-5.914264e-10	-2.685004e+00	-4.315432e+01
1.770000e-06	-3.401285e-07	-5.781203e-10	-2.359775e+00	-4.235983e+01
1.780000e-06	-2.931935e-07	-5.690371e-10	-2.034145e+00	-4.153155e+01
1.790000e-06	-2.462366e-07	-5.612730e-10	-1.708363e+00	-4.066892e+01
1.800000e-06	-1.992818e-07	-5.502279e-10	-1.382596e+00	-3.977149e+01
1.810000e-06	-1.523237e-07	-5.345622e-10	-1.056806e+00	-3.883891e+01
1.820000e-06	-1.054050e-07	-5.177891e-10	-7.312888e-01	-3.787092e+01
1.830000e-06	-5.853553e-08	-5.028296e-10	-4.061132e-01	-3.686737e+01
1.840000e-06	-1.173272e-08	-4.889335e-10	-8.140037e-02	-3.582822e+01
1.850000e-06	3.507453e-08	-4.761654e-10	2.433434e-01	-3.475351e+01
1.860000e-06	8.192708e-08	-4.634337e-10	5.684013e-01	-3.364343e+01
1.870000e-06	1.287884e-07	-4.481131e-10	8.935205e-01	-3.249824e+01
1.880000e-06	1.756744e-07	-4.314895e-10	1.218810e+00	-3.131832e+01
1.890000e-06	2.225743e-07	-4.142350e-10	1.544197e+00	-3.010413e+01
1.900000e-06	2.694761e-07	-3.945185e-10	1.869596e+00	-2.885627e+01
1.910000e-06	3.163269e-07	-3.736324e-10	2.194642e+00	-2.757539e+01
1.920000e-06	3.631300e-07	-3.541677e-10	2.519357e+00	-2.626225e+01
1.930000e-06	4.099266e-07	-3.372210e-10	2.844027e+00	-2.491772e+01
1.940000e-06	4.566714e-07	-3.208057e-10	3.168337e+00	-2.354273e+01
1.950000e-06	5.033798e-07	-3.031814e-10	3.492395e+00	-2.213831e+01
1.960000e-06	5.500438e-07	-2.851054e-10	3.816145e+00	-2.070556e+01
1.970000e-06	5.966602e-07	-2.644188e-10	4.139564e+00	-1.924566e+01
1.980000e-06	6.432345e-07	-2.425558e-10	4.462692e+00	-1.775989e+01
1.990000e-06	6.897487e-07	-2.207253e-10	4.785403e+00	-1.624956e+01
2.000000e-06	7.362194e-07	-1.972478e-10	5.107811e+00	-1.471610e+01
2.010000e-06	7.825575e-07	-1.742462e-10	5.429300e+00	-1.316099e+01
2.020000e-06	8.288598e-07	-1.527915e-10	5.750540e+00	-1.158576e+01
2.030000e-06	8.752671e-07	-1.314642e-10	6.072509e+00	-9.992031e+00
2.040000e-06	9.216329e-07	-1.105938e-10	6.394191e+00	-8.381492e+00
2.050000e-06	9.677977e-07	-9.008577e-11	6.714477e+00	-6.755887e+00
2.060000e-06	1.013864e-06	-6.860745e-11	7.034082e+00	-5.117024e+00
2.070000e-06	1.059939e-06	-4.505686e-11	7.353740e+00	-3.466772e+00
2.080000e-06	1.105926e-06	-2.035494e-11	7.672797e+00	-1.807058e+00
2.090000e-06	1.151767e-06	4.258106e-12	7.990835e+00	-1.398650e-01
2.100000e-06	1.197549e-06	3.025378e-11	8.308465e+00	1.532775e+00
2.110000e-06	1.243290e-06	5.731718e-11	8.625814e+00	3.208782e+00
2.120000e-06	1.288937e-06	8.314339e-11	8.942510e+00	4.886037e+00
2.130000e-06	1.334472e-06	1.079545e-10	9.258422e+00	6.562384e+00
2.140000e-06	1.379882e-06	1.310058e-10	9.573472e+00	8.235640e+00
2.150000e-06	1.425222e-06	1.508569e-10	9.888039e+00	9.903603e+00
2.160000e-06	1.470541e-06	1.717716e-10	1.020245e+01	1.156406e+01
2.170000e-06	1.515731e-06	1.956552e-10	1.051598e+01	1.321480e+01
2.180000e-06	1.560765e-06	2.199109e-10	1.082842e+01	1.485362e+01
2.190000e-06	1.605701e-06	2.443312e-10	1.114018e+01	1.647834e+01
2.200000e-06	1.650535e-06	2.675400e-10	1.145124e+01	1.808680e+01
2.210000e-06	1.695256e-06	2.871907e-10	1.176151e+01	1.967693e+01
2.220000e-06	1.739820e-06	3.066473e-10	1.207069e+01	2.124667e+01
2.230000e-06	1.784220e-06	3.283173e-10	1.237873e+01	2.279406e+01
2.240000e-06	1.828501e-06	3.492272e-10	1.268594e+01	2.431723e+01
2.250000e-06	1.872683e-06	3.681818e-10	1.299247e+01	2.581439e+01
2.260000e-06	1.916713e-06	3.872809e-10	1.329795e+01	2.728389e+01
2.270000e-06	1.960650e-06	4.064426e-10	1.360278e+01	2.872418e+01
2.280000e-06	2.004557e-06	4.252178e-10	1.390740e+01	3.013387e+01
2.290000e-06	2.048367e-06	4.441855e-10	1.421135e+01	3.151168e+01
2.300000e-06	2.092073e-06	4.633982e-10	1.451458e+01	3.285653e+01
2.310000e-06	2.135739e-06	4.814841e-10	1.481753e+01	3.416746e+01
2.320000e-06	2.179385e-06	4.981266e-10	1.512034e+01	3.544369e+01
2.330000e-06	2.222916e-06	5.142128e-10	1.542236e+01	3.668463e+01
2.340000e-06	2.266241e-06	5.311098e-10	1.572294e+01	3.788982e+01
2.350000e-06	2.309397e-06	5.483331e-10	1.602235e+01	3.905900e+01
2.360000e-06	2.352376e-06	5.649153e-10	1.632053e+01	4.019208e+01
2.370000e-06	2.395112e-06	5.807646e-10	1.661703e+01	4.128910e+01
2.380000e-06	2.437553e-06	5.956309e-10	1.691148e+01	4.235029e+01
2.390000e-06	2.479625e-06	6.117817e-10	1.720337e+01	4.337600e+01
2.400000e-06	2.521427e-06	6.265713e-10	1.749339e+01	4.436672e+01
2.410000e-06	2.562989e-06	6.387884e-10	1.778174e+01	4.532309e+01
2.420000e-06	2.604275e-06	6.486936e-10	1.806818e+01	4.624582e+01
2.430000e-06	2.645282e-06	6.570837e-10	1.835268e+01	4.713573e+01
2.440000e-06	2.685989e-06	6.667708e-10	1.863510e+01	4.799373e+01
2.450000e-06	2.726402e-06	6.772788e-10	1.891549e+01	4.882078e+01
2.460000e-06	2.766653e-06	6.886271e-10	1.919474e+01	4.961787e+01
2.470000e-06	2.806849e-06	6.997373e-10	1.947362e+01	5.038604e+01
2.480000e-06	2.846869e-06	7.090225e-10	1.975127e+01	5.112633e+01
2.490000e-06	2.886686e-06	7.165443e-10	2.002752e+01	5.183978e+01
2.500000e-06	2.926294e-06	7.229726e-10	2.030232e+01	5.252741e+01
2.510000e-06	2.965770e-06	7.307465e-10	2.057619e+01	5.319019e+01
2.520000e-06	3.005149e-06	7.392680e-10	2.084940e+01	5.382905e+01
2.530000e-06	3.044375e-06	7.468509e-10	2.112155e+01	5.444488e+01
2.540000e-06	3.083389e-06	7.551873e-10	2.139222e+01	5.503848e+01
2.550000e-06	3.122119e-06	7.645246e-10	2.166093e+01	5.561058e+01
2.560000e-06	3.160666e-06	7.717687e-10	2.192836e+01	5.616183e+01
2.570000e-06	3.199060e-06	7.783695e-10	2.219474e+01	5.669281e+01
2.580000e-06	3.237178e-06	7.859107e-10	2.245919e+01	5.720400e+01
2.590000e-06	3.274968e-06	7.923262e-10	2.272138e+01	5.769582e+01
2.600000e-06	3.312542e-06	7.983699e-10	2.298206e+01	5.816858e+01
2.610000e-06	3.349914e-06	8.057820e-10	2.324134e+01	5.862256e+01
2.620000e-06	3.386992e-06	8.139251e-10	2.349859e+01	5.905794e+01
2.630000e-06	3.423866e-06	8.210888e-10	2.375442e+01	5.947487e+01
2.640000e-06	3.460573e-06	8.279253e-10	2.400909e+01	5.987345e+01
2.650000e-06	3.497086e-06	8.342254e-10	2.426241e+01	6.025374e+01
2.660000e-06	3.533347e-06	8.379129e-10	2.451398e+01	6.061580e+01
2.670000e-06	3.569334e-06	8.404716e-10	2.476366e+01	6.095966e+01
2.680000e-06	3.605192e-06	8.438098e-10	2.501243e+01	6.128537e+01
2.690000e-06	3.640932e-06	8.476073e-10	2.526040e+01	6.159301e+01
2.700000e-06	3.676535e-06	8.511489e-10	2.550741e+01	6.188266e+01
2.710000e-06	3.711968e-06	8.555038e-10	2.575324e+01	6.215448e+01
2.720000e-06	3.747173e-06	8.627854e-10	2.599748e+01	6.240867e+01
2.730000e-06	3.782098e-06	8.704765e-10	2.623979e+01	6.264547e+01
2.740000e-06	3.816588e-06	8.757331e-10	2.647908e+01	6.286523e+01
2.750000e-06	3.850601e-06	8.776037e-10	2.671506e+01	6.306834e+01
2.760000e-06	3.884140e-06	8.779327e-10	2.694775e+01	6.325529e+01
2.770000e-06	3.917184e-06	8.786648e-10	2.717701e+01	6.342665e+01
2.780000e-06	3.949804e-06	8.817100e-10	2.740331e+01	6.358305e+01
2.790000e-06	3.982108e-06	8.885434e-10	2.762744e+01	6.372520e+01
2.800000e-06	4.014153e-06	8.955908e-10	2.784976e+01	6.385391e+01
2.810000e-06	4.045981e-06	8.992285e-10	2.807058e+01	6.397002e+01
2.820000e-06	4.077657e-06	9.009547e-10	2.829034e+01	6.407444e+01
2.830000e-06	4.109160e-06	9.011392e-10	2.850892e+01	6.416812e+01
2.840000e-06	4.140457e-06	8.986571e-10	2.872605e+01	6.425203e+01
2.850000e-06	4.171487e-06	8.951364e-10	2.894133e+01	6.432720e+01
2.860000e-06	4.202204e-06	8.928649e-10	2.915444e+01	6.439461e+01
2.870000e-06	4.232623e-06	8.932982e-10	2.936549e+01	6.445528e+01
2.880000e-06	4.262698e-06	8.976384e-10	2.957414e+01	6.451017e+01
2.890000e-06	4.292507e-06	9.030273e-10	2.978096e+01	6.456022e+01
2.900000e-06	4.322046e-06	9.041843e-10	2.998589e+01	6.460632e+01
