# Temperatura_=_15.6
# Concentracion g/m^3_=_1620.0
# C_Vs_to_Am_M_A/Vsm_=_65563218390.804596
# pendiente_HvsI_1/m_=_3716.3
# ordenada_HvsI_A/m_=_1297.0
# frecuencia_Hz_=_135091.22023651502

Tiempo_(s)	Campo_(V.s)	Magnetizacion_(V.s)	Campo_(kA/m)	Magnetizacion_(A/m)
0.000000e+00	-5.530834e-06	-1.522809e-09	-3.839031e+01	-9.846821e+01
1.000000e-08	-5.530980e-06	-1.522045e-09	-3.839132e+01	-9.839298e+01
2.000000e-08	-5.530866e-06	-1.523928e-09	-3.839053e+01	-9.831793e+01
3.000000e-08	-5.530462e-06	-1.524364e-09	-3.838773e+01	-9.824341e+01
4.000000e-08	-5.529653e-06	-1.521478e-09	-3.838211e+01	-9.816974e+01
5.000000e-08	-5.528266e-06	-1.514523e-09	-3.837248e+01	-9.809718e+01
6.000000e-08	-5.526249e-06	-1.497160e-09	-3.835849e+01	-9.802595e+01
7.000000e-08	-5.523564e-06	-1.482944e-09	-3.833984e+01	-9.795618e+01
8.000000e-08	-5.520241e-06	-1.521737e-09	-3.831678e+01	-9.788796e+01
9.000000e-08	-5.516385e-06	-1.595369e-09	-3.829002e+01	-9.782129e+01
1.000000e-07	-5.512101e-06	-1.602906e-09	-3.826028e+01	-9.775612e+01
1.100000e-07	-5.507572e-06	-1.525969e-09	-3.822884e+01	-9.769234e+01
1.200000e-07	-5.502909e-06	-1.420556e-09	-3.819648e+01	-9.762975e+01
1.300000e-07	-5.498029e-06	-1.474044e-09	-3.816260e+01	-9.756813e+01
1.400000e-07	-5.492762e-06	-1.551957e-09	-3.812605e+01	-9.750716e+01
1.500000e-07	-5.487080e-06	-1.528820e-09	-3.808661e+01	-9.744651e+01
1.600000e-07	-5.481079e-06	-1.465725e-09	-3.804495e+01	-9.738579e+01
1.700000e-07	-5.474611e-06	-1.471782e-09	-3.800006e+01	-9.732456e+01
1.800000e-07	-5.467551e-06	-1.581618e-09	-3.795105e+01	-9.726238e+01
1.900000e-07	-5.460098e-06	-1.524442e-09	-3.789932e+01	-9.719878e+01
2.000000e-07	-5.452488e-06	-1.450066e-09	-3.784650e+01	-9.713326e+01
2.100000e-07	-5.444726e-06	-1.433472e-09	-3.779262e+01	-9.706533e+01
2.200000e-07	-5.436751e-06	-1.544398e-09	-3.773727e+01	-9.699452e+01
2.300000e-07	-5.428482e-06	-1.538519e-09	-3.767987e+01	-9.692035e+01
2.400000e-07	-5.419750e-06	-1.485322e-09	-3.761926e+01	-9.684237e+01
2.500000e-07	-5.410332e-06	-1.449476e-09	-3.755389e+01	-9.676016e+01
2.600000e-07	-5.400105e-06	-1.490788e-09	-3.748290e+01	-9.667333e+01
2.700000e-07	-5.389149e-06	-1.492070e-09	-3.740686e+01	-9.658154e+01
2.800000e-07	-5.377799e-06	-1.474016e-09	-3.732807e+01	-9.648450e+01
2.900000e-07	-5.366108e-06	-1.476517e-09	-3.724693e+01	-9.638195e+01
3.000000e-07	-5.354058e-06	-1.497952e-09	-3.716328e+01	-9.627371e+01
3.100000e-07	-5.341619e-06	-1.505348e-09	-3.707694e+01	-9.615965e+01
3.200000e-07	-5.328693e-06	-1.470227e-09	-3.698722e+01	-9.603969e+01
3.300000e-07	-5.315343e-06	-1.472420e-09	-3.689455e+01	-9.591383e+01
3.400000e-07	-5.301673e-06	-1.472571e-09	-3.679967e+01	-9.578212e+01
3.500000e-07	-5.287670e-06	-1.490361e-09	-3.670247e+01	-9.564465e+01
3.600000e-07	-5.273162e-06	-1.464447e-09	-3.660177e+01	-9.550160e+01
3.700000e-07	-5.257979e-06	-1.467835e-09	-3.649638e+01	-9.535318e+01
3.800000e-07	-5.242318e-06	-1.464627e-09	-3.638768e+01	-9.519966e+01
3.900000e-07	-5.226353e-06	-1.474174e-09	-3.627686e+01	-9.504135e+01
4.000000e-07	-5.209819e-06	-1.448182e-09	-3.616210e+01	-9.487860e+01
4.100000e-07	-5.192858e-06	-1.466950e-09	-3.604437e+01	-9.471179e+01
4.200000e-07	-5.175710e-06	-1.464853e-09	-3.592534e+01	-9.454133e+01
4.300000e-07	-5.158248e-06	-1.450153e-09	-3.580413e+01	-9.436764e+01
4.400000e-07	-5.140401e-06	-1.433551e-09	-3.568026e+01	-9.419118e+01
4.500000e-07	-5.122253e-06	-1.471919e-09	-3.555429e+01	-9.401238e+01
4.600000e-07	-5.103700e-06	-1.448046e-09	-3.542551e+01	-9.383170e+01
4.700000e-07	-5.084659e-06	-1.410955e-09	-3.529334e+01	-9.364957e+01
4.800000e-07	-5.065290e-06	-1.421734e-09	-3.515890e+01	-9.346643e+01
4.900000e-07	-5.045713e-06	-1.459817e-09	-3.502301e+01	-9.328266e+01
5.000000e-07	-5.025881e-06	-1.425329e-09	-3.488536e+01	-9.309866e+01
5.100000e-07	-5.005781e-06	-1.416071e-09	-3.474584e+01	-9.291477e+01
5.200000e-07	-4.985424e-06	-1.434723e-09	-3.460454e+01	-9.273129e+01
5.300000e-07	-4.964725e-06	-1.422662e-09	-3.446086e+01	-9.254849e+01
5.400000e-07	-4.943629e-06	-1.400985e-09	-3.431443e+01	-9.236660e+01
5.500000e-07	-4.922191e-06	-1.424330e-09	-3.416563e+01	-9.218579e+01
5.600000e-07	-4.900372e-06	-1.410537e-09	-3.401418e+01	-9.200619e+01
5.700000e-07	-4.878218e-06	-1.371051e-09	-3.386041e+01	-9.182787e+01
5.800000e-07	-4.855755e-06	-1.388294e-09	-3.370449e+01	-9.165086e+01
5.900000e-07	-4.832892e-06	-1.407512e-09	-3.354579e+01	-9.147513e+01
6.000000e-07	-4.809690e-06	-1.381474e-09	-3.338474e+01	-9.130061e+01
6.100000e-07	-4.786196e-06	-1.376335e-09	-3.322167e+01	-9.112717e+01
6.200000e-07	-4.762434e-06	-1.397204e-09	-3.305674e+01	-9.095463e+01
6.300000e-07	-4.738486e-06	-1.374773e-09	-3.289051e+01	-9.078278e+01
6.400000e-07	-4.714336e-06	-1.361563e-09	-3.272288e+01	-9.061137e+01
6.500000e-07	-4.689836e-06	-1.370459e-09	-3.255282e+01	-9.044011e+01
6.600000e-07	-4.664952e-06	-1.371191e-09	-3.238010e+01	-9.026867e+01
6.700000e-07	-4.639552e-06	-1.353756e-09	-3.220379e+01	-9.009672e+01
6.800000e-07	-4.613590e-06	-1.365445e-09	-3.202359e+01	-8.992387e+01
6.900000e-07	-4.587112e-06	-1.358850e-09	-3.183980e+01	-8.974974e+01
7.000000e-07	-4.560136e-06	-1.353410e-09	-3.165256e+01	-8.957394e+01
7.100000e-07	-4.532779e-06	-1.352463e-09	-3.146267e+01	-8.939607e+01
7.200000e-07	-4.505161e-06	-1.356029e-09	-3.127097e+01	-8.921573e+01
7.300000e-07	-4.477385e-06	-1.341208e-09	-3.107817e+01	-8.903251e+01
7.400000e-07	-4.449413e-06	-1.343545e-09	-3.088401e+01	-8.884605e+01
7.500000e-07	-4.421170e-06	-1.337291e-09	-3.068797e+01	-8.865597e+01
7.600000e-07	-4.392678e-06	-1.329497e-09	-3.049021e+01	-8.846192e+01
7.700000e-07	-4.363934e-06	-1.320225e-09	-3.029069e+01	-8.826359e+01
7.800000e-07	-4.334867e-06	-1.320856e-09	-3.008893e+01	-8.806068e+01
7.900000e-07	-4.305414e-06	-1.314014e-09	-2.988449e+01	-8.785292e+01
8.000000e-07	-4.275629e-06	-1.316302e-09	-2.967775e+01	-8.764010e+01
8.100000e-07	-4.245622e-06	-1.315018e-09	-2.946947e+01	-8.742202e+01
8.200000e-07	-4.215383e-06	-1.305477e-09	-2.925957e+01	-8.719853e+01
8.300000e-07	-4.184885e-06	-1.294439e-09	-2.904789e+01	-8.696952e+01
8.400000e-07	-4.154096e-06	-1.292518e-09	-2.883417e+01	-8.673492e+01
8.500000e-07	-4.122971e-06	-1.288172e-09	-2.861813e+01	-8.649469e+01
8.600000e-07	-4.091522e-06	-1.282396e-09	-2.839984e+01	-8.624884e+01
8.700000e-07	-4.059860e-06	-1.279493e-09	-2.818007e+01	-8.599742e+01
8.800000e-07	-4.028023e-06	-1.273797e-09	-2.795908e+01	-8.574050e+01
8.900000e-07	-3.996038e-06	-1.264987e-09	-2.773707e+01	-8.547820e+01
9.000000e-07	-3.963848e-06	-1.256980e-09	-2.751364e+01	-8.521065e+01
9.100000e-07	-3.931362e-06	-1.255408e-09	-2.728815e+01	-8.493803e+01
9.200000e-07	-3.898574e-06	-1.247714e-09	-2.706056e+01	-8.466052e+01
9.300000e-07	-3.865442e-06	-1.247204e-09	-2.683059e+01	-8.437833e+01
9.400000e-07	-3.831905e-06	-1.247961e-09	-2.659780e+01	-8.409168e+01
9.500000e-07	-3.797869e-06	-1.246217e-09	-2.636155e+01	-8.380080e+01
9.600000e-07	-3.763328e-06	-1.235387e-09	-2.612180e+01	-8.350593e+01
9.700000e-07	-3.728352e-06	-1.229400e-09	-2.587902e+01	-8.320730e+01
9.800000e-07	-3.693051e-06	-1.218289e-09	-2.563399e+01	-8.290513e+01
9.900000e-07	-3.657577e-06	-1.209280e-09	-2.538777e+01	-8.259965e+01
1.000000e-06	-3.621942e-06	-1.201355e-09	-2.514041e+01	-8.229107e+01
1.010000e-06	-3.586092e-06	-1.204129e-09	-2.489158e+01	-8.197956e+01
1.020000e-06	-3.550104e-06	-1.202095e-09	-2.464178e+01	-8.166529e+01
1.030000e-06	-3.514026e-06	-1.199551e-09	-2.439136e+01	-8.134839e+01
1.040000e-06	-3.477739e-06	-1.193258e-09	-2.413948e+01	-8.102899e+01
1.050000e-06	-3.441127e-06	-1.184901e-09	-2.388536e+01	-8.070714e+01
1.060000e-06	-3.404220e-06	-1.170848e-09	-2.362918e+01	-8.038291e+01
1.070000e-06	-3.367033e-06	-1.163992e-09	-2.337106e+01	-8.005629e+01
1.080000e-06	-3.329592e-06	-1.159361e-09	-2.311118e+01	-7.972726e+01
1.090000e-06	-3.291956e-06	-1.156550e-09	-2.284994e+01	-7.939576e+01
1.100000e-06	-3.254143e-06	-1.153033e-09	-2.258747e+01	-7.906169e+01
1.110000e-06	-3.216122e-06	-1.148896e-09	-2.232356e+01	-7.872491e+01
1.120000e-06	-3.177829e-06	-1.138616e-09	-2.205776e+01	-7.838525e+01
1.130000e-06	-3.139280e-06	-1.126848e-09	-2.179019e+01	-7.804252e+01
1.140000e-06	-3.100489e-06	-1.119108e-09	-2.152093e+01	-7.769649e+01
1.150000e-06	-3.061382e-06	-1.113015e-09	-2.124949e+01	-7.734689e+01
1.160000e-06	-3.022053e-06	-1.109924e-09	-2.097650e+01	-7.699345e+01
1.170000e-06	-2.982644e-06	-1.104967e-09	-2.070296e+01	-7.663586e+01
1.180000e-06	-2.943175e-06	-1.102493e-09	-2.042900e+01	-7.627380e+01
1.190000e-06	-2.903538e-06	-1.096287e-09	-2.015387e+01	-7.590694e+01
1.200000e-06	-2.863718e-06	-1.089286e-09	-1.987747e+01	-7.553494e+01
1.210000e-06	-2.823775e-06	-1.078304e-09	-1.960023e+01	-7.515744e+01
1.220000e-06	-2.783720e-06	-1.069999e-09	-1.932220e+01	-7.477410e+01
1.230000e-06	-2.743536e-06	-1.067242e-09	-1.904328e+01	-7.438456e+01
1.240000e-06	-2.703172e-06	-1.065628e-09	-1.876311e+01	-7.398848e+01
1.250000e-06	-2.662641e-06	-1.057765e-09	-1.848177e+01	-7.358551e+01
1.260000e-06	-2.621923e-06	-1.047234e-09	-1.819914e+01	-7.317534e+01
1.270000e-06	-2.580850e-06	-1.034027e-09	-1.791405e+01	-7.275763e+01
1.280000e-06	-2.539386e-06	-1.025668e-09	-1.762624e+01	-7.233210e+01
1.290000e-06	-2.497569e-06	-1.017331e-09	-1.733598e+01	-7.189845e+01
1.300000e-06	-2.455534e-06	-1.012317e-09	-1.704421e+01	-7.145642e+01
1.310000e-06	-2.413319e-06	-1.009898e-09	-1.675119e+01	-7.100575e+01
1.320000e-06	-2.370817e-06	-1.004018e-09	-1.645618e+01	-7.054620e+01
1.330000e-06	-2.328118e-06	-9.954290e-10	-1.615980e+01	-7.007757e+01
1.340000e-06	-2.285089e-06	-9.836996e-10	-1.586113e+01	-6.959965e+01
1.350000e-06	-2.241726e-06	-9.755540e-10	-1.556014e+01	-6.911223e+01
1.360000e-06	-2.198212e-06	-9.722663e-10	-1.525810e+01	-6.861516e+01
1.370000e-06	-2.154620e-06	-9.660741e-10	-1.495552e+01	-6.810825e+01
1.380000e-06	-2.110947e-06	-9.581307e-10	-1.465238e+01	-6.759134e+01
1.390000e-06	-2.067154e-06	-9.472770e-10	-1.434841e+01	-6.706426e+01
1.400000e-06	-2.023243e-06	-9.357295e-10	-1.404362e+01	-6.652686e+01
1.410000e-06	-1.979247e-06	-9.228561e-10	-1.373824e+01	-6.597897e+01
1.420000e-06	-1.935229e-06	-9.125310e-10	-1.343270e+01	-6.542040e+01
1.430000e-06	-1.891182e-06	-9.061835e-10	-1.312696e+01	-6.485098e+01
1.440000e-06	-1.847033e-06	-8.978108e-10	-1.282052e+01	-6.427049e+01
1.450000e-06	-1.802745e-06	-8.883764e-10	-1.251311e+01	-6.367871e+01
1.460000e-06	-1.758316e-06	-8.753411e-10	-1.220472e+01	-6.307538e+01
1.470000e-06	-1.713695e-06	-8.606955e-10	-1.189500e+01	-6.246025e+01
1.480000e-06	-1.668927e-06	-8.456674e-10	-1.158426e+01	-6.183299e+01
1.490000e-06	-1.624111e-06	-8.331703e-10	-1.127319e+01	-6.119326e+01
1.500000e-06	-1.579205e-06	-8.209303e-10	-1.096149e+01	-6.054070e+01
1.510000e-06	-1.534123e-06	-8.100551e-10	-1.064857e+01	-5.987489e+01
1.520000e-06	-1.488841e-06	-8.003567e-10	-1.033426e+01	-5.919537e+01
1.530000e-06	-1.443492e-06	-7.882714e-10	-1.001949e+01	-5.850165e+01
1.540000e-06	-1.398089e-06	-7.740570e-10	-9.704333e+00	-5.779319e+01
1.550000e-06	-1.352660e-06	-7.572815e-10	-9.389005e+00	-5.706942e+01
1.560000e-06	-1.307123e-06	-7.409849e-10	-9.072928e+00	-5.632972e+01
1.570000e-06	-1.261390e-06	-7.276501e-10	-8.755486e+00	-5.557342e+01
1.580000e-06	-1.215568e-06	-7.169496e-10	-8.437431e+00	-5.479983e+01
1.590000e-06	-1.169685e-06	-7.068599e-10	-8.118949e+00	-5.400820e+01
1.600000e-06	-1.123778e-06	-6.970256e-10	-7.800306e+00	-5.319776e+01
1.610000e-06	-1.077814e-06	-6.890338e-10	-7.481258e+00	-5.236770e+01
1.620000e-06	-1.031732e-06	-6.804346e-10	-7.161402e+00	-5.151717e+01
1.630000e-06	-9.855289e-07	-6.722679e-10	-6.840697e+00	-5.064532e+01
1.640000e-06	-9.393069e-07	-6.603532e-10	-6.519863e+00	-4.975123e+01
1.650000e-06	-8.930371e-07	-6.454724e-10	-6.198698e+00	-4.883401e+01
1.660000e-06	-8.465545e-07	-6.284580e-10	-5.876055e+00	-4.789273e+01
1.670000e-06	-8.000263e-07	-6.093984e-10	-5.553097e+00	-4.692644e+01
1.680000e-06	-7.536301e-07	-5.898123e-10	-5.231054e+00	-4.593419e+01
1.690000e-06	-7.071980e-07	-5.725783e-10	-4.908762e+00	-4.491505e+01
1.700000e-06	-6.606714e-07	-5.572458e-10	-4.585815e+00	-4.386808e+01
1.710000e-06	-6.141162e-07	-5.446140e-10	-4.262668e+00	-4.279233e+01
1.720000e-06	-5.675448e-07	-5.326403e-10	-3.939409e+00	-4.168691e+01
1.730000e-06	-5.209484e-07	-5.151468e-10	-3.615978e+00	-4.055092e+01
1.740000e-06	-4.742705e-07	-4.935203e-10	-3.291979e+00	-3.938351e+01
1.750000e-06	-4.275120e-07	-4.700678e-10	-2.967421e+00	-3.818385e+01
1.760000e-06	-3.807179e-07	-4.458571e-10	-2.642617e+00	-3.695118e+01
1.770000e-06	-3.338339e-07	-4.242280e-10	-2.317189e+00	-3.568476e+01
1.780000e-06	-2.869151e-07	-4.067025e-10	-1.991519e+00	-3.438394e+01
1.790000e-06	-2.400006e-07	-3.904681e-10	-1.665879e+00	-3.304812e+01
1.800000e-06	-1.930959e-07	-3.739002e-10	-1.340306e+00	-3.167678e+01
1.810000e-06	-1.461853e-07	-3.557461e-10	-1.014693e+00	-3.026948e+01
1.820000e-06	-9.923381e-08	-3.359388e-10	-6.887960e-01	-2.882588e+01
1.830000e-06	-5.232435e-08	-3.151800e-10	-3.631908e-01	-2.734574e+01
1.840000e-06	-5.407925e-09	-2.938722e-10	-3.753718e-02	-2.582891e+01
1.850000e-06	4.146433e-08	-2.710781e-10	2.878098e-01	-2.427538e+01
1.860000e-06	8.831309e-08	-2.480270e-10	6.129938e-01	-2.268525e+01
1.870000e-06	1.351399e-07	-2.231856e-10	9.380254e-01	-2.105876e+01
1.880000e-06	1.819870e-07	-1.979709e-10	1.263198e+00	-1.939627e+01
1.890000e-06	2.288386e-07	-1.739259e-10	1.588401e+00	-1.769830e+01
1.900000e-06	2.756901e-07	-1.493483e-10	1.913604e+00	-1.596552e+01
1.910000e-06	3.225602e-07	-1.253979e-10	2.238936e+00	-1.419875e+01
1.920000e-06	3.693876e-07	-1.022287e-10	2.563972e+00	-1.239898e+01
1.930000e-06	4.162511e-07	-7.852730e-11	2.889258e+00	-1.056734e+01
1.940000e-06	4.629799e-07	-5.270786e-11	3.213610e+00	-8.705150e+00
1.950000e-06	5.095627e-07	-2.317593e-11	3.536947e+00	-6.813888e+00
1.960000e-06	5.561766e-07	4.773267e-12	3.860501e+00	-4.895196e+00
1.970000e-06	6.027937e-07	3.249939e-11	4.184077e+00	-2.950883e+00
1.980000e-06	6.493087e-07	6.003240e-11	4.506944e+00	-9.829169e-01
1.990000e-06	6.957419e-07	8.675770e-11	4.829244e+00	1.006576e+00
2.000000e-06	7.422155e-07	1.155236e-10	5.151824e+00	3.015318e+00
2.010000e-06	7.886717e-07	1.453569e-10	5.474283e+00	5.040893e+00
2.020000e-06	8.349926e-07	1.731368e-10	5.795803e+00	7.080749e+00
2.030000e-06	8.812275e-07	2.000578e-10	6.116726e+00	9.132213e+00
2.040000e-06	9.273929e-07	2.285094e-10	6.437167e+00	1.119251e+01
2.050000e-06	9.735268e-07	2.587052e-10	6.757389e+00	1.325875e+01
2.060000e-06	1.019665e-06	2.900477e-10	7.077638e+00	1.532800e+01
2.070000e-06	1.065727e-06	3.204970e-10	7.397361e+00	1.739723e+01
2.080000e-06	1.111608e-06	3.492230e-10	7.715828e+00	1.946340e+01
2.090000e-06	1.157428e-06	3.776532e-10	8.033873e+00	2.152341e+01
2.100000e-06	1.203282e-06	4.072041e-10	8.352150e+00	2.357420e+01
2.110000e-06	1.249096e-06	4.357020e-10	8.670151e+00	2.561268e+01
2.120000e-06	1.294839e-06	4.627964e-10	8.987664e+00	2.763585e+01
2.130000e-06	1.340390e-06	4.895043e-10	9.303835e+00	2.964074e+01
2.140000e-06	1.385753e-06	5.156739e-10	9.618706e+00	3.162445e+01
2.150000e-06	1.431047e-06	5.412129e-10	9.933098e+00	3.358421e+01
2.160000e-06	1.476313e-06	5.679858e-10	1.024730e+01	3.551737e+01
2.170000e-06	1.521515e-06	5.955888e-10	1.056105e+01	3.742140e+01
2.180000e-06	1.566532e-06	6.230856e-10	1.087353e+01	3.929394e+01
2.190000e-06	1.611435e-06	6.484387e-10	1.118520e+01	4.113282e+01
2.200000e-06	1.656248e-06	6.734210e-10	1.149625e+01	4.293605e+01
2.210000e-06	1.700857e-06	6.976754e-10	1.180589e+01	4.470183e+01
2.220000e-06	1.745271e-06	7.211074e-10	1.211417e+01	4.642860e+01
2.230000e-06	1.789519e-06	7.429832e-10	1.242131e+01	4.811501e+01
2.240000e-06	1.833685e-06	7.616893e-10	1.272787e+01	4.975993e+01
2.250000e-06	1.877833e-06	7.807065e-10	1.303431e+01	5.136248e+01
2.260000e-06	1.921897e-06	8.011472e-10	1.334016e+01	5.292201e+01
2.270000e-06	1.965844e-06	8.215204e-10	1.364520e+01	5.443808e+01
2.280000e-06	2.009741e-06	8.410457e-10	1.394990e+01	5.591052e+01
2.290000e-06	2.053620e-06	8.597003e-10	1.425447e+01	5.733934e+01
2.300000e-06	2.097451e-06	8.786566e-10	1.455871e+01	5.872478e+01
2.310000e-06	2.141222e-06	8.962486e-10	1.486253e+01	6.006728e+01
2.320000e-06	2.184852e-06	9.125880e-10	1.516537e+01	6.136747e+01
2.330000e-06	2.228346e-06	9.285985e-10	1.546727e+01	6.262614e+01
2.340000e-06	2.271767e-06	9.452395e-10	1.576866e+01	6.384424e+01
2.350000e-06	2.315027e-06	9.623306e-10	1.606893e+01	6.502285e+01
2.360000e-06	2.357942e-06	9.796064e-10	1.636681e+01	6.616318e+01
2.370000e-06	2.400543e-06	9.966451e-10	1.666251e+01	6.726651e+01
2.380000e-06	2.442835e-06	1.009631e-09	1.695607e+01	6.833423e+01
2.390000e-06	2.484848e-06	1.020916e-09	1.724768e+01	6.936773e+01
2.400000e-06	2.526568e-06	1.034399e-09	1.753727e+01	7.036849e+01
2.410000e-06	2.567910e-06	1.048422e-09	1.782423e+01	7.133796e+01
2.420000e-06	2.609049e-06	1.058566e-09	1.810978e+01	7.227760e+01
2.430000e-06	2.649910e-06	1.067299e-09	1.839340e+01	7.318882e+01
2.440000e-06	2.690369e-06	1.076426e-09	1.867424e+01	7.407302e+01
2.450000e-06	2.730656e-06	1.086141e-09	1.895388e+01	7.493151e+01
2.460000e-06	2.770804e-06	1.098108e-09	1.923255e+01	7.576554e+01
2.470000e-06	2.810834e-06	1.111723e-09	1.951040e+01	7.657627e+01
2.480000e-06	2.850791e-06	1.123456e-09	1.978775e+01	7.736477e+01
2.490000e-06	2.890643e-06	1.133060e-09	2.006437e+01	7.813200e+01
2.500000e-06	2.930381e-06	1.142161e-09	2.034019e+01	7.887882e+01
2.510000e-06	2.969882e-06	1.153424e-09	2.061438e+01	7.960597e+01
2.520000e-06	3.009137e-06	1.162021e-09	2.088685e+01	8.031410e+01
2.530000e-06	3.048251e-06	1.167760e-09	2.115835e+01	8.100373e+01
2.540000e-06	3.087204e-06	1.175405e-09	2.142872e+01	8.167530e+01
2.550000e-06	3.125860e-06	1.183608e-09	2.169704e+01	8.232913e+01
2.560000e-06	3.164209e-06	1.193212e-09	2.196322e+01	8.296548e+01
2.570000e-06	3.202346e-06	1.203860e-09	2.222794e+01	8.358449e+01
2.580000e-06	3.240330e-06	1.214407e-09	2.249159e+01	8.418627e+01
2.590000e-06	3.278178e-06	1.222725e-09	2.275430e+01	8.477087e+01
2.600000e-06	3.315905e-06	1.228418e-09	2.301617e+01	8.533827e+01
2.610000e-06	3.353455e-06	1.231916e-09	2.327681e+01	8.588846e+01
2.620000e-06	3.390688e-06	1.235849e-09	2.353525e+01	8.642138e+01
2.630000e-06	3.427587e-06	1.242962e-09	2.379137e+01	8.693699e+01
2.640000e-06	3.464234e-06	1.251939e-09	2.404574e+01	8.743526e+01
2.650000e-06	3.500598e-06	1.261832e-09	2.429815e+01	8.791615e+01
2.660000e-06	3.536743e-06	1.270947e-09	2.454904e+01	8.837971e+01
2.670000e-06	3.572710e-06	1.277555e-09	2.479869e+01	8.882600e+01
2.680000e-06	3.608546e-06	1.282998e-09	2.504743e+01	8.925512e+01
2.690000e-06	3.644307e-06	1.288122e-09	2.529566e+01	8.966728e+01
2.700000e-06	3.679924e-06	1.293354e-09	2.554288e+01	9.006270e+01
2.710000e-06	3.715311e-06	1.297818e-09	2.578850e+01	9.044170e+01
2.720000e-06	3.750470e-06	1.303370e-09	2.603255e+01	9.080467e+01
2.730000e-06	3.785277e-06	1.309149e-09	2.627415e+01	9.115207e+01
2.740000e-06	3.819677e-06	1.316459e-09	2.651292e+01	9.148443e+01
2.750000e-06	3.853538e-06	1.323941e-09	2.674796e+01	9.180232e+01
2.760000e-06	3.886816e-06	1.328028e-09	2.697894e+01	9.210641e+01
2.770000e-06	3.919723e-06	1.330603e-09	2.720736e+01	9.239740e+01
2.780000e-06	3.952301e-06	1.333031e-09	2.743348e+01	9.267603e+01
2.790000e-06	3.984583e-06	1.337929e-09	2.765756e+01	9.294308e+01
2.800000e-06	4.016601e-06	1.344093e-09	2.787980e+01	9.319936e+01
2.810000e-06	4.048451e-06	1.348775e-09	2.810088e+01	9.344569e+01
2.820000e-06	4.080173e-06	1.354819e-09	2.832106e+01	9.368289e+01
2.830000e-06	4.111725e-06	1.360099e-09	2.854007e+01	9.391176e+01
2.840000e-06	4.143050e-06	1.362353e-09	2.875750e+01	9.413309e+01
2.850000e-06	4.174070e-06	1.362295e-09	2.897282e+01	9.434763e+01
2.860000e-06	4.204754e-06	1.361197e-09	2.918580e+01	9.455609e+01
2.870000e-06	4.235115e-06	1.362208e-09	2.939654e+01	9.475913e+01
2.880000e-06	4.265161e-06	1.365353e-09	2.960509e+01	9.495733e+01
2.890000e-06	4.294852e-06	1.370627e-09	2.981118e+01	9.515122e+01
2.900000e-06	4.324205e-06	1.375085e-09	3.001493e+01	9.534124e+01
