# Temperatura_=_0.1
# Concentracion g/m^3_=_1620.0
# C_Vs_to_Am_M_A/Vsm_=_65563218390.804596
# pendiente_HvsI_1/m_=_3716.3
# ordenada_HvsI_A/m_=_1297.0
# frecuencia_Hz_=_135102.51555667364

Tiempo_(s)	Campo_(V.s)	Magnetizacion_(V.s)	Campo_(kA/m)	Magnetizacion_(A/m)
0.000000e+00	-5.520521e-06	-1.397298e-09	-3.836238e+01	-9.069403e+01
1.000000e-08	-5.520710e-06	-1.393691e-09	-3.836369e+01	-9.066286e+01
2.000000e-08	-5.520675e-06	-1.392373e-09	-3.836345e+01	-9.063408e+01
3.000000e-08	-5.520281e-06	-1.393936e-09	-3.836071e+01	-9.060797e+01
4.000000e-08	-5.519488e-06	-1.396024e-09	-3.835520e+01	-9.058475e+01
5.000000e-08	-5.518221e-06	-1.393386e-09	-3.834640e+01	-9.056460e+01
6.000000e-08	-5.516389e-06	-1.377013e-09	-3.833366e+01	-9.054761e+01
7.000000e-08	-5.513974e-06	-1.350558e-09	-3.831688e+01	-9.053377e+01
8.000000e-08	-5.510939e-06	-1.379938e-09	-3.829580e+01	-9.052302e+01
9.000000e-08	-5.507370e-06	-1.476606e-09	-3.827100e+01	-9.051518e+01
1.000000e-07	-5.503268e-06	-1.494252e-09	-3.824249e+01	-9.051000e+01
1.100000e-07	-5.498847e-06	-1.370876e-09	-3.821177e+01	-9.050712e+01
1.200000e-07	-5.494364e-06	-1.297036e-09	-3.818061e+01	-9.050613e+01
1.300000e-07	-5.489670e-06	-1.344126e-09	-3.814800e+01	-9.050651e+01
1.400000e-07	-5.484520e-06	-1.445893e-09	-3.811221e+01	-9.050766e+01
1.500000e-07	-5.478902e-06	-1.378166e-09	-3.807317e+01	-9.050894e+01
1.600000e-07	-5.472924e-06	-1.319161e-09	-3.803163e+01	-9.050962e+01
1.700000e-07	-5.466549e-06	-1.362651e-09	-3.798732e+01	-9.050896e+01
1.800000e-07	-5.459685e-06	-1.442541e-09	-3.793963e+01	-9.050615e+01
1.900000e-07	-5.452400e-06	-1.406431e-09	-3.788901e+01	-9.050038e+01
2.000000e-07	-5.444891e-06	-1.312173e-09	-3.783683e+01	-9.049082e+01
2.100000e-07	-5.437158e-06	-1.337672e-09	-3.778309e+01	-9.047666e+01
2.200000e-07	-5.429167e-06	-1.408031e-09	-3.772756e+01	-9.045710e+01
2.300000e-07	-5.420966e-06	-1.425883e-09	-3.767057e+01	-9.043138e+01
2.400000e-07	-5.412402e-06	-1.356055e-09	-3.761106e+01	-9.039878e+01
2.500000e-07	-5.403230e-06	-1.351628e-09	-3.754732e+01	-9.035865e+01
2.600000e-07	-5.393310e-06	-1.372576e-09	-3.747839e+01	-9.031042e+01
2.700000e-07	-5.382708e-06	-1.388268e-09	-3.740471e+01	-9.025359e+01
2.800000e-07	-5.371576e-06	-1.349868e-09	-3.732736e+01	-9.018778e+01
2.900000e-07	-5.360026e-06	-1.365677e-09	-3.724709e+01	-9.011267e+01
3.000000e-07	-5.348093e-06	-1.379279e-09	-3.716417e+01	-9.002810e+01
3.100000e-07	-5.335755e-06	-1.374483e-09	-3.707844e+01	-8.993398e+01
3.200000e-07	-5.322993e-06	-1.329190e-09	-3.698975e+01	-8.983037e+01
3.300000e-07	-5.309815e-06	-1.344519e-09	-3.689818e+01	-8.971742e+01
3.400000e-07	-5.296291e-06	-1.371386e-09	-3.680420e+01	-8.959540e+01
3.500000e-07	-5.282445e-06	-1.358069e-09	-3.670798e+01	-8.946469e+01
3.600000e-07	-5.268124e-06	-1.336441e-09	-3.660846e+01	-8.932579e+01
3.700000e-07	-5.253366e-06	-1.364146e-09	-3.650591e+01	-8.917926e+01
3.800000e-07	-5.238179e-06	-1.352938e-09	-3.640037e+01	-8.902578e+01
3.900000e-07	-5.222356e-06	-1.310613e-09	-3.629042e+01	-8.886608e+01
4.000000e-07	-5.206040e-06	-1.339769e-09	-3.617704e+01	-8.870096e+01
4.100000e-07	-5.189313e-06	-1.376542e-09	-3.606080e+01	-8.853127e+01
4.200000e-07	-5.172182e-06	-1.329900e-09	-3.594175e+01	-8.835790e+01
4.300000e-07	-5.154843e-06	-1.308665e-09	-3.582127e+01	-8.818173e+01
4.400000e-07	-5.137282e-06	-1.374406e-09	-3.569923e+01	-8.800367e+01
4.500000e-07	-5.119357e-06	-1.353115e-09	-3.557467e+01	-8.782461e+01
4.600000e-07	-5.100973e-06	-1.291818e-09	-3.544692e+01	-8.764541e+01
4.700000e-07	-5.082132e-06	-1.313701e-09	-3.531599e+01	-8.746688e+01
4.800000e-07	-5.062934e-06	-1.344805e-09	-3.518259e+01	-8.728979e+01
4.900000e-07	-5.043426e-06	-1.292230e-09	-3.504702e+01	-8.711482e+01
5.000000e-07	-5.023679e-06	-1.304291e-09	-3.490980e+01	-8.694260e+01
5.100000e-07	-5.003748e-06	-1.336016e-09	-3.477130e+01	-8.677364e+01
5.200000e-07	-4.983535e-06	-1.297416e-09	-3.463084e+01	-8.660837e+01
5.300000e-07	-4.963033e-06	-1.275577e-09	-3.448837e+01	-8.644712e+01
5.400000e-07	-4.942177e-06	-1.332371e-09	-3.434344e+01	-8.629009e+01
5.500000e-07	-4.920855e-06	-1.310547e-09	-3.419527e+01	-8.613740e+01
5.600000e-07	-4.899170e-06	-1.262676e-09	-3.404458e+01	-8.598903e+01
5.700000e-07	-4.877165e-06	-1.283711e-09	-3.389167e+01	-8.584488e+01
5.800000e-07	-4.854869e-06	-1.301636e-09	-3.373673e+01	-8.570473e+01
5.900000e-07	-4.832234e-06	-1.265047e-09	-3.357944e+01	-8.556826e+01
6.000000e-07	-4.809262e-06	-1.278373e-09	-3.341981e+01	-8.543507e+01
6.100000e-07	-4.785977e-06	-1.296973e-09	-3.325800e+01	-8.530467e+01
6.200000e-07	-4.762397e-06	-1.273749e-09	-3.309414e+01	-8.517649e+01
6.300000e-07	-4.738616e-06	-1.266843e-09	-3.292889e+01	-8.504992e+01
6.400000e-07	-4.714602e-06	-1.284789e-09	-3.276201e+01	-8.492427e+01
6.500000e-07	-4.690264e-06	-1.267586e-09	-3.259289e+01	-8.479884e+01
6.600000e-07	-4.665491e-06	-1.257800e-09	-3.242074e+01	-8.467290e+01
6.700000e-07	-4.640315e-06	-1.273133e-09	-3.224578e+01	-8.454570e+01
6.800000e-07	-4.614685e-06	-1.266190e-09	-3.206768e+01	-8.441650e+01
6.900000e-07	-4.588473e-06	-1.254038e-09	-3.188553e+01	-8.428459e+01
7.000000e-07	-4.561729e-06	-1.261855e-09	-3.169968e+01	-8.414926e+01
7.100000e-07	-4.534493e-06	-1.262091e-09	-3.151042e+01	-8.400985e+01
7.200000e-07	-4.506874e-06	-1.248937e-09	-3.131850e+01	-8.386577e+01
7.300000e-07	-4.479106e-06	-1.251127e-09	-3.112554e+01	-8.371647e+01
7.400000e-07	-4.451216e-06	-1.249976e-09	-3.093172e+01	-8.356146e+01
7.500000e-07	-4.423085e-06	-1.241661e-09	-3.073624e+01	-8.340035e+01
7.600000e-07	-4.394648e-06	-1.236459e-09	-3.053863e+01	-8.323279e+01
7.700000e-07	-4.365960e-06	-1.237841e-09	-3.033928e+01	-8.305856e+01
7.800000e-07	-4.336991e-06	-1.226854e-09	-3.013797e+01	-8.287748e+01
7.900000e-07	-4.307653e-06	-1.227049e-09	-2.993410e+01	-8.268948e+01
8.000000e-07	-4.278010e-06	-1.230341e-09	-2.972811e+01	-8.249456e+01
8.100000e-07	-4.248136e-06	-1.222357e-09	-2.952051e+01	-8.229282e+01
8.200000e-07	-4.218081e-06	-1.204971e-09	-2.931166e+01	-8.208441e+01
8.300000e-07	-4.187767e-06	-1.206372e-09	-2.910101e+01	-8.186956e+01
8.400000e-07	-4.157084e-06	-1.204523e-09	-2.888779e+01	-8.164858e+01
8.500000e-07	-4.126002e-06	-1.198630e-09	-2.867180e+01	-8.142180e+01
8.600000e-07	-4.094659e-06	-1.196122e-09	-2.845400e+01	-8.118965e+01
8.700000e-07	-4.063111e-06	-1.195455e-09	-2.823476e+01	-8.095255e+01
8.800000e-07	-4.031387e-06	-1.181504e-09	-2.801431e+01	-8.071098e+01
8.900000e-07	-3.999554e-06	-1.175520e-09	-2.779310e+01	-8.046543e+01
9.000000e-07	-3.967521e-06	-1.176111e-09	-2.757051e+01	-8.021641e+01
9.100000e-07	-3.935167e-06	-1.170820e-09	-2.734568e+01	-7.996442e+01
9.200000e-07	-3.902459e-06	-1.164774e-09	-2.711839e+01	-7.970996e+01
9.300000e-07	-3.869434e-06	-1.171024e-09	-2.688889e+01	-7.945351e+01
9.400000e-07	-3.835988e-06	-1.171745e-09	-2.665648e+01	-7.919553e+01
9.500000e-07	-3.802068e-06	-1.163314e-09	-2.642076e+01	-7.893645e+01
9.600000e-07	-3.767714e-06	-1.159078e-09	-2.618203e+01	-7.867666e+01
9.700000e-07	-3.732903e-06	-1.155384e-09	-2.594013e+01	-7.841651e+01
9.800000e-07	-3.697679e-06	-1.144821e-09	-2.569536e+01	-7.815628e+01
9.900000e-07	-3.662228e-06	-1.136755e-09	-2.544901e+01	-7.789623e+01
1.000000e-06	-3.626632e-06	-1.135596e-09	-2.520165e+01	-7.763654e+01
1.010000e-06	-3.590843e-06	-1.130539e-09	-2.495295e+01	-7.737735e+01
1.020000e-06	-3.554891e-06	-1.126884e-09	-2.470312e+01	-7.711873e+01
1.030000e-06	-3.518771e-06	-1.126859e-09	-2.445212e+01	-7.686069e+01
1.040000e-06	-3.482425e-06	-1.125370e-09	-2.419955e+01	-7.660320e+01
1.050000e-06	-3.445898e-06	-1.115643e-09	-2.394572e+01	-7.634617e+01
1.060000e-06	-3.409179e-06	-1.109693e-09	-2.369056e+01	-7.608943e+01
1.070000e-06	-3.372150e-06	-1.104771e-09	-2.343324e+01	-7.583281e+01
1.080000e-06	-3.334830e-06	-1.099795e-09	-2.317391e+01	-7.557606e+01
1.090000e-06	-3.297283e-06	-1.095784e-09	-2.291298e+01	-7.531889e+01
1.100000e-06	-3.259506e-06	-1.095296e-09	-2.265047e+01	-7.506099e+01
1.110000e-06	-3.221544e-06	-1.088921e-09	-2.238668e+01	-7.480201e+01
1.120000e-06	-3.183426e-06	-1.082262e-09	-2.212179e+01	-7.454158e+01
1.130000e-06	-3.145055e-06	-1.078186e-09	-2.185515e+01	-7.427929e+01
1.140000e-06	-3.106474e-06	-1.075046e-09	-2.158704e+01	-7.401474e+01
1.150000e-06	-3.067646e-06	-1.067051e-09	-2.131723e+01	-7.374750e+01
1.160000e-06	-3.028556e-06	-1.060024e-09	-2.104559e+01	-7.347714e+01
1.170000e-06	-2.989360e-06	-1.052677e-09	-2.077322e+01	-7.320322e+01
1.180000e-06	-2.950021e-06	-1.046708e-09	-2.049985e+01	-7.292533e+01
1.190000e-06	-2.910413e-06	-1.046172e-09	-2.022460e+01	-7.264303e+01
1.200000e-06	-2.870618e-06	-1.050915e-09	-1.994807e+01	-7.235592e+01
1.210000e-06	-2.830694e-06	-1.051507e-09	-1.967064e+01	-7.206358e+01
1.220000e-06	-2.790629e-06	-1.047654e-09	-1.939222e+01	-7.176564e+01
1.230000e-06	-2.750508e-06	-1.042854e-09	-1.911342e+01	-7.146172e+01
1.240000e-06	-2.710227e-06	-1.035136e-09	-1.883351e+01	-7.115148e+01
1.250000e-06	-2.669704e-06	-1.025206e-09	-1.855191e+01	-7.083459e+01
1.260000e-06	-2.628933e-06	-1.017417e-09	-1.826859e+01	-7.051074e+01
1.270000e-06	-2.587950e-06	-1.010851e-09	-1.798380e+01	-7.017964e+01
1.280000e-06	-2.546764e-06	-1.004502e-09	-1.769759e+01	-6.984103e+01
1.290000e-06	-2.505282e-06	-9.981513e-10	-1.740933e+01	-6.949467e+01
1.300000e-06	-2.463478e-06	-9.906083e-10	-1.711884e+01	-6.914033e+01
1.310000e-06	-2.421396e-06	-9.823918e-10	-1.682640e+01	-6.877782e+01
1.320000e-06	-2.378991e-06	-9.745132e-10	-1.653173e+01	-6.840694e+01
1.330000e-06	-2.336296e-06	-9.681487e-10	-1.623504e+01	-6.802754e+01
1.340000e-06	-2.293433e-06	-9.604990e-10	-1.593718e+01	-6.763946e+01
1.350000e-06	-2.250349e-06	-9.558454e-10	-1.563779e+01	-6.724256e+01
1.360000e-06	-2.206972e-06	-9.536107e-10	-1.533636e+01	-6.683672e+01
1.370000e-06	-2.163424e-06	-9.486847e-10	-1.503375e+01	-6.642182e+01
1.380000e-06	-2.119783e-06	-9.383566e-10	-1.473048e+01	-6.599775e+01
1.390000e-06	-2.076054e-06	-9.269682e-10	-1.442660e+01	-6.556440e+01
1.400000e-06	-2.032258e-06	-9.172666e-10	-1.412227e+01	-6.512166e+01
1.410000e-06	-1.988365e-06	-9.103203e-10	-1.381725e+01	-6.466942e+01
1.420000e-06	-1.944416e-06	-9.038118e-10	-1.351185e+01	-6.420756e+01
1.430000e-06	-1.900388e-06	-8.986679e-10	-1.320589e+01	-6.373596e+01
1.440000e-06	-1.856199e-06	-8.929048e-10	-1.289882e+01	-6.325447e+01
1.450000e-06	-1.811923e-06	-8.862683e-10	-1.259114e+01	-6.276294e+01
1.460000e-06	-1.767568e-06	-8.761107e-10	-1.228292e+01	-6.226119e+01
1.470000e-06	-1.723108e-06	-8.640658e-10	-1.197397e+01	-6.174903e+01
1.480000e-06	-1.678588e-06	-8.522201e-10	-1.166459e+01	-6.122622e+01
1.490000e-06	-1.633964e-06	-8.409429e-10	-1.135450e+01	-6.069250e+01
1.500000e-06	-1.589164e-06	-8.279287e-10	-1.104318e+01	-6.014759e+01
1.510000e-06	-1.544159e-06	-8.176727e-10	-1.073044e+01	-5.959116e+01
1.520000e-06	-1.499016e-06	-8.102940e-10	-1.041674e+01	-5.902282e+01
1.530000e-06	-1.453794e-06	-8.032326e-10	-1.010249e+01	-5.844218e+01
1.540000e-06	-1.408496e-06	-7.942191e-10	-9.787712e+00	-5.784876e+01
1.550000e-06	-1.363108e-06	-7.835311e-10	-9.472307e+00	-5.724205e+01
1.560000e-06	-1.317623e-06	-7.732463e-10	-9.156226e+00	-5.662150e+01
1.570000e-06	-1.272030e-06	-7.622203e-10	-8.839403e+00	-5.598648e+01
1.580000e-06	-1.226351e-06	-7.505518e-10	-8.521976e+00	-5.533634e+01
1.590000e-06	-1.180601e-06	-7.393820e-10	-8.204056e+00	-5.467035e+01
1.600000e-06	-1.134762e-06	-7.291488e-10	-7.885516e+00	-5.398774e+01
1.610000e-06	-1.088852e-06	-7.197061e-10	-7.566491e+00	-5.328768e+01
1.620000e-06	-1.042887e-06	-7.113770e-10	-7.247075e+00	-5.256931e+01
1.630000e-06	-9.968282e-07	-7.034590e-10	-6.927010e+00	-5.183169e+01
1.640000e-06	-9.506630e-07	-6.944875e-10	-6.606206e+00	-5.107386e+01
1.650000e-06	-9.044359e-07	-6.813164e-10	-6.284971e+00	-5.029482e+01
1.660000e-06	-8.581137e-07	-6.652815e-10	-5.963076e+00	-4.949353e+01
1.670000e-06	-8.117504e-07	-6.494276e-10	-5.640895e+00	-4.866891e+01
1.680000e-06	-7.653893e-07	-6.358687e-10	-5.318729e+00	-4.781987e+01
1.690000e-06	-7.189858e-07	-6.228109e-10	-4.996269e+00	-4.694530e+01
1.700000e-06	-6.725370e-07	-6.090188e-10	-4.673494e+00	-4.604410e+01
1.710000e-06	-6.260726e-07	-5.938431e-10	-4.350610e+00	-4.511515e+01
1.720000e-06	-5.795152e-07	-5.789465e-10	-4.027081e+00	-4.415734e+01
1.730000e-06	-5.328815e-07	-5.628689e-10	-3.703020e+00	-4.316960e+01
1.740000e-06	-4.862223e-07	-5.466343e-10	-3.378783e+00	-4.215088e+01
1.750000e-06	-4.394529e-07	-5.305054e-10	-3.053781e+00	-4.110017e+01
1.760000e-06	-3.926779e-07	-5.131077e-10	-2.728738e+00	-4.001651e+01
1.770000e-06	-3.458911e-07	-4.955715e-10	-2.403615e+00	-3.889902e+01
1.780000e-06	-2.990475e-07	-4.793011e-10	-2.078096e+00	-3.774686e+01
1.790000e-06	-2.521971e-07	-4.616735e-10	-1.752530e+00	-3.655931e+01
1.800000e-06	-2.053662e-07	-4.440424e-10	-1.427100e+00	-3.533572e+01
1.810000e-06	-1.585401e-07	-4.269899e-10	-1.101704e+00	-3.407555e+01
1.820000e-06	-1.116604e-07	-4.092446e-10	-7.759338e-01	-3.277838e+01
1.830000e-06	-6.477861e-08	-3.914610e-10	-4.501498e-01	-3.144391e+01
1.840000e-06	-1.797743e-08	-3.729904e-10	-1.249261e-01	-3.007195e+01
1.850000e-06	2.874300e-08	-3.544748e-10	1.997366e-01	-2.866247e+01
1.860000e-06	7.544546e-08	-3.361629e-10	5.242743e-01	-2.721558e+01
1.870000e-06	1.221839e-07	-3.160845e-10	8.490621e-01	-2.573151e+01
1.880000e-06	1.689873e-07	-2.930640e-10	1.174301e+00	-2.421068e+01
1.890000e-06	2.158249e-07	-2.686537e-10	1.499778e+00	-2.265363e+01
1.900000e-06	2.626210e-07	-2.425045e-10	1.824967e+00	-2.106108e+01
1.910000e-06	3.092897e-07	-2.166392e-10	2.149270e+00	-1.943387e+01
1.920000e-06	3.559548e-07	-1.927658e-10	2.473548e+00	-1.777304e+01
1.930000e-06	4.026957e-07	-1.709751e-10	2.798353e+00	-1.607975e+01
1.940000e-06	4.494389e-07	-1.498090e-10	3.123174e+00	-1.435532e+01
1.950000e-06	4.961869e-07	-1.269078e-10	3.448028e+00	-1.260121e+01
1.960000e-06	5.428475e-07	-1.031124e-10	3.772275e+00	-1.081902e+01
1.970000e-06	5.893989e-07	-7.768191e-11	4.095763e+00	-9.010487e+00
1.980000e-06	6.359354e-07	-4.977593e-11	4.419147e+00	-7.177463e+00
1.990000e-06	6.824235e-07	-2.122966e-11	4.742196e+00	-5.321925e+00
2.000000e-06	7.287885e-07	7.926458e-12	5.064389e+00	-3.445952e+00
2.010000e-06	7.751223e-07	3.478871e-11	5.386364e+00	-1.551723e+00
2.020000e-06	8.214869e-07	5.848191e-11	5.708554e+00	3.585004e-01
2.030000e-06	8.677578e-07	8.191979e-11	6.030093e+00	2.282378e+00
2.040000e-06	9.138775e-07	1.063544e-10	6.350581e+00	4.217509e+00
2.050000e-06	9.599347e-07	1.318816e-10	6.670635e+00	6.161440e+00
2.060000e-06	1.006007e-06	1.594910e-10	6.990794e+00	8.111678e+00
2.070000e-06	1.052022e-06	1.895810e-10	7.310551e+00	1.006570e+01
2.080000e-06	1.097870e-06	2.200044e-10	7.629158e+00	1.202098e+01
2.090000e-06	1.143672e-06	2.482765e-10	7.947436e+00	1.397498e+01
2.100000e-06	1.189423e-06	2.745961e-10	8.265359e+00	1.592518e+01
2.110000e-06	1.235042e-06	2.998826e-10	8.582369e+00	1.786906e+01
2.120000e-06	1.280585e-06	3.257818e-10	8.898849e+00	1.980417e+01
2.130000e-06	1.326088e-06	3.533631e-10	9.215055e+00	2.172807e+01
2.140000e-06	1.371541e-06	3.797497e-10	9.530907e+00	2.363841e+01
2.150000e-06	1.416850e-06	4.053159e-10	9.845761e+00	2.553289e+01
2.160000e-06	1.461991e-06	4.315541e-10	1.015945e+01	2.740928e+01
2.170000e-06	1.507009e-06	4.575662e-10	1.047228e+01	2.926544e+01
2.180000e-06	1.551972e-06	4.833122e-10	1.078473e+01	3.109935e+01
2.190000e-06	1.596824e-06	5.085226e-10	1.109641e+01	3.290905e+01
2.200000e-06	1.641454e-06	5.343323e-10	1.140654e+01	3.469273e+01
2.210000e-06	1.685948e-06	5.596476e-10	1.171574e+01	3.644868e+01
2.220000e-06	1.730363e-06	5.832060e-10	1.202438e+01	3.817531e+01
2.230000e-06	1.774701e-06	6.056556e-10	1.233249e+01	3.987117e+01
2.240000e-06	1.818977e-06	6.265539e-10	1.264016e+01	4.153493e+01
2.250000e-06	1.863129e-06	6.460099e-10	1.294698e+01	4.316540e+01
2.260000e-06	1.907189e-06	6.657688e-10	1.325315e+01	4.476153e+01
2.270000e-06	1.951156e-06	6.867753e-10	1.355868e+01	4.632240e+01
2.280000e-06	1.995021e-06	7.085328e-10	1.386350e+01	4.784724e+01
2.290000e-06	2.038858e-06	7.305098e-10	1.416813e+01	4.933542e+01
2.300000e-06	2.082666e-06	7.513132e-10	1.447255e+01	5.078644e+01
2.310000e-06	2.126429e-06	7.712635e-10	1.477666e+01	5.219993e+01
2.320000e-06	2.170080e-06	7.901671e-10	1.508000e+01	5.357567e+01
2.330000e-06	2.213585e-06	8.070881e-10	1.538231e+01	5.491356e+01
2.340000e-06	2.256933e-06	8.232263e-10	1.568354e+01	5.621362e+01
2.350000e-06	2.300077e-06	8.411767e-10	1.598335e+01	5.747598e+01
2.360000e-06	2.342994e-06	8.602606e-10	1.628158e+01	5.870090e+01
2.370000e-06	2.385615e-06	8.787294e-10	1.657776e+01	5.988874e+01
2.380000e-06	2.427898e-06	8.949706e-10	1.687158e+01	6.103994e+01
2.390000e-06	2.469908e-06	9.097055e-10	1.716352e+01	6.215506e+01
2.400000e-06	2.511637e-06	9.253941e-10	1.745349e+01	6.323469e+01
2.410000e-06	2.553022e-06	9.411322e-10	1.774108e+01	6.427955e+01
2.420000e-06	2.594074e-06	9.542121e-10	1.802635e+01	6.529037e+01
2.430000e-06	2.634917e-06	9.641856e-10	1.831017e+01	6.626797e+01
2.440000e-06	2.675583e-06	9.720007e-10	1.859276e+01	6.721317e+01
2.450000e-06	2.715986e-06	9.800214e-10	1.887353e+01	6.812688e+01
2.460000e-06	2.756213e-06	9.910053e-10	1.915306e+01	6.900997e+01
2.470000e-06	2.796335e-06	1.003687e-09	1.943187e+01	6.986336e+01
2.480000e-06	2.836273e-06	1.016231e-09	1.970940e+01	7.068798e+01
2.490000e-06	2.876069e-06	1.028542e-09	1.998595e+01	7.148473e+01
2.500000e-06	2.915732e-06	1.039603e-09	2.026157e+01	7.225452e+01
2.510000e-06	2.955210e-06	1.047917e-09	2.053591e+01	7.299823e+01
2.520000e-06	2.994525e-06	1.054027e-09	2.080910e+01	7.371671e+01
2.530000e-06	3.033658e-06	1.059119e-09	2.108105e+01	7.441080e+01
2.540000e-06	3.072604e-06	1.065552e-09	2.135168e+01	7.508129e+01
2.550000e-06	3.111357e-06	1.075653e-09	2.162098e+01	7.572893e+01
2.560000e-06	3.149919e-06	1.086675e-09	2.188895e+01	7.635443e+01
2.570000e-06	3.188213e-06	1.095634e-09	2.215506e+01	7.695848e+01
2.580000e-06	3.226259e-06	1.103952e-09	2.241944e+01	7.754168e+01
2.590000e-06	3.264099e-06	1.113221e-09	2.268239e+01	7.810464e+01
2.600000e-06	3.301739e-06	1.121609e-09	2.294395e+01	7.864788e+01
2.610000e-06	3.339150e-06	1.127811e-09	2.320392e+01	7.917192e+01
2.620000e-06	3.376309e-06	1.133496e-09	2.346214e+01	7.967722e+01
2.630000e-06	3.413236e-06	1.139384e-09	2.371875e+01	8.016421e+01
2.640000e-06	3.449948e-06	1.147901e-09	2.397386e+01	8.063331e+01
2.650000e-06	3.486362e-06	1.155876e-09	2.422691e+01	8.108489e+01
2.660000e-06	3.522525e-06	1.160475e-09	2.447821e+01	8.151934e+01
2.670000e-06	3.558595e-06	1.163945e-09	2.472886e+01	8.193699e+01
2.680000e-06	3.594552e-06	1.170764e-09	2.497873e+01	8.233819e+01
2.690000e-06	3.630403e-06	1.177533e-09	2.522786e+01	8.272331e+01
2.700000e-06	3.666059e-06	1.182686e-09	2.547563e+01	8.309268e+01
2.710000e-06	3.701388e-06	1.189070e-09	2.572113e+01	8.344668e+01
2.720000e-06	3.736430e-06	1.194165e-09	2.596464e+01	8.378568e+01
2.730000e-06	3.771183e-06	1.198051e-09	2.620614e+01	8.411008e+01
2.740000e-06	3.805494e-06	1.202228e-09	2.644457e+01	8.442030e+01
2.750000e-06	3.839331e-06	1.206717e-09	2.667971e+01	8.471679e+01
2.760000e-06	3.872777e-06	1.210583e-09	2.691212e+01	8.500002e+01
2.770000e-06	3.905787e-06	1.213265e-09	2.714152e+01	8.527049e+01
2.780000e-06	3.938357e-06	1.217372e-09	2.736784e+01	8.552874e+01
2.790000e-06	3.970555e-06	1.223585e-09	2.759159e+01	8.577532e+01
2.800000e-06	4.002568e-06	1.231407e-09	2.781405e+01	8.601082e+01
2.810000e-06	4.034485e-06	1.239702e-09	2.803584e+01	8.623585e+01
2.820000e-06	4.066227e-06	1.245026e-09	2.825642e+01	8.645102e+01
2.830000e-06	4.097797e-06	1.248718e-09	2.847580e+01	8.665700e+01
2.840000e-06	4.129072e-06	1.248990e-09	2.869313e+01	8.685441e+01
2.850000e-06	4.159935e-06	1.245913e-09	2.890760e+01	8.704392e+01
2.860000e-06	4.190521e-06	1.242651e-09	2.912015e+01	8.722618e+01
2.870000e-06	4.220890e-06	1.243898e-09	2.933118e+01	8.740183e+01
2.880000e-06	4.250928e-06	1.249885e-09	2.953991e+01	8.757149e+01
2.890000e-06	4.280682e-06	1.257188e-09	2.974667e+01	8.773576e+01
2.900000e-06	4.310219e-06	1.262452e-09	2.995193e+01	8.789521e+01
