# Temperatura_=_1.19
# Concentracion g/m^3_=_1620.0
# C_Vs_to_Am_M_A/Vsm_=_65563218390.804596
# pendiente_HvsI_1/m_=_3716.3
# ordenada_HvsI_A/m_=_1297.0
# frecuencia_Hz_=_135099.56666863203

Tiempo_(s)	Campo_(V.s)	Magnetizacion_(V.s)	Campo_(kA/m)	Magnetizacion_(A/m)
0.000000e+00	-5.525316e-06	-1.403784e-09	-3.837353e+01	-9.146922e+01
1.000000e-08	-5.525336e-06	-1.397072e-09	-3.837367e+01	-9.142932e+01
2.000000e-08	-5.525117e-06	-1.395218e-09	-3.837215e+01	-9.139167e+01
3.000000e-08	-5.524489e-06	-1.397801e-09	-3.836779e+01	-9.135651e+01
4.000000e-08	-5.523422e-06	-1.399889e-09	-3.836038e+01	-9.132407e+01
5.000000e-08	-5.521897e-06	-1.395682e-09	-3.834979e+01	-9.129447e+01
6.000000e-08	-5.519670e-06	-1.383668e-09	-3.833432e+01	-9.126780e+01
7.000000e-08	-5.516737e-06	-1.381728e-09	-3.831395e+01	-9.124407e+01
8.000000e-08	-5.513278e-06	-1.419221e-09	-3.828993e+01	-9.122321e+01
9.000000e-08	-5.509365e-06	-1.453481e-09	-3.826275e+01	-9.120508e+01
1.000000e-07	-5.505089e-06	-1.440214e-09	-3.823305e+01	-9.118947e+01
1.100000e-07	-5.500527e-06	-1.361939e-09	-3.820137e+01	-9.117607e+01
1.200000e-07	-5.495799e-06	-1.309927e-09	-3.816853e+01	-9.116452e+01
1.300000e-07	-5.490847e-06	-1.370977e-09	-3.813414e+01	-9.115437e+01
1.400000e-07	-5.485469e-06	-1.424018e-09	-3.809679e+01	-9.114512e+01
1.500000e-07	-5.479678e-06	-1.391585e-09	-3.805657e+01	-9.113620e+01
1.600000e-07	-5.473471e-06	-1.332496e-09	-3.801347e+01	-9.112699e+01
1.700000e-07	-5.466849e-06	-1.340798e-09	-3.796748e+01	-9.111683e+01
1.800000e-07	-5.459793e-06	-1.417501e-09	-3.791847e+01	-9.110504e+01
1.900000e-07	-5.452347e-06	-1.390194e-09	-3.786676e+01	-9.109089e+01
2.000000e-07	-5.444673e-06	-1.354404e-09	-3.781346e+01	-9.107365e+01
2.100000e-07	-5.436789e-06	-1.359123e-09	-3.775871e+01	-9.105262e+01
2.200000e-07	-5.428725e-06	-1.425823e-09	-3.770270e+01	-9.102706e+01
2.300000e-07	-5.420334e-06	-1.409749e-09	-3.764443e+01	-9.099630e+01
2.400000e-07	-5.411362e-06	-1.364562e-09	-3.758212e+01	-9.095969e+01
2.500000e-07	-5.401793e-06	-1.352948e-09	-3.751566e+01	-9.091661e+01
2.600000e-07	-5.391558e-06	-1.400041e-09	-3.744458e+01	-9.086651e+01
2.700000e-07	-5.380659e-06	-1.413401e-09	-3.736888e+01	-9.080891e+01
2.800000e-07	-5.369252e-06	-1.388146e-09	-3.728966e+01	-9.074340e+01
2.900000e-07	-5.357430e-06	-1.377697e-09	-3.720756e+01	-9.066966e+01
3.000000e-07	-5.345264e-06	-1.388279e-09	-3.712306e+01	-9.058742e+01
3.100000e-07	-5.332726e-06	-1.388796e-09	-3.703598e+01	-9.049654e+01
3.200000e-07	-5.319746e-06	-1.352207e-09	-3.694584e+01	-9.039696e+01
3.300000e-07	-5.306328e-06	-1.363414e-09	-3.685265e+01	-9.028870e+01
3.400000e-07	-5.292591e-06	-1.383817e-09	-3.675725e+01	-9.017190e+01
3.500000e-07	-5.278453e-06	-1.401471e-09	-3.665906e+01	-9.004676e+01
3.600000e-07	-5.263899e-06	-1.372502e-09	-3.655798e+01	-8.991359e+01
3.700000e-07	-5.248908e-06	-1.371071e-09	-3.645387e+01	-8.977277e+01
3.800000e-07	-5.233320e-06	-1.360184e-09	-3.634561e+01	-8.962476e+01
3.900000e-07	-5.217226e-06	-1.355369e-09	-3.623383e+01	-8.947009e+01
4.000000e-07	-5.200694e-06	-1.348607e-09	-3.611902e+01	-8.930934e+01
4.100000e-07	-5.183789e-06	-1.371618e-09	-3.600161e+01	-8.914315e+01
4.200000e-07	-5.166557e-06	-1.360753e-09	-3.588193e+01	-8.897221e+01
4.300000e-07	-5.149027e-06	-1.347349e-09	-3.576019e+01	-8.879720e+01
4.400000e-07	-5.131204e-06	-1.353635e-09	-3.563641e+01	-8.861887e+01
4.500000e-07	-5.112949e-06	-1.371313e-09	-3.550963e+01	-8.843793e+01
4.600000e-07	-5.094291e-06	-1.338918e-09	-3.538004e+01	-8.825512e+01
4.700000e-07	-5.075240e-06	-1.328431e-09	-3.524774e+01	-8.807114e+01
4.800000e-07	-5.055779e-06	-1.346976e-09	-3.511258e+01	-8.788668e+01
4.900000e-07	-5.036054e-06	-1.347446e-09	-3.497559e+01	-8.770238e+01
5.000000e-07	-5.016147e-06	-1.323675e-09	-3.483734e+01	-8.751886e+01
5.100000e-07	-4.996044e-06	-1.335501e-09	-3.469772e+01	-8.733666e+01
5.200000e-07	-4.975623e-06	-1.339363e-09	-3.455589e+01	-8.715627e+01
5.300000e-07	-4.954834e-06	-1.318446e-09	-3.441151e+01	-8.697811e+01
5.400000e-07	-4.933684e-06	-1.323343e-09	-3.426462e+01	-8.680255e+01
5.500000e-07	-4.912207e-06	-1.341583e-09	-3.411547e+01	-8.662984e+01
5.600000e-07	-4.890397e-06	-1.321350e-09	-3.396400e+01	-8.646021e+01
5.700000e-07	-4.868250e-06	-1.305533e-09	-3.381019e+01	-8.629376e+01
5.800000e-07	-4.845743e-06	-1.323865e-09	-3.365387e+01	-8.613054e+01
5.900000e-07	-4.822828e-06	-1.318902e-09	-3.349472e+01	-8.597052e+01
6.000000e-07	-4.799620e-06	-1.302558e-09	-3.333355e+01	-8.581358e+01
6.100000e-07	-4.776114e-06	-1.307761e-09	-3.317029e+01	-8.565954e+01
6.200000e-07	-4.752309e-06	-1.310241e-09	-3.300497e+01	-8.550816e+01
6.300000e-07	-4.728331e-06	-1.290444e-09	-3.283844e+01	-8.535913e+01
6.400000e-07	-4.704141e-06	-1.291682e-09	-3.267044e+01	-8.521207e+01
6.500000e-07	-4.679584e-06	-1.290533e-09	-3.249989e+01	-8.506657e+01
6.600000e-07	-4.654550e-06	-1.284449e-09	-3.232603e+01	-8.492217e+01
6.700000e-07	-4.629041e-06	-1.285523e-09	-3.214887e+01	-8.477839e+01
6.800000e-07	-4.602924e-06	-1.290877e-09	-3.196748e+01	-8.463469e+01
6.900000e-07	-4.576276e-06	-1.274453e-09	-3.178241e+01	-8.449055e+01
7.000000e-07	-4.549229e-06	-1.274315e-09	-3.159457e+01	-8.434540e+01
7.100000e-07	-4.521767e-06	-1.273080e-09	-3.140385e+01	-8.419870e+01
7.200000e-07	-4.494093e-06	-1.260244e-09	-3.121165e+01	-8.404990e+01
7.300000e-07	-4.466266e-06	-1.250695e-09	-3.101839e+01	-8.389845e+01
7.400000e-07	-4.438237e-06	-1.259754e-09	-3.082372e+01	-8.374383e+01
7.500000e-07	-4.409963e-06	-1.252091e-09	-3.062736e+01	-8.358554e+01
7.600000e-07	-4.381378e-06	-1.249072e-09	-3.042884e+01	-8.342311e+01
7.700000e-07	-4.352435e-06	-1.252118e-09	-3.022783e+01	-8.325610e+01
7.800000e-07	-4.323122e-06	-1.242167e-09	-3.002425e+01	-8.308412e+01
7.900000e-07	-4.293559e-06	-1.227861e-09	-2.981893e+01	-8.290680e+01
8.000000e-07	-4.263837e-06	-1.232013e-09	-2.961251e+01	-8.272383e+01
8.100000e-07	-4.233844e-06	-1.224316e-09	-2.940421e+01	-8.253495e+01
8.200000e-07	-4.203503e-06	-1.206524e-09	-2.919349e+01	-8.233994e+01
8.300000e-07	-4.172834e-06	-1.206038e-09	-2.898049e+01	-8.213862e+01
8.400000e-07	-4.141817e-06	-1.212562e-09	-2.876508e+01	-8.193088e+01
8.500000e-07	-4.110473e-06	-1.204965e-09	-2.854740e+01	-8.171664e+01
8.600000e-07	-4.078961e-06	-1.198737e-09	-2.832854e+01	-8.149588e+01
8.700000e-07	-4.047303e-06	-1.199251e-09	-2.810867e+01	-8.126863e+01
8.800000e-07	-4.015443e-06	-1.191750e-09	-2.788740e+01	-8.103495e+01
8.900000e-07	-3.983438e-06	-1.183806e-09	-2.766513e+01	-8.079496e+01
9.000000e-07	-3.951275e-06	-1.181936e-09	-2.744176e+01	-8.054880e+01
9.100000e-07	-3.918795e-06	-1.179242e-09	-2.721619e+01	-8.029667e+01
9.200000e-07	-3.885956e-06	-1.167843e-09	-2.698811e+01	-8.003877e+01
9.300000e-07	-3.852732e-06	-1.166648e-09	-2.675737e+01	-7.977538e+01
9.400000e-07	-3.819040e-06	-1.166679e-09	-2.652338e+01	-7.950676e+01
9.500000e-07	-3.784866e-06	-1.162193e-09	-2.628604e+01	-7.923322e+01
9.600000e-07	-3.750253e-06	-1.156955e-09	-2.604565e+01	-7.895508e+01
9.700000e-07	-3.715248e-06	-1.157154e-09	-2.580254e+01	-7.867267e+01
9.800000e-07	-3.679909e-06	-1.148241e-09	-2.555711e+01	-7.838634e+01
9.900000e-07	-3.644305e-06	-1.137702e-09	-2.530984e+01	-7.809645e+01
1.000000e-06	-3.608511e-06	-1.130793e-09	-2.506125e+01	-7.780335e+01
1.010000e-06	-3.572634e-06	-1.128873e-09	-2.481208e+01	-7.750739e+01
1.020000e-06	-3.536674e-06	-1.123080e-09	-2.456234e+01	-7.720894e+01
1.030000e-06	-3.500495e-06	-1.121691e-09	-2.431107e+01	-7.690832e+01
1.040000e-06	-3.464066e-06	-1.119926e-09	-2.405807e+01	-7.660587e+01
1.050000e-06	-3.427405e-06	-1.115256e-09	-2.380346e+01	-7.630190e+01
1.060000e-06	-3.390373e-06	-1.109801e-09	-2.354627e+01	-7.599669e+01
1.070000e-06	-3.353102e-06	-1.107408e-09	-2.328742e+01	-7.569052e+01
1.080000e-06	-3.315635e-06	-1.099478e-09	-2.302721e+01	-7.538362e+01
1.090000e-06	-3.277889e-06	-1.091384e-09	-2.276507e+01	-7.507620e+01
1.100000e-06	-3.239986e-06	-1.087033e-09	-2.250183e+01	-7.476844e+01
1.110000e-06	-3.201873e-06	-1.082724e-09	-2.223713e+01	-7.446047e+01
1.120000e-06	-3.163532e-06	-1.076178e-09	-2.197085e+01	-7.415239e+01
1.130000e-06	-3.124862e-06	-1.071475e-09	-2.170229e+01	-7.384427e+01
1.140000e-06	-3.085965e-06	-1.068066e-09	-2.143215e+01	-7.353612e+01
1.150000e-06	-3.046987e-06	-1.062903e-09	-2.116144e+01	-7.322791e+01
1.160000e-06	-3.007807e-06	-1.057452e-09	-2.088934e+01	-7.291959e+01
1.170000e-06	-2.968429e-06	-1.051168e-09	-2.061585e+01	-7.261102e+01
1.180000e-06	-2.928867e-06	-1.047006e-09	-2.034109e+01	-7.230205e+01
1.190000e-06	-2.889128e-06	-1.045133e-09	-2.006510e+01	-7.199248e+01
1.200000e-06	-2.849267e-06	-1.042305e-09	-1.978827e+01	-7.168206e+01
1.210000e-06	-2.809269e-06	-1.035475e-09	-1.951048e+01	-7.137050e+01
1.220000e-06	-2.769097e-06	-1.029761e-09	-1.923148e+01	-7.105747e+01
1.230000e-06	-2.728802e-06	-1.024977e-09	-1.895164e+01	-7.074260e+01
1.240000e-06	-2.688369e-06	-1.021624e-09	-1.867082e+01	-7.042550e+01
1.250000e-06	-2.647760e-06	-1.015934e-09	-1.838879e+01	-7.010572e+01
1.260000e-06	-2.606888e-06	-1.011956e-09	-1.810494e+01	-6.978280e+01
1.270000e-06	-2.565828e-06	-1.006476e-09	-1.781977e+01	-6.945626e+01
1.280000e-06	-2.524572e-06	-9.985904e-10	-1.753325e+01	-6.912559e+01
1.290000e-06	-2.482892e-06	-9.891423e-10	-1.724378e+01	-6.879026e+01
1.300000e-06	-2.440862e-06	-9.816544e-10	-1.695188e+01	-6.844973e+01
1.310000e-06	-2.398595e-06	-9.750462e-10	-1.665833e+01	-6.810345e+01
1.320000e-06	-2.355996e-06	-9.704919e-10	-1.636248e+01	-6.775088e+01
1.330000e-06	-2.313055e-06	-9.651617e-10	-1.606426e+01	-6.739147e+01
1.340000e-06	-2.269909e-06	-9.590451e-10	-1.576460e+01	-6.702467e+01
1.350000e-06	-2.226643e-06	-9.533680e-10	-1.546412e+01	-6.664994e+01
1.360000e-06	-2.183206e-06	-9.494513e-10	-1.516245e+01	-6.626677e+01
1.370000e-06	-2.139617e-06	-9.441278e-10	-1.485973e+01	-6.587464e+01
1.380000e-06	-2.095901e-06	-9.368893e-10	-1.455611e+01	-6.547306e+01
1.390000e-06	-2.052073e-06	-9.270676e-10	-1.425172e+01	-6.506156e+01
1.400000e-06	-2.008176e-06	-9.172902e-10	-1.394686e+01	-6.463968e+01
1.410000e-06	-1.964241e-06	-9.073401e-10	-1.364173e+01	-6.420699e+01
1.420000e-06	-1.920232e-06	-8.969441e-10	-1.333608e+01	-6.376309e+01
1.430000e-06	-1.876113e-06	-8.876548e-10	-1.302968e+01	-6.330757e+01
1.440000e-06	-1.831919e-06	-8.796942e-10	-1.272275e+01	-6.284008e+01
1.450000e-06	-1.787636e-06	-8.735220e-10	-1.241520e+01	-6.236025e+01
1.460000e-06	-1.743269e-06	-8.677333e-10	-1.210707e+01	-6.186774e+01
1.470000e-06	-1.698749e-06	-8.605368e-10	-1.179788e+01	-6.136224e+01
1.480000e-06	-1.654011e-06	-8.505795e-10	-1.148717e+01	-6.084341e+01
1.490000e-06	-1.609137e-06	-8.372728e-10	-1.117552e+01	-6.031093e+01
1.500000e-06	-1.564056e-06	-8.201891e-10	-1.086243e+01	-5.976448e+01
1.510000e-06	-1.518862e-06	-8.056121e-10	-1.054855e+01	-5.920375e+01
1.520000e-06	-1.473638e-06	-7.956329e-10	-1.023447e+01	-5.862837e+01
1.530000e-06	-1.428288e-06	-7.896097e-10	-9.919514e+00	-5.803800e+01
1.540000e-06	-1.382868e-06	-7.833001e-10	-9.604072e+00	-5.743225e+01
1.550000e-06	-1.337394e-06	-7.742132e-10	-9.288253e+00	-5.681071e+01
1.560000e-06	-1.291852e-06	-7.645984e-10	-8.971959e+00	-5.617294e+01
1.570000e-06	-1.246244e-06	-7.526784e-10	-8.655211e+00	-5.551846e+01
1.580000e-06	-1.200516e-06	-7.387066e-10	-8.337628e+00	-5.484674e+01
1.590000e-06	-1.154660e-06	-7.268513e-10	-8.019157e+00	-5.415721e+01
1.600000e-06	-1.108723e-06	-7.174211e-10	-7.700123e+00	-5.344927e+01
1.610000e-06	-1.062662e-06	-7.103921e-10	-7.380231e+00	-5.272224e+01
1.620000e-06	-1.016513e-06	-7.047878e-10	-7.059725e+00	-5.197541e+01
1.630000e-06	-9.703263e-07	-6.993827e-10	-6.738954e+00	-5.120801e+01
1.640000e-06	-9.241116e-07	-6.874591e-10	-6.417991e+00	-5.041925e+01
1.650000e-06	-8.778700e-07	-6.718019e-10	-6.096841e+00	-4.960824e+01
1.660000e-06	-8.315396e-07	-6.561107e-10	-5.775075e+00	-4.877411e+01
1.670000e-06	-7.850740e-07	-6.404622e-10	-5.452369e+00	-4.791589e+01
1.680000e-06	-7.385745e-07	-6.263099e-10	-5.129428e+00	-4.703264e+01
1.690000e-06	-6.920922e-07	-6.133741e-10	-4.806607e+00	-4.612334e+01
1.700000e-06	-6.455584e-07	-6.010184e-10	-4.483428e+00	-4.518699e+01
1.710000e-06	-5.990211e-07	-5.881437e-10	-4.160224e+00	-4.422256e+01
1.720000e-06	-5.524389e-07	-5.725076e-10	-3.836709e+00	-4.322902e+01
1.730000e-06	-5.057607e-07	-5.548441e-10	-3.512528e+00	-4.220538e+01
1.740000e-06	-4.589998e-07	-5.365342e-10	-3.187771e+00	-4.115063e+01
1.750000e-06	-4.121946e-07	-5.187720e-10	-2.862707e+00	-4.006383e+01
1.760000e-06	-3.653398e-07	-5.011558e-10	-2.537299e+00	-3.894405e+01
1.770000e-06	-3.184100e-07	-4.836014e-10	-2.211369e+00	-3.779045e+01
1.780000e-06	-2.714986e-07	-4.679463e-10	-1.885568e+00	-3.660223e+01
1.790000e-06	-2.246365e-07	-4.531335e-10	-1.560109e+00	-3.537869e+01
1.800000e-06	-1.777076e-07	-4.394535e-10	-1.234186e+00	-3.411921e+01
1.810000e-06	-1.306672e-07	-4.242480e-10	-9.074884e-01	-3.282328e+01
1.820000e-06	-8.370810e-08	-4.050498e-10	-5.813560e-01	-3.149051e+01
1.830000e-06	-3.683659e-08	-3.830961e-10	-2.558315e-01	-3.012061e+01
1.840000e-06	9.992263e-09	-3.597599e-10	6.939665e-02	-2.871344e+01
1.850000e-06	5.684201e-08	-3.362027e-10	3.947700e-01	-2.726900e+01
1.860000e-06	1.037245e-07	-3.150195e-10	7.203709e-01	-2.578743e+01
1.870000e-06	1.505280e-07	-2.956676e-10	1.045423e+00	-2.426902e+01
1.880000e-06	1.973708e-07	-2.780492e-10	1.370748e+00	-2.271422e+01
1.890000e-06	2.442204e-07	-2.584243e-10	1.696120e+00	-2.112365e+01
1.900000e-06	2.910136e-07	-2.339850e-10	2.021100e+00	-1.949808e+01
1.910000e-06	3.378290e-07	-2.055777e-10	2.346235e+00	-1.783844e+01
1.920000e-06	3.846470e-07	-1.739633e-10	2.671388e+00	-1.614582e+01
1.930000e-06	4.314057e-07	-1.446992e-10	2.996129e+00	-1.442148e+01
1.940000e-06	4.781307e-07	-1.188404e-10	3.320636e+00	-1.266683e+01
1.950000e-06	5.247779e-07	-9.686232e-11	3.644603e+00	-1.088342e+01
1.960000e-06	5.713001e-07	-7.748520e-11	3.967701e+00	-9.072957e+00
1.970000e-06	6.177688e-07	-5.726746e-11	4.290428e+00	-7.237268e+00
1.980000e-06	6.642463e-07	-3.437496e-11	4.613216e+00	-5.378317e+00
1.990000e-06	7.106922e-07	-6.846466e-12	4.935785e+00	-3.498181e+00
2.000000e-06	7.570454e-07	2.711782e-11	5.257710e+00	-1.599043e+00
2.010000e-06	8.033690e-07	6.155228e-11	5.579429e+00	3.168173e-01
2.020000e-06	8.496692e-07	9.154315e-11	5.900985e+00	2.247041e+00
2.030000e-06	8.958954e-07	1.161272e-10	6.222028e+00	4.189199e+00
2.040000e-06	9.420587e-07	1.391276e-10	6.542634e+00	6.140805e+00
2.050000e-06	9.882313e-07	1.626099e-10	6.863304e+00	8.099331e+00
2.060000e-06	1.034368e-06	1.887732e-10	7.183725e+00	1.006222e+01
2.070000e-06	1.080347e-06	2.182140e-10	7.503053e+00	1.202690e+01
2.080000e-06	1.126230e-06	2.462555e-10	7.821713e+00	1.399081e+01
2.090000e-06	1.172080e-06	2.762119e-10	8.140143e+00	1.595137e+01
2.100000e-06	1.217799e-06	3.082375e-10	8.457659e+00	1.790606e+01
2.110000e-06	1.263442e-06	3.382596e-10	8.774651e+00	1.985238e+01
2.120000e-06	1.309074e-06	3.675929e-10	9.091567e+00	2.178789e+01
2.130000e-06	1.354618e-06	3.960792e-10	9.407877e+00	2.371021e+01
2.140000e-06	1.400041e-06	4.201848e-10	9.723336e+00	2.561704e+01
2.150000e-06	1.445337e-06	4.423982e-10	1.003792e+01	2.750616e+01
2.160000e-06	1.490507e-06	4.650412e-10	1.035163e+01	2.937544e+01
2.170000e-06	1.535594e-06	4.894746e-10	1.066476e+01	3.122289e+01
2.180000e-06	1.580607e-06	5.156073e-10	1.097737e+01	3.304657e+01
2.190000e-06	1.625439e-06	5.431437e-10	1.128874e+01	3.484472e+01
2.200000e-06	1.670145e-06	5.712034e-10	1.159922e+01	3.661568e+01
2.210000e-06	1.714731e-06	5.983235e-10	1.190888e+01	3.835791e+01
2.220000e-06	1.759123e-06	6.234040e-10	1.221717e+01	4.007003e+01
2.230000e-06	1.803337e-06	6.450291e-10	1.252425e+01	4.175077e+01
2.240000e-06	1.847457e-06	6.633314e-10	1.283066e+01	4.339903e+01
2.250000e-06	1.891569e-06	6.805787e-10	1.313702e+01	4.501383e+01
2.260000e-06	1.935635e-06	6.998764e-10	1.344306e+01	4.659434e+01
2.270000e-06	1.979623e-06	7.222923e-10	1.374856e+01	4.813986e+01
2.280000e-06	2.023501e-06	7.454413e-10	1.405329e+01	4.964983e+01
2.290000e-06	2.067325e-06	7.665590e-10	1.435765e+01	5.112384e+01
2.300000e-06	2.111140e-06	7.863768e-10	1.466195e+01	5.256157e+01
2.310000e-06	2.154876e-06	8.055409e-10	1.496570e+01	5.396287e+01
2.320000e-06	2.198482e-06	8.226157e-10	1.526854e+01	5.532768e+01
2.330000e-06	2.241846e-06	8.403596e-10	1.556971e+01	5.665606e+01
2.340000e-06	2.284949e-06	8.590053e-10	1.586906e+01	5.794817e+01
2.350000e-06	2.327915e-06	8.768911e-10	1.616746e+01	5.920429e+01
2.360000e-06	2.370673e-06	8.937338e-10	1.646441e+01	6.042475e+01
2.370000e-06	2.413120e-06	9.093099e-10	1.675921e+01	6.160999e+01
2.380000e-06	2.455207e-06	9.231835e-10	1.705151e+01	6.276051e+01
2.390000e-06	2.496982e-06	9.371093e-10	1.734164e+01	6.387688e+01
2.400000e-06	2.538388e-06	9.516071e-10	1.762921e+01	6.495971e+01
2.410000e-06	2.579432e-06	9.649587e-10	1.791426e+01	6.600966e+01
2.420000e-06	2.620290e-06	9.764665e-10	1.819802e+01	6.702744e+01
2.430000e-06	2.660963e-06	9.885142e-10	1.848049e+01	6.801376e+01
2.440000e-06	2.701376e-06	1.001879e-09	1.876116e+01	6.896937e+01
2.450000e-06	2.741576e-06	1.014179e-09	1.904035e+01	6.989501e+01
2.460000e-06	2.781669e-06	1.026307e-09	1.931879e+01	7.079145e+01
2.470000e-06	2.821673e-06	1.037400e-09	1.959663e+01	7.165941e+01
2.480000e-06	2.861597e-06	1.047662e-09	1.987390e+01	7.249965e+01
2.490000e-06	2.901388e-06	1.059245e-09	2.015025e+01	7.331288e+01
2.500000e-06	2.940958e-06	1.069850e-09	2.042507e+01	7.409981e+01
2.510000e-06	2.980292e-06	1.078753e-09	2.069824e+01	7.486111e+01
2.520000e-06	3.019492e-06	1.087782e-09	2.097049e+01	7.559743e+01
2.530000e-06	3.058601e-06	1.096624e-09	2.124210e+01	7.630940e+01
2.540000e-06	3.097447e-06	1.105547e-09	2.151189e+01	7.699759e+01
2.550000e-06	3.136017e-06	1.114569e-09	2.177976e+01	7.766258e+01
2.560000e-06	3.174460e-06	1.124362e-09	2.204675e+01	7.830488e+01
2.570000e-06	3.212707e-06	1.134597e-09	2.231237e+01	7.892502e+01
2.580000e-06	3.250685e-06	1.145063e-09	2.257613e+01	7.952346e+01
2.590000e-06	3.288401e-06	1.154222e-09	2.283807e+01	8.010065e+01
2.600000e-06	3.325849e-06	1.160327e-09	2.309815e+01	8.065704e+01
2.610000e-06	3.363087e-06	1.165327e-09	2.335677e+01	8.119305e+01
2.620000e-06	3.400150e-06	1.171902e-09	2.361417e+01	8.170908e+01
2.630000e-06	3.436911e-06	1.181917e-09	2.386948e+01	8.220554e+01
2.640000e-06	3.473358e-06	1.193822e-09	2.412260e+01	8.268284e+01
2.650000e-06	3.509599e-06	1.203055e-09	2.437430e+01	8.314137e+01
2.660000e-06	3.545716e-06	1.209885e-09	2.462513e+01	8.358155e+01
2.670000e-06	3.581718e-06	1.215388e-09	2.487517e+01	8.400381e+01
2.680000e-06	3.617600e-06	1.219226e-09	2.512437e+01	8.440860e+01
2.690000e-06	3.653389e-06	1.224015e-09	2.537293e+01	8.479637e+01
2.700000e-06	3.689044e-06	1.230672e-09	2.562055e+01	8.516761e+01
2.710000e-06	3.724381e-06	1.238541e-09	2.586597e+01	8.552283e+01
2.720000e-06	3.759403e-06	1.248579e-09	2.610920e+01	8.586257e+01
2.730000e-06	3.794150e-06	1.257856e-09	2.635052e+01	8.618739e+01
2.740000e-06	3.828448e-06	1.263864e-09	2.658872e+01	8.649788e+01
2.750000e-06	3.862084e-06	1.265899e-09	2.682232e+01	8.679466e+01
2.760000e-06	3.895173e-06	1.267110e-09	2.705213e+01	8.707838e+01
2.770000e-06	3.927950e-06	1.269562e-09	2.727976e+01	8.734969e+01
2.780000e-06	3.960373e-06	1.274301e-09	2.750494e+01	8.760928e+01
2.790000e-06	3.992532e-06	1.282469e-09	2.772829e+01	8.785783e+01
2.800000e-06	4.024537e-06	1.290191e-09	2.795056e+01	8.809606e+01
2.810000e-06	4.056398e-06	1.294001e-09	2.817184e+01	8.832466e+01
2.820000e-06	4.088164e-06	1.295643e-09	2.839245e+01	8.854434e+01
2.830000e-06	4.119697e-06	1.296922e-09	2.861145e+01	8.875578e+01
2.840000e-06	4.150842e-06	1.297453e-09	2.882776e+01	8.895966e+01
2.850000e-06	4.181600e-06	1.297357e-09	2.904137e+01	8.915662e+01
2.860000e-06	4.211999e-06	1.300119e-09	2.925250e+01	8.934728e+01
2.870000e-06	4.242122e-06	1.307551e-09	2.946170e+01	8.953223e+01
2.880000e-06	4.272056e-06	1.313568e-09	2.966959e+01	8.971199e+01
2.890000e-06	4.301842e-06	1.315175e-09	2.987645e+01	8.988705e+01
2.900000e-06	4.331377e-06	1.312245e-09	3.008158e+01	9.005784e+01
