# Temperatura_=_-8.84
# Concentracion g/m^3_=_1620.0
# C_Vs_to_Am_M_A/Vsm_=_65563218390.804596
# pendiente_HvsI_1/m_=_3716.3
# ordenada_HvsI_A/m_=_1297.0
# frecuencia_Hz_=_135102.21764686596

Tiempo_(s)	Campo_(V.s)	Magnetizacion_(V.s)	Campo_(kA/m)	Magnetizacion_(A/m)
0.000000e+00	-5.529767e-06	-1.213841e-09	-3.836970e+01	-7.855044e+01
1.000000e-08	-5.530041e-06	-1.207468e-09	-3.837159e+01	-7.849785e+01
2.000000e-08	-5.530066e-06	-1.203808e-09	-3.837177e+01	-7.844906e+01
3.000000e-08	-5.529779e-06	-1.204939e-09	-3.836978e+01	-7.840414e+01
4.000000e-08	-5.529046e-06	-1.207943e-09	-3.836470e+01	-7.836304e+01
5.000000e-08	-5.527681e-06	-1.206420e-09	-3.835522e+01	-7.832565e+01
6.000000e-08	-5.525688e-06	-1.192238e-09	-3.834139e+01	-7.829174e+01
7.000000e-08	-5.523152e-06	-1.160414e-09	-3.832379e+01	-7.826100e+01
8.000000e-08	-5.520088e-06	-1.173820e-09	-3.830253e+01	-7.823302e+01
9.000000e-08	-5.516489e-06	-1.289472e-09	-3.827756e+01	-7.820729e+01
1.000000e-07	-5.512406e-06	-1.369041e-09	-3.824923e+01	-7.818326e+01
1.100000e-07	-5.508003e-06	-1.223276e-09	-3.821868e+01	-7.816026e+01
1.200000e-07	-5.503475e-06	-1.077246e-09	-3.818726e+01	-7.813761e+01
1.300000e-07	-5.498765e-06	-1.115815e-09	-3.815458e+01	-7.811453e+01
1.400000e-07	-5.493635e-06	-1.289602e-09	-3.811898e+01	-7.809026e+01
1.500000e-07	-5.488062e-06	-1.242100e-09	-3.808032e+01	-7.806398e+01
1.600000e-07	-5.482187e-06	-1.113160e-09	-3.803955e+01	-7.803488e+01
1.700000e-07	-5.475929e-06	-1.146923e-09	-3.799612e+01	-7.800215e+01
1.800000e-07	-5.469055e-06	-1.291827e-09	-3.794843e+01	-7.796504e+01
1.900000e-07	-5.461719e-06	-1.267133e-09	-3.789753e+01	-7.792280e+01
2.000000e-07	-5.454195e-06	-1.114089e-09	-3.784532e+01	-7.787475e+01
2.100000e-07	-5.446471e-06	-1.110912e-09	-3.779173e+01	-7.782029e+01
2.200000e-07	-5.438551e-06	-1.226861e-09	-3.773677e+01	-7.775889e+01
2.300000e-07	-5.430407e-06	-1.270911e-09	-3.768026e+01	-7.769012e+01
2.400000e-07	-5.421886e-06	-1.172545e-09	-3.762113e+01	-7.761365e+01
2.500000e-07	-5.412675e-06	-1.145655e-09	-3.755722e+01	-7.752925e+01
2.600000e-07	-5.402609e-06	-1.175557e-09	-3.748737e+01	-7.743682e+01
2.700000e-07	-5.391901e-06	-1.199420e-09	-3.741308e+01	-7.733636e+01
2.800000e-07	-5.380771e-06	-1.146209e-09	-3.733585e+01	-7.722801e+01
2.900000e-07	-5.369262e-06	-1.151000e-09	-3.725599e+01	-7.711201e+01
3.000000e-07	-5.357396e-06	-1.178369e-09	-3.717365e+01	-7.698872e+01
3.100000e-07	-5.345217e-06	-1.186350e-09	-3.708915e+01	-7.685860e+01
3.200000e-07	-5.332557e-06	-1.122796e-09	-3.700130e+01	-7.672221e+01
3.300000e-07	-5.319412e-06	-1.122357e-09	-3.691009e+01	-7.658020e+01
3.400000e-07	-5.305963e-06	-1.162179e-09	-3.681677e+01	-7.643330e+01
3.500000e-07	-5.292177e-06	-1.168114e-09	-3.672112e+01	-7.628230e+01
3.600000e-07	-5.277901e-06	-1.124453e-09	-3.662206e+01	-7.612804e+01
3.700000e-07	-5.263172e-06	-1.160698e-09	-3.651986e+01	-7.597138e+01
3.800000e-07	-5.248004e-06	-1.182657e-09	-3.641461e+01	-7.581322e+01
3.900000e-07	-5.232189e-06	-1.122249e-09	-3.630487e+01	-7.565445e+01
4.000000e-07	-5.215821e-06	-1.112362e-09	-3.619130e+01	-7.549593e+01
4.100000e-07	-5.199172e-06	-1.184693e-09	-3.607578e+01	-7.533852e+01
4.200000e-07	-5.182213e-06	-1.154275e-09	-3.595810e+01	-7.518301e+01
4.300000e-07	-5.164896e-06	-1.076257e-09	-3.583794e+01	-7.503014e+01
4.400000e-07	-5.147312e-06	-1.151191e-09	-3.571593e+01	-7.488057e+01
4.500000e-07	-5.129363e-06	-1.198435e-09	-3.559139e+01	-7.473489e+01
4.600000e-07	-5.110821e-06	-1.104425e-09	-3.546273e+01	-7.459359e+01
4.700000e-07	-5.091835e-06	-1.081747e-09	-3.533099e+01	-7.445706e+01
4.800000e-07	-5.072589e-06	-1.171980e-09	-3.519745e+01	-7.432557e+01
4.900000e-07	-5.053086e-06	-1.130803e-09	-3.506212e+01	-7.419932e+01
5.000000e-07	-5.033399e-06	-1.081176e-09	-3.492552e+01	-7.407838e+01
5.100000e-07	-5.013558e-06	-1.138877e-09	-3.478785e+01	-7.396269e+01
5.200000e-07	-4.993421e-06	-1.138525e-09	-3.464812e+01	-7.385214e+01
5.300000e-07	-4.972856e-06	-1.062324e-09	-3.450543e+01	-7.374646e+01
5.400000e-07	-4.951860e-06	-1.120571e-09	-3.435974e+01	-7.364535e+01
5.500000e-07	-4.930512e-06	-1.161901e-09	-3.421161e+01	-7.354838e+01
5.600000e-07	-4.908849e-06	-1.086627e-09	-3.406130e+01	-7.345507e+01
5.700000e-07	-4.886952e-06	-1.073677e-09	-3.390936e+01	-7.336488e+01
5.800000e-07	-4.864809e-06	-1.143606e-09	-3.375571e+01	-7.327723e+01
5.900000e-07	-4.842214e-06	-1.104392e-09	-3.359894e+01	-7.319149e+01
6.000000e-07	-4.819207e-06	-1.066554e-09	-3.343929e+01	-7.310703e+01
6.100000e-07	-4.795905e-06	-1.109497e-09	-3.327761e+01	-7.302318e+01
6.200000e-07	-4.772373e-06	-1.110096e-09	-3.311432e+01	-7.293932e+01
6.300000e-07	-4.748649e-06	-1.066255e-09	-3.294971e+01	-7.285482e+01
6.400000e-07	-4.724716e-06	-1.090370e-09	-3.278364e+01	-7.276908e+01
6.500000e-07	-4.700389e-06	-1.102939e-09	-3.261484e+01	-7.268156e+01
6.600000e-07	-4.675552e-06	-1.072772e-09	-3.244251e+01	-7.259177e+01
6.700000e-07	-4.650147e-06	-1.081004e-09	-3.226623e+01	-7.249925e+01
6.800000e-07	-4.624207e-06	-1.103401e-09	-3.208624e+01	-7.240365e+01
6.900000e-07	-4.597754e-06	-1.083119e-09	-3.190269e+01	-7.230464e+01
7.000000e-07	-4.570854e-06	-1.075177e-09	-3.171603e+01	-7.220202e+01
7.100000e-07	-4.543574e-06	-1.091944e-09	-3.152674e+01	-7.209561e+01
7.200000e-07	-4.516008e-06	-1.083433e-09	-3.133547e+01	-7.198534e+01
7.300000e-07	-4.488340e-06	-1.074401e-09	-3.114349e+01	-7.187119e+01
7.400000e-07	-4.460532e-06	-1.081792e-09	-3.095054e+01	-7.175322e+01
7.500000e-07	-4.432540e-06	-1.078865e-09	-3.075631e+01	-7.163154e+01
7.600000e-07	-4.404256e-06	-1.066623e-09	-3.056005e+01	-7.150632e+01
7.700000e-07	-4.375612e-06	-1.072826e-09	-3.036130e+01	-7.137778e+01
7.800000e-07	-4.346608e-06	-1.070113e-09	-3.016005e+01	-7.124618e+01
7.900000e-07	-4.317302e-06	-1.064482e-09	-2.995670e+01	-7.111180e+01
8.000000e-07	-4.287652e-06	-1.068700e-09	-2.975097e+01	-7.097493e+01
8.100000e-07	-4.257690e-06	-1.070076e-09	-2.954307e+01	-7.083589e+01
8.200000e-07	-4.227465e-06	-1.048189e-09	-2.933334e+01	-7.069500e+01
8.300000e-07	-4.196890e-06	-1.043121e-09	-2.912119e+01	-7.055256e+01
8.400000e-07	-4.166029e-06	-1.046450e-09	-2.890705e+01	-7.040885e+01
8.500000e-07	-4.134985e-06	-1.042473e-09	-2.869164e+01	-7.026413e+01
8.600000e-07	-4.103777e-06	-1.037155e-09	-2.847510e+01	-7.011863e+01
8.700000e-07	-4.072308e-06	-1.043794e-09	-2.825674e+01	-6.997254e+01
8.800000e-07	-4.040606e-06	-1.035191e-09	-2.803677e+01	-6.982601e+01
8.900000e-07	-4.008813e-06	-1.024278e-09	-2.781617e+01	-6.967914e+01
9.000000e-07	-3.976852e-06	-1.023924e-09	-2.759440e+01	-6.953200e+01
9.100000e-07	-3.944508e-06	-1.022068e-09	-2.736997e+01	-6.938460e+01
9.200000e-07	-3.911756e-06	-1.009043e-09	-2.714272e+01	-6.923690e+01
9.300000e-07	-3.878595e-06	-1.010956e-09	-2.691262e+01	-6.908883e+01
9.400000e-07	-3.844991e-06	-1.018279e-09	-2.667945e+01	-6.894028e+01
9.500000e-07	-3.810893e-06	-1.011754e-09	-2.644285e+01	-6.879110e+01
9.600000e-07	-3.776263e-06	-1.005053e-09	-2.620256e+01	-6.864112e+01
9.700000e-07	-3.741211e-06	-1.008349e-09	-2.595935e+01	-6.849015e+01
9.800000e-07	-3.705856e-06	-1.002662e-09	-2.571403e+01	-6.833797e+01
9.900000e-07	-3.670342e-06	-9.917888e-10	-2.546760e+01	-6.818437e+01
1.000000e-06	-3.634757e-06	-9.913267e-10	-2.522069e+01	-6.802915e+01
1.010000e-06	-3.599073e-06	-9.901209e-10	-2.497308e+01	-6.787207e+01
1.020000e-06	-3.563258e-06	-9.823476e-10	-2.472457e+01	-6.771297e+01
1.030000e-06	-3.527361e-06	-9.799606e-10	-2.447549e+01	-6.755166e+01
1.040000e-06	-3.491196e-06	-9.832769e-10	-2.422455e+01	-6.738799e+01
1.050000e-06	-3.454618e-06	-9.779996e-10	-2.397075e+01	-6.722186e+01
1.060000e-06	-3.417734e-06	-9.752564e-10	-2.371482e+01	-6.705318e+01
1.070000e-06	-3.380588e-06	-9.745457e-10	-2.345707e+01	-6.688190e+01
1.080000e-06	-3.343240e-06	-9.700562e-10	-2.319792e+01	-6.670802e+01
1.090000e-06	-3.305672e-06	-9.598008e-10	-2.293725e+01	-6.653158e+01
1.100000e-06	-3.267876e-06	-9.583856e-10	-2.267499e+01	-6.635263e+01
1.110000e-06	-3.229835e-06	-9.542879e-10	-2.241103e+01	-6.617128e+01
1.120000e-06	-3.191539e-06	-9.459588e-10	-2.214530e+01	-6.598767e+01
1.130000e-06	-3.153073e-06	-9.421803e-10	-2.187840e+01	-6.580193e+01
1.140000e-06	-3.114427e-06	-9.448759e-10	-2.161025e+01	-6.561425e+01
1.150000e-06	-3.075495e-06	-9.426148e-10	-2.134010e+01	-6.542481e+01
1.160000e-06	-3.036388e-06	-9.387970e-10	-2.106875e+01	-6.523379e+01
1.170000e-06	-2.997151e-06	-9.328750e-10	-2.079650e+01	-6.504138e+01
1.180000e-06	-2.957736e-06	-9.263144e-10	-2.052301e+01	-6.484774e+01
1.190000e-06	-2.918200e-06	-9.221371e-10	-2.024867e+01	-6.465303e+01
1.200000e-06	-2.878553e-06	-9.239624e-10	-1.997357e+01	-6.445735e+01
1.210000e-06	-2.838793e-06	-9.247248e-10	-1.969769e+01	-6.426079e+01
1.220000e-06	-2.798892e-06	-9.229905e-10	-1.942082e+01	-6.406338e+01
1.230000e-06	-2.758815e-06	-9.205900e-10	-1.914274e+01	-6.386510e+01
1.240000e-06	-2.718536e-06	-9.169756e-10	-1.886325e+01	-6.366587e+01
1.250000e-06	-2.678020e-06	-9.117981e-10	-1.858212e+01	-6.346556e+01
1.260000e-06	-2.637232e-06	-9.066493e-10	-1.829911e+01	-6.326396e+01
1.270000e-06	-2.596147e-06	-9.033014e-10	-1.801402e+01	-6.306080e+01
1.280000e-06	-2.554731e-06	-8.989340e-10	-1.772665e+01	-6.285574e+01
1.290000e-06	-2.513010e-06	-8.940486e-10	-1.743716e+01	-6.264837e+01
1.300000e-06	-2.471029e-06	-8.909556e-10	-1.714587e+01	-6.243823e+01
1.310000e-06	-2.428787e-06	-8.898496e-10	-1.685276e+01	-6.222478e+01
1.320000e-06	-2.386223e-06	-8.879354e-10	-1.655742e+01	-6.200743e+01
1.330000e-06	-2.343398e-06	-8.845671e-10	-1.626026e+01	-6.178556e+01
1.340000e-06	-2.300339e-06	-8.788944e-10	-1.596149e+01	-6.155846e+01
1.350000e-06	-2.256994e-06	-8.745882e-10	-1.566073e+01	-6.132545e+01
1.360000e-06	-2.213499e-06	-8.711663e-10	-1.535893e+01	-6.108576e+01
1.370000e-06	-2.169906e-06	-8.691488e-10	-1.505644e+01	-6.083866e+01
1.380000e-06	-2.126222e-06	-8.665645e-10	-1.475333e+01	-6.058337e+01
1.390000e-06	-2.082526e-06	-8.628633e-10	-1.445013e+01	-6.031914e+01
1.400000e-06	-2.038770e-06	-8.571034e-10	-1.414653e+01	-6.004521e+01
1.410000e-06	-1.994884e-06	-8.519019e-10	-1.384201e+01	-5.976086e+01
1.420000e-06	-1.950861e-06	-8.447232e-10	-1.353655e+01	-5.946540e+01
1.430000e-06	-1.906738e-06	-8.373542e-10	-1.323038e+01	-5.915816e+01
1.440000e-06	-1.862594e-06	-8.321705e-10	-1.292408e+01	-5.883853e+01
1.450000e-06	-1.818406e-06	-8.270226e-10	-1.261747e+01	-5.850592e+01
1.460000e-06	-1.774043e-06	-8.184459e-10	-1.230965e+01	-5.815983e+01
1.470000e-06	-1.729554e-06	-8.115060e-10	-1.200095e+01	-5.779979e+01
1.480000e-06	-1.685032e-06	-8.068695e-10	-1.169202e+01	-5.742538e+01
1.490000e-06	-1.640372e-06	-7.999157e-10	-1.138214e+01	-5.703625e+01
1.500000e-06	-1.595437e-06	-7.904471e-10	-1.107034e+01	-5.663209e+01
1.510000e-06	-1.550291e-06	-7.797418e-10	-1.075709e+01	-5.621264e+01
1.520000e-06	-1.505051e-06	-7.716414e-10	-1.044318e+01	-5.577768e+01
1.530000e-06	-1.459709e-06	-7.654128e-10	-1.012856e+01	-5.532704e+01
1.540000e-06	-1.414301e-06	-7.598491e-10	-9.813484e+00	-5.486055e+01
1.550000e-06	-1.368852e-06	-7.520199e-10	-9.498126e+00	-5.437809e+01
1.560000e-06	-1.323308e-06	-7.400367e-10	-9.182108e+00	-5.387953e+01
1.570000e-06	-1.277673e-06	-7.286986e-10	-8.865456e+00	-5.336473e+01
1.580000e-06	-1.231958e-06	-7.195968e-10	-8.548256e+00	-5.283358e+01
1.590000e-06	-1.186187e-06	-7.125957e-10	-8.230662e+00	-5.228590e+01
1.600000e-06	-1.140361e-06	-7.072771e-10	-7.912683e+00	-5.172152e+01
1.610000e-06	-1.094437e-06	-7.022937e-10	-7.594033e+00	-5.114020e+01
1.620000e-06	-1.048414e-06	-6.968170e-10	-7.274689e+00	-5.054167e+01
1.630000e-06	-1.002305e-06	-6.885110e-10	-6.954747e+00	-4.992558e+01
1.640000e-06	-9.561633e-07	-6.792157e-10	-6.634582e+00	-4.929155e+01
1.650000e-06	-9.099030e-07	-6.667253e-10	-6.313593e+00	-4.863910e+01
1.660000e-06	-8.635187e-07	-6.528250e-10	-5.991744e+00	-4.796768e+01
1.670000e-06	-8.171674e-07	-6.407384e-10	-5.670124e+00	-4.727668e+01
1.680000e-06	-7.708840e-07	-6.295381e-10	-5.348975e+00	-4.656540e+01
1.690000e-06	-7.245111e-07	-6.164196e-10	-5.027204e+00	-4.583308e+01
1.700000e-06	-6.779660e-07	-5.991455e-10	-4.704240e+00	-4.507886e+01
1.710000e-06	-6.314275e-07	-5.819992e-10	-4.381320e+00	-4.430185e+01
1.720000e-06	-5.848689e-07	-5.702743e-10	-4.058261e+00	-4.350106e+01
1.730000e-06	-5.381406e-07	-5.588733e-10	-3.734026e+00	-4.267548e+01
1.740000e-06	-4.913115e-07	-5.457783e-10	-3.409090e+00	-4.182406e+01
1.750000e-06	-4.445233e-07	-5.333077e-10	-3.084438e+00	-4.094568e+01
1.760000e-06	-3.976882e-07	-5.197888e-10	-2.759461e+00	-4.003927e+01
1.770000e-06	-3.507582e-07	-5.038957e-10	-2.433825e+00	-3.910369e+01
1.780000e-06	-3.038362e-07	-4.860602e-10	-2.108245e+00	-3.813786e+01
1.790000e-06	-2.568947e-07	-4.714226e-10	-1.782529e+00	-3.714072e+01
1.800000e-06	-2.099243e-07	-4.582071e-10	-1.456613e+00	-3.611123e+01
1.810000e-06	-1.629987e-07	-4.443666e-10	-1.131008e+00	-3.504845e+01
1.820000e-06	-1.161320e-07	-4.306676e-10	-8.058115e-01	-3.395149e+01
1.830000e-06	-6.928055e-08	-4.181920e-10	-4.807207e-01	-3.281956e+01
1.840000e-06	-2.241780e-08	-4.034397e-10	-1.555516e-01	-3.165197e+01
1.850000e-06	2.444654e-08	-3.871191e-10	1.696286e-01	-3.044818e+01
1.860000e-06	7.137890e-08	-3.704300e-10	4.952807e-01	-2.920774e+01
1.870000e-06	1.183475e-07	-3.519021e-10	8.211840e-01	-2.793040e+01
1.880000e-06	1.652699e-07	-3.306182e-10	1.146767e+00	-2.661601e+01
1.890000e-06	2.122053e-07	-3.089855e-10	1.472440e+00	-2.526463e+01
1.900000e-06	2.590862e-07	-2.883656e-10	1.797736e+00	-2.387648e+01
1.910000e-06	3.058414e-07	-2.678884e-10	2.122158e+00	-2.245194e+01
1.920000e-06	3.526270e-07	-2.480235e-10	2.446792e+00	-2.099158e+01
1.930000e-06	3.994669e-07	-2.283248e-10	2.771803e+00	-1.949617e+01
1.940000e-06	4.462514e-07	-2.077888e-10	3.096429e+00	-1.796663e+01
1.950000e-06	4.930208e-07	-1.856152e-10	3.420950e+00	-1.640408e+01
1.960000e-06	5.397722e-07	-1.617951e-10	3.745346e+00	-1.480980e+01
1.970000e-06	5.864285e-07	-1.387509e-10	4.069083e+00	-1.318524e+01
1.980000e-06	6.329014e-07	-1.181178e-10	4.391548e+00	-1.153200e+01
1.990000e-06	6.793410e-07	-9.859675e-11	4.713780e+00	-9.851857e+00
2.000000e-06	7.258358e-07	-7.675937e-11	5.036397e+00	-8.146694e+00
2.010000e-06	7.722550e-07	-5.129476e-11	5.358487e+00	-6.418540e+00
2.020000e-06	8.185936e-07	-2.474294e-11	5.680020e+00	-4.669531e+00
2.030000e-06	8.648840e-07	1.665452e-12	6.001218e+00	-2.901905e+00
2.040000e-06	9.110548e-07	2.695069e-11	6.321585e+00	-1.117986e+00
2.050000e-06	9.571533e-07	5.182346e-11	6.641452e+00	6.798324e-01
2.060000e-06	1.003282e-06	7.553226e-11	6.961525e+00	2.489099e+00
2.070000e-06	1.049409e-06	9.857747e-11	7.281592e+00	4.307322e+00
2.080000e-06	1.095474e-06	1.219960e-10	7.601222e+00	6.131983e+00
2.090000e-06	1.141363e-06	1.472058e-10	7.919640e+00	7.960553e+00
2.100000e-06	1.187093e-06	1.746706e-10	8.236947e+00	9.790504e+00
2.110000e-06	1.232717e-06	2.021017e-10	8.553520e+00	1.161933e+01
2.120000e-06	1.278230e-06	2.292370e-10	8.869326e+00	1.344454e+01
2.130000e-06	1.323675e-06	2.556702e-10	9.184652e+00	1.526371e+01
2.140000e-06	1.369145e-06	2.796658e-10	9.500158e+00	1.707445e+01
2.150000e-06	1.414620e-06	3.025558e-10	9.815702e+00	1.887444e+01
2.160000e-06	1.459964e-06	3.264606e-10	1.013033e+01	2.066143e+01
2.170000e-06	1.505129e-06	3.518318e-10	1.044372e+01	2.243327e+01
2.180000e-06	1.550160e-06	3.770790e-10	1.075618e+01	2.418787e+01
2.190000e-06	1.595078e-06	4.009513e-10	1.106785e+01	2.592328e+01
2.200000e-06	1.639778e-06	4.224514e-10	1.137802e+01	2.763763e+01
2.210000e-06	1.684396e-06	4.445919e-10	1.168761e+01	2.932915e+01
2.220000e-06	1.729009e-06	4.697828e-10	1.199717e+01	3.099620e+01
2.230000e-06	1.773461e-06	4.960778e-10	1.230561e+01	3.263725e+01
2.240000e-06	1.817744e-06	5.195260e-10	1.261288e+01	3.425090e+01
2.250000e-06	1.861916e-06	5.396298e-10	1.291938e+01	3.583585e+01
2.260000e-06	1.906004e-06	5.582044e-10	1.322530e+01	3.739095e+01
2.270000e-06	1.949988e-06	5.761621e-10	1.353049e+01	3.891514e+01
2.280000e-06	1.993907e-06	5.946139e-10	1.383523e+01	4.040751e+01
2.290000e-06	2.037744e-06	6.146367e-10	1.413941e+01	4.186726e+01
2.300000e-06	2.081466e-06	6.352521e-10	1.444278e+01	4.329369e+01
2.310000e-06	2.125142e-06	6.545592e-10	1.474584e+01	4.468624e+01
2.320000e-06	2.168797e-06	6.735078e-10	1.504875e+01	4.604445e+01
2.330000e-06	2.212383e-06	6.916462e-10	1.535118e+01	4.736798e+01
2.340000e-06	2.255852e-06	7.082024e-10	1.565280e+01	4.865658e+01
2.350000e-06	2.299147e-06	7.242428e-10	1.595322e+01	4.991012e+01
2.360000e-06	2.342244e-06	7.407427e-10	1.625225e+01	5.112855e+01
2.370000e-06	2.385173e-06	7.575052e-10	1.655013e+01	5.231191e+01
2.380000e-06	2.427926e-06	7.737758e-10	1.684678e+01	5.346035e+01
2.390000e-06	2.470343e-06	7.893205e-10	1.714110e+01	5.457407e+01
2.400000e-06	2.512349e-06	8.033665e-10	1.743257e+01	5.565337e+01
2.410000e-06	2.553936e-06	8.168971e-10	1.772113e+01	5.669860e+01
2.420000e-06	2.595213e-06	8.312221e-10	1.800755e+01	5.771018e+01
2.430000e-06	2.636263e-06	8.442211e-10	1.829238e+01	5.868859e+01
2.440000e-06	2.676973e-06	8.549915e-10	1.857486e+01	5.963436e+01
2.450000e-06	2.717393e-06	8.656634e-10	1.885532e+01	6.054805e+01
2.460000e-06	2.757564e-06	8.766302e-10	1.913406e+01	6.143028e+01
2.470000e-06	2.797564e-06	8.869099e-10	1.941161e+01	6.228169e+01
2.480000e-06	2.837451e-06	8.978059e-10	1.968838e+01	6.310295e+01
2.490000e-06	2.877231e-06	9.083404e-10	1.996440e+01	6.389474e+01
2.500000e-06	2.916934e-06	9.189313e-10	2.023989e+01	6.465776e+01
2.510000e-06	2.956484e-06	9.297315e-10	2.051432e+01	6.539273e+01
2.520000e-06	2.995877e-06	9.392131e-10	2.078765e+01	6.610037e+01
2.530000e-06	3.035107e-06	9.467724e-10	2.105986e+01	6.678140e+01
2.540000e-06	3.074174e-06	9.539954e-10	2.133094e+01	6.743654e+01
2.550000e-06	3.113030e-06	9.622181e-10	2.160055e+01	6.806650e+01
2.560000e-06	3.151688e-06	9.699524e-10	2.186879e+01	6.867198e+01
2.570000e-06	3.190051e-06	9.788870e-10	2.213498e+01	6.925370e+01
2.580000e-06	3.228065e-06	9.886449e-10	2.239875e+01	6.981232e+01
2.590000e-06	3.265909e-06	9.970346e-10	2.266134e+01	7.034853e+01
2.600000e-06	3.303616e-06	1.004305e-09	2.292298e+01	7.086298e+01
2.610000e-06	3.341178e-06	1.009418e-09	2.318362e+01	7.135633e+01
2.620000e-06	3.378504e-06	1.015206e-09	2.344261e+01	7.182921e+01
2.630000e-06	3.415528e-06	1.021410e-09	2.369951e+01	7.228225e+01
2.640000e-06	3.452303e-06	1.026295e-09	2.395469e+01	7.271606e+01
2.650000e-06	3.488811e-06	1.031702e-09	2.420800e+01	7.313124e+01
2.660000e-06	3.525039e-06	1.037281e-09	2.445938e+01	7.352840e+01
2.670000e-06	3.561008e-06	1.043208e-09	2.470896e+01	7.390813e+01
2.680000e-06	3.596772e-06	1.049819e-09	2.495711e+01	7.427102e+01
2.690000e-06	3.632468e-06	1.055864e-09	2.520480e+01	7.461765e+01
2.700000e-06	3.668091e-06	1.060843e-09	2.545198e+01	7.494861e+01
2.710000e-06	3.703538e-06	1.065033e-09	2.569794e+01	7.526449e+01
2.720000e-06	3.738756e-06	1.067677e-09	2.594231e+01	7.556587e+01
2.730000e-06	3.773798e-06	1.070528e-09	2.618546e+01	7.585333e+01
2.740000e-06	3.808507e-06	1.075862e-09	2.642629e+01	7.612747e+01
2.750000e-06	3.842724e-06	1.081512e-09	2.666372e+01	7.638889e+01
2.760000e-06	3.876404e-06	1.085774e-09	2.689742e+01	7.663817e+01
2.770000e-06	3.909555e-06	1.090548e-09	2.712744e+01	7.687590e+01
2.780000e-06	3.942303e-06	1.095595e-09	2.735467e+01	7.710267e+01
2.790000e-06	3.974700e-06	1.100295e-09	2.757947e+01	7.731907e+01
2.800000e-06	4.006814e-06	1.104333e-09	2.780230e+01	7.752568e+01
2.810000e-06	4.038667e-06	1.106972e-09	2.802331e+01	7.772307e+01
2.820000e-06	4.070360e-06	1.108768e-09	2.824323e+01	7.791178e+01
2.830000e-06	4.101954e-06	1.112435e-09	2.846245e+01	7.809235e+01
2.840000e-06	4.133381e-06	1.117296e-09	2.868051e+01	7.826531e+01
2.850000e-06	4.164503e-06	1.120986e-09	2.889646e+01	7.843114e+01
2.860000e-06	4.195190e-06	1.123037e-09	2.910939e+01	7.859031e+01
2.870000e-06	4.225534e-06	1.125442e-09	2.931994e+01	7.874324e+01
2.880000e-06	4.255616e-06	1.128432e-09	2.952867e+01	7.889033e+01
2.890000e-06	4.285434e-06	1.130813e-09	2.973557e+01	7.903193e+01
2.900000e-06	4.315050e-06	1.132570e-09	2.994107e+01	7.916836e+01
