# Temperatura_=_9.7
# Concentracion g/m^3_=_1620.0
# C_Vs_to_Am_M_A/Vsm_=_65563218390.804596
# pendiente_HvsI_1/m_=_3716.3
# ordenada_HvsI_A/m_=_1297.0
# frecuencia_Hz_=_135098.5374213835

Tiempo_(s)	Campo_(V.s)	Magnetizacion_(V.s)	Campo_(kA/m)	Magnetizacion_(A/m)
0.000000e+00	-5.532250e-06	-1.640696e-09	-3.838068e+01	-1.071973e+02
1.000000e-08	-5.532473e-06	-1.636139e-09	-3.838223e+01	-1.071478e+02
2.000000e-08	-5.532452e-06	-1.634294e-09	-3.838208e+01	-1.071003e+02
3.000000e-08	-5.532061e-06	-1.636837e-09	-3.837936e+01	-1.070552e+02
4.000000e-08	-5.531184e-06	-1.641485e-09	-3.837328e+01	-1.070127e+02
5.000000e-08	-5.529710e-06	-1.639871e-09	-3.836305e+01	-1.069728e+02
6.000000e-08	-5.527495e-06	-1.624451e-09	-3.834769e+01	-1.069358e+02
7.000000e-08	-5.524704e-06	-1.606494e-09	-3.832833e+01	-1.069014e+02
8.000000e-08	-5.521509e-06	-1.635387e-09	-3.830616e+01	-1.068698e+02
9.000000e-08	-5.517934e-06	-1.713135e-09	-3.828136e+01	-1.068406e+02
1.000000e-07	-5.513902e-06	-1.716073e-09	-3.825338e+01	-1.068137e+02
1.100000e-07	-5.509445e-06	-1.626780e-09	-3.822247e+01	-1.067887e+02
1.200000e-07	-5.504864e-06	-1.558679e-09	-3.819069e+01	-1.067651e+02
1.300000e-07	-5.500165e-06	-1.618290e-09	-3.815808e+01	-1.067425e+02
1.400000e-07	-5.495011e-06	-1.682154e-09	-3.812233e+01	-1.067202e+02
1.500000e-07	-5.489397e-06	-1.635447e-09	-3.808338e+01	-1.066977e+02
1.600000e-07	-5.483508e-06	-1.580987e-09	-3.804252e+01	-1.066743e+02
1.700000e-07	-5.477218e-06	-1.627583e-09	-3.799888e+01	-1.066492e+02
1.800000e-07	-5.470388e-06	-1.693997e-09	-3.795150e+01	-1.066216e+02
1.900000e-07	-5.463101e-06	-1.651309e-09	-3.790095e+01	-1.065908e+02
2.000000e-07	-5.455564e-06	-1.583487e-09	-3.784866e+01	-1.065560e+02
2.100000e-07	-5.447800e-06	-1.607702e-09	-3.779479e+01	-1.065164e+02
2.200000e-07	-5.439818e-06	-1.687670e-09	-3.773942e+01	-1.064712e+02
2.300000e-07	-5.431631e-06	-1.687582e-09	-3.768262e+01	-1.064196e+02
2.400000e-07	-5.423010e-06	-1.637188e-09	-3.762281e+01	-1.063610e+02
2.500000e-07	-5.413726e-06	-1.621910e-09	-3.755840e+01	-1.062946e+02
2.600000e-07	-5.403731e-06	-1.648214e-09	-3.748906e+01	-1.062200e+02
2.700000e-07	-5.393065e-06	-1.638481e-09	-3.741507e+01	-1.061366e+02
2.800000e-07	-5.381891e-06	-1.610659e-09	-3.733754e+01	-1.060439e+02
2.900000e-07	-5.370352e-06	-1.613872e-09	-3.725749e+01	-1.059417e+02
3.000000e-07	-5.358509e-06	-1.636774e-09	-3.717533e+01	-1.058296e+02
3.100000e-07	-5.346227e-06	-1.618710e-09	-3.709012e+01	-1.057076e+02
3.200000e-07	-5.333382e-06	-1.591061e-09	-3.700101e+01	-1.055755e+02
3.300000e-07	-5.320158e-06	-1.604546e-09	-3.690926e+01	-1.054336e+02
3.400000e-07	-5.306707e-06	-1.627870e-09	-3.681594e+01	-1.052818e+02
3.500000e-07	-5.292913e-06	-1.603855e-09	-3.672024e+01	-1.051206e+02
3.600000e-07	-5.278717e-06	-1.590512e-09	-3.662176e+01	-1.049503e+02
3.700000e-07	-5.264049e-06	-1.612729e-09	-3.652000e+01	-1.047713e+02
3.800000e-07	-5.248726e-06	-1.597559e-09	-3.641370e+01	-1.045841e+02
3.900000e-07	-5.232734e-06	-1.557554e-09	-3.630275e+01	-1.043895e+02
4.000000e-07	-5.216220e-06	-1.574092e-09	-3.618818e+01	-1.041880e+02
4.100000e-07	-5.199369e-06	-1.600289e-09	-3.607127e+01	-1.039804e+02
4.200000e-07	-5.182207e-06	-1.561215e-09	-3.595221e+01	-1.037675e+02
4.300000e-07	-5.164790e-06	-1.553300e-09	-3.583138e+01	-1.035500e+02
4.400000e-07	-5.147141e-06	-1.594504e-09	-3.570894e+01	-1.033287e+02
4.500000e-07	-5.129148e-06	-1.584004e-09	-3.558411e+01	-1.031045e+02
4.600000e-07	-5.110653e-06	-1.538085e-09	-3.545579e+01	-1.028781e+02
4.700000e-07	-5.091724e-06	-1.558694e-09	-3.532448e+01	-1.026502e+02
4.800000e-07	-5.072480e-06	-1.568840e-09	-3.519096e+01	-1.024216e+02
4.900000e-07	-5.052957e-06	-1.537565e-09	-3.505552e+01	-1.021928e+02
5.000000e-07	-5.033298e-06	-1.542126e-09	-3.491914e+01	-1.019646e+02
5.100000e-07	-5.013442e-06	-1.560533e-09	-3.478138e+01	-1.017373e+02
5.200000e-07	-4.993195e-06	-1.522810e-09	-3.464092e+01	-1.015114e+02
5.300000e-07	-4.972604e-06	-1.521405e-09	-3.449806e+01	-1.012873e+02
5.400000e-07	-4.951653e-06	-1.559968e-09	-3.435271e+01	-1.010651e+02
5.500000e-07	-4.930263e-06	-1.541261e-09	-3.420432e+01	-1.008451e+02
5.600000e-07	-4.908555e-06	-1.504811e-09	-3.405371e+01	-1.006273e+02
5.700000e-07	-4.886645e-06	-1.527015e-09	-3.390171e+01	-1.004116e+02
5.800000e-07	-4.864421e-06	-1.528737e-09	-3.374753e+01	-1.001980e+02
5.900000e-07	-4.841758e-06	-1.497934e-09	-3.359030e+01	-9.998613e+01
6.000000e-07	-4.818699e-06	-1.505601e-09	-3.343032e+01	-9.977577e+01
6.100000e-07	-4.795315e-06	-1.517706e-09	-3.326810e+01	-9.956652e+01
6.200000e-07	-4.771657e-06	-1.494943e-09	-3.310397e+01	-9.935795e+01
6.300000e-07	-4.747796e-06	-1.492894e-09	-3.293843e+01	-9.914958e+01
6.400000e-07	-4.723777e-06	-1.506410e-09	-3.277179e+01	-9.894086e+01
6.500000e-07	-4.699359e-06	-1.489817e-09	-3.260239e+01	-9.873124e+01
6.600000e-07	-4.674506e-06	-1.483651e-09	-3.242997e+01	-9.852013e+01
6.700000e-07	-4.649260e-06	-1.496649e-09	-3.225482e+01	-9.830694e+01
6.800000e-07	-4.623437e-06	-1.485146e-09	-3.207568e+01	-9.809110e+01
6.900000e-07	-4.597095e-06	-1.468645e-09	-3.189292e+01	-9.787203e+01
7.000000e-07	-4.570353e-06	-1.476990e-09	-3.170740e+01	-9.764919e+01
7.100000e-07	-4.543142e-06	-1.470601e-09	-3.151862e+01	-9.742209e+01
7.200000e-07	-4.515595e-06	-1.453527e-09	-3.132751e+01	-9.719028e+01
7.300000e-07	-4.487915e-06	-1.457995e-09	-3.113547e+01	-9.695335e+01
7.400000e-07	-4.460088e-06	-1.464852e-09	-3.094242e+01	-9.671097e+01
7.500000e-07	-4.432021e-06	-1.451436e-09	-3.074770e+01	-9.646287e+01
7.600000e-07	-4.403721e-06	-1.449807e-09	-3.055136e+01	-9.620885e+01
7.700000e-07	-4.375219e-06	-1.451822e-09	-3.035363e+01	-9.594879e+01
7.800000e-07	-4.346281e-06	-1.437888e-09	-3.015287e+01	-9.568262e+01
7.900000e-07	-4.316922e-06	-1.428810e-09	-2.994918e+01	-9.541037e+01
8.000000e-07	-4.287300e-06	-1.432910e-09	-2.974368e+01	-9.513211e+01
8.100000e-07	-4.257404e-06	-1.421670e-09	-2.953627e+01	-9.484799e+01
8.200000e-07	-4.227226e-06	-1.408469e-09	-2.932691e+01	-9.455821e+01
8.300000e-07	-4.196726e-06	-1.410094e-09	-2.911531e+01	-9.426302e+01
8.400000e-07	-4.165882e-06	-1.409591e-09	-2.890133e+01	-9.396272e+01
8.500000e-07	-4.134705e-06	-1.399690e-09	-2.868504e+01	-9.365763e+01
8.600000e-07	-4.103351e-06	-1.400086e-09	-2.846751e+01	-9.334811e+01
8.700000e-07	-4.071848e-06	-1.399070e-09	-2.824896e+01	-9.303452e+01
8.800000e-07	-4.040139e-06	-1.384460e-09	-2.802897e+01	-9.271724e+01
8.900000e-07	-4.008223e-06	-1.374398e-09	-2.780755e+01	-9.239662e+01
9.000000e-07	-3.976102e-06	-1.374165e-09	-2.758470e+01	-9.207303e+01
9.100000e-07	-3.943735e-06	-1.366165e-09	-2.736016e+01	-9.174679e+01
9.200000e-07	-3.911065e-06	-1.359141e-09	-2.713350e+01	-9.141819e+01
9.300000e-07	-3.877952e-06	-1.363841e-09	-2.690378e+01	-9.108750e+01
9.400000e-07	-3.844213e-06	-1.362241e-09	-2.666971e+01	-9.075493e+01
9.500000e-07	-3.809896e-06	-1.352562e-09	-2.643163e+01	-9.042064e+01
9.600000e-07	-3.775147e-06	-1.348459e-09	-2.619056e+01	-9.008474e+01
9.700000e-07	-3.740134e-06	-1.342687e-09	-2.594765e+01	-8.974729e+01
9.800000e-07	-3.704894e-06	-1.327524e-09	-2.570316e+01	-8.940829e+01
9.900000e-07	-3.669405e-06	-1.317779e-09	-2.545696e+01	-8.906767e+01
1.000000e-06	-3.633768e-06	-1.311757e-09	-2.520972e+01	-8.872532e+01
1.010000e-06	-3.598001e-06	-1.302537e-09	-2.496158e+01	-8.838109e+01
1.020000e-06	-3.562096e-06	-1.296867e-09	-2.471249e+01	-8.803474e+01
1.030000e-06	-3.526045e-06	-1.297606e-09	-2.446238e+01	-8.768603e+01
1.040000e-06	-3.489789e-06	-1.291729e-09	-2.421085e+01	-8.733466e+01
1.050000e-06	-3.453205e-06	-1.282078e-09	-2.395704e+01	-8.698032e+01
1.060000e-06	-3.416275e-06	-1.275071e-09	-2.370084e+01	-8.662265e+01
1.070000e-06	-3.379061e-06	-1.267893e-09	-2.344266e+01	-8.626129e+01
1.080000e-06	-3.341638e-06	-1.256767e-09	-2.318303e+01	-8.589588e+01
1.090000e-06	-3.304069e-06	-1.249396e-09	-2.292239e+01	-8.552605e+01
1.100000e-06	-3.266308e-06	-1.244047e-09	-2.266042e+01	-8.515144e+01
1.110000e-06	-3.228317e-06	-1.236636e-09	-2.239686e+01	-8.477171e+01
1.120000e-06	-3.190045e-06	-1.228973e-09	-2.213134e+01	-8.438655e+01
1.130000e-06	-3.151464e-06	-1.224984e-09	-2.186368e+01	-8.399565e+01
1.140000e-06	-3.112681e-06	-1.219160e-09	-2.159462e+01	-8.359875e+01
1.150000e-06	-3.073788e-06	-1.211771e-09	-2.132479e+01	-8.319565e+01
1.160000e-06	-3.034741e-06	-1.206661e-09	-2.105389e+01	-8.278614e+01
1.170000e-06	-2.995415e-06	-1.199357e-09	-2.078106e+01	-8.237010e+01
1.180000e-06	-2.955920e-06	-1.188891e-09	-2.050706e+01	-8.194743e+01
1.190000e-06	-2.916317e-06	-1.182669e-09	-2.023231e+01	-8.151806e+01
1.200000e-06	-2.876556e-06	-1.177708e-09	-1.995647e+01	-8.108198e+01
1.210000e-06	-2.836665e-06	-1.169693e-09	-1.967972e+01	-8.063921e+01
1.220000e-06	-2.796655e-06	-1.163796e-09	-1.940214e+01	-8.018979e+01
1.230000e-06	-2.756565e-06	-1.160701e-09	-1.912402e+01	-7.973381e+01
1.240000e-06	-2.716315e-06	-1.156272e-09	-1.884477e+01	-7.927137e+01
1.250000e-06	-2.675746e-06	-1.148217e-09	-1.856333e+01	-7.880258e+01
1.260000e-06	-2.634954e-06	-1.141466e-09	-1.828032e+01	-7.832757e+01
1.270000e-06	-2.593824e-06	-1.133444e-09	-1.799498e+01	-7.784647e+01
1.280000e-06	-2.552338e-06	-1.121962e-09	-1.770716e+01	-7.735939e+01
1.290000e-06	-2.510609e-06	-1.109428e-09	-1.741766e+01	-7.686644e+01
1.300000e-06	-2.468558e-06	-1.097497e-09	-1.712593e+01	-7.636771e+01
1.310000e-06	-2.426200e-06	-1.086515e-09	-1.683207e+01	-7.586326e+01
1.320000e-06	-2.383511e-06	-1.079602e-09	-1.653591e+01	-7.535311e+01
1.330000e-06	-2.340532e-06	-1.075370e-09	-1.623773e+01	-7.483725e+01
1.340000e-06	-2.297314e-06	-1.068154e-09	-1.593790e+01	-7.431562e+01
1.350000e-06	-2.253962e-06	-1.059935e-09	-1.563714e+01	-7.378812e+01
1.360000e-06	-2.210505e-06	-1.053066e-09	-1.533565e+01	-7.325458e+01
1.370000e-06	-2.166908e-06	-1.044378e-09	-1.503320e+01	-7.271480e+01
1.380000e-06	-2.123227e-06	-1.034653e-09	-1.473016e+01	-7.216851e+01
1.390000e-06	-2.079470e-06	-1.023382e-09	-1.442659e+01	-7.161538e+01
1.400000e-06	-2.035584e-06	-1.010473e-09	-1.412212e+01	-7.105505e+01
1.410000e-06	-1.991618e-06	-9.989269e-10	-1.381710e+01	-7.048707e+01
1.420000e-06	-1.947602e-06	-9.891493e-10	-1.351173e+01	-6.991097e+01
1.430000e-06	-1.903494e-06	-9.805013e-10	-1.320573e+01	-6.932622e+01
1.440000e-06	-1.859289e-06	-9.737476e-10	-1.289905e+01	-6.873226e+01
1.450000e-06	-1.814902e-06	-9.661861e-10	-1.259111e+01	-6.812846e+01
1.460000e-06	-1.770402e-06	-9.550762e-10	-1.228239e+01	-6.751419e+01
1.470000e-06	-1.725872e-06	-9.408632e-10	-1.197345e+01	-6.688876e+01
1.480000e-06	-1.681213e-06	-9.281477e-10	-1.166362e+01	-6.625149e+01
1.490000e-06	-1.636471e-06	-9.154042e-10	-1.135322e+01	-6.560164e+01
1.500000e-06	-1.591586e-06	-9.000660e-10	-1.104183e+01	-6.493849e+01
1.510000e-06	-1.546535e-06	-8.851094e-10	-1.072928e+01	-6.426128e+01
1.520000e-06	-1.501398e-06	-8.751125e-10	-1.041614e+01	-6.356927e+01
1.530000e-06	-1.456115e-06	-8.681074e-10	-1.010198e+01	-6.286170e+01
1.540000e-06	-1.410742e-06	-8.601155e-10	-9.787198e+00	-6.213781e+01
1.550000e-06	-1.365357e-06	-8.510569e-10	-9.472334e+00	-6.139684e+01
1.560000e-06	-1.319875e-06	-8.393904e-10	-9.156796e+00	-6.063804e+01
1.570000e-06	-1.274292e-06	-8.252818e-10	-8.840560e+00	-5.986066e+01
1.580000e-06	-1.228616e-06	-8.107612e-10	-8.523679e+00	-5.906396e+01
1.590000e-06	-1.182821e-06	-7.942866e-10	-8.205967e+00	-5.824718e+01
1.600000e-06	-1.136878e-06	-7.779965e-10	-7.887233e+00	-5.740959e+01
1.610000e-06	-1.090803e-06	-7.652015e-10	-7.567582e+00	-5.655044e+01
1.620000e-06	-1.044729e-06	-7.546139e-10	-7.247941e+00	-5.566899e+01
1.630000e-06	-9.985391e-07	-7.454918e-10	-6.927490e+00	-5.476449e+01
1.640000e-06	-9.522564e-07	-7.349068e-10	-6.606398e+00	-5.383619e+01
1.650000e-06	-9.060574e-07	-7.203433e-10	-6.285886e+00	-5.288333e+01
1.660000e-06	-8.598001e-07	-7.020884e-10	-5.964971e+00	-5.190514e+01
1.670000e-06	-8.134359e-07	-6.820099e-10	-5.643313e+00	-5.090083e+01
1.680000e-06	-7.669724e-07	-6.620394e-10	-5.320967e+00	-4.986961e+01
1.690000e-06	-7.204785e-07	-6.430835e-10	-4.998410e+00	-4.881068e+01
1.700000e-06	-6.739107e-07	-6.242695e-10	-4.675340e+00	-4.772322e+01
1.710000e-06	-6.272870e-07	-6.074445e-10	-4.351882e+00	-4.660640e+01
1.720000e-06	-5.806265e-07	-5.929461e-10	-4.028169e+00	-4.545939e+01
1.730000e-06	-5.339304e-07	-5.778790e-10	-3.704209e+00	-4.428136e+01
1.740000e-06	-4.872974e-07	-5.592091e-10	-3.380686e+00	-4.307147e+01
1.750000e-06	-4.405751e-07	-5.381440e-10	-3.056545e+00	-4.182890e+01
1.760000e-06	-3.937278e-07	-5.156180e-10	-2.731536e+00	-4.055286e+01
1.770000e-06	-3.469465e-07	-4.925620e-10	-2.406985e+00	-3.924255e+01
1.780000e-06	-3.002063e-07	-4.706174e-10	-2.082719e+00	-3.789723e+01
1.790000e-06	-2.533283e-07	-4.497341e-10	-1.757496e+00	-3.651622e+01
1.800000e-06	-2.063576e-07	-4.293252e-10	-1.431632e+00	-3.509887e+01
1.810000e-06	-1.593779e-07	-4.092089e-10	-1.105704e+00	-3.364462e+01
1.820000e-06	-1.124176e-07	-3.888888e-10	-7.799113e-01	-3.215299e+01
1.830000e-06	-6.556418e-08	-3.678064e-10	-4.548597e-01	-3.062360e+01
1.840000e-06	-1.877298e-08	-3.459458e-10	-1.302399e-01	-2.905618e+01
1.850000e-06	2.799546e-08	-3.242202e-10	1.942220e-01	-2.745058e+01
1.860000e-06	7.473606e-08	-3.022075e-10	5.184908e-01	-2.580680e+01
1.870000e-06	1.216311e-07	-2.787219e-10	8.438312e-01	-2.412498e+01
1.880000e-06	1.685715e-07	-2.533380e-10	1.169486e+00	-2.240543e+01
1.890000e-06	2.154622e-07	-2.266507e-10	1.494796e+00	-2.064863e+01
1.900000e-06	2.624028e-07	-2.002745e-10	1.820452e+00	-1.885523e+01
1.910000e-06	3.093461e-07	-1.724728e-10	2.146127e+00	-1.702608e+01
1.920000e-06	3.562196e-07	-1.437129e-10	2.471318e+00	-1.516222e+01
1.930000e-06	4.029956e-07	-1.175577e-10	2.795833e+00	-1.326489e+01
1.940000e-06	4.497517e-07	-9.508715e-11	3.120209e+00	-1.133551e+01
1.950000e-06	4.965115e-07	-7.328466e-11	3.444611e+00	-9.375715e+00
1.960000e-06	5.432193e-07	-5.092335e-11	3.768652e+00	-7.387326e+00
1.970000e-06	5.897748e-07	-2.425588e-11	4.091637e+00	-5.372350e+00
1.980000e-06	6.362496e-07	6.877788e-12	4.414061e+00	-3.332971e+00
1.990000e-06	6.828211e-07	4.042351e-11	4.737157e+00	-1.271544e+00
2.000000e-06	7.293739e-07	7.549135e-11	5.060123e+00	8.094229e-01
2.010000e-06	7.758078e-07	1.086750e-10	5.382264e+00	2.907279e+00
2.020000e-06	8.221041e-07	1.377349e-10	5.703450e+00	5.019251e+00
2.030000e-06	8.683049e-07	1.627436e-10	6.023974e+00	7.142458e+00
2.040000e-06	9.145297e-07	1.863733e-10	6.344664e+00	9.273936e+00
2.050000e-06	9.607660e-07	2.122873e-10	6.665434e+00	1.141065e+01
2.060000e-06	1.006908e-06	2.432523e-10	6.985553e+00	1.354954e+01
2.070000e-06	1.052903e-06	2.779766e-10	7.304649e+00	1.568749e+01
2.080000e-06	1.098831e-06	3.131031e-10	7.623278e+00	1.782142e+01
2.090000e-06	1.144737e-06	3.465325e-10	7.941759e+00	1.994826e+01
2.100000e-06	1.190589e-06	3.771547e-10	8.259862e+00	2.206499e+01
2.110000e-06	1.236342e-06	4.048062e-10	8.577277e+00	2.416866e+01
2.120000e-06	1.281963e-06	4.331713e-10	8.893781e+00	2.625641e+01
2.130000e-06	1.327445e-06	4.620573e-10	9.209314e+00	2.832549e+01
2.140000e-06	1.372825e-06	4.902697e-10	9.524148e+00	3.037327e+01
2.150000e-06	1.418082e-06	5.180669e-10	9.838121e+00	3.239729e+01
2.160000e-06	1.463296e-06	5.464776e-10	1.015180e+01	3.439521e+01
2.170000e-06	1.508545e-06	5.760536e-10	1.046572e+01	3.636491e+01
2.180000e-06	1.553692e-06	6.046131e-10	1.077893e+01	3.830441e+01
2.190000e-06	1.598674e-06	6.300051e-10	1.109100e+01	4.021196e+01
2.200000e-06	1.643511e-06	6.559491e-10	1.140207e+01	4.208596e+01
2.210000e-06	1.688277e-06	6.835698e-10	1.171263e+01	4.392506e+01
2.220000e-06	1.732914e-06	7.102739e-10	1.202231e+01	4.572809e+01
2.230000e-06	1.777420e-06	7.358786e-10	1.233108e+01	4.749406e+01
2.240000e-06	1.821790e-06	7.597007e-10	1.263889e+01	4.922222e+01
2.250000e-06	1.865981e-06	7.805539e-10	1.294548e+01	5.091197e+01
2.260000e-06	1.910046e-06	7.991878e-10	1.325118e+01	5.256293e+01
2.270000e-06	1.953995e-06	8.174527e-10	1.355609e+01	5.417486e+01
2.280000e-06	1.997872e-06	8.370292e-10	1.386049e+01	5.574772e+01
2.290000e-06	2.041668e-06	8.575099e-10	1.416433e+01	5.728159e+01
2.300000e-06	2.085399e-06	8.782382e-10	1.446772e+01	5.877672e+01
2.310000e-06	2.129115e-06	9.001574e-10	1.477100e+01	6.023345e+01
2.320000e-06	2.172793e-06	9.226184e-10	1.507402e+01	6.165228e+01
2.330000e-06	2.216356e-06	9.445680e-10	1.537625e+01	6.303375e+01
2.340000e-06	2.259781e-06	9.643270e-10	1.567751e+01	6.437852e+01
2.350000e-06	2.303089e-06	9.815398e-10	1.597797e+01	6.568731e+01
2.360000e-06	2.346179e-06	9.983032e-10	1.627691e+01	6.696089e+01
2.370000e-06	2.389001e-06	1.015110e-09	1.657399e+01	6.820006e+01
2.380000e-06	2.431560e-06	1.031134e-09	1.686925e+01	6.940567e+01
2.390000e-06	2.473851e-06	1.048367e-09	1.716265e+01	7.057855e+01
2.400000e-06	2.515877e-06	1.067277e-09	1.745421e+01	7.171957e+01
2.410000e-06	2.557513e-06	1.086640e-09	1.774307e+01	7.282958e+01
2.420000e-06	2.598721e-06	1.104622e-09	1.802895e+01	7.390939e+01
2.430000e-06	2.639622e-06	1.118077e-09	1.831271e+01	7.495984e+01
2.440000e-06	2.680225e-06	1.126300e-09	1.859439e+01	7.598169e+01
2.450000e-06	2.720636e-06	1.133184e-09	1.887475e+01	7.697570e+01
2.460000e-06	2.760918e-06	1.142026e-09	1.915422e+01	7.794259e+01
2.470000e-06	2.801030e-06	1.154257e-09	1.943250e+01	7.888305e+01
2.480000e-06	2.840969e-06	1.168525e-09	1.970958e+01	7.979770e+01
2.490000e-06	2.880759e-06	1.182687e-09	1.998563e+01	8.068717e+01
2.500000e-06	2.920508e-06	1.197337e-09	2.026139e+01	8.155201e+01
2.510000e-06	2.960128e-06	1.209969e-09	2.053626e+01	8.239277e+01
2.520000e-06	2.999560e-06	1.219490e-09	2.080983e+01	8.320996e+01
2.530000e-06	3.038858e-06	1.228232e-09	2.108246e+01	8.400406e+01
2.540000e-06	3.077962e-06	1.235143e-09	2.135375e+01	8.477552e+01
2.550000e-06	3.116807e-06	1.244298e-09	2.162324e+01	8.552479e+01
2.560000e-06	3.155320e-06	1.253634e-09	2.189043e+01	8.625228e+01
2.570000e-06	3.193578e-06	1.261846e-09	2.215585e+01	8.695843e+01
2.580000e-06	3.231726e-06	1.269946e-09	2.242050e+01	8.764363e+01
2.590000e-06	3.269623e-06	1.279209e-09	2.268342e+01	8.830831e+01
2.600000e-06	3.307280e-06	1.289800e-09	2.294467e+01	8.895287e+01
2.610000e-06	3.344758e-06	1.300008e-09	2.320468e+01	8.957772e+01
2.620000e-06	3.382044e-06	1.310977e-09	2.346335e+01	9.018331e+01
2.630000e-06	3.419111e-06	1.320498e-09	2.372051e+01	9.077008e+01
2.640000e-06	3.455782e-06	1.328067e-09	2.397492e+01	9.133846e+01
2.650000e-06	3.492166e-06	1.332699e-09	2.422734e+01	9.188893e+01
2.660000e-06	3.528355e-06	1.337047e-09	2.447840e+01	9.242198e+01
2.670000e-06	3.564314e-06	1.342071e-09	2.472787e+01	9.293809e+01
2.680000e-06	3.600159e-06	1.347667e-09	2.497655e+01	9.343778e+01
2.690000e-06	3.635905e-06	1.355380e-09	2.522454e+01	9.392157e+01
2.700000e-06	3.671498e-06	1.364776e-09	2.547148e+01	9.439000e+01
2.710000e-06	3.706968e-06	1.374300e-09	2.571755e+01	9.484360e+01
2.720000e-06	3.742211e-06	1.382650e-09	2.596206e+01	9.528292e+01
2.730000e-06	3.777133e-06	1.389120e-09	2.620433e+01	9.570851e+01
2.740000e-06	3.811743e-06	1.394494e-09	2.644444e+01	9.612092e+01
2.750000e-06	3.845918e-06	1.397856e-09	2.668154e+01	9.652070e+01
2.760000e-06	3.879507e-06	1.400845e-09	2.691457e+01	9.690838e+01
2.770000e-06	3.912531e-06	1.405933e-09	2.714368e+01	9.728450e+01
2.780000e-06	3.945184e-06	1.415080e-09	2.737021e+01	9.764956e+01
2.790000e-06	3.977506e-06	1.425916e-09	2.759445e+01	9.800406e+01
2.800000e-06	4.009556e-06	1.436278e-09	2.781680e+01	9.834848e+01
2.810000e-06	4.041450e-06	1.443143e-09	2.803807e+01	9.868328e+01
2.820000e-06	4.073184e-06	1.446362e-09	2.825822e+01	9.900887e+01
2.830000e-06	4.104737e-06	1.448252e-09	2.847713e+01	9.932566e+01
2.840000e-06	4.136069e-06	1.449322e-09	2.869449e+01	9.963403e+01
2.850000e-06	4.167154e-06	1.450634e-09	2.891015e+01	9.993431e+01
2.860000e-06	4.197904e-06	1.452684e-09	2.912348e+01	1.002268e+02
2.870000e-06	4.228284e-06	1.458770e-09	2.933425e+01	1.005118e+02
2.880000e-06	4.258405e-06	1.466439e-09	2.954322e+01	1.007896e+02
2.890000e-06	4.288223e-06	1.471344e-09	2.975008e+01	1.010604e+02
2.900000e-06	4.317732e-06	1.473090e-09	2.995481e+01	1.013243e+02
