# Temperatura_=_15.6
# Concentracion g/m^3_=_1620.0
# C_Vs_to_Am_M_A/Vsm_=_65563218390.804596
# pendiente_HvsI_1/m_=_3716.3
# ordenada_HvsI_A/m_=_1297.0
# frecuencia_Hz_=_135091.04103981188

Tiempo_(s)	Campo_(V.s)	Magnetizacion_(V.s)	Campo_(kA/m)	Magnetizacion_(A/m)
0.000000e+00	-5.532819e-06	-1.561632e-09	-3.837686e+01	-1.016438e+02
1.000000e-08	-5.532893e-06	-1.559645e-09	-3.837737e+01	-1.015506e+02
2.000000e-08	-5.532763e-06	-1.555386e-09	-3.837647e+01	-1.014600e+02
3.000000e-08	-5.532309e-06	-1.552457e-09	-3.837332e+01	-1.013724e+02
4.000000e-08	-5.531439e-06	-1.551472e-09	-3.836728e+01	-1.012885e+02
5.000000e-08	-5.530060e-06	-1.550071e-09	-3.835772e+01	-1.012086e+02
6.000000e-08	-5.527961e-06	-1.544064e-09	-3.834316e+01	-1.011331e+02
7.000000e-08	-5.525132e-06	-1.533561e-09	-3.832354e+01	-1.010623e+02
8.000000e-08	-5.521922e-06	-1.525690e-09	-3.830127e+01	-1.009963e+02
9.000000e-08	-5.518405e-06	-1.582142e-09	-3.827688e+01	-1.009352e+02
1.000000e-07	-5.514389e-06	-1.666438e-09	-3.824902e+01	-1.008789e+02
1.100000e-07	-5.509900e-06	-1.618078e-09	-3.821789e+01	-1.008273e+02
1.200000e-07	-5.505185e-06	-1.441973e-09	-3.818518e+01	-1.007801e+02
1.300000e-07	-5.500472e-06	-1.446288e-09	-3.815249e+01	-1.007369e+02
1.400000e-07	-5.495426e-06	-1.589086e-09	-3.811749e+01	-1.006974e+02
1.500000e-07	-5.489883e-06	-1.637562e-09	-3.807904e+01	-1.006609e+02
1.600000e-07	-5.483967e-06	-1.484237e-09	-3.803800e+01	-1.006268e+02
1.700000e-07	-5.477697e-06	-1.469321e-09	-3.799452e+01	-1.005944e+02
1.800000e-07	-5.470852e-06	-1.578421e-09	-3.794704e+01	-1.005629e+02
1.900000e-07	-5.463524e-06	-1.612616e-09	-3.789621e+01	-1.005316e+02
2.000000e-07	-5.456003e-06	-1.482073e-09	-3.784404e+01	-1.004995e+02
2.100000e-07	-5.448277e-06	-1.460629e-09	-3.779045e+01	-1.004659e+02
2.200000e-07	-5.440258e-06	-1.550383e-09	-3.773483e+01	-1.004298e+02
2.300000e-07	-5.431899e-06	-1.596342e-09	-3.767685e+01	-1.003905e+02
2.400000e-07	-5.423103e-06	-1.529580e-09	-3.761584e+01	-1.003469e+02
2.500000e-07	-5.413796e-06	-1.479766e-09	-3.755129e+01	-1.002984e+02
2.600000e-07	-5.403714e-06	-1.521442e-09	-3.748136e+01	-1.002442e+02
2.700000e-07	-5.392861e-06	-1.553081e-09	-3.740608e+01	-1.001836e+02
2.800000e-07	-5.381596e-06	-1.546547e-09	-3.732794e+01	-1.001159e+02
2.900000e-07	-5.369913e-06	-1.514039e-09	-3.724691e+01	-1.000407e+02
3.000000e-07	-5.357898e-06	-1.541292e-09	-3.716357e+01	-9.995759e+01
3.100000e-07	-5.345616e-06	-1.546834e-09	-3.707837e+01	-9.986611e+01
3.200000e-07	-5.332881e-06	-1.544045e-09	-3.699004e+01	-9.976605e+01
3.300000e-07	-5.319677e-06	-1.486839e-09	-3.689846e+01	-9.965728e+01
3.400000e-07	-5.306070e-06	-1.530206e-09	-3.680408e+01	-9.953976e+01
3.500000e-07	-5.292041e-06	-1.560337e-09	-3.670677e+01	-9.941356e+01
3.600000e-07	-5.277535e-06	-1.548612e-09	-3.660615e+01	-9.927882e+01
3.700000e-07	-5.262630e-06	-1.499129e-09	-3.650277e+01	-9.913581e+01
3.800000e-07	-5.247464e-06	-1.546407e-09	-3.639757e+01	-9.898486e+01
3.900000e-07	-5.231845e-06	-1.522044e-09	-3.628924e+01	-9.882638e+01
4.000000e-07	-5.215558e-06	-1.468553e-09	-3.617626e+01	-9.866085e+01
4.100000e-07	-5.198749e-06	-1.512249e-09	-3.605967e+01	-9.848878e+01
4.200000e-07	-5.181644e-06	-1.567581e-09	-3.594103e+01	-9.831076e+01
4.300000e-07	-5.164194e-06	-1.475769e-09	-3.581999e+01	-9.812739e+01
4.400000e-07	-5.146343e-06	-1.458640e-09	-3.569617e+01	-9.793928e+01
4.500000e-07	-5.128237e-06	-1.553190e-09	-3.557058e+01	-9.774705e+01
4.600000e-07	-5.109833e-06	-1.509974e-09	-3.544293e+01	-9.755132e+01
4.700000e-07	-5.090960e-06	-1.412280e-09	-3.531203e+01	-9.735267e+01
4.800000e-07	-5.071666e-06	-1.491341e-09	-3.517820e+01	-9.715166e+01
4.900000e-07	-5.052084e-06	-1.536717e-09	-3.504237e+01	-9.694881e+01
5.000000e-07	-5.032292e-06	-1.437567e-09	-3.490509e+01	-9.674459e+01
5.100000e-07	-5.012288e-06	-1.460074e-09	-3.476634e+01	-9.653939e+01
5.200000e-07	-4.992099e-06	-1.531801e-09	-3.462630e+01	-9.633356e+01
5.300000e-07	-4.971517e-06	-1.453104e-09	-3.448354e+01	-9.612736e+01
5.400000e-07	-4.950491e-06	-1.421414e-09	-3.433770e+01	-9.592099e+01
5.500000e-07	-4.929202e-06	-1.521094e-09	-3.419003e+01	-9.571456e+01
5.600000e-07	-4.907581e-06	-1.477473e-09	-3.404007e+01	-9.550812e+01
5.700000e-07	-4.885558e-06	-1.401411e-09	-3.388731e+01	-9.530164e+01
5.800000e-07	-4.863275e-06	-1.469232e-09	-3.373275e+01	-9.509503e+01
5.900000e-07	-4.840763e-06	-1.492520e-09	-3.357661e+01	-9.488812e+01
6.000000e-07	-4.817783e-06	-1.402129e-09	-3.341721e+01	-9.468069e+01
6.100000e-07	-4.794346e-06	-1.428161e-09	-3.325465e+01	-9.447248e+01
6.200000e-07	-4.770686e-06	-1.469426e-09	-3.309054e+01	-9.426317e+01
6.300000e-07	-4.746804e-06	-1.415584e-09	-3.292488e+01	-9.405241e+01
6.400000e-07	-4.722696e-06	-1.401403e-09	-3.275766e+01	-9.383984e+01
6.500000e-07	-4.698320e-06	-1.452660e-09	-3.258859e+01	-9.362507e+01
6.600000e-07	-4.673531e-06	-1.422213e-09	-3.241664e+01	-9.340772e+01
6.700000e-07	-4.648209e-06	-1.402523e-09	-3.224100e+01	-9.318740e+01
6.800000e-07	-4.622400e-06	-1.428543e-09	-3.206199e+01	-9.296374e+01
6.900000e-07	-4.596079e-06	-1.417529e-09	-3.187942e+01	-9.273640e+01
7.000000e-07	-4.569186e-06	-1.381225e-09	-3.169289e+01	-9.250506e+01
7.100000e-07	-4.541927e-06	-1.400337e-09	-3.150381e+01	-9.226943e+01
7.200000e-07	-4.514351e-06	-1.405715e-09	-3.131253e+01	-9.202929e+01
7.300000e-07	-4.486531e-06	-1.383929e-09	-3.111957e+01	-9.178443e+01
7.400000e-07	-4.458548e-06	-1.385665e-09	-3.092548e+01	-9.153472e+01
7.500000e-07	-4.430354e-06	-1.393465e-09	-3.072991e+01	-9.128007e+01
7.600000e-07	-4.401950e-06	-1.371958e-09	-3.053290e+01	-9.102044e+01
7.700000e-07	-4.373274e-06	-1.366327e-09	-3.033400e+01	-9.075584e+01
7.800000e-07	-4.344162e-06	-1.368876e-09	-3.013207e+01	-9.048632e+01
7.900000e-07	-4.314647e-06	-1.354110e-09	-2.992734e+01	-9.021201e+01
8.000000e-07	-4.284887e-06	-1.349477e-09	-2.972092e+01	-8.993303e+01
8.100000e-07	-4.254923e-06	-1.354142e-09	-2.951309e+01	-8.964958e+01
8.200000e-07	-4.224738e-06	-1.341693e-09	-2.930372e+01	-8.936187e+01
8.300000e-07	-4.194219e-06	-1.324263e-09	-2.909203e+01	-8.907013e+01
8.400000e-07	-4.163417e-06	-1.330220e-09	-2.887838e+01	-8.877461e+01
8.500000e-07	-4.132331e-06	-1.328663e-09	-2.866276e+01	-8.847557e+01
8.600000e-07	-4.100961e-06	-1.315158e-09	-2.844517e+01	-8.817328e+01
8.700000e-07	-4.069413e-06	-1.309649e-09	-2.822635e+01	-8.786800e+01
8.800000e-07	-4.037681e-06	-1.311309e-09	-2.800625e+01	-8.755996e+01
8.900000e-07	-4.005693e-06	-1.291992e-09	-2.778437e+01	-8.724939e+01
9.000000e-07	-3.973539e-06	-1.284824e-09	-2.756135e+01	-8.693650e+01
9.100000e-07	-3.941245e-06	-1.286033e-09	-2.733735e+01	-8.662145e+01
9.200000e-07	-3.908515e-06	-1.277487e-09	-2.711032e+01	-8.630440e+01
9.300000e-07	-3.875271e-06	-1.264159e-09	-2.687974e+01	-8.598543e+01
9.400000e-07	-3.841560e-06	-1.271715e-09	-2.664591e+01	-8.566463e+01
9.500000e-07	-3.807433e-06	-1.267323e-09	-2.640920e+01	-8.534202e+01
9.600000e-07	-3.772888e-06	-1.255258e-09	-2.616959e+01	-8.501758e+01
9.700000e-07	-3.738047e-06	-1.251573e-09	-2.592792e+01	-8.469126e+01
9.800000e-07	-3.702888e-06	-1.250897e-09	-2.568405e+01	-8.436298e+01
9.900000e-07	-3.667325e-06	-1.233629e-09	-2.543738e+01	-8.403262e+01
1.000000e-06	-3.631561e-06	-1.222645e-09	-2.518931e+01	-8.370002e+01
1.010000e-06	-3.595658e-06	-1.221252e-09	-2.494028e+01	-8.336502e+01
1.020000e-06	-3.559626e-06	-1.216047e-09	-2.469035e+01	-8.302740e+01
1.030000e-06	-3.523512e-06	-1.208596e-09	-2.443986e+01	-8.268697e+01
1.040000e-06	-3.487257e-06	-1.211700e-09	-2.418839e+01	-8.234348e+01
1.050000e-06	-3.450736e-06	-1.207375e-09	-2.393507e+01	-8.199671e+01
1.060000e-06	-3.413902e-06	-1.193327e-09	-2.367958e+01	-8.164643e+01
1.070000e-06	-3.376834e-06	-1.186730e-09	-2.342247e+01	-8.129240e+01
1.080000e-06	-3.339514e-06	-1.183232e-09	-2.316361e+01	-8.093440e+01
1.090000e-06	-3.301825e-06	-1.172890e-09	-2.290219e+01	-8.057222e+01
1.100000e-06	-3.263955e-06	-1.166622e-09	-2.263951e+01	-8.020568e+01
1.110000e-06	-3.225929e-06	-1.167613e-09	-2.237576e+01	-7.983458e+01
1.120000e-06	-3.187611e-06	-1.159957e-09	-2.210997e+01	-7.945879e+01
1.130000e-06	-3.149024e-06	-1.150866e-09	-2.184233e+01	-7.907817e+01
1.140000e-06	-3.110250e-06	-1.146439e-09	-2.157338e+01	-7.869261e+01
1.150000e-06	-3.071220e-06	-1.142264e-09	-2.130266e+01	-7.830202e+01
1.160000e-06	-3.031972e-06	-1.129458e-09	-2.103043e+01	-7.790632e+01
1.170000e-06	-2.992657e-06	-1.119697e-09	-2.075773e+01	-7.750548e+01
1.180000e-06	-2.953176e-06	-1.113197e-09	-2.048388e+01	-7.709946e+01
1.190000e-06	-2.913482e-06	-1.109028e-09	-2.020856e+01	-7.668824e+01
1.200000e-06	-2.873679e-06	-1.104429e-09	-1.993248e+01	-7.627181e+01
1.210000e-06	-2.833783e-06	-1.100661e-09	-1.965575e+01	-7.585015e+01
1.220000e-06	-2.793792e-06	-1.090161e-09	-1.937836e+01	-7.542328e+01
1.230000e-06	-2.753621e-06	-1.082267e-09	-1.909973e+01	-7.499116e+01
1.240000e-06	-2.713230e-06	-1.077520e-09	-1.881956e+01	-7.455380e+01
1.250000e-06	-2.672648e-06	-1.072716e-09	-1.853808e+01	-7.411115e+01
1.260000e-06	-2.631793e-06	-1.063168e-09	-1.825470e+01	-7.366317e+01
1.270000e-06	-2.590592e-06	-1.055186e-09	-1.796892e+01	-7.320980e+01
1.280000e-06	-2.549183e-06	-1.047592e-09	-1.768170e+01	-7.275094e+01
1.290000e-06	-2.507535e-06	-1.035832e-09	-1.739282e+01	-7.228648e+01
1.300000e-06	-2.465576e-06	-1.023912e-09	-1.710178e+01	-7.181626e+01
1.310000e-06	-2.423413e-06	-1.018448e-09	-1.680933e+01	-7.134013e+01
1.320000e-06	-2.380940e-06	-1.012367e-09	-1.651473e+01	-7.085786e+01
1.330000e-06	-2.338082e-06	-1.004801e-09	-1.621746e+01	-7.036923e+01
1.340000e-06	-2.294888e-06	-9.975456e-10	-1.591785e+01	-6.987396e+01
1.350000e-06	-2.251470e-06	-9.914001e-10	-1.561669e+01	-6.937177e+01
1.360000e-06	-2.207911e-06	-9.839383e-10	-1.531456e+01	-6.886233e+01
1.370000e-06	-2.164266e-06	-9.759536e-10	-1.501183e+01	-6.834530e+01
1.380000e-06	-2.120526e-06	-9.677032e-10	-1.470844e+01	-6.782029e+01
1.390000e-06	-2.076709e-06	-9.566513e-10	-1.440452e+01	-6.728694e+01
1.400000e-06	-2.032821e-06	-9.468021e-10	-1.410009e+01	-6.674482e+01
1.410000e-06	-1.988810e-06	-9.382210e-10	-1.379483e+01	-6.619353e+01
1.420000e-06	-1.944742e-06	-9.284822e-10	-1.348916e+01	-6.563263e+01
1.430000e-06	-1.900654e-06	-9.184253e-10	-1.318336e+01	-6.506169e+01
1.440000e-06	-1.856447e-06	-9.100698e-10	-1.287673e+01	-6.448026e+01
1.450000e-06	-1.812141e-06	-9.007591e-10	-1.256941e+01	-6.388790e+01
1.460000e-06	-1.767698e-06	-8.890815e-10	-1.226114e+01	-6.328417e+01
1.470000e-06	-1.723116e-06	-8.743401e-10	-1.195191e+01	-6.266860e+01
1.480000e-06	-1.678383e-06	-8.605588e-10	-1.164164e+01	-6.204077e+01
1.490000e-06	-1.633546e-06	-8.438872e-10	-1.133064e+01	-6.140021e+01
1.500000e-06	-1.588657e-06	-8.257277e-10	-1.101928e+01	-6.074646e+01
1.510000e-06	-1.543549e-06	-8.127711e-10	-1.070640e+01	-6.007908e+01
1.520000e-06	-1.498280e-06	-8.063957e-10	-1.039240e+01	-5.939758e+01
1.530000e-06	-1.452933e-06	-7.985155e-10	-1.007787e+01	-5.870150e+01
1.540000e-06	-1.407482e-06	-7.891927e-10	-9.762609e+00	-5.799033e+01
1.550000e-06	-1.361944e-06	-7.761063e-10	-9.446744e+00	-5.726356e+01
1.560000e-06	-1.316350e-06	-7.623337e-10	-9.130494e+00	-5.652064e+01
1.570000e-06	-1.270662e-06	-7.497067e-10	-8.813595e+00	-5.576101e+01
1.580000e-06	-1.224885e-06	-7.371533e-10	-8.496074e+00	-5.498404e+01
1.590000e-06	-1.178986e-06	-7.223042e-10	-8.177707e+00	-5.418911e+01
1.600000e-06	-1.132994e-06	-7.093348e-10	-7.858700e+00	-5.337550e+01
1.610000e-06	-1.087008e-06	-6.968995e-10	-7.539728e+00	-5.254248e+01
1.620000e-06	-1.040890e-06	-6.835090e-10	-7.219842e+00	-5.168925e+01
1.630000e-06	-9.945974e-07	-6.725887e-10	-6.898748e+00	-5.081496e+01
1.640000e-06	-9.482175e-07	-6.605354e-10	-6.577046e+00	-4.991871e+01
1.650000e-06	-9.018869e-07	-6.441191e-10	-6.255687e+00	-4.899953e+01
1.660000e-06	-8.555455e-07	-6.275485e-10	-5.934253e+00	-4.805641e+01
1.670000e-06	-8.091179e-07	-6.110273e-10	-5.612221e+00	-4.708827e+01
1.680000e-06	-7.626411e-07	-5.926257e-10	-5.289847e+00	-4.609400e+01
1.690000e-06	-7.161322e-07	-5.737192e-10	-4.967251e+00	-4.507244e+01
1.700000e-06	-6.696331e-07	-5.554528e-10	-4.644724e+00	-4.402239e+01
1.710000e-06	-6.230105e-07	-5.398212e-10	-4.321338e+00	-4.294264e+01
1.720000e-06	-5.763460e-07	-5.251189e-10	-3.997663e+00	-4.183195e+01
1.730000e-06	-5.296999e-07	-5.101712e-10	-3.674116e+00	-4.068909e+01
1.740000e-06	-4.829935e-07	-4.933918e-10	-3.350150e+00	-3.951283e+01
1.750000e-06	-4.361796e-07	-4.729350e-10	-3.025438e+00	-3.830197e+01
1.760000e-06	-3.893116e-07	-4.501239e-10	-2.700351e+00	-3.705536e+01
1.770000e-06	-3.424083e-07	-4.292922e-10	-2.375019e+00	-3.577189e+01
1.780000e-06	-2.954127e-07	-4.100295e-10	-2.049048e+00	-3.445054e+01
1.790000e-06	-2.484665e-07	-3.929014e-10	-1.723418e+00	-3.309038e+01
1.800000e-06	-2.014962e-07	-3.769608e-10	-1.397622e+00	-3.169058e+01
1.810000e-06	-1.544558e-07	-3.597535e-10	-1.071339e+00	-3.025046e+01
1.820000e-06	-1.075614e-07	-3.388895e-10	-7.460695e-01	-2.876945e+01
1.830000e-06	-6.071351e-08	-3.157403e-10	-4.211223e-01	-2.724716e+01
1.840000e-06	-1.374539e-08	-2.917795e-10	-9.534108e-02	-2.568338e+01
1.850000e-06	3.325113e-08	-2.695947e-10	2.306372e-01	-2.407806e+01
1.860000e-06	8.027088e-08	-2.468475e-10	5.567766e-01	-2.243139e+01
1.870000e-06	1.273274e-07	-2.241826e-10	8.831709e-01	-2.074372e+01
1.880000e-06	1.743677e-07	-2.008213e-10	1.209453e+00	-1.901565e+01
1.890000e-06	2.213134e-07	-1.757610e-10	1.535079e+00	-1.724799e+01
1.900000e-06	2.681512e-07	-1.505022e-10	1.859956e+00	-1.544177e+01
1.910000e-06	3.149877e-07	-1.251232e-10	2.184824e+00	-1.359825e+01
1.920000e-06	3.618159e-07	-9.783104e-11	2.509635e+00	-1.171892e+01
1.930000e-06	4.085366e-07	-7.052496e-11	2.833700e+00	-9.805461e+00
1.940000e-06	4.553170e-07	-4.565513e-11	3.158179e+00	-7.859794e+00
1.950000e-06	5.020905e-07	-2.011131e-11	3.482611e+00	-5.884026e+00
1.960000e-06	5.487897e-07	5.958912e-12	3.806527e+00	-3.880459e+00
1.970000e-06	5.954257e-07	3.092530e-11	4.130004e+00	-1.851566e+00
1.980000e-06	6.419377e-07	5.662191e-11	4.452622e+00	2.000170e-01
1.990000e-06	6.884757e-07	8.557605e-11	4.775420e+00	2.271515e+00
2.000000e-06	7.349263e-07	1.182952e-10	5.097612e+00	4.360031e+00
2.010000e-06	7.813005e-07	1.504007e-10	5.419273e+00	6.462566e+00
2.020000e-06	8.277207e-07	1.798289e-10	5.741254e+00	8.576042e+00
2.030000e-06	8.741520e-07	2.068887e-10	6.063312e+00	1.069733e+01
2.040000e-06	9.204826e-07	2.324049e-10	6.384671e+00	1.282325e+01
2.050000e-06	9.667134e-07	2.598560e-10	6.705338e+00	1.495063e+01
2.060000e-06	1.012871e-06	2.897954e-10	7.025495e+00	1.707630e+01
2.070000e-06	1.058939e-06	3.211344e-10	7.345032e+00	1.919712e+01
2.080000e-06	1.104952e-06	3.518320e-10	7.664193e+00	2.131003e+01
2.090000e-06	1.150869e-06	3.824561e-10	7.982685e+00	2.341201e+01
2.100000e-06	1.196704e-06	4.116386e-10	8.300603e+00	2.550016e+01
2.110000e-06	1.242425e-06	4.402588e-10	8.617738e+00	2.757168e+01
2.120000e-06	1.287995e-06	4.690770e-10	8.933822e+00	2.962390e+01
2.130000e-06	1.333547e-06	4.986754e-10	9.249776e+00	3.165430e+01
2.140000e-06	1.379038e-06	5.253990e-10	9.565313e+00	3.366051e+01
2.150000e-06	1.424416e-06	5.502174e-10	9.880065e+00	3.564033e+01
2.160000e-06	1.469717e-06	5.745057e-10	1.019428e+01	3.759171e+01
2.170000e-06	1.514894e-06	5.995426e-10	1.050764e+01	3.951281e+01
2.180000e-06	1.559942e-06	6.266403e-10	1.082010e+01	4.140195e+01
2.190000e-06	1.604844e-06	6.548898e-10	1.113155e+01	4.325763e+01
2.200000e-06	1.649622e-06	6.833256e-10	1.144214e+01	4.507856e+01
2.210000e-06	1.694345e-06	7.105790e-10	1.175235e+01	4.686360e+01
2.220000e-06	1.738927e-06	7.358479e-10	1.206158e+01	4.861181e+01
2.230000e-06	1.783323e-06	7.583912e-10	1.236952e+01	5.032240e+01
2.240000e-06	1.827618e-06	7.772346e-10	1.267676e+01	5.199476e+01
2.250000e-06	1.871748e-06	7.961176e-10	1.298286e+01	5.362844e+01
2.260000e-06	1.915822e-06	8.175320e-10	1.328857e+01	5.522313e+01
2.270000e-06	1.959863e-06	8.395865e-10	1.359404e+01	5.677864e+01
2.280000e-06	2.003795e-06	8.615236e-10	1.389877e+01	5.829494e+01
2.290000e-06	2.047645e-06	8.823254e-10	1.420292e+01	5.977210e+01
2.300000e-06	2.091446e-06	9.023530e-10	1.450673e+01	6.121029e+01
2.310000e-06	2.135230e-06	9.204611e-10	1.481043e+01	6.260979e+01
2.320000e-06	2.178909e-06	9.381345e-10	1.511340e+01	6.397094e+01
2.330000e-06	2.222449e-06	9.569152e-10	1.541540e+01	6.529417e+01
2.340000e-06	2.265887e-06	9.755334e-10	1.571669e+01	6.657996e+01
2.350000e-06	2.309151e-06	9.934439e-10	1.601678e+01	6.782887e+01
2.360000e-06	2.352052e-06	1.011744e-09	1.631435e+01	6.904146e+01
2.370000e-06	2.394572e-06	1.027838e-09	1.660928e+01	7.021836e+01
2.380000e-06	2.436870e-06	1.041113e-09	1.690267e+01	7.136022e+01
2.390000e-06	2.478875e-06	1.052786e-09	1.719403e+01	7.246769e+01
2.400000e-06	2.520617e-06	1.066063e-09	1.748356e+01	7.354146e+01
2.410000e-06	2.562142e-06	1.080701e-09	1.777158e+01	7.458221e+01
2.420000e-06	2.603282e-06	1.094171e-09	1.805694e+01	7.559066e+01
2.430000e-06	2.644023e-06	1.106409e-09	1.833953e+01	7.656748e+01
2.440000e-06	2.684539e-06	1.117491e-09	1.862055e+01	7.751338e+01
2.450000e-06	2.724916e-06	1.128649e-09	1.890062e+01	7.842906e+01
2.460000e-06	2.765057e-06	1.139719e-09	1.917904e+01	7.931521e+01
2.470000e-06	2.805096e-06	1.150191e-09	1.945677e+01	8.017251e+01
2.480000e-06	2.845110e-06	1.158510e-09	1.973432e+01	8.100165e+01
2.490000e-06	2.884970e-06	1.166379e-09	2.001079e+01	8.180329e+01
2.500000e-06	2.924678e-06	1.177480e-09	2.028621e+01	8.257812e+01
2.510000e-06	2.964279e-06	1.188587e-09	2.056089e+01	8.332681e+01
2.520000e-06	3.003817e-06	1.198599e-09	2.083514e+01	8.405001e+01
2.530000e-06	3.043083e-06	1.208217e-09	2.110750e+01	8.474839e+01
2.540000e-06	3.082030e-06	1.217151e-09	2.137764e+01	8.542262e+01
2.550000e-06	3.120760e-06	1.226221e-09	2.164628e+01	8.607335e+01
2.560000e-06	3.159216e-06	1.234681e-09	2.191302e+01	8.670124e+01
2.570000e-06	3.197459e-06	1.243380e-09	2.217828e+01	8.730697e+01
2.580000e-06	3.235515e-06	1.251425e-09	2.244225e+01	8.789119e+01
2.590000e-06	3.273438e-06	1.259742e-09	2.270529e+01	8.845457e+01
2.600000e-06	3.311172e-06	1.268574e-09	2.296702e+01	8.899778e+01
2.610000e-06	3.348648e-06	1.276039e-09	2.322696e+01	8.952150e+01
2.620000e-06	3.385830e-06	1.283211e-09	2.348486e+01	9.002639e+01
2.630000e-06	3.422666e-06	1.291398e-09	2.374037e+01	9.051314e+01
2.640000e-06	3.459340e-06	1.300077e-09	2.399475e+01	9.098241e+01
2.650000e-06	3.495834e-06	1.307816e-09	2.424788e+01	9.143489e+01
2.660000e-06	3.532026e-06	1.314337e-09	2.449892e+01	9.187125e+01
2.670000e-06	3.568051e-06	1.319452e-09	2.474879e+01	9.229216e+01
2.680000e-06	3.603924e-06	1.323608e-09	2.499761e+01	9.269829e+01
2.690000e-06	3.639730e-06	1.327960e-09	2.524597e+01	9.309030e+01
2.700000e-06	3.675436e-06	1.333316e-09	2.549363e+01	9.346886e+01
2.710000e-06	3.710891e-06	1.340093e-09	2.573956e+01	9.383461e+01
2.720000e-06	3.746177e-06	1.346275e-09	2.598431e+01	9.418818e+01
2.730000e-06	3.781175e-06	1.351492e-09	2.622707e+01	9.453020e+01
2.740000e-06	3.815789e-06	1.357663e-09	2.646716e+01	9.486129e+01
2.750000e-06	3.849839e-06	1.362250e-09	2.670334e+01	9.518203e+01
2.760000e-06	3.883254e-06	1.365511e-09	2.693511e+01	9.549299e+01
2.770000e-06	3.916157e-06	1.370521e-09	2.716333e+01	9.579474e+01
2.780000e-06	3.948676e-06	1.377054e-09	2.738889e+01	9.608780e+01
2.790000e-06	3.981026e-06	1.383831e-09	2.761327e+01	9.637267e+01
2.800000e-06	4.013154e-06	1.389593e-09	2.783612e+01	9.664984e+01
2.810000e-06	4.045002e-06	1.393618e-09	2.805703e+01	9.691975e+01
2.820000e-06	4.076679e-06	1.396393e-09	2.827675e+01	9.718282e+01
2.830000e-06	4.108234e-06	1.401389e-09	2.849562e+01	9.743944e+01
2.840000e-06	4.139622e-06	1.407606e-09	2.871334e+01	9.768996e+01
2.850000e-06	4.170747e-06	1.410786e-09	2.892923e+01	9.793470e+01
2.860000e-06	4.201427e-06	1.411915e-09	2.914202e+01	9.817393e+01
2.870000e-06	4.231718e-06	1.413160e-09	2.935213e+01	9.840790e+01
2.880000e-06	4.261750e-06	1.417243e-09	2.956044e+01	9.863682e+01
2.890000e-06	4.291545e-06	1.422153e-09	2.976711e+01	9.886085e+01
2.900000e-06	4.321156e-06	1.427306e-09	2.997249e+01	9.908013e+01
