# Temperatura_=_9.51
# Concentracion g/m^3_=_1620.0
# C_Vs_to_Am_M_A/Vsm_=_65563218390.804596
# pendiente_HvsI_1/m_=_3716.3
# ordenada_HvsI_A/m_=_1297.0
# frecuencia_Hz_=_135098.49653808374

Tiempo_(s)	Campo_(V.s)	Magnetizacion_(V.s)	Campo_(kA/m)	Magnetizacion_(A/m)
0.000000e+00	-5.536876e-06	-1.596401e-09	-3.837537e+01	-1.031602e+02
1.000000e-08	-5.537171e-06	-1.597499e-09	-3.837742e+01	-1.031050e+02
2.000000e-08	-5.537229e-06	-1.596499e-09	-3.837782e+01	-1.030558e+02
3.000000e-08	-5.536891e-06	-1.594612e-09	-3.837548e+01	-1.030131e+02
4.000000e-08	-5.536115e-06	-1.590448e-09	-3.837010e+01	-1.029772e+02
5.000000e-08	-5.534772e-06	-1.587360e-09	-3.836079e+01	-1.029484e+02
6.000000e-08	-5.532798e-06	-1.585893e-09	-3.834711e+01	-1.029268e+02
7.000000e-08	-5.530317e-06	-1.600638e-09	-3.832991e+01	-1.029122e+02
8.000000e-08	-5.527405e-06	-1.630863e-09	-3.830973e+01	-1.029044e+02
9.000000e-08	-5.523982e-06	-1.618241e-09	-3.828601e+01	-1.029029e+02
1.000000e-07	-5.520084e-06	-1.534870e-09	-3.825899e+01	-1.029073e+02
1.100000e-07	-5.515962e-06	-1.523566e-09	-3.823042e+01	-1.029166e+02
1.200000e-07	-5.511559e-06	-1.620950e-09	-3.819990e+01	-1.029302e+02
1.300000e-07	-5.506818e-06	-1.646104e-09	-3.816705e+01	-1.029469e+02
1.400000e-07	-5.501702e-06	-1.557653e-09	-3.813159e+01	-1.029658e+02
1.500000e-07	-5.496186e-06	-1.510439e-09	-3.809336e+01	-1.029856e+02
1.600000e-07	-5.490323e-06	-1.596398e-09	-3.805272e+01	-1.030051e+02
1.700000e-07	-5.484076e-06	-1.642037e-09	-3.800942e+01	-1.030231e+02
1.800000e-07	-5.477467e-06	-1.568000e-09	-3.796362e+01	-1.030382e+02
1.900000e-07	-5.470483e-06	-1.541552e-09	-3.791521e+01	-1.030491e+02
2.000000e-07	-5.463125e-06	-1.591339e-09	-3.786421e+01	-1.030546e+02
2.100000e-07	-5.455478e-06	-1.633408e-09	-3.781122e+01	-1.030535e+02
2.200000e-07	-5.447573e-06	-1.587476e-09	-3.775643e+01	-1.030445e+02
2.300000e-07	-5.439347e-06	-1.555452e-09	-3.769941e+01	-1.030268e+02
2.400000e-07	-5.430653e-06	-1.570341e-09	-3.763915e+01	-1.029992e+02
2.500000e-07	-5.421363e-06	-1.599026e-09	-3.757477e+01	-1.029610e+02
2.600000e-07	-5.411496e-06	-1.584056e-09	-3.750638e+01	-1.029114e+02
2.700000e-07	-5.401060e-06	-1.567445e-09	-3.743405e+01	-1.028500e+02
2.800000e-07	-5.390122e-06	-1.572966e-09	-3.735824e+01	-1.027762e+02
2.900000e-07	-5.378708e-06	-1.577689e-09	-3.727913e+01	-1.026899e+02
3.000000e-07	-5.366816e-06	-1.556628e-09	-3.719671e+01	-1.025909e+02
3.100000e-07	-5.354541e-06	-1.537335e-09	-3.711163e+01	-1.024794e+02
3.200000e-07	-5.341860e-06	-1.561331e-09	-3.702375e+01	-1.023554e+02
3.300000e-07	-5.328858e-06	-1.586823e-09	-3.693363e+01	-1.022195e+02
3.400000e-07	-5.315566e-06	-1.570864e-09	-3.684150e+01	-1.020720e+02
3.500000e-07	-5.301822e-06	-1.542963e-09	-3.674624e+01	-1.019137e+02
3.600000e-07	-5.287496e-06	-1.569849e-09	-3.664695e+01	-1.017451e+02
3.700000e-07	-5.272791e-06	-1.566470e-09	-3.654504e+01	-1.015672e+02
3.800000e-07	-5.257691e-06	-1.517917e-09	-3.644038e+01	-1.013808e+02
3.900000e-07	-5.241994e-06	-1.528824e-09	-3.633158e+01	-1.011868e+02
4.000000e-07	-5.225854e-06	-1.583337e-09	-3.621972e+01	-1.009863e+02
4.100000e-07	-5.209273e-06	-1.532757e-09	-3.610480e+01	-1.007802e+02
4.200000e-07	-5.192264e-06	-1.490902e-09	-3.598692e+01	-1.005696e+02
4.300000e-07	-5.174906e-06	-1.558730e-09	-3.586660e+01	-1.003554e+02
4.400000e-07	-5.157344e-06	-1.568604e-09	-3.574488e+01	-1.001386e+02
4.500000e-07	-5.139393e-06	-1.474282e-09	-3.562047e+01	-9.992014e+01
4.600000e-07	-5.120869e-06	-1.500817e-09	-3.549208e+01	-9.970080e+01
4.700000e-07	-5.101969e-06	-1.568024e-09	-3.536109e+01	-9.948137e+01
4.800000e-07	-5.082764e-06	-1.503946e-09	-3.522798e+01	-9.926252e+01
4.900000e-07	-5.063292e-06	-1.463839e-09	-3.509302e+01	-9.904485e+01
5.000000e-07	-5.043665e-06	-1.537247e-09	-3.495699e+01	-9.882882e+01
5.100000e-07	-5.023835e-06	-1.517271e-09	-3.481955e+01	-9.861482e+01
5.200000e-07	-5.003606e-06	-1.459438e-09	-3.467935e+01	-9.840311e+01
5.300000e-07	-4.982981e-06	-1.518059e-09	-3.453640e+01	-9.819386e+01
5.400000e-07	-4.962087e-06	-1.539621e-09	-3.439158e+01	-9.798712e+01
5.500000e-07	-4.940836e-06	-1.458994e-09	-3.424430e+01	-9.778286e+01
5.600000e-07	-4.919216e-06	-1.475168e-09	-3.409445e+01	-9.758093e+01
5.700000e-07	-4.897387e-06	-1.528540e-09	-3.394316e+01	-9.738112e+01
5.800000e-07	-4.875165e-06	-1.469898e-09	-3.378914e+01	-9.718313e+01
5.900000e-07	-4.852473e-06	-1.440811e-09	-3.363187e+01	-9.698661e+01
6.000000e-07	-4.829512e-06	-1.497431e-09	-3.347273e+01	-9.679113e+01
6.100000e-07	-4.806328e-06	-1.483600e-09	-3.331204e+01	-9.659624e+01
6.200000e-07	-4.782926e-06	-1.435270e-09	-3.314984e+01	-9.640144e+01
6.300000e-07	-4.759243e-06	-1.460961e-09	-3.298570e+01	-9.620624e+01
6.400000e-07	-4.735295e-06	-1.466905e-09	-3.281972e+01	-9.601012e+01
6.500000e-07	-4.710976e-06	-1.424738e-09	-3.265116e+01	-9.581257e+01
6.600000e-07	-4.686154e-06	-1.428582e-09	-3.247913e+01	-9.561308e+01
6.700000e-07	-4.660909e-06	-1.453521e-09	-3.230416e+01	-9.541119e+01
6.800000e-07	-4.635216e-06	-1.432571e-09	-3.212609e+01	-9.520645e+01
6.900000e-07	-4.608962e-06	-1.426125e-09	-3.194412e+01	-9.499847e+01
7.000000e-07	-4.582152e-06	-1.440107e-09	-3.175831e+01	-9.478687e+01
7.100000e-07	-4.554970e-06	-1.427871e-09	-3.156991e+01	-9.457135e+01
7.200000e-07	-4.527575e-06	-1.406067e-09	-3.138004e+01	-9.435164e+01
7.300000e-07	-4.499961e-06	-1.410856e-09	-3.118865e+01	-9.412753e+01
7.400000e-07	-4.472125e-06	-1.408814e-09	-3.099572e+01	-9.389886e+01
7.500000e-07	-4.444067e-06	-1.398901e-09	-3.080126e+01	-9.366553e+01
7.600000e-07	-4.415740e-06	-1.399593e-09	-3.060492e+01	-9.342747e+01
7.700000e-07	-4.387121e-06	-1.403572e-09	-3.040657e+01	-9.318467e+01
7.800000e-07	-4.358196e-06	-1.394714e-09	-3.020609e+01	-9.293713e+01
7.900000e-07	-4.328973e-06	-1.389373e-09	-3.000356e+01	-9.268494e+01
8.000000e-07	-4.299434e-06	-1.384787e-09	-2.979882e+01	-9.242816e+01
8.100000e-07	-4.269604e-06	-1.375979e-09	-2.959208e+01	-9.216691e+01
8.200000e-07	-4.239463e-06	-1.370686e-09	-2.938317e+01	-9.190131e+01
8.300000e-07	-4.209002e-06	-1.371720e-09	-2.917205e+01	-9.163150e+01
8.400000e-07	-4.178234e-06	-1.364762e-09	-2.895880e+01	-9.135763e+01
8.500000e-07	-4.147210e-06	-1.360611e-09	-2.874378e+01	-9.107983e+01
8.600000e-07	-4.115929e-06	-1.364804e-09	-2.852697e+01	-9.079825e+01
8.700000e-07	-4.084420e-06	-1.360449e-09	-2.830859e+01	-9.051301e+01
8.800000e-07	-4.052818e-06	-1.348703e-09	-2.808956e+01	-9.022422e+01
8.900000e-07	-4.021049e-06	-1.344585e-09	-2.786937e+01	-8.993199e+01
9.000000e-07	-3.989001e-06	-1.338472e-09	-2.764725e+01	-8.963639e+01
9.100000e-07	-3.956624e-06	-1.325677e-09	-2.742285e+01	-8.933750e+01
9.200000e-07	-3.923816e-06	-1.323460e-09	-2.719546e+01	-8.903535e+01
9.300000e-07	-3.890602e-06	-1.325595e-09	-2.696526e+01	-8.872996e+01
9.400000e-07	-3.856986e-06	-1.318250e-09	-2.673227e+01	-8.842134e+01
9.500000e-07	-3.822921e-06	-1.312161e-09	-2.649618e+01	-8.810949e+01
9.600000e-07	-3.788429e-06	-1.313972e-09	-2.625711e+01	-8.779437e+01
9.700000e-07	-3.753534e-06	-1.304912e-09	-2.601526e+01	-8.747595e+01
9.800000e-07	-3.718300e-06	-1.291966e-09	-2.577105e+01	-8.715419e+01
9.900000e-07	-3.682803e-06	-1.285984e-09	-2.552504e+01	-8.682902e+01
1.000000e-06	-3.647216e-06	-1.279008e-09	-2.527838e+01	-8.650040e+01
1.010000e-06	-3.611496e-06	-1.266878e-09	-2.503081e+01	-8.616828e+01
1.020000e-06	-3.575625e-06	-1.265870e-09	-2.478220e+01	-8.583260e+01
1.030000e-06	-3.539587e-06	-1.267709e-09	-2.453242e+01	-8.549331e+01
1.040000e-06	-3.503326e-06	-1.262754e-09	-2.428110e+01	-8.515038e+01
1.050000e-06	-3.466795e-06	-1.254164e-09	-2.402791e+01	-8.480378e+01
1.060000e-06	-3.429976e-06	-1.247964e-09	-2.377272e+01	-8.445348e+01
1.070000e-06	-3.392895e-06	-1.235923e-09	-2.351572e+01	-8.409948e+01
1.080000e-06	-3.355567e-06	-1.225314e-09	-2.325700e+01	-8.374177e+01
1.090000e-06	-3.318038e-06	-1.222254e-09	-2.299689e+01	-8.338036e+01
1.100000e-06	-3.280277e-06	-1.219757e-09	-2.273518e+01	-8.301527e+01
1.110000e-06	-3.242308e-06	-1.213479e-09	-2.247202e+01	-8.264651e+01
1.120000e-06	-3.204127e-06	-1.208303e-09	-2.220739e+01	-8.227411e+01
1.130000e-06	-3.165754e-06	-1.202343e-09	-2.194143e+01	-8.189807e+01
1.140000e-06	-3.127124e-06	-1.190648e-09	-2.167369e+01	-8.151843e+01
1.150000e-06	-3.088285e-06	-1.179981e-09	-2.140451e+01	-8.113517e+01
1.160000e-06	-3.049269e-06	-1.175369e-09	-2.113409e+01	-8.074830e+01
1.170000e-06	-3.010023e-06	-1.169765e-09	-2.086208e+01	-8.035779e+01
1.180000e-06	-2.970600e-06	-1.161767e-09	-2.058884e+01	-7.996359e+01
1.190000e-06	-2.931005e-06	-1.157192e-09	-2.031442e+01	-7.956565e+01
1.200000e-06	-2.891294e-06	-1.151241e-09	-2.003919e+01	-7.916386e+01
1.210000e-06	-2.851509e-06	-1.142033e-09	-1.976344e+01	-7.875810e+01
1.220000e-06	-2.811604e-06	-1.135837e-09	-1.948686e+01	-7.834822e+01
1.230000e-06	-2.771390e-06	-1.130348e-09	-1.920814e+01	-7.793402e+01
1.240000e-06	-2.730873e-06	-1.121544e-09	-1.892733e+01	-7.751529e+01
1.250000e-06	-2.690196e-06	-1.114420e-09	-1.864540e+01	-7.709177e+01
1.260000e-06	-2.649366e-06	-1.108110e-09	-1.836241e+01	-7.666317e+01
1.270000e-06	-2.608283e-06	-1.100022e-09	-1.807767e+01	-7.622916e+01
1.280000e-06	-2.566856e-06	-1.090372e-09	-1.779054e+01	-7.578939e+01
1.290000e-06	-2.525124e-06	-1.084207e-09	-1.750131e+01	-7.534348e+01
1.300000e-06	-2.483173e-06	-1.078784e-09	-1.721055e+01	-7.489102e+01
1.310000e-06	-2.440919e-06	-1.072286e-09	-1.691769e+01	-7.443160e+01
1.320000e-06	-2.398358e-06	-1.063916e-09	-1.662271e+01	-7.396477e+01
1.330000e-06	-2.355673e-06	-1.054077e-09	-1.632687e+01	-7.349008e+01
1.340000e-06	-2.312806e-06	-1.041399e-09	-1.602976e+01	-7.300707e+01
1.350000e-06	-2.269636e-06	-1.030625e-09	-1.573055e+01	-7.251528e+01
1.360000e-06	-2.226221e-06	-1.024386e-09	-1.542965e+01	-7.201425e+01
1.370000e-06	-2.182739e-06	-1.019519e-09	-1.512828e+01	-7.150354e+01
1.380000e-06	-2.139166e-06	-1.012433e-09	-1.482628e+01	-7.098271e+01
1.390000e-06	-2.095462e-06	-1.003569e-09	-1.452337e+01	-7.045134e+01
1.400000e-06	-2.051684e-06	-9.935589e-10	-1.421996e+01	-6.990902e+01
1.410000e-06	-2.007847e-06	-9.828951e-10	-1.391613e+01	-6.935538e+01
1.420000e-06	-1.963944e-06	-9.701262e-10	-1.361185e+01	-6.879005e+01
1.430000e-06	-1.919831e-06	-9.569359e-10	-1.330610e+01	-6.821270e+01
1.440000e-06	-1.875579e-06	-9.479668e-10	-1.299940e+01	-6.762303e+01
1.450000e-06	-1.831300e-06	-9.395884e-10	-1.269251e+01	-6.702073e+01
1.460000e-06	-1.786938e-06	-9.304438e-10	-1.238504e+01	-6.640555e+01
1.470000e-06	-1.742407e-06	-9.202928e-10	-1.207640e+01	-6.577722e+01
1.480000e-06	-1.697680e-06	-9.081689e-10	-1.176640e+01	-6.513551e+01
1.490000e-06	-1.652825e-06	-8.942817e-10	-1.145551e+01	-6.448019e+01
1.500000e-06	-1.607764e-06	-8.778409e-10	-1.114321e+01	-6.381104e+01
1.510000e-06	-1.562546e-06	-8.615881e-10	-1.082980e+01	-6.312781e+01
1.520000e-06	-1.517325e-06	-8.500147e-10	-1.051639e+01	-6.243028e+01
1.530000e-06	-1.472011e-06	-8.412457e-10	-1.020232e+01	-6.171818e+01
1.540000e-06	-1.426554e-06	-8.313257e-10	-9.887263e+00	-6.099124e+01
1.550000e-06	-1.381034e-06	-8.181681e-10	-9.571768e+00	-6.024915e+01
1.560000e-06	-1.335482e-06	-8.033659e-10	-9.256056e+00	-5.949157e+01
1.570000e-06	-1.289901e-06	-7.892472e-10	-8.940141e+00	-5.871811e+01
1.580000e-06	-1.244180e-06	-7.757508e-10	-8.623252e+00	-5.792832e+01
1.590000e-06	-1.198248e-06	-7.619215e-10	-8.304906e+00	-5.712173e+01
1.600000e-06	-1.152322e-06	-7.482372e-10	-7.986594e+00	-5.629778e+01
1.610000e-06	-1.106413e-06	-7.346931e-10	-7.668409e+00	-5.545587e+01
1.620000e-06	-1.060445e-06	-7.236521e-10	-7.349808e+00	-5.459531e+01
1.630000e-06	-1.014385e-06	-7.155883e-10	-7.030575e+00	-5.371538e+01
1.640000e-06	-9.680439e-07	-7.083301e-10	-6.709387e+00	-5.281527e+01
1.650000e-06	-9.215548e-07	-6.961029e-10	-6.387177e+00	-5.189410e+01
1.660000e-06	-8.751381e-07	-6.793143e-10	-6.065469e+00	-5.095097e+01
1.670000e-06	-8.287025e-07	-6.604690e-10	-5.743630e+00	-4.998487e+01
1.680000e-06	-7.821713e-07	-6.403597e-10	-5.421129e+00	-4.899478e+01
1.690000e-06	-7.355721e-07	-6.206541e-10	-5.098156e+00	-4.797963e+01
1.700000e-06	-6.889572e-07	-6.021299e-10	-4.775074e+00	-4.693830e+01
1.710000e-06	-6.423193e-07	-5.848630e-10	-4.451833e+00	-4.586965e+01
1.720000e-06	-5.955925e-07	-5.690902e-10	-4.127975e+00	-4.477253e+01
1.730000e-06	-5.488435e-07	-5.520623e-10	-3.803964e+00	-4.364579e+01
1.740000e-06	-5.020232e-07	-5.336672e-10	-3.479458e+00	-4.248828e+01
1.750000e-06	-4.551429e-07	-5.170101e-10	-3.154537e+00	-4.129887e+01
1.760000e-06	-4.082768e-07	-4.982477e-10	-2.829714e+00	-4.007648e+01
1.770000e-06	-3.612972e-07	-4.762496e-10	-2.504104e+00	-3.882006e+01
1.780000e-06	-3.142996e-07	-4.546519e-10	-2.178370e+00	-3.752863e+01
1.790000e-06	-2.673398e-07	-4.339074e-10	-1.852897e+00	-3.620129e+01
1.800000e-06	-2.204065e-07	-4.142643e-10	-1.527609e+00	-3.483722e+01
1.810000e-06	-1.734631e-07	-3.964569e-10	-1.202250e+00	-3.343572e+01
1.820000e-06	-1.264572e-07	-3.795782e-10	-8.764589e-01	-3.199619e+01
1.830000e-06	-7.951873e-08	-3.616528e-10	-5.511341e-01	-3.051816e+01
1.840000e-06	-3.267722e-08	-3.406833e-10	-2.264816e-01	-2.900131e+01
1.850000e-06	1.417928e-08	-3.182474e-10	9.827477e-02	-2.744546e+01
1.860000e-06	6.110085e-08	-2.935129e-10	4.234821e-01	-2.585058e+01
1.870000e-06	1.080826e-07	-2.673846e-10	7.491066e-01	-2.421683e+01
1.880000e-06	1.550740e-07	-2.426914e-10	1.074798e+00	-2.254451e+01
1.890000e-06	2.020328e-07	-2.206869e-10	1.400263e+00	-2.083412e+01
1.900000e-06	2.490119e-07	-1.993877e-10	1.725869e+00	-1.908633e+01
1.910000e-06	2.959441e-07	-1.763007e-10	2.051150e+00	-1.730201e+01
1.920000e-06	3.427843e-07	-1.496475e-10	2.375794e+00	-1.548219e+01
1.930000e-06	3.896085e-07	-1.197084e-10	2.700326e+00	-1.362809e+01
1.940000e-06	4.365005e-07	-9.047644e-11	3.025329e+00	-1.174113e+01
1.950000e-06	4.833341e-07	-6.097685e-11	3.349926e+00	-9.822885e+00
1.960000e-06	5.300794e-07	-3.167264e-11	3.673912e+00	-7.875105e+00
1.970000e-06	5.768068e-07	-5.778857e-12	3.997773e+00	-5.899713e+00
1.980000e-06	6.234674e-07	1.928725e-11	4.321172e+00	-3.898784e+00
1.990000e-06	6.700596e-07	4.516254e-11	4.644097e+00	-1.874546e+00
2.000000e-06	7.166075e-07	7.464594e-11	4.966714e+00	1.706388e-01
2.010000e-06	7.631760e-07	1.071906e-10	5.289474e+00	2.234279e+00
2.020000e-06	8.097218e-07	1.397040e-10	5.612077e+00	4.313771e+00
2.030000e-06	8.561714e-07	1.706757e-10	5.934013e+00	6.406407e+00
2.040000e-06	9.025199e-07	1.995049e-10	6.255249e+00	8.509397e+00
2.050000e-06	9.487968e-07	2.260669e-10	6.575988e+00	1.061988e+01
2.060000e-06	9.950541e-07	2.517162e-10	6.896592e+00	1.273493e+01
2.070000e-06	1.041282e-06	2.792562e-10	7.216991e+00	1.485159e+01
2.080000e-06	1.087427e-06	3.090484e-10	7.536817e+00	1.696687e+01
2.090000e-06	1.133422e-06	3.405509e-10	7.855601e+00	1.907780e+01
2.100000e-06	1.179288e-06	3.730588e-10	8.173491e+00	2.118140e+01
2.110000e-06	1.225051e-06	4.060186e-10	8.490671e+00	2.327471e+01
2.120000e-06	1.270786e-06	4.378424e-10	8.807652e+00	2.535483e+01
2.130000e-06	1.316542e-06	4.674025e-10	9.124781e+00	2.741893e+01
2.140000e-06	1.362129e-06	4.930460e-10	9.440742e+00	2.946424e+01
2.150000e-06	1.407493e-06	5.157614e-10	9.755154e+00	3.148810e+01
2.160000e-06	1.452833e-06	5.398733e-10	1.006940e+01	3.348796e+01
2.170000e-06	1.498177e-06	5.660532e-10	1.038367e+01	3.546138e+01
2.180000e-06	1.543399e-06	5.932227e-10	1.069710e+01	3.740608e+01
2.190000e-06	1.588517e-06	6.222693e-10	1.100981e+01	3.931992e+01
2.200000e-06	1.633502e-06	6.513149e-10	1.132159e+01	4.120093e+01
2.210000e-06	1.678285e-06	6.770916e-10	1.163198e+01	4.304731e+01
2.220000e-06	1.722949e-06	7.000051e-10	1.194154e+01	4.485745e+01
2.230000e-06	1.767497e-06	7.230402e-10	1.225030e+01	4.662992e+01
2.240000e-06	1.811899e-06	7.460129e-10	1.255804e+01	4.836349e+01
2.250000e-06	1.856207e-06	7.679751e-10	1.286513e+01	5.005715e+01
2.260000e-06	1.900400e-06	7.886950e-10	1.317143e+01	5.171005e+01
2.270000e-06	1.944493e-06	8.105350e-10	1.347703e+01	5.332158e+01
2.280000e-06	1.988467e-06	8.343145e-10	1.378181e+01	5.489132e+01
2.290000e-06	2.032285e-06	8.572814e-10	1.408551e+01	5.641903e+01
2.300000e-06	2.076026e-06	8.769099e-10	1.438867e+01	5.790469e+01
2.310000e-06	2.119768e-06	8.942138e-10	1.469184e+01	5.934845e+01
2.320000e-06	2.163465e-06	9.117983e-10	1.499470e+01	6.075061e+01
2.330000e-06	2.207007e-06	9.299770e-10	1.529648e+01	6.211169e+01
2.340000e-06	2.250423e-06	9.477283e-10	1.559739e+01	6.343231e+01
2.350000e-06	2.293655e-06	9.650624e-10	1.589703e+01	6.471326e+01
2.360000e-06	2.336716e-06	9.824149e-10	1.619548e+01	6.595543e+01
2.370000e-06	2.379702e-06	9.984685e-10	1.649341e+01	6.715984e+01
2.380000e-06	2.422507e-06	1.013481e-09	1.679009e+01	6.832757e+01
2.390000e-06	2.465010e-06	1.027141e-09	1.708466e+01	6.945981e+01
2.400000e-06	2.507107e-06	1.041196e-09	1.737644e+01	7.055777e+01
2.410000e-06	2.548781e-06	1.055682e-09	1.766527e+01	7.162272e+01
2.420000e-06	2.590134e-06	1.070411e-09	1.795189e+01	7.265594e+01
2.430000e-06	2.631314e-06	1.083945e-09	1.823730e+01	7.365871e+01
2.440000e-06	2.672268e-06	1.096498e-09	1.852114e+01	7.463229e+01
2.450000e-06	2.712890e-06	1.109708e-09	1.880269e+01	7.557793e+01
2.460000e-06	2.753216e-06	1.121930e-09	1.908218e+01	7.649681e+01
2.470000e-06	2.793360e-06	1.133196e-09	1.936042e+01	7.739007e+01
2.480000e-06	2.833392e-06	1.143457e-09	1.963787e+01	7.825878e+01
2.490000e-06	2.873233e-06	1.152244e-09	1.991401e+01	7.910393e+01
2.500000e-06	2.912945e-06	1.162552e-09	2.018925e+01	7.992641e+01
2.510000e-06	2.952566e-06	1.172239e-09	2.046385e+01	8.072704e+01
2.520000e-06	2.992011e-06	1.181010e-09	2.073724e+01	8.150654e+01
2.530000e-06	3.031301e-06	1.190839e-09	2.100956e+01	8.226553e+01
2.540000e-06	3.070425e-06	1.198941e-09	2.128072e+01	8.300453e+01
2.550000e-06	3.109310e-06	1.207602e-09	2.155023e+01	8.372399e+01
2.560000e-06	3.147990e-06	1.216646e-09	2.181832e+01	8.442424e+01
2.570000e-06	3.186387e-06	1.226464e-09	2.208444e+01	8.510557e+01
2.580000e-06	3.224532e-06	1.237002e-09	2.234881e+01	8.576817e+01
2.590000e-06	3.262555e-06	1.246471e-09	2.261235e+01	8.641218e+01
2.600000e-06	3.300283e-06	1.254511e-09	2.287383e+01	8.703769e+01
2.610000e-06	3.337789e-06	1.262197e-09	2.313379e+01	8.764475e+01
2.620000e-06	3.375124e-06	1.270200e-09	2.339255e+01	8.823338e+01
2.630000e-06	3.412164e-06	1.278338e-09	2.364927e+01	8.880361e+01
2.640000e-06	3.448938e-06	1.288295e-09	2.390414e+01	8.935545e+01
2.650000e-06	3.485449e-06	1.298715e-09	2.415720e+01	8.988894e+01
2.660000e-06	3.521728e-06	1.306547e-09	2.440864e+01	9.040413e+01
2.670000e-06	3.557848e-06	1.313977e-09	2.465899e+01	9.090112e+01
2.680000e-06	3.593781e-06	1.320554e-09	2.490803e+01	9.138007e+01
2.690000e-06	3.629512e-06	1.325834e-09	2.515568e+01	9.184119e+01
2.700000e-06	3.665115e-06	1.332352e-09	2.540244e+01	9.228474e+01
2.710000e-06	3.700545e-06	1.340062e-09	2.564800e+01	9.271107e+01
2.720000e-06	3.735736e-06	1.347624e-09	2.589190e+01	9.312061e+01
2.730000e-06	3.770709e-06	1.355347e-09	2.613430e+01	9.351386e+01
2.740000e-06	3.805392e-06	1.363324e-09	2.637468e+01	9.389138e+01
2.750000e-06	3.839624e-06	1.370030e-09	2.661194e+01	9.425383e+01
2.760000e-06	3.873346e-06	1.375567e-09	2.684566e+01	9.460193e+01
2.770000e-06	3.906581e-06	1.380573e-09	2.707601e+01	9.493646e+01
2.780000e-06	3.939493e-06	1.383606e-09	2.730412e+01	9.525826e+01
2.790000e-06	3.972106e-06	1.386357e-09	2.753015e+01	9.556820e+01
2.800000e-06	4.004374e-06	1.392780e-09	2.775380e+01	9.586720e+01
2.810000e-06	4.036371e-06	1.399450e-09	2.797556e+01	9.615619e+01
2.820000e-06	4.068093e-06	1.404496e-09	2.819543e+01	9.643611e+01
2.830000e-06	4.099611e-06	1.410712e-09	2.841388e+01	9.670790e+01
2.840000e-06	4.130960e-06	1.415512e-09	2.863115e+01	9.697245e+01
2.850000e-06	4.162112e-06	1.418818e-09	2.884706e+01	9.723065e+01
2.860000e-06	4.193014e-06	1.416878e-09	2.906124e+01	9.748330e+01
2.870000e-06	4.223591e-06	1.415949e-09	2.927316e+01	9.773118e+01
2.880000e-06	4.253829e-06	1.420684e-09	2.948274e+01	9.797494e+01
2.890000e-06	4.283778e-06	1.427973e-09	2.969031e+01	9.821519e+01
2.900000e-06	4.313414e-06	1.435602e-09	2.989571e+01	9.845242e+01
