# Temperatura_=_-8.52
# Concentracion g/m^3_=_1620.0
# C_Vs_to_Am_M_A/Vsm_=_65563218390.804596
# pendiente_HvsI_1/m_=_3716.3
# ordenada_HvsI_A/m_=_1297.0
# frecuencia_Hz_=_135102.9043291563

Tiempo_(s)	Campo_(V.s)	Magnetizacion_(V.s)	Campo_(kA/m)	Magnetizacion_(A/m)
0.000000e+00	-5.527644e-06	-1.187406e-09	-3.837360e+01	-7.745337e+01
1.000000e-08	-5.527878e-06	-1.182534e-09	-3.837523e+01	-7.739566e+01
2.000000e-08	-5.527931e-06	-1.180587e-09	-3.837560e+01	-7.734155e+01
3.000000e-08	-5.527629e-06	-1.181471e-09	-3.837350e+01	-7.729100e+01
4.000000e-08	-5.526854e-06	-1.183341e-09	-3.836812e+01	-7.724390e+01
5.000000e-08	-5.525665e-06	-1.181894e-09	-3.835987e+01	-7.720005e+01
6.000000e-08	-5.523911e-06	-1.172895e-09	-3.834769e+01	-7.715920e+01
7.000000e-08	-5.521459e-06	-1.162488e-09	-3.833067e+01	-7.712103e+01
8.000000e-08	-5.518437e-06	-1.185032e-09	-3.830969e+01	-7.708517e+01
9.000000e-08	-5.514961e-06	-1.223656e-09	-3.828556e+01	-7.705118e+01
1.000000e-07	-5.511041e-06	-1.209272e-09	-3.825834e+01	-7.701857e+01
1.100000e-07	-5.506828e-06	-1.155656e-09	-3.822910e+01	-7.698683e+01
1.200000e-07	-5.502359e-06	-1.127446e-09	-3.819808e+01	-7.695538e+01
1.300000e-07	-5.497652e-06	-1.140360e-09	-3.816540e+01	-7.692364e+01
1.400000e-07	-5.492664e-06	-1.207546e-09	-3.813077e+01	-7.689101e+01
1.500000e-07	-5.487214e-06	-1.184098e-09	-3.809294e+01	-7.685687e+01
1.600000e-07	-5.481441e-06	-1.170700e-09	-3.805286e+01	-7.682061e+01
1.700000e-07	-5.475316e-06	-1.142402e-09	-3.801034e+01	-7.678164e+01
1.800000e-07	-5.468724e-06	-1.177890e-09	-3.796458e+01	-7.673938e+01
1.900000e-07	-5.461731e-06	-1.180883e-09	-3.791603e+01	-7.669329e+01
2.000000e-07	-5.454353e-06	-1.147223e-09	-3.786481e+01	-7.664286e+01
2.100000e-07	-5.446664e-06	-1.147735e-09	-3.781143e+01	-7.658764e+01
2.200000e-07	-5.438824e-06	-1.181157e-09	-3.775700e+01	-7.652725e+01
2.300000e-07	-5.430805e-06	-1.202050e-09	-3.770134e+01	-7.646134e+01
2.400000e-07	-5.422387e-06	-1.151232e-09	-3.764290e+01	-7.638966e+01
2.500000e-07	-5.413315e-06	-1.129823e-09	-3.757992e+01	-7.631202e+01
2.600000e-07	-5.403462e-06	-1.135395e-09	-3.751152e+01	-7.622831e+01
2.700000e-07	-5.392915e-06	-1.170427e-09	-3.743830e+01	-7.613850e+01
2.800000e-07	-5.381850e-06	-1.158212e-09	-3.736148e+01	-7.604262e+01
2.900000e-07	-5.370411e-06	-1.157235e-09	-3.728207e+01	-7.594082e+01
3.000000e-07	-5.358641e-06	-1.136202e-09	-3.720037e+01	-7.583328e+01
3.100000e-07	-5.346524e-06	-1.145934e-09	-3.711625e+01	-7.572027e+01
3.200000e-07	-5.333947e-06	-1.127627e-09	-3.702894e+01	-7.560214e+01
3.300000e-07	-5.320939e-06	-1.136267e-09	-3.693863e+01	-7.547928e+01
3.400000e-07	-5.307553e-06	-1.132931e-09	-3.684571e+01	-7.535213e+01
3.500000e-07	-5.293735e-06	-1.151357e-09	-3.674978e+01	-7.522119e+01
3.600000e-07	-5.279471e-06	-1.153969e-09	-3.665076e+01	-7.508698e+01
3.700000e-07	-5.264742e-06	-1.152741e-09	-3.654851e+01	-7.495007e+01
3.800000e-07	-5.249512e-06	-1.126165e-09	-3.644278e+01	-7.481102e+01
3.900000e-07	-5.233737e-06	-1.120966e-09	-3.633326e+01	-7.467041e+01
4.000000e-07	-5.217484e-06	-1.125723e-09	-3.622044e+01	-7.452882e+01
4.100000e-07	-5.200902e-06	-1.124016e-09	-3.610532e+01	-7.438680e+01
4.200000e-07	-5.183948e-06	-1.124711e-09	-3.598763e+01	-7.424490e+01
4.300000e-07	-5.166695e-06	-1.130443e-09	-3.586785e+01	-7.410363e+01
4.400000e-07	-5.149153e-06	-1.127587e-09	-3.574607e+01	-7.396346e+01
4.500000e-07	-5.131254e-06	-1.117117e-09	-3.562181e+01	-7.382481e+01
4.600000e-07	-5.112864e-06	-1.122962e-09	-3.549415e+01	-7.368808e+01
4.700000e-07	-5.093931e-06	-1.107903e-09	-3.536271e+01	-7.355357e+01
4.800000e-07	-5.074685e-06	-1.101970e-09	-3.522911e+01	-7.342156e+01
4.900000e-07	-5.055243e-06	-1.115831e-09	-3.509414e+01	-7.329224e+01
5.000000e-07	-5.035647e-06	-1.121636e-09	-3.495810e+01	-7.316575e+01
5.100000e-07	-5.015852e-06	-1.093075e-09	-3.482068e+01	-7.304219e+01
5.200000e-07	-4.995771e-06	-1.104527e-09	-3.468127e+01	-7.292156e+01
5.300000e-07	-4.975327e-06	-1.116554e-09	-3.453935e+01	-7.280382e+01
5.400000e-07	-4.954453e-06	-1.098259e-09	-3.439444e+01	-7.268890e+01
5.500000e-07	-4.933209e-06	-1.082913e-09	-3.424696e+01	-7.257663e+01
5.600000e-07	-4.911723e-06	-1.106659e-09	-3.409781e+01	-7.246685e+01
5.700000e-07	-4.889890e-06	-1.091686e-09	-3.394624e+01	-7.235933e+01
5.800000e-07	-4.867675e-06	-1.080051e-09	-3.379202e+01	-7.225381e+01
5.900000e-07	-4.845153e-06	-1.096095e-09	-3.363567e+01	-7.215001e+01
6.000000e-07	-4.822253e-06	-1.096621e-09	-3.347669e+01	-7.204765e+01
6.100000e-07	-4.799041e-06	-1.066248e-09	-3.331555e+01	-7.194642e+01
6.200000e-07	-4.775594e-06	-1.074124e-09	-3.315278e+01	-7.184601e+01
6.300000e-07	-4.751864e-06	-1.078432e-09	-3.298805e+01	-7.174611e+01
6.400000e-07	-4.727884e-06	-1.061967e-09	-3.282157e+01	-7.164643e+01
6.500000e-07	-4.703644e-06	-1.060696e-09	-3.265329e+01	-7.154670e+01
6.600000e-07	-4.678990e-06	-1.076680e-09	-3.248214e+01	-7.144666e+01
6.700000e-07	-4.653816e-06	-1.067482e-09	-3.230738e+01	-7.134606e+01
6.800000e-07	-4.628152e-06	-1.063080e-09	-3.212922e+01	-7.124472e+01
6.900000e-07	-4.601876e-06	-1.069273e-09	-3.194681e+01	-7.114244e+01
7.000000e-07	-4.575040e-06	-1.061063e-09	-3.176051e+01	-7.103908e+01
7.100000e-07	-4.547831e-06	-1.052338e-09	-3.157162e+01	-7.093454e+01
7.200000e-07	-4.520338e-06	-1.060255e-09	-3.138076e+01	-7.082872e+01
7.300000e-07	-4.492700e-06	-1.061314e-09	-3.118889e+01	-7.072157e+01
7.400000e-07	-4.464887e-06	-1.051834e-09	-3.099581e+01	-7.061306e+01
7.500000e-07	-4.436853e-06	-1.052599e-09	-3.080119e+01	-7.050320e+01
7.600000e-07	-4.408582e-06	-1.049720e-09	-3.060494e+01	-7.039199e+01
7.700000e-07	-4.379973e-06	-1.044126e-09	-3.040633e+01	-7.027947e+01
7.800000e-07	-4.351002e-06	-1.041918e-09	-3.020521e+01	-7.016568e+01
7.900000e-07	-4.321734e-06	-1.046544e-09	-3.000202e+01	-7.005067e+01
8.000000e-07	-4.292159e-06	-1.038627e-09	-2.979671e+01	-6.993449e+01
8.100000e-07	-4.262349e-06	-1.033452e-09	-2.958977e+01	-6.981719e+01
8.200000e-07	-4.232334e-06	-1.028764e-09	-2.938140e+01	-6.969882e+01
8.300000e-07	-4.201943e-06	-1.024306e-09	-2.917042e+01	-6.957939e+01
8.400000e-07	-4.171127e-06	-1.019551e-09	-2.895649e+01	-6.945892e+01
8.500000e-07	-4.140026e-06	-1.025195e-09	-2.874059e+01	-6.933741e+01
8.600000e-07	-4.108770e-06	-1.024734e-09	-2.852360e+01	-6.921483e+01
8.700000e-07	-4.077368e-06	-1.019810e-09	-2.830560e+01	-6.909113e+01
8.800000e-07	-4.045752e-06	-1.013317e-09	-2.808612e+01	-6.896623e+01
8.900000e-07	-4.013963e-06	-1.010880e-09	-2.786544e+01	-6.884004e+01
9.000000e-07	-3.982052e-06	-1.003823e-09	-2.764391e+01	-6.871243e+01
9.100000e-07	-3.949877e-06	-1.002870e-09	-2.742054e+01	-6.858327e+01
9.200000e-07	-3.917251e-06	-1.002094e-09	-2.719406e+01	-6.845239e+01
9.300000e-07	-3.884229e-06	-9.999697e-10	-2.696481e+01	-6.831961e+01
9.400000e-07	-3.850838e-06	-9.963234e-10	-2.673301e+01	-6.818474e+01
9.500000e-07	-3.816896e-06	-9.958572e-10	-2.649738e+01	-6.804757e+01
9.600000e-07	-3.782400e-06	-9.890012e-10	-2.625790e+01	-6.790791e+01
9.700000e-07	-3.747547e-06	-9.836329e-10	-2.601595e+01	-6.776556e+01
9.800000e-07	-3.712439e-06	-9.843716e-10	-2.577222e+01	-6.762031e+01
9.900000e-07	-3.677068e-06	-9.817300e-10	-2.552667e+01	-6.747197e+01
1.000000e-06	-3.641474e-06	-9.732382e-10	-2.527958e+01	-6.732039e+01
1.010000e-06	-3.605776e-06	-9.684943e-10	-2.503176e+01	-6.716540e+01
1.020000e-06	-3.569954e-06	-9.690366e-10	-2.478308e+01	-6.700689e+01
1.030000e-06	-3.533950e-06	-9.653607e-10	-2.453313e+01	-6.684475e+01
1.040000e-06	-3.497761e-06	-9.650081e-10	-2.428190e+01	-6.667893e+01
1.050000e-06	-3.461326e-06	-9.668615e-10	-2.402896e+01	-6.650938e+01
1.060000e-06	-3.424585e-06	-9.621923e-10	-2.377391e+01	-6.633612e+01
1.070000e-06	-3.387639e-06	-9.543997e-10	-2.351742e+01	-6.615917e+01
1.080000e-06	-3.350531e-06	-9.529582e-10	-2.325981e+01	-6.597862e+01
1.090000e-06	-3.313163e-06	-9.483966e-10	-2.300040e+01	-6.579456e+01
1.100000e-06	-3.275509e-06	-9.427095e-10	-2.273900e+01	-6.560713e+01
1.110000e-06	-3.237606e-06	-9.392691e-10	-2.247587e+01	-6.541650e+01
1.120000e-06	-3.199458e-06	-9.376149e-10	-2.221104e+01	-6.522284e+01
1.130000e-06	-3.161035e-06	-9.318781e-10	-2.194431e+01	-6.502637e+01
1.140000e-06	-3.122318e-06	-9.286693e-10	-2.167552e+01	-6.482728e+01
1.150000e-06	-3.083418e-06	-9.258116e-10	-2.140548e+01	-6.462581e+01
1.160000e-06	-3.044401e-06	-9.223814e-10	-2.113462e+01	-6.442218e+01
1.170000e-06	-3.005202e-06	-9.168813e-10	-2.086249e+01	-6.421658e+01
1.180000e-06	-2.965806e-06	-9.144636e-10	-2.058900e+01	-6.400922e+01
1.190000e-06	-2.926224e-06	-9.126654e-10	-2.031422e+01	-6.380027e+01
1.200000e-06	-2.886522e-06	-9.117673e-10	-2.003860e+01	-6.358988e+01
1.210000e-06	-2.846731e-06	-9.090900e-10	-1.976237e+01	-6.337814e+01
1.220000e-06	-2.806785e-06	-9.044571e-10	-1.948506e+01	-6.316513e+01
1.230000e-06	-2.766636e-06	-8.985413e-10	-1.920634e+01	-6.295086e+01
1.240000e-06	-2.726361e-06	-8.962833e-10	-1.892675e+01	-6.273531e+01
1.250000e-06	-2.685910e-06	-8.933439e-10	-1.864593e+01	-6.251839e+01
1.260000e-06	-2.645200e-06	-8.889861e-10	-1.836331e+01	-6.229994e+01
1.270000e-06	-2.604315e-06	-8.849549e-10	-1.807948e+01	-6.207978e+01
1.280000e-06	-2.563140e-06	-8.791558e-10	-1.779364e+01	-6.185764e+01
1.290000e-06	-2.521566e-06	-8.732528e-10	-1.750503e+01	-6.163320e+01
1.300000e-06	-2.479626e-06	-8.680461e-10	-1.721388e+01	-6.140608e+01
1.310000e-06	-2.437337e-06	-8.630728e-10	-1.692030e+01	-6.117585e+01
1.320000e-06	-2.394800e-06	-8.577653e-10	-1.662500e+01	-6.094205e+01
1.330000e-06	-2.352020e-06	-8.539927e-10	-1.632802e+01	-6.070413e+01
1.340000e-06	-2.309034e-06	-8.487993e-10	-1.602961e+01	-6.046155e+01
1.350000e-06	-2.265788e-06	-8.459566e-10	-1.572939e+01	-6.021371e+01
1.360000e-06	-2.222292e-06	-8.466164e-10	-1.542744e+01	-5.996000e+01
1.370000e-06	-2.178741e-06	-8.475228e-10	-1.512510e+01	-5.969976e+01
1.380000e-06	-2.135189e-06	-8.447081e-10	-1.482276e+01	-5.943236e+01
1.390000e-06	-2.091528e-06	-8.376023e-10	-1.451965e+01	-5.915715e+01
1.400000e-06	-2.047712e-06	-8.290127e-10	-1.421548e+01	-5.887348e+01
1.410000e-06	-2.003842e-06	-8.220131e-10	-1.391093e+01	-5.858071e+01
1.420000e-06	-1.959941e-06	-8.143848e-10	-1.360616e+01	-5.827823e+01
1.430000e-06	-1.915979e-06	-8.069897e-10	-1.330097e+01	-5.796544e+01
1.440000e-06	-1.871919e-06	-8.009648e-10	-1.299510e+01	-5.764177e+01
1.450000e-06	-1.827770e-06	-7.966011e-10	-1.268861e+01	-5.730669e+01
1.460000e-06	-1.783502e-06	-7.904094e-10	-1.238130e+01	-5.695968e+01
1.470000e-06	-1.739045e-06	-7.820279e-10	-1.207267e+01	-5.660030e+01
1.480000e-06	-1.694412e-06	-7.724165e-10	-1.176282e+01	-5.622810e+01
1.490000e-06	-1.649737e-06	-7.623304e-10	-1.145268e+01	-5.584269e+01
1.500000e-06	-1.604904e-06	-7.502779e-10	-1.114145e+01	-5.544370e+01
1.510000e-06	-1.559859e-06	-7.398803e-10	-1.082874e+01	-5.503081e+01
1.520000e-06	-1.514670e-06	-7.335694e-10	-1.051503e+01	-5.460370e+01
1.530000e-06	-1.469350e-06	-7.283938e-10	-1.020042e+01	-5.416208e+01
1.540000e-06	-1.423954e-06	-7.214522e-10	-9.885272e+00	-5.370569e+01
1.550000e-06	-1.378400e-06	-7.124476e-10	-9.569029e+00	-5.323425e+01
1.560000e-06	-1.332780e-06	-7.032402e-10	-9.252326e+00	-5.274749e+01
1.570000e-06	-1.287207e-06	-6.952878e-10	-8.935953e+00	-5.224514e+01
1.580000e-06	-1.241553e-06	-6.874275e-10	-8.619016e+00	-5.172690e+01
1.590000e-06	-1.195768e-06	-6.787404e-10	-8.301175e+00	-5.119245e+01
1.600000e-06	-1.149918e-06	-6.706260e-10	-7.982876e+00	-5.064143e+01
1.610000e-06	-1.104009e-06	-6.639280e-10	-7.664168e+00	-5.007346e+01
1.620000e-06	-1.057964e-06	-6.589238e-10	-7.344520e+00	-4.948807e+01
1.630000e-06	-1.011757e-06	-6.548218e-10	-7.023749e+00	-4.888479e+01
1.640000e-06	-9.655148e-07	-6.488772e-10	-6.702726e+00	-4.826306e+01
1.650000e-06	-9.192014e-07	-6.380261e-10	-6.381213e+00	-4.762225e+01
1.660000e-06	-8.728363e-07	-6.252520e-10	-6.059341e+00	-4.696169e+01
1.670000e-06	-8.265078e-07	-6.117068e-10	-5.737722e+00	-4.628063e+01
1.680000e-06	-7.801232e-07	-5.967765e-10	-5.415715e+00	-4.557827e+01
1.690000e-06	-7.336302e-07	-5.825479e-10	-5.092954e+00	-4.485373e+01
1.700000e-06	-6.870803e-07	-5.703879e-10	-4.769798e+00	-4.410609e+01
1.710000e-06	-6.405312e-07	-5.585342e-10	-4.446649e+00	-4.333436e+01
1.720000e-06	-5.939838e-07	-5.479046e-10	-4.123511e+00	-4.253752e+01
1.730000e-06	-5.473281e-07	-5.374848e-10	-3.799621e+00	-4.171451e+01
1.740000e-06	-5.005384e-07	-5.237139e-10	-3.474801e+00	-4.086426e+01
1.750000e-06	-4.537240e-07	-5.074188e-10	-3.149810e+00	-3.998565e+01
1.760000e-06	-4.069170e-07	-4.901474e-10	-2.824869e+00	-3.907761e+01
1.770000e-06	-3.601384e-07	-4.728046e-10	-2.500127e+00	-3.813905e+01
1.780000e-06	-3.133262e-07	-4.581308e-10	-2.175150e+00	-3.716891e+01
1.790000e-06	-2.663923e-07	-4.449215e-10	-1.849329e+00	-3.616620e+01
1.800000e-06	-2.194559e-07	-4.321453e-10	-1.523491e+00	-3.512996e+01
1.810000e-06	-1.726530e-07	-4.192158e-10	-1.198579e+00	-3.405931e+01
1.820000e-06	-1.258449e-07	-4.064528e-10	-8.736310e-01	-3.295349e+01
1.830000e-06	-7.895299e-08	-3.929077e-10	-5.481017e-01	-3.181180e+01
1.840000e-06	-3.200930e-08	-3.760278e-10	-2.222126e-01	-3.063370e+01
1.850000e-06	1.492430e-08	-3.581970e-10	1.036064e-01	-2.941876e+01
1.860000e-06	6.173815e-08	-3.417777e-10	4.285941e-01	-2.816671e+01
1.870000e-06	1.085312e-07	-3.260651e-10	7.534373e-01	-2.687740e+01
1.880000e-06	1.553933e-07	-3.101156e-10	1.078760e+00	-2.555090e+01
1.890000e-06	2.022839e-07	-2.931583e-10	1.404280e+00	-2.418740e+01
1.900000e-06	2.492584e-07	-2.740853e-10	1.730383e+00	-2.278729e+01
1.910000e-06	2.962468e-07	-2.525465e-10	2.056583e+00	-2.135115e+01
1.920000e-06	3.431773e-07	-2.295993e-10	2.382380e+00	-1.987972e+01
1.930000e-06	3.900434e-07	-2.068932e-10	2.707731e+00	-1.837393e+01
1.940000e-06	4.368007e-07	-1.851914e-10	3.032326e+00	-1.683490e+01
1.950000e-06	4.834945e-07	-1.633362e-10	3.356480e+00	-1.526392e+01
1.960000e-06	5.302251e-07	-1.428334e-10	3.680890e+00	-1.366242e+01
1.970000e-06	5.769491e-07	-1.234410e-10	4.005254e+00	-1.203204e+01
1.980000e-06	6.235510e-07	-1.043853e-10	4.328770e+00	-1.037453e+01
1.990000e-06	6.700912e-07	-8.396004e-11	4.651858e+00	-8.691795e+00
2.000000e-06	7.165660e-07	-5.740786e-11	4.974492e+00	-6.985863e+00
2.010000e-06	7.629788e-07	-2.994771e-11	5.296696e+00	-5.258877e+00
2.020000e-06	8.092847e-07	-4.767420e-12	5.618157e+00	-3.513076e+00
2.030000e-06	8.555243e-07	1.825715e-11	5.939158e+00	-1.750778e+00
2.040000e-06	9.017519e-07	4.045667e-11	6.260076e+00	2.562790e-02
2.050000e-06	9.478757e-07	6.301080e-11	6.580273e+00	1.813707e+00
2.060000e-06	9.939238e-07	8.780349e-11	6.899945e+00	3.610989e+00
2.070000e-06	1.039893e-06	1.141457e-10	7.219072e+00	5.414987e+00
2.080000e-06	1.085775e-06	1.406154e-10	7.537590e+00	7.223215e+00
2.090000e-06	1.131574e-06	1.665445e-10	7.855533e+00	9.033199e+00
2.100000e-06	1.177296e-06	1.943059e-10	8.172938e+00	1.084249e+01
2.110000e-06	1.222987e-06	2.213091e-10	8.490133e+00	1.264870e+01
2.120000e-06	1.268641e-06	2.445599e-10	8.807069e+00	1.444946e+01
2.130000e-06	1.314247e-06	2.681456e-10	9.123672e+00	1.624251e+01
2.140000e-06	1.359741e-06	2.918569e-10	9.439494e+00	1.802563e+01
2.150000e-06	1.405155e-06	3.136030e-10	9.754761e+00	1.979672e+01
2.160000e-06	1.450465e-06	3.349757e-10	1.006931e+01	2.155374e+01
2.170000e-06	1.495650e-06	3.578217e-10	1.038299e+01	2.329478e+01
2.180000e-06	1.540754e-06	3.822278e-10	1.069611e+01	2.501801e+01
2.190000e-06	1.585760e-06	4.069981e-10	1.100855e+01	2.672172e+01
2.200000e-06	1.630684e-06	4.315232e-10	1.132041e+01	2.840432e+01
2.210000e-06	1.675415e-06	4.565149e-10	1.163094e+01	3.006432e+01
2.220000e-06	1.719972e-06	4.811757e-10	1.194027e+01	3.170034e+01
2.230000e-06	1.764350e-06	5.052574e-10	1.224834e+01	3.331113e+01
2.240000e-06	1.808531e-06	5.261513e-10	1.255505e+01	3.489552e+01
2.250000e-06	1.852632e-06	5.447893e-10	1.286120e+01	3.645248e+01
2.260000e-06	1.896676e-06	5.619691e-10	1.316697e+01	3.798107e+01
2.270000e-06	1.940603e-06	5.779628e-10	1.347191e+01	3.948043e+01
2.280000e-06	1.984441e-06	5.958725e-10	1.377624e+01	4.094984e+01
2.290000e-06	2.028224e-06	6.173034e-10	1.408019e+01	4.238862e+01
2.300000e-06	2.071954e-06	6.386838e-10	1.438377e+01	4.379622e+01
2.310000e-06	2.115660e-06	6.581169e-10	1.468718e+01	4.517214e+01
2.320000e-06	2.159293e-06	6.758885e-10	1.499008e+01	4.651598e+01
2.330000e-06	2.202833e-06	6.923223e-10	1.529235e+01	4.782741e+01
2.340000e-06	2.246259e-06	7.086515e-10	1.559382e+01	4.910614e+01
2.350000e-06	2.289404e-06	7.257559e-10	1.589333e+01	5.035197e+01
2.360000e-06	2.332284e-06	7.428026e-10	1.619101e+01	5.156476e+01
2.370000e-06	2.375117e-06	7.591234e-10	1.648837e+01	5.274442e+01
2.380000e-06	2.417782e-06	7.743690e-10	1.678455e+01	5.389090e+01
2.390000e-06	2.460089e-06	7.897153e-10	1.707825e+01	5.500422e+01
2.400000e-06	2.501926e-06	8.060638e-10	1.736869e+01	5.608443e+01
2.410000e-06	2.543443e-06	8.230752e-10	1.765690e+01	5.713163e+01
2.420000e-06	2.584739e-06	8.385275e-10	1.794359e+01	5.814598e+01
2.430000e-06	2.625740e-06	8.512018e-10	1.822822e+01	5.912766e+01
2.440000e-06	2.666496e-06	8.608445e-10	1.851115e+01	6.007689e+01
2.450000e-06	2.706972e-06	8.696903e-10	1.879214e+01	6.099395e+01
2.460000e-06	2.747214e-06	8.790448e-10	1.907151e+01	6.187914e+01
2.470000e-06	2.787298e-06	8.897307e-10	1.934978e+01	6.273280e+01
2.480000e-06	2.827249e-06	9.019573e-10	1.962712e+01	6.355533e+01
2.490000e-06	2.867071e-06	9.142795e-10	1.990357e+01	6.434713e+01
2.500000e-06	2.906741e-06	9.269168e-10	2.017896e+01	6.510867e+01
2.510000e-06	2.946278e-06	9.368511e-10	2.045343e+01	6.584044e+01
2.520000e-06	2.985705e-06	9.435260e-10	2.072714e+01	6.654296e+01
2.530000e-06	3.025004e-06	9.483082e-10	2.099996e+01	6.721681e+01
2.540000e-06	3.064075e-06	9.555515e-10	2.127120e+01	6.786257e+01
2.550000e-06	3.102872e-06	9.648043e-10	2.154053e+01	6.848089e+01
2.560000e-06	3.141495e-06	9.747528e-10	2.180866e+01	6.907242e+01
2.570000e-06	3.179934e-06	9.846377e-10	2.207550e+01	6.963785e+01
2.580000e-06	3.218121e-06	9.919707e-10	2.234060e+01	7.017790e+01
2.590000e-06	3.256047e-06	9.969847e-10	2.260389e+01	7.069333e+01
2.600000e-06	3.293746e-06	1.001274e-09	2.286561e+01	7.118489e+01
2.610000e-06	3.331215e-06	1.006869e-09	2.312571e+01	7.165338e+01
2.620000e-06	3.368486e-06	1.013934e-09	2.338445e+01	7.209961e+01
2.630000e-06	3.405578e-06	1.020286e-09	2.364195e+01	7.252439e+01
2.640000e-06	3.442416e-06	1.027661e-09	2.389769e+01	7.292858e+01
2.650000e-06	3.478999e-06	1.036041e-09	2.415166e+01	7.331300e+01
2.660000e-06	3.515341e-06	1.043159e-09	2.440394e+01	7.367850e+01
2.670000e-06	3.551442e-06	1.048575e-09	2.465456e+01	7.402594e+01
2.680000e-06	3.587366e-06	1.053515e-09	2.490395e+01	7.435616e+01
2.690000e-06	3.623148e-06	1.057501e-09	2.515235e+01	7.467001e+01
2.700000e-06	3.658758e-06	1.060056e-09	2.539956e+01	7.496831e+01
2.710000e-06	3.694242e-06	1.063587e-09	2.564590e+01	7.525189e+01
2.720000e-06	3.729600e-06	1.068818e-09	2.589135e+01	7.552155e+01
2.730000e-06	3.764707e-06	1.075761e-09	2.613507e+01	7.577806e+01
2.740000e-06	3.799511e-06	1.083408e-09	2.637669e+01	7.602220e+01
2.750000e-06	3.833881e-06	1.090819e-09	2.661529e+01	7.625469e+01
2.760000e-06	3.867674e-06	1.094835e-09	2.684988e+01	7.647624e+01
2.770000e-06	3.900880e-06	1.096059e-09	2.708041e+01	7.668753e+01
2.780000e-06	3.933585e-06	1.096962e-09	2.730744e+01	7.688919e+01
2.790000e-06	3.965905e-06	1.101439e-09	2.753182e+01	7.708183e+01
2.800000e-06	3.997987e-06	1.109727e-09	2.775453e+01	7.726602e+01
2.810000e-06	4.029949e-06	1.117371e-09	2.797642e+01	7.744229e+01
2.820000e-06	4.061753e-06	1.121893e-09	2.819720e+01	7.761113e+01
2.830000e-06	4.093331e-06	1.125193e-09	2.841642e+01	7.777299e+01
2.840000e-06	4.124674e-06	1.127640e-09	2.863401e+01	7.792829e+01
2.850000e-06	4.155809e-06	1.127953e-09	2.885015e+01	7.807738e+01
2.860000e-06	4.186644e-06	1.127061e-09	2.906421e+01	7.822062e+01
2.870000e-06	4.217180e-06	1.128569e-09	2.927620e+01	7.835828e+01
2.880000e-06	4.247429e-06	1.131562e-09	2.948619e+01	7.849062e+01
2.890000e-06	4.277347e-06	1.133688e-09	2.969389e+01	7.861786e+01
2.900000e-06	4.306993e-06	1.135936e-09	2.989969e+01	7.874019e+01
