# Temperatura_=_-8.2
# Concentracion g/m^3_=_1620.0
# C_Vs_to_Am_M_A/Vsm_=_65563218390.804596
# pendiente_HvsI_1/m_=_3716.3
# ordenada_HvsI_A/m_=_1297.0
# frecuencia_Hz_=_135103.37619349043

Tiempo_(s)	Campo_(V.s)	Magnetizacion_(V.s)	Campo_(kA/m)	Magnetizacion_(A/m)
0.000000e+00	-5.520240e-06	-1.189336e-09	-3.836347e+01	-7.813170e+01
1.000000e-08	-5.520374e-06	-1.184884e-09	-3.836440e+01	-7.806103e+01
2.000000e-08	-5.520289e-06	-1.182745e-09	-3.836381e+01	-7.799431e+01
3.000000e-08	-5.519947e-06	-1.182167e-09	-3.836144e+01	-7.793199e+01
4.000000e-08	-5.519181e-06	-1.181466e-09	-3.835611e+01	-7.787442e+01
5.000000e-08	-5.517872e-06	-1.178867e-09	-3.834702e+01	-7.782185e+01
6.000000e-08	-5.515992e-06	-1.176305e-09	-3.833395e+01	-7.777439e+01
7.000000e-08	-5.513464e-06	-1.178072e-09	-3.831638e+01	-7.773199e+01
8.000000e-08	-5.510314e-06	-1.175034e-09	-3.829449e+01	-7.769450e+01
9.000000e-08	-5.506722e-06	-1.179489e-09	-3.826952e+01	-7.766162e+01
1.000000e-07	-5.502822e-06	-1.198488e-09	-3.824242e+01	-7.763291e+01
1.100000e-07	-5.498663e-06	-1.178521e-09	-3.821352e+01	-7.760782e+01
1.200000e-07	-5.494221e-06	-1.132532e-09	-3.818265e+01	-7.758566e+01
1.300000e-07	-5.489512e-06	-1.150252e-09	-3.814992e+01	-7.756565e+01
1.400000e-07	-5.484440e-06	-1.159467e-09	-3.811468e+01	-7.754692e+01
1.500000e-07	-5.478962e-06	-1.192431e-09	-3.807661e+01	-7.752853e+01
1.600000e-07	-5.473086e-06	-1.145212e-09	-3.803577e+01	-7.750946e+01
1.700000e-07	-5.466846e-06	-1.153498e-09	-3.799240e+01	-7.748867e+01
1.800000e-07	-5.460129e-06	-1.161199e-09	-3.794572e+01	-7.746510e+01
1.900000e-07	-5.452951e-06	-1.164764e-09	-3.789584e+01	-7.743770e+01
2.000000e-07	-5.445558e-06	-1.148700e-09	-3.784446e+01	-7.740541e+01
2.100000e-07	-5.437927e-06	-1.145110e-09	-3.779143e+01	-7.736727e+01
2.200000e-07	-5.430012e-06	-1.183126e-09	-3.773643e+01	-7.732233e+01
2.300000e-07	-5.421814e-06	-1.173620e-09	-3.767945e+01	-7.726974e+01
2.400000e-07	-5.413253e-06	-1.155678e-09	-3.761995e+01	-7.720878e+01
2.500000e-07	-5.404099e-06	-1.126211e-09	-3.755634e+01	-7.713879e+01
2.600000e-07	-5.394245e-06	-1.149691e-09	-3.748786e+01	-7.705928e+01
2.700000e-07	-5.383806e-06	-1.140079e-09	-3.741531e+01	-7.696988e+01
2.800000e-07	-5.372861e-06	-1.146850e-09	-3.733925e+01	-7.687035e+01
2.900000e-07	-5.361454e-06	-1.123239e-09	-3.725997e+01	-7.676064e+01
3.000000e-07	-5.349632e-06	-1.133485e-09	-3.717782e+01	-7.664081e+01
3.100000e-07	-5.337407e-06	-1.119101e-09	-3.709285e+01	-7.651109e+01
3.200000e-07	-5.324700e-06	-1.127202e-09	-3.700455e+01	-7.637186e+01
3.300000e-07	-5.311516e-06	-1.107034e-09	-3.691292e+01	-7.622364e+01
3.400000e-07	-5.298006e-06	-1.120097e-09	-3.681904e+01	-7.606708e+01
3.500000e-07	-5.284172e-06	-1.126259e-09	-3.672289e+01	-7.590294e+01
3.600000e-07	-5.269964e-06	-1.125156e-09	-3.662415e+01	-7.573210e+01
3.700000e-07	-5.255311e-06	-1.113898e-09	-3.652232e+01	-7.555553e+01
3.800000e-07	-5.240177e-06	-1.125857e-09	-3.641715e+01	-7.537427e+01
3.900000e-07	-5.224454e-06	-1.109119e-09	-3.630788e+01	-7.518942e+01
4.000000e-07	-5.208217e-06	-1.088699e-09	-3.619504e+01	-7.500212e+01
4.100000e-07	-5.191630e-06	-1.111391e-09	-3.607976e+01	-7.481352e+01
4.200000e-07	-5.174600e-06	-1.126091e-09	-3.596141e+01	-7.462478e+01
4.300000e-07	-5.157219e-06	-1.096176e-09	-3.584062e+01	-7.443703e+01
4.400000e-07	-5.139598e-06	-1.094543e-09	-3.571816e+01	-7.425137e+01
4.500000e-07	-5.121677e-06	-1.129855e-09	-3.559362e+01	-7.406883e+01
4.600000e-07	-5.103359e-06	-1.094538e-09	-3.546632e+01	-7.389039e+01
4.700000e-07	-5.084650e-06	-1.073433e-09	-3.533630e+01	-7.371692e+01
4.800000e-07	-5.065579e-06	-1.106338e-09	-3.520376e+01	-7.354923e+01
4.900000e-07	-5.046139e-06	-1.111493e-09	-3.506866e+01	-7.338797e+01
5.000000e-07	-5.026378e-06	-1.062695e-09	-3.493133e+01	-7.323372e+01
5.100000e-07	-5.006413e-06	-1.093478e-09	-3.479258e+01	-7.308691e+01
5.200000e-07	-4.986294e-06	-1.107227e-09	-3.465276e+01	-7.294785e+01
5.300000e-07	-4.965926e-06	-1.069217e-09	-3.451121e+01	-7.281674e+01
5.400000e-07	-4.945130e-06	-1.068529e-09	-3.436669e+01	-7.269363e+01
5.500000e-07	-4.923976e-06	-1.111160e-09	-3.421967e+01	-7.257846e+01
5.600000e-07	-4.902506e-06	-1.073088e-09	-3.407047e+01	-7.247106e+01
5.700000e-07	-4.880674e-06	-1.062334e-09	-3.391875e+01	-7.237113e+01
5.800000e-07	-4.858495e-06	-1.095970e-09	-3.376461e+01	-7.227830e+01
5.900000e-07	-4.835916e-06	-1.084062e-09	-3.360769e+01	-7.219208e+01
6.000000e-07	-4.812934e-06	-1.046985e-09	-3.344798e+01	-7.211192e+01
6.100000e-07	-4.789722e-06	-1.079710e-09	-3.328666e+01	-7.203719e+01
6.200000e-07	-4.766313e-06	-1.080084e-09	-3.312398e+01	-7.196724e+01
6.300000e-07	-4.742626e-06	-1.051680e-09	-3.295937e+01	-7.190133e+01
6.400000e-07	-4.718645e-06	-1.071444e-09	-3.279270e+01	-7.183873e+01
6.500000e-07	-4.694323e-06	-1.090442e-09	-3.262367e+01	-7.177869e+01
6.600000e-07	-4.669715e-06	-1.057924e-09	-3.245266e+01	-7.172045e+01
6.700000e-07	-4.644737e-06	-1.062495e-09	-3.227907e+01	-7.166327e+01
6.800000e-07	-4.619212e-06	-1.083965e-09	-3.210169e+01	-7.160643e+01
6.900000e-07	-4.593094e-06	-1.062222e-09	-3.192018e+01	-7.154923e+01
7.000000e-07	-4.566439e-06	-1.053876e-09	-3.173493e+01	-7.149103e+01
7.100000e-07	-4.539314e-06	-1.072665e-09	-3.154643e+01	-7.143122e+01
7.200000e-07	-4.511818e-06	-1.062313e-09	-3.135534e+01	-7.136925e+01
7.300000e-07	-4.484079e-06	-1.047655e-09	-3.116257e+01	-7.130463e+01
7.400000e-07	-4.456170e-06	-1.065512e-09	-3.096861e+01	-7.123692e+01
7.500000e-07	-4.428095e-06	-1.061087e-09	-3.077350e+01	-7.116575e+01
7.600000e-07	-4.399811e-06	-1.045194e-09	-3.057693e+01	-7.109080e+01
7.700000e-07	-4.371283e-06	-1.050724e-09	-3.037868e+01	-7.101183e+01
7.800000e-07	-4.342494e-06	-1.057715e-09	-3.017860e+01	-7.092863e+01
7.900000e-07	-4.313367e-06	-1.039945e-09	-2.997618e+01	-7.084106e+01
8.000000e-07	-4.283846e-06	-1.043609e-09	-2.977103e+01	-7.074903e+01
8.100000e-07	-4.253991e-06	-1.048845e-09	-2.956354e+01	-7.065248e+01
8.200000e-07	-4.223888e-06	-1.036816e-09	-2.935434e+01	-7.055140e+01
8.300000e-07	-4.193522e-06	-1.024056e-09	-2.914331e+01	-7.044580e+01
8.400000e-07	-4.162865e-06	-1.034936e-09	-2.893025e+01	-7.033574e+01
8.500000e-07	-4.131930e-06	-1.031583e-09	-2.871527e+01	-7.022128e+01
8.600000e-07	-4.100703e-06	-1.025151e-09	-2.849825e+01	-7.010250e+01
8.700000e-07	-4.069162e-06	-1.026636e-09	-2.827906e+01	-6.997949e+01
8.800000e-07	-4.037381e-06	-1.024019e-09	-2.805819e+01	-6.985235e+01
8.900000e-07	-4.005456e-06	-1.006837e-09	-2.783632e+01	-6.972117e+01
9.000000e-07	-3.973340e-06	-1.006473e-09	-2.761313e+01	-6.958603e+01
9.100000e-07	-3.940955e-06	-1.008523e-09	-2.738807e+01	-6.944704e+01
9.200000e-07	-3.908313e-06	-1.003127e-09	-2.716122e+01	-6.930426e+01
9.300000e-07	-3.875368e-06	-1.001962e-09	-2.693226e+01	-6.915777e+01
9.400000e-07	-3.841968e-06	-1.008977e-09	-2.670015e+01	-6.900762e+01
9.500000e-07	-3.808093e-06	-1.003867e-09	-2.646473e+01	-6.885387e+01
9.600000e-07	-3.773805e-06	-9.968311e-10	-2.622644e+01	-6.869654e+01
9.700000e-07	-3.739135e-06	-9.967945e-10	-2.598550e+01	-6.853569e+01
9.800000e-07	-3.704076e-06	-9.908523e-10	-2.574185e+01	-6.837132e+01
9.900000e-07	-3.668660e-06	-9.795097e-10	-2.549573e+01	-6.820347e+01
1.000000e-06	-3.633019e-06	-9.764121e-10	-2.524804e+01	-6.803216e+01
1.010000e-06	-3.597268e-06	-9.755256e-10	-2.499958e+01	-6.785742e+01
1.020000e-06	-3.561420e-06	-9.678418e-10	-2.475045e+01	-6.767927e+01
1.030000e-06	-3.525414e-06	-9.655787e-10	-2.450023e+01	-6.749776e+01
1.040000e-06	-3.489224e-06	-9.663451e-10	-2.424872e+01	-6.731293e+01
1.050000e-06	-3.452820e-06	-9.626242e-10	-2.399573e+01	-6.712484e+01
1.060000e-06	-3.416101e-06	-9.557734e-10	-2.374054e+01	-6.693357e+01
1.070000e-06	-3.379102e-06	-9.577929e-10	-2.348342e+01	-6.673921e+01
1.080000e-06	-3.341880e-06	-9.556237e-10	-2.322473e+01	-6.654186e+01
1.090000e-06	-3.304399e-06	-9.502411e-10	-2.296426e+01	-6.634166e+01
1.100000e-06	-3.266697e-06	-9.461695e-10	-2.270224e+01	-6.613872e+01
1.110000e-06	-3.228788e-06	-9.449425e-10	-2.243879e+01	-6.593321e+01
1.120000e-06	-3.190646e-06	-9.400602e-10	-2.217372e+01	-6.572529e+01
1.130000e-06	-3.152262e-06	-9.386877e-10	-2.190697e+01	-6.551514e+01
1.140000e-06	-3.113705e-06	-9.373988e-10	-2.163901e+01	-6.530292e+01
1.150000e-06	-3.074935e-06	-9.368449e-10	-2.136958e+01	-6.508884e+01
1.160000e-06	-3.035983e-06	-9.340327e-10	-2.109888e+01	-6.487307e+01
1.170000e-06	-2.996839e-06	-9.329403e-10	-2.082684e+01	-6.465579e+01
1.180000e-06	-2.957427e-06	-9.250985e-10	-2.055294e+01	-6.443717e+01
1.190000e-06	-2.917830e-06	-9.179888e-10	-2.027776e+01	-6.421736e+01
1.200000e-06	-2.878143e-06	-9.145228e-10	-2.000195e+01	-6.399650e+01
1.210000e-06	-2.838356e-06	-9.131299e-10	-1.972544e+01	-6.377469e+01
1.220000e-06	-2.798383e-06	-9.114894e-10	-1.944765e+01	-6.355203e+01
1.230000e-06	-2.758281e-06	-9.136770e-10	-1.916895e+01	-6.332855e+01
1.240000e-06	-2.718084e-06	-9.144442e-10	-1.888960e+01	-6.310428e+01
1.250000e-06	-2.677663e-06	-9.113018e-10	-1.860869e+01	-6.287917e+01
1.260000e-06	-2.636985e-06	-9.079271e-10	-1.832600e+01	-6.265317e+01
1.270000e-06	-2.596064e-06	-9.041184e-10	-1.804161e+01	-6.242616e+01
1.280000e-06	-2.554880e-06	-8.982018e-10	-1.775540e+01	-6.219796e+01
1.290000e-06	-2.513420e-06	-8.898565e-10	-1.746727e+01	-6.196838e+01
1.300000e-06	-2.471744e-06	-8.853561e-10	-1.717764e+01	-6.173714e+01
1.310000e-06	-2.429887e-06	-8.841245e-10	-1.688674e+01	-6.150393e+01
1.320000e-06	-2.387758e-06	-8.811562e-10	-1.659397e+01	-6.126841e+01
1.330000e-06	-2.345224e-06	-8.766615e-10	-1.629837e+01	-6.103017e+01
1.340000e-06	-2.302304e-06	-8.714009e-10	-1.600010e+01	-6.078875e+01
1.350000e-06	-2.259199e-06	-8.650329e-10	-1.570053e+01	-6.054368e+01
1.360000e-06	-2.215912e-06	-8.612868e-10	-1.539970e+01	-6.029442e+01
1.370000e-06	-2.172420e-06	-8.560377e-10	-1.509745e+01	-6.004042e+01
1.380000e-06	-2.128810e-06	-8.496957e-10	-1.479438e+01	-5.978109e+01
1.390000e-06	-2.085111e-06	-8.434193e-10	-1.449069e+01	-5.951580e+01
1.400000e-06	-2.041279e-06	-8.392103e-10	-1.418608e+01	-5.924392e+01
1.410000e-06	-1.997397e-06	-8.334403e-10	-1.388112e+01	-5.896480e+01
1.420000e-06	-1.953481e-06	-8.268436e-10	-1.357592e+01	-5.867774e+01
1.430000e-06	-1.909479e-06	-8.187174e-10	-1.327012e+01	-5.838208e+01
1.440000e-06	-1.865388e-06	-8.128803e-10	-1.296371e+01	-5.807713e+01
1.450000e-06	-1.821189e-06	-8.068192e-10	-1.265654e+01	-5.776218e+01
1.460000e-06	-1.776890e-06	-8.015336e-10	-1.234868e+01	-5.743654e+01
1.470000e-06	-1.732524e-06	-7.948821e-10	-1.204035e+01	-5.709953e+01
1.480000e-06	-1.687977e-06	-7.883930e-10	-1.173077e+01	-5.675046e+01
1.490000e-06	-1.643225e-06	-7.801508e-10	-1.141976e+01	-5.638863e+01
1.500000e-06	-1.598402e-06	-7.698461e-10	-1.110826e+01	-5.601339e+01
1.510000e-06	-1.553413e-06	-7.590305e-10	-1.079560e+01	-5.562407e+01
1.520000e-06	-1.508236e-06	-7.476207e-10	-1.048164e+01	-5.522000e+01
1.530000e-06	-1.462992e-06	-7.382808e-10	-1.016721e+01	-5.480055e+01
1.540000e-06	-1.417675e-06	-7.330656e-10	-9.852280e+00	-5.436508e+01
1.550000e-06	-1.372275e-06	-7.288820e-10	-9.536765e+00	-5.391295e+01
1.560000e-06	-1.326834e-06	-7.228911e-10	-9.220969e+00	-5.344354e+01
1.570000e-06	-1.281302e-06	-7.161164e-10	-8.904540e+00	-5.295624e+01
1.580000e-06	-1.235645e-06	-7.076690e-10	-8.587244e+00	-5.245043e+01
1.590000e-06	-1.189889e-06	-6.954304e-10	-8.269255e+00	-5.192550e+01
1.600000e-06	-1.144102e-06	-6.823149e-10	-7.951055e+00	-5.138086e+01
1.610000e-06	-1.098310e-06	-6.718479e-10	-7.632817e+00	-5.081588e+01
1.620000e-06	-1.052447e-06	-6.644736e-10	-7.314087e+00	-5.022997e+01
1.630000e-06	-1.006447e-06	-6.581728e-10	-6.994403e+00	-4.962252e+01
1.640000e-06	-9.602024e-07	-6.517565e-10	-6.673025e+00	-4.899292e+01
1.650000e-06	-9.138603e-07	-6.440395e-10	-6.350966e+00	-4.834054e+01
1.660000e-06	-8.676145e-07	-6.319395e-10	-6.029576e+00	-4.766478e+01
1.670000e-06	-8.213792e-07	-6.168748e-10	-5.708259e+00	-4.696502e+01
1.680000e-06	-7.750784e-07	-6.019660e-10	-5.386486e+00	-4.624062e+01
1.690000e-06	-7.287141e-07	-5.901841e-10	-5.064273e+00	-4.549098e+01
1.700000e-06	-6.822094e-07	-5.776028e-10	-4.741084e+00	-4.471546e+01
1.710000e-06	-6.356567e-07	-5.653307e-10	-4.417561e+00	-4.391344e+01
1.720000e-06	-5.891257e-07	-5.551158e-10	-4.094189e+00	-4.308430e+01
1.730000e-06	-5.424846e-07	-5.451897e-10	-3.770052e+00	-4.222744e+01
1.740000e-06	-4.958191e-07	-5.332877e-10	-3.445745e+00	-4.134224e+01
1.750000e-06	-4.491590e-07	-5.210276e-10	-3.121476e+00	-4.042813e+01
1.760000e-06	-4.024422e-07	-5.060764e-10	-2.796813e+00	-3.948453e+01
1.770000e-06	-3.556951e-07	-4.884005e-10	-2.471940e+00	-3.851088e+01
1.780000e-06	-3.089665e-07	-4.715391e-10	-2.147195e+00	-3.750668e+01
1.790000e-06	-2.621462e-07	-4.570711e-10	-1.821812e+00	-3.647142e+01
1.800000e-06	-2.152310e-07	-4.424161e-10	-1.495770e+00	-3.540466e+01
1.810000e-06	-1.683578e-07	-4.300685e-10	-1.170020e+00	-3.430597e+01
1.820000e-06	-1.214560e-07	-4.183250e-10	-8.440706e-01	-3.317501e+01
1.830000e-06	-7.445460e-08	-4.033715e-10	-5.174299e-01	-3.201144e+01
1.840000e-06	-2.745802e-08	-3.875710e-10	-1.908223e-01	-3.081503e+01
1.850000e-06	1.937800e-08	-3.707789e-10	1.346694e-01	-2.958559e+01
1.860000e-06	6.611868e-08	-3.560969e-10	4.594985e-01	-2.832300e+01
1.870000e-06	1.129081e-07	-3.418358e-10	7.846667e-01	-2.702722e+01
1.880000e-06	1.596865e-07	-3.263770e-10	1.109757e+00	-2.569830e+01
1.890000e-06	2.064074e-07	-3.079750e-10	1.434450e+00	-2.433638e+01
1.900000e-06	2.532281e-07	-2.874028e-10	1.759834e+00	-2.294168e+01
1.910000e-06	3.000495e-07	-2.657130e-10	2.085225e+00	-2.151454e+01
1.920000e-06	3.468056e-07	-2.429052e-10	2.410161e+00	-2.005539e+01
1.930000e-06	3.936065e-07	-2.217864e-10	2.735409e+00	-1.856477e+01
1.940000e-06	4.403473e-07	-2.027452e-10	3.060238e+00	-1.704333e+01
1.950000e-06	4.869801e-07	-1.838549e-10	3.384318e+00	-1.549187e+01
1.960000e-06	5.335462e-07	-1.642107e-10	3.707934e+00	-1.391125e+01
1.970000e-06	5.800427e-07	-1.427951e-10	4.031066e+00	-1.230252e+01
1.980000e-06	6.264996e-07	-1.201366e-10	4.353923e+00	-1.066680e+01
1.990000e-06	6.729042e-07	-9.658960e-11	4.676416e+00	-9.005365e+00
2.000000e-06	7.192502e-07	-7.047854e-11	4.998503e+00	-7.319608e+00
2.010000e-06	7.656154e-07	-4.303869e-11	5.320722e+00	-5.611044e+00
2.020000e-06	8.118908e-07	-1.746591e-11	5.642318e+00	-3.881312e+00
2.030000e-06	8.580603e-07	5.228092e-12	5.963178e+00	-2.132172e+00
2.040000e-06	9.042556e-07	2.636299e-11	6.284217e+00	-3.654976e-01
2.050000e-06	9.504264e-07	4.692919e-11	6.605085e+00	1.416727e+00
2.060000e-06	9.965150e-07	7.066065e-11	6.925383e+00	3.212415e+00
2.070000e-06	1.042572e-06	9.708212e-11	7.245463e+00	5.019381e+00
2.080000e-06	1.088627e-06	1.237416e-10	7.565524e+00	6.835355e+00
2.090000e-06	1.134513e-06	1.506890e-10	7.884415e+00	8.657988e+00
2.100000e-06	1.180226e-06	1.789630e-10	8.202100e+00	1.048486e+01
2.110000e-06	1.225833e-06	2.061161e-10	8.519054e+00	1.231351e+01
2.120000e-06	1.271366e-06	2.294742e-10	8.835487e+00	1.414143e+01
2.130000e-06	1.316822e-06	2.544858e-10	9.151392e+00	1.596607e+01
2.140000e-06	1.362171e-06	2.801943e-10	9.466545e+00	1.778489e+01
2.150000e-06	1.407458e-06	3.031580e-10	9.781270e+00	1.959534e+01
2.160000e-06	1.452654e-06	3.263751e-10	1.009537e+01	2.139490e+01
2.170000e-06	1.497770e-06	3.491346e-10	1.040891e+01	2.318106e+01
2.180000e-06	1.542774e-06	3.715821e-10	1.072166e+01	2.495140e+01
2.190000e-06	1.587591e-06	3.968958e-10	1.103312e+01	2.670353e+01
2.200000e-06	1.632249e-06	4.251605e-10	1.134348e+01	2.843517e+01
2.210000e-06	1.676820e-06	4.528734e-10	1.165323e+01	3.014412e+01
2.220000e-06	1.721352e-06	4.778634e-10	1.196271e+01	3.182831e+01
2.230000e-06	1.765802e-06	5.002268e-10	1.227162e+01	3.348579e+01
2.240000e-06	1.810138e-06	5.202973e-10	1.257974e+01	3.511475e+01
2.250000e-06	1.854374e-06	5.390657e-10	1.288717e+01	3.671353e+01
2.260000e-06	1.898462e-06	5.566171e-10	1.319355e+01	3.828063e+01
2.270000e-06	1.942427e-06	5.756316e-10	1.349910e+01	3.981473e+01
2.280000e-06	1.986320e-06	5.965620e-10	1.380414e+01	4.131466e+01
2.290000e-06	2.030132e-06	6.173288e-10	1.410861e+01	4.277947e+01
2.300000e-06	2.073873e-06	6.371078e-10	1.441259e+01	4.420835e+01
2.310000e-06	2.117539e-06	6.563212e-10	1.471606e+01	4.560070e+01
2.320000e-06	2.161153e-06	6.751490e-10	1.501916e+01	4.695610e+01
2.330000e-06	2.204603e-06	6.915791e-10	1.532111e+01	4.827428e+01
2.340000e-06	2.247860e-06	7.060540e-10	1.562173e+01	4.955516e+01
2.350000e-06	2.291003e-06	7.213657e-10	1.592156e+01	5.079883e+01
2.360000e-06	2.333962e-06	7.378035e-10	1.622010e+01	5.200551e+01
2.370000e-06	2.376729e-06	7.537918e-10	1.651732e+01	5.317557e+01
2.380000e-06	2.419243e-06	7.685374e-10	1.681277e+01	5.430952e+01
2.390000e-06	2.461338e-06	7.827241e-10	1.710532e+01	5.540797e+01
2.400000e-06	2.502950e-06	7.977999e-10	1.739451e+01	5.647161e+01
2.410000e-06	2.544215e-06	8.124387e-10	1.768128e+01	5.750125e+01
2.420000e-06	2.585349e-06	8.255599e-10	1.796715e+01	5.849773e+01
2.430000e-06	2.626340e-06	8.355713e-10	1.825202e+01	5.946196e+01
2.440000e-06	2.666970e-06	8.430840e-10	1.853438e+01	6.039486e+01
2.450000e-06	2.707341e-06	8.510815e-10	1.881494e+01	6.129738e+01
2.460000e-06	2.747609e-06	8.614308e-10	1.909479e+01	6.217047e+01
2.470000e-06	2.787660e-06	8.737823e-10	1.937313e+01	6.301505e+01
2.480000e-06	2.827516e-06	8.857080e-10	1.965011e+01	6.383202e+01
2.490000e-06	2.867318e-06	8.964023e-10	1.992672e+01	6.462224e+01
2.500000e-06	2.907047e-06	9.056595e-10	2.020282e+01	6.538650e+01
2.510000e-06	2.946642e-06	9.131588e-10	2.047799e+01	6.612556e+01
2.520000e-06	2.986029e-06	9.202268e-10	2.075172e+01	6.684010e+01
2.530000e-06	3.025198e-06	9.265629e-10	2.102392e+01	6.753071e+01
2.540000e-06	3.064160e-06	9.322234e-10	2.129470e+01	6.819794e+01
2.550000e-06	3.102916e-06	9.404505e-10	2.156403e+01	6.884225e+01
2.560000e-06	3.141485e-06	9.486459e-10	2.183207e+01	6.946402e+01
2.570000e-06	3.179835e-06	9.566284e-10	2.209859e+01	7.006358e+01
2.580000e-06	3.218049e-06	9.663088e-10	2.236416e+01	7.064119e+01
2.590000e-06	3.256034e-06	9.752165e-10	2.262814e+01	7.119708e+01
2.600000e-06	3.293731e-06	9.829945e-10	2.289012e+01	7.173139e+01
2.610000e-06	3.331172e-06	9.904265e-10	2.315032e+01	7.224427e+01
2.620000e-06	3.368329e-06	9.991827e-10	2.340855e+01	7.273583e+01
2.630000e-06	3.405255e-06	1.008654e-09	2.366517e+01	7.320618e+01
2.640000e-06	3.441991e-06	1.016249e-09	2.392047e+01	7.365543e+01
2.650000e-06	3.478493e-06	1.021563e-09	2.417414e+01	7.408369e+01
2.660000e-06	3.514757e-06	1.026152e-09	2.442616e+01	7.449113e+01
2.670000e-06	3.550860e-06	1.031315e-09	2.467707e+01	7.487794e+01
2.680000e-06	3.586803e-06	1.037669e-09	2.492685e+01	7.524435e+01
2.690000e-06	3.622575e-06	1.044239e-09	2.517546e+01	7.559068e+01
2.700000e-06	3.658164e-06	1.050751e-09	2.542279e+01	7.591729e+01
2.710000e-06	3.693607e-06	1.057383e-09	2.566910e+01	7.622464e+01
2.720000e-06	3.728834e-06	1.064573e-09	2.591391e+01	7.651325e+01
2.730000e-06	3.763728e-06	1.072052e-09	2.615642e+01	7.678373e+01
2.740000e-06	3.798185e-06	1.076924e-09	2.639588e+01	7.703677e+01
2.750000e-06	3.832201e-06	1.079610e-09	2.663227e+01	7.727314e+01
2.760000e-06	3.865735e-06	1.080662e-09	2.686532e+01	7.749368e+01
2.770000e-06	3.898771e-06	1.081597e-09	2.709490e+01	7.769933e+01
2.780000e-06	3.931477e-06	1.085434e-09	2.732220e+01	7.789104e+01
2.790000e-06	3.963896e-06	1.092680e-09	2.754750e+01	7.806985e+01
2.800000e-06	3.996075e-06	1.099992e-09	2.777113e+01	7.823683e+01
2.810000e-06	4.028037e-06	1.106212e-09	2.799325e+01	7.839307e+01
2.820000e-06	4.059795e-06	1.109770e-09	2.821396e+01	7.853968e+01
2.830000e-06	4.091405e-06	1.111128e-09	2.843364e+01	7.867777e+01
2.840000e-06	4.122797e-06	1.112980e-09	2.865180e+01	7.880841e+01
2.850000e-06	4.153810e-06	1.114510e-09	2.886732e+01	7.893265e+01
2.860000e-06	4.184444e-06	1.114178e-09	2.908022e+01	7.905150e+01
2.870000e-06	4.214816e-06	1.114421e-09	2.929130e+01	7.916588e+01
2.880000e-06	4.244966e-06	1.117334e-09	2.950083e+01	7.927665e+01
2.890000e-06	4.274902e-06	1.122024e-09	2.970887e+01	7.938457e+01
2.900000e-06	4.304562e-06	1.127741e-09	2.991499e+01	7.949029e+01
