# Temperatura_=_7.76
# Concentracion g/m^3_=_1620.0
# C_Vs_to_Am_M_A/Vsm_=_65563218390.804596
# pendiente_HvsI_1/m_=_3716.3
# ordenada_HvsI_A/m_=_1297.0
# frecuencia_Hz_=_135098.6614355688

Tiempo_(s)	Campo_(V.s)	Magnetizacion_(V.s)	Campo_(kA/m)	Magnetizacion_(A/m)
0.000000e+00	-5.519923e-06	-1.577874e-09	-3.837080e+01	-1.018338e+02
1.000000e-08	-5.520083e-06	-1.574561e-09	-3.837191e+01	-1.017940e+02
2.000000e-08	-5.519910e-06	-1.571165e-09	-3.837070e+01	-1.017562e+02
3.000000e-08	-5.519353e-06	-1.569562e-09	-3.836684e+01	-1.017206e+02
4.000000e-08	-5.518386e-06	-1.568826e-09	-3.836011e+01	-1.016875e+02
5.000000e-08	-5.516908e-06	-1.567524e-09	-3.834984e+01	-1.016570e+02
6.000000e-08	-5.514863e-06	-1.574634e-09	-3.833562e+01	-1.016292e+02
7.000000e-08	-5.512372e-06	-1.595732e-09	-3.831831e+01	-1.016039e+02
8.000000e-08	-5.509358e-06	-1.601078e-09	-3.829735e+01	-1.015811e+02
9.000000e-08	-5.505706e-06	-1.550147e-09	-3.827197e+01	-1.015604e+02
1.000000e-07	-5.501626e-06	-1.501413e-09	-3.824361e+01	-1.015415e+02
1.100000e-07	-5.497305e-06	-1.509647e-09	-3.821357e+01	-1.015240e+02
1.200000e-07	-5.492730e-06	-1.580324e-09	-3.818177e+01	-1.015072e+02
1.300000e-07	-5.487847e-06	-1.581568e-09	-3.814782e+01	-1.014907e+02
1.400000e-07	-5.482557e-06	-1.520417e-09	-3.811106e+01	-1.014736e+02
1.500000e-07	-5.476914e-06	-1.510223e-09	-3.807183e+01	-1.014552e+02
1.600000e-07	-5.470922e-06	-1.566880e-09	-3.803017e+01	-1.014347e+02
1.700000e-07	-5.464533e-06	-1.602742e-09	-3.798576e+01	-1.014113e+02
1.800000e-07	-5.457702e-06	-1.549367e-09	-3.793827e+01	-1.013841e+02
1.900000e-07	-5.450556e-06	-1.518011e-09	-3.788861e+01	-1.013521e+02
2.000000e-07	-5.443184e-06	-1.525430e-09	-3.783736e+01	-1.013146e+02
2.100000e-07	-5.435521e-06	-1.563033e-09	-3.778409e+01	-1.012706e+02
2.200000e-07	-5.427571e-06	-1.552111e-09	-3.772883e+01	-1.012193e+02
2.300000e-07	-5.419317e-06	-1.544836e-09	-3.767145e+01	-1.011600e+02
2.400000e-07	-5.410571e-06	-1.534932e-09	-3.761065e+01	-1.010920e+02
2.500000e-07	-5.401083e-06	-1.546974e-09	-3.754470e+01	-1.010146e+02
2.600000e-07	-5.390986e-06	-1.534335e-09	-3.747451e+01	-1.009273e+02
2.700000e-07	-5.380457e-06	-1.514543e-09	-3.740132e+01	-1.008297e+02
2.800000e-07	-5.369400e-06	-1.505419e-09	-3.732446e+01	-1.007214e+02
2.900000e-07	-5.357873e-06	-1.517408e-09	-3.724433e+01	-1.006022e+02
3.000000e-07	-5.346009e-06	-1.514222e-09	-3.716186e+01	-1.004721e+02
3.100000e-07	-5.333735e-06	-1.498463e-09	-3.707654e+01	-1.003309e+02
3.200000e-07	-5.321066e-06	-1.510139e-09	-3.698848e+01	-1.001789e+02
3.300000e-07	-5.308003e-06	-1.526360e-09	-3.689767e+01	-1.000164e+02
3.400000e-07	-5.294557e-06	-1.521453e-09	-3.680420e+01	-9.984363e+01
3.500000e-07	-5.280646e-06	-1.499762e-09	-3.670750e+01	-9.966116e+01
3.600000e-07	-5.266190e-06	-1.506793e-09	-3.660701e+01	-9.946953e+01
3.700000e-07	-5.251249e-06	-1.506664e-09	-3.650316e+01	-9.926941e+01
3.800000e-07	-5.235872e-06	-1.506596e-09	-3.639626e+01	-9.906156e+01
3.900000e-07	-5.220001e-06	-1.507334e-09	-3.628594e+01	-9.884678e+01
4.000000e-07	-5.203656e-06	-1.508996e-09	-3.617232e+01	-9.862592e+01
4.100000e-07	-5.186925e-06	-1.478009e-09	-3.605602e+01	-9.839990e+01
4.200000e-07	-5.169833e-06	-1.479702e-09	-3.593720e+01	-9.816963e+01
4.300000e-07	-5.152461e-06	-1.503868e-09	-3.581644e+01	-9.793603e+01
4.400000e-07	-5.134816e-06	-1.500331e-09	-3.569379e+01	-9.770004e+01
4.500000e-07	-5.116847e-06	-1.461709e-09	-3.556889e+01	-9.746255e+01
4.600000e-07	-5.098448e-06	-1.471672e-09	-3.544099e+01	-9.722442e+01
4.700000e-07	-5.079742e-06	-1.486235e-09	-3.531095e+01	-9.698647e+01
4.800000e-07	-5.060774e-06	-1.464489e-09	-3.517910e+01	-9.674945e+01
4.900000e-07	-5.041396e-06	-1.444899e-09	-3.504440e+01	-9.651404e+01
5.000000e-07	-5.021731e-06	-1.468482e-09	-3.490770e+01	-9.628084e+01
5.100000e-07	-5.001806e-06	-1.460857e-09	-3.476920e+01	-9.605036e+01
5.200000e-07	-4.981552e-06	-1.438751e-09	-3.462840e+01	-9.582301e+01
5.300000e-07	-4.960962e-06	-1.452016e-09	-3.448528e+01	-9.559912e+01
5.400000e-07	-4.940052e-06	-1.460410e-09	-3.433992e+01	-9.537890e+01
5.500000e-07	-4.918848e-06	-1.426769e-09	-3.419253e+01	-9.516247e+01
5.600000e-07	-4.897310e-06	-1.421932e-09	-3.404281e+01	-9.494983e+01
5.700000e-07	-4.875376e-06	-1.446131e-09	-3.389034e+01	-9.474092e+01
5.800000e-07	-4.853053e-06	-1.430888e-09	-3.373516e+01	-9.453555e+01
5.900000e-07	-4.830441e-06	-1.410007e-09	-3.357798e+01	-9.433346e+01
6.000000e-07	-4.807538e-06	-1.423618e-09	-3.341878e+01	-9.413433e+01
6.100000e-07	-4.784333e-06	-1.420520e-09	-3.325747e+01	-9.393774e+01
6.200000e-07	-4.760842e-06	-1.394279e-09	-3.309418e+01	-9.374322e+01
6.300000e-07	-4.737017e-06	-1.400252e-09	-3.292856e+01	-9.355026e+01
6.400000e-07	-4.712869e-06	-1.410420e-09	-3.276070e+01	-9.335831e+01
6.500000e-07	-4.688399e-06	-1.395328e-09	-3.259060e+01	-9.316678e+01
6.600000e-07	-4.663634e-06	-1.388570e-09	-3.241845e+01	-9.297507e+01
6.700000e-07	-4.638448e-06	-1.398276e-09	-3.224338e+01	-9.278257e+01
6.800000e-07	-4.612693e-06	-1.382424e-09	-3.206434e+01	-9.258869e+01
6.900000e-07	-4.586328e-06	-1.370379e-09	-3.188107e+01	-9.239282e+01
7.000000e-07	-4.559464e-06	-1.375606e-09	-3.169433e+01	-9.219441e+01
7.100000e-07	-4.532332e-06	-1.370767e-09	-3.150572e+01	-9.199291e+01
7.200000e-07	-4.504911e-06	-1.353797e-09	-3.131512e+01	-9.178784e+01
7.300000e-07	-4.477206e-06	-1.356433e-09	-3.112253e+01	-9.157873e+01
7.400000e-07	-4.449357e-06	-1.358582e-09	-3.092894e+01	-9.136518e+01
7.500000e-07	-4.421336e-06	-1.353866e-09	-3.073416e+01	-9.114683e+01
7.600000e-07	-4.393023e-06	-1.347185e-09	-3.053735e+01	-9.092339e+01
7.700000e-07	-4.364378e-06	-1.344952e-09	-3.033823e+01	-9.069460e+01
7.800000e-07	-4.335375e-06	-1.335411e-09	-3.013661e+01	-9.046028e+01
7.900000e-07	-4.306096e-06	-1.327836e-09	-2.993309e+01	-9.022028e+01
8.000000e-07	-4.276590e-06	-1.322098e-09	-2.972798e+01	-8.997453e+01
8.100000e-07	-4.246804e-06	-1.314869e-09	-2.952093e+01	-8.972298e+01
8.200000e-07	-4.216783e-06	-1.308561e-09	-2.931224e+01	-8.946564e+01
8.300000e-07	-4.186475e-06	-1.306497e-09	-2.910156e+01	-8.920256e+01
8.400000e-07	-4.155790e-06	-1.300737e-09	-2.888826e+01	-8.893381e+01
8.500000e-07	-4.124686e-06	-1.294204e-09	-2.867205e+01	-8.865951e+01
8.600000e-07	-4.093357e-06	-1.289433e-09	-2.845427e+01	-8.837979e+01
8.700000e-07	-4.061918e-06	-1.282889e-09	-2.823572e+01	-8.809480e+01
8.800000e-07	-4.030325e-06	-1.272335e-09	-2.801611e+01	-8.780471e+01
8.900000e-07	-3.998540e-06	-1.265983e-09	-2.779516e+01	-8.750968e+01
9.000000e-07	-3.966480e-06	-1.261511e-09	-2.757230e+01	-8.720989e+01
9.100000e-07	-3.934079e-06	-1.254790e-09	-2.734707e+01	-8.690552e+01
9.200000e-07	-3.901402e-06	-1.251245e-09	-2.711993e+01	-8.659674e+01
9.300000e-07	-3.868436e-06	-1.248610e-09	-2.689077e+01	-8.628370e+01
9.400000e-07	-3.834842e-06	-1.242864e-09	-2.665725e+01	-8.596654e+01
9.500000e-07	-3.800661e-06	-1.236155e-09	-2.641964e+01	-8.564542e+01
9.600000e-07	-3.766168e-06	-1.235984e-09	-2.617987e+01	-8.532044e+01
9.700000e-07	-3.731387e-06	-1.229500e-09	-2.593809e+01	-8.499171e+01
9.800000e-07	-3.696249e-06	-1.220095e-09	-2.569384e+01	-8.465932e+01
9.900000e-07	-3.660855e-06	-1.212781e-09	-2.544780e+01	-8.432335e+01
1.000000e-06	-3.625245e-06	-1.205798e-09	-2.520027e+01	-8.398386e+01
1.010000e-06	-3.589443e-06	-1.193871e-09	-2.495140e+01	-8.364090e+01
1.020000e-06	-3.553488e-06	-1.188158e-09	-2.470146e+01	-8.329450e+01
1.030000e-06	-3.517412e-06	-1.189547e-09	-2.445069e+01	-8.294470e+01
1.040000e-06	-3.481178e-06	-1.190568e-09	-2.419881e+01	-8.259152e+01
1.050000e-06	-3.444684e-06	-1.185777e-09	-2.394513e+01	-8.223499e+01
1.060000e-06	-3.407904e-06	-1.180416e-09	-2.368946e+01	-8.187512e+01
1.070000e-06	-3.370849e-06	-1.172470e-09	-2.343188e+01	-8.151193e+01
1.080000e-06	-3.333630e-06	-1.166734e-09	-2.317315e+01	-8.114543e+01
1.090000e-06	-3.296201e-06	-1.162093e-09	-2.291297e+01	-8.077566e+01
1.100000e-06	-3.258465e-06	-1.157539e-09	-2.265066e+01	-8.040263e+01
1.110000e-06	-3.220423e-06	-1.150099e-09	-2.238622e+01	-8.002638e+01
1.120000e-06	-3.182122e-06	-1.143656e-09	-2.211998e+01	-7.964693e+01
1.130000e-06	-3.143602e-06	-1.138944e-09	-2.185221e+01	-7.926433e+01
1.140000e-06	-3.104860e-06	-1.133569e-09	-2.158290e+01	-7.887860e+01
1.150000e-06	-3.066034e-06	-1.129498e-09	-2.131301e+01	-7.848980e+01
1.160000e-06	-3.026948e-06	-1.126791e-09	-2.104131e+01	-7.809795e+01
1.170000e-06	-2.987540e-06	-1.120714e-09	-2.076737e+01	-7.770310e+01
1.180000e-06	-2.948102e-06	-1.113208e-09	-2.049323e+01	-7.730527e+01
1.190000e-06	-2.908565e-06	-1.109612e-09	-2.021839e+01	-7.690447e+01
1.200000e-06	-2.868809e-06	-1.105235e-09	-1.994204e+01	-7.650071e+01
1.210000e-06	-2.828961e-06	-1.098938e-09	-1.966503e+01	-7.609399e+01
1.220000e-06	-2.789071e-06	-1.091861e-09	-1.938775e+01	-7.568427e+01
1.230000e-06	-2.749002e-06	-1.086920e-09	-1.910922e+01	-7.527151e+01
1.240000e-06	-2.708719e-06	-1.082355e-09	-1.882920e+01	-7.485562e+01
1.250000e-06	-2.668257e-06	-1.076535e-09	-1.854793e+01	-7.443649e+01
1.260000e-06	-2.627589e-06	-1.068599e-09	-1.826523e+01	-7.401400e+01
1.270000e-06	-2.586666e-06	-1.058785e-09	-1.798076e+01	-7.358797e+01
1.280000e-06	-2.545349e-06	-1.048945e-09	-1.769355e+01	-7.315820e+01
1.290000e-06	-2.503761e-06	-1.040881e-09	-1.740446e+01	-7.272444e+01
1.300000e-06	-2.461953e-06	-1.031726e-09	-1.711384e+01	-7.228641e+01
1.310000e-06	-2.419839e-06	-1.021733e-09	-1.682109e+01	-7.184381e+01
1.320000e-06	-2.377304e-06	-1.012014e-09	-1.652542e+01	-7.139628e+01
1.330000e-06	-2.334336e-06	-1.003284e-09	-1.622674e+01	-7.094343e+01
1.340000e-06	-2.291205e-06	-9.935297e-10	-1.592692e+01	-7.048483e+01
1.350000e-06	-2.247978e-06	-9.870796e-10	-1.562644e+01	-7.002004e+01
1.360000e-06	-2.204645e-06	-9.818410e-10	-1.532521e+01	-6.954857e+01
1.370000e-06	-2.161194e-06	-9.744760e-10	-1.502317e+01	-6.906991e+01
1.380000e-06	-2.117601e-06	-9.634156e-10	-1.472014e+01	-6.858352e+01
1.390000e-06	-2.073846e-06	-9.516810e-10	-1.441598e+01	-6.808885e+01
1.400000e-06	-2.030004e-06	-9.396948e-10	-1.411123e+01	-6.758532e+01
1.410000e-06	-1.986152e-06	-9.288978e-10	-1.380639e+01	-6.707234e+01
1.420000e-06	-1.942293e-06	-9.190838e-10	-1.350151e+01	-6.654931e+01
1.430000e-06	-1.898318e-06	-9.113256e-10	-1.319583e+01	-6.601564e+01
1.440000e-06	-1.854226e-06	-9.056966e-10	-1.288933e+01	-6.547069e+01
1.450000e-06	-1.810052e-06	-8.992246e-10	-1.258227e+01	-6.491387e+01
1.460000e-06	-1.765777e-06	-8.897275e-10	-1.227449e+01	-6.434456e+01
1.470000e-06	-1.721340e-06	-8.782784e-10	-1.196560e+01	-6.376214e+01
1.480000e-06	-1.676743e-06	-8.656556e-10	-1.165559e+01	-6.316601e+01
1.490000e-06	-1.632046e-06	-8.511504e-10	-1.134489e+01	-6.255557e+01
1.500000e-06	-1.587137e-06	-8.373506e-10	-1.103271e+01	-6.193022e+01
1.510000e-06	-1.542128e-06	-8.257480e-10	-1.071984e+01	-6.128935e+01
1.520000e-06	-1.497127e-06	-8.150336e-10	-1.040702e+01	-6.063239e+01
1.530000e-06	-1.451964e-06	-8.021398e-10	-1.009308e+01	-5.995874e+01
1.540000e-06	-1.406629e-06	-7.903634e-10	-9.777943e+00	-5.926782e+01
1.550000e-06	-1.361265e-06	-7.785063e-10	-9.462600e+00	-5.855903e+01
1.560000e-06	-1.315798e-06	-7.677182e-10	-9.146545e+00	-5.783179e+01
1.570000e-06	-1.270166e-06	-7.588114e-10	-8.829338e+00	-5.708549e+01
1.580000e-06	-1.224482e-06	-7.480571e-10	-8.511777e+00	-5.631954e+01
1.590000e-06	-1.178801e-06	-7.339092e-10	-8.194231e+00	-5.553331e+01
1.600000e-06	-1.133041e-06	-7.194341e-10	-7.876139e+00	-5.472618e+01
1.610000e-06	-1.087141e-06	-7.060696e-10	-7.557072e+00	-5.389750e+01
1.620000e-06	-1.041170e-06	-6.942408e-10	-7.237512e+00	-5.304662e+01
1.630000e-06	-9.951168e-07	-6.833831e-10	-6.917383e+00	-5.217286e+01
1.640000e-06	-9.490323e-07	-6.726568e-10	-6.597035e+00	-5.127552e+01
1.650000e-06	-9.028912e-07	-6.598070e-10	-6.276293e+00	-5.035389e+01
1.660000e-06	-8.566151e-07	-6.456755e-10	-5.954613e+00	-4.940723e+01
1.670000e-06	-8.103247e-07	-6.309918e-10	-5.632833e+00	-4.843480e+01
1.680000e-06	-7.640254e-07	-6.143737e-10	-5.310991e+00	-4.743584e+01
1.690000e-06	-7.176615e-07	-5.975622e-10	-4.988700e+00	-4.640958e+01
1.700000e-06	-6.711215e-07	-5.803948e-10	-4.665186e+00	-4.535524e+01
1.710000e-06	-6.244581e-07	-5.634165e-10	-4.340813e+00	-4.427204e+01
1.720000e-06	-5.779019e-07	-5.474136e-10	-4.017186e+00	-4.315922e+01
1.730000e-06	-5.313697e-07	-5.308450e-10	-3.693725e+00	-4.201600e+01
1.740000e-06	-4.847983e-07	-5.139155e-10	-3.369992e+00	-4.084164e+01
1.750000e-06	-4.381779e-07	-4.972406e-10	-3.045919e+00	-3.963544e+01
1.760000e-06	-3.914929e-07	-4.798312e-10	-2.721396e+00	-3.839671e+01
1.770000e-06	-3.447831e-07	-4.605193e-10	-2.396700e+00	-3.712483e+01
1.780000e-06	-2.979945e-07	-4.403117e-10	-2.071457e+00	-3.581921e+01
1.790000e-06	-2.512322e-07	-4.193259e-10	-1.746398e+00	-3.447934e+01
1.800000e-06	-2.045006e-07	-3.989022e-10	-1.421551e+00	-3.310479e+01
1.810000e-06	-1.577662e-07	-3.806880e-10	-1.096684e+00	-3.169520e+01
1.820000e-06	-1.109923e-07	-3.640886e-10	-7.715439e-01	-3.025031e+01
1.830000e-06	-6.414581e-08	-3.475753e-10	-4.458986e-01	-2.876997e+01
1.840000e-06	-1.730383e-08	-3.283085e-10	-1.202846e-01	-2.725412e+01
1.850000e-06	2.954431e-08	-3.076432e-10	2.053722e-01	-2.570286e+01
1.860000e-06	7.638117e-08	-2.851949e-10	5.309506e-01	-2.411637e+01
1.870000e-06	1.231670e-07	-2.599460e-10	8.561739e-01	-2.249499e+01
1.880000e-06	1.699239e-07	-2.345783e-10	1.181197e+00	-2.083919e+01
1.890000e-06	2.167199e-07	-2.107248e-10	1.506491e+00	-1.914958e+01
1.900000e-06	2.635429e-07	-1.857818e-10	1.831973e+00	-1.742692e+01
1.910000e-06	3.103589e-07	-1.588634e-10	2.157407e+00	-1.567211e+01
1.920000e-06	3.571891e-07	-1.321935e-10	2.482938e+00	-1.388620e+01
1.930000e-06	4.040290e-07	-1.065742e-10	2.808538e+00	-1.207037e+01
1.940000e-06	4.507737e-07	-8.187626e-11	3.133476e+00	-1.022597e+01
1.950000e-06	4.974533e-07	-5.606144e-11	3.457961e+00	-8.354452e+00
1.960000e-06	5.441109e-07	-3.001268e-11	3.782293e+00	-6.457430e+00
1.970000e-06	5.906488e-07	-5.681617e-12	4.105794e+00	-4.536630e+00
1.980000e-06	6.371363e-07	1.902927e-11	4.428943e+00	-2.593899e+00
1.990000e-06	6.835716e-07	4.588011e-11	4.751730e+00	-6.311948e-01
2.000000e-06	7.299000e-07	7.671221e-11	5.073774e+00	1.349426e+00
2.010000e-06	7.762094e-07	1.088134e-10	5.395686e+00	3.345815e+00
2.020000e-06	8.224704e-07	1.393572e-10	5.717262e+00	5.355746e+00
2.030000e-06	8.686350e-07	1.679932e-10	6.038167e+00	7.376925e+00
2.040000e-06	9.147211e-07	1.941531e-10	6.358526e+00	9.407004e+00
2.050000e-06	9.608266e-07	2.201039e-10	6.679021e+00	1.144359e+01
2.060000e-06	1.006894e-06	2.481928e-10	6.999251e+00	1.348426e+01
2.070000e-06	1.052800e-06	2.796114e-10	7.318359e+00	1.552659e+01
2.080000e-06	1.098634e-06	3.131503e-10	7.636966e+00	1.756811e+01
2.090000e-06	1.144493e-06	3.465707e-10	7.955749e+00	1.960641e+01
2.100000e-06	1.190274e-06	3.785845e-10	8.273987e+00	2.163907e+01
2.110000e-06	1.235871e-06	4.078447e-10	8.590948e+00	2.366369e+01
2.120000e-06	1.281379e-06	4.345119e-10	8.907283e+00	2.567795e+01
2.130000e-06	1.326837e-06	4.604291e-10	9.223276e+00	2.767956e+01
2.140000e-06	1.372244e-06	4.853535e-10	9.538918e+00	2.966629e+01
2.150000e-06	1.417594e-06	5.105633e-10	9.854162e+00	3.163599e+01
2.160000e-06	1.462805e-06	5.378979e-10	1.016844e+01	3.358660e+01
2.170000e-06	1.507903e-06	5.666648e-10	1.048193e+01	3.551613e+01
2.180000e-06	1.552872e-06	5.949134e-10	1.079452e+01	3.742270e+01
2.190000e-06	1.597677e-06	6.209271e-10	1.110598e+01	3.930453e+01
2.200000e-06	1.642389e-06	6.463763e-10	1.141679e+01	4.115993e+01
2.210000e-06	1.686969e-06	6.721644e-10	1.172667e+01	4.298735e+01
2.220000e-06	1.731414e-06	6.964129e-10	1.203563e+01	4.478532e+01
2.230000e-06	1.775769e-06	7.196422e-10	1.234395e+01	4.655251e+01
2.240000e-06	1.819969e-06	7.418811e-10	1.265120e+01	4.828771e+01
2.250000e-06	1.864006e-06	7.633514e-10	1.295732e+01	4.998980e+01
2.260000e-06	1.908010e-06	7.852715e-10	1.326320e+01	5.165780e+01
2.270000e-06	1.951994e-06	8.067282e-10	1.356895e+01	5.329086e+01
2.280000e-06	1.995893e-06	8.270519e-10	1.387411e+01	5.488821e+01
2.290000e-06	2.039703e-06	8.463003e-10	1.417865e+01	5.644922e+01
2.300000e-06	2.083411e-06	8.663406e-10	1.448247e+01	5.797337e+01
2.310000e-06	2.127063e-06	8.872400e-10	1.478592e+01	5.946024e+01
2.320000e-06	2.170672e-06	9.077934e-10	1.508905e+01	6.090953e+01
2.330000e-06	2.214142e-06	9.271915e-10	1.539123e+01	6.232103e+01
2.340000e-06	2.257424e-06	9.447917e-10	1.569210e+01	6.369462e+01
2.350000e-06	2.300423e-06	9.627215e-10	1.599100e+01	6.503029e+01
2.360000e-06	2.343150e-06	9.800698e-10	1.628801e+01	6.632811e+01
2.370000e-06	2.385744e-06	9.944103e-10	1.658409e+01	6.758824e+01
2.380000e-06	2.428167e-06	1.006982e-09	1.687899e+01	6.881091e+01
2.390000e-06	2.470294e-06	1.020934e-09	1.717183e+01	6.999643e+01
2.400000e-06	2.512057e-06	1.038665e-09	1.746213e+01	7.114518e+01
2.410000e-06	2.553483e-06	1.057410e-09	1.775010e+01	7.225759e+01
2.420000e-06	2.594628e-06	1.075067e-09	1.803611e+01	7.333417e+01
2.430000e-06	2.635496e-06	1.089091e-09	1.832020e+01	7.437546e+01
2.440000e-06	2.676077e-06	1.098351e-09	1.860229e+01	7.538206e+01
2.450000e-06	2.716431e-06	1.105277e-09	1.888280e+01	7.635461e+01
2.460000e-06	2.756583e-06	1.113236e-09	1.916191e+01	7.729381e+01
2.470000e-06	2.796577e-06	1.125927e-09	1.943993e+01	7.820035e+01
2.480000e-06	2.836466e-06	1.139660e-09	1.971720e+01	7.907500e+01
2.490000e-06	2.876270e-06	1.153875e-09	1.999389e+01	7.991851e+01
2.500000e-06	2.915951e-06	1.165895e-09	2.026973e+01	8.073169e+01
2.510000e-06	2.955414e-06	1.174074e-09	2.054405e+01	8.151534e+01
2.520000e-06	2.994711e-06	1.179284e-09	2.081722e+01	8.227031e+01
2.530000e-06	3.033769e-06	1.185104e-09	2.108872e+01	8.299742e+01
2.540000e-06	3.072580e-06	1.192210e-09	2.135851e+01	8.369753e+01
2.550000e-06	3.111240e-06	1.200646e-09	2.162725e+01	8.437150e+01
2.560000e-06	3.149655e-06	1.210789e-09	2.189429e+01	8.502019e+01
2.570000e-06	3.187826e-06	1.220897e-09	2.215963e+01	8.564449e+01
2.580000e-06	3.225797e-06	1.229243e-09	2.242358e+01	8.624525e+01
2.590000e-06	3.263556e-06	1.235912e-09	2.268605e+01	8.682335e+01
2.600000e-06	3.301112e-06	1.241686e-09	2.294711e+01	8.737967e+01
2.610000e-06	3.338455e-06	1.247201e-09	2.320670e+01	8.791508e+01
2.620000e-06	3.375582e-06	1.256945e-09	2.346477e+01	8.843044e+01
2.630000e-06	3.412445e-06	1.268963e-09	2.372103e+01	8.892663e+01
2.640000e-06	3.449053e-06	1.279689e-09	2.397550e+01	8.940451e+01
2.650000e-06	3.485422e-06	1.288628e-09	2.422831e+01	8.986493e+01
2.660000e-06	3.521599e-06	1.294704e-09	2.447979e+01	9.030875e+01
2.670000e-06	3.557637e-06	1.298506e-09	2.473030e+01	9.073680e+01
2.680000e-06	3.593528e-06	1.302666e-09	2.497979e+01	9.114993e+01
2.690000e-06	3.629268e-06	1.308833e-09	2.522823e+01	9.154897e+01
2.700000e-06	3.664812e-06	1.317498e-09	2.547531e+01	9.193472e+01
2.710000e-06	3.700113e-06	1.328581e-09	2.572070e+01	9.230798e+01
2.720000e-06	3.735225e-06	1.340339e-09	2.596477e+01	9.266954e+01
2.730000e-06	3.770086e-06	1.348853e-09	2.620710e+01	9.302018e+01
2.740000e-06	3.804527e-06	1.355738e-09	2.644652e+01	9.336062e+01
2.750000e-06	3.838475e-06	1.358132e-09	2.668250e+01	9.369160e+01
2.760000e-06	3.871874e-06	1.360403e-09	2.691466e+01	9.401381e+01
2.770000e-06	3.904801e-06	1.362695e-09	2.714355e+01	9.432792e+01
2.780000e-06	3.937353e-06	1.367183e-09	2.736983e+01	9.463455e+01
2.790000e-06	3.969653e-06	1.376141e-09	2.759436e+01	9.493431e+01
2.800000e-06	4.001757e-06	1.386729e-09	2.781753e+01	9.522775e+01
2.810000e-06	4.033629e-06	1.395934e-09	2.803908e+01	9.551537e+01
2.820000e-06	4.065330e-06	1.401174e-09	2.825944e+01	9.579764e+01
2.830000e-06	4.096884e-06	1.405437e-09	2.847879e+01	9.607498e+01
2.840000e-06	4.128173e-06	1.407050e-09	2.869628e+01	9.634773e+01
2.850000e-06	4.159043e-06	1.406332e-09	2.891087e+01	9.661621e+01
2.860000e-06	4.189620e-06	1.404066e-09	2.912342e+01	9.688065e+01
2.870000e-06	4.219987e-06	1.407321e-09	2.933452e+01	9.714124e+01
2.880000e-06	4.249993e-06	1.415957e-09	2.954310e+01	9.739810e+01
2.890000e-06	4.279743e-06	1.424500e-09	2.974990e+01	9.765129e+01
2.900000e-06	4.309284e-06	1.430315e-09	2.995525e+01	9.790082e+01
