# Temperatura_=_11.0
# Concentracion g/m^3_=_1620.0
# C_Vs_to_Am_M_A/Vsm_=_65563218390.804596
# pendiente_HvsI_1/m_=_3716.3
# ordenada_HvsI_A/m_=_1297.0
# frecuencia_Hz_=_135098.04554641093

Tiempo_(s)	Campo_(V.s)	Magnetizacion_(V.s)	Campo_(kA/m)	Magnetizacion_(A/m)
0.000000e+00	-5.507229e-06	-1.639234e-09	-3.837622e+01	-1.065651e+02
1.000000e-08	-5.507306e-06	-1.636378e-09	-3.837676e+01	-1.065002e+02
2.000000e-08	-5.507145e-06	-1.636047e-09	-3.837564e+01	-1.064404e+02
3.000000e-08	-5.506668e-06	-1.635358e-09	-3.837231e+01	-1.063863e+02
4.000000e-08	-5.505603e-06	-1.634254e-09	-3.836489e+01	-1.063386e+02
5.000000e-08	-5.503925e-06	-1.629419e-09	-3.835320e+01	-1.062975e+02
6.000000e-08	-5.501720e-06	-1.621505e-09	-3.833783e+01	-1.062634e+02
7.000000e-08	-5.499017e-06	-1.633438e-09	-3.831900e+01	-1.062365e+02
8.000000e-08	-5.495771e-06	-1.642778e-09	-3.829638e+01	-1.062165e+02
9.000000e-08	-5.492059e-06	-1.644306e-09	-3.827051e+01	-1.062033e+02
1.000000e-07	-5.487945e-06	-1.661812e-09	-3.824185e+01	-1.061966e+02
1.100000e-07	-5.483510e-06	-1.652904e-09	-3.821094e+01	-1.061956e+02
1.200000e-07	-5.478796e-06	-1.583449e-09	-3.817809e+01	-1.061997e+02
1.300000e-07	-5.473820e-06	-1.582770e-09	-3.814342e+01	-1.062080e+02
1.400000e-07	-5.468557e-06	-1.613284e-09	-3.810674e+01	-1.062194e+02
1.500000e-07	-5.462934e-06	-1.665302e-09	-3.806756e+01	-1.062329e+02
1.600000e-07	-5.456914e-06	-1.587771e-09	-3.802561e+01	-1.062470e+02
1.700000e-07	-5.450488e-06	-1.592828e-09	-3.798084e+01	-1.062606e+02
1.800000e-07	-5.443579e-06	-1.634431e-09	-3.793269e+01	-1.062721e+02
1.900000e-07	-5.436327e-06	-1.673821e-09	-3.788216e+01	-1.062801e+02
2.000000e-07	-5.428825e-06	-1.605603e-09	-3.782988e+01	-1.062832e+02
2.100000e-07	-5.421019e-06	-1.595413e-09	-3.777548e+01	-1.062800e+02
2.200000e-07	-5.412878e-06	-1.635282e-09	-3.771876e+01	-1.062690e+02
2.300000e-07	-5.404445e-06	-1.654130e-09	-3.765999e+01	-1.062489e+02
2.400000e-07	-5.395528e-06	-1.616548e-09	-3.759786e+01	-1.062184e+02
2.500000e-07	-5.385935e-06	-1.592916e-09	-3.753101e+01	-1.061765e+02
2.600000e-07	-5.375605e-06	-1.627599e-09	-3.745903e+01	-1.061221e+02
2.700000e-07	-5.364701e-06	-1.626869e-09	-3.738304e+01	-1.060544e+02
2.800000e-07	-5.353551e-06	-1.616974e-09	-3.730534e+01	-1.059728e+02
2.900000e-07	-5.342035e-06	-1.584505e-09	-3.722510e+01	-1.058766e+02
3.000000e-07	-5.330037e-06	-1.611820e-09	-3.714149e+01	-1.057656e+02
3.100000e-07	-5.317639e-06	-1.601543e-09	-3.705510e+01	-1.056397e+02
3.200000e-07	-5.304858e-06	-1.612177e-09	-3.696603e+01	-1.054990e+02
3.300000e-07	-5.291685e-06	-1.570388e-09	-3.687424e+01	-1.053436e+02
3.400000e-07	-5.278209e-06	-1.601950e-09	-3.678033e+01	-1.051741e+02
3.500000e-07	-5.264348e-06	-1.604100e-09	-3.668375e+01	-1.049910e+02
3.600000e-07	-5.250026e-06	-1.601506e-09	-3.658395e+01	-1.047952e+02
3.700000e-07	-5.235174e-06	-1.558836e-09	-3.648045e+01	-1.045875e+02
3.800000e-07	-5.219784e-06	-1.599112e-09	-3.637321e+01	-1.043690e+02
3.900000e-07	-5.203784e-06	-1.594406e-09	-3.626171e+01	-1.041409e+02
4.000000e-07	-5.187284e-06	-1.557863e-09	-3.614674e+01	-1.039044e+02
4.100000e-07	-5.170464e-06	-1.558405e-09	-3.602954e+01	-1.036607e+02
4.200000e-07	-5.153344e-06	-1.605757e-09	-3.591023e+01	-1.034113e+02
4.300000e-07	-5.135911e-06	-1.560256e-09	-3.578876e+01	-1.031575e+02
4.400000e-07	-5.118059e-06	-1.534395e-09	-3.566436e+01	-1.029005e+02
4.500000e-07	-5.099915e-06	-1.589086e-09	-3.553792e+01	-1.026418e+02
4.600000e-07	-5.081454e-06	-1.584777e-09	-3.540928e+01	-1.023824e+02
4.700000e-07	-5.062560e-06	-1.516305e-09	-3.527762e+01	-1.021236e+02
4.800000e-07	-5.043398e-06	-1.546205e-09	-3.514410e+01	-1.018665e+02
4.900000e-07	-5.023985e-06	-1.583621e-09	-3.500882e+01	-1.016118e+02
5.000000e-07	-5.004292e-06	-1.523931e-09	-3.487159e+01	-1.013604e+02
5.100000e-07	-4.984387e-06	-1.523877e-09	-3.473289e+01	-1.011130e+02
5.200000e-07	-4.964274e-06	-1.573547e-09	-3.459273e+01	-1.008701e+02
5.300000e-07	-4.943692e-06	-1.536818e-09	-3.444931e+01	-1.006319e+02
5.400000e-07	-4.922583e-06	-1.496217e-09	-3.430221e+01	-1.003986e+02
5.500000e-07	-4.901212e-06	-1.554007e-09	-3.415330e+01	-1.001704e+02
5.600000e-07	-4.879594e-06	-1.537803e-09	-3.400266e+01	-9.994693e+01
5.700000e-07	-4.857547e-06	-1.485499e-09	-3.384902e+01	-9.972806e+01
5.800000e-07	-4.835197e-06	-1.517700e-09	-3.369328e+01	-9.951333e+01
5.900000e-07	-4.812567e-06	-1.550758e-09	-3.353559e+01	-9.930221e+01
6.000000e-07	-4.789508e-06	-1.492743e-09	-3.337490e+01	-9.909408e+01
6.100000e-07	-4.766168e-06	-1.500388e-09	-3.321226e+01	-9.888820e+01
6.200000e-07	-4.742685e-06	-1.526371e-09	-3.304862e+01	-9.868379e+01
6.300000e-07	-4.719017e-06	-1.496460e-09	-3.288370e+01	-9.848000e+01
6.400000e-07	-4.695072e-06	-1.473148e-09	-3.271684e+01	-9.827596e+01
6.500000e-07	-4.670788e-06	-1.504597e-09	-3.254762e+01	-9.807079e+01
6.600000e-07	-4.645924e-06	-1.484568e-09	-3.237436e+01	-9.786361e+01
6.700000e-07	-4.620494e-06	-1.469766e-09	-3.219715e+01	-9.765357e+01
6.800000e-07	-4.594580e-06	-1.486312e-09	-3.201658e+01	-9.743987e+01
6.900000e-07	-4.568087e-06	-1.485306e-09	-3.183196e+01	-9.722176e+01
7.000000e-07	-4.541132e-06	-1.456583e-09	-3.164413e+01	-9.699858e+01
7.100000e-07	-4.513907e-06	-1.466677e-09	-3.145442e+01	-9.676973e+01
7.200000e-07	-4.486477e-06	-1.463063e-09	-3.126328e+01	-9.653472e+01
7.300000e-07	-4.458865e-06	-1.442309e-09	-3.107087e+01	-9.629317e+01
7.400000e-07	-4.431072e-06	-1.441592e-09	-3.087720e+01	-9.604477e+01
7.500000e-07	-4.403042e-06	-1.447707e-09	-3.068188e+01	-9.578935e+01
7.600000e-07	-4.374691e-06	-1.430403e-09	-3.048432e+01	-9.552683e+01
7.700000e-07	-4.346032e-06	-1.425304e-09	-3.028461e+01	-9.525722e+01
7.800000e-07	-4.317055e-06	-1.429640e-09	-3.008269e+01	-9.498065e+01
7.900000e-07	-4.287692e-06	-1.415185e-09	-2.987808e+01	-9.469732e+01
8.000000e-07	-4.258094e-06	-1.406560e-09	-2.967183e+01	-9.440750e+01
8.100000e-07	-4.228270e-06	-1.407648e-09	-2.946401e+01	-9.411155e+01
8.200000e-07	-4.198079e-06	-1.394734e-09	-2.925362e+01	-9.380985e+01
8.300000e-07	-4.167562e-06	-1.374007e-09	-2.904097e+01	-9.350285e+01
8.400000e-07	-4.136727e-06	-1.377218e-09	-2.882611e+01	-9.319100e+01
8.500000e-07	-4.105657e-06	-1.375326e-09	-2.860960e+01	-9.287479e+01
8.600000e-07	-4.074410e-06	-1.366540e-09	-2.839186e+01	-9.255467e+01
8.700000e-07	-4.042948e-06	-1.362208e-09	-2.817262e+01	-9.223109e+01
8.800000e-07	-4.011305e-06	-1.364277e-09	-2.795212e+01	-9.190449e+01
8.900000e-07	-3.979493e-06	-1.346304e-09	-2.773045e+01	-9.157524e+01
9.000000e-07	-3.947502e-06	-1.338453e-09	-2.750752e+01	-9.124367e+01
9.100000e-07	-3.915190e-06	-1.336116e-09	-2.728236e+01	-9.091005e+01
9.200000e-07	-3.882405e-06	-1.331374e-09	-2.705390e+01	-9.057459e+01
9.300000e-07	-3.849119e-06	-1.320706e-09	-2.682195e+01	-9.023742e+01
9.400000e-07	-3.815518e-06	-1.325131e-09	-2.658781e+01	-8.989859e+01
9.500000e-07	-3.781533e-06	-1.319290e-09	-2.635099e+01	-8.955810e+01
9.600000e-07	-3.746972e-06	-1.308717e-09	-2.611016e+01	-8.921585e+01
9.700000e-07	-3.711994e-06	-1.302257e-09	-2.586642e+01	-8.887170e+01
9.800000e-07	-3.676765e-06	-1.300645e-09	-2.562093e+01	-8.852541e+01
9.900000e-07	-3.641392e-06	-1.286559e-09	-2.537445e+01	-8.817672e+01
1.000000e-06	-3.605878e-06	-1.277841e-09	-2.512697e+01	-8.782530e+01
1.010000e-06	-3.570227e-06	-1.276451e-09	-2.487854e+01	-8.747077e+01
1.020000e-06	-3.534472e-06	-1.269936e-09	-2.462939e+01	-8.711274e+01
1.030000e-06	-3.498517e-06	-1.260682e-09	-2.437885e+01	-8.675080e+01
1.040000e-06	-3.462326e-06	-1.261817e-09	-2.412665e+01	-8.638452e+01
1.050000e-06	-3.425798e-06	-1.260092e-09	-2.387211e+01	-8.601347e+01
1.060000e-06	-3.388955e-06	-1.251990e-09	-2.361538e+01	-8.563727e+01
1.070000e-06	-3.351931e-06	-1.248085e-09	-2.335738e+01	-8.525551e+01
1.080000e-06	-3.314634e-06	-1.243461e-09	-2.309749e+01	-8.486786e+01
1.090000e-06	-3.277073e-06	-1.231870e-09	-2.283574e+01	-8.447401e+01
1.100000e-06	-3.239369e-06	-1.221653e-09	-2.257301e+01	-8.407370e+01
1.110000e-06	-3.201489e-06	-1.218657e-09	-2.230905e+01	-8.366675e+01
1.120000e-06	-3.163421e-06	-1.209762e-09	-2.204378e+01	-8.325299e+01
1.130000e-06	-3.125147e-06	-1.201253e-09	-2.177708e+01	-8.283237e+01
1.140000e-06	-3.086538e-06	-1.195987e-09	-2.150804e+01	-8.240486e+01
1.150000e-06	-3.047690e-06	-1.191132e-09	-2.123733e+01	-8.197050e+01
1.160000e-06	-3.008675e-06	-1.179415e-09	-2.096546e+01	-8.152941e+01
1.170000e-06	-2.969494e-06	-1.170785e-09	-2.069243e+01	-8.108175e+01
1.180000e-06	-2.930181e-06	-1.162458e-09	-2.041848e+01	-8.062771e+01
1.190000e-06	-2.890738e-06	-1.157898e-09	-2.014364e+01	-8.016756e+01
1.200000e-06	-2.851138e-06	-1.153264e-09	-1.986769e+01	-7.970157e+01
1.210000e-06	-2.811371e-06	-1.149246e-09	-1.959058e+01	-7.923004e+01
1.220000e-06	-2.771451e-06	-1.138518e-09	-1.931240e+01	-7.875330e+01
1.230000e-06	-2.731371e-06	-1.130890e-09	-1.903311e+01	-7.827167e+01
1.240000e-06	-2.691148e-06	-1.126039e-09	-1.875282e+01	-7.778546e+01
1.250000e-06	-2.650719e-06	-1.120497e-09	-1.847110e+01	-7.729495e+01
1.260000e-06	-2.610029e-06	-1.111938e-09	-1.818756e+01	-7.680043e+01
1.270000e-06	-2.569031e-06	-1.105377e-09	-1.790187e+01	-7.630211e+01
1.280000e-06	-2.527681e-06	-1.095329e-09	-1.761373e+01	-7.580016e+01
1.290000e-06	-2.485999e-06	-1.083101e-09	-1.732328e+01	-7.529471e+01
1.300000e-06	-2.444046e-06	-1.074092e-09	-1.703093e+01	-7.478582e+01
1.310000e-06	-2.401880e-06	-1.067944e-09	-1.673711e+01	-7.427348e+01
1.320000e-06	-2.359424e-06	-1.059551e-09	-1.644126e+01	-7.375759e+01
1.330000e-06	-2.316587e-06	-1.049471e-09	-1.614276e+01	-7.323799e+01
1.340000e-06	-2.273485e-06	-1.039133e-09	-1.584241e+01	-7.271445e+01
1.350000e-06	-2.230287e-06	-1.032017e-09	-1.554139e+01	-7.218664e+01
1.360000e-06	-2.186985e-06	-1.024690e-09	-1.523965e+01	-7.165418e+01
1.370000e-06	-2.143581e-06	-1.016892e-09	-1.493719e+01	-7.111659e+01
1.380000e-06	-2.100062e-06	-1.007464e-09	-1.463394e+01	-7.057334e+01
1.390000e-06	-2.056432e-06	-9.969828e-10	-1.432991e+01	-7.002383e+01
1.400000e-06	-2.012759e-06	-9.876648e-10	-1.402558e+01	-6.946740e+01
1.410000e-06	-1.969010e-06	-9.766912e-10	-1.372073e+01	-6.890335e+01
1.420000e-06	-1.925107e-06	-9.645995e-10	-1.341480e+01	-6.833092e+01
1.430000e-06	-1.881139e-06	-9.543467e-10	-1.310841e+01	-6.774934e+01
1.440000e-06	-1.837127e-06	-9.457469e-10	-1.280172e+01	-6.715778e+01
1.450000e-06	-1.792974e-06	-9.342218e-10	-1.249405e+01	-6.655542e+01
1.460000e-06	-1.748695e-06	-9.213445e-10	-1.218550e+01	-6.594142e+01
1.470000e-06	-1.704305e-06	-9.078229e-10	-1.187617e+01	-6.531493e+01
1.480000e-06	-1.659841e-06	-8.958386e-10	-1.156633e+01	-6.467511e+01
1.490000e-06	-1.615258e-06	-8.813303e-10	-1.125566e+01	-6.402113e+01
1.500000e-06	-1.570479e-06	-8.667459e-10	-1.094363e+01	-6.335217e+01
1.510000e-06	-1.525539e-06	-8.538647e-10	-1.063047e+01	-6.266743e+01
1.520000e-06	-1.480435e-06	-8.433497e-10	-1.031617e+01	-6.196613e+01
1.530000e-06	-1.435246e-06	-8.309448e-10	-1.000128e+01	-6.124751e+01
1.540000e-06	-1.390066e-06	-8.204817e-10	-9.686448e+00	-6.051082e+01
1.550000e-06	-1.344808e-06	-8.074491e-10	-9.371076e+00	-5.975536e+01
1.560000e-06	-1.299395e-06	-7.931808e-10	-9.054622e+00	-5.898044e+01
1.570000e-06	-1.253899e-06	-7.779921e-10	-8.737593e+00	-5.818537e+01
1.580000e-06	-1.208324e-06	-7.637943e-10	-8.420006e+00	-5.736951e+01
1.590000e-06	-1.162628e-06	-7.497004e-10	-8.101586e+00	-5.653220e+01
1.600000e-06	-1.116907e-06	-7.389454e-10	-7.782983e+00	-5.567280e+01
1.610000e-06	-1.071120e-06	-7.304071e-10	-7.463922e+00	-5.479068e+01
1.620000e-06	-1.025199e-06	-7.219246e-10	-7.143929e+00	-5.388520e+01
1.630000e-06	-9.792216e-07	-7.127729e-10	-6.823545e+00	-5.295573e+01
1.640000e-06	-9.332081e-07	-6.993751e-10	-6.502908e+00	-5.200160e+01
1.650000e-06	-8.870918e-07	-6.814903e-10	-6.181554e+00	-5.102217e+01
1.660000e-06	-8.408985e-07	-6.621916e-10	-5.859664e+00	-5.001675e+01
1.670000e-06	-7.947391e-07	-6.449690e-10	-5.538009e+00	-4.898466e+01
1.680000e-06	-7.486019e-07	-6.289039e-10	-5.216510e+00	-4.792518e+01
1.690000e-06	-7.023162e-07	-6.136583e-10	-4.893975e+00	-4.683760e+01
1.700000e-06	-6.559366e-07	-5.969985e-10	-4.570787e+00	-4.572117e+01
1.710000e-06	-6.095350e-07	-5.813370e-10	-4.247445e+00	-4.457515e+01
1.720000e-06	-5.631177e-07	-5.643932e-10	-3.923994e+00	-4.339879e+01
1.730000e-06	-5.167872e-07	-5.445735e-10	-3.601147e+00	-4.219134e+01
1.740000e-06	-4.703408e-07	-5.234073e-10	-3.277493e+00	-4.095205e+01
1.750000e-06	-4.238187e-07	-5.023824e-10	-2.953311e+00	-3.968020e+01
1.760000e-06	-3.772239e-07	-4.814245e-10	-2.628623e+00	-3.837507e+01
1.770000e-06	-3.304231e-07	-4.617128e-10	-2.302500e+00	-3.703602e+01
1.780000e-06	-2.836184e-07	-4.428059e-10	-1.976349e+00	-3.566242e+01
1.790000e-06	-2.368962e-07	-4.255880e-10	-1.650772e+00	-3.425372e+01
1.800000e-06	-1.902440e-07	-4.069282e-10	-1.325684e+00	-3.280944e+01
1.810000e-06	-1.435652e-07	-3.868442e-10	-1.000411e+00	-3.132917e+01
1.820000e-06	-9.684842e-08	-3.671727e-10	-6.748723e-01	-2.981263e+01
1.830000e-06	-5.018295e-08	-3.463190e-10	-3.496917e-01	-2.825962e+01
1.840000e-06	-3.524559e-09	-3.251591e-10	-2.456031e-02	-2.667008e+01
1.850000e-06	4.315483e-08	-3.035658e-10	3.007174e-01	-2.504408e+01
1.860000e-06	8.987099e-08	-2.795522e-10	6.262513e-01	-2.338184e+01
1.870000e-06	1.366256e-07	-2.545639e-10	9.520530e-01	-2.168373e+01
1.880000e-06	1.833783e-07	-2.296656e-10	1.277842e+00	-1.995027e+01
1.890000e-06	2.300892e-07	-2.055138e-10	1.603339e+00	-1.818216e+01
1.900000e-06	2.767256e-07	-1.804658e-10	1.928317e+00	-1.638028e+01
1.910000e-06	3.234145e-07	-1.547635e-10	2.253661e+00	-1.454565e+01
1.920000e-06	3.701514e-07	-1.285754e-10	2.579340e+00	-1.267950e+01
1.930000e-06	4.168099e-07	-1.030438e-10	2.904471e+00	-1.078321e+01
1.940000e-06	4.633712e-07	-7.716791e-11	3.228926e+00	-8.858355e+00
1.950000e-06	5.098606e-07	-4.902662e-11	3.552880e+00	-6.906643e+00
1.960000e-06	5.563378e-07	-2.047215e-11	3.876749e+00	-4.929959e+00
1.970000e-06	6.027741e-07	7.042861e-12	4.200333e+00	-2.930333e+00
1.980000e-06	6.490495e-07	3.263190e-11	4.522795e+00	-9.099287e-01
1.990000e-06	6.953057e-07	5.983746e-11	4.845124e+00	1.128961e+00
2.000000e-06	7.416370e-07	9.026651e-11	5.167976e+00	3.183933e+00
2.010000e-06	7.878094e-07	1.212706e-10	5.489720e+00	5.252487e+00
2.020000e-06	8.338769e-07	1.508187e-10	5.810735e+00	7.332044e+00
2.030000e-06	8.799893e-07	1.803306e-10	6.132061e+00	9.419958e+00
2.040000e-06	9.260595e-07	2.088655e-10	6.453094e+00	1.151354e+01
2.050000e-06	9.720815e-07	2.386397e-10	6.773791e+00	1.361006e+01
2.060000e-06	1.018057e-06	2.667974e-10	7.094165e+00	1.570680e+01
2.070000e-06	1.063970e-06	2.944610e-10	7.414103e+00	1.780103e+01
2.080000e-06	1.109792e-06	3.238841e-10	7.733406e+00	1.989004e+01
2.090000e-06	1.155413e-06	3.537308e-10	8.051305e+00	2.197117e+01
2.100000e-06	1.200900e-06	3.873838e-10	8.368272e+00	2.404181e+01
2.110000e-06	1.246422e-06	4.226607e-10	8.685491e+00	2.609944e+01
2.120000e-06	1.291931e-06	4.561038e-10	9.002607e+00	2.814161e+01
2.130000e-06	1.337275e-06	4.847626e-10	9.318582e+00	3.016595e+01
2.140000e-06	1.382473e-06	5.079522e-10	9.633539e+00	3.217025e+01
2.150000e-06	1.427617e-06	5.274690e-10	9.948113e+00	3.415237e+01
2.160000e-06	1.472726e-06	5.503900e-10	1.026245e+01	3.611033e+01
2.170000e-06	1.517772e-06	5.782961e-10	1.057635e+01	3.804228e+01
2.180000e-06	1.562615e-06	6.101691e-10	1.088883e+01	3.994651e+01
2.190000e-06	1.607232e-06	6.430172e-10	1.119973e+01	4.182147e+01
2.200000e-06	1.651707e-06	6.725510e-10	1.150965e+01	4.366573e+01
2.210000e-06	1.696010e-06	6.998394e-10	1.181837e+01	4.547806e+01
2.220000e-06	1.740226e-06	7.225789e-10	1.212648e+01	4.725733e+01
2.230000e-06	1.784391e-06	7.412738e-10	1.243424e+01	4.900261e+01
2.240000e-06	1.828407e-06	7.603308e-10	1.274095e+01	5.071308e+01
2.250000e-06	1.872324e-06	7.803669e-10	1.304698e+01	5.238808e+01
2.260000e-06	1.916206e-06	8.048422e-10	1.335276e+01	5.402710e+01
2.270000e-06	1.960015e-06	8.314443e-10	1.365805e+01	5.562975e+01
2.280000e-06	2.003762e-06	8.573395e-10	1.396288e+01	5.719579e+01
2.290000e-06	2.047476e-06	8.790760e-10	1.426750e+01	5.872506e+01
2.300000e-06	2.091109e-06	8.963930e-10	1.457155e+01	6.021757e+01
2.310000e-06	2.134650e-06	9.134258e-10	1.487496e+01	6.167339e+01
2.320000e-06	2.178072e-06	9.299263e-10	1.517754e+01	6.309271e+01
2.330000e-06	2.221300e-06	9.491453e-10	1.547876e+01	6.447580e+01
2.340000e-06	2.264362e-06	9.696779e-10	1.577883e+01	6.582302e+01
2.350000e-06	2.307278e-06	9.893104e-10	1.607789e+01	6.713479e+01
2.360000e-06	2.349888e-06	1.007172e-09	1.637481e+01	6.841159e+01
2.370000e-06	2.392179e-06	1.023107e-09	1.666951e+01	6.965397e+01
2.380000e-06	2.434251e-06	1.036058e-09	1.696268e+01	7.086250e+01
2.390000e-06	2.475995e-06	1.048251e-09	1.725357e+01	7.203781e+01
2.400000e-06	2.517448e-06	1.059965e-09	1.754242e+01	7.318053e+01
2.410000e-06	2.558652e-06	1.072485e-09	1.782955e+01	7.429134e+01
2.420000e-06	2.599634e-06	1.085582e-09	1.811512e+01	7.537091e+01
2.430000e-06	2.640410e-06	1.097922e-09	1.839927e+01	7.641993e+01
2.440000e-06	2.680907e-06	1.111952e-09	1.868146e+01	7.743908e+01
2.450000e-06	2.721149e-06	1.128845e-09	1.896188e+01	7.842903e+01
2.460000e-06	2.761221e-06	1.143723e-09	1.924111e+01	7.939045e+01
2.470000e-06	2.801109e-06	1.155543e-09	1.951907e+01	8.032401e+01
2.480000e-06	2.840830e-06	1.164140e-09	1.979586e+01	8.123032e+01
2.490000e-06	2.880472e-06	1.172848e-09	2.007210e+01	8.211000e+01
2.500000e-06	2.919981e-06	1.183284e-09	2.034741e+01	8.296364e+01
2.510000e-06	2.959359e-06	1.194730e-09	2.062181e+01	8.379181e+01
2.520000e-06	2.998594e-06	1.206943e-09	2.089521e+01	8.459505e+01
2.530000e-06	3.037583e-06	1.217961e-09	2.116690e+01	8.537387e+01
2.540000e-06	3.076377e-06	1.228734e-09	2.143723e+01	8.612878e+01
2.550000e-06	3.114973e-06	1.238967e-09	2.170618e+01	8.686023e+01
2.560000e-06	3.153221e-06	1.248846e-09	2.197270e+01	8.756869e+01
2.570000e-06	3.191213e-06	1.259150e-09	2.223744e+01	8.825460e+01
2.580000e-06	3.229044e-06	1.269518e-09	2.250106e+01	8.891837e+01
2.590000e-06	3.266728e-06	1.278430e-09	2.276366e+01	8.956042e+01
2.600000e-06	3.304290e-06	1.287136e-09	2.302540e+01	9.018117e+01
2.610000e-06	3.341577e-06	1.296596e-09	2.328523e+01	9.078103e+01
2.620000e-06	3.378438e-06	1.305182e-09	2.354210e+01	9.136041e+01
2.630000e-06	3.415057e-06	1.313197e-09	2.379726e+01	9.191974e+01
2.640000e-06	3.451486e-06	1.323185e-09	2.405112e+01	9.245947e+01
2.650000e-06	3.487633e-06	1.332257e-09	2.430300e+01	9.298005e+01
2.660000e-06	3.523638e-06	1.339333e-09	2.455390e+01	9.348198e+01
2.670000e-06	3.559516e-06	1.346530e-09	2.480390e+01	9.396576e+01
2.680000e-06	3.595201e-06	1.354026e-09	2.505257e+01	9.443194e+01
2.690000e-06	3.630748e-06	1.362174e-09	2.530027e+01	9.488109e+01
2.700000e-06	3.666174e-06	1.371024e-09	2.554713e+01	9.531383e+01
2.710000e-06	3.701339e-06	1.378945e-09	2.579217e+01	9.573081e+01
2.720000e-06	3.736233e-06	1.386325e-09	2.603533e+01	9.613271e+01
2.730000e-06	3.770841e-06	1.392670e-09	2.627649e+01	9.652025e+01
2.740000e-06	3.805003e-06	1.399164e-09	2.651454e+01	9.689419e+01
2.750000e-06	3.838730e-06	1.404519e-09	2.674956e+01	9.725531e+01
2.760000e-06	3.872024e-06	1.409707e-09	2.698156e+01	9.760443e+01
2.770000e-06	3.904917e-06	1.416521e-09	2.721077e+01	9.794238e+01
2.780000e-06	3.937452e-06	1.425229e-09	2.743749e+01	9.827002e+01
2.790000e-06	3.969598e-06	1.435215e-09	2.766149e+01	9.858819e+01
2.800000e-06	4.001507e-06	1.443807e-09	2.788385e+01	9.889776e+01
2.810000e-06	4.033232e-06	1.447654e-09	2.810491e+01	9.919959e+01
2.820000e-06	4.064718e-06	1.449447e-09	2.832432e+01	9.949451e+01
2.830000e-06	4.096039e-06	1.453343e-09	2.854257e+01	9.978332e+01
2.840000e-06	4.127175e-06	1.457391e-09	2.875954e+01	1.000668e+02
2.850000e-06	4.158048e-06	1.460204e-09	2.897468e+01	1.003457e+02
2.860000e-06	4.188616e-06	1.464188e-09	2.918768e+01	1.006207e+02
2.870000e-06	4.218840e-06	1.471277e-09	2.939830e+01	1.008923e+02
2.880000e-06	4.248747e-06	1.477828e-09	2.960670e+01	1.011612e+02
2.890000e-06	4.278319e-06	1.483080e-09	2.981276e+01	1.014278e+02
2.900000e-06	4.307633e-06	1.485444e-09	3.001703e+01	1.016924e+02
