# Temperatura_=_11.8
# Concentracion g/m^3_=_1620.0
# C_Vs_to_Am_M_A/Vsm_=_65563218390.804596
# pendiente_HvsI_1/m_=_3716.3
# ordenada_HvsI_A/m_=_1297.0
# frecuencia_Hz_=_135096.30611305503

Tiempo_(s)	Campo_(V.s)	Magnetizacion_(V.s)	Campo_(kA/m)	Magnetizacion_(A/m)
0.000000e+00	-5.529103e-06	-1.680496e-09	-3.837411e+01	-1.108689e+02
1.000000e-08	-5.529215e-06	-1.675558e-09	-3.837489e+01	-1.108373e+02
2.000000e-08	-5.529095e-06	-1.672698e-09	-3.837405e+01	-1.108095e+02
3.000000e-08	-5.528640e-06	-1.673298e-09	-3.837090e+01	-1.107856e+02
4.000000e-08	-5.527681e-06	-1.677175e-09	-3.836424e+01	-1.107654e+02
5.000000e-08	-5.526175e-06	-1.678443e-09	-3.835378e+01	-1.107486e+02
6.000000e-08	-5.524013e-06	-1.669585e-09	-3.833878e+01	-1.107348e+02
7.000000e-08	-5.521233e-06	-1.671646e-09	-3.831949e+01	-1.107234e+02
8.000000e-08	-5.518017e-06	-1.717344e-09	-3.829717e+01	-1.107140e+02
9.000000e-08	-5.514251e-06	-1.746312e-09	-3.827103e+01	-1.107057e+02
1.000000e-07	-5.510043e-06	-1.691442e-09	-3.824182e+01	-1.106977e+02
1.100000e-07	-5.505655e-06	-1.636479e-09	-3.821137e+01	-1.106892e+02
1.200000e-07	-5.501116e-06	-1.634801e-09	-3.817987e+01	-1.106791e+02
1.300000e-07	-5.496191e-06	-1.682004e-09	-3.814568e+01	-1.106666e+02
1.400000e-07	-5.490838e-06	-1.684330e-09	-3.810854e+01	-1.106506e+02
1.500000e-07	-5.485229e-06	-1.650360e-09	-3.806960e+01	-1.106300e+02
1.600000e-07	-5.479202e-06	-1.663232e-09	-3.802777e+01	-1.106039e+02
1.700000e-07	-5.472660e-06	-1.682725e-09	-3.798237e+01	-1.105714e+02
1.800000e-07	-5.465683e-06	-1.709681e-09	-3.793395e+01	-1.105314e+02
1.900000e-07	-5.458363e-06	-1.664918e-09	-3.788314e+01	-1.104831e+02
2.000000e-07	-5.450878e-06	-1.655979e-09	-3.783120e+01	-1.104257e+02
2.100000e-07	-5.443154e-06	-1.658085e-09	-3.777759e+01	-1.103586e+02
2.200000e-07	-5.435113e-06	-1.692819e-09	-3.772178e+01	-1.102811e+02
2.300000e-07	-5.426765e-06	-1.673152e-09	-3.766384e+01	-1.101928e+02
2.400000e-07	-5.418056e-06	-1.654688e-09	-3.760340e+01	-1.100933e+02
2.500000e-07	-5.408714e-06	-1.643977e-09	-3.753856e+01	-1.099824e+02
2.600000e-07	-5.398540e-06	-1.655517e-09	-3.746795e+01	-1.098600e+02
2.700000e-07	-5.387706e-06	-1.647639e-09	-3.739276e+01	-1.097262e+02
2.800000e-07	-5.376401e-06	-1.634284e-09	-3.731430e+01	-1.095812e+02
2.900000e-07	-5.364759e-06	-1.637101e-09	-3.723350e+01	-1.094251e+02
3.000000e-07	-5.352809e-06	-1.638404e-09	-3.715056e+01	-1.092585e+02
3.100000e-07	-5.340408e-06	-1.631871e-09	-3.706449e+01	-1.090819e+02
3.200000e-07	-5.327512e-06	-1.612887e-09	-3.697499e+01	-1.088958e+02
3.300000e-07	-5.314265e-06	-1.632804e-09	-3.688305e+01	-1.087010e+02
3.400000e-07	-5.300654e-06	-1.625945e-09	-3.678858e+01	-1.084982e+02
3.500000e-07	-5.286525e-06	-1.623499e-09	-3.669052e+01	-1.082883e+02
3.600000e-07	-5.272014e-06	-1.625130e-09	-3.658981e+01	-1.080722e+02
3.700000e-07	-5.257098e-06	-1.635653e-09	-3.648629e+01	-1.078507e+02
3.800000e-07	-5.241553e-06	-1.601098e-09	-3.637840e+01	-1.076247e+02
3.900000e-07	-5.225493e-06	-1.615298e-09	-3.626693e+01	-1.073951e+02
4.000000e-07	-5.209106e-06	-1.635685e-09	-3.615321e+01	-1.071629e+02
4.100000e-07	-5.192396e-06	-1.613042e-09	-3.603723e+01	-1.069287e+02
4.200000e-07	-5.175263e-06	-1.576900e-09	-3.591833e+01	-1.066935e+02
4.300000e-07	-5.157832e-06	-1.615905e-09	-3.579735e+01	-1.064579e+02
4.400000e-07	-5.140079e-06	-1.615590e-09	-3.567413e+01	-1.062225e+02
4.500000e-07	-5.121936e-06	-1.577027e-09	-3.554821e+01	-1.059880e+02
4.600000e-07	-5.103373e-06	-1.585031e-09	-3.541938e+01	-1.057547e+02
4.700000e-07	-5.084402e-06	-1.618535e-09	-3.528771e+01	-1.055231e+02
4.800000e-07	-5.065126e-06	-1.579037e-09	-3.515393e+01	-1.052934e+02
4.900000e-07	-5.045623e-06	-1.569809e-09	-3.501857e+01	-1.050659e+02
5.000000e-07	-5.025921e-06	-1.599578e-09	-3.488183e+01	-1.048406e+02
5.100000e-07	-5.005905e-06	-1.578429e-09	-3.474292e+01	-1.046175e+02
5.200000e-07	-4.985502e-06	-1.543181e-09	-3.460131e+01	-1.043965e+02
5.300000e-07	-4.964745e-06	-1.579349e-09	-3.445725e+01	-1.041774e+02
5.400000e-07	-4.943645e-06	-1.587864e-09	-3.431080e+01	-1.039600e+02
5.500000e-07	-4.922168e-06	-1.551556e-09	-3.416175e+01	-1.037440e+02
5.600000e-07	-4.900395e-06	-1.561551e-09	-3.401064e+01	-1.035290e+02
5.700000e-07	-4.878374e-06	-1.578915e-09	-3.385780e+01	-1.033146e+02
5.800000e-07	-4.855991e-06	-1.548879e-09	-3.370245e+01	-1.031004e+02
5.900000e-07	-4.833277e-06	-1.540927e-09	-3.354481e+01	-1.028858e+02
6.000000e-07	-4.810193e-06	-1.561234e-09	-3.338460e+01	-1.026704e+02
6.100000e-07	-4.786806e-06	-1.540085e-09	-3.322228e+01	-1.024537e+02
6.200000e-07	-4.763234e-06	-1.525175e-09	-3.305868e+01	-1.022353e+02
6.300000e-07	-4.739440e-06	-1.539252e-09	-3.289354e+01	-1.020146e+02
6.400000e-07	-4.715383e-06	-1.536372e-09	-3.272658e+01	-1.017913e+02
6.500000e-07	-4.690925e-06	-1.514470e-09	-3.255683e+01	-1.015649e+02
6.600000e-07	-4.666066e-06	-1.525603e-09	-3.238430e+01	-1.013350e+02
6.700000e-07	-4.640710e-06	-1.525808e-09	-3.220832e+01	-1.011015e+02
6.800000e-07	-4.614730e-06	-1.511599e-09	-3.202800e+01	-1.008638e+02
6.900000e-07	-4.588173e-06	-1.507428e-09	-3.184369e+01	-1.006219e+02
7.000000e-07	-4.561148e-06	-1.516742e-09	-3.165613e+01	-1.003756e+02
7.100000e-07	-4.533840e-06	-1.502592e-09	-3.146660e+01	-1.001246e+02
7.200000e-07	-4.506301e-06	-1.494906e-09	-3.127547e+01	-9.986898e+01
7.300000e-07	-4.478569e-06	-1.491679e-09	-3.108300e+01	-9.960855e+01
7.400000e-07	-4.450662e-06	-1.486677e-09	-3.088931e+01	-9.934332e+01
7.500000e-07	-4.422428e-06	-1.476086e-09	-3.069336e+01	-9.907331e+01
7.600000e-07	-4.393872e-06	-1.477187e-09	-3.049517e+01	-9.879854e+01
7.700000e-07	-4.365089e-06	-1.472648e-09	-3.029540e+01	-9.851906e+01
7.800000e-07	-4.336038e-06	-1.465858e-09	-3.009377e+01	-9.823493e+01
7.900000e-07	-4.306658e-06	-1.462907e-09	-2.988987e+01	-9.794623e+01
8.000000e-07	-4.276967e-06	-1.462450e-09	-2.968380e+01	-9.765303e+01
8.100000e-07	-4.247031e-06	-1.449875e-09	-2.947603e+01	-9.735540e+01
8.200000e-07	-4.216761e-06	-1.440505e-09	-2.926595e+01	-9.705341e+01
8.300000e-07	-4.186178e-06	-1.437337e-09	-2.905369e+01	-9.674711e+01
8.400000e-07	-4.155266e-06	-1.432439e-09	-2.883915e+01	-9.643654e+01
8.500000e-07	-4.124019e-06	-1.427868e-09	-2.862228e+01	-9.612173e+01
8.600000e-07	-4.092650e-06	-1.427515e-09	-2.840457e+01	-9.580268e+01
8.700000e-07	-4.061146e-06	-1.421602e-09	-2.818592e+01	-9.547938e+01
8.800000e-07	-4.029416e-06	-1.411802e-09	-2.796570e+01	-9.515179e+01
8.900000e-07	-3.997468e-06	-1.408215e-09	-2.774397e+01	-9.481988e+01
9.000000e-07	-3.965319e-06	-1.399473e-09	-2.752084e+01	-9.448359e+01
9.100000e-07	-3.932919e-06	-1.388110e-09	-2.729597e+01	-9.414284e+01
9.200000e-07	-3.900100e-06	-1.380315e-09	-2.706820e+01	-9.379756e+01
9.300000e-07	-3.866788e-06	-1.377642e-09	-2.683700e+01	-9.344766e+01
9.400000e-07	-3.833008e-06	-1.368942e-09	-2.660256e+01	-9.309308e+01
9.500000e-07	-3.798725e-06	-1.365510e-09	-2.636462e+01	-9.273373e+01
9.600000e-07	-3.763962e-06	-1.365012e-09	-2.612335e+01	-9.236956e+01
9.700000e-07	-3.728945e-06	-1.361421e-09	-2.588031e+01	-9.200053e+01
9.800000e-07	-3.693697e-06	-1.351203e-09	-2.563569e+01	-9.162661e+01
9.900000e-07	-3.658199e-06	-1.344540e-09	-2.538932e+01	-9.124780e+01
1.000000e-06	-3.622569e-06	-1.334313e-09	-2.514203e+01	-9.086414e+01
1.010000e-06	-3.586789e-06	-1.327746e-09	-2.489370e+01	-9.047567e+01
1.020000e-06	-3.550859e-06	-1.323330e-09	-2.464433e+01	-9.008250e+01
1.030000e-06	-3.514756e-06	-1.321946e-09	-2.439376e+01	-8.968473e+01
1.040000e-06	-3.478473e-06	-1.317307e-09	-2.414194e+01	-8.928253e+01
1.050000e-06	-3.441917e-06	-1.311437e-09	-2.388823e+01	-8.887608e+01
1.060000e-06	-3.405034e-06	-1.303659e-09	-2.363225e+01	-8.846559e+01
1.070000e-06	-3.367928e-06	-1.295172e-09	-2.337472e+01	-8.805130e+01
1.080000e-06	-3.330543e-06	-1.286141e-09	-2.311526e+01	-8.763346e+01
1.090000e-06	-3.292842e-06	-1.280657e-09	-2.285359e+01	-8.721233e+01
1.100000e-06	-3.254953e-06	-1.272220e-09	-2.259063e+01	-8.678821e+01
1.110000e-06	-3.216962e-06	-1.261108e-09	-2.232696e+01	-8.636136e+01
1.120000e-06	-3.178749e-06	-1.250118e-09	-2.206174e+01	-8.593207e+01
1.130000e-06	-3.140194e-06	-1.240289e-09	-2.179416e+01	-8.550058e+01
1.140000e-06	-3.101452e-06	-1.233015e-09	-2.152527e+01	-8.506713e+01
1.150000e-06	-3.062525e-06	-1.229834e-09	-2.125510e+01	-8.463193e+01
1.160000e-06	-3.023322e-06	-1.225659e-09	-2.098302e+01	-8.419515e+01
1.170000e-06	-2.983959e-06	-1.216391e-09	-2.070983e+01	-8.375690e+01
1.180000e-06	-2.944431e-06	-1.209467e-09	-2.043549e+01	-8.331726e+01
1.190000e-06	-2.904777e-06	-1.203935e-09	-2.016027e+01	-8.287625e+01
1.200000e-06	-2.865077e-06	-1.195039e-09	-1.988474e+01	-8.243380e+01
1.210000e-06	-2.825261e-06	-1.184441e-09	-1.960840e+01	-8.198980e+01
1.220000e-06	-2.785269e-06	-1.178312e-09	-1.933084e+01	-8.154407e+01
1.230000e-06	-2.745082e-06	-1.173467e-09	-1.905193e+01	-8.109634e+01
1.240000e-06	-2.704698e-06	-1.167318e-09	-1.877165e+01	-8.064628e+01
1.250000e-06	-2.664120e-06	-1.159759e-09	-1.849002e+01	-8.019349e+01
1.260000e-06	-2.623248e-06	-1.153630e-09	-1.820635e+01	-7.973750e+01
1.270000e-06	-2.582113e-06	-1.144462e-09	-1.792086e+01	-7.927777e+01
1.280000e-06	-2.540763e-06	-1.134191e-09	-1.763388e+01	-7.881370e+01
1.290000e-06	-2.499093e-06	-1.124060e-09	-1.734467e+01	-7.834465e+01
1.300000e-06	-2.457128e-06	-1.116161e-09	-1.705342e+01	-7.786991e+01
1.310000e-06	-2.414812e-06	-1.107280e-09	-1.675973e+01	-7.738876e+01
1.320000e-06	-2.372041e-06	-1.098728e-09	-1.646288e+01	-7.690042e+01
1.330000e-06	-2.329086e-06	-1.088389e-09	-1.616476e+01	-7.640410e+01
1.340000e-06	-2.286092e-06	-1.078838e-09	-1.586636e+01	-7.589900e+01
1.350000e-06	-2.242885e-06	-1.071377e-09	-1.556649e+01	-7.538432e+01
1.360000e-06	-2.199484e-06	-1.066428e-09	-1.526527e+01	-7.485927e+01
1.370000e-06	-2.155937e-06	-1.059943e-09	-1.496304e+01	-7.432305e+01
1.380000e-06	-2.112261e-06	-1.052032e-09	-1.465991e+01	-7.377492e+01
1.390000e-06	-2.068511e-06	-1.043441e-09	-1.435627e+01	-7.321414e+01
1.400000e-06	-2.024714e-06	-1.033663e-09	-1.405230e+01	-7.264003e+01
1.410000e-06	-1.980854e-06	-1.020601e-09	-1.374789e+01	-7.205195e+01
1.420000e-06	-1.936856e-06	-1.005935e-09	-1.344253e+01	-7.144930e+01
1.430000e-06	-1.892761e-06	-9.921826e-10	-1.313649e+01	-7.083155e+01
1.440000e-06	-1.848652e-06	-9.808945e-10	-1.283036e+01	-7.019820e+01
1.450000e-06	-1.804397e-06	-9.715279e-10	-1.252321e+01	-6.954881e+01
1.460000e-06	-1.759932e-06	-9.628436e-10	-1.221461e+01	-6.888302e+01
1.470000e-06	-1.715299e-06	-9.547697e-10	-1.190484e+01	-6.820048e+01
1.480000e-06	-1.670572e-06	-9.450242e-10	-1.159442e+01	-6.750092e+01
1.490000e-06	-1.625762e-06	-9.319040e-10	-1.128341e+01	-6.678409e+01
1.500000e-06	-1.580792e-06	-9.154919e-10	-1.097131e+01	-6.604978e+01
1.510000e-06	-1.535659e-06	-8.983680e-10	-1.065806e+01	-6.529782e+01
1.520000e-06	-1.490367e-06	-8.826880e-10	-1.034372e+01	-6.452803e+01
1.530000e-06	-1.444978e-06	-8.701315e-10	-1.002871e+01	-6.374028e+01
1.540000e-06	-1.399504e-06	-8.595253e-10	-9.713099e+00	-6.293441e+01
1.550000e-06	-1.353918e-06	-8.498652e-10	-9.396711e+00	-6.211025e+01
1.560000e-06	-1.308324e-06	-8.401817e-10	-9.080270e+00	-6.126764e+01
1.570000e-06	-1.262623e-06	-8.293544e-10	-8.763090e+00	-6.040636e+01
1.580000e-06	-1.216817e-06	-8.134189e-10	-8.445181e+00	-5.952617e+01
1.590000e-06	-1.170936e-06	-7.957781e-10	-8.126746e+00	-5.862679e+01
1.600000e-06	-1.124984e-06	-7.794088e-10	-7.807823e+00	-5.770786e+01
1.610000e-06	-1.079054e-06	-7.663786e-10	-7.489049e+00	-5.676898e+01
1.620000e-06	-1.032993e-06	-7.548094e-10	-7.169367e+00	-5.580969e+01
1.630000e-06	-9.868406e-07	-7.441286e-10	-6.849054e+00	-5.482946e+01
1.640000e-06	-9.405550e-07	-7.317395e-10	-6.527815e+00	-5.382767e+01
1.650000e-06	-8.941388e-07	-7.154197e-10	-6.205669e+00	-5.280365e+01
1.660000e-06	-8.477761e-07	-6.955056e-10	-5.883893e+00	-5.175666e+01
1.670000e-06	-8.014295e-07	-6.749520e-10	-5.562230e+00	-5.068587e+01
1.680000e-06	-7.550191e-07	-6.550628e-10	-5.240124e+00	-4.959042e+01
1.690000e-06	-7.084860e-07	-6.374780e-10	-4.917166e+00	-4.846938e+01
1.700000e-06	-6.619155e-07	-6.207776e-10	-4.593949e+00	-4.732176e+01
1.710000e-06	-6.152673e-07	-6.056736e-10	-4.270193e+00	-4.614655e+01
1.720000e-06	-5.685634e-07	-5.902879e-10	-3.946049e+00	-4.494272e+01
1.730000e-06	-5.218580e-07	-5.702143e-10	-3.621896e+00	-4.370920e+01
1.740000e-06	-4.751356e-07	-5.467920e-10	-3.297624e+00	-4.244493e+01
1.750000e-06	-4.284639e-07	-5.243461e-10	-2.973705e+00	-4.114888e+01
1.760000e-06	-3.817290e-07	-5.032245e-10	-2.649346e+00	-3.982003e+01
1.770000e-06	-3.348403e-07	-4.821203e-10	-2.323921e+00	-3.845741e+01
1.780000e-06	-2.878610e-07	-4.635681e-10	-1.997866e+00	-3.706011e+01
1.790000e-06	-2.409431e-07	-4.449739e-10	-1.672238e+00	-3.562730e+01
1.800000e-06	-1.940463e-07	-4.258890e-10	-1.346756e+00	-3.415824e+01
1.810000e-06	-1.470304e-07	-4.056971e-10	-1.020448e+00	-3.265229e+01
1.820000e-06	-9.999354e-08	-3.824310e-10	-6.939937e-01	-3.110894e+01
1.830000e-06	-5.313289e-08	-3.566635e-10	-3.687628e-01	-2.952782e+01
1.840000e-06	-6.311158e-09	-3.309560e-10	-4.380187e-02	-2.790869e+01
1.850000e-06	4.060881e-08	-3.074391e-10	2.818408e-01	-2.625148e+01
1.860000e-06	8.753230e-08	-2.856241e-10	6.075079e-01	-2.455629e+01
1.870000e-06	1.344214e-07	-2.624680e-10	9.329361e-01	-2.282339e+01
1.880000e-06	1.812726e-07	-2.392464e-10	1.258102e+00	-2.105323e+01
1.890000e-06	2.280978e-07	-2.139786e-10	1.583086e+00	-1.924647e+01
1.900000e-06	2.749102e-07	-1.868706e-10	1.907983e+00	-1.740394e+01
1.910000e-06	3.216680e-07	-1.582800e-10	2.232500e+00	-1.552665e+01
1.920000e-06	3.683864e-07	-1.295308e-10	2.556744e+00	-1.361583e+01
1.930000e-06	4.151413e-07	-1.016694e-10	2.881241e+00	-1.167287e+01
1.940000e-06	4.618777e-07	-7.397885e-11	3.205610e+00	-9.699368e+00
1.950000e-06	5.085788e-07	-4.604858e-11	3.529733e+00	-7.697076e+00
1.960000e-06	5.551644e-07	-1.921835e-11	3.853056e+00	-5.667924e+00
1.970000e-06	6.016823e-07	6.189538e-12	4.175908e+00	-3.613999e+00
1.980000e-06	6.481860e-07	3.330964e-11	4.498661e+00	-1.537533e+00
1.990000e-06	6.946257e-07	6.221155e-11	4.820971e+00	5.591078e-01
2.000000e-06	7.410603e-07	9.606027e-11	5.143245e+00	2.673436e+00
2.010000e-06	7.874117e-07	1.301412e-10	5.464941e+00	4.802860e+00
2.020000e-06	8.336810e-07	1.603855e-10	5.786068e+00	6.944699e+00
2.030000e-06	8.798697e-07	1.902171e-10	6.106635e+00	9.096200e+00
2.040000e-06	9.259439e-07	2.193791e-10	6.426408e+00	1.125455e+01
2.050000e-06	9.720245e-07	2.502007e-10	6.746225e+00	1.341691e+01
2.060000e-06	1.018140e-06	2.817944e-10	7.066283e+00	1.558041e+01
2.070000e-06	1.064122e-06	3.135539e-10	7.385417e+00	1.774216e+01
2.080000e-06	1.109982e-06	3.434952e-10	7.703704e+00	1.989933e+01
2.090000e-06	1.155858e-06	3.727224e-10	8.022100e+00	2.204907e+01
2.100000e-06	1.201687e-06	4.024717e-10	8.340168e+00	2.418862e+01
2.110000e-06	1.247371e-06	4.330559e-10	8.657238e+00	2.631525e+01
2.120000e-06	1.292925e-06	4.634264e-10	8.973395e+00	2.842634e+01
2.130000e-06	1.338420e-06	4.936628e-10	9.289148e+00	3.051933e+01
2.140000e-06	1.383898e-06	5.235530e-10	9.604784e+00	3.259180e+01
2.150000e-06	1.429307e-06	5.501269e-10	9.919945e+00	3.464142e+01
2.160000e-06	1.474568e-06	5.762769e-10	1.023407e+01	3.666602e+01
2.170000e-06	1.519712e-06	6.011132e-10	1.054739e+01	3.866354e+01
2.180000e-06	1.564726e-06	6.263392e-10	1.085980e+01	4.063208e+01
2.190000e-06	1.609644e-06	6.534347e-10	1.117155e+01	4.256991e+01
2.200000e-06	1.654475e-06	6.816627e-10	1.148269e+01	4.447544e+01
2.210000e-06	1.699133e-06	7.110657e-10	1.179264e+01	4.634725e+01
2.220000e-06	1.743549e-06	7.383571e-10	1.210090e+01	4.818410e+01
2.230000e-06	1.787807e-06	7.625802e-10	1.240807e+01	4.998489e+01
2.240000e-06	1.831982e-06	7.844038e-10	1.271466e+01	5.174873e+01
2.250000e-06	1.876008e-06	8.044598e-10	1.302022e+01	5.347487e+01
2.260000e-06	1.919967e-06	8.251606e-10	1.332531e+01	5.516272e+01
2.270000e-06	1.963922e-06	8.466757e-10	1.363038e+01	5.681186e+01
2.280000e-06	2.007832e-06	8.687325e-10	1.393513e+01	5.842203e+01
2.290000e-06	2.051668e-06	8.904316e-10	1.423937e+01	5.999311e+01
2.300000e-06	2.095456e-06	9.119515e-10	1.454327e+01	6.152511e+01
2.310000e-06	2.139199e-06	9.326414e-10	1.484686e+01	6.301818e+01
2.320000e-06	2.182833e-06	9.525904e-10	1.514971e+01	6.447260e+01
2.330000e-06	2.226298e-06	9.732602e-10	1.545136e+01	6.588874e+01
2.340000e-06	2.269664e-06	9.944128e-10	1.575235e+01	6.726709e+01
2.350000e-06	2.312927e-06	1.013665e-09	1.605261e+01	6.860821e+01
2.360000e-06	2.355957e-06	1.031106e-09	1.635125e+01	6.991274e+01
2.370000e-06	2.398667e-06	1.046819e-09	1.664767e+01	7.118141e+01
2.380000e-06	2.441042e-06	1.060322e-09	1.694177e+01	7.241497e+01
2.390000e-06	2.483194e-06	1.074179e-09	1.723432e+01	7.361421e+01
2.400000e-06	2.524974e-06	1.090270e-09	1.752429e+01	7.477999e+01
2.410000e-06	2.566324e-06	1.107388e-09	1.781128e+01	7.591314e+01
2.420000e-06	2.607407e-06	1.123171e-09	1.809641e+01	7.701453e+01
2.430000e-06	2.648275e-06	1.137505e-09	1.838005e+01	7.808502e+01
2.440000e-06	2.688883e-06	1.150909e-09	1.866189e+01	7.912546e+01
2.450000e-06	2.729235e-06	1.162811e-09	1.894195e+01	8.013668e+01
2.460000e-06	2.769404e-06	1.175273e-09	1.922073e+01	8.111950e+01
2.470000e-06	2.809433e-06	1.188012e-09	1.949855e+01	8.207468e+01
2.480000e-06	2.849335e-06	1.199869e-09	1.977549e+01	8.300298e+01
2.490000e-06	2.889059e-06	1.211798e-09	2.005118e+01	8.390510e+01
2.500000e-06	2.928661e-06	1.223679e-09	2.032604e+01	8.478172e+01
2.510000e-06	2.968203e-06	1.234363e-09	2.060048e+01	8.563346e+01
2.520000e-06	3.007553e-06	1.243988e-09	2.087358e+01	8.646092e+01
2.530000e-06	3.046701e-06	1.253499e-09	2.114528e+01	8.726464e+01
2.540000e-06	3.085693e-06	1.263748e-09	2.141590e+01	8.804515e+01
2.550000e-06	3.124360e-06	1.274116e-09	2.168426e+01	8.880293e+01
2.560000e-06	3.162772e-06	1.283740e-09	2.195086e+01	8.953844e+01
2.570000e-06	3.201007e-06	1.292624e-09	2.221623e+01	9.025210e+01
2.580000e-06	3.238998e-06	1.300885e-09	2.247990e+01	9.094435e+01
2.590000e-06	3.276742e-06	1.310263e-09	2.274186e+01	9.161558e+01
2.600000e-06	3.314289e-06	1.319222e-09	2.300245e+01	9.226619e+01
2.610000e-06	3.351631e-06	1.327303e-09	2.326161e+01	9.289660e+01
2.620000e-06	3.388839e-06	1.337241e-09	2.351985e+01	9.350720e+01
2.630000e-06	3.425859e-06	1.349082e-09	2.377679e+01	9.409841e+01
2.640000e-06	3.462539e-06	1.361151e-09	2.403136e+01	9.467068e+01
2.650000e-06	3.498906e-06	1.371757e-09	2.428376e+01	9.522447e+01
2.660000e-06	3.534994e-06	1.379783e-09	2.453422e+01	9.576026e+01
2.670000e-06	3.570949e-06	1.385695e-09	2.478377e+01	9.627858e+01
2.680000e-06	3.606810e-06	1.389824e-09	2.503265e+01	9.677996e+01
2.690000e-06	3.642534e-06	1.394961e-09	2.528059e+01	9.726499e+01
2.700000e-06	3.678151e-06	1.402458e-09	2.552779e+01	9.773428e+01
2.710000e-06	3.713513e-06	1.411180e-09	2.577321e+01	9.818847e+01
2.720000e-06	3.748683e-06	1.420621e-09	2.601731e+01	9.862824e+01
2.730000e-06	3.783652e-06	1.430165e-09	2.626000e+01	9.905428e+01
2.740000e-06	3.818097e-06	1.439740e-09	2.649907e+01	9.946730e+01
2.750000e-06	3.852028e-06	1.446540e-09	2.673456e+01	9.986804e+01
2.760000e-06	3.885476e-06	1.450365e-09	2.696671e+01	1.002572e+02
2.770000e-06	3.918497e-06	1.453032e-09	2.719588e+01	1.006356e+02
2.780000e-06	3.951136e-06	1.456503e-09	2.742241e+01	1.010039e+02
2.790000e-06	3.983418e-06	1.463480e-09	2.764646e+01	1.013629e+02
2.800000e-06	4.015446e-06	1.472950e-09	2.786874e+01	1.017132e+02
2.810000e-06	4.047249e-06	1.480789e-09	2.808947e+01	1.020554e+02
2.820000e-06	4.078928e-06	1.486729e-09	2.830933e+01	1.023903e+02
2.830000e-06	4.110520e-06	1.492641e-09	2.852860e+01	1.027184e+02
2.840000e-06	4.141866e-06	1.496947e-09	2.874615e+01	1.030402e+02
2.850000e-06	4.172843e-06	1.498320e-09	2.896114e+01	1.033561e+02
2.860000e-06	4.203421e-06	1.499960e-09	2.917337e+01	1.036666e+02
2.870000e-06	4.233749e-06	1.505058e-09	2.938385e+01	1.039719e+02
2.880000e-06	4.263839e-06	1.512073e-09	2.959269e+01	1.042724e+02
2.890000e-06	4.293575e-06	1.518396e-09	2.979906e+01	1.045680e+02
2.900000e-06	4.323054e-06	1.522207e-09	3.000366e+01	1.048590e+02
