# Temperatura_=_-21.7
# Concentracion g/m^3_=_1620.0
# C_Vs_to_Am_M_A/Vsm_=_65563218390.804596
# pendiente_HvsI_1/m_=_3716.3
# ordenada_HvsI_A/m_=_1297.0
# frecuencia_Hz_=_135109.3615432859

Tiempo_(s)	Campo_(V.s)	Magnetizacion_(V.s)	Campo_(kA/m)	Magnetizacion_(A/m)
0.000000e+00	-5.512848e-06	-8.247535e-10	-3.835906e+01	-5.478226e+01
1.000000e-08	-5.513078e-06	-8.219501e-10	-3.836066e+01	-5.475691e+01
2.000000e-08	-5.512908e-06	-8.194202e-10	-3.835948e+01	-5.473600e+01
3.000000e-08	-5.512327e-06	-8.197156e-10	-3.835543e+01	-5.471981e+01
4.000000e-08	-5.511241e-06	-8.217858e-10	-3.834787e+01	-5.470852e+01
5.000000e-08	-5.509559e-06	-8.210378e-10	-3.833617e+01	-5.470226e+01
6.000000e-08	-5.507334e-06	-8.138960e-10	-3.832069e+01	-5.470107e+01
7.000000e-08	-5.504588e-06	-8.101912e-10	-3.830158e+01	-5.470490e+01
8.000000e-08	-5.501373e-06	-8.426201e-10	-3.827921e+01	-5.471364e+01
9.000000e-08	-5.497751e-06	-8.802753e-10	-3.825401e+01	-5.472708e+01
1.000000e-07	-5.493706e-06	-8.449268e-10	-3.822586e+01	-5.474492e+01
1.100000e-07	-5.489341e-06	-7.830586e-10	-3.819549e+01	-5.476681e+01
1.200000e-07	-5.484804e-06	-7.852794e-10	-3.816392e+01	-5.479231e+01
1.300000e-07	-5.479981e-06	-8.346698e-10	-3.813037e+01	-5.482093e+01
1.400000e-07	-5.474689e-06	-8.415181e-10	-3.809354e+01	-5.485211e+01
1.500000e-07	-5.469042e-06	-7.937377e-10	-3.805425e+01	-5.488527e+01
1.600000e-07	-5.463124e-06	-8.016980e-10	-3.801307e+01	-5.491977e+01
1.700000e-07	-5.456760e-06	-8.460893e-10	-3.796879e+01	-5.495496e+01
1.800000e-07	-5.449909e-06	-8.605050e-10	-3.792112e+01	-5.499018e+01
1.900000e-07	-5.442709e-06	-8.027917e-10	-3.787102e+01	-5.502476e+01
2.000000e-07	-5.435220e-06	-7.767004e-10	-3.781891e+01	-5.505806e+01
2.100000e-07	-5.427453e-06	-8.181048e-10	-3.776487e+01	-5.508943e+01
2.200000e-07	-5.419438e-06	-8.612330e-10	-3.770910e+01	-5.511831e+01
2.300000e-07	-5.411167e-06	-8.423939e-10	-3.765155e+01	-5.514413e+01
2.400000e-07	-5.402429e-06	-8.012101e-10	-3.759075e+01	-5.516641e+01
2.500000e-07	-5.392949e-06	-8.133000e-10	-3.752479e+01	-5.518472e+01
2.600000e-07	-5.382766e-06	-8.254726e-10	-3.745393e+01	-5.519872e+01
2.700000e-07	-5.372018e-06	-8.120428e-10	-3.737914e+01	-5.520813e+01
2.800000e-07	-5.360777e-06	-8.018932e-10	-3.730093e+01	-5.521277e+01
2.900000e-07	-5.349126e-06	-8.296114e-10	-3.721986e+01	-5.521251e+01
3.000000e-07	-5.337087e-06	-8.379447e-10	-3.713609e+01	-5.520736e+01
3.100000e-07	-5.324666e-06	-8.227973e-10	-3.704966e+01	-5.519738e+01
3.200000e-07	-5.311836e-06	-8.156932e-10	-3.696039e+01	-5.518272e+01
3.300000e-07	-5.298587e-06	-8.387970e-10	-3.686821e+01	-5.516363e+01
3.400000e-07	-5.284976e-06	-8.346325e-10	-3.677350e+01	-5.514043e+01
3.500000e-07	-5.270922e-06	-8.123389e-10	-3.667570e+01	-5.511349e+01
3.600000e-07	-5.256417e-06	-8.222137e-10	-3.657478e+01	-5.508328e+01
3.700000e-07	-5.241545e-06	-8.427262e-10	-3.647130e+01	-5.505030e+01
3.800000e-07	-5.226016e-06	-8.207710e-10	-3.636324e+01	-5.501509e+01
3.900000e-07	-5.209737e-06	-8.141165e-10	-3.624998e+01	-5.497826e+01
4.000000e-07	-5.193124e-06	-8.431097e-10	-3.613438e+01	-5.494041e+01
4.100000e-07	-5.176261e-06	-8.288835e-10	-3.601704e+01	-5.490217e+01
4.200000e-07	-5.159049e-06	-7.946473e-10	-3.589728e+01	-5.486418e+01
4.300000e-07	-5.141555e-06	-8.233381e-10	-3.577556e+01	-5.482704e+01
4.400000e-07	-5.123806e-06	-8.450598e-10	-3.565206e+01	-5.479137e+01
4.500000e-07	-5.105689e-06	-8.051829e-10	-3.552599e+01	-5.475774e+01
4.600000e-07	-5.087188e-06	-8.045304e-10	-3.539726e+01	-5.472669e+01
4.700000e-07	-5.068266e-06	-8.425168e-10	-3.526560e+01	-5.469871e+01
4.800000e-07	-5.048992e-06	-8.215046e-10	-3.513149e+01	-5.467422e+01
4.900000e-07	-5.029516e-06	-8.006884e-10	-3.499598e+01	-5.465362e+01
5.000000e-07	-5.009826e-06	-8.401380e-10	-3.485897e+01	-5.463720e+01
5.100000e-07	-4.989901e-06	-8.332370e-10	-3.472033e+01	-5.462520e+01
5.200000e-07	-4.969674e-06	-7.944826e-10	-3.457958e+01	-5.461780e+01
5.300000e-07	-4.949119e-06	-8.270101e-10	-3.443656e+01	-5.461509e+01
5.400000e-07	-4.928208e-06	-8.560538e-10	-3.429106e+01	-5.461709e+01
5.500000e-07	-4.906866e-06	-8.124583e-10	-3.414256e+01	-5.462376e+01
5.600000e-07	-4.885199e-06	-8.057234e-10	-3.399180e+01	-5.463498e+01
5.700000e-07	-4.863285e-06	-8.370529e-10	-3.383932e+01	-5.465057e+01
5.800000e-07	-4.840981e-06	-8.168725e-10	-3.368413e+01	-5.467029e+01
5.900000e-07	-4.818232e-06	-7.996630e-10	-3.352584e+01	-5.469385e+01
6.000000e-07	-4.795137e-06	-8.322842e-10	-3.336514e+01	-5.472093e+01
6.100000e-07	-4.771821e-06	-8.310739e-10	-3.320290e+01	-5.475114e+01
6.200000e-07	-4.748312e-06	-8.087396e-10	-3.303933e+01	-5.478408e+01
6.300000e-07	-4.724615e-06	-8.254361e-10	-3.287444e+01	-5.481934e+01
6.400000e-07	-4.700648e-06	-8.347578e-10	-3.270768e+01	-5.485648e+01
6.500000e-07	-4.676284e-06	-8.131506e-10	-3.253814e+01	-5.489505e+01
6.600000e-07	-4.651379e-06	-8.203656e-10	-3.236485e+01	-5.493463e+01
6.700000e-07	-4.625909e-06	-8.367659e-10	-3.218763e+01	-5.497478e+01
6.800000e-07	-4.599902e-06	-8.267689e-10	-3.200667e+01	-5.501512e+01
6.900000e-07	-4.573389e-06	-8.247547e-10	-3.182219e+01	-5.505525e+01
7.000000e-07	-4.546435e-06	-8.384170e-10	-3.163464e+01	-5.509485e+01
7.100000e-07	-4.519097e-06	-8.326924e-10	-3.144442e+01	-5.513359e+01
7.200000e-07	-4.491559e-06	-8.227037e-10	-3.125281e+01	-5.517122e+01
7.300000e-07	-4.463903e-06	-8.278582e-10	-3.106037e+01	-5.520752e+01
7.400000e-07	-4.436043e-06	-8.299960e-10	-3.086652e+01	-5.524231e+01
7.500000e-07	-4.407927e-06	-8.257673e-10	-3.067089e+01	-5.527547e+01
7.600000e-07	-4.379479e-06	-8.270275e-10	-3.047294e+01	-5.530692e+01
7.700000e-07	-4.350711e-06	-8.282472e-10	-3.027277e+01	-5.533664e+01
7.800000e-07	-4.321646e-06	-8.246705e-10	-3.007053e+01	-5.536463e+01
7.900000e-07	-4.292306e-06	-8.259509e-10	-2.986638e+01	-5.539096e+01
8.000000e-07	-4.262784e-06	-8.282741e-10	-2.966096e+01	-5.541571e+01
8.100000e-07	-4.232920e-06	-8.251722e-10	-2.945317e+01	-5.543902e+01
8.200000e-07	-4.202719e-06	-8.230728e-10	-2.924302e+01	-5.546105e+01
8.300000e-07	-4.172263e-06	-8.252228e-10	-2.903110e+01	-5.548197e+01
8.400000e-07	-4.141466e-06	-8.228556e-10	-2.881682e+01	-5.550198e+01
8.500000e-07	-4.110412e-06	-8.213867e-10	-2.860074e+01	-5.552128e+01
8.600000e-07	-4.079128e-06	-8.239222e-10	-2.838306e+01	-5.554009e+01
8.700000e-07	-4.047644e-06	-8.225513e-10	-2.816399e+01	-5.555862e+01
8.800000e-07	-4.016087e-06	-8.172182e-10	-2.794441e+01	-5.557707e+01
8.900000e-07	-3.984341e-06	-8.201012e-10	-2.772352e+01	-5.559563e+01
9.000000e-07	-3.952261e-06	-8.235187e-10	-2.750030e+01	-5.561446e+01
9.100000e-07	-3.919820e-06	-8.207810e-10	-2.727458e+01	-5.563372e+01
9.200000e-07	-3.887023e-06	-8.221624e-10	-2.704637e+01	-5.565351e+01
9.300000e-07	-3.853819e-06	-8.276934e-10	-2.681534e+01	-5.567393e+01
9.400000e-07	-3.820205e-06	-8.250102e-10	-2.658144e+01	-5.569503e+01
9.500000e-07	-3.786197e-06	-8.229282e-10	-2.634481e+01	-5.571682e+01
9.600000e-07	-3.751717e-06	-8.265692e-10	-2.610489e+01	-5.573928e+01
9.700000e-07	-3.716858e-06	-8.250909e-10	-2.586234e+01	-5.576237e+01
9.800000e-07	-3.681677e-06	-8.198238e-10	-2.561755e+01	-5.578598e+01
9.900000e-07	-3.646197e-06	-8.200847e-10	-2.537067e+01	-5.580998e+01
1.000000e-06	-3.610540e-06	-8.184655e-10	-2.512257e+01	-5.583423e+01
1.010000e-06	-3.574841e-06	-8.138722e-10	-2.487417e+01	-5.585853e+01
1.020000e-06	-3.539052e-06	-8.152457e-10	-2.462515e+01	-5.588266e+01
1.030000e-06	-3.503003e-06	-8.205574e-10	-2.437432e+01	-5.590640e+01
1.040000e-06	-3.466661e-06	-8.207021e-10	-2.412144e+01	-5.592949e+01
1.050000e-06	-3.430101e-06	-8.170806e-10	-2.386705e+01	-5.595166e+01
1.060000e-06	-3.393357e-06	-8.161678e-10	-2.361139e+01	-5.597266e+01
1.070000e-06	-3.356375e-06	-8.144709e-10	-2.335406e+01	-5.599221e+01
1.080000e-06	-3.319099e-06	-8.114781e-10	-2.309469e+01	-5.601004e+01
1.090000e-06	-3.281522e-06	-8.130205e-10	-2.283322e+01	-5.602589e+01
1.100000e-06	-3.243746e-06	-8.150027e-10	-2.257037e+01	-5.603954e+01
1.110000e-06	-3.205744e-06	-8.123886e-10	-2.230595e+01	-5.605075e+01
1.120000e-06	-3.167462e-06	-8.120232e-10	-2.203958e+01	-5.605933e+01
1.130000e-06	-3.128996e-06	-8.128438e-10	-2.177193e+01	-5.606511e+01
1.140000e-06	-3.090373e-06	-8.112859e-10	-2.150318e+01	-5.606794e+01
1.150000e-06	-3.051541e-06	-8.117547e-10	-2.123298e+01	-5.606773e+01
1.160000e-06	-3.012521e-06	-8.141324e-10	-2.096148e+01	-5.606438e+01
1.170000e-06	-2.973299e-06	-8.131673e-10	-2.068857e+01	-5.605787e+01
1.180000e-06	-2.933885e-06	-8.137377e-10	-2.041432e+01	-5.604818e+01
1.190000e-06	-2.894334e-06	-8.190189e-10	-2.013912e+01	-5.603535e+01
1.200000e-06	-2.854655e-06	-8.223906e-10	-1.986303e+01	-5.601942e+01
1.210000e-06	-2.814860e-06	-8.205319e-10	-1.958613e+01	-5.600050e+01
1.220000e-06	-2.774888e-06	-8.191402e-10	-1.930800e+01	-5.597867e+01
1.230000e-06	-2.734723e-06	-8.204099e-10	-1.902853e+01	-5.595409e+01
1.240000e-06	-2.694417e-06	-8.205284e-10	-1.874808e+01	-5.592689e+01
1.250000e-06	-2.653943e-06	-8.204291e-10	-1.846646e+01	-5.589723e+01
1.260000e-06	-2.613230e-06	-8.220626e-10	-1.818317e+01	-5.586527e+01
1.270000e-06	-2.572236e-06	-8.205593e-10	-1.789793e+01	-5.583117e+01
1.280000e-06	-2.530970e-06	-8.168652e-10	-1.761079e+01	-5.579508e+01
1.290000e-06	-2.489448e-06	-8.145981e-10	-1.732188e+01	-5.575713e+01
1.300000e-06	-2.447577e-06	-8.126706e-10	-1.703054e+01	-5.571743e+01
1.310000e-06	-2.405340e-06	-8.102646e-10	-1.673664e+01	-5.567605e+01
1.320000e-06	-2.362865e-06	-8.097780e-10	-1.644110e+01	-5.563305e+01
1.330000e-06	-2.320171e-06	-8.105870e-10	-1.614403e+01	-5.558843e+01
1.340000e-06	-2.277205e-06	-8.114348e-10	-1.584506e+01	-5.554214e+01
1.350000e-06	-2.234030e-06	-8.143650e-10	-1.554464e+01	-5.549407e+01
1.360000e-06	-2.190662e-06	-8.165179e-10	-1.524289e+01	-5.544408e+01
1.370000e-06	-2.147118e-06	-8.145348e-10	-1.493991e+01	-5.539195e+01
1.380000e-06	-2.103521e-06	-8.113287e-10	-1.463655e+01	-5.533738e+01
1.390000e-06	-2.059919e-06	-8.078977e-10	-1.433317e+01	-5.528004e+01
1.400000e-06	-2.016219e-06	-8.047613e-10	-1.402909e+01	-5.521950e+01
1.410000e-06	-1.972396e-06	-8.025569e-10	-1.372417e+01	-5.515528e+01
1.420000e-06	-1.928507e-06	-8.009732e-10	-1.341879e+01	-5.508683e+01
1.430000e-06	-1.884522e-06	-8.011381e-10	-1.311273e+01	-5.501353e+01
1.440000e-06	-1.840446e-06	-8.006322e-10	-1.280604e+01	-5.493470e+01
1.450000e-06	-1.796300e-06	-7.981602e-10	-1.249887e+01	-5.484961e+01
1.460000e-06	-1.752092e-06	-7.939307e-10	-1.219127e+01	-5.475745e+01
1.470000e-06	-1.707793e-06	-7.894050e-10	-1.188303e+01	-5.465740e+01
1.480000e-06	-1.663278e-06	-7.850250e-10	-1.157329e+01	-5.454855e+01
1.490000e-06	-1.618549e-06	-7.794697e-10	-1.126206e+01	-5.442999e+01
1.500000e-06	-1.573654e-06	-7.722590e-10	-1.094967e+01	-5.430076e+01
1.510000e-06	-1.528579e-06	-7.652739e-10	-1.063603e+01	-5.415988e+01
1.520000e-06	-1.483428e-06	-7.610474e-10	-1.032187e+01	-5.400637e+01
1.530000e-06	-1.438202e-06	-7.576248e-10	-1.000718e+01	-5.383921e+01
1.540000e-06	-1.392815e-06	-7.533168e-10	-9.691373e+00	-5.365741e+01
1.550000e-06	-1.347375e-06	-7.494262e-10	-9.375193e+00	-5.345996e+01
1.560000e-06	-1.301970e-06	-7.461324e-10	-9.059262e+00	-5.324588e+01
1.570000e-06	-1.256528e-06	-7.421292e-10	-8.743072e+00	-5.301420e+01
1.580000e-06	-1.210955e-06	-7.361567e-10	-8.425973e+00	-5.276398e+01
1.590000e-06	-1.165249e-06	-7.299039e-10	-8.107941e+00	-5.249432e+01
1.600000e-06	-1.119499e-06	-7.251215e-10	-7.789609e+00	-5.220433e+01
1.610000e-06	-1.073648e-06	-7.210854e-10	-7.470569e+00	-5.189319e+01
1.620000e-06	-1.027618e-06	-7.176940e-10	-7.150290e+00	-5.156009e+01
1.630000e-06	-9.815037e-07	-7.156939e-10	-6.829421e+00	-5.120429e+01
1.640000e-06	-9.354040e-07	-7.119234e-10	-6.508653e+00	-5.082509e+01
1.650000e-06	-8.892696e-07	-7.041911e-10	-6.187644e+00	-5.042182e+01
1.660000e-06	-8.430692e-07	-6.937413e-10	-5.866176e+00	-4.999389e+01
1.670000e-06	-7.967589e-07	-6.810122e-10	-5.543944e+00	-4.954072e+01
1.680000e-06	-7.503343e-07	-6.704888e-10	-5.220916e+00	-4.906180e+01
1.690000e-06	-7.039282e-07	-6.631244e-10	-4.898017e+00	-4.855665e+01
1.700000e-06	-6.575129e-07	-6.553129e-10	-4.575054e+00	-4.802483e+01
1.710000e-06	-6.110245e-07	-6.496538e-10	-4.251581e+00	-4.746592e+01
1.720000e-06	-5.644907e-07	-6.441505e-10	-3.927794e+00	-4.687957e+01
1.730000e-06	-5.179124e-07	-6.344240e-10	-3.603697e+00	-4.626542e+01
1.740000e-06	-4.713500e-07	-6.213677e-10	-3.279710e+00	-4.562315e+01
1.750000e-06	-4.247289e-07	-6.072269e-10	-2.955314e+00	-4.495246e+01
1.760000e-06	-3.779975e-07	-5.946947e-10	-2.630152e+00	-4.425307e+01
1.770000e-06	-3.313012e-07	-5.834561e-10	-2.305234e+00	-4.352472e+01
1.780000e-06	-2.846320e-07	-5.732372e-10	-1.980503e+00	-4.276713e+01
1.790000e-06	-2.379372e-07	-5.638961e-10	-1.655596e+00	-4.198007e+01
1.800000e-06	-1.911652e-07	-5.534754e-10	-1.330150e+00	-4.116331e+01
1.810000e-06	-1.443705e-07	-5.417636e-10	-1.004547e+00	-4.031659e+01
1.820000e-06	-9.767782e-08	-5.295583e-10	-6.796540e-01	-3.943972e+01
1.830000e-06	-5.101953e-08	-5.158531e-10	-3.550000e-01	-3.853248e+01
1.840000e-06	-4.263597e-09	-5.017613e-10	-2.966662e-02	-3.759467e+01
1.850000e-06	4.258841e-08	-4.898297e-10	2.963353e-01	-3.662612e+01
1.860000e-06	8.940080e-08	-4.789762e-10	6.220615e-01	-3.562667e+01
1.870000e-06	1.361561e-07	-4.668684e-10	9.473902e-01	-3.459620e+01
1.880000e-06	1.828778e-07	-4.532488e-10	1.272486e+00	-3.353460e+01
1.890000e-06	2.295568e-07	-4.377323e-10	1.597284e+00	-3.244183e+01
1.900000e-06	2.763192e-07	-4.201949e-10	1.922662e+00	-3.131789e+01
1.910000e-06	3.231132e-07	-4.024273e-10	2.248260e+00	-3.016282e+01
1.920000e-06	3.698377e-07	-3.841988e-10	2.573375e+00	-2.897677e+01
1.930000e-06	4.164687e-07	-3.657827e-10	2.897839e+00	-2.775991e+01
1.940000e-06	4.630902e-07	-3.475877e-10	3.222237e+00	-2.651256e+01
1.950000e-06	5.097358e-07	-3.298235e-10	3.546803e+00	-2.523507e+01
1.960000e-06	5.563462e-07	-3.150273e-10	3.871124e+00	-2.392794e+01
1.970000e-06	6.029036e-07	-3.015959e-10	4.195076e+00	-2.259177e+01
1.980000e-06	6.493472e-07	-2.861671e-10	4.518236e+00	-2.122727e+01
1.990000e-06	6.956815e-07	-2.660981e-10	4.840635e+00	-1.983528e+01
2.000000e-06	7.419503e-07	-2.421344e-10	5.162579e+00	-1.841679e+01
2.010000e-06	7.881428e-07	-2.184544e-10	5.483992e+00	-1.697289e+01
2.020000e-06	8.343077e-07	-1.967844e-10	5.805213e+00	-1.550485e+01
2.030000e-06	8.804182e-07	-1.771559e-10	6.126055e+00	-1.401404e+01
2.040000e-06	9.264009e-07	-1.597177e-10	6.446009e+00	-1.250200e+01
2.050000e-06	9.723250e-07	-1.420058e-10	6.765554e+00	-1.097039e+01
2.060000e-06	1.018183e-06	-1.220904e-10	7.084640e+00	-9.421010e+00
2.070000e-06	1.064009e-06	-1.005167e-10	7.403500e+00	-7.855773e+00
2.080000e-06	1.109792e-06	-7.664093e-11	7.722062e+00	-6.276724e+00
2.090000e-06	1.155545e-06	-5.127492e-11	8.040420e+00	-4.686008e+00
2.100000e-06	1.201276e-06	-2.678030e-11	8.358622e+00	-3.085873e+00
2.110000e-06	1.246910e-06	-4.498600e-12	8.676146e+00	-1.478644e+00
2.120000e-06	1.292435e-06	1.699781e-11	8.992918e+00	1.332799e-01
2.130000e-06	1.337853e-06	3.914593e-11	9.308939e+00	1.747448e+00
2.140000e-06	1.383143e-06	5.969591e-11	9.624073e+00	3.361375e+00
2.150000e-06	1.428298e-06	7.948906e-11	9.938267e+00	4.972552e+00
2.160000e-06	1.473378e-06	1.014134e-10	1.025194e+01	6.578475e+00
2.170000e-06	1.518321e-06	1.245526e-10	1.056466e+01	8.176653e+00
2.180000e-06	1.563178e-06	1.477406e-10	1.087678e+01	9.764636e+00
2.190000e-06	1.608040e-06	1.698799e-10	1.118893e+01	1.134003e+01
2.200000e-06	1.652751e-06	1.924811e-10	1.150004e+01	1.290050e+01
2.210000e-06	1.697181e-06	2.145333e-10	1.180919e+01	1.444382e+01
2.220000e-06	1.741435e-06	2.353993e-10	1.211711e+01	1.596786e+01
2.230000e-06	1.785621e-06	2.554373e-10	1.242457e+01	1.747061e+01
2.240000e-06	1.829700e-06	2.749999e-10	1.273127e+01	1.895020e+01
2.250000e-06	1.873635e-06	2.948424e-10	1.303698e+01	2.040489e+01
2.260000e-06	1.917469e-06	3.143297e-10	1.334198e+01	2.183313e+01
2.270000e-06	1.961264e-06	3.330530e-10	1.364671e+01	2.323348e+01
2.280000e-06	2.005034e-06	3.516340e-10	1.395126e+01	2.460472e+01
2.290000e-06	2.048720e-06	3.693235e-10	1.425524e+01	2.594576e+01
2.300000e-06	2.092318e-06	3.863347e-10	1.455860e+01	2.725571e+01
2.310000e-06	2.135854e-06	4.036166e-10	1.486153e+01	2.853383e+01
2.320000e-06	2.179238e-06	4.202833e-10	1.516340e+01	2.977957e+01
2.330000e-06	2.222547e-06	4.359280e-10	1.546475e+01	3.099252e+01
2.340000e-06	2.265789e-06	4.525802e-10	1.576563e+01	3.217243e+01
2.350000e-06	2.308838e-06	4.701864e-10	1.606517e+01	3.331920e+01
2.360000e-06	2.351691e-06	4.863460e-10	1.636335e+01	3.443287e+01
2.370000e-06	2.394271e-06	5.005137e-10	1.665963e+01	3.551357e+01
2.380000e-06	2.436482e-06	5.122414e-10	1.695334e+01	3.656159e+01
2.390000e-06	2.478364e-06	5.268033e-10	1.724475e+01	3.757726e+01
2.400000e-06	2.519967e-06	5.434469e-10	1.753423e+01	3.856102e+01
2.410000e-06	2.561212e-06	5.580393e-10	1.782122e+01	3.951337e+01
2.420000e-06	2.602229e-06	5.680215e-10	1.810662e+01	4.043485e+01
2.430000e-06	2.643093e-06	5.750420e-10	1.839096e+01	4.132604e+01
2.440000e-06	2.683658e-06	5.823161e-10	1.867322e+01	4.218755e+01
2.450000e-06	2.723969e-06	5.906330e-10	1.895370e+01	4.301998e+01
2.460000e-06	2.764043e-06	6.016676e-10	1.923255e+01	4.382392e+01
2.470000e-06	2.803932e-06	6.138270e-10	1.951009e+01	4.459996e+01
2.480000e-06	2.843712e-06	6.244091e-10	1.978689e+01	4.534867e+01
2.490000e-06	2.883345e-06	6.327000e-10	2.006266e+01	4.607055e+01
2.500000e-06	2.922907e-06	6.403982e-10	2.033794e+01	4.676610e+01
2.510000e-06	2.962366e-06	6.487016e-10	2.061250e+01	4.743575e+01
2.520000e-06	3.001629e-06	6.565231e-10	2.088569e+01	4.807990e+01
2.530000e-06	3.040693e-06	6.643985e-10	2.115750e+01	4.869889e+01
2.540000e-06	3.079522e-06	6.737034e-10	2.142768e+01	4.929303e+01
2.550000e-06	3.118084e-06	6.829034e-10	2.169600e+01	4.986256e+01
2.560000e-06	3.156426e-06	6.915821e-10	2.196279e+01	5.040772e+01
2.570000e-06	3.194531e-06	7.009390e-10	2.222793e+01	5.092869e+01
2.580000e-06	3.232347e-06	7.087231e-10	2.249106e+01	5.142563e+01
2.590000e-06	3.269963e-06	7.122570e-10	2.275279e+01	5.189871e+01
2.600000e-06	3.307449e-06	7.135287e-10	2.301363e+01	5.234805e+01
2.610000e-06	3.344800e-06	7.166920e-10	2.327352e+01	5.277382e+01
2.620000e-06	3.381903e-06	7.223442e-10	2.353168e+01	5.317618e+01
2.630000e-06	3.418691e-06	7.297335e-10	2.378766e+01	5.355531e+01
2.640000e-06	3.455248e-06	7.375918e-10	2.404203e+01	5.391145e+01
2.650000e-06	3.491541e-06	7.432778e-10	2.429456e+01	5.424485e+01
2.660000e-06	3.527550e-06	7.450293e-10	2.454511e+01	5.455585e+01
2.670000e-06	3.563410e-06	7.454761e-10	2.479463e+01	5.484482e+01
2.680000e-06	3.599118e-06	7.463203e-10	2.504309e+01	5.511222e+01
2.690000e-06	3.634695e-06	7.505806e-10	2.529064e+01	5.535857e+01
2.700000e-06	3.670123e-06	7.577376e-10	2.553716e+01	5.558445e+01
2.710000e-06	3.705356e-06	7.637687e-10	2.578231e+01	5.579056e+01
2.720000e-06	3.740366e-06	7.710084e-10	2.602592e+01	5.597765e+01
2.730000e-06	3.774966e-06	7.759888e-10	2.626666e+01	5.614654e+01
2.740000e-06	3.809146e-06	7.802269e-10	2.650450e+01	5.629813e+01
2.750000e-06	3.843021e-06	7.819895e-10	2.674020e+01	5.643339e+01
2.760000e-06	3.876433e-06	7.833183e-10	2.697268e+01	5.655336e+01
2.770000e-06	3.909291e-06	7.860296e-10	2.720132e+01	5.665910e+01
2.780000e-06	3.941713e-06	7.888902e-10	2.742691e+01	5.675175e+01
2.790000e-06	3.973806e-06	7.936005e-10	2.765022e+01	5.683244e+01
2.800000e-06	4.005689e-06	7.989173e-10	2.787206e+01	5.690235e+01
2.810000e-06	4.037405e-06	8.014598e-10	2.809275e+01	5.696266e+01
2.820000e-06	4.068987e-06	8.030406e-10	2.831250e+01	5.701452e+01
2.830000e-06	4.100446e-06	8.037045e-10	2.853140e+01	5.705909e+01
2.840000e-06	4.131695e-06	8.023515e-10	2.874883e+01	5.709746e+01
2.850000e-06	4.162637e-06	7.984123e-10	2.896412e+01	5.713070e+01
2.860000e-06	4.193255e-06	7.954899e-10	2.917717e+01	5.715980e+01
2.870000e-06	4.223549e-06	7.990048e-10	2.938796e+01	5.718570e+01
2.880000e-06	4.253512e-06	8.040584e-10	2.959644e+01	5.720923e+01
2.890000e-06	4.283154e-06	8.087830e-10	2.980270e+01	5.723114e+01
2.900000e-06	4.312559e-06	8.098754e-10	3.000730e+01	5.725210e+01
