# Temperatura_=_13.31
# Concentracion g/m^3_=_1620.0
# C_Vs_to_Am_M_A/Vsm_=_65563218390.804596
# pendiente_HvsI_1/m_=_3716.3
# ordenada_HvsI_A/m_=_1297.0
# frecuencia_Hz_=_135096.10056550664

Tiempo_(s)	Campo_(V.s)	Magnetizacion_(V.s)	Campo_(kA/m)	Magnetizacion_(A/m)
0.000000e+00	-5.517600e-06	-1.723912e-09	-3.837873e+01	-1.117828e+02
1.000000e-08	-5.517851e-06	-1.719540e-09	-3.838047e+01	-1.117448e+02
2.000000e-08	-5.517905e-06	-1.716071e-09	-3.838085e+01	-1.117088e+02
3.000000e-08	-5.517619e-06	-1.716018e-09	-3.837887e+01	-1.116751e+02
4.000000e-08	-5.516839e-06	-1.716981e-09	-3.837343e+01	-1.116440e+02
5.000000e-08	-5.515400e-06	-1.713717e-09	-3.836343e+01	-1.116160e+02
6.000000e-08	-5.513350e-06	-1.700763e-09	-3.834917e+01	-1.115911e+02
7.000000e-08	-5.510808e-06	-1.682321e-09	-3.833148e+01	-1.115695e+02
8.000000e-08	-5.507726e-06	-1.687271e-09	-3.831005e+01	-1.115512e+02
9.000000e-08	-5.504092e-06	-1.774864e-09	-3.828478e+01	-1.115361e+02
1.000000e-07	-5.500036e-06	-1.837240e-09	-3.825656e+01	-1.115240e+02
1.100000e-07	-5.495698e-06	-1.720985e-09	-3.822639e+01	-1.115147e+02
1.200000e-07	-5.491193e-06	-1.578788e-09	-3.819506e+01	-1.115079e+02
1.300000e-07	-5.486526e-06	-1.646392e-09	-3.816259e+01	-1.115030e+02
1.400000e-07	-5.481386e-06	-1.773518e-09	-3.812684e+01	-1.114996e+02
1.500000e-07	-5.475765e-06	-1.758872e-09	-3.808774e+01	-1.114969e+02
1.600000e-07	-5.469913e-06	-1.608006e-09	-3.804704e+01	-1.114944e+02
1.700000e-07	-5.463756e-06	-1.665296e-09	-3.800421e+01	-1.114911e+02
1.800000e-07	-5.457104e-06	-1.777587e-09	-3.795794e+01	-1.114864e+02
1.900000e-07	-5.449920e-06	-1.755685e-09	-3.790797e+01	-1.114793e+02
2.000000e-07	-5.442379e-06	-1.628157e-09	-3.785551e+01	-1.114690e+02
2.100000e-07	-5.434599e-06	-1.655694e-09	-3.780140e+01	-1.114546e+02
2.200000e-07	-5.426594e-06	-1.777888e-09	-3.774572e+01	-1.114351e+02
2.300000e-07	-5.418358e-06	-1.791077e-09	-3.768843e+01	-1.114097e+02
2.400000e-07	-5.409757e-06	-1.710304e-09	-3.762861e+01	-1.113775e+02
2.500000e-07	-5.400515e-06	-1.684415e-09	-3.756432e+01	-1.113378e+02
2.600000e-07	-5.390451e-06	-1.736844e-09	-3.749432e+01	-1.112897e+02
2.700000e-07	-5.379810e-06	-1.729497e-09	-3.742031e+01	-1.112326e+02
2.800000e-07	-5.368746e-06	-1.703383e-09	-3.734335e+01	-1.111658e+02
2.900000e-07	-5.357207e-06	-1.691356e-09	-3.726309e+01	-1.110890e+02
3.000000e-07	-5.345314e-06	-1.736824e-09	-3.718037e+01	-1.110016e+02
3.100000e-07	-5.333133e-06	-1.715952e-09	-3.709564e+01	-1.109033e+02
3.200000e-07	-5.320444e-06	-1.686775e-09	-3.700737e+01	-1.107939e+02
3.300000e-07	-5.307208e-06	-1.666834e-09	-3.691531e+01	-1.106734e+02
3.400000e-07	-5.293705e-06	-1.723766e-09	-3.682138e+01	-1.105417e+02
3.500000e-07	-5.279899e-06	-1.713187e-09	-3.672535e+01	-1.103990e+02
3.600000e-07	-5.265691e-06	-1.679962e-09	-3.662653e+01	-1.102455e+02
3.700000e-07	-5.251013e-06	-1.687208e-09	-3.652443e+01	-1.100815e+02
3.800000e-07	-5.235801e-06	-1.722922e-09	-3.641862e+01	-1.099075e+02
3.900000e-07	-5.219910e-06	-1.655581e-09	-3.630809e+01	-1.097240e+02
4.000000e-07	-5.203493e-06	-1.639807e-09	-3.619390e+01	-1.095315e+02
4.100000e-07	-5.186896e-06	-1.718452e-09	-3.607845e+01	-1.093307e+02
4.200000e-07	-5.170004e-06	-1.705206e-09	-3.596096e+01	-1.091222e+02
4.300000e-07	-5.152727e-06	-1.610272e-09	-3.584078e+01	-1.089069e+02
4.400000e-07	-5.135183e-06	-1.669650e-09	-3.571875e+01	-1.086854e+02
4.500000e-07	-5.117355e-06	-1.735170e-09	-3.559475e+01	-1.084584e+02
4.600000e-07	-5.099020e-06	-1.623721e-09	-3.546722e+01	-1.082268e+02
4.700000e-07	-5.080107e-06	-1.589970e-09	-3.533566e+01	-1.079913e+02
4.800000e-07	-5.060858e-06	-1.698132e-09	-3.520177e+01	-1.077525e+02
4.900000e-07	-5.041347e-06	-1.667671e-09	-3.506606e+01	-1.075111e+02
5.000000e-07	-5.021578e-06	-1.579302e-09	-3.492856e+01	-1.072677e+02
5.100000e-07	-5.001659e-06	-1.660201e-09	-3.479000e+01	-1.070228e+02
5.200000e-07	-4.981512e-06	-1.675489e-09	-3.464987e+01	-1.067770e+02
5.300000e-07	-4.960961e-06	-1.574905e-09	-3.450692e+01	-1.065305e+02
5.400000e-07	-4.940022e-06	-1.612929e-09	-3.436127e+01	-1.062837e+02
5.500000e-07	-4.918762e-06	-1.691052e-09	-3.421340e+01	-1.060369e+02
5.600000e-07	-4.897132e-06	-1.592341e-09	-3.406294e+01	-1.057901e+02
5.700000e-07	-4.875187e-06	-1.566663e-09	-3.391030e+01	-1.055434e+02
5.800000e-07	-4.852946e-06	-1.653272e-09	-3.375560e+01	-1.052968e+02
5.900000e-07	-4.830303e-06	-1.620269e-09	-3.359811e+01	-1.050501e+02
6.000000e-07	-4.807304e-06	-1.547420e-09	-3.343813e+01	-1.048033e+02
6.100000e-07	-4.784080e-06	-1.610623e-09	-3.327659e+01	-1.045560e+02
6.200000e-07	-4.760589e-06	-1.616723e-09	-3.311320e+01	-1.043079e+02
6.300000e-07	-4.736842e-06	-1.553762e-09	-3.294802e+01	-1.040588e+02
6.400000e-07	-4.712925e-06	-1.574123e-09	-3.278166e+01	-1.038081e+02
6.500000e-07	-4.688782e-06	-1.605008e-09	-3.261373e+01	-1.035555e+02
6.600000e-07	-4.664176e-06	-1.550161e-09	-3.244258e+01	-1.033006e+02
6.700000e-07	-4.638972e-06	-1.547961e-09	-3.226726e+01	-1.030429e+02
6.800000e-07	-4.613331e-06	-1.578583e-09	-3.208891e+01	-1.027819e+02
6.900000e-07	-4.587206e-06	-1.553780e-09	-3.190720e+01	-1.025173e+02
7.000000e-07	-4.560481e-06	-1.533647e-09	-3.172131e+01	-1.022486e+02
7.100000e-07	-4.533328e-06	-1.558430e-09	-3.153244e+01	-1.019753e+02
7.200000e-07	-4.505839e-06	-1.544832e-09	-3.134123e+01	-1.016973e+02
7.300000e-07	-4.478092e-06	-1.518931e-09	-3.114824e+01	-1.014140e+02
7.400000e-07	-4.450237e-06	-1.526285e-09	-3.095448e+01	-1.011254e+02
7.500000e-07	-4.422264e-06	-1.523018e-09	-3.075991e+01	-1.008311e+02
7.600000e-07	-4.393979e-06	-1.502926e-09	-3.056317e+01	-1.005310e+02
7.700000e-07	-4.365393e-06	-1.504641e-09	-3.036433e+01	-1.002250e+02
7.800000e-07	-4.336494e-06	-1.506939e-09	-3.016332e+01	-9.991301e+01
7.900000e-07	-4.307193e-06	-1.491315e-09	-2.995951e+01	-9.959503e+01
8.000000e-07	-4.277612e-06	-1.491210e-09	-2.975375e+01	-9.927110e+01
8.100000e-07	-4.247731e-06	-1.490883e-09	-2.954591e+01	-9.894131e+01
8.200000e-07	-4.217589e-06	-1.471627e-09	-2.933625e+01	-9.860580e+01
8.300000e-07	-4.187162e-06	-1.457938e-09	-2.912461e+01	-9.826473e+01
8.400000e-07	-4.156335e-06	-1.466746e-09	-2.891019e+01	-9.791831e+01
8.500000e-07	-4.125190e-06	-1.459108e-09	-2.869356e+01	-9.756676e+01
8.600000e-07	-4.093923e-06	-1.448529e-09	-2.847607e+01	-9.721032e+01
8.700000e-07	-4.062454e-06	-1.448302e-09	-2.825718e+01	-9.684927e+01
8.800000e-07	-4.030731e-06	-1.442380e-09	-2.803653e+01	-9.648387e+01
8.900000e-07	-3.998881e-06	-1.421907e-09	-2.781499e+01	-9.611438e+01
9.000000e-07	-3.966879e-06	-1.420629e-09	-2.759239e+01	-9.574108e+01
9.100000e-07	-3.934648e-06	-1.420055e-09	-2.736821e+01	-9.536423e+01
9.200000e-07	-3.902088e-06	-1.408434e-09	-2.714173e+01	-9.498406e+01
9.300000e-07	-3.869185e-06	-1.403415e-09	-2.691287e+01	-9.460081e+01
9.400000e-07	-3.835797e-06	-1.410744e-09	-2.668063e+01	-9.421467e+01
9.500000e-07	-3.801847e-06	-1.398517e-09	-2.644448e+01	-9.382582e+01
9.600000e-07	-3.767497e-06	-1.385445e-09	-2.620555e+01	-9.343443e+01
9.700000e-07	-3.732772e-06	-1.384750e-09	-2.596401e+01	-9.304061e+01
9.800000e-07	-3.697623e-06	-1.377927e-09	-2.571953e+01	-9.264447e+01
9.900000e-07	-3.662132e-06	-1.360641e-09	-2.547266e+01	-9.224609e+01
1.000000e-06	-3.626521e-06	-1.357906e-09	-2.522497e+01	-9.184550e+01
1.010000e-06	-3.590844e-06	-1.357654e-09	-2.497681e+01	-9.144273e+01
1.020000e-06	-3.554957e-06	-1.347212e-09	-2.472719e+01	-9.103779e+01
1.030000e-06	-3.518944e-06	-1.341641e-09	-2.447670e+01	-9.063064e+01
1.040000e-06	-3.482839e-06	-1.342612e-09	-2.422556e+01	-9.022125e+01
1.050000e-06	-3.446443e-06	-1.332175e-09	-2.397240e+01	-8.980956e+01
1.060000e-06	-3.409746e-06	-1.316287e-09	-2.371715e+01	-8.939550e+01
1.070000e-06	-3.372803e-06	-1.309193e-09	-2.346018e+01	-8.897899e+01
1.080000e-06	-3.335560e-06	-1.301453e-09	-2.320113e+01	-8.855994e+01
1.090000e-06	-3.298080e-06	-1.291658e-09	-2.294043e+01	-8.813824e+01
1.100000e-06	-3.260405e-06	-1.287160e-09	-2.267837e+01	-8.771380e+01
1.110000e-06	-3.222467e-06	-1.284608e-09	-2.241449e+01	-8.728650e+01
1.120000e-06	-3.184264e-06	-1.273568e-09	-2.214876e+01	-8.685621e+01
1.130000e-06	-3.145855e-06	-1.266432e-09	-2.188160e+01	-8.642284e+01
1.140000e-06	-3.107278e-06	-1.261215e-09	-2.161327e+01	-8.598623e+01
1.150000e-06	-3.068537e-06	-1.251339e-09	-2.134380e+01	-8.554627e+01
1.160000e-06	-3.029555e-06	-1.238677e-09	-2.107265e+01	-8.510282e+01
1.170000e-06	-2.990295e-06	-1.233918e-09	-2.079958e+01	-8.465571e+01
1.180000e-06	-2.950840e-06	-1.228914e-09	-2.052513e+01	-8.420480e+01
1.190000e-06	-2.911284e-06	-1.224015e-09	-2.025000e+01	-8.374991e+01
1.200000e-06	-2.871566e-06	-1.218957e-09	-1.997373e+01	-8.329086e+01
1.210000e-06	-2.831686e-06	-1.211812e-09	-1.969634e+01	-8.282743e+01
1.220000e-06	-2.791740e-06	-1.200557e-09	-1.941849e+01	-8.235941e+01
1.230000e-06	-2.751723e-06	-1.193670e-09	-1.914014e+01	-8.188654e+01
1.240000e-06	-2.711626e-06	-1.187539e-09	-1.886124e+01	-8.140856e+01
1.250000e-06	-2.671358e-06	-1.179121e-09	-1.858115e+01	-8.092517e+01
1.260000e-06	-2.630827e-06	-1.171302e-09	-1.829922e+01	-8.043606e+01
1.270000e-06	-2.589985e-06	-1.165572e-09	-1.801514e+01	-7.994086e+01
1.280000e-06	-2.548874e-06	-1.158251e-09	-1.772918e+01	-7.943922e+01
1.290000e-06	-2.507401e-06	-1.147880e-09	-1.744071e+01	-7.893073e+01
1.300000e-06	-2.465566e-06	-1.137073e-09	-1.714972e+01	-7.841498e+01
1.310000e-06	-2.423581e-06	-1.129508e-09	-1.685769e+01	-7.789151e+01
1.320000e-06	-2.381368e-06	-1.120766e-09	-1.656406e+01	-7.735988e+01
1.330000e-06	-2.338718e-06	-1.109940e-09	-1.626741e+01	-7.681959e+01
1.340000e-06	-2.295731e-06	-1.099761e-09	-1.596840e+01	-7.627015e+01
1.350000e-06	-2.252530e-06	-1.090376e-09	-1.566791e+01	-7.571108e+01
1.360000e-06	-2.209147e-06	-1.080510e-09	-1.536615e+01	-7.514186e+01
1.370000e-06	-2.165631e-06	-1.070481e-09	-1.506346e+01	-7.456200e+01
1.380000e-06	-2.122024e-06	-1.059992e-09	-1.476015e+01	-7.397098e+01
1.390000e-06	-2.078335e-06	-1.046992e-09	-1.445626e+01	-7.336834e+01
1.400000e-06	-2.034513e-06	-1.034070e-09	-1.415145e+01	-7.275358e+01
1.410000e-06	-1.990612e-06	-1.022684e-09	-1.384608e+01	-7.212627e+01
1.420000e-06	-1.946680e-06	-1.011724e-09	-1.354051e+01	-7.148595e+01
1.430000e-06	-1.902701e-06	-1.001177e-09	-1.323461e+01	-7.083222e+01
1.440000e-06	-1.858570e-06	-9.933306e-10	-1.292764e+01	-7.016470e+01
1.450000e-06	-1.814316e-06	-9.840699e-10	-1.261983e+01	-6.948303e+01
1.460000e-06	-1.770027e-06	-9.712285e-10	-1.231176e+01	-6.878689e+01
1.470000e-06	-1.725668e-06	-9.548172e-10	-1.200322e+01	-6.807597e+01
1.480000e-06	-1.681188e-06	-9.401461e-10	-1.169382e+01	-6.735000e+01
1.490000e-06	-1.636529e-06	-9.248326e-10	-1.138320e+01	-6.660873e+01
1.500000e-06	-1.591748e-06	-9.091725e-10	-1.107171e+01	-6.585193e+01
1.510000e-06	-1.546818e-06	-8.959990e-10	-1.075919e+01	-6.507939e+01
1.520000e-06	-1.501708e-06	-8.842149e-10	-1.044542e+01	-6.429091e+01
1.530000e-06	-1.456598e-06	-8.715365e-10	-1.013165e+01	-6.348628e+01
1.540000e-06	-1.411429e-06	-8.603504e-10	-9.817469e+00	-6.266531e+01
1.550000e-06	-1.366144e-06	-8.470925e-10	-9.502478e+00	-6.182778e+01
1.560000e-06	-1.320771e-06	-8.324623e-10	-9.186878e+00	-6.097346e+01
1.570000e-06	-1.275250e-06	-8.174179e-10	-8.870245e+00	-6.010209e+01
1.580000e-06	-1.229621e-06	-8.038895e-10	-8.552868e+00	-5.921339e+01
1.590000e-06	-1.183895e-06	-7.897719e-10	-8.234813e+00	-5.830703e+01
1.600000e-06	-1.138047e-06	-7.760398e-10	-7.915907e+00	-5.738261e+01
1.610000e-06	-1.092136e-06	-7.632879e-10	-7.596565e+00	-5.643971e+01
1.620000e-06	-1.046170e-06	-7.514241e-10	-7.276841e+00	-5.547782e+01
1.630000e-06	-1.000159e-06	-7.416466e-10	-6.956798e+00	-5.449637e+01
1.640000e-06	-9.541479e-07	-7.302466e-10	-6.636760e+00	-5.349475e+01
1.650000e-06	-9.080997e-07	-7.131807e-10	-6.316462e+00	-5.247223e+01
1.660000e-06	-8.619192e-07	-6.922426e-10	-5.995245e+00	-5.142804e+01
1.670000e-06	-8.156076e-07	-6.713799e-10	-5.673116e+00	-5.036132e+01
1.680000e-06	-7.692273e-07	-6.521289e-10	-5.350509e+00	-4.927117e+01
1.690000e-06	-7.228130e-07	-6.369515e-10	-5.027665e+00	-4.815659e+01
1.700000e-06	-6.764338e-07	-6.203166e-10	-4.705066e+00	-4.701656e+01
1.710000e-06	-6.299918e-07	-6.028402e-10	-4.382029e+00	-4.584998e+01
1.720000e-06	-5.834217e-07	-5.869163e-10	-4.058103e+00	-4.465573e+01
1.730000e-06	-5.368176e-07	-5.699624e-10	-3.733938e+00	-4.343266e+01
1.740000e-06	-4.901963e-07	-5.486968e-10	-3.409655e+00	-4.217960e+01
1.750000e-06	-4.434882e-07	-5.266127e-10	-3.084768e+00	-4.089540e+01
1.760000e-06	-3.967607e-07	-5.062320e-10	-2.759746e+00	-3.957890e+01
1.770000e-06	-3.500867e-07	-4.843439e-10	-2.435096e+00	-3.822901e+01
1.780000e-06	-3.033075e-07	-4.626251e-10	-2.109714e+00	-3.684466e+01
1.790000e-06	-2.564940e-07	-4.430476e-10	-1.784093e+00	-3.542486e+01
1.800000e-06	-2.097483e-07	-4.242402e-10	-1.458945e+00	-3.396871e+01
1.810000e-06	-1.629459e-07	-4.069748e-10	-1.133402e+00	-3.247542e+01
1.820000e-06	-1.161700e-07	-3.889498e-10	-8.080432e-01	-3.094432e+01
1.830000e-06	-6.949232e-08	-3.683919e-10	-4.833673e-01	-2.937488e+01
1.840000e-06	-2.276878e-08	-3.459591e-10	-1.583727e-01	-2.776671e+01
1.850000e-06	2.394174e-08	-3.223574e-10	1.665314e-01	-2.611961e+01
1.860000e-06	7.062450e-08	-2.980880e-10	4.912424e-01	-2.443356e+01
1.870000e-06	1.174236e-07	-2.741045e-10	8.167626e-01	-2.270872e+01
1.880000e-06	1.642479e-07	-2.497544e-10	1.142458e+00	-2.094546e+01
1.890000e-06	2.110101e-07	-2.257276e-10	1.467722e+00	-1.914436e+01
1.900000e-06	2.578112e-07	-2.003296e-10	1.793256e+00	-1.730622e+01
1.910000e-06	3.045552e-07	-1.729166e-10	2.118392e+00	-1.543204e+01
1.920000e-06	3.511864e-07	-1.436244e-10	2.442745e+00	-1.352304e+01
1.930000e-06	3.978905e-07	-1.144430e-10	2.767604e+00	-1.158065e+01
1.940000e-06	4.446183e-07	-8.593606e-11	3.092629e+00	-9.606523e+00
1.950000e-06	4.912562e-07	-5.663709e-11	3.417027e+00	-7.602492e+00
1.960000e-06	5.378381e-07	-2.810477e-11	3.741036e+00	-5.570585e+00
1.970000e-06	5.842837e-07	5.241090e-15	4.064098e+00	-3.513009e+00
1.980000e-06	6.306335e-07	2.802027e-11	4.386493e+00	-1.432130e+00
1.990000e-06	6.770160e-07	5.562328e-11	4.709116e+00	6.695349e-01
2.000000e-06	7.234157e-07	8.663259e-11	5.031857e+00	2.789343e+00
2.010000e-06	7.697903e-07	1.192103e-10	5.354425e+00	4.924539e+00
2.020000e-06	8.160982e-07	1.500744e-10	5.676528e+00	7.072278e+00
2.030000e-06	8.623048e-07	1.809025e-10	5.997927e+00	9.229643e+00
2.040000e-06	9.084462e-07	2.098253e-10	6.318872e+00	1.139367e+01
2.050000e-06	9.545840e-07	2.382256e-10	6.639793e+00	1.356137e+01
2.060000e-06	1.000622e-06	2.675284e-10	6.960021e+00	1.572973e+01
2.070000e-06	1.046552e-06	2.999221e-10	7.279494e+00	1.789578e+01
2.080000e-06	1.092459e-06	3.335400e-10	7.598809e+00	2.005655e+01
2.090000e-06	1.138255e-06	3.649122e-10	7.917352e+00	2.220916e+01
2.100000e-06	1.183911e-06	3.937573e-10	8.234918e+00	2.435078e+01
2.110000e-06	1.229553e-06	4.222951e-10	8.552393e+00	2.647866e+01
2.120000e-06	1.275158e-06	4.516432e-10	8.869610e+00	2.859018e+01
2.130000e-06	1.320701e-06	4.800844e-10	9.186393e+00	3.068281e+01
2.140000e-06	1.366152e-06	5.071266e-10	9.502532e+00	3.275418e+01
2.150000e-06	1.411489e-06	5.341733e-10	9.817881e+00	3.480204e+01
2.160000e-06	1.456712e-06	5.624764e-10	1.013244e+01	3.682429e+01
2.170000e-06	1.501755e-06	5.916618e-10	1.044574e+01	3.881900e+01
2.180000e-06	1.546703e-06	6.195961e-10	1.075839e+01	4.078439e+01
2.190000e-06	1.591532e-06	6.476817e-10	1.107021e+01	4.271885e+01
2.200000e-06	1.636159e-06	6.770907e-10	1.138062e+01	4.462095e+01
2.210000e-06	1.680707e-06	7.035003e-10	1.169048e+01	4.648940e+01
2.220000e-06	1.725122e-06	7.322429e-10	1.199942e+01	4.832309e+01
2.230000e-06	1.769458e-06	7.591623e-10	1.230781e+01	5.012109e+01
2.240000e-06	1.813759e-06	7.803848e-10	1.261595e+01	5.188259e+01
2.250000e-06	1.857869e-06	8.006224e-10	1.292277e+01	5.360696e+01
2.260000e-06	1.901821e-06	8.215196e-10	1.322848e+01	5.529372e+01
2.270000e-06	1.945721e-06	8.463995e-10	1.353384e+01	5.694251e+01
2.280000e-06	1.989635e-06	8.712881e-10	1.383929e+01	5.855312e+01
2.290000e-06	2.033520e-06	8.957031e-10	1.414454e+01	6.012546e+01
2.300000e-06	2.077303e-06	9.156634e-10	1.444908e+01	6.165956e+01
2.310000e-06	2.120954e-06	9.353622e-10	1.475270e+01	6.315553e+01
2.320000e-06	2.164500e-06	9.534588e-10	1.505560e+01	6.461361e+01
2.330000e-06	2.208021e-06	9.713776e-10	1.535832e+01	6.603412e+01
2.340000e-06	2.251440e-06	9.898826e-10	1.566033e+01	6.741744e+01
2.350000e-06	2.294653e-06	1.009047e-09	1.596090e+01	6.876406e+01
2.360000e-06	2.337636e-06	1.031430e-09	1.625988e+01	7.007449e+01
2.370000e-06	2.380306e-06	1.052219e-09	1.655668e+01	7.134932e+01
2.380000e-06	2.422693e-06	1.070924e-09	1.685151e+01	7.258919e+01
2.390000e-06	2.464817e-06	1.085951e-09	1.714451e+01	7.379476e+01
2.400000e-06	2.506613e-06	1.098033e-09	1.743523e+01	7.496673e+01
2.410000e-06	2.548062e-06	1.110159e-09	1.772354e+01	7.610583e+01
2.420000e-06	2.589137e-06	1.121038e-09	1.800924e+01	7.721282e+01
2.430000e-06	2.629857e-06	1.132053e-09	1.829248e+01	7.828845e+01
2.440000e-06	2.670372e-06	1.145644e-09	1.857429e+01	7.933350e+01
2.450000e-06	2.710763e-06	1.162289e-09	1.885524e+01	8.034873e+01
2.460000e-06	2.750922e-06	1.181815e-09	1.913457e+01	8.133493e+01
2.470000e-06	2.790943e-06	1.196873e-09	1.941294e+01	8.229287e+01
2.480000e-06	2.830869e-06	1.207873e-09	1.969065e+01	8.322330e+01
2.490000e-06	2.870665e-06	1.216294e-09	1.996746e+01	8.412699e+01
2.500000e-06	2.910365e-06	1.225540e-09	2.024361e+01	8.500467e+01
2.510000e-06	2.949901e-06	1.234687e-09	2.051861e+01	8.585707e+01
2.520000e-06	2.989265e-06	1.246352e-09	2.079241e+01	8.668488e+01
2.530000e-06	3.028401e-06	1.260298e-09	2.106463e+01	8.748880e+01
2.540000e-06	3.067232e-06	1.271837e-09	2.133472e+01	8.826948e+01
2.550000e-06	3.105844e-06	1.282032e-09	2.160330e+01	8.902756e+01
2.560000e-06	3.144337e-06	1.291858e-09	2.187104e+01	8.976367e+01
2.570000e-06	3.182581e-06	1.300587e-09	2.213705e+01	9.047839e+01
2.580000e-06	3.220579e-06	1.309076e-09	2.240136e+01	9.117229e+01
2.590000e-06	3.258410e-06	1.317576e-09	2.266450e+01	9.184592e+01
2.600000e-06	3.296037e-06	1.326678e-09	2.292622e+01	9.249979e+01
2.610000e-06	3.333455e-06	1.337221e-09	2.318649e+01	9.313441e+01
2.620000e-06	3.370606e-06	1.348069e-09	2.344490e+01	9.375025e+01
2.630000e-06	3.407502e-06	1.354804e-09	2.370154e+01	9.434777e+01
2.640000e-06	3.444133e-06	1.362902e-09	2.395633e+01	9.492741e+01
2.650000e-06	3.480466e-06	1.373382e-09	2.420905e+01	9.548960e+01
2.660000e-06	3.516589e-06	1.381335e-09	2.446031e+01	9.603474e+01
2.670000e-06	3.552550e-06	1.388769e-09	2.471045e+01	9.656324e+01
2.680000e-06	3.588419e-06	1.395428e-09	2.495994e+01	9.707549e+01
2.690000e-06	3.624205e-06	1.402171e-09	2.520886e+01	9.757187e+01
2.700000e-06	3.659810e-06	1.409096e-09	2.545652e+01	9.805276e+01
2.710000e-06	3.695154e-06	1.415322e-09	2.570236e+01	9.851856e+01
2.720000e-06	3.730155e-06	1.422638e-09	2.594581e+01	9.896964e+01
2.730000e-06	3.764935e-06	1.431158e-09	2.618773e+01	9.940640e+01
2.740000e-06	3.799468e-06	1.438593e-09	2.642793e+01	9.982923e+01
2.750000e-06	3.833396e-06	1.445557e-09	2.666392e+01	1.002385e+02
2.760000e-06	3.866717e-06	1.451210e-09	2.689570e+01	1.006347e+02
2.770000e-06	3.899558e-06	1.456851e-09	2.712413e+01	1.010183e+02
2.780000e-06	3.932021e-06	1.463320e-09	2.734993e+01	1.013896e+02
2.790000e-06	3.964246e-06	1.472090e-09	2.757408e+01	1.017491e+02
2.800000e-06	3.996288e-06	1.481606e-09	2.779695e+01	1.020973e+02
2.810000e-06	4.028217e-06	1.488534e-09	2.801904e+01	1.024347e+02
2.820000e-06	4.059973e-06	1.492510e-09	2.823992e+01	1.027617e+02
2.830000e-06	4.091564e-06	1.497284e-09	2.845966e+01	1.030789e+02
2.840000e-06	4.122939e-06	1.501349e-09	2.867790e+01	1.033867e+02
2.850000e-06	4.153968e-06	1.503548e-09	2.889373e+01	1.036856e+02
2.860000e-06	4.184693e-06	1.506693e-09	2.910744e+01	1.039763e+02
2.870000e-06	4.215063e-06	1.513491e-09	2.931868e+01	1.042590e+02
2.880000e-06	4.245049e-06	1.521280e-09	2.952726e+01	1.045344e+02
2.890000e-06	4.274760e-06	1.526634e-09	2.973392e+01	1.048030e+02
2.900000e-06	4.304182e-06	1.530703e-09	2.993857e+01	1.050650e+02
