# Temperatura_=_-15.73
# Concentracion g/m^3_=_1620.0
# C_Vs_to_Am_M_A/Vsm_=_65563218390.804596
# pendiente_HvsI_1/m_=_3716.3
# ordenada_HvsI_A/m_=_1297.0
# frecuencia_Hz_=_135104.63634689144

Tiempo_(s)	Campo_(V.s)	Magnetizacion_(V.s)	Campo_(kA/m)	Magnetizacion_(A/m)
0.000000e+00	-5.507798e-06	-9.161737e-10	-3.836974e+01	-6.024835e+01
1.000000e-08	-5.507938e-06	-9.138177e-10	-3.837071e+01	-6.021692e+01
2.000000e-08	-5.507854e-06	-9.113288e-10	-3.837013e+01	-6.019154e+01
3.000000e-08	-5.507393e-06	-9.117421e-10	-3.836691e+01	-6.017228e+01
4.000000e-08	-5.506343e-06	-9.138547e-10	-3.835960e+01	-6.015913e+01
5.000000e-08	-5.504676e-06	-9.123199e-10	-3.834798e+01	-6.015194e+01
6.000000e-08	-5.502445e-06	-9.024895e-10	-3.833245e+01	-6.015044e+01
7.000000e-08	-5.499651e-06	-8.873488e-10	-3.831298e+01	-6.015423e+01
8.000000e-08	-5.496384e-06	-8.984466e-10	-3.829022e+01	-6.016280e+01
9.000000e-08	-5.492684e-06	-9.827409e-10	-3.826444e+01	-6.017554e+01
1.000000e-07	-5.488613e-06	-1.043827e-09	-3.823609e+01	-6.019174e+01
1.100000e-07	-5.484259e-06	-9.069205e-10	-3.820575e+01	-6.021059e+01
1.200000e-07	-5.479708e-06	-7.770591e-10	-3.817405e+01	-6.023123e+01
1.300000e-07	-5.474931e-06	-8.523635e-10	-3.814077e+01	-6.025275e+01
1.400000e-07	-5.469694e-06	-1.006201e-09	-3.810429e+01	-6.027418e+01
1.500000e-07	-5.463955e-06	-9.640951e-10	-3.806431e+01	-6.029456e+01
1.600000e-07	-5.457837e-06	-8.055347e-10	-3.802169e+01	-6.031292e+01
1.700000e-07	-5.451384e-06	-8.824332e-10	-3.797673e+01	-6.032830e+01
1.800000e-07	-5.444529e-06	-1.021233e-09	-3.792898e+01	-6.033981e+01
1.900000e-07	-5.437245e-06	-9.939152e-10	-3.787824e+01	-6.034659e+01
2.000000e-07	-5.429627e-06	-8.220681e-10	-3.782517e+01	-6.034787e+01
2.100000e-07	-5.421785e-06	-8.453132e-10	-3.777053e+01	-6.034297e+01
2.200000e-07	-5.413741e-06	-9.621090e-10	-3.771449e+01	-6.033132e+01
2.300000e-07	-5.405462e-06	-9.869974e-10	-3.765682e+01	-6.031246e+01
2.400000e-07	-5.396734e-06	-8.869212e-10	-3.759602e+01	-6.028607e+01
2.500000e-07	-5.387322e-06	-8.739217e-10	-3.753045e+01	-6.025196e+01
2.600000e-07	-5.377149e-06	-9.255125e-10	-3.745958e+01	-6.021006e+01
2.700000e-07	-5.366272e-06	-9.297900e-10	-3.738380e+01	-6.016048e+01
2.800000e-07	-5.354933e-06	-8.796786e-10	-3.730481e+01	-6.010344e+01
2.900000e-07	-5.343241e-06	-8.825245e-10	-3.722336e+01	-6.003930e+01
3.000000e-07	-5.331236e-06	-9.346689e-10	-3.713973e+01	-5.996857e+01
3.100000e-07	-5.318887e-06	-9.240886e-10	-3.705370e+01	-5.989185e+01
3.200000e-07	-5.306029e-06	-8.816525e-10	-3.696412e+01	-5.980987e+01
3.300000e-07	-5.292722e-06	-8.686111e-10	-3.687142e+01	-5.972346e+01
3.400000e-07	-5.279135e-06	-9.305055e-10	-3.677677e+01	-5.963350e+01
3.500000e-07	-5.265152e-06	-9.175476e-10	-3.667936e+01	-5.954096e+01
3.600000e-07	-5.250608e-06	-8.775268e-10	-3.657804e+01	-5.944685e+01
3.700000e-07	-5.235653e-06	-8.950270e-10	-3.647385e+01	-5.935219e+01
3.800000e-07	-5.220360e-06	-9.472486e-10	-3.636732e+01	-5.925803e+01
3.900000e-07	-5.204409e-06	-8.828414e-10	-3.625620e+01	-5.916538e+01
4.000000e-07	-5.187890e-06	-8.632125e-10	-3.614112e+01	-5.907524e+01
4.100000e-07	-5.171076e-06	-9.341419e-10	-3.602398e+01	-5.898856e+01
4.200000e-07	-5.153920e-06	-9.197740e-10	-3.590447e+01	-5.890621e+01
4.300000e-07	-5.136443e-06	-8.177139e-10	-3.578271e+01	-5.882898e+01
4.400000e-07	-5.118723e-06	-8.902617e-10	-3.565927e+01	-5.875757e+01
4.500000e-07	-5.100695e-06	-9.604047e-10	-3.553368e+01	-5.869258e+01
4.600000e-07	-5.082160e-06	-8.597455e-10	-3.540455e+01	-5.863449e+01
4.700000e-07	-5.063238e-06	-8.232233e-10	-3.527273e+01	-5.858365e+01
4.800000e-07	-5.044042e-06	-9.399876e-10	-3.513901e+01	-5.854029e+01
4.900000e-07	-5.024494e-06	-9.025820e-10	-3.500283e+01	-5.850450e+01
5.000000e-07	-5.004694e-06	-8.231268e-10	-3.486490e+01	-5.847628e+01
5.100000e-07	-4.984737e-06	-9.013062e-10	-3.472586e+01	-5.845546e+01
5.200000e-07	-4.964501e-06	-9.182427e-10	-3.458489e+01	-5.844179e+01
5.300000e-07	-4.943869e-06	-8.153180e-10	-3.444116e+01	-5.843488e+01
5.400000e-07	-4.922890e-06	-8.697329e-10	-3.429501e+01	-5.843426e+01
5.500000e-07	-4.901577e-06	-9.465620e-10	-3.414654e+01	-5.843937e+01
5.600000e-07	-4.879891e-06	-8.482291e-10	-3.399546e+01	-5.844956e+01
5.700000e-07	-4.857894e-06	-8.243888e-10	-3.384222e+01	-5.846414e+01
5.800000e-07	-4.835623e-06	-9.240040e-10	-3.368707e+01	-5.848237e+01
5.900000e-07	-4.813024e-06	-8.910893e-10	-3.352964e+01	-5.850346e+01
6.000000e-07	-4.790036e-06	-8.248258e-10	-3.336949e+01	-5.852664e+01
6.100000e-07	-4.766667e-06	-8.933636e-10	-3.320670e+01	-5.855111e+01
6.200000e-07	-4.743026e-06	-9.005175e-10	-3.304200e+01	-5.857611e+01
6.300000e-07	-4.719160e-06	-8.365695e-10	-3.287574e+01	-5.860090e+01
6.400000e-07	-4.695086e-06	-8.636415e-10	-3.270803e+01	-5.862478e+01
6.500000e-07	-4.670717e-06	-9.014776e-10	-3.253826e+01	-5.864710e+01
6.600000e-07	-4.645940e-06	-8.559155e-10	-3.236565e+01	-5.866730e+01
6.700000e-07	-4.620748e-06	-8.672032e-10	-3.219016e+01	-5.868487e+01
6.800000e-07	-4.594997e-06	-9.024084e-10	-3.201077e+01	-5.869939e+01
6.900000e-07	-4.568611e-06	-8.772559e-10	-3.182695e+01	-5.871053e+01
7.000000e-07	-4.541675e-06	-8.583465e-10	-3.163930e+01	-5.871803e+01
7.100000e-07	-4.514339e-06	-8.893303e-10	-3.144887e+01	-5.872173e+01
7.200000e-07	-4.486776e-06	-8.777360e-10	-3.125685e+01	-5.872156e+01
7.300000e-07	-4.459054e-06	-8.642193e-10	-3.106373e+01	-5.871753e+01
7.400000e-07	-4.431218e-06	-8.831634e-10	-3.086981e+01	-5.870971e+01
7.500000e-07	-4.403155e-06	-8.901719e-10	-3.067431e+01	-5.869827e+01
7.600000e-07	-4.374744e-06	-8.725083e-10	-3.047638e+01	-5.868343e+01
7.700000e-07	-4.346033e-06	-8.809449e-10	-3.027637e+01	-5.866546e+01
7.800000e-07	-4.317003e-06	-8.827779e-10	-3.007413e+01	-5.864469e+01
7.900000e-07	-4.287629e-06	-8.720598e-10	-2.986950e+01	-5.862147e+01
8.000000e-07	-4.257970e-06	-8.772684e-10	-2.966289e+01	-5.859619e+01
8.100000e-07	-4.228032e-06	-8.843420e-10	-2.945432e+01	-5.856924e+01
8.200000e-07	-4.197795e-06	-8.669745e-10	-2.924368e+01	-5.854101e+01
8.300000e-07	-4.167314e-06	-8.634758e-10	-2.903134e+01	-5.851191e+01
8.400000e-07	-4.136531e-06	-8.773001e-10	-2.881689e+01	-5.848230e+01
8.500000e-07	-4.105377e-06	-8.736416e-10	-2.859986e+01	-5.845254e+01
8.600000e-07	-4.074027e-06	-8.667304e-10	-2.838146e+01	-5.842294e+01
8.700000e-07	-4.042511e-06	-8.765101e-10	-2.816191e+01	-5.839379e+01
8.800000e-07	-4.010802e-06	-8.784610e-10	-2.794100e+01	-5.836531e+01
8.900000e-07	-3.978941e-06	-8.677877e-10	-2.771904e+01	-5.833770e+01
9.000000e-07	-3.946913e-06	-8.743786e-10	-2.749592e+01	-5.831108e+01
9.100000e-07	-3.914639e-06	-8.768573e-10	-2.727110e+01	-5.828555e+01
9.200000e-07	-3.881937e-06	-8.655563e-10	-2.704328e+01	-5.826114e+01
9.300000e-07	-3.848805e-06	-8.657403e-10	-2.681247e+01	-5.823782e+01
9.400000e-07	-3.815323e-06	-8.776926e-10	-2.657922e+01	-5.821552e+01
9.500000e-07	-3.781407e-06	-8.698141e-10	-2.634294e+01	-5.819415e+01
9.600000e-07	-3.747010e-06	-8.667150e-10	-2.610332e+01	-5.817354e+01
9.700000e-07	-3.712135e-06	-8.754349e-10	-2.586036e+01	-5.815351e+01
9.800000e-07	-3.676915e-06	-8.735851e-10	-2.561500e+01	-5.813384e+01
9.900000e-07	-3.641441e-06	-8.596306e-10	-2.536788e+01	-5.811431e+01
1.000000e-06	-3.605782e-06	-8.619646e-10	-2.511946e+01	-5.809465e+01
1.010000e-06	-3.570015e-06	-8.636942e-10	-2.487029e+01	-5.807461e+01
1.020000e-06	-3.534134e-06	-8.575504e-10	-2.462032e+01	-5.805393e+01
1.030000e-06	-3.498154e-06	-8.577512e-10	-2.436968e+01	-5.803233e+01
1.040000e-06	-3.461979e-06	-8.672147e-10	-2.411767e+01	-5.800957e+01
1.050000e-06	-3.425567e-06	-8.621127e-10	-2.386400e+01	-5.798541e+01
1.060000e-06	-3.388900e-06	-8.564598e-10	-2.360857e+01	-5.795962e+01
1.070000e-06	-3.351935e-06	-8.591264e-10	-2.335105e+01	-5.793201e+01
1.080000e-06	-3.314690e-06	-8.568147e-10	-2.309159e+01	-5.790238e+01
1.090000e-06	-3.277200e-06	-8.489155e-10	-2.283041e+01	-5.787060e+01
1.100000e-06	-3.239438e-06	-8.515245e-10	-2.256735e+01	-5.783653e+01
1.110000e-06	-3.201387e-06	-8.537099e-10	-2.230227e+01	-5.780006e+01
1.120000e-06	-3.163137e-06	-8.475614e-10	-2.203580e+01	-5.776111e+01
1.130000e-06	-3.124711e-06	-8.458458e-10	-2.176811e+01	-5.771963e+01
1.140000e-06	-3.086038e-06	-8.496322e-10	-2.149869e+01	-5.767558e+01
1.150000e-06	-3.047187e-06	-8.471512e-10	-2.122804e+01	-5.762892e+01
1.160000e-06	-3.008135e-06	-8.415767e-10	-2.095599e+01	-5.757965e+01
1.170000e-06	-2.968860e-06	-8.436495e-10	-2.068238e+01	-5.752775e+01
1.180000e-06	-2.929469e-06	-8.463541e-10	-2.040796e+01	-5.747323e+01
1.190000e-06	-2.889924e-06	-8.471629e-10	-2.013247e+01	-5.741607e+01
1.200000e-06	-2.850212e-06	-8.474537e-10	-1.985582e+01	-5.735627e+01
1.210000e-06	-2.810389e-06	-8.455335e-10	-1.957840e+01	-5.729380e+01
1.220000e-06	-2.770450e-06	-8.397115e-10	-1.930017e+01	-5.722861e+01
1.230000e-06	-2.730389e-06	-8.395275e-10	-1.902109e+01	-5.716066e+01
1.240000e-06	-2.690129e-06	-8.408404e-10	-1.874062e+01	-5.708985e+01
1.250000e-06	-2.649634e-06	-8.410619e-10	-1.845851e+01	-5.701609e+01
1.260000e-06	-2.608986e-06	-8.396729e-10	-1.817534e+01	-5.693924e+01
1.270000e-06	-2.568223e-06	-8.410304e-10	-1.789137e+01	-5.685914e+01
1.280000e-06	-2.527140e-06	-8.378910e-10	-1.760516e+01	-5.677560e+01
1.290000e-06	-2.485635e-06	-8.318004e-10	-1.731602e+01	-5.668840e+01
1.300000e-06	-2.443933e-06	-8.286779e-10	-1.702551e+01	-5.659729e+01
1.310000e-06	-2.401978e-06	-8.283489e-10	-1.673323e+01	-5.650200e+01
1.320000e-06	-2.359664e-06	-8.259200e-10	-1.643845e+01	-5.640224e+01
1.330000e-06	-2.317091e-06	-8.239938e-10	-1.614187e+01	-5.629767e+01
1.340000e-06	-2.274205e-06	-8.233531e-10	-1.584311e+01	-5.618798e+01
1.350000e-06	-2.231024e-06	-8.243803e-10	-1.554229e+01	-5.607278e+01
1.360000e-06	-2.187663e-06	-8.247220e-10	-1.524022e+01	-5.595174e+01
1.370000e-06	-2.144159e-06	-8.236475e-10	-1.493715e+01	-5.582445e+01
1.380000e-06	-2.100554e-06	-8.203123e-10	-1.463338e+01	-5.569055e+01
1.390000e-06	-2.056867e-06	-8.159472e-10	-1.432904e+01	-5.554965e+01
1.400000e-06	-2.013130e-06	-8.114347e-10	-1.402434e+01	-5.540137e+01
1.410000e-06	-1.969359e-06	-8.059279e-10	-1.371942e+01	-5.524533e+01
1.420000e-06	-1.925483e-06	-7.999716e-10	-1.341376e+01	-5.508115e+01
1.430000e-06	-1.881476e-06	-7.984697e-10	-1.310718e+01	-5.490847e+01
1.440000e-06	-1.837372e-06	-7.997477e-10	-1.279994e+01	-5.472693e+01
1.450000e-06	-1.793218e-06	-7.983568e-10	-1.249235e+01	-5.453618e+01
1.460000e-06	-1.748951e-06	-7.949026e-10	-1.218396e+01	-5.433588e+01
1.470000e-06	-1.704577e-06	-7.905481e-10	-1.187483e+01	-5.412571e+01
1.480000e-06	-1.660166e-06	-7.859355e-10	-1.156545e+01	-5.390532e+01
1.490000e-06	-1.615575e-06	-7.775983e-10	-1.125481e+01	-5.367441e+01
1.500000e-06	-1.570819e-06	-7.685127e-10	-1.094302e+01	-5.343264e+01
1.510000e-06	-1.525959e-06	-7.615845e-10	-1.063050e+01	-5.317970e+01
1.520000e-06	-1.480969e-06	-7.570154e-10	-1.031708e+01	-5.291525e+01
1.530000e-06	-1.435942e-06	-7.536390e-10	-1.000340e+01	-5.263896e+01
1.540000e-06	-1.390809e-06	-7.488694e-10	-9.688987e+00	-5.235046e+01
1.550000e-06	-1.345415e-06	-7.402231e-10	-9.372750e+00	-5.204939e+01
1.560000e-06	-1.299920e-06	-7.329417e-10	-9.055815e+00	-5.173534e+01
1.570000e-06	-1.254399e-06	-7.292580e-10	-8.738691e+00	-5.140789e+01
1.580000e-06	-1.208811e-06	-7.241662e-10	-8.421105e+00	-5.106658e+01
1.590000e-06	-1.163137e-06	-7.160019e-10	-8.102922e+00	-5.071092e+01
1.600000e-06	-1.117341e-06	-7.095197e-10	-7.783884e+00	-5.034036e+01
1.610000e-06	-1.071462e-06	-7.046271e-10	-7.464275e+00	-4.995435e+01
1.620000e-06	-1.025508e-06	-7.003427e-10	-7.144138e+00	-4.955225e+01
1.630000e-06	-9.795260e-07	-6.968241e-10	-6.823808e+00	-4.913340e+01
1.640000e-06	-9.335381e-07	-6.916087e-10	-6.503436e+00	-4.869710e+01
1.650000e-06	-8.874430e-07	-6.816389e-10	-6.182317e+00	-4.824259e+01
1.660000e-06	-8.412787e-07	-6.712542e-10	-5.860717e+00	-4.776908e+01
1.670000e-06	-7.951087e-07	-6.613055e-10	-5.539076e+00	-4.727572e+01
1.680000e-06	-7.489373e-07	-6.524798e-10	-5.217426e+00	-4.676164e+01
1.690000e-06	-7.027360e-07	-6.430329e-10	-4.895567e+00	-4.622592e+01
1.700000e-06	-6.564778e-07	-6.333406e-10	-4.573312e+00	-4.566764e+01
1.710000e-06	-6.102119e-07	-6.257689e-10	-4.251004e+00	-4.508583e+01
1.720000e-06	-5.637730e-07	-6.182612e-10	-3.927490e+00	-4.447951e+01
1.730000e-06	-5.172650e-07	-6.074457e-10	-3.603495e+00	-4.384770e+01
1.740000e-06	-4.707595e-07	-5.947994e-10	-3.279517e+00	-4.318940e+01
1.750000e-06	-4.241756e-07	-5.814575e-10	-2.954993e+00	-4.250363e+01
1.760000e-06	-3.775879e-07	-5.675253e-10	-2.630443e+00	-4.178944e+01
1.770000e-06	-3.309278e-07	-5.563649e-10	-2.305388e+00	-4.104588e+01
1.780000e-06	-2.842224e-07	-5.465203e-10	-1.980018e+00	-4.027204e+01
1.790000e-06	-2.375306e-07	-5.366182e-10	-1.654742e+00	-3.946705e+01
1.800000e-06	-1.908616e-07	-5.252348e-10	-1.329625e+00	-3.863012e+01
1.810000e-06	-1.442637e-07	-5.117823e-10	-1.005004e+00	-3.776048e+01
1.820000e-06	-9.763560e-08	-4.964637e-10	-6.801724e-01	-3.685745e+01
1.830000e-06	-5.095186e-08	-4.805490e-10	-3.549530e-01	-3.592045e+01
1.840000e-06	-4.250378e-09	-4.659080e-10	-2.961000e-02	-3.494894e+01
1.850000e-06	4.249128e-08	-4.531406e-10	2.960129e-01	-3.394252e+01
1.860000e-06	8.922396e-08	-4.398332e-10	6.215732e-01	-3.290086e+01
1.870000e-06	1.359578e-07	-4.255296e-10	9.471417e-01	-3.182375e+01
1.880000e-06	1.827087e-07	-4.087472e-10	1.272829e+00	-3.071111e+01
1.890000e-06	2.293477e-07	-3.903591e-10	1.597737e+00	-2.956295e+01
1.900000e-06	2.759024e-07	-3.719566e-10	1.922057e+00	-2.837943e+01
1.910000e-06	3.224652e-07	-3.511134e-10	2.246434e+00	-2.716082e+01
1.920000e-06	3.690110e-07	-3.281387e-10	2.570692e+00	-2.590754e+01
1.930000e-06	4.155835e-07	-3.083462e-10	2.895137e+00	-2.462013e+01
1.940000e-06	4.621727e-07	-2.922136e-10	3.219698e+00	-2.329927e+01
1.950000e-06	5.086552e-07	-2.773715e-10	3.543515e+00	-2.194577e+01
1.960000e-06	5.551052e-07	-2.636368e-10	3.867106e+00	-2.056060e+01
1.970000e-06	6.015627e-07	-2.471858e-10	4.190749e+00	-1.914484e+01
1.980000e-06	6.478721e-07	-2.261830e-10	4.513361e+00	-1.769971e+01
1.990000e-06	6.941180e-07	-2.014216e-10	4.835531e+00	-1.622658e+01
2.000000e-06	7.403629e-07	-1.749235e-10	5.157692e+00	-1.472692e+01
2.010000e-06	7.864692e-07	-1.527797e-10	5.478889e+00	-1.320236e+01
2.020000e-06	8.325575e-07	-1.341308e-10	5.799961e+00	-1.165463e+01
2.030000e-06	8.786886e-07	-1.154307e-10	6.121330e+00	-1.008556e+01
2.040000e-06	9.247293e-07	-9.540812e-11	6.442070e+00	-8.497129e+00
2.050000e-06	9.706632e-07	-7.429201e-11	6.762065e+00	-6.891380e+00
2.060000e-06	1.016516e-06	-5.056450e-11	7.081500e+00	-5.270467e+00
2.070000e-06	1.062333e-06	-2.461377e-11	7.400680e+00	-3.636626e+00
2.080000e-06	1.108080e-06	-1.259280e-12	7.719369e+00	-1.992164e+00
2.090000e-06	1.153805e-06	2.073984e-11	8.037914e+00	-3.394569e-01
2.100000e-06	1.199519e-06	4.260988e-11	8.356375e+00	1.319070e+00
2.110000e-06	1.245107e-06	6.410755e-11	8.673958e+00	2.980950e+00
2.120000e-06	1.290498e-06	8.683630e-11	8.990173e+00	4.643687e+00
2.130000e-06	1.335784e-06	1.107472e-10	9.305659e+00	6.304769e+00
2.140000e-06	1.380995e-06	1.338891e-10	9.620615e+00	7.961684e+00
2.150000e-06	1.426147e-06	1.565080e-10	9.935168e+00	9.611930e+00
2.160000e-06	1.471318e-06	1.779681e-10	1.024985e+01	1.125303e+01
2.170000e-06	1.516354e-06	1.978656e-10	1.056359e+01	1.288256e+01
2.180000e-06	1.561192e-06	2.192107e-10	1.087594e+01	1.449812e+01
2.190000e-06	1.605909e-06	2.425037e-10	1.118747e+01	1.609742e+01
2.200000e-06	1.650512e-06	2.653906e-10	1.149819e+01	1.767822e+01
2.210000e-06	1.695001e-06	2.875656e-10	1.180812e+01	1.923839e+01
2.220000e-06	1.739365e-06	3.091183e-10	1.211718e+01	2.077590e+01
2.230000e-06	1.783538e-06	3.293564e-10	1.242491e+01	2.228886e+01
2.240000e-06	1.827566e-06	3.485166e-10	1.273163e+01	2.377548e+01
2.250000e-06	1.871528e-06	3.666925e-10	1.303789e+01	2.523414e+01
2.260000e-06	1.915414e-06	3.834662e-10	1.334362e+01	2.666335e+01
2.270000e-06	1.959255e-06	4.007037e-10	1.364903e+01	2.806179e+01
2.280000e-06	2.003059e-06	4.190264e-10	1.395419e+01	2.942830e+01
2.290000e-06	2.046822e-06	4.355310e-10	1.425906e+01	3.076187e+01
2.300000e-06	2.090520e-06	4.505382e-10	1.456348e+01	3.206169e+01
2.310000e-06	2.134122e-06	4.672303e-10	1.486723e+01	3.332709e+01
2.320000e-06	2.177649e-06	4.861247e-10	1.517045e+01	3.455757e+01
2.330000e-06	2.221037e-06	5.050876e-10	1.547272e+01	3.575282e+01
2.340000e-06	2.264266e-06	5.233771e-10	1.577387e+01	3.691266e+01
2.350000e-06	2.307362e-06	5.410004e-10	1.607410e+01	3.803708e+01
2.360000e-06	2.350176e-06	5.570584e-10	1.637235e+01	3.912621e+01
2.370000e-06	2.392592e-06	5.712709e-10	1.666785e+01	4.018031e+01
2.380000e-06	2.434738e-06	5.828177e-10	1.696145e+01	4.119978e+01
2.390000e-06	2.476683e-06	5.951249e-10	1.725366e+01	4.218511e+01
2.400000e-06	2.518203e-06	6.095665e-10	1.754290e+01	4.313690e+01
2.410000e-06	2.559274e-06	6.241436e-10	1.782903e+01	4.405585e+01
2.420000e-06	2.600031e-06	6.359089e-10	1.811295e+01	4.494269e+01
2.430000e-06	2.640498e-06	6.446209e-10	1.839487e+01	4.579825e+01
2.440000e-06	2.680800e-06	6.541760e-10	1.867563e+01	4.662338e+01
2.450000e-06	2.721034e-06	6.652355e-10	1.895591e+01	4.741894e+01
2.460000e-06	2.761110e-06	6.771773e-10	1.923510e+01	4.818583e+01
2.470000e-06	2.801023e-06	6.880114e-10	1.951316e+01	4.892494e+01
2.480000e-06	2.840845e-06	6.972052e-10	1.979057e+01	4.963713e+01
2.490000e-06	2.880558e-06	7.064522e-10	2.006723e+01	5.032327e+01
2.500000e-06	2.920142e-06	7.159457e-10	2.034299e+01	5.098415e+01
2.510000e-06	2.959565e-06	7.253503e-10	2.061763e+01	5.162054e+01
2.520000e-06	2.998762e-06	7.335333e-10	2.089069e+01	5.223318e+01
2.530000e-06	3.037710e-06	7.411460e-10	2.116202e+01	5.282271e+01
2.540000e-06	3.076455e-06	7.495525e-10	2.143193e+01	5.338974e+01
2.550000e-06	3.114967e-06	7.582432e-10	2.170023e+01	5.393483e+01
2.560000e-06	3.153255e-06	7.673167e-10	2.196696e+01	5.445845e+01
2.570000e-06	3.191354e-06	7.763340e-10	2.223237e+01	5.496103e+01
2.580000e-06	3.229261e-06	7.834219e-10	2.249645e+01	5.544295e+01
2.590000e-06	3.266992e-06	7.894296e-10	2.275930e+01	5.590453e+01
2.600000e-06	3.304534e-06	7.961902e-10	2.302083e+01	5.634606e+01
2.610000e-06	3.341894e-06	8.040798e-10	2.328110e+01	5.676779e+01
2.620000e-06	3.378928e-06	8.121762e-10	2.353909e+01	5.716995e+01
2.630000e-06	3.415613e-06	8.196389e-10	2.379466e+01	5.755274e+01
2.640000e-06	3.452062e-06	8.262231e-10	2.404858e+01	5.791638e+01
2.650000e-06	3.488253e-06	8.312824e-10	2.430070e+01	5.826107e+01
2.660000e-06	3.524266e-06	8.350096e-10	2.455159e+01	5.858704e+01
2.670000e-06	3.560173e-06	8.388454e-10	2.480173e+01	5.889454e+01
2.680000e-06	3.595990e-06	8.423186e-10	2.505124e+01	5.918385e+01
2.690000e-06	3.631714e-06	8.460586e-10	2.530011e+01	5.945529e+01
2.700000e-06	3.667264e-06	8.503449e-10	2.554777e+01	5.970924e+01
2.710000e-06	3.702590e-06	8.538130e-10	2.579387e+01	5.994612e+01
2.720000e-06	3.737533e-06	8.593075e-10	2.603729e+01	6.016642e+01
2.730000e-06	3.772059e-06	8.647125e-10	2.627782e+01	6.037069e+01
2.740000e-06	3.806148e-06	8.695811e-10	2.651529e+01	6.055952e+01
2.750000e-06	3.839692e-06	8.723801e-10	2.674898e+01	6.073360e+01
2.760000e-06	3.872805e-06	8.726296e-10	2.697966e+01	6.089363e+01
2.770000e-06	3.905568e-06	8.725389e-10	2.720790e+01	6.104042e+01
2.780000e-06	3.937959e-06	8.734580e-10	2.743355e+01	6.117477e+01
2.790000e-06	3.970059e-06	8.779093e-10	2.765717e+01	6.129757e+01
2.800000e-06	4.002023e-06	8.839080e-10	2.787985e+01	6.140971e+01
2.810000e-06	4.033854e-06	8.885761e-10	2.810160e+01	6.151212e+01
2.820000e-06	4.065528e-06	8.933434e-10	2.832225e+01	6.160573e+01
2.830000e-06	4.097009e-06	8.974794e-10	2.854156e+01	6.169147e+01
2.840000e-06	4.128182e-06	8.983729e-10	2.875873e+01	6.177027e+01
2.850000e-06	4.158996e-06	8.962363e-10	2.897339e+01	6.184302e+01
2.860000e-06	4.189435e-06	8.953058e-10	2.918544e+01	6.191058e+01
2.870000e-06	4.219555e-06	8.964111e-10	2.939527e+01	6.197375e+01
2.880000e-06	4.249409e-06	8.975852e-10	2.960325e+01	6.203330e+01
2.890000e-06	4.278984e-06	8.993851e-10	2.980928e+01	6.208990e+01
2.900000e-06	4.308325e-06	8.998110e-10	3.001368e+01	6.214416e+01
