# Temperatura_=_-16.3
# Concentracion g/m^3_=_1620.0
# C_Vs_to_Am_M_A/Vsm_=_65563218390.804596
# pendiente_HvsI_1/m_=_3716.3
# ordenada_HvsI_A/m_=_1297.0
# frecuencia_Hz_=_135107.46768812818

Tiempo_(s)	Campo_(V.s)	Magnetizacion_(V.s)	Campo_(kA/m)	Magnetizacion_(A/m)
0.000000e+00	-5.514529e-06	-8.878274e-10	-3.836366e+01	-5.906661e+01
1.000000e-08	-5.514800e-06	-8.835442e-10	-3.836554e+01	-5.906137e+01
2.000000e-08	-5.514811e-06	-8.830366e-10	-3.836562e+01	-5.906245e+01
3.000000e-08	-5.514525e-06	-8.841465e-10	-3.836363e+01	-5.906977e+01
4.000000e-08	-5.513857e-06	-8.841044e-10	-3.835898e+01	-5.908314e+01
5.000000e-08	-5.512580e-06	-8.820240e-10	-3.835010e+01	-5.910224e+01
6.000000e-08	-5.510597e-06	-8.733652e-10	-3.833630e+01	-5.912664e+01
7.000000e-08	-5.508002e-06	-8.739413e-10	-3.831826e+01	-5.915581e+01
8.000000e-08	-5.504946e-06	-8.892637e-10	-3.829699e+01	-5.918910e+01
9.000000e-08	-5.501427e-06	-9.005228e-10	-3.827251e+01	-5.922576e+01
1.000000e-07	-5.497448e-06	-8.945776e-10	-3.824483e+01	-5.926499e+01
1.100000e-07	-5.493156e-06	-8.898375e-10	-3.821497e+01	-5.930587e+01
1.200000e-07	-5.488615e-06	-8.281953e-10	-3.818338e+01	-5.934747e+01
1.300000e-07	-5.483821e-06	-8.705342e-10	-3.815003e+01	-5.938879e+01
1.400000e-07	-5.478656e-06	-8.719776e-10	-3.811410e+01	-5.942883e+01
1.500000e-07	-5.473111e-06	-9.061008e-10	-3.807552e+01	-5.946658e+01
1.600000e-07	-5.467194e-06	-8.576168e-10	-3.803435e+01	-5.950104e+01
1.700000e-07	-5.460883e-06	-8.420431e-10	-3.799045e+01	-5.953125e+01
1.800000e-07	-5.454140e-06	-8.882561e-10	-3.794354e+01	-5.955630e+01
1.900000e-07	-5.446983e-06	-8.884593e-10	-3.789375e+01	-5.957537e+01
2.000000e-07	-5.439562e-06	-8.870132e-10	-3.784213e+01	-5.958769e+01
2.100000e-07	-5.431950e-06	-8.616054e-10	-3.778917e+01	-5.959262e+01
2.200000e-07	-5.424027e-06	-9.257778e-10	-3.773405e+01	-5.958963e+01
2.300000e-07	-5.415778e-06	-9.125273e-10	-3.767666e+01	-5.957831e+01
2.400000e-07	-5.407181e-06	-8.994570e-10	-3.761686e+01	-5.955840e+01
2.500000e-07	-5.397971e-06	-8.438580e-10	-3.755278e+01	-5.952976e+01
2.600000e-07	-5.388086e-06	-8.886274e-10	-3.748402e+01	-5.949241e+01
2.700000e-07	-5.377548e-06	-8.852068e-10	-3.741071e+01	-5.944651e+01
2.800000e-07	-5.366492e-06	-8.972552e-10	-3.733379e+01	-5.939238e+01
2.900000e-07	-5.354992e-06	-8.617806e-10	-3.725379e+01	-5.933045e+01
3.000000e-07	-5.343093e-06	-8.770315e-10	-3.717101e+01	-5.926132e+01
3.100000e-07	-5.330851e-06	-8.716447e-10	-3.708584e+01	-5.918567e+01
3.200000e-07	-5.318211e-06	-8.792323e-10	-3.699791e+01	-5.910433e+01
3.300000e-07	-5.305102e-06	-8.588404e-10	-3.690671e+01	-5.901822e+01
3.400000e-07	-5.291573e-06	-8.670857e-10	-3.681259e+01	-5.892833e+01
3.500000e-07	-5.277744e-06	-8.865776e-10	-3.671638e+01	-5.883571e+01
3.600000e-07	-5.263526e-06	-8.809591e-10	-3.661747e+01	-5.874149e+01
3.700000e-07	-5.248760e-06	-8.610695e-10	-3.651475e+01	-5.864679e+01
3.800000e-07	-5.233524e-06	-8.693907e-10	-3.640875e+01	-5.855276e+01
3.900000e-07	-5.217740e-06	-8.849538e-10	-3.629895e+01	-5.846054e+01
4.000000e-07	-5.201412e-06	-8.556908e-10	-3.618536e+01	-5.837123e+01
4.100000e-07	-5.184655e-06	-8.670993e-10	-3.606878e+01	-5.828590e+01
4.200000e-07	-5.167442e-06	-8.827641e-10	-3.594903e+01	-5.820552e+01
4.300000e-07	-5.149949e-06	-8.708378e-10	-3.582734e+01	-5.813101e+01
4.400000e-07	-5.132193e-06	-8.416041e-10	-3.570381e+01	-5.806319e+01
4.500000e-07	-5.114101e-06	-8.954592e-10	-3.557795e+01	-5.800276e+01
4.600000e-07	-5.095559e-06	-8.779980e-10	-3.544895e+01	-5.795031e+01
4.700000e-07	-5.076629e-06	-8.447222e-10	-3.531726e+01	-5.790632e+01
4.800000e-07	-5.057458e-06	-8.564404e-10	-3.518389e+01	-5.787110e+01
4.900000e-07	-5.038024e-06	-8.938646e-10	-3.504869e+01	-5.784486e+01
5.000000e-07	-5.018360e-06	-8.344565e-10	-3.491190e+01	-5.782767e+01
5.100000e-07	-4.998480e-06	-8.481278e-10	-3.477359e+01	-5.781944e+01
5.200000e-07	-4.978316e-06	-8.861346e-10	-3.463332e+01	-5.782000e+01
5.300000e-07	-4.957755e-06	-8.703762e-10	-3.449028e+01	-5.782901e+01
5.400000e-07	-4.936869e-06	-8.364270e-10	-3.434498e+01	-5.784605e+01
5.500000e-07	-4.915700e-06	-8.902160e-10	-3.419770e+01	-5.787058e+01
5.600000e-07	-4.894176e-06	-8.756026e-10	-3.404797e+01	-5.790197e+01
5.700000e-07	-4.872280e-06	-8.358090e-10	-3.389564e+01	-5.793953e+01
5.800000e-07	-4.849997e-06	-8.539729e-10	-3.374062e+01	-5.798248e+01
5.900000e-07	-4.827353e-06	-8.790159e-10	-3.358309e+01	-5.803002e+01
6.000000e-07	-4.804297e-06	-8.406890e-10	-3.342270e+01	-5.808129e+01
6.100000e-07	-4.780920e-06	-8.539794e-10	-3.326006e+01	-5.813543e+01
6.200000e-07	-4.757355e-06	-8.820420e-10	-3.309613e+01	-5.819158e+01
6.300000e-07	-4.733601e-06	-8.631081e-10	-3.293087e+01	-5.824888e+01
6.400000e-07	-4.709583e-06	-8.568826e-10	-3.276378e+01	-5.830651e+01
6.500000e-07	-4.685239e-06	-8.763500e-10	-3.259443e+01	-5.836368e+01
6.600000e-07	-4.660497e-06	-8.666749e-10	-3.242230e+01	-5.841966e+01
6.700000e-07	-4.635313e-06	-8.554717e-10	-3.224710e+01	-5.847377e+01
6.800000e-07	-4.609558e-06	-8.756192e-10	-3.206792e+01	-5.852542e+01
6.900000e-07	-4.583241e-06	-8.726874e-10	-3.188484e+01	-5.857408e+01
7.000000e-07	-4.556529e-06	-8.682880e-10	-3.169902e+01	-5.861931e+01
7.100000e-07	-4.529380e-06	-8.727077e-10	-3.151014e+01	-5.866074e+01
7.200000e-07	-4.501851e-06	-8.767189e-10	-3.131863e+01	-5.869811e+01
7.300000e-07	-4.474148e-06	-8.625892e-10	-3.112590e+01	-5.873122e+01
7.400000e-07	-4.446336e-06	-8.690609e-10	-3.093242e+01	-5.875999e+01
7.500000e-07	-4.418335e-06	-8.643520e-10	-3.073762e+01	-5.878438e+01
7.600000e-07	-4.390034e-06	-8.653119e-10	-3.054074e+01	-5.880445e+01
7.700000e-07	-4.361419e-06	-8.642801e-10	-3.034166e+01	-5.882032e+01
7.800000e-07	-4.332424e-06	-8.719363e-10	-3.013995e+01	-5.883217e+01
7.900000e-07	-4.303069e-06	-8.633540e-10	-2.993574e+01	-5.884023e+01
8.000000e-07	-4.273450e-06	-8.691035e-10	-2.972968e+01	-5.884478e+01
8.100000e-07	-4.243559e-06	-8.654212e-10	-2.952174e+01	-5.884614e+01
8.200000e-07	-4.213396e-06	-8.625022e-10	-2.931190e+01	-5.884464e+01
8.300000e-07	-4.182958e-06	-8.550879e-10	-2.910014e+01	-5.884063e+01
8.400000e-07	-4.152156e-06	-8.631760e-10	-2.888586e+01	-5.883447e+01
8.500000e-07	-4.121002e-06	-8.630566e-10	-2.866912e+01	-5.882651e+01
8.600000e-07	-4.089599e-06	-8.647217e-10	-2.845066e+01	-5.881710e+01
8.700000e-07	-4.058069e-06	-8.640611e-10	-2.823131e+01	-5.880656e+01
8.800000e-07	-4.026467e-06	-8.672247e-10	-2.801146e+01	-5.879520e+01
8.900000e-07	-3.994671e-06	-8.611219e-10	-2.779026e+01	-5.878328e+01
9.000000e-07	-3.962701e-06	-8.584041e-10	-2.756785e+01	-5.877105e+01
9.100000e-07	-3.930439e-06	-8.571651e-10	-2.734341e+01	-5.875869e+01
9.200000e-07	-3.897705e-06	-8.553560e-10	-2.711568e+01	-5.874638e+01
9.300000e-07	-3.864554e-06	-8.560439e-10	-2.688506e+01	-5.873424e+01
9.400000e-07	-3.830911e-06	-8.626821e-10	-2.665101e+01	-5.872233e+01
9.500000e-07	-3.796805e-06	-8.656191e-10	-2.641374e+01	-5.871072e+01
9.600000e-07	-3.762310e-06	-8.599897e-10	-2.617376e+01	-5.869940e+01
9.700000e-07	-3.727353e-06	-8.605252e-10	-2.593057e+01	-5.868834e+01
9.800000e-07	-3.692059e-06	-8.584927e-10	-2.568504e+01	-5.867749e+01
9.900000e-07	-3.656604e-06	-8.557302e-10	-2.543838e+01	-5.866677e+01
1.000000e-06	-3.621011e-06	-8.515783e-10	-2.519077e+01	-5.865607e+01
1.010000e-06	-3.585271e-06	-8.560753e-10	-2.494213e+01	-5.864527e+01
1.020000e-06	-3.549373e-06	-8.562924e-10	-2.469240e+01	-5.863423e+01
1.030000e-06	-3.513319e-06	-8.604949e-10	-2.444158e+01	-5.862283e+01
1.040000e-06	-3.477101e-06	-8.638619e-10	-2.418961e+01	-5.861090e+01
1.050000e-06	-3.440617e-06	-8.658216e-10	-2.393580e+01	-5.859832e+01
1.060000e-06	-3.403860e-06	-8.583692e-10	-2.368009e+01	-5.858495e+01
1.070000e-06	-3.366890e-06	-8.556880e-10	-2.342289e+01	-5.857066e+01
1.080000e-06	-3.329672e-06	-8.520615e-10	-2.316398e+01	-5.855534e+01
1.090000e-06	-3.292222e-06	-8.526136e-10	-2.290344e+01	-5.853888e+01
1.100000e-06	-3.254530e-06	-8.507742e-10	-2.264123e+01	-5.852118e+01
1.110000e-06	-3.216588e-06	-8.547722e-10	-2.237727e+01	-5.850218e+01
1.120000e-06	-3.178453e-06	-8.517691e-10	-2.211197e+01	-5.848180e+01
1.130000e-06	-3.140099e-06	-8.488417e-10	-2.184515e+01	-5.846000e+01
1.140000e-06	-3.101488e-06	-8.466384e-10	-2.157654e+01	-5.843673e+01
1.150000e-06	-3.062625e-06	-8.491131e-10	-2.130617e+01	-5.841196e+01
1.160000e-06	-3.023531e-06	-8.486718e-10	-2.103420e+01	-5.838565e+01
1.170000e-06	-2.984215e-06	-8.492732e-10	-2.076069e+01	-5.835777e+01
1.180000e-06	-2.944765e-06	-8.501190e-10	-2.048624e+01	-5.832829e+01
1.190000e-06	-2.905225e-06	-8.514276e-10	-2.021117e+01	-5.829718e+01
1.200000e-06	-2.865555e-06	-8.512133e-10	-1.993519e+01	-5.826437e+01
1.210000e-06	-2.825777e-06	-8.508311e-10	-1.965846e+01	-5.822981e+01
1.220000e-06	-2.785890e-06	-8.502075e-10	-1.938098e+01	-5.819341e+01
1.230000e-06	-2.745863e-06	-8.504091e-10	-1.910251e+01	-5.815506e+01
1.240000e-06	-2.705653e-06	-8.505092e-10	-1.882278e+01	-5.811463e+01
1.250000e-06	-2.665271e-06	-8.488996e-10	-1.854185e+01	-5.807196e+01
1.260000e-06	-2.624657e-06	-8.473671e-10	-1.825930e+01	-5.802686e+01
1.270000e-06	-2.583792e-06	-8.445323e-10	-1.797501e+01	-5.797911e+01
1.280000e-06	-2.542734e-06	-8.435819e-10	-1.768938e+01	-5.792845e+01
1.290000e-06	-2.501383e-06	-8.400933e-10	-1.740170e+01	-5.787460e+01
1.300000e-06	-2.459674e-06	-8.391858e-10	-1.711154e+01	-5.781723e+01
1.310000e-06	-2.417604e-06	-8.373765e-10	-1.681887e+01	-5.775599e+01
1.320000e-06	-2.375243e-06	-8.378742e-10	-1.652417e+01	-5.769050e+01
1.330000e-06	-2.332636e-06	-8.350686e-10	-1.622776e+01	-5.762035e+01
1.340000e-06	-2.289767e-06	-8.341271e-10	-1.592953e+01	-5.754510e+01
1.350000e-06	-2.246727e-06	-8.336868e-10	-1.563011e+01	-5.746429e+01
1.360000e-06	-2.203506e-06	-8.339920e-10	-1.532942e+01	-5.737746e+01
1.370000e-06	-2.160058e-06	-8.296741e-10	-1.502717e+01	-5.728411e+01
1.380000e-06	-2.116445e-06	-8.241130e-10	-1.472376e+01	-5.718373e+01
1.390000e-06	-2.072775e-06	-8.177678e-10	-1.441995e+01	-5.707584e+01
1.400000e-06	-2.029067e-06	-8.139481e-10	-1.411588e+01	-5.695991e+01
1.410000e-06	-1.985325e-06	-8.111149e-10	-1.381158e+01	-5.683545e+01
1.420000e-06	-1.941495e-06	-8.096291e-10	-1.350665e+01	-5.670194e+01
1.430000e-06	-1.897546e-06	-8.069206e-10	-1.320091e+01	-5.655891e+01
1.440000e-06	-1.853461e-06	-8.053316e-10	-1.289422e+01	-5.640586e+01
1.450000e-06	-1.809308e-06	-8.019566e-10	-1.258705e+01	-5.624233e+01
1.460000e-06	-1.765106e-06	-7.964188e-10	-1.227955e+01	-5.606787e+01
1.470000e-06	-1.720653e-06	-7.895760e-10	-1.197030e+01	-5.588204e+01
1.480000e-06	-1.676063e-06	-7.842147e-10	-1.166009e+01	-5.568442e+01
1.490000e-06	-1.631400e-06	-7.805442e-10	-1.134938e+01	-5.547461e+01
1.500000e-06	-1.586541e-06	-7.772013e-10	-1.103730e+01	-5.525222e+01
1.510000e-06	-1.541608e-06	-7.747796e-10	-1.072471e+01	-5.501687e+01
1.520000e-06	-1.496681e-06	-7.711974e-10	-1.041216e+01	-5.476822e+01
1.530000e-06	-1.451642e-06	-7.667667e-10	-1.009883e+01	-5.450589e+01
1.540000e-06	-1.406407e-06	-7.621829e-10	-9.784138e+00	-5.422955e+01
1.550000e-06	-1.361053e-06	-7.560801e-10	-9.468616e+00	-5.393885e+01
1.560000e-06	-1.315634e-06	-7.487032e-10	-9.152646e+00	-5.363343e+01
1.570000e-06	-1.270042e-06	-7.428646e-10	-8.835473e+00	-5.331295e+01
1.580000e-06	-1.224326e-06	-7.371927e-10	-8.517435e+00	-5.297704e+01
1.590000e-06	-1.178585e-06	-7.311602e-10	-8.199220e+00	-5.262531e+01
1.600000e-06	-1.132786e-06	-7.244758e-10	-7.880600e+00	-5.225737e+01
1.610000e-06	-1.086913e-06	-7.190766e-10	-7.561471e+00	-5.187279e+01
1.620000e-06	-1.040950e-06	-7.126653e-10	-7.241713e+00	-5.147112e+01
1.630000e-06	-9.948917e-07	-7.082887e-10	-6.921296e+00	-5.105188e+01
1.640000e-06	-9.487995e-07	-7.034007e-10	-6.600640e+00	-5.061455e+01
1.650000e-06	-9.026795e-07	-6.962813e-10	-6.279791e+00	-5.015857e+01
1.660000e-06	-8.565014e-07	-6.852858e-10	-5.958537e+00	-4.968336e+01
1.670000e-06	-8.102373e-07	-6.747580e-10	-5.636686e+00	-4.918830e+01
1.680000e-06	-7.639007e-07	-6.643312e-10	-5.314330e+00	-4.867271e+01
1.690000e-06	-7.174839e-07	-6.540399e-10	-4.991416e+00	-4.813589e+01
1.700000e-06	-6.709735e-07	-6.456724e-10	-4.667851e+00	-4.757711e+01
1.710000e-06	-6.244537e-07	-6.399637e-10	-4.344220e+00	-4.699560e+01
1.720000e-06	-5.779569e-07	-6.345076e-10	-4.020750e+00	-4.639056e+01
1.730000e-06	-5.314436e-07	-6.266897e-10	-3.697164e+00	-4.576117e+01
1.740000e-06	-4.848505e-07	-6.153054e-10	-3.373024e+00	-4.510660e+01
1.750000e-06	-4.381580e-07	-6.020696e-10	-3.048192e+00	-4.442598e+01
1.760000e-06	-3.914204e-07	-5.879758e-10	-2.723046e+00	-4.371847e+01
1.770000e-06	-3.447590e-07	-5.758797e-10	-2.398431e+00	-4.298320e+01
1.780000e-06	-2.981698e-07	-5.657234e-10	-2.074318e+00	-4.221934e+01
1.790000e-06	-2.515279e-07	-5.559452e-10	-1.749838e+00	-4.142607e+01
1.800000e-06	-2.047361e-07	-5.457358e-10	-1.424315e+00	-4.060258e+01
1.810000e-06	-1.578753e-07	-5.347317e-10	-1.098312e+00	-3.974813e+01
1.820000e-06	-1.110617e-07	-5.216253e-10	-7.726374e-01	-3.886200e+01
1.830000e-06	-6.431130e-08	-5.057450e-10	-4.474030e-01	-3.794355e+01
1.840000e-06	-1.756449e-08	-4.901259e-10	-1.221932e-01	-3.699219e+01
1.850000e-06	2.921407e-08	-4.749110e-10	2.032374e-01	-3.600741e+01
1.860000e-06	7.594800e-08	-4.602928e-10	5.283576e-01	-3.498880e+01
1.870000e-06	1.226459e-07	-4.461860e-10	8.532268e-01	-3.393604e+01
1.880000e-06	1.693535e-07	-4.313304e-10	1.178164e+00	-3.284889e+01
1.890000e-06	2.160473e-07	-4.151691e-10	1.503005e+00	-3.172725e+01
1.900000e-06	2.627221e-07	-3.972623e-10	1.827714e+00	-3.057113e+01
1.910000e-06	3.093725e-07	-3.758268e-10	2.152253e+00	-2.938067e+01
1.920000e-06	3.560016e-07	-3.553506e-10	2.476644e+00	-2.815613e+01
1.930000e-06	4.026372e-07	-3.386069e-10	2.801080e+00	-2.689792e+01
1.940000e-06	4.492986e-07	-3.226042e-10	3.125695e+00	-2.560656e+01
1.950000e-06	4.959247e-07	-3.058407e-10	3.450065e+00	-2.428275e+01
1.960000e-06	5.424832e-07	-2.894643e-10	3.773965e+00	-2.292730e+01
1.970000e-06	5.890313e-07	-2.712911e-10	4.097793e+00	-2.154120e+01
1.980000e-06	6.355122e-07	-2.541866e-10	4.421153e+00	-2.012554e+01
1.990000e-06	6.818213e-07	-2.357649e-10	4.743317e+00	-1.868158e+01
2.000000e-06	7.280913e-07	-2.129417e-10	5.065210e+00	-1.721072e+01
2.010000e-06	7.744357e-07	-1.862992e-10	5.387620e+00	-1.571446e+01
2.020000e-06	8.207325e-07	-1.601737e-10	5.709699e+00	-1.419447e+01
2.030000e-06	8.669327e-07	-1.367944e-10	6.031106e+00	-1.265251e+01
2.040000e-06	9.130202e-07	-1.171473e-10	6.351730e+00	-1.109048e+01
2.050000e-06	9.590339e-07	-9.972083e-11	6.671839e+00	-9.510355e+00
2.060000e-06	1.005022e-06	-8.180267e-11	6.991768e+00	-7.914227e+00
2.070000e-06	1.050939e-06	-5.982430e-11	7.311205e+00	-6.304265e+00
2.080000e-06	1.096759e-06	-3.475315e-11	7.629967e+00	-4.682711e+00
2.090000e-06	1.142510e-06	-8.074694e-12	7.948251e+00	-3.051867e+00
2.100000e-06	1.188222e-06	1.960089e-11	8.266260e+00	-1.414085e+00
2.110000e-06	1.233843e-06	4.530209e-11	8.583639e+00	2.282520e-01
2.120000e-06	1.279309e-06	6.721084e-11	8.899936e+00	1.872737e+00
2.130000e-06	1.324675e-06	8.486691e-11	9.215542e+00	3.516957e+00
2.140000e-06	1.370037e-06	1.007605e-10	9.531117e+00	5.158507e+00
2.150000e-06	1.415326e-06	1.174242e-10	9.846187e+00	6.795003e+00
2.160000e-06	1.460442e-06	1.389621e-10	1.016005e+01	8.424096e+00
2.170000e-06	1.505487e-06	1.641256e-10	1.047342e+01	1.004349e+01
2.180000e-06	1.550440e-06	1.910523e-10	1.078615e+01	1.165094e+01
2.190000e-06	1.595233e-06	2.177813e-10	1.109777e+01	1.324429e+01
2.200000e-06	1.639849e-06	2.420032e-10	1.140816e+01	1.482145e+01
2.210000e-06	1.684315e-06	2.624372e-10	1.171750e+01	1.638046e+01
2.220000e-06	1.728666e-06	2.804328e-10	1.202604e+01	1.791943e+01
2.230000e-06	1.772906e-06	2.976033e-10	1.233381e+01	1.943662e+01
2.240000e-06	1.817025e-06	3.151198e-10	1.264074e+01	2.093038e+01
2.250000e-06	1.861014e-06	3.323859e-10	1.294676e+01	2.239921e+01
2.260000e-06	1.904970e-06	3.520917e-10	1.325256e+01	2.384175e+01
2.270000e-06	1.948900e-06	3.742581e-10	1.355817e+01	2.525676e+01
2.280000e-06	1.992752e-06	3.958562e-10	1.386324e+01	2.664316e+01
2.290000e-06	2.036496e-06	4.136732e-10	1.416756e+01	2.799999e+01
2.300000e-06	2.080208e-06	4.272031e-10	1.447166e+01	2.932645e+01
2.310000e-06	2.123928e-06	4.392266e-10	1.477582e+01	3.062186e+01
2.320000e-06	2.167534e-06	4.528896e-10	1.507917e+01	3.188569e+01
2.330000e-06	2.210963e-06	4.689472e-10	1.538130e+01	3.311753e+01
2.340000e-06	2.254293e-06	4.873741e-10	1.568274e+01	3.431709e+01
2.350000e-06	2.297476e-06	5.065096e-10	1.598316e+01	3.548421e+01
2.360000e-06	2.340423e-06	5.238719e-10	1.628193e+01	3.661882e+01
2.370000e-06	2.383102e-06	5.388701e-10	1.657884e+01	3.772096e+01
2.380000e-06	2.425445e-06	5.500774e-10	1.687341e+01	3.879075e+01
2.390000e-06	2.467542e-06	5.607503e-10	1.716628e+01	3.982839e+01
2.400000e-06	2.509401e-06	5.742135e-10	1.745749e+01	4.083417e+01
2.410000e-06	2.550871e-06	5.889428e-10	1.774598e+01	4.180842e+01
2.420000e-06	2.591962e-06	6.021811e-10	1.803185e+01	4.275150e+01
2.430000e-06	2.632717e-06	6.131451e-10	1.831538e+01	4.366383e+01
2.440000e-06	2.673204e-06	6.218521e-10	1.859704e+01	4.454587e+01
2.450000e-06	2.713505e-06	6.290820e-10	1.887740e+01	4.539806e+01
2.460000e-06	2.753614e-06	6.376692e-10	1.915643e+01	4.622089e+01
2.470000e-06	2.793568e-06	6.477342e-10	1.943439e+01	4.701482e+01
2.480000e-06	2.833405e-06	6.580659e-10	1.971153e+01	4.778033e+01
2.490000e-06	2.873120e-06	6.690918e-10	1.998781e+01	4.851789e+01
2.500000e-06	2.912735e-06	6.804638e-10	2.026341e+01	4.922794e+01
2.510000e-06	2.952238e-06	6.910238e-10	2.053823e+01	4.991092e+01
2.520000e-06	2.991544e-06	6.989992e-10	2.081168e+01	5.056725e+01
2.530000e-06	3.030608e-06	7.051740e-10	2.108344e+01	5.119733e+01
2.540000e-06	3.069504e-06	7.119548e-10	2.135402e+01	5.180154e+01
2.550000e-06	3.108193e-06	7.201221e-10	2.162318e+01	5.238027e+01
2.560000e-06	3.146596e-06	7.275139e-10	2.189034e+01	5.293386e+01
2.570000e-06	3.184769e-06	7.355788e-10	2.215591e+01	5.346267e+01
2.580000e-06	3.222699e-06	7.444633e-10	2.241978e+01	5.396707e+01
2.590000e-06	3.260411e-06	7.520353e-10	2.268214e+01	5.444739e+01
2.600000e-06	3.297961e-06	7.572567e-10	2.294336e+01	5.490402e+01
2.610000e-06	3.335302e-06	7.603426e-10	2.320314e+01	5.533734e+01
2.620000e-06	3.372444e-06	7.644647e-10	2.346153e+01	5.574774e+01
2.630000e-06	3.409311e-06	7.708434e-10	2.371801e+01	5.613567e+01
2.640000e-06	3.445867e-06	7.793507e-10	2.397232e+01	5.650160e+01
2.650000e-06	3.482173e-06	7.873135e-10	2.422490e+01	5.684603e+01
2.660000e-06	3.518244e-06	7.913526e-10	2.447584e+01	5.716953e+01
2.670000e-06	3.554169e-06	7.938253e-10	2.472576e+01	5.747269e+01
2.680000e-06	3.589958e-06	7.967853e-10	2.497474e+01	5.775618e+01
2.690000e-06	3.625634e-06	7.997776e-10	2.522293e+01	5.802070e+01
2.700000e-06	3.661200e-06	8.040233e-10	2.547036e+01	5.826702e+01
2.710000e-06	3.696622e-06	8.101730e-10	2.571678e+01	5.849594e+01
2.720000e-06	3.731877e-06	8.181632e-10	2.596205e+01	5.870835e+01
2.730000e-06	3.766815e-06	8.225535e-10	2.620511e+01	5.890516e+01
2.740000e-06	3.801235e-06	8.227287e-10	2.644456e+01	5.908731e+01
2.750000e-06	3.835095e-06	8.211870e-10	2.668012e+01	5.925580e+01
2.760000e-06	3.868435e-06	8.189889e-10	2.691206e+01	5.941166e+01
2.770000e-06	3.901371e-06	8.190888e-10	2.714119e+01	5.955592e+01
2.780000e-06	3.933941e-06	8.242804e-10	2.736777e+01	5.968962e+01
2.790000e-06	3.966164e-06	8.352090e-10	2.759194e+01	5.981382e+01
2.800000e-06	3.998172e-06	8.453323e-10	2.781462e+01	5.992956e+01
2.810000e-06	4.030009e-06	8.486788e-10	2.803610e+01	6.003784e+01
2.820000e-06	4.061660e-06	8.454835e-10	2.825629e+01	6.013965e+01
2.830000e-06	4.093129e-06	8.418819e-10	2.847522e+01	6.023592e+01
2.840000e-06	4.124396e-06	8.405480e-10	2.869274e+01	6.032753e+01
2.850000e-06	4.155345e-06	8.408128e-10	2.890804e+01	6.041529e+01
2.860000e-06	4.185914e-06	8.445057e-10	2.912071e+01	6.049995e+01
2.870000e-06	4.216217e-06	8.509714e-10	2.933152e+01	6.058214e+01
2.880000e-06	4.246299e-06	8.570188e-10	2.954080e+01	6.066243e+01
2.890000e-06	4.276097e-06	8.595705e-10	2.974809e+01	6.074129e+01
2.900000e-06	4.305604e-06	8.567657e-10	2.995337e+01	6.081907e+01
