# Temperatura_=_9.3
# Concentracion g/m^3_=_1620.0
# C_Vs_to_Am_M_A/Vsm_=_65563218390.804596
# pendiente_HvsI_1/m_=_3716.3
# ordenada_HvsI_A/m_=_1297.0
# frecuencia_Hz_=_135099.2597762739

Tiempo_(s)	Campo_(V.s)	Magnetizacion_(V.s)	Campo_(kA/m)	Magnetizacion_(A/m)
0.000000e+00	-5.518885e-06	-1.598399e-09	-3.837177e+01	-1.042678e+02
1.000000e-08	-5.519177e-06	-1.593589e-09	-3.837380e+01	-1.042009e+02
2.000000e-08	-5.519218e-06	-1.589966e-09	-3.837408e+01	-1.041388e+02
3.000000e-08	-5.519005e-06	-1.587847e-09	-3.837260e+01	-1.040822e+02
4.000000e-08	-5.518469e-06	-1.588244e-09	-3.836887e+01	-1.040315e+02
5.000000e-08	-5.517395e-06	-1.591568e-09	-3.836141e+01	-1.039869e+02
6.000000e-08	-5.515789e-06	-1.595747e-09	-3.835024e+01	-1.039486e+02
7.000000e-08	-5.513543e-06	-1.606126e-09	-3.833463e+01	-1.039166e+02
8.000000e-08	-5.510585e-06	-1.564940e-09	-3.831405e+01	-1.038910e+02
9.000000e-08	-5.507137e-06	-1.517927e-09	-3.829008e+01	-1.038713e+02
1.000000e-07	-5.503293e-06	-1.610816e-09	-3.826336e+01	-1.038573e+02
1.100000e-07	-5.499034e-06	-1.728060e-09	-3.823375e+01	-1.038484e+02
1.200000e-07	-5.494405e-06	-1.583112e-09	-3.820156e+01	-1.038440e+02
1.300000e-07	-5.489684e-06	-1.447589e-09	-3.816873e+01	-1.038433e+02
1.400000e-07	-5.484859e-06	-1.506755e-09	-3.813519e+01	-1.038454e+02
1.500000e-07	-5.479601e-06	-1.729072e-09	-3.809863e+01	-1.038494e+02
1.600000e-07	-5.473738e-06	-1.624978e-09	-3.805787e+01	-1.038542e+02
1.700000e-07	-5.467532e-06	-1.456140e-09	-3.801471e+01	-1.038587e+02
1.800000e-07	-5.461013e-06	-1.516845e-09	-3.796939e+01	-1.038616e+02
1.900000e-07	-5.453949e-06	-1.720634e-09	-3.792027e+01	-1.038619e+02
2.000000e-07	-5.446448e-06	-1.664770e-09	-3.786812e+01	-1.038583e+02
2.100000e-07	-5.438768e-06	-1.498199e-09	-3.781473e+01	-1.038495e+02
2.200000e-07	-5.430861e-06	-1.519971e-09	-3.775975e+01	-1.038346e+02
2.300000e-07	-5.422605e-06	-1.656422e-09	-3.770235e+01	-1.038123e+02
2.400000e-07	-5.413955e-06	-1.665672e-09	-3.764221e+01	-1.037818e+02
2.500000e-07	-5.404890e-06	-1.556215e-09	-3.757918e+01	-1.037419e+02
2.600000e-07	-5.395158e-06	-1.573284e-09	-3.751151e+01	-1.036920e+02
2.700000e-07	-5.384676e-06	-1.627446e-09	-3.743863e+01	-1.036313e+02
2.800000e-07	-5.373690e-06	-1.637318e-09	-3.736225e+01	-1.035592e+02
2.900000e-07	-5.362312e-06	-1.538711e-09	-3.728314e+01	-1.034754e+02
3.000000e-07	-5.350533e-06	-1.555830e-09	-3.720125e+01	-1.033796e+02
3.100000e-07	-5.338325e-06	-1.593334e-09	-3.711636e+01	-1.032716e+02
3.200000e-07	-5.325725e-06	-1.628283e-09	-3.702876e+01	-1.031514e+02
3.300000e-07	-5.312668e-06	-1.529041e-09	-3.693798e+01	-1.030193e+02
3.400000e-07	-5.299190e-06	-1.548788e-09	-3.684427e+01	-1.028755e+02
3.500000e-07	-5.285438e-06	-1.615630e-09	-3.674865e+01	-1.027204e+02
3.600000e-07	-5.271347e-06	-1.611197e-09	-3.665068e+01	-1.025547e+02
3.700000e-07	-5.256627e-06	-1.493234e-09	-3.654834e+01	-1.023789e+02
3.800000e-07	-5.241512e-06	-1.561324e-09	-3.644324e+01	-1.021938e+02
3.900000e-07	-5.226146e-06	-1.613623e-09	-3.633640e+01	-1.020003e+02
4.000000e-07	-5.210110e-06	-1.508534e-09	-3.622491e+01	-1.017993e+02
4.100000e-07	-5.193412e-06	-1.489242e-09	-3.610881e+01	-1.015916e+02
4.200000e-07	-5.176477e-06	-1.638580e-09	-3.599107e+01	-1.013782e+02
4.300000e-07	-5.159280e-06	-1.565812e-09	-3.587150e+01	-1.011601e+02
4.400000e-07	-5.141672e-06	-1.420873e-09	-3.574907e+01	-1.009382e+02
4.500000e-07	-5.123839e-06	-1.562040e-09	-3.562509e+01	-1.007134e+02
4.600000e-07	-5.105681e-06	-1.636216e-09	-3.549883e+01	-1.004866e+02
4.700000e-07	-5.086968e-06	-1.452336e-09	-3.536873e+01	-1.002585e+02
4.800000e-07	-5.067877e-06	-1.463311e-09	-3.523599e+01	-1.000299e+02
4.900000e-07	-5.048566e-06	-1.630330e-09	-3.510173e+01	-9.980137e+01
5.000000e-07	-5.028992e-06	-1.508606e-09	-3.496563e+01	-9.957347e+01
5.100000e-07	-5.009089e-06	-1.430192e-09	-3.482725e+01	-9.934661e+01
5.200000e-07	-4.988960e-06	-1.583364e-09	-3.468730e+01	-9.912113e+01
5.300000e-07	-4.968562e-06	-1.546917e-09	-3.454547e+01	-9.889723e+01
5.400000e-07	-4.947723e-06	-1.388371e-09	-3.440058e+01	-9.867503e+01
5.500000e-07	-4.926589e-06	-1.529620e-09	-3.425364e+01	-9.845453e+01
5.600000e-07	-4.905138e-06	-1.591799e-09	-3.410450e+01	-9.823565e+01
5.700000e-07	-4.883235e-06	-1.423260e-09	-3.395221e+01	-9.801820e+01
5.800000e-07	-4.861041e-06	-1.431911e-09	-3.379790e+01	-9.780193e+01
5.900000e-07	-4.838609e-06	-1.565441e-09	-3.364193e+01	-9.758652e+01
6.000000e-07	-4.815811e-06	-1.460900e-09	-3.348342e+01	-9.737158e+01
6.100000e-07	-4.792633e-06	-1.417177e-09	-3.332227e+01	-9.715668e+01
6.200000e-07	-4.769180e-06	-1.520546e-09	-3.315920e+01	-9.694138e+01
6.300000e-07	-4.745455e-06	-1.492695e-09	-3.299425e+01	-9.672519e+01
6.400000e-07	-4.721479e-06	-1.407783e-09	-3.282755e+01	-9.650763e+01
6.500000e-07	-4.697287e-06	-1.476606e-09	-3.265935e+01	-9.628825e+01
6.600000e-07	-4.672691e-06	-1.479791e-09	-3.248834e+01	-9.606659e+01
6.700000e-07	-4.647577e-06	-1.416843e-09	-3.231373e+01	-9.584224e+01
6.800000e-07	-4.621990e-06	-1.447606e-09	-3.213582e+01	-9.561483e+01
6.900000e-07	-4.595883e-06	-1.480461e-09	-3.195430e+01	-9.538404e+01
7.000000e-07	-4.569283e-06	-1.422103e-09	-3.176936e+01	-9.514960e+01
7.100000e-07	-4.542275e-06	-1.422487e-09	-3.158158e+01	-9.491131e+01
7.200000e-07	-4.514882e-06	-1.448783e-09	-3.139112e+01	-9.466903e+01
7.300000e-07	-4.487174e-06	-1.413884e-09	-3.119847e+01	-9.442268e+01
7.400000e-07	-4.459279e-06	-1.398087e-09	-3.100453e+01	-9.417225e+01
7.500000e-07	-4.431234e-06	-1.427206e-09	-3.080954e+01	-9.391778e+01
7.600000e-07	-4.402988e-06	-1.418440e-09	-3.061315e+01	-9.365938e+01
7.700000e-07	-4.374502e-06	-1.397613e-09	-3.041509e+01	-9.339719e+01
7.800000e-07	-4.345700e-06	-1.411338e-09	-3.021483e+01	-9.313142e+01
7.900000e-07	-4.316516e-06	-1.396855e-09	-3.001192e+01	-9.286228e+01
8.000000e-07	-4.286985e-06	-1.373781e-09	-2.980660e+01	-9.259003e+01
8.100000e-07	-4.257224e-06	-1.382955e-09	-2.959967e+01	-9.231493e+01
8.200000e-07	-4.227235e-06	-1.385137e-09	-2.939117e+01	-9.203725e+01
8.300000e-07	-4.197000e-06	-1.352525e-09	-2.918095e+01	-9.175725e+01
8.400000e-07	-4.166388e-06	-1.358591e-09	-2.896811e+01	-9.147518e+01
8.500000e-07	-4.135403e-06	-1.371680e-09	-2.875268e+01	-9.119126e+01
8.600000e-07	-4.104168e-06	-1.354781e-09	-2.853550e+01	-9.090568e+01
8.700000e-07	-4.072705e-06	-1.338852e-09	-2.831675e+01	-9.061859e+01
8.800000e-07	-4.041079e-06	-1.352589e-09	-2.809686e+01	-9.033009e+01
8.900000e-07	-4.009274e-06	-1.333010e-09	-2.787573e+01	-9.004022e+01
9.000000e-07	-3.977285e-06	-1.312737e-09	-2.765331e+01	-8.974900e+01
9.100000e-07	-3.945085e-06	-1.322108e-09	-2.742943e+01	-8.945635e+01
9.200000e-07	-3.912536e-06	-1.325835e-09	-2.720313e+01	-8.916217e+01
9.300000e-07	-3.879584e-06	-1.301877e-09	-2.697401e+01	-8.886629e+01
9.400000e-07	-3.846321e-06	-1.309704e-09	-2.674274e+01	-8.856849e+01
9.500000e-07	-3.812588e-06	-1.317709e-09	-2.650820e+01	-8.826850e+01
9.600000e-07	-3.778278e-06	-1.297737e-09	-2.626965e+01	-8.796603e+01
9.700000e-07	-3.743618e-06	-1.283528e-09	-2.602867e+01	-8.766073e+01
9.800000e-07	-3.708615e-06	-1.292827e-09	-2.578530e+01	-8.735225e+01
9.900000e-07	-3.673308e-06	-1.279662e-09	-2.553981e+01	-8.704021e+01
1.000000e-06	-3.637806e-06	-1.259797e-09	-2.529298e+01	-8.672424e+01
1.010000e-06	-3.602103e-06	-1.264168e-09	-2.504474e+01	-8.640393e+01
1.020000e-06	-3.566245e-06	-1.265172e-09	-2.479543e+01	-8.607894e+01
1.030000e-06	-3.530226e-06	-1.250238e-09	-2.454500e+01	-8.574890e+01
1.040000e-06	-3.494038e-06	-1.250766e-09	-2.429339e+01	-8.541351e+01
1.050000e-06	-3.457629e-06	-1.256271e-09	-2.404024e+01	-8.507247e+01
1.060000e-06	-3.420920e-06	-1.239978e-09	-2.378501e+01	-8.472554e+01
1.070000e-06	-3.383990e-06	-1.229658e-09	-2.352824e+01	-8.437253e+01
1.080000e-06	-3.346817e-06	-1.231169e-09	-2.326979e+01	-8.401330e+01
1.090000e-06	-3.309368e-06	-1.221605e-09	-2.300941e+01	-8.364775e+01
1.100000e-06	-3.271682e-06	-1.206923e-09	-2.274739e+01	-8.327586e+01
1.110000e-06	-3.233764e-06	-1.208272e-09	-2.248375e+01	-8.289765e+01
1.120000e-06	-3.195716e-06	-1.201376e-09	-2.221921e+01	-8.251318e+01
1.130000e-06	-3.157535e-06	-1.186637e-09	-2.195375e+01	-8.212258e+01
1.140000e-06	-3.119087e-06	-1.178776e-09	-2.168642e+01	-8.172602e+01
1.150000e-06	-3.080392e-06	-1.177817e-09	-2.141739e+01	-8.132368e+01
1.160000e-06	-3.041490e-06	-1.164536e-09	-2.114691e+01	-8.091581e+01
1.170000e-06	-3.002373e-06	-1.154675e-09	-2.087493e+01	-8.050265e+01
1.180000e-06	-2.963070e-06	-1.150467e-09	-2.060167e+01	-8.008447e+01
1.190000e-06	-2.923581e-06	-1.144365e-09	-2.032711e+01	-7.966152e+01
1.200000e-06	-2.883914e-06	-1.134252e-09	-2.005131e+01	-7.923408e+01
1.210000e-06	-2.844103e-06	-1.130919e-09	-1.977451e+01	-7.880237e+01
1.220000e-06	-2.804196e-06	-1.122887e-09	-1.949705e+01	-7.836661e+01
1.230000e-06	-2.764133e-06	-1.112662e-09	-1.921849e+01	-7.792698e+01
1.240000e-06	-2.723840e-06	-1.108723e-09	-1.893835e+01	-7.748362e+01
1.250000e-06	-2.683391e-06	-1.106647e-09	-1.865711e+01	-7.703661e+01
1.260000e-06	-2.642790e-06	-1.099978e-09	-1.837482e+01	-7.658598e+01
1.270000e-06	-2.601929e-06	-1.095072e-09	-1.809072e+01	-7.613169e+01
1.280000e-06	-2.560708e-06	-1.088822e-09	-1.780412e+01	-7.567366e+01
1.290000e-06	-2.519256e-06	-1.079401e-09	-1.751591e+01	-7.521172e+01
1.300000e-06	-2.477595e-06	-1.066131e-09	-1.722625e+01	-7.474565e+01
1.310000e-06	-2.435545e-06	-1.057479e-09	-1.693388e+01	-7.427514e+01
1.320000e-06	-2.393175e-06	-1.049886e-09	-1.663929e+01	-7.379984e+01
1.330000e-06	-2.350521e-06	-1.041970e-09	-1.634273e+01	-7.331934e+01
1.340000e-06	-2.307634e-06	-1.034945e-09	-1.604454e+01	-7.283318e+01
1.350000e-06	-2.264525e-06	-1.029457e-09	-1.574481e+01	-7.234083e+01
1.360000e-06	-2.221191e-06	-1.024599e-09	-1.544353e+01	-7.184176e+01
1.370000e-06	-2.177735e-06	-1.017480e-09	-1.514138e+01	-7.133536e+01
1.380000e-06	-2.134150e-06	-1.009190e-09	-1.483834e+01	-7.082104e+01
1.390000e-06	-2.090448e-06	-9.979878e-10	-1.453449e+01	-7.029818e+01
1.400000e-06	-2.046690e-06	-9.863890e-10	-1.423025e+01	-6.976614e+01
1.410000e-06	-2.002858e-06	-9.741305e-10	-1.392549e+01	-6.922431e+01
1.420000e-06	-1.958960e-06	-9.634678e-10	-1.362028e+01	-6.867207e+01
1.430000e-06	-1.915006e-06	-9.520669e-10	-1.331467e+01	-6.810883e+01
1.440000e-06	-1.870938e-06	-9.435748e-10	-1.300828e+01	-6.753402e+01
1.450000e-06	-1.826757e-06	-9.354422e-10	-1.270109e+01	-6.694708e+01
1.460000e-06	-1.782467e-06	-9.257461e-10	-1.239316e+01	-6.634752e+01
1.470000e-06	-1.738082e-06	-9.130782e-10	-1.208456e+01	-6.573484e+01
1.480000e-06	-1.693606e-06	-9.011062e-10	-1.177532e+01	-6.510862e+01
1.490000e-06	-1.648962e-06	-8.883984e-10	-1.146492e+01	-6.446843e+01
1.500000e-06	-1.604087e-06	-8.748313e-10	-1.115291e+01	-6.381391e+01
1.510000e-06	-1.559075e-06	-8.584404e-10	-1.083996e+01	-6.314469e+01
1.520000e-06	-1.513967e-06	-8.451221e-10	-1.052633e+01	-6.246046e+01
1.530000e-06	-1.468756e-06	-8.318934e-10	-1.021198e+01	-6.176089e+01
1.540000e-06	-1.423513e-06	-8.220189e-10	-9.897417e+00	-6.104569e+01
1.550000e-06	-1.378192e-06	-8.136181e-10	-9.582307e+00	-6.031455e+01
1.560000e-06	-1.332731e-06	-8.053546e-10	-9.266226e+00	-5.956715e+01
1.570000e-06	-1.287170e-06	-7.946766e-10	-8.949447e+00	-5.880316e+01
1.580000e-06	-1.241538e-06	-7.841418e-10	-8.632180e+00	-5.802221e+01
1.590000e-06	-1.195849e-06	-7.714932e-10	-8.314509e+00	-5.722390e+01
1.600000e-06	-1.150039e-06	-7.562423e-10	-7.996007e+00	-5.640777e+01
1.610000e-06	-1.104119e-06	-7.409629e-10	-7.676733e+00	-5.557332e+01
1.620000e-06	-1.058130e-06	-7.278568e-10	-7.356978e+00	-5.471998e+01
1.630000e-06	-1.012111e-06	-7.185433e-10	-7.037018e+00	-5.384711e+01
1.640000e-06	-9.660098e-07	-7.119361e-10	-6.716484e+00	-5.295398e+01
1.650000e-06	-9.197960e-07	-7.034101e-10	-6.395168e+00	-5.203981e+01
1.660000e-06	-8.735578e-07	-6.888529e-10	-6.073683e+00	-5.110373e+01
1.670000e-06	-8.272940e-07	-6.707026e-10	-5.752019e+00	-5.014478e+01
1.680000e-06	-7.809899e-07	-6.514594e-10	-5.430075e+00	-4.916194e+01
1.690000e-06	-7.345733e-07	-6.331302e-10	-5.107350e+00	-4.815412e+01
1.700000e-06	-6.880667e-07	-6.163344e-10	-4.783998e+00	-4.712017e+01
1.710000e-06	-6.415853e-07	-6.026317e-10	-4.460821e+00	-4.605889e+01
1.720000e-06	-5.951417e-07	-5.871528e-10	-4.137908e+00	-4.496902e+01
1.730000e-06	-5.486507e-07	-5.703561e-10	-3.814665e+00	-4.384931e+01
1.740000e-06	-5.020314e-07	-5.505703e-10	-3.490529e+00	-4.269846e+01
1.750000e-06	-4.553119e-07	-5.306764e-10	-3.165697e+00	-4.151521e+01
1.760000e-06	-4.085517e-07	-5.120105e-10	-2.840583e+00	-4.029829e+01
1.770000e-06	-3.617902e-07	-4.933765e-10	-2.515459e+00	-3.904650e+01
1.780000e-06	-3.150540e-07	-4.738191e-10	-2.190511e+00	-3.775867e+01
1.790000e-06	-2.682545e-07	-4.557848e-10	-1.865123e+00	-3.643375e+01
1.800000e-06	-2.214759e-07	-4.371576e-10	-1.539880e+00	-3.507076e+01
1.810000e-06	-1.747577e-07	-4.167569e-10	-1.215057e+00	-3.366884e+01
1.820000e-06	-1.279703e-07	-3.949738e-10	-8.897531e-01	-3.222728e+01
1.830000e-06	-8.114247e-08	-3.729410e-10	-5.641683e-01	-3.074552e+01
1.840000e-06	-3.426904e-08	-3.513110e-10	-2.382661e-01	-2.922316e+01
1.850000e-06	1.260432e-08	-3.316420e-10	8.763544e-02	-2.765999e+01
1.860000e-06	5.941811e-08	-3.112766e-10	4.131229e-01	-2.605600e+01
1.870000e-06	1.061961e-07	-2.888534e-10	7.383614e-01	-2.441139e+01
1.880000e-06	1.529560e-07	-2.646945e-10	1.063474e+00	-2.272656e+01
1.890000e-06	1.996590e-07	-2.401661e-10	1.388192e+00	-2.100213e+01
1.900000e-06	2.464170e-07	-2.145313e-10	1.713291e+00	-1.923896e+01
1.910000e-06	2.932900e-07	-1.862621e-10	2.039190e+00	-1.743811e+01
1.920000e-06	3.400669e-07	-1.575712e-10	2.364421e+00	-1.560086e+01
1.930000e-06	3.867418e-07	-1.304436e-10	2.688943e+00	-1.372873e+01
1.940000e-06	4.334465e-07	-1.045775e-10	3.013672e+00	-1.182342e+01
1.950000e-06	4.801423e-07	-7.870554e-11	3.338339e+00	-9.886828e+00
1.960000e-06	5.267138e-07	-5.277553e-11	3.662141e+00	-7.921056e+00
1.970000e-06	5.732098e-07	-2.752490e-11	3.985419e+00	-5.928360e+00
1.980000e-06	6.197553e-07	-3.074590e-12	4.309041e+00	-3.911156e+00
1.990000e-06	6.662818e-07	2.245322e-11	4.632532e+00	-1.871997e+00
2.000000e-06	7.126412e-07	5.322469e-11	4.954860e+00	1.864438e-01
2.010000e-06	7.589223e-07	8.717707e-11	5.276643e+00	2.261394e+00
2.020000e-06	8.052541e-07	1.189657e-10	5.598780e+00	4.350002e+00
2.030000e-06	8.515760e-07	1.485743e-10	5.920847e+00	6.449357e+00
2.040000e-06	8.978384e-07	1.752671e-10	6.242501e+00	8.556508e+00
2.050000e-06	9.439959e-07	2.006691e-10	6.563425e+00	1.066849e+01
2.060000e-06	9.900447e-07	2.274366e-10	6.883594e+00	1.278233e+01
2.070000e-06	1.036031e-06	2.574633e-10	7.203327e+00	1.489509e+01
2.080000e-06	1.081926e-06	2.899105e-10	7.522424e+00	1.700386e+01
2.090000e-06	1.127736e-06	3.232752e-10	7.840936e+00	1.910580e+01
2.100000e-06	1.173494e-06	3.552096e-10	8.159083e+00	2.119812e+01
2.110000e-06	1.219234e-06	3.855371e-10	8.477101e+00	2.327815e+01
2.120000e-06	1.264932e-06	4.150972e-10	8.794831e+00	2.534328e+01
2.130000e-06	1.310478e-06	4.431919e-10	9.111506e+00	2.739106e+01
2.140000e-06	1.355810e-06	4.697846e-10	9.426688e+00	2.941912e+01
2.150000e-06	1.401055e-06	4.949824e-10	9.741269e+00	3.142526e+01
2.160000e-06	1.446316e-06	5.195130e-10	1.005596e+01	3.340738e+01
2.170000e-06	1.491499e-06	5.464982e-10	1.037011e+01	3.536355e+01
2.180000e-06	1.536531e-06	5.730957e-10	1.068321e+01	3.729199e+01
2.190000e-06	1.581435e-06	5.996081e-10	1.099542e+01	3.919106e+01
2.200000e-06	1.626188e-06	6.255459e-10	1.130658e+01	4.105926e+01
2.210000e-06	1.670858e-06	6.517116e-10	1.161716e+01	4.289528e+01
2.220000e-06	1.715362e-06	6.777032e-10	1.192659e+01	4.469793e+01
2.230000e-06	1.759640e-06	7.018589e-10	1.223445e+01	4.646618e+01
2.240000e-06	1.803798e-06	7.228375e-10	1.254147e+01	4.819913e+01
2.250000e-06	1.847902e-06	7.408548e-10	1.284811e+01	4.989607e+01
2.260000e-06	1.891916e-06	7.598968e-10	1.315414e+01	5.155637e+01
2.270000e-06	1.935798e-06	7.816681e-10	1.345924e+01	5.317957e+01
2.280000e-06	1.979649e-06	8.034852e-10	1.376413e+01	5.476534e+01
2.290000e-06	2.023484e-06	8.248201e-10	1.406890e+01	5.631345e+01
2.300000e-06	2.067277e-06	8.456188e-10	1.437339e+01	5.782382e+01
2.310000e-06	2.111025e-06	8.650014e-10	1.467756e+01	5.929645e+01
2.320000e-06	2.154717e-06	8.838583e-10	1.498134e+01	6.073146e+01
2.330000e-06	2.198302e-06	9.011524e-10	1.528438e+01	6.212907e+01
2.340000e-06	2.241748e-06	9.198221e-10	1.558645e+01	6.348958e+01
2.350000e-06	2.285029e-06	9.388948e-10	1.588738e+01	6.481339e+01
2.360000e-06	2.328088e-06	9.582583e-10	1.618676e+01	6.610098e+01
2.370000e-06	2.370860e-06	9.772020e-10	1.648414e+01	6.735287e+01
2.380000e-06	2.413337e-06	9.930423e-10	1.677948e+01	6.856967e+01
2.390000e-06	2.455491e-06	1.006295e-09	1.707256e+01	6.975205e+01
2.400000e-06	2.497229e-06	1.021392e-09	1.736276e+01	7.090071e+01
2.410000e-06	2.538606e-06	1.038017e-09	1.765045e+01	7.201640e+01
2.420000e-06	2.579713e-06	1.056066e-09	1.793626e+01	7.309991e+01
2.430000e-06	2.620516e-06	1.072804e-09	1.821995e+01	7.415204e+01
2.440000e-06	2.661094e-06	1.086270e-09	1.850208e+01	7.517363e+01
2.450000e-06	2.701476e-06	1.097670e-09	1.878285e+01	7.616552e+01
2.460000e-06	2.741674e-06	1.107892e-09	1.906234e+01	7.712854e+01
2.470000e-06	2.781731e-06	1.118562e-09	1.934085e+01	7.806356e+01
2.480000e-06	2.821624e-06	1.129534e-09	1.961822e+01	7.897139e+01
2.490000e-06	2.861414e-06	1.141254e-09	1.989487e+01	7.985286e+01
2.500000e-06	2.901141e-06	1.154232e-09	2.017109e+01	8.070876e+01
2.510000e-06	2.940777e-06	1.167106e-09	2.044666e+01	8.153986e+01
2.520000e-06	2.980278e-06	1.182218e-09	2.072131e+01	8.234690e+01
2.530000e-06	3.019558e-06	1.197267e-09	2.099442e+01	8.313059e+01
2.540000e-06	3.058588e-06	1.208139e-09	2.126579e+01	8.389158e+01
2.550000e-06	3.097360e-06	1.217415e-09	2.153536e+01	8.463049e+01
2.560000e-06	3.135899e-06	1.224653e-09	2.180331e+01	8.534789e+01
2.570000e-06	3.174226e-06	1.230676e-09	2.206979e+01	8.604433e+01
2.580000e-06	3.212304e-06	1.237108e-09	2.233454e+01	8.672027e+01
2.590000e-06	3.250147e-06	1.245025e-09	2.259766e+01	8.737617e+01
2.600000e-06	3.287764e-06	1.254323e-09	2.285920e+01	8.801243e+01
2.610000e-06	3.325239e-06	1.264437e-09	2.311976e+01	8.862941e+01
2.620000e-06	3.362523e-06	1.275043e-09	2.337898e+01	8.922743e+01
2.630000e-06	3.399500e-06	1.286013e-09	2.363608e+01	8.980679e+01
2.640000e-06	3.436205e-06	1.295068e-09	2.389128e+01	9.036776e+01
2.650000e-06	3.472591e-06	1.300950e-09	2.414427e+01	9.091060e+01
2.660000e-06	3.508706e-06	1.306514e-09	2.439537e+01	9.143554e+01
2.670000e-06	3.544674e-06	1.312475e-09	2.464545e+01	9.194283e+01
2.680000e-06	3.580504e-06	1.318344e-09	2.489457e+01	9.243269e+01
2.690000e-06	3.616265e-06	1.325661e-09	2.514321e+01	9.290538e+01
2.700000e-06	3.651924e-06	1.335107e-09	2.539114e+01	9.336115e+01
2.710000e-06	3.687400e-06	1.346031e-09	2.563780e+01	9.380028e+01
2.720000e-06	3.722613e-06	1.355103e-09	2.588263e+01	9.422310e+01
2.730000e-06	3.757559e-06	1.363231e-09	2.612560e+01	9.462995e+01
2.740000e-06	3.792174e-06	1.367391e-09	2.636627e+01	9.502120e+01
2.750000e-06	3.826241e-06	1.370325e-09	2.660313e+01	9.539729e+01
2.760000e-06	3.859732e-06	1.371865e-09	2.683599e+01	9.575869e+01
2.770000e-06	3.892799e-06	1.373616e-09	2.706590e+01	9.610591e+01
2.780000e-06	3.925480e-06	1.378158e-09	2.729312e+01	9.643953e+01
2.790000e-06	3.957781e-06	1.385184e-09	2.751771e+01	9.676015e+01
2.800000e-06	3.989859e-06	1.394240e-09	2.774074e+01	9.706842e+01
2.810000e-06	4.021790e-06	1.402212e-09	2.796275e+01	9.736504e+01
2.820000e-06	4.053574e-06	1.407278e-09	2.818373e+01	9.765073e+01
2.830000e-06	4.085190e-06	1.410414e-09	2.840355e+01	9.792626e+01
2.840000e-06	4.116632e-06	1.414156e-09	2.862217e+01	9.819240e+01
2.850000e-06	4.147791e-06	1.417219e-09	2.883881e+01	9.844993e+01
2.860000e-06	4.178580e-06	1.418856e-09	2.905288e+01	9.869965e+01
2.870000e-06	4.209004e-06	1.422226e-09	2.926441e+01	9.894235e+01
2.880000e-06	4.239137e-06	1.428173e-09	2.947392e+01	9.917881e+01
2.890000e-06	4.269037e-06	1.433361e-09	2.968181e+01	9.940976e+01
2.900000e-06	4.298666e-06	1.437413e-09	2.988782e+01	9.963592e+01
