# Temperatura_=_15.6
# Concentracion g/m^3_=_1620.0
# C_Vs_to_Am_M_A/Vsm_=_65563218390.804596
# pendiente_HvsI_1/m_=_3716.3
# ordenada_HvsI_A/m_=_1297.0
# frecuencia_Hz_=_135091.23840527647

Tiempo_(s)	Campo_(V.s)	Magnetizacion_(V.s)	Campo_(kA/m)	Magnetizacion_(A/m)
0.000000e+00	-5.534767e-06	-1.590898e-09	-3.837215e+01	-1.030037e+02
1.000000e-08	-5.534881e-06	-1.588675e-09	-3.837294e+01	-1.029398e+02
2.000000e-08	-5.534787e-06	-1.587362e-09	-3.837228e+01	-1.028721e+02
3.000000e-08	-5.534360e-06	-1.586128e-09	-3.836932e+01	-1.028008e+02
4.000000e-08	-5.533462e-06	-1.584330e-09	-3.836310e+01	-1.027260e+02
5.000000e-08	-5.531935e-06	-1.579114e-09	-3.835252e+01	-1.026478e+02
6.000000e-08	-5.529869e-06	-1.573112e-09	-3.833819e+01	-1.025664e+02
7.000000e-08	-5.527312e-06	-1.582315e-09	-3.832046e+01	-1.024818e+02
8.000000e-08	-5.524127e-06	-1.575052e-09	-3.829838e+01	-1.023943e+02
9.000000e-08	-5.520331e-06	-1.565963e-09	-3.827206e+01	-1.023039e+02
1.000000e-07	-5.516146e-06	-1.636107e-09	-3.824305e+01	-1.022109e+02
1.100000e-07	-5.511719e-06	-1.664443e-09	-3.821235e+01	-1.021152e+02
1.200000e-07	-5.507015e-06	-1.535628e-09	-3.817975e+01	-1.020171e+02
1.300000e-07	-5.502088e-06	-1.480863e-09	-3.814559e+01	-1.019167e+02
1.400000e-07	-5.496828e-06	-1.573306e-09	-3.810912e+01	-1.018140e+02
1.500000e-07	-5.491109e-06	-1.689838e-09	-3.806947e+01	-1.017092e+02
1.600000e-07	-5.484808e-06	-1.559491e-09	-3.802578e+01	-1.016023e+02
1.700000e-07	-5.478211e-06	-1.454624e-09	-3.798005e+01	-1.014934e+02
1.800000e-07	-5.471411e-06	-1.556149e-09	-3.793290e+01	-1.013824e+02
1.900000e-07	-5.464108e-06	-1.629357e-09	-3.788227e+01	-1.012695e+02
2.000000e-07	-5.456467e-06	-1.543367e-09	-3.782930e+01	-1.011546e+02
2.100000e-07	-5.448651e-06	-1.463069e-09	-3.777511e+01	-1.010378e+02
2.200000e-07	-5.440571e-06	-1.551727e-09	-3.771910e+01	-1.009190e+02
2.300000e-07	-5.432182e-06	-1.587630e-09	-3.766093e+01	-1.007981e+02
2.400000e-07	-5.423266e-06	-1.534404e-09	-3.759912e+01	-1.006751e+02
2.500000e-07	-5.413755e-06	-1.472673e-09	-3.753318e+01	-1.005499e+02
2.600000e-07	-5.403510e-06	-1.510412e-09	-3.746215e+01	-1.004225e+02
2.700000e-07	-5.392538e-06	-1.528315e-09	-3.738609e+01	-1.002928e+02
2.800000e-07	-5.381323e-06	-1.526320e-09	-3.730833e+01	-1.001606e+02
2.900000e-07	-5.369775e-06	-1.494274e-09	-3.722827e+01	-1.000259e+02
3.000000e-07	-5.357752e-06	-1.513063e-09	-3.714491e+01	-9.988864e+01
3.100000e-07	-5.345364e-06	-1.528610e-09	-3.705903e+01	-9.974861e+01
3.200000e-07	-5.332591e-06	-1.535286e-09	-3.697048e+01	-9.960576e+01
3.300000e-07	-5.319284e-06	-1.491317e-09	-3.687822e+01	-9.945999e+01
3.400000e-07	-5.305609e-06	-1.481559e-09	-3.678341e+01	-9.931123e+01
3.500000e-07	-5.291637e-06	-1.532982e-09	-3.668654e+01	-9.915938e+01
3.600000e-07	-5.277264e-06	-1.521435e-09	-3.658689e+01	-9.900440e+01
3.700000e-07	-5.262336e-06	-1.458983e-09	-3.648340e+01	-9.884622e+01
3.800000e-07	-5.246811e-06	-1.486223e-09	-3.637577e+01	-9.868481e+01
3.900000e-07	-5.230886e-06	-1.530657e-09	-3.626536e+01	-9.852015e+01
4.000000e-07	-5.214408e-06	-1.454283e-09	-3.615112e+01	-9.835224e+01
4.100000e-07	-5.197532e-06	-1.460582e-09	-3.603412e+01	-9.818111e+01
4.200000e-07	-5.180502e-06	-1.553488e-09	-3.591605e+01	-9.800678e+01
4.300000e-07	-5.163078e-06	-1.493493e-09	-3.579526e+01	-9.782933e+01
4.400000e-07	-5.145172e-06	-1.396553e-09	-3.567111e+01	-9.764882e+01
4.500000e-07	-5.126981e-06	-1.505340e-09	-3.554500e+01	-9.746535e+01
4.600000e-07	-5.108451e-06	-1.529176e-09	-3.541653e+01	-9.727905e+01
4.700000e-07	-5.089444e-06	-1.393953e-09	-3.528476e+01	-9.709005e+01
4.800000e-07	-5.070042e-06	-1.429339e-09	-3.515024e+01	-9.689851e+01
4.900000e-07	-5.050393e-06	-1.546279e-09	-3.501402e+01	-9.670459e+01
5.000000e-07	-5.030555e-06	-1.438694e-09	-3.487648e+01	-9.650847e+01
5.100000e-07	-5.010480e-06	-1.397385e-09	-3.473730e+01	-9.631034e+01
5.200000e-07	-4.990078e-06	-1.514718e-09	-3.459586e+01	-9.611041e+01
5.300000e-07	-4.969321e-06	-1.468151e-09	-3.445195e+01	-9.590887e+01
5.400000e-07	-4.948243e-06	-1.364994e-09	-3.430582e+01	-9.570592e+01
5.500000e-07	-4.926809e-06	-1.477346e-09	-3.415722e+01	-9.550178e+01
5.600000e-07	-4.905008e-06	-1.496853e-09	-3.400607e+01	-9.529662e+01
5.700000e-07	-4.882888e-06	-1.368143e-09	-3.385271e+01	-9.509064e+01
5.800000e-07	-4.860499e-06	-1.408490e-09	-3.369750e+01	-9.488401e+01
5.900000e-07	-4.837783e-06	-1.493183e-09	-3.354001e+01	-9.467688e+01
6.000000e-07	-4.814579e-06	-1.399274e-09	-3.337913e+01	-9.446938e+01
6.100000e-07	-4.791020e-06	-1.382700e-09	-3.321580e+01	-9.426163e+01
6.200000e-07	-4.767273e-06	-1.468178e-09	-3.305117e+01	-9.405371e+01
6.300000e-07	-4.743358e-06	-1.423578e-09	-3.288536e+01	-9.384568e+01
6.400000e-07	-4.719266e-06	-1.369880e-09	-3.271834e+01	-9.363756e+01
6.500000e-07	-4.694844e-06	-1.427620e-09	-3.254902e+01	-9.342933e+01
6.600000e-07	-4.670076e-06	-1.420306e-09	-3.237730e+01	-9.322097e+01
6.700000e-07	-4.644815e-06	-1.365737e-09	-3.220217e+01	-9.301237e+01
6.800000e-07	-4.618862e-06	-1.396381e-09	-3.202224e+01	-9.280345e+01
6.900000e-07	-4.592204e-06	-1.407981e-09	-3.183742e+01	-9.259403e+01
7.000000e-07	-4.565030e-06	-1.365402e-09	-3.164903e+01	-9.238394e+01
7.100000e-07	-4.537584e-06	-1.373313e-09	-3.145874e+01	-9.217296e+01
7.200000e-07	-4.509916e-06	-1.397884e-09	-3.126693e+01	-9.196084e+01
7.300000e-07	-4.482058e-06	-1.367240e-09	-3.107379e+01	-9.174731e+01
7.400000e-07	-4.453999e-06	-1.357310e-09	-3.087926e+01	-9.153207e+01
7.500000e-07	-4.425808e-06	-1.369194e-09	-3.068382e+01	-9.131479e+01
7.600000e-07	-4.397395e-06	-1.353823e-09	-3.048683e+01	-9.109513e+01
7.700000e-07	-4.368592e-06	-1.335310e-09	-3.028714e+01	-9.087275e+01
7.800000e-07	-4.339430e-06	-1.345361e-09	-3.008496e+01	-9.064729e+01
7.900000e-07	-4.309900e-06	-1.337727e-09	-2.988023e+01	-9.041839e+01
8.000000e-07	-4.280072e-06	-1.327040e-09	-2.967344e+01	-9.018569e+01
8.100000e-07	-4.250007e-06	-1.332668e-09	-2.946500e+01	-8.994885e+01
8.200000e-07	-4.219658e-06	-1.332286e-09	-2.925459e+01	-8.970754e+01
8.300000e-07	-4.188932e-06	-1.311116e-09	-2.904157e+01	-8.946144e+01
8.400000e-07	-4.157850e-06	-1.311329e-09	-2.882608e+01	-8.921026e+01
8.500000e-07	-4.126501e-06	-1.315935e-09	-2.860874e+01	-8.895375e+01
8.600000e-07	-4.094986e-06	-1.301826e-09	-2.839025e+01	-8.869168e+01
8.700000e-07	-4.063380e-06	-1.290234e-09	-2.817112e+01	-8.842387e+01
8.800000e-07	-4.031627e-06	-1.294170e-09	-2.795099e+01	-8.815017e+01
8.900000e-07	-3.999644e-06	-1.282430e-09	-2.772925e+01	-8.787048e+01
9.000000e-07	-3.967416e-06	-1.270577e-09	-2.750581e+01	-8.758473e+01
9.100000e-07	-3.934961e-06	-1.278139e-09	-2.728081e+01	-8.729292e+01
9.200000e-07	-3.902213e-06	-1.279308e-09	-2.705377e+01	-8.699509e+01
9.300000e-07	-3.868984e-06	-1.267008e-09	-2.682339e+01	-8.669131e+01
9.400000e-07	-3.835263e-06	-1.268048e-09	-2.658961e+01	-8.638170e+01
9.500000e-07	-3.801146e-06	-1.268847e-09	-2.635307e+01	-8.606645e+01
9.600000e-07	-3.766483e-06	-1.248514e-09	-2.611276e+01	-8.574574e+01
9.700000e-07	-3.731468e-06	-1.237332e-09	-2.587000e+01	-8.541982e+01
9.800000e-07	-3.696249e-06	-1.240496e-09	-2.562583e+01	-8.508896e+01
9.900000e-07	-3.660672e-06	-1.231784e-09	-2.537918e+01	-8.475345e+01
1.000000e-06	-3.624877e-06	-1.219346e-09	-2.513101e+01	-8.441361e+01
1.010000e-06	-3.588951e-06	-1.225670e-09	-2.488194e+01	-8.406976e+01
1.020000e-06	-3.552916e-06	-1.224725e-09	-2.463212e+01	-8.372224e+01
1.030000e-06	-3.516747e-06	-1.210636e-09	-2.438135e+01	-8.337137e+01
1.040000e-06	-3.480369e-06	-1.204471e-09	-2.412915e+01	-8.301747e+01
1.050000e-06	-3.443764e-06	-1.201630e-09	-2.387537e+01	-8.266086e+01
1.060000e-06	-3.406833e-06	-1.185342e-09	-2.361933e+01	-8.230181e+01
1.070000e-06	-3.369604e-06	-1.177064e-09	-2.336122e+01	-8.194058e+01
1.080000e-06	-3.332130e-06	-1.178609e-09	-2.310142e+01	-8.157738e+01
1.090000e-06	-3.294447e-06	-1.174748e-09	-2.284017e+01	-8.121241e+01
1.100000e-06	-3.256530e-06	-1.166779e-09	-2.257730e+01	-8.084578e+01
1.110000e-06	-3.218367e-06	-1.167642e-09	-2.231271e+01	-8.047757e+01
1.120000e-06	-3.180080e-06	-1.162055e-09	-2.204727e+01	-8.010782e+01
1.130000e-06	-3.141564e-06	-1.148516e-09	-2.178024e+01	-7.973649e+01
1.140000e-06	-3.102737e-06	-1.140797e-09	-2.151106e+01	-7.936350e+01
1.150000e-06	-3.063707e-06	-1.138366e-09	-2.124047e+01	-7.898868e+01
1.160000e-06	-3.024538e-06	-1.128915e-09	-2.096891e+01	-7.861184e+01
1.170000e-06	-2.985184e-06	-1.121696e-09	-2.069607e+01	-7.823271e+01
1.180000e-06	-2.945586e-06	-1.121196e-09	-2.042154e+01	-7.785096e+01
1.190000e-06	-2.905843e-06	-1.118683e-09	-2.014600e+01	-7.746621e+01
1.200000e-06	-2.866058e-06	-1.112471e-09	-1.987018e+01	-7.707805e+01
1.210000e-06	-2.826148e-06	-1.108876e-09	-1.959348e+01	-7.668600e+01
1.220000e-06	-2.786058e-06	-1.104607e-09	-1.931554e+01	-7.628957e+01
1.230000e-06	-2.745750e-06	-1.097801e-09	-1.903609e+01	-7.588820e+01
1.240000e-06	-2.705275e-06	-1.092878e-09	-1.875548e+01	-7.548133e+01
1.250000e-06	-2.664700e-06	-1.087919e-09	-1.847418e+01	-7.506840e+01
1.260000e-06	-2.623826e-06	-1.078790e-09	-1.819080e+01	-7.464880e+01
1.270000e-06	-2.582587e-06	-1.066448e-09	-1.790489e+01	-7.422194e+01
1.280000e-06	-2.541170e-06	-1.057765e-09	-1.761775e+01	-7.378723e+01
1.290000e-06	-2.499432e-06	-1.048030e-09	-1.732838e+01	-7.334410e+01
1.300000e-06	-2.457274e-06	-1.037196e-09	-1.703610e+01	-7.289199e+01
1.310000e-06	-2.414914e-06	-1.030427e-09	-1.674242e+01	-7.243036e+01
1.320000e-06	-2.372237e-06	-1.026991e-09	-1.644655e+01	-7.195870e+01
1.330000e-06	-2.329230e-06	-1.019391e-09	-1.614839e+01	-7.147656e+01
1.340000e-06	-2.286028e-06	-1.011217e-09	-1.584887e+01	-7.098351e+01
1.350000e-06	-2.242640e-06	-1.004621e-09	-1.554806e+01	-7.047915e+01
1.360000e-06	-2.199089e-06	-9.960417e-10	-1.524613e+01	-6.996315e+01
1.370000e-06	-2.155382e-06	-9.837754e-10	-1.494311e+01	-6.943521e+01
1.380000e-06	-2.111585e-06	-9.726696e-10	-1.463947e+01	-6.889509e+01
1.390000e-06	-2.067786e-06	-9.635897e-10	-1.433581e+01	-6.834257e+01
1.400000e-06	-2.023952e-06	-9.553200e-10	-1.403191e+01	-6.777750e+01
1.410000e-06	-1.980020e-06	-9.468890e-10	-1.372734e+01	-6.719973e+01
1.420000e-06	-1.935981e-06	-9.399073e-10	-1.342202e+01	-6.660919e+01
1.430000e-06	-1.891811e-06	-9.329785e-10	-1.311579e+01	-6.600581e+01
1.440000e-06	-1.847557e-06	-9.227593e-10	-1.280898e+01	-6.538953e+01
1.450000e-06	-1.803189e-06	-9.093945e-10	-1.250138e+01	-6.476033e+01
1.460000e-06	-1.758663e-06	-8.943005e-10	-1.219269e+01	-6.411818e+01
1.470000e-06	-1.714056e-06	-8.776259e-10	-1.188343e+01	-6.346305e+01
1.480000e-06	-1.669237e-06	-8.623064e-10	-1.157270e+01	-6.279490e+01
1.490000e-06	-1.624210e-06	-8.493444e-10	-1.126053e+01	-6.211366e+01
1.500000e-06	-1.579059e-06	-8.373562e-10	-1.094750e+01	-6.141924e+01
1.510000e-06	-1.533891e-06	-8.281070e-10	-1.063436e+01	-6.071152e+01
1.520000e-06	-1.488687e-06	-8.196952e-10	-1.032096e+01	-5.999031e+01
1.530000e-06	-1.443268e-06	-8.077359e-10	-1.000607e+01	-5.925537e+01
1.540000e-06	-1.397675e-06	-7.950402e-10	-9.689981e+00	-5.850642e+01
1.550000e-06	-1.352063e-06	-7.812319e-10	-9.373756e+00	-5.774308e+01
1.560000e-06	-1.306453e-06	-7.651903e-10	-9.057543e+00	-5.696491e+01
1.570000e-06	-1.260774e-06	-7.516305e-10	-8.740854e+00	-5.617140e+01
1.580000e-06	-1.214992e-06	-7.368237e-10	-8.423455e+00	-5.536194e+01
1.590000e-06	-1.169047e-06	-7.211209e-10	-8.104923e+00	-5.453585e+01
1.600000e-06	-1.122978e-06	-7.095380e-10	-7.785528e+00	-5.369235e+01
1.610000e-06	-1.076817e-06	-6.992136e-10	-7.465497e+00	-5.283060e+01
1.620000e-06	-1.030582e-06	-6.887462e-10	-7.144953e+00	-5.194966e+01
1.630000e-06	-9.843495e-07	-6.803686e-10	-6.824425e+00	-5.104851e+01
1.640000e-06	-9.380780e-07	-6.695159e-10	-6.503628e+00	-5.012608e+01
1.650000e-06	-8.917132e-07	-6.531267e-10	-6.182184e+00	-4.918121e+01
1.660000e-06	-8.452648e-07	-6.332377e-10	-5.860161e+00	-4.821271e+01
1.670000e-06	-7.987774e-07	-6.128746e-10	-5.537867e+00	-4.721932e+01
1.680000e-06	-7.522392e-07	-5.934133e-10	-5.215221e+00	-4.619976e+01
1.690000e-06	-7.056137e-07	-5.741291e-10	-4.891969e+00	-4.515272e+01
1.700000e-06	-6.590018e-07	-5.577937e-10	-4.568813e+00	-4.407688e+01
1.710000e-06	-6.123714e-07	-5.451929e-10	-4.245527e+00	-4.297092e+01
1.720000e-06	-5.655563e-07	-5.328198e-10	-3.920961e+00	-4.183354e+01
1.730000e-06	-5.187446e-07	-5.172914e-10	-3.596420e+00	-4.066348e+01
1.740000e-06	-4.720129e-07	-4.973189e-10	-3.272432e+00	-3.945951e+01
1.750000e-06	-4.251641e-07	-4.757605e-10	-2.947633e+00	-3.822048e+01
1.760000e-06	-3.782325e-07	-4.507393e-10	-2.622259e+00	-3.694530e+01
1.770000e-06	-3.312952e-07	-4.266237e-10	-2.296846e+00	-3.563298e+01
1.780000e-06	-2.843229e-07	-4.062627e-10	-1.971191e+00	-3.428265e+01
1.790000e-06	-2.372476e-07	-3.878406e-10	-1.644821e+00	-3.289354e+01
1.800000e-06	-1.901518e-07	-3.703208e-10	-1.318309e+00	-3.146502e+01
1.810000e-06	-1.431996e-07	-3.529749e-10	-9.927929e-01	-2.999661e+01
1.820000e-06	-9.636105e-08	-3.341181e-10	-6.680643e-01	-2.848799e+01
1.830000e-06	-4.948922e-08	-3.123096e-10	-3.431053e-01	-2.693900e+01
1.840000e-06	-2.518186e-09	-2.899277e-10	-1.745841e-02	-2.534964e+01
1.850000e-06	4.443776e-08	-2.658115e-10	3.080838e-01	-2.372013e+01
1.860000e-06	9.137865e-08	-2.420898e-10	6.335217e-01	-2.205084e+01
1.870000e-06	1.383673e-07	-2.186057e-10	9.592907e-01	-2.034235e+01
1.880000e-06	1.853094e-07	-1.947055e-10	1.284737e+00	-1.859544e+01
1.890000e-06	2.322806e-07	-1.699657e-10	1.610385e+00	-1.681107e+01
1.900000e-06	2.792914e-07	-1.449201e-10	1.936307e+00	-1.499040e+01
1.910000e-06	3.262326e-07	-1.188741e-10	2.261747e+00	-1.313478e+01
1.920000e-06	3.730945e-07	-9.234756e-11	2.586638e+00	-1.124574e+01
1.930000e-06	4.197635e-07	-6.753782e-11	2.910190e+00	-9.325016e+00
1.940000e-06	4.664084e-07	-4.251332e-11	3.233576e+00	-7.374486e+00
1.950000e-06	5.131661e-07	-1.486512e-11	3.557744e+00	-5.396211e+00
1.960000e-06	5.598894e-07	1.331158e-11	3.881674e+00	-3.392400e+00
1.970000e-06	6.066127e-07	4.147944e-11	4.205603e+00	-1.365405e+00
1.980000e-06	6.532074e-07	7.012460e-11	4.528641e+00	6.822894e-01
1.990000e-06	6.995696e-07	1.006545e-10	4.850067e+00	2.748085e+00
2.000000e-06	7.458378e-07	1.317519e-10	5.170841e+00	4.829282e+00
2.010000e-06	7.921734e-07	1.615076e-10	5.492082e+00	6.923094e+00
2.020000e-06	8.385350e-07	1.893289e-10	5.813504e+00	9.026665e+00
2.030000e-06	8.848665e-07	2.145861e-10	6.134717e+00	1.113709e+01
2.040000e-06	9.311790e-07	2.397804e-10	6.455798e+00	1.325142e+01
2.050000e-06	9.774306e-07	2.690522e-10	6.776457e+00	1.536669e+01
2.060000e-06	1.023570e-06	3.018879e-10	7.096338e+00	1.747995e+01
2.070000e-06	1.069606e-06	3.351760e-10	7.415499e+00	1.958824e+01
2.080000e-06	1.115600e-06	3.685593e-10	7.734376e+00	2.168865e+01
2.090000e-06	1.161487e-06	3.995094e-10	8.052509e+00	2.377831e+01
2.100000e-06	1.207326e-06	4.274383e-10	8.370307e+00	2.585444e+01
2.110000e-06	1.253138e-06	4.525091e-10	8.687916e+00	2.791430e+01
2.120000e-06	1.298794e-06	4.782812e-10	9.004447e+00	2.995529e+01
2.130000e-06	1.344351e-06	5.049261e-10	9.320287e+00	3.197489e+01
2.140000e-06	1.389850e-06	5.298294e-10	9.635732e+00	3.397071e+01
2.150000e-06	1.435260e-06	5.556811e-10	9.950558e+00	3.594051e+01
2.160000e-06	1.480514e-06	5.858685e-10	1.026430e+01	3.788217e+01
2.170000e-06	1.525652e-06	6.160470e-10	1.057724e+01	3.979374e+01
2.180000e-06	1.570768e-06	6.446204e-10	1.089002e+01	4.167344e+01
2.190000e-06	1.615736e-06	6.707616e-10	1.120179e+01	4.351963e+01
2.200000e-06	1.660513e-06	6.927326e-10	1.151222e+01	4.533086e+01
2.210000e-06	1.705090e-06	7.138117e-10	1.182127e+01	4.710587e+01
2.220000e-06	1.749522e-06	7.368969e-10	1.212931e+01	4.884355e+01
2.230000e-06	1.793949e-06	7.589720e-10	1.243732e+01	5.054300e+01
2.240000e-06	1.838294e-06	7.804985e-10	1.274476e+01	5.220346e+01
2.250000e-06	1.882528e-06	8.037468e-10	1.305143e+01	5.382439e+01
2.260000e-06	1.926708e-06	8.259353e-10	1.335773e+01	5.540538e+01
2.270000e-06	1.970786e-06	8.451738e-10	1.366332e+01	5.694621e+01
2.280000e-06	2.014717e-06	8.621047e-10	1.396789e+01	5.844681e+01
2.290000e-06	2.058543e-06	8.786657e-10	1.427173e+01	5.990726e+01
2.300000e-06	2.102300e-06	8.955212e-10	1.457510e+01	6.132780e+01
2.310000e-06	2.146003e-06	9.157478e-10	1.487809e+01	6.270878e+01
2.320000e-06	2.189580e-06	9.376124e-10	1.518020e+01	6.405068e+01
2.330000e-06	2.233071e-06	9.570484e-10	1.548172e+01	6.535409e+01
2.340000e-06	2.276449e-06	9.740709e-10	1.578246e+01	6.661969e+01
2.350000e-06	2.319603e-06	9.889698e-10	1.608165e+01	6.784828e+01
2.360000e-06	2.362557e-06	1.003722e-09	1.637944e+01	6.904069e+01
2.370000e-06	2.405259e-06	1.018410e-09	1.667549e+01	7.019783e+01
2.380000e-06	2.447661e-06	1.034319e-09	1.696946e+01	7.132065e+01
2.390000e-06	2.489824e-06	1.051612e-09	1.726177e+01	7.241015e+01
2.400000e-06	2.531751e-06	1.071902e-09	1.755245e+01	7.346734e+01
2.410000e-06	2.573260e-06	1.091134e-09	1.784023e+01	7.449323e+01
2.420000e-06	2.614393e-06	1.100577e-09	1.812540e+01	7.548886e+01
2.430000e-06	2.655164e-06	1.105659e-09	1.840807e+01	7.645522e+01
2.440000e-06	2.695699e-06	1.108855e-09	1.868909e+01	7.739331e+01
2.450000e-06	2.736182e-06	1.119300e-09	1.896976e+01	7.830408e+01
2.460000e-06	2.776419e-06	1.132900e-09	1.924871e+01	7.918846e+01
2.470000e-06	2.816433e-06	1.147173e-09	1.952613e+01	8.004732e+01
2.480000e-06	2.856366e-06	1.161442e-09	1.980298e+01	8.088148e+01
2.490000e-06	2.896180e-06	1.172052e-09	2.007901e+01	8.169173e+01
2.500000e-06	2.935849e-06	1.179358e-09	2.035403e+01	8.247878e+01
2.510000e-06	2.975444e-06	1.186133e-09	2.062854e+01	8.324328e+01
2.520000e-06	3.014866e-06	1.193342e-09	2.090185e+01	8.398584e+01
2.530000e-06	3.054018e-06	1.202211e-09	2.117329e+01	8.470700e+01
2.540000e-06	3.092933e-06	1.211781e-09	2.144309e+01	8.540726e+01
2.550000e-06	3.131596e-06	1.222318e-09	2.171113e+01	8.608703e+01
2.560000e-06	3.170048e-06	1.232853e-09	2.197772e+01	8.674672e+01
2.570000e-06	3.208344e-06	1.241416e-09	2.224322e+01	8.738667e+01
2.580000e-06	3.246373e-06	1.249771e-09	2.250687e+01	8.800718e+01
2.590000e-06	3.284151e-06	1.256748e-09	2.276879e+01	8.860851e+01
2.600000e-06	3.321793e-06	1.264826e-09	2.302976e+01	8.919093e+01
2.610000e-06	3.359222e-06	1.270972e-09	2.328925e+01	8.975465e+01
2.620000e-06	3.396432e-06	1.276536e-09	2.354722e+01	9.029990e+01
2.630000e-06	3.433402e-06	1.283260e-09	2.380353e+01	9.082688e+01
2.640000e-06	3.470037e-06	1.291530e-09	2.405752e+01	9.133581e+01
2.650000e-06	3.506328e-06	1.299140e-09	2.430912e+01	9.182691e+01
2.660000e-06	3.542449e-06	1.305816e-09	2.455955e+01	9.230041e+01
2.670000e-06	3.578512e-06	1.311268e-09	2.480957e+01	9.275659e+01
2.680000e-06	3.614435e-06	1.317911e-09	2.505862e+01	9.319571e+01
2.690000e-06	3.650214e-06	1.326220e-09	2.530668e+01	9.361810e+01
2.700000e-06	3.685821e-06	1.334395e-09	2.555354e+01	9.402411e+01
2.710000e-06	3.721216e-06	1.341231e-09	2.579893e+01	9.441411e+01
2.720000e-06	3.756339e-06	1.347707e-09	2.604243e+01	9.478853e+01
2.730000e-06	3.791068e-06	1.351443e-09	2.628321e+01	9.514782e+01
2.740000e-06	3.825411e-06	1.353947e-09	2.652130e+01	9.549250e+01
2.750000e-06	3.859348e-06	1.354895e-09	2.675658e+01	9.582308e+01
2.760000e-06	3.892720e-06	1.358183e-09	2.698795e+01	9.614015e+01
2.770000e-06	3.925608e-06	1.363480e-09	2.721596e+01	9.644429e+01
2.780000e-06	3.958204e-06	1.370600e-09	2.744195e+01	9.673613e+01
2.790000e-06	3.990550e-06	1.381522e-09	2.766620e+01	9.701633e+01
2.800000e-06	4.022693e-06	1.391321e-09	2.788904e+01	9.728554e+01
2.810000e-06	4.054612e-06	1.397629e-09	2.811034e+01	9.754443e+01
2.820000e-06	4.086328e-06	1.401704e-09	2.833022e+01	9.779370e+01
2.830000e-06	4.117827e-06	1.404095e-09	2.854860e+01	9.803401e+01
2.840000e-06	4.149056e-06	1.404980e-09	2.876511e+01	9.826603e+01
2.850000e-06	4.180088e-06	1.405403e-09	2.898025e+01	9.849040e+01
2.860000e-06	4.210828e-06	1.407567e-09	2.919337e+01	9.870776e+01
2.870000e-06	4.241199e-06	1.413133e-09	2.940393e+01	9.891869e+01
2.880000e-06	4.271247e-06	1.419984e-09	2.961225e+01	9.912377e+01
2.890000e-06	4.300965e-06	1.426737e-09	2.981828e+01	9.932349e+01
2.900000e-06	4.330422e-06	1.430638e-09	3.002251e+01	9.951834e+01
