# Temperatura_=_14.8
# Concentracion g/m^3_=_1620.0
# C_Vs_to_Am_M_A/Vsm_=_65563218390.804596
# pendiente_HvsI_1/m_=_3716.3
# ordenada_HvsI_A/m_=_1297.0
# frecuencia_Hz_=_135094.91127033505

Tiempo_(s)	Campo_(V.s)	Magnetizacion_(V.s)	Campo_(kA/m)	Magnetizacion_(A/m)
0.000000e+00	-5.526691e-06	-1.605924e-09	-3.837088e+01	-1.055048e+02
1.000000e-08	-5.526886e-06	-1.600151e-09	-3.837223e+01	-1.054547e+02
2.000000e-08	-5.526910e-06	-1.593943e-09	-3.837239e+01	-1.054101e+02
3.000000e-08	-5.526730e-06	-1.591770e-09	-3.837115e+01	-1.053712e+02
4.000000e-08	-5.526143e-06	-1.593537e-09	-3.836707e+01	-1.053386e+02
5.000000e-08	-5.525020e-06	-1.595457e-09	-3.835927e+01	-1.053122e+02
6.000000e-08	-5.523343e-06	-1.591603e-09	-3.834763e+01	-1.052922e+02
7.000000e-08	-5.521034e-06	-1.584045e-09	-3.833160e+01	-1.052783e+02
8.000000e-08	-5.518047e-06	-1.586133e-09	-3.831086e+01	-1.052704e+02
9.000000e-08	-5.514480e-06	-1.617710e-09	-3.828609e+01	-1.052680e+02
1.000000e-07	-5.510540e-06	-1.670886e-09	-3.825874e+01	-1.052704e+02
1.100000e-07	-5.506307e-06	-1.649034e-09	-3.822935e+01	-1.052770e+02
1.200000e-07	-5.501855e-06	-1.544196e-09	-3.819844e+01	-1.052868e+02
1.300000e-07	-5.497208e-06	-1.507436e-09	-3.816618e+01	-1.052989e+02
1.400000e-07	-5.492143e-06	-1.584355e-09	-3.813101e+01	-1.053123e+02
1.500000e-07	-5.486583e-06	-1.653371e-09	-3.809241e+01	-1.053256e+02
1.600000e-07	-5.480636e-06	-1.595287e-09	-3.805112e+01	-1.053378e+02
1.700000e-07	-5.474292e-06	-1.528510e-09	-3.800708e+01	-1.053475e+02
1.800000e-07	-5.467532e-06	-1.599273e-09	-3.796014e+01	-1.053533e+02
1.900000e-07	-5.460403e-06	-1.651197e-09	-3.791065e+01	-1.053541e+02
2.000000e-07	-5.452900e-06	-1.593544e-09	-3.785855e+01	-1.053486e+02
2.100000e-07	-5.445162e-06	-1.526329e-09	-3.780483e+01	-1.053354e+02
2.200000e-07	-5.437280e-06	-1.588457e-09	-3.775011e+01	-1.053135e+02
2.300000e-07	-5.429153e-06	-1.653211e-09	-3.769369e+01	-1.052818e+02
2.400000e-07	-5.420691e-06	-1.616828e-09	-3.763494e+01	-1.052393e+02
2.500000e-07	-5.411574e-06	-1.555289e-09	-3.757164e+01	-1.051853e+02
2.600000e-07	-5.401605e-06	-1.573107e-09	-3.750242e+01	-1.051190e+02
2.700000e-07	-5.391069e-06	-1.602098e-09	-3.742927e+01	-1.050399e+02
2.800000e-07	-5.380068e-06	-1.587874e-09	-3.735290e+01	-1.049476e+02
2.900000e-07	-5.368575e-06	-1.562348e-09	-3.727310e+01	-1.048420e+02
3.000000e-07	-5.356697e-06	-1.569166e-09	-3.719064e+01	-1.047230e+02
3.100000e-07	-5.344472e-06	-1.583568e-09	-3.710576e+01	-1.045908e+02
3.200000e-07	-5.331838e-06	-1.559955e-09	-3.701804e+01	-1.044455e+02
3.300000e-07	-5.318715e-06	-1.539383e-09	-3.692693e+01	-1.042877e+02
3.400000e-07	-5.305236e-06	-1.550155e-09	-3.683335e+01	-1.041180e+02
3.500000e-07	-5.291446e-06	-1.579303e-09	-3.673761e+01	-1.039370e+02
3.600000e-07	-5.277149e-06	-1.561743e-09	-3.663835e+01	-1.037456e+02
3.700000e-07	-5.262345e-06	-1.548294e-09	-3.653557e+01	-1.035447e+02
3.800000e-07	-5.247115e-06	-1.564092e-09	-3.642982e+01	-1.033353e+02
3.900000e-07	-5.231381e-06	-1.562881e-09	-3.632059e+01	-1.031184e+02
4.000000e-07	-5.215082e-06	-1.523176e-09	-3.620743e+01	-1.028952e+02
4.100000e-07	-5.198295e-06	-1.534372e-09	-3.609087e+01	-1.026666e+02
4.200000e-07	-5.181268e-06	-1.566953e-09	-3.597266e+01	-1.024339e+02
4.300000e-07	-5.163962e-06	-1.537349e-09	-3.585251e+01	-1.021979e+02
4.400000e-07	-5.146237e-06	-1.506450e-09	-3.572945e+01	-1.019598e+02
4.500000e-07	-5.128234e-06	-1.555235e-09	-3.560445e+01	-1.017205e+02
4.600000e-07	-5.109881e-06	-1.554075e-09	-3.547703e+01	-1.014807e+02
4.700000e-07	-5.091071e-06	-1.493280e-09	-3.534644e+01	-1.012414e+02
4.800000e-07	-5.071836e-06	-1.504092e-09	-3.521290e+01	-1.010030e+02
4.900000e-07	-5.052284e-06	-1.550316e-09	-3.507714e+01	-1.007663e+02
5.000000e-07	-5.032539e-06	-1.511366e-09	-3.494006e+01	-1.005315e+02
5.100000e-07	-5.012620e-06	-1.493171e-09	-3.480176e+01	-1.002991e+02
5.200000e-07	-4.992460e-06	-1.531707e-09	-3.466180e+01	-1.000691e+02
5.300000e-07	-4.971959e-06	-1.513806e-09	-3.451946e+01	-9.984174e+01
5.400000e-07	-4.951073e-06	-1.477460e-09	-3.437445e+01	-9.961688e+01
5.500000e-07	-4.929881e-06	-1.515010e-09	-3.422732e+01	-9.939441e+01
5.600000e-07	-4.908337e-06	-1.521790e-09	-3.407775e+01	-9.917410e+01
5.700000e-07	-4.886437e-06	-1.472236e-09	-3.392570e+01	-9.895565e+01
5.800000e-07	-4.864182e-06	-1.485107e-09	-3.377119e+01	-9.873869e+01
5.900000e-07	-4.841643e-06	-1.519116e-09	-3.361470e+01	-9.852280e+01
6.000000e-07	-4.818790e-06	-1.484903e-09	-3.345603e+01	-9.830752e+01
6.100000e-07	-4.795500e-06	-1.464024e-09	-3.329434e+01	-9.809237e+01
6.200000e-07	-4.771973e-06	-1.491400e-09	-3.313100e+01	-9.787689e+01
6.300000e-07	-4.748229e-06	-1.478263e-09	-3.296614e+01	-9.766059e+01
6.400000e-07	-4.724228e-06	-1.455500e-09	-3.279951e+01	-9.744303e+01
6.500000e-07	-4.699968e-06	-1.471282e-09	-3.263107e+01	-9.722379e+01
6.600000e-07	-4.675391e-06	-1.476823e-09	-3.246044e+01	-9.700251e+01
6.700000e-07	-4.650360e-06	-1.458556e-09	-3.228665e+01	-9.677887e+01
6.800000e-07	-4.624810e-06	-1.466723e-09	-3.210927e+01	-9.655262e+01
6.900000e-07	-4.598594e-06	-1.469982e-09	-3.192726e+01	-9.632355e+01
7.000000e-07	-4.571744e-06	-1.452657e-09	-3.174084e+01	-9.609155e+01
7.100000e-07	-4.544567e-06	-1.445122e-09	-3.155215e+01	-9.585656e+01
7.200000e-07	-4.517041e-06	-1.448576e-09	-3.136105e+01	-9.561857e+01
7.300000e-07	-4.489262e-06	-1.436894e-09	-3.116818e+01	-9.537765e+01
7.400000e-07	-4.461371e-06	-1.433484e-09	-3.097454e+01	-9.513391e+01
7.500000e-07	-4.433368e-06	-1.437443e-09	-3.078012e+01	-9.488751e+01
7.600000e-07	-4.405180e-06	-1.432372e-09	-3.058442e+01	-9.463862e+01
7.700000e-07	-4.376626e-06	-1.423411e-09	-3.038617e+01	-9.438748e+01
7.800000e-07	-4.347676e-06	-1.423673e-09	-3.018517e+01	-9.413429e+01
7.900000e-07	-4.318364e-06	-1.417309e-09	-2.998166e+01	-9.387928e+01
8.000000e-07	-4.288711e-06	-1.411707e-09	-2.977579e+01	-9.362267e+01
8.100000e-07	-4.258866e-06	-1.409808e-09	-2.956858e+01	-9.336463e+01
8.200000e-07	-4.228834e-06	-1.398729e-09	-2.936007e+01	-9.310532e+01
8.300000e-07	-4.198489e-06	-1.382656e-09	-2.914939e+01	-9.284485e+01
8.400000e-07	-4.167785e-06	-1.380260e-09	-2.893622e+01	-9.258326e+01
8.500000e-07	-4.136796e-06	-1.382380e-09	-2.872107e+01	-9.232055e+01
8.600000e-07	-4.105521e-06	-1.376810e-09	-2.850393e+01	-9.205664e+01
8.700000e-07	-4.074013e-06	-1.372342e-09	-2.828518e+01	-9.179138e+01
8.800000e-07	-4.042359e-06	-1.369198e-09	-2.806541e+01	-9.152456e+01
8.900000e-07	-4.010525e-06	-1.359268e-09	-2.784439e+01	-9.125589e+01
9.000000e-07	-3.978568e-06	-1.347905e-09	-2.762252e+01	-9.098502e+01
9.100000e-07	-3.946399e-06	-1.344020e-09	-2.739918e+01	-9.071153e+01
9.200000e-07	-3.913834e-06	-1.337671e-09	-2.717308e+01	-9.043495e+01
9.300000e-07	-3.880841e-06	-1.331239e-09	-2.694402e+01	-9.015476e+01
9.400000e-07	-3.847411e-06	-1.330678e-09	-2.671192e+01	-8.987041e+01
9.500000e-07	-3.813420e-06	-1.330531e-09	-2.647593e+01	-8.958132e+01
9.600000e-07	-3.778954e-06	-1.321513e-09	-2.623663e+01	-8.928691e+01
9.700000e-07	-3.744149e-06	-1.315412e-09	-2.599499e+01	-8.898659e+01
9.800000e-07	-3.709092e-06	-1.311766e-09	-2.575159e+01	-8.867978e+01
9.900000e-07	-3.673747e-06	-1.301933e-09	-2.550620e+01	-8.836596e+01
1.000000e-06	-3.638101e-06	-1.289209e-09	-2.525872e+01	-8.804462e+01
1.010000e-06	-3.602280e-06	-1.285675e-09	-2.501001e+01	-8.771531e+01
1.020000e-06	-3.566323e-06	-1.283008e-09	-2.476037e+01	-8.737767e+01
1.030000e-06	-3.530206e-06	-1.276944e-09	-2.450962e+01	-8.703139e+01
1.040000e-06	-3.493915e-06	-1.273007e-09	-2.425765e+01	-8.667625e+01
1.050000e-06	-3.457421e-06	-1.270858e-09	-2.400429e+01	-8.631213e+01
1.060000e-06	-3.420681e-06	-1.262104e-09	-2.374920e+01	-8.593898e+01
1.070000e-06	-3.383681e-06	-1.254509e-09	-2.349232e+01	-8.555687e+01
1.080000e-06	-3.346385e-06	-1.248898e-09	-2.323338e+01	-8.516595e+01
1.090000e-06	-3.308796e-06	-1.240519e-09	-2.297241e+01	-8.476646e+01
1.100000e-06	-3.270974e-06	-1.231323e-09	-2.270982e+01	-8.435872e+01
1.110000e-06	-3.232996e-06	-1.227049e-09	-2.244614e+01	-8.394315e+01
1.120000e-06	-3.194814e-06	-1.220567e-09	-2.218105e+01	-8.352020e+01
1.130000e-06	-3.156449e-06	-1.209435e-09	-2.191469e+01	-8.309041e+01
1.140000e-06	-3.117782e-06	-1.200497e-09	-2.164623e+01	-8.265433e+01
1.150000e-06	-3.078931e-06	-1.195061e-09	-2.137649e+01	-8.221256e+01
1.160000e-06	-3.040054e-06	-1.188494e-09	-2.110657e+01	-8.176570e+01
1.170000e-06	-3.000846e-06	-1.180286e-09	-2.083436e+01	-8.131434e+01
1.180000e-06	-2.961353e-06	-1.174220e-09	-2.056017e+01	-8.085906e+01
1.190000e-06	-2.921736e-06	-1.168516e-09	-2.028512e+01	-8.040040e+01
1.200000e-06	-2.881978e-06	-1.162748e-09	-2.000909e+01	-7.993884e+01
1.210000e-06	-2.842085e-06	-1.156779e-09	-1.973211e+01	-7.947481e+01
1.220000e-06	-2.802076e-06	-1.149082e-09	-1.945434e+01	-7.900862e+01
1.230000e-06	-2.761933e-06	-1.141637e-09	-1.917563e+01	-7.854055e+01
1.240000e-06	-2.721643e-06	-1.137600e-09	-1.889590e+01	-7.807072e+01
1.250000e-06	-2.681250e-06	-1.134047e-09	-1.861546e+01	-7.759919e+01
1.260000e-06	-2.640702e-06	-1.131391e-09	-1.833394e+01	-7.712589e+01
1.270000e-06	-2.599921e-06	-1.125534e-09	-1.805081e+01	-7.665062e+01
1.280000e-06	-2.558747e-06	-1.116961e-09	-1.776495e+01	-7.617309e+01
1.290000e-06	-2.517120e-06	-1.105462e-09	-1.747594e+01	-7.569290e+01
1.300000e-06	-2.475212e-06	-1.093737e-09	-1.718497e+01	-7.520954e+01
1.310000e-06	-2.433008e-06	-1.084613e-09	-1.689196e+01	-7.472239e+01
1.320000e-06	-2.390489e-06	-1.078612e-09	-1.659676e+01	-7.423076e+01
1.330000e-06	-2.347730e-06	-1.072349e-09	-1.629989e+01	-7.373388e+01
1.340000e-06	-2.304740e-06	-1.063189e-09	-1.600141e+01	-7.323093e+01
1.350000e-06	-2.261523e-06	-1.054793e-09	-1.570137e+01	-7.272103e+01
1.360000e-06	-2.218114e-06	-1.049052e-09	-1.539999e+01	-7.220326e+01
1.370000e-06	-2.174580e-06	-1.043138e-09	-1.509774e+01	-7.167670e+01
1.380000e-06	-2.130959e-06	-1.037193e-09	-1.479489e+01	-7.114043e+01
1.390000e-06	-2.087244e-06	-1.027483e-09	-1.449138e+01	-7.059354e+01
1.400000e-06	-2.043428e-06	-1.015030e-09	-1.418717e+01	-7.003514e+01
1.410000e-06	-1.999510e-06	-1.003044e-09	-1.388226e+01	-6.946440e+01
1.420000e-06	-1.955553e-06	-9.908615e-10	-1.357707e+01	-6.888054e+01
1.430000e-06	-1.911572e-06	-9.781522e-10	-1.327172e+01	-6.828284e+01
1.440000e-06	-1.867446e-06	-9.687565e-10	-1.296536e+01	-6.767065e+01
1.450000e-06	-1.823181e-06	-9.605199e-10	-1.265803e+01	-6.704341e+01
1.460000e-06	-1.778769e-06	-9.513399e-10	-1.234969e+01	-6.640063e+01
1.470000e-06	-1.734296e-06	-9.404486e-10	-1.204092e+01	-6.574191e+01
1.480000e-06	-1.689744e-06	-9.270150e-10	-1.173160e+01	-6.506692e+01
1.490000e-06	-1.645037e-06	-9.110605e-10	-1.142121e+01	-6.437541e+01
1.500000e-06	-1.600184e-06	-8.917882e-10	-1.110981e+01	-6.366719e+01
1.510000e-06	-1.555137e-06	-8.736706e-10	-1.079705e+01	-6.294215e+01
1.520000e-06	-1.509960e-06	-8.587879e-10	-1.048339e+01	-6.220019e+01
1.530000e-06	-1.464757e-06	-8.468210e-10	-1.016956e+01	-6.144127e+01
1.540000e-06	-1.419459e-06	-8.346397e-10	-9.855059e+00	-6.066535e+01
1.550000e-06	-1.374033e-06	-8.201320e-10	-9.539680e+00	-5.987240e+01
1.560000e-06	-1.328504e-06	-8.042613e-10	-9.223574e+00	-5.906238e+01
1.570000e-06	-1.282890e-06	-7.889949e-10	-8.906885e+00	-5.823521e+01
1.580000e-06	-1.237240e-06	-7.737630e-10	-8.589947e+00	-5.739075e+01
1.590000e-06	-1.191525e-06	-7.577028e-10	-8.272552e+00	-5.652883e+01
1.600000e-06	-1.145728e-06	-7.404770e-10	-7.954593e+00	-5.564917e+01
1.610000e-06	-1.099756e-06	-7.254332e-10	-7.635419e+00	-5.475142e+01
1.620000e-06	-1.053688e-06	-7.119206e-10	-7.315576e+00	-5.383512e+01
1.630000e-06	-1.007544e-06	-6.998542e-10	-6.995205e+00	-5.289968e+01
1.640000e-06	-9.613095e-07	-6.886651e-10	-6.674208e+00	-5.194444e+01
1.650000e-06	-9.149717e-07	-6.742817e-10	-6.352492e+00	-5.096859e+01
1.660000e-06	-8.686251e-07	-6.573332e-10	-6.030716e+00	-4.997120e+01
1.670000e-06	-8.223489e-07	-6.396731e-10	-5.709428e+00	-4.895125e+01
1.680000e-06	-7.760340e-07	-6.216760e-10	-5.387872e+00	-4.790758e+01
1.690000e-06	-7.295767e-07	-6.040296e-10	-5.065326e+00	-4.683895e+01
1.700000e-06	-6.830457e-07	-5.865034e-10	-4.742270e+00	-4.574405e+01
1.710000e-06	-6.365301e-07	-5.689551e-10	-4.419320e+00	-4.462147e+01
1.720000e-06	-5.898958e-07	-5.516874e-10	-4.095546e+00	-4.346976e+01
1.730000e-06	-5.432649e-07	-5.348641e-10	-3.771795e+00	-4.228745e+01
1.740000e-06	-4.966910e-07	-5.148646e-10	-3.448441e+00	-4.107306e+01
1.750000e-06	-4.500600e-07	-4.939430e-10	-3.124690e+00	-3.982513e+01
1.760000e-06	-4.033263e-07	-4.751109e-10	-2.800226e+00	-3.854221e+01
1.770000e-06	-3.564932e-07	-4.569864e-10	-2.475071e+00	-3.722297e+01
1.780000e-06	-3.096434e-07	-4.388005e-10	-2.149801e+00	-3.586614e+01
1.790000e-06	-2.628228e-07	-4.206190e-10	-1.824734e+00	-3.447058e+01
1.800000e-06	-2.159643e-07	-4.011689e-10	-1.499403e+00	-3.303529e+01
1.810000e-06	-1.691054e-07	-3.786023e-10	-1.174070e+00	-3.155945e+01
1.820000e-06	-1.222646e-07	-3.556395e-10	-8.488624e-01	-3.004243e+01
1.830000e-06	-7.539204e-08	-3.340908e-10	-5.234341e-01	-2.848379e+01
1.840000e-06	-2.848717e-08	-3.130950e-10	-1.977816e-01	-2.688334e+01
1.850000e-06	1.842540e-08	-2.918379e-10	1.279244e-01	-2.524111e+01
1.860000e-06	6.532367e-08	-2.722284e-10	4.535311e-01	-2.355741e+01
1.870000e-06	1.122166e-07	-2.521401e-10	7.791008e-01	-2.183277e+01
1.880000e-06	1.591556e-07	-2.281978e-10	1.104990e+00	-2.006801e+01
1.890000e-06	2.061774e-07	-2.023282e-10	1.431455e+00	-1.826419e+01
1.900000e-06	2.530412e-07	-1.764726e-10	1.756822e+00	-1.642265e+01
1.910000e-06	2.997314e-07	-1.481372e-10	2.080984e+00	-1.454495e+01
1.920000e-06	3.464488e-07	-1.196367e-10	2.405335e+00	-1.263292e+01
1.930000e-06	3.931791e-07	-9.215940e-11	2.729775e+00	-1.068859e+01
1.940000e-06	4.398390e-07	-6.428654e-11	3.053727e+00	-8.714216e+00
1.950000e-06	4.865417e-07	-3.614635e-11	3.377976e+00	-6.712229e+00
1.960000e-06	5.331784e-07	-8.727742e-12	3.701766e+00	-4.685231e+00
1.970000e-06	5.797464e-07	1.804925e-11	4.025081e+00	-2.635968e+00
1.980000e-06	6.262857e-07	4.622713e-11	4.348195e+00	-5.673039e-01
1.990000e-06	6.727833e-07	7.581124e-11	4.671020e+00	1.517808e+00
2.000000e-06	7.192178e-07	1.068901e-10	4.993407e+00	3.616347e+00
2.010000e-06	7.655643e-07	1.391656e-10	5.315182e+00	5.725254e+00
2.020000e-06	8.118827e-07	1.712312e-10	5.636763e+00	7.841457e+00
2.030000e-06	8.582197e-07	2.025138e-10	5.958473e+00	9.961897e+00
2.040000e-06	9.045344e-07	2.316297e-10	6.280028e+00	1.208355e+01
2.050000e-06	9.507403e-07	2.586413e-10	6.600828e+00	1.420346e+01
2.060000e-06	9.968969e-07	2.863977e-10	6.921285e+00	1.631874e+01
2.070000e-06	1.042978e-06	3.158202e-10	7.241222e+00	1.842660e+01
2.080000e-06	1.088982e-06	3.456368e-10	7.560614e+00	2.052438e+01
2.090000e-06	1.134824e-06	3.747327e-10	7.878893e+00	2.260953e+01
2.100000e-06	1.180531e-06	4.052698e-10	8.196226e+00	2.467967e+01
2.110000e-06	1.226128e-06	4.358148e-10	8.512797e+00	2.673253e+01
2.120000e-06	1.271637e-06	4.644017e-10	8.828757e+00	2.876604e+01
2.130000e-06	1.317137e-06	4.944817e-10	9.144658e+00	3.077824e+01
2.140000e-06	1.362623e-06	5.237883e-10	9.460462e+00	3.276737e+01
2.150000e-06	1.407999e-06	5.492921e-10	9.775498e+00	3.473181e+01
2.160000e-06	1.453218e-06	5.745431e-10	1.008944e+01	3.667011e+01
2.170000e-06	1.498312e-06	5.994746e-10	1.040252e+01	3.858097e+01
2.180000e-06	1.543351e-06	6.246743e-10	1.071522e+01	4.046323e+01
2.190000e-06	1.588311e-06	6.499854e-10	1.102737e+01	4.231586e+01
2.200000e-06	1.633179e-06	6.754068e-10	1.133888e+01	4.413799e+01
2.210000e-06	1.677959e-06	7.030372e-10	1.164978e+01	4.592885e+01
2.220000e-06	1.722580e-06	7.305657e-10	1.195958e+01	4.768778e+01
2.230000e-06	1.767012e-06	7.560793e-10	1.226806e+01	4.941423e+01
2.240000e-06	1.811277e-06	7.785443e-10	1.257539e+01	5.110775e+01
2.250000e-06	1.855450e-06	7.989835e-10	1.288207e+01	5.276796e+01
2.260000e-06	1.899513e-06	8.193298e-10	1.318800e+01	5.439457e+01
2.270000e-06	1.943497e-06	8.398653e-10	1.349337e+01	5.598734e+01
2.280000e-06	1.987412e-06	8.616329e-10	1.379826e+01	5.754610e+01
2.290000e-06	2.031222e-06	8.830324e-10	1.410243e+01	5.907073e+01
2.300000e-06	2.074957e-06	9.028654e-10	1.440607e+01	6.056117e+01
2.310000e-06	2.118657e-06	9.225514e-10	1.470948e+01	6.201738e+01
2.320000e-06	2.162297e-06	9.423334e-10	1.501246e+01	6.343938e+01
2.330000e-06	2.205823e-06	9.624733e-10	1.531465e+01	6.482722e+01
2.340000e-06	2.249237e-06	9.824736e-10	1.561607e+01	6.618098e+01
2.350000e-06	2.292465e-06	1.000782e-09	1.591619e+01	6.750078e+01
2.360000e-06	2.335480e-06	1.018254e-09	1.621484e+01	6.878678e+01
2.370000e-06	2.378242e-06	1.035606e-09	1.651173e+01	7.003914e+01
2.380000e-06	2.420756e-06	1.051570e-09	1.680690e+01	7.125811e+01
2.390000e-06	2.462957e-06	1.066040e-09	1.709989e+01	7.244391e+01
2.400000e-06	2.504752e-06	1.081803e-09	1.739007e+01	7.359685e+01
2.410000e-06	2.546230e-06	1.098346e-09	1.767804e+01	7.471723e+01
2.420000e-06	2.587464e-06	1.113293e-09	1.796432e+01	7.580542e+01
2.430000e-06	2.628425e-06	1.125943e-09	1.824870e+01	7.686179e+01
2.440000e-06	2.669069e-06	1.137499e-09	1.853089e+01	7.788679e+01
2.450000e-06	2.709502e-06	1.148257e-09	1.881161e+01	7.888085e+01
2.460000e-06	2.749793e-06	1.159315e-09	1.909135e+01	7.984447e+01
2.470000e-06	2.789938e-06	1.170479e-09	1.937007e+01	8.077816e+01
2.480000e-06	2.829897e-06	1.179533e-09	1.964749e+01	8.168246e+01
2.490000e-06	2.869659e-06	1.187259e-09	1.992355e+01	8.255796e+01
2.500000e-06	2.909367e-06	1.197051e-09	2.019924e+01	8.340522e+01
2.510000e-06	2.949047e-06	1.207512e-09	2.047473e+01	8.422486e+01
2.520000e-06	2.988470e-06	1.217481e-09	2.074844e+01	8.501751e+01
2.530000e-06	3.027630e-06	1.228083e-09	2.102032e+01	8.578377e+01
2.540000e-06	3.066676e-06	1.237526e-09	2.129141e+01	8.652430e+01
2.550000e-06	3.105579e-06	1.246980e-09	2.156151e+01	8.723973e+01
2.560000e-06	3.144307e-06	1.255683e-09	2.183039e+01	8.793068e+01
2.570000e-06	3.182791e-06	1.263581e-09	2.209757e+01	8.859780e+01
2.580000e-06	3.220976e-06	1.270791e-09	2.236269e+01	8.924168e+01
2.590000e-06	3.258863e-06	1.279398e-09	2.262573e+01	8.986296e+01
2.600000e-06	3.296524e-06	1.290128e-09	2.288721e+01	9.046221e+01
2.610000e-06	3.334027e-06	1.299859e-09	2.314758e+01	9.104003e+01
2.620000e-06	3.371307e-06	1.308402e-09	2.340641e+01	9.159698e+01
2.630000e-06	3.408339e-06	1.317141e-09	2.366352e+01	9.213363e+01
2.640000e-06	3.445054e-06	1.326438e-09	2.391843e+01	9.265050e+01
2.650000e-06	3.481478e-06	1.333915e-09	2.417131e+01	9.314815e+01
2.660000e-06	3.517716e-06	1.337440e-09	2.442290e+01	9.362709e+01
2.670000e-06	3.553785e-06	1.340597e-09	2.467332e+01	9.408785e+01
2.680000e-06	3.589692e-06	1.345124e-09	2.492262e+01	9.453096e+01
2.690000e-06	3.625497e-06	1.349476e-09	2.517121e+01	9.495693e+01
2.700000e-06	3.661150e-06	1.354634e-09	2.541874e+01	9.536630e+01
2.710000e-06	3.696570e-06	1.361989e-09	2.566466e+01	9.575962e+01
2.720000e-06	3.731782e-06	1.369933e-09	2.590913e+01	9.613744e+01
2.730000e-06	3.766649e-06	1.378231e-09	2.615120e+01	9.650035e+01
2.740000e-06	3.801119e-06	1.386160e-09	2.639052e+01	9.684893e+01
2.750000e-06	3.835183e-06	1.392944e-09	2.662702e+01	9.718382e+01
2.760000e-06	3.868676e-06	1.398357e-09	2.685956e+01	9.750566e+01
2.770000e-06	3.901742e-06	1.402733e-09	2.708913e+01	9.781512e+01
2.780000e-06	3.934400e-06	1.408329e-09	2.731587e+01	9.811290e+01
2.790000e-06	3.966629e-06	1.414667e-09	2.753963e+01	9.839974e+01
2.800000e-06	3.998722e-06	1.420743e-09	2.776245e+01	9.867636e+01
2.810000e-06	4.030717e-06	1.424871e-09	2.798458e+01	9.894353e+01
2.820000e-06	4.062514e-06	1.427880e-09	2.820534e+01	9.920203e+01
2.830000e-06	4.094147e-06	1.432975e-09	2.842497e+01	9.945263e+01
2.840000e-06	4.125558e-06	1.439340e-09	2.864305e+01	9.969613e+01
2.850000e-06	4.156676e-06	1.444738e-09	2.885909e+01	9.993328e+01
2.860000e-06	4.187466e-06	1.446641e-09	2.907286e+01	1.001649e+02
2.870000e-06	4.217908e-06	1.448476e-09	2.928422e+01	1.003916e+02
2.880000e-06	4.248032e-06	1.453054e-09	2.949336e+01	1.006141e+02
2.890000e-06	4.277844e-06	1.457376e-09	2.970034e+01	1.008332e+02
2.900000e-06	4.307431e-06	1.462914e-09	2.990576e+01	1.010494e+02
