# Temperatura_=_14.1
# Concentracion g/m^3_=_1620.0
# C_Vs_to_Am_M_A/Vsm_=_65563218390.804596
# pendiente_HvsI_1/m_=_3716.3
# ordenada_HvsI_A/m_=_1297.0
# frecuencia_Hz_=_135095.03142862112

Tiempo_(s)	Campo_(V.s)	Magnetizacion_(V.s)	Campo_(kA/m)	Magnetizacion_(A/m)
0.000000e+00	-5.528857e-06	-1.654728e-09	-3.837230e+01	-1.069485e+02
1.000000e-08	-5.529144e-06	-1.653059e-09	-3.837429e+01	-1.069165e+02
2.000000e-08	-5.529167e-06	-1.652698e-09	-3.837445e+01	-1.068889e+02
3.000000e-08	-5.528827e-06	-1.652077e-09	-3.837209e+01	-1.068659e+02
4.000000e-08	-5.528041e-06	-1.652541e-09	-3.836664e+01	-1.068478e+02
5.000000e-08	-5.526636e-06	-1.646623e-09	-3.835689e+01	-1.068345e+02
6.000000e-08	-5.524600e-06	-1.633252e-09	-3.834275e+01	-1.068260e+02
7.000000e-08	-5.522029e-06	-1.623798e-09	-3.832491e+01	-1.068221e+02
8.000000e-08	-5.518904e-06	-1.671631e-09	-3.830322e+01	-1.068226e+02
9.000000e-08	-5.515304e-06	-1.739907e-09	-3.827824e+01	-1.068268e+02
1.000000e-07	-5.511305e-06	-1.688761e-09	-3.825048e+01	-1.068344e+02
1.100000e-07	-5.506993e-06	-1.571052e-09	-3.822056e+01	-1.068446e+02
1.200000e-07	-5.502472e-06	-1.567602e-09	-3.818918e+01	-1.068567e+02
1.300000e-07	-5.497660e-06	-1.677871e-09	-3.815578e+01	-1.068698e+02
1.400000e-07	-5.492474e-06	-1.714030e-09	-3.811979e+01	-1.068830e+02
1.500000e-07	-5.486895e-06	-1.600684e-09	-3.808107e+01	-1.068953e+02
1.600000e-07	-5.480937e-06	-1.596047e-09	-3.803971e+01	-1.069057e+02
1.700000e-07	-5.474550e-06	-1.663353e-09	-3.799539e+01	-1.069130e+02
1.800000e-07	-5.467673e-06	-1.719782e-09	-3.794766e+01	-1.069163e+02
1.900000e-07	-5.460418e-06	-1.626932e-09	-3.789731e+01	-1.069143e+02
2.000000e-07	-5.452934e-06	-1.582251e-09	-3.784537e+01	-1.069061e+02
2.100000e-07	-5.445230e-06	-1.636138e-09	-3.779190e+01	-1.068905e+02
2.200000e-07	-5.437254e-06	-1.697416e-09	-3.773654e+01	-1.068668e+02
2.300000e-07	-5.428987e-06	-1.656676e-09	-3.767916e+01	-1.068338e+02
2.400000e-07	-5.420422e-06	-1.592092e-09	-3.761972e+01	-1.067908e+02
2.500000e-07	-5.411183e-06	-1.614684e-09	-3.755560e+01	-1.067372e+02
2.600000e-07	-5.401141e-06	-1.653479e-09	-3.748590e+01	-1.066722e+02
2.700000e-07	-5.390575e-06	-1.645845e-09	-3.741257e+01	-1.065954e+02
2.800000e-07	-5.379498e-06	-1.606481e-09	-3.733569e+01	-1.065064e+02
2.900000e-07	-5.367976e-06	-1.628642e-09	-3.725572e+01	-1.064050e+02
3.000000e-07	-5.356137e-06	-1.635538e-09	-3.717356e+01	-1.062910e+02
3.100000e-07	-5.343803e-06	-1.621856e-09	-3.708795e+01	-1.061646e+02
3.200000e-07	-5.330986e-06	-1.586132e-09	-3.699900e+01	-1.060259e+02
3.300000e-07	-5.317796e-06	-1.629340e-09	-3.690746e+01	-1.058752e+02
3.400000e-07	-5.304227e-06	-1.639165e-09	-3.681328e+01	-1.057128e+02
3.500000e-07	-5.290369e-06	-1.619505e-09	-3.671710e+01	-1.055394e+02
3.600000e-07	-5.276141e-06	-1.596997e-09	-3.661836e+01	-1.053555e+02
3.700000e-07	-5.261449e-06	-1.620554e-09	-3.651639e+01	-1.051619e+02
3.800000e-07	-5.246156e-06	-1.586607e-09	-3.641025e+01	-1.049594e+02
3.900000e-07	-5.230239e-06	-1.568834e-09	-3.629978e+01	-1.047489e+02
4.000000e-07	-5.213834e-06	-1.607247e-09	-3.618593e+01	-1.045312e+02
4.100000e-07	-5.197163e-06	-1.621439e-09	-3.607022e+01	-1.043074e+02
4.200000e-07	-5.180179e-06	-1.560137e-09	-3.595235e+01	-1.040783e+02
4.300000e-07	-5.162754e-06	-1.574465e-09	-3.583141e+01	-1.038450e+02
4.400000e-07	-5.145115e-06	-1.624252e-09	-3.570899e+01	-1.036084e+02
4.500000e-07	-5.127182e-06	-1.583110e-09	-3.558453e+01	-1.033694e+02
4.600000e-07	-5.108772e-06	-1.534144e-09	-3.545676e+01	-1.031289e+02
4.700000e-07	-5.089966e-06	-1.585354e-09	-3.532624e+01	-1.028877e+02
4.800000e-07	-5.070784e-06	-1.595414e-09	-3.519310e+01	-1.026465e+02
4.900000e-07	-5.051245e-06	-1.541117e-09	-3.505749e+01	-1.024061e+02
5.000000e-07	-5.031508e-06	-1.558696e-09	-3.492052e+01	-1.021669e+02
5.100000e-07	-5.011631e-06	-1.585146e-09	-3.478256e+01	-1.019295e+02
5.200000e-07	-4.991442e-06	-1.537511e-09	-3.464244e+01	-1.016943e+02
5.300000e-07	-4.970914e-06	-1.530471e-09	-3.449997e+01	-1.014615e+02
5.400000e-07	-4.950000e-06	-1.581722e-09	-3.435482e+01	-1.012313e+02
5.500000e-07	-4.928634e-06	-1.549420e-09	-3.420653e+01	-1.010038e+02
5.600000e-07	-4.906944e-06	-1.510564e-09	-3.405600e+01	-1.007791e+02
5.700000e-07	-4.885054e-06	-1.545035e-09	-3.390407e+01	-1.005569e+02
5.800000e-07	-4.862812e-06	-1.554909e-09	-3.374970e+01	-1.003371e+02
5.900000e-07	-4.840157e-06	-1.505982e-09	-3.359246e+01	-1.001195e+02
6.000000e-07	-4.817196e-06	-1.521723e-09	-3.343311e+01	-9.990360e+01
6.100000e-07	-4.793927e-06	-1.541305e-09	-3.327162e+01	-9.968911e+01
6.200000e-07	-4.770348e-06	-1.512726e-09	-3.310797e+01	-9.947554e+01
6.300000e-07	-4.746589e-06	-1.502088e-09	-3.294307e+01	-9.926241e+01
6.400000e-07	-4.722585e-06	-1.529719e-09	-3.277647e+01	-9.904920e+01
6.500000e-07	-4.698212e-06	-1.508437e-09	-3.260732e+01	-9.883537e+01
6.600000e-07	-4.673390e-06	-1.494300e-09	-3.243505e+01	-9.862038e+01
6.700000e-07	-4.648117e-06	-1.514282e-09	-3.225964e+01	-9.840368e+01
6.800000e-07	-4.622409e-06	-1.508057e-09	-3.208121e+01	-9.818474e+01
6.900000e-07	-4.596238e-06	-1.476655e-09	-3.189958e+01	-9.796307e+01
7.000000e-07	-4.569526e-06	-1.487385e-09	-3.171419e+01	-9.773818e+01
7.100000e-07	-4.542278e-06	-1.489391e-09	-3.152507e+01	-9.750963e+01
7.200000e-07	-4.514724e-06	-1.470384e-09	-3.133384e+01	-9.727703e+01
7.300000e-07	-4.487046e-06	-1.469659e-09	-3.114174e+01	-9.704001e+01
7.400000e-07	-4.459244e-06	-1.481240e-09	-3.094879e+01	-9.679828e+01
7.500000e-07	-4.431137e-06	-1.465681e-09	-3.075372e+01	-9.655157e+01
7.600000e-07	-4.402758e-06	-1.456201e-09	-3.055676e+01	-9.629968e+01
7.700000e-07	-4.374072e-06	-1.460237e-09	-3.035767e+01	-9.604246e+01
7.800000e-07	-4.344991e-06	-1.446080e-09	-3.015583e+01	-9.577980e+01
7.900000e-07	-4.315627e-06	-1.434329e-09	-2.995203e+01	-9.551163e+01
8.000000e-07	-4.285977e-06	-1.439419e-09	-2.974626e+01	-9.523793e+01
8.100000e-07	-4.256030e-06	-1.429692e-09	-2.953841e+01	-9.495871e+01
8.200000e-07	-4.225799e-06	-1.412016e-09	-2.932860e+01	-9.467403e+01
8.300000e-07	-4.195251e-06	-1.414543e-09	-2.911658e+01	-9.438396e+01
8.400000e-07	-4.164372e-06	-1.413791e-09	-2.890227e+01	-9.408859e+01
8.500000e-07	-4.133235e-06	-1.398432e-09	-2.868617e+01	-9.378803e+01
8.600000e-07	-4.101943e-06	-1.393439e-09	-2.846899e+01	-9.348241e+01
8.700000e-07	-4.070411e-06	-1.397928e-09	-2.825015e+01	-9.317185e+01
8.800000e-07	-4.038714e-06	-1.384198e-09	-2.803016e+01	-9.285647e+01
8.900000e-07	-4.006903e-06	-1.374847e-09	-2.780938e+01	-9.253640e+01
9.000000e-07	-3.974924e-06	-1.372606e-09	-2.758743e+01	-9.221176e+01
9.100000e-07	-3.942706e-06	-1.363826e-09	-2.736383e+01	-9.188263e+01
9.200000e-07	-3.910086e-06	-1.351249e-09	-2.713743e+01	-9.154911e+01
9.300000e-07	-3.876993e-06	-1.357973e-09	-2.690776e+01	-9.121128e+01
9.400000e-07	-3.843411e-06	-1.353962e-09	-2.667468e+01	-9.086919e+01
9.500000e-07	-3.809397e-06	-1.340336e-09	-2.643862e+01	-9.052289e+01
9.600000e-07	-3.774947e-06	-1.331796e-09	-2.619952e+01	-9.017239e+01
9.700000e-07	-3.740060e-06	-1.325464e-09	-2.595739e+01	-8.981770e+01
9.800000e-07	-3.704877e-06	-1.310856e-09	-2.571321e+01	-8.945884e+01
9.900000e-07	-3.669442e-06	-1.304038e-09	-2.546728e+01	-8.909578e+01
1.000000e-06	-3.633787e-06	-1.304182e-09	-2.521981e+01	-8.872849e+01
1.010000e-06	-3.597991e-06	-1.299860e-09	-2.497138e+01	-8.835697e+01
1.020000e-06	-3.562051e-06	-1.290597e-09	-2.472194e+01	-8.798118e+01
1.030000e-06	-3.525960e-06	-1.290579e-09	-2.447146e+01	-8.760109e+01
1.040000e-06	-3.489682e-06	-1.285965e-09	-2.421967e+01	-8.721668e+01
1.050000e-06	-3.453139e-06	-1.276920e-09	-2.396605e+01	-8.682793e+01
1.060000e-06	-3.416297e-06	-1.267263e-09	-2.371036e+01	-8.643485e+01
1.070000e-06	-3.379220e-06	-1.259406e-09	-2.345303e+01	-8.603742e+01
1.080000e-06	-3.341900e-06	-1.249589e-09	-2.319401e+01	-8.563568e+01
1.090000e-06	-3.304311e-06	-1.239973e-09	-2.293313e+01	-8.522965e+01
1.100000e-06	-3.266516e-06	-1.234513e-09	-2.267082e+01	-8.481938e+01
1.110000e-06	-3.228479e-06	-1.224179e-09	-2.240683e+01	-8.440493e+01
1.120000e-06	-3.190150e-06	-1.215362e-09	-2.214081e+01	-8.398636e+01
1.130000e-06	-3.151530e-06	-1.210733e-09	-2.187278e+01	-8.356375e+01
1.140000e-06	-3.112719e-06	-1.206052e-09	-2.160341e+01	-8.313721e+01
1.150000e-06	-3.073721e-06	-1.199337e-09	-2.133275e+01	-8.270681e+01
1.160000e-06	-3.034519e-06	-1.194141e-09	-2.106068e+01	-8.227267e+01
1.170000e-06	-2.995172e-06	-1.187919e-09	-2.078759e+01	-8.183487e+01
1.180000e-06	-2.955665e-06	-1.179442e-09	-2.051340e+01	-8.139350e+01
1.190000e-06	-2.916083e-06	-1.172985e-09	-2.023868e+01	-8.094864e+01
1.200000e-06	-2.876422e-06	-1.170045e-09	-1.996342e+01	-8.050035e+01
1.210000e-06	-2.836575e-06	-1.161691e-09	-1.968687e+01	-8.004868e+01
1.220000e-06	-2.796616e-06	-1.153556e-09	-1.940955e+01	-7.959363e+01
1.230000e-06	-2.756554e-06	-1.146263e-09	-1.913149e+01	-7.913521e+01
1.240000e-06	-2.716327e-06	-1.140128e-09	-1.885231e+01	-7.867335e+01
1.250000e-06	-2.675849e-06	-1.131817e-09	-1.857137e+01	-7.820799e+01
1.260000e-06	-2.635142e-06	-1.126477e-09	-1.828886e+01	-7.773899e+01
1.270000e-06	-2.594247e-06	-1.121149e-09	-1.800503e+01	-7.726619e+01
1.280000e-06	-2.552950e-06	-1.111348e-09	-1.771841e+01	-7.678939e+01
1.290000e-06	-2.511263e-06	-1.098379e-09	-1.742909e+01	-7.630832e+01
1.300000e-06	-2.469336e-06	-1.087529e-09	-1.713810e+01	-7.582268e+01
1.310000e-06	-2.427178e-06	-1.075853e-09	-1.684550e+01	-7.533213e+01
1.320000e-06	-2.384655e-06	-1.065961e-09	-1.655038e+01	-7.483627e+01
1.330000e-06	-2.341790e-06	-1.061485e-09	-1.625288e+01	-7.433467e+01
1.340000e-06	-2.298679e-06	-1.057504e-09	-1.595367e+01	-7.382687e+01
1.350000e-06	-2.255303e-06	-1.049998e-09	-1.565263e+01	-7.331234e+01
1.360000e-06	-2.211833e-06	-1.043663e-09	-1.535094e+01	-7.279054e+01
1.370000e-06	-2.168289e-06	-1.035511e-09	-1.504872e+01	-7.226090e+01
1.380000e-06	-2.124624e-06	-1.023210e-09	-1.474567e+01	-7.172283e+01
1.390000e-06	-2.080890e-06	-1.008928e-09	-1.444214e+01	-7.117570e+01
1.400000e-06	-2.037063e-06	-9.976321e-10	-1.413796e+01	-7.061889e+01
1.410000e-06	-1.993137e-06	-9.885837e-10	-1.383310e+01	-7.005174e+01
1.420000e-06	-1.949167e-06	-9.792508e-10	-1.352794e+01	-6.947362e+01
1.430000e-06	-1.905171e-06	-9.704644e-10	-1.322259e+01	-6.888387e+01
1.440000e-06	-1.861098e-06	-9.620954e-10	-1.291670e+01	-6.828184e+01
1.450000e-06	-1.816918e-06	-9.524806e-10	-1.261008e+01	-6.766689e+01
1.460000e-06	-1.772538e-06	-9.415319e-10	-1.230206e+01	-6.703838e+01
1.470000e-06	-1.727939e-06	-9.293110e-10	-1.199253e+01	-6.639570e+01
1.480000e-06	-1.683294e-06	-9.147664e-10	-1.168268e+01	-6.573823e+01
1.490000e-06	-1.638544e-06	-8.997614e-10	-1.137210e+01	-6.506537e+01
1.500000e-06	-1.593562e-06	-8.832595e-10	-1.105991e+01	-6.437654e+01
1.510000e-06	-1.548494e-06	-8.698894e-10	-1.074712e+01	-6.367116e+01
1.520000e-06	-1.503389e-06	-8.601292e-10	-1.043407e+01	-6.294868e+01
1.530000e-06	-1.458201e-06	-8.511839e-10	-1.012045e+01	-6.220853e+01
1.540000e-06	-1.412865e-06	-8.404066e-10	-9.805799e+00	-6.145017e+01
1.550000e-06	-1.367357e-06	-8.283078e-10	-9.489960e+00	-6.067305e+01
1.560000e-06	-1.321790e-06	-8.138635e-10	-9.173705e+00	-5.987664e+01
1.570000e-06	-1.276170e-06	-7.996630e-10	-8.857088e+00	-5.906037e+01
1.580000e-06	-1.230493e-06	-7.840919e-10	-8.540071e+00	-5.822368e+01
1.590000e-06	-1.184767e-06	-7.672387e-10	-8.222721e+00	-5.736602e+01
1.600000e-06	-1.138959e-06	-7.511294e-10	-7.904792e+00	-5.648678e+01
1.610000e-06	-1.093077e-06	-7.382566e-10	-7.586357e+00	-5.558535e+01
1.620000e-06	-1.047114e-06	-7.287605e-10	-7.267359e+00	-5.466112e+01
1.630000e-06	-1.001040e-06	-7.194192e-10	-6.947587e+00	-5.371341e+01
1.640000e-06	-9.549099e-07	-7.085769e-10	-6.627425e+00	-5.274154e+01
1.650000e-06	-9.087289e-07	-6.950560e-10	-6.306912e+00	-5.174481e+01
1.660000e-06	-8.624365e-07	-6.774969e-10	-5.985626e+00	-5.072247e+01
1.670000e-06	-8.159709e-07	-6.580875e-10	-5.663137e+00	-4.967375e+01
1.680000e-06	-7.695459e-07	-6.392450e-10	-5.340931e+00	-4.859786e+01
1.690000e-06	-7.232046e-07	-6.196737e-10	-5.019305e+00	-4.749399e+01
1.700000e-06	-6.766506e-07	-5.993433e-10	-4.696204e+00	-4.636130e+01
1.710000e-06	-6.300258e-07	-5.816758e-10	-4.372610e+00	-4.519896e+01
1.720000e-06	-5.835100e-07	-5.668142e-10	-4.049774e+00	-4.400612e+01
1.730000e-06	-5.368981e-07	-5.510935e-10	-3.726270e+00	-4.278195e+01
1.740000e-06	-4.901371e-07	-5.312487e-10	-3.401731e+00	-4.152561e+01
1.750000e-06	-4.434213e-07	-5.081240e-10	-3.077507e+00	-4.023632e+01
1.760000e-06	-3.968050e-07	-4.834515e-10	-2.753973e+00	-3.891329e+01
1.770000e-06	-3.500768e-07	-4.600694e-10	-2.429662e+00	-3.755583e+01
1.780000e-06	-3.031449e-07	-4.416118e-10	-2.103937e+00	-3.616325e+01
1.790000e-06	-2.562225e-07	-4.239479e-10	-1.778279e+00	-3.473499e+01
1.800000e-06	-2.093200e-07	-4.045823e-10	-1.452758e+00	-3.327053e+01
1.810000e-06	-1.625141e-07	-3.857329e-10	-1.127907e+00	-3.176948e+01
1.820000e-06	-1.158044e-07	-3.663461e-10	-8.037252e-01	-3.023153e+01
1.830000e-06	-6.896510e-08	-3.447415e-10	-4.786431e-01	-2.865651e+01
1.840000e-06	-2.198250e-08	-3.235160e-10	-1.525666e-01	-2.704437e+01
1.850000e-06	2.494137e-08	-3.034462e-10	1.731023e-01	-2.539523e+01
1.860000e-06	7.185737e-08	-2.832430e-10	4.987166e-01	-2.370934e+01
1.870000e-06	1.189316e-07	-2.604313e-10	8.254292e-01	-2.198710e+01
1.880000e-06	1.659535e-07	-2.342996e-10	1.151778e+00	-2.022910e+01
1.890000e-06	2.127921e-07	-2.059480e-10	1.476855e+00	-1.843609e+01
1.900000e-06	2.595660e-07	-1.780005e-10	1.801483e+00	-1.660900e+01
1.910000e-06	3.063647e-07	-1.499246e-10	2.126284e+00	-1.474894e+01
1.920000e-06	3.531791e-07	-1.231266e-10	2.451193e+00	-1.285720e+01
1.930000e-06	4.000118e-07	-9.869267e-11	2.776229e+00	-1.093522e+01
1.940000e-06	4.468029e-07	-7.345155e-11	3.100976e+00	-8.984653e+00
1.950000e-06	4.934900e-07	-4.732220e-11	3.425002e+00	-7.007280e+00
1.960000e-06	5.401261e-07	-2.048420e-11	3.748674e+00	-5.005061e+00
1.970000e-06	5.867441e-07	9.147626e-12	4.072219e+00	-2.980101e+00
1.980000e-06	6.332942e-07	3.964277e-11	4.395294e+00	-9.346413e-01
1.990000e-06	6.798109e-07	6.994479e-11	4.718137e+00	1.128950e+00
2.000000e-06	7.263049e-07	1.011470e-10	5.040823e+00	3.208191e+00
2.010000e-06	7.726883e-07	1.325301e-10	5.362740e+00	5.300507e+00
2.020000e-06	8.189717e-07	1.622679e-10	5.683964e+00	7.403238e+00
2.030000e-06	8.652438e-07	1.908024e-10	6.005109e+00	9.513663e+00
2.040000e-06	9.115157e-07	2.185491e-10	6.326253e+00	1.162901e+01
2.050000e-06	9.577086e-07	2.465040e-10	6.646849e+00	1.374649e+01
2.060000e-06	1.003761e-06	2.755425e-10	6.966471e+00	1.586329e+01
2.070000e-06	1.049709e-06	3.064907e-10	7.285363e+00	1.797661e+01
2.080000e-06	1.095626e-06	3.394404e-10	7.604045e+00	2.008369e+01
2.090000e-06	1.141497e-06	3.709639e-10	7.922411e+00	2.218179e+01
2.100000e-06	1.187332e-06	4.027825e-10	8.240520e+00	2.426824e+01
2.110000e-06	1.233103e-06	4.335224e-10	8.558190e+00	2.634046e+01
2.120000e-06	1.278787e-06	4.621801e-10	8.875251e+00	2.839595e+01
2.130000e-06	1.324359e-06	4.906850e-10	9.191540e+00	3.043232e+01
2.140000e-06	1.369948e-06	5.162885e-10	9.507940e+00	3.244729e+01
2.150000e-06	1.415431e-06	5.381811e-10	9.823610e+00	3.443873e+01
2.160000e-06	1.460727e-06	5.618840e-10	1.013798e+01	3.640464e+01
2.170000e-06	1.505947e-06	5.887967e-10	1.045183e+01	3.834317e+01
2.180000e-06	1.550944e-06	6.176345e-10	1.076412e+01	4.025261e+01
2.190000e-06	1.595702e-06	6.482305e-10	1.107476e+01	4.213144e+01
2.200000e-06	1.640486e-06	6.777953e-10	1.138558e+01	4.397829e+01
2.210000e-06	1.685249e-06	7.051302e-10	1.169624e+01	4.579194e+01
2.220000e-06	1.729801e-06	7.306040e-10	1.200545e+01	4.757137e+01
2.230000e-06	1.774202e-06	7.531485e-10	1.231361e+01	4.931569e+01
2.240000e-06	1.818367e-06	7.727892e-10	1.262013e+01	5.102419e+01
2.250000e-06	1.862391e-06	7.908012e-10	1.292568e+01	5.269631e+01
2.260000e-06	1.906400e-06	8.103410e-10	1.323111e+01	5.433164e+01
2.270000e-06	1.950388e-06	8.333448e-10	1.353641e+01	5.592992e+01
2.280000e-06	1.994332e-06	8.575679e-10	1.384140e+01	5.749099e+01
2.290000e-06	2.038183e-06	8.791600e-10	1.414574e+01	5.901487e+01
2.300000e-06	2.081968e-06	8.983742e-10	1.444963e+01	6.050166e+01
2.310000e-06	2.125691e-06	9.169326e-10	1.475308e+01	6.195157e+01
2.320000e-06	2.169333e-06	9.357955e-10	1.505597e+01	6.336489e+01
2.330000e-06	2.212853e-06	9.530590e-10	1.535801e+01	6.474203e+01
2.340000e-06	2.256257e-06	9.704435e-10	1.565925e+01	6.608344e+01
2.350000e-06	2.299512e-06	9.902656e-10	1.595946e+01	6.738964e+01
2.360000e-06	2.342572e-06	1.009063e-09	1.625831e+01	6.866118e+01
2.370000e-06	2.385464e-06	1.026122e-09	1.655600e+01	6.989868e+01
2.380000e-06	2.428070e-06	1.040853e-09	1.685170e+01	7.110276e+01
2.390000e-06	2.470173e-06	1.054124e-09	1.714391e+01	7.227406e+01
2.400000e-06	2.511794e-06	1.068251e-09	1.743277e+01	7.341325e+01
2.410000e-06	2.553125e-06	1.083467e-09	1.771963e+01	7.452098e+01
2.420000e-06	2.594236e-06	1.098536e-09	1.800495e+01	7.559788e+01
2.430000e-06	2.635052e-06	1.111823e-09	1.828823e+01	7.664461e+01
2.440000e-06	2.675589e-06	1.123072e-09	1.856957e+01	7.766176e+01
2.450000e-06	2.715978e-06	1.132906e-09	1.884988e+01	7.864992e+01
2.460000e-06	2.756259e-06	1.143525e-09	1.912945e+01	7.960967e+01
2.470000e-06	2.796388e-06	1.156507e-09	1.940796e+01	8.054154e+01
2.480000e-06	2.836332e-06	1.168801e-09	1.968519e+01	8.144603e+01
2.490000e-06	2.876152e-06	1.180309e-09	1.996155e+01	8.232362e+01
2.500000e-06	2.915844e-06	1.192814e-09	2.023703e+01	8.317476e+01
2.510000e-06	2.955439e-06	1.204990e-09	2.051183e+01	8.399987e+01
2.520000e-06	2.994851e-06	1.216214e-09	2.078537e+01	8.479936e+01
2.530000e-06	3.034008e-06	1.226002e-09	2.105713e+01	8.557362e+01
2.540000e-06	3.073026e-06	1.233921e-09	2.132793e+01	8.632300e+01
2.550000e-06	3.111841e-06	1.242445e-09	2.159732e+01	8.704787e+01
2.560000e-06	3.150328e-06	1.251706e-09	2.186443e+01	8.774858e+01
2.570000e-06	3.188581e-06	1.261644e-09	2.212993e+01	8.842550e+01
2.580000e-06	3.226668e-06	1.271991e-09	2.239426e+01	8.907898e+01
2.590000e-06	3.264553e-06	1.282006e-09	2.265719e+01	8.970941e+01
2.600000e-06	3.302275e-06	1.291559e-09	2.291900e+01	9.031718e+01
2.610000e-06	3.339811e-06	1.299752e-09	2.317951e+01	9.090272e+01
2.620000e-06	3.376988e-06	1.308393e-09	2.343753e+01	9.146648e+01
2.630000e-06	3.413862e-06	1.317166e-09	2.369345e+01	9.200895e+01
2.640000e-06	3.450617e-06	1.325604e-09	2.394855e+01	9.253064e+01
2.650000e-06	3.487147e-06	1.333946e-09	2.420208e+01	9.303212e+01
2.660000e-06	3.523366e-06	1.341375e-09	2.445345e+01	9.351400e+01
2.670000e-06	3.559369e-06	1.348929e-09	2.470333e+01	9.397694e+01
2.680000e-06	3.595261e-06	1.357052e-09	2.495243e+01	9.442161e+01
2.690000e-06	3.631065e-06	1.365375e-09	2.520092e+01	9.484878e+01
2.700000e-06	3.666699e-06	1.374771e-09	2.544823e+01	9.525921e+01
2.710000e-06	3.702116e-06	1.383495e-09	2.569405e+01	9.565372e+01
2.720000e-06	3.737328e-06	1.390209e-09	2.593843e+01	9.603317e+01
2.730000e-06	3.772277e-06	1.394131e-09	2.618099e+01	9.639844e+01
2.740000e-06	3.806897e-06	1.396986e-09	2.642126e+01	9.675045e+01
2.750000e-06	3.841025e-06	1.401133e-09	2.665812e+01	9.709011e+01
2.760000e-06	3.874552e-06	1.404676e-09	2.689081e+01	9.741836e+01
2.770000e-06	3.907632e-06	1.409607e-09	2.712040e+01	9.773614e+01
2.780000e-06	3.940354e-06	1.417055e-09	2.734751e+01	9.804437e+01
2.790000e-06	3.972733e-06	1.425694e-09	2.757222e+01	9.834398e+01
2.800000e-06	4.004849e-06	1.434675e-09	2.779512e+01	9.863586e+01
2.810000e-06	4.036772e-06	1.442622e-09	2.801668e+01	9.892085e+01
2.820000e-06	4.068534e-06	1.449571e-09	2.823712e+01	9.919978e+01
2.830000e-06	4.100075e-06	1.454839e-09	2.845602e+01	9.947341e+01
2.840000e-06	4.131441e-06	1.459229e-09	2.867372e+01	9.974244e+01
2.850000e-06	4.162580e-06	1.462330e-09	2.888983e+01	1.000075e+02
2.860000e-06	4.193287e-06	1.462191e-09	2.910295e+01	1.002692e+02
2.870000e-06	4.223650e-06	1.463209e-09	2.931368e+01	1.005280e+02
2.880000e-06	4.253776e-06	1.467493e-09	2.952277e+01	1.007842e+02
2.890000e-06	4.283635e-06	1.474475e-09	2.973000e+01	1.010383e+02
2.900000e-06	4.313156e-06	1.483136e-09	2.993489e+01	1.012904e+02
