# Temperatura_=_16.6
# Concentracion g/m^3_=_4090.0
# C_Vs_to_Am_M_A/Vsm_=_65563218390.804596
# pendiente_HvsI_1/m_=_3716.3
# ordenada_HvsI_A/m_=_1297.0
# frecuencia_Hz_=_135080.44629424452

Tiempo_(s)	Campo_(V.s)	Magnetizacion_(V.s)	Campo_(kA/m)	Magnetizacion_(A/m)
0.000000e+00	-5.421652e-06	-2.648694e-09	-3.838780e+01	-1.714813e+02
1.000000e-08	-5.421887e-06	-2.655742e-09	-3.838946e+01	-1.714279e+02
2.000000e-08	-5.421870e-06	-2.660912e-09	-3.838934e+01	-1.713747e+02
3.000000e-08	-5.421619e-06	-2.662449e-09	-3.838756e+01	-1.713232e+02
4.000000e-08	-5.421040e-06	-2.660201e-09	-3.838346e+01	-1.712749e+02
5.000000e-08	-5.419888e-06	-2.654251e-09	-3.837531e+01	-1.712313e+02
6.000000e-08	-5.418069e-06	-2.651602e-09	-3.836243e+01	-1.711938e+02
7.000000e-08	-5.415709e-06	-2.667958e-09	-3.834571e+01	-1.711638e+02
8.000000e-08	-5.412814e-06	-2.663636e-09	-3.832522e+01	-1.711427e+02
9.000000e-08	-5.409308e-06	-2.610100e-09	-3.830039e+01	-1.711315e+02
1.000000e-07	-5.405334e-06	-2.588084e-09	-3.827226e+01	-1.711314e+02
1.100000e-07	-5.401147e-06	-2.674002e-09	-3.824261e+01	-1.711432e+02
1.200000e-07	-5.396775e-06	-2.705612e-09	-3.821165e+01	-1.711675e+02
1.300000e-07	-5.392103e-06	-2.620897e-09	-3.817857e+01	-1.712048e+02
1.400000e-07	-5.387093e-06	-2.553166e-09	-3.814310e+01	-1.712554e+02
1.500000e-07	-5.381731e-06	-2.652777e-09	-3.810513e+01	-1.713191e+02
1.600000e-07	-5.375918e-06	-2.704591e-09	-3.806397e+01	-1.713958e+02
1.700000e-07	-5.369721e-06	-2.601025e-09	-3.802010e+01	-1.714849e+02
1.800000e-07	-5.363095e-06	-2.533885e-09	-3.797318e+01	-1.715858e+02
1.900000e-07	-5.356105e-06	-2.628500e-09	-3.792369e+01	-1.716973e+02
2.000000e-07	-5.348872e-06	-2.685200e-09	-3.787248e+01	-1.718185e+02
2.100000e-07	-5.341290e-06	-2.607403e-09	-3.781879e+01	-1.719477e+02
2.200000e-07	-5.333455e-06	-2.593810e-09	-3.776332e+01	-1.720836e+02
2.300000e-07	-5.325342e-06	-2.661031e-09	-3.770588e+01	-1.722244e+02
2.400000e-07	-5.316734e-06	-2.654328e-09	-3.764493e+01	-1.723683e+02
2.500000e-07	-5.307680e-06	-2.586721e-09	-3.758082e+01	-1.725134e+02
2.600000e-07	-5.298108e-06	-2.640740e-09	-3.751305e+01	-1.726577e+02
2.700000e-07	-5.287936e-06	-2.701921e-09	-3.744102e+01	-1.727992e+02
2.800000e-07	-5.277252e-06	-2.648862e-09	-3.736538e+01	-1.729359e+02
2.900000e-07	-5.266023e-06	-2.618193e-09	-3.728587e+01	-1.730659e+02
3.000000e-07	-5.254312e-06	-2.698727e-09	-3.720295e+01	-1.731873e+02
3.100000e-07	-5.242171e-06	-2.694457e-09	-3.711698e+01	-1.732984e+02
3.200000e-07	-5.229643e-06	-2.623316e-09	-3.702828e+01	-1.733975e+02
3.300000e-07	-5.216748e-06	-2.626061e-09	-3.693698e+01	-1.734832e+02
3.400000e-07	-5.203476e-06	-2.682739e-09	-3.684301e+01	-1.735542e+02
3.500000e-07	-5.189836e-06	-2.659187e-09	-3.674643e+01	-1.736094e+02
3.600000e-07	-5.175861e-06	-2.648666e-09	-3.664748e+01	-1.736479e+02
3.700000e-07	-5.161596e-06	-2.673151e-09	-3.654648e+01	-1.736691e+02
3.800000e-07	-5.146845e-06	-2.662123e-09	-3.644203e+01	-1.736725e+02
3.900000e-07	-5.131451e-06	-2.635054e-09	-3.633304e+01	-1.736580e+02
4.000000e-07	-5.115439e-06	-2.652645e-09	-3.621967e+01	-1.736255e+02
4.100000e-07	-5.098922e-06	-2.638691e-09	-3.610272e+01	-1.735752e+02
4.200000e-07	-5.082070e-06	-2.594379e-09	-3.598340e+01	-1.735076e+02
4.300000e-07	-5.064948e-06	-2.617242e-09	-3.586217e+01	-1.734232e+02
4.400000e-07	-5.047614e-06	-2.659777e-09	-3.573943e+01	-1.733229e+02
4.500000e-07	-5.029997e-06	-2.633846e-09	-3.561469e+01	-1.732075e+02
4.600000e-07	-5.011931e-06	-2.600051e-09	-3.548678e+01	-1.730780e+02
4.700000e-07	-4.993465e-06	-2.622215e-09	-3.535603e+01	-1.729354e+02
4.800000e-07	-4.974662e-06	-2.629705e-09	-3.522290e+01	-1.727811e+02
4.900000e-07	-4.955445e-06	-2.602603e-09	-3.508683e+01	-1.726161e+02
5.000000e-07	-4.935856e-06	-2.585264e-09	-3.494813e+01	-1.724416e+02
5.100000e-07	-4.916041e-06	-2.599699e-09	-3.480783e+01	-1.722588e+02
5.200000e-07	-4.896000e-06	-2.612540e-09	-3.466594e+01	-1.720689e+02
5.300000e-07	-4.875742e-06	-2.619491e-09	-3.452250e+01	-1.718729e+02
5.400000e-07	-4.855233e-06	-2.607671e-09	-3.437729e+01	-1.716718e+02
5.500000e-07	-4.834363e-06	-2.593672e-09	-3.422952e+01	-1.714665e+02
5.600000e-07	-4.813117e-06	-2.591496e-09	-3.407909e+01	-1.712577e+02
5.700000e-07	-4.791516e-06	-2.601559e-09	-3.392614e+01	-1.710461e+02
5.800000e-07	-4.769624e-06	-2.588553e-09	-3.377114e+01	-1.708323e+02
5.900000e-07	-4.747470e-06	-2.568420e-09	-3.361428e+01	-1.706166e+02
6.000000e-07	-4.724901e-06	-2.573063e-09	-3.345447e+01	-1.703993e+02
6.100000e-07	-4.701970e-06	-2.600262e-09	-3.329212e+01	-1.701804e+02
6.200000e-07	-4.678720e-06	-2.594357e-09	-3.312750e+01	-1.699602e+02
6.300000e-07	-4.655210e-06	-2.567554e-09	-3.296103e+01	-1.697383e+02
6.400000e-07	-4.631532e-06	-2.560237e-09	-3.279338e+01	-1.695147e+02
6.500000e-07	-4.607554e-06	-2.570457e-09	-3.262360e+01	-1.692891e+02
6.600000e-07	-4.583303e-06	-2.564301e-09	-3.245190e+01	-1.690612e+02
6.700000e-07	-4.558761e-06	-2.549456e-09	-3.227813e+01	-1.688305e+02
6.800000e-07	-4.533859e-06	-2.542354e-09	-3.210181e+01	-1.685967e+02
6.900000e-07	-4.508569e-06	-2.546953e-09	-3.192274e+01	-1.683592e+02
7.000000e-07	-4.482732e-06	-2.550820e-09	-3.173981e+01	-1.681178e+02
7.100000e-07	-4.456229e-06	-2.540976e-09	-3.155216e+01	-1.678720e+02
7.200000e-07	-4.429195e-06	-2.523559e-09	-3.136074e+01	-1.676214e+02
7.300000e-07	-4.401776e-06	-2.523265e-09	-3.116660e+01	-1.673658e+02
7.400000e-07	-4.374102e-06	-2.531823e-09	-3.097066e+01	-1.671047e+02
7.500000e-07	-4.346314e-06	-2.520809e-09	-3.077391e+01	-1.668382e+02
7.600000e-07	-4.318365e-06	-2.504017e-09	-3.057601e+01	-1.665660e+02
7.700000e-07	-4.290148e-06	-2.502376e-09	-3.037622e+01	-1.662880e+02
7.800000e-07	-4.261706e-06	-2.509465e-09	-3.017484e+01	-1.660044e+02
7.900000e-07	-4.233020e-06	-2.504939e-09	-2.997173e+01	-1.657152e+02
8.000000e-07	-4.203994e-06	-2.491632e-09	-2.976621e+01	-1.654207e+02
8.100000e-07	-4.174599e-06	-2.481545e-09	-2.955809e+01	-1.651210e+02
8.200000e-07	-4.144923e-06	-2.485275e-09	-2.934797e+01	-1.648164e+02
8.300000e-07	-4.115030e-06	-2.488540e-09	-2.913631e+01	-1.645074e+02
8.400000e-07	-4.084904e-06	-2.480750e-09	-2.892300e+01	-1.641942e+02
8.500000e-07	-4.054468e-06	-2.467857e-09	-2.870750e+01	-1.638773e+02
8.600000e-07	-4.023711e-06	-2.463371e-09	-2.848973e+01	-1.635571e+02
8.700000e-07	-3.992684e-06	-2.458158e-09	-2.827005e+01	-1.632340e+02
8.800000e-07	-3.961371e-06	-2.447182e-09	-2.804833e+01	-1.629083e+02
8.900000e-07	-3.929864e-06	-2.433320e-09	-2.782525e+01	-1.625803e+02
9.000000e-07	-3.898156e-06	-2.431036e-09	-2.760074e+01	-1.622505e+02
9.100000e-07	-3.866228e-06	-2.435799e-09	-2.737468e+01	-1.619189e+02
9.200000e-07	-3.834108e-06	-2.438262e-09	-2.714725e+01	-1.615858e+02
9.300000e-07	-3.801817e-06	-2.432199e-09	-2.691862e+01	-1.612513e+02
9.400000e-07	-3.769429e-06	-2.426453e-09	-2.668929e+01	-1.609153e+02
9.500000e-07	-3.736729e-06	-2.420092e-09	-2.645776e+01	-1.605778e+02
9.600000e-07	-3.703576e-06	-2.410789e-09	-2.622303e+01	-1.602388e+02
9.700000e-07	-3.670063e-06	-2.398571e-09	-2.598574e+01	-1.598979e+02
9.800000e-07	-3.636095e-06	-2.392338e-09	-2.574523e+01	-1.595548e+02
9.900000e-07	-3.601698e-06	-2.393097e-09	-2.550168e+01	-1.592093e+02
1.000000e-06	-3.566807e-06	-2.393208e-09	-2.525464e+01	-1.588609e+02
1.010000e-06	-3.531483e-06	-2.389741e-09	-2.500453e+01	-1.585091e+02
1.020000e-06	-3.495963e-06	-2.384295e-09	-2.475303e+01	-1.581535e+02
1.030000e-06	-3.460200e-06	-2.377276e-09	-2.449981e+01	-1.577936e+02
1.040000e-06	-3.424257e-06	-2.368851e-09	-2.424532e+01	-1.574287e+02
1.050000e-06	-3.388214e-06	-2.358490e-09	-2.399012e+01	-1.570585e+02
1.060000e-06	-3.352101e-06	-2.346936e-09	-2.373442e+01	-1.566824e+02
1.070000e-06	-3.315863e-06	-2.340257e-09	-2.347784e+01	-1.562999e+02
1.080000e-06	-3.279424e-06	-2.334577e-09	-2.321983e+01	-1.559106e+02
1.090000e-06	-3.242749e-06	-2.326596e-09	-2.296016e+01	-1.555142e+02
1.100000e-06	-3.205766e-06	-2.317085e-09	-2.269830e+01	-1.551102e+02
1.110000e-06	-3.168463e-06	-2.309612e-09	-2.243418e+01	-1.546986e+02
1.120000e-06	-3.130914e-06	-2.303149e-09	-2.216832e+01	-1.542789e+02
1.130000e-06	-3.093239e-06	-2.298596e-09	-2.190156e+01	-1.538513e+02
1.140000e-06	-3.055301e-06	-2.292787e-09	-2.163294e+01	-1.534156e+02
1.150000e-06	-3.017075e-06	-2.289447e-09	-2.136228e+01	-1.529718e+02
1.160000e-06	-2.978748e-06	-2.284706e-09	-2.109091e+01	-1.525201e+02
1.170000e-06	-2.940242e-06	-2.273878e-09	-2.081827e+01	-1.520605e+02
1.180000e-06	-2.901464e-06	-2.257858e-09	-2.054370e+01	-1.515934e+02
1.190000e-06	-2.862430e-06	-2.245590e-09	-2.026733e+01	-1.511188e+02
1.200000e-06	-2.823218e-06	-2.240498e-09	-1.998969e+01	-1.506371e+02
1.210000e-06	-2.783857e-06	-2.237781e-09	-1.971099e+01	-1.501484e+02
1.220000e-06	-2.744309e-06	-2.229189e-09	-1.943098e+01	-1.496531e+02
1.230000e-06	-2.704624e-06	-2.221258e-09	-1.914998e+01	-1.491514e+02
1.240000e-06	-2.664857e-06	-2.214888e-09	-1.886842e+01	-1.486434e+02
1.250000e-06	-2.624988e-06	-2.206620e-09	-1.858613e+01	-1.481292e+02
1.260000e-06	-2.585013e-06	-2.193122e-09	-1.830308e+01	-1.476089e+02
1.270000e-06	-2.544905e-06	-2.176757e-09	-1.801910e+01	-1.470825e+02
1.280000e-06	-2.504618e-06	-2.165941e-09	-1.773385e+01	-1.465499e+02
1.290000e-06	-2.464234e-06	-2.159596e-09	-1.744791e+01	-1.460109e+02
1.300000e-06	-2.423651e-06	-2.152375e-09	-1.716056e+01	-1.454651e+02
1.310000e-06	-2.382835e-06	-2.144973e-09	-1.687157e+01	-1.449122e+02
1.320000e-06	-2.341894e-06	-2.138383e-09	-1.658169e+01	-1.443516e+02
1.330000e-06	-2.300751e-06	-2.128120e-09	-1.629038e+01	-1.437827e+02
1.340000e-06	-2.259306e-06	-2.115002e-09	-1.599693e+01	-1.432047e+02
1.350000e-06	-2.217446e-06	-2.101786e-09	-1.570054e+01	-1.426168e+02
1.360000e-06	-2.175291e-06	-2.090489e-09	-1.540206e+01	-1.420182e+02
1.370000e-06	-2.132890e-06	-2.081918e-09	-1.510184e+01	-1.414078e+02
1.380000e-06	-2.090232e-06	-2.073294e-09	-1.479981e+01	-1.407846e+02
1.390000e-06	-2.047426e-06	-2.062000e-09	-1.449672e+01	-1.401475e+02
1.400000e-06	-2.004415e-06	-2.053724e-09	-1.419218e+01	-1.394954e+02
1.410000e-06	-1.961231e-06	-2.047386e-09	-1.388642e+01	-1.388272e+02
1.420000e-06	-1.917817e-06	-2.037548e-09	-1.357903e+01	-1.381418e+02
1.430000e-06	-1.874200e-06	-2.022271e-09	-1.327020e+01	-1.374380e+02
1.440000e-06	-1.830547e-06	-2.007545e-09	-1.296112e+01	-1.367149e+02
1.450000e-06	-1.786784e-06	-1.996110e-09	-1.265126e+01	-1.359715e+02
1.460000e-06	-1.742877e-06	-1.984705e-09	-1.234038e+01	-1.352068e+02
1.470000e-06	-1.698897e-06	-1.969352e-09	-1.202897e+01	-1.344199e+02
1.480000e-06	-1.654833e-06	-1.953359e-09	-1.171698e+01	-1.336102e+02
1.490000e-06	-1.610664e-06	-1.940324e-09	-1.140424e+01	-1.327770e+02
1.500000e-06	-1.566470e-06	-1.930484e-09	-1.109133e+01	-1.319196e+02
1.510000e-06	-1.522281e-06	-1.917278e-09	-1.077845e+01	-1.310377e+02
1.520000e-06	-1.478003e-06	-1.900317e-09	-1.046495e+01	-1.301308e+02
1.530000e-06	-1.433576e-06	-1.885613e-09	-1.015038e+01	-1.291986e+02
1.540000e-06	-1.389105e-06	-1.874121e-09	-9.835504e+00	-1.282409e+02
1.550000e-06	-1.344597e-06	-1.861166e-09	-9.520367e+00	-1.272575e+02
1.560000e-06	-1.299963e-06	-1.844478e-09	-9.204334e+00	-1.262483e+02
1.570000e-06	-1.255259e-06	-1.829139e-09	-8.887811e+00	-1.252131e+02
1.580000e-06	-1.210553e-06	-1.817595e-09	-8.571273e+00	-1.241519e+02
1.590000e-06	-1.165816e-06	-1.803508e-09	-8.254518e+00	-1.230646e+02
1.600000e-06	-1.120912e-06	-1.785063e-09	-7.936575e+00	-1.219509e+02
1.610000e-06	-1.075830e-06	-1.768185e-09	-7.617370e+00	-1.208106e+02
1.620000e-06	-1.030697e-06	-1.754402e-09	-7.297809e+00	-1.196434e+02
1.630000e-06	-9.854492e-07	-1.739856e-09	-6.977435e+00	-1.184489e+02
1.640000e-06	-9.400304e-07	-1.719424e-09	-6.655848e+00	-1.172265e+02
1.650000e-06	-8.945384e-07	-1.696177e-09	-6.333744e+00	-1.159755e+02
1.660000e-06	-8.490543e-07	-1.676590e-09	-6.011696e+00	-1.146951e+02
1.670000e-06	-8.035373e-07	-1.659725e-09	-5.689414e+00	-1.133843e+02
1.680000e-06	-7.579238e-07	-1.640456e-09	-5.366450e+00	-1.120418e+02
1.690000e-06	-7.122680e-07	-1.617336e-09	-5.043185e+00	-1.106663e+02
1.700000e-06	-6.665160e-07	-1.594490e-09	-4.719240e+00	-1.092562e+02
1.710000e-06	-6.207101e-07	-1.575837e-09	-4.394914e+00	-1.078099e+02
1.720000e-06	-5.749208e-07	-1.555063e-09	-4.070704e+00	-1.063253e+02
1.730000e-06	-5.290893e-07	-1.527941e-09	-3.746196e+00	-1.048005e+02
1.740000e-06	-4.832269e-07	-1.500573e-09	-3.421469e+00	-1.032333e+02
1.750000e-06	-4.372913e-07	-1.476494e-09	-3.096224e+00	-1.016215e+02
1.760000e-06	-3.912677e-07	-1.451715e-09	-2.770355e+00	-9.996266e+01
1.770000e-06	-3.452674e-07	-1.423869e-09	-2.444652e+00	-9.825442e+01
1.780000e-06	-2.992368e-07	-1.395143e-09	-2.118734e+00	-9.649436e+01
1.790000e-06	-2.532272e-07	-1.371009e-09	-1.792965e+00	-9.468010e+01
1.800000e-06	-2.072425e-07	-1.346548e-09	-1.467373e+00	-9.280929e+01
1.810000e-06	-1.611703e-07	-1.317397e-09	-1.141160e+00	-9.087969e+01
1.820000e-06	-1.151093e-07	-1.287697e-09	-8.150269e-01	-8.888918e+01
1.830000e-06	-6.909524e-08	-1.258491e-09	-4.892261e-01	-8.683583e+01
1.840000e-06	-2.311195e-08	-1.227544e-09	-1.636433e-01	-8.471789e+01
1.850000e-06	2.287835e-08	-1.191670e-09	1.619892e-01	-8.253385e+01
1.860000e-06	6.887947e-08	-1.152496e-09	4.876984e-01	-8.028247e+01
1.870000e-06	1.148543e-07	-1.119547e-09	8.132217e-01	-7.796280e+01
1.880000e-06	1.608397e-07	-1.091036e-09	1.138819e+00	-7.557421e+01
1.890000e-06	2.068045e-07	-1.059361e-09	1.464271e+00	-7.311641e+01
1.900000e-06	2.527647e-07	-1.022057e-09	1.789690e+00	-7.058945e+01
1.910000e-06	2.986597e-07	-9.821482e-10	2.114648e+00	-6.799373e+01
1.920000e-06	3.445206e-07	-9.403774e-10	2.439364e+00	-6.533003e+01
1.930000e-06	3.904412e-07	-8.942036e-10	2.764503e+00	-6.259947e+01
1.940000e-06	4.363301e-07	-8.454287e-10	3.089418e+00	-5.980355e+01
1.950000e-06	4.821609e-07	-8.004058e-10	3.413921e+00	-5.694407e+01
1.960000e-06	5.279270e-07	-7.633320e-10	3.737966e+00	-5.402319e+01
1.970000e-06	5.736592e-07	-7.269256e-10	4.061772e+00	-5.104335e+01
1.980000e-06	6.193606e-07	-6.837842e-10	4.385359e+00	-4.800728e+01
1.990000e-06	6.650610e-07	-6.350364e-10	4.708938e+00	-4.491794e+01
2.000000e-06	7.107241e-07	-5.867487e-10	5.032254e+00	-4.177853e+01
2.010000e-06	7.563373e-07	-5.392358e-10	5.355217e+00	-3.859241e+01
2.020000e-06	8.018817e-07	-4.889525e-10	5.677692e+00	-3.536310e+01
2.030000e-06	8.473912e-07	-4.372318e-10	5.999920e+00	-3.209423e+01
2.040000e-06	8.928485e-07	-3.895899e-10	6.321778e+00	-2.878951e+01
2.050000e-06	9.381453e-07	-3.455823e-10	6.642501e+00	-2.545269e+01
2.060000e-06	9.833294e-07	-2.969176e-10	6.962425e+00	-2.208753e+01
2.070000e-06	1.028442e-06	-2.418884e-10	7.281845e+00	-1.869775e+01
2.080000e-06	1.073562e-06	-1.898537e-10	7.601310e+00	-1.528705e+01
2.090000e-06	1.118631e-06	-1.438560e-10	7.920421e+00	-1.185902e+01
2.100000e-06	1.163526e-06	-9.804155e-11	8.238300e+00	-8.417179e+00
2.110000e-06	1.208365e-06	-4.646790e-11	8.555780e+00	-4.964905e+00
2.120000e-06	1.253138e-06	8.695745e-12	8.872796e+00	-1.505457e+00
2.130000e-06	1.297718e-06	6.239405e-11	9.188441e+00	1.958053e+00
2.140000e-06	1.342229e-06	1.166555e-10	9.503601e+00	5.422659e+00
2.150000e-06	1.386675e-06	1.755422e-10	9.818299e+00	8.885547e+00
2.160000e-06	1.431021e-06	2.328628e-10	1.013229e+01	1.234405e+01
2.170000e-06	1.475381e-06	2.808182e-10	1.044638e+01	1.579564e+01
2.180000e-06	1.519661e-06	3.248008e-10	1.075990e+01	1.923793e+01
2.190000e-06	1.563794e-06	3.734030e-10	1.107238e+01	2.266865e+01
2.200000e-06	1.607901e-06	4.251236e-10	1.138468e+01	2.608564e+01
2.210000e-06	1.651947e-06	4.759062e-10	1.169655e+01	2.948683e+01
2.220000e-06	1.695933e-06	5.255786e-10	1.200799e+01	3.287022e+01
2.230000e-06	1.739893e-06	5.771229e-10	1.231924e+01	3.623388e+01
2.240000e-06	1.783761e-06	6.305903e-10	1.262985e+01	3.957592e+01
2.250000e-06	1.827534e-06	6.793675e-10	1.293978e+01	4.289447e+01
2.260000e-06	1.871193e-06	7.218237e-10	1.324891e+01	4.618768e+01
2.270000e-06	1.914796e-06	7.656807e-10	1.355764e+01	4.945368e+01
2.280000e-06	1.958331e-06	8.128591e-10	1.386588e+01	5.269060e+01
2.290000e-06	2.001689e-06	8.580017e-10	1.417288e+01	5.589654e+01
2.300000e-06	2.044809e-06	9.003216e-10	1.447819e+01	5.906958e+01
2.310000e-06	2.087809e-06	9.457561e-10	1.478265e+01	6.220777e+01
2.320000e-06	2.130624e-06	9.949355e-10	1.508580e+01	6.530912e+01
2.330000e-06	2.173061e-06	1.042525e-09	1.538627e+01	6.837162e+01
2.340000e-06	2.215151e-06	1.086443e-09	1.568429e+01	7.139325e+01
2.350000e-06	2.256848e-06	1.129559e-09	1.597953e+01	7.437197e+01
2.360000e-06	2.298241e-06	1.175663e-09	1.627260e+01	7.730576e+01
2.370000e-06	2.339339e-06	1.219530e-09	1.656360e+01	8.019262e+01
2.380000e-06	2.380153e-06	1.255615e-09	1.685258e+01	8.303057e+01
2.390000e-06	2.420737e-06	1.288941e-09	1.713993e+01	8.581772e+01
2.400000e-06	2.461178e-06	1.327485e-09	1.742627e+01	8.855225e+01
2.410000e-06	2.501499e-06	1.367641e-09	1.771177e+01	9.123244e+01
2.420000e-06	2.541617e-06	1.406145e-09	1.799582e+01	9.385669e+01
2.430000e-06	2.581654e-06	1.445145e-09	1.827930e+01	9.642354e+01
2.440000e-06	2.621640e-06	1.486383e-09	1.856242e+01	9.893172e+01
2.450000e-06	2.661498e-06	1.527123e-09	1.884463e+01	1.013801e+02
2.460000e-06	2.701217e-06	1.561278e-09	1.912586e+01	1.037678e+02
2.470000e-06	2.740858e-06	1.590071e-09	1.940654e+01	1.060941e+02
2.480000e-06	2.780265e-06	1.619081e-09	1.968556e+01	1.083586e+02
2.490000e-06	2.819443e-06	1.650884e-09	1.996296e+01	1.105609e+02
2.500000e-06	2.858520e-06	1.683400e-09	2.023964e+01	1.127011e+02
2.510000e-06	2.897476e-06	1.715511e-09	2.051547e+01	1.147793e+02
2.520000e-06	2.936312e-06	1.749239e-09	2.079044e+01	1.167961e+02
2.530000e-06	2.974868e-06	1.781726e-09	2.106343e+01	1.187521e+02
2.540000e-06	3.013132e-06	1.805953e-09	2.133436e+01	1.206480e+02
2.550000e-06	3.051153e-06	1.825657e-09	2.160357e+01	1.224850e+02
2.560000e-06	3.088978e-06	1.847578e-09	2.187139e+01	1.242644e+02
2.570000e-06	3.126651e-06	1.871864e-09	2.213813e+01	1.259874e+02
2.580000e-06	3.164107e-06	1.896074e-09	2.240334e+01	1.276555e+02
2.590000e-06	3.201243e-06	1.921582e-09	2.266627e+01	1.292704e+02
2.600000e-06	3.238148e-06	1.948821e-09	2.292758e+01	1.308338e+02
2.610000e-06	3.274858e-06	1.973312e-09	2.318750e+01	1.323473e+02
2.620000e-06	3.311327e-06	1.992082e-09	2.344572e+01	1.338128e+02
2.630000e-06	3.347646e-06	2.009955e-09	2.370287e+01	1.352320e+02
2.640000e-06	3.383831e-06	2.030489e-09	2.395909e+01	1.366066e+02
2.650000e-06	3.419892e-06	2.050949e-09	2.421441e+01	1.379383e+02
2.660000e-06	3.455804e-06	2.066868e-09	2.446868e+01	1.392286e+02
2.670000e-06	3.491516e-06	2.081942e-09	2.472154e+01	1.404792e+02
2.680000e-06	3.527063e-06	2.100629e-09	2.497323e+01	1.416914e+02
2.690000e-06	3.562365e-06	2.119733e-09	2.522319e+01	1.428666e+02
2.700000e-06	3.597271e-06	2.135076e-09	2.547034e+01	1.440058e+02
2.710000e-06	3.631815e-06	2.148581e-09	2.571492e+01	1.451102e+02
2.720000e-06	3.665879e-06	2.165298e-09	2.595611e+01	1.461806e+02
2.730000e-06	3.699430e-06	2.182859e-09	2.619367e+01	1.472179e+02
2.740000e-06	3.732652e-06	2.196075e-09	2.642889e+01	1.482226e+02
2.750000e-06	3.765495e-06	2.206042e-09	2.666144e+01	1.491954e+02
2.760000e-06	3.798008e-06	2.219166e-09	2.689165e+01	1.501366e+02
2.770000e-06	3.830363e-06	2.234745e-09	2.712073e+01	1.510467e+02
2.780000e-06	3.862575e-06	2.246844e-09	2.734881e+01	1.519258e+02
2.790000e-06	3.894619e-06	2.256089e-09	2.757570e+01	1.527743e+02
2.800000e-06	3.926435e-06	2.268338e-09	2.780097e+01	1.535924e+02
2.810000e-06	3.957918e-06	2.284365e-09	2.802389e+01	1.543801e+02
2.820000e-06	3.989089e-06	2.298344e-09	2.824459e+01	1.551377e+02
2.830000e-06	4.020068e-06	2.304096e-09	2.846393e+01	1.558655e+02
2.840000e-06	4.050774e-06	2.308216e-09	2.868135e+01	1.565635e+02
2.850000e-06	4.081142e-06	2.318364e-09	2.889637e+01	1.572323e+02
2.860000e-06	4.111265e-06	2.331563e-09	2.910965e+01	1.578720e+02
2.870000e-06	4.141114e-06	2.341111e-09	2.932100e+01	1.584832e+02
2.880000e-06	4.170699e-06	2.347277e-09	2.953047e+01	1.590665e+02
2.890000e-06	4.200039e-06	2.355506e-09	2.973821e+01	1.596225e+02
2.900000e-06	4.229048e-06	2.365217e-09	2.994361e+01	1.601519e+02
