# Temperatura_=_18.6
# Concentracion g/m^3_=_4090.0
# C_Vs_to_Am_M_A/Vsm_=_65563218390.804596
# pendiente_HvsI_1/m_=_3716.3
# ordenada_HvsI_A/m_=_1297.0
# frecuencia_Hz_=_135077.99118572427

Tiempo_(s)	Campo_(V.s)	Magnetizacion_(V.s)	Campo_(kA/m)	Magnetizacion_(A/m)
0.000000e+00	-5.390888e-06	-2.697527e-09	-3.838971e+01	-1.724657e+02
1.000000e-08	-5.390995e-06	-2.697203e-09	-3.839048e+01	-1.724523e+02
2.000000e-08	-5.390910e-06	-2.696892e-09	-3.838987e+01	-1.724369e+02
3.000000e-08	-5.390550e-06	-2.698180e-09	-3.838731e+01	-1.724205e+02
4.000000e-08	-5.389801e-06	-2.701861e-09	-3.838197e+01	-1.724041e+02
5.000000e-08	-5.388632e-06	-2.700105e-09	-3.837365e+01	-1.723887e+02
6.000000e-08	-5.386906e-06	-2.694053e-09	-3.836136e+01	-1.723753e+02
7.000000e-08	-5.384577e-06	-2.697010e-09	-3.834477e+01	-1.723650e+02
8.000000e-08	-5.381629e-06	-2.700769e-09	-3.832378e+01	-1.723587e+02
9.000000e-08	-5.378027e-06	-2.693335e-09	-3.829813e+01	-1.723574e+02
1.000000e-07	-5.373931e-06	-2.705208e-09	-3.826896e+01	-1.723619e+02
1.100000e-07	-5.369605e-06	-2.730084e-09	-3.823815e+01	-1.723732e+02
1.200000e-07	-5.365154e-06	-2.653999e-09	-3.820646e+01	-1.723918e+02
1.300000e-07	-5.360498e-06	-2.643948e-09	-3.817330e+01	-1.724183e+02
1.400000e-07	-5.355474e-06	-2.672474e-09	-3.813752e+01	-1.724531e+02
1.500000e-07	-5.349979e-06	-2.722473e-09	-3.809840e+01	-1.724965e+02
1.600000e-07	-5.344105e-06	-2.658613e-09	-3.805657e+01	-1.725485e+02
1.700000e-07	-5.337947e-06	-2.596697e-09	-3.801271e+01	-1.726090e+02
1.800000e-07	-5.331344e-06	-2.688758e-09	-3.796569e+01	-1.726778e+02
1.900000e-07	-5.324281e-06	-2.728001e-09	-3.791539e+01	-1.727545e+02
2.000000e-07	-5.316927e-06	-2.663297e-09	-3.786302e+01	-1.728382e+02
2.100000e-07	-5.309384e-06	-2.583441e-09	-3.780930e+01	-1.729284e+02
2.200000e-07	-5.301624e-06	-2.663547e-09	-3.775405e+01	-1.730240e+02
2.300000e-07	-5.293505e-06	-2.669586e-09	-3.769623e+01	-1.731239e+02
2.400000e-07	-5.285116e-06	-2.616067e-09	-3.763649e+01	-1.732268e+02
2.500000e-07	-5.276258e-06	-2.615565e-09	-3.757341e+01	-1.733315e+02
2.600000e-07	-5.266672e-06	-2.712460e-09	-3.750514e+01	-1.734365e+02
2.700000e-07	-5.256386e-06	-2.680284e-09	-3.743190e+01	-1.735403e+02
2.800000e-07	-5.245577e-06	-2.623065e-09	-3.735492e+01	-1.736413e+02
2.900000e-07	-5.234310e-06	-2.650091e-09	-3.727469e+01	-1.737380e+02
3.000000e-07	-5.222582e-06	-2.680368e-09	-3.719117e+01	-1.738287e+02
3.100000e-07	-5.210510e-06	-2.614896e-09	-3.710521e+01	-1.739121e+02
3.200000e-07	-5.198145e-06	-2.609518e-09	-3.701715e+01	-1.739864e+02
3.300000e-07	-5.185362e-06	-2.679658e-09	-3.692612e+01	-1.740505e+02
3.400000e-07	-5.172134e-06	-2.667980e-09	-3.683192e+01	-1.741029e+02
3.500000e-07	-5.158547e-06	-2.615924e-09	-3.673516e+01	-1.741424e+02
3.600000e-07	-5.144688e-06	-2.646772e-09	-3.663647e+01	-1.741680e+02
3.700000e-07	-5.130547e-06	-2.673114e-09	-3.653577e+01	-1.741787e+02
3.800000e-07	-5.115869e-06	-2.630928e-09	-3.643124e+01	-1.741738e+02
3.900000e-07	-5.100471e-06	-2.621317e-09	-3.632159e+01	-1.741527e+02
4.000000e-07	-5.084535e-06	-2.649579e-09	-3.620810e+01	-1.741149e+02
4.100000e-07	-5.068164e-06	-2.639556e-09	-3.609152e+01	-1.740603e+02
4.200000e-07	-5.051331e-06	-2.621055e-09	-3.597165e+01	-1.739887e+02
4.300000e-07	-5.034096e-06	-2.648343e-09	-3.584892e+01	-1.739003e+02
4.400000e-07	-5.016629e-06	-2.624664e-09	-3.572453e+01	-1.737953e+02
4.500000e-07	-4.999028e-06	-2.600060e-09	-3.559919e+01	-1.736741e+02
4.600000e-07	-4.981082e-06	-2.610748e-09	-3.547139e+01	-1.735372e+02
4.700000e-07	-4.962709e-06	-2.630613e-09	-3.534055e+01	-1.733855e+02
4.800000e-07	-4.943854e-06	-2.592709e-09	-3.520629e+01	-1.732196e+02
4.900000e-07	-4.924650e-06	-2.599238e-09	-3.506953e+01	-1.730405e+02
5.000000e-07	-4.905153e-06	-2.614963e-09	-3.493069e+01	-1.728492e+02
5.100000e-07	-4.885359e-06	-2.614608e-09	-3.478973e+01	-1.726466e+02
5.200000e-07	-4.865394e-06	-2.589953e-09	-3.464756e+01	-1.724340e+02
5.300000e-07	-4.845234e-06	-2.596231e-09	-3.450399e+01	-1.722124e+02
5.400000e-07	-4.824772e-06	-2.586052e-09	-3.435828e+01	-1.719830e+02
5.500000e-07	-4.803991e-06	-2.589733e-09	-3.421029e+01	-1.717468e+02
5.600000e-07	-4.782813e-06	-2.586201e-09	-3.405948e+01	-1.715049e+02
5.700000e-07	-4.761228e-06	-2.579212e-09	-3.390577e+01	-1.712583e+02
5.800000e-07	-4.739361e-06	-2.566051e-09	-3.375005e+01	-1.710081e+02
5.900000e-07	-4.717205e-06	-2.573577e-09	-3.359226e+01	-1.707551e+02
6.000000e-07	-4.694639e-06	-2.565656e-09	-3.343157e+01	-1.705002e+02
6.100000e-07	-4.671828e-06	-2.552086e-09	-3.326913e+01	-1.702441e+02
6.200000e-07	-4.648743e-06	-2.545484e-09	-3.310473e+01	-1.699875e+02
6.300000e-07	-4.625196e-06	-2.547363e-09	-3.293705e+01	-1.697308e+02
6.400000e-07	-4.601434e-06	-2.544921e-09	-3.276783e+01	-1.694746e+02
6.500000e-07	-4.577513e-06	-2.540006e-09	-3.259749e+01	-1.692192e+02
6.600000e-07	-4.553350e-06	-2.533032e-09	-3.242542e+01	-1.689648e+02
6.700000e-07	-4.528951e-06	-2.529405e-09	-3.225167e+01	-1.687117e+02
6.800000e-07	-4.504253e-06	-2.532592e-09	-3.207579e+01	-1.684597e+02
6.900000e-07	-4.479098e-06	-2.522047e-09	-3.189666e+01	-1.682090e+02
7.000000e-07	-4.453400e-06	-2.510201e-09	-3.171366e+01	-1.679593e+02
7.100000e-07	-4.427208e-06	-2.503405e-09	-3.152714e+01	-1.677105e+02
7.200000e-07	-4.400410e-06	-2.507021e-09	-3.133630e+01	-1.674624e+02
7.300000e-07	-4.373178e-06	-2.501723e-09	-3.114237e+01	-1.672146e+02
7.400000e-07	-4.345671e-06	-2.498128e-09	-3.094649e+01	-1.669667e+02
7.500000e-07	-4.317891e-06	-2.486988e-09	-3.074867e+01	-1.667184e+02
7.600000e-07	-4.289980e-06	-2.487509e-09	-3.054991e+01	-1.664692e+02
7.700000e-07	-4.261899e-06	-2.484145e-09	-3.034993e+01	-1.662186e+02
7.800000e-07	-4.233547e-06	-2.481892e-09	-3.014803e+01	-1.659662e+02
7.900000e-07	-4.204923e-06	-2.473667e-09	-2.994419e+01	-1.657115e+02
8.000000e-07	-4.176000e-06	-2.476380e-09	-2.973822e+01	-1.654540e+02
8.100000e-07	-4.146764e-06	-2.472826e-09	-2.953003e+01	-1.651931e+02
8.200000e-07	-4.117222e-06	-2.471961e-09	-2.931966e+01	-1.649285e+02
8.300000e-07	-4.087396e-06	-2.463818e-09	-2.910726e+01	-1.646597e+02
8.400000e-07	-4.057348e-06	-2.461738e-09	-2.889328e+01	-1.643862e+02
8.500000e-07	-4.027035e-06	-2.457018e-09	-2.867742e+01	-1.641076e+02
8.600000e-07	-3.996551e-06	-2.453078e-09	-2.846033e+01	-1.638235e+02
8.700000e-07	-3.965775e-06	-2.443142e-09	-2.824117e+01	-1.635336e+02
8.800000e-07	-3.934694e-06	-2.438593e-09	-2.801984e+01	-1.632376e+02
8.900000e-07	-3.903407e-06	-2.434152e-09	-2.779703e+01	-1.629351e+02
9.000000e-07	-3.871834e-06	-2.430375e-09	-2.757219e+01	-1.626260e+02
9.100000e-07	-3.840062e-06	-2.422433e-09	-2.734593e+01	-1.623100e+02
9.200000e-07	-3.808139e-06	-2.418483e-09	-2.711861e+01	-1.619869e+02
9.300000e-07	-3.776012e-06	-2.418280e-09	-2.688982e+01	-1.616567e+02
9.400000e-07	-3.743630e-06	-2.416456e-09	-2.665922e+01	-1.613192e+02
9.500000e-07	-3.710988e-06	-2.409700e-09	-2.642678e+01	-1.609743e+02
9.600000e-07	-3.678001e-06	-2.401325e-09	-2.619187e+01	-1.606222e+02
9.700000e-07	-3.644485e-06	-2.397050e-09	-2.595319e+01	-1.602628e+02
9.800000e-07	-3.610504e-06	-2.392428e-09	-2.571120e+01	-1.598963e+02
9.900000e-07	-3.576248e-06	-2.386462e-09	-2.546726e+01	-1.595226e+02
1.000000e-06	-3.541648e-06	-2.377435e-09	-2.522087e+01	-1.591421e+02
1.010000e-06	-3.506655e-06	-2.376534e-09	-2.497167e+01	-1.587549e+02
1.020000e-06	-3.471325e-06	-2.376270e-09	-2.472008e+01	-1.583611e+02
1.030000e-06	-3.435725e-06	-2.371750e-09	-2.446656e+01	-1.579612e+02
1.040000e-06	-3.399959e-06	-2.361499e-09	-2.421187e+01	-1.575554e+02
1.050000e-06	-3.364054e-06	-2.356018e-09	-2.395618e+01	-1.571439e+02
1.060000e-06	-3.328004e-06	-2.348349e-09	-2.369945e+01	-1.567272e+02
1.070000e-06	-3.291840e-06	-2.339229e-09	-2.344192e+01	-1.563055e+02
1.080000e-06	-3.255543e-06	-2.324246e-09	-2.318345e+01	-1.558792e+02
1.090000e-06	-3.219056e-06	-2.314510e-09	-2.292362e+01	-1.554486e+02
1.100000e-06	-3.182314e-06	-2.308545e-09	-2.266196e+01	-1.550141e+02
1.110000e-06	-3.145337e-06	-2.303301e-09	-2.239864e+01	-1.545760e+02
1.120000e-06	-3.108095e-06	-2.292302e-09	-2.213344e+01	-1.541345e+02
1.130000e-06	-3.070577e-06	-2.288354e-09	-2.186626e+01	-1.536900e+02
1.140000e-06	-3.032825e-06	-2.285118e-09	-2.159743e+01	-1.532426e+02
1.150000e-06	-2.994866e-06	-2.281002e-09	-2.132711e+01	-1.527924e+02
1.160000e-06	-2.956730e-06	-2.268966e-09	-2.105553e+01	-1.523396e+02
1.170000e-06	-2.918404e-06	-2.253769e-09	-2.078261e+01	-1.518842e+02
1.180000e-06	-2.879864e-06	-2.240976e-09	-2.050815e+01	-1.514260e+02
1.190000e-06	-2.841076e-06	-2.233212e-09	-2.023194e+01	-1.509651e+02
1.200000e-06	-2.802137e-06	-2.225407e-09	-1.995464e+01	-1.505012e+02
1.210000e-06	-2.762938e-06	-2.217594e-09	-1.967550e+01	-1.500338e+02
1.220000e-06	-2.723572e-06	-2.211136e-09	-1.939516e+01	-1.495627e+02
1.230000e-06	-2.684101e-06	-2.206053e-09	-1.911408e+01	-1.490873e+02
1.240000e-06	-2.644422e-06	-2.197116e-09	-1.883152e+01	-1.486071e+02
1.250000e-06	-2.604592e-06	-2.182130e-09	-1.854788e+01	-1.481212e+02
1.260000e-06	-2.564620e-06	-2.167060e-09	-1.826323e+01	-1.476289e+02
1.270000e-06	-2.524568e-06	-2.155694e-09	-1.797801e+01	-1.471295e+02
1.280000e-06	-2.484404e-06	-2.148504e-09	-1.769200e+01	-1.466218e+02
1.290000e-06	-2.444166e-06	-2.142882e-09	-1.740545e+01	-1.461050e+02
1.300000e-06	-2.403852e-06	-2.137287e-09	-1.711837e+01	-1.455779e+02
1.310000e-06	-2.363355e-06	-2.130467e-09	-1.682997e+01	-1.450395e+02
1.320000e-06	-2.322674e-06	-2.125016e-09	-1.654028e+01	-1.444886e+02
1.330000e-06	-2.281828e-06	-2.113226e-09	-1.624940e+01	-1.439241e+02
1.340000e-06	-2.240714e-06	-2.095994e-09	-1.595663e+01	-1.433449e+02
1.350000e-06	-2.199313e-06	-2.078697e-09	-1.566180e+01	-1.427498e+02
1.360000e-06	-2.157555e-06	-2.068421e-09	-1.536443e+01	-1.421378e+02
1.370000e-06	-2.115431e-06	-2.060528e-09	-1.506446e+01	-1.415078e+02
1.380000e-06	-2.073127e-06	-2.054688e-09	-1.476320e+01	-1.408588e+02
1.390000e-06	-2.030730e-06	-2.046299e-09	-1.446128e+01	-1.401900e+02
1.400000e-06	-1.988004e-06	-2.038348e-09	-1.415702e+01	-1.395006e+02
1.410000e-06	-1.944961e-06	-2.029344e-09	-1.385050e+01	-1.387898e+02
1.420000e-06	-1.901812e-06	-2.014067e-09	-1.354322e+01	-1.380569e+02
1.430000e-06	-1.858506e-06	-1.993178e-09	-1.323483e+01	-1.373016e+02
1.440000e-06	-1.814980e-06	-1.977281e-09	-1.292488e+01	-1.365235e+02
1.450000e-06	-1.771315e-06	-1.967660e-09	-1.261393e+01	-1.357221e+02
1.460000e-06	-1.727571e-06	-1.960640e-09	-1.230242e+01	-1.348974e+02
1.470000e-06	-1.683710e-06	-1.949948e-09	-1.199007e+01	-1.340494e+02
1.480000e-06	-1.639785e-06	-1.936214e-09	-1.167727e+01	-1.331779e+02
1.490000e-06	-1.595786e-06	-1.920966e-09	-1.136394e+01	-1.322831e+02
1.500000e-06	-1.551735e-06	-1.904589e-09	-1.105025e+01	-1.313653e+02
1.510000e-06	-1.507639e-06	-1.886054e-09	-1.073624e+01	-1.304245e+02
1.520000e-06	-1.463449e-06	-1.868062e-09	-1.042155e+01	-1.294611e+02
1.530000e-06	-1.419233e-06	-1.854197e-09	-1.010667e+01	-1.284753e+02
1.540000e-06	-1.374991e-06	-1.846532e-09	-9.791620e+00	-1.274673e+02
1.550000e-06	-1.330665e-06	-1.837611e-09	-9.475962e+00	-1.264374e+02
1.560000e-06	-1.286286e-06	-1.822274e-09	-9.159928e+00	-1.253857e+02
1.570000e-06	-1.241813e-06	-1.806412e-09	-8.843225e+00	-1.243123e+02
1.580000e-06	-1.197266e-06	-1.790456e-09	-8.526001e+00	-1.232170e+02
1.590000e-06	-1.152711e-06	-1.772276e-09	-8.208711e+00	-1.220999e+02
1.600000e-06	-1.108077e-06	-1.753236e-09	-7.890860e+00	-1.209604e+02
1.610000e-06	-1.063310e-06	-1.737311e-09	-7.572069e+00	-1.197982e+02
1.620000e-06	-1.018406e-06	-1.723527e-09	-7.252297e+00	-1.186126e+02
1.630000e-06	-9.734159e-07	-1.708419e-09	-6.931911e+00	-1.174027e+02
1.640000e-06	-9.283605e-07	-1.688847e-09	-6.611062e+00	-1.161675e+02
1.650000e-06	-8.831890e-07	-1.667508e-09	-6.289385e+00	-1.149058e+02
1.660000e-06	-8.379744e-07	-1.646914e-09	-5.967402e+00	-1.136160e+02
1.670000e-06	-7.927447e-07	-1.628489e-09	-5.645312e+00	-1.122966e+02
1.680000e-06	-7.474179e-07	-1.607422e-09	-5.322529e+00	-1.109456e+02
1.690000e-06	-7.019911e-07	-1.584738e-09	-4.999035e+00	-1.095611e+02
1.700000e-06	-6.565387e-07	-1.564110e-09	-4.675359e+00	-1.081409e+02
1.710000e-06	-6.110659e-07	-1.545583e-09	-4.351537e+00	-1.066826e+02
1.720000e-06	-5.656166e-07	-1.524467e-09	-4.027882e+00	-1.051838e+02
1.730000e-06	-5.201854e-07	-1.501039e-09	-3.704356e+00	-1.036421e+02
1.740000e-06	-4.746487e-07	-1.478090e-09	-3.380079e+00	-1.020547e+02
1.750000e-06	-4.290098e-07	-1.454337e-09	-3.055074e+00	-1.004192e+02
1.760000e-06	-3.833157e-07	-1.426020e-09	-2.729676e+00	-9.873291e+01
1.770000e-06	-3.375603e-07	-1.397036e-09	-2.403842e+00	-9.699332e+01
1.780000e-06	-2.917910e-07	-1.371296e-09	-2.077909e+00	-9.519799e+01
1.790000e-06	-2.460565e-07	-1.348620e-09	-1.752223e+00	-9.334457e+01
1.800000e-06	-2.002533e-07	-1.322164e-09	-1.426048e+00	-9.143093e+01
1.810000e-06	-1.543550e-07	-1.289858e-09	-1.099197e+00	-8.945507e+01
1.820000e-06	-1.084685e-07	-1.257137e-09	-7.724285e-01	-8.741527e+01
1.830000e-06	-6.266411e-08	-1.224000e-09	-4.462451e-01	-8.531003e+01
1.840000e-06	-1.690723e-08	-1.188950e-09	-1.204002e-01	-8.313816e+01
1.850000e-06	2.881275e-08	-1.152662e-09	2.051820e-01	-8.089874e+01
1.860000e-06	7.456130e-08	-1.117108e-09	5.309676e-01	-7.859121e+01
1.870000e-06	1.203279e-07	-1.084746e-09	8.568815e-01	-7.621533e+01
1.880000e-06	1.660593e-07	-1.051423e-09	1.182545e+00	-7.377120e+01
1.890000e-06	2.118171e-07	-1.014796e-09	1.508397e+00	-7.125928e+01
1.900000e-06	2.576073e-07	-9.759208e-10	1.834479e+00	-6.868036e+01
1.910000e-06	3.033868e-07	-9.334423e-10	2.160485e+00	-6.603561e+01
1.920000e-06	3.491326e-07	-8.897841e-10	2.486251e+00	-6.332648e+01
1.930000e-06	3.947489e-07	-8.475028e-10	2.811095e+00	-6.055478e+01
1.940000e-06	4.402640e-07	-8.069744e-10	3.135218e+00	-5.772258e+01
1.950000e-06	4.857601e-07	-7.667265e-10	3.459206e+00	-5.483225e+01
1.960000e-06	5.311810e-07	-7.253640e-10	3.782659e+00	-5.188639e+01
1.970000e-06	5.766136e-07	-6.803822e-10	4.106194e+00	-4.888782e+01
1.980000e-06	6.220606e-07	-6.312889e-10	4.429832e+00	-4.583953e+01
1.990000e-06	6.673797e-07	-5.810602e-10	4.752559e+00	-4.274469e+01
2.000000e-06	7.126288e-07	-5.332728e-10	5.074788e+00	-3.960656e+01
2.010000e-06	7.578555e-07	-4.893574e-10	5.396858e+00	-3.642851e+01
2.020000e-06	8.029920e-07	-4.464623e-10	5.718285e+00	-3.321393e+01
2.030000e-06	8.480846e-07	-4.010295e-10	6.039399e+00	-2.996625e+01
2.040000e-06	8.931599e-07	-3.524558e-10	6.360391e+00	-2.668890e+01
2.050000e-06	9.381943e-07	-2.995844e-10	6.681091e+00	-2.338524e+01
2.060000e-06	9.831637e-07	-2.459556e-10	7.001328e+00	-2.005859e+01
2.070000e-06	1.028039e-06	-1.964124e-10	7.320894e+00	-1.671219e+01
2.080000e-06	1.072810e-06	-1.505004e-10	7.639719e+00	-1.334916e+01
2.090000e-06	1.117449e-06	-1.047871e-10	7.957604e+00	-9.972527e+00
2.100000e-06	1.161951e-06	-5.964207e-11	8.274513e+00	-6.585173e+00
2.110000e-06	1.206336e-06	-1.352688e-11	8.590587e+00	-3.189866e+00
2.120000e-06	1.250728e-06	3.771864e-11	8.906715e+00	2.107619e-01
2.130000e-06	1.295122e-06	9.404166e-11	9.222850e+00	3.614207e+00
2.140000e-06	1.339448e-06	1.503685e-10	9.538509e+00	7.018087e+00
2.150000e-06	1.383715e-06	2.024489e-10	9.853743e+00	1.042013e+01
2.160000e-06	1.427886e-06	2.489488e-10	1.016829e+01	1.381818e+01
2.170000e-06	1.472001e-06	2.919999e-10	1.048245e+01	1.721014e+01
2.180000e-06	1.516082e-06	3.377307e-10	1.079636e+01	2.059402e+01
2.190000e-06	1.560108e-06	3.857579e-10	1.110987e+01	2.396784e+01
2.200000e-06	1.604094e-06	4.346275e-10	1.142311e+01	2.732969e+01
2.210000e-06	1.648020e-06	4.862611e-10	1.173592e+01	3.067766e+01
2.220000e-06	1.691847e-06	5.394167e-10	1.204802e+01	3.400986e+01
2.230000e-06	1.735661e-06	5.928981e-10	1.236003e+01	3.732435e+01
2.240000e-06	1.779407e-06	6.424514e-10	1.267155e+01	4.061919e+01
2.250000e-06	1.822980e-06	6.888075e-10	1.298185e+01	4.389237e+01
2.260000e-06	1.866493e-06	7.316210e-10	1.329171e+01	4.714186e+01
2.270000e-06	1.909880e-06	7.741875e-10	1.360068e+01	5.036554e+01
2.280000e-06	1.952975e-06	8.187018e-10	1.390757e+01	5.356124e+01
2.290000e-06	1.995780e-06	8.642841e-10	1.421239e+01	5.672674e+01
2.300000e-06	2.038354e-06	9.104079e-10	1.451558e+01	5.985974e+01
2.310000e-06	2.080748e-06	9.582057e-10	1.481747e+01	6.295791e+01
2.320000e-06	2.122906e-06	1.006908e-09	1.511769e+01	6.601885e+01
2.330000e-06	2.164840e-06	1.050843e-09	1.541631e+01	6.904018e+01
2.340000e-06	2.206443e-06	1.090174e-09	1.571257e+01	7.201947e+01
2.350000e-06	2.247690e-06	1.128048e-09	1.600630e+01	7.495434e+01
2.360000e-06	2.288691e-06	1.168749e-09	1.629828e+01	7.784240e+01
2.370000e-06	2.329481e-06	1.208171e-09	1.658875e+01	8.068137e+01
2.380000e-06	2.370128e-06	1.245718e-09	1.687821e+01	8.346901e+01
2.390000e-06	2.410589e-06	1.284015e-09	1.716634e+01	8.620321e+01
2.400000e-06	2.450855e-06	1.324283e-09	1.745308e+01	8.888201e+01
2.410000e-06	2.490998e-06	1.362774e-09	1.773895e+01	9.150357e+01
2.420000e-06	2.531030e-06	1.397307e-09	1.802403e+01	9.406629e+01
2.430000e-06	2.571005e-06	1.429822e-09	1.830870e+01	9.656872e+01
2.440000e-06	2.610949e-06	1.465859e-09	1.859315e+01	9.900967e+01
2.450000e-06	2.650787e-06	1.501826e-09	1.887685e+01	1.013882e+02
2.460000e-06	2.690460e-06	1.534530e-09	1.915936e+01	1.037036e+02
2.470000e-06	2.729859e-06	1.565429e-09	1.943993e+01	1.059554e+02
2.480000e-06	2.769042e-06	1.596440e-09	1.971896e+01	1.081435e+02
2.490000e-06	2.808114e-06	1.626677e-09	1.999721e+01	1.102679e+02
2.500000e-06	2.846917e-06	1.656680e-09	2.027353e+01	1.123291e+02
2.510000e-06	2.885435e-06	1.687570e-09	2.054782e+01	1.143276e+02
2.520000e-06	2.923804e-06	1.718457e-09	2.082106e+01	1.162644e+02
2.530000e-06	2.962049e-06	1.746209e-09	2.109341e+01	1.181406e+02
2.540000e-06	3.000098e-06	1.768993e-09	2.136437e+01	1.199575e+02
2.550000e-06	3.037941e-06	1.789485e-09	2.163385e+01	1.217166e+02
2.560000e-06	3.075589e-06	1.812287e-09	2.190196e+01	1.234196e+02
2.570000e-06	3.112976e-06	1.838167e-09	2.216819e+01	1.250684e+02
2.580000e-06	3.150168e-06	1.863464e-09	2.243305e+01	1.266647e+02
2.590000e-06	3.187081e-06	1.890902e-09	2.269591e+01	1.282107e+02
2.600000e-06	3.223671e-06	1.918322e-09	2.295648e+01	1.297085e+02
2.610000e-06	3.260084e-06	1.940837e-09	2.321578e+01	1.311599e+02
2.620000e-06	3.296346e-06	1.957047e-09	2.347401e+01	1.325672e+02
2.630000e-06	3.332484e-06	1.972456e-09	2.373136e+01	1.339322e+02
2.640000e-06	3.368545e-06	1.990616e-09	2.398816e+01	1.352570e+02
2.650000e-06	3.404501e-06	2.011312e-09	2.424421e+01	1.365433e+02
2.660000e-06	3.440309e-06	2.030549e-09	2.449921e+01	1.377928e+02
2.670000e-06	3.476000e-06	2.049416e-09	2.475337e+01	1.390071e+02
2.680000e-06	3.511450e-06	2.068439e-09	2.500582e+01	1.401876e+02
2.690000e-06	3.546522e-06	2.084374e-09	2.525558e+01	1.413356e+02
2.700000e-06	3.581082e-06	2.095406e-09	2.550169e+01	1.424521e+02
2.710000e-06	3.615058e-06	2.105961e-09	2.574363e+01	1.435381e+02
2.720000e-06	3.648632e-06	2.121515e-09	2.598272e+01	1.445943e+02
2.730000e-06	3.681881e-06	2.140574e-09	2.621949e+01	1.456212e+02
2.740000e-06	3.714719e-06	2.157361e-09	2.645334e+01	1.466193e+02
2.750000e-06	3.747183e-06	2.170915e-09	2.668452e+01	1.475890e+02
2.760000e-06	3.779423e-06	2.185348e-09	2.691411e+01	1.485303e+02
2.770000e-06	3.811492e-06	2.201076e-09	2.714249e+01	1.494433e+02
2.780000e-06	3.843430e-06	2.213959e-09	2.736992e+01	1.503281e+02
2.790000e-06	3.875297e-06	2.224898e-09	2.759685e+01	1.511846e+02
2.800000e-06	3.906965e-06	2.237840e-09	2.782237e+01	1.520127e+02
2.810000e-06	3.938393e-06	2.252559e-09	2.804617e+01	1.528122e+02
2.820000e-06	3.969541e-06	2.264047e-09	2.826799e+01	1.535831e+02
2.830000e-06	4.000293e-06	2.270541e-09	2.848698e+01	1.543254e+02
2.840000e-06	4.030737e-06	2.274316e-09	2.870378e+01	1.550390e+02
2.850000e-06	4.060936e-06	2.280996e-09	2.891883e+01	1.557240e+02
2.860000e-06	4.090882e-06	2.295019e-09	2.913208e+01	1.563807e+02
2.870000e-06	4.120529e-06	2.313538e-09	2.934321e+01	1.570092e+02
2.880000e-06	4.149849e-06	2.329300e-09	2.955200e+01	1.576101e+02
2.890000e-06	4.178968e-06	2.338798e-09	2.975936e+01	1.581838e+02
2.900000e-06	4.207812e-06	2.343035e-09	2.996477e+01	1.587311e+02
