# Temperatura_=_-1.1
# Concentracion g/m^3_=_4090.0
# C_Vs_to_Am_M_A/Vsm_=_65563218390.804596
# pendiente_HvsI_1/m_=_3716.3
# ordenada_HvsI_A/m_=_1297.0
# frecuencia_Hz_=_135074.43530069673

Tiempo_(s)	Campo_(V.s)	Magnetizacion_(V.s)	Campo_(kA/m)	Magnetizacion_(A/m)
0.000000e+00	-5.388787e-06	-2.645640e-09	-3.840708e+01	-1.700281e+02
1.000000e-08	-5.388891e-06	-2.645343e-09	-3.840781e+01	-1.700257e+02
2.000000e-08	-5.388798e-06	-2.643968e-09	-3.840715e+01	-1.700288e+02
3.000000e-08	-5.388414e-06	-2.642127e-09	-3.840441e+01	-1.700388e+02
4.000000e-08	-5.387521e-06	-2.640831e-09	-3.839805e+01	-1.700569e+02
5.000000e-08	-5.386097e-06	-2.641699e-09	-3.838790e+01	-1.700842e+02
6.000000e-08	-5.384172e-06	-2.647490e-09	-3.837418e+01	-1.701218e+02
7.000000e-08	-5.381652e-06	-2.653221e-09	-3.835622e+01	-1.701706e+02
8.000000e-08	-5.378477e-06	-2.640186e-09	-3.833359e+01	-1.702313e+02
9.000000e-08	-5.374677e-06	-2.622151e-09	-3.830651e+01	-1.703046e+02
1.000000e-07	-5.370482e-06	-2.646477e-09	-3.827661e+01	-1.703908e+02
1.100000e-07	-5.366106e-06	-2.673646e-09	-3.824542e+01	-1.704900e+02
1.200000e-07	-5.361703e-06	-2.639086e-09	-3.821404e+01	-1.706023e+02
1.300000e-07	-5.357058e-06	-2.584335e-09	-3.818093e+01	-1.707273e+02
1.400000e-07	-5.351823e-06	-2.619982e-09	-3.814362e+01	-1.708646e+02
1.500000e-07	-5.346185e-06	-2.673728e-09	-3.810344e+01	-1.710135e+02
1.600000e-07	-5.340292e-06	-2.635833e-09	-3.806144e+01	-1.711730e+02
1.700000e-07	-5.334032e-06	-2.576596e-09	-3.801682e+01	-1.713422e+02
1.800000e-07	-5.327302e-06	-2.612544e-09	-3.796885e+01	-1.715195e+02
1.900000e-07	-5.320122e-06	-2.686452e-09	-3.791768e+01	-1.717038e+02
2.000000e-07	-5.312690e-06	-2.632516e-09	-3.786471e+01	-1.718932e+02
2.100000e-07	-5.305103e-06	-2.593036e-09	-3.781064e+01	-1.720863e+02
2.200000e-07	-5.297378e-06	-2.634930e-09	-3.775558e+01	-1.722812e+02
2.300000e-07	-5.289398e-06	-2.681423e-09	-3.769870e+01	-1.724761e+02
2.400000e-07	-5.280940e-06	-2.629012e-09	-3.763842e+01	-1.726691e+02
2.500000e-07	-5.271738e-06	-2.633255e-09	-3.757284e+01	-1.728584e+02
2.600000e-07	-5.261758e-06	-2.699320e-09	-3.750171e+01	-1.730421e+02
2.700000e-07	-5.251241e-06	-2.703035e-09	-3.742675e+01	-1.732187e+02
2.800000e-07	-5.240214e-06	-2.647645e-09	-3.734816e+01	-1.733863e+02
2.900000e-07	-5.228710e-06	-2.673977e-09	-3.726617e+01	-1.735435e+02
3.000000e-07	-5.216914e-06	-2.714538e-09	-3.718209e+01	-1.736888e+02
3.100000e-07	-5.204760e-06	-2.674931e-09	-3.709547e+01	-1.738210e+02
3.200000e-07	-5.192248e-06	-2.657056e-09	-3.700629e+01	-1.739390e+02
3.300000e-07	-5.179451e-06	-2.693078e-09	-3.691509e+01	-1.740420e+02
3.400000e-07	-5.166262e-06	-2.702605e-09	-3.682109e+01	-1.741292e+02
3.500000e-07	-5.152611e-06	-2.668798e-09	-3.672380e+01	-1.742002e+02
3.600000e-07	-5.138588e-06	-2.683112e-09	-3.662385e+01	-1.742545e+02
3.700000e-07	-5.124285e-06	-2.689756e-09	-3.652191e+01	-1.742922e+02
3.800000e-07	-5.109523e-06	-2.670351e-09	-3.641669e+01	-1.743132e+02
3.900000e-07	-5.093944e-06	-2.666512e-09	-3.630566e+01	-1.743179e+02
4.000000e-07	-5.077700e-06	-2.684442e-09	-3.618989e+01	-1.743067e+02
4.100000e-07	-5.061171e-06	-2.659755e-09	-3.607208e+01	-1.742800e+02
4.200000e-07	-5.044374e-06	-2.650232e-09	-3.595237e+01	-1.742387e+02
4.300000e-07	-5.027314e-06	-2.671839e-09	-3.583078e+01	-1.741835e+02
4.400000e-07	-5.009944e-06	-2.676208e-09	-3.570697e+01	-1.741152e+02
4.500000e-07	-4.992205e-06	-2.644027e-09	-3.558054e+01	-1.740350e+02
4.600000e-07	-4.974139e-06	-2.648449e-09	-3.545179e+01	-1.739438e+02
4.700000e-07	-4.955717e-06	-2.656851e-09	-3.532049e+01	-1.738426e+02
4.800000e-07	-4.936855e-06	-2.648474e-09	-3.518605e+01	-1.737324e+02
4.900000e-07	-4.917506e-06	-2.632112e-09	-3.504815e+01	-1.736144e+02
5.000000e-07	-4.897814e-06	-2.640116e-09	-3.490780e+01	-1.734895e+02
5.100000e-07	-4.877981e-06	-2.644915e-09	-3.476645e+01	-1.733585e+02
5.200000e-07	-4.857998e-06	-2.653242e-09	-3.462402e+01	-1.732226e+02
5.300000e-07	-4.837821e-06	-2.653474e-09	-3.448022e+01	-1.730823e+02
5.400000e-07	-4.817358e-06	-2.650058e-09	-3.433437e+01	-1.729384e+02
5.500000e-07	-4.796475e-06	-2.643793e-09	-3.418553e+01	-1.727917e+02
5.600000e-07	-4.775209e-06	-2.641479e-09	-3.403396e+01	-1.726425e+02
5.700000e-07	-4.753602e-06	-2.627569e-09	-3.387997e+01	-1.724913e+02
5.800000e-07	-4.731684e-06	-2.612169e-09	-3.372376e+01	-1.723386e+02
5.900000e-07	-4.709472e-06	-2.607782e-09	-3.356544e+01	-1.721844e+02
6.000000e-07	-4.686900e-06	-2.618162e-09	-3.340457e+01	-1.720290e+02
6.100000e-07	-4.663987e-06	-2.626244e-09	-3.324126e+01	-1.718724e+02
6.200000e-07	-4.640823e-06	-2.620611e-09	-3.307616e+01	-1.717147e+02
6.300000e-07	-4.617369e-06	-2.613872e-09	-3.290901e+01	-1.715558e+02
6.400000e-07	-4.593635e-06	-2.611980e-09	-3.273985e+01	-1.713955e+02
6.500000e-07	-4.569743e-06	-2.604877e-09	-3.256957e+01	-1.712338e+02
6.600000e-07	-4.545636e-06	-2.586942e-09	-3.239775e+01	-1.710703e+02
6.700000e-07	-4.521133e-06	-2.580552e-09	-3.222311e+01	-1.709050e+02
6.800000e-07	-4.496254e-06	-2.585044e-09	-3.204579e+01	-1.707375e+02
6.900000e-07	-4.470916e-06	-2.594208e-09	-3.186520e+01	-1.705678e+02
7.000000e-07	-4.445038e-06	-2.590640e-09	-3.168076e+01	-1.703954e+02
7.100000e-07	-4.418743e-06	-2.584106e-09	-3.149336e+01	-1.702203e+02
7.200000e-07	-4.391908e-06	-2.576729e-09	-3.130210e+01	-1.700422e+02
7.300000e-07	-4.364563e-06	-2.575911e-09	-3.110720e+01	-1.698609e+02
7.400000e-07	-4.336952e-06	-2.564325e-09	-3.091042e+01	-1.696764e+02
7.500000e-07	-4.309122e-06	-2.552276e-09	-3.071206e+01	-1.694885e+02
7.600000e-07	-4.281167e-06	-2.546461e-09	-3.051282e+01	-1.692971e+02
7.700000e-07	-4.253136e-06	-2.550749e-09	-3.031303e+01	-1.691022e+02
7.800000e-07	-4.224858e-06	-2.548311e-09	-3.011149e+01	-1.689036e+02
7.900000e-07	-4.196198e-06	-2.544128e-09	-2.990723e+01	-1.687014e+02
8.000000e-07	-4.167174e-06	-2.538303e-09	-2.970037e+01	-1.684955e+02
8.100000e-07	-4.137873e-06	-2.537609e-09	-2.949153e+01	-1.682860e+02
8.200000e-07	-4.108256e-06	-2.535240e-09	-2.928045e+01	-1.680728e+02
8.300000e-07	-4.078399e-06	-2.530944e-09	-2.906765e+01	-1.678559e+02
8.400000e-07	-4.048367e-06	-2.523958e-09	-2.885360e+01	-1.676353e+02
8.500000e-07	-4.018029e-06	-2.520855e-09	-2.863738e+01	-1.674109e+02
8.600000e-07	-3.987367e-06	-2.516373e-09	-2.841885e+01	-1.671828e+02
8.700000e-07	-3.956421e-06	-2.512900e-09	-2.819828e+01	-1.669509e+02
8.800000e-07	-3.925251e-06	-2.506211e-09	-2.797613e+01	-1.667151e+02
8.900000e-07	-3.893931e-06	-2.498760e-09	-2.775291e+01	-1.664752e+02
9.000000e-07	-3.862414e-06	-2.492800e-09	-2.752828e+01	-1.662313e+02
9.100000e-07	-3.830647e-06	-2.487698e-09	-2.730187e+01	-1.659831e+02
9.200000e-07	-3.798676e-06	-2.486147e-09	-2.707400e+01	-1.657305e+02
9.300000e-07	-3.766537e-06	-2.485710e-09	-2.684494e+01	-1.654733e+02
9.400000e-07	-3.734164e-06	-2.486797e-09	-2.661421e+01	-1.652115e+02
9.500000e-07	-3.701483e-06	-2.482240e-09	-2.638128e+01	-1.649447e+02
9.600000e-07	-3.668385e-06	-2.476661e-09	-2.614539e+01	-1.646728e+02
9.700000e-07	-3.634702e-06	-2.471788e-09	-2.590532e+01	-1.643958e+02
9.800000e-07	-3.600563e-06	-2.466876e-09	-2.566201e+01	-1.641134e+02
9.900000e-07	-3.566164e-06	-2.458832e-09	-2.541684e+01	-1.638255e+02
1.000000e-06	-3.531430e-06	-2.455066e-09	-2.516928e+01	-1.635321e+02
1.010000e-06	-3.496379e-06	-2.456540e-09	-2.491947e+01	-1.632331e+02
1.020000e-06	-3.460998e-06	-2.460413e-09	-2.466730e+01	-1.629285e+02
1.030000e-06	-3.425358e-06	-2.455700e-09	-2.441328e+01	-1.626184e+02
1.040000e-06	-3.389607e-06	-2.448676e-09	-2.415848e+01	-1.623028e+02
1.050000e-06	-3.353722e-06	-2.440497e-09	-2.390272e+01	-1.619818e+02
1.060000e-06	-3.317670e-06	-2.431494e-09	-2.364577e+01	-1.616557e+02
1.070000e-06	-3.281431e-06	-2.417460e-09	-2.338748e+01	-1.613247e+02
1.080000e-06	-3.245062e-06	-2.405698e-09	-2.312827e+01	-1.609889e+02
1.090000e-06	-3.208499e-06	-2.400744e-09	-2.286768e+01	-1.606488e+02
1.100000e-06	-3.171622e-06	-2.404023e-09	-2.260485e+01	-1.603046e+02
1.110000e-06	-3.134451e-06	-2.405014e-09	-2.233992e+01	-1.599565e+02
1.120000e-06	-3.097075e-06	-2.401729e-09	-2.207353e+01	-1.596051e+02
1.130000e-06	-3.059580e-06	-2.396668e-09	-2.180630e+01	-1.592505e+02
1.140000e-06	-3.021892e-06	-2.389826e-09	-2.153769e+01	-1.588932e+02
1.150000e-06	-2.983935e-06	-2.379525e-09	-2.126716e+01	-1.585333e+02
1.160000e-06	-2.945847e-06	-2.369801e-09	-2.099570e+01	-1.581712e+02
1.170000e-06	-2.907615e-06	-2.362957e-09	-2.072321e+01	-1.578069e+02
1.180000e-06	-2.869074e-06	-2.358706e-09	-2.044852e+01	-1.574406e+02
1.190000e-06	-2.830241e-06	-2.354049e-09	-2.017175e+01	-1.570724e+02
1.200000e-06	-2.791199e-06	-2.347491e-09	-1.989349e+01	-1.567021e+02
1.210000e-06	-2.752034e-06	-2.340707e-09	-1.961435e+01	-1.563297e+02
1.220000e-06	-2.712757e-06	-2.334273e-09	-1.933441e+01	-1.559548e+02
1.230000e-06	-2.673209e-06	-2.328401e-09	-1.905255e+01	-1.555772e+02
1.240000e-06	-2.633491e-06	-2.318712e-09	-1.876947e+01	-1.551963e+02
1.250000e-06	-2.593736e-06	-2.308790e-09	-1.848613e+01	-1.548116e+02
1.260000e-06	-2.553891e-06	-2.300466e-09	-1.820215e+01	-1.544224e+02
1.270000e-06	-2.513900e-06	-2.293381e-09	-1.791712e+01	-1.540280e+02
1.280000e-06	-2.473782e-06	-2.284405e-09	-1.763119e+01	-1.536274e+02
1.290000e-06	-2.433559e-06	-2.275449e-09	-1.734451e+01	-1.532197e+02
1.300000e-06	-2.393187e-06	-2.268061e-09	-1.705677e+01	-1.528040e+02
1.310000e-06	-2.352651e-06	-2.263890e-09	-1.676786e+01	-1.523791e+02
1.320000e-06	-2.312022e-06	-2.257306e-09	-1.647829e+01	-1.519441e+02
1.330000e-06	-2.271151e-06	-2.247614e-09	-1.618700e+01	-1.514977e+02
1.340000e-06	-2.229848e-06	-2.238596e-09	-1.589262e+01	-1.510388e+02
1.350000e-06	-2.188245e-06	-2.231209e-09	-1.559611e+01	-1.505664e+02
1.360000e-06	-2.146343e-06	-2.221329e-09	-1.529746e+01	-1.500794e+02
1.370000e-06	-2.104110e-06	-2.212609e-09	-1.499646e+01	-1.495769e+02
1.380000e-06	-2.061612e-06	-2.203194e-09	-1.469357e+01	-1.490578e+02
1.390000e-06	-2.018958e-06	-2.192270e-09	-1.438956e+01	-1.485214e+02
1.400000e-06	-1.976178e-06	-2.183080e-09	-1.408466e+01	-1.479669e+02
1.410000e-06	-1.933220e-06	-2.176633e-09	-1.377849e+01	-1.473937e+02
1.420000e-06	-1.890120e-06	-2.169394e-09	-1.347130e+01	-1.468014e+02
1.430000e-06	-1.846834e-06	-2.160852e-09	-1.316280e+01	-1.461895e+02
1.440000e-06	-1.803333e-06	-2.150695e-09	-1.285275e+01	-1.455578e+02
1.450000e-06	-1.759720e-06	-2.135968e-09	-1.254191e+01	-1.449062e+02
1.460000e-06	-1.716035e-06	-2.119634e-09	-1.223056e+01	-1.442347e+02
1.470000e-06	-1.672252e-06	-2.104941e-09	-1.191851e+01	-1.435434e+02
1.480000e-06	-1.628374e-06	-2.089332e-09	-1.160578e+01	-1.428326e+02
1.490000e-06	-1.584413e-06	-2.076020e-09	-1.129246e+01	-1.421026e+02
1.500000e-06	-1.540411e-06	-2.068057e-09	-1.097885e+01	-1.413538e+02
1.510000e-06	-1.496388e-06	-2.064032e-09	-1.066509e+01	-1.405867e+02
1.520000e-06	-1.452313e-06	-2.057260e-09	-1.035095e+01	-1.398017e+02
1.530000e-06	-1.408130e-06	-2.044794e-09	-1.003605e+01	-1.389993e+02
1.540000e-06	-1.363882e-06	-2.029566e-09	-9.720688e+00	-1.381801e+02
1.550000e-06	-1.319585e-06	-2.012110e-09	-9.404974e+00	-1.373444e+02
1.560000e-06	-1.275192e-06	-1.993060e-09	-9.088576e+00	-1.364926e+02
1.570000e-06	-1.230792e-06	-1.974566e-09	-8.772124e+00	-1.356250e+02
1.580000e-06	-1.186370e-06	-1.960919e-09	-8.455520e+00	-1.347417e+02
1.590000e-06	-1.141756e-06	-1.953718e-09	-8.137548e+00	-1.338428e+02
1.600000e-06	-1.097031e-06	-1.949946e-09	-7.818779e+00	-1.329282e+02
1.610000e-06	-1.052252e-06	-1.943575e-09	-7.499629e+00	-1.319974e+02
1.620000e-06	-1.007285e-06	-1.931885e-09	-7.179142e+00	-1.310501e+02
1.630000e-06	-9.622552e-07	-1.913983e-09	-6.858205e+00	-1.300854e+02
1.640000e-06	-9.172010e-07	-1.892848e-09	-6.537094e+00	-1.291025e+02
1.650000e-06	-8.720898e-07	-1.871790e-09	-6.215576e+00	-1.281002e+02
1.660000e-06	-8.269330e-07	-1.853747e-09	-5.893734e+00	-1.270773e+02
1.670000e-06	-7.817162e-07	-1.839362e-09	-5.571463e+00	-1.260321e+02
1.680000e-06	-7.364682e-07	-1.825754e-09	-5.248971e+00	-1.249628e+02
1.690000e-06	-6.911900e-07	-1.808636e-09	-4.926263e+00	-1.238677e+02
1.700000e-06	-6.458019e-07	-1.791857e-09	-4.602772e+00	-1.227446e+02
1.710000e-06	-6.002805e-07	-1.774489e-09	-4.278332e+00	-1.215913e+02
1.720000e-06	-5.547520e-07	-1.754684e-09	-3.953840e+00	-1.204053e+02
1.730000e-06	-5.092243e-07	-1.732999e-09	-3.629354e+00	-1.191844e+02
1.740000e-06	-4.636742e-07	-1.713789e-09	-3.304708e+00	-1.179260e+02
1.750000e-06	-4.181436e-07	-1.695441e-09	-2.980201e+00	-1.166275e+02
1.760000e-06	-3.725362e-07	-1.677071e-09	-2.655147e+00	-1.152864e+02
1.770000e-06	-3.268127e-07	-1.655840e-09	-2.329266e+00	-1.139002e+02
1.780000e-06	-2.811265e-07	-1.634326e-09	-2.003651e+00	-1.124664e+02
1.790000e-06	-2.355668e-07	-1.614067e-09	-1.678937e+00	-1.109827e+02
1.800000e-06	-1.900028e-07	-1.590607e-09	-1.354192e+00	-1.094468e+02
1.810000e-06	-1.443059e-07	-1.566464e-09	-1.028500e+00	-1.078565e+02
1.820000e-06	-9.856738e-08	-1.543438e-09	-7.025114e-01	-1.062100e+02
1.830000e-06	-5.284722e-08	-1.522013e-09	-3.766538e-01	-1.045054e+02
1.840000e-06	-7.114192e-09	-1.498814e-09	-5.070442e-02	-1.027412e+02
1.850000e-06	3.862608e-08	-1.473761e-09	2.752966e-01	-1.009160e+02
1.860000e-06	8.440563e-08	-1.444725e-09	6.015775e-01	-9.902855e+01
1.870000e-06	1.301776e-07	-1.410547e-09	9.278043e-01	-9.707803e+01
1.880000e-06	1.759012e-07	-1.374917e-09	1.253687e+00	-9.506370e+01
1.890000e-06	2.216459e-07	-1.340297e-09	1.579719e+00	-9.298507e+01
1.900000e-06	2.673545e-07	-1.308594e-09	1.905494e+00	-9.084187e+01
1.910000e-06	3.130134e-07	-1.279630e-09	2.230915e+00	-8.863405e+01
1.920000e-06	3.587201e-07	-1.248194e-09	2.556677e+00	-8.636171e+01
1.930000e-06	4.044043e-07	-1.216157e-09	2.882279e+00	-8.402518e+01
1.940000e-06	4.500190e-07	-1.180749e-09	3.207385e+00	-8.162493e+01
1.950000e-06	4.955985e-07	-1.142797e-09	3.532240e+00	-7.916157e+01
1.960000e-06	5.411086e-07	-1.103281e-09	3.856600e+00	-7.663585e+01
1.970000e-06	5.865641e-07	-1.061909e-09	4.180571e+00	-7.404863e+01
1.980000e-06	6.319863e-07	-1.018887e-09	4.504306e+00	-7.140085e+01
1.990000e-06	6.773855e-07	-9.777235e-10	4.827876e+00	-6.869353e+01
2.000000e-06	7.227791e-07	-9.420102e-10	5.151406e+00	-6.592777e+01
2.010000e-06	7.681299e-07	-9.073101e-10	5.474631e+00	-6.310470e+01
2.020000e-06	8.134589e-07	-8.679416e-10	5.797701e+00	-6.022549e+01
2.030000e-06	8.587571e-07	-8.225223e-10	6.120551e+00	-5.729134e+01
2.040000e-06	9.039477e-07	-7.739539e-10	6.442634e+00	-5.430348e+01
2.050000e-06	9.491047e-07	-7.238387e-10	6.764478e+00	-5.126316e+01
2.060000e-06	9.941716e-07	-6.754144e-10	7.085680e+00	-4.817167e+01
2.070000e-06	1.039034e-06	-6.298962e-10	7.405424e+00	-4.503031e+01
2.080000e-06	1.083788e-06	-5.866643e-10	7.724393e+00	-4.184043e+01
2.090000e-06	1.128430e-06	-5.451810e-10	8.042570e+00	-3.860343e+01
2.100000e-06	1.172918e-06	-5.018824e-10	8.359645e+00	-3.532079e+01
2.110000e-06	1.217344e-06	-4.527175e-10	8.676278e+00	-3.199405e+01
2.120000e-06	1.261751e-06	-3.975405e-10	8.992774e+00	-2.862485e+01
2.130000e-06	1.306097e-06	-3.396372e-10	9.308841e+00	-2.521496e+01
2.140000e-06	1.350382e-06	-2.833074e-10	9.624468e+00	-2.176627e+01
2.150000e-06	1.394639e-06	-2.290595e-10	9.939900e+00	-1.828082e+01
2.160000e-06	1.438804e-06	-1.797159e-10	1.025468e+01	-1.476086e+01
2.170000e-06	1.482859e-06	-1.340399e-10	1.056866e+01	-1.120877e+01
2.180000e-06	1.526853e-06	-8.654614e-11	1.088222e+01	-7.627183e+00
2.190000e-06	1.570797e-06	-3.290959e-11	1.119541e+01	-4.018917e+00
2.200000e-06	1.614705e-06	2.477747e-11	1.150836e+01	-3.870227e-01
2.210000e-06	1.658553e-06	8.230151e-11	1.182087e+01	3.265221e+00
2.220000e-06	1.702354e-06	1.396156e-10	1.213306e+01	6.934310e+00
2.230000e-06	1.746125e-06	1.964927e-10	1.244502e+01	1.061651e+01
2.240000e-06	1.789818e-06	2.505780e-10	1.275643e+01	1.430788e+01
2.250000e-06	1.833387e-06	3.022399e-10	1.306695e+01	1.800428e+01
2.260000e-06	1.876788e-06	3.527942e-10	1.337628e+01	2.170135e+01
2.270000e-06	1.920005e-06	4.069240e-10	1.368430e+01	2.539461e+01
2.280000e-06	1.963107e-06	4.650008e-10	1.399149e+01	2.907943e+01
2.290000e-06	2.006047e-06	5.213257e-10	1.429754e+01	3.275107e+01
2.300000e-06	2.048736e-06	5.740817e-10	1.460180e+01	3.640471e+01
2.310000e-06	2.091091e-06	6.279923e-10	1.490366e+01	4.003551e+01
2.320000e-06	2.133068e-06	6.830148e-10	1.520284e+01	4.363865e+01
2.330000e-06	2.174845e-06	7.338547e-10	1.550060e+01	4.720934e+01
2.340000e-06	2.216395e-06	7.798249e-10	1.579674e+01	5.074287e+01
2.350000e-06	2.257653e-06	8.294125e-10	1.609079e+01	5.423469e+01
2.360000e-06	2.298645e-06	8.854176e-10	1.638295e+01	5.768040e+01
2.370000e-06	2.339369e-06	9.406922e-10	1.667320e+01	6.107585e+01
2.380000e-06	2.379870e-06	9.872488e-10	1.696186e+01	6.441711e+01
2.390000e-06	2.420200e-06	1.027461e-09	1.724930e+01	6.770056e+01
2.400000e-06	2.460386e-06	1.068701e-09	1.753571e+01	7.092290e+01
2.410000e-06	2.500498e-06	1.110761e-09	1.782160e+01	7.408116e+01
2.420000e-06	2.540546e-06	1.154497e-09	1.810703e+01	7.717278e+01
2.430000e-06	2.580438e-06	1.202417e-09	1.839135e+01	8.019556e+01
2.440000e-06	2.620216e-06	1.255824e-09	1.867486e+01	8.314771e+01
2.450000e-06	2.659903e-06	1.305688e-09	1.895772e+01	8.602784e+01
2.460000e-06	2.699417e-06	1.346405e-09	1.923934e+01	8.883497e+01
2.470000e-06	2.738764e-06	1.378260e-09	1.951978e+01	9.156853e+01
2.480000e-06	2.777967e-06	1.406835e-09	1.979918e+01	9.422832e+01
2.490000e-06	2.816981e-06	1.436406e-09	2.007725e+01	9.681453e+01
2.500000e-06	2.855730e-06	1.469042e-09	2.035342e+01	9.932768e+01
2.510000e-06	2.894268e-06	1.506984e-09	2.062808e+01	1.017686e+02
2.520000e-06	2.932678e-06	1.549442e-09	2.090184e+01	1.041385e+02
2.530000e-06	2.970861e-06	1.589726e-09	2.117398e+01	1.064387e+02
2.540000e-06	3.008776e-06	1.624814e-09	2.144421e+01	1.086708e+02
2.550000e-06	3.046461e-06	1.655830e-09	2.171280e+01	1.108366e+02
2.560000e-06	3.083957e-06	1.683345e-09	2.198004e+01	1.129380e+02
2.570000e-06	3.121295e-06	1.706253e-09	2.224615e+01	1.149770e+02
2.580000e-06	3.158451e-06	1.727058e-09	2.251097e+01	1.169558e+02
2.590000e-06	3.195424e-06	1.754115e-09	2.277449e+01	1.188763e+02
2.600000e-06	3.232150e-06	1.788607e-09	2.303624e+01	1.207407e+02
2.610000e-06	3.268526e-06	1.823038e-09	2.329551e+01	1.225509e+02
2.620000e-06	3.304664e-06	1.853847e-09	2.355307e+01	1.243088e+02
2.630000e-06	3.340667e-06	1.881402e-09	2.380967e+01	1.260164e+02
2.640000e-06	3.376578e-06	1.905602e-09	2.406561e+01	1.276751e+02
2.650000e-06	3.412365e-06	1.923182e-09	2.432068e+01	1.292867e+02
2.660000e-06	3.448034e-06	1.935815e-09	2.457490e+01	1.308524e+02
2.670000e-06	3.483581e-06	1.952936e-09	2.482825e+01	1.323734e+02
2.680000e-06	3.518841e-06	1.978049e-09	2.507955e+01	1.338509e+02
2.690000e-06	3.553783e-06	2.005890e-09	2.532860e+01	1.352855e+02
2.700000e-06	3.588314e-06	2.030004e-09	2.557470e+01	1.366780e+02
2.710000e-06	3.622359e-06	2.052629e-09	2.581735e+01	1.380290e+02
2.720000e-06	3.655989e-06	2.073790e-09	2.605704e+01	1.393389e+02
2.730000e-06	3.689119e-06	2.089375e-09	2.629316e+01	1.406080e+02
2.740000e-06	3.721753e-06	2.098718e-09	2.652575e+01	1.418365e+02
2.750000e-06	3.754086e-06	2.108432e-09	2.675620e+01	1.430246e+02
2.760000e-06	3.786256e-06	2.122947e-09	2.698548e+01	1.441723e+02
2.770000e-06	3.818281e-06	2.142844e-09	2.721373e+01	1.452798e+02
2.780000e-06	3.850174e-06	2.165052e-09	2.744104e+01	1.463472e+02
2.790000e-06	3.881918e-06	2.184775e-09	2.766729e+01	1.473746e+02
2.800000e-06	3.913485e-06	2.201602e-09	2.789227e+01	1.483622e+02
2.810000e-06	3.944796e-06	2.217306e-09	2.811543e+01	1.493103e+02
2.820000e-06	3.975736e-06	2.228580e-09	2.833595e+01	1.502193e+02
2.830000e-06	4.006297e-06	2.235414e-09	2.855376e+01	1.510896e+02
2.840000e-06	4.036657e-06	2.240226e-09	2.877014e+01	1.519220e+02
2.850000e-06	4.066810e-06	2.248897e-09	2.898505e+01	1.527171e+02
2.860000e-06	4.096578e-06	2.263335e-09	2.919721e+01	1.534760e+02
2.870000e-06	4.126097e-06	2.279170e-09	2.940760e+01	1.541995e+02
2.880000e-06	4.155393e-06	2.291294e-09	2.961640e+01	1.548889e+02
2.890000e-06	4.184384e-06	2.299198e-09	2.982303e+01	1.555456e+02
2.900000e-06	4.213018e-06	2.305827e-09	3.002711e+01	1.561708e+02
