# Temperatura_=_1.15
# Concentracion g/m^3_=_4090.0
# C_Vs_to_Am_M_A/Vsm_=_65563218390.804596
# pendiente_HvsI_1/m_=_3716.3
# ordenada_HvsI_A/m_=_1297.0
# frecuencia_Hz_=_135082.66844115904

Tiempo_(s)	Campo_(V.s)	Magnetizacion_(V.s)	Campo_(kA/m)	Magnetizacion_(A/m)
0.000000e+00	-5.431163e-06	-2.545652e-09	-3.838617e+01	-1.649052e+02
1.000000e-08	-5.431352e-06	-2.542639e-09	-3.838751e+01	-1.648613e+02
2.000000e-08	-5.431345e-06	-2.537225e-09	-3.838746e+01	-1.648210e+02
3.000000e-08	-5.431094e-06	-2.533988e-09	-3.838568e+01	-1.647866e+02
4.000000e-08	-5.430466e-06	-2.534644e-09	-3.838125e+01	-1.647604e+02
5.000000e-08	-5.429288e-06	-2.534935e-09	-3.837292e+01	-1.647449e+02
6.000000e-08	-5.427682e-06	-2.533262e-09	-3.836157e+01	-1.647422e+02
7.000000e-08	-5.425579e-06	-2.538993e-09	-3.834671e+01	-1.647547e+02
8.000000e-08	-5.422738e-06	-2.549058e-09	-3.832663e+01	-1.647844e+02
9.000000e-08	-5.419229e-06	-2.559905e-09	-3.830182e+01	-1.648332e+02
1.000000e-07	-5.415203e-06	-2.523586e-09	-3.827337e+01	-1.649028e+02
1.100000e-07	-5.410876e-06	-2.489301e-09	-3.824279e+01	-1.649947e+02
1.200000e-07	-5.406498e-06	-2.535689e-09	-3.821185e+01	-1.651100e+02
1.300000e-07	-5.401949e-06	-2.595693e-09	-3.817969e+01	-1.652496e+02
1.400000e-07	-5.396875e-06	-2.532651e-09	-3.814383e+01	-1.654138e+02
1.500000e-07	-5.391389e-06	-2.460920e-09	-3.810506e+01	-1.656028e+02
1.600000e-07	-5.385725e-06	-2.512684e-09	-3.806503e+01	-1.658164e+02
1.700000e-07	-5.379708e-06	-2.649199e-09	-3.802250e+01	-1.660537e+02
1.800000e-07	-5.372954e-06	-2.566623e-09	-3.797477e+01	-1.663139e+02
1.900000e-07	-5.365704e-06	-2.489338e-09	-3.792353e+01	-1.665953e+02
2.000000e-07	-5.358378e-06	-2.553793e-09	-3.787175e+01	-1.668963e+02
2.100000e-07	-5.350921e-06	-2.667943e-09	-3.781904e+01	-1.672147e+02
2.200000e-07	-5.343111e-06	-2.613688e-09	-3.776385e+01	-1.675480e+02
2.300000e-07	-5.335019e-06	-2.579760e-09	-3.770665e+01	-1.678934e+02
2.400000e-07	-5.326717e-06	-2.665828e-09	-3.764797e+01	-1.682481e+02
2.500000e-07	-5.317844e-06	-2.687962e-09	-3.758526e+01	-1.686089e+02
2.600000e-07	-5.308193e-06	-2.642112e-09	-3.751705e+01	-1.689725e+02
2.700000e-07	-5.298060e-06	-2.670385e-09	-3.744543e+01	-1.693355e+02
2.800000e-07	-5.287484e-06	-2.749435e-09	-3.737068e+01	-1.696944e+02
2.900000e-07	-5.276234e-06	-2.693936e-09	-3.729117e+01	-1.700459e+02
3.000000e-07	-5.264503e-06	-2.648905e-09	-3.720826e+01	-1.703866e+02
3.100000e-07	-5.252514e-06	-2.716137e-09	-3.712353e+01	-1.707133e+02
3.200000e-07	-5.240104e-06	-2.772027e-09	-3.703581e+01	-1.710230e+02
3.300000e-07	-5.227199e-06	-2.658712e-09	-3.694460e+01	-1.713128e+02
3.400000e-07	-5.213976e-06	-2.645670e-09	-3.685115e+01	-1.715801e+02
3.500000e-07	-5.200364e-06	-2.714690e-09	-3.675494e+01	-1.718226e+02
3.600000e-07	-5.186433e-06	-2.727719e-09	-3.665648e+01	-1.720384e+02
3.700000e-07	-5.172218e-06	-2.657198e-09	-3.655601e+01	-1.722258e+02
3.800000e-07	-5.157375e-06	-2.689459e-09	-3.645111e+01	-1.723837e+02
3.900000e-07	-5.141816e-06	-2.693414e-09	-3.634113e+01	-1.725110e+02
4.000000e-07	-5.125773e-06	-2.667956e-09	-3.622775e+01	-1.726073e+02
4.100000e-07	-5.109273e-06	-2.675069e-09	-3.611113e+01	-1.726725e+02
4.200000e-07	-5.092327e-06	-2.690129e-09	-3.599136e+01	-1.727069e+02
4.300000e-07	-5.075083e-06	-2.638296e-09	-3.586949e+01	-1.727110e+02
4.400000e-07	-5.057661e-06	-2.657001e-09	-3.574635e+01	-1.726859e+02
4.500000e-07	-5.039942e-06	-2.707959e-09	-3.562112e+01	-1.726326e+02
4.600000e-07	-5.021848e-06	-2.680941e-09	-3.549323e+01	-1.725529e+02
4.700000e-07	-5.003412e-06	-2.633387e-09	-3.536293e+01	-1.724484e+02
4.800000e-07	-4.984597e-06	-2.662561e-09	-3.522995e+01	-1.723212e+02
4.900000e-07	-4.965320e-06	-2.682300e-09	-3.509371e+01	-1.721733e+02
5.000000e-07	-4.945635e-06	-2.653595e-09	-3.495458e+01	-1.720071e+02
5.100000e-07	-4.925803e-06	-2.640654e-09	-3.481441e+01	-1.718248e+02
5.200000e-07	-4.905833e-06	-2.644144e-09	-3.467326e+01	-1.716288e+02
5.300000e-07	-4.885586e-06	-2.660591e-09	-3.453016e+01	-1.714215e+02
5.400000e-07	-4.865072e-06	-2.668446e-09	-3.438517e+01	-1.712052e+02
5.500000e-07	-4.844165e-06	-2.643740e-09	-3.423741e+01	-1.709822e+02
5.600000e-07	-4.822893e-06	-2.610207e-09	-3.408707e+01	-1.707544e+02
5.700000e-07	-4.801364e-06	-2.633752e-09	-3.393491e+01	-1.705239e+02
5.800000e-07	-4.779505e-06	-2.644742e-09	-3.378041e+01	-1.702925e+02
5.900000e-07	-4.757248e-06	-2.620324e-09	-3.362310e+01	-1.700617e+02
6.000000e-07	-4.734655e-06	-2.603569e-09	-3.346342e+01	-1.698329e+02
6.100000e-07	-4.711734e-06	-2.621797e-09	-3.330142e+01	-1.696072e+02
6.200000e-07	-4.688441e-06	-2.620010e-09	-3.313679e+01	-1.693856e+02
6.300000e-07	-4.664891e-06	-2.610158e-09	-3.297034e+01	-1.691688e+02
6.400000e-07	-4.641123e-06	-2.585865e-09	-3.280236e+01	-1.689571e+02
6.500000e-07	-4.617198e-06	-2.578506e-09	-3.263326e+01	-1.687508e+02
6.600000e-07	-4.593069e-06	-2.588576e-09	-3.246273e+01	-1.685500e+02
6.700000e-07	-4.568612e-06	-2.598194e-09	-3.228987e+01	-1.683543e+02
6.800000e-07	-4.543756e-06	-2.570756e-09	-3.211419e+01	-1.681636e+02
6.900000e-07	-4.518381e-06	-2.562778e-09	-3.193485e+01	-1.679772e+02
7.000000e-07	-4.492506e-06	-2.573948e-09	-3.175197e+01	-1.677945e+02
7.100000e-07	-4.466125e-06	-2.577223e-09	-3.156552e+01	-1.676148e+02
7.200000e-07	-4.439135e-06	-2.553383e-09	-3.137475e+01	-1.674372e+02
7.300000e-07	-4.411751e-06	-2.541243e-09	-3.118121e+01	-1.672608e+02
7.400000e-07	-4.384099e-06	-2.546109e-09	-3.098578e+01	-1.670847e+02
7.500000e-07	-4.356221e-06	-2.559017e-09	-3.078874e+01	-1.669079e+02
7.600000e-07	-4.328205e-06	-2.551579e-09	-3.059073e+01	-1.667295e+02
7.700000e-07	-4.299967e-06	-2.532091e-09	-3.039115e+01	-1.665487e+02
7.800000e-07	-4.271482e-06	-2.528506e-09	-3.018983e+01	-1.663644e+02
7.900000e-07	-4.242724e-06	-2.538771e-09	-2.998657e+01	-1.661761e+02
8.000000e-07	-4.213571e-06	-2.532882e-09	-2.978052e+01	-1.659828e+02
8.100000e-07	-4.184067e-06	-2.515384e-09	-2.957199e+01	-1.657842e+02
8.200000e-07	-4.154293e-06	-2.513776e-09	-2.936156e+01	-1.655795e+02
8.300000e-07	-4.124232e-06	-2.523917e-09	-2.914910e+01	-1.653683e+02
8.400000e-07	-4.093996e-06	-2.529276e-09	-2.893540e+01	-1.651505e+02
8.500000e-07	-4.063522e-06	-2.514498e-09	-2.872001e+01	-1.649256e+02
8.600000e-07	-4.032763e-06	-2.499679e-09	-2.850261e+01	-1.646936e+02
8.700000e-07	-4.001704e-06	-2.496517e-09	-2.828309e+01	-1.644544e+02
8.800000e-07	-3.970414e-06	-2.501083e-09	-2.806195e+01	-1.642082e+02
8.900000e-07	-3.938903e-06	-2.491768e-09	-2.783923e+01	-1.639548e+02
9.000000e-07	-3.907189e-06	-2.479848e-09	-2.761508e+01	-1.636947e+02
9.100000e-07	-3.875355e-06	-2.476733e-09	-2.739009e+01	-1.634279e+02
9.200000e-07	-3.843298e-06	-2.486953e-09	-2.716352e+01	-1.631547e+02
9.300000e-07	-3.810989e-06	-2.486003e-09	-2.693517e+01	-1.628755e+02
9.400000e-07	-3.778449e-06	-2.478059e-09	-2.670518e+01	-1.625905e+02
9.500000e-07	-3.745647e-06	-2.470501e-09	-2.647334e+01	-1.623001e+02
9.600000e-07	-3.712498e-06	-2.472922e-09	-2.623906e+01	-1.620045e+02
9.700000e-07	-3.679036e-06	-2.466483e-09	-2.600256e+01	-1.617041e+02
9.800000e-07	-3.645167e-06	-2.455343e-09	-2.576318e+01	-1.613992e+02
9.900000e-07	-3.610744e-06	-2.444772e-09	-2.551988e+01	-1.610900e+02
1.000000e-06	-3.575842e-06	-2.447329e-09	-2.527321e+01	-1.607767e+02
1.010000e-06	-3.540577e-06	-2.450663e-09	-2.502396e+01	-1.604596e+02
1.020000e-06	-3.505037e-06	-2.446063e-09	-2.477277e+01	-1.601389e+02
1.030000e-06	-3.469331e-06	-2.433830e-09	-2.452041e+01	-1.598146e+02
1.040000e-06	-3.433438e-06	-2.427384e-09	-2.426673e+01	-1.594868e+02
1.050000e-06	-3.397325e-06	-2.423972e-09	-2.401149e+01	-1.591557e+02
1.060000e-06	-3.361096e-06	-2.414498e-09	-2.375543e+01	-1.588213e+02
1.070000e-06	-3.324778e-06	-2.399792e-09	-2.349875e+01	-1.584835e+02
1.080000e-06	-3.288262e-06	-2.391863e-09	-2.324065e+01	-1.581424e+02
1.090000e-06	-3.251462e-06	-2.392143e-09	-2.298056e+01	-1.577979e+02
1.100000e-06	-3.214397e-06	-2.391620e-09	-2.271860e+01	-1.574499e+02
1.110000e-06	-3.177065e-06	-2.385973e-09	-2.245474e+01	-1.570985e+02
1.120000e-06	-3.139423e-06	-2.378923e-09	-2.218870e+01	-1.567434e+02
1.130000e-06	-3.101584e-06	-2.376787e-09	-2.192126e+01	-1.563847e+02
1.140000e-06	-3.063587e-06	-2.372377e-09	-2.165271e+01	-1.560222e+02
1.150000e-06	-3.025411e-06	-2.359804e-09	-2.138289e+01	-1.556559e+02
1.160000e-06	-2.986993e-06	-2.343177e-09	-2.111136e+01	-1.552856e+02
1.170000e-06	-2.948336e-06	-2.335184e-09	-2.083814e+01	-1.549112e+02
1.180000e-06	-2.909577e-06	-2.332123e-09	-2.056420e+01	-1.545326e+02
1.190000e-06	-2.870598e-06	-2.328427e-09	-2.028871e+01	-1.541497e+02
1.200000e-06	-2.831337e-06	-2.319780e-09	-2.001122e+01	-1.537622e+02
1.210000e-06	-2.791931e-06	-2.311397e-09	-1.973270e+01	-1.533701e+02
1.220000e-06	-2.752379e-06	-2.301827e-09	-1.945316e+01	-1.529732e+02
1.230000e-06	-2.712622e-06	-2.292979e-09	-1.917217e+01	-1.525712e+02
1.240000e-06	-2.672722e-06	-2.279956e-09	-1.889016e+01	-1.521639e+02
1.250000e-06	-2.632759e-06	-2.270252e-09	-1.860772e+01	-1.517511e+02
1.260000e-06	-2.592694e-06	-2.262691e-09	-1.832455e+01	-1.513324e+02
1.270000e-06	-2.552498e-06	-2.257918e-09	-1.804045e+01	-1.509074e+02
1.280000e-06	-2.512140e-06	-2.250594e-09	-1.775521e+01	-1.504759e+02
1.290000e-06	-2.471603e-06	-2.241928e-09	-1.746871e+01	-1.500373e+02
1.300000e-06	-2.430988e-06	-2.233335e-09	-1.718165e+01	-1.495912e+02
1.310000e-06	-2.390279e-06	-2.225288e-09	-1.689393e+01	-1.491371e+02
1.320000e-06	-2.349324e-06	-2.214216e-09	-1.660447e+01	-1.486743e+02
1.330000e-06	-2.308038e-06	-2.198753e-09	-1.631267e+01	-1.482024e+02
1.340000e-06	-2.266428e-06	-2.185900e-09	-1.601858e+01	-1.477207e+02
1.350000e-06	-2.224557e-06	-2.179546e-09	-1.572264e+01	-1.472285e+02
1.360000e-06	-2.182343e-06	-2.173011e-09	-1.542428e+01	-1.467251e+02
1.370000e-06	-2.139794e-06	-2.162948e-09	-1.512356e+01	-1.462100e+02
1.380000e-06	-2.097132e-06	-2.152129e-09	-1.482203e+01	-1.456823e+02
1.390000e-06	-2.054224e-06	-2.140899e-09	-1.451877e+01	-1.451414e+02
1.400000e-06	-2.011043e-06	-2.130079e-09	-1.421358e+01	-1.445867e+02
1.410000e-06	-1.967781e-06	-2.119650e-09	-1.390781e+01	-1.440174e+02
1.420000e-06	-1.924308e-06	-2.109386e-09	-1.360055e+01	-1.434329e+02
1.430000e-06	-1.880687e-06	-2.100663e-09	-1.329225e+01	-1.428327e+02
1.440000e-06	-1.836951e-06	-2.092858e-09	-1.298314e+01	-1.422161e+02
1.450000e-06	-1.793090e-06	-2.081508e-09	-1.267314e+01	-1.415828e+02
1.460000e-06	-1.749153e-06	-2.068357e-09	-1.236260e+01	-1.409321e+02
1.470000e-06	-1.705141e-06	-2.053747e-09	-1.205153e+01	-1.402637e+02
1.480000e-06	-1.661101e-06	-2.039703e-09	-1.174027e+01	-1.395772e+02
1.490000e-06	-1.616981e-06	-2.027276e-09	-1.142844e+01	-1.388724e+02
1.500000e-06	-1.572751e-06	-2.017206e-09	-1.111583e+01	-1.381490e+02
1.510000e-06	-1.528416e-06	-2.006592e-09	-1.080248e+01	-1.374066e+02
1.520000e-06	-1.484044e-06	-1.995322e-09	-1.048887e+01	-1.366452e+02
1.530000e-06	-1.439641e-06	-1.983084e-09	-1.017504e+01	-1.358646e+02
1.540000e-06	-1.395178e-06	-1.972381e-09	-9.860787e+00	-1.350647e+02
1.550000e-06	-1.350644e-06	-1.961689e-09	-9.546035e+00	-1.342452e+02
1.560000e-06	-1.306013e-06	-1.947116e-09	-9.230589e+00	-1.334060e+02
1.570000e-06	-1.261211e-06	-1.931983e-09	-8.913941e+00	-1.325468e+02
1.580000e-06	-1.216278e-06	-1.921197e-09	-8.596368e+00	-1.316676e+02
1.590000e-06	-1.171272e-06	-1.909737e-09	-8.278271e+00	-1.307679e+02
1.600000e-06	-1.126117e-06	-1.894551e-09	-7.959130e+00	-1.298473e+02
1.610000e-06	-1.080916e-06	-1.878799e-09	-7.639657e+00	-1.289055e+02
1.620000e-06	-1.035652e-06	-1.865999e-09	-7.319746e+00	-1.279418e+02
1.630000e-06	-9.902431e-07	-1.854476e-09	-6.998803e+00	-1.269556e+02
1.640000e-06	-9.447181e-07	-1.840669e-09	-6.677044e+00	-1.259460e+02
1.650000e-06	-8.991633e-07	-1.823360e-09	-6.355073e+00	-1.249121e+02
1.660000e-06	-8.535355e-07	-1.805663e-09	-6.032587e+00	-1.238528e+02
1.670000e-06	-8.078043e-07	-1.787388e-09	-5.709370e+00	-1.227669e+02
1.680000e-06	-7.621078e-07	-1.767578e-09	-5.386398e+00	-1.216530e+02
1.690000e-06	-7.163670e-07	-1.747047e-09	-5.063112e+00	-1.205096e+02
1.700000e-06	-6.706109e-07	-1.729250e-09	-4.739719e+00	-1.193351e+02
1.710000e-06	-6.248468e-07	-1.715656e-09	-4.416269e+00	-1.181277e+02
1.720000e-06	-5.789984e-07	-1.702144e-09	-4.092223e+00	-1.168854e+02
1.730000e-06	-5.331007e-07	-1.683517e-09	-3.767829e+00	-1.156065e+02
1.740000e-06	-4.872042e-07	-1.660277e-09	-3.443444e+00	-1.142886e+02
1.750000e-06	-4.412875e-07	-1.636781e-09	-3.118916e+00	-1.129299e+02
1.760000e-06	-3.953560e-07	-1.612754e-09	-2.794283e+00	-1.115280e+02
1.770000e-06	-3.493723e-07	-1.587205e-09	-2.469281e+00	-1.100808e+02
1.780000e-06	-3.033095e-07	-1.565247e-09	-2.143719e+00	-1.085862e+02
1.790000e-06	-2.572470e-07	-1.548089e-09	-1.818161e+00	-1.070420e+02
1.800000e-06	-2.112302e-07	-1.527314e-09	-1.492925e+00	-1.054462e+02
1.810000e-06	-1.652523e-07	-1.502734e-09	-1.167964e+00	-1.037968e+02
1.820000e-06	-1.192096e-07	-1.475919e-09	-8.425453e-01	-1.020919e+02
1.830000e-06	-7.308289e-08	-1.449110e-09	-5.165326e-01	-1.003299e+02
1.840000e-06	-2.695585e-08	-1.421112e-09	-1.905176e-01	-9.850907e+01
1.850000e-06	1.906007e-08	-1.391553e-09	1.347121e-01	-9.662811e+01
1.860000e-06	6.504735e-08	-1.360872e-09	4.597393e-01	-9.468582e+01
1.870000e-06	1.111572e-07	-1.331625e-09	7.856331e-01	-9.268121e+01
1.880000e-06	1.572753e-07	-1.301611e-09	1.111584e+00	-9.061353e+01
1.890000e-06	2.033197e-07	-1.267966e-09	1.437016e+00	-8.848225e+01
1.900000e-06	2.493197e-07	-1.231830e-09	1.762133e+00	-8.628707e+01
1.910000e-06	2.953550e-07	-1.197826e-09	2.087499e+00	-8.402793e+01
1.920000e-06	3.414488e-07	-1.162754e-09	2.413279e+00	-8.170501e+01
1.930000e-06	3.874814e-07	-1.123969e-09	2.738627e+00	-7.931870e+01
1.940000e-06	4.334498e-07	-1.084655e-09	3.063520e+00	-7.686963e+01
1.950000e-06	4.793300e-07	-1.048825e-09	3.387791e+00	-7.435863e+01
1.960000e-06	5.251571e-07	-1.013463e-09	3.711686e+00	-7.178672e+01
1.970000e-06	5.709628e-07	-9.738536e-10	4.035430e+00	-6.915511e+01
1.980000e-06	6.167002e-07	-9.312518e-10	4.358691e+00	-6.646516e+01
1.990000e-06	6.624458e-07	-8.888253e-10	4.682010e+00	-6.371838e+01
2.000000e-06	7.082000e-07	-8.479945e-10	5.005390e+00	-6.091641e+01
2.010000e-06	7.538758e-07	-8.061115e-10	5.328215e+00	-5.806098e+01
2.020000e-06	7.994586e-07	-7.618980e-10	5.650384e+00	-5.515394e+01
2.030000e-06	8.449492e-07	-7.172037e-10	5.971901e+00	-5.219718e+01
2.040000e-06	8.903899e-07	-6.753304e-10	6.293065e+00	-4.919266e+01
2.050000e-06	9.358401e-07	-6.317722e-10	6.614296e+00	-4.614238e+01
2.060000e-06	9.812718e-07	-5.854915e-10	6.935397e+00	-4.304836e+01
2.070000e-06	1.026631e-06	-5.394559e-10	7.255986e+00	-3.991266e+01
2.080000e-06	1.071833e-06	-4.957624e-10	7.575464e+00	-3.673732e+01
2.090000e-06	1.116854e-06	-4.529771e-10	7.893662e+00	-3.352442e+01
2.100000e-06	1.161784e-06	-4.093917e-10	8.211211e+00	-3.027603e+01
2.110000e-06	1.206665e-06	-3.644521e-10	8.528423e+00	-2.699422e+01
2.120000e-06	1.251456e-06	-3.155445e-10	8.844997e+00	-2.368109e+01
2.130000e-06	1.296102e-06	-2.607980e-10	9.160544e+00	-2.033875e+01
2.140000e-06	1.340652e-06	-2.043352e-10	9.475409e+00	-1.696932e+01
2.150000e-06	1.385145e-06	-1.499770e-10	9.789875e+00	-1.357499e+01
2.160000e-06	1.429606e-06	-9.864056e-11	1.010412e+01	-1.015796e+01
2.170000e-06	1.473952e-06	-4.933461e-11	1.041754e+01	-6.720507e+00
2.180000e-06	1.518198e-06	-8.266450e-13	1.073027e+01	-3.264989e+00
2.190000e-06	1.562440e-06	4.807432e-11	1.104295e+01	2.061631e-01
2.200000e-06	1.606606e-06	9.680701e-11	1.135511e+01	3.690417e+00
2.210000e-06	1.650712e-06	1.485498e-10	1.166684e+01	7.185133e+00
2.220000e-06	1.694788e-06	2.068126e-10	1.197836e+01	1.068755e+01
2.230000e-06	1.738819e-06	2.663672e-10	1.228956e+01	1.419479e+01
2.240000e-06	1.782741e-06	3.185886e-10	1.259999e+01	1.770384e+01
2.250000e-06	1.826593e-06	3.656946e-10	1.290992e+01	2.121156e+01
2.260000e-06	1.870382e-06	4.136893e-10	1.321942e+01	2.471468e+01
2.270000e-06	1.914028e-06	4.637178e-10	1.352790e+01	2.820980e+01
2.280000e-06	1.957559e-06	5.113254e-10	1.383556e+01	3.169343e+01
2.290000e-06	2.000993e-06	5.584496e-10	1.414254e+01	3.516194e+01
2.300000e-06	2.044252e-06	6.110174e-10	1.444829e+01	3.861166e+01
2.310000e-06	2.087225e-06	6.666612e-10	1.475201e+01	4.203882e+01
2.320000e-06	2.129895e-06	7.186135e-10	1.505360e+01	4.543962e+01
2.330000e-06	2.172385e-06	7.620754e-10	1.535390e+01	4.881025e+01
2.340000e-06	2.214623e-06	8.046764e-10	1.565243e+01	5.214691e+01
2.350000e-06	2.256432e-06	8.546156e-10	1.594792e+01	5.544583e+01
2.360000e-06	2.297880e-06	9.074753e-10	1.624087e+01	5.870335e+01
2.370000e-06	2.339093e-06	9.522253e-10	1.653216e+01	6.191587e+01
2.380000e-06	2.380075e-06	9.915667e-10	1.682181e+01	6.507998e+01
2.390000e-06	2.420854e-06	1.035361e-09	1.711002e+01	6.819240e+01
2.400000e-06	2.461402e-06	1.079845e-09	1.739661e+01	7.125007e+01
2.410000e-06	2.501795e-06	1.119523e-09	1.768210e+01	7.425018e+01
2.420000e-06	2.542075e-06	1.157179e-09	1.796678e+01	7.719017e+01
2.430000e-06	2.582245e-06	1.198986e-09	1.825070e+01	8.006774e+01
2.440000e-06	2.622354e-06	1.246928e-09	1.853418e+01	8.288094e+01
2.450000e-06	2.662353e-06	1.295371e-09	1.881688e+01	8.562810e+01
2.460000e-06	2.702217e-06	1.337836e-09	1.909863e+01	8.830789e+01
2.470000e-06	2.741942e-06	1.375074e-09	1.937940e+01	9.091934e+01
2.480000e-06	2.781520e-06	1.409570e-09	1.965912e+01	9.346179e+01
2.490000e-06	2.820925e-06	1.438656e-09	1.993763e+01	9.593493e+01
2.500000e-06	2.860197e-06	1.464014e-09	2.021520e+01	9.833879e+01
2.510000e-06	2.899138e-06	1.493289e-09	2.049042e+01	1.006737e+02
2.520000e-06	2.937769e-06	1.530326e-09	2.076346e+01	1.029402e+02
2.530000e-06	2.976227e-06	1.569817e-09	2.103527e+01	1.051394e+02
2.540000e-06	3.014493e-06	1.606066e-09	2.130572e+01	1.072722e+02
2.550000e-06	3.052613e-06	1.639011e-09	2.157515e+01	1.093402e+02
2.560000e-06	3.090545e-06	1.669801e-09	2.184324e+01	1.113447e+02
2.570000e-06	3.128304e-06	1.694743e-09	2.211011e+01	1.132876e+02
2.580000e-06	3.165822e-06	1.713224e-09	2.237528e+01	1.151707e+02
2.590000e-06	3.203081e-06	1.734366e-09	2.263862e+01	1.169959e+02
2.600000e-06	3.240136e-06	1.763828e-09	2.290052e+01	1.187650e+02
2.610000e-06	3.276882e-06	1.794697e-09	2.316023e+01	1.204802e+02
2.620000e-06	3.313383e-06	1.821848e-09	2.341820e+01	1.221432e+02
2.630000e-06	3.349721e-06	1.848558e-09	2.367504e+01	1.237560e+02
2.640000e-06	3.385931e-06	1.875859e-09	2.393096e+01	1.253205e+02
2.650000e-06	3.422062e-06	1.897922e-09	2.418632e+01	1.268382e+02
2.660000e-06	3.458073e-06	1.911134e-09	2.444084e+01	1.283107e+02
2.670000e-06	3.493928e-06	1.924698e-09	2.469425e+01	1.297396e+02
2.680000e-06	3.529675e-06	1.945412e-09	2.494690e+01	1.311260e+02
2.690000e-06	3.565203e-06	1.967406e-09	2.519801e+01	1.324710e+02
2.700000e-06	3.600328e-06	1.984443e-09	2.544627e+01	1.337757e+02
2.710000e-06	3.635000e-06	2.000056e-09	2.569132e+01	1.350408e+02
2.720000e-06	3.669254e-06	2.020415e-09	2.593342e+01	1.362669e+02
2.730000e-06	3.703046e-06	2.042144e-09	2.617225e+01	1.374546e+02
2.740000e-06	3.736299e-06	2.057636e-09	2.640728e+01	1.386043e+02
2.750000e-06	3.769196e-06	2.070333e-09	2.663979e+01	1.397161e+02
2.760000e-06	3.801841e-06	2.089516e-09	2.687051e+01	1.407904e+02
2.770000e-06	3.834208e-06	2.111347e-09	2.709928e+01	1.418272e+02
2.780000e-06	3.866358e-06	2.125742e-09	2.732651e+01	1.428266e+02
2.790000e-06	3.898322e-06	2.134295e-09	2.755242e+01	1.437887e+02
2.800000e-06	3.930106e-06	2.145921e-09	2.777706e+01	1.447136e+02
2.810000e-06	3.961679e-06	2.161415e-09	2.800021e+01	1.456014e+02
2.820000e-06	3.992980e-06	2.173756e-09	2.822144e+01	1.464524e+02
2.830000e-06	4.024047e-06	2.181895e-09	2.844101e+01	1.472669e+02
2.840000e-06	4.054797e-06	2.192079e-09	2.865834e+01	1.480452e+02
2.850000e-06	4.085178e-06	2.206189e-09	2.887307e+01	1.487879e+02
2.860000e-06	4.115317e-06	2.219644e-09	2.908608e+01	1.494957e+02
2.870000e-06	4.145327e-06	2.228798e-09	2.929819e+01	1.501692e+02
2.880000e-06	4.175166e-06	2.236751e-09	2.950908e+01	1.508096e+02
2.890000e-06	4.204719e-06	2.245700e-09	2.971796e+01	1.514178e+02
2.900000e-06	4.233852e-06	2.252268e-09	2.992386e+01	1.519951e+02
