# Temperatura_=_-1.0
# Concentracion g/m^3_=_4090.0
# C_Vs_to_Am_M_A/Vsm_=_65563218390.804596
# pendiente_HvsI_1/m_=_3716.3
# ordenada_HvsI_A/m_=_1297.0
# frecuencia_Hz_=_135076.10917401925

Tiempo_(s)	Campo_(V.s)	Magnetizacion_(V.s)	Campo_(kA/m)	Magnetizacion_(A/m)
0.000000e+00	-5.397890e-06	-2.646700e-09	-3.838395e+01	-1.692695e+02
1.000000e-08	-5.397958e-06	-2.649898e-09	-3.838444e+01	-1.692492e+02
2.000000e-08	-5.397817e-06	-2.655957e-09	-3.838343e+01	-1.692318e+02
3.000000e-08	-5.397485e-06	-2.660784e-09	-3.838107e+01	-1.692189e+02
4.000000e-08	-5.396859e-06	-2.660843e-09	-3.837662e+01	-1.692121e+02
5.000000e-08	-5.395674e-06	-2.657999e-09	-3.836819e+01	-1.692129e+02
6.000000e-08	-5.393744e-06	-2.657200e-09	-3.835447e+01	-1.692229e+02
7.000000e-08	-5.391175e-06	-2.669215e-09	-3.833620e+01	-1.692435e+02
8.000000e-08	-5.388095e-06	-2.672239e-09	-3.831430e+01	-1.692763e+02
9.000000e-08	-5.384455e-06	-2.647074e-09	-3.828842e+01	-1.693223e+02
1.000000e-07	-5.380367e-06	-2.633686e-09	-3.825934e+01	-1.693829e+02
1.100000e-07	-5.376128e-06	-2.660853e-09	-3.822920e+01	-1.694587e+02
1.200000e-07	-5.371798e-06	-2.620577e-09	-3.819841e+01	-1.695506e+02
1.300000e-07	-5.367250e-06	-2.641816e-09	-3.816608e+01	-1.696591e+02
1.400000e-07	-5.362259e-06	-2.646112e-09	-3.813058e+01	-1.697843e+02
1.500000e-07	-5.356746e-06	-2.678878e-09	-3.809138e+01	-1.699262e+02
1.600000e-07	-5.350848e-06	-2.621402e-09	-3.804944e+01	-1.700846e+02
1.700000e-07	-5.344672e-06	-2.609129e-09	-3.800552e+01	-1.702588e+02
1.800000e-07	-5.338086e-06	-2.671700e-09	-3.795869e+01	-1.704481e+02
1.900000e-07	-5.331091e-06	-2.664064e-09	-3.790895e+01	-1.706514e+02
2.000000e-07	-5.323857e-06	-2.599458e-09	-3.785751e+01	-1.708673e+02
2.100000e-07	-5.316417e-06	-2.582220e-09	-3.780460e+01	-1.710943e+02
2.200000e-07	-5.308695e-06	-2.680230e-09	-3.774970e+01	-1.713306e+02
2.300000e-07	-5.300673e-06	-2.682734e-09	-3.769265e+01	-1.715743e+02
2.400000e-07	-5.292320e-06	-2.649012e-09	-3.763325e+01	-1.718232e+02
2.500000e-07	-5.283431e-06	-2.659757e-09	-3.757004e+01	-1.720752e+02
2.600000e-07	-5.273811e-06	-2.719987e-09	-3.750164e+01	-1.723279e+02
2.700000e-07	-5.263407e-06	-2.657199e-09	-3.742765e+01	-1.725790e+02
2.800000e-07	-5.252576e-06	-2.616126e-09	-3.735063e+01	-1.728261e+02
2.900000e-07	-5.241451e-06	-2.639780e-09	-3.727153e+01	-1.730668e+02
3.000000e-07	-5.229834e-06	-2.662645e-09	-3.718892e+01	-1.732989e+02
3.100000e-07	-5.217738e-06	-2.613159e-09	-3.710290e+01	-1.735201e+02
3.200000e-07	-5.205283e-06	-2.654600e-09	-3.701434e+01	-1.737283e+02
3.300000e-07	-5.192456e-06	-2.701007e-09	-3.692313e+01	-1.739216e+02
3.400000e-07	-5.179295e-06	-2.663977e-09	-3.682954e+01	-1.740982e+02
3.500000e-07	-5.165752e-06	-2.618782e-09	-3.673324e+01	-1.742566e+02
3.600000e-07	-5.151863e-06	-2.683775e-09	-3.663448e+01	-1.743955e+02
3.700000e-07	-5.137631e-06	-2.678506e-09	-3.653327e+01	-1.745136e+02
3.800000e-07	-5.122897e-06	-2.620841e-09	-3.642850e+01	-1.746103e+02
3.900000e-07	-5.107484e-06	-2.625780e-09	-3.631890e+01	-1.746848e+02
4.000000e-07	-5.091380e-06	-2.671809e-09	-3.620438e+01	-1.747369e+02
4.100000e-07	-5.074907e-06	-2.641104e-09	-3.608724e+01	-1.747664e+02
4.200000e-07	-5.058168e-06	-2.626862e-09	-3.596822e+01	-1.747735e+02
4.300000e-07	-5.041022e-06	-2.658328e-09	-3.584629e+01	-1.747586e+02
4.400000e-07	-5.023520e-06	-2.639191e-09	-3.572184e+01	-1.747223e+02
4.500000e-07	-5.005773e-06	-2.621777e-09	-3.559564e+01	-1.746654e+02
4.600000e-07	-4.987754e-06	-2.637009e-09	-3.546751e+01	-1.745889e+02
4.700000e-07	-4.969437e-06	-2.637168e-09	-3.533725e+01	-1.744939e+02
4.800000e-07	-4.950634e-06	-2.596278e-09	-3.520355e+01	-1.743818e+02
4.900000e-07	-4.931382e-06	-2.619660e-09	-3.506665e+01	-1.742538e+02
5.000000e-07	-4.911839e-06	-2.631816e-09	-3.492768e+01	-1.741115e+02
5.100000e-07	-4.892026e-06	-2.617886e-09	-3.478680e+01	-1.739563e+02
5.200000e-07	-4.872054e-06	-2.599880e-09	-3.464478e+01	-1.737899e+02
5.300000e-07	-4.851905e-06	-2.625053e-09	-3.450150e+01	-1.736137e+02
5.400000e-07	-4.831381e-06	-2.615155e-09	-3.435556e+01	-1.734292e+02
5.500000e-07	-4.810483e-06	-2.609651e-09	-3.420695e+01	-1.732379e+02
5.600000e-07	-4.789232e-06	-2.594889e-09	-3.405583e+01	-1.730411e+02
5.700000e-07	-4.767647e-06	-2.594372e-09	-3.390235e+01	-1.728403e+02
5.800000e-07	-4.745833e-06	-2.587376e-09	-3.374723e+01	-1.726365e+02
5.900000e-07	-4.723768e-06	-2.596027e-09	-3.359033e+01	-1.724308e+02
6.000000e-07	-4.701316e-06	-2.584464e-09	-3.343067e+01	-1.722243e+02
6.100000e-07	-4.678428e-06	-2.584534e-09	-3.326791e+01	-1.720177e+02
6.200000e-07	-4.655146e-06	-2.584782e-09	-3.310236e+01	-1.718118e+02
6.300000e-07	-4.631579e-06	-2.586472e-09	-3.293478e+01	-1.716070e+02
6.400000e-07	-4.607824e-06	-2.572270e-09	-3.276586e+01	-1.714039e+02
6.500000e-07	-4.583884e-06	-2.561471e-09	-3.259562e+01	-1.712027e+02
6.600000e-07	-4.559745e-06	-2.554378e-09	-3.242397e+01	-1.710036e+02
6.700000e-07	-4.535356e-06	-2.560760e-09	-3.225054e+01	-1.708067e+02
6.800000e-07	-4.510641e-06	-2.559400e-09	-3.207479e+01	-1.706119e+02
6.900000e-07	-4.485460e-06	-2.548332e-09	-3.189574e+01	-1.704192e+02
7.000000e-07	-4.459721e-06	-2.545509e-09	-3.171271e+01	-1.702282e+02
7.100000e-07	-4.433461e-06	-2.547773e-09	-3.152598e+01	-1.700389e+02
7.200000e-07	-4.406769e-06	-2.544230e-09	-3.133617e+01	-1.698507e+02
7.300000e-07	-4.379657e-06	-2.532906e-09	-3.114338e+01	-1.696634e+02
7.400000e-07	-4.352138e-06	-2.528845e-09	-3.094769e+01	-1.694765e+02
7.500000e-07	-4.324347e-06	-2.523556e-09	-3.075007e+01	-1.692896e+02
7.600000e-07	-4.296394e-06	-2.526161e-09	-3.055130e+01	-1.691023e+02
7.700000e-07	-4.268283e-06	-2.519823e-09	-3.035141e+01	-1.689141e+02
7.800000e-07	-4.239975e-06	-2.514110e-09	-3.015011e+01	-1.687246e+02
7.900000e-07	-4.211391e-06	-2.509966e-09	-2.994685e+01	-1.685334e+02
8.000000e-07	-4.182463e-06	-2.516836e-09	-2.974115e+01	-1.683400e+02
8.100000e-07	-4.153226e-06	-2.509963e-09	-2.953325e+01	-1.681441e+02
8.200000e-07	-4.123664e-06	-2.505164e-09	-2.932303e+01	-1.679452e+02
8.300000e-07	-4.093878e-06	-2.499567e-09	-2.911123e+01	-1.677431e+02
8.400000e-07	-4.063883e-06	-2.503712e-09	-2.889794e+01	-1.675373e+02
8.500000e-07	-4.033476e-06	-2.497142e-09	-2.868172e+01	-1.673275e+02
8.600000e-07	-4.002768e-06	-2.490437e-09	-2.846336e+01	-1.671135e+02
8.700000e-07	-3.971806e-06	-2.482043e-09	-2.824319e+01	-1.668950e+02
8.800000e-07	-3.940581e-06	-2.485431e-09	-2.802115e+01	-1.666717e+02
8.900000e-07	-3.909120e-06	-2.480407e-09	-2.779743e+01	-1.664433e+02
9.000000e-07	-3.877377e-06	-2.472201e-09	-2.757171e+01	-1.662097e+02
9.100000e-07	-3.845487e-06	-2.464978e-09	-2.734494e+01	-1.659705e+02
9.200000e-07	-3.813472e-06	-2.471056e-09	-2.711728e+01	-1.657256e+02
9.300000e-07	-3.781301e-06	-2.474523e-09	-2.688852e+01	-1.654748e+02
9.400000e-07	-3.748951e-06	-2.471086e-09	-2.665848e+01	-1.652178e+02
9.500000e-07	-3.716324e-06	-2.463037e-09	-2.642647e+01	-1.649545e+02
9.600000e-07	-3.683325e-06	-2.461659e-09	-2.619182e+01	-1.646847e+02
9.700000e-07	-3.649868e-06	-2.459448e-09	-2.595391e+01	-1.644082e+02
9.800000e-07	-3.616004e-06	-2.451048e-09	-2.571310e+01	-1.641249e+02
9.900000e-07	-3.581732e-06	-2.440824e-09	-2.546940e+01	-1.638346e+02
1.000000e-06	-3.547006e-06	-2.439433e-09	-2.522247e+01	-1.635372e+02
1.010000e-06	-3.511994e-06	-2.446529e-09	-2.497350e+01	-1.632327e+02
1.020000e-06	-3.476695e-06	-2.444478e-09	-2.472250e+01	-1.629210e+02
1.030000e-06	-3.441113e-06	-2.432582e-09	-2.446947e+01	-1.626022e+02
1.040000e-06	-3.405365e-06	-2.420968e-09	-2.421527e+01	-1.622761e+02
1.050000e-06	-3.369452e-06	-2.416343e-09	-2.395989e+01	-1.619429e+02
1.060000e-06	-3.333394e-06	-2.405876e-09	-2.370349e+01	-1.616026e+02
1.070000e-06	-3.297177e-06	-2.393672e-09	-2.344595e+01	-1.612555e+02
1.080000e-06	-3.260756e-06	-2.384512e-09	-2.318697e+01	-1.609017e+02
1.090000e-06	-3.224130e-06	-2.383908e-09	-2.292652e+01	-1.605413e+02
1.100000e-06	-3.187288e-06	-2.381154e-09	-2.266454e+01	-1.601748e+02
1.110000e-06	-3.150175e-06	-2.374158e-09	-2.240063e+01	-1.598022e+02
1.120000e-06	-3.112761e-06	-2.360827e-09	-2.213459e+01	-1.594241e+02
1.130000e-06	-3.075105e-06	-2.356160e-09	-2.186682e+01	-1.590406e+02
1.140000e-06	-3.037303e-06	-2.351559e-09	-2.159801e+01	-1.586521e+02
1.150000e-06	-2.999220e-06	-2.345961e-09	-2.132721e+01	-1.582590e+02
1.160000e-06	-2.960908e-06	-2.333750e-09	-2.105477e+01	-1.578616e+02
1.170000e-06	-2.922503e-06	-2.325883e-09	-2.078168e+01	-1.574602e+02
1.180000e-06	-2.883927e-06	-2.318449e-09	-2.050737e+01	-1.570552e+02
1.190000e-06	-2.845240e-06	-2.311903e-09	-2.023226e+01	-1.566466e+02
1.200000e-06	-2.806318e-06	-2.303931e-09	-1.995550e+01	-1.562349e+02
1.210000e-06	-2.766996e-06	-2.298819e-09	-1.967588e+01	-1.558200e+02
1.220000e-06	-2.727466e-06	-2.293029e-09	-1.939479e+01	-1.554021e+02
1.230000e-06	-2.687825e-06	-2.285975e-09	-1.911290e+01	-1.549812e+02
1.240000e-06	-2.648098e-06	-2.272250e-09	-1.883041e+01	-1.545571e+02
1.250000e-06	-2.608260e-06	-2.258725e-09	-1.854712e+01	-1.541296e+02
1.260000e-06	-2.568267e-06	-2.248414e-09	-1.826273e+01	-1.536986e+02
1.270000e-06	-2.528229e-06	-2.239968e-09	-1.797803e+01	-1.532634e+02
1.280000e-06	-2.488101e-06	-2.230800e-09	-1.769268e+01	-1.528238e+02
1.290000e-06	-2.447813e-06	-2.223434e-09	-1.740620e+01	-1.523791e+02
1.300000e-06	-2.407429e-06	-2.221529e-09	-1.711903e+01	-1.519285e+02
1.310000e-06	-2.366964e-06	-2.219192e-09	-1.683129e+01	-1.514714e+02
1.320000e-06	-2.326318e-06	-2.211695e-09	-1.654226e+01	-1.510069e+02
1.330000e-06	-2.285388e-06	-2.196679e-09	-1.625120e+01	-1.505341e+02
1.340000e-06	-2.244117e-06	-2.183915e-09	-1.595773e+01	-1.500520e+02
1.350000e-06	-2.202514e-06	-2.174001e-09	-1.566190e+01	-1.495596e+02
1.360000e-06	-2.160551e-06	-2.164644e-09	-1.536350e+01	-1.490559e+02
1.370000e-06	-2.118368e-06	-2.154528e-09	-1.506354e+01	-1.485397e+02
1.380000e-06	-2.076048e-06	-2.148548e-09	-1.476261e+01	-1.480101e+02
1.390000e-06	-2.033402e-06	-2.143821e-09	-1.445936e+01	-1.474661e+02
1.400000e-06	-1.990646e-06	-2.140880e-09	-1.415532e+01	-1.469066e+02
1.410000e-06	-1.947722e-06	-2.133464e-09	-1.385009e+01	-1.463306e+02
1.420000e-06	-1.904443e-06	-2.120927e-09	-1.354234e+01	-1.457374e+02
1.430000e-06	-1.861004e-06	-2.104319e-09	-1.323345e+01	-1.451262e+02
1.440000e-06	-1.817426e-06	-2.090244e-09	-1.292357e+01	-1.444961e+02
1.450000e-06	-1.773725e-06	-2.076907e-09	-1.261281e+01	-1.438467e+02
1.460000e-06	-1.729968e-06	-2.065856e-09	-1.230166e+01	-1.431773e+02
1.470000e-06	-1.686150e-06	-2.054263e-09	-1.199007e+01	-1.424877e+02
1.480000e-06	-1.642209e-06	-2.043523e-09	-1.167762e+01	-1.417775e+02
1.490000e-06	-1.598196e-06	-2.034822e-09	-1.136464e+01	-1.410465e+02
1.500000e-06	-1.554143e-06	-2.027983e-09	-1.105138e+01	-1.402946e+02
1.510000e-06	-1.510057e-06	-2.016614e-09	-1.073789e+01	-1.395218e+02
1.520000e-06	-1.465848e-06	-2.002048e-09	-1.042353e+01	-1.387283e+02
1.530000e-06	-1.421515e-06	-1.989875e-09	-1.010827e+01	-1.379140e+02
1.540000e-06	-1.377225e-06	-1.981661e-09	-9.793334e+00	-1.370792e+02
1.550000e-06	-1.332950e-06	-1.971497e-09	-9.478497e+00	-1.362241e+02
1.560000e-06	-1.288593e-06	-1.956610e-09	-9.163082e+00	-1.353489e+02
1.570000e-06	-1.244089e-06	-1.941902e-09	-8.846616e+00	-1.344538e+02
1.580000e-06	-1.199490e-06	-1.932038e-09	-8.529474e+00	-1.335390e+02
1.590000e-06	-1.154793e-06	-1.924798e-09	-8.211641e+00	-1.326044e+02
1.600000e-06	-1.109992e-06	-1.915432e-09	-7.893060e+00	-1.316502e+02
1.610000e-06	-1.065189e-06	-1.902238e-09	-7.574473e+00	-1.306762e+02
1.620000e-06	-1.020369e-06	-1.886284e-09	-7.255761e+00	-1.296823e+02
1.630000e-06	-9.754487e-07	-1.870110e-09	-6.936335e+00	-1.286680e+02
1.640000e-06	-9.303436e-07	-1.851350e-09	-6.615597e+00	-1.276328e+02
1.650000e-06	-8.851045e-07	-1.831547e-09	-6.293905e+00	-1.265761e+02
1.660000e-06	-8.398243e-07	-1.814819e-09	-5.971921e+00	-1.254970e+02
1.670000e-06	-7.944698e-07	-1.802896e-09	-5.649410e+00	-1.243944e+02
1.680000e-06	-7.491143e-07	-1.788918e-09	-5.326890e+00	-1.232671e+02
1.690000e-06	-7.037512e-07	-1.771386e-09	-5.004317e+00	-1.221137e+02
1.700000e-06	-6.582805e-07	-1.752941e-09	-4.680979e+00	-1.209326e+02
1.710000e-06	-6.127371e-07	-1.735106e-09	-4.357123e+00	-1.197219e+02
1.720000e-06	-5.670646e-07	-1.714399e-09	-4.032350e+00	-1.184799e+02
1.730000e-06	-5.212812e-07	-1.690804e-09	-3.706788e+00	-1.172043e+02
1.740000e-06	-4.755050e-07	-1.667256e-09	-3.381277e+00	-1.158931e+02
1.750000e-06	-4.297839e-07	-1.646030e-09	-3.056158e+00	-1.145440e+02
1.760000e-06	-3.841167e-07	-1.625465e-09	-2.731422e+00	-1.131546e+02
1.770000e-06	-3.384413e-07	-1.604968e-09	-2.406628e+00	-1.117225e+02
1.780000e-06	-2.926912e-07	-1.586235e-09	-2.081303e+00	-1.102454e+02
1.790000e-06	-2.468984e-07	-1.568811e-09	-1.755674e+00	-1.087209e+02
1.800000e-06	-2.011657e-07	-1.545395e-09	-1.430473e+00	-1.071467e+02
1.810000e-06	-1.554374e-07	-1.518352e-09	-1.105303e+00	-1.055204e+02
1.820000e-06	-1.096891e-07	-1.489156e-09	-7.799898e-01	-1.038400e+02
1.830000e-06	-6.394520e-08	-1.459544e-09	-4.547090e-01	-1.021035e+02
1.840000e-06	-1.817262e-08	-1.430829e-09	-1.292240e-01	-1.003091e+02
1.850000e-06	2.761661e-08	-1.401351e-09	1.963795e-01	-9.845499e+01
1.860000e-06	7.337484e-08	-1.372100e-09	5.217624e-01	-9.653985e+01
1.870000e-06	1.190777e-07	-1.347000e-09	8.467517e-01	-9.456244e+01
1.880000e-06	1.648339e-07	-1.321957e-09	1.172120e+00	-9.252175e+01
1.890000e-06	2.106343e-07	-1.291225e-09	1.497803e+00	-9.041705e+01
1.900000e-06	2.564427e-07	-1.256215e-09	1.823543e+00	-8.824784e+01
1.910000e-06	3.022535e-07	-1.220405e-09	2.149300e+00	-8.601388e+01
1.920000e-06	3.480125e-07	-1.184400e-09	2.474688e+00	-8.371518e+01
1.930000e-06	3.937785e-07	-1.145759e-09	2.800126e+00	-8.135200e+01
1.940000e-06	4.394680e-07	-1.106833e-09	3.125021e+00	-7.892481e+01
1.950000e-06	4.850312e-07	-1.073144e-09	3.449017e+00	-7.643433e+01
1.960000e-06	5.305923e-07	-1.043111e-09	3.772998e+00	-7.388146e+01
1.970000e-06	5.760964e-07	-1.007550e-09	4.096574e+00	-7.126733e+01
1.980000e-06	6.215007e-07	-9.658711e-10	4.419440e+00	-6.859319e+01
1.990000e-06	6.668621e-07	-9.227751e-10	4.742001e+00	-6.586048e+01
2.000000e-06	7.122212e-07	-8.805616e-10	5.064546e+00	-6.307075e+01
2.010000e-06	7.575685e-07	-8.361337e-10	5.387007e+00	-6.022566e+01
2.020000e-06	8.028561e-07	-7.898353e-10	5.709044e+00	-5.732697e+01
2.030000e-06	8.480511e-07	-7.453648e-10	6.030422e+00	-5.437649e+01
2.040000e-06	8.931711e-07	-7.029874e-10	6.351266e+00	-5.137611e+01
2.050000e-06	9.383300e-07	-6.583888e-10	6.672387e+00	-4.832772e+01
2.060000e-06	9.834704e-07	-6.117784e-10	6.993377e+00	-4.523327e+01
2.070000e-06	1.028500e-06	-5.657381e-10	7.313578e+00	-4.209469e+01
2.080000e-06	1.073414e-06	-5.233564e-10	7.632961e+00	-3.891395e+01
2.090000e-06	1.118162e-06	-4.809344e-10	7.951155e+00	-3.569300e+01
2.100000e-06	1.162781e-06	-4.348530e-10	8.268438e+00	-3.243379e+01
2.110000e-06	1.207294e-06	-3.864558e-10	8.584972e+00	-2.913828e+01
2.120000e-06	1.251691e-06	-3.372376e-10	8.900669e+00	-2.580844e+01
2.130000e-06	1.296024e-06	-2.847670e-10	9.215919e+00	-2.244625e+01
2.140000e-06	1.340339e-06	-2.277356e-10	9.531043e+00	-1.905371e+01
2.150000e-06	1.384619e-06	-1.710930e-10	9.845911e+00	-1.563287e+01
2.160000e-06	1.428842e-06	-1.211164e-10	1.016038e+01	-1.218583e+01
2.170000e-06	1.473005e-06	-7.627070e-11	1.047442e+01	-8.714762e+00
2.180000e-06	1.517095e-06	-2.996893e-11	1.078794e+01	-5.221903e+00
2.190000e-06	1.561149e-06	2.074924e-11	1.110120e+01	-1.709602e+00
2.200000e-06	1.605184e-06	7.214906e-11	1.141433e+01	1.819682e+00
2.210000e-06	1.649201e-06	1.229483e-10	1.172733e+01	5.363366e+00
2.220000e-06	1.693103e-06	1.787789e-10	1.203952e+01	8.918729e+00
2.230000e-06	1.736870e-06	2.383321e-10	1.235074e+01	1.248290e+01
2.240000e-06	1.780564e-06	2.945750e-10	1.266144e+01	1.605286e+01
2.250000e-06	1.824166e-06	3.451720e-10	1.297150e+01	1.962543e+01
2.260000e-06	1.867623e-06	3.941304e-10	1.328052e+01	2.319728e+01
2.270000e-06	1.910881e-06	4.446303e-10	1.358812e+01	2.676492e+01
2.280000e-06	1.953934e-06	4.962120e-10	1.389427e+01	3.032472e+01
2.290000e-06	1.996805e-06	5.461627e-10	1.419912e+01	3.387292e+01
2.300000e-06	2.039468e-06	5.958251e-10	1.450249e+01	3.740564e+01
2.310000e-06	2.081840e-06	6.476645e-10	1.480379e+01	4.091893e+01
2.320000e-06	2.123922e-06	6.994155e-10	1.510303e+01	4.440874e+01
2.330000e-06	2.165779e-06	7.484070e-10	1.540068e+01	4.787099e+01
2.340000e-06	2.207483e-06	7.981845e-10	1.569723e+01	5.130160e+01
2.350000e-06	2.248926e-06	8.539191e-10	1.599193e+01	5.469648e+01
2.360000e-06	2.290038e-06	9.100372e-10	1.628427e+01	5.805164e+01
2.370000e-06	2.330914e-06	9.573164e-10	1.657494e+01	6.136314e+01
2.380000e-06	2.371553e-06	9.985804e-10	1.686392e+01	6.462720e+01
2.390000e-06	2.411983e-06	1.039463e-09	1.715141e+01	6.784017e+01
2.400000e-06	2.452264e-06	1.079991e-09	1.743784e+01	7.099864e+01
2.410000e-06	2.492443e-06	1.120187e-09	1.772356e+01	7.409939e+01
2.420000e-06	2.532554e-06	1.163908e-09	1.800879e+01	7.713951e+01
2.430000e-06	2.572563e-06	1.216446e-09	1.829329e+01	8.011633e+01
2.440000e-06	2.612442e-06	1.273515e-09	1.857686e+01	8.302753e+01
2.450000e-06	2.652194e-06	1.321230e-09	1.885953e+01	8.587112e+01
2.460000e-06	2.691865e-06	1.355780e-09	1.914163e+01	8.864545e+01
2.470000e-06	2.731351e-06	1.385579e-09	1.942241e+01	9.134924e+01
2.480000e-06	2.770668e-06	1.414521e-09	1.970199e+01	9.398159e+01
2.490000e-06	2.809776e-06	1.443322e-09	1.998009e+01	9.654193e+01
2.500000e-06	2.848602e-06	1.474881e-09	2.025617e+01	9.903009e+01
2.510000e-06	2.887278e-06	1.514106e-09	2.053120e+01	1.014462e+02
2.520000e-06	2.925785e-06	1.561121e-09	2.080502e+01	1.037908e+02
2.530000e-06	2.964064e-06	1.605975e-09	2.107721e+01	1.060647e+02
2.540000e-06	3.002103e-06	1.639068e-09	2.134771e+01	1.082690e+02
2.550000e-06	3.039944e-06	1.665298e-09	2.161679e+01	1.104051e+02
2.560000e-06	3.077631e-06	1.692208e-09	2.188478e+01	1.124745e+02
2.570000e-06	3.115099e-06	1.716695e-09	2.215122e+01	1.144790e+02
2.580000e-06	3.152285e-06	1.735629e-09	2.241564e+01	1.164205e+02
2.590000e-06	3.189221e-06	1.758300e-09	2.267829e+01	1.183012e+02
2.600000e-06	3.225955e-06	1.793793e-09	2.293950e+01	1.201231e+02
2.610000e-06	3.262481e-06	1.833735e-09	2.319923e+01	1.218885e+02
2.620000e-06	3.298774e-06	1.865170e-09	2.345731e+01	1.235995e+02
2.630000e-06	3.334930e-06	1.889421e-09	2.371441e+01	1.252583e+02
2.640000e-06	3.370982e-06	1.914636e-09	2.397078e+01	1.268670e+02
2.650000e-06	3.406933e-06	1.937616e-09	2.422642e+01	1.284275e+02
2.660000e-06	3.442795e-06	1.951653e-09	2.448143e+01	1.299419e+02
2.670000e-06	3.478497e-06	1.963560e-09	2.473530e+01	1.314118e+02
2.680000e-06	3.513980e-06	1.983972e-09	2.498762e+01	1.328388e+02
2.690000e-06	3.549069e-06	2.011327e-09	2.523714e+01	1.342245e+02
2.700000e-06	3.583655e-06	2.035415e-09	2.548308e+01	1.355700e+02
2.710000e-06	3.617693e-06	2.051922e-09	2.572512e+01	1.368765e+02
2.720000e-06	3.651385e-06	2.068022e-09	2.596470e+01	1.381449e+02
2.730000e-06	3.684761e-06	2.088765e-09	2.620203e+01	1.393759e+02
2.740000e-06	3.717690e-06	2.108231e-09	2.643619e+01	1.405701e+02
2.750000e-06	3.750307e-06	2.121715e-09	2.666813e+01	1.417281e+02
2.760000e-06	3.782698e-06	2.135660e-09	2.689845e+01	1.428502e+02
2.770000e-06	3.814896e-06	2.154138e-09	2.712741e+01	1.439366e+02
2.780000e-06	3.846911e-06	2.170485e-09	2.735507e+01	1.449874e+02
2.790000e-06	3.878778e-06	2.179883e-09	2.758167e+01	1.460029e+02
2.800000e-06	3.910421e-06	2.189297e-09	2.780668e+01	1.469831e+02
2.810000e-06	3.941772e-06	2.205857e-09	2.802961e+01	1.479280e+02
2.820000e-06	3.972872e-06	2.223834e-09	2.825077e+01	1.488378e+02
2.830000e-06	4.003677e-06	2.236200e-09	2.846981e+01	1.497127e+02
2.840000e-06	4.034159e-06	2.243912e-09	2.868657e+01	1.505528e+02
2.850000e-06	4.064356e-06	2.254501e-09	2.890130e+01	1.513585e+02
2.860000e-06	4.094302e-06	2.269192e-09	2.911425e+01	1.521301e+02
2.870000e-06	4.124031e-06	2.279346e-09	2.932565e+01	1.528683e+02
2.880000e-06	4.153501e-06	2.283965e-09	2.953521e+01	1.535736e+02
2.890000e-06	4.182649e-06	2.287690e-09	2.974247e+01	1.542468e+02
2.900000e-06	4.211486e-06	2.294420e-09	2.994753e+01	1.548888e+02
