# Temperatura_=_16.65
# Concentracion g/m^3_=_4090.0
# C_Vs_to_Am_M_A/Vsm_=_65563218390.804596
# pendiente_HvsI_1/m_=_3716.3
# ordenada_HvsI_A/m_=_1297.0
# frecuencia_Hz_=_135081.7667622547

Tiempo_(s)	Campo_(V.s)	Magnetizacion_(V.s)	Campo_(kA/m)	Magnetizacion_(A/m)
0.000000e+00	-5.423484e-06	-2.700891e-09	-3.838967e+01	-1.727861e+02
1.000000e-08	-5.423677e-06	-2.703384e-09	-3.839103e+01	-1.727475e+02
2.000000e-08	-5.423634e-06	-2.702655e-09	-3.839073e+01	-1.727090e+02
3.000000e-08	-5.423393e-06	-2.700666e-09	-3.838902e+01	-1.726725e+02
4.000000e-08	-5.422854e-06	-2.700930e-09	-3.838521e+01	-1.726401e+02
5.000000e-08	-5.421803e-06	-2.700631e-09	-3.837777e+01	-1.726137e+02
6.000000e-08	-5.420243e-06	-2.698499e-09	-3.836673e+01	-1.725955e+02
7.000000e-08	-5.418157e-06	-2.699750e-09	-3.835196e+01	-1.725874e+02
8.000000e-08	-5.415345e-06	-2.684408e-09	-3.833206e+01	-1.725913e+02
9.000000e-08	-5.411902e-06	-2.673131e-09	-3.830769e+01	-1.726090e+02
1.000000e-07	-5.407986e-06	-2.713135e-09	-3.827997e+01	-1.726422e+02
1.100000e-07	-5.403676e-06	-2.756430e-09	-3.824946e+01	-1.726922e+02
1.200000e-07	-5.399221e-06	-2.699145e-09	-3.821793e+01	-1.727602e+02
1.300000e-07	-5.394734e-06	-2.643383e-09	-3.818616e+01	-1.728471e+02
1.400000e-07	-5.389965e-06	-2.678801e-09	-3.815241e+01	-1.729535e+02
1.500000e-07	-5.384674e-06	-2.747670e-09	-3.811496e+01	-1.730795e+02
1.600000e-07	-5.378903e-06	-2.663445e-09	-3.807410e+01	-1.732252e+02
1.700000e-07	-5.372884e-06	-2.596853e-09	-3.803150e+01	-1.733901e+02
1.800000e-07	-5.366442e-06	-2.668621e-09	-3.798591e+01	-1.735734e+02
1.900000e-07	-5.359360e-06	-2.758004e-09	-3.793578e+01	-1.737739e+02
2.000000e-07	-5.352001e-06	-2.689366e-09	-3.788368e+01	-1.739902e+02
2.100000e-07	-5.344522e-06	-2.630622e-09	-3.783075e+01	-1.742205e+02
2.200000e-07	-5.336806e-06	-2.691537e-09	-3.777612e+01	-1.744627e+02
2.300000e-07	-5.328721e-06	-2.725708e-09	-3.771890e+01	-1.747144e+02
2.400000e-07	-5.320327e-06	-2.670314e-09	-3.765948e+01	-1.749732e+02
2.500000e-07	-5.311573e-06	-2.670590e-09	-3.759751e+01	-1.752363e+02
2.600000e-07	-5.302114e-06	-2.750649e-09	-3.753056e+01	-1.755007e+02
2.700000e-07	-5.291841e-06	-2.738387e-09	-3.745785e+01	-1.757636e+02
2.800000e-07	-5.280944e-06	-2.691336e-09	-3.738071e+01	-1.760218e+02
2.900000e-07	-5.269584e-06	-2.719237e-09	-3.730030e+01	-1.762725e+02
3.000000e-07	-5.257879e-06	-2.750358e-09	-3.721745e+01	-1.765125e+02
3.100000e-07	-5.245961e-06	-2.676009e-09	-3.713309e+01	-1.767391e+02
3.200000e-07	-5.233707e-06	-2.674790e-09	-3.704635e+01	-1.769495e+02
3.300000e-07	-5.220973e-06	-2.739781e-09	-3.695621e+01	-1.771413e+02
3.400000e-07	-5.207871e-06	-2.743936e-09	-3.686347e+01	-1.773121e+02
3.500000e-07	-5.194469e-06	-2.676723e-09	-3.676860e+01	-1.774600e+02
3.600000e-07	-5.180576e-06	-2.704831e-09	-3.667027e+01	-1.775832e+02
3.700000e-07	-5.166229e-06	-2.728479e-09	-3.656871e+01	-1.776803e+02
3.800000e-07	-5.151547e-06	-2.695935e-09	-3.646479e+01	-1.777503e+02
3.900000e-07	-5.136359e-06	-2.671154e-09	-3.635728e+01	-1.777924e+02
4.000000e-07	-5.120446e-06	-2.691641e-09	-3.624464e+01	-1.778064e+02
4.100000e-07	-5.103966e-06	-2.679922e-09	-3.612799e+01	-1.777921e+02
4.200000e-07	-5.087260e-06	-2.683627e-09	-3.600974e+01	-1.777500e+02
4.300000e-07	-5.070219e-06	-2.705136e-09	-3.588911e+01	-1.776806e+02
4.400000e-07	-5.052855e-06	-2.691756e-09	-3.576620e+01	-1.775851e+02
4.500000e-07	-5.035348e-06	-2.659689e-09	-3.564228e+01	-1.774646e+02
4.600000e-07	-5.017511e-06	-2.673119e-09	-3.551602e+01	-1.773207e+02
4.700000e-07	-4.999247e-06	-2.680095e-09	-3.538674e+01	-1.771550e+02
4.800000e-07	-4.980597e-06	-2.651230e-09	-3.525473e+01	-1.769696e+02
4.900000e-07	-4.961453e-06	-2.641841e-09	-3.511922e+01	-1.767664e+02
5.000000e-07	-4.941903e-06	-2.661326e-09	-3.498084e+01	-1.765477e+02
5.100000e-07	-4.922114e-06	-2.673665e-09	-3.484077e+01	-1.763157e+02
5.200000e-07	-4.902128e-06	-2.665917e-09	-3.469930e+01	-1.760725e+02
5.300000e-07	-4.881957e-06	-2.656915e-09	-3.455652e+01	-1.758204e+02
5.400000e-07	-4.861490e-06	-2.649934e-09	-3.441164e+01	-1.755616e+02
5.500000e-07	-4.840712e-06	-2.653105e-09	-3.426457e+01	-1.752981e+02
5.600000e-07	-4.819650e-06	-2.639935e-09	-3.411548e+01	-1.750318e+02
5.700000e-07	-4.798174e-06	-2.622888e-09	-3.396346e+01	-1.747646e+02
5.800000e-07	-4.776328e-06	-2.619923e-09	-3.380883e+01	-1.744980e+02
5.900000e-07	-4.754246e-06	-2.631634e-09	-3.365253e+01	-1.742333e+02
6.000000e-07	-4.731787e-06	-2.627343e-09	-3.349355e+01	-1.739718e+02
6.100000e-07	-4.708857e-06	-2.623551e-09	-3.333124e+01	-1.737145e+02
6.200000e-07	-4.685660e-06	-2.612956e-09	-3.316704e+01	-1.734619e+02
6.300000e-07	-4.662197e-06	-2.606657e-09	-3.300096e+01	-1.732145e+02
6.400000e-07	-4.638434e-06	-2.604437e-09	-3.283276e+01	-1.729727e+02
6.500000e-07	-4.614494e-06	-2.600783e-09	-3.266330e+01	-1.727364e+02
6.600000e-07	-4.590323e-06	-2.583408e-09	-3.249221e+01	-1.725054e+02
6.700000e-07	-4.565959e-06	-2.585808e-09	-3.231975e+01	-1.722794e+02
6.800000e-07	-4.541330e-06	-2.592909e-09	-3.214541e+01	-1.720577e+02
6.900000e-07	-4.516251e-06	-2.587790e-09	-3.196790e+01	-1.718398e+02
7.000000e-07	-4.490525e-06	-2.572244e-09	-3.178580e+01	-1.716247e+02
7.100000e-07	-4.464141e-06	-2.566371e-09	-3.159904e+01	-1.714115e+02
7.200000e-07	-4.437284e-06	-2.559640e-09	-3.140893e+01	-1.711993e+02
7.300000e-07	-4.410054e-06	-2.554092e-09	-3.121619e+01	-1.709869e+02
7.400000e-07	-4.382560e-06	-2.547509e-09	-3.102158e+01	-1.707733e+02
7.500000e-07	-4.354837e-06	-2.543771e-09	-3.082534e+01	-1.705573e+02
7.600000e-07	-4.326915e-06	-2.543605e-09	-3.062770e+01	-1.703380e+02
7.700000e-07	-4.298811e-06	-2.543678e-09	-3.042877e+01	-1.701143e+02
7.800000e-07	-4.270498e-06	-2.535001e-09	-3.022835e+01	-1.698852e+02
7.900000e-07	-4.241899e-06	-2.525191e-09	-3.002592e+01	-1.696499e+02
8.000000e-07	-4.212967e-06	-2.521091e-09	-2.982113e+01	-1.694076e+02
8.100000e-07	-4.183664e-06	-2.515308e-09	-2.961371e+01	-1.691575e+02
8.200000e-07	-4.153963e-06	-2.508825e-09	-2.940347e+01	-1.688992e+02
8.300000e-07	-4.123976e-06	-2.504007e-09	-2.919121e+01	-1.686321e+02
8.400000e-07	-4.093831e-06	-2.504462e-09	-2.897783e+01	-1.683559e+02
8.500000e-07	-4.063446e-06	-2.503614e-09	-2.876276e+01	-1.680703e+02
8.600000e-07	-4.032728e-06	-2.497249e-09	-2.854532e+01	-1.677752e+02
8.700000e-07	-4.001739e-06	-2.483266e-09	-2.832597e+01	-1.674706e+02
8.800000e-07	-3.970544e-06	-2.474276e-09	-2.810516e+01	-1.671566e+02
8.900000e-07	-3.939132e-06	-2.468828e-09	-2.788281e+01	-1.668332e+02
9.000000e-07	-3.907520e-06	-2.465231e-09	-2.765904e+01	-1.665008e+02
9.100000e-07	-3.875744e-06	-2.458654e-09	-2.743413e+01	-1.661595e+02
9.200000e-07	-3.843797e-06	-2.455862e-09	-2.720799e+01	-1.658098e+02
9.300000e-07	-3.811613e-06	-2.452345e-09	-2.698017e+01	-1.654520e+02
9.400000e-07	-3.779144e-06	-2.449771e-09	-2.675035e+01	-1.650866e+02
9.500000e-07	-3.746315e-06	-2.441755e-09	-2.651797e+01	-1.647140e+02
9.600000e-07	-3.712998e-06	-2.434195e-09	-2.628214e+01	-1.643346e+02
9.700000e-07	-3.679270e-06	-2.429911e-09	-2.604340e+01	-1.639488e+02
9.800000e-07	-3.645206e-06	-2.429782e-09	-2.580228e+01	-1.635571e+02
9.900000e-07	-3.610764e-06	-2.424209e-09	-2.555848e+01	-1.631599e+02
1.000000e-06	-3.575997e-06	-2.417130e-09	-2.531239e+01	-1.627576e+02
1.010000e-06	-3.540833e-06	-2.412116e-09	-2.506348e+01	-1.623506e+02
1.020000e-06	-3.505305e-06	-2.409449e-09	-2.481200e+01	-1.619391e+02
1.030000e-06	-3.469579e-06	-2.402818e-09	-2.455912e+01	-1.615235e+02
1.040000e-06	-3.433743e-06	-2.393819e-09	-2.430545e+01	-1.611041e+02
1.050000e-06	-3.397817e-06	-2.385198e-09	-2.405116e+01	-1.606811e+02
1.060000e-06	-3.361763e-06	-2.378093e-09	-2.379595e+01	-1.602546e+02
1.070000e-06	-3.325566e-06	-2.368700e-09	-2.353974e+01	-1.598249e+02
1.080000e-06	-3.289182e-06	-2.356522e-09	-2.328220e+01	-1.593922e+02
1.090000e-06	-3.252447e-06	-2.345185e-09	-2.302217e+01	-1.589564e+02
1.100000e-06	-3.215421e-06	-2.339165e-09	-2.276008e+01	-1.585177e+02
1.110000e-06	-3.178158e-06	-2.336420e-09	-2.249632e+01	-1.580761e+02
1.120000e-06	-3.140650e-06	-2.333108e-09	-2.223083e+01	-1.576317e+02
1.130000e-06	-3.102971e-06	-2.330799e-09	-2.196411e+01	-1.571844e+02
1.140000e-06	-3.065053e-06	-2.327834e-09	-2.169572e+01	-1.567342e+02
1.150000e-06	-3.026942e-06	-2.321680e-09	-2.142595e+01	-1.562811e+02
1.160000e-06	-2.988657e-06	-2.309922e-09	-2.115496e+01	-1.558250e+02
1.170000e-06	-2.950153e-06	-2.294959e-09	-2.088240e+01	-1.553657e+02
1.180000e-06	-2.911476e-06	-2.281507e-09	-2.060863e+01	-1.549031e+02
1.190000e-06	-2.872617e-06	-2.274575e-09	-2.033357e+01	-1.544369e+02
1.200000e-06	-2.833377e-06	-2.270620e-09	-2.005582e+01	-1.539670e+02
1.210000e-06	-2.793895e-06	-2.265584e-09	-1.977635e+01	-1.534930e+02
1.220000e-06	-2.754347e-06	-2.257229e-09	-1.949641e+01	-1.530145e+02
1.230000e-06	-2.714664e-06	-2.251848e-09	-1.921552e+01	-1.525313e+02
1.240000e-06	-2.674877e-06	-2.244067e-09	-1.893389e+01	-1.520427e+02
1.250000e-06	-2.634940e-06	-2.231874e-09	-1.865119e+01	-1.515483e+02
1.260000e-06	-2.594927e-06	-2.217218e-09	-1.836797e+01	-1.510475e+02
1.270000e-06	-2.554881e-06	-2.205106e-09	-1.808451e+01	-1.505397e+02
1.280000e-06	-2.514670e-06	-2.195720e-09	-1.779988e+01	-1.500241e+02
1.290000e-06	-2.474345e-06	-2.187370e-09	-1.751444e+01	-1.494999e+02
1.300000e-06	-2.433847e-06	-2.177499e-09	-1.722778e+01	-1.489664e+02
1.310000e-06	-2.393189e-06	-2.169814e-09	-1.693998e+01	-1.484226e+02
1.320000e-06	-2.352351e-06	-2.164641e-09	-1.665092e+01	-1.478676e+02
1.330000e-06	-2.311196e-06	-2.157073e-09	-1.635960e+01	-1.473004e+02
1.340000e-06	-2.269751e-06	-2.144478e-09	-1.606624e+01	-1.467201e+02
1.350000e-06	-2.228050e-06	-2.131877e-09	-1.577106e+01	-1.461256e+02
1.360000e-06	-2.185996e-06	-2.120339e-09	-1.547339e+01	-1.455159e+02
1.370000e-06	-2.143563e-06	-2.109822e-09	-1.517303e+01	-1.448900e+02
1.380000e-06	-2.100852e-06	-2.098521e-09	-1.487070e+01	-1.442469e+02
1.390000e-06	-2.057854e-06	-2.085084e-09	-1.456635e+01	-1.435856e+02
1.400000e-06	-2.014597e-06	-2.073643e-09	-1.426015e+01	-1.429052e+02
1.410000e-06	-1.971211e-06	-2.064156e-09	-1.395305e+01	-1.422048e+02
1.420000e-06	-1.927767e-06	-2.053978e-09	-1.364554e+01	-1.414837e+02
1.430000e-06	-1.884219e-06	-2.040754e-09	-1.333728e+01	-1.407411e+02
1.440000e-06	-1.840598e-06	-2.026033e-09	-1.302852e+01	-1.399764e+02
1.450000e-06	-1.796879e-06	-2.011279e-09	-1.271905e+01	-1.391891e+02
1.460000e-06	-1.753029e-06	-1.995961e-09	-1.240867e+01	-1.383786e+02
1.470000e-06	-1.709096e-06	-1.976606e-09	-1.209769e+01	-1.375447e+02
1.480000e-06	-1.665138e-06	-1.956098e-09	-1.178654e+01	-1.366871e+02
1.490000e-06	-1.621155e-06	-1.940194e-09	-1.147521e+01	-1.358056e+02
1.500000e-06	-1.577105e-06	-1.928094e-09	-1.116340e+01	-1.349001e+02
1.510000e-06	-1.532915e-06	-1.913915e-09	-1.085061e+01	-1.339707e+02
1.520000e-06	-1.488596e-06	-1.897891e-09	-1.053690e+01	-1.330174e+02
1.530000e-06	-1.444252e-06	-1.883176e-09	-1.022302e+01	-1.320403e+02
1.540000e-06	-1.399852e-06	-1.870570e-09	-9.908736e+00	-1.310396e+02
1.550000e-06	-1.355376e-06	-1.856436e-09	-9.593916e+00	-1.300154e+02
1.560000e-06	-1.310772e-06	-1.839254e-09	-9.278188e+00	-1.289678e+02
1.570000e-06	-1.265964e-06	-1.822526e-09	-8.961016e+00	-1.278970e+02
1.580000e-06	-1.221093e-06	-1.807889e-09	-8.643404e+00	-1.268030e+02
1.590000e-06	-1.176198e-06	-1.792192e-09	-8.325615e+00	-1.256858e+02
1.600000e-06	-1.131162e-06	-1.773233e-09	-8.006836e+00	-1.245453e+02
1.610000e-06	-1.086060e-06	-1.753689e-09	-7.687584e+00	-1.233813e+02
1.620000e-06	-1.040934e-06	-1.736856e-09	-7.368162e+00	-1.221933e+02
1.630000e-06	-9.956797e-07	-1.721621e-09	-7.047834e+00	-1.209808e+02
1.640000e-06	-9.502918e-07	-1.704153e-09	-6.726560e+00	-1.197431e+02
1.650000e-06	-9.048502e-07	-1.684457e-09	-6.404905e+00	-1.184794e+02
1.660000e-06	-8.593886e-07	-1.665874e-09	-6.083109e+00	-1.171884e+02
1.670000e-06	-8.138358e-07	-1.647114e-09	-5.760668e+00	-1.158690e+02
1.680000e-06	-7.681789e-07	-1.625705e-09	-5.437489e+00	-1.145197e+02
1.690000e-06	-7.225486e-07	-1.600231e-09	-5.114499e+00	-1.131386e+02
1.700000e-06	-6.769463e-07	-1.575194e-09	-4.791707e+00	-1.117241e+02
1.710000e-06	-6.312320e-07	-1.555701e-09	-4.468122e+00	-1.102739e+02
1.720000e-06	-5.853773e-07	-1.539692e-09	-4.143543e+00	-1.087860e+02
1.730000e-06	-5.394840e-07	-1.520847e-09	-3.818691e+00	-1.072580e+02
1.740000e-06	-4.936305e-07	-1.499285e-09	-3.494122e+00	-1.056873e+02
1.750000e-06	-4.477416e-07	-1.476463e-09	-3.169301e+00	-1.040716e+02
1.760000e-06	-4.017785e-07	-1.449460e-09	-2.843955e+00	-1.024081e+02
1.770000e-06	-3.557642e-07	-1.419705e-09	-2.518246e+00	-1.006943e+02
1.780000e-06	-3.097438e-07	-1.389741e-09	-2.192495e+00	-9.892769e+01
1.790000e-06	-2.637834e-07	-1.362726e-09	-1.867169e+00	-9.710565e+01
1.800000e-06	-2.178390e-07	-1.338412e-09	-1.541955e+00	-9.522579e+01
1.810000e-06	-1.718966e-07	-1.313598e-09	-1.216755e+00	-9.328582e+01
1.820000e-06	-1.259511e-07	-1.287504e-09	-8.915341e-01	-9.128364e+01
1.830000e-06	-7.992859e-08	-1.259807e-09	-5.657677e-01	-8.921735e+01
1.840000e-06	-3.387700e-08	-1.230024e-09	-2.397954e-01	-8.708527e+01
1.850000e-06	1.209019e-08	-1.195876e-09	8.557939e-02	-8.488603e+01
1.860000e-06	5.805731e-08	-1.158539e-09	4.109537e-01	-8.261853e+01
1.870000e-06	1.040772e-07	-1.121356e-09	7.367017e-01	-8.028200e+01
1.880000e-06	1.500885e-07	-1.082268e-09	1.062388e+00	-7.787602e+01
1.890000e-06	1.960795e-07	-1.039871e-09	1.387932e+00	-7.540049e+01
1.900000e-06	2.419790e-07	-9.985888e-10	1.712828e+00	-7.285569e+01
1.910000e-06	2.878286e-07	-9.637073e-10	2.037370e+00	-7.024227e+01
1.920000e-06	3.337692e-07	-9.279879e-10	2.362557e+00	-6.756121e+01
1.930000e-06	3.796952e-07	-8.896001e-10	2.687640e+00	-6.481388e+01
1.940000e-06	4.254896e-07	-8.495486e-10	3.011792e+00	-6.200193e+01
1.950000e-06	4.712591e-07	-8.080905e-10	3.335768e+00	-5.912739e+01
1.960000e-06	5.171200e-07	-7.648430e-10	3.660390e+00	-5.619254e+01
1.970000e-06	5.630035e-07	-7.168836e-10	3.985172e+00	-5.319994e+01
1.980000e-06	6.087956e-07	-6.629681e-10	4.309308e+00	-5.015240e+01
1.990000e-06	6.545133e-07	-6.121923e-10	4.632917e+00	-4.705294e+01
2.000000e-06	7.001610e-07	-5.695961e-10	4.956030e+00	-4.390473e+01
2.010000e-06	7.457478e-07	-5.289929e-10	5.278712e+00	-4.071111e+01
2.020000e-06	7.912824e-07	-4.837779e-10	5.601025e+00	-3.747550e+01
2.030000e-06	8.367467e-07	-4.353727e-10	5.922841e+00	-3.420140e+01
2.040000e-06	8.822017e-07	-3.853931e-10	6.244589e+00	-3.089233e+01
2.050000e-06	9.276422e-07	-3.313162e-10	6.566237e+00	-2.755184e+01
2.060000e-06	9.729516e-07	-2.748032e-10	6.886955e+00	-2.418342e+01
2.070000e-06	1.018096e-06	-2.212154e-10	7.206509e+00	-2.079052e+01
2.080000e-06	1.063152e-06	-1.759749e-10	7.525431e+00	-1.737651e+01
2.090000e-06	1.108177e-06	-1.344470e-10	7.844137e+00	-1.394466e+01
2.100000e-06	1.153152e-06	-8.848785e-11	8.162485e+00	-1.049813e+01
2.110000e-06	1.198054e-06	-3.684876e-11	8.480323e+00	-7.039942e+00
2.120000e-06	1.242855e-06	1.661050e-11	8.797441e+00	-3.572999e+00
2.130000e-06	1.287511e-06	7.198823e-11	9.113537e+00	-1.000615e-01
2.140000e-06	1.332019e-06	1.299195e-10	9.428580e+00	3.376241e+00
2.150000e-06	1.376441e-06	1.886554e-10	9.743020e+00	6.853409e+00
2.160000e-06	1.420843e-06	2.408607e-10	1.005732e+01	1.032906e+01
2.170000e-06	1.465142e-06	2.854783e-10	1.037088e+01	1.380092e+01
2.180000e-06	1.509371e-06	3.311649e-10	1.068395e+01	1.726680e+01
2.190000e-06	1.553508e-06	3.820268e-10	1.099637e+01	2.072460e+01
2.200000e-06	1.597511e-06	4.344158e-10	1.130784e+01	2.417226e+01
2.210000e-06	1.641513e-06	4.870810e-10	1.161931e+01	2.760777e+01
2.220000e-06	1.685494e-06	5.417416e-10	1.193062e+01	3.102913e+01
2.230000e-06	1.729403e-06	5.977896e-10	1.224143e+01	3.443435e+01
2.240000e-06	1.773270e-06	6.487453e-10	1.255194e+01	3.782140e+01
2.250000e-06	1.817112e-06	6.954819e-10	1.286227e+01	4.118825e+01
2.260000e-06	1.860902e-06	7.380066e-10	1.317224e+01	4.453278e+01
2.270000e-06	1.904555e-06	7.800446e-10	1.348123e+01	4.785287e+01
2.280000e-06	1.948014e-06	8.268042e-10	1.378885e+01	5.114628e+01
2.290000e-06	1.991292e-06	8.765284e-10	1.409519e+01	5.441074e+01
2.300000e-06	2.034403e-06	9.261619e-10	1.440035e+01	5.764390e+01
2.310000e-06	2.077387e-06	9.763643e-10	1.470461e+01	6.084335e+01
2.320000e-06	2.120177e-06	1.024622e-09	1.500749e+01	6.400662e+01
2.330000e-06	2.162568e-06	1.066998e-09	1.530756e+01	6.713122e+01
2.340000e-06	2.204592e-06	1.105842e-09	1.560502e+01	7.021461e+01
2.350000e-06	2.246454e-06	1.144781e-09	1.590134e+01	7.325427e+01
2.360000e-06	2.288153e-06	1.186970e-09	1.619650e+01	7.624766e+01
2.370000e-06	2.329513e-06	1.229652e-09	1.648926e+01	7.919230e+01
2.380000e-06	2.370546e-06	1.271717e-09	1.677971e+01	8.208580e+01
2.390000e-06	2.411370e-06	1.315594e-09	1.706868e+01	8.492581e+01
2.400000e-06	2.451912e-06	1.358183e-09	1.735565e+01	8.771015e+01
2.410000e-06	2.492243e-06	1.394826e-09	1.764113e+01	9.043676e+01
2.420000e-06	2.532425e-06	1.428647e-09	1.792556e+01	9.310376e+01
2.430000e-06	2.572423e-06	1.463575e-09	1.820868e+01	9.570948e+01
2.440000e-06	2.612365e-06	1.502543e-09	1.849140e+01	9.825245e+01
2.450000e-06	2.652278e-06	1.541648e-09	1.877393e+01	1.007315e+02
2.460000e-06	2.692135e-06	1.576511e-09	1.905605e+01	1.031456e+02
2.470000e-06	2.731904e-06	1.609266e-09	1.933755e+01	1.054941e+02
2.480000e-06	2.771537e-06	1.640749e-09	1.961809e+01	1.077765e+02
2.490000e-06	2.810977e-06	1.669375e-09	1.989726e+01	1.099929e+02
2.500000e-06	2.850114e-06	1.696139e-09	2.017429e+01	1.121433e+02
2.510000e-06	2.888946e-06	1.725711e-09	2.044916e+01	1.142282e+02
2.520000e-06	2.927547e-06	1.760326e-09	2.072240e+01	1.162483e+02
2.530000e-06	2.966024e-06	1.793024e-09	2.099475e+01	1.182045e+02
2.540000e-06	3.004359e-06	1.817724e-09	2.126610e+01	1.200980e+02
2.550000e-06	3.042481e-06	1.838896e-09	2.153594e+01	1.219303e+02
2.560000e-06	3.080402e-06	1.863824e-09	2.180436e+01	1.237030e+02
2.570000e-06	3.118130e-06	1.889373e-09	2.207142e+01	1.254177e+02
2.580000e-06	3.155683e-06	1.911563e-09	2.233724e+01	1.270764e+02
2.590000e-06	3.193002e-06	1.934395e-09	2.260139e+01	1.286811e+02
2.600000e-06	3.230075e-06	1.961151e-09	2.286381e+01	1.302338e+02
2.610000e-06	3.266898e-06	1.987923e-09	2.312446e+01	1.317366e+02
2.620000e-06	3.303464e-06	2.009253e-09	2.338329e+01	1.331915e+02
2.630000e-06	3.339815e-06	2.028946e-09	2.364060e+01	1.346005e+02
2.640000e-06	3.375959e-06	2.050422e-09	2.389644e+01	1.359658e+02
2.650000e-06	3.411965e-06	2.070791e-09	2.415131e+01	1.372890e+02
2.660000e-06	3.447898e-06	2.086876e-09	2.440565e+01	1.385721e+02
2.670000e-06	3.483663e-06	2.102778e-09	2.465881e+01	1.398167e+02
2.680000e-06	3.519287e-06	2.123456e-09	2.491097e+01	1.410242e+02
2.690000e-06	3.554773e-06	2.144172e-09	2.516216e+01	1.421960e+02
2.700000e-06	3.589870e-06	2.159524e-09	2.541059e+01	1.433333e+02
2.710000e-06	3.624541e-06	2.171614e-09	2.565600e+01	1.444371e+02
2.720000e-06	3.658745e-06	2.187122e-09	2.589811e+01	1.455082e+02
2.730000e-06	3.692444e-06	2.205480e-09	2.613665e+01	1.465474e+02
2.740000e-06	3.725742e-06	2.220045e-09	2.637235e+01	1.475553e+02
2.750000e-06	3.758603e-06	2.231244e-09	2.660495e+01	1.485322e+02
2.760000e-06	3.791163e-06	2.245218e-09	2.683543e+01	1.494785e+02
2.770000e-06	3.823488e-06	2.263807e-09	2.706423e+01	1.503943e+02
2.780000e-06	3.855549e-06	2.280529e-09	2.729117e+01	1.512800e+02
2.790000e-06	3.887460e-06	2.290684e-09	2.751706e+01	1.521355e+02
2.800000e-06	3.919280e-06	2.300345e-09	2.774229e+01	1.529610e+02
2.810000e-06	3.950935e-06	2.315183e-09	2.796636e+01	1.537566e+02
2.820000e-06	3.982346e-06	2.329279e-09	2.818870e+01	1.545225e+02
2.830000e-06	4.013459e-06	2.335856e-09	2.840893e+01	1.552587e+02
2.840000e-06	4.044251e-06	2.340257e-09	2.862688e+01	1.559656e+02
2.850000e-06	4.074788e-06	2.350104e-09	2.884304e+01	1.566436e+02
2.860000e-06	4.105022e-06	2.362556e-09	2.905705e+01	1.572930e+02
2.870000e-06	4.134958e-06	2.373396e-09	2.926894e+01	1.579144e+02
2.880000e-06	4.164674e-06	2.383040e-09	2.947929e+01	1.585086e+02
2.890000e-06	4.194098e-06	2.392030e-09	2.968757e+01	1.590764e+02
2.900000e-06	4.223287e-06	2.397868e-09	2.989418e+01	1.596187e+02
