# Temperatura_=_-1.2
# Concentracion g/m^3_=_4090.0
# C_Vs_to_Am_M_A/Vsm_=_65563218390.804596
# pendiente_HvsI_1/m_=_3716.3
# ordenada_HvsI_A/m_=_1297.0
# frecuencia_Hz_=_135077.0608300526

Tiempo_(s)	Campo_(V.s)	Magnetizacion_(V.s)	Campo_(kA/m)	Magnetizacion_(A/m)
0.000000e+00	-5.391040e-06	-2.636268e-09	-3.839457e+01	-1.699038e+02
1.000000e-08	-5.391171e-06	-2.638302e-09	-3.839550e+01	-1.698800e+02
2.000000e-08	-5.391102e-06	-2.636053e-09	-3.839501e+01	-1.698581e+02
3.000000e-08	-5.390747e-06	-2.630692e-09	-3.839248e+01	-1.698399e+02
4.000000e-08	-5.390056e-06	-2.624068e-09	-3.838756e+01	-1.698276e+02
5.000000e-08	-5.388815e-06	-2.619801e-09	-3.837872e+01	-1.698229e+02
6.000000e-08	-5.387017e-06	-2.630659e-09	-3.836592e+01	-1.698277e+02
7.000000e-08	-5.384642e-06	-2.650543e-09	-3.834900e+01	-1.698439e+02
8.000000e-08	-5.381604e-06	-2.627868e-09	-3.832737e+01	-1.698732e+02
9.000000e-08	-5.377941e-06	-2.559740e-09	-3.830128e+01	-1.699170e+02
1.000000e-07	-5.373815e-06	-2.576419e-09	-3.827189e+01	-1.699767e+02
1.100000e-07	-5.369490e-06	-2.664963e-09	-3.824109e+01	-1.700533e+02
1.200000e-07	-5.364999e-06	-2.677480e-09	-3.820911e+01	-1.701477e+02
1.300000e-07	-5.360203e-06	-2.530899e-09	-3.817495e+01	-1.702604e+02
1.400000e-07	-5.355103e-06	-2.525513e-09	-3.813863e+01	-1.703916e+02
1.500000e-07	-5.349646e-06	-2.669185e-09	-3.809976e+01	-1.705413e+02
1.600000e-07	-5.343775e-06	-2.711203e-09	-3.805795e+01	-1.707092e+02
1.700000e-07	-5.337498e-06	-2.555586e-09	-3.801324e+01	-1.708944e+02
1.800000e-07	-5.330883e-06	-2.516042e-09	-3.796613e+01	-1.710961e+02
1.900000e-07	-5.323895e-06	-2.672495e-09	-3.791637e+01	-1.713128e+02
2.000000e-07	-5.316571e-06	-2.695761e-09	-3.786421e+01	-1.715432e+02
2.100000e-07	-5.309004e-06	-2.599806e-09	-3.781031e+01	-1.717852e+02
2.200000e-07	-5.301169e-06	-2.599876e-09	-3.775452e+01	-1.720370e+02
2.300000e-07	-5.293147e-06	-2.708287e-09	-3.769738e+01	-1.722962e+02
2.400000e-07	-5.284759e-06	-2.662490e-09	-3.763764e+01	-1.725605e+02
2.500000e-07	-5.275761e-06	-2.613934e-09	-3.757356e+01	-1.728273e+02
2.600000e-07	-5.266145e-06	-2.680204e-09	-3.750507e+01	-1.730941e+02
2.700000e-07	-5.255959e-06	-2.736654e-09	-3.743253e+01	-1.733584e+02
2.800000e-07	-5.245141e-06	-2.646994e-09	-3.735549e+01	-1.736174e+02
2.900000e-07	-5.233783e-06	-2.645823e-09	-3.727459e+01	-1.738686e+02
3.000000e-07	-5.222069e-06	-2.738329e-09	-3.719117e+01	-1.741096e+02
3.100000e-07	-5.210028e-06	-2.723592e-09	-3.710541e+01	-1.743381e+02
3.200000e-07	-5.197588e-06	-2.624038e-09	-3.701682e+01	-1.745519e+02
3.300000e-07	-5.184809e-06	-2.657695e-09	-3.692581e+01	-1.747489e+02
3.400000e-07	-5.171653e-06	-2.726633e-09	-3.683211e+01	-1.749275e+02
3.500000e-07	-5.158080e-06	-2.698322e-09	-3.673544e+01	-1.750862e+02
3.600000e-07	-5.144158e-06	-2.669432e-09	-3.663629e+01	-1.752236e+02
3.700000e-07	-5.129778e-06	-2.707538e-09	-3.653388e+01	-1.753388e+02
3.800000e-07	-5.114662e-06	-2.702776e-09	-3.642623e+01	-1.754312e+02
3.900000e-07	-5.099003e-06	-2.679494e-09	-3.631470e+01	-1.755002e+02
4.000000e-07	-5.083035e-06	-2.693609e-09	-3.620098e+01	-1.755458e+02
4.100000e-07	-5.066606e-06	-2.674820e-09	-3.608397e+01	-1.755681e+02
4.200000e-07	-5.049782e-06	-2.642580e-09	-3.596415e+01	-1.755675e+02
4.300000e-07	-5.032729e-06	-2.675931e-09	-3.584270e+01	-1.755445e+02
4.400000e-07	-5.015415e-06	-2.715087e-09	-3.571939e+01	-1.755002e+02
4.500000e-07	-4.997754e-06	-2.666980e-09	-3.559361e+01	-1.754354e+02
4.600000e-07	-4.979719e-06	-2.648255e-09	-3.546517e+01	-1.753514e+02
4.700000e-07	-4.961278e-06	-2.681454e-09	-3.533383e+01	-1.752496e+02
4.800000e-07	-4.942410e-06	-2.691228e-09	-3.519946e+01	-1.751315e+02
4.900000e-07	-4.923156e-06	-2.648699e-09	-3.506233e+01	-1.749986e+02
5.000000e-07	-4.903629e-06	-2.647067e-09	-3.492326e+01	-1.748525e+02
5.100000e-07	-4.883838e-06	-2.660830e-09	-3.478231e+01	-1.746948e+02
5.200000e-07	-4.863860e-06	-2.676746e-09	-3.464003e+01	-1.745272e+02
5.300000e-07	-4.843644e-06	-2.669819e-09	-3.449606e+01	-1.743513e+02
5.400000e-07	-4.823153e-06	-2.654786e-09	-3.435012e+01	-1.741686e+02
5.500000e-07	-4.802349e-06	-2.636561e-09	-3.420195e+01	-1.739806e+02
5.600000e-07	-4.781230e-06	-2.656692e-09	-3.405155e+01	-1.737887e+02
5.700000e-07	-4.759750e-06	-2.659768e-09	-3.389857e+01	-1.735940e+02
5.800000e-07	-4.737861e-06	-2.638141e-09	-3.374268e+01	-1.733978e+02
5.900000e-07	-4.715689e-06	-2.626550e-09	-3.358477e+01	-1.732011e+02
6.000000e-07	-4.693199e-06	-2.652325e-09	-3.342460e+01	-1.730046e+02
6.100000e-07	-4.670393e-06	-2.656936e-09	-3.326218e+01	-1.728092e+02
6.200000e-07	-4.647250e-06	-2.634850e-09	-3.309735e+01	-1.726154e+02
6.300000e-07	-4.623739e-06	-2.610848e-09	-3.292991e+01	-1.724236e+02
6.400000e-07	-4.599992e-06	-2.612641e-09	-3.276079e+01	-1.722341e+02
6.500000e-07	-4.576074e-06	-2.624078e-09	-3.259044e+01	-1.720471e+02
6.600000e-07	-4.551949e-06	-2.620726e-09	-3.241862e+01	-1.718626e+02
6.700000e-07	-4.527546e-06	-2.603591e-09	-3.224483e+01	-1.716806e+02
6.800000e-07	-4.502740e-06	-2.602473e-09	-3.206816e+01	-1.715009e+02
6.900000e-07	-4.477504e-06	-2.616643e-09	-3.188844e+01	-1.713232e+02
7.000000e-07	-4.451869e-06	-2.611917e-09	-3.170586e+01	-1.711473e+02
7.100000e-07	-4.425665e-06	-2.591445e-09	-3.151924e+01	-1.709728e+02
7.200000e-07	-4.398858e-06	-2.581358e-09	-3.132833e+01	-1.707993e+02
7.300000e-07	-4.371643e-06	-2.592789e-09	-3.113450e+01	-1.706263e+02
7.400000e-07	-4.344130e-06	-2.594011e-09	-3.093856e+01	-1.704532e+02
7.500000e-07	-4.316406e-06	-2.581612e-09	-3.074111e+01	-1.702798e+02
7.600000e-07	-4.288463e-06	-2.567788e-09	-3.054210e+01	-1.701053e+02
7.700000e-07	-4.260332e-06	-2.577265e-09	-3.034175e+01	-1.699294e+02
7.800000e-07	-4.232017e-06	-2.582447e-09	-3.014010e+01	-1.697515e+02
7.900000e-07	-4.203413e-06	-2.575318e-09	-2.993638e+01	-1.695713e+02
8.000000e-07	-4.174526e-06	-2.559613e-09	-2.973065e+01	-1.693881e+02
8.100000e-07	-4.145297e-06	-2.559937e-09	-2.952248e+01	-1.692017e+02
8.200000e-07	-4.115716e-06	-2.563871e-09	-2.931181e+01	-1.690116e+02
8.300000e-07	-4.085814e-06	-2.561000e-09	-2.909885e+01	-1.688173e+02
8.400000e-07	-4.055623e-06	-2.546847e-09	-2.888383e+01	-1.686186e+02
8.500000e-07	-4.025223e-06	-2.543026e-09	-2.866733e+01	-1.684152e+02
8.600000e-07	-3.994593e-06	-2.544929e-09	-2.844918e+01	-1.682066e+02
8.700000e-07	-3.963792e-06	-2.545189e-09	-2.822982e+01	-1.679927e+02
8.800000e-07	-3.932697e-06	-2.531817e-09	-2.800836e+01	-1.677731e+02
8.900000e-07	-3.901218e-06	-2.523207e-09	-2.778417e+01	-1.675476e+02
9.000000e-07	-3.869492e-06	-2.524966e-09	-2.755822e+01	-1.673161e+02
9.100000e-07	-3.837600e-06	-2.528385e-09	-2.733109e+01	-1.670782e+02
9.200000e-07	-3.805601e-06	-2.518976e-09	-2.710320e+01	-1.668339e+02
9.300000e-07	-3.773436e-06	-2.508024e-09	-2.687412e+01	-1.665829e+02
9.400000e-07	-3.741074e-06	-2.504712e-09	-2.664364e+01	-1.663252e+02
9.500000e-07	-3.708371e-06	-2.505937e-09	-2.641073e+01	-1.660607e+02
9.600000e-07	-3.675275e-06	-2.500904e-09	-2.617502e+01	-1.657893e+02
9.700000e-07	-3.641860e-06	-2.493463e-09	-2.593704e+01	-1.655110e+02
9.800000e-07	-3.608014e-06	-2.492450e-09	-2.569599e+01	-1.652258e+02
9.900000e-07	-3.573793e-06	-2.494204e-09	-2.545227e+01	-1.649338e+02
1.000000e-06	-3.539150e-06	-2.492842e-09	-2.520555e+01	-1.646350e+02
1.010000e-06	-3.504098e-06	-2.487828e-09	-2.495591e+01	-1.643296e+02
1.020000e-06	-3.468855e-06	-2.484208e-09	-2.470491e+01	-1.640177e+02
1.030000e-06	-3.433392e-06	-2.478821e-09	-2.445235e+01	-1.636997e+02
1.040000e-06	-3.397689e-06	-2.473153e-09	-2.419808e+01	-1.633757e+02
1.050000e-06	-3.361801e-06	-2.462180e-09	-2.394248e+01	-1.630460e+02
1.060000e-06	-3.325728e-06	-2.452989e-09	-2.368558e+01	-1.627111e+02
1.070000e-06	-3.289501e-06	-2.446879e-09	-2.342757e+01	-1.623713e+02
1.080000e-06	-3.253115e-06	-2.444710e-09	-2.316843e+01	-1.620270e+02
1.090000e-06	-3.216467e-06	-2.437953e-09	-2.290743e+01	-1.616787e+02
1.100000e-06	-3.179548e-06	-2.431808e-09	-2.264449e+01	-1.613268e+02
1.110000e-06	-3.142439e-06	-2.426020e-09	-2.238020e+01	-1.609718e+02
1.120000e-06	-3.105084e-06	-2.421840e-09	-2.211416e+01	-1.606141e+02
1.130000e-06	-3.067436e-06	-2.417064e-09	-2.184604e+01	-1.602542e+02
1.140000e-06	-3.029660e-06	-2.410963e-09	-2.157700e+01	-1.598926e+02
1.150000e-06	-2.991740e-06	-2.401740e-09	-2.130694e+01	-1.595295e+02
1.160000e-06	-2.953657e-06	-2.394734e-09	-2.103572e+01	-1.591653e+02
1.170000e-06	-2.915416e-06	-2.384916e-09	-2.076336e+01	-1.588003e+02
1.180000e-06	-2.876919e-06	-2.374810e-09	-2.048919e+01	-1.584346e+02
1.190000e-06	-2.838194e-06	-2.366596e-09	-2.021339e+01	-1.580684e+02
1.200000e-06	-2.799220e-06	-2.364824e-09	-1.993583e+01	-1.577016e+02
1.210000e-06	-2.760036e-06	-2.362862e-09	-1.965676e+01	-1.573342e+02
1.220000e-06	-2.720628e-06	-2.356574e-09	-1.937610e+01	-1.569659e+02
1.230000e-06	-2.680961e-06	-2.346033e-09	-1.909360e+01	-1.565964e+02
1.240000e-06	-2.641154e-06	-2.335480e-09	-1.881010e+01	-1.562253e+02
1.250000e-06	-2.601299e-06	-2.326794e-09	-1.852625e+01	-1.558521e+02
1.260000e-06	-2.561408e-06	-2.320266e-09	-1.824215e+01	-1.554760e+02
1.270000e-06	-2.521424e-06	-2.313906e-09	-1.795738e+01	-1.550963e+02
1.280000e-06	-2.481312e-06	-2.309685e-09	-1.767171e+01	-1.547122e+02
1.290000e-06	-2.441126e-06	-2.307150e-09	-1.738551e+01	-1.543226e+02
1.300000e-06	-2.400745e-06	-2.299998e-09	-1.709792e+01	-1.539265e+02
1.310000e-06	-2.360198e-06	-2.290454e-09	-1.680915e+01	-1.535229e+02
1.320000e-06	-2.319534e-06	-2.278814e-09	-1.651954e+01	-1.531106e+02
1.330000e-06	-2.278600e-06	-2.265649e-09	-1.622801e+01	-1.526884e+02
1.340000e-06	-2.237349e-06	-2.252323e-09	-1.593423e+01	-1.522552e+02
1.350000e-06	-2.195860e-06	-2.242177e-09	-1.563874e+01	-1.518098e+02
1.360000e-06	-2.154170e-06	-2.235287e-09	-1.534183e+01	-1.513509e+02
1.370000e-06	-2.112118e-06	-2.232798e-09	-1.504234e+01	-1.508777e+02
1.380000e-06	-2.069757e-06	-2.229092e-09	-1.474065e+01	-1.503889e+02
1.390000e-06	-2.027152e-06	-2.220044e-09	-1.443722e+01	-1.498838e+02
1.400000e-06	-1.984352e-06	-2.206128e-09	-1.413240e+01	-1.493613e+02
1.410000e-06	-1.941482e-06	-2.194264e-09	-1.382708e+01	-1.488208e+02
1.420000e-06	-1.898452e-06	-2.180172e-09	-1.352063e+01	-1.482617e+02
1.430000e-06	-1.855183e-06	-2.165329e-09	-1.321247e+01	-1.476834e+02
1.440000e-06	-1.811777e-06	-2.154224e-09	-1.290334e+01	-1.470855e+02
1.450000e-06	-1.768287e-06	-2.149725e-09	-1.259360e+01	-1.464679e+02
1.460000e-06	-1.724642e-06	-2.149250e-09	-1.228276e+01	-1.458304e+02
1.470000e-06	-1.680849e-06	-2.143371e-09	-1.197088e+01	-1.451730e+02
1.480000e-06	-1.636946e-06	-2.128304e-09	-1.165820e+01	-1.444958e+02
1.490000e-06	-1.593004e-06	-2.110147e-09	-1.134525e+01	-1.437990e+02
1.500000e-06	-1.549066e-06	-2.093404e-09	-1.103233e+01	-1.430830e+02
1.510000e-06	-1.505041e-06	-2.075692e-09	-1.071878e+01	-1.423480e+02
1.520000e-06	-1.460893e-06	-2.057559e-09	-1.040437e+01	-1.415944e+02
1.530000e-06	-1.416666e-06	-2.045852e-09	-1.008939e+01	-1.408226e+02
1.540000e-06	-1.372419e-06	-2.042597e-09	-9.774259e+00	-1.400330e+02
1.550000e-06	-1.328103e-06	-2.039990e-09	-9.458646e+00	-1.392261e+02
1.560000e-06	-1.283652e-06	-2.029006e-09	-9.142069e+00	-1.384020e+02
1.570000e-06	-1.239118e-06	-2.012514e-09	-8.824900e+00	-1.375610e+02
1.580000e-06	-1.194552e-06	-1.995051e-09	-8.507503e+00	-1.367031e+02
1.590000e-06	-1.149971e-06	-1.978523e-09	-8.190007e+00	-1.358284e+02
1.600000e-06	-1.105302e-06	-1.961545e-09	-7.871872e+00	-1.349367e+02
1.610000e-06	-1.060455e-06	-1.946001e-09	-7.552477e+00	-1.340276e+02
1.620000e-06	-1.015494e-06	-1.935558e-09	-7.232272e+00	-1.331006e+02
1.630000e-06	-9.704388e-07	-1.927860e-09	-6.911390e+00	-1.321549e+02
1.640000e-06	-9.253018e-07	-1.917024e-09	-6.589927e+00	-1.311896e+02
1.650000e-06	-8.801938e-07	-1.900095e-09	-6.268672e+00	-1.302035e+02
1.660000e-06	-8.351095e-07	-1.882346e-09	-5.947585e+00	-1.291953e+02
1.670000e-06	-7.898465e-07	-1.865829e-09	-5.625225e+00	-1.281635e+02
1.680000e-06	-7.444550e-07	-1.848384e-09	-5.301951e+00	-1.271063e+02
1.690000e-06	-6.991358e-07	-1.828389e-09	-4.979191e+00	-1.260219e+02
1.700000e-06	-6.538501e-07	-1.810781e-09	-4.656670e+00	-1.249080e+02
1.710000e-06	-6.084730e-07	-1.797553e-09	-4.333497e+00	-1.237626e+02
1.720000e-06	-5.629494e-07	-1.783407e-09	-4.009282e+00	-1.225834e+02
1.730000e-06	-5.173940e-07	-1.763654e-09	-3.684840e+00	-1.213678e+02
1.740000e-06	-4.718244e-07	-1.742014e-09	-3.360297e+00	-1.201136e+02
1.750000e-06	-4.261791e-07	-1.722689e-09	-3.035215e+00	-1.188182e+02
1.760000e-06	-3.805098e-07	-1.703552e-09	-2.709961e+00	-1.174791e+02
1.770000e-06	-3.348582e-07	-1.680772e-09	-2.384834e+00	-1.160940e+02
1.780000e-06	-2.891308e-07	-1.659215e-09	-2.059167e+00	-1.146605e+02
1.790000e-06	-2.433300e-07	-1.641524e-09	-1.732978e+00	-1.131764e+02
1.800000e-06	-1.975678e-07	-1.621633e-09	-1.407063e+00	-1.116395e+02
1.810000e-06	-1.518315e-07	-1.596857e-09	-1.081332e+00	-1.100480e+02
1.820000e-06	-1.060669e-07	-1.571879e-09	-7.554003e-01	-1.083999e+02
1.830000e-06	-6.032511e-08	-1.549531e-09	-4.296307e-01	-1.066938e+02
1.840000e-06	-1.466796e-08	-1.527501e-09	-1.044640e-01	-1.049282e+02
1.850000e-06	3.098167e-08	-1.499458e-09	2.206491e-01	-1.031021e+02
1.860000e-06	7.674016e-08	-1.464349e-09	5.465374e-01	-1.012144e+02
1.870000e-06	1.225115e-07	-1.430925e-09	8.725175e-01	-9.926443e+01
1.880000e-06	1.682137e-07	-1.402454e-09	1.198005e+00	-9.725177e+01
1.890000e-06	2.138993e-07	-1.375157e-09	1.523374e+00	-9.517614e+01
1.900000e-06	2.596307e-07	-1.345240e-09	1.849070e+00	-9.303749e+01
1.910000e-06	3.053971e-07	-1.312214e-09	2.175014e+00	-9.083595e+01
1.920000e-06	3.511222e-07	-1.279422e-09	2.500665e+00	-8.857185e+01
1.930000e-06	3.967850e-07	-1.247338e-09	2.825872e+00	-8.624566e+01
1.940000e-06	4.423836e-07	-1.211113e-09	3.150622e+00	-8.385799e+01
1.950000e-06	4.879158e-07	-1.170205e-09	3.474899e+00	-8.140958e+01
1.960000e-06	5.334719e-07	-1.130415e-09	3.799345e+00	-7.890124e+01
1.970000e-06	5.789461e-07	-1.092056e-09	4.123209e+00	-7.633385e+01
1.980000e-06	6.242250e-07	-1.053489e-09	4.445682e+00	-7.370836e+01
1.990000e-06	6.695192e-07	-1.014572e-09	4.768264e+00	-7.102572e+01
2.000000e-06	7.148469e-07	-9.787136e-10	5.091084e+00	-6.828690e+01
2.010000e-06	7.601333e-07	-9.443687e-10	5.413611e+00	-6.549287e+01
2.020000e-06	8.053673e-07	-9.039770e-10	5.735763e+00	-6.264458e+01
2.030000e-06	8.505139e-07	-8.571844e-10	6.057294e+00	-5.974296e+01
2.040000e-06	8.955931e-07	-8.085142e-10	6.378344e+00	-5.678889e+01
2.050000e-06	9.405707e-07	-7.610430e-10	6.698671e+00	-5.378326e+01
2.060000e-06	9.854364e-07	-7.152702e-10	7.018202e+00	-5.072692e+01
2.070000e-06	1.030330e-06	-6.717734e-10	7.337930e+00	-4.762069e+01
2.080000e-06	1.075251e-06	-6.315359e-10	7.657851e+00	-4.446543e+01
2.090000e-06	1.120044e-06	-5.934784e-10	7.976865e+00	-4.126199e+01
2.100000e-06	1.164662e-06	-5.535130e-10	8.294629e+00	-3.801127e+01
2.110000e-06	1.209201e-06	-5.067581e-10	8.611836e+00	-3.471424e+01
2.120000e-06	1.253675e-06	-4.506136e-10	8.928577e+00	-3.137196e+01
2.130000e-06	1.298016e-06	-3.913953e-10	9.244372e+00	-2.798559e+01
2.140000e-06	1.342275e-06	-3.312544e-10	9.559579e+00	-2.455646e+01
2.150000e-06	1.386507e-06	-2.733913e-10	9.874598e+00	-2.108608e+01
2.160000e-06	1.430679e-06	-2.224956e-10	1.018918e+01	-1.757613e+01
2.170000e-06	1.474795e-06	-1.785110e-10	1.050338e+01	-1.402857e+01
2.180000e-06	1.518862e-06	-1.322530e-10	1.081722e+01	-1.044556e+01
2.190000e-06	1.562856e-06	-7.834620e-11	1.113054e+01	-6.829583e+00
2.200000e-06	1.606740e-06	-2.008499e-11	1.144308e+01	-3.183384e+00
2.210000e-06	1.650530e-06	3.793737e-11	1.175494e+01	4.899788e-01
2.220000e-06	1.694308e-06	9.684802e-11	1.206673e+01	4.187138e+00
2.230000e-06	1.738025e-06	1.572969e-10	1.237808e+01	7.904417e+00
2.240000e-06	1.781664e-06	2.141992e-10	1.268887e+01	1.163783e+01
2.250000e-06	1.825271e-06	2.649434e-10	1.299944e+01	1.538311e+01
2.260000e-06	1.868730e-06	3.140335e-10	1.330895e+01	1.913569e+01
2.270000e-06	1.911973e-06	3.695593e-10	1.361692e+01	2.289078e+01
2.280000e-06	1.955069e-06	4.286179e-10	1.392385e+01	2.664335e+01
2.290000e-06	1.998036e-06	4.856526e-10	1.422986e+01	3.038818e+01
2.300000e-06	2.040793e-06	5.401939e-10	1.453437e+01	3.411992e+01
2.310000e-06	2.083242e-06	5.939168e-10	1.483669e+01	3.783311e+01
2.320000e-06	2.125221e-06	6.488077e-10	1.513566e+01	4.152224e+01
2.330000e-06	2.166784e-06	6.995464e-10	1.543167e+01	4.518180e+01
2.340000e-06	2.208201e-06	7.462206e-10	1.572664e+01	4.880635e+01
2.350000e-06	2.249464e-06	7.952826e-10	1.602051e+01	5.239053e+01
2.360000e-06	2.290533e-06	8.491825e-10	1.631300e+01	5.592916e+01
2.370000e-06	2.331352e-06	9.024484e-10	1.660371e+01	5.941729e+01
2.380000e-06	2.371904e-06	9.527620e-10	1.689252e+01	6.285021e+01
2.390000e-06	2.412313e-06	1.003846e-09	1.718030e+01	6.622354e+01
2.400000e-06	2.452564e-06	1.052433e-09	1.746697e+01	6.953327e+01
2.410000e-06	2.492691e-06	1.096485e-09	1.775275e+01	7.277578e+01
2.420000e-06	2.532723e-06	1.137322e-09	1.803786e+01	7.594786e+01
2.430000e-06	2.572645e-06	1.178452e-09	1.832218e+01	7.904679e+01
2.440000e-06	2.612451e-06	1.223876e-09	1.860567e+01	8.207032e+01
2.450000e-06	2.652111e-06	1.270766e-09	1.888813e+01	8.501666e+01
2.460000e-06	2.691730e-06	1.315187e-09	1.917029e+01	8.788454e+01
2.470000e-06	2.731245e-06	1.356368e-09	1.945171e+01	9.067318e+01
2.480000e-06	2.770551e-06	1.395002e-09	1.973165e+01	9.338226e+01
2.490000e-06	2.809626e-06	1.431552e-09	2.000994e+01	9.601194e+01
2.500000e-06	2.848451e-06	1.464184e-09	2.028645e+01	9.856279e+01
2.510000e-06	2.887097e-06	1.495474e-09	2.056168e+01	1.010358e+02
2.520000e-06	2.925506e-06	1.527662e-09	2.083523e+01	1.034323e+02
2.530000e-06	2.963621e-06	1.559412e-09	2.110668e+01	1.057540e+02
2.540000e-06	3.001570e-06	1.588940e-09	2.137695e+01	1.080028e+02
2.550000e-06	3.039350e-06	1.621848e-09	2.164601e+01	1.101809e+02
2.560000e-06	3.076935e-06	1.659532e-09	2.191369e+01	1.122907e+02
2.570000e-06	3.114327e-06	1.694555e-09	2.217999e+01	1.143346e+02
2.580000e-06	3.151493e-06	1.721843e-09	2.244469e+01	1.163151e+02
2.590000e-06	3.188402e-06	1.745707e-09	2.270755e+01	1.182349e+02
2.600000e-06	3.225012e-06	1.772015e-09	2.296828e+01	1.200965e+02
2.610000e-06	3.261433e-06	1.799181e-09	2.322767e+01	1.219023e+02
2.620000e-06	3.297716e-06	1.823025e-09	2.348608e+01	1.236547e+02
2.630000e-06	3.333844e-06	1.847886e-09	2.374338e+01	1.253560e+02
2.640000e-06	3.369844e-06	1.876818e-09	2.399977e+01	1.270081e+02
2.650000e-06	3.405710e-06	1.904302e-09	2.425520e+01	1.286129e+02
2.660000e-06	3.441363e-06	1.926507e-09	2.450912e+01	1.301720e+02
2.670000e-06	3.476800e-06	1.946456e-09	2.476150e+01	1.316869e+02
2.680000e-06	3.512058e-06	1.968091e-09	2.501261e+01	1.331586e+02
2.690000e-06	3.546994e-06	1.990301e-09	2.526141e+01	1.345882e+02
2.700000e-06	3.581412e-06	2.008278e-09	2.550654e+01	1.359763e+02
2.710000e-06	3.615467e-06	2.022624e-09	2.574907e+01	1.373234e+02
2.720000e-06	3.649300e-06	2.039415e-09	2.599003e+01	1.386300e+02
2.730000e-06	3.682618e-06	2.060251e-09	2.622732e+01	1.398961e+02
2.740000e-06	3.715435e-06	2.080416e-09	2.646104e+01	1.411218e+02
2.750000e-06	3.748007e-06	2.098143e-09	2.669302e+01	1.423072e+02
2.760000e-06	3.780328e-06	2.116769e-09	2.692320e+01	1.434520e+02
2.770000e-06	3.812489e-06	2.136468e-09	2.715225e+01	1.445561e+02
2.780000e-06	3.844499e-06	2.152689e-09	2.738022e+01	1.456194e+02
2.790000e-06	3.876299e-06	2.163591e-09	2.760670e+01	1.466419e+02
2.800000e-06	3.907919e-06	2.174091e-09	2.783190e+01	1.476236e+02
2.810000e-06	3.939274e-06	2.188422e-09	2.805520e+01	1.485645e+02
2.820000e-06	3.970386e-06	2.203150e-09	2.827678e+01	1.494649e+02
2.830000e-06	4.001156e-06	2.214144e-09	2.849593e+01	1.503252e+02
2.840000e-06	4.031553e-06	2.225207e-09	2.871241e+01	1.511460e+02
2.850000e-06	4.061724e-06	2.239039e-09	2.892728e+01	1.519281e+02
2.860000e-06	4.091661e-06	2.253882e-09	2.914049e+01	1.526724e+02
2.870000e-06	4.121368e-06	2.267038e-09	2.935206e+01	1.533801e+02
2.880000e-06	4.150762e-06	2.277285e-09	2.956140e+01	1.540526e+02
2.890000e-06	4.179854e-06	2.283254e-09	2.976860e+01	1.546914e+02
2.900000e-06	4.208719e-06	2.286275e-09	2.997417e+01	1.552983e+02
