# Temperatura_=_-5.03
# Concentracion g/m^3_=_4090.0
# C_Vs_to_Am_M_A/Vsm_=_65563218390.804596
# pendiente_HvsI_1/m_=_3716.3
# ordenada_HvsI_A/m_=_1297.0
# frecuencia_Hz_=_135068.50476028086

Tiempo_(s)	Campo_(V.s)	Magnetizacion_(V.s)	Campo_(kA/m)	Magnetizacion_(A/m)
0.000000e+00	-5.431452e-06	-2.191233e-09	-3.840276e+01	-1.412985e+02
1.000000e-08	-5.431634e-06	-2.186877e-09	-3.840405e+01	-1.412847e+02
2.000000e-08	-5.431570e-06	-2.181045e-09	-3.840360e+01	-1.412720e+02
3.000000e-08	-5.431204e-06	-2.179054e-09	-3.840101e+01	-1.412619e+02
4.000000e-08	-5.430505e-06	-2.177726e-09	-3.839607e+01	-1.412561e+02
5.000000e-08	-5.429330e-06	-2.174981e-09	-3.838776e+01	-1.412562e+02
6.000000e-08	-5.427584e-06	-2.178107e-09	-3.837542e+01	-1.412637e+02
7.000000e-08	-5.425171e-06	-2.191307e-09	-3.835835e+01	-1.412800e+02
8.000000e-08	-5.422133e-06	-2.180952e-09	-3.833687e+01	-1.413066e+02
9.000000e-08	-5.418557e-06	-2.139809e-09	-3.831159e+01	-1.413446e+02
1.000000e-07	-5.414506e-06	-2.153216e-09	-3.828295e+01	-1.413951e+02
1.100000e-07	-5.410205e-06	-2.234426e-09	-3.825254e+01	-1.414589e+02
1.200000e-07	-5.405701e-06	-2.210606e-09	-3.822069e+01	-1.415366e+02
1.300000e-07	-5.401008e-06	-2.107044e-09	-3.818751e+01	-1.416286e+02
1.400000e-07	-5.396081e-06	-2.109490e-09	-3.815267e+01	-1.417350e+02
1.500000e-07	-5.390683e-06	-2.230566e-09	-3.811451e+01	-1.418557e+02
1.600000e-07	-5.384732e-06	-2.222289e-09	-3.807243e+01	-1.419902e+02
1.700000e-07	-5.378344e-06	-2.088347e-09	-3.802727e+01	-1.421379e+02
1.800000e-07	-5.371631e-06	-2.101823e-09	-3.797980e+01	-1.422979e+02
1.900000e-07	-5.364532e-06	-2.239930e-09	-3.792961e+01	-1.424690e+02
2.000000e-07	-5.357072e-06	-2.226715e-09	-3.787686e+01	-1.426497e+02
2.100000e-07	-5.349377e-06	-2.118554e-09	-3.782246e+01	-1.428385e+02
2.200000e-07	-5.341484e-06	-2.153884e-09	-3.776665e+01	-1.430335e+02
2.300000e-07	-5.333397e-06	-2.246553e-09	-3.770947e+01	-1.432327e+02
2.400000e-07	-5.324983e-06	-2.195956e-09	-3.764998e+01	-1.434341e+02
2.500000e-07	-5.316086e-06	-2.144618e-09	-3.758708e+01	-1.436355e+02
2.600000e-07	-5.306475e-06	-2.224859e-09	-3.751912e+01	-1.438346e+02
2.700000e-07	-5.296094e-06	-2.256802e-09	-3.744572e+01	-1.440291e+02
2.800000e-07	-5.285177e-06	-2.174451e-09	-3.736854e+01	-1.442168e+02
2.900000e-07	-5.273779e-06	-2.181439e-09	-3.728794e+01	-1.443954e+02
3.000000e-07	-5.261983e-06	-2.269392e-09	-3.720455e+01	-1.445628e+02
3.100000e-07	-5.249838e-06	-2.229325e-09	-3.711867e+01	-1.447171e+02
3.200000e-07	-5.237316e-06	-2.162692e-09	-3.703013e+01	-1.448563e+02
3.300000e-07	-5.224425e-06	-2.220233e-09	-3.693899e+01	-1.449788e+02
3.400000e-07	-5.211098e-06	-2.267780e-09	-3.684477e+01	-1.450831e+02
3.500000e-07	-5.197385e-06	-2.200448e-09	-3.674781e+01	-1.451678e+02
3.600000e-07	-5.183313e-06	-2.191672e-09	-3.664832e+01	-1.452321e+02
3.700000e-07	-5.168849e-06	-2.230047e-09	-3.654604e+01	-1.452751e+02
3.800000e-07	-5.154004e-06	-2.209292e-09	-3.644108e+01	-1.452962e+02
3.900000e-07	-5.138564e-06	-2.182681e-09	-3.633192e+01	-1.452952e+02
4.000000e-07	-5.122356e-06	-2.211709e-09	-3.621732e+01	-1.452721e+02
4.100000e-07	-5.105619e-06	-2.197177e-09	-3.609898e+01	-1.452271e+02
4.200000e-07	-5.088582e-06	-2.173260e-09	-3.597852e+01	-1.451607e+02
4.300000e-07	-5.071279e-06	-2.209065e-09	-3.585618e+01	-1.450734e+02
4.400000e-07	-5.053731e-06	-2.219883e-09	-3.573211e+01	-1.449662e+02
4.500000e-07	-5.035975e-06	-2.168209e-09	-3.560657e+01	-1.448401e+02
4.600000e-07	-5.017935e-06	-2.166639e-09	-3.547901e+01	-1.446963e+02
4.700000e-07	-4.999483e-06	-2.197957e-09	-3.534855e+01	-1.445360e+02
4.800000e-07	-4.980710e-06	-2.183522e-09	-3.521582e+01	-1.443606e+02
4.900000e-07	-4.961590e-06	-2.157961e-09	-3.508063e+01	-1.441716e+02
5.000000e-07	-4.942035e-06	-2.162367e-09	-3.494237e+01	-1.439705e+02
5.100000e-07	-4.922233e-06	-2.167667e-09	-3.480236e+01	-1.437588e+02
5.200000e-07	-4.902262e-06	-2.172077e-09	-3.466116e+01	-1.435378e+02
5.300000e-07	-4.882049e-06	-2.172467e-09	-3.451824e+01	-1.433091e+02
5.400000e-07	-4.861555e-06	-2.153326e-09	-3.437334e+01	-1.430739e+02
5.500000e-07	-4.840670e-06	-2.151090e-09	-3.422568e+01	-1.428335e+02
5.600000e-07	-4.819353e-06	-2.170001e-09	-3.407496e+01	-1.425890e+02
5.700000e-07	-4.797763e-06	-2.163017e-09	-3.392230e+01	-1.423414e+02
5.800000e-07	-4.775859e-06	-2.134468e-09	-3.376743e+01	-1.420916e+02
5.900000e-07	-4.753652e-06	-2.129353e-09	-3.361042e+01	-1.418403e+02
6.000000e-07	-4.731213e-06	-2.135847e-09	-3.345176e+01	-1.415881e+02
6.100000e-07	-4.708407e-06	-2.137493e-09	-3.329052e+01	-1.413354e+02
6.200000e-07	-4.685217e-06	-2.130452e-09	-3.312656e+01	-1.410825e+02
6.300000e-07	-4.661741e-06	-2.121968e-09	-3.296057e+01	-1.408295e+02
6.400000e-07	-4.638003e-06	-2.122317e-09	-3.279273e+01	-1.405764e+02
6.500000e-07	-4.613977e-06	-2.130192e-09	-3.262285e+01	-1.403230e+02
6.600000e-07	-4.589801e-06	-2.114178e-09	-3.245192e+01	-1.400692e+02
6.700000e-07	-4.565419e-06	-2.088617e-09	-3.227953e+01	-1.398147e+02
6.800000e-07	-4.540558e-06	-2.083387e-09	-3.210375e+01	-1.395590e+02
6.900000e-07	-4.515185e-06	-2.093201e-09	-3.192435e+01	-1.393016e+02
7.000000e-07	-4.489325e-06	-2.088966e-09	-3.174151e+01	-1.390422e+02
7.100000e-07	-4.462881e-06	-2.076922e-09	-3.155454e+01	-1.387800e+02
7.200000e-07	-4.435947e-06	-2.072094e-09	-3.136410e+01	-1.385147e+02
7.300000e-07	-4.408596e-06	-2.077546e-09	-3.117072e+01	-1.382456e+02
7.400000e-07	-4.380922e-06	-2.074256e-09	-3.097506e+01	-1.379724e+02
7.500000e-07	-4.353083e-06	-2.057748e-09	-3.077822e+01	-1.376944e+02
7.600000e-07	-4.325005e-06	-2.041472e-09	-3.057969e+01	-1.374113e+02
7.700000e-07	-4.296733e-06	-2.041028e-09	-3.037980e+01	-1.371227e+02
7.800000e-07	-4.268263e-06	-2.042044e-09	-3.017850e+01	-1.368283e+02
7.900000e-07	-4.239435e-06	-2.032302e-09	-2.997468e+01	-1.365278e+02
8.000000e-07	-4.210329e-06	-2.020286e-09	-2.976889e+01	-1.362210e+02
8.100000e-07	-4.181009e-06	-2.017987e-09	-2.956158e+01	-1.359080e+02
8.200000e-07	-4.151439e-06	-2.018953e-09	-2.935251e+01	-1.355885e+02
8.300000e-07	-4.121557e-06	-2.011375e-09	-2.914123e+01	-1.352626e+02
8.400000e-07	-4.091323e-06	-1.997677e-09	-2.892746e+01	-1.349304e+02
8.500000e-07	-4.060806e-06	-1.989855e-09	-2.871169e+01	-1.345920e+02
8.600000e-07	-4.029934e-06	-1.990412e-09	-2.849341e+01	-1.342476e+02
8.700000e-07	-3.998882e-06	-1.986021e-09	-2.827386e+01	-1.338973e+02
8.800000e-07	-3.967797e-06	-1.973631e-09	-2.805408e+01	-1.335414e+02
8.900000e-07	-3.936392e-06	-1.964659e-09	-2.783203e+01	-1.331801e+02
9.000000e-07	-3.904647e-06	-1.965655e-09	-2.760758e+01	-1.328136e+02
9.100000e-07	-3.872703e-06	-1.964020e-09	-2.738172e+01	-1.324421e+02
9.200000e-07	-3.840577e-06	-1.956314e-09	-2.715458e+01	-1.320659e+02
9.300000e-07	-3.808269e-06	-1.948026e-09	-2.692615e+01	-1.316852e+02
9.400000e-07	-3.775718e-06	-1.948280e-09	-2.669599e+01	-1.313001e+02
9.500000e-07	-3.742891e-06	-1.947719e-09	-2.646390e+01	-1.309108e+02
9.600000e-07	-3.709660e-06	-1.938302e-09	-2.622894e+01	-1.305173e+02
9.700000e-07	-3.675985e-06	-1.926625e-09	-2.599084e+01	-1.301197e+02
9.800000e-07	-3.641816e-06	-1.923673e-09	-2.574925e+01	-1.297180e+02
9.900000e-07	-3.607103e-06	-1.922960e-09	-2.550381e+01	-1.293123e+02
1.000000e-06	-3.572034e-06	-1.919262e-09	-2.525586e+01	-1.289023e+02
1.010000e-06	-3.536671e-06	-1.914223e-09	-2.500583e+01	-1.284882e+02
1.020000e-06	-3.501066e-06	-1.913638e-09	-2.475408e+01	-1.280697e+02
1.030000e-06	-3.465329e-06	-1.912300e-09	-2.450140e+01	-1.276468e+02
1.040000e-06	-3.429469e-06	-1.903933e-09	-2.424786e+01	-1.272192e+02
1.050000e-06	-3.393421e-06	-1.889441e-09	-2.399299e+01	-1.267868e+02
1.060000e-06	-3.357231e-06	-1.878091e-09	-2.373711e+01	-1.263495e+02
1.070000e-06	-3.320900e-06	-1.871453e-09	-2.348023e+01	-1.259071e+02
1.080000e-06	-3.284306e-06	-1.863527e-09	-2.322150e+01	-1.254594e+02
1.090000e-06	-3.247470e-06	-1.854146e-09	-2.296105e+01	-1.250063e+02
1.100000e-06	-3.210373e-06	-1.849498e-09	-2.269876e+01	-1.245477e+02
1.110000e-06	-3.173022e-06	-1.847708e-09	-2.243467e+01	-1.240835e+02
1.120000e-06	-3.135423e-06	-1.841805e-09	-2.216883e+01	-1.236136e+02
1.130000e-06	-3.097617e-06	-1.831604e-09	-2.190152e+01	-1.231380e+02
1.140000e-06	-3.059676e-06	-1.822065e-09	-2.163326e+01	-1.226566e+02
1.150000e-06	-3.021477e-06	-1.814672e-09	-2.136317e+01	-1.221696e+02
1.160000e-06	-2.983039e-06	-1.804814e-09	-2.109140e+01	-1.216769e+02
1.170000e-06	-2.944474e-06	-1.791965e-09	-2.081873e+01	-1.211786e+02
1.180000e-06	-2.905751e-06	-1.781307e-09	-2.054494e+01	-1.206747e+02
1.190000e-06	-2.866799e-06	-1.777776e-09	-2.026953e+01	-1.201653e+02
1.200000e-06	-2.827509e-06	-1.776282e-09	-1.999174e+01	-1.196506e+02
1.210000e-06	-2.787972e-06	-1.769889e-09	-1.971220e+01	-1.191305e+02
1.220000e-06	-2.748303e-06	-1.759692e-09	-1.943172e+01	-1.186051e+02
1.230000e-06	-2.708478e-06	-1.751645e-09	-1.915014e+01	-1.180746e+02
1.240000e-06	-2.668560e-06	-1.741696e-09	-1.886790e+01	-1.175387e+02
1.250000e-06	-2.628574e-06	-1.728218e-09	-1.858518e+01	-1.169976e+02
1.260000e-06	-2.588532e-06	-1.714338e-09	-1.830206e+01	-1.164512e+02
1.270000e-06	-2.548390e-06	-1.703995e-09	-1.801824e+01	-1.158992e+02
1.280000e-06	-2.508134e-06	-1.698946e-09	-1.773361e+01	-1.153415e+02
1.290000e-06	-2.467786e-06	-1.694486e-09	-1.744834e+01	-1.147780e+02
1.300000e-06	-2.427226e-06	-1.683779e-09	-1.716156e+01	-1.142081e+02
1.310000e-06	-2.386359e-06	-1.672030e-09	-1.687261e+01	-1.136316e+02
1.320000e-06	-2.345287e-06	-1.663137e-09	-1.658221e+01	-1.130481e+02
1.330000e-06	-2.304019e-06	-1.652007e-09	-1.629043e+01	-1.124569e+02
1.340000e-06	-2.262375e-06	-1.637047e-09	-1.599599e+01	-1.118577e+02
1.350000e-06	-2.220295e-06	-1.625439e-09	-1.569847e+01	-1.112497e+02
1.360000e-06	-2.177948e-06	-1.618300e-09	-1.539906e+01	-1.106323e+02
1.370000e-06	-2.135385e-06	-1.610762e-09	-1.509812e+01	-1.100049e+02
1.380000e-06	-2.092625e-06	-1.598616e-09	-1.479578e+01	-1.093668e+02
1.390000e-06	-2.049634e-06	-1.584599e-09	-1.449182e+01	-1.087172e+02
1.400000e-06	-2.006395e-06	-1.573755e-09	-1.418610e+01	-1.080555e+02
1.410000e-06	-1.963057e-06	-1.563330e-09	-1.387968e+01	-1.073809e+02
1.420000e-06	-1.919630e-06	-1.548867e-09	-1.357263e+01	-1.066927e+02
1.430000e-06	-1.876088e-06	-1.532864e-09	-1.326477e+01	-1.059905e+02
1.440000e-06	-1.832370e-06	-1.522238e-09	-1.295566e+01	-1.052735e+02
1.450000e-06	-1.788508e-06	-1.515268e-09	-1.264554e+01	-1.045413e+02
1.460000e-06	-1.744605e-06	-1.503986e-09	-1.233512e+01	-1.037933e+02
1.470000e-06	-1.700650e-06	-1.487689e-09	-1.202435e+01	-1.030292e+02
1.480000e-06	-1.656628e-06	-1.473235e-09	-1.171309e+01	-1.022488e+02
1.490000e-06	-1.612511e-06	-1.461870e-09	-1.140116e+01	-1.014517e+02
1.500000e-06	-1.568287e-06	-1.450066e-09	-1.108848e+01	-1.006378e+02
1.510000e-06	-1.523944e-06	-1.435856e-09	-1.077495e+01	-9.980714e+01
1.520000e-06	-1.479481e-06	-1.419919e-09	-1.046058e+01	-9.895965e+01
1.530000e-06	-1.434963e-06	-1.405951e-09	-1.014582e+01	-9.809546e+01
1.540000e-06	-1.390401e-06	-1.394996e-09	-9.830752e+00	-9.721475e+01
1.550000e-06	-1.345788e-06	-1.383089e-09	-9.515314e+00	-9.631773e+01
1.560000e-06	-1.301128e-06	-1.370684e-09	-9.199552e+00	-9.540468e+01
1.570000e-06	-1.256391e-06	-1.360560e-09	-8.883238e+00	-9.447593e+01
1.580000e-06	-1.211575e-06	-1.349542e-09	-8.566373e+00	-9.353180e+01
1.590000e-06	-1.166636e-06	-1.332371e-09	-8.248634e+00	-9.257263e+01
1.600000e-06	-1.121532e-06	-1.311655e-09	-7.929723e+00	-9.159876e+01
1.610000e-06	-1.076361e-06	-1.292619e-09	-7.610345e+00	-9.061049e+01
1.620000e-06	-1.031194e-06	-1.278141e-09	-7.290999e+00	-8.960809e+01
1.630000e-06	-9.859395e-07	-1.264380e-09	-6.971027e+00	-8.859177e+01
1.640000e-06	-9.405851e-07	-1.249599e-09	-6.650352e+00	-8.756166e+01
1.650000e-06	-8.951371e-07	-1.237335e-09	-6.329014e+00	-8.651782e+01
1.660000e-06	-8.495766e-07	-1.225668e-09	-6.006881e+00	-8.546020e+01
1.670000e-06	-8.039860e-07	-1.211114e-09	-5.684536e+00	-8.438865e+01
1.680000e-06	-7.584272e-07	-1.192686e-09	-5.362415e+00	-8.330289e+01
1.690000e-06	-7.128785e-07	-1.170143e-09	-5.040366e+00	-8.220254e+01
1.700000e-06	-6.672072e-07	-1.149702e-09	-4.717450e+00	-8.108707e+01
1.710000e-06	-6.214140e-07	-1.133307e-09	-4.393671e+00	-7.995583e+01
1.720000e-06	-5.755695e-07	-1.117289e-09	-4.069530e+00	-7.880805e+01
1.730000e-06	-5.297435e-07	-1.102476e-09	-3.745520e+00	-7.764283e+01
1.740000e-06	-4.838668e-07	-1.089687e-09	-3.421152e+00	-7.645915e+01
1.750000e-06	-4.379587e-07	-1.075650e-09	-3.096561e+00	-7.525587e+01
1.760000e-06	-3.920673e-07	-1.057092e-09	-2.772089e+00	-7.403179e+01
1.770000e-06	-3.460817e-07	-1.033372e-09	-2.446951e+00	-7.278559e+01
1.780000e-06	-3.000364e-07	-1.009103e-09	-2.121390e+00	-7.151588e+01
1.790000e-06	-2.539967e-07	-9.898132e-10	-1.795869e+00	-7.022123e+01
1.800000e-06	-2.079911e-07	-9.715976e-10	-1.470589e+00	-6.890017e+01
1.810000e-06	-1.620110e-07	-9.513617e-10	-1.145490e+00	-6.755119e+01
1.820000e-06	-1.160004e-07	-9.309985e-10	-8.201743e-01	-6.617281e+01
1.830000e-06	-6.988544e-08	-9.111323e-10	-4.941209e-01	-6.476352e+01
1.840000e-06	-2.375402e-08	-8.902791e-10	-1.679514e-01	-6.332190e+01
1.850000e-06	2.227566e-08	-8.661185e-10	1.574988e-01	-6.184652e+01
1.860000e-06	6.826092e-08	-8.386595e-10	4.826348e-01	-6.033606e+01
1.870000e-06	1.142494e-07	-8.124028e-10	8.077935e-01	-5.878927e+01
1.880000e-06	1.602269e-07	-7.889360e-10	1.132875e+00	-5.720499e+01
1.890000e-06	2.062301e-07	-7.658983e-10	1.458138e+00	-5.558216e+01
1.900000e-06	2.522579e-07	-7.415914e-10	1.783575e+00	-5.391987e+01
1.910000e-06	2.983047e-07	-7.154686e-10	2.109146e+00	-5.221729e+01
1.920000e-06	3.443893e-07	-6.866477e-10	2.434984e+00	-5.047375e+01
1.930000e-06	3.904128e-07	-6.581639e-10	2.760391e+00	-4.868872e+01
1.940000e-06	4.363385e-07	-6.317615e-10	3.085106e+00	-4.686181e+01
1.950000e-06	4.821995e-07	-6.054706e-10	3.409363e+00	-4.499274e+01
1.960000e-06	5.279963e-07	-5.774831e-10	3.733167e+00	-4.308142e+01
1.970000e-06	5.737913e-07	-5.486346e-10	4.056958e+00	-4.112786e+01
1.980000e-06	6.195589e-07	-5.193610e-10	4.380555e+00	-3.913222e+01
1.990000e-06	6.651928e-07	-4.877039e-10	4.703207e+00	-3.709480e+01
2.000000e-06	7.107864e-07	-4.537555e-10	5.025574e+00	-3.501601e+01
2.010000e-06	7.564134e-07	-4.196358e-10	5.348176e+00	-3.289640e+01
2.020000e-06	8.019434e-07	-3.886745e-10	5.670094e+00	-3.073663e+01
2.030000e-06	8.473643e-07	-3.595374e-10	5.991240e+00	-2.853747e+01
2.040000e-06	8.927938e-07	-3.280576e-10	6.312447e+00	-2.629980e+01
2.050000e-06	9.382429e-07	-2.920139e-10	6.633792e+00	-2.402461e+01
2.060000e-06	9.836376e-07	-2.544354e-10	6.954752e+00	-2.171299e+01
2.070000e-06	1.028917e-06	-2.195947e-10	7.274899e+00	-1.936612e+01
2.080000e-06	1.074060e-06	-1.869633e-10	7.594077e+00	-1.698528e+01
2.090000e-06	1.119093e-06	-1.534908e-10	7.912478e+00	-1.457185e+01
2.100000e-06	1.164063e-06	-1.191731e-10	8.230437e+00	-1.212730e+01
2.110000e-06	1.208973e-06	-8.491229e-11	8.547976e+00	-9.653212e+00
2.120000e-06	1.253757e-06	-4.804862e-11	8.864617e+00	-7.151251e+00
2.130000e-06	1.298415e-06	-7.980431e-12	9.180365e+00	-4.623191e+00
2.140000e-06	1.342974e-06	3.454306e-11	9.495418e+00	-2.070909e+00
2.150000e-06	1.387427e-06	7.597523e-11	9.809719e+00	5.036101e-01
2.160000e-06	1.431788e-06	1.120229e-10	1.012337e+01	3.098269e+00
2.170000e-06	1.476058e-06	1.454754e-10	1.043638e+01	5.710858e+00
2.180000e-06	1.520310e-06	1.824641e-10	1.074926e+01	8.339052e+00
2.190000e-06	1.564502e-06	2.208034e-10	1.106172e+01	1.098041e+01
2.200000e-06	1.608581e-06	2.580879e-10	1.137338e+01	1.363237e+01
2.210000e-06	1.652606e-06	2.982925e-10	1.168465e+01	1.629226e+01
2.220000e-06	1.696600e-06	3.416577e-10	1.199571e+01	1.895730e+01
2.230000e-06	1.740525e-06	3.857468e-10	1.230628e+01	2.162459e+01
2.240000e-06	1.784346e-06	4.242445e-10	1.261611e+01	2.429115e+01
2.250000e-06	1.828145e-06	4.584640e-10	1.292579e+01	2.695390e+01
2.260000e-06	1.871935e-06	4.913323e-10	1.323540e+01	2.960969e+01
2.270000e-06	1.915569e-06	5.254337e-10	1.354392e+01	3.225531e+01
2.280000e-06	1.959005e-06	5.601429e-10	1.385103e+01	3.488749e+01
2.290000e-06	2.002312e-06	5.959858e-10	1.415723e+01	3.750295e+01
2.300000e-06	2.045454e-06	6.368179e-10	1.446227e+01	4.009842e+01
2.310000e-06	2.088356e-06	6.804456e-10	1.476560e+01	4.267061e+01
2.320000e-06	2.131058e-06	7.207325e-10	1.506752e+01	4.521630e+01
2.330000e-06	2.173631e-06	7.538775e-10	1.536853e+01	4.773235e+01
2.340000e-06	2.215923e-06	7.824041e-10	1.566756e+01	5.021569e+01
2.350000e-06	2.257919e-06	8.109296e-10	1.596449e+01	5.266338e+01
2.360000e-06	2.299569e-06	8.427344e-10	1.625897e+01	5.507264e+01
2.370000e-06	2.340845e-06	8.750379e-10	1.655081e+01	5.744085e+01
2.380000e-06	2.381880e-06	9.073916e-10	1.684095e+01	5.976559e+01
2.390000e-06	2.422616e-06	9.414725e-10	1.712896e+01	6.204467e+01
2.400000e-06	2.463124e-06	9.740472e-10	1.741537e+01	6.427614e+01
2.410000e-06	2.503463e-06	1.002306e-09	1.770059e+01	6.645831e+01
2.420000e-06	2.543677e-06	1.028208e-09	1.798492e+01	6.858974e+01
2.430000e-06	2.583854e-06	1.056245e-09	1.826899e+01	7.066932e+01
2.440000e-06	2.623895e-06	1.088347e-09	1.855209e+01	7.269620e+01
2.450000e-06	2.663809e-06	1.118931e-09	1.883431e+01	7.466984e+01
2.460000e-06	2.703666e-06	1.147040e-09	1.911612e+01	7.658999e+01
2.470000e-06	2.743439e-06	1.175358e-09	1.939733e+01	7.845672e+01
2.480000e-06	2.783015e-06	1.202616e-09	1.967714e+01	8.027034e+01
2.490000e-06	2.822288e-06	1.224737e-09	1.995483e+01	8.203146e+01
2.500000e-06	2.861343e-06	1.244880e-09	2.023096e+01	8.374095e+01
2.510000e-06	2.900122e-06	1.267347e-09	2.050515e+01	8.539990e+01
2.520000e-06	2.938623e-06	1.294451e-09	2.077736e+01	8.700962e+01
2.530000e-06	2.976999e-06	1.319349e-09	2.104870e+01	8.857160e+01
2.540000e-06	3.015266e-06	1.339145e-09	2.131927e+01	9.008749e+01
2.550000e-06	3.053385e-06	1.359677e-09	2.158878e+01	9.155906e+01
2.560000e-06	3.091304e-06	1.381971e-09	2.185688e+01	9.298820e+01
2.570000e-06	3.128999e-06	1.401650e-09	2.212340e+01	9.437682e+01
2.580000e-06	3.166561e-06	1.418408e-09	2.238898e+01	9.572690e+01
2.590000e-06	3.204029e-06	1.436260e-09	2.265390e+01	9.704040e+01
2.600000e-06	3.241193e-06	1.456675e-09	2.291666e+01	9.831925e+01
2.610000e-06	3.278004e-06	1.476481e-09	2.317693e+01	9.956531e+01
2.620000e-06	3.314560e-06	1.494736e-09	2.343540e+01	1.007804e+02
2.630000e-06	3.350848e-06	1.515746e-09	2.369197e+01	1.019661e+02
2.640000e-06	3.386963e-06	1.537376e-09	2.394733e+01	1.031240e+02
2.650000e-06	3.423013e-06	1.554581e-09	2.420222e+01	1.042555e+02
2.660000e-06	3.458990e-06	1.568103e-09	2.445659e+01	1.053618e+02
2.670000e-06	3.494841e-06	1.581792e-09	2.471007e+01	1.064440e+02
2.680000e-06	3.530478e-06	1.594261e-09	2.496204e+01	1.075029e+02
2.690000e-06	3.565742e-06	1.605938e-09	2.521137e+01	1.085393e+02
2.700000e-06	3.600672e-06	1.618190e-09	2.545834e+01	1.095536e+02
2.710000e-06	3.635326e-06	1.632863e-09	2.570336e+01	1.105463e+02
2.720000e-06	3.669500e-06	1.651035e-09	2.594498e+01	1.115175e+02
2.730000e-06	3.703121e-06	1.670000e-09	2.618270e+01	1.124674e+02
2.740000e-06	3.736308e-06	1.684333e-09	2.641735e+01	1.133959e+02
2.750000e-06	3.769144e-06	1.694715e-09	2.664951e+01	1.143027e+02
2.760000e-06	3.801693e-06	1.706057e-09	2.687965e+01	1.151878e+02
2.770000e-06	3.834022e-06	1.720580e-09	2.710823e+01	1.160508e+02
2.780000e-06	3.866155e-06	1.734299e-09	2.733542e+01	1.168914e+02
2.790000e-06	3.898097e-06	1.746808e-09	2.756127e+01	1.177093e+02
2.800000e-06	3.929862e-06	1.760862e-09	2.778586e+01	1.185041e+02
2.810000e-06	3.961458e-06	1.774518e-09	2.800926e+01	1.192756e+02
2.820000e-06	3.992806e-06	1.784701e-09	2.823090e+01	1.200236e+02
2.830000e-06	4.023850e-06	1.791752e-09	2.845040e+01	1.207479e+02
2.840000e-06	4.054613e-06	1.799613e-09	2.866791e+01	1.214485e+02
2.850000e-06	4.085095e-06	1.810727e-09	2.888343e+01	1.221254e+02
2.860000e-06	4.115273e-06	1.822718e-09	2.909679e+01	1.227788e+02
2.870000e-06	4.145111e-06	1.834377e-09	2.930777e+01	1.234090e+02
2.880000e-06	4.174674e-06	1.845583e-09	2.951679e+01	1.240164e+02
2.890000e-06	4.204018e-06	1.854138e-09	2.972427e+01	1.246017e+02
2.900000e-06	4.233103e-06	1.858038e-09	2.992990e+01	1.251653e+02
