# Temperatura_=_-1.9
# Concentracion g/m^3_=_4090.0
# C_Vs_to_Am_M_A/Vsm_=_65563218390.804596
# pendiente_HvsI_1/m_=_3716.3
# ordenada_HvsI_A/m_=_1297.0
# frecuencia_Hz_=_135082.97949317298

Tiempo_(s)	Campo_(V.s)	Magnetizacion_(V.s)	Campo_(kA/m)	Magnetizacion_(A/m)
0.000000e+00	-5.412727e-06	-2.527312e-09	-3.839589e+01	-1.640984e+02
1.000000e-08	-5.412752e-06	-2.527017e-09	-3.839607e+01	-1.640730e+02
2.000000e-08	-5.412523e-06	-2.524603e-09	-3.839445e+01	-1.640522e+02
3.000000e-08	-5.412122e-06	-2.523138e-09	-3.839160e+01	-1.640374e+02
4.000000e-08	-5.411427e-06	-2.522073e-09	-3.838667e+01	-1.640300e+02
5.000000e-08	-5.410195e-06	-2.520948e-09	-3.837793e+01	-1.640314e+02
6.000000e-08	-5.408323e-06	-2.526078e-09	-3.836466e+01	-1.640430e+02
7.000000e-08	-5.405784e-06	-2.540048e-09	-3.834664e+01	-1.640660e+02
8.000000e-08	-5.402607e-06	-2.531201e-09	-3.832411e+01	-1.641014e+02
9.000000e-08	-5.398834e-06	-2.505097e-09	-3.829734e+01	-1.641503e+02
1.000000e-07	-5.394582e-06	-2.524419e-09	-3.826718e+01	-1.642133e+02
1.100000e-07	-5.390142e-06	-2.545845e-09	-3.823568e+01	-1.642911e+02
1.200000e-07	-5.385608e-06	-2.513116e-09	-3.820352e+01	-1.643841e+02
1.300000e-07	-5.380727e-06	-2.466130e-09	-3.816890e+01	-1.644924e+02
1.400000e-07	-5.375404e-06	-2.496043e-09	-3.813114e+01	-1.646159e+02
1.500000e-07	-5.369767e-06	-2.562221e-09	-3.809115e+01	-1.647543e+02
1.600000e-07	-5.363730e-06	-2.522455e-09	-3.804833e+01	-1.649072e+02
1.700000e-07	-5.357232e-06	-2.478828e-09	-3.800223e+01	-1.650737e+02
1.800000e-07	-5.350336e-06	-2.514565e-09	-3.795331e+01	-1.652529e+02
1.900000e-07	-5.343104e-06	-2.583717e-09	-3.790201e+01	-1.654437e+02
2.000000e-07	-5.335605e-06	-2.535111e-09	-3.784882e+01	-1.656445e+02
2.100000e-07	-5.327890e-06	-2.506657e-09	-3.779409e+01	-1.658541e+02
2.200000e-07	-5.319962e-06	-2.549968e-09	-3.773786e+01	-1.660705e+02
2.300000e-07	-5.311785e-06	-2.579904e-09	-3.767985e+01	-1.662921e+02
2.400000e-07	-5.303126e-06	-2.540274e-09	-3.761842e+01	-1.665168e+02
2.500000e-07	-5.293780e-06	-2.562739e-09	-3.755213e+01	-1.667429e+02
2.600000e-07	-5.283778e-06	-2.627269e-09	-3.748118e+01	-1.669681e+02
2.700000e-07	-5.273307e-06	-2.616485e-09	-3.740690e+01	-1.671906e+02
2.800000e-07	-5.262352e-06	-2.571512e-09	-3.732919e+01	-1.674083e+02
2.900000e-07	-5.250809e-06	-2.598160e-09	-3.724731e+01	-1.676192e+02
3.000000e-07	-5.238825e-06	-2.633105e-09	-3.716230e+01	-1.678216e+02
3.100000e-07	-5.226496e-06	-2.588011e-09	-3.707484e+01	-1.680135e+02
3.200000e-07	-5.213830e-06	-2.578186e-09	-3.698499e+01	-1.681934e+02
3.300000e-07	-5.200813e-06	-2.618167e-09	-3.689266e+01	-1.683597e+02
3.400000e-07	-5.187370e-06	-2.625749e-09	-3.679729e+01	-1.685112e+02
3.500000e-07	-5.173488e-06	-2.591024e-09	-3.669882e+01	-1.686466e+02
3.600000e-07	-5.159242e-06	-2.611055e-09	-3.659776e+01	-1.687651e+02
3.700000e-07	-5.144647e-06	-2.608713e-09	-3.649423e+01	-1.688658e+02
3.800000e-07	-5.129635e-06	-2.578538e-09	-3.638774e+01	-1.689482e+02
3.900000e-07	-5.113994e-06	-2.575639e-09	-3.627679e+01	-1.690120e+02
4.000000e-07	-5.097807e-06	-2.604921e-09	-3.616197e+01	-1.690570e+02
4.100000e-07	-5.081142e-06	-2.580153e-09	-3.604375e+01	-1.690832e+02
4.200000e-07	-5.064074e-06	-2.575819e-09	-3.592267e+01	-1.690910e+02
4.300000e-07	-5.046781e-06	-2.601005e-09	-3.580001e+01	-1.690808e+02
4.400000e-07	-5.029201e-06	-2.601634e-09	-3.567530e+01	-1.690531e+02
4.500000e-07	-5.011322e-06	-2.567148e-09	-3.554848e+01	-1.690088e+02
4.600000e-07	-4.993155e-06	-2.575031e-09	-3.541961e+01	-1.689486e+02
4.700000e-07	-4.974569e-06	-2.581613e-09	-3.528776e+01	-1.688736e+02
4.800000e-07	-4.955507e-06	-2.572886e-09	-3.515255e+01	-1.687849e+02
4.900000e-07	-4.936038e-06	-2.569439e-09	-3.501444e+01	-1.686836e+02
5.000000e-07	-4.916278e-06	-2.575865e-09	-3.487426e+01	-1.685709e+02
5.100000e-07	-4.896304e-06	-2.566937e-09	-3.473258e+01	-1.684480e+02
5.200000e-07	-4.876154e-06	-2.572887e-09	-3.458964e+01	-1.683162e+02
5.300000e-07	-4.855809e-06	-2.579092e-09	-3.444532e+01	-1.681767e+02
5.400000e-07	-4.835097e-06	-2.568818e-09	-3.429840e+01	-1.680307e+02
5.500000e-07	-4.813973e-06	-2.564961e-09	-3.414855e+01	-1.678793e+02
5.600000e-07	-4.792544e-06	-2.574692e-09	-3.399655e+01	-1.677237e+02
5.700000e-07	-4.770767e-06	-2.568807e-09	-3.384206e+01	-1.675648e+02
5.800000e-07	-4.748716e-06	-2.551118e-09	-3.368564e+01	-1.674036e+02
5.900000e-07	-4.726494e-06	-2.546341e-09	-3.352801e+01	-1.672408e+02
6.000000e-07	-4.703909e-06	-2.547357e-09	-3.336780e+01	-1.670773e+02
6.100000e-07	-4.680866e-06	-2.550691e-09	-3.320434e+01	-1.669137e+02
6.200000e-07	-4.657478e-06	-2.550321e-09	-3.303844e+01	-1.667504e+02
6.300000e-07	-4.633815e-06	-2.549445e-09	-3.287058e+01	-1.665880e+02
6.400000e-07	-4.609891e-06	-2.546665e-09	-3.270087e+01	-1.664266e+02
6.500000e-07	-4.585813e-06	-2.549714e-09	-3.253007e+01	-1.662665e+02
6.600000e-07	-4.561567e-06	-2.539649e-09	-3.235808e+01	-1.661079e+02
6.700000e-07	-4.536978e-06	-2.526620e-09	-3.218365e+01	-1.659507e+02
6.800000e-07	-4.511965e-06	-2.519064e-09	-3.200622e+01	-1.657948e+02
6.900000e-07	-4.486469e-06	-2.526623e-09	-3.182536e+01	-1.656401e+02
7.000000e-07	-4.460398e-06	-2.527102e-09	-3.164042e+01	-1.654864e+02
7.100000e-07	-4.433700e-06	-2.524688e-09	-3.145104e+01	-1.653333e+02
7.200000e-07	-4.406513e-06	-2.518278e-09	-3.125819e+01	-1.651806e+02
7.300000e-07	-4.379078e-06	-2.521590e-09	-3.106357e+01	-1.650279e+02
7.400000e-07	-4.351366e-06	-2.518257e-09	-3.086699e+01	-1.648747e+02
7.500000e-07	-4.323420e-06	-2.511056e-09	-3.066875e+01	-1.647207e+02
7.600000e-07	-4.295304e-06	-2.501045e-09	-3.046930e+01	-1.645653e+02
7.700000e-07	-4.266953e-06	-2.500563e-09	-3.026819e+01	-1.644082e+02
7.800000e-07	-4.238351e-06	-2.501590e-09	-3.006530e+01	-1.642487e+02
7.900000e-07	-4.209480e-06	-2.502117e-09	-2.986050e+01	-1.640866e+02
8.000000e-07	-4.180251e-06	-2.497487e-09	-2.965316e+01	-1.639213e+02
8.100000e-07	-4.150709e-06	-2.495954e-09	-2.944360e+01	-1.637525e+02
8.200000e-07	-4.120947e-06	-2.494529e-09	-2.923248e+01	-1.635796e+02
8.300000e-07	-4.090919e-06	-2.490154e-09	-2.901948e+01	-1.634023e+02
8.400000e-07	-4.060605e-06	-2.481256e-09	-2.880444e+01	-1.632203e+02
8.500000e-07	-4.030038e-06	-2.473292e-09	-2.858760e+01	-1.630333e+02
8.600000e-07	-3.999197e-06	-2.469220e-09	-2.836883e+01	-1.628409e+02
8.700000e-07	-3.968083e-06	-2.466360e-09	-2.814812e+01	-1.626428e+02
8.800000e-07	-3.936729e-06	-2.461830e-09	-2.792570e+01	-1.624390e+02
8.900000e-07	-3.905097e-06	-2.456513e-09	-2.770132e+01	-1.622291e+02
9.000000e-07	-3.873251e-06	-2.457154e-09	-2.747542e+01	-1.620131e+02
9.100000e-07	-3.841306e-06	-2.455630e-09	-2.724881e+01	-1.617907e+02
9.200000e-07	-3.809185e-06	-2.449783e-09	-2.702096e+01	-1.615621e+02
9.300000e-07	-3.776858e-06	-2.442895e-09	-2.679164e+01	-1.613270e+02
9.400000e-07	-3.744276e-06	-2.442641e-09	-2.656052e+01	-1.610856e+02
9.500000e-07	-3.711413e-06	-2.441933e-09	-2.632740e+01	-1.608379e+02
9.600000e-07	-3.678116e-06	-2.438993e-09	-2.609120e+01	-1.605838e+02
9.700000e-07	-3.644281e-06	-2.430877e-09	-2.585119e+01	-1.603237e+02
9.800000e-07	-3.610033e-06	-2.425495e-09	-2.560824e+01	-1.600576e+02
9.900000e-07	-3.575428e-06	-2.420152e-09	-2.536277e+01	-1.597856e+02
1.000000e-06	-3.540464e-06	-2.416902e-09	-2.511475e+01	-1.595080e+02
1.010000e-06	-3.505127e-06	-2.413957e-09	-2.486408e+01	-1.592251e+02
1.020000e-06	-3.469589e-06	-2.413401e-09	-2.461199e+01	-1.589370e+02
1.030000e-06	-3.433893e-06	-2.410305e-09	-2.435877e+01	-1.586441e+02
1.040000e-06	-3.397957e-06	-2.405780e-09	-2.410386e+01	-1.583467e+02
1.050000e-06	-3.361849e-06	-2.394373e-09	-2.384772e+01	-1.580450e+02
1.060000e-06	-3.325684e-06	-2.383381e-09	-2.359118e+01	-1.577395e+02
1.070000e-06	-3.289308e-06	-2.375762e-09	-2.333314e+01	-1.574304e+02
1.080000e-06	-3.252658e-06	-2.370705e-09	-2.307316e+01	-1.571180e+02
1.090000e-06	-3.215830e-06	-2.364030e-09	-2.281191e+01	-1.568027e+02
1.100000e-06	-3.178824e-06	-2.360069e-09	-2.254940e+01	-1.564847e+02
1.110000e-06	-3.141537e-06	-2.356946e-09	-2.228491e+01	-1.561645e+02
1.120000e-06	-3.103916e-06	-2.352900e-09	-2.201804e+01	-1.558421e+02
1.130000e-06	-3.066136e-06	-2.347061e-09	-2.175004e+01	-1.555179e+02
1.140000e-06	-3.028261e-06	-2.339514e-09	-2.148137e+01	-1.551920e+02
1.150000e-06	-2.990124e-06	-2.331927e-09	-2.121084e+01	-1.548646e+02
1.160000e-06	-2.951780e-06	-2.325214e-09	-2.093884e+01	-1.545358e+02
1.170000e-06	-2.913138e-06	-2.318574e-09	-2.066473e+01	-1.542056e+02
1.180000e-06	-2.874230e-06	-2.309461e-09	-2.038873e+01	-1.538740e+02
1.190000e-06	-2.835211e-06	-2.302782e-09	-2.011194e+01	-1.535409e+02
1.200000e-06	-2.796038e-06	-2.299001e-09	-1.983407e+01	-1.532062e+02
1.210000e-06	-2.756710e-06	-2.295365e-09	-1.955509e+01	-1.528697e+02
1.220000e-06	-2.717091e-06	-2.289518e-09	-1.927405e+01	-1.525310e+02
1.230000e-06	-2.677250e-06	-2.282828e-09	-1.899143e+01	-1.521899e+02
1.240000e-06	-2.637294e-06	-2.274096e-09	-1.870799e+01	-1.518460e+02
1.250000e-06	-2.597299e-06	-2.266411e-09	-1.842428e+01	-1.514987e+02
1.260000e-06	-2.557299e-06	-2.259516e-09	-1.814054e+01	-1.511475e+02
1.270000e-06	-2.517186e-06	-2.254440e-09	-1.785599e+01	-1.507918e+02
1.280000e-06	-2.476901e-06	-2.248029e-09	-1.757023e+01	-1.504311e+02
1.290000e-06	-2.436475e-06	-2.241010e-09	-1.728345e+01	-1.500646e+02
1.300000e-06	-2.395833e-06	-2.233425e-09	-1.699516e+01	-1.496916e+02
1.310000e-06	-2.354903e-06	-2.228354e-09	-1.670481e+01	-1.493113e+02
1.320000e-06	-2.313792e-06	-2.222484e-09	-1.641319e+01	-1.489231e+02
1.330000e-06	-2.272546e-06	-2.214051e-09	-1.612061e+01	-1.485261e+02
1.340000e-06	-2.231106e-06	-2.204974e-09	-1.582665e+01	-1.481196e+02
1.350000e-06	-2.189488e-06	-2.199119e-09	-1.553142e+01	-1.477028e+02
1.360000e-06	-2.147573e-06	-2.194244e-09	-1.523409e+01	-1.472750e+02
1.370000e-06	-2.105339e-06	-2.188007e-09	-1.493450e+01	-1.468356e+02
1.380000e-06	-2.062842e-06	-2.177705e-09	-1.463304e+01	-1.463837e+02
1.390000e-06	-2.019959e-06	-2.166763e-09	-1.432885e+01	-1.459189e+02
1.400000e-06	-1.976859e-06	-2.159758e-09	-1.402311e+01	-1.454404e+02
1.410000e-06	-1.933611e-06	-2.153915e-09	-1.371632e+01	-1.449479e+02
1.420000e-06	-1.890214e-06	-2.143904e-09	-1.340848e+01	-1.444408e+02
1.430000e-06	-1.846713e-06	-2.133070e-09	-1.309990e+01	-1.439186e+02
1.440000e-06	-1.803040e-06	-2.125759e-09	-1.279010e+01	-1.433811e+02
1.450000e-06	-1.759262e-06	-2.120150e-09	-1.247955e+01	-1.428279e+02
1.460000e-06	-1.715353e-06	-2.111081e-09	-1.216809e+01	-1.422588e+02
1.470000e-06	-1.671381e-06	-2.097610e-09	-1.185616e+01	-1.416736e+02
1.480000e-06	-1.627434e-06	-2.084482e-09	-1.154442e+01	-1.410721e+02
1.490000e-06	-1.583416e-06	-2.074169e-09	-1.123217e+01	-1.404541e+02
1.500000e-06	-1.539240e-06	-2.063588e-09	-1.091880e+01	-1.398196e+02
1.510000e-06	-1.494947e-06	-2.049951e-09	-1.060461e+01	-1.391686e+02
1.520000e-06	-1.450617e-06	-2.038221e-09	-1.029014e+01	-1.385009e+02
1.530000e-06	-1.406228e-06	-2.030922e-09	-9.975265e+00	-1.378164e+02
1.540000e-06	-1.361791e-06	-2.025954e-09	-9.660046e+00	-1.371151e+02
1.550000e-06	-1.317293e-06	-2.017169e-09	-9.344394e+00	-1.363969e+02
1.560000e-06	-1.272659e-06	-2.006087e-09	-9.027775e+00	-1.356615e+02
1.570000e-06	-1.227960e-06	-1.994721e-09	-8.710694e+00	-1.349089e+02
1.580000e-06	-1.183158e-06	-1.982471e-09	-8.392887e+00	-1.341388e+02
1.590000e-06	-1.138281e-06	-1.967675e-09	-8.074549e+00	-1.333508e+02
1.600000e-06	-1.093356e-06	-1.949401e-09	-7.755862e+00	-1.325445e+02
1.610000e-06	-1.048298e-06	-1.934388e-09	-7.436238e+00	-1.317195e+02
1.620000e-06	-1.003141e-06	-1.923768e-09	-7.115911e+00	-1.308753e+02
1.630000e-06	-9.578959e-07	-1.913724e-09	-6.794961e+00	-1.300110e+02
1.640000e-06	-9.124986e-07	-1.902466e-09	-6.472929e+00	-1.291261e+02
1.650000e-06	-8.670010e-07	-1.892102e-09	-6.150186e+00	-1.282197e+02
1.660000e-06	-8.214958e-07	-1.884436e-09	-5.827389e+00	-1.272907e+02
1.670000e-06	-7.759783e-07	-1.872634e-09	-5.504504e+00	-1.263381e+02
1.680000e-06	-7.304585e-07	-1.853143e-09	-5.181604e+00	-1.253609e+02
1.690000e-06	-6.849130e-07	-1.827074e-09	-4.858521e+00	-1.243576e+02
1.700000e-06	-6.392867e-07	-1.803101e-09	-4.534864e+00	-1.233270e+02
1.710000e-06	-5.935502e-07	-1.783196e-09	-4.210427e+00	-1.222677e+02
1.720000e-06	-5.478365e-07	-1.766463e-09	-3.886150e+00	-1.211780e+02
1.730000e-06	-5.021399e-07	-1.755858e-09	-3.561996e+00	-1.200566e+02
1.740000e-06	-4.563012e-07	-1.752032e-09	-3.236833e+00	-1.189016e+02
1.750000e-06	-4.104032e-07	-1.745166e-09	-2.911250e+00	-1.177114e+02
1.760000e-06	-3.645636e-07	-1.728949e-09	-2.586080e+00	-1.164842e+02
1.770000e-06	-3.187159e-07	-1.703358e-09	-2.260854e+00	-1.152181e+02
1.780000e-06	-2.728587e-07	-1.674422e-09	-1.935559e+00	-1.139115e+02
1.790000e-06	-2.269630e-07	-1.645471e-09	-1.609992e+00	-1.125622e+02
1.800000e-06	-1.810112e-07	-1.615868e-09	-1.284027e+00	-1.111685e+02
1.810000e-06	-1.350749e-07	-1.592180e-09	-9.581715e-01	-1.097284e+02
1.820000e-06	-8.910122e-08	-1.579803e-09	-6.320512e-01	-1.082400e+02
1.830000e-06	-4.318166e-08	-1.571983e-09	-3.063148e-01	-1.067013e+02
1.840000e-06	2.706941e-09	-1.557199e-09	1.920204e-02	-1.051103e+02
1.850000e-06	4.875241e-08	-1.531511e-09	3.458317e-01	-1.034651e+02
1.860000e-06	9.486072e-08	-1.498605e-09	6.729071e-01	-1.017637e+02
1.870000e-06	1.408518e-07	-1.463020e-09	9.991505e-01	-1.000042e+02
1.880000e-06	1.867422e-07	-1.427767e-09	1.324680e+00	-9.818465e+01
1.890000e-06	2.325846e-07	-1.394948e-09	1.649870e+00	-9.630314e+01
1.900000e-06	2.784424e-07	-1.367028e-09	1.975168e+00	-9.435779e+01
1.910000e-06	3.243629e-07	-1.343257e-09	2.300911e+00	-9.234674e+01
1.920000e-06	3.702200e-07	-1.318765e-09	2.626205e+00	-9.026817e+01
1.930000e-06	4.159982e-07	-1.290519e-09	2.950938e+00	-8.812031e+01
1.940000e-06	4.617495e-07	-1.257347e-09	3.275481e+00	-8.590145e+01
1.950000e-06	5.074958e-07	-1.223680e-09	3.599988e+00	-8.360994e+01
1.960000e-06	5.531776e-07	-1.185956e-09	3.924038e+00	-8.124423e+01
1.970000e-06	5.987578e-07	-1.141796e-09	4.247368e+00	-7.880285e+01
1.980000e-06	6.443071e-07	-1.096295e-09	4.570478e+00	-7.628446e+01
1.990000e-06	6.897854e-07	-1.057576e-09	4.893084e+00	-7.368784e+01
2.000000e-06	7.351986e-07	-1.024252e-09	5.215228e+00	-7.101193e+01
2.010000e-06	7.805356e-07	-9.884490e-10	5.536832e+00	-6.825584e+01
2.020000e-06	8.258286e-07	-9.474136e-10	5.858124e+00	-6.541889e+01
2.030000e-06	8.711328e-07	-9.059480e-10	6.179495e+00	-6.250062e+01
2.040000e-06	9.162993e-07	-8.640553e-10	6.499890e+00	-5.950081e+01
2.050000e-06	9.614294e-07	-8.173548e-10	6.820027e+00	-5.641953e+01
2.060000e-06	1.006620e-06	-7.682641e-10	7.140591e+00	-5.325713e+01
2.070000e-06	1.051613e-06	-7.205900e-10	7.459754e+00	-5.001431e+01
2.080000e-06	1.096449e-06	-6.764742e-10	7.777808e+00	-4.669210e+01
2.090000e-06	1.141240e-06	-6.326513e-10	8.095535e+00	-4.329190e+01
2.100000e-06	1.185923e-06	-5.827525e-10	8.412504e+00	-3.981553e+01
2.110000e-06	1.230613e-06	-5.292169e-10	8.729514e+00	-3.626519e+01
2.120000e-06	1.275278e-06	-4.755613e-10	9.046355e+00	-3.264351e+01
2.130000e-06	1.319829e-06	-4.203941e-10	9.362380e+00	-2.895358e+01
2.140000e-06	1.364247e-06	-3.626049e-10	9.677470e+00	-2.519891e+01
2.150000e-06	1.408573e-06	-3.034112e-10	9.991902e+00	-2.138346e+01
2.160000e-06	1.452894e-06	-2.452362e-10	1.030630e+01	-1.751163e+01
2.170000e-06	1.497155e-06	-1.883576e-10	1.062026e+01	-1.358828e+01
2.180000e-06	1.541329e-06	-1.281807e-10	1.093362e+01	-9.618644e+00
2.190000e-06	1.585467e-06	-6.440955e-11	1.124672e+01	-5.608400e+00
2.200000e-06	1.629569e-06	-3.016158e-12	1.155956e+01	-1.563584e+00
2.210000e-06	1.673590e-06	5.610342e-11	1.187183e+01	2.509421e+00
2.220000e-06	1.717566e-06	1.166607e-10	1.218378e+01	6.603919e+00
2.230000e-06	1.761425e-06	1.800102e-10	1.249490e+01	1.071295e+01
2.240000e-06	1.805152e-06	2.426782e-10	1.280508e+01	1.482932e+01
2.250000e-06	1.848860e-06	3.030855e-10	1.311513e+01	1.894569e+01
2.260000e-06	1.892476e-06	3.635757e-10	1.342453e+01	2.305457e+01
2.270000e-06	1.935890e-06	4.268797e-10	1.373249e+01	2.714844e+01
2.280000e-06	1.979082e-06	4.896214e-10	1.403888e+01	3.121977e+01
2.290000e-06	2.022225e-06	5.480082e-10	1.434492e+01	3.526107e+01
2.300000e-06	2.065216e-06	6.054929e-10	1.464988e+01	3.926502e+01
2.310000e-06	2.107860e-06	6.637685e-10	1.495239e+01	4.322444e+01
2.320000e-06	2.150257e-06	7.202680e-10	1.525313e+01	4.713243e+01
2.330000e-06	2.192349e-06	7.742238e-10	1.555172e+01	5.098238e+01
2.340000e-06	2.234192e-06	8.277401e-10	1.584854e+01	5.476804e+01
2.350000e-06	2.275800e-06	8.844829e-10	1.614369e+01	5.848358e+01
2.360000e-06	2.316886e-06	9.402756e-10	1.643514e+01	6.212363e+01
2.370000e-06	2.357597e-06	9.902497e-10	1.672393e+01	6.568332e+01
2.380000e-06	2.398241e-06	1.037772e-09	1.701224e+01	6.915832e+01
2.390000e-06	2.438770e-06	1.086003e-09	1.729974e+01	7.254488e+01
2.400000e-06	2.479127e-06	1.131570e-09	1.758602e+01	7.583981e+01
2.410000e-06	2.519291e-06	1.172336e-09	1.787092e+01	7.904055e+01
2.420000e-06	2.559331e-06	1.212806e-09	1.815495e+01	8.214515e+01
2.430000e-06	2.599356e-06	1.258608e-09	1.843888e+01	8.515225e+01
2.440000e-06	2.639267e-06	1.307143e-09	1.872199e+01	8.806112e+01
2.450000e-06	2.679067e-06	1.348404e-09	1.900431e+01	9.087159e+01
2.460000e-06	2.718761e-06	1.382300e-09	1.928589e+01	9.358407e+01
2.470000e-06	2.758271e-06	1.415347e-09	1.956616e+01	9.619949e+01
2.480000e-06	2.797618e-06	1.450271e-09	1.984527e+01	9.871927e+01
2.490000e-06	2.836728e-06	1.483866e-09	2.012270e+01	1.011453e+02
2.500000e-06	2.875584e-06	1.515417e-09	2.039833e+01	1.034799e+02
2.510000e-06	2.914243e-06	1.550706e-09	2.067257e+01	1.057256e+02
2.520000e-06	2.952757e-06	1.587873e-09	2.094577e+01	1.078855e+02
2.530000e-06	2.991039e-06	1.619017e-09	2.121733e+01	1.099626e+02
2.540000e-06	3.029084e-06	1.642050e-09	2.148721e+01	1.119605e+02
2.550000e-06	3.067045e-06	1.666036e-09	2.175649e+01	1.138825e+02
2.560000e-06	3.104803e-06	1.692686e-09	2.202433e+01	1.157323e+02
2.570000e-06	3.142274e-06	1.717287e-09	2.229014e+01	1.175134e+02
2.580000e-06	3.179462e-06	1.741763e-09	2.255393e+01	1.192294e+02
2.590000e-06	3.216375e-06	1.766732e-09	2.281578e+01	1.208839e+02
2.600000e-06	3.253071e-06	1.794309e-09	2.307609e+01	1.224801e+02
2.610000e-06	3.289545e-06	1.817242e-09	2.333482e+01	1.240212e+02
2.620000e-06	3.325810e-06	1.837187e-09	2.359207e+01	1.255104e+02
2.630000e-06	3.361932e-06	1.858211e-09	2.384831e+01	1.269502e+02
2.640000e-06	3.397982e-06	1.881509e-09	2.410403e+01	1.283434e+02
2.650000e-06	3.433879e-06	1.903447e-09	2.435867e+01	1.296921e+02
2.660000e-06	3.469596e-06	1.921089e-09	2.461204e+01	1.309984e+02
2.670000e-06	3.505142e-06	1.938718e-09	2.486418e+01	1.322640e+02
2.680000e-06	3.540440e-06	1.955417e-09	2.511458e+01	1.334905e+02
2.690000e-06	3.575453e-06	1.970490e-09	2.536295e+01	1.346790e+02
2.700000e-06	3.610059e-06	1.983486e-09	2.560843e+01	1.358305e+02
2.710000e-06	3.644138e-06	1.995853e-09	2.585017e+01	1.369459e+02
2.720000e-06	3.677754e-06	2.014270e-09	2.608863e+01	1.380257e+02
2.730000e-06	3.710968e-06	2.034742e-09	2.632424e+01	1.390703e+02
2.740000e-06	3.743831e-06	2.050434e-09	2.655736e+01	1.400801e+02
2.750000e-06	3.776381e-06	2.064024e-09	2.678826e+01	1.410553e+02
2.760000e-06	3.808652e-06	2.076836e-09	2.701718e+01	1.419959e+02
2.770000e-06	3.840723e-06	2.088511e-09	2.724467e+01	1.429021e+02
2.780000e-06	3.872659e-06	2.098397e-09	2.747122e+01	1.437740e+02
2.790000e-06	3.904484e-06	2.108432e-09	2.769698e+01	1.446116e+02
2.800000e-06	3.936166e-06	2.120515e-09	2.792171e+01	1.454152e+02
2.810000e-06	3.967624e-06	2.137106e-09	2.814486e+01	1.461849e+02
2.820000e-06	3.998690e-06	2.151406e-09	2.836524e+01	1.469213e+02
2.830000e-06	4.029417e-06	2.160425e-09	2.858320e+01	1.476246e+02
2.840000e-06	4.059915e-06	2.168214e-09	2.879955e+01	1.482957e+02
2.850000e-06	4.090082e-06	2.177688e-09	2.901354e+01	1.489351e+02
2.860000e-06	4.119995e-06	2.186799e-09	2.922573e+01	1.495439e+02
2.870000e-06	4.149669e-06	2.194383e-09	2.943623e+01	1.501230e+02
2.880000e-06	4.179082e-06	2.201081e-09	2.964487e+01	1.506738e+02
2.890000e-06	4.208324e-06	2.208331e-09	2.985230e+01	1.511975e+02
2.900000e-06	4.237274e-06	2.215347e-09	3.005766e+01	1.516955e+02
