# Temperatura_=_19.4
# Concentracion g/m^3_=_4090.0
# C_Vs_to_Am_M_A/Vsm_=_65563218390.804596
# pendiente_HvsI_1/m_=_3716.3
# ordenada_HvsI_A/m_=_1297.0
# frecuencia_Hz_=_135076.93881106738

Tiempo_(s)	Campo_(V.s)	Magnetizacion_(V.s)	Campo_(kA/m)	Magnetizacion_(A/m)
0.000000e+00	-5.413116e-06	-2.678523e-09	-3.839685e+01	-1.730250e+02
1.000000e-08	-5.413186e-06	-2.674645e-09	-3.839735e+01	-1.729801e+02
2.000000e-08	-5.413067e-06	-2.671404e-09	-3.839650e+01	-1.729337e+02
3.000000e-08	-5.412574e-06	-2.674813e-09	-3.839301e+01	-1.728871e+02
4.000000e-08	-5.411541e-06	-2.674904e-09	-3.838568e+01	-1.728421e+02
5.000000e-08	-5.409987e-06	-2.668205e-09	-3.837466e+01	-1.728002e+02
6.000000e-08	-5.407853e-06	-2.666449e-09	-3.835952e+01	-1.727630e+02
7.000000e-08	-5.405107e-06	-2.673577e-09	-3.834005e+01	-1.727322e+02
8.000000e-08	-5.401803e-06	-2.680231e-09	-3.831661e+01	-1.727093e+02
9.000000e-08	-5.397952e-06	-2.694222e-09	-3.828929e+01	-1.726959e+02
1.000000e-07	-5.393684e-06	-2.685093e-09	-3.825902e+01	-1.726933e+02
1.100000e-07	-5.389302e-06	-2.632987e-09	-3.822794e+01	-1.727027e+02
1.200000e-07	-5.384906e-06	-2.647668e-09	-3.819675e+01	-1.727251e+02
1.300000e-07	-5.380149e-06	-2.686495e-09	-3.816301e+01	-1.727612e+02
1.400000e-07	-5.374749e-06	-2.679754e-09	-3.812471e+01	-1.728117e+02
1.500000e-07	-5.368982e-06	-2.616578e-09	-3.808380e+01	-1.728769e+02
1.600000e-07	-5.362984e-06	-2.607658e-09	-3.804125e+01	-1.729567e+02
1.700000e-07	-5.356608e-06	-2.711078e-09	-3.799602e+01	-1.730510e+02
1.800000e-07	-5.349648e-06	-2.677637e-09	-3.794666e+01	-1.731591e+02
1.900000e-07	-5.342257e-06	-2.616861e-09	-3.789423e+01	-1.732803e+02
2.000000e-07	-5.334809e-06	-2.605986e-09	-3.784140e+01	-1.734136e+02
2.100000e-07	-5.327198e-06	-2.692071e-09	-3.778742e+01	-1.735575e+02
2.200000e-07	-5.319267e-06	-2.661064e-09	-3.773115e+01	-1.737104e+02
2.300000e-07	-5.311088e-06	-2.639573e-09	-3.767314e+01	-1.738707e+02
2.400000e-07	-5.302550e-06	-2.696386e-09	-3.761258e+01	-1.740363e+02
2.500000e-07	-5.293259e-06	-2.745645e-09	-3.754668e+01	-1.742052e+02
2.600000e-07	-5.283054e-06	-2.691969e-09	-3.747428e+01	-1.743750e+02
2.700000e-07	-5.272268e-06	-2.678038e-09	-3.739778e+01	-1.745434e+02
2.800000e-07	-5.261164e-06	-2.730212e-09	-3.731901e+01	-1.747081e+02
2.900000e-07	-5.249686e-06	-2.704379e-09	-3.723759e+01	-1.748667e+02
3.000000e-07	-5.237801e-06	-2.650321e-09	-3.715329e+01	-1.750169e+02
3.100000e-07	-5.225561e-06	-2.689737e-09	-3.706647e+01	-1.751563e+02
3.200000e-07	-5.212912e-06	-2.757871e-09	-3.697674e+01	-1.752829e+02
3.300000e-07	-5.199813e-06	-2.685749e-09	-3.688383e+01	-1.753946e+02
3.400000e-07	-5.186354e-06	-2.649832e-09	-3.678836e+01	-1.754896e+02
3.500000e-07	-5.172526e-06	-2.696292e-09	-3.669028e+01	-1.755663e+02
3.600000e-07	-5.158328e-06	-2.721172e-09	-3.658956e+01	-1.756231e+02
3.700000e-07	-5.143758e-06	-2.659184e-09	-3.648622e+01	-1.756591e+02
3.800000e-07	-5.128650e-06	-2.669292e-09	-3.637905e+01	-1.756733e+02
3.900000e-07	-5.112798e-06	-2.682780e-09	-3.626661e+01	-1.756649e+02
4.000000e-07	-5.096389e-06	-2.672816e-09	-3.615022e+01	-1.756338e+02
4.100000e-07	-5.079693e-06	-2.670669e-09	-3.603178e+01	-1.755797e+02
4.200000e-07	-5.062710e-06	-2.689339e-09	-3.591132e+01	-1.755029e+02
4.300000e-07	-5.045377e-06	-2.642527e-09	-3.578837e+01	-1.754038e+02
4.400000e-07	-5.027845e-06	-2.643420e-09	-3.566401e+01	-1.752831e+02
4.500000e-07	-5.010066e-06	-2.679573e-09	-3.553790e+01	-1.751416e+02
4.600000e-07	-4.991891e-06	-2.672663e-09	-3.540898e+01	-1.749804e+02
4.700000e-07	-4.973270e-06	-2.622176e-09	-3.527689e+01	-1.748009e+02
4.800000e-07	-4.954197e-06	-2.647865e-09	-3.514160e+01	-1.746043e+02
4.900000e-07	-4.934770e-06	-2.670905e-09	-3.500380e+01	-1.743923e+02
5.000000e-07	-4.915100e-06	-2.652094e-09	-3.486427e+01	-1.741665e+02
5.100000e-07	-4.895236e-06	-2.628962e-09	-3.472338e+01	-1.739284e+02
5.200000e-07	-4.875153e-06	-2.633193e-09	-3.458092e+01	-1.736799e+02
5.300000e-07	-4.854819e-06	-2.635565e-09	-3.443668e+01	-1.734225e+02
5.400000e-07	-4.834139e-06	-2.642798e-09	-3.428999e+01	-1.731580e+02
5.500000e-07	-4.813093e-06	-2.629202e-09	-3.414071e+01	-1.728879e+02
5.600000e-07	-4.791673e-06	-2.606510e-09	-3.398877e+01	-1.726136e+02
5.700000e-07	-4.769942e-06	-2.613706e-09	-3.383463e+01	-1.723367e+02
5.800000e-07	-4.747941e-06	-2.625440e-09	-3.367857e+01	-1.720583e+02
5.900000e-07	-4.725602e-06	-2.604723e-09	-3.352011e+01	-1.717796e+02
6.000000e-07	-4.702941e-06	-2.583187e-09	-3.335937e+01	-1.715016e+02
6.100000e-07	-4.679908e-06	-2.592119e-09	-3.319599e+01	-1.712250e+02
6.200000e-07	-4.656473e-06	-2.597243e-09	-3.302976e+01	-1.709505e+02
6.300000e-07	-4.632806e-06	-2.594040e-09	-3.286188e+01	-1.706786e+02
6.400000e-07	-4.609008e-06	-2.576075e-09	-3.269307e+01	-1.704097e+02
6.500000e-07	-4.584980e-06	-2.568394e-09	-3.252264e+01	-1.701438e+02
6.600000e-07	-4.560644e-06	-2.571818e-09	-3.235001e+01	-1.698809e+02
6.700000e-07	-4.536004e-06	-2.576859e-09	-3.217524e+01	-1.696210e+02
6.800000e-07	-4.510892e-06	-2.552206e-09	-3.199711e+01	-1.693638e+02
6.900000e-07	-4.485199e-06	-2.541084e-09	-3.181486e+01	-1.691089e+02
7.000000e-07	-4.458928e-06	-2.543684e-09	-3.162851e+01	-1.688558e+02
7.100000e-07	-4.432164e-06	-2.549528e-09	-3.143867e+01	-1.686040e+02
7.200000e-07	-4.405045e-06	-2.535647e-09	-3.124630e+01	-1.683529e+02
7.300000e-07	-4.377580e-06	-2.529947e-09	-3.105149e+01	-1.681018e+02
7.400000e-07	-4.349849e-06	-2.525850e-09	-3.085478e+01	-1.678499e+02
7.500000e-07	-4.321997e-06	-2.527931e-09	-3.065722e+01	-1.675967e+02
7.600000e-07	-4.294075e-06	-2.512995e-09	-3.045916e+01	-1.673413e+02
7.700000e-07	-4.265908e-06	-2.498193e-09	-3.025937e+01	-1.670831e+02
7.800000e-07	-4.237365e-06	-2.491091e-09	-3.005690e+01	-1.668214e+02
7.900000e-07	-4.208420e-06	-2.495027e-09	-2.985158e+01	-1.665555e+02
8.000000e-07	-4.179148e-06	-2.486425e-09	-2.964395e+01	-1.662848e+02
8.100000e-07	-4.149623e-06	-2.476658e-09	-2.943452e+01	-1.660087e+02
8.200000e-07	-4.119885e-06	-2.476569e-09	-2.922358e+01	-1.657268e+02
8.300000e-07	-4.089957e-06	-2.483606e-09	-2.901129e+01	-1.654385e+02
8.400000e-07	-4.059726e-06	-2.479292e-09	-2.879685e+01	-1.651436e+02
8.500000e-07	-4.029197e-06	-2.463357e-09	-2.858030e+01	-1.648416e+02
8.600000e-07	-3.998375e-06	-2.447658e-09	-2.836167e+01	-1.645323e+02
8.700000e-07	-3.967358e-06	-2.443329e-09	-2.814166e+01	-1.642154e+02
8.800000e-07	-3.936132e-06	-2.441747e-09	-2.792016e+01	-1.638909e+02
8.900000e-07	-3.904625e-06	-2.433569e-09	-2.769667e+01	-1.635585e+02
9.000000e-07	-3.872893e-06	-2.429192e-09	-2.747159e+01	-1.632183e+02
9.100000e-07	-3.840984e-06	-2.431313e-09	-2.724525e+01	-1.628702e+02
9.200000e-07	-3.808940e-06	-2.434499e-09	-2.701795e+01	-1.625142e+02
9.300000e-07	-3.776625e-06	-2.424038e-09	-2.678874e+01	-1.621505e+02
9.400000e-07	-3.743940e-06	-2.411380e-09	-2.655689e+01	-1.617790e+02
9.500000e-07	-3.710965e-06	-2.403615e-09	-2.632298e+01	-1.613999e+02
9.600000e-07	-3.677617e-06	-2.404860e-09	-2.608644e+01	-1.610134e+02
9.700000e-07	-3.643770e-06	-2.399482e-09	-2.584635e+01	-1.606197e+02
9.800000e-07	-3.609410e-06	-2.392663e-09	-2.560262e+01	-1.602188e+02
9.900000e-07	-3.574669e-06	-2.388138e-09	-2.535620e+01	-1.598112e+02
1.000000e-06	-3.539707e-06	-2.391035e-09	-2.510820e+01	-1.593969e+02
1.010000e-06	-3.504535e-06	-2.385749e-09	-2.485872e+01	-1.589762e+02
1.020000e-06	-3.469071e-06	-2.374501e-09	-2.460716e+01	-1.585493e+02
1.030000e-06	-3.433322e-06	-2.359573e-09	-2.435358e+01	-1.581167e+02
1.040000e-06	-3.397447e-06	-2.354695e-09	-2.409911e+01	-1.576785e+02
1.050000e-06	-3.361438e-06	-2.349503e-09	-2.384369e+01	-1.572350e+02
1.060000e-06	-3.325250e-06	-2.341024e-09	-2.358700e+01	-1.567865e+02
1.070000e-06	-3.288891e-06	-2.329011e-09	-2.332909e+01	-1.563333e+02
1.080000e-06	-3.252370e-06	-2.323446e-09	-2.307003e+01	-1.558758e+02
1.090000e-06	-3.215613e-06	-2.319223e-09	-2.280931e+01	-1.554142e+02
1.100000e-06	-3.178518e-06	-2.311775e-09	-2.254618e+01	-1.549487e+02
1.110000e-06	-3.141120e-06	-2.299055e-09	-2.228091e+01	-1.544798e+02
1.120000e-06	-3.103511e-06	-2.290830e-09	-2.201414e+01	-1.540076e+02
1.130000e-06	-3.065700e-06	-2.288475e-09	-2.174593e+01	-1.535323e+02
1.140000e-06	-3.027768e-06	-2.284501e-09	-2.147687e+01	-1.530541e+02
1.150000e-06	-2.989723e-06	-2.274413e-09	-2.120700e+01	-1.525732e+02
1.160000e-06	-2.951438e-06	-2.262766e-09	-2.093543e+01	-1.520897e+02
1.170000e-06	-2.912888e-06	-2.253833e-09	-2.066198e+01	-1.516035e+02
1.180000e-06	-2.874093e-06	-2.246448e-09	-2.038680e+01	-1.511147e+02
1.190000e-06	-2.835022e-06	-2.238974e-09	-2.010966e+01	-1.506231e+02
1.200000e-06	-2.795784e-06	-2.229565e-09	-1.983134e+01	-1.501286e+02
1.210000e-06	-2.756417e-06	-2.221248e-09	-1.955209e+01	-1.496308e+02
1.220000e-06	-2.716910e-06	-2.213752e-09	-1.927186e+01	-1.491293e+02
1.230000e-06	-2.677288e-06	-2.204625e-09	-1.899081e+01	-1.486237e+02
1.240000e-06	-2.637512e-06	-2.191009e-09	-1.870867e+01	-1.481135e+02
1.250000e-06	-2.597647e-06	-2.178793e-09	-1.842589e+01	-1.475979e+02
1.260000e-06	-2.557662e-06	-2.165932e-09	-1.814226e+01	-1.470762e+02
1.270000e-06	-2.517547e-06	-2.159765e-09	-1.785772e+01	-1.465475e+02
1.280000e-06	-2.477335e-06	-2.153236e-09	-1.757248e+01	-1.460109e+02
1.290000e-06	-2.436999e-06	-2.145821e-09	-1.728637e+01	-1.454654e+02
1.300000e-06	-2.396517e-06	-2.135959e-09	-1.699922e+01	-1.449098e+02
1.310000e-06	-2.355793e-06	-2.128150e-09	-1.671035e+01	-1.443431e+02
1.320000e-06	-2.314794e-06	-2.115327e-09	-1.641952e+01	-1.437640e+02
1.330000e-06	-2.273530e-06	-2.094780e-09	-1.612683e+01	-1.431713e+02
1.340000e-06	-2.231920e-06	-2.072760e-09	-1.583167e+01	-1.425639e+02
1.350000e-06	-2.190073e-06	-2.058675e-09	-1.553484e+01	-1.419404e+02
1.360000e-06	-2.147951e-06	-2.051733e-09	-1.523606e+01	-1.412997e+02
1.370000e-06	-2.105438e-06	-2.048832e-09	-1.493450e+01	-1.406406e+02
1.380000e-06	-2.062679e-06	-2.042785e-09	-1.463120e+01	-1.399621e+02
1.390000e-06	-2.019699e-06	-2.031978e-09	-1.432633e+01	-1.392632e+02
1.400000e-06	-1.976478e-06	-2.018697e-09	-1.401975e+01	-1.385428e+02
1.410000e-06	-1.933072e-06	-2.002190e-09	-1.371186e+01	-1.378002e+02
1.420000e-06	-1.889597e-06	-1.979339e-09	-1.340348e+01	-1.370347e+02
1.430000e-06	-1.846031e-06	-1.956722e-09	-1.309445e+01	-1.362457e+02
1.440000e-06	-1.802385e-06	-1.940884e-09	-1.278485e+01	-1.354327e+02
1.450000e-06	-1.758669e-06	-1.930947e-09	-1.247477e+01	-1.345954e+02
1.460000e-06	-1.714861e-06	-1.923203e-09	-1.216402e+01	-1.337337e+02
1.470000e-06	-1.670972e-06	-1.913949e-09	-1.185271e+01	-1.328475e+02
1.480000e-06	-1.626992e-06	-1.903735e-09	-1.154074e+01	-1.319367e+02
1.490000e-06	-1.582953e-06	-1.889736e-09	-1.122836e+01	-1.310017e+02
1.500000e-06	-1.538793e-06	-1.871742e-09	-1.091512e+01	-1.300426e+02
1.510000e-06	-1.494539e-06	-1.848891e-09	-1.060121e+01	-1.290598e+02
1.520000e-06	-1.450273e-06	-1.828306e-09	-1.028722e+01	-1.280538e+02
1.530000e-06	-1.405990e-06	-1.814136e-09	-9.973107e+00	-1.270248e+02
1.540000e-06	-1.361609e-06	-1.802068e-09	-9.658302e+00	-1.259735e+02
1.550000e-06	-1.317074e-06	-1.789242e-09	-9.342403e+00	-1.249001e+02
1.560000e-06	-1.272463e-06	-1.777142e-09	-9.025958e+00	-1.238050e+02
1.570000e-06	-1.227874e-06	-1.768337e-09	-8.709680e+00	-1.226887e+02
1.580000e-06	-1.183210e-06	-1.757479e-09	-8.392862e+00	-1.215511e+02
1.590000e-06	-1.138356e-06	-1.735589e-09	-8.074699e+00	-1.203925e+02
1.600000e-06	-1.093402e-06	-1.710919e-09	-7.755828e+00	-1.192127e+02
1.610000e-06	-1.048346e-06	-1.690205e-09	-7.436233e+00	-1.180114e+02
1.620000e-06	-1.003156e-06	-1.671838e-09	-7.115683e+00	-1.167882e+02
1.630000e-06	-9.579425e-07	-1.650569e-09	-6.794973e+00	-1.155423e+02
1.640000e-06	-9.126855e-07	-1.630093e-09	-6.473952e+00	-1.142728e+02
1.650000e-06	-8.672737e-07	-1.616655e-09	-6.151832e+00	-1.129786e+02
1.660000e-06	-8.217667e-07	-1.607504e-09	-5.829038e+00	-1.116583e+02
1.670000e-06	-7.762897e-07	-1.590626e-09	-5.506455e+00	-1.103102e+02
1.680000e-06	-7.307866e-07	-1.564912e-09	-5.183688e+00	-1.089324e+02
1.690000e-06	-6.852137e-07	-1.538940e-09	-4.860426e+00	-1.075228e+02
1.700000e-06	-6.396033e-07	-1.518078e-09	-4.536898e+00	-1.060791e+02
1.710000e-06	-5.939194e-07	-1.493646e-09	-4.212848e+00	-1.045987e+02
1.720000e-06	-5.482167e-07	-1.466601e-09	-3.888666e+00	-1.030791e+02
1.730000e-06	-5.025449e-07	-1.444420e-09	-3.564701e+00	-1.015175e+02
1.740000e-06	-4.567865e-07	-1.428702e-09	-3.240123e+00	-9.991092e+01
1.750000e-06	-4.109852e-07	-1.411111e-09	-2.915241e+00	-9.825651e+01
1.760000e-06	-3.652552e-07	-1.385505e-09	-2.590865e+00	-9.655132e+01
1.770000e-06	-3.194117e-07	-1.357776e-09	-2.265683e+00	-9.479245e+01
1.780000e-06	-2.735165e-07	-1.333190e-09	-1.940135e+00	-9.297709e+01
1.790000e-06	-2.276856e-07	-1.305982e-09	-1.615043e+00	-9.110252e+01
1.800000e-06	-1.817921e-07	-1.270474e-09	-1.289506e+00	-8.916623e+01
1.810000e-06	-1.358742e-07	-1.235956e-09	-9.637962e-01	-8.716588e+01
1.820000e-06	-8.998002e-08	-1.208246e-09	-6.382552e-01	-8.509940e+01
1.830000e-06	-4.401409e-08	-1.181625e-09	-3.122052e-01	-8.296501e+01
1.840000e-06	1.955956e-09	-1.149077e-09	1.387418e-02	-8.076123e+01
1.850000e-06	4.788027e-08	-1.111859e-09	3.396291e-01	-7.848695e+01
1.860000e-06	9.388426e-08	-1.075619e-09	6.659492e-01	-7.614142e+01
1.870000e-06	1.397930e-07	-1.039933e-09	9.915934e-01	-7.372428e+01
1.880000e-06	1.855648e-07	-9.987785e-10	1.316266e+00	-7.123559e+01
1.890000e-06	2.314515e-07	-9.551299e-10	1.641755e+00	-6.867579e+01
1.900000e-06	2.774175e-07	-9.155241e-10	1.967806e+00	-6.604576e+01
1.910000e-06	3.233569e-07	-8.789500e-10	2.293667e+00	-6.334675e+01
1.920000e-06	3.692705e-07	-8.372575e-10	2.619346e+00	-6.058043e+01
1.930000e-06	4.151193e-07	-7.924685e-10	2.944565e+00	-5.774884e+01
1.940000e-06	4.608470e-07	-7.499030e-10	3.268926e+00	-5.485435e+01
1.950000e-06	5.065719e-07	-7.084640e-10	3.593267e+00	-5.189966e+01
1.960000e-06	5.523570e-07	-6.624694e-10	3.918034e+00	-4.888776e+01
1.970000e-06	5.980288e-07	-6.138221e-10	4.241998e+00	-4.582190e+01
1.980000e-06	6.436028e-07	-5.665350e-10	4.565267e+00	-4.270553e+01
1.990000e-06	6.891521e-07	-5.223661e-10	4.888362e+00	-3.954228e+01
2.000000e-06	7.346703e-07	-4.762008e-10	5.211237e+00	-3.633590e+01
2.010000e-06	7.802024e-07	-4.261613e-10	5.534210e+00	-3.309025e+01
2.020000e-06	8.256840e-07	-3.770210e-10	5.856824e+00	-2.980921e+01
2.030000e-06	8.711098e-07	-3.299566e-10	6.179043e+00	-2.649669e+01
2.040000e-06	9.164790e-07	-2.787149e-10	6.500860e+00	-2.315655e+01
2.050000e-06	9.617491e-07	-2.241421e-10	6.821975e+00	-1.979260e+01
2.060000e-06	1.006929e-06	-1.731984e-10	7.142452e+00	-1.640853e+01
2.070000e-06	1.052037e-06	-1.279101e-10	7.462410e+00	-1.300794e+01
2.080000e-06	1.097064e-06	-8.235029e-11	7.781803e+00	-9.594257e+00
2.090000e-06	1.141940e-06	-3.223866e-11	8.100119e+00	-6.170746e+00
2.100000e-06	1.186675e-06	1.851155e-11	8.417438e+00	-2.740505e+00
2.110000e-06	1.231272e-06	6.923742e-11	8.733783e+00	6.935566e-01
2.120000e-06	1.275750e-06	1.218113e-10	9.049280e+00	4.128713e+00
2.130000e-06	1.320172e-06	1.770964e-10	9.364374e+00	7.562421e+00
2.140000e-06	1.364528e-06	2.312996e-10	9.679004e+00	1.099231e+01
2.150000e-06	1.408814e-06	2.812680e-10	9.993141e+00	1.441617e+01
2.160000e-06	1.453017e-06	3.265964e-10	1.030668e+01	1.783195e+01
2.170000e-06	1.497184e-06	3.723319e-10	1.061998e+01	2.123770e+01
2.180000e-06	1.541346e-06	4.229657e-10	1.093323e+01	2.463159e+01
2.190000e-06	1.585398e-06	4.755595e-10	1.124570e+01	2.801188e+01
2.200000e-06	1.629386e-06	5.269218e-10	1.155772e+01	3.137688e+01
2.210000e-06	1.673327e-06	5.792750e-10	1.186941e+01	3.472491e+01
2.220000e-06	1.717209e-06	6.324579e-10	1.218067e+01	3.805433e+01
2.230000e-06	1.761087e-06	6.830079e-10	1.249192e+01	4.136348e+01
2.240000e-06	1.804917e-06	7.282106e-10	1.280281e+01	4.465066e+01
2.250000e-06	1.848604e-06	7.725932e-10	1.311270e+01	4.791410e+01
2.260000e-06	1.892212e-06	8.194630e-10	1.342202e+01	5.115198e+01
2.270000e-06	1.935782e-06	8.667730e-10	1.373108e+01	5.436242e+01
2.280000e-06	1.979127e-06	9.108742e-10	1.403854e+01	5.754341e+01
2.290000e-06	2.022249e-06	9.534185e-10	1.434442e+01	6.069288e+01
2.300000e-06	2.065228e-06	9.981570e-10	1.464928e+01	6.380867e+01
2.310000e-06	2.107944e-06	1.042499e-09	1.495228e+01	6.688855e+01
2.320000e-06	2.150365e-06	1.082677e-09	1.525318e+01	6.993020e+01
2.330000e-06	2.192470e-06	1.122527e-09	1.555185e+01	7.293127e+01
2.340000e-06	2.234262e-06	1.164678e-09	1.584829e+01	7.588935e+01
2.350000e-06	2.275752e-06	1.208530e-09	1.614259e+01	7.880205e+01
2.360000e-06	2.316842e-06	1.251534e-09	1.643406e+01	8.166699e+01
2.370000e-06	2.357667e-06	1.290935e-09	1.672364e+01	8.448180e+01
2.380000e-06	2.398315e-06	1.328034e-09	1.701196e+01	8.724423e+01
2.390000e-06	2.438757e-06	1.363328e-09	1.729883e+01	8.995210e+01
2.400000e-06	2.479076e-06	1.396115e-09	1.758483e+01	9.260339e+01
2.410000e-06	2.519275e-06	1.427872e-09	1.786997e+01	9.519623e+01
2.420000e-06	2.559332e-06	1.463261e-09	1.815411e+01	9.772895e+01
2.430000e-06	2.599293e-06	1.502824e-09	1.843756e+01	1.002001e+02
2.440000e-06	2.639194e-06	1.543280e-09	1.872060e+01	1.026084e+02
2.450000e-06	2.678984e-06	1.577963e-09	1.900284e+01	1.049531e+02
2.460000e-06	2.718613e-06	1.608883e-09	1.928394e+01	1.072333e+02
2.470000e-06	2.758077e-06	1.637956e-09	1.956387e+01	1.094488e+02
2.480000e-06	2.797361e-06	1.663263e-09	1.984252e+01	1.115994e+02
2.490000e-06	2.836421e-06	1.688568e-09	2.011958e+01	1.136854e+02
2.500000e-06	2.875265e-06	1.717865e-09	2.039512e+01	1.157072e+02
2.510000e-06	2.913842e-06	1.752357e-09	2.066875e+01	1.176658e+02
2.520000e-06	2.952167e-06	1.787659e-09	2.094061e+01	1.195622e+02
2.530000e-06	2.990337e-06	1.816612e-09	2.121136e+01	1.213977e+02
2.540000e-06	3.028322e-06	1.841452e-09	2.148080e+01	1.231738e+02
2.550000e-06	3.066127e-06	1.868065e-09	2.174896e+01	1.248924e+02
2.560000e-06	3.103742e-06	1.892280e-09	2.201577e+01	1.265553e+02
2.570000e-06	3.141180e-06	1.910641e-09	2.228133e+01	1.281647e+02
2.580000e-06	3.178515e-06	1.929398e-09	2.254616e+01	1.297227e+02
2.590000e-06	3.215630e-06	1.953814e-09	2.280943e+01	1.312316e+02
2.600000e-06	3.252361e-06	1.979862e-09	2.306997e+01	1.326936e+02
2.610000e-06	3.288762e-06	1.999816e-09	2.332818e+01	1.341110e+02
2.620000e-06	3.324980e-06	2.017765e-09	2.358508e+01	1.354860e+02
2.630000e-06	3.361068e-06	2.041664e-09	2.384106e+01	1.368209e+02
2.640000e-06	3.397031e-06	2.066619e-09	2.409616e+01	1.381175e+02
2.650000e-06	3.432871e-06	2.084761e-09	2.435038e+01	1.393780e+02
2.660000e-06	3.468575e-06	2.098068e-09	2.460364e+01	1.406039e+02
2.670000e-06	3.504153e-06	2.114959e-09	2.485601e+01	1.417969e+02
2.680000e-06	3.539576e-06	2.133634e-09	2.510727e+01	1.429584e+02
2.690000e-06	3.574714e-06	2.145980e-09	2.535652e+01	1.440895e+02
2.700000e-06	3.609396e-06	2.153587e-09	2.560253e+01	1.451913e+02
2.710000e-06	3.643600e-06	2.166847e-09	2.584515e+01	1.462646e+02
2.720000e-06	3.677336e-06	2.189375e-09	2.608445e+01	1.473098e+02
2.730000e-06	3.710525e-06	2.212182e-09	2.631987e+01	1.483275e+02
2.740000e-06	3.743365e-06	2.230424e-09	2.655281e+01	1.493179e+02
2.750000e-06	3.775980e-06	2.248845e-09	2.678416e+01	1.502810e+02
2.760000e-06	3.808266e-06	2.267062e-09	2.701317e+01	1.512169e+02
2.770000e-06	3.840329e-06	2.280910e-09	2.724060e+01	1.521253e+02
2.780000e-06	3.872264e-06	2.288181e-09	2.746713e+01	1.530060e+02
2.790000e-06	3.904068e-06	2.292603e-09	2.769272e+01	1.538588e+02
2.800000e-06	3.935652e-06	2.300608e-09	2.791676e+01	1.546834e+02
2.810000e-06	3.966981e-06	2.312204e-09	2.813898e+01	1.554795e+02
2.820000e-06	3.998064e-06	2.324178e-09	2.835947e+01	1.562469e+02
2.830000e-06	4.028920e-06	2.335896e-09	2.857833e+01	1.569853e+02
2.840000e-06	4.059475e-06	2.348687e-09	2.879507e+01	1.576948e+02
2.850000e-06	4.089669e-06	2.362058e-09	2.900925e+01	1.583753e+02
2.860000e-06	4.119576e-06	2.372682e-09	2.922139e+01	1.590270e+02
2.870000e-06	4.149217e-06	2.380319e-09	2.943164e+01	1.596503e+02
2.880000e-06	4.178671e-06	2.384278e-09	2.964057e+01	1.602455e+02
2.890000e-06	4.207837e-06	2.383648e-09	2.984745e+01	1.608133e+02
2.900000e-06	4.236617e-06	2.384491e-09	3.005159e+01	1.613544e+02
