# Temperatura_=_-1.3
# Concentracion g/m^3_=_4090.0
# C_Vs_to_Am_M_A/Vsm_=_65563218390.804596
# pendiente_HvsI_1/m_=_3716.3
# ordenada_HvsI_A/m_=_1297.0
# frecuencia_Hz_=_135084.72259424877

Tiempo_(s)	Campo_(V.s)	Magnetizacion_(V.s)	Campo_(kA/m)	Magnetizacion_(A/m)
0.000000e+00	-5.401674e-06	-2.668170e-09	-3.838844e+01	-1.712658e+02
1.000000e-08	-5.401890e-06	-2.674258e-09	-3.838998e+01	-1.712292e+02
2.000000e-08	-5.401897e-06	-2.681365e-09	-3.839003e+01	-1.711964e+02
3.000000e-08	-5.401655e-06	-2.684514e-09	-3.838831e+01	-1.711698e+02
4.000000e-08	-5.401144e-06	-2.681194e-09	-3.838467e+01	-1.711519e+02
5.000000e-08	-5.400169e-06	-2.673070e-09	-3.837774e+01	-1.711450e+02
6.000000e-08	-5.398577e-06	-2.665230e-09	-3.836643e+01	-1.711514e+02
7.000000e-08	-5.396393e-06	-2.660767e-09	-3.835091e+01	-1.711735e+02
8.000000e-08	-5.393575e-06	-2.665414e-09	-3.833089e+01	-1.712132e+02
9.000000e-08	-5.390139e-06	-2.678255e-09	-3.830646e+01	-1.712723e+02
1.000000e-07	-5.386179e-06	-2.703108e-09	-3.827832e+01	-1.713524e+02
1.100000e-07	-5.381880e-06	-2.681375e-09	-3.824777e+01	-1.714547e+02
1.200000e-07	-5.377517e-06	-2.635532e-09	-3.821676e+01	-1.715801e+02
1.300000e-07	-5.373079e-06	-2.666141e-09	-3.818522e+01	-1.717291e+02
1.400000e-07	-5.368201e-06	-2.697009e-09	-3.815056e+01	-1.719019e+02
1.500000e-07	-5.362768e-06	-2.656636e-09	-3.811195e+01	-1.720982e+02
1.600000e-07	-5.357058e-06	-2.604965e-09	-3.807136e+01	-1.723174e+02
1.700000e-07	-5.351040e-06	-2.635390e-09	-3.802860e+01	-1.725584e+02
1.800000e-07	-5.344545e-06	-2.758083e-09	-3.798244e+01	-1.728197e+02
1.900000e-07	-5.337332e-06	-2.702596e-09	-3.793118e+01	-1.730997e+02
2.000000e-07	-5.329853e-06	-2.651026e-09	-3.787803e+01	-1.733961e+02
2.100000e-07	-5.322488e-06	-2.671629e-09	-3.782568e+01	-1.737064e+02
2.200000e-07	-5.314824e-06	-2.754348e-09	-3.777122e+01	-1.740280e+02
2.300000e-07	-5.306815e-06	-2.690066e-09	-3.771430e+01	-1.743578e+02
2.400000e-07	-5.298648e-06	-2.672831e-09	-3.765626e+01	-1.746928e+02
2.500000e-07	-5.290088e-06	-2.748625e-09	-3.759542e+01	-1.750297e+02
2.600000e-07	-5.280765e-06	-2.778993e-09	-3.752917e+01	-1.753652e+02
2.700000e-07	-5.270602e-06	-2.721575e-09	-3.745694e+01	-1.756958e+02
2.800000e-07	-5.260013e-06	-2.738757e-09	-3.738169e+01	-1.760183e+02
2.900000e-07	-5.249038e-06	-2.787669e-09	-3.730370e+01	-1.763295e+02
3.000000e-07	-5.237538e-06	-2.723637e-09	-3.722196e+01	-1.766263e+02
3.100000e-07	-5.225759e-06	-2.682792e-09	-3.713826e+01	-1.769058e+02
3.200000e-07	-5.213608e-06	-2.738899e-09	-3.705190e+01	-1.771654e+02
3.300000e-07	-5.201019e-06	-2.788882e-09	-3.696243e+01	-1.774027e+02
3.400000e-07	-5.188053e-06	-2.702799e-09	-3.687029e+01	-1.776157e+02
3.500000e-07	-5.174691e-06	-2.703523e-09	-3.677533e+01	-1.778026e+02
3.600000e-07	-5.160857e-06	-2.753286e-09	-3.667701e+01	-1.779622e+02
3.700000e-07	-5.146711e-06	-2.768628e-09	-3.657648e+01	-1.780936e+02
3.800000e-07	-5.132191e-06	-2.708196e-09	-3.647329e+01	-1.781960e+02
3.900000e-07	-5.117003e-06	-2.723402e-09	-3.636535e+01	-1.782694e+02
4.000000e-07	-5.101164e-06	-2.722448e-09	-3.625278e+01	-1.783139e+02
4.100000e-07	-5.084913e-06	-2.721563e-09	-3.613730e+01	-1.783301e+02
4.200000e-07	-5.068288e-06	-2.721960e-09	-3.601914e+01	-1.783189e+02
4.300000e-07	-5.051268e-06	-2.727410e-09	-3.589819e+01	-1.782814e+02
4.400000e-07	-5.033994e-06	-2.684443e-09	-3.577542e+01	-1.782192e+02
4.500000e-07	-5.016525e-06	-2.707744e-09	-3.565127e+01	-1.781340e+02
4.600000e-07	-4.998788e-06	-2.733365e-09	-3.552522e+01	-1.780277e+02
4.700000e-07	-4.980683e-06	-2.710798e-09	-3.539655e+01	-1.779023e+02
4.800000e-07	-4.962107e-06	-2.675640e-09	-3.526454e+01	-1.777602e+02
4.900000e-07	-4.943113e-06	-2.714214e-09	-3.512956e+01	-1.776034e+02
5.000000e-07	-4.923718e-06	-2.727725e-09	-3.499172e+01	-1.774344e+02
5.100000e-07	-4.903998e-06	-2.702852e-09	-3.485157e+01	-1.772553e+02
5.200000e-07	-4.884115e-06	-2.685208e-09	-3.471027e+01	-1.770684e+02
5.300000e-07	-4.864026e-06	-2.692366e-09	-3.456750e+01	-1.768758e+02
5.400000e-07	-4.843654e-06	-2.699474e-09	-3.442272e+01	-1.766793e+02
5.500000e-07	-4.822979e-06	-2.703957e-09	-3.427579e+01	-1.764809e+02
5.600000e-07	-4.801895e-06	-2.687361e-09	-3.412595e+01	-1.762819e+02
5.700000e-07	-4.780469e-06	-2.667820e-09	-3.397368e+01	-1.760840e+02
5.800000e-07	-4.758764e-06	-2.683081e-09	-3.381943e+01	-1.758881e+02
5.900000e-07	-4.736710e-06	-2.689494e-09	-3.366270e+01	-1.756952e+02
6.000000e-07	-4.714420e-06	-2.667119e-09	-3.350428e+01	-1.755059e+02
6.100000e-07	-4.691720e-06	-2.651340e-09	-3.334296e+01	-1.753207e+02
6.200000e-07	-4.668587e-06	-2.668600e-09	-3.317856e+01	-1.751397e+02
6.300000e-07	-4.645238e-06	-2.672115e-09	-3.301262e+01	-1.749630e+02
6.400000e-07	-4.621605e-06	-2.668410e-09	-3.284467e+01	-1.747902e+02
6.500000e-07	-4.597707e-06	-2.650804e-09	-3.267483e+01	-1.746210e+02
6.600000e-07	-4.573640e-06	-2.647351e-09	-3.250380e+01	-1.744547e+02
6.700000e-07	-4.549359e-06	-2.649502e-09	-3.233124e+01	-1.742907e+02
6.800000e-07	-4.524748e-06	-2.653111e-09	-3.215633e+01	-1.741280e+02
6.900000e-07	-4.499685e-06	-2.628872e-09	-3.197822e+01	-1.739659e+02
7.000000e-07	-4.474149e-06	-2.624368e-09	-3.179673e+01	-1.738033e+02
7.100000e-07	-4.448087e-06	-2.630334e-09	-3.161152e+01	-1.736393e+02
7.200000e-07	-4.421440e-06	-2.635307e-09	-3.142215e+01	-1.734729e+02
7.300000e-07	-4.394365e-06	-2.617692e-09	-3.122973e+01	-1.733032e+02
7.400000e-07	-4.366984e-06	-2.613472e-09	-3.103514e+01	-1.731292e+02
7.500000e-07	-4.339374e-06	-2.612241e-09	-3.083892e+01	-1.729502e+02
7.600000e-07	-4.311538e-06	-2.617014e-09	-3.064110e+01	-1.727655e+02
7.700000e-07	-4.283513e-06	-2.604926e-09	-3.044193e+01	-1.725745e+02
7.800000e-07	-4.255358e-06	-2.592526e-09	-3.024184e+01	-1.723766e+02
7.900000e-07	-4.226948e-06	-2.588894e-09	-3.003994e+01	-1.721715e+02
8.000000e-07	-4.198183e-06	-2.596678e-09	-2.983551e+01	-1.719591e+02
8.100000e-07	-4.168974e-06	-2.589383e-09	-2.962793e+01	-1.717391e+02
8.200000e-07	-4.139442e-06	-2.577796e-09	-2.941805e+01	-1.715115e+02
8.300000e-07	-4.109703e-06	-2.575270e-09	-2.920670e+01	-1.712766e+02
8.400000e-07	-4.079717e-06	-2.582068e-09	-2.899360e+01	-1.710344e+02
8.500000e-07	-4.049482e-06	-2.579494e-09	-2.877873e+01	-1.707854e+02
8.600000e-07	-4.018926e-06	-2.564480e-09	-2.856157e+01	-1.705298e+02
8.700000e-07	-3.988096e-06	-2.553606e-09	-2.834247e+01	-1.702682e+02
8.800000e-07	-3.956997e-06	-2.552818e-09	-2.812146e+01	-1.700010e+02
8.900000e-07	-3.925562e-06	-2.552770e-09	-2.789806e+01	-1.697287e+02
9.000000e-07	-3.893968e-06	-2.540568e-09	-2.767352e+01	-1.694518e+02
9.100000e-07	-3.862275e-06	-2.532903e-09	-2.744829e+01	-1.691708e+02
9.200000e-07	-3.830315e-06	-2.533057e-09	-2.722115e+01	-1.688861e+02
9.300000e-07	-3.798093e-06	-2.539864e-09	-2.699216e+01	-1.685982e+02
9.400000e-07	-3.765696e-06	-2.535507e-09	-2.676193e+01	-1.683075e+02
9.500000e-07	-3.733110e-06	-2.529063e-09	-2.653034e+01	-1.680142e+02
9.600000e-07	-3.700223e-06	-2.525162e-09	-2.629663e+01	-1.677186e+02
9.700000e-07	-3.666913e-06	-2.528985e-09	-2.605990e+01	-1.674209e+02
9.800000e-07	-3.633177e-06	-2.521443e-09	-2.582014e+01	-1.671211e+02
9.900000e-07	-3.599039e-06	-2.510754e-09	-2.557753e+01	-1.668192e+02
1.000000e-06	-3.564439e-06	-2.501683e-09	-2.533164e+01	-1.665152e+02
1.010000e-06	-3.529373e-06	-2.507653e-09	-2.508243e+01	-1.662090e+02
1.020000e-06	-3.493996e-06	-2.511035e-09	-2.483102e+01	-1.659004e+02
1.030000e-06	-3.458427e-06	-2.506621e-09	-2.457824e+01	-1.655891e+02
1.040000e-06	-3.422641e-06	-2.495891e-09	-2.432392e+01	-1.652749e+02
1.050000e-06	-3.386706e-06	-2.492681e-09	-2.406853e+01	-1.649574e+02
1.060000e-06	-3.350709e-06	-2.485834e-09	-2.381271e+01	-1.646364e+02
1.070000e-06	-3.314549e-06	-2.473635e-09	-2.355573e+01	-1.643115e+02
1.080000e-06	-3.278207e-06	-2.458560e-09	-2.329746e+01	-1.639823e+02
1.090000e-06	-3.241604e-06	-2.452251e-09	-2.303732e+01	-1.636487e+02
1.100000e-06	-3.204649e-06	-2.453233e-09	-2.277469e+01	-1.633103e+02
1.110000e-06	-3.167525e-06	-2.454065e-09	-2.251086e+01	-1.629668e+02
1.120000e-06	-3.130260e-06	-2.446326e-09	-2.224603e+01	-1.626181e+02
1.130000e-06	-3.092709e-06	-2.440016e-09	-2.197916e+01	-1.622641e+02
1.140000e-06	-3.054959e-06	-2.437741e-09	-2.171088e+01	-1.619046e+02
1.150000e-06	-3.017056e-06	-2.431869e-09	-2.144152e+01	-1.615396e+02
1.160000e-06	-2.978911e-06	-2.420177e-09	-2.117043e+01	-1.611691e+02
1.170000e-06	-2.940604e-06	-2.408953e-09	-2.089819e+01	-1.607931e+02
1.180000e-06	-2.902144e-06	-2.403400e-09	-2.062486e+01	-1.604118e+02
1.190000e-06	-2.863439e-06	-2.398309e-09	-2.034980e+01	-1.600253e+02
1.200000e-06	-2.824449e-06	-2.391493e-09	-2.007270e+01	-1.596336e+02
1.210000e-06	-2.785252e-06	-2.381063e-09	-1.979414e+01	-1.592371e+02
1.220000e-06	-2.745874e-06	-2.372051e-09	-1.951429e+01	-1.588357e+02
1.230000e-06	-2.706304e-06	-2.362470e-09	-1.923308e+01	-1.584297e+02
1.240000e-06	-2.666605e-06	-2.353793e-09	-1.895094e+01	-1.580193e+02
1.250000e-06	-2.626817e-06	-2.342844e-09	-1.866818e+01	-1.576044e+02
1.260000e-06	-2.586928e-06	-2.334293e-09	-1.838470e+01	-1.571851e+02
1.270000e-06	-2.546926e-06	-2.325714e-09	-1.810041e+01	-1.567613e+02
1.280000e-06	-2.506799e-06	-2.320690e-09	-1.781524e+01	-1.563331e+02
1.290000e-06	-2.466592e-06	-2.312182e-09	-1.752949e+01	-1.559001e+02
1.300000e-06	-2.426305e-06	-2.301210e-09	-1.724318e+01	-1.554622e+02
1.310000e-06	-2.385812e-06	-2.290231e-09	-1.695541e+01	-1.550190e+02
1.320000e-06	-2.345175e-06	-2.285922e-09	-1.666662e+01	-1.545700e+02
1.330000e-06	-2.304335e-06	-2.279079e-09	-1.637638e+01	-1.541147e+02
1.340000e-06	-2.263248e-06	-2.266484e-09	-1.608437e+01	-1.536524e+02
1.350000e-06	-2.221958e-06	-2.252266e-09	-1.579094e+01	-1.531825e+02
1.360000e-06	-2.180333e-06	-2.243232e-09	-1.549512e+01	-1.527041e+02
1.370000e-06	-2.138337e-06	-2.235570e-09	-1.519667e+01	-1.522164e+02
1.380000e-06	-2.095994e-06	-2.226235e-09	-1.489574e+01	-1.517185e+02
1.390000e-06	-2.053348e-06	-2.212511e-09	-1.459267e+01	-1.512094e+02
1.400000e-06	-2.010464e-06	-2.202403e-09	-1.428790e+01	-1.506882e+02
1.410000e-06	-1.967326e-06	-2.198156e-09	-1.398133e+01	-1.501537e+02
1.420000e-06	-1.924112e-06	-2.190878e-09	-1.367422e+01	-1.496051e+02
1.430000e-06	-1.880822e-06	-2.176844e-09	-1.336656e+01	-1.490414e+02
1.440000e-06	-1.837317e-06	-2.163386e-09	-1.305738e+01	-1.484615e+02
1.450000e-06	-1.793700e-06	-2.155928e-09	-1.274741e+01	-1.478646e+02
1.460000e-06	-1.749963e-06	-2.147995e-09	-1.243658e+01	-1.472497e+02
1.470000e-06	-1.706100e-06	-2.133902e-09	-1.212486e+01	-1.466162e+02
1.480000e-06	-1.662131e-06	-2.116893e-09	-1.181238e+01	-1.459633e+02
1.490000e-06	-1.618076e-06	-2.105786e-09	-1.149929e+01	-1.452904e+02
1.500000e-06	-1.574004e-06	-2.096554e-09	-1.118608e+01	-1.445969e+02
1.510000e-06	-1.529907e-06	-2.082963e-09	-1.087269e+01	-1.438823e+02
1.520000e-06	-1.485792e-06	-2.066195e-09	-1.055918e+01	-1.431462e+02
1.530000e-06	-1.441606e-06	-2.055976e-09	-1.024516e+01	-1.423885e+02
1.540000e-06	-1.397313e-06	-2.051722e-09	-9.930381e+00	-1.416088e+02
1.550000e-06	-1.352996e-06	-2.043607e-09	-9.615426e+00	-1.408070e+02
1.560000e-06	-1.308518e-06	-2.028250e-09	-9.299331e+00	-1.399829e+02
1.570000e-06	-1.263925e-06	-2.013651e-09	-8.982417e+00	-1.391366e+02
1.580000e-06	-1.219313e-06	-2.001201e-09	-8.665377e+00	-1.382679e+02
1.590000e-06	-1.174572e-06	-1.988772e-09	-8.347411e+00	-1.373768e+02
1.600000e-06	-1.129709e-06	-1.972006e-09	-8.028579e+00	-1.364632e+02
1.610000e-06	-1.084804e-06	-1.956961e-09	-7.709448e+00	-1.355271e+02
1.620000e-06	-1.039849e-06	-1.945862e-09	-7.389966e+00	-1.345682e+02
1.630000e-06	-9.948246e-07	-1.936334e-09	-7.069987e+00	-1.335864e+02
1.640000e-06	-9.496964e-07	-1.923273e-09	-6.749271e+00	-1.325814e+02
1.650000e-06	-9.044402e-07	-1.905623e-09	-6.427646e+00	-1.315527e+02
1.660000e-06	-8.591201e-07	-1.890199e-09	-6.105567e+00	-1.304999e+02
1.670000e-06	-8.137520e-07	-1.877381e-09	-5.783146e+00	-1.294221e+02
1.680000e-06	-7.683977e-07	-1.859150e-09	-5.460823e+00	-1.283188e+02
1.690000e-06	-7.230192e-07	-1.836740e-09	-5.138329e+00	-1.271889e+02
1.700000e-06	-6.775147e-07	-1.815855e-09	-4.814939e+00	-1.260313e+02
1.710000e-06	-6.319134e-07	-1.799739e-09	-4.490862e+00	-1.248448e+02
1.720000e-06	-5.862675e-07	-1.784034e-09	-4.166467e+00	-1.236281e+02
1.730000e-06	-5.406164e-07	-1.766663e-09	-3.842035e+00	-1.223795e+02
1.740000e-06	-4.949380e-07	-1.747904e-09	-3.517409e+00	-1.210975e+02
1.750000e-06	-4.492174e-07	-1.728258e-09	-3.192483e+00	-1.197804e+02
1.760000e-06	-4.033997e-07	-1.707070e-09	-2.866868e+00	-1.184262e+02
1.770000e-06	-3.575137e-07	-1.684514e-09	-2.540766e+00	-1.170330e+02
1.780000e-06	-3.116988e-07	-1.662458e-09	-2.215171e+00	-1.155988e+02
1.790000e-06	-2.658452e-07	-1.642138e-09	-1.889300e+00	-1.141215e+02
1.800000e-06	-2.199616e-07	-1.621125e-09	-1.563216e+00	-1.125992e+02
1.810000e-06	-1.740923e-07	-1.596412e-09	-1.237233e+00	-1.110297e+02
1.820000e-06	-1.282600e-07	-1.572521e-09	-9.115142e-01	-1.094109e+02
1.830000e-06	-8.242921e-08	-1.548366e-09	-5.858053e-01	-1.077410e+02
1.840000e-06	-3.655012e-08	-1.522826e-09	-2.597532e-01	-1.060179e+02
1.850000e-06	9.310535e-09	-1.495433e-09	6.616781e-02	-1.042399e+02
1.860000e-06	5.511670e-08	-1.466404e-09	3.917016e-01	-1.024052e+02
1.870000e-06	1.008954e-07	-1.435792e-09	7.170399e-01	-1.005123e+02
1.880000e-06	1.467553e-07	-1.404014e-09	1.042956e+00	-9.855959e+01
1.890000e-06	1.926381e-07	-1.371424e-09	1.369034e+00	-9.654588e+01
1.900000e-06	2.384595e-07	-1.338402e-09	1.694676e+00	-9.447003e+01
1.910000e-06	2.842692e-07	-1.305080e-09	2.020235e+00	-9.233106e+01
1.920000e-06	3.300870e-07	-1.271311e-09	2.345852e+00	-9.012819e+01
1.930000e-06	3.759161e-07	-1.236452e-09	2.671548e+00	-8.786081e+01
1.940000e-06	4.217126e-07	-1.202477e-09	2.997013e+00	-8.552849e+01
1.950000e-06	4.673784e-07	-1.168449e-09	3.321549e+00	-8.313099e+01
1.960000e-06	5.129477e-07	-1.134787e-09	3.645400e+00	-8.066822e+01
1.970000e-06	5.585038e-07	-1.099786e-09	3.969157e+00	-7.814027e+01
1.980000e-06	6.040670e-07	-1.061454e-09	4.292963e+00	-7.554737e+01
1.990000e-06	6.495644e-07	-1.020158e-09	4.616303e+00	-7.288993e+01
2.000000e-06	6.949475e-07	-9.787671e-10	4.938830e+00	-7.016849e+01
2.010000e-06	7.403114e-07	-9.374920e-10	5.261221e+00	-6.738371e+01
2.020000e-06	7.857201e-07	-8.958088e-10	5.583930e+00	-6.453639e+01
2.030000e-06	8.311143e-07	-8.528120e-10	5.906536e+00	-6.162746e+01
2.040000e-06	8.764360e-07	-8.076749e-10	6.228627e+00	-5.865795e+01
2.050000e-06	9.217000e-07	-7.623193e-10	6.550307e+00	-5.562899e+01
2.060000e-06	9.668697e-07	-7.171122e-10	6.871318e+00	-5.254183e+01
2.070000e-06	1.011811e-06	-6.706689e-10	7.190703e+00	-4.939784e+01
2.080000e-06	1.056635e-06	-6.226170e-10	7.509256e+00	-4.619845e+01
2.090000e-06	1.101432e-06	-5.744329e-10	7.827618e+00	-4.294525e+01
2.100000e-06	1.146209e-06	-5.280099e-10	8.145841e+00	-3.963992e+01
2.110000e-06	1.190842e-06	-4.824251e-10	8.463040e+00	-3.628424e+01
2.120000e-06	1.235293e-06	-4.318797e-10	8.778938e+00	-3.288015e+01
2.130000e-06	1.279746e-06	-3.778710e-10	9.094857e+00	-2.942971e+01
2.140000e-06	1.324150e-06	-3.235882e-10	9.410423e+00	-2.593513e+01
2.150000e-06	1.368474e-06	-2.702466e-10	9.725429e+00	-2.239878e+01
2.160000e-06	1.412730e-06	-2.179325e-10	1.003994e+01	-1.882320e+01
2.170000e-06	1.456862e-06	-1.653670e-10	1.035358e+01	-1.521109e+01
2.180000e-06	1.500939e-06	-1.130737e-10	1.066682e+01	-1.156535e+01
2.190000e-06	1.545004e-06	-6.014025e-11	1.097999e+01	-7.889094e+00
2.200000e-06	1.589044e-06	-4.381363e-12	1.129297e+01	-4.185605e+00
2.210000e-06	1.633016e-06	5.504243e-11	1.160547e+01	-4.583895e-01
2.220000e-06	1.676879e-06	1.167080e-10	1.191719e+01	3.288844e+00
2.230000e-06	1.720701e-06	1.745648e-10	1.222862e+01	7.052185e+00
2.240000e-06	1.764482e-06	2.281075e-10	1.253976e+01	1.082752e+01
2.250000e-06	1.808243e-06	2.808334e-10	1.285076e+01	1.461056e+01
2.260000e-06	1.851905e-06	3.344119e-10	1.316106e+01	1.839683e+01
2.270000e-06	1.895372e-06	3.881095e-10	1.346997e+01	2.218171e+01
2.280000e-06	1.938675e-06	4.413871e-10	1.377771e+01	2.596043e+01
2.290000e-06	1.981781e-06	4.961149e-10	1.408405e+01	2.972812e+01
2.300000e-06	2.024624e-06	5.545919e-10	1.438853e+01	3.347983e+01
2.310000e-06	2.067299e-06	6.121595e-10	1.469181e+01	3.721057e+01
2.320000e-06	2.109766e-06	6.669698e-10	1.499362e+01	4.091533e+01
2.330000e-06	2.151895e-06	7.214308e-10	1.529302e+01	4.458911e+01
2.340000e-06	2.193715e-06	7.745271e-10	1.559022e+01	4.822701e+01
2.350000e-06	2.235239e-06	8.246421e-10	1.588533e+01	5.182421e+01
2.360000e-06	2.276532e-06	8.720712e-10	1.617879e+01	5.537604e+01
2.370000e-06	2.317619e-06	9.208766e-10	1.647078e+01	5.887801e+01
2.380000e-06	2.358487e-06	9.699168e-10	1.676122e+01	6.232588e+01
2.390000e-06	2.399101e-06	1.018053e-09	1.704985e+01	6.571564e+01
2.400000e-06	2.439474e-06	1.064912e-09	1.733678e+01	6.904360e+01
2.410000e-06	2.479679e-06	1.110673e-09	1.762250e+01	7.230640e+01
2.420000e-06	2.519777e-06	1.156447e-09	1.790747e+01	7.550102e+01
2.430000e-06	2.559760e-06	1.201096e-09	1.819162e+01	7.862485e+01
2.440000e-06	2.599664e-06	1.243589e-09	1.847521e+01	8.167564e+01
2.450000e-06	2.639486e-06	1.283935e-09	1.875821e+01	8.465157e+01
2.460000e-06	2.679220e-06	1.322935e-09	1.904059e+01	8.755126e+01
2.470000e-06	2.718828e-06	1.365117e-09	1.932208e+01	9.037371e+01
2.480000e-06	2.758248e-06	1.407527e-09	1.960223e+01	9.311836e+01
2.490000e-06	2.797507e-06	1.446488e-09	1.988123e+01	9.578504e+01
2.500000e-06	2.836556e-06	1.482828e-09	2.015874e+01	9.837397e+01
2.510000e-06	2.875294e-06	1.518078e-09	2.043405e+01	1.008857e+02
2.520000e-06	2.913805e-06	1.553229e-09	2.070773e+01	1.033213e+02
2.530000e-06	2.952150e-06	1.586351e-09	2.098024e+01	1.056818e+02
2.540000e-06	2.990244e-06	1.616136e-09	2.125097e+01	1.079689e+02
2.550000e-06	3.028196e-06	1.647669e-09	2.152069e+01	1.101841e+02
2.560000e-06	3.066065e-06	1.683791e-09	2.178981e+01	1.123296e+02
2.570000e-06	3.103698e-06	1.718553e-09	2.205726e+01	1.144073e+02
2.580000e-06	3.141082e-06	1.747102e-09	2.232294e+01	1.164195e+02
2.590000e-06	3.178257e-06	1.773180e-09	2.258713e+01	1.183684e+02
2.600000e-06	3.215166e-06	1.800171e-09	2.284944e+01	1.202563e+02
2.610000e-06	3.251795e-06	1.824744e-09	2.310975e+01	1.220855e+02
2.620000e-06	3.288160e-06	1.847624e-09	2.336818e+01	1.238583e+02
2.630000e-06	3.324329e-06	1.873537e-09	2.362523e+01	1.255768e+02
2.640000e-06	3.360401e-06	1.903729e-09	2.388159e+01	1.272429e+02
2.650000e-06	3.396429e-06	1.932196e-09	2.413763e+01	1.288588e+02
2.660000e-06	3.432349e-06	1.954039e-09	2.439290e+01	1.304260e+02
2.670000e-06	3.468085e-06	1.973822e-09	2.464687e+01	1.319463e+02
2.680000e-06	3.503636e-06	1.993740e-09	2.489952e+01	1.334210e+02
2.690000e-06	3.538905e-06	2.012182e-09	2.515018e+01	1.348513e+02
2.700000e-06	3.573825e-06	2.030685e-09	2.539834e+01	1.362384e+02
2.710000e-06	3.608383e-06	2.050188e-09	2.564394e+01	1.375831e+02
2.720000e-06	3.642415e-06	2.074171e-09	2.588580e+01	1.388862e+02
2.730000e-06	3.676030e-06	2.098857e-09	2.612469e+01	1.401483e+02
2.740000e-06	3.709233e-06	2.119334e-09	2.636065e+01	1.413697e+02
2.750000e-06	3.741957e-06	2.137667e-09	2.659322e+01	1.425510e+02
2.760000e-06	3.774377e-06	2.156013e-09	2.682362e+01	1.436925e+02
2.770000e-06	3.806553e-06	2.172581e-09	2.705229e+01	1.447943e+02
2.780000e-06	3.838632e-06	2.186042e-09	2.728026e+01	1.458567e+02
2.790000e-06	3.870610e-06	2.197681e-09	2.750752e+01	1.468800e+02
2.800000e-06	3.902358e-06	2.212350e-09	2.773315e+01	1.478645e+02
2.810000e-06	3.933902e-06	2.231105e-09	2.795732e+01	1.488104e+02
2.820000e-06	3.965245e-06	2.249465e-09	2.818007e+01	1.497183e+02
2.830000e-06	3.996271e-06	2.263425e-09	2.840057e+01	1.505886e+02
2.840000e-06	4.026873e-06	2.275577e-09	2.861805e+01	1.514221e+02
2.850000e-06	4.057112e-06	2.286085e-09	2.883295e+01	1.522194e+02
2.860000e-06	4.087113e-06	2.292120e-09	2.904616e+01	1.529816e+02
2.870000e-06	4.116944e-06	2.296981e-09	2.925816e+01	1.537097e+02
2.880000e-06	4.146587e-06	2.305258e-09	2.946883e+01	1.544050e+02
2.890000e-06	4.175908e-06	2.316352e-09	2.967721e+01	1.550687e+02
2.900000e-06	4.204873e-06	2.325729e-09	2.988306e+01	1.557024e+02
