# Temperatura_=_14.32
# Concentracion g/m^3_=_4090.0
# C_Vs_to_Am_M_A/Vsm_=_65563218390.804596
# pendiente_HvsI_1/m_=_3716.3
# ordenada_HvsI_A/m_=_1297.0
# frecuencia_Hz_=_135082.27871596938

Tiempo_(s)	Campo_(V.s)	Magnetizacion_(V.s)	Campo_(kA/m)	Magnetizacion_(A/m)
0.000000e+00	-5.411365e-06	-2.595980e-09	-3.838994e+01	-1.675986e+02
1.000000e-08	-5.411463e-06	-2.599072e-09	-3.839063e+01	-1.675760e+02
2.000000e-08	-5.411350e-06	-2.601085e-09	-3.838984e+01	-1.675548e+02
3.000000e-08	-5.410929e-06	-2.601089e-09	-3.838685e+01	-1.675362e+02
4.000000e-08	-5.410073e-06	-2.598108e-09	-3.838077e+01	-1.675212e+02
5.000000e-08	-5.408738e-06	-2.592701e-09	-3.837131e+01	-1.675111e+02
6.000000e-08	-5.406758e-06	-2.591792e-09	-3.835726e+01	-1.675068e+02
7.000000e-08	-5.404067e-06	-2.590962e-09	-3.833817e+01	-1.675096e+02
8.000000e-08	-5.400853e-06	-2.572553e-09	-3.831537e+01	-1.675203e+02
9.000000e-08	-5.397108e-06	-2.582674e-09	-3.828879e+01	-1.675397e+02
1.000000e-07	-5.392806e-06	-2.636487e-09	-3.825828e+01	-1.675687e+02
1.100000e-07	-5.388290e-06	-2.620570e-09	-3.822624e+01	-1.676077e+02
1.200000e-07	-5.383747e-06	-2.547518e-09	-3.819401e+01	-1.676573e+02
1.300000e-07	-5.378950e-06	-2.551054e-09	-3.815998e+01	-1.677176e+02
1.400000e-07	-5.373680e-06	-2.615190e-09	-3.812259e+01	-1.677887e+02
1.500000e-07	-5.368005e-06	-2.616567e-09	-3.808233e+01	-1.678706e+02
1.600000e-07	-5.362016e-06	-2.505285e-09	-3.803985e+01	-1.679629e+02
1.700000e-07	-5.355613e-06	-2.531455e-09	-3.799442e+01	-1.680651e+02
1.800000e-07	-5.348761e-06	-2.600944e-09	-3.794581e+01	-1.681765e+02
1.900000e-07	-5.341556e-06	-2.625307e-09	-3.789470e+01	-1.682964e+02
2.000000e-07	-5.334078e-06	-2.526848e-09	-3.784164e+01	-1.684237e+02
2.100000e-07	-5.326445e-06	-2.555827e-09	-3.778749e+01	-1.685572e+02
2.200000e-07	-5.318539e-06	-2.593282e-09	-3.773140e+01	-1.686956e+02
2.300000e-07	-5.310280e-06	-2.572895e-09	-3.767281e+01	-1.688376e+02
2.400000e-07	-5.301603e-06	-2.524091e-09	-3.761126e+01	-1.689817e+02
2.500000e-07	-5.292336e-06	-2.577942e-09	-3.754551e+01	-1.691263e+02
2.600000e-07	-5.282350e-06	-2.615820e-09	-3.747467e+01	-1.692698e+02
2.700000e-07	-5.271859e-06	-2.560961e-09	-3.740024e+01	-1.694107e+02
2.800000e-07	-5.260949e-06	-2.558437e-09	-3.732285e+01	-1.695472e+02
2.900000e-07	-5.249515e-06	-2.606682e-09	-3.724173e+01	-1.696780e+02
3.000000e-07	-5.237608e-06	-2.583971e-09	-3.715725e+01	-1.698013e+02
3.100000e-07	-5.225254e-06	-2.520621e-09	-3.706961e+01	-1.699159e+02
3.200000e-07	-5.212605e-06	-2.590526e-09	-3.697987e+01	-1.700203e+02
3.300000e-07	-5.199619e-06	-2.611392e-09	-3.688774e+01	-1.701134e+02
3.400000e-07	-5.186252e-06	-2.571317e-09	-3.679291e+01	-1.701941e+02
3.500000e-07	-5.172466e-06	-2.548098e-09	-3.669512e+01	-1.702614e+02
3.600000e-07	-5.158281e-06	-2.611746e-09	-3.659448e+01	-1.703146e+02
3.700000e-07	-5.143686e-06	-2.573073e-09	-3.649094e+01	-1.703529e+02
3.800000e-07	-5.128586e-06	-2.553560e-09	-3.638381e+01	-1.703761e+02
3.900000e-07	-5.112850e-06	-2.564679e-09	-3.627218e+01	-1.703837e+02
4.000000e-07	-5.096509e-06	-2.580042e-09	-3.615625e+01	-1.703756e+02
4.100000e-07	-5.079745e-06	-2.544101e-09	-3.603733e+01	-1.703518e+02
4.200000e-07	-5.062735e-06	-2.576037e-09	-3.591665e+01	-1.703125e+02
4.300000e-07	-5.045406e-06	-2.577120e-09	-3.579371e+01	-1.702580e+02
4.400000e-07	-5.027753e-06	-2.549863e-09	-3.566847e+01	-1.701888e+02
4.500000e-07	-5.009866e-06	-2.540666e-09	-3.554158e+01	-1.701053e+02
4.600000e-07	-4.991666e-06	-2.571698e-09	-3.541246e+01	-1.700081e+02
4.700000e-07	-4.973145e-06	-2.544924e-09	-3.528107e+01	-1.698981e+02
4.800000e-07	-4.954155e-06	-2.532261e-09	-3.514635e+01	-1.697758e+02
4.900000e-07	-4.934717e-06	-2.546581e-09	-3.500845e+01	-1.696423e+02
5.000000e-07	-4.915090e-06	-2.554680e-09	-3.486921e+01	-1.694982e+02
5.100000e-07	-4.895243e-06	-2.545134e-09	-3.472841e+01	-1.693445e+02
5.200000e-07	-4.875111e-06	-2.547934e-09	-3.458558e+01	-1.691819e+02
5.300000e-07	-4.854657e-06	-2.541978e-09	-3.444048e+01	-1.690114e+02
5.400000e-07	-4.833931e-06	-2.535182e-09	-3.429344e+01	-1.688337e+02
5.500000e-07	-4.812956e-06	-2.539644e-09	-3.414464e+01	-1.686495e+02
5.600000e-07	-4.791660e-06	-2.529533e-09	-3.399356e+01	-1.684596e+02
5.700000e-07	-4.770093e-06	-2.521645e-09	-3.384055e+01	-1.682646e+02
5.800000e-07	-4.748192e-06	-2.524121e-09	-3.368518e+01	-1.680651e+02
5.900000e-07	-4.725952e-06	-2.526742e-09	-3.352740e+01	-1.678615e+02
6.000000e-07	-4.703339e-06	-2.514377e-09	-3.336698e+01	-1.676544e+02
6.100000e-07	-4.680360e-06	-2.514436e-09	-3.320396e+01	-1.674442e+02
6.200000e-07	-4.657074e-06	-2.504829e-09	-3.303876e+01	-1.672310e+02
6.300000e-07	-4.633430e-06	-2.506039e-09	-3.287103e+01	-1.670153e+02
6.400000e-07	-4.609490e-06	-2.503819e-09	-3.270119e+01	-1.667971e+02
6.500000e-07	-4.585362e-06	-2.504391e-09	-3.253001e+01	-1.665766e+02
6.600000e-07	-4.561070e-06	-2.491837e-09	-3.235768e+01	-1.663539e+02
6.700000e-07	-4.536489e-06	-2.495989e-09	-3.218329e+01	-1.661291e+02
6.800000e-07	-4.511416e-06	-2.487078e-09	-3.200542e+01	-1.659021e+02
6.900000e-07	-4.485770e-06	-2.482031e-09	-3.182348e+01	-1.656730e+02
7.000000e-07	-4.459625e-06	-2.471510e-09	-3.163799e+01	-1.654418e+02
7.100000e-07	-4.433100e-06	-2.474130e-09	-3.144982e+01	-1.652083e+02
7.200000e-07	-4.406133e-06	-2.467839e-09	-3.125850e+01	-1.649726e+02
7.300000e-07	-4.378705e-06	-2.469877e-09	-3.106392e+01	-1.647345e+02
7.400000e-07	-4.350986e-06	-2.459711e-09	-3.086728e+01	-1.644941e+02
7.500000e-07	-4.323097e-06	-2.454031e-09	-3.066942e+01	-1.642512e+02
7.600000e-07	-4.295031e-06	-2.446681e-09	-3.047031e+01	-1.640059e+02
7.700000e-07	-4.266758e-06	-2.442408e-09	-3.026974e+01	-1.637579e+02
7.800000e-07	-4.238229e-06	-2.430942e-09	-3.006734e+01	-1.635074e+02
7.900000e-07	-4.209435e-06	-2.428271e-09	-2.986307e+01	-1.632543e+02
8.000000e-07	-4.180251e-06	-2.427531e-09	-2.965603e+01	-1.629985e+02
8.100000e-07	-4.150739e-06	-2.426483e-09	-2.944666e+01	-1.627399e+02
8.200000e-07	-4.120985e-06	-2.422699e-09	-2.923557e+01	-1.624786e+02
8.300000e-07	-4.090924e-06	-2.420539e-09	-2.902231e+01	-1.622145e+02
8.400000e-07	-4.060642e-06	-2.418409e-09	-2.880748e+01	-1.619475e+02
8.500000e-07	-4.030147e-06	-2.411672e-09	-2.859114e+01	-1.616775e+02
8.600000e-07	-3.999443e-06	-2.401997e-09	-2.837331e+01	-1.614045e+02
8.700000e-07	-3.968469e-06	-2.392685e-09	-2.815358e+01	-1.611283e+02
8.800000e-07	-3.937169e-06	-2.389713e-09	-2.793152e+01	-1.608488e+02
8.900000e-07	-3.905592e-06	-2.386114e-09	-2.770751e+01	-1.605659e+02
9.000000e-07	-3.873824e-06	-2.385110e-09	-2.748214e+01	-1.602794e+02
9.100000e-07	-3.841927e-06	-2.379904e-09	-2.725585e+01	-1.599891e+02
9.200000e-07	-3.809765e-06	-2.380364e-09	-2.702768e+01	-1.596949e+02
9.300000e-07	-3.777351e-06	-2.377207e-09	-2.679773e+01	-1.593965e+02
9.400000e-07	-3.744818e-06	-2.375729e-09	-2.656692e+01	-1.590938e+02
9.500000e-07	-3.711977e-06	-2.369396e-09	-2.633394e+01	-1.587864e+02
9.600000e-07	-3.678653e-06	-2.369288e-09	-2.609753e+01	-1.584742e+02
9.700000e-07	-3.644841e-06	-2.366735e-09	-2.585766e+01	-1.581570e+02
9.800000e-07	-3.610629e-06	-2.367112e-09	-2.561495e+01	-1.578346e+02
9.900000e-07	-3.576025e-06	-2.358821e-09	-2.536946e+01	-1.575067e+02
1.000000e-06	-3.541141e-06	-2.351923e-09	-2.512198e+01	-1.571733e+02
1.010000e-06	-3.505902e-06	-2.344986e-09	-2.487198e+01	-1.568342e+02
1.020000e-06	-3.470321e-06	-2.343399e-09	-2.461956e+01	-1.564894e+02
1.030000e-06	-3.434573e-06	-2.335940e-09	-2.436595e+01	-1.561387e+02
1.040000e-06	-3.398612e-06	-2.332043e-09	-2.411083e+01	-1.557822e+02
1.050000e-06	-3.362459e-06	-2.327982e-09	-2.385435e+01	-1.554199e+02
1.060000e-06	-3.326214e-06	-2.324907e-09	-2.359722e+01	-1.550519e+02
1.070000e-06	-3.289893e-06	-2.315848e-09	-2.333955e+01	-1.546783e+02
1.080000e-06	-3.253355e-06	-2.304766e-09	-2.308033e+01	-1.542993e+02
1.090000e-06	-3.216619e-06	-2.292598e-09	-2.281972e+01	-1.539150e+02
1.100000e-06	-3.179643e-06	-2.285476e-09	-2.255739e+01	-1.535258e+02
1.110000e-06	-3.142352e-06	-2.279850e-09	-2.229284e+01	-1.531318e+02
1.120000e-06	-3.104788e-06	-2.273472e-09	-2.202635e+01	-1.527334e+02
1.130000e-06	-3.066969e-06	-2.270212e-09	-2.175805e+01	-1.523308e+02
1.140000e-06	-3.028982e-06	-2.268742e-09	-2.148856e+01	-1.519244e+02
1.150000e-06	-2.990813e-06	-2.264771e-09	-2.121777e+01	-1.515143e+02
1.160000e-06	-2.952391e-06	-2.253902e-09	-2.094520e+01	-1.511009e+02
1.170000e-06	-2.913817e-06	-2.240210e-09	-2.067154e+01	-1.506843e+02
1.180000e-06	-2.875136e-06	-2.226996e-09	-2.039713e+01	-1.502646e+02
1.190000e-06	-2.836210e-06	-2.220458e-09	-2.012097e+01	-1.498421e+02
1.200000e-06	-2.797035e-06	-2.214684e-09	-1.984306e+01	-1.494166e+02
1.210000e-06	-2.757688e-06	-2.208540e-09	-1.956391e+01	-1.489882e+02
1.220000e-06	-2.718158e-06	-2.201489e-09	-1.928348e+01	-1.485566e+02
1.230000e-06	-2.678411e-06	-2.197080e-09	-1.900150e+01	-1.481216e+02
1.240000e-06	-2.638500e-06	-2.187990e-09	-1.871835e+01	-1.476828e+02
1.250000e-06	-2.598564e-06	-2.177904e-09	-1.843504e+01	-1.472398e+02
1.260000e-06	-2.558543e-06	-2.164215e-09	-1.815111e+01	-1.467919e+02
1.270000e-06	-2.518405e-06	-2.154365e-09	-1.786637e+01	-1.463384e+02
1.280000e-06	-2.478185e-06	-2.145305e-09	-1.758103e+01	-1.458786e+02
1.290000e-06	-2.437846e-06	-2.137805e-09	-1.729485e+01	-1.454116e+02
1.300000e-06	-2.397314e-06	-2.128643e-09	-1.700731e+01	-1.449363e+02
1.310000e-06	-2.356524e-06	-2.122467e-09	-1.671793e+01	-1.444517e+02
1.320000e-06	-2.315473e-06	-2.113629e-09	-1.642670e+01	-1.439567e+02
1.330000e-06	-2.274198e-06	-2.102391e-09	-1.613389e+01	-1.434500e+02
1.340000e-06	-2.232671e-06	-2.091760e-09	-1.583928e+01	-1.429306e+02
1.350000e-06	-2.190882e-06	-2.084231e-09	-1.554281e+01	-1.423970e+02
1.360000e-06	-2.148837e-06	-2.076592e-09	-1.524453e+01	-1.418481e+02
1.370000e-06	-2.106443e-06	-2.068737e-09	-1.494378e+01	-1.412827e+02
1.380000e-06	-2.063767e-06	-2.056760e-09	-1.464101e+01	-1.406995e+02
1.390000e-06	-2.020888e-06	-2.042908e-09	-1.433682e+01	-1.400976e+02
1.400000e-06	-1.977835e-06	-2.032577e-09	-1.403139e+01	-1.394757e+02
1.410000e-06	-1.934597e-06	-2.024240e-09	-1.372465e+01	-1.388330e+02
1.420000e-06	-1.891205e-06	-2.012475e-09	-1.341681e+01	-1.381685e+02
1.430000e-06	-1.847686e-06	-1.998693e-09	-1.310807e+01	-1.374815e+02
1.440000e-06	-1.804086e-06	-1.988228e-09	-1.279876e+01	-1.367715e+02
1.450000e-06	-1.760376e-06	-1.977367e-09	-1.248867e+01	-1.360377e+02
1.460000e-06	-1.716500e-06	-1.964107e-09	-1.217740e+01	-1.352799e+02
1.470000e-06	-1.672517e-06	-1.947927e-09	-1.186536e+01	-1.344978e+02
1.480000e-06	-1.628442e-06	-1.933253e-09	-1.155268e+01	-1.336913e+02
1.490000e-06	-1.584293e-06	-1.920897e-09	-1.123948e+01	-1.328602e+02
1.500000e-06	-1.540132e-06	-1.908418e-09	-1.092618e+01	-1.320047e+02
1.510000e-06	-1.495938e-06	-1.892478e-09	-1.061266e+01	-1.311249e+02
1.520000e-06	-1.451642e-06	-1.876501e-09	-1.029841e+01	-1.302209e+02
1.530000e-06	-1.407260e-06	-1.862945e-09	-9.983552e+00	-1.292932e+02
1.540000e-06	-1.362842e-06	-1.849100e-09	-9.668434e+00	-1.283419e+02
1.550000e-06	-1.318404e-06	-1.831462e-09	-9.353178e+00	-1.273673e+02
1.560000e-06	-1.273824e-06	-1.814703e-09	-9.036912e+00	-1.263697e+02
1.570000e-06	-1.229138e-06	-1.800191e-09	-8.719894e+00	-1.253493e+02
1.580000e-06	-1.184377e-06	-1.788039e-09	-8.402347e+00	-1.243063e+02
1.590000e-06	-1.139509e-06	-1.773706e-09	-8.084037e+00	-1.232407e+02
1.600000e-06	-1.094673e-06	-1.758324e-09	-7.765955e+00	-1.221524e+02
1.610000e-06	-1.049731e-06	-1.742341e-09	-7.447128e+00	-1.210413e+02
1.620000e-06	-1.004620e-06	-1.727575e-09	-7.127091e+00	-1.199069e+02
1.630000e-06	-9.594444e-07	-1.710418e-09	-6.806603e+00	-1.187487e+02
1.640000e-06	-9.141961e-07	-1.692003e-09	-6.485597e+00	-1.175659e+02
1.650000e-06	-8.688821e-07	-1.674784e-09	-6.164125e+00	-1.163577e+02
1.660000e-06	-8.234988e-07	-1.658957e-09	-5.842162e+00	-1.151228e+02
1.670000e-06	-7.779619e-07	-1.641789e-09	-5.519108e+00	-1.138599e+02
1.680000e-06	-7.324048e-07	-1.621155e-09	-5.195912e+00	-1.125674e+02
1.690000e-06	-6.868918e-07	-1.598176e-09	-4.873029e+00	-1.112437e+02
1.700000e-06	-6.413481e-07	-1.577884e-09	-4.549927e+00	-1.098867e+02
1.710000e-06	-5.957531e-07	-1.558107e-09	-4.226461e+00	-1.084944e+02
1.720000e-06	-5.500199e-07	-1.535421e-09	-3.902015e+00	-1.070645e+02
1.730000e-06	-5.042444e-07	-1.513060e-09	-3.577270e+00	-1.055947e+02
1.740000e-06	-4.584829e-07	-1.493442e-09	-3.252623e+00	-1.040826e+02
1.750000e-06	-4.126923e-07	-1.473082e-09	-2.927770e+00	-1.025255e+02
1.760000e-06	-3.668931e-07	-1.449835e-09	-2.602856e+00	-1.009211e+02
1.770000e-06	-3.210432e-07	-1.424980e-09	-2.277582e+00	-9.926681e+01
1.780000e-06	-2.750783e-07	-1.398390e-09	-1.951493e+00	-9.756010e+01
1.790000e-06	-2.290674e-07	-1.370673e-09	-1.625077e+00	-9.579861e+01
1.800000e-06	-1.830874e-07	-1.338051e-09	-1.298880e+00	-9.398007e+01
1.810000e-06	-1.371023e-07	-1.307635e-09	-9.726473e-01	-9.210235e+01
1.820000e-06	-9.111703e-08	-1.282923e-09	-6.464131e-01	-9.016353e+01
1.830000e-06	-4.516587e-08	-1.262281e-09	-3.204210e-01	-8.816189e+01
1.840000e-06	8.624096e-10	-1.239545e-09	6.118207e-03	-8.609596e+01
1.850000e-06	4.689357e-08	-1.211349e-09	3.326779e-01	-8.396454e+01
1.860000e-06	9.282694e-08	-1.174929e-09	6.585437e-01	-8.176673e+01
1.870000e-06	1.387444e-07	-1.131432e-09	9.842965e-01	-7.950192e+01
1.880000e-06	1.846732e-07	-1.085180e-09	1.310130e+00	-7.716985e+01
1.890000e-06	2.305489e-07	-1.041509e-09	1.635587e+00	-7.477056e+01
1.900000e-06	2.764230e-07	-1.004806e-09	1.961033e+00	-7.230442e+01
1.910000e-06	3.223966e-07	-9.724215e-10	2.287184e+00	-6.977215e+01
1.920000e-06	3.683028e-07	-9.402573e-10	2.612857e+00	-6.717477e+01
1.930000e-06	4.140846e-07	-9.071181e-10	2.937647e+00	-6.451362e+01
1.940000e-06	4.598459e-07	-8.704739e-10	3.262293e+00	-6.179033e+01
1.950000e-06	5.056323e-07	-8.302487e-10	3.587116e+00	-5.900679e+01
1.960000e-06	5.514516e-07	-7.830747e-10	3.912172e+00	-5.616516e+01
1.970000e-06	5.971874e-07	-7.288360e-10	4.236637e+00	-5.326783e+01
1.980000e-06	6.427840e-07	-6.772964e-10	4.560114e+00	-5.031736e+01
1.990000e-06	6.883222e-07	-6.343467e-10	4.883176e+00	-4.731650e+01
2.000000e-06	7.338282e-07	-5.961373e-10	5.206010e+00	-4.426814e+01
2.010000e-06	7.792639e-07	-5.555249e-10	5.528345e+00	-4.117527e+01
2.020000e-06	8.245723e-07	-5.136727e-10	5.849778e+00	-3.804095e+01
2.030000e-06	8.698269e-07	-4.716724e-10	6.170828e+00	-3.486832e+01
2.040000e-06	9.151526e-07	-4.250820e-10	6.492383e+00	-3.166051e+01
2.050000e-06	9.604112e-07	-3.719778e-10	6.813462e+00	-2.842066e+01
2.060000e-06	1.005502e-06	-3.176661e-10	7.133354e+00	-2.515189e+01
2.070000e-06	1.050498e-06	-2.669242e-10	7.452563e+00	-2.185726e+01
2.080000e-06	1.095435e-06	-2.209692e-10	7.771364e+00	-1.853979e+01
2.090000e-06	1.140335e-06	-1.759918e-10	8.089900e+00	-1.520242e+01
2.100000e-06	1.185162e-06	-1.316605e-10	8.407913e+00	-1.184799e+01
2.110000e-06	1.229769e-06	-8.568060e-11	8.724371e+00	-8.479258e+00
2.120000e-06	1.274233e-06	-3.598325e-11	9.039811e+00	-5.098906e+00
2.130000e-06	1.318694e-06	1.747623e-11	9.355237e+00	-1.709511e+00
2.140000e-06	1.363085e-06	7.226964e-11	9.670157e+00	1.686433e+00
2.150000e-06	1.407391e-06	1.248969e-10	9.984478e+00	5.086507e+00
2.160000e-06	1.451688e-06	1.737231e-10	1.029873e+01	8.488364e+00
2.170000e-06	1.495942e-06	2.217132e-10	1.061269e+01	1.188971e+01
2.180000e-06	1.540086e-06	2.715638e-10	1.092586e+01	1.528831e+01
2.190000e-06	1.584217e-06	3.215382e-10	1.123894e+01	1.868193e+01
2.200000e-06	1.628292e-06	3.710740e-10	1.155162e+01	2.206838e+01
2.210000e-06	1.672244e-06	4.223021e-10	1.186343e+01	2.544546e+01
2.220000e-06	1.716142e-06	4.730668e-10	1.217486e+01	2.881096e+01
2.230000e-06	1.759967e-06	5.219435e-10	1.248576e+01	3.216264e+01
2.240000e-06	1.803727e-06	5.677818e-10	1.279621e+01	3.549823e+01
2.250000e-06	1.847383e-06	6.122087e-10	1.310592e+01	3.881543e+01
2.260000e-06	1.890932e-06	6.577162e-10	1.341487e+01	4.211187e+01
2.270000e-06	1.934357e-06	7.032916e-10	1.372294e+01	4.538515e+01
2.280000e-06	1.977536e-06	7.498081e-10	1.402927e+01	4.863279e+01
2.290000e-06	2.020507e-06	7.985738e-10	1.433412e+01	5.185230e+01
2.300000e-06	2.063337e-06	8.493795e-10	1.463797e+01	5.504112e+01
2.310000e-06	2.105998e-06	8.942669e-10	1.494062e+01	5.819667e+01
2.320000e-06	2.148473e-06	9.337635e-10	1.524195e+01	6.131635e+01
2.330000e-06	2.190625e-06	9.712219e-10	1.554099e+01	6.439755e+01
2.340000e-06	2.232334e-06	1.010934e-09	1.583689e+01	6.743769e+01
2.350000e-06	2.273719e-06	1.054726e-09	1.613049e+01	7.043420e+01
2.360000e-06	2.314951e-06	1.097669e-09	1.642300e+01	7.338459e+01
2.370000e-06	2.355939e-06	1.140677e-09	1.671378e+01	7.628644e+01
2.380000e-06	2.396534e-06	1.185072e-09	1.700177e+01	7.913743e+01
2.390000e-06	2.436929e-06	1.226846e-09	1.728835e+01	8.193537e+01
2.400000e-06	2.477253e-06	1.258093e-09	1.757442e+01	8.467821e+01
2.410000e-06	2.517421e-06	1.284221e-09	1.785939e+01	8.736410e+01
2.420000e-06	2.557476e-06	1.314269e-09	1.814355e+01	8.999135e+01
2.430000e-06	2.597480e-06	1.352708e-09	1.842735e+01	9.255849e+01
2.440000e-06	2.637385e-06	1.397930e-09	1.871045e+01	9.506429e+01
2.450000e-06	2.677184e-06	1.440461e-09	1.899279e+01	9.750774e+01
2.460000e-06	2.716880e-06	1.478465e-09	1.927441e+01	9.988810e+01
2.470000e-06	2.756374e-06	1.510254e-09	1.955459e+01	1.022049e+02
2.480000e-06	2.795669e-06	1.535819e-09	1.983336e+01	1.044578e+02
2.490000e-06	2.834866e-06	1.558283e-09	2.011144e+01	1.066470e+02
2.500000e-06	2.873862e-06	1.584181e-09	2.038809e+01	1.087726e+02
2.510000e-06	2.912543e-06	1.618629e-09	2.066250e+01	1.108352e+02
2.520000e-06	2.950953e-06	1.656840e-09	2.093500e+01	1.128355e+02
2.530000e-06	2.989143e-06	1.690474e-09	2.120593e+01	1.147744e+02
2.540000e-06	3.027180e-06	1.717126e-09	2.147577e+01	1.166532e+02
2.550000e-06	3.065095e-06	1.741570e-09	2.174476e+01	1.184731e+02
2.560000e-06	3.102776e-06	1.764189e-09	2.201208e+01	1.202356e+02
2.570000e-06	3.140177e-06	1.781861e-09	2.227741e+01	1.219423e+02
2.580000e-06	3.177384e-06	1.799791e-09	2.254137e+01	1.235948e+02
2.590000e-06	3.214380e-06	1.825278e-09	2.280383e+01	1.251949e+02
2.600000e-06	3.251153e-06	1.857755e-09	2.306471e+01	1.267444e+02
2.610000e-06	3.287667e-06	1.889329e-09	2.332375e+01	1.282450e+02
2.620000e-06	3.323927e-06	1.915114e-09	2.358099e+01	1.296985e+02
2.630000e-06	3.360058e-06	1.936323e-09	2.383732e+01	1.311067e+02
2.640000e-06	3.396117e-06	1.953483e-09	2.409313e+01	1.324712e+02
2.650000e-06	3.432085e-06	1.964319e-09	2.434830e+01	1.337936e+02
2.660000e-06	3.467903e-06	1.974849e-09	2.460241e+01	1.350754e+02
2.670000e-06	3.503550e-06	1.992242e-09	2.485529e+01	1.363180e+02
2.680000e-06	3.538846e-06	2.016167e-09	2.510570e+01	1.375227e+02
2.690000e-06	3.573799e-06	2.040185e-09	2.535367e+01	1.386905e+02
2.700000e-06	3.608370e-06	2.059128e-09	2.559892e+01	1.398226e+02
2.710000e-06	3.642405e-06	2.074127e-09	2.584038e+01	1.409198e+02
2.720000e-06	3.676061e-06	2.090363e-09	2.607914e+01	1.419828e+02
2.730000e-06	3.709375e-06	2.105499e-09	2.631549e+01	1.430123e+02
2.740000e-06	3.742173e-06	2.116707e-09	2.654816e+01	1.440089e+02
2.750000e-06	3.774602e-06	2.132770e-09	2.677822e+01	1.449729e+02
2.760000e-06	3.806878e-06	2.152990e-09	2.700720e+01	1.459049e+02
2.770000e-06	3.839019e-06	2.169769e-09	2.723522e+01	1.468050e+02
2.780000e-06	3.871006e-06	2.181726e-09	2.746215e+01	1.476736e+02
2.790000e-06	3.902771e-06	2.192796e-09	2.768750e+01	1.485109e+02
2.800000e-06	3.934399e-06	2.206495e-09	2.791187e+01	1.493172e+02
2.810000e-06	3.965813e-06	2.218733e-09	2.813473e+01	1.500928e+02
2.820000e-06	3.996843e-06	2.225643e-09	2.835487e+01	1.508379e+02
2.830000e-06	4.027568e-06	2.231799e-09	2.857285e+01	1.515529e+02
2.840000e-06	4.058080e-06	2.243164e-09	2.878931e+01	1.522383e+02
2.850000e-06	4.088335e-06	2.257212e-09	2.900395e+01	1.528945e+02
2.860000e-06	4.118301e-06	2.268665e-09	2.921653e+01	1.535221e+02
2.870000e-06	4.148014e-06	2.276775e-09	2.942733e+01	1.541218e+02
2.880000e-06	4.177455e-06	2.283271e-09	2.963619e+01	1.546943e+02
2.890000e-06	4.206582e-06	2.288845e-09	2.984283e+01	1.552406e+02
2.900000e-06	4.235386e-06	2.291940e-09	3.004717e+01	1.557615e+02
