# Temperatura_=_-1.7
# Concentracion g/m^3_=_4090.0
# C_Vs_to_Am_M_A/Vsm_=_65563218390.804596
# pendiente_HvsI_1/m_=_3716.3
# ordenada_HvsI_A/m_=_1297.0
# frecuencia_Hz_=_135083.20995232687

Tiempo_(s)	Campo_(V.s)	Magnetizacion_(V.s)	Campo_(kA/m)	Magnetizacion_(A/m)
0.000000e+00	-5.435395e-06	-2.572174e-09	-3.838822e+01	-1.651210e+02
1.000000e-08	-5.435492e-06	-2.573053e-09	-3.838891e+01	-1.650905e+02
2.000000e-08	-5.435343e-06	-2.572085e-09	-3.838786e+01	-1.650615e+02
3.000000e-08	-5.434828e-06	-2.570136e-09	-3.838422e+01	-1.650354e+02
4.000000e-08	-5.433851e-06	-2.566807e-09	-3.837732e+01	-1.650140e+02
5.000000e-08	-5.432429e-06	-2.568845e-09	-3.836727e+01	-1.649987e+02
6.000000e-08	-5.430414e-06	-2.589878e-09	-3.835304e+01	-1.649911e+02
7.000000e-08	-5.427736e-06	-2.612359e-09	-3.833413e+01	-1.649929e+02
8.000000e-08	-5.424410e-06	-2.558180e-09	-3.831064e+01	-1.650053e+02
9.000000e-08	-5.420561e-06	-2.461149e-09	-3.828346e+01	-1.650297e+02
1.000000e-07	-5.416490e-06	-2.510503e-09	-3.825470e+01	-1.650672e+02
1.100000e-07	-5.412235e-06	-2.672269e-09	-3.822465e+01	-1.651188e+02
1.200000e-07	-5.407664e-06	-2.630260e-09	-3.819237e+01	-1.651852e+02
1.300000e-07	-5.402703e-06	-2.446527e-09	-3.815733e+01	-1.652671e+02
1.400000e-07	-5.397458e-06	-2.494801e-09	-3.812029e+01	-1.653647e+02
1.500000e-07	-5.391897e-06	-2.708099e-09	-3.808101e+01	-1.654780e+02
1.600000e-07	-5.385727e-06	-2.656172e-09	-3.803743e+01	-1.656070e+02
1.700000e-07	-5.379008e-06	-2.400463e-09	-3.798998e+01	-1.657511e+02
1.800000e-07	-5.372023e-06	-2.454568e-09	-3.794065e+01	-1.659096e+02
1.900000e-07	-5.364843e-06	-2.663393e-09	-3.788994e+01	-1.660817e+02
2.000000e-07	-5.357340e-06	-2.627812e-09	-3.783695e+01	-1.662660e+02
2.100000e-07	-5.349518e-06	-2.476841e-09	-3.778170e+01	-1.664614e+02
2.200000e-07	-5.341505e-06	-2.580963e-09	-3.772512e+01	-1.666661e+02
2.300000e-07	-5.333218e-06	-2.688272e-09	-3.766658e+01	-1.668784e+02
2.400000e-07	-5.324440e-06	-2.569358e-09	-3.760459e+01	-1.670964e+02
2.500000e-07	-5.315024e-06	-2.514797e-09	-3.753808e+01	-1.673181e+02
2.600000e-07	-5.305057e-06	-2.661822e-09	-3.746769e+01	-1.675414e+02
2.700000e-07	-5.294501e-06	-2.679610e-09	-3.739314e+01	-1.677641e+02
2.800000e-07	-5.283454e-06	-2.530204e-09	-3.731512e+01	-1.679840e+02
2.900000e-07	-5.272030e-06	-2.589311e-09	-3.723443e+01	-1.681991e+02
3.000000e-07	-5.260175e-06	-2.725780e-09	-3.715071e+01	-1.684071e+02
3.100000e-07	-5.247868e-06	-2.612807e-09	-3.706379e+01	-1.686061e+02
3.200000e-07	-5.235164e-06	-2.483272e-09	-3.697406e+01	-1.687941e+02
3.300000e-07	-5.222117e-06	-2.608644e-09	-3.688192e+01	-1.689693e+02
3.400000e-07	-5.208660e-06	-2.670801e-09	-3.678688e+01	-1.691301e+02
3.500000e-07	-5.194874e-06	-2.567331e-09	-3.668951e+01	-1.692751e+02
3.600000e-07	-5.180733e-06	-2.562774e-09	-3.658964e+01	-1.694029e+02
3.700000e-07	-5.166120e-06	-2.632763e-09	-3.648643e+01	-1.695125e+02
3.800000e-07	-5.150874e-06	-2.583533e-09	-3.637876e+01	-1.696031e+02
3.900000e-07	-5.135039e-06	-2.571574e-09	-3.626692e+01	-1.696741e+02
4.000000e-07	-5.118735e-06	-2.609526e-09	-3.615177e+01	-1.697251e+02
4.100000e-07	-5.101948e-06	-2.561171e-09	-3.603321e+01	-1.697559e+02
4.200000e-07	-5.084848e-06	-2.526498e-09	-3.591244e+01	-1.697666e+02
4.300000e-07	-5.067589e-06	-2.618614e-09	-3.579055e+01	-1.697575e+02
4.400000e-07	-5.050050e-06	-2.620242e-09	-3.566667e+01	-1.697291e+02
4.500000e-07	-5.032124e-06	-2.527742e-09	-3.554007e+01	-1.696820e+02
4.600000e-07	-5.013918e-06	-2.541973e-09	-3.541148e+01	-1.696170e+02
4.700000e-07	-4.995343e-06	-2.610012e-09	-3.528029e+01	-1.695351e+02
4.800000e-07	-4.976241e-06	-2.584324e-09	-3.514538e+01	-1.694374e+02
4.900000e-07	-4.956758e-06	-2.547908e-09	-3.500779e+01	-1.693251e+02
5.000000e-07	-4.937058e-06	-2.558565e-09	-3.486865e+01	-1.691994e+02
5.100000e-07	-4.917134e-06	-2.572960e-09	-3.472793e+01	-1.690617e+02
5.200000e-07	-4.896931e-06	-2.584607e-09	-3.458525e+01	-1.689134e+02
5.300000e-07	-4.876457e-06	-2.570881e-09	-3.444064e+01	-1.687558e+02
5.400000e-07	-4.855699e-06	-2.531971e-09	-3.429404e+01	-1.685903e+02
5.500000e-07	-4.834541e-06	-2.540372e-09	-3.414461e+01	-1.684182e+02
5.600000e-07	-4.812993e-06	-2.582184e-09	-3.399242e+01	-1.682408e+02
5.700000e-07	-4.791167e-06	-2.561981e-09	-3.383828e+01	-1.680594e+02
5.800000e-07	-4.769051e-06	-2.525574e-09	-3.368208e+01	-1.678751e+02
5.900000e-07	-4.746654e-06	-2.537130e-09	-3.352390e+01	-1.676889e+02
6.000000e-07	-4.724024e-06	-2.562486e-09	-3.336406e+01	-1.675019e+02
6.100000e-07	-4.701018e-06	-2.554832e-09	-3.320159e+01	-1.673148e+02
6.200000e-07	-4.677680e-06	-2.530915e-09	-3.303675e+01	-1.671284e+02
6.300000e-07	-4.654038e-06	-2.512251e-09	-3.286978e+01	-1.669434e+02
6.400000e-07	-4.630085e-06	-2.529488e-09	-3.270061e+01	-1.667602e+02
6.500000e-07	-4.605984e-06	-2.549100e-09	-3.253039e+01	-1.665792e+02
6.600000e-07	-4.581593e-06	-2.529711e-09	-3.235813e+01	-1.664008e+02
6.700000e-07	-4.556778e-06	-2.500403e-09	-3.218287e+01	-1.662250e+02
6.800000e-07	-4.531541e-06	-2.515471e-09	-3.200463e+01	-1.660520e+02
6.900000e-07	-4.505751e-06	-2.530658e-09	-3.182248e+01	-1.658817e+02
7.000000e-07	-4.479477e-06	-2.512456e-09	-3.163692e+01	-1.657141e+02
7.100000e-07	-4.452754e-06	-2.485180e-09	-3.144818e+01	-1.655488e+02
7.200000e-07	-4.425570e-06	-2.486389e-09	-3.125620e+01	-1.653856e+02
7.300000e-07	-4.398079e-06	-2.503427e-09	-3.106204e+01	-1.652242e+02
7.400000e-07	-4.370334e-06	-2.504628e-09	-3.086608e+01	-1.650641e+02
7.500000e-07	-4.342417e-06	-2.480485e-09	-3.066891e+01	-1.649050e+02
7.600000e-07	-4.314281e-06	-2.470970e-09	-3.047020e+01	-1.647464e+02
7.700000e-07	-4.285839e-06	-2.486365e-09	-3.026932e+01	-1.645877e+02
7.800000e-07	-4.257195e-06	-2.492960e-09	-3.006703e+01	-1.644283e+02
7.900000e-07	-4.228271e-06	-2.475217e-09	-2.986274e+01	-1.642679e+02
8.000000e-07	-4.199031e-06	-2.461394e-09	-2.965623e+01	-1.641057e+02
8.100000e-07	-4.169547e-06	-2.466937e-09	-2.944800e+01	-1.639412e+02
8.200000e-07	-4.139776e-06	-2.474260e-09	-2.923774e+01	-1.637739e+02
8.300000e-07	-4.109701e-06	-2.463198e-09	-2.902533e+01	-1.636033e+02
8.400000e-07	-4.079188e-06	-2.444114e-09	-2.880982e+01	-1.634287e+02
8.500000e-07	-4.048203e-06	-2.442142e-09	-2.859099e+01	-1.632497e+02
8.600000e-07	-4.017023e-06	-2.451599e-09	-2.837077e+01	-1.630659e+02
8.700000e-07	-3.985799e-06	-2.450112e-09	-2.815025e+01	-1.628768e+02
8.800000e-07	-3.954394e-06	-2.433010e-09	-2.792845e+01	-1.626819e+02
8.900000e-07	-3.922813e-06	-2.423560e-09	-2.770541e+01	-1.624809e+02
9.000000e-07	-3.891037e-06	-2.426204e-09	-2.748098e+01	-1.622734e+02
9.100000e-07	-3.859020e-06	-2.424478e-09	-2.725486e+01	-1.620592e+02
9.200000e-07	-3.826817e-06	-2.411101e-09	-2.702742e+01	-1.618380e+02
9.300000e-07	-3.794375e-06	-2.404146e-09	-2.679829e+01	-1.616096e+02
9.400000e-07	-3.761566e-06	-2.411702e-09	-2.656657e+01	-1.613739e+02
9.500000e-07	-3.728375e-06	-2.420326e-09	-2.633216e+01	-1.611308e+02
9.600000e-07	-3.694810e-06	-2.411222e-09	-2.609510e+01	-1.608802e+02
9.700000e-07	-3.660677e-06	-2.398998e-09	-2.585403e+01	-1.606223e+02
9.800000e-07	-3.626090e-06	-2.394843e-09	-2.560976e+01	-1.603569e+02
9.900000e-07	-3.591204e-06	-2.395061e-09	-2.536337e+01	-1.600844e+02
1.000000e-06	-3.556018e-06	-2.388206e-09	-2.511487e+01	-1.598049e+02
1.010000e-06	-3.520602e-06	-2.381470e-09	-2.486473e+01	-1.595186e+02
1.020000e-06	-3.484984e-06	-2.381111e-09	-2.461318e+01	-1.592258e+02
1.030000e-06	-3.449191e-06	-2.385318e-09	-2.436038e+01	-1.589270e+02
1.040000e-06	-3.413191e-06	-2.380335e-09	-2.410613e+01	-1.586223e+02
1.050000e-06	-3.377064e-06	-2.366192e-09	-2.385098e+01	-1.583124e+02
1.060000e-06	-3.340799e-06	-2.354026e-09	-2.359485e+01	-1.579976e+02
1.070000e-06	-3.304315e-06	-2.348152e-09	-2.333718e+01	-1.576784e+02
1.080000e-06	-3.267673e-06	-2.339651e-09	-2.307839e+01	-1.573553e+02
1.090000e-06	-3.230737e-06	-2.328637e-09	-2.281752e+01	-1.570288e+02
1.100000e-06	-3.193478e-06	-2.325245e-09	-2.255438e+01	-1.566994e+02
1.110000e-06	-3.156036e-06	-2.330371e-09	-2.228994e+01	-1.563676e+02
1.120000e-06	-3.118395e-06	-2.331916e-09	-2.202409e+01	-1.560338e+02
1.130000e-06	-3.080456e-06	-2.323786e-09	-2.175614e+01	-1.556984e+02
1.140000e-06	-3.042246e-06	-2.312582e-09	-2.148628e+01	-1.553618e+02
1.150000e-06	-3.003901e-06	-2.306088e-09	-2.121546e+01	-1.550243e+02
1.160000e-06	-2.965416e-06	-2.300997e-09	-2.094365e+01	-1.546861e+02
1.170000e-06	-2.926744e-06	-2.291387e-09	-2.067053e+01	-1.543475e+02
1.180000e-06	-2.887805e-06	-2.281972e-09	-2.039552e+01	-1.540085e+02
1.190000e-06	-2.848593e-06	-2.279700e-09	-2.011858e+01	-1.536691e+02
1.200000e-06	-2.809219e-06	-2.280038e-09	-1.984049e+01	-1.533292e+02
1.210000e-06	-2.769671e-06	-2.272679e-09	-1.956118e+01	-1.529887e+02
1.220000e-06	-2.729984e-06	-2.261466e-09	-1.928088e+01	-1.526471e+02
1.230000e-06	-2.690196e-06	-2.253358e-09	-1.899988e+01	-1.523041e+02
1.240000e-06	-2.650240e-06	-2.248449e-09	-1.871768e+01	-1.519592e+02
1.250000e-06	-2.610185e-06	-2.240792e-09	-1.843479e+01	-1.516118e+02
1.260000e-06	-2.570035e-06	-2.234137e-09	-1.815122e+01	-1.512613e+02
1.270000e-06	-2.529738e-06	-2.229581e-09	-1.786662e+01	-1.509067e+02
1.280000e-06	-2.489302e-06	-2.227887e-09	-1.758103e+01	-1.505473e+02
1.290000e-06	-2.448705e-06	-2.222162e-09	-1.729432e+01	-1.501822e+02
1.300000e-06	-2.407854e-06	-2.213297e-09	-1.700580e+01	-1.498103e+02
1.310000e-06	-2.366693e-06	-2.206065e-09	-1.671509e+01	-1.494307e+02
1.320000e-06	-2.325344e-06	-2.200323e-09	-1.642306e+01	-1.490423e+02
1.330000e-06	-2.283660e-06	-2.192068e-09	-1.612866e+01	-1.486442e+02
1.340000e-06	-2.241679e-06	-2.182680e-09	-1.583216e+01	-1.482351e+02
1.350000e-06	-2.199450e-06	-2.174036e-09	-1.553391e+01	-1.478142e+02
1.360000e-06	-2.156975e-06	-2.166138e-09	-1.523393e+01	-1.473805e+02
1.370000e-06	-2.114303e-06	-2.159247e-09	-1.493255e+01	-1.469330e+02
1.380000e-06	-2.071394e-06	-2.151857e-09	-1.462951e+01	-1.464708e+02
1.390000e-06	-2.028267e-06	-2.143733e-09	-1.432491e+01	-1.459932e+02
1.400000e-06	-1.984882e-06	-2.137703e-09	-1.401850e+01	-1.454994e+02
1.410000e-06	-1.941405e-06	-2.129904e-09	-1.371144e+01	-1.449887e+02
1.420000e-06	-1.897862e-06	-2.117972e-09	-1.340391e+01	-1.444608e+02
1.430000e-06	-1.854180e-06	-2.105584e-09	-1.309540e+01	-1.439152e+02
1.440000e-06	-1.810400e-06	-2.095491e-09	-1.278620e+01	-1.433514e+02
1.450000e-06	-1.766610e-06	-2.086139e-09	-1.247693e+01	-1.427694e+02
1.460000e-06	-1.722771e-06	-2.075037e-09	-1.216730e+01	-1.421690e+02
1.470000e-06	-1.678781e-06	-2.063055e-09	-1.185662e+01	-1.415501e+02
1.480000e-06	-1.634681e-06	-2.051866e-09	-1.154516e+01	-1.409128e+02
1.490000e-06	-1.590544e-06	-2.042173e-09	-1.123343e+01	-1.402572e+02
1.500000e-06	-1.546372e-06	-2.030568e-09	-1.092147e+01	-1.395834e+02
1.510000e-06	-1.502137e-06	-2.016653e-09	-1.060905e+01	-1.388917e+02
1.520000e-06	-1.457742e-06	-2.003331e-09	-1.029550e+01	-1.381823e+02
1.530000e-06	-1.413206e-06	-1.991096e-09	-9.980960e+00	-1.374554e+02
1.540000e-06	-1.368621e-06	-1.976585e-09	-9.666071e+00	-1.367112e+02
1.550000e-06	-1.323972e-06	-1.961685e-09	-9.350733e+00	-1.359498e+02
1.560000e-06	-1.279250e-06	-1.950647e-09	-9.034879e+00	-1.351715e+02
1.570000e-06	-1.234368e-06	-1.941892e-09	-8.717891e+00	-1.343762e+02
1.580000e-06	-1.189294e-06	-1.929481e-09	-8.399554e+00	-1.335639e+02
1.590000e-06	-1.144117e-06	-1.916823e-09	-8.080482e+00	-1.327344e+02
1.600000e-06	-1.098938e-06	-1.904737e-09	-7.761397e+00	-1.318876e+02
1.610000e-06	-1.053723e-06	-1.891793e-09	-7.442066e+00	-1.310229e+02
1.620000e-06	-1.008359e-06	-1.875872e-09	-7.121675e+00	-1.301398e+02
1.630000e-06	-9.628482e-07	-1.858766e-09	-6.800247e+00	-1.292377e+02
1.640000e-06	-9.173567e-07	-1.846609e-09	-6.478958e+00	-1.283157e+02
1.650000e-06	-8.718599e-07	-1.838384e-09	-6.157630e+00	-1.273727e+02
1.660000e-06	-8.262562e-07	-1.827483e-09	-5.835548e+00	-1.264077e+02
1.670000e-06	-7.806422e-07	-1.812163e-09	-5.513392e+00	-1.254193e+02
1.680000e-06	-7.350085e-07	-1.793535e-09	-5.191098e+00	-1.244061e+02
1.690000e-06	-6.892963e-07	-1.774373e-09	-4.868250e+00	-1.233664e+02
1.700000e-06	-6.434906e-07	-1.757039e-09	-4.544741e+00	-1.222986e+02
1.710000e-06	-5.976541e-07	-1.739572e-09	-4.221014e+00	-1.212009e+02
1.720000e-06	-5.518434e-07	-1.723242e-09	-3.897470e+00	-1.200712e+02
1.730000e-06	-5.059488e-07	-1.708978e-09	-3.573333e+00	-1.189077e+02
1.740000e-06	-4.599315e-07	-1.694844e-09	-3.248329e+00	-1.177082e+02
1.750000e-06	-4.138948e-07	-1.676876e-09	-2.923189e+00	-1.164708e+02
1.760000e-06	-3.678818e-07	-1.656322e-09	-2.598216e+00	-1.151932e+02
1.770000e-06	-3.218569e-07	-1.635727e-09	-2.273158e+00	-1.138735e+02
1.780000e-06	-2.758302e-07	-1.615439e-09	-1.948089e+00	-1.125095e+02
1.790000e-06	-2.298255e-07	-1.594312e-09	-1.623174e+00	-1.110991e+02
1.800000e-06	-1.837615e-07	-1.570365e-09	-1.297840e+00	-1.096404e+02
1.810000e-06	-1.376092e-07	-1.549779e-09	-9.718841e-01	-1.081315e+02
1.820000e-06	-9.149368e-08	-1.530727e-09	-6.461867e-01	-1.065705e+02
1.830000e-06	-4.542451e-08	-1.508021e-09	-3.208169e-01	-1.049556e+02
1.840000e-06	6.466422e-10	-1.485162e-09	4.566999e-03	-1.032853e+02
1.850000e-06	4.676879e-08	-1.459274e-09	3.303110e-01	-1.015579e+02
1.860000e-06	9.302838e-08	-1.430736e-09	6.570257e-01	-9.977205e+01
1.870000e-06	1.392254e-07	-1.400569e-09	9.832984e-01	-9.792643e+01
1.880000e-06	1.853027e-07	-1.369603e-09	1.308726e+00	-9.601982e+01
1.890000e-06	2.313981e-07	-1.338101e-09	1.634281e+00	-9.405112e+01
1.900000e-06	2.775374e-07	-1.310171e-09	1.960146e+00	-9.201934e+01
1.910000e-06	3.236260e-07	-1.281872e-09	2.285653e+00	-8.992359e+01
1.920000e-06	3.696316e-07	-1.250081e-09	2.610574e+00	-8.776307e+01
1.930000e-06	4.156620e-07	-1.218585e-09	2.935670e+00	-8.553710e+01
1.940000e-06	4.616203e-07	-1.190213e-09	3.260257e+00	-8.324506e+01
1.950000e-06	5.075118e-07	-1.159876e-09	3.584371e+00	-8.088641e+01
1.960000e-06	5.534162e-07	-1.122974e-09	3.908578e+00	-7.846070e+01
1.970000e-06	5.993207e-07	-1.081497e-09	4.232785e+00	-7.596754e+01
1.980000e-06	6.451722e-07	-1.040573e-09	4.556617e+00	-7.340661e+01
1.990000e-06	6.909197e-07	-1.000525e-09	4.879715e+00	-7.077769e+01
2.000000e-06	7.366824e-07	-9.579831e-10	5.202920e+00	-6.808060e+01
2.010000e-06	7.824464e-07	-9.170976e-10	5.526135e+00	-6.531526e+01
2.020000e-06	8.281330e-07	-8.787704e-10	5.848803e+00	-6.248166e+01
2.030000e-06	8.737565e-07	-8.402475e-10	6.171025e+00	-5.957991e+01
2.040000e-06	9.192235e-07	-7.976911e-10	6.492142e+00	-5.661021e+01
2.050000e-06	9.645530e-07	-7.508258e-10	6.812288e+00	-5.357291e+01
2.060000e-06	1.009839e-06	-7.044498e-10	7.132124e+00	-5.046847e+01
2.070000e-06	1.055056e-06	-6.606363e-10	7.451477e+00	-4.729754e+01
2.080000e-06	1.100257e-06	-6.138924e-10	7.770718e+00	-4.406095e+01
2.090000e-06	1.145355e-06	-5.660870e-10	8.089230e+00	-4.075974e+01
2.100000e-06	1.190282e-06	-5.205902e-10	8.406529e+00	-3.739516e+01
2.110000e-06	1.235167e-06	-4.758989e-10	8.723537e+00	-3.396875e+01
2.120000e-06	1.279989e-06	-4.238157e-10	9.040098e+00	-3.048228e+01
2.130000e-06	1.324690e-06	-3.636135e-10	9.355808e+00	-2.693786e+01
2.140000e-06	1.369285e-06	-3.016356e-10	9.670763e+00	-2.333789e+01
2.150000e-06	1.413739e-06	-2.446111e-10	9.984729e+00	-1.968511e+01
2.160000e-06	1.458108e-06	-1.925813e-10	1.029809e+01	-1.598260e+01
2.170000e-06	1.502402e-06	-1.394323e-10	1.061092e+01	-1.223382e+01
2.180000e-06	1.546588e-06	-8.243958e-11	1.092299e+01	-8.442569e+00
2.190000e-06	1.590744e-06	-2.598139e-11	1.123484e+01	-4.613015e+00
2.200000e-06	1.634862e-06	3.117399e-11	1.154644e+01	-7.496873e-01
2.210000e-06	1.678904e-06	9.381262e-11	1.185749e+01	3.142539e+00
2.220000e-06	1.722851e-06	1.612163e-10	1.216787e+01	7.058456e+00
2.230000e-06	1.766753e-06	2.259795e-10	1.247794e+01	1.099254e+01
2.240000e-06	1.810609e-06	2.847422e-10	1.278767e+01	1.493900e+01
2.250000e-06	1.854404e-06	3.430668e-10	1.309698e+01	1.889177e+01
2.260000e-06	1.898083e-06	4.028080e-10	1.340547e+01	2.284460e+01
2.270000e-06	1.941638e-06	4.597827e-10	1.371308e+01	2.679104e+01
2.280000e-06	1.985128e-06	5.138672e-10	1.402024e+01	3.072455e+01
2.290000e-06	2.028573e-06	5.697748e-10	1.432707e+01	3.463849e+01
2.300000e-06	2.071909e-06	6.283066e-10	1.463314e+01	3.852625e+01
2.310000e-06	2.114983e-06	6.872353e-10	1.493736e+01	4.238121e+01
2.320000e-06	2.157779e-06	7.432068e-10	1.523961e+01	4.619689e+01
2.330000e-06	2.200220e-06	7.990691e-10	1.553935e+01	4.996695e+01
2.340000e-06	2.242342e-06	8.553890e-10	1.583685e+01	5.368527e+01
2.350000e-06	2.284251e-06	9.110319e-10	1.613284e+01	5.734602e+01
2.360000e-06	2.325866e-06	9.641211e-10	1.642675e+01	6.094368e+01
2.370000e-06	2.367060e-06	1.012368e-09	1.671769e+01	6.447311e+01
2.380000e-06	2.407891e-06	1.059979e-09	1.700606e+01	6.792962e+01
2.390000e-06	2.448451e-06	1.108966e-09	1.729252e+01	7.130895e+01
2.400000e-06	2.488824e-06	1.153146e-09	1.757766e+01	7.460738e+01
2.410000e-06	2.529088e-06	1.192594e-09	1.786203e+01	7.782169e+01
2.420000e-06	2.569300e-06	1.234960e-09	1.814604e+01	8.094924e+01
2.430000e-06	2.609388e-06	1.283073e-09	1.842916e+01	8.398793e+01
2.440000e-06	2.649310e-06	1.331403e-09	1.871111e+01	8.693626e+01
2.450000e-06	2.689158e-06	1.372039e-09	1.899255e+01	8.979329e+01
2.460000e-06	2.728944e-06	1.408554e-09	1.927354e+01	9.255863e+01
2.470000e-06	2.768624e-06	1.444680e-09	1.955379e+01	9.523245e+01
2.480000e-06	2.808165e-06	1.476325e-09	1.983305e+01	9.781544e+01
2.490000e-06	2.847493e-06	1.505631e-09	2.011081e+01	1.003088e+02
2.500000e-06	2.886582e-06	1.536891e-09	2.038688e+01	1.027141e+02
2.510000e-06	2.925452e-06	1.575468e-09	2.066141e+01	1.050334e+02
2.520000e-06	2.964088e-06	1.616023e-09	2.093428e+01	1.072691e+02
2.530000e-06	3.002542e-06	1.648048e-09	2.120586e+01	1.094239e+02
2.540000e-06	3.040769e-06	1.673981e-09	2.147584e+01	1.115008e+02
2.550000e-06	3.078779e-06	1.700257e-09	2.174430e+01	1.135028e+02
2.560000e-06	3.116576e-06	1.725990e-09	2.201125e+01	1.154334e+02
2.570000e-06	3.154184e-06	1.748126e-09	2.227685e+01	1.172958e+02
2.580000e-06	3.191643e-06	1.771584e-09	2.254141e+01	1.190934e+02
2.590000e-06	3.228816e-06	1.801083e-09	2.280396e+01	1.208297e+02
2.600000e-06	3.265686e-06	1.833224e-09	2.306435e+01	1.225079e+02
2.610000e-06	3.302315e-06	1.859695e-09	2.332305e+01	1.241311e+02
2.620000e-06	3.338681e-06	1.880294e-09	2.357989e+01	1.257025e+02
2.630000e-06	3.374826e-06	1.902021e-09	2.383517e+01	1.272247e+02
2.640000e-06	3.410844e-06	1.926458e-09	2.408955e+01	1.287004e+02
2.650000e-06	3.446722e-06	1.944295e-09	2.434295e+01	1.301318e+02
2.660000e-06	3.482467e-06	1.957735e-09	2.459540e+01	1.315211e+02
2.670000e-06	3.518159e-06	1.976818e-09	2.484748e+01	1.328700e+02
2.680000e-06	3.553754e-06	2.001005e-09	2.509888e+01	1.341800e+02
2.690000e-06	3.589130e-06	2.022220e-09	2.534873e+01	1.354524e+02
2.700000e-06	3.624177e-06	2.037613e-09	2.559625e+01	1.366880e+02
2.710000e-06	3.658931e-06	2.052198e-09	2.584171e+01	1.378877e+02
2.720000e-06	3.693140e-06	2.069637e-09	2.608331e+01	1.390519e+02
2.730000e-06	3.726669e-06	2.086643e-09	2.632011e+01	1.401809e+02
2.740000e-06	3.759808e-06	2.100190e-09	2.655416e+01	1.412749e+02
2.750000e-06	3.792647e-06	2.115542e-09	2.678609e+01	1.423338e+02
2.760000e-06	3.825113e-06	2.137018e-09	2.701538e+01	1.433576e+02
2.770000e-06	3.857300e-06	2.158832e-09	2.724271e+01	1.443460e+02
2.780000e-06	3.889332e-06	2.173386e-09	2.746894e+01	1.452989e+02
2.790000e-06	3.921154e-06	2.182934e-09	2.769369e+01	1.462160e+02
2.800000e-06	3.952841e-06	2.194411e-09	2.791748e+01	1.470973e+02
2.810000e-06	3.984380e-06	2.209269e-09	2.814023e+01	1.479426e+02
2.820000e-06	4.015575e-06	2.221257e-09	2.836055e+01	1.487520e+02
2.830000e-06	4.046383e-06	2.228308e-09	2.857813e+01	1.495256e+02
2.840000e-06	4.076941e-06	2.239392e-09	2.879395e+01	1.502637e+02
2.850000e-06	4.107267e-06	2.257055e-09	2.900813e+01	1.509668e+02
2.860000e-06	4.137281e-06	2.273584e-09	2.922011e+01	1.516355e+02
2.870000e-06	4.167033e-06	2.284174e-09	2.943025e+01	1.522707e+02
2.880000e-06	4.196569e-06	2.289107e-09	2.963885e+01	1.528733e+02
2.890000e-06	4.225844e-06	2.292941e-09	2.984560e+01	1.534444e+02
2.900000e-06	4.254725e-06	2.296889e-09	3.004958e+01	1.539855e+02
