# Temperatura_=_-2.5
# Concentracion g/m^3_=_4090.0
# C_Vs_to_Am_M_A/Vsm_=_65563218390.804596
# pendiente_HvsI_1/m_=_3716.3
# ordenada_HvsI_A/m_=_1297.0
# frecuencia_Hz_=_135074.60666886414

Tiempo_(s)	Campo_(V.s)	Magnetizacion_(V.s)	Campo_(kA/m)	Magnetizacion_(A/m)
0.000000e+00	-5.439876e-06	-2.533506e-09	-3.838724e+01	-1.614100e+02
1.000000e-08	-5.440125e-06	-2.536075e-09	-3.838899e+01	-1.613583e+02
2.000000e-08	-5.440111e-06	-2.532508e-09	-3.838889e+01	-1.613062e+02
3.000000e-08	-5.439855e-06	-2.528712e-09	-3.838708e+01	-1.612554e+02
4.000000e-08	-5.439267e-06	-2.527804e-09	-3.838294e+01	-1.612075e+02
5.000000e-08	-5.438175e-06	-2.526349e-09	-3.837523e+01	-1.611641e+02
6.000000e-08	-5.436570e-06	-2.531878e-09	-3.836390e+01	-1.611270e+02
7.000000e-08	-5.434326e-06	-2.538128e-09	-3.834807e+01	-1.610976e+02
8.000000e-08	-5.431430e-06	-2.504331e-09	-3.832763e+01	-1.610774e+02
9.000000e-08	-5.428036e-06	-2.455921e-09	-3.830368e+01	-1.610677e+02
1.000000e-07	-5.424168e-06	-2.500802e-09	-3.827639e+01	-1.610697e+02
1.100000e-07	-5.419912e-06	-2.581789e-09	-3.824636e+01	-1.610844e+02
1.200000e-07	-5.415449e-06	-2.544187e-09	-3.821487e+01	-1.611125e+02
1.300000e-07	-5.410889e-06	-2.440639e-09	-3.818268e+01	-1.611547e+02
1.400000e-07	-5.406040e-06	-2.464821e-09	-3.814846e+01	-1.612113e+02
1.500000e-07	-5.400644e-06	-2.585279e-09	-3.811039e+01	-1.612824e+02
1.600000e-07	-5.394813e-06	-2.534533e-09	-3.806924e+01	-1.613678e+02
1.700000e-07	-5.388753e-06	-2.395796e-09	-3.802647e+01	-1.614672e+02
1.800000e-07	-5.382283e-06	-2.403357e-09	-3.798082e+01	-1.615798e+02
1.900000e-07	-5.375324e-06	-2.515958e-09	-3.793171e+01	-1.617048e+02
2.000000e-07	-5.368051e-06	-2.511175e-09	-3.788039e+01	-1.618411e+02
2.100000e-07	-5.360578e-06	-2.427236e-09	-3.782766e+01	-1.619874e+02
2.200000e-07	-5.352899e-06	-2.459871e-09	-3.777347e+01	-1.621421e+02
2.300000e-07	-5.344867e-06	-2.504337e-09	-3.771679e+01	-1.623038e+02
2.400000e-07	-5.336442e-06	-2.464677e-09	-3.765734e+01	-1.624705e+02
2.500000e-07	-5.327673e-06	-2.431002e-09	-3.759546e+01	-1.626403e+02
2.600000e-07	-5.318320e-06	-2.499531e-09	-3.752946e+01	-1.628114e+02
2.700000e-07	-5.308212e-06	-2.502176e-09	-3.745813e+01	-1.629817e+02
2.800000e-07	-5.297506e-06	-2.450510e-09	-3.738258e+01	-1.631491e+02
2.900000e-07	-5.286185e-06	-2.476174e-09	-3.730269e+01	-1.633118e+02
3.000000e-07	-5.274384e-06	-2.530938e-09	-3.721942e+01	-1.634677e+02
3.100000e-07	-5.262340e-06	-2.470585e-09	-3.713443e+01	-1.636149e+02
3.200000e-07	-5.249996e-06	-2.424597e-09	-3.704732e+01	-1.637518e+02
3.300000e-07	-5.237274e-06	-2.483473e-09	-3.695754e+01	-1.638767e+02
3.400000e-07	-5.224132e-06	-2.510851e-09	-3.686481e+01	-1.639881e+02
3.500000e-07	-5.210593e-06	-2.474509e-09	-3.676927e+01	-1.640847e+02
3.600000e-07	-5.196647e-06	-2.476240e-09	-3.667085e+01	-1.641654e+02
3.700000e-07	-5.182352e-06	-2.504263e-09	-3.656998e+01	-1.642294e+02
3.800000e-07	-5.167559e-06	-2.485046e-09	-3.646560e+01	-1.642758e+02
3.900000e-07	-5.152029e-06	-2.474273e-09	-3.635600e+01	-1.643044e+02
4.000000e-07	-5.135919e-06	-2.472147e-09	-3.624232e+01	-1.643147e+02
4.100000e-07	-5.119411e-06	-2.449586e-09	-3.612583e+01	-1.643067e+02
4.200000e-07	-5.102632e-06	-2.443891e-09	-3.600743e+01	-1.642807e+02
4.300000e-07	-5.085550e-06	-2.480418e-09	-3.588688e+01	-1.642369e+02
4.400000e-07	-5.068142e-06	-2.475218e-09	-3.576404e+01	-1.641760e+02
4.500000e-07	-5.050475e-06	-2.440241e-09	-3.563937e+01	-1.640987e+02
4.600000e-07	-5.032485e-06	-2.439056e-09	-3.551242e+01	-1.640058e+02
4.700000e-07	-5.014098e-06	-2.464182e-09	-3.538268e+01	-1.638983e+02
4.800000e-07	-4.995348e-06	-2.449330e-09	-3.525036e+01	-1.637775e+02
4.900000e-07	-4.976258e-06	-2.426845e-09	-3.511565e+01	-1.636445e+02
5.000000e-07	-4.956798e-06	-2.427318e-09	-3.497833e+01	-1.635006e+02
5.100000e-07	-4.937057e-06	-2.450732e-09	-3.483902e+01	-1.633472e+02
5.200000e-07	-4.917134e-06	-2.456041e-09	-3.469843e+01	-1.631857e+02
5.300000e-07	-4.896961e-06	-2.440782e-09	-3.455608e+01	-1.630174e+02
5.400000e-07	-4.876401e-06	-2.425803e-09	-3.441100e+01	-1.628438e+02
5.500000e-07	-4.855500e-06	-2.432820e-09	-3.426350e+01	-1.626661e+02
5.600000e-07	-4.834264e-06	-2.436441e-09	-3.411365e+01	-1.624856e+02
5.700000e-07	-4.812638e-06	-2.428167e-09	-3.396104e+01	-1.623036e+02
5.800000e-07	-4.790681e-06	-2.413186e-09	-3.380610e+01	-1.621211e+02
5.900000e-07	-4.768392e-06	-2.410347e-09	-3.364882e+01	-1.619391e+02
6.000000e-07	-4.745843e-06	-2.421956e-09	-3.348969e+01	-1.617587e+02
6.100000e-07	-4.723020e-06	-2.431626e-09	-3.332864e+01	-1.615805e+02
6.200000e-07	-4.699876e-06	-2.416704e-09	-3.316533e+01	-1.614052e+02
6.300000e-07	-4.676419e-06	-2.399887e-09	-3.299979e+01	-1.612334e+02
6.400000e-07	-4.652688e-06	-2.408639e-09	-3.283233e+01	-1.610654e+02
6.500000e-07	-4.628728e-06	-2.415737e-09	-3.266326e+01	-1.609016e+02
6.600000e-07	-4.604512e-06	-2.401762e-09	-3.249238e+01	-1.607421e+02
6.700000e-07	-4.580065e-06	-2.391552e-09	-3.231986e+01	-1.605868e+02
6.800000e-07	-4.555286e-06	-2.399763e-09	-3.214500e+01	-1.604358e+02
6.900000e-07	-4.529991e-06	-2.405841e-09	-3.196651e+01	-1.602889e+02
7.000000e-07	-4.504093e-06	-2.401008e-09	-3.178375e+01	-1.601456e+02
7.100000e-07	-4.477607e-06	-2.386590e-09	-3.159685e+01	-1.600056e+02
7.200000e-07	-4.450664e-06	-2.379624e-09	-3.140672e+01	-1.598685e+02
7.300000e-07	-4.423358e-06	-2.383085e-09	-3.121404e+01	-1.597336e+02
7.400000e-07	-4.395775e-06	-2.385508e-09	-3.101939e+01	-1.596005e+02
7.500000e-07	-4.368017e-06	-2.373225e-09	-3.082351e+01	-1.594683e+02
7.600000e-07	-4.340028e-06	-2.369350e-09	-3.062600e+01	-1.593366e+02
7.700000e-07	-4.311815e-06	-2.375440e-09	-3.042692e+01	-1.592044e+02
7.800000e-07	-4.283342e-06	-2.377915e-09	-3.022600e+01	-1.590712e+02
7.900000e-07	-4.254596e-06	-2.367263e-09	-3.002314e+01	-1.589363e+02
8.000000e-07	-4.225584e-06	-2.356429e-09	-2.981841e+01	-1.587988e+02
8.100000e-07	-4.196224e-06	-2.353409e-09	-2.961123e+01	-1.586582e+02
8.200000e-07	-4.166585e-06	-2.357262e-09	-2.940208e+01	-1.585138e+02
8.300000e-07	-4.136679e-06	-2.354669e-09	-2.919104e+01	-1.583649e+02
8.400000e-07	-4.106538e-06	-2.348599e-09	-2.897835e+01	-1.582111e+02
8.500000e-07	-4.076127e-06	-2.346125e-09	-2.876375e+01	-1.580518e+02
8.600000e-07	-4.045286e-06	-2.350162e-09	-2.854612e+01	-1.578866e+02
8.700000e-07	-4.014117e-06	-2.346009e-09	-2.832617e+01	-1.577151e+02
8.800000e-07	-3.982827e-06	-2.334188e-09	-2.810536e+01	-1.575370e+02
8.900000e-07	-3.951412e-06	-2.324581e-09	-2.788368e+01	-1.573521e+02
9.000000e-07	-3.919777e-06	-2.324224e-09	-2.766044e+01	-1.571602e+02
9.100000e-07	-3.887931e-06	-2.325268e-09	-2.743572e+01	-1.569612e+02
9.200000e-07	-3.855910e-06	-2.320925e-09	-2.720976e+01	-1.567550e+02
9.300000e-07	-3.823690e-06	-2.318171e-09	-2.698240e+01	-1.565418e+02
9.400000e-07	-3.791121e-06	-2.323503e-09	-2.675257e+01	-1.563217e+02
9.500000e-07	-3.758138e-06	-2.327212e-09	-2.651982e+01	-1.560947e+02
9.600000e-07	-3.724803e-06	-2.318799e-09	-2.628458e+01	-1.558613e+02
9.700000e-07	-3.691126e-06	-2.306447e-09	-2.604694e+01	-1.556216e+02
9.800000e-07	-3.657024e-06	-2.300209e-09	-2.580630e+01	-1.553759e+02
9.900000e-07	-3.622439e-06	-2.301017e-09	-2.556224e+01	-1.551248e+02
1.000000e-06	-3.587427e-06	-2.300529e-09	-2.531517e+01	-1.548685e+02
1.010000e-06	-3.552169e-06	-2.300722e-09	-2.506637e+01	-1.546075e+02
1.020000e-06	-3.516678e-06	-2.304457e-09	-2.481592e+01	-1.543422e+02
1.030000e-06	-3.480927e-06	-2.307848e-09	-2.456364e+01	-1.540732e+02
1.040000e-06	-3.445011e-06	-2.299535e-09	-2.431019e+01	-1.538008e+02
1.050000e-06	-3.408980e-06	-2.282035e-09	-2.405594e+01	-1.535256e+02
1.060000e-06	-3.372863e-06	-2.264466e-09	-2.380107e+01	-1.532478e+02
1.070000e-06	-3.336536e-06	-2.258253e-09	-2.354473e+01	-1.529680e+02
1.080000e-06	-3.299932e-06	-2.258347e-09	-2.328642e+01	-1.526865e+02
1.090000e-06	-3.263137e-06	-2.258947e-09	-2.302678e+01	-1.524036e+02
1.100000e-06	-3.226122e-06	-2.260007e-09	-2.276558e+01	-1.521195e+02
1.110000e-06	-3.188781e-06	-2.264508e-09	-2.250207e+01	-1.518346e+02
1.120000e-06	-3.151165e-06	-2.263040e-09	-2.223663e+01	-1.515489e+02
1.130000e-06	-3.113423e-06	-2.251997e-09	-2.197030e+01	-1.512625e+02
1.140000e-06	-3.075565e-06	-2.237206e-09	-2.170315e+01	-1.509755e+02
1.150000e-06	-3.037497e-06	-2.226857e-09	-2.143452e+01	-1.506877e+02
1.160000e-06	-2.999104e-06	-2.223164e-09	-2.116359e+01	-1.503992e+02
1.170000e-06	-2.960401e-06	-2.221472e-09	-2.089048e+01	-1.501097e+02
1.180000e-06	-2.921546e-06	-2.218791e-09	-2.061629e+01	-1.498190e+02
1.190000e-06	-2.882566e-06	-2.216784e-09	-2.034122e+01	-1.495266e+02
1.200000e-06	-2.843436e-06	-2.216706e-09	-2.006510e+01	-1.492324e+02
1.210000e-06	-2.804129e-06	-2.213153e-09	-1.978772e+01	-1.489357e+02
1.220000e-06	-2.764624e-06	-2.202645e-09	-1.950895e+01	-1.486363e+02
1.230000e-06	-2.724964e-06	-2.191597e-09	-1.922908e+01	-1.483334e+02
1.240000e-06	-2.685178e-06	-2.185788e-09	-1.894833e+01	-1.480265e+02
1.250000e-06	-2.645252e-06	-2.181816e-09	-1.866659e+01	-1.477152e+02
1.260000e-06	-2.605223e-06	-2.172742e-09	-1.838411e+01	-1.473987e+02
1.270000e-06	-2.565082e-06	-2.161989e-09	-1.810085e+01	-1.470765e+02
1.280000e-06	-2.524745e-06	-2.157429e-09	-1.781621e+01	-1.467479e+02
1.290000e-06	-2.484251e-06	-2.156609e-09	-1.753046e+01	-1.464124e+02
1.300000e-06	-2.443527e-06	-2.153051e-09	-1.724308e+01	-1.460694e+02
1.310000e-06	-2.402582e-06	-2.147440e-09	-1.695415e+01	-1.457183e+02
1.320000e-06	-2.361464e-06	-2.146149e-09	-1.666399e+01	-1.453587e+02
1.330000e-06	-2.320038e-06	-2.144215e-09	-1.637167e+01	-1.449899e+02
1.340000e-06	-2.278343e-06	-2.134998e-09	-1.607744e+01	-1.446116e+02
1.350000e-06	-2.236483e-06	-2.120048e-09	-1.578205e+01	-1.442234e+02
1.360000e-06	-2.194332e-06	-2.106996e-09	-1.548461e+01	-1.438250e+02
1.370000e-06	-2.151824e-06	-2.097177e-09	-1.518464e+01	-1.434160e+02
1.380000e-06	-2.109045e-06	-2.090488e-09	-1.488276e+01	-1.429962e+02
1.390000e-06	-2.066059e-06	-2.085637e-09	-1.457943e+01	-1.425655e+02
1.400000e-06	-2.022865e-06	-2.083121e-09	-1.427462e+01	-1.421236e+02
1.410000e-06	-1.979459e-06	-2.082225e-09	-1.396833e+01	-1.416705e+02
1.420000e-06	-1.935954e-06	-2.075404e-09	-1.366133e+01	-1.412060e+02
1.430000e-06	-1.892331e-06	-2.058485e-09	-1.335350e+01	-1.407301e+02
1.440000e-06	-1.848570e-06	-2.038945e-09	-1.304469e+01	-1.402428e+02
1.450000e-06	-1.804750e-06	-2.026011e-09	-1.273547e+01	-1.397440e+02
1.460000e-06	-1.760901e-06	-2.019639e-09	-1.242604e+01	-1.392336e+02
1.470000e-06	-1.717006e-06	-2.014285e-09	-1.211629e+01	-1.387116e+02
1.480000e-06	-1.672986e-06	-2.007927e-09	-1.180566e+01	-1.381780e+02
1.490000e-06	-1.628817e-06	-2.001132e-09	-1.149397e+01	-1.376325e+02
1.500000e-06	-1.584619e-06	-1.992169e-09	-1.118208e+01	-1.370751e+02
1.510000e-06	-1.540374e-06	-1.978015e-09	-1.086986e+01	-1.365054e+02
1.520000e-06	-1.495926e-06	-1.957704e-09	-1.055621e+01	-1.359232e+02
1.530000e-06	-1.451354e-06	-1.940124e-09	-1.024168e+01	-1.353282e+02
1.540000e-06	-1.406773e-06	-1.932283e-09	-9.927090e+00	-1.347199e+02
1.550000e-06	-1.362149e-06	-1.929433e-09	-9.612195e+00	-1.340978e+02
1.560000e-06	-1.317377e-06	-1.925194e-09	-9.296249e+00	-1.334612e+02
1.570000e-06	-1.272521e-06	-1.918275e-09	-8.979719e+00	-1.328096e+02
1.580000e-06	-1.227608e-06	-1.909208e-09	-8.662787e+00	-1.321420e+02
1.590000e-06	-1.182487e-06	-1.897996e-09	-8.344381e+00	-1.314578e+02
1.600000e-06	-1.137320e-06	-1.884358e-09	-8.025655e+00	-1.307559e+02
1.610000e-06	-1.092159e-06	-1.870516e-09	-7.706973e+00	-1.300353e+02
1.620000e-06	-1.046846e-06	-1.859555e-09	-7.387213e+00	-1.292949e+02
1.630000e-06	-1.001441e-06	-1.848867e-09	-7.066805e+00	-1.285337e+02
1.640000e-06	-9.560150e-07	-1.835177e-09	-6.746251e+00	-1.277504e+02
1.650000e-06	-9.105200e-07	-1.820452e-09	-6.425210e+00	-1.269437e+02
1.660000e-06	-8.649896e-07	-1.808290e-09	-6.103919e+00	-1.261125e+02
1.670000e-06	-8.194581e-07	-1.798313e-09	-5.782619e+00	-1.252553e+02
1.680000e-06	-7.738760e-07	-1.787033e-09	-5.460963e+00	-1.243709e+02
1.690000e-06	-7.281854e-07	-1.771200e-09	-5.138541e+00	-1.234580e+02
1.700000e-06	-6.823509e-07	-1.755159e-09	-4.815103e+00	-1.225151e+02
1.710000e-06	-6.365075e-07	-1.742872e-09	-4.491603e+00	-1.215410e+02
1.720000e-06	-5.906653e-07	-1.729654e-09	-4.168111e+00	-1.205343e+02
1.730000e-06	-5.447993e-07	-1.710948e-09	-3.844451e+00	-1.194937e+02
1.740000e-06	-4.989607e-07	-1.691837e-09	-3.520985e+00	-1.184179e+02
1.750000e-06	-4.530741e-07	-1.678015e-09	-3.197180e+00	-1.173056e+02
1.760000e-06	-4.070618e-07	-1.666044e-09	-2.872488e+00	-1.161554e+02
1.770000e-06	-3.609709e-07	-1.650639e-09	-2.547241e+00	-1.149660e+02
1.780000e-06	-3.148718e-07	-1.632918e-09	-2.221936e+00	-1.137362e+02
1.790000e-06	-2.687591e-07	-1.617437e-09	-1.896536e+00	-1.124646e+02
1.800000e-06	-2.226471e-07	-1.600715e-09	-1.571140e+00	-1.111497e+02
1.810000e-06	-1.765457e-07	-1.578037e-09	-1.245819e+00	-1.097903e+02
1.820000e-06	-1.304070e-07	-1.552965e-09	-9.202346e-01	-1.083848e+02
1.830000e-06	-8.426319e-08	-1.529896e-09	-5.946148e-01	-1.069317e+02
1.840000e-06	-3.816120e-08	-1.508181e-09	-2.692898e-01	-1.054294e+02
1.850000e-06	7.946495e-09	-1.487333e-09	5.607554e-02	-1.038762e+02
1.860000e-06	5.403246e-08	-1.464611e-09	3.812875e-01	-1.022703e+02
1.870000e-06	1.001306e-07	-1.440473e-09	7.065852e-01	-1.006099e+02
1.880000e-06	1.463360e-07	-1.417019e-09	1.032640e+00	-9.889284e+01
1.890000e-06	1.925160e-07	-1.391581e-09	1.358515e+00	-9.711705e+01
1.900000e-06	2.386782e-07	-1.362593e-09	1.684265e+00	-9.528027e+01
1.910000e-06	2.849075e-07	-1.333132e-09	2.010489e+00	-9.338012e+01
1.920000e-06	3.310233e-07	-1.304094e-09	2.335912e+00	-9.141411e+01
1.930000e-06	3.770480e-07	-1.275284e-09	2.660691e+00	-8.937965e+01
1.940000e-06	4.230567e-07	-1.246289e-09	2.985358e+00	-8.727408e+01
1.950000e-06	4.690704e-07	-1.215635e-09	3.310060e+00	-8.509466e+01
1.960000e-06	5.150956e-07	-1.185293e-09	3.634843e+00	-8.283862e+01
1.970000e-06	5.610968e-07	-1.152004e-09	3.959457e+00	-8.050319e+01
1.980000e-06	6.070568e-07	-1.113441e-09	4.283780e+00	-7.808563e+01
1.990000e-06	6.529317e-07	-1.073784e-09	4.607503e+00	-7.558325e+01
2.000000e-06	6.986746e-07	-1.036235e-09	4.930293e+00	-7.299350e+01
2.010000e-06	7.442965e-07	-9.996234e-10	5.252231e+00	-7.031396e+01
2.020000e-06	7.899146e-07	-9.601639e-10	5.574142e+00	-6.754244e+01
2.030000e-06	8.355628e-07	-9.168172e-10	5.896264e+00	-6.467701e+01
2.040000e-06	8.811775e-07	-8.734630e-10	6.218151e+00	-6.171604e+01
2.050000e-06	9.266856e-07	-8.295166e-10	6.539284e+00	-5.865827e+01
2.060000e-06	9.720810e-07	-7.824355e-10	6.859624e+00	-5.550286e+01
2.070000e-06	1.017383e-06	-7.339468e-10	7.179306e+00	-5.224944e+01
2.080000e-06	1.062640e-06	-6.865720e-10	7.498663e+00	-4.889817e+01
2.090000e-06	1.107831e-06	-6.395802e-10	7.817561e+00	-4.544974e+01
2.100000e-06	1.152939e-06	-5.897418e-10	8.135876e+00	-4.190547e+01
2.110000e-06	1.197990e-06	-5.359997e-10	8.453782e+00	-3.826731e+01
2.120000e-06	1.242929e-06	-4.775501e-10	8.770899e+00	-3.453786e+01
2.130000e-06	1.287692e-06	-4.157995e-10	9.086776e+00	-3.072042e+01
2.140000e-06	1.332279e-06	-3.537766e-10	9.401411e+00	-2.681898e+01
2.150000e-06	1.376821e-06	-2.934508e-10	9.715728e+00	-2.283820e+01
2.160000e-06	1.421371e-06	-2.344395e-10	1.003010e+01	-1.878348e+01
2.170000e-06	1.465837e-06	-1.782228e-10	1.034388e+01	-1.466085e+01
2.180000e-06	1.510209e-06	-1.211429e-10	1.065700e+01	-1.047703e+01
2.190000e-06	1.554478e-06	-5.578080e-11	1.096939e+01	-6.239311e+00
2.200000e-06	1.598652e-06	1.527698e-11	1.128111e+01	-1.955594e+00
2.210000e-06	1.642699e-06	8.670241e-11	1.159194e+01	2.365726e+00
2.220000e-06	1.686650e-06	1.581803e-10	1.190208e+01	6.715793e+00
2.230000e-06	1.730582e-06	2.301323e-10	1.221209e+01	1.108537e+01
2.240000e-06	1.774454e-06	2.993660e-10	1.252168e+01	1.546490e+01
2.250000e-06	1.818300e-06	3.621310e-10	1.283109e+01	1.984463e+01
2.260000e-06	1.862085e-06	4.202895e-10	1.314006e+01	2.421465e+01
2.270000e-06	1.905738e-06	4.821207e-10	1.344810e+01	2.856501e+01
2.280000e-06	1.949311e-06	5.530083e-10	1.375558e+01	3.288580e+01
2.290000e-06	1.992790e-06	6.263296e-10	1.406240e+01	3.716727e+01
2.300000e-06	2.036094e-06	6.932394e-10	1.436797e+01	4.139991e+01
2.310000e-06	2.079262e-06	7.542153e-10	1.467260e+01	4.557452e+01
2.320000e-06	2.122326e-06	8.139441e-10	1.497649e+01	4.968234e+01
2.330000e-06	2.165202e-06	8.718104e-10	1.527905e+01	5.371509e+01
2.340000e-06	2.207783e-06	9.250040e-10	1.557953e+01	5.766510e+01
2.350000e-06	2.249973e-06	9.761163e-10	1.587724e+01	6.152532e+01
2.360000e-06	2.291812e-06	1.031711e-09	1.617249e+01	6.528942e+01
2.370000e-06	2.333343e-06	1.090704e-09	1.646556e+01	6.895184e+01
2.380000e-06	2.374514e-06	1.144405e-09	1.675608e+01	7.250781e+01
2.390000e-06	2.415418e-06	1.189190e-09	1.704473e+01	7.595340e+01
2.400000e-06	2.456144e-06	1.229387e-09	1.733212e+01	7.928553e+01
2.410000e-06	2.496613e-06	1.268593e-09	1.761769e+01	8.250198e+01
2.420000e-06	2.536943e-06	1.308028e-09	1.790229e+01	8.560138e+01
2.430000e-06	2.577180e-06	1.349960e-09	1.818623e+01	8.858320e+01
2.440000e-06	2.617219e-06	1.394543e-09	1.846876e+01	9.144773e+01
2.450000e-06	2.657151e-06	1.438976e-09	1.875056e+01	9.419602e+01
2.460000e-06	2.697037e-06	1.477329e-09	1.903201e+01	9.682984e+01
2.470000e-06	2.736798e-06	1.510651e-09	1.931259e+01	9.935164e+01
2.480000e-06	2.776452e-06	1.540748e-09	1.959242e+01	1.017645e+02
2.490000e-06	2.816012e-06	1.567584e-09	1.987158e+01	1.040719e+02
2.500000e-06	2.855347e-06	1.595875e-09	2.014915e+01	1.062780e+02
2.510000e-06	2.894455e-06	1.628292e-09	2.042512e+01	1.083871e+02
2.520000e-06	2.933323e-06	1.664311e-09	2.069940e+01	1.104040e+02
2.530000e-06	2.971905e-06	1.697567e-09	2.097166e+01	1.123335e+02
2.540000e-06	3.010265e-06	1.723434e-09	2.124235e+01	1.141807e+02
2.550000e-06	3.048348e-06	1.745766e-09	2.151109e+01	1.159507e+02
2.560000e-06	3.086209e-06	1.767866e-09	2.177826e+01	1.176485e+02
2.570000e-06	3.123991e-06	1.788315e-09	2.204487e+01	1.192790e+02
2.580000e-06	3.161650e-06	1.805882e-09	2.231062e+01	1.208469e+02
2.590000e-06	3.199135e-06	1.825840e-09	2.257514e+01	1.223569e+02
2.600000e-06	3.236378e-06	1.850752e-09	2.283795e+01	1.238132e+02
2.610000e-06	3.273273e-06	1.876116e-09	2.309830e+01	1.252195e+02
2.620000e-06	3.309875e-06	1.896687e-09	2.335659e+01	1.265795e+02
2.630000e-06	3.346255e-06	1.914503e-09	2.361331e+01	1.278964e+02
2.640000e-06	3.382427e-06	1.933947e-09	2.386856e+01	1.291727e+02
2.650000e-06	3.418477e-06	1.951089e-09	2.412295e+01	1.304109e+02
2.660000e-06	3.454424e-06	1.962770e-09	2.437662e+01	1.316129e+02
2.670000e-06	3.490240e-06	1.974055e-09	2.462936e+01	1.327801e+02
2.680000e-06	3.525918e-06	1.990423e-09	2.488113e+01	1.339137e+02
2.690000e-06	3.561409e-06	2.010458e-09	2.513157e+01	1.350144e+02
2.700000e-06	3.596634e-06	2.029459e-09	2.538014e+01	1.360827e+02
2.710000e-06	3.631506e-06	2.043911e-09	2.562622e+01	1.371187e+02
2.720000e-06	3.665984e-06	2.056138e-09	2.586952e+01	1.381225e+02
2.730000e-06	3.700069e-06	2.071743e-09	2.611005e+01	1.390936e+02
2.740000e-06	3.733683e-06	2.088109e-09	2.634725e+01	1.400318e+02
2.750000e-06	3.766809e-06	2.101271e-09	2.658101e+01	1.409366e+02
2.760000e-06	3.799539e-06	2.113417e-09	2.681197e+01	1.418075e+02
2.770000e-06	3.831978e-06	2.126808e-09	2.704088e+01	1.426439e+02
2.780000e-06	3.864144e-06	2.141827e-09	2.726787e+01	1.434454e+02
2.790000e-06	3.896075e-06	2.154328e-09	2.749319e+01	1.442116e+02
2.800000e-06	3.927903e-06	2.163445e-09	2.771779e+01	1.449425e+02
2.810000e-06	3.959590e-06	2.174490e-09	2.794139e+01	1.456379e+02
2.820000e-06	3.991080e-06	2.186805e-09	2.816361e+01	1.462980e+02
2.830000e-06	4.022269e-06	2.195333e-09	2.838370e+01	1.469232e+02
2.840000e-06	4.053164e-06	2.200707e-09	2.860171e+01	1.475141e+02
2.850000e-06	4.083805e-06	2.207253e-09	2.881793e+01	1.480716e+02
2.860000e-06	4.114158e-06	2.217410e-09	2.903212e+01	1.485968e+02
2.870000e-06	4.144252e-06	2.228435e-09	2.924448e+01	1.490910e+02
2.880000e-06	4.174034e-06	2.236793e-09	2.945465e+01	1.495558e+02
2.890000e-06	4.203499e-06	2.242200e-09	2.966257e+01	1.499929e+02
2.900000e-06	4.232672e-06	2.247256e-09	2.986843e+01	1.504043e+02
