# Temperatura_=_-1.7
# Concentracion g/m^3_=_4090.0
# C_Vs_to_Am_M_A/Vsm_=_65563218390.804596
# pendiente_HvsI_1/m_=_3716.3
# ordenada_HvsI_A/m_=_1297.0
# frecuencia_Hz_=_135081.54680460834

Tiempo_(s)	Campo_(V.s)	Magnetizacion_(V.s)	Campo_(kA/m)	Magnetizacion_(A/m)
0.000000e+00	-5.434533e-06	-2.478026e-09	-3.839272e+01	-1.598751e+02
1.000000e-08	-5.434728e-06	-2.478470e-09	-3.839410e+01	-1.598197e+02
2.000000e-08	-5.434728e-06	-2.478685e-09	-3.839410e+01	-1.597673e+02
3.000000e-08	-5.434459e-06	-2.478151e-09	-3.839220e+01	-1.597200e+02
4.000000e-08	-5.433805e-06	-2.476053e-09	-3.838758e+01	-1.596797e+02
5.000000e-08	-5.432803e-06	-2.472935e-09	-3.838050e+01	-1.596483e+02
6.000000e-08	-5.431339e-06	-2.475884e-09	-3.837016e+01	-1.596277e+02
7.000000e-08	-5.429251e-06	-2.483983e-09	-3.835541e+01	-1.596195e+02
8.000000e-08	-5.426524e-06	-2.475954e-09	-3.833614e+01	-1.596253e+02
9.000000e-08	-5.423143e-06	-2.455499e-09	-3.831226e+01	-1.596465e+02
1.000000e-07	-5.419237e-06	-2.455989e-09	-3.828466e+01	-1.596842e+02
1.100000e-07	-5.414975e-06	-2.468145e-09	-3.825455e+01	-1.597394e+02
1.200000e-07	-5.410573e-06	-2.503853e-09	-3.822346e+01	-1.598128e+02
1.300000e-07	-5.405999e-06	-2.469975e-09	-3.819114e+01	-1.599046e+02
1.400000e-07	-5.400992e-06	-2.413029e-09	-3.815577e+01	-1.600152e+02
1.500000e-07	-5.395542e-06	-2.456359e-09	-3.811727e+01	-1.601443e+02
1.600000e-07	-5.389817e-06	-2.502573e-09	-3.807683e+01	-1.602914e+02
1.700000e-07	-5.383743e-06	-2.513667e-09	-3.803392e+01	-1.604559e+02
1.800000e-07	-5.377156e-06	-2.407581e-09	-3.798738e+01	-1.606366e+02
1.900000e-07	-5.370170e-06	-2.440750e-09	-3.793803e+01	-1.608324e+02
2.000000e-07	-5.362802e-06	-2.507001e-09	-3.788597e+01	-1.610418e+02
2.100000e-07	-5.355152e-06	-2.523789e-09	-3.783193e+01	-1.612629e+02
2.200000e-07	-5.347271e-06	-2.446188e-09	-3.777625e+01	-1.614940e+02
2.300000e-07	-5.339185e-06	-2.469438e-09	-3.771913e+01	-1.617329e+02
2.400000e-07	-5.330929e-06	-2.516462e-09	-3.766080e+01	-1.619774e+02
2.500000e-07	-5.322237e-06	-2.492557e-09	-3.759940e+01	-1.622253e+02
2.600000e-07	-5.312732e-06	-2.473997e-09	-3.753225e+01	-1.624743e+02
2.700000e-07	-5.302562e-06	-2.526315e-09	-3.746040e+01	-1.627219e+02
2.800000e-07	-5.291904e-06	-2.573334e-09	-3.738511e+01	-1.629659e+02
2.900000e-07	-5.280751e-06	-2.519598e-09	-3.730632e+01	-1.632039e+02
3.000000e-07	-5.269241e-06	-2.522359e-09	-3.722501e+01	-1.634339e+02
3.100000e-07	-5.257384e-06	-2.564472e-09	-3.714124e+01	-1.636536e+02
3.200000e-07	-5.245072e-06	-2.557150e-09	-3.705426e+01	-1.638613e+02
3.300000e-07	-5.232295e-06	-2.482306e-09	-3.696400e+01	-1.640550e+02
3.400000e-07	-5.219141e-06	-2.521708e-09	-3.687107e+01	-1.642334e+02
3.500000e-07	-5.205611e-06	-2.563430e-09	-3.677549e+01	-1.643950e+02
3.600000e-07	-5.191675e-06	-2.547331e-09	-3.667703e+01	-1.645388e+02
3.700000e-07	-5.177423e-06	-2.512603e-09	-3.657635e+01	-1.646638e+02
3.800000e-07	-5.162777e-06	-2.552852e-09	-3.647288e+01	-1.647694e+02
3.900000e-07	-5.147461e-06	-2.535699e-09	-3.636468e+01	-1.648553e+02
4.000000e-07	-5.131603e-06	-2.519914e-09	-3.625265e+01	-1.649214e+02
4.100000e-07	-5.115252e-06	-2.520134e-09	-3.613713e+01	-1.649676e+02
4.200000e-07	-5.098477e-06	-2.528535e-09	-3.601862e+01	-1.649943e+02
4.300000e-07	-5.081403e-06	-2.499923e-09	-3.589801e+01	-1.650020e+02
4.400000e-07	-5.064064e-06	-2.529526e-09	-3.577552e+01	-1.649915e+02
4.500000e-07	-5.046402e-06	-2.540193e-09	-3.565074e+01	-1.649635e+02
4.600000e-07	-5.028469e-06	-2.505245e-09	-3.552405e+01	-1.649192e+02
4.700000e-07	-5.010281e-06	-2.485825e-09	-3.539556e+01	-1.648596e+02
4.800000e-07	-4.991653e-06	-2.518504e-09	-3.526396e+01	-1.647860e+02
4.900000e-07	-4.972567e-06	-2.511471e-09	-3.512912e+01	-1.646998e+02
5.000000e-07	-4.953121e-06	-2.485026e-09	-3.499174e+01	-1.646022e+02
5.100000e-07	-4.933475e-06	-2.492205e-09	-3.485296e+01	-1.644946e+02
5.200000e-07	-4.913609e-06	-2.507535e-09	-3.471261e+01	-1.643785e+02
5.300000e-07	-4.893475e-06	-2.507971e-09	-3.457037e+01	-1.642552e+02
5.400000e-07	-4.873080e-06	-2.500903e-09	-3.442629e+01	-1.641259e+02
5.500000e-07	-4.852231e-06	-2.487255e-09	-3.427900e+01	-1.639920e+02
5.600000e-07	-4.830981e-06	-2.478824e-09	-3.412888e+01	-1.638546e+02
5.700000e-07	-4.809418e-06	-2.499690e-09	-3.397654e+01	-1.637148e+02
5.800000e-07	-4.787532e-06	-2.495660e-09	-3.382193e+01	-1.635735e+02
5.900000e-07	-4.765366e-06	-2.474264e-09	-3.366534e+01	-1.634316e+02
6.000000e-07	-4.742907e-06	-2.468192e-09	-3.350667e+01	-1.632899e+02
6.100000e-07	-4.720058e-06	-2.486309e-09	-3.334526e+01	-1.631489e+02
6.200000e-07	-4.696877e-06	-2.478509e-09	-3.318149e+01	-1.630091e+02
6.300000e-07	-4.673425e-06	-2.470215e-09	-3.301581e+01	-1.628710e+02
6.400000e-07	-4.649669e-06	-2.458951e-09	-3.284798e+01	-1.627347e+02
6.500000e-07	-4.625704e-06	-2.466064e-09	-3.267868e+01	-1.626004e+02
6.600000e-07	-4.601532e-06	-2.469472e-09	-3.250791e+01	-1.624681e+02
6.700000e-07	-4.577133e-06	-2.466251e-09	-3.233555e+01	-1.623378e+02
6.800000e-07	-4.552304e-06	-2.444435e-09	-3.216014e+01	-1.622094e+02
6.900000e-07	-4.526956e-06	-2.448410e-09	-3.198107e+01	-1.620825e+02
7.000000e-07	-4.501184e-06	-2.454647e-09	-3.179900e+01	-1.619570e+02
7.100000e-07	-4.474842e-06	-2.452145e-09	-3.161290e+01	-1.618326e+02
7.200000e-07	-4.447951e-06	-2.437232e-09	-3.142293e+01	-1.617087e+02
7.300000e-07	-4.420746e-06	-2.440188e-09	-3.123074e+01	-1.615852e+02
7.400000e-07	-4.393244e-06	-2.446357e-09	-3.103645e+01	-1.614614e+02
7.500000e-07	-4.365453e-06	-2.448886e-09	-3.084012e+01	-1.613370e+02
7.600000e-07	-4.337475e-06	-2.433435e-09	-3.064246e+01	-1.612116e+02
7.700000e-07	-4.309308e-06	-2.423016e-09	-3.044347e+01	-1.610848e+02
7.800000e-07	-4.280898e-06	-2.424818e-09	-3.024277e+01	-1.609560e+02
7.900000e-07	-4.252174e-06	-2.428534e-09	-3.003985e+01	-1.608250e+02
8.000000e-07	-4.223183e-06	-2.420459e-09	-2.983504e+01	-1.606913e+02
8.100000e-07	-4.193922e-06	-2.414772e-09	-2.962832e+01	-1.605547e+02
8.200000e-07	-4.164309e-06	-2.419332e-09	-2.941912e+01	-1.604147e+02
8.300000e-07	-4.134405e-06	-2.424051e-09	-2.920786e+01	-1.602711e+02
8.400000e-07	-4.104226e-06	-2.421122e-09	-2.899466e+01	-1.601236e+02
8.500000e-07	-4.073717e-06	-2.410758e-09	-2.877912e+01	-1.599720e+02
8.600000e-07	-4.042933e-06	-2.406372e-09	-2.856165e+01	-1.598160e+02
8.700000e-07	-4.011906e-06	-2.406082e-09	-2.834246e+01	-1.596555e+02
8.800000e-07	-3.980595e-06	-2.405956e-09	-2.812125e+01	-1.594903e+02
8.900000e-07	-3.949124e-06	-2.395533e-09	-2.789893e+01	-1.593203e+02
9.000000e-07	-3.917449e-06	-2.389549e-09	-2.767515e+01	-1.591453e+02
9.100000e-07	-3.885551e-06	-2.387952e-09	-2.744980e+01	-1.589653e+02
9.200000e-07	-3.853472e-06	-2.389474e-09	-2.722319e+01	-1.587801e+02
9.300000e-07	-3.821225e-06	-2.382119e-09	-2.699537e+01	-1.585897e+02
9.400000e-07	-3.788708e-06	-2.379763e-09	-2.676565e+01	-1.583940e+02
9.500000e-07	-3.755875e-06	-2.380261e-09	-2.653370e+01	-1.581930e+02
9.600000e-07	-3.722724e-06	-2.383213e-09	-2.629950e+01	-1.579866e+02
9.700000e-07	-3.689072e-06	-2.374548e-09	-2.606177e+01	-1.577749e+02
9.800000e-07	-3.654977e-06	-2.366859e-09	-2.582090e+01	-1.575578e+02
9.900000e-07	-3.620429e-06	-2.360248e-09	-2.557683e+01	-1.573353e+02
1.000000e-06	-3.585377e-06	-2.359702e-09	-2.532920e+01	-1.571076e+02
1.010000e-06	-3.549975e-06	-2.356706e-09	-2.507911e+01	-1.568745e+02
1.020000e-06	-3.514489e-06	-2.356522e-09	-2.482841e+01	-1.566363e+02
1.030000e-06	-3.478885e-06	-2.355265e-09	-2.457688e+01	-1.563929e+02
1.040000e-06	-3.443063e-06	-2.355001e-09	-2.432382e+01	-1.561444e+02
1.050000e-06	-3.407094e-06	-2.348329e-09	-2.406971e+01	-1.558910e+02
1.060000e-06	-3.370971e-06	-2.339499e-09	-2.381452e+01	-1.556328e+02
1.070000e-06	-3.334659e-06	-2.330131e-09	-2.355798e+01	-1.553699e+02
1.080000e-06	-3.298135e-06	-2.321578e-09	-2.329996e+01	-1.551025e+02
1.090000e-06	-3.261407e-06	-2.313083e-09	-2.304049e+01	-1.548308e+02
1.100000e-06	-3.224376e-06	-2.309870e-09	-2.277888e+01	-1.545549e+02
1.110000e-06	-3.187076e-06	-2.311317e-09	-2.251537e+01	-1.542750e+02
1.120000e-06	-3.149560e-06	-2.311491e-09	-2.225033e+01	-1.539912e+02
1.130000e-06	-3.111868e-06	-2.308590e-09	-2.198406e+01	-1.537039e+02
1.140000e-06	-3.074050e-06	-2.301593e-09	-2.171689e+01	-1.534130e+02
1.150000e-06	-3.035972e-06	-2.291641e-09	-2.144788e+01	-1.531189e+02
1.160000e-06	-2.997611e-06	-2.278557e-09	-2.117688e+01	-1.528216e+02
1.170000e-06	-2.959012e-06	-2.267844e-09	-2.090419e+01	-1.525212e+02
1.180000e-06	-2.920207e-06	-2.260687e-09	-2.063005e+01	-1.522179e+02
1.190000e-06	-2.881207e-06	-2.260139e-09	-2.035453e+01	-1.519117e+02
1.200000e-06	-2.841986e-06	-2.260757e-09	-2.007745e+01	-1.516025e+02
1.210000e-06	-2.802540e-06	-2.258057e-09	-1.979879e+01	-1.512905e+02
1.220000e-06	-2.762928e-06	-2.250027e-09	-1.951894e+01	-1.509754e+02
1.230000e-06	-2.723260e-06	-2.243387e-09	-1.923870e+01	-1.506572e+02
1.240000e-06	-2.683506e-06	-2.234439e-09	-1.895786e+01	-1.503357e+02
1.250000e-06	-2.643627e-06	-2.225571e-09	-1.867613e+01	-1.500106e+02
1.260000e-06	-2.603676e-06	-2.213429e-09	-1.839389e+01	-1.496817e+02
1.270000e-06	-2.563612e-06	-2.206715e-09	-1.811086e+01	-1.493487e+02
1.280000e-06	-2.523369e-06	-2.204611e-09	-1.782656e+01	-1.490111e+02
1.290000e-06	-2.482911e-06	-2.202617e-09	-1.754074e+01	-1.486685e+02
1.300000e-06	-2.442269e-06	-2.194801e-09	-1.725362e+01	-1.483205e+02
1.310000e-06	-2.401413e-06	-2.188147e-09	-1.696499e+01	-1.479665e+02
1.320000e-06	-2.360193e-06	-2.183727e-09	-1.667378e+01	-1.476059e+02
1.330000e-06	-2.318678e-06	-2.178773e-09	-1.638050e+01	-1.472383e+02
1.340000e-06	-2.277114e-06	-2.168798e-09	-1.608687e+01	-1.468629e+02
1.350000e-06	-2.235417e-06	-2.159369e-09	-1.579229e+01	-1.464792e+02
1.360000e-06	-2.193300e-06	-2.153112e-09	-1.549476e+01	-1.460866e+02
1.370000e-06	-2.150763e-06	-2.147636e-09	-1.519425e+01	-1.456844e+02
1.380000e-06	-2.107880e-06	-2.140866e-09	-1.489130e+01	-1.452721e+02
1.390000e-06	-2.064716e-06	-2.131903e-09	-1.458636e+01	-1.448490e+02
1.400000e-06	-2.021441e-06	-2.122495e-09	-1.428064e+01	-1.444146e+02
1.410000e-06	-1.978144e-06	-2.118539e-09	-1.397476e+01	-1.439683e+02
1.420000e-06	-1.934704e-06	-2.113564e-09	-1.366788e+01	-1.435096e+02
1.430000e-06	-1.891077e-06	-2.104666e-09	-1.335967e+01	-1.430381e+02
1.440000e-06	-1.847325e-06	-2.095074e-09	-1.305059e+01	-1.425532e+02
1.450000e-06	-1.803483e-06	-2.085898e-09	-1.274086e+01	-1.420547e+02
1.460000e-06	-1.759544e-06	-2.079438e-09	-1.243045e+01	-1.415420e+02
1.470000e-06	-1.715526e-06	-2.072108e-09	-1.211948e+01	-1.410149e+02
1.480000e-06	-1.671463e-06	-2.064707e-09	-1.180820e+01	-1.404730e+02
1.490000e-06	-1.627371e-06	-2.054859e-09	-1.149670e+01	-1.399162e+02
1.500000e-06	-1.583237e-06	-2.044845e-09	-1.118491e+01	-1.393440e+02
1.510000e-06	-1.539009e-06	-2.031515e-09	-1.087246e+01	-1.387562e+02
1.520000e-06	-1.494705e-06	-2.016984e-09	-1.055947e+01	-1.381527e+02
1.530000e-06	-1.450325e-06	-2.004302e-09	-1.024594e+01	-1.375332e+02
1.540000e-06	-1.405849e-06	-1.997513e-09	-9.931738e+00	-1.368973e+02
1.550000e-06	-1.361230e-06	-1.995410e-09	-9.616526e+00	-1.362448e+02
1.560000e-06	-1.316525e-06	-1.993937e-09	-9.300701e+00	-1.355754e+02
1.570000e-06	-1.271731e-06	-1.986720e-09	-8.984252e+00	-1.348888e+02
1.580000e-06	-1.226808e-06	-1.975558e-09	-8.666888e+00	-1.341844e+02
1.590000e-06	-1.181821e-06	-1.960206e-09	-8.349075e+00	-1.334620e+02
1.600000e-06	-1.136719e-06	-1.944099e-09	-8.030451e+00	-1.327208e+02
1.610000e-06	-1.091524e-06	-1.929161e-09	-7.711162e+00	-1.319603e+02
1.620000e-06	-1.046261e-06	-1.916507e-09	-7.391398e+00	-1.311798e+02
1.630000e-06	-1.000931e-06	-1.907016e-09	-7.071165e+00	-1.303785e+02
1.640000e-06	-9.555636e-07	-1.898804e-09	-6.750661e+00	-1.295556e+02
1.650000e-06	-9.101146e-07	-1.888362e-09	-6.429583e+00	-1.287100e+02
1.660000e-06	-8.645631e-07	-1.876691e-09	-6.107780e+00	-1.278408e+02
1.670000e-06	-8.189583e-07	-1.861661e-09	-5.785601e+00	-1.269468e+02
1.680000e-06	-7.732886e-07	-1.844348e-09	-5.462963e+00	-1.260267e+02
1.690000e-06	-7.275562e-07	-1.826392e-09	-5.139883e+00	-1.250793e+02
1.700000e-06	-6.817958e-07	-1.807506e-09	-4.816604e+00	-1.241031e+02
1.710000e-06	-6.360282e-07	-1.792058e-09	-4.493276e+00	-1.230966e+02
1.720000e-06	-5.902788e-07	-1.781941e-09	-4.170075e+00	-1.220584e+02
1.730000e-06	-5.444540e-07	-1.772976e-09	-3.846342e+00	-1.209867e+02
1.740000e-06	-4.986162e-07	-1.758613e-09	-3.522517e+00	-1.198800e+02
1.750000e-06	-4.527478e-07	-1.738717e-09	-3.198476e+00	-1.187365e+02
1.760000e-06	-4.068069e-07	-1.716731e-09	-2.873922e+00	-1.175545e+02
1.770000e-06	-3.608569e-07	-1.695909e-09	-2.549304e+00	-1.163322e+02
1.780000e-06	-3.149298e-07	-1.673116e-09	-2.224848e+00	-1.150678e+02
1.790000e-06	-2.689824e-07	-1.651464e-09	-1.900249e+00	-1.137596e+02
1.800000e-06	-2.229854e-07	-1.633605e-09	-1.575300e+00	-1.124056e+02
1.810000e-06	-1.770001e-07	-1.617936e-09	-1.250432e+00	-1.110041e+02
1.820000e-06	-1.308311e-07	-1.599175e-09	-9.242674e-01	-1.095534e+02
1.830000e-06	-8.457683e-08	-1.576337e-09	-5.975003e-01	-1.080516e+02
1.840000e-06	-3.846689e-08	-1.551559e-09	-2.717526e-01	-1.064969e+02
1.850000e-06	7.661352e-09	-1.528258e-09	5.412428e-02	-1.048877e+02
1.860000e-06	5.379019e-08	-1.502642e-09	3.800054e-01	-1.032222e+02
1.870000e-06	9.986429e-08	-1.472958e-09	7.054998e-01	-1.014988e+02
1.880000e-06	1.459485e-07	-1.442681e-09	1.031066e+00	-9.971578e+01
1.890000e-06	1.920324e-07	-1.413771e-09	1.356629e+00	-9.787159e+01
1.900000e-06	2.380316e-07	-1.384576e-09	1.681594e+00	-9.596465e+01
1.910000e-06	2.839650e-07	-1.354912e-09	2.006095e+00	-9.399345e+01
1.920000e-06	3.299735e-07	-1.323439e-09	2.331126e+00	-9.195654e+01
1.930000e-06	3.760123e-07	-1.293318e-09	2.656371e+00	-8.985250e+01
1.940000e-06	4.220499e-07	-1.265730e-09	2.981608e+00	-8.767997e+01
1.950000e-06	4.681054e-07	-1.236478e-09	3.306971e+00	-8.543769e+01
1.960000e-06	5.140742e-07	-1.203488e-09	3.631721e+00	-8.312443e+01
1.970000e-06	5.599535e-07	-1.167317e-09	3.955840e+00	-8.073907e+01
1.980000e-06	6.057652e-07	-1.127870e-09	4.279480e+00	-7.828058e+01
1.990000e-06	6.514953e-07	-1.085717e-09	4.602544e+00	-7.574805e+01
2.000000e-06	6.972243e-07	-1.044183e-09	4.925601e+00	-7.314067e+01
2.010000e-06	7.429704e-07	-1.005578e-09	5.248778e+00	-7.045779e+01
2.020000e-06	7.887262e-07	-9.691806e-10	5.572024e+00	-6.769892e+01
2.030000e-06	8.344109e-07	-9.306537e-10	5.894767e+00	-6.486373e+01
2.040000e-06	8.799800e-07	-8.890140e-10	6.216694e+00	-6.195211e+01
2.050000e-06	9.254629e-07	-8.459255e-10	6.538012e+00	-5.896414e+01
2.060000e-06	9.708798e-07	-8.018099e-10	6.858863e+00	-5.590018e+01
2.070000e-06	1.016214e-06	-7.539875e-10	7.179127e+00	-5.276082e+01
2.080000e-06	1.061501e-06	-7.053015e-10	7.499062e+00	-4.954696e+01
2.090000e-06	1.106655e-06	-6.580481e-10	7.818058e+00	-4.625980e+01
2.100000e-06	1.151649e-06	-6.128116e-10	8.135924e+00	-4.290086e+01
2.110000e-06	1.196620e-06	-5.653544e-10	8.453626e+00	-3.947202e+01
2.120000e-06	1.241525e-06	-5.114051e-10	8.770862e+00	-3.597552e+01
2.130000e-06	1.286280e-06	-4.558299e-10	9.087034e+00	-3.241395e+01
2.140000e-06	1.330889e-06	-4.015713e-10	9.402180e+00	-2.879033e+01
2.150000e-06	1.375437e-06	-3.467801e-10	9.716895e+00	-2.510805e+01
2.160000e-06	1.419915e-06	-2.897252e-10	1.003111e+01	-2.137088e+01
2.170000e-06	1.464314e-06	-2.325727e-10	1.034477e+01	-1.758301e+01
2.180000e-06	1.508625e-06	-1.769258e-10	1.065781e+01	-1.374899e+01
2.190000e-06	1.552872e-06	-1.190606e-10	1.097040e+01	-9.873764e+00
2.200000e-06	1.597025e-06	-5.957688e-11	1.128232e+01	-5.962621e+00
2.210000e-06	1.641093e-06	1.232558e-12	1.159364e+01	-2.021184e+00
2.220000e-06	1.685160e-06	6.382575e-11	1.190496e+01	1.944618e+00
2.230000e-06	1.729137e-06	1.272327e-10	1.221564e+01	5.928583e+00
2.240000e-06	1.773007e-06	1.902896e-10	1.252556e+01	9.924276e+00
2.250000e-06	1.816848e-06	2.525122e-10	1.283528e+01	1.392507e+01
2.260000e-06	1.860598e-06	3.109905e-10	1.314435e+01	1.792418e+01
2.270000e-06	1.904252e-06	3.670956e-10	1.345275e+01	2.191474e+01
2.280000e-06	1.947857e-06	4.251416e-10	1.376080e+01	2.588984e+01
2.290000e-06	1.991333e-06	4.843337e-10	1.406794e+01	2.984255e+01
2.300000e-06	2.034698e-06	5.431801e-10	1.437429e+01	3.376605e+01
2.310000e-06	2.077901e-06	6.031951e-10	1.467951e+01	3.765360e+01
2.320000e-06	2.120792e-06	6.615992e-10	1.498252e+01	4.149866e+01
2.330000e-06	2.163392e-06	7.163926e-10	1.528347e+01	4.529491e+01
2.340000e-06	2.205793e-06	7.676443e-10	1.558301e+01	4.903634e+01
2.350000e-06	2.247958e-06	8.165063e-10	1.588089e+01	5.271724e+01
2.360000e-06	2.289777e-06	8.703627e-10	1.617633e+01	5.633230e+01
2.370000e-06	2.331185e-06	9.276341e-10	1.646886e+01	5.987663e+01
2.380000e-06	2.372327e-06	9.801666e-10	1.675951e+01	6.334580e+01
2.390000e-06	2.413237e-06	1.026377e-09	1.704852e+01	6.673587e+01
2.400000e-06	2.453853e-06	1.070414e-09	1.733545e+01	7.004342e+01
2.410000e-06	2.494278e-06	1.111216e-09	1.762104e+01	7.326556e+01
2.420000e-06	2.534587e-06	1.149540e-09	1.790581e+01	7.639995e+01
2.430000e-06	2.574757e-06	1.189961e-09	1.818959e+01	7.944478e+01
2.440000e-06	2.614777e-06	1.235686e-09	1.847232e+01	8.239882e+01
2.450000e-06	2.654736e-06	1.282920e-09	1.875461e+01	8.526135e+01
2.460000e-06	2.694550e-06	1.323367e-09	1.903588e+01	8.803218e+01
2.470000e-06	2.734218e-06	1.359051e-09	1.931612e+01	9.071162e+01
2.480000e-06	2.773856e-06	1.393913e-09	1.959614e+01	9.330045e+01
2.490000e-06	2.813349e-06	1.428159e-09	1.987515e+01	9.579987e+01
2.500000e-06	2.852599e-06	1.459843e-09	2.015243e+01	9.821149e+01
2.510000e-06	2.891653e-06	1.491724e-09	2.042833e+01	1.005373e+02
2.520000e-06	2.930523e-06	1.528540e-09	2.070293e+01	1.027795e+02
2.530000e-06	2.969078e-06	1.565024e-09	2.097531e+01	1.049406e+02
2.540000e-06	3.007322e-06	1.594525e-09	2.124548e+01	1.070233e+02
2.550000e-06	3.045383e-06	1.620254e-09	2.151437e+01	1.090306e+02
2.560000e-06	3.083339e-06	1.648226e-09	2.178251e+01	1.109654e+02
2.570000e-06	3.121137e-06	1.676171e-09	2.204954e+01	1.128306e+02
2.580000e-06	3.158676e-06	1.700561e-09	2.231474e+01	1.146295e+02
2.590000e-06	3.196031e-06	1.722509e-09	2.257863e+01	1.163649e+02
2.600000e-06	3.233229e-06	1.748225e-09	2.284143e+01	1.180398e+02
2.610000e-06	3.270151e-06	1.777477e-09	2.310226e+01	1.196570e+02
2.620000e-06	3.306785e-06	1.802225e-09	2.336107e+01	1.212192e+02
2.630000e-06	3.343179e-06	1.822555e-09	2.361817e+01	1.227288e+02
2.640000e-06	3.379419e-06	1.845574e-09	2.387419e+01	1.241882e+02
2.650000e-06	3.415556e-06	1.869443e-09	2.412948e+01	1.255994e+02
2.660000e-06	3.451590e-06	1.887192e-09	2.438405e+01	1.269644e+02
2.670000e-06	3.487473e-06	1.899847e-09	2.463755e+01	1.282848e+02
2.680000e-06	3.523136e-06	1.916594e-09	2.488949e+01	1.295620e+02
2.690000e-06	3.558617e-06	1.939175e-09	2.514015e+01	1.307973e+02
2.700000e-06	3.593821e-06	1.959820e-09	2.538886e+01	1.319918e+02
2.710000e-06	3.628645e-06	1.972983e-09	2.563487e+01	1.331463e+02
2.720000e-06	3.663064e-06	1.984564e-09	2.587803e+01	1.342615e+02
2.730000e-06	3.697019e-06	2.000745e-09	2.611791e+01	1.353380e+02
2.740000e-06	3.730470e-06	2.016363e-09	2.635422e+01	1.363762e+02
2.750000e-06	3.763521e-06	2.027820e-09	2.658771e+01	1.373766e+02
2.760000e-06	3.796204e-06	2.037425e-09	2.681861e+01	1.383395e+02
2.770000e-06	3.828552e-06	2.052751e-09	2.704714e+01	1.392652e+02
2.780000e-06	3.860687e-06	2.071916e-09	2.727416e+01	1.401540e+02
2.790000e-06	3.892721e-06	2.087365e-09	2.750046e+01	1.410062e+02
2.800000e-06	3.924606e-06	2.097813e-09	2.772571e+01	1.418223e+02
2.810000e-06	3.956273e-06	2.106969e-09	2.794943e+01	1.426027e+02
2.820000e-06	3.987733e-06	2.117072e-09	2.817168e+01	1.433480e+02
2.830000e-06	4.018884e-06	2.125061e-09	2.839175e+01	1.440589e+02
2.840000e-06	4.049698e-06	2.130440e-09	2.860944e+01	1.447361e+02
2.850000e-06	4.080206e-06	2.137203e-09	2.882497e+01	1.453805e+02
2.860000e-06	4.110497e-06	2.148195e-09	2.903896e+01	1.459933e+02
2.870000e-06	4.140541e-06	2.160474e-09	2.925121e+01	1.465756e+02
2.880000e-06	4.170322e-06	2.170873e-09	2.946159e+01	1.471286e+02
2.890000e-06	4.199906e-06	2.178113e-09	2.967059e+01	1.476538e+02
2.900000e-06	4.229174e-06	2.183881e-09	2.987736e+01	1.481526e+02
