# Temperatura_=_14.75
# Concentracion g/m^3_=_4090.0
# C_Vs_to_Am_M_A/Vsm_=_65563218390.804596
# pendiente_HvsI_1/m_=_3716.3
# ordenada_HvsI_A/m_=_1297.0
# frecuencia_Hz_=_135079.83503504124

Tiempo_(s)	Campo_(V.s)	Magnetizacion_(V.s)	Campo_(kA/m)	Magnetizacion_(A/m)
0.000000e+00	-5.415603e-06	-2.704869e-09	-3.838246e+01	-1.744608e+02
1.000000e-08	-5.415815e-06	-2.701864e-09	-3.838396e+01	-1.743924e+02
2.000000e-08	-5.415800e-06	-2.699350e-09	-3.838385e+01	-1.743243e+02
3.000000e-08	-5.415580e-06	-2.700826e-09	-3.838229e+01	-1.742586e+02
4.000000e-08	-5.415075e-06	-2.701941e-09	-3.837871e+01	-1.741976e+02
5.000000e-08	-5.414177e-06	-2.699206e-09	-3.837235e+01	-1.741436e+02
6.000000e-08	-5.412721e-06	-2.696347e-09	-3.836203e+01	-1.740988e+02
7.000000e-08	-5.410619e-06	-2.703844e-09	-3.834713e+01	-1.740655e+02
8.000000e-08	-5.407851e-06	-2.721421e-09	-3.832752e+01	-1.740456e+02
9.000000e-08	-5.404461e-06	-2.691404e-09	-3.830349e+01	-1.740411e+02
1.000000e-07	-5.400574e-06	-2.643057e-09	-3.827594e+01	-1.740537e+02
1.100000e-07	-5.396323e-06	-2.689040e-09	-3.824581e+01	-1.740846e+02
1.200000e-07	-5.391872e-06	-2.775784e-09	-3.821427e+01	-1.741351e+02
1.300000e-07	-5.387250e-06	-2.683806e-09	-3.818151e+01	-1.742060e+02
1.400000e-07	-5.382312e-06	-2.609664e-09	-3.814651e+01	-1.742976e+02
1.500000e-07	-5.376929e-06	-2.651427e-09	-3.810836e+01	-1.744103e+02
1.600000e-07	-5.371184e-06	-2.782586e-09	-3.806764e+01	-1.745435e+02
1.700000e-07	-5.365026e-06	-2.660440e-09	-3.802400e+01	-1.746968e+02
1.800000e-07	-5.358468e-06	-2.570387e-09	-3.797752e+01	-1.748692e+02
1.900000e-07	-5.351454e-06	-2.673630e-09	-3.792781e+01	-1.750592e+02
2.000000e-07	-5.344068e-06	-2.778067e-09	-3.787546e+01	-1.752652e+02
2.100000e-07	-5.336546e-06	-2.675851e-09	-3.782215e+01	-1.754851e+02
2.200000e-07	-5.328834e-06	-2.610449e-09	-3.776749e+01	-1.757167e+02
2.300000e-07	-5.320849e-06	-2.736555e-09	-3.771090e+01	-1.759574e+02
2.400000e-07	-5.312580e-06	-2.756949e-09	-3.765230e+01	-1.762044e+02
2.500000e-07	-5.303816e-06	-2.671265e-09	-3.759018e+01	-1.764549e+02
2.600000e-07	-5.294371e-06	-2.671387e-09	-3.752324e+01	-1.767059e+02
2.700000e-07	-5.284299e-06	-2.800778e-09	-3.745186e+01	-1.769541e+02
2.800000e-07	-5.273563e-06	-2.747224e-09	-3.737576e+01	-1.771966e+02
2.900000e-07	-5.262347e-06	-2.669191e-09	-3.729627e+01	-1.774302e+02
3.000000e-07	-5.250786e-06	-2.732408e-09	-3.721434e+01	-1.776520e+02
3.100000e-07	-5.238854e-06	-2.809417e-09	-3.712977e+01	-1.778591e+02
3.200000e-07	-5.226460e-06	-2.687736e-09	-3.704193e+01	-1.780490e+02
3.300000e-07	-5.213698e-06	-2.685048e-09	-3.695148e+01	-1.782191e+02
3.400000e-07	-5.200544e-06	-2.775941e-09	-3.685825e+01	-1.783673e+02
3.500000e-07	-5.186935e-06	-2.768774e-09	-3.676180e+01	-1.784917e+02
3.600000e-07	-5.173066e-06	-2.677142e-09	-3.666351e+01	-1.785908e+02
3.700000e-07	-5.158926e-06	-2.740475e-09	-3.656329e+01	-1.786635e+02
3.800000e-07	-5.144195e-06	-2.749122e-09	-3.645889e+01	-1.787087e+02
3.900000e-07	-5.128848e-06	-2.691810e-09	-3.635012e+01	-1.787261e+02
4.000000e-07	-5.112950e-06	-2.698770e-09	-3.623744e+01	-1.787154e+02
4.100000e-07	-5.096511e-06	-2.744731e-09	-3.612093e+01	-1.786770e+02
4.200000e-07	-5.079717e-06	-2.684288e-09	-3.600191e+01	-1.786113e+02
4.300000e-07	-5.062613e-06	-2.678410e-09	-3.588068e+01	-1.785192e+02
4.400000e-07	-5.045225e-06	-2.739199e-09	-3.575744e+01	-1.784020e+02
4.500000e-07	-5.027563e-06	-2.710295e-09	-3.563227e+01	-1.782609e+02
4.600000e-07	-5.009610e-06	-2.653481e-09	-3.550503e+01	-1.780978e+02
4.700000e-07	-4.991423e-06	-2.681021e-09	-3.537613e+01	-1.779143e+02
4.800000e-07	-4.972839e-06	-2.705062e-09	-3.524442e+01	-1.777127e+02
4.900000e-07	-4.953725e-06	-2.665601e-09	-3.510895e+01	-1.774948e+02
5.000000e-07	-4.934248e-06	-2.664724e-09	-3.497091e+01	-1.772630e+02
5.100000e-07	-4.914480e-06	-2.669026e-09	-3.483081e+01	-1.770195e+02
5.200000e-07	-4.894470e-06	-2.674229e-09	-3.468899e+01	-1.767664e+02
5.300000e-07	-4.874308e-06	-2.677359e-09	-3.454609e+01	-1.765059e+02
5.400000e-07	-4.853911e-06	-2.681992e-09	-3.440153e+01	-1.762401e+02
5.500000e-07	-4.833146e-06	-2.655197e-09	-3.425436e+01	-1.759708e+02
5.600000e-07	-4.812003e-06	-2.671074e-09	-3.410451e+01	-1.757000e+02
5.700000e-07	-4.790549e-06	-2.672699e-09	-3.395246e+01	-1.754291e+02
5.800000e-07	-4.768822e-06	-2.652374e-09	-3.379848e+01	-1.751596e+02
5.900000e-07	-4.746794e-06	-2.627251e-09	-3.364235e+01	-1.748926e+02
6.000000e-07	-4.724423e-06	-2.639815e-09	-3.348380e+01	-1.746293e+02
6.100000e-07	-4.701635e-06	-2.641174e-09	-3.332229e+01	-1.743702e+02
6.200000e-07	-4.678435e-06	-2.651393e-09	-3.315786e+01	-1.741159e+02
6.300000e-07	-4.654951e-06	-2.635729e-09	-3.299143e+01	-1.738666e+02
6.400000e-07	-4.631288e-06	-2.625662e-09	-3.282372e+01	-1.736226e+02
6.500000e-07	-4.607395e-06	-2.629743e-09	-3.265438e+01	-1.733835e+02
6.600000e-07	-4.583302e-06	-2.637561e-09	-3.248362e+01	-1.731492e+02
6.700000e-07	-4.558933e-06	-2.609119e-09	-3.231091e+01	-1.729190e+02
6.800000e-07	-4.534194e-06	-2.598479e-09	-3.213557e+01	-1.726925e+02
6.900000e-07	-4.509032e-06	-2.608727e-09	-3.195724e+01	-1.724687e+02
7.000000e-07	-4.483290e-06	-2.615316e-09	-3.177479e+01	-1.722469e+02
7.100000e-07	-4.456986e-06	-2.603561e-09	-3.158837e+01	-1.720261e+02
7.200000e-07	-4.430195e-06	-2.594770e-09	-3.139849e+01	-1.718055e+02
7.300000e-07	-4.402955e-06	-2.593134e-09	-3.120544e+01	-1.715839e+02
7.400000e-07	-4.375415e-06	-2.599576e-09	-3.101025e+01	-1.713604e+02
7.500000e-07	-4.347671e-06	-2.593633e-09	-3.081361e+01	-1.711341e+02
7.600000e-07	-4.319778e-06	-2.572254e-09	-3.061593e+01	-1.709040e+02
7.700000e-07	-4.291714e-06	-2.566637e-09	-3.041702e+01	-1.706693e+02
7.800000e-07	-4.263432e-06	-2.571694e-09	-3.021658e+01	-1.704293e+02
7.900000e-07	-4.234910e-06	-2.569159e-09	-3.001443e+01	-1.701832e+02
8.000000e-07	-4.206050e-06	-2.554673e-09	-2.980989e+01	-1.699305e+02
8.100000e-07	-4.176843e-06	-2.552438e-09	-2.960289e+01	-1.696706e+02
8.200000e-07	-4.147307e-06	-2.552499e-09	-2.939356e+01	-1.694034e+02
8.300000e-07	-4.117423e-06	-2.556033e-09	-2.918176e+01	-1.691283e+02
8.400000e-07	-4.087291e-06	-2.542736e-09	-2.896820e+01	-1.688454e+02
8.500000e-07	-4.056953e-06	-2.531552e-09	-2.875318e+01	-1.685546e+02
8.600000e-07	-4.026363e-06	-2.525740e-09	-2.853638e+01	-1.682558e+02
8.700000e-07	-3.995495e-06	-2.527944e-09	-2.831760e+01	-1.679491e+02
8.800000e-07	-3.964338e-06	-2.513631e-09	-2.809679e+01	-1.676348e+02
8.900000e-07	-3.933003e-06	-2.499283e-09	-2.787470e+01	-1.673131e+02
9.000000e-07	-3.901434e-06	-2.492218e-09	-2.765096e+01	-1.669841e+02
9.100000e-07	-3.869645e-06	-2.500140e-09	-2.742566e+01	-1.666483e+02
9.200000e-07	-3.837714e-06	-2.497859e-09	-2.719935e+01	-1.663058e+02
9.300000e-07	-3.805549e-06	-2.490797e-09	-2.697139e+01	-1.659571e+02
9.400000e-07	-3.773094e-06	-2.483045e-09	-2.674137e+01	-1.656024e+02
9.500000e-07	-3.740384e-06	-2.484767e-09	-2.650954e+01	-1.652420e+02
9.600000e-07	-3.707366e-06	-2.474631e-09	-2.627552e+01	-1.648762e+02
9.700000e-07	-3.673953e-06	-2.457303e-09	-2.603872e+01	-1.645052e+02
9.800000e-07	-3.640145e-06	-2.444155e-09	-2.579911e+01	-1.641291e+02
9.900000e-07	-3.605940e-06	-2.447392e-09	-2.555668e+01	-1.637482e+02
1.000000e-06	-3.571307e-06	-2.449625e-09	-2.531123e+01	-1.633625e+02
1.010000e-06	-3.536259e-06	-2.446361e-09	-2.506282e+01	-1.629721e+02
1.020000e-06	-3.500863e-06	-2.442541e-09	-2.481196e+01	-1.625769e+02
1.030000e-06	-3.465268e-06	-2.439311e-09	-2.455969e+01	-1.621771e+02
1.040000e-06	-3.429549e-06	-2.428609e-09	-2.430653e+01	-1.617725e+02
1.050000e-06	-3.393655e-06	-2.410558e-09	-2.405214e+01	-1.613631e+02
1.060000e-06	-3.357598e-06	-2.391310e-09	-2.379659e+01	-1.609487e+02
1.070000e-06	-3.321422e-06	-2.379736e-09	-2.354019e+01	-1.605292e+02
1.080000e-06	-3.285086e-06	-2.376678e-09	-2.328266e+01	-1.601046e+02
1.090000e-06	-3.248466e-06	-2.369234e-09	-2.302312e+01	-1.596746e+02
1.100000e-06	-3.211609e-06	-2.365554e-09	-2.276191e+01	-1.592391e+02
1.110000e-06	-3.174553e-06	-2.363792e-09	-2.249927e+01	-1.587980e+02
1.120000e-06	-3.137191e-06	-2.364854e-09	-2.223448e+01	-1.583513e+02
1.130000e-06	-3.099512e-06	-2.357774e-09	-2.196743e+01	-1.578987e+02
1.140000e-06	-3.061591e-06	-2.346359e-09	-2.169867e+01	-1.574402e+02
1.150000e-06	-3.023516e-06	-2.331995e-09	-2.142882e+01	-1.569757e+02
1.160000e-06	-2.985265e-06	-2.321645e-09	-2.115772e+01	-1.565052e+02
1.170000e-06	-2.946802e-06	-2.307410e-09	-2.088512e+01	-1.560286e+02
1.180000e-06	-2.908173e-06	-2.295166e-09	-2.061134e+01	-1.555458e+02
1.190000e-06	-2.869394e-06	-2.288194e-09	-2.033649e+01	-1.550570e+02
1.200000e-06	-2.830395e-06	-2.291022e-09	-2.006010e+01	-1.545619e+02
1.210000e-06	-2.791161e-06	-2.289294e-09	-1.978203e+01	-1.540606e+02
1.220000e-06	-2.751713e-06	-2.281289e-09	-1.950245e+01	-1.535531e+02
1.230000e-06	-2.712108e-06	-2.268656e-09	-1.922175e+01	-1.530391e+02
1.240000e-06	-2.672318e-06	-2.259801e-09	-1.893974e+01	-1.525186e+02
1.250000e-06	-2.632392e-06	-2.246982e-09	-1.865677e+01	-1.519915e+02
1.260000e-06	-2.592476e-06	-2.233504e-09	-1.837387e+01	-1.514575e+02
1.270000e-06	-2.552489e-06	-2.220858e-09	-1.809047e+01	-1.509164e+02
1.280000e-06	-2.512368e-06	-2.215056e-09	-1.780612e+01	-1.503678e+02
1.290000e-06	-2.472115e-06	-2.211813e-09	-1.752082e+01	-1.498114e+02
1.300000e-06	-2.431735e-06	-2.205485e-09	-1.723464e+01	-1.492468e+02
1.310000e-06	-2.391141e-06	-2.197426e-09	-1.694693e+01	-1.486734e+02
1.320000e-06	-2.350293e-06	-2.190085e-09	-1.665743e+01	-1.480906e+02
1.330000e-06	-2.309228e-06	-2.180651e-09	-1.636639e+01	-1.474979e+02
1.340000e-06	-2.267843e-06	-2.164119e-09	-1.607307e+01	-1.468945e+02
1.350000e-06	-2.226125e-06	-2.148496e-09	-1.577740e+01	-1.462796e+02
1.360000e-06	-2.184064e-06	-2.136939e-09	-1.547930e+01	-1.456526e+02
1.370000e-06	-2.141714e-06	-2.128500e-09	-1.517915e+01	-1.450125e+02
1.380000e-06	-2.099176e-06	-2.118450e-09	-1.487766e+01	-1.443586e+02
1.390000e-06	-2.056490e-06	-2.106809e-09	-1.457513e+01	-1.436898e+02
1.400000e-06	-2.013665e-06	-2.095892e-09	-1.427161e+01	-1.430055e+02
1.410000e-06	-1.970649e-06	-2.088784e-09	-1.396674e+01	-1.423046e+02
1.420000e-06	-1.927401e-06	-2.078158e-09	-1.366023e+01	-1.415863e+02
1.430000e-06	-1.883931e-06	-2.063840e-09	-1.335214e+01	-1.408498e+02
1.440000e-06	-1.840318e-06	-2.048783e-09	-1.304304e+01	-1.400943e+02
1.450000e-06	-1.796595e-06	-2.037974e-09	-1.273316e+01	-1.393191e+02
1.460000e-06	-1.752756e-06	-2.025810e-09	-1.242245e+01	-1.385234e+02
1.470000e-06	-1.708854e-06	-2.010252e-09	-1.211131e+01	-1.377067e+02
1.480000e-06	-1.664899e-06	-1.990889e-09	-1.179978e+01	-1.368683e+02
1.490000e-06	-1.620799e-06	-1.974164e-09	-1.148722e+01	-1.360077e+02
1.500000e-06	-1.576635e-06	-1.960181e-09	-1.117422e+01	-1.351245e+02
1.510000e-06	-1.532438e-06	-1.947875e-09	-1.086098e+01	-1.342183e+02
1.520000e-06	-1.488177e-06	-1.934055e-09	-1.054728e+01	-1.332887e+02
1.530000e-06	-1.443924e-06	-1.919810e-09	-1.023365e+01	-1.323354e+02
1.540000e-06	-1.399573e-06	-1.905460e-09	-9.919309e+00	-1.313583e+02
1.550000e-06	-1.355164e-06	-1.888846e-09	-9.604568e+00	-1.303570e+02
1.560000e-06	-1.310738e-06	-1.868309e-09	-9.289703e+00	-1.293313e+02
1.570000e-06	-1.266256e-06	-1.849380e-09	-8.974444e+00	-1.282810e+02
1.580000e-06	-1.221627e-06	-1.835539e-09	-8.658141e+00	-1.272057e+02
1.590000e-06	-1.176797e-06	-1.824411e-09	-8.340410e+00	-1.261053e+02
1.600000e-06	-1.131886e-06	-1.809362e-09	-8.022110e+00	-1.249793e+02
1.610000e-06	-1.086901e-06	-1.792159e-09	-7.703282e+00	-1.238273e+02
1.620000e-06	-1.041771e-06	-1.774528e-09	-7.383428e+00	-1.226488e+02
1.630000e-06	-9.965255e-07	-1.755252e-09	-7.062759e+00	-1.214432e+02
1.640000e-06	-9.512213e-07	-1.733369e-09	-6.741670e+00	-1.202096e+02
1.650000e-06	-9.059185e-07	-1.709495e-09	-6.420592e+00	-1.189473e+02
1.660000e-06	-8.605742e-07	-1.687722e-09	-6.099220e+00	-1.176552e+02
1.670000e-06	-8.151241e-07	-1.669407e-09	-5.777097e+00	-1.163321e+02
1.680000e-06	-7.695737e-07	-1.653167e-09	-5.454264e+00	-1.149768e+02
1.690000e-06	-7.239386e-07	-1.634400e-09	-5.130831e+00	-1.135879e+02
1.700000e-06	-6.783111e-07	-1.612829e-09	-4.807451e+00	-1.121638e+02
1.710000e-06	-6.326566e-07	-1.589477e-09	-4.483880e+00	-1.107027e+02
1.720000e-06	-5.869038e-07	-1.565547e-09	-4.159613e+00	-1.092029e+02
1.730000e-06	-5.410500e-07	-1.539427e-09	-3.834629e+00	-1.076625e+02
1.740000e-06	-4.951696e-07	-1.513292e-09	-3.509457e+00	-1.060795e+02
1.750000e-06	-4.493460e-07	-1.488855e-09	-3.184688e+00	-1.044517e+02
1.760000e-06	-4.035132e-07	-1.467519e-09	-2.859853e+00	-1.027772e+02
1.770000e-06	-3.575980e-07	-1.446986e-09	-2.534434e+00	-1.010538e+02
1.780000e-06	-3.117222e-07	-1.424179e-09	-2.209295e+00	-9.927951e+01
1.790000e-06	-2.658180e-07	-1.398276e-09	-1.883954e+00	-9.745222e+01
1.800000e-06	-2.197543e-07	-1.370376e-09	-1.557483e+00	-9.557000e+01
1.810000e-06	-1.736937e-07	-1.339269e-09	-1.231034e+00	-9.363103e+01
1.820000e-06	-1.277163e-07	-1.308430e-09	-9.051744e-01	-9.163359e+01
1.830000e-06	-8.179910e-08	-1.278864e-09	-5.797416e-01	-8.957615e+01
1.840000e-06	-3.585881e-08	-1.250925e-09	-2.541451e-01	-8.745736e+01
1.850000e-06	1.010193e-08	-1.221601e-09	7.159624e-02	-8.527610e+01
1.860000e-06	5.598022e-08	-1.189160e-09	3.967533e-01	-8.303147e+01
1.870000e-06	1.018507e-07	-1.154313e-09	7.218553e-01	-8.072284e+01
1.880000e-06	1.477090e-07	-1.117916e-09	1.046870e+00	-7.834985e+01
1.890000e-06	1.935498e-07	-1.078966e-09	1.371762e+00	-7.591242e+01
1.900000e-06	2.394124e-07	-1.039648e-09	1.696808e+00	-7.341076e+01
1.910000e-06	2.852991e-07	-1.001420e-09	2.022025e+00	-7.084537e+01
1.920000e-06	3.312661e-07	-9.622013e-10	2.347810e+00	-6.821705e+01
1.930000e-06	3.772427e-07	-9.229714e-10	2.673664e+00	-6.552687e+01
1.940000e-06	4.232054e-07	-8.845635e-10	2.999419e+00	-6.277619e+01
1.950000e-06	4.690634e-07	-8.446749e-10	3.324432e+00	-5.996662e+01
1.960000e-06	5.147877e-07	-8.037675e-10	3.648498e+00	-5.710004e+01
1.970000e-06	5.604996e-07	-7.623008e-10	3.972476e+00	-5.417853e+01
1.980000e-06	6.061693e-07	-7.189776e-10	4.296155e+00	-5.120438e+01
1.990000e-06	6.517478e-07	-6.734948e-10	4.619187e+00	-4.818009e+01
2.000000e-06	6.973381e-07	-6.266202e-10	4.942303e+00	-4.510827e+01
2.010000e-06	7.429504e-07	-5.807824e-10	5.265575e+00	-4.199170e+01
2.020000e-06	7.884377e-07	-5.341418e-10	5.587961e+00	-3.883323e+01
2.030000e-06	8.339230e-07	-4.867325e-10	5.910333e+00	-3.563582e+01
2.040000e-06	8.793484e-07	-4.384239e-10	6.232279e+00	-3.240246e+01
2.050000e-06	9.246202e-07	-3.886846e-10	6.553138e+00	-2.913615e+01
2.060000e-06	9.698826e-07	-3.389150e-10	6.873930e+00	-2.583993e+01
2.070000e-06	1.015044e-06	-2.885096e-10	7.194004e+00	-2.251681e+01
2.080000e-06	1.060079e-06	-2.372832e-10	7.513186e+00	-1.916974e+01
2.090000e-06	1.105047e-06	-1.859688e-10	7.831891e+00	-1.580166e+01
2.100000e-06	1.149916e-06	-1.369234e-10	8.149897e+00	-1.241544e+01
2.110000e-06	1.194660e-06	-9.194627e-11	8.467015e+00	-9.013847e+00
2.120000e-06	1.239300e-06	-4.552469e-11	8.783394e+00	-5.599616e+00
2.130000e-06	1.283914e-06	3.412727e-12	9.099595e+00	-2.175382e+00
2.140000e-06	1.328435e-06	5.634761e-11	9.415130e+00	1.256290e+00
2.150000e-06	1.372838e-06	1.106091e-10	9.729831e+00	4.692911e+00
2.160000e-06	1.417169e-06	1.650722e-10	1.004402e+01	8.132056e+00
2.170000e-06	1.461419e-06	2.213202e-10	1.035764e+01	1.157136e+01
2.180000e-06	1.505599e-06	2.782458e-10	1.067076e+01	1.500851e+01
2.190000e-06	1.549719e-06	3.299735e-10	1.098346e+01	1.844123e+01
2.200000e-06	1.593784e-06	3.763109e-10	1.129576e+01	2.186727e+01
2.210000e-06	1.637815e-06	4.211449e-10	1.160782e+01	2.528439e+01
2.220000e-06	1.681793e-06	4.711420e-10	1.191951e+01	2.869036e+01
2.230000e-06	1.725697e-06	5.246232e-10	1.223067e+01	3.208295e+01
2.240000e-06	1.769545e-06	5.775191e-10	1.254144e+01	3.545989e+01
2.250000e-06	1.813294e-06	6.316381e-10	1.285151e+01	3.881891e+01
2.260000e-06	1.856967e-06	6.879637e-10	1.316104e+01	4.215769e+01
2.270000e-06	1.900507e-06	7.419469e-10	1.346962e+01	4.547389e+01
2.280000e-06	1.943849e-06	7.880488e-10	1.377681e+01	4.876513e+01
2.290000e-06	1.987102e-06	8.295392e-10	1.408335e+01	5.202900e+01
2.300000e-06	2.030109e-06	8.731992e-10	1.438816e+01	5.526306e+01
2.310000e-06	2.072854e-06	9.186710e-10	1.469111e+01	5.846484e+01
2.320000e-06	2.115550e-06	9.619600e-10	1.499371e+01	6.163188e+01
2.330000e-06	2.158005e-06	1.006502e-09	1.529461e+01	6.476171e+01
2.340000e-06	2.200073e-06	1.053843e-09	1.559276e+01	6.785188e+01
2.350000e-06	2.241834e-06	1.102043e-09	1.588874e+01	7.089998e+01
2.360000e-06	2.283316e-06	1.148825e-09	1.618273e+01	7.390367e+01
2.370000e-06	2.324522e-06	1.191955e-09	1.647478e+01	7.686066e+01
2.380000e-06	2.365487e-06	1.229608e-09	1.676511e+01	7.976877e+01
2.390000e-06	2.406196e-06	1.262811e-09	1.705363e+01	8.262594e+01
2.400000e-06	2.446601e-06	1.292971e-09	1.734000e+01	8.543025e+01
2.410000e-06	2.486900e-06	1.327186e-09	1.762561e+01	8.817994e+01
2.420000e-06	2.527161e-06	1.365767e-09	1.791096e+01	9.087342e+01
2.430000e-06	2.567260e-06	1.409660e-09	1.819516e+01	9.350931e+01
2.440000e-06	2.607292e-06	1.457055e-09	1.847888e+01	9.608644e+01
2.450000e-06	2.647245e-06	1.502467e-09	1.876204e+01	9.860383e+01
2.460000e-06	2.687050e-06	1.540177e-09	1.904415e+01	1.010608e+02
2.470000e-06	2.726747e-06	1.570820e-09	1.932551e+01	1.034568e+02
2.480000e-06	2.766300e-06	1.595047e-09	1.960583e+01	1.057915e+02
2.490000e-06	2.805703e-06	1.615570e-09	1.988509e+01	1.080651e+02
2.500000e-06	2.844905e-06	1.640513e-09	2.016293e+01	1.102776e+02
2.510000e-06	2.883821e-06	1.676274e-09	2.043875e+01	1.124295e+02
2.520000e-06	2.922498e-06	1.718860e-09	2.071286e+01	1.145214e+02
2.530000e-06	2.960922e-06	1.756768e-09	2.098519e+01	1.165541e+02
2.540000e-06	2.999098e-06	1.786618e-09	2.125576e+01	1.185287e+02
2.550000e-06	3.037127e-06	1.810529e-09	2.152529e+01	1.204462e+02
2.560000e-06	3.075048e-06	1.832392e-09	2.179404e+01	1.223079e+02
2.570000e-06	3.112787e-06	1.850903e-09	2.206152e+01	1.241151e+02
2.580000e-06	3.150286e-06	1.866895e-09	2.232728e+01	1.258694e+02
2.590000e-06	3.187539e-06	1.887122e-09	2.259131e+01	1.275720e+02
2.600000e-06	3.224517e-06	1.916085e-09	2.285339e+01	1.292247e+02
2.610000e-06	3.261248e-06	1.948607e-09	2.311371e+01	1.308288e+02
2.620000e-06	3.297710e-06	1.976168e-09	2.337214e+01	1.323858e+02
2.630000e-06	3.333957e-06	1.998058e-09	2.362904e+01	1.338971e+02
2.640000e-06	3.370061e-06	2.019512e-09	2.388492e+01	1.353642e+02
2.650000e-06	3.406038e-06	2.038467e-09	2.413990e+01	1.367882e+02
2.660000e-06	3.441883e-06	2.051332e-09	2.439395e+01	1.381703e+02
2.670000e-06	3.477555e-06	2.063919e-09	2.464677e+01	1.395117e+02
2.680000e-06	3.513051e-06	2.083330e-09	2.489834e+01	1.408133e+02
2.690000e-06	3.548344e-06	2.104441e-09	2.514848e+01	1.420759e+02
2.700000e-06	3.583292e-06	2.121986e-09	2.539617e+01	1.433003e+02
2.710000e-06	3.617849e-06	2.137837e-09	2.564109e+01	1.444871e+02
2.720000e-06	3.652041e-06	2.157532e-09	2.588342e+01	1.456368e+02
2.730000e-06	3.685766e-06	2.177088e-09	2.612244e+01	1.467500e+02
2.740000e-06	3.718999e-06	2.190421e-09	2.635797e+01	1.478269e+02
2.750000e-06	3.751917e-06	2.201360e-09	2.659127e+01	1.488680e+02
2.760000e-06	3.784555e-06	2.217205e-09	2.682260e+01	1.498735e+02
2.770000e-06	3.816832e-06	2.237384e-09	2.705135e+01	1.508437e+02
2.780000e-06	3.848879e-06	2.252524e-09	2.727848e+01	1.517789e+02
2.790000e-06	3.880812e-06	2.264025e-09	2.750481e+01	1.526794e+02
2.800000e-06	3.912630e-06	2.279357e-09	2.773031e+01	1.535455e+02
2.810000e-06	3.944342e-06	2.297242e-09	2.795507e+01	1.543778e+02
2.820000e-06	3.975794e-06	2.311228e-09	2.817798e+01	1.551766e+02
2.830000e-06	4.006866e-06	2.319125e-09	2.839820e+01	1.559426e+02
2.840000e-06	4.037542e-06	2.326108e-09	2.861561e+01	1.566764e+02
2.850000e-06	4.067866e-06	2.336985e-09	2.883053e+01	1.573790e+02
2.860000e-06	4.097961e-06	2.349839e-09	2.904382e+01	1.580511e+02
2.870000e-06	4.127849e-06	2.361152e-09	2.925565e+01	1.586939e+02
2.880000e-06	4.157523e-06	2.371035e-09	2.946596e+01	1.593085e+02
2.890000e-06	4.186953e-06	2.380676e-09	2.967454e+01	1.598962e+02
2.900000e-06	4.216055e-06	2.388743e-09	2.988080e+01	1.604583e+02
