# Temperatura_=_5.16
# Concentracion g/m^3_=_4090.0
# C_Vs_to_Am_M_A/Vsm_=_65563218390.804596
# pendiente_HvsI_1/m_=_3716.3
# ordenada_HvsI_A/m_=_1297.0
# frecuencia_Hz_=_135083.03281466087

Tiempo_(s)	Campo_(V.s)	Magnetizacion_(V.s)	Campo_(kA/m)	Magnetizacion_(A/m)
0.000000e+00	-5.420088e-06	-2.631977e-09	-3.838760e+01	-1.719751e+02
1.000000e-08	-5.420018e-06	-2.622506e-09	-3.838711e+01	-1.719726e+02
2.000000e-08	-5.419848e-06	-2.610343e-09	-3.838590e+01	-1.719712e+02
3.000000e-08	-5.419374e-06	-2.599113e-09	-3.838254e+01	-1.719719e+02
4.000000e-08	-5.418486e-06	-2.591382e-09	-3.837625e+01	-1.719755e+02
5.000000e-08	-5.417142e-06	-2.593406e-09	-3.836674e+01	-1.719833e+02
6.000000e-08	-5.415147e-06	-2.612269e-09	-3.835261e+01	-1.719960e+02
7.000000e-08	-5.412451e-06	-2.639726e-09	-3.833352e+01	-1.720148e+02
8.000000e-08	-5.409084e-06	-2.629330e-09	-3.830967e+01	-1.720404e+02
9.000000e-08	-5.405125e-06	-2.607601e-09	-3.828163e+01	-1.720738e+02
1.000000e-07	-5.400909e-06	-2.647305e-09	-3.825176e+01	-1.721156e+02
1.100000e-07	-5.396638e-06	-2.655081e-09	-3.822152e+01	-1.721664e+02
1.200000e-07	-5.392192e-06	-2.549514e-09	-3.819003e+01	-1.722268e+02
1.300000e-07	-5.387389e-06	-2.504855e-09	-3.815601e+01	-1.722971e+02
1.400000e-07	-5.382137e-06	-2.582008e-09	-3.811881e+01	-1.723774e+02
1.500000e-07	-5.376457e-06	-2.674776e-09	-3.807859e+01	-1.724678e+02
1.600000e-07	-5.370398e-06	-2.579376e-09	-3.803567e+01	-1.725681e+02
1.700000e-07	-5.364002e-06	-2.560397e-09	-3.799037e+01	-1.726779e+02
1.800000e-07	-5.357204e-06	-2.667511e-09	-3.794223e+01	-1.727968e+02
1.900000e-07	-5.349997e-06	-2.722363e-09	-3.789118e+01	-1.729241e+02
2.000000e-07	-5.342476e-06	-2.598256e-09	-3.783792e+01	-1.730589e+02
2.100000e-07	-5.334814e-06	-2.551126e-09	-3.778365e+01	-1.732001e+02
2.200000e-07	-5.326980e-06	-2.657752e-09	-3.772817e+01	-1.733468e+02
2.300000e-07	-5.318738e-06	-2.683104e-09	-3.766980e+01	-1.734975e+02
2.400000e-07	-5.309991e-06	-2.624651e-09	-3.760784e+01	-1.736509e+02
2.500000e-07	-5.300736e-06	-2.661293e-09	-3.754230e+01	-1.738056e+02
2.600000e-07	-5.290730e-06	-2.766176e-09	-3.747143e+01	-1.739599e+02
2.700000e-07	-5.280001e-06	-2.717162e-09	-3.739544e+01	-1.741124e+02
2.800000e-07	-5.268943e-06	-2.660984e-09	-3.731712e+01	-1.742614e+02
2.900000e-07	-5.257472e-06	-2.717208e-09	-3.723588e+01	-1.744053e+02
3.000000e-07	-5.245562e-06	-2.748674e-09	-3.715153e+01	-1.745425e+02
3.100000e-07	-5.233300e-06	-2.667277e-09	-3.706468e+01	-1.746716e+02
3.200000e-07	-5.220620e-06	-2.704234e-09	-3.697488e+01	-1.747911e+02
3.300000e-07	-5.207546e-06	-2.778907e-09	-3.688228e+01	-1.748996e+02
3.400000e-07	-5.194140e-06	-2.749680e-09	-3.678733e+01	-1.749960e+02
3.500000e-07	-5.180346e-06	-2.685406e-09	-3.668964e+01	-1.750790e+02
3.600000e-07	-5.166159e-06	-2.734196e-09	-3.658916e+01	-1.751478e+02
3.700000e-07	-5.151475e-06	-2.723828e-09	-3.648516e+01	-1.752016e+02
3.800000e-07	-5.136309e-06	-2.679378e-09	-3.637774e+01	-1.752396e+02
3.900000e-07	-5.120662e-06	-2.695111e-09	-3.626693e+01	-1.752614e+02
4.000000e-07	-5.104328e-06	-2.733001e-09	-3.615124e+01	-1.752668e+02
4.100000e-07	-5.087547e-06	-2.701247e-09	-3.603239e+01	-1.752555e+02
4.200000e-07	-5.070556e-06	-2.711284e-09	-3.591205e+01	-1.752276e+02
4.300000e-07	-5.053293e-06	-2.738727e-09	-3.578979e+01	-1.751833e+02
4.400000e-07	-5.035739e-06	-2.703003e-09	-3.566546e+01	-1.751230e+02
4.500000e-07	-5.017864e-06	-2.669025e-09	-3.553886e+01	-1.750470e+02
4.600000e-07	-4.999657e-06	-2.696613e-09	-3.540992e+01	-1.749561e+02
4.700000e-07	-4.981074e-06	-2.703926e-09	-3.527830e+01	-1.748510e+02
4.800000e-07	-4.962067e-06	-2.681644e-09	-3.514368e+01	-1.747324e+02
4.900000e-07	-4.942670e-06	-2.687744e-09	-3.500631e+01	-1.746013e+02
5.000000e-07	-4.922993e-06	-2.696349e-09	-3.486694e+01	-1.744586e+02
5.100000e-07	-4.903137e-06	-2.696266e-09	-3.472631e+01	-1.743053e+02
5.200000e-07	-4.883069e-06	-2.693750e-09	-3.458418e+01	-1.741426e+02
5.300000e-07	-4.862727e-06	-2.686250e-09	-3.444011e+01	-1.739713e+02
5.400000e-07	-4.842047e-06	-2.673038e-09	-3.429364e+01	-1.737925e+02
5.500000e-07	-4.821050e-06	-2.685827e-09	-3.414493e+01	-1.736073e+02
5.600000e-07	-4.799643e-06	-2.681742e-09	-3.399332e+01	-1.734166e+02
5.700000e-07	-4.777846e-06	-2.664803e-09	-3.383894e+01	-1.732213e+02
5.800000e-07	-4.755771e-06	-2.656836e-09	-3.368260e+01	-1.730223e+02
5.900000e-07	-4.733339e-06	-2.664415e-09	-3.352372e+01	-1.728204e+02
6.000000e-07	-4.710576e-06	-2.656760e-09	-3.336251e+01	-1.726162e+02
6.100000e-07	-4.687434e-06	-2.656379e-09	-3.319860e+01	-1.724104e+02
6.200000e-07	-4.663920e-06	-2.645483e-09	-3.303207e+01	-1.722036e+02
6.300000e-07	-4.640228e-06	-2.642016e-09	-3.286427e+01	-1.719961e+02
6.400000e-07	-4.616402e-06	-2.646983e-09	-3.269552e+01	-1.717883e+02
6.500000e-07	-4.592384e-06	-2.646731e-09	-3.252541e+01	-1.715804e+02
6.600000e-07	-4.568083e-06	-2.623766e-09	-3.235330e+01	-1.713728e+02
6.700000e-07	-4.543386e-06	-2.618125e-09	-3.217839e+01	-1.711653e+02
6.800000e-07	-4.518165e-06	-2.619108e-09	-3.199976e+01	-1.709581e+02
6.900000e-07	-4.492394e-06	-2.614777e-09	-3.181724e+01	-1.707510e+02
7.000000e-07	-4.466140e-06	-2.605974e-09	-3.163129e+01	-1.705439e+02
7.100000e-07	-4.439367e-06	-2.605498e-09	-3.144168e+01	-1.703367e+02
7.200000e-07	-4.412179e-06	-2.604845e-09	-3.124912e+01	-1.701291e+02
7.300000e-07	-4.384701e-06	-2.607066e-09	-3.105451e+01	-1.699208e+02
7.400000e-07	-4.357048e-06	-2.597272e-09	-3.085865e+01	-1.697114e+02
7.500000e-07	-4.329269e-06	-2.578834e-09	-3.066191e+01	-1.695007e+02
7.600000e-07	-4.301247e-06	-2.569776e-09	-3.046345e+01	-1.692881e+02
7.700000e-07	-4.272961e-06	-2.569952e-09	-3.026311e+01	-1.690733e+02
7.800000e-07	-4.244473e-06	-2.565432e-09	-3.006135e+01	-1.688559e+02
7.900000e-07	-4.215655e-06	-2.560674e-09	-2.985725e+01	-1.686355e+02
8.000000e-07	-4.186356e-06	-2.563539e-09	-2.964974e+01	-1.684115e+02
8.100000e-07	-4.156730e-06	-2.564085e-09	-2.943991e+01	-1.681836e+02
8.200000e-07	-4.126967e-06	-2.560721e-09	-2.922911e+01	-1.679514e+02
8.300000e-07	-4.096998e-06	-2.549579e-09	-2.901686e+01	-1.677143e+02
8.400000e-07	-4.066637e-06	-2.540537e-09	-2.880183e+01	-1.674721e+02
8.500000e-07	-4.035896e-06	-2.535601e-09	-2.858410e+01	-1.672243e+02
8.600000e-07	-4.004864e-06	-2.534139e-09	-2.836432e+01	-1.669705e+02
8.700000e-07	-3.973733e-06	-2.526829e-09	-2.814384e+01	-1.667105e+02
8.800000e-07	-3.942412e-06	-2.523383e-09	-2.792201e+01	-1.664437e+02
8.900000e-07	-3.910781e-06	-2.521522e-09	-2.769798e+01	-1.661700e+02
9.000000e-07	-3.878940e-06	-2.521971e-09	-2.747247e+01	-1.658891e+02
9.100000e-07	-3.846931e-06	-2.515129e-09	-2.724577e+01	-1.656007e+02
9.200000e-07	-3.814798e-06	-2.510146e-09	-2.701819e+01	-1.653045e+02
9.300000e-07	-3.782440e-06	-2.506833e-09	-2.678901e+01	-1.650005e+02
9.400000e-07	-3.749735e-06	-2.507562e-09	-2.655738e+01	-1.646884e+02
9.500000e-07	-3.716652e-06	-2.501050e-09	-2.632307e+01	-1.643682e+02
9.600000e-07	-3.683101e-06	-2.493417e-09	-2.608545e+01	-1.640397e+02
9.700000e-07	-3.648975e-06	-2.487486e-09	-2.584375e+01	-1.637030e+02
9.800000e-07	-3.614506e-06	-2.485509e-09	-2.559963e+01	-1.633581e+02
9.900000e-07	-3.579756e-06	-2.479755e-09	-2.535351e+01	-1.630051e+02
1.000000e-06	-3.544662e-06	-2.474736e-09	-2.510496e+01	-1.626441e+02
1.010000e-06	-3.509325e-06	-2.473945e-09	-2.485468e+01	-1.622753e+02
1.020000e-06	-3.473717e-06	-2.474349e-09	-2.460249e+01	-1.618989e+02
1.030000e-06	-3.437892e-06	-2.466947e-09	-2.434876e+01	-1.615152e+02
1.040000e-06	-3.401951e-06	-2.455620e-09	-2.409421e+01	-1.611245e+02
1.050000e-06	-3.365879e-06	-2.444746e-09	-2.383873e+01	-1.607272e+02
1.060000e-06	-3.329616e-06	-2.435101e-09	-2.358190e+01	-1.603238e+02
1.070000e-06	-3.293120e-06	-2.424722e-09	-2.332342e+01	-1.599146e+02
1.080000e-06	-3.256461e-06	-2.414134e-09	-2.306378e+01	-1.595002e+02
1.090000e-06	-3.219603e-06	-2.411765e-09	-2.280274e+01	-1.590811e+02
1.100000e-06	-3.182504e-06	-2.415312e-09	-2.253998e+01	-1.586578e+02
1.110000e-06	-3.145178e-06	-2.413515e-09	-2.227562e+01	-1.582308e+02
1.120000e-06	-3.107627e-06	-2.403974e-09	-2.200967e+01	-1.578006e+02
1.130000e-06	-3.069918e-06	-2.395827e-09	-2.174260e+01	-1.573677e+02
1.140000e-06	-3.032004e-06	-2.387004e-09	-2.147407e+01	-1.569326e+02
1.150000e-06	-2.993846e-06	-2.375748e-09	-2.120382e+01	-1.564958e+02
1.160000e-06	-2.955393e-06	-2.359497e-09	-2.093148e+01	-1.560575e+02
1.170000e-06	-2.916695e-06	-2.347292e-09	-2.065740e+01	-1.556182e+02
1.180000e-06	-2.877764e-06	-2.342745e-09	-2.038167e+01	-1.551780e+02
1.190000e-06	-2.838629e-06	-2.343728e-09	-2.010450e+01	-1.547371e+02
1.200000e-06	-2.799359e-06	-2.339376e-09	-1.982637e+01	-1.542955e+02
1.210000e-06	-2.759967e-06	-2.330735e-09	-1.954738e+01	-1.538532e+02
1.220000e-06	-2.720522e-06	-2.319782e-09	-1.926801e+01	-1.534100e+02
1.230000e-06	-2.680888e-06	-2.307549e-09	-1.898730e+01	-1.529656e+02
1.240000e-06	-2.641064e-06	-2.290801e-09	-1.870525e+01	-1.525196e+02
1.250000e-06	-2.601141e-06	-2.276356e-09	-1.842250e+01	-1.520715e+02
1.260000e-06	-2.561096e-06	-2.268431e-09	-1.813888e+01	-1.516207e+02
1.270000e-06	-2.520945e-06	-2.266444e-09	-1.785451e+01	-1.511663e+02
1.280000e-06	-2.480696e-06	-2.262969e-09	-1.756945e+01	-1.507075e+02
1.290000e-06	-2.440290e-06	-2.253459e-09	-1.728328e+01	-1.502434e+02
1.300000e-06	-2.399662e-06	-2.241869e-09	-1.699553e+01	-1.497728e+02
1.310000e-06	-2.358760e-06	-2.235399e-09	-1.670584e+01	-1.492945e+02
1.320000e-06	-2.317645e-06	-2.227450e-09	-1.641465e+01	-1.488075e+02
1.330000e-06	-2.276247e-06	-2.212422e-09	-1.612144e+01	-1.483104e+02
1.340000e-06	-2.234486e-06	-2.199410e-09	-1.582568e+01	-1.478019e+02
1.350000e-06	-2.192466e-06	-2.190872e-09	-1.552807e+01	-1.472806e+02
1.360000e-06	-2.150227e-06	-2.181935e-09	-1.522891e+01	-1.467454e+02
1.370000e-06	-2.107643e-06	-2.171615e-09	-1.492731e+01	-1.461949e+02
1.380000e-06	-2.064776e-06	-2.159994e-09	-1.462371e+01	-1.456279e+02
1.390000e-06	-2.021817e-06	-2.148889e-09	-1.431945e+01	-1.450431e+02
1.400000e-06	-1.978638e-06	-2.140065e-09	-1.401364e+01	-1.444395e+02
1.410000e-06	-1.935177e-06	-2.127928e-09	-1.370583e+01	-1.438161e+02
1.420000e-06	-1.891612e-06	-2.114214e-09	-1.339728e+01	-1.431719e+02
1.430000e-06	-1.848071e-06	-2.102386e-09	-1.308890e+01	-1.425062e+02
1.440000e-06	-1.804386e-06	-2.092728e-09	-1.277950e+01	-1.418183e+02
1.450000e-06	-1.760523e-06	-2.081501e-09	-1.246885e+01	-1.411076e+02
1.460000e-06	-1.716607e-06	-2.068033e-09	-1.215782e+01	-1.403737e+02
1.470000e-06	-1.672687e-06	-2.052524e-09	-1.184675e+01	-1.396164e+02
1.480000e-06	-1.628743e-06	-2.037953e-09	-1.153552e+01	-1.388356e+02
1.490000e-06	-1.584679e-06	-2.025086e-09	-1.122344e+01	-1.380311e+02
1.500000e-06	-1.540519e-06	-2.012437e-09	-1.091068e+01	-1.372031e+02
1.510000e-06	-1.496230e-06	-1.999273e-09	-1.059700e+01	-1.363517e+02
1.520000e-06	-1.451885e-06	-1.985899e-09	-1.028293e+01	-1.354773e+02
1.530000e-06	-1.407501e-06	-1.973339e-09	-9.968581e+00	-1.345801e+02
1.540000e-06	-1.363052e-06	-1.960536e-09	-9.653774e+00	-1.336605e+02
1.550000e-06	-1.318555e-06	-1.946008e-09	-9.338625e+00	-1.327189e+02
1.560000e-06	-1.273964e-06	-1.932127e-09	-9.022806e+00	-1.317556e+02
1.570000e-06	-1.229234e-06	-1.919405e-09	-8.706010e+00	-1.307710e+02
1.580000e-06	-1.184413e-06	-1.905677e-09	-8.388571e+00	-1.297654e+02
1.590000e-06	-1.139520e-06	-1.890218e-09	-8.070617e+00	-1.287390e+02
1.600000e-06	-1.094529e-06	-1.874917e-09	-7.751968e+00	-1.276918e+02
1.610000e-06	-1.049513e-06	-1.860537e-09	-7.433143e+00	-1.266239e+02
1.620000e-06	-1.004462e-06	-1.846513e-09	-7.114072e+00	-1.255350e+02
1.630000e-06	-9.592258e-07	-1.829966e-09	-6.793687e+00	-1.244248e+02
1.640000e-06	-9.137473e-07	-1.812785e-09	-6.471586e+00	-1.232927e+02
1.650000e-06	-8.681701e-07	-1.795809e-09	-6.148788e+00	-1.221381e+02
1.660000e-06	-8.226134e-07	-1.777293e-09	-5.826133e+00	-1.209600e+02
1.670000e-06	-7.771272e-07	-1.757054e-09	-5.503979e+00	-1.197573e+02
1.680000e-06	-7.316109e-07	-1.736374e-09	-5.181611e+00	-1.185285e+02
1.690000e-06	-6.860287e-07	-1.717086e-09	-4.858776e+00	-1.172723e+02
1.700000e-06	-6.403150e-07	-1.700249e-09	-4.535011e+00	-1.159868e+02
1.710000e-06	-5.945577e-07	-1.682500e-09	-4.210936e+00	-1.146702e+02
1.720000e-06	-5.488406e-07	-1.661399e-09	-3.887146e+00	-1.133203e+02
1.730000e-06	-5.030381e-07	-1.640828e-09	-3.562752e+00	-1.119350e+02
1.740000e-06	-4.571777e-07	-1.620172e-09	-3.237946e+00	-1.105119e+02
1.750000e-06	-4.113009e-07	-1.596476e-09	-2.913026e+00	-1.090486e+02
1.760000e-06	-3.653992e-07	-1.572816e-09	-2.587928e+00	-1.075427e+02
1.770000e-06	-3.194639e-07	-1.551573e-09	-2.262593e+00	-1.059916e+02
1.780000e-06	-2.734416e-07	-1.530862e-09	-1.936642e+00	-1.043928e+02
1.790000e-06	-2.273965e-07	-1.508252e-09	-1.610528e+00	-1.027439e+02
1.800000e-06	-1.814353e-07	-1.482371e-09	-1.285010e+00	-1.010425e+02
1.810000e-06	-1.355575e-07	-1.456731e-09	-9.600817e-01	-9.928629e+01
1.820000e-06	-8.954517e-08	-1.430934e-09	-6.342009e-01	-9.747312e+01
1.830000e-06	-4.349190e-08	-1.401607e-09	-3.080300e-01	-9.560101e+01
1.840000e-06	2.450778e-09	-1.369159e-09	1.735755e-02	-9.366820e+01
1.850000e-06	4.842384e-08	-1.338277e-09	3.429603e-01	-9.167312e+01
1.860000e-06	9.441615e-08	-1.310634e-09	6.686994e-01	-8.961445e+01
1.870000e-06	1.403740e-07	-1.282953e-09	9.941945e-01	-8.749114e+01
1.880000e-06	1.863521e-07	-1.249370e-09	1.319833e+00	-8.530240e+01
1.890000e-06	2.323414e-07	-1.213431e-09	1.645550e+00	-8.304774e+01
1.900000e-06	2.782372e-07	-1.180611e-09	1.970606e+00	-8.072695e+01
1.910000e-06	3.241018e-07	-1.145130e-09	2.295441e+00	-7.834013e+01
1.920000e-06	3.699875e-07	-1.105007e-09	2.620425e+00	-7.588764e+01
1.930000e-06	4.158705e-07	-1.066399e-09	2.945390e+00	-7.337014e+01
1.940000e-06	4.617422e-07	-1.029775e-09	3.270274e+00	-7.078857e+01
1.950000e-06	5.075835e-07	-9.913919e-10	3.594944e+00	-6.814411e+01
1.960000e-06	5.533664e-07	-9.495745e-10	3.919200e+00	-6.543818e+01
1.970000e-06	5.990785e-07	-9.067668e-10	4.242955e+00	-6.267244e+01
1.980000e-06	6.447208e-07	-8.636798e-10	4.566215e+00	-5.984872e+01
1.990000e-06	6.903226e-07	-8.209444e-10	4.889188e+00	-5.696903e+01
2.000000e-06	7.359047e-07	-7.777108e-10	5.212022e+00	-5.403555e+01
2.010000e-06	7.814286e-07	-7.329749e-10	5.534443e+00	-5.105056e+01
2.020000e-06	8.269282e-07	-6.870504e-10	5.856693e+00	-4.801645e+01
2.030000e-06	8.724076e-07	-6.383095e-10	6.178800e+00	-4.493568e+01
2.040000e-06	9.178121e-07	-5.883562e-10	6.500376e+00	-4.181077e+01
2.050000e-06	9.631178e-07	-5.421437e-10	6.821252e+00	-3.864426e+01
2.060000e-06	1.008347e-06	-4.991820e-10	7.141586e+00	-3.543871e+01
2.070000e-06	1.053489e-06	-4.541633e-10	7.461303e+00	-3.219667e+01
2.080000e-06	1.098541e-06	-4.058412e-10	7.780379e+00	-2.892068e+01
2.090000e-06	1.143505e-06	-3.575195e-10	8.098837e+00	-2.561326e+01
2.100000e-06	1.188354e-06	-3.114614e-10	8.416477e+00	-2.227687e+01
2.110000e-06	1.233164e-06	-2.615341e-10	8.733842e+00	-1.891397e+01
2.120000e-06	1.277858e-06	-2.070387e-10	9.050391e+00	-1.552696e+01
2.130000e-06	1.322397e-06	-1.529852e-10	9.365835e+00	-1.211820e+01
2.140000e-06	1.366818e-06	-1.006129e-10	9.680444e+00	-8.690029e+00
2.150000e-06	1.411165e-06	-4.781070e-11	9.994530e+00	-5.244771e+00
2.160000e-06	1.455466e-06	3.921158e-12	1.030829e+01	-1.784730e+00
2.170000e-06	1.499704e-06	5.356225e-11	1.062161e+01	1.687788e+00
2.180000e-06	1.543848e-06	1.017812e-10	1.093425e+01	5.170463e+00
2.190000e-06	1.587922e-06	1.500929e-10	1.124641e+01	8.660949e+00
2.200000e-06	1.631976e-06	2.016961e-10	1.155842e+01	1.215686e+01
2.210000e-06	1.675951e-06	2.571351e-10	1.186987e+01	1.565575e+01
2.220000e-06	1.719867e-06	3.130701e-10	1.218090e+01	1.915512e+01
2.230000e-06	1.763760e-06	3.644998e-10	1.249178e+01	2.265239e+01
2.240000e-06	1.807568e-06	4.124534e-10	1.280204e+01	2.614488e+01
2.250000e-06	1.851251e-06	4.614674e-10	1.311143e+01	2.962984e+01
2.260000e-06	1.894816e-06	5.119562e-10	1.341997e+01	3.310442e+01
2.270000e-06	1.938237e-06	5.612636e-10	1.372750e+01	3.656566e+01
2.280000e-06	1.981535e-06	6.076337e-10	1.403416e+01	4.001053e+01
2.290000e-06	2.024769e-06	6.551892e-10	1.434037e+01	4.343589e+01
2.300000e-06	2.067859e-06	7.059476e-10	1.464555e+01	4.683854e+01
2.310000e-06	2.110615e-06	7.554799e-10	1.494836e+01	5.021522e+01
2.320000e-06	2.153069e-06	8.014616e-10	1.524904e+01	5.356261e+01
2.330000e-06	2.195310e-06	8.464940e-10	1.554821e+01	5.687736e+01
2.340000e-06	2.237223e-06	8.930498e-10	1.584506e+01	6.015614e+01
2.350000e-06	2.278895e-06	9.413132e-10	1.614020e+01	6.339562e+01
2.360000e-06	2.320208e-06	9.884570e-10	1.643280e+01	6.659252e+01
2.370000e-06	2.361104e-06	1.031966e-09	1.672244e+01	6.974365e+01
2.380000e-06	2.401822e-06	1.073788e-09	1.701083e+01	7.284589e+01
2.390000e-06	2.442370e-06	1.116307e-09	1.729801e+01	7.589629e+01
2.400000e-06	2.482811e-06	1.158506e-09	1.758443e+01	7.889205e+01
2.410000e-06	2.523119e-06	1.198819e-09	1.786991e+01	8.183055e+01
2.420000e-06	2.563274e-06	1.239340e-09	1.815431e+01	8.470940e+01
2.430000e-06	2.603323e-06	1.280409e-09	1.843795e+01	8.752643e+01
2.440000e-06	2.643231e-06	1.324254e-09	1.872060e+01	9.027976e+01
2.450000e-06	2.682980e-06	1.366829e-09	1.900212e+01	9.296777e+01
2.460000e-06	2.722640e-06	1.404613e-09	1.928301e+01	9.558913e+01
2.470000e-06	2.762244e-06	1.439309e-09	1.956351e+01	9.814282e+01
2.480000e-06	2.801669e-06	1.470762e-09	1.984274e+01	1.006281e+02
2.490000e-06	2.840847e-06	1.501980e-09	2.012021e+01	1.030447e+02
2.500000e-06	2.879761e-06	1.536608e-09	2.039581e+01	1.053924e+02
2.510000e-06	2.918412e-06	1.571963e-09	2.066956e+01	1.076714e+02
2.520000e-06	2.956912e-06	1.604564e-09	2.094223e+01	1.098823e+02
2.530000e-06	2.995202e-06	1.634201e-09	2.121342e+01	1.120258e+02
2.540000e-06	3.033223e-06	1.662517e-09	2.148270e+01	1.141029e+02
2.550000e-06	3.071099e-06	1.691767e-09	2.175096e+01	1.161149e+02
2.560000e-06	3.108817e-06	1.720133e-09	2.201810e+01	1.180633e+02
2.570000e-06	3.146354e-06	1.746658e-09	2.228395e+01	1.199497e+02
2.580000e-06	3.183653e-06	1.774125e-09	2.254812e+01	1.217759e+02
2.590000e-06	3.220710e-06	1.802016e-09	2.281058e+01	1.235437e+02
2.600000e-06	3.257578e-06	1.826788e-09	2.307170e+01	1.252551e+02
2.610000e-06	3.294229e-06	1.849166e-09	2.333127e+01	1.269122e+02
2.620000e-06	3.330633e-06	1.872897e-09	2.358911e+01	1.285170e+02
2.630000e-06	3.366819e-06	1.900001e-09	2.384539e+01	1.300715e+02
2.640000e-06	3.402871e-06	1.925764e-09	2.410073e+01	1.315777e+02
2.650000e-06	3.438825e-06	1.945776e-09	2.435537e+01	1.330375e+02
2.660000e-06	3.474648e-06	1.965011e-09	2.460909e+01	1.344527e+02
2.670000e-06	3.510350e-06	1.987213e-09	2.486194e+01	1.358249e+02
2.680000e-06	3.545824e-06	2.008847e-09	2.511319e+01	1.371559e+02
2.690000e-06	3.580895e-06	2.026928e-09	2.536157e+01	1.384470e+02
2.700000e-06	3.615552e-06	2.042558e-09	2.560703e+01	1.396994e+02
2.710000e-06	3.649826e-06	2.060422e-09	2.584978e+01	1.409145e+02
2.720000e-06	3.683671e-06	2.081871e-09	2.608948e+01	1.420930e+02
2.730000e-06	3.717044e-06	2.102373e-09	2.632585e+01	1.432359e+02
2.740000e-06	3.750061e-06	2.118427e-09	2.655969e+01	1.443438e+02
2.750000e-06	3.782704e-06	2.134944e-09	2.679088e+01	1.454173e+02
2.760000e-06	3.815016e-06	2.153453e-09	2.701973e+01	1.464569e+02
2.770000e-06	3.847165e-06	2.168773e-09	2.724742e+01	1.474629e+02
2.780000e-06	3.879118e-06	2.180429e-09	2.747373e+01	1.484356e+02
2.790000e-06	3.910945e-06	2.194657e-09	2.769914e+01	1.493751e+02
2.800000e-06	3.942629e-06	2.212609e-09	2.792355e+01	1.502818e+02
2.810000e-06	3.974025e-06	2.227000e-09	2.814591e+01	1.511557e+02
2.820000e-06	4.005150e-06	2.235299e-09	2.836635e+01	1.519971e+02
2.830000e-06	4.036033e-06	2.242865e-09	2.858508e+01	1.528060e+02
2.840000e-06	4.066636e-06	2.252027e-09	2.880182e+01	1.535829e+02
2.850000e-06	4.096924e-06	2.260025e-09	2.901634e+01	1.543279e+02
2.860000e-06	4.126940e-06	2.269487e-09	2.922893e+01	1.550415e+02
2.870000e-06	4.156697e-06	2.282138e-09	2.943967e+01	1.557243e+02
2.880000e-06	4.186159e-06	2.296601e-09	2.964834e+01	1.563767e+02
2.890000e-06	4.215402e-06	2.307091e-09	2.985545e+01	1.569994e+02
2.900000e-06	4.244279e-06	2.312050e-09	3.005998e+01	1.575935e+02
