# Temperatura_=_-1.6
# Concentracion g/m^3_=_4090.0
# C_Vs_to_Am_M_A/Vsm_=_65563218390.804596
# pendiente_HvsI_1/m_=_3716.3
# ordenada_HvsI_A/m_=_1297.0
# frecuencia_Hz_=_135083.28820772836

Tiempo_(s)	Campo_(V.s)	Magnetizacion_(V.s)	Campo_(kA/m)	Magnetizacion_(A/m)
0.000000e+00	-5.412335e-06	-2.528697e-09	-3.838648e+01	-1.626729e+02
1.000000e-08	-5.412310e-06	-2.523961e-09	-3.838629e+01	-1.626697e+02
2.000000e-08	-5.412131e-06	-2.519733e-09	-3.838502e+01	-1.626659e+02
3.000000e-08	-5.411592e-06	-2.519461e-09	-3.838120e+01	-1.626620e+02
4.000000e-08	-5.410558e-06	-2.519340e-09	-3.837387e+01	-1.626584e+02
5.000000e-08	-5.409053e-06	-2.516615e-09	-3.836319e+01	-1.626558e+02
6.000000e-08	-5.406967e-06	-2.516620e-09	-3.834840e+01	-1.626549e+02
7.000000e-08	-5.404215e-06	-2.528717e-09	-3.832888e+01	-1.626561e+02
8.000000e-08	-5.400874e-06	-2.543883e-09	-3.830518e+01	-1.626600e+02
9.000000e-08	-5.396991e-06	-2.528856e-09	-3.827765e+01	-1.626674e+02
1.000000e-07	-5.392732e-06	-2.500695e-09	-3.824744e+01	-1.626786e+02
1.100000e-07	-5.388379e-06	-2.525968e-09	-3.821657e+01	-1.626942e+02
1.200000e-07	-5.383914e-06	-2.531916e-09	-3.818490e+01	-1.627147e+02
1.300000e-07	-5.379097e-06	-2.496941e-09	-3.815074e+01	-1.627405e+02
1.400000e-07	-5.373740e-06	-2.478665e-09	-3.811274e+01	-1.627718e+02
1.500000e-07	-5.368016e-06	-2.513474e-09	-3.807214e+01	-1.628089e+02
1.600000e-07	-5.362041e-06	-2.528277e-09	-3.802977e+01	-1.628520e+02
1.700000e-07	-5.355571e-06	-2.461874e-09	-3.798388e+01	-1.629010e+02
1.800000e-07	-5.348619e-06	-2.469120e-09	-3.793457e+01	-1.629560e+02
1.900000e-07	-5.341376e-06	-2.505649e-09	-3.788320e+01	-1.630167e+02
2.000000e-07	-5.333985e-06	-2.501693e-09	-3.783078e+01	-1.630829e+02
2.100000e-07	-5.326269e-06	-2.431450e-09	-3.777606e+01	-1.631543e+02
2.200000e-07	-5.318221e-06	-2.451248e-09	-3.771898e+01	-1.632302e+02
2.300000e-07	-5.309948e-06	-2.490471e-09	-3.766030e+01	-1.633103e+02
2.400000e-07	-5.301277e-06	-2.477097e-09	-3.759880e+01	-1.633938e+02
2.500000e-07	-5.291937e-06	-2.450104e-09	-3.753256e+01	-1.634800e+02
2.600000e-07	-5.281873e-06	-2.496464e-09	-3.746118e+01	-1.635682e+02
2.700000e-07	-5.271208e-06	-2.532850e-09	-3.738554e+01	-1.636573e+02
2.800000e-07	-5.260128e-06	-2.479386e-09	-3.730696e+01	-1.637466e+02
2.900000e-07	-5.248653e-06	-2.462107e-09	-3.722557e+01	-1.638351e+02
3.000000e-07	-5.236743e-06	-2.518654e-09	-3.714110e+01	-1.639217e+02
3.100000e-07	-5.224447e-06	-2.520311e-09	-3.705390e+01	-1.640055e+02
3.200000e-07	-5.211710e-06	-2.467752e-09	-3.696356e+01	-1.640856e+02
3.300000e-07	-5.198591e-06	-2.500005e-09	-3.687051e+01	-1.641608e+02
3.400000e-07	-5.185102e-06	-2.534973e-09	-3.677485e+01	-1.642303e+02
3.500000e-07	-5.171205e-06	-2.509230e-09	-3.667628e+01	-1.642932e+02
3.600000e-07	-5.156964e-06	-2.495577e-09	-3.657528e+01	-1.643485e+02
3.700000e-07	-5.142312e-06	-2.530469e-09	-3.647136e+01	-1.643955e+02
3.800000e-07	-5.127159e-06	-2.502973e-09	-3.636389e+01	-1.644334e+02
3.900000e-07	-5.111520e-06	-2.488103e-09	-3.625297e+01	-1.644615e+02
4.000000e-07	-5.095280e-06	-2.513113e-09	-3.613779e+01	-1.644793e+02
4.100000e-07	-5.078565e-06	-2.512029e-09	-3.601924e+01	-1.644863e+02
4.200000e-07	-5.061610e-06	-2.469818e-09	-3.589899e+01	-1.644821e+02
4.300000e-07	-5.044319e-06	-2.494806e-09	-3.577635e+01	-1.644664e+02
4.400000e-07	-5.026723e-06	-2.513828e-09	-3.565155e+01	-1.644391e+02
4.500000e-07	-5.008858e-06	-2.482675e-09	-3.552485e+01	-1.644000e+02
4.600000e-07	-4.990522e-06	-2.466715e-09	-3.539480e+01	-1.643492e+02
4.700000e-07	-4.971721e-06	-2.497652e-09	-3.526146e+01	-1.642868e+02
4.800000e-07	-4.952567e-06	-2.493995e-09	-3.512561e+01	-1.642131e+02
4.900000e-07	-4.933080e-06	-2.483799e-09	-3.498740e+01	-1.641284e+02
5.000000e-07	-4.913357e-06	-2.488851e-09	-3.484752e+01	-1.640330e+02
5.100000e-07	-4.893446e-06	-2.484609e-09	-3.470630e+01	-1.639277e+02
5.200000e-07	-4.873272e-06	-2.475522e-09	-3.456322e+01	-1.638128e+02
5.300000e-07	-4.852886e-06	-2.484994e-09	-3.441863e+01	-1.636891e+02
5.400000e-07	-4.832191e-06	-2.478289e-09	-3.427186e+01	-1.635573e+02
5.500000e-07	-4.811032e-06	-2.462234e-09	-3.412179e+01	-1.634182e+02
5.600000e-07	-4.789452e-06	-2.472609e-09	-3.396873e+01	-1.632725e+02
5.700000e-07	-4.767653e-06	-2.481425e-09	-3.381413e+01	-1.631213e+02
5.800000e-07	-4.745652e-06	-2.468029e-09	-3.365809e+01	-1.629652e+02
5.900000e-07	-4.723296e-06	-2.457039e-09	-3.349953e+01	-1.628052e+02
6.000000e-07	-4.700606e-06	-2.459806e-09	-3.333860e+01	-1.626421e+02
6.100000e-07	-4.677543e-06	-2.458042e-09	-3.317503e+01	-1.624769e+02
6.200000e-07	-4.654137e-06	-2.454705e-09	-3.300902e+01	-1.623103e+02
6.300000e-07	-4.630525e-06	-2.445155e-09	-3.284156e+01	-1.621431e+02
6.400000e-07	-4.606698e-06	-2.441556e-09	-3.267257e+01	-1.619761e+02
6.500000e-07	-4.582710e-06	-2.442141e-09	-3.250243e+01	-1.618099e+02
6.600000e-07	-4.558500e-06	-2.443592e-09	-3.233073e+01	-1.616452e+02
6.700000e-07	-4.533840e-06	-2.432126e-09	-3.215583e+01	-1.614826e+02
6.800000e-07	-4.508721e-06	-2.427591e-09	-3.197767e+01	-1.613223e+02
6.900000e-07	-4.483130e-06	-2.426975e-09	-3.179617e+01	-1.611649e+02
7.000000e-07	-4.456978e-06	-2.426342e-09	-3.161069e+01	-1.610106e+02
7.100000e-07	-4.430331e-06	-2.415721e-09	-3.142170e+01	-1.608596e+02
7.200000e-07	-4.403215e-06	-2.409269e-09	-3.122938e+01	-1.607119e+02
7.300000e-07	-4.375741e-06	-2.408531e-09	-3.103453e+01	-1.605674e+02
7.400000e-07	-4.348047e-06	-2.414384e-09	-3.083811e+01	-1.604261e+02
7.500000e-07	-4.320174e-06	-2.413099e-09	-3.064042e+01	-1.602876e+02
7.600000e-07	-4.292117e-06	-2.411181e-09	-3.044143e+01	-1.601517e+02
7.700000e-07	-4.263829e-06	-2.410896e-09	-3.024080e+01	-1.600179e+02
7.800000e-07	-4.235312e-06	-2.413216e-09	-3.003855e+01	-1.598857e+02
7.900000e-07	-4.206485e-06	-2.404368e-09	-2.983410e+01	-1.597544e+02
8.000000e-07	-4.177320e-06	-2.391836e-09	-2.962724e+01	-1.596234e+02
8.100000e-07	-4.147896e-06	-2.381887e-09	-2.941856e+01	-1.594920e+02
8.200000e-07	-4.118116e-06	-2.383309e-09	-2.920735e+01	-1.593593e+02
8.300000e-07	-4.088009e-06	-2.388362e-09	-2.899381e+01	-1.592246e+02
8.400000e-07	-4.057736e-06	-2.391684e-09	-2.877911e+01	-1.590870e+02
8.500000e-07	-4.027147e-06	-2.391827e-09	-2.856215e+01	-1.589457e+02
8.600000e-07	-3.996222e-06	-2.390691e-09	-2.834282e+01	-1.587999e+02
8.700000e-07	-3.965069e-06	-2.385304e-09	-2.812187e+01	-1.586487e+02
8.800000e-07	-3.933729e-06	-2.371073e-09	-2.789960e+01	-1.584913e+02
8.900000e-07	-3.902163e-06	-2.357006e-09	-2.767572e+01	-1.583271e+02
9.000000e-07	-3.870341e-06	-2.350276e-09	-2.745003e+01	-1.581554e+02
9.100000e-07	-3.838327e-06	-2.353017e-09	-2.722297e+01	-1.579757e+02
9.200000e-07	-3.806089e-06	-2.359182e-09	-2.699432e+01	-1.577873e+02
9.300000e-07	-3.773729e-06	-2.364975e-09	-2.676481e+01	-1.575900e+02
9.400000e-07	-3.741149e-06	-2.367984e-09	-2.653375e+01	-1.573833e+02
9.500000e-07	-3.708165e-06	-2.365971e-09	-2.629980e+01	-1.571673e+02
9.600000e-07	-3.674717e-06	-2.355063e-09	-2.606258e+01	-1.569417e+02
9.700000e-07	-3.640754e-06	-2.344848e-09	-2.582170e+01	-1.567067e+02
9.800000e-07	-3.606370e-06	-2.337355e-09	-2.557784e+01	-1.564624e+02
9.900000e-07	-3.571585e-06	-2.336846e-09	-2.533112e+01	-1.562091e+02
1.000000e-06	-3.536466e-06	-2.339312e-09	-2.508205e+01	-1.559471e+02
1.010000e-06	-3.501068e-06	-2.346272e-09	-2.483099e+01	-1.556771e+02
1.020000e-06	-3.465451e-06	-2.347624e-09	-2.457838e+01	-1.553995e+02
1.030000e-06	-3.429720e-06	-2.341724e-09	-2.432496e+01	-1.551150e+02
1.040000e-06	-3.393856e-06	-2.329342e-09	-2.407060e+01	-1.548243e+02
1.050000e-06	-3.357807e-06	-2.316652e-09	-2.381493e+01	-1.545283e+02
1.060000e-06	-3.321573e-06	-2.305311e-09	-2.355794e+01	-1.542277e+02
1.070000e-06	-3.285228e-06	-2.297514e-09	-2.330016e+01	-1.539234e+02
1.080000e-06	-3.248644e-06	-2.290386e-09	-2.304070e+01	-1.536162e+02
1.090000e-06	-3.211812e-06	-2.289905e-09	-2.277947e+01	-1.533069e+02
1.100000e-06	-3.174824e-06	-2.293158e-09	-2.251714e+01	-1.529963e+02
1.110000e-06	-3.137556e-06	-2.293623e-09	-2.225282e+01	-1.526851e+02
1.120000e-06	-3.099974e-06	-2.287085e-09	-2.198627e+01	-1.523739e+02
1.130000e-06	-3.062164e-06	-2.276480e-09	-2.171811e+01	-1.520633e+02
1.140000e-06	-3.024148e-06	-2.264794e-09	-2.144848e+01	-1.517538e+02
1.150000e-06	-2.985935e-06	-2.256776e-09	-2.117746e+01	-1.514456e+02
1.160000e-06	-2.947516e-06	-2.251409e-09	-2.090498e+01	-1.511390e+02
1.170000e-06	-2.908886e-06	-2.246136e-09	-2.063100e+01	-1.508340e+02
1.180000e-06	-2.870087e-06	-2.241332e-09	-2.035582e+01	-1.505306e+02
1.190000e-06	-2.831026e-06	-2.237786e-09	-2.007878e+01	-1.502285e+02
1.200000e-06	-2.791810e-06	-2.234778e-09	-1.980065e+01	-1.499274e+02
1.210000e-06	-2.752415e-06	-2.228067e-09	-1.952124e+01	-1.496267e+02
1.220000e-06	-2.712766e-06	-2.218644e-09	-1.924003e+01	-1.493257e+02
1.230000e-06	-2.673015e-06	-2.210651e-09	-1.895810e+01	-1.490238e+02
1.240000e-06	-2.633165e-06	-2.205454e-09	-1.867547e+01	-1.487199e+02
1.250000e-06	-2.593209e-06	-2.197843e-09	-1.839209e+01	-1.484131e+02
1.260000e-06	-2.553138e-06	-2.189995e-09	-1.810789e+01	-1.481022e+02
1.270000e-06	-2.513009e-06	-2.182569e-09	-1.782328e+01	-1.477862e+02
1.280000e-06	-2.472772e-06	-2.178118e-09	-1.753790e+01	-1.474637e+02
1.290000e-06	-2.432375e-06	-2.171949e-09	-1.725139e+01	-1.471335e+02
1.300000e-06	-2.391741e-06	-2.166435e-09	-1.696320e+01	-1.467943e+02
1.310000e-06	-2.350844e-06	-2.164217e-09	-1.667314e+01	-1.464448e+02
1.320000e-06	-2.309715e-06	-2.161190e-09	-1.638143e+01	-1.460839e+02
1.330000e-06	-2.268282e-06	-2.151785e-09	-1.608757e+01	-1.457103e+02
1.340000e-06	-2.226634e-06	-2.139168e-09	-1.579219e+01	-1.453230e+02
1.350000e-06	-2.184770e-06	-2.125969e-09	-1.549528e+01	-1.449208e+02
1.360000e-06	-2.142647e-06	-2.115016e-09	-1.519652e+01	-1.445029e+02
1.370000e-06	-2.100316e-06	-2.105903e-09	-1.489629e+01	-1.440685e+02
1.380000e-06	-2.057705e-06	-2.097166e-09	-1.459408e+01	-1.436169e+02
1.390000e-06	-2.014865e-06	-2.090458e-09	-1.429024e+01	-1.431475e+02
1.400000e-06	-1.971899e-06	-2.087348e-09	-1.398551e+01	-1.426600e+02
1.410000e-06	-1.928747e-06	-2.082881e-09	-1.367945e+01	-1.421540e+02
1.420000e-06	-1.885384e-06	-2.071994e-09	-1.337191e+01	-1.416295e+02
1.430000e-06	-1.841825e-06	-2.055329e-09	-1.306297e+01	-1.410865e+02
1.440000e-06	-1.798153e-06	-2.040376e-09	-1.275323e+01	-1.405251e+02
1.450000e-06	-1.754428e-06	-2.031346e-09	-1.244311e+01	-1.399456e+02
1.460000e-06	-1.710605e-06	-2.024827e-09	-1.213230e+01	-1.393483e+02
1.470000e-06	-1.666721e-06	-2.014464e-09	-1.182106e+01	-1.387338e+02
1.480000e-06	-1.622750e-06	-2.004152e-09	-1.150920e+01	-1.381024e+02
1.490000e-06	-1.578667e-06	-1.998391e-09	-1.119654e+01	-1.374547e+02
1.500000e-06	-1.534518e-06	-1.989548e-09	-1.088343e+01	-1.367913e+02
1.510000e-06	-1.490333e-06	-1.972160e-09	-1.057004e+01	-1.361127e+02
1.520000e-06	-1.446096e-06	-1.954685e-09	-1.025630e+01	-1.354196e+02
1.530000e-06	-1.401742e-06	-1.946181e-09	-9.941725e+00	-1.347123e+02
1.540000e-06	-1.357305e-06	-1.940214e-09	-9.626555e+00	-1.339913e+02
1.550000e-06	-1.312837e-06	-1.930527e-09	-9.311168e+00	-1.332568e+02
1.560000e-06	-1.268316e-06	-1.919367e-09	-8.995413e+00	-1.325091e+02
1.570000e-06	-1.223604e-06	-1.910435e-09	-8.678298e+00	-1.317483e+02
1.580000e-06	-1.178749e-06	-1.901379e-09	-8.360164e+00	-1.309742e+02
1.590000e-06	-1.133845e-06	-1.889269e-09	-8.041687e+00	-1.301865e+02
1.600000e-06	-1.088871e-06	-1.873718e-09	-7.722715e+00	-1.293848e+02
1.610000e-06	-1.043831e-06	-1.860875e-09	-7.403275e+00	-1.285685e+02
1.620000e-06	-9.987535e-07	-1.852574e-09	-7.083564e+00	-1.277367e+02
1.630000e-06	-9.535917e-07	-1.842639e-09	-6.763258e+00	-1.268885e+02
1.640000e-06	-9.082230e-07	-1.827163e-09	-6.441485e+00	-1.260226e+02
1.650000e-06	-8.628149e-07	-1.813356e-09	-6.119433e+00	-1.251377e+02
1.660000e-06	-8.174636e-07	-1.802601e-09	-5.797783e+00	-1.242322e+02
1.670000e-06	-7.720820e-07	-1.788786e-09	-5.475918e+00	-1.233044e+02
1.680000e-06	-7.265598e-07	-1.769158e-09	-5.153056e+00	-1.223525e+02
1.690000e-06	-6.809108e-07	-1.751144e-09	-4.829295e+00	-1.213745e+02
1.700000e-06	-6.353396e-07	-1.739720e-09	-4.506086e+00	-1.203683e+02
1.710000e-06	-5.897630e-07	-1.728661e-09	-4.182838e+00	-1.193317e+02
1.720000e-06	-5.440986e-07	-1.711960e-09	-3.858968e+00	-1.182626e+02
1.730000e-06	-4.983918e-07	-1.692137e-09	-3.534797e+00	-1.171586e+02
1.740000e-06	-4.526577e-07	-1.674044e-09	-3.210432e+00	-1.160175e+02
1.750000e-06	-4.069034e-07	-1.656144e-09	-2.885924e+00	-1.148371e+02
1.760000e-06	-3.610692e-07	-1.635046e-09	-2.560849e+00	-1.136149e+02
1.770000e-06	-3.151891e-07	-1.613747e-09	-2.235449e+00	-1.123490e+02
1.780000e-06	-2.692831e-07	-1.598906e-09	-1.909865e+00	-1.110370e+02
1.790000e-06	-2.232187e-07	-1.585538e-09	-1.583157e+00	-1.096770e+02
1.800000e-06	-1.772356e-07	-1.564829e-09	-1.257026e+00	-1.082670e+02
1.810000e-06	-1.314374e-07	-1.539631e-09	-9.322072e-01	-1.068051e+02
1.820000e-06	-8.559967e-08	-1.516216e-09	-6.071075e-01	-1.052895e+02
1.830000e-06	-3.970621e-08	-1.492886e-09	-2.816125e-01	-1.037187e+02
1.840000e-06	6.167081e-09	-1.466150e-09	4.373944e-02	-1.020912e+02
1.850000e-06	5.203450e-08	-1.437908e-09	3.690498e-01	-1.004055e+02
1.860000e-06	9.796845e-08	-1.411783e-09	6.948319e-01	-9.866034e+01
1.870000e-06	1.438995e-07	-1.385854e-09	1.020593e+00	-9.685466e+01
1.880000e-06	1.898186e-07	-1.356753e-09	1.346270e+00	-9.498739e+01
1.890000e-06	2.357481e-07	-1.326642e-09	1.672021e+00	-9.305759e+01
1.900000e-06	2.815785e-07	-1.298069e-09	1.997069e+00	-9.106444e+01
1.910000e-06	3.273084e-07	-1.267919e-09	2.321404e+00	-8.900718e+01
1.920000e-06	3.730558e-07	-1.233670e-09	2.645863e+00	-8.688514e+01
1.930000e-06	4.188660e-07	-1.197764e-09	2.970767e+00	-8.469773e+01
1.940000e-06	4.647032e-07	-1.165448e-09	3.295864e+00	-8.244440e+01
1.950000e-06	5.104641e-07	-1.136278e-09	3.620418e+00	-8.012467e+01
1.960000e-06	5.562006e-07	-1.102206e-09	3.944800e+00	-7.773812e+01
1.970000e-06	6.019052e-07	-1.063400e-09	4.268956e+00	-7.528435e+01
1.980000e-06	6.475235e-07	-1.025862e-09	4.592499e+00	-7.276305e+01
1.990000e-06	6.931474e-07	-9.890383e-10	4.916082e+00	-7.017392e+01
2.000000e-06	7.386727e-07	-9.511085e-10	5.238966e+00	-6.751674e+01
2.010000e-06	7.840392e-07	-9.096527e-10	5.560724e+00	-6.479136e+01
2.020000e-06	8.293679e-07	-8.675451e-10	5.882213e+00	-6.199770e+01
2.030000e-06	8.746765e-07	-8.269312e-10	6.203560e+00	-5.913577e+01
2.040000e-06	9.199409e-07	-7.842830e-10	6.524593e+00	-5.620571e+01
2.050000e-06	9.651460e-07	-7.380283e-10	6.845206e+00	-5.320776e+01
2.060000e-06	1.010325e-06	-6.917539e-10	7.165635e+00	-5.014233e+01
2.070000e-06	1.055406e-06	-6.488266e-10	7.485370e+00	-4.701002e+01
2.080000e-06	1.100384e-06	-6.057109e-10	7.804372e+00	-4.381160e+01
2.090000e-06	1.145308e-06	-5.604964e-10	8.122985e+00	-4.054810e+01
2.100000e-06	1.190149e-06	-5.142796e-10	8.441017e+00	-3.722078e+01
2.110000e-06	1.234912e-06	-4.662911e-10	8.758496e+00	-3.383119e+01
2.120000e-06	1.279546e-06	-4.135193e-10	9.075060e+00	-3.038118e+01
2.130000e-06	1.323988e-06	-3.561728e-10	9.390258e+00	-2.687291e+01
2.140000e-06	1.368311e-06	-2.995271e-10	9.704619e+00	-2.330891e+01
2.150000e-06	1.412543e-06	-2.473300e-10	1.001833e+01	-1.969205e+01
2.160000e-06	1.456720e-06	-1.974863e-10	1.033165e+01	-1.602557e+01
2.170000e-06	1.500907e-06	-1.434920e-10	1.064504e+01	-1.231310e+01
2.180000e-06	1.545030e-06	-8.528150e-11	1.095798e+01	-8.558614e+00
2.190000e-06	1.589046e-06	-2.975086e-11	1.127016e+01	-4.766505e+00
2.200000e-06	1.633002e-06	2.484519e-11	1.158191e+01	-9.415061e-01
2.210000e-06	1.676970e-06	8.397513e-11	1.189375e+01	2.911291e+00
2.220000e-06	1.720915e-06	1.459337e-10	1.220543e+01	6.786467e+00
2.230000e-06	1.764774e-06	2.062279e-10	1.251649e+01	1.067830e+01
2.240000e-06	1.808553e-06	2.607487e-10	1.282699e+01	1.458079e+01
2.250000e-06	1.852259e-06	3.169929e-10	1.313697e+01	1.848772e+01
2.260000e-06	1.895870e-06	3.758957e-10	1.344627e+01	2.239267e+01
2.270000e-06	1.939320e-06	4.325512e-10	1.375444e+01	2.628908e+01
2.280000e-06	1.982549e-06	4.844424e-10	1.406104e+01	3.017032e+01
2.290000e-06	2.025459e-06	5.356817e-10	1.436538e+01	3.402970e+01
2.300000e-06	2.068236e-06	5.905021e-10	1.466877e+01	3.786057e+01
2.310000e-06	2.110897e-06	6.457922e-10	1.497133e+01	4.165634e+01
2.320000e-06	2.153145e-06	7.022969e-10	1.527098e+01	4.541059e+01
2.330000e-06	2.195072e-06	7.611141e-10	1.556834e+01	4.911708e+01
2.340000e-06	2.236807e-06	8.210370e-10	1.586434e+01	5.276984e+01
2.350000e-06	2.278210e-06	8.784121e-10	1.615799e+01	5.636318e+01
2.360000e-06	2.319262e-06	9.271157e-10	1.644915e+01	5.989182e+01
2.370000e-06	2.360173e-06	9.674813e-10	1.673930e+01	6.335086e+01
2.380000e-06	2.400841e-06	1.008096e-09	1.702774e+01	6.673585e+01
2.390000e-06	2.441203e-06	1.051536e-09	1.731400e+01	7.004286e+01
2.400000e-06	2.481350e-06	1.095825e-09	1.759874e+01	7.326845e+01
2.410000e-06	2.521397e-06	1.141518e-09	1.788277e+01	7.640974e+01
2.420000e-06	2.561465e-06	1.192675e-09	1.816695e+01	7.946441e+01
2.430000e-06	2.601474e-06	1.247631e-09	1.845070e+01	8.243071e+01
2.440000e-06	2.641402e-06	1.297401e-09	1.873389e+01	8.530746e+01
2.450000e-06	2.681203e-06	1.331118e-09	1.901618e+01	8.809403e+01
2.460000e-06	2.720823e-06	1.357322e-09	1.929718e+01	9.079035e+01
2.470000e-06	2.760292e-06	1.384090e-09	1.957711e+01	9.339689e+01
2.480000e-06	2.799694e-06	1.414108e-09	1.985656e+01	9.591459e+01
2.490000e-06	2.838889e-06	1.448094e-09	2.013455e+01	9.834487e+01
2.500000e-06	2.877753e-06	1.486590e-09	2.041019e+01	1.006896e+02
2.510000e-06	2.916416e-06	1.530700e-09	2.068440e+01	1.029509e+02
2.520000e-06	2.954917e-06	1.572950e-09	2.095747e+01	1.051314e+02
2.530000e-06	2.993163e-06	1.605758e-09	2.122873e+01	1.072340e+02
2.540000e-06	3.031170e-06	1.627556e-09	2.149828e+01	1.092615e+02
2.550000e-06	3.069050e-06	1.646874e-09	2.176695e+01	1.112173e+02
2.560000e-06	3.106774e-06	1.666934e-09	2.203450e+01	1.131045e+02
2.570000e-06	3.144301e-06	1.689291e-09	2.230066e+01	1.149267e+02
2.580000e-06	3.181566e-06	1.716705e-09	2.256496e+01	1.166871e+02
2.590000e-06	3.218530e-06	1.750362e-09	2.282712e+01	1.183890e+02
2.600000e-06	3.255196e-06	1.783946e-09	2.308717e+01	1.200356e+02
2.610000e-06	3.291596e-06	1.809112e-09	2.334533e+01	1.216300e+02
2.620000e-06	3.327886e-06	1.828823e-09	2.360271e+01	1.231750e+02
2.630000e-06	3.364020e-06	1.850165e-09	2.385899e+01	1.246732e+02
2.640000e-06	3.399957e-06	1.871305e-09	2.411387e+01	1.261271e+02
2.650000e-06	3.435809e-06	1.886396e-09	2.436815e+01	1.275389e+02
2.660000e-06	3.471560e-06	1.899700e-09	2.462171e+01	1.289103e+02
2.670000e-06	3.507140e-06	1.918659e-09	2.487406e+01	1.302430e+02
2.680000e-06	3.542536e-06	1.941386e-09	2.512510e+01	1.315383e+02
2.690000e-06	3.577580e-06	1.961890e-09	2.537365e+01	1.327973e+02
2.700000e-06	3.612247e-06	1.978162e-09	2.561952e+01	1.340206e+02
2.710000e-06	3.646540e-06	1.994544e-09	2.586274e+01	1.352089e+02
2.720000e-06	3.680330e-06	2.014667e-09	2.610239e+01	1.363624e+02
2.730000e-06	3.713686e-06	2.031728e-09	2.633897e+01	1.374814e+02
2.740000e-06	3.746504e-06	2.042379e-09	2.657172e+01	1.385656e+02
2.750000e-06	3.778889e-06	2.052021e-09	2.680141e+01	1.396150e+02
2.760000e-06	3.811107e-06	2.067887e-09	2.702991e+01	1.406293e+02
2.770000e-06	3.843160e-06	2.087057e-09	2.725725e+01	1.416081e+02
2.780000e-06	3.875106e-06	2.101625e-09	2.748382e+01	1.425512e+02
2.790000e-06	3.906970e-06	2.114661e-09	2.770982e+01	1.434580e+02
2.800000e-06	3.938630e-06	2.130566e-09	2.793436e+01	1.443285e+02
2.810000e-06	3.970054e-06	2.144952e-09	2.815723e+01	1.451623e+02
2.820000e-06	4.001116e-06	2.152320e-09	2.837754e+01	1.459593e+02
2.830000e-06	4.031733e-06	2.155304e-09	2.859468e+01	1.467196e+02
2.840000e-06	4.062023e-06	2.161662e-09	2.880951e+01	1.474434e+02
2.850000e-06	4.092090e-06	2.173064e-09	2.902276e+01	1.481309e+02
2.860000e-06	4.121990e-06	2.187054e-09	2.923482e+01	1.487828e+02
2.870000e-06	4.151726e-06	2.199857e-09	2.944572e+01	1.493997e+02
2.880000e-06	4.181208e-06	2.210773e-09	2.965482e+01	1.499826e+02
2.890000e-06	4.210320e-06	2.220545e-09	2.986129e+01	1.505326e+02
2.900000e-06	4.239091e-06	2.226916e-09	3.006535e+01	1.510510e+02
