# Temperatura_=_-10.68
# Concentracion g/m^3_=_4090.0
# C_Vs_to_Am_M_A/Vsm_=_65563218390.804596
# pendiente_HvsI_1/m_=_3716.3
# ordenada_HvsI_A/m_=_1297.0
# frecuencia_Hz_=_135061.66677011535

Tiempo_(s)	Campo_(V.s)	Magnetizacion_(V.s)	Campo_(kA/m)	Magnetizacion_(A/m)
0.000000e+00	-5.384896e-06	-2.180514e-09	-3.839727e+01	-1.370984e+02
1.000000e-08	-5.384923e-06	-2.179393e-09	-3.839746e+01	-1.371749e+02
2.000000e-08	-5.384770e-06	-2.179614e-09	-3.839638e+01	-1.372538e+02
3.000000e-08	-5.384314e-06	-2.177505e-09	-3.839312e+01	-1.373354e+02
4.000000e-08	-5.383473e-06	-2.171547e-09	-3.838712e+01	-1.374202e+02
5.000000e-08	-5.382182e-06	-2.173238e-09	-3.837792e+01	-1.375082e+02
6.000000e-08	-5.380174e-06	-2.199852e-09	-3.836360e+01	-1.375996e+02
7.000000e-08	-5.377394e-06	-2.192756e-09	-3.834378e+01	-1.376944e+02
8.000000e-08	-5.374000e-06	-2.096449e-09	-3.831958e+01	-1.377924e+02
9.000000e-08	-5.370166e-06	-2.070665e-09	-3.829224e+01	-1.378932e+02
1.000000e-07	-5.365989e-06	-2.246415e-09	-3.826245e+01	-1.379964e+02
1.100000e-07	-5.361562e-06	-2.274082e-09	-3.823089e+01	-1.381015e+02
1.200000e-07	-5.356989e-06	-2.106721e-09	-3.819828e+01	-1.382078e+02
1.300000e-07	-5.352248e-06	-2.030429e-09	-3.816447e+01	-1.383144e+02
1.400000e-07	-5.347199e-06	-2.255316e-09	-3.812847e+01	-1.384205e+02
1.500000e-07	-5.341630e-06	-2.321024e-09	-3.808876e+01	-1.385249e+02
1.600000e-07	-5.335651e-06	-2.047978e-09	-3.804613e+01	-1.386267e+02
1.700000e-07	-5.329370e-06	-1.979359e-09	-3.800134e+01	-1.387245e+02
1.800000e-07	-5.322666e-06	-2.217145e-09	-3.795354e+01	-1.388173e+02
1.900000e-07	-5.315519e-06	-2.301162e-09	-3.790258e+01	-1.389037e+02
2.000000e-07	-5.308133e-06	-2.086805e-09	-3.784991e+01	-1.389825e+02
2.100000e-07	-5.300595e-06	-2.104979e-09	-3.779616e+01	-1.390525e+02
2.200000e-07	-5.292809e-06	-2.275707e-09	-3.774064e+01	-1.391125e+02
2.300000e-07	-5.284643e-06	-2.218957e-09	-3.768241e+01	-1.391613e+02
2.400000e-07	-5.276055e-06	-2.050449e-09	-3.762118e+01	-1.391978e+02
2.500000e-07	-5.266987e-06	-2.165996e-09	-3.755652e+01	-1.392211e+02
2.600000e-07	-5.257149e-06	-2.269716e-09	-3.748636e+01	-1.392302e+02
2.700000e-07	-5.246625e-06	-2.124615e-09	-3.741133e+01	-1.392245e+02
2.800000e-07	-5.235653e-06	-2.063658e-09	-3.733309e+01	-1.392033e+02
2.900000e-07	-5.224287e-06	-2.229524e-09	-3.725204e+01	-1.391661e+02
3.000000e-07	-5.212552e-06	-2.191984e-09	-3.716837e+01	-1.391126e+02
3.100000e-07	-5.200356e-06	-2.003120e-09	-3.708140e+01	-1.390426e+02
3.200000e-07	-5.187733e-06	-2.061036e-09	-3.699139e+01	-1.389561e+02
3.300000e-07	-5.174745e-06	-2.197780e-09	-3.689878e+01	-1.388532e+02
3.400000e-07	-5.161354e-06	-2.114468e-09	-3.680329e+01	-1.387343e+02
3.500000e-07	-5.147513e-06	-2.056050e-09	-3.670460e+01	-1.385996e+02
3.600000e-07	-5.133277e-06	-2.138309e-09	-3.660309e+01	-1.384498e+02
3.700000e-07	-5.118613e-06	-2.126455e-09	-3.649853e+01	-1.382855e+02
3.800000e-07	-5.103482e-06	-2.067670e-09	-3.639064e+01	-1.381075e+02
3.900000e-07	-5.087756e-06	-2.104399e-09	-3.627850e+01	-1.379165e+02
4.000000e-07	-5.071410e-06	-2.088151e-09	-3.616194e+01	-1.377134e+02
4.100000e-07	-5.054636e-06	-2.012023e-09	-3.604234e+01	-1.374993e+02
4.200000e-07	-5.037579e-06	-2.077580e-09	-3.592071e+01	-1.372751e+02
4.300000e-07	-5.020262e-06	-2.132130e-09	-3.579723e+01	-1.370418e+02
4.400000e-07	-5.002620e-06	-2.047601e-09	-3.567143e+01	-1.368002e+02
4.500000e-07	-4.984806e-06	-2.000788e-09	-3.554441e+01	-1.365515e+02
4.600000e-07	-4.966784e-06	-2.073949e-09	-3.541590e+01	-1.362964e+02
4.700000e-07	-4.948311e-06	-2.068220e-09	-3.528418e+01	-1.360358e+02
4.800000e-07	-4.929385e-06	-2.018017e-09	-3.514923e+01	-1.357705e+02
4.900000e-07	-4.910174e-06	-2.009662e-09	-3.501224e+01	-1.355011e+02
5.000000e-07	-4.890703e-06	-2.034501e-09	-3.487340e+01	-1.352283e+02
5.100000e-07	-4.870932e-06	-2.047609e-09	-3.473242e+01	-1.349524e+02
5.200000e-07	-4.850970e-06	-2.052908e-09	-3.459008e+01	-1.346740e+02
5.300000e-07	-4.830833e-06	-2.004847e-09	-3.444650e+01	-1.343933e+02
5.400000e-07	-4.810363e-06	-1.987905e-09	-3.430054e+01	-1.341104e+02
5.500000e-07	-4.789409e-06	-2.023198e-09	-3.415113e+01	-1.338255e+02
5.600000e-07	-4.768033e-06	-2.029075e-09	-3.399870e+01	-1.335385e+02
5.700000e-07	-4.746368e-06	-1.980853e-09	-3.384422e+01	-1.332493e+02
5.800000e-07	-4.724436e-06	-1.974084e-09	-3.368783e+01	-1.329577e+02
5.900000e-07	-4.702237e-06	-1.997308e-09	-3.352954e+01	-1.326636e+02
6.000000e-07	-4.679727e-06	-2.007191e-09	-3.336903e+01	-1.323665e+02
6.100000e-07	-4.656918e-06	-1.985349e-09	-3.320639e+01	-1.320662e+02
6.200000e-07	-4.633817e-06	-1.952681e-09	-3.304166e+01	-1.317623e+02
6.300000e-07	-4.610440e-06	-1.951128e-09	-3.287498e+01	-1.314543e+02
6.400000e-07	-4.586844e-06	-1.982201e-09	-3.270672e+01	-1.311419e+02
6.500000e-07	-4.562961e-06	-1.974901e-09	-3.253642e+01	-1.308248e+02
6.600000e-07	-4.538855e-06	-1.931252e-09	-3.236454e+01	-1.305024e+02
6.700000e-07	-4.514496e-06	-1.928133e-09	-3.219084e+01	-1.301745e+02
6.800000e-07	-4.489699e-06	-1.953139e-09	-3.201403e+01	-1.298408e+02
6.900000e-07	-4.464392e-06	-1.950349e-09	-3.183357e+01	-1.295010e+02
7.000000e-07	-4.438524e-06	-1.918283e-09	-3.164912e+01	-1.291549e+02
7.100000e-07	-4.412228e-06	-1.902792e-09	-3.146161e+01	-1.288023e+02
7.200000e-07	-4.385491e-06	-1.912895e-09	-3.127096e+01	-1.284432e+02
7.300000e-07	-4.358302e-06	-1.928149e-09	-3.107709e+01	-1.280775e+02
7.400000e-07	-4.330829e-06	-1.904693e-09	-3.088120e+01	-1.277051e+02
7.500000e-07	-4.303103e-06	-1.876328e-09	-3.068350e+01	-1.273262e+02
7.600000e-07	-4.275204e-06	-1.877974e-09	-3.048456e+01	-1.269409e+02
7.700000e-07	-4.247105e-06	-1.893511e-09	-3.028420e+01	-1.265492e+02
7.800000e-07	-4.218739e-06	-1.876057e-09	-3.008193e+01	-1.261513e+02
7.900000e-07	-4.190121e-06	-1.853373e-09	-2.987787e+01	-1.257474e+02
8.000000e-07	-4.161172e-06	-1.850177e-09	-2.967145e+01	-1.253378e+02
8.100000e-07	-4.131840e-06	-1.863731e-09	-2.946229e+01	-1.249225e+02
8.200000e-07	-4.102242e-06	-1.858138e-09	-2.925125e+01	-1.245019e+02
8.300000e-07	-4.072432e-06	-1.836883e-09	-2.903868e+01	-1.240760e+02
8.400000e-07	-4.042320e-06	-1.824413e-09	-2.882397e+01	-1.236451e+02
8.500000e-07	-4.011899e-06	-1.835708e-09	-2.860705e+01	-1.232093e+02
8.600000e-07	-3.981161e-06	-1.833662e-09	-2.838787e+01	-1.227686e+02
8.700000e-07	-3.950196e-06	-1.810516e-09	-2.816707e+01	-1.223232e+02
8.800000e-07	-3.919085e-06	-1.790350e-09	-2.794524e+01	-1.218731e+02
8.900000e-07	-3.887788e-06	-1.794888e-09	-2.772207e+01	-1.214183e+02
9.000000e-07	-3.856195e-06	-1.800341e-09	-2.749679e+01	-1.209586e+02
9.100000e-07	-3.824323e-06	-1.786645e-09	-2.726953e+01	-1.204941e+02
9.200000e-07	-3.792320e-06	-1.768659e-09	-2.704133e+01	-1.200246e+02
9.300000e-07	-3.760167e-06	-1.770566e-09	-2.681206e+01	-1.195499e+02
9.400000e-07	-3.727729e-06	-1.779654e-09	-2.658076e+01	-1.190698e+02
9.500000e-07	-3.694975e-06	-1.766611e-09	-2.634720e+01	-1.185842e+02
9.600000e-07	-3.661923e-06	-1.740901e-09	-2.611152e+01	-1.180928e+02
9.700000e-07	-3.628357e-06	-1.731968e-09	-2.587218e+01	-1.175954e+02
9.800000e-07	-3.594246e-06	-1.737290e-09	-2.562895e+01	-1.170919e+02
9.900000e-07	-3.559758e-06	-1.729545e-09	-2.538303e+01	-1.165819e+02
1.000000e-06	-3.524966e-06	-1.710899e-09	-2.513495e+01	-1.160653e+02
1.010000e-06	-3.489957e-06	-1.699987e-09	-2.488531e+01	-1.155420e+02
1.020000e-06	-3.454657e-06	-1.704205e-09	-2.463360e+01	-1.150118e+02
1.030000e-06	-3.419092e-06	-1.700603e-09	-2.438001e+01	-1.144747e+02
1.040000e-06	-3.383389e-06	-1.686546e-09	-2.412543e+01	-1.139307e+02
1.050000e-06	-3.347530e-06	-1.671651e-09	-2.386973e+01	-1.133798e+02
1.060000e-06	-3.311473e-06	-1.667296e-09	-2.361263e+01	-1.128221e+02
1.070000e-06	-3.275210e-06	-1.659184e-09	-2.335405e+01	-1.122576e+02
1.080000e-06	-3.238725e-06	-1.640222e-09	-2.309389e+01	-1.116867e+02
1.090000e-06	-3.202024e-06	-1.619745e-09	-2.283220e+01	-1.111094e+02
1.100000e-06	-3.165166e-06	-1.615293e-09	-2.256938e+01	-1.105261e+02
1.110000e-06	-3.128112e-06	-1.614354e-09	-2.230516e+01	-1.099371e+02
1.120000e-06	-3.090843e-06	-1.608755e-09	-2.203941e+01	-1.093426e+02
1.130000e-06	-3.053331e-06	-1.600538e-09	-2.177193e+01	-1.087431e+02
1.140000e-06	-3.015615e-06	-1.595897e-09	-2.150299e+01	-1.081388e+02
1.150000e-06	-2.977672e-06	-1.589106e-09	-2.123244e+01	-1.075301e+02
1.160000e-06	-2.939450e-06	-1.573739e-09	-2.095990e+01	-1.069172e+02
1.170000e-06	-2.901058e-06	-1.551001e-09	-2.068614e+01	-1.063005e+02
1.180000e-06	-2.862460e-06	-1.535715e-09	-2.041092e+01	-1.056802e+02
1.190000e-06	-2.823641e-06	-1.531327e-09	-2.013411e+01	-1.050564e+02
1.200000e-06	-2.784572e-06	-1.528688e-09	-1.985553e+01	-1.044292e+02
1.210000e-06	-2.745359e-06	-1.521381e-09	-1.957592e+01	-1.037988e+02
1.220000e-06	-2.705975e-06	-1.515363e-09	-1.929509e+01	-1.031649e+02
1.230000e-06	-2.666322e-06	-1.507861e-09	-1.901235e+01	-1.025275e+02
1.240000e-06	-2.626584e-06	-1.490966e-09	-1.872899e+01	-1.018863e+02
1.250000e-06	-2.586821e-06	-1.468689e-09	-1.844546e+01	-1.012410e+02
1.260000e-06	-2.546978e-06	-1.449760e-09	-1.816136e+01	-1.005912e+02
1.270000e-06	-2.507010e-06	-1.440483e-09	-1.787636e+01	-9.993623e+01
1.280000e-06	-2.466965e-06	-1.435017e-09	-1.759082e+01	-9.927564e+01
1.290000e-06	-2.426780e-06	-1.429823e-09	-1.730428e+01	-9.860866e+01
1.300000e-06	-2.386366e-06	-1.424048e-09	-1.701611e+01	-9.793455e+01
1.310000e-06	-2.345777e-06	-1.420767e-09	-1.672668e+01	-9.725248e+01
1.320000e-06	-2.305054e-06	-1.410693e-09	-1.643631e+01	-9.656158e+01
1.330000e-06	-2.264148e-06	-1.391441e-09	-1.614462e+01	-9.586096e+01
1.340000e-06	-2.222905e-06	-1.370252e-09	-1.585054e+01	-9.514969e+01
1.350000e-06	-2.181213e-06	-1.355025e-09	-1.555325e+01	-9.442687e+01
1.360000e-06	-2.139333e-06	-1.343484e-09	-1.525462e+01	-9.369160e+01
1.370000e-06	-2.097353e-06	-1.334419e-09	-1.495528e+01	-9.294302e+01
1.380000e-06	-2.054973e-06	-1.324005e-09	-1.465309e+01	-9.218031e+01
1.390000e-06	-2.012201e-06	-1.312232e-09	-1.434810e+01	-9.140275e+01
1.400000e-06	-1.969205e-06	-1.300681e-09	-1.404152e+01	-9.060967e+01
1.410000e-06	-1.926101e-06	-1.286884e-09	-1.373416e+01	-8.980050e+01
1.420000e-06	-1.882858e-06	-1.267061e-09	-1.342581e+01	-8.897479e+01
1.430000e-06	-1.839513e-06	-1.247911e-09	-1.311674e+01	-8.813220e+01
1.440000e-06	-1.796100e-06	-1.233872e-09	-1.280718e+01	-8.727250e+01
1.450000e-06	-1.752558e-06	-1.222428e-09	-1.249670e+01	-8.639560e+01
1.460000e-06	-1.708881e-06	-1.209619e-09	-1.218526e+01	-8.550154e+01
1.470000e-06	-1.665078e-06	-1.195577e-09	-1.187292e+01	-8.459047e+01
1.480000e-06	-1.621196e-06	-1.180378e-09	-1.156002e+01	-8.366267e+01
1.490000e-06	-1.577273e-06	-1.164114e-09	-1.124682e+01	-8.271853e+01
1.500000e-06	-1.533360e-06	-1.148377e-09	-1.093370e+01	-8.175855e+01
1.510000e-06	-1.489394e-06	-1.133453e-09	-1.062020e+01	-8.078332e+01
1.520000e-06	-1.445323e-06	-1.118913e-09	-1.030595e+01	-7.979351e+01
1.530000e-06	-1.401189e-06	-1.104424e-09	-9.991250e+00	-7.878985e+01
1.540000e-06	-1.357015e-06	-1.089938e-09	-9.676262e+00	-7.777310e+01
1.550000e-06	-1.312832e-06	-1.074841e-09	-9.361218e+00	-7.674407e+01
1.560000e-06	-1.268618e-06	-1.059950e-09	-9.045945e+00	-7.570355e+01
1.570000e-06	-1.224292e-06	-1.044811e-09	-8.729878e+00	-7.465235e+01
1.580000e-06	-1.179838e-06	-1.029689e-09	-8.412893e+00	-7.359122e+01
1.590000e-06	-1.135248e-06	-1.015620e-09	-8.094945e+00	-7.252087e+01
1.600000e-06	-1.090510e-06	-1.000349e-09	-7.775938e+00	-7.144195e+01
1.610000e-06	-1.045677e-06	-9.847599e-10	-7.456252e+00	-7.035500e+01
1.620000e-06	-1.000772e-06	-9.709189e-10	-7.136053e+00	-6.926050e+01
1.630000e-06	-9.558095e-07	-9.543651e-10	-6.815448e+00	-6.815880e+01
1.640000e-06	-9.107902e-07	-9.356323e-10	-6.494435e+00	-6.705013e+01
1.650000e-06	-8.656425e-07	-9.170404e-10	-6.172507e+00	-6.593460e+01
1.660000e-06	-8.203866e-07	-9.004995e-10	-5.849808e+00	-6.481220e+01
1.670000e-06	-7.751088e-07	-8.851986e-10	-5.526952e+00	-6.368280e+01
1.680000e-06	-7.297751e-07	-8.691487e-10	-5.203698e+00	-6.254611e+01
1.690000e-06	-6.843688e-07	-8.512101e-10	-4.879926e+00	-6.140177e+01
1.700000e-06	-6.390052e-07	-8.331961e-10	-4.556459e+00	-6.024926e+01
1.710000e-06	-5.936686e-07	-8.131447e-10	-4.233184e+00	-5.908799e+01
1.720000e-06	-5.482920e-07	-7.916936e-10	-3.909624e+00	-5.791729e+01
1.730000e-06	-5.027959e-07	-7.719108e-10	-3.585212e+00	-5.673638e+01
1.740000e-06	-4.571731e-07	-7.542585e-10	-3.259896e+00	-5.554447e+01
1.750000e-06	-4.114917e-07	-7.368696e-10	-2.934162e+00	-5.434070e+01
1.760000e-06	-3.657635e-07	-7.215012e-10	-2.608095e+00	-5.312421e+01
1.770000e-06	-3.200694e-07	-7.072696e-10	-2.282271e+00	-5.189413e+01
1.780000e-06	-2.744287e-07	-6.923481e-10	-1.956828e+00	-5.064962e+01
1.790000e-06	-2.287807e-07	-6.725029e-10	-1.631332e+00	-4.938985e+01
1.800000e-06	-1.830562e-07	-6.482722e-10	-1.305292e+00	-4.811409e+01
1.810000e-06	-1.373456e-07	-6.270801e-10	-9.793496e-01	-4.682165e+01
1.820000e-06	-9.167343e-08	-6.081388e-10	-6.536820e-01	-4.551193e+01
1.830000e-06	-4.596026e-08	-5.887754e-10	-3.277219e-01	-4.418444e+01
1.840000e-06	-2.330997e-10	-5.713682e-10	-1.662129e-03	-4.283877e+01
1.850000e-06	4.548594e-08	-5.571690e-10	3.243398e-01	-4.147466e+01
1.860000e-06	9.120009e-08	-5.405321e-10	6.503068e-01	-4.009193e+01
1.870000e-06	1.369088e-07	-5.175233e-10	9.762351e-01	-3.869056e+01
1.880000e-06	1.826147e-07	-4.894391e-10	1.302143e+00	-3.727063e+01
1.890000e-06	2.283218e-07	-4.621004e-10	1.628060e+00	-3.583232e+01
1.900000e-06	2.740032e-07	-4.391500e-10	1.953794e+00	-3.437594e+01
1.910000e-06	3.196681e-07	-4.172913e-10	2.279410e+00	-3.290190e+01
1.920000e-06	3.652806e-07	-3.953467e-10	2.604652e+00	-3.141068e+01
1.930000e-06	4.108332e-07	-3.748988e-10	2.929467e+00	-2.990286e+01
1.940000e-06	4.563427e-07	-3.554210e-10	3.253974e+00	-2.837906e+01
1.950000e-06	5.018004e-07	-3.358930e-10	3.578113e+00	-2.683995e+01
1.960000e-06	5.471941e-07	-3.136304e-10	3.901795e+00	-2.528624e+01
1.970000e-06	5.925893e-07	-2.887624e-10	4.225488e+00	-2.371865e+01
1.980000e-06	6.379967e-07	-2.633626e-10	4.549268e+00	-2.213789e+01
1.990000e-06	6.834063e-07	-2.400047e-10	4.873063e+00	-2.054466e+01
2.000000e-06	7.287084e-07	-2.182912e-10	5.196092e+00	-1.893964e+01
2.010000e-06	7.738729e-07	-1.961200e-10	5.518140e+00	-1.732344e+01
2.020000e-06	8.190332e-07	-1.735950e-10	5.840158e+00	-1.569663e+01
2.030000e-06	8.641418e-07	-1.524373e-10	6.161806e+00	-1.405972e+01
2.040000e-06	9.091923e-07	-1.294671e-10	6.483041e+00	-1.241314e+01
2.050000e-06	9.541496e-07	-1.023214e-10	6.803612e+00	-1.075727e+01
2.060000e-06	9.989762e-07	-7.492394e-11	7.123250e+00	-9.092379e+00
2.070000e-06	1.043757e-06	-5.121259e-11	7.442561e+00	-7.418694e+00
2.080000e-06	1.088475e-06	-2.877508e-11	7.761426e+00	-5.736362e+00
2.090000e-06	1.133066e-06	-6.495621e-12	8.079385e+00	-4.045469e+00
2.100000e-06	1.177555e-06	1.549735e-11	8.396616e+00	-2.346049e+00
2.110000e-06	1.222024e-06	3.983490e-11	8.713701e+00	-6.380975e-01
2.120000e-06	1.266418e-06	6.757166e-11	9.030258e+00	1.078420e+00
2.130000e-06	1.310640e-06	9.710097e-11	9.345587e+00	2.803551e+00
2.140000e-06	1.354758e-06	1.259744e-10	9.660168e+00	4.537338e+00
2.150000e-06	1.398849e-06	1.513884e-10	9.974560e+00	6.279805e+00
2.160000e-06	1.442883e-06	1.730274e-10	1.028855e+01	8.030941e+00
2.170000e-06	1.486800e-06	1.954870e-10	1.060170e+01	9.790681e+00
2.180000e-06	1.530691e-06	2.204681e-10	1.091467e+01	1.155889e+01
2.190000e-06	1.574561e-06	2.459570e-10	1.122749e+01	1.333536e+01
2.200000e-06	1.618339e-06	2.715275e-10	1.153965e+01	1.511977e+01
2.210000e-06	1.662064e-06	2.989803e-10	1.185143e+01	1.691170e+01
2.220000e-06	1.705784e-06	3.273140e-10	1.216318e+01	1.871062e+01
2.230000e-06	1.749484e-06	3.537578e-10	1.247478e+01	2.051586e+01
2.240000e-06	1.793085e-06	3.778187e-10	1.278568e+01	2.232664e+01
2.250000e-06	1.836593e-06	4.021288e-10	1.309592e+01	2.414205e+01
2.260000e-06	1.879910e-06	4.264433e-10	1.340480e+01	2.596104e+01
2.270000e-06	1.922967e-06	4.501751e-10	1.371181e+01	2.778246e+01
2.280000e-06	1.965920e-06	4.741919e-10	1.401809e+01	2.960502e+01
2.290000e-06	2.008738e-06	4.995988e-10	1.432340e+01	3.142736e+01
2.300000e-06	2.051345e-06	5.272397e-10	1.462722e+01	3.324801e+01
2.310000e-06	2.093695e-06	5.542537e-10	1.492920e+01	3.506543e+01
2.320000e-06	2.135750e-06	5.790458e-10	1.522907e+01	3.687803e+01
2.330000e-06	2.177468e-06	6.039868e-10	1.552655e+01	3.868418e+01
2.340000e-06	2.218826e-06	6.294769e-10	1.582145e+01	4.048224e+01
2.350000e-06	2.260024e-06	6.555060e-10	1.611522e+01	4.227057e+01
2.360000e-06	2.300983e-06	6.821637e-10	1.640727e+01	4.404756e+01
2.370000e-06	2.341513e-06	7.076791e-10	1.669628e+01	4.581165e+01
2.380000e-06	2.381824e-06	7.323000e-10	1.698372e+01	4.756134e+01
2.390000e-06	2.422051e-06	7.563782e-10	1.727056e+01	4.929522e+01
2.400000e-06	2.462187e-06	7.782023e-10	1.755675e+01	5.101200e+01
2.410000e-06	2.502236e-06	7.986747e-10	1.784232e+01	5.271049e+01
2.420000e-06	2.542138e-06	8.224220e-10	1.812684e+01	5.438966e+01
2.430000e-06	2.581903e-06	8.509825e-10	1.841039e+01	5.604860e+01
2.440000e-06	2.621585e-06	8.810195e-10	1.869334e+01	5.768656e+01
2.450000e-06	2.661155e-06	9.068434e-10	1.897550e+01	5.930295e+01
2.460000e-06	2.700619e-06	9.301294e-10	1.925690e+01	6.089734e+01
2.470000e-06	2.739964e-06	9.533723e-10	1.953745e+01	6.246946e+01
2.480000e-06	2.779161e-06	9.735923e-10	1.981695e+01	6.401919e+01
2.490000e-06	2.818173e-06	9.905659e-10	2.009513e+01	6.554654e+01
2.500000e-06	2.856904e-06	1.012447e-09	2.037130e+01	6.705167e+01
2.510000e-06	2.895343e-06	1.041268e-09	2.064539e+01	6.853486e+01
2.520000e-06	2.933538e-06	1.068827e-09	2.091774e+01	6.999649e+01
2.530000e-06	2.971537e-06	1.086096e-09	2.118870e+01	7.143703e+01
2.540000e-06	3.009361e-06	1.095642e-09	2.145840e+01	7.285701e+01
2.550000e-06	3.047021e-06	1.108707e-09	2.172694e+01	7.425703e+01
2.560000e-06	3.084479e-06	1.127251e-09	2.199403e+01	7.563770e+01
2.570000e-06	3.121737e-06	1.148097e-09	2.225970e+01	7.699964e+01
2.580000e-06	3.158785e-06	1.170426e-09	2.252387e+01	7.834347e+01
2.590000e-06	3.195565e-06	1.196382e-09	2.278613e+01	7.966979e+01
2.600000e-06	3.232116e-06	1.224307e-09	2.304677e+01	8.097912e+01
2.610000e-06	3.268496e-06	1.244739e-09	2.330617e+01	8.227195e+01
2.620000e-06	3.304711e-06	1.256042e-09	2.356441e+01	8.354867e+01
2.630000e-06	3.340775e-06	1.267299e-09	2.382157e+01	8.480961e+01
2.640000e-06	3.376660e-06	1.282561e-09	2.407745e+01	8.605497e+01
2.650000e-06	3.412395e-06	1.299611e-09	2.433225e+01	8.728489e+01
2.660000e-06	3.448004e-06	1.318510e-09	2.458617e+01	8.849936e+01
2.670000e-06	3.483463e-06	1.343255e-09	2.483901e+01	8.969830e+01
2.680000e-06	3.518595e-06	1.369501e-09	2.508952e+01	9.088152e+01
2.690000e-06	3.553268e-06	1.388031e-09	2.533676e+01	9.204872e+01
2.700000e-06	3.587606e-06	1.396183e-09	2.558161e+01	9.319954e+01
2.710000e-06	3.621596e-06	1.402501e-09	2.582397e+01	9.433353e+01
2.720000e-06	3.655146e-06	1.413675e-09	2.606320e+01	9.545015e+01
2.730000e-06	3.688270e-06	1.428377e-09	2.629940e+01	9.654886e+01
2.740000e-06	3.720988e-06	1.446597e-09	2.653270e+01	9.762906e+01
2.750000e-06	3.753316e-06	1.472523e-09	2.676321e+01	9.869014e+01
2.760000e-06	3.785378e-06	1.500330e-09	2.699183e+01	9.973147e+01
2.770000e-06	3.817304e-06	1.520850e-09	2.721948e+01	1.007525e+02
2.780000e-06	3.849119e-06	1.531511e-09	2.744634e+01	1.017526e+02
2.790000e-06	3.880764e-06	1.539783e-09	2.767199e+01	1.027313e+02
2.800000e-06	3.912227e-06	1.550559e-09	2.789633e+01	1.036882e+02
2.810000e-06	3.943512e-06	1.562337e-09	2.811941e+01	1.046229e+02
2.820000e-06	3.974480e-06	1.573748e-09	2.834023e+01	1.055352e+02
2.830000e-06	4.005112e-06	1.586581e-09	2.855865e+01	1.064248e+02
2.840000e-06	4.035405e-06	1.602354e-09	2.877466e+01	1.072918e+02
2.850000e-06	4.065376e-06	1.617432e-09	2.898837e+01	1.081361e+02
2.860000e-06	4.095220e-06	1.629754e-09	2.920117e+01	1.089580e+02
2.870000e-06	4.124857e-06	1.639509e-09	2.941250e+01	1.097577e+02
2.880000e-06	4.154108e-06	1.650351e-09	2.962108e+01	1.105356e+02
2.890000e-06	4.183028e-06	1.659870e-09	2.982729e+01	1.112923e+02
2.900000e-06	4.211699e-06	1.667297e-09	3.003173e+01	1.120283e+02
