# Temperatura_=_17.01
# Concentracion g/m^3_=_4090.0
# C_Vs_to_Am_M_A/Vsm_=_65563218390.804596
# pendiente_HvsI_1/m_=_3716.3
# ordenada_HvsI_A/m_=_1297.0
# frecuencia_Hz_=_135076.7134464183

Tiempo_(s)	Campo_(V.s)	Magnetizacion_(V.s)	Campo_(kA/m)	Magnetizacion_(A/m)
0.000000e+00	-5.419744e-06	-2.749930e-09	-3.839425e+01	-1.748084e+02
1.000000e-08	-5.419986e-06	-2.746662e-09	-3.839597e+01	-1.747862e+02
2.000000e-08	-5.419969e-06	-2.743929e-09	-3.839585e+01	-1.747631e+02
3.000000e-08	-5.419747e-06	-2.745069e-09	-3.839428e+01	-1.747402e+02
4.000000e-08	-5.419221e-06	-2.748512e-09	-3.839055e+01	-1.747188e+02
5.000000e-08	-5.418266e-06	-2.748898e-09	-3.838379e+01	-1.746999e+02
6.000000e-08	-5.416685e-06	-2.749185e-09	-3.837258e+01	-1.746849e+02
7.000000e-08	-5.414356e-06	-2.752745e-09	-3.835608e+01	-1.746749e+02
8.000000e-08	-5.411407e-06	-2.739964e-09	-3.833519e+01	-1.746713e+02
9.000000e-08	-5.407883e-06	-2.724150e-09	-3.831023e+01	-1.746750e+02
1.000000e-07	-5.403859e-06	-2.771129e-09	-3.828172e+01	-1.746872e+02
1.100000e-07	-5.399526e-06	-2.814379e-09	-3.825103e+01	-1.747088e+02
1.200000e-07	-5.395059e-06	-2.724430e-09	-3.821938e+01	-1.747406e+02
1.300000e-07	-5.390521e-06	-2.680096e-09	-3.818724e+01	-1.747831e+02
1.400000e-07	-5.385698e-06	-2.721658e-09	-3.815307e+01	-1.748370e+02
1.500000e-07	-5.380272e-06	-2.809106e-09	-3.811463e+01	-1.749024e+02
1.600000e-07	-5.374382e-06	-2.701348e-09	-3.807290e+01	-1.749793e+02
1.700000e-07	-5.368330e-06	-2.609541e-09	-3.803003e+01	-1.750677e+02
1.800000e-07	-5.361933e-06	-2.722066e-09	-3.798471e+01	-1.751671e+02
1.900000e-07	-5.354990e-06	-2.783621e-09	-3.793553e+01	-1.752770e+02
2.000000e-07	-5.347641e-06	-2.704087e-09	-3.788346e+01	-1.753965e+02
2.100000e-07	-5.340089e-06	-2.601139e-09	-3.782997e+01	-1.755247e+02
2.200000e-07	-5.332366e-06	-2.692645e-09	-3.777526e+01	-1.756602e+02
2.300000e-07	-5.324388e-06	-2.686678e-09	-3.771874e+01	-1.758018e+02
2.400000e-07	-5.316123e-06	-2.625446e-09	-3.766019e+01	-1.759478e+02
2.500000e-07	-5.307386e-06	-2.626413e-09	-3.759830e+01	-1.760967e+02
2.600000e-07	-5.297949e-06	-2.726551e-09	-3.753144e+01	-1.762465e+02
2.700000e-07	-5.287678e-06	-2.685326e-09	-3.745868e+01	-1.763955e+02
2.800000e-07	-5.276879e-06	-2.652484e-09	-3.738218e+01	-1.765418e+02
2.900000e-07	-5.265669e-06	-2.707532e-09	-3.730277e+01	-1.766833e+02
3.000000e-07	-5.253924e-06	-2.728201e-09	-3.721956e+01	-1.768182e+02
3.100000e-07	-5.241829e-06	-2.633202e-09	-3.713388e+01	-1.769445e+02
3.200000e-07	-5.229432e-06	-2.646933e-09	-3.704606e+01	-1.770605e+02
3.300000e-07	-5.216642e-06	-2.743378e-09	-3.695545e+01	-1.771644e+02
3.400000e-07	-5.203448e-06	-2.710883e-09	-3.686199e+01	-1.772546e+02
3.500000e-07	-5.189898e-06	-2.646552e-09	-3.676599e+01	-1.773296e+02
3.600000e-07	-5.175946e-06	-2.686696e-09	-3.666716e+01	-1.773882e+02
3.700000e-07	-5.161687e-06	-2.714516e-09	-3.656614e+01	-1.774293e+02
3.800000e-07	-5.147143e-06	-2.657854e-09	-3.646311e+01	-1.774519e+02
3.900000e-07	-5.132012e-06	-2.659450e-09	-3.635592e+01	-1.774554e+02
4.000000e-07	-5.116161e-06	-2.678048e-09	-3.624363e+01	-1.774392e+02
4.100000e-07	-5.099723e-06	-2.657987e-09	-3.612718e+01	-1.774031e+02
4.200000e-07	-5.082896e-06	-2.659798e-09	-3.600797e+01	-1.773470e+02
4.300000e-07	-5.065850e-06	-2.700447e-09	-3.588722e+01	-1.772711e+02
4.400000e-07	-5.048483e-06	-2.653990e-09	-3.576419e+01	-1.771757e+02
4.500000e-07	-5.030882e-06	-2.633583e-09	-3.563950e+01	-1.770613e+02
4.600000e-07	-5.013021e-06	-2.658176e-09	-3.551297e+01	-1.769287e+02
4.700000e-07	-4.994708e-06	-2.670913e-09	-3.538324e+01	-1.767787e+02
4.800000e-07	-4.975944e-06	-2.621999e-09	-3.525031e+01	-1.766122e+02
4.900000e-07	-4.956818e-06	-2.633762e-09	-3.511482e+01	-1.764305e+02
5.000000e-07	-4.937357e-06	-2.645071e-09	-3.497696e+01	-1.762346e+02
5.100000e-07	-4.917589e-06	-2.653129e-09	-3.483692e+01	-1.760259e+02
5.200000e-07	-4.897617e-06	-2.641480e-09	-3.469543e+01	-1.758056e+02
5.300000e-07	-4.877468e-06	-2.638043e-09	-3.455269e+01	-1.755750e+02
5.400000e-07	-4.857084e-06	-2.621280e-09	-3.440829e+01	-1.753355e+02
5.500000e-07	-4.836353e-06	-2.639268e-09	-3.426143e+01	-1.750884e+02
5.600000e-07	-4.815225e-06	-2.626400e-09	-3.411176e+01	-1.748348e+02
5.700000e-07	-4.793734e-06	-2.600520e-09	-3.395951e+01	-1.745760e+02
5.800000e-07	-4.771880e-06	-2.592136e-09	-3.380469e+01	-1.743131e+02
5.900000e-07	-4.749715e-06	-2.611007e-09	-3.364767e+01	-1.740471e+02
6.000000e-07	-4.727262e-06	-2.607025e-09	-3.348861e+01	-1.737790e+02
6.100000e-07	-4.704406e-06	-2.603691e-09	-3.332670e+01	-1.735094e+02
6.200000e-07	-4.681190e-06	-2.598524e-09	-3.316223e+01	-1.732391e+02
6.300000e-07	-4.657685e-06	-2.592411e-09	-3.299572e+01	-1.729688e+02
6.400000e-07	-4.633922e-06	-2.592168e-09	-3.282738e+01	-1.726987e+02
6.500000e-07	-4.610004e-06	-2.581928e-09	-3.265794e+01	-1.724293e+02
6.600000e-07	-4.585976e-06	-2.559990e-09	-3.248772e+01	-1.721609e+02
6.700000e-07	-4.561762e-06	-2.555873e-09	-3.231619e+01	-1.718934e+02
6.800000e-07	-4.537101e-06	-2.573712e-09	-3.214148e+01	-1.716270e+02
6.900000e-07	-4.511889e-06	-2.571749e-09	-3.196288e+01	-1.713616e+02
7.000000e-07	-4.486160e-06	-2.566166e-09	-3.178061e+01	-1.710970e+02
7.100000e-07	-4.459864e-06	-2.559107e-09	-3.159432e+01	-1.708331e+02
7.200000e-07	-4.433090e-06	-2.559239e-09	-3.140465e+01	-1.705695e+02
7.300000e-07	-4.405813e-06	-2.546888e-09	-3.121142e+01	-1.703059e+02
7.400000e-07	-4.378136e-06	-2.536579e-09	-3.101535e+01	-1.700420e+02
7.500000e-07	-4.350301e-06	-2.520877e-09	-3.081816e+01	-1.697774e+02
7.600000e-07	-4.322313e-06	-2.527803e-09	-3.061989e+01	-1.695117e+02
7.700000e-07	-4.294180e-06	-2.530010e-09	-3.042060e+01	-1.692445e+02
7.800000e-07	-4.265885e-06	-2.527749e-09	-3.022015e+01	-1.689754e+02
7.900000e-07	-4.237278e-06	-2.513986e-09	-3.001750e+01	-1.687039e+02
8.000000e-07	-4.208325e-06	-2.515152e-09	-2.981239e+01	-1.684298e+02
8.100000e-07	-4.179048e-06	-2.508010e-09	-2.960498e+01	-1.681526e+02
8.200000e-07	-4.149462e-06	-2.498725e-09	-2.939539e+01	-1.678719e+02
8.300000e-07	-4.119633e-06	-2.482362e-09	-2.918408e+01	-1.675874e+02
8.400000e-07	-4.089617e-06	-2.480455e-09	-2.897144e+01	-1.672989e+02
8.500000e-07	-4.059354e-06	-2.481427e-09	-2.875706e+01	-1.670060e+02
8.600000e-07	-4.028658e-06	-2.481025e-09	-2.853960e+01	-1.667084e+02
8.700000e-07	-3.997568e-06	-2.467315e-09	-2.831936e+01	-1.664060e+02
8.800000e-07	-3.966341e-06	-2.459301e-09	-2.809814e+01	-1.660984e+02
8.900000e-07	-3.934942e-06	-2.455061e-09	-2.787570e+01	-1.657855e+02
9.000000e-07	-3.903336e-06	-2.450986e-09	-2.765180e+01	-1.654671e+02
9.100000e-07	-3.871533e-06	-2.440033e-09	-2.742651e+01	-1.651429e+02
9.200000e-07	-3.839544e-06	-2.432730e-09	-2.719989e+01	-1.648128e+02
9.300000e-07	-3.807453e-06	-2.434963e-09	-2.697255e+01	-1.644766e+02
9.400000e-07	-3.775107e-06	-2.439424e-09	-2.674341e+01	-1.641343e+02
9.500000e-07	-3.742372e-06	-2.434795e-09	-2.651151e+01	-1.637855e+02
9.600000e-07	-3.709258e-06	-2.423194e-09	-2.627692e+01	-1.634302e+02
9.700000e-07	-3.675777e-06	-2.420056e-09	-2.603974e+01	-1.630683e+02
9.800000e-07	-3.641773e-06	-2.420005e-09	-2.579885e+01	-1.626997e+02
9.900000e-07	-3.607304e-06	-2.415022e-09	-2.555466e+01	-1.623241e+02
1.000000e-06	-3.572434e-06	-2.401934e-09	-2.530764e+01	-1.619417e+02
1.010000e-06	-3.537253e-06	-2.399064e-09	-2.505841e+01	-1.615522e+02
1.020000e-06	-3.501816e-06	-2.400171e-09	-2.480737e+01	-1.611556e+02
1.030000e-06	-3.466126e-06	-2.397807e-09	-2.455454e+01	-1.607519e+02
1.040000e-06	-3.430310e-06	-2.381974e-09	-2.430081e+01	-1.603411e+02
1.050000e-06	-3.394330e-06	-2.371420e-09	-2.404593e+01	-1.599233e+02
1.060000e-06	-3.358215e-06	-2.363358e-09	-2.379008e+01	-1.594984e+02
1.070000e-06	-3.321974e-06	-2.358584e-09	-2.353335e+01	-1.590666e+02
1.080000e-06	-3.285543e-06	-2.346623e-09	-2.327527e+01	-1.586280e+02
1.090000e-06	-3.248883e-06	-2.337691e-09	-2.301556e+01	-1.581827e+02
1.100000e-06	-3.211930e-06	-2.332958e-09	-2.275378e+01	-1.577309e+02
1.110000e-06	-3.174683e-06	-2.331969e-09	-2.248991e+01	-1.572727e+02
1.120000e-06	-3.137181e-06	-2.319495e-09	-2.222425e+01	-1.568085e+02
1.130000e-06	-3.099447e-06	-2.306328e-09	-2.195693e+01	-1.563383e+02
1.140000e-06	-3.061507e-06	-2.296428e-09	-2.168816e+01	-1.558625e+02
1.150000e-06	-3.023412e-06	-2.290312e-09	-2.141829e+01	-1.553813e+02
1.160000e-06	-2.985157e-06	-2.280898e-09	-2.114729e+01	-1.548949e+02
1.170000e-06	-2.946773e-06	-2.271189e-09	-2.087537e+01	-1.544036e+02
1.180000e-06	-2.908185e-06	-2.263890e-09	-2.060200e+01	-1.539074e+02
1.190000e-06	-2.869293e-06	-2.261987e-09	-2.032649e+01	-1.534065e+02
1.200000e-06	-2.830133e-06	-2.257782e-09	-2.004907e+01	-1.529011e+02
1.210000e-06	-2.790780e-06	-2.246826e-09	-1.977029e+01	-1.523912e+02
1.220000e-06	-2.751307e-06	-2.233517e-09	-1.949066e+01	-1.518767e+02
1.230000e-06	-2.711692e-06	-2.223547e-09	-1.921002e+01	-1.513576e+02
1.240000e-06	-2.671932e-06	-2.213348e-09	-1.892835e+01	-1.508338e+02
1.250000e-06	-2.632120e-06	-2.200786e-09	-1.864632e+01	-1.503049e+02
1.260000e-06	-2.592254e-06	-2.191040e-09	-1.836391e+01	-1.497705e+02
1.270000e-06	-2.552259e-06	-2.184767e-09	-1.808058e+01	-1.492304e+02
1.280000e-06	-2.512128e-06	-2.180932e-09	-1.779628e+01	-1.486839e+02
1.290000e-06	-2.471874e-06	-2.170634e-09	-1.751111e+01	-1.481304e+02
1.300000e-06	-2.431540e-06	-2.158386e-09	-1.722538e+01	-1.475692e+02
1.310000e-06	-2.391034e-06	-2.148242e-09	-1.693843e+01	-1.469996e+02
1.320000e-06	-2.350273e-06	-2.140965e-09	-1.664968e+01	-1.464206e+02
1.330000e-06	-2.309266e-06	-2.127117e-09	-1.635918e+01	-1.458313e+02
1.340000e-06	-2.267995e-06	-2.110262e-09	-1.606681e+01	-1.452307e+02
1.350000e-06	-2.226323e-06	-2.098437e-09	-1.577159e+01	-1.446177e+02
1.360000e-06	-2.184252e-06	-2.093363e-09	-1.547356e+01	-1.439914e+02
1.370000e-06	-2.141927e-06	-2.084873e-09	-1.517373e+01	-1.433506e+02
1.380000e-06	-2.099368e-06	-2.073986e-09	-1.487223e+01	-1.426942e+02
1.390000e-06	-2.056563e-06	-2.062506e-09	-1.456900e+01	-1.420212e+02
1.400000e-06	-2.013567e-06	-2.052881e-09	-1.426440e+01	-1.413304e+02
1.410000e-06	-1.970338e-06	-2.040416e-09	-1.395816e+01	-1.406209e+02
1.420000e-06	-1.926890e-06	-2.022999e-09	-1.365037e+01	-1.398918e+02
1.430000e-06	-1.883418e-06	-2.002302e-09	-1.334241e+01	-1.391421e+02
1.440000e-06	-1.839863e-06	-1.989512e-09	-1.303385e+01	-1.383710e+02
1.450000e-06	-1.796066e-06	-1.982031e-09	-1.272360e+01	-1.375779e+02
1.460000e-06	-1.752174e-06	-1.973813e-09	-1.241265e+01	-1.367621e+02
1.470000e-06	-1.708273e-06	-1.961309e-09	-1.210165e+01	-1.359230e+02
1.480000e-06	-1.664311e-06	-1.946512e-09	-1.179022e+01	-1.350604e+02
1.490000e-06	-1.620299e-06	-1.931537e-09	-1.147843e+01	-1.341737e+02
1.500000e-06	-1.576202e-06	-1.913559e-09	-1.116605e+01	-1.332629e+02
1.510000e-06	-1.532055e-06	-1.892217e-09	-1.085330e+01	-1.323277e+02
1.520000e-06	-1.487830e-06	-1.871781e-09	-1.054000e+01	-1.313681e+02
1.530000e-06	-1.443519e-06	-1.855781e-09	-1.022610e+01	-1.303840e+02
1.540000e-06	-1.399155e-06	-1.844649e-09	-9.911818e+00	-1.293756e+02
1.550000e-06	-1.354650e-06	-1.835047e-09	-9.596540e+00	-1.283428e+02
1.560000e-06	-1.310047e-06	-1.822971e-09	-9.280560e+00	-1.272856e+02
1.570000e-06	-1.265403e-06	-1.806563e-09	-8.964297e+00	-1.262043e+02
1.580000e-06	-1.220614e-06	-1.788775e-09	-8.647005e+00	-1.250987e+02
1.590000e-06	-1.175675e-06	-1.771904e-09	-8.328653e+00	-1.239688e+02
1.600000e-06	-1.130724e-06	-1.752573e-09	-8.010210e+00	-1.228145e+02
1.610000e-06	-1.085660e-06	-1.733268e-09	-7.690971e+00	-1.216357e+02
1.620000e-06	-1.040413e-06	-1.715797e-09	-7.370440e+00	-1.204318e+02
1.630000e-06	-9.950970e-07	-1.701275e-09	-7.049412e+00	-1.192025e+02
1.640000e-06	-9.497828e-07	-1.685974e-09	-6.728399e+00	-1.179472e+02
1.650000e-06	-9.044367e-07	-1.666159e-09	-6.407161e+00	-1.166650e+02
1.660000e-06	-8.589903e-07	-1.645105e-09	-6.085213e+00	-1.153549e+02
1.670000e-06	-8.134246e-07	-1.627613e-09	-5.762418e+00	-1.140159e+02
1.680000e-06	-7.677530e-07	-1.606086e-09	-5.438874e+00	-1.126465e+02
1.690000e-06	-7.220754e-07	-1.580579e-09	-5.115287e+00	-1.112452e+02
1.700000e-06	-6.763795e-07	-1.554854e-09	-4.791571e+00	-1.098104e+02
1.710000e-06	-6.306984e-07	-1.534205e-09	-4.467959e+00	-1.083402e+02
1.720000e-06	-5.850593e-07	-1.513766e-09	-4.144645e+00	-1.068325e+02
1.730000e-06	-5.393691e-07	-1.489802e-09	-3.820970e+00	-1.052852e+02
1.740000e-06	-4.936314e-07	-1.465525e-09	-3.496957e+00	-1.036961e+02
1.750000e-06	-4.478112e-07	-1.444087e-09	-3.172360e+00	-1.020628e+02
1.760000e-06	-4.019116e-07	-1.423132e-09	-2.847200e+00	-1.003829e+02
1.770000e-06	-3.560050e-07	-1.398099e-09	-2.521991e+00	-9.865404e+01
1.780000e-06	-3.100885e-07	-1.368716e-09	-2.196712e+00	-9.687379e+01
1.790000e-06	-2.641455e-07	-1.340957e-09	-1.871245e+00	-9.503980e+01
1.800000e-06	-2.182194e-07	-1.313294e-09	-1.545898e+00	-9.314977e+01
1.810000e-06	-1.723353e-07	-1.283336e-09	-1.220848e+00	-9.120156e+01
1.820000e-06	-1.264033e-07	-1.254178e-09	-8.954594e-01	-8.919315e+01
1.830000e-06	-8.041308e-08	-1.225293e-09	-5.696580e-01	-8.712272e+01
1.840000e-06	-3.447381e-08	-1.196730e-09	-2.442175e-01	-8.498865e+01
1.850000e-06	1.146773e-08	-1.165465e-09	8.123904e-02	-8.278959e+01
1.860000e-06	5.744011e-08	-1.130216e-09	4.069141e-01	-8.052445e+01
1.870000e-06	1.033381e-07	-1.093545e-09	7.320621e-01	-7.819242e+01
1.880000e-06	1.492384e-07	-1.058176e-09	1.057226e+00	-7.579302e+01
1.890000e-06	1.951457e-07	-1.021305e-09	1.382441e+00	-7.332608e+01
1.900000e-06	2.410516e-07	-9.827763e-10	1.707645e+00	-7.079179e+01
1.910000e-06	2.870255e-07	-9.438332e-10	2.033330e+00	-6.819065e+01
1.920000e-06	3.329769e-07	-9.037579e-10	2.358857e+00	-6.552350e+01
1.930000e-06	3.788220e-07	-8.619261e-10	2.683630e+00	-6.279153e+01
1.940000e-06	4.246367e-07	-8.212559e-10	3.008188e+00	-5.999623e+01
1.950000e-06	4.705376e-07	-7.828262e-10	3.333357e+00	-5.713941e+01
1.960000e-06	5.164157e-07	-7.440855e-10	3.658364e+00	-5.422317e+01
1.970000e-06	5.621737e-07	-7.006208e-10	3.982520e+00	-5.124986e+01
1.980000e-06	6.078698e-07	-6.524044e-10	4.306238e+00	-4.822208e+01
1.990000e-06	6.535302e-07	-6.007064e-10	4.629703e+00	-4.514263e+01
2.000000e-06	6.991288e-07	-5.513504e-10	4.952730e+00	-4.201450e+01
2.010000e-06	7.446982e-07	-5.051778e-10	5.275551e+00	-3.884083e+01
2.020000e-06	7.903311e-07	-4.596961e-10	5.598821e+00	-3.562486e+01
2.030000e-06	8.359065e-07	-4.134699e-10	5.921684e+00	-3.236993e+01
2.040000e-06	8.813596e-07	-3.666458e-10	6.243680e+00	-2.907942e+01
2.050000e-06	9.267794e-07	-3.188261e-10	6.565440e+00	-2.575675e+01
2.060000e-06	9.721055e-07	-2.687479e-10	6.886537e+00	-2.240531e+01
2.070000e-06	1.017345e-06	-2.165718e-10	7.207021e+00	-1.902847e+01
2.080000e-06	1.062517e-06	-1.641450e-10	7.527022e+00	-1.562954e+01
2.090000e-06	1.107646e-06	-1.128104e-10	7.846725e+00	-1.221176e+01
2.100000e-06	1.152682e-06	-6.350215e-11	8.165769e+00	-8.778270e+00
2.110000e-06	1.197532e-06	-1.643753e-11	8.483488e+00	-5.332107e+00
2.120000e-06	1.242273e-06	3.297948e-11	8.800445e+00	-1.876200e+00
2.130000e-06	1.286911e-06	8.654094e-11	9.116667e+00	1.586644e+00
2.140000e-06	1.331429e-06	1.418811e-10	9.432040e+00	5.053734e+00
2.150000e-06	1.375862e-06	1.978710e-10	9.746809e+00	8.522496e+00
2.160000e-06	1.420203e-06	2.531707e-10	1.006093e+01	1.199046e+01
2.170000e-06	1.464468e-06	3.048289e-10	1.037450e+01	1.545527e+01
2.180000e-06	1.508711e-06	3.535001e-10	1.068793e+01	1.891465e+01
2.190000e-06	1.552889e-06	4.024025e-10	1.100089e+01	2.236638e+01
2.200000e-06	1.596986e-06	4.529478e-10	1.131328e+01	2.580833e+01
2.210000e-06	1.641017e-06	5.032437e-10	1.162520e+01	2.923839e+01
2.220000e-06	1.684947e-06	5.549613e-10	1.193641e+01	3.265450e+01
2.230000e-06	1.728851e-06	6.080472e-10	1.224743e+01	3.605457e+01
2.240000e-06	1.772726e-06	6.604692e-10	1.255825e+01	3.943655e+01
2.250000e-06	1.816536e-06	7.084152e-10	1.286861e+01	4.279834e+01
2.260000e-06	1.860308e-06	7.544450e-10	1.317869e+01	4.613782e+01
2.270000e-06	1.903937e-06	8.021944e-10	1.348777e+01	4.945281e+01
2.280000e-06	1.947456e-06	8.510262e-10	1.379606e+01	5.274111e+01
2.290000e-06	1.990826e-06	8.974832e-10	1.410330e+01	5.600045e+01
2.300000e-06	2.033993e-06	9.417594e-10	1.440910e+01	5.922850e+01
2.310000e-06	2.076907e-06	9.871076e-10	1.471311e+01	6.242289e+01
2.320000e-06	2.119535e-06	1.032326e-09	1.501509e+01	6.558121e+01
2.330000e-06	2.162032e-06	1.075978e-09	1.531615e+01	6.870099e+01
2.340000e-06	2.204283e-06	1.119319e-09	1.561546e+01	7.177977e+01
2.350000e-06	2.246174e-06	1.165011e-09	1.591222e+01	7.481507e+01
2.360000e-06	2.287746e-06	1.213312e-09	1.620673e+01	7.780442e+01
2.370000e-06	2.329004e-06	1.260999e-09	1.649900e+01	8.074539e+01
2.380000e-06	2.370019e-06	1.301952e-09	1.678956e+01	8.363562e+01
2.390000e-06	2.410787e-06	1.336625e-09	1.707836e+01	8.647280e+01
2.400000e-06	2.451283e-06	1.369933e-09	1.736525e+01	8.925477e+01
2.410000e-06	2.491592e-06	1.404068e-09	1.765080e+01	9.197947e+01
2.420000e-06	2.531772e-06	1.439563e-09	1.793544e+01	9.464500e+01
2.430000e-06	2.571833e-06	1.478503e-09	1.821924e+01	9.724968e+01
2.440000e-06	2.611821e-06	1.521152e-09	1.850252e+01	9.979198e+01
2.450000e-06	2.651717e-06	1.564841e-09	1.878515e+01	1.022706e+02
2.460000e-06	2.691487e-06	1.602001e-09	1.906689e+01	1.046846e+02
2.470000e-06	2.731136e-06	1.631566e-09	1.934777e+01	1.070331e+02
2.480000e-06	2.770646e-06	1.656550e-09	1.962766e+01	1.093156e+02
2.490000e-06	2.809918e-06	1.680704e-09	1.990587e+01	1.115319e+02
2.500000e-06	2.848906e-06	1.708011e-09	2.018207e+01	1.136820e+02
2.510000e-06	2.887645e-06	1.739083e-09	2.045650e+01	1.157662e+02
2.520000e-06	2.926241e-06	1.773423e-09	2.072991e+01	1.177850e+02
2.530000e-06	2.964696e-06	1.808330e-09	2.100234e+01	1.197393e+02
2.540000e-06	3.002936e-06	1.838697e-09	2.127323e+01	1.216302e+02
2.550000e-06	3.041009e-06	1.863360e-09	2.154295e+01	1.234590e+02
2.560000e-06	3.078855e-06	1.886436e-09	2.181106e+01	1.252271e+02
2.570000e-06	3.116518e-06	1.910089e-09	2.207787e+01	1.269361e+02
2.580000e-06	3.153952e-06	1.932418e-09	2.234305e+01	1.285880e+02
2.590000e-06	3.191155e-06	1.952541e-09	2.260661e+01	1.301847e+02
2.600000e-06	3.228220e-06	1.974762e-09	2.286918e+01	1.317281e+02
2.610000e-06	3.264998e-06	1.999852e-09	2.312972e+01	1.332204e+02
2.620000e-06	3.301476e-06	2.024728e-09	2.338814e+01	1.346637e+02
2.630000e-06	3.337777e-06	2.046878e-09	2.364530e+01	1.360602e+02
2.640000e-06	3.373942e-06	2.068404e-09	2.390150e+01	1.374118e+02
2.650000e-06	3.410002e-06	2.088975e-09	2.415695e+01	1.387206e+02
2.660000e-06	3.445907e-06	2.105438e-09	2.441131e+01	1.399887e+02
2.670000e-06	3.481660e-06	2.119421e-09	2.466459e+01	1.412178e+02
2.680000e-06	3.517250e-06	2.134113e-09	2.491671e+01	1.424096e+02
2.690000e-06	3.552584e-06	2.150206e-09	2.516702e+01	1.435658e+02
2.700000e-06	3.587673e-06	2.164865e-09	2.541560e+01	1.446878e+02
2.710000e-06	3.622431e-06	2.176988e-09	2.566183e+01	1.457769e+02
2.720000e-06	3.656621e-06	2.192038e-09	2.590403e+01	1.468342e+02
2.730000e-06	3.690208e-06	2.213013e-09	2.614197e+01	1.478607e+02
2.740000e-06	3.723382e-06	2.234266e-09	2.637698e+01	1.488572e+02
2.750000e-06	3.756250e-06	2.250328e-09	2.660982e+01	1.498244e+02
2.760000e-06	3.788867e-06	2.263760e-09	2.684088e+01	1.507628e+02
2.770000e-06	3.821191e-06	2.275913e-09	2.706987e+01	1.516730e+02
2.780000e-06	3.853271e-06	2.286380e-09	2.729714e+01	1.525552e+02
2.790000e-06	3.885203e-06	2.294244e-09	2.752334e+01	1.534097e+02
2.800000e-06	3.916947e-06	2.303134e-09	2.774823e+01	1.542366e+02
2.810000e-06	3.948474e-06	2.318507e-09	2.797156e+01	1.550362e+02
2.820000e-06	3.979715e-06	2.336996e-09	2.819288e+01	1.558086e+02
2.830000e-06	4.010692e-06	2.352835e-09	2.841233e+01	1.565539e+02
2.840000e-06	4.041441e-06	2.364186e-09	2.863015e+01	1.572724e+02
2.850000e-06	4.071881e-06	2.372422e-09	2.884580e+01	1.579642e+02
2.860000e-06	4.102016e-06	2.382017e-09	2.905928e+01	1.586296e+02
2.870000e-06	4.131908e-06	2.390169e-09	2.927104e+01	1.592690e+02
2.880000e-06	4.161567e-06	2.395993e-09	2.948115e+01	1.598829e+02
2.890000e-06	4.191021e-06	2.402007e-09	2.968980e+01	1.604717e+02
2.900000e-06	4.220191e-06	2.410876e-09	2.989645e+01	1.610362e+02
