# Temperatura_=_17.06
# Concentracion g/m^3_=_4090.0
# C_Vs_to_Am_M_A/Vsm_=_65563218390.804596
# pendiente_HvsI_1/m_=_3716.3
# ordenada_HvsI_A/m_=_1297.0
# frecuencia_Hz_=_135077.82843959486

Tiempo_(s)	Campo_(V.s)	Magnetizacion_(V.s)	Campo_(kA/m)	Magnetizacion_(A/m)
0.000000e+00	-5.394892e-06	-2.670812e-09	-3.838316e+01	-1.718919e+02
1.000000e-08	-5.394923e-06	-2.670267e-09	-3.838338e+01	-1.718773e+02
2.000000e-08	-5.394719e-06	-2.670259e-09	-3.838193e+01	-1.718633e+02
3.000000e-08	-5.394268e-06	-2.671478e-09	-3.837872e+01	-1.718507e+02
4.000000e-08	-5.393425e-06	-2.670050e-09	-3.837272e+01	-1.718409e+02
5.000000e-08	-5.391990e-06	-2.668896e-09	-3.836251e+01	-1.718351e+02
6.000000e-08	-5.390017e-06	-2.678298e-09	-3.834847e+01	-1.718343e+02
7.000000e-08	-5.387450e-06	-2.684118e-09	-3.833021e+01	-1.718399e+02
8.000000e-08	-5.384234e-06	-2.652030e-09	-3.830733e+01	-1.718528e+02
9.000000e-08	-5.380549e-06	-2.621141e-09	-3.828111e+01	-1.718743e+02
1.000000e-07	-5.376477e-06	-2.657546e-09	-3.825214e+01	-1.719051e+02
1.100000e-07	-5.372157e-06	-2.726469e-09	-3.822141e+01	-1.719462e+02
1.200000e-07	-5.367653e-06	-2.672680e-09	-3.818936e+01	-1.719982e+02
1.300000e-07	-5.362883e-06	-2.573649e-09	-3.815542e+01	-1.720615e+02
1.400000e-07	-5.357775e-06	-2.623216e-09	-3.811908e+01	-1.721365e+02
1.500000e-07	-5.352261e-06	-2.707403e-09	-3.807985e+01	-1.722232e+02
1.600000e-07	-5.346322e-06	-2.672479e-09	-3.803759e+01	-1.723215e+02
1.700000e-07	-5.339966e-06	-2.574121e-09	-3.799237e+01	-1.724311e+02
1.800000e-07	-5.333266e-06	-2.614454e-09	-3.794471e+01	-1.725513e+02
1.900000e-07	-5.326299e-06	-2.716057e-09	-3.789514e+01	-1.726814e+02
2.000000e-07	-5.318949e-06	-2.680780e-09	-3.784284e+01	-1.728204e+02
2.100000e-07	-5.311337e-06	-2.623208e-09	-3.778869e+01	-1.729669e+02
2.200000e-07	-5.303492e-06	-2.661276e-09	-3.773287e+01	-1.731197e+02
2.300000e-07	-5.295297e-06	-2.720587e-09	-3.767457e+01	-1.732771e+02
2.400000e-07	-5.286757e-06	-2.666914e-09	-3.761381e+01	-1.734374e+02
2.500000e-07	-5.277648e-06	-2.645349e-09	-3.754900e+01	-1.735987e+02
2.600000e-07	-5.267794e-06	-2.710984e-09	-3.747889e+01	-1.737593e+02
2.700000e-07	-5.257304e-06	-2.720360e-09	-3.740426e+01	-1.739170e+02
2.800000e-07	-5.246394e-06	-2.649260e-09	-3.732663e+01	-1.740698e+02
2.900000e-07	-5.235073e-06	-2.681480e-09	-3.724609e+01	-1.742158e+02
3.000000e-07	-5.223394e-06	-2.743077e-09	-3.716300e+01	-1.743530e+02
3.100000e-07	-5.211380e-06	-2.690275e-09	-3.707752e+01	-1.744794e+02
3.200000e-07	-5.198979e-06	-2.646577e-09	-3.698929e+01	-1.745934e+02
3.300000e-07	-5.186149e-06	-2.701587e-09	-3.689801e+01	-1.746931e+02
3.400000e-07	-5.172868e-06	-2.722817e-09	-3.680352e+01	-1.747771e+02
3.500000e-07	-5.159207e-06	-2.672663e-09	-3.670632e+01	-1.748441e+02
3.600000e-07	-5.145190e-06	-2.679777e-09	-3.660660e+01	-1.748929e+02
3.700000e-07	-5.130695e-06	-2.700282e-09	-3.650347e+01	-1.749226e+02
3.800000e-07	-5.115642e-06	-2.677458e-09	-3.639637e+01	-1.749325e+02
3.900000e-07	-5.099877e-06	-2.670721e-09	-3.628421e+01	-1.749221e+02
4.000000e-07	-5.083578e-06	-2.691778e-09	-3.616825e+01	-1.748912e+02
4.100000e-07	-5.067006e-06	-2.671374e-09	-3.605034e+01	-1.748397e+02
4.200000e-07	-5.050166e-06	-2.658111e-09	-3.593053e+01	-1.747680e+02
4.300000e-07	-5.033075e-06	-2.684374e-09	-3.580893e+01	-1.746765e+02
4.400000e-07	-5.015669e-06	-2.679562e-09	-3.568509e+01	-1.745657e+02
4.500000e-07	-4.998005e-06	-2.636605e-09	-3.555941e+01	-1.744366e+02
4.600000e-07	-4.980019e-06	-2.649817e-09	-3.543145e+01	-1.742901e+02
4.700000e-07	-4.961604e-06	-2.677594e-09	-3.530043e+01	-1.741275e+02
4.800000e-07	-4.942747e-06	-2.669474e-09	-3.516627e+01	-1.739499e+02
4.900000e-07	-4.923523e-06	-2.650724e-09	-3.502950e+01	-1.737587e+02
5.000000e-07	-4.903965e-06	-2.653767e-09	-3.489035e+01	-1.735553e+02
5.100000e-07	-4.884150e-06	-2.649125e-09	-3.474937e+01	-1.733413e+02
5.200000e-07	-4.864140e-06	-2.645204e-09	-3.460701e+01	-1.731181e+02
5.300000e-07	-4.843881e-06	-2.638885e-09	-3.446287e+01	-1.728872e+02
5.400000e-07	-4.823285e-06	-2.630277e-09	-3.431634e+01	-1.726500e+02
5.500000e-07	-4.802353e-06	-2.634427e-09	-3.416741e+01	-1.724078e+02
5.600000e-07	-4.781082e-06	-2.653666e-09	-3.401607e+01	-1.721620e+02
5.700000e-07	-4.759475e-06	-2.645977e-09	-3.386234e+01	-1.719137e+02
5.800000e-07	-4.737528e-06	-2.628117e-09	-3.370620e+01	-1.716640e+02
5.900000e-07	-4.715186e-06	-2.622394e-09	-3.354724e+01	-1.714139e+02
6.000000e-07	-4.692609e-06	-2.624876e-09	-3.338661e+01	-1.711640e+02
6.100000e-07	-4.669791e-06	-2.618148e-09	-3.322427e+01	-1.709150e+02
6.200000e-07	-4.646541e-06	-2.607755e-09	-3.305885e+01	-1.706675e+02
6.300000e-07	-4.622959e-06	-2.602786e-09	-3.289107e+01	-1.704217e+02
6.400000e-07	-4.599146e-06	-2.607169e-09	-3.272164e+01	-1.701779e+02
6.500000e-07	-4.575169e-06	-2.609583e-09	-3.255106e+01	-1.699361e+02
6.600000e-07	-4.551030e-06	-2.599928e-09	-3.237932e+01	-1.696962e+02
6.700000e-07	-4.526615e-06	-2.590263e-09	-3.220561e+01	-1.694579e+02
6.800000e-07	-4.501817e-06	-2.590926e-09	-3.202918e+01	-1.692211e+02
6.900000e-07	-4.476522e-06	-2.593411e-09	-3.184921e+01	-1.689853e+02
7.000000e-07	-4.450605e-06	-2.582545e-09	-3.166482e+01	-1.687499e+02
7.100000e-07	-4.424039e-06	-2.569789e-09	-3.147581e+01	-1.685144e+02
7.200000e-07	-4.397071e-06	-2.563961e-09	-3.128394e+01	-1.682783e+02
7.300000e-07	-4.369817e-06	-2.568861e-09	-3.109004e+01	-1.680408e+02
7.400000e-07	-4.342218e-06	-2.566487e-09	-3.089367e+01	-1.678014e+02
7.500000e-07	-4.314375e-06	-2.556775e-09	-3.069558e+01	-1.675594e+02
7.600000e-07	-4.286399e-06	-2.549063e-09	-3.049654e+01	-1.673141e+02
7.700000e-07	-4.258251e-06	-2.550654e-09	-3.029627e+01	-1.670649e+02
7.800000e-07	-4.229836e-06	-2.545968e-09	-3.009411e+01	-1.668113e+02
7.900000e-07	-4.201143e-06	-2.535352e-09	-2.988997e+01	-1.665527e+02
8.000000e-07	-4.172177e-06	-2.522455e-09	-2.968388e+01	-1.662888e+02
8.100000e-07	-4.142899e-06	-2.519356e-09	-2.947558e+01	-1.660189e+02
8.200000e-07	-4.113334e-06	-2.518968e-09	-2.926523e+01	-1.657429e+02
8.300000e-07	-4.083532e-06	-2.517538e-09	-2.905320e+01	-1.654605e+02
8.400000e-07	-4.053521e-06	-2.510433e-09	-2.883968e+01	-1.651714e+02
8.500000e-07	-4.023192e-06	-2.507367e-09	-2.862389e+01	-1.648754e+02
8.600000e-07	-3.992481e-06	-2.503636e-09	-2.840539e+01	-1.645726e+02
8.700000e-07	-3.961559e-06	-2.494480e-09	-2.818539e+01	-1.642629e+02
8.800000e-07	-3.930513e-06	-2.478259e-09	-2.796451e+01	-1.639463e+02
8.900000e-07	-3.899224e-06	-2.468296e-09	-2.774189e+01	-1.636229e+02
9.000000e-07	-3.867668e-06	-2.467244e-09	-2.751738e+01	-1.632928e+02
9.100000e-07	-3.835883e-06	-2.466954e-09	-2.729124e+01	-1.629562e+02
9.200000e-07	-3.803854e-06	-2.462473e-09	-2.706336e+01	-1.626132e+02
9.300000e-07	-3.771658e-06	-2.456941e-09	-2.683430e+01	-1.622642e+02
9.400000e-07	-3.739312e-06	-2.454087e-09	-2.660416e+01	-1.619091e+02
9.500000e-07	-3.706662e-06	-2.450347e-09	-2.637187e+01	-1.615484e+02
9.600000e-07	-3.673624e-06	-2.441655e-09	-2.613681e+01	-1.611823e+02
9.700000e-07	-3.640058e-06	-2.429921e-09	-2.589800e+01	-1.608108e+02
9.800000e-07	-3.605944e-06	-2.421764e-09	-2.565529e+01	-1.604344e+02
9.900000e-07	-3.571488e-06	-2.416060e-09	-2.541014e+01	-1.600531e+02
1.000000e-06	-3.536627e-06	-2.412402e-09	-2.516212e+01	-1.596671e+02
1.010000e-06	-3.501435e-06	-2.407673e-09	-2.491173e+01	-1.592767e+02
1.020000e-06	-3.465983e-06	-2.404652e-09	-2.465951e+01	-1.588820e+02
1.030000e-06	-3.430271e-06	-2.399941e-09	-2.440543e+01	-1.584831e+02
1.040000e-06	-3.394440e-06	-2.393409e-09	-2.415050e+01	-1.580802e+02
1.050000e-06	-3.358524e-06	-2.382600e-09	-2.389497e+01	-1.576733e+02
1.060000e-06	-3.322506e-06	-2.371957e-09	-2.363870e+01	-1.572626e+02
1.070000e-06	-3.286282e-06	-2.360485e-09	-2.338098e+01	-1.568481e+02
1.080000e-06	-3.249818e-06	-2.349961e-09	-2.312155e+01	-1.564298e+02
1.090000e-06	-3.213154e-06	-2.340856e-09	-2.286070e+01	-1.560078e+02
1.100000e-06	-3.176217e-06	-2.336482e-09	-2.259790e+01	-1.555821e+02
1.110000e-06	-3.139002e-06	-2.334875e-09	-2.233313e+01	-1.551527e+02
1.120000e-06	-3.101603e-06	-2.333780e-09	-2.206704e+01	-1.547197e+02
1.130000e-06	-3.064035e-06	-2.327438e-09	-2.179976e+01	-1.542828e+02
1.140000e-06	-3.026253e-06	-2.318330e-09	-2.153095e+01	-1.538422e+02
1.150000e-06	-2.988307e-06	-2.309709e-09	-2.126098e+01	-1.533977e+02
1.160000e-06	-2.950167e-06	-2.301574e-09	-2.098962e+01	-1.529491e+02
1.170000e-06	-2.911761e-06	-2.290679e-09	-2.071637e+01	-1.524965e+02
1.180000e-06	-2.873165e-06	-2.278811e-09	-2.044177e+01	-1.520395e+02
1.190000e-06	-2.834338e-06	-2.271602e-09	-2.016553e+01	-1.515781e+02
1.200000e-06	-2.795281e-06	-2.268445e-09	-1.988765e+01	-1.511118e+02
1.210000e-06	-2.756038e-06	-2.262021e-09	-1.960845e+01	-1.506406e+02
1.220000e-06	-2.716564e-06	-2.251855e-09	-1.932760e+01	-1.501639e+02
1.230000e-06	-2.676894e-06	-2.243373e-09	-1.904536e+01	-1.496815e+02
1.240000e-06	-2.637110e-06	-2.237735e-09	-1.876231e+01	-1.491929e+02
1.250000e-06	-2.597230e-06	-2.230528e-09	-1.847857e+01	-1.486976e+02
1.260000e-06	-2.557281e-06	-2.219644e-09	-1.819435e+01	-1.481950e+02
1.270000e-06	-2.517274e-06	-2.209729e-09	-1.790970e+01	-1.476846e+02
1.280000e-06	-2.477138e-06	-2.202497e-09	-1.762415e+01	-1.471657e+02
1.290000e-06	-2.436899e-06	-2.196444e-09	-1.733786e+01	-1.466376e+02
1.300000e-06	-2.396525e-06	-2.185040e-09	-1.705061e+01	-1.460995e+02
1.310000e-06	-2.355931e-06	-2.172107e-09	-1.676180e+01	-1.455507e+02
1.320000e-06	-2.315143e-06	-2.162231e-09	-1.647160e+01	-1.449904e+02
1.330000e-06	-2.274110e-06	-2.153285e-09	-1.617966e+01	-1.444176e+02
1.340000e-06	-2.232840e-06	-2.144929e-09	-1.588604e+01	-1.438316e+02
1.350000e-06	-2.191234e-06	-2.136200e-09	-1.559002e+01	-1.432314e+02
1.360000e-06	-2.149342e-06	-2.127911e-09	-1.529197e+01	-1.426162e+02
1.370000e-06	-2.107260e-06	-2.120894e-09	-1.499257e+01	-1.419851e+02
1.380000e-06	-2.064829e-06	-2.110224e-09	-1.469069e+01	-1.413373e+02
1.390000e-06	-2.021986e-06	-2.091671e-09	-1.438587e+01	-1.406719e+02
1.400000e-06	-1.978953e-06	-2.072955e-09	-1.407970e+01	-1.399882e+02
1.410000e-06	-1.935884e-06	-2.060228e-09	-1.377328e+01	-1.392854e+02
1.420000e-06	-1.892638e-06	-2.046767e-09	-1.346559e+01	-1.385629e+02
1.430000e-06	-1.849177e-06	-2.034496e-09	-1.315638e+01	-1.378201e+02
1.440000e-06	-1.805579e-06	-2.027591e-09	-1.284620e+01	-1.370564e+02
1.450000e-06	-1.761927e-06	-2.024044e-09	-1.253562e+01	-1.362714e+02
1.460000e-06	-1.718211e-06	-2.015905e-09	-1.222459e+01	-1.354646e+02
1.470000e-06	-1.674380e-06	-1.998205e-09	-1.191275e+01	-1.346358e+02
1.480000e-06	-1.630491e-06	-1.974549e-09	-1.160049e+01	-1.337846e+02
1.490000e-06	-1.586555e-06	-1.953662e-09	-1.128790e+01	-1.329109e+02
1.500000e-06	-1.542563e-06	-1.934664e-09	-1.097491e+01	-1.320145e+02
1.510000e-06	-1.498516e-06	-1.917027e-09	-1.066152e+01	-1.310954e+02
1.520000e-06	-1.454398e-06	-1.902345e-09	-1.034764e+01	-1.301533e+02
1.530000e-06	-1.410238e-06	-1.892655e-09	-1.003345e+01	-1.291883e+02
1.540000e-06	-1.365996e-06	-1.886072e-09	-9.718679e+00	-1.282004e+02
1.550000e-06	-1.321638e-06	-1.876043e-09	-9.403085e+00	-1.271894e+02
1.560000e-06	-1.277128e-06	-1.859773e-09	-9.086412e+00	-1.261552e+02
1.570000e-06	-1.232524e-06	-1.840878e-09	-8.769069e+00	-1.250977e+02
1.580000e-06	-1.187862e-06	-1.819298e-09	-8.451306e+00	-1.240167e+02
1.590000e-06	-1.143161e-06	-1.795077e-09	-8.133270e+00	-1.229118e+02
1.600000e-06	-1.098456e-06	-1.773101e-09	-7.815207e+00	-1.217826e+02
1.610000e-06	-1.053580e-06	-1.756966e-09	-7.495932e+00	-1.206286e+02
1.620000e-06	-1.008579e-06	-1.747035e-09	-7.175759e+00	-1.194490e+02
1.630000e-06	-9.635530e-07	-1.734516e-09	-6.855412e+00	-1.182431e+02
1.640000e-06	-9.184014e-07	-1.714815e-09	-6.534171e+00	-1.170099e+02
1.650000e-06	-8.731775e-07	-1.692448e-09	-6.212416e+00	-1.157483e+02
1.660000e-06	-8.278925e-07	-1.672277e-09	-5.890225e+00	-1.144569e+02
1.670000e-06	-7.824942e-07	-1.650126e-09	-5.567229e+00	-1.131343e+02
1.680000e-06	-7.370676e-07	-1.624190e-09	-5.244031e+00	-1.117789e+02
1.690000e-06	-6.915868e-07	-1.598096e-09	-4.920448e+00	-1.103888e+02
1.700000e-06	-6.460639e-07	-1.578483e-09	-4.596565e+00	-1.089622e+02
1.710000e-06	-6.005348e-07	-1.563010e-09	-4.272638e+00	-1.074970e+02
1.720000e-06	-5.549683e-07	-1.541781e-09	-3.948445e+00	-1.059912e+02
1.730000e-06	-5.093819e-07	-1.518123e-09	-3.624111e+00	-1.044423e+02
1.740000e-06	-4.636674e-07	-1.497935e-09	-3.298865e+00	-1.028483e+02
1.750000e-06	-4.178855e-07	-1.478230e-09	-2.973139e+00	-1.012068e+02
1.760000e-06	-3.721908e-07	-1.453515e-09	-2.648034e+00	-9.951543e+01
1.770000e-06	-3.264702e-07	-1.423764e-09	-2.322745e+00	-9.777197e+01
1.780000e-06	-2.807018e-07	-1.395659e-09	-1.997115e+00	-9.597421e+01
1.790000e-06	-2.349663e-07	-1.368895e-09	-1.671720e+00	-9.412004e+01
1.800000e-06	-1.892237e-07	-1.338978e-09	-1.346274e+00	-9.220748e+01
1.810000e-06	-1.434549e-07	-1.308495e-09	-1.020642e+00	-9.023473e+01
1.820000e-06	-9.770361e-08	-1.281908e-09	-6.951341e-01	-8.820016e+01
1.830000e-06	-5.193400e-08	-1.257114e-09	-3.694960e-01	-8.610238e+01
1.840000e-06	-6.159270e-09	-1.229210e-09	-4.382149e-02	-8.394024e+01
1.850000e-06	3.957283e-08	-1.194479e-09	2.815497e-01	-8.171288e+01
1.860000e-06	8.528941e-08	-1.156182e-09	6.068105e-01	-7.941969e+01
1.870000e-06	1.310052e-07	-1.118894e-09	9.320657e-01	-7.706041e+01
1.880000e-06	1.767808e-07	-1.079586e-09	1.257746e+00	-7.463507e+01
1.890000e-06	2.225964e-07	-1.039202e-09	1.583711e+00	-7.214402e+01
1.900000e-06	2.683091e-07	-1.003032e-09	1.908944e+00	-6.958796e+01
1.910000e-06	3.139632e-07	-9.701237e-10	2.233761e+00	-6.696788e+01
1.920000e-06	3.596473e-07	-9.346342e-10	2.558791e+00	-6.428509e+01
1.930000e-06	4.053260e-07	-8.944872e-10	2.883782e+00	-6.154122e+01
1.940000e-06	4.510079e-07	-8.523649e-10	3.208796e+00	-5.873815e+01
1.950000e-06	4.966980e-07	-8.101474e-10	3.533868e+00	-5.587806e+01
1.960000e-06	5.423384e-07	-7.656946e-10	3.858587e+00	-5.296334e+01
1.970000e-06	5.878637e-07	-7.168628e-10	4.182487e+00	-4.999661e+01
1.980000e-06	6.333214e-07	-6.666053e-10	4.505906e+00	-4.698066e+01
1.990000e-06	6.787722e-07	-6.224309e-10	4.829276e+00	-4.391846e+01
2.000000e-06	7.242012e-07	-5.830501e-10	5.152490e+00	-4.081307e+01
2.010000e-06	7.695733e-07	-5.419856e-10	5.475300e+00	-3.766766e+01
2.020000e-06	8.148218e-07	-4.947012e-10	5.797231e+00	-3.448544e+01
2.030000e-06	8.599597e-07	-4.428672e-10	6.118375e+00	-3.126967e+01
2.040000e-06	9.050365e-07	-3.912686e-10	6.439083e+00	-2.802360e+01
2.050000e-06	9.501114e-07	-3.387801e-10	6.759779e+00	-2.475042e+01
2.060000e-06	9.951444e-07	-2.848210e-10	7.080176e+00	-2.145330e+01
2.070000e-06	1.040048e-06	-2.349488e-10	7.399656e+00	-1.813533e+01
2.080000e-06	1.084848e-06	-1.909614e-10	7.718391e+00	-1.479948e+01
2.090000e-06	1.129542e-06	-1.489777e-10	8.036377e+00	-1.144863e+01
2.100000e-06	1.174099e-06	-1.039196e-10	8.353385e+00	-8.085538e+00
2.110000e-06	1.218562e-06	-5.295717e-11	8.669733e+00	-4.712831e+00
2.120000e-06	1.262991e-06	6.678710e-13	8.985829e+00	-1.333009e+00
2.130000e-06	1.307331e-06	5.574187e-11	9.301297e+00	2.051559e+00
2.140000e-06	1.351592e-06	1.116961e-10	9.616201e+00	5.438625e+00
2.150000e-06	1.395826e-06	1.660144e-10	9.930911e+00	8.826053e+00
2.160000e-06	1.439994e-06	2.148472e-10	1.024516e+01	1.221181e+01
2.170000e-06	1.484091e-06	2.589623e-10	1.055889e+01	1.559395e+01
2.180000e-06	1.528109e-06	3.046835e-10	1.087207e+01	1.897060e+01
2.190000e-06	1.572060e-06	3.552847e-10	1.118477e+01	2.233994e+01
2.200000e-06	1.616000e-06	4.061738e-10	1.149739e+01	2.570018e+01
2.210000e-06	1.659912e-06	4.559222e-10	1.180981e+01	2.904955e+01
2.220000e-06	1.703775e-06	5.073088e-10	1.212189e+01	3.238626e+01
2.230000e-06	1.747569e-06	5.586698e-10	1.243347e+01	3.570851e+01
2.240000e-06	1.791185e-06	6.068835e-10	1.274378e+01	3.901447e+01
2.250000e-06	1.834654e-06	6.538794e-10	1.305305e+01	4.230224e+01
2.260000e-06	1.878031e-06	7.019698e-10	1.336167e+01	4.556986e+01
2.270000e-06	1.921292e-06	7.499499e-10	1.366946e+01	4.881528e+01
2.280000e-06	1.964407e-06	7.970501e-10	1.397621e+01	5.203640e+01
2.290000e-06	2.007318e-06	8.434955e-10	1.428151e+01	5.523101e+01
2.300000e-06	2.050034e-06	8.898688e-10	1.458543e+01	5.839682e+01
2.310000e-06	2.092449e-06	9.355714e-10	1.488719e+01	6.153149e+01
2.320000e-06	2.134567e-06	9.793345e-10	1.518685e+01	6.463258e+01
2.330000e-06	2.176511e-06	1.021059e-09	1.548527e+01	6.769761e+01
2.340000e-06	2.218183e-06	1.063985e-09	1.578176e+01	7.072407e+01
2.350000e-06	2.259500e-06	1.109493e-09	1.607572e+01	7.370943e+01
2.360000e-06	2.300538e-06	1.153835e-09	1.636769e+01	7.665116e+01
2.370000e-06	2.341389e-06	1.193410e-09	1.665833e+01	7.954675e+01
2.380000e-06	2.382063e-06	1.230535e-09	1.694772e+01	8.239376e+01
2.390000e-06	2.422494e-06	1.268181e-09	1.723537e+01	8.518982e+01
2.400000e-06	2.462785e-06	1.304095e-09	1.752203e+01	8.793268e+01
2.410000e-06	2.502983e-06	1.336407e-09	1.780803e+01	9.062022e+01
2.420000e-06	2.543031e-06	1.369690e-09	1.809296e+01	9.325049e+01
2.430000e-06	2.582985e-06	1.410775e-09	1.837722e+01	9.582171e+01
2.440000e-06	2.622833e-06	1.455591e-09	1.866073e+01	9.833234e+01
2.450000e-06	2.662550e-06	1.492448e-09	1.894330e+01	1.007810e+02
2.460000e-06	2.702128e-06	1.522630e-09	1.922489e+01	1.031668e+02
2.470000e-06	2.741524e-06	1.551577e-09	1.950518e+01	1.054886e+02
2.480000e-06	2.780736e-06	1.580533e-09	1.978417e+01	1.077462e+02
2.490000e-06	2.819798e-06	1.608279e-09	2.006208e+01	1.099391e+02
2.500000e-06	2.858625e-06	1.635697e-09	2.033832e+01	1.120674e+02
2.510000e-06	2.897196e-06	1.668680e-09	2.061274e+01	1.141314e+02
2.520000e-06	2.935563e-06	1.706414e-09	2.088571e+01	1.161316e+02
2.530000e-06	2.973733e-06	1.737760e-09	2.115728e+01	1.180688e+02
2.540000e-06	3.011631e-06	1.760533e-09	2.142692e+01	1.199440e+02
2.550000e-06	3.049302e-06	1.783745e-09	2.169494e+01	1.217586e+02
2.560000e-06	3.086884e-06	1.809938e-09	2.196232e+01	1.235140e+02
2.570000e-06	3.124286e-06	1.832512e-09	2.222842e+01	1.252117e+02
2.580000e-06	3.161408e-06	1.849646e-09	2.249254e+01	1.268536e+02
2.590000e-06	3.198296e-06	1.870082e-09	2.275499e+01	1.284415e+02
2.600000e-06	3.235022e-06	1.898199e-09	2.301628e+01	1.299773e+02
2.610000e-06	3.271513e-06	1.926904e-09	2.327590e+01	1.314630e+02
2.620000e-06	3.307791e-06	1.948437e-09	2.353401e+01	1.329007e+02
2.630000e-06	3.343914e-06	1.965492e-09	2.379102e+01	1.342922e+02
2.640000e-06	3.379859e-06	1.984989e-09	2.404676e+01	1.356397e+02
2.650000e-06	3.415625e-06	2.004754e-09	2.430123e+01	1.369449e+02
2.660000e-06	3.451277e-06	2.019923e-09	2.455488e+01	1.382096e+02
2.670000e-06	3.486852e-06	2.034986e-09	2.480798e+01	1.394354e+02
2.680000e-06	3.522207e-06	2.055281e-09	2.505952e+01	1.406241e+02
2.690000e-06	3.557191e-06	2.079224e-09	2.530843e+01	1.417768e+02
2.700000e-06	3.591762e-06	2.096907e-09	2.555439e+01	1.428950e+02
2.710000e-06	3.625919e-06	2.107388e-09	2.579741e+01	1.439796e+02
2.720000e-06	3.659643e-06	2.119887e-09	2.603734e+01	1.450317e+02
2.730000e-06	3.692898e-06	2.138297e-09	2.627394e+01	1.460520e+02
2.740000e-06	3.725711e-06	2.156491e-09	2.650740e+01	1.470412e+02
2.750000e-06	3.758146e-06	2.171072e-09	2.673817e+01	1.479998e+02
2.760000e-06	3.790309e-06	2.187046e-09	2.696699e+01	1.489283e+02
2.770000e-06	3.822323e-06	2.203410e-09	2.719476e+01	1.498269e+02
2.780000e-06	3.854187e-06	2.216628e-09	2.742147e+01	1.506959e+02
2.790000e-06	3.885892e-06	2.227384e-09	2.764704e+01	1.515354e+02
2.800000e-06	3.917445e-06	2.241076e-09	2.787153e+01	1.523457e+02
2.810000e-06	3.948760e-06	2.257398e-09	2.809433e+01	1.531268e+02
2.820000e-06	3.979833e-06	2.268673e-09	2.831541e+01	1.538789e+02
2.830000e-06	4.010653e-06	2.276729e-09	2.853468e+01	1.546022e+02
2.840000e-06	4.041107e-06	2.284397e-09	2.875136e+01	1.552969e+02
2.850000e-06	4.071214e-06	2.293642e-09	2.896556e+01	1.559632e+02
2.860000e-06	4.101057e-06	2.303252e-09	2.917788e+01	1.566018e+02
2.870000e-06	4.130671e-06	2.315877e-09	2.938858e+01	1.572129e+02
2.880000e-06	4.160070e-06	2.332058e-09	2.959774e+01	1.577972e+02
2.890000e-06	4.189210e-06	2.345508e-09	2.980506e+01	1.583554e+02
2.900000e-06	4.217983e-06	2.355130e-09	3.000978e+01	1.588883e+02
