# Temperatura_=_19.5
# Concentracion g/m^3_=_4090.0
# C_Vs_to_Am_M_A/Vsm_=_65563218390.804596
# pendiente_HvsI_1/m_=_3716.3
# ordenada_HvsI_A/m_=_1297.0
# frecuencia_Hz_=_135074.48452344994

Tiempo_(s)	Campo_(V.s)	Magnetizacion_(V.s)	Campo_(kA/m)	Magnetizacion_(A/m)
0.000000e+00	-5.425268e-06	-2.657439e-09	-3.839994e+01	-1.728883e+02
1.000000e-08	-5.425388e-06	-2.660708e-09	-3.840079e+01	-1.728706e+02
2.000000e-08	-5.425204e-06	-2.662258e-09	-3.839949e+01	-1.728525e+02
3.000000e-08	-5.424656e-06	-2.661086e-09	-3.839561e+01	-1.728352e+02
4.000000e-08	-5.423724e-06	-2.656127e-09	-3.838901e+01	-1.728199e+02
5.000000e-08	-5.422236e-06	-2.649947e-09	-3.837848e+01	-1.728077e+02
6.000000e-08	-5.420021e-06	-2.646321e-09	-3.836280e+01	-1.728000e+02
7.000000e-08	-5.417096e-06	-2.633418e-09	-3.834210e+01	-1.727978e+02
8.000000e-08	-5.413610e-06	-2.636075e-09	-3.831743e+01	-1.728023e+02
9.000000e-08	-5.409710e-06	-2.699245e-09	-3.828982e+01	-1.728146e+02
1.000000e-07	-5.405423e-06	-2.740311e-09	-3.825948e+01	-1.728355e+02
1.100000e-07	-5.400889e-06	-2.631607e-09	-3.822739e+01	-1.728658e+02
1.200000e-07	-5.396274e-06	-2.602465e-09	-3.819472e+01	-1.729061e+02
1.300000e-07	-5.391385e-06	-2.650520e-09	-3.816012e+01	-1.729568e+02
1.400000e-07	-5.385993e-06	-2.720183e-09	-3.812195e+01	-1.730182e+02
1.500000e-07	-5.380207e-06	-2.589002e-09	-3.808100e+01	-1.730904e+02
1.600000e-07	-5.374235e-06	-2.535640e-09	-3.803873e+01	-1.731730e+02
1.700000e-07	-5.367912e-06	-2.684422e-09	-3.799397e+01	-1.732658e+02
1.800000e-07	-5.360971e-06	-2.759599e-09	-3.794484e+01	-1.733680e+02
1.900000e-07	-5.353623e-06	-2.663426e-09	-3.789284e+01	-1.734789e+02
2.000000e-07	-5.346185e-06	-2.603791e-09	-3.784019e+01	-1.735974e+02
2.100000e-07	-5.338582e-06	-2.734584e-09	-3.778638e+01	-1.737222e+02
2.200000e-07	-5.330661e-06	-2.731748e-09	-3.773031e+01	-1.738521e+02
2.300000e-07	-5.322474e-06	-2.663928e-09	-3.767237e+01	-1.739854e+02
2.400000e-07	-5.313892e-06	-2.696406e-09	-3.761163e+01	-1.741204e+02
2.500000e-07	-5.304640e-06	-2.821292e-09	-3.754614e+01	-1.742556e+02
2.600000e-07	-5.294521e-06	-2.764996e-09	-3.747452e+01	-1.743889e+02
2.700000e-07	-5.283748e-06	-2.731490e-09	-3.739826e+01	-1.745186e+02
2.800000e-07	-5.272559e-06	-2.795409e-09	-3.731907e+01	-1.746427e+02
2.900000e-07	-5.260952e-06	-2.811160e-09	-3.723691e+01	-1.747596e+02
3.000000e-07	-5.249027e-06	-2.701868e-09	-3.715251e+01	-1.748672e+02
3.100000e-07	-5.236795e-06	-2.731948e-09	-3.706593e+01	-1.749641e+02
3.200000e-07	-5.224098e-06	-2.824330e-09	-3.697606e+01	-1.750486e+02
3.300000e-07	-5.211030e-06	-2.786455e-09	-3.688357e+01	-1.751192e+02
3.400000e-07	-5.197645e-06	-2.707097e-09	-3.678883e+01	-1.751746e+02
3.500000e-07	-5.183774e-06	-2.756195e-09	-3.669065e+01	-1.752138e+02
3.600000e-07	-5.169502e-06	-2.767319e-09	-3.658964e+01	-1.752359e+02
3.700000e-07	-5.154903e-06	-2.719519e-09	-3.648630e+01	-1.752400e+02
3.800000e-07	-5.139672e-06	-2.724635e-09	-3.637849e+01	-1.752257e+02
3.900000e-07	-5.123629e-06	-2.749524e-09	-3.626495e+01	-1.751927e+02
4.000000e-07	-5.107113e-06	-2.720275e-09	-3.614804e+01	-1.751409e+02
4.100000e-07	-5.090399e-06	-2.735318e-09	-3.602974e+01	-1.750705e+02
4.200000e-07	-5.073425e-06	-2.773363e-09	-3.590960e+01	-1.749817e+02
4.300000e-07	-5.056174e-06	-2.714530e-09	-3.578750e+01	-1.748750e+02
4.400000e-07	-5.038690e-06	-2.684200e-09	-3.566375e+01	-1.747512e+02
4.500000e-07	-5.020860e-06	-2.720916e-09	-3.553755e+01	-1.746110e+02
4.600000e-07	-5.002577e-06	-2.732913e-09	-3.540814e+01	-1.744554e+02
4.700000e-07	-4.983897e-06	-2.683599e-09	-3.527592e+01	-1.742854e+02
4.800000e-07	-4.964887e-06	-2.702853e-09	-3.514137e+01	-1.741023e+02
4.900000e-07	-4.945474e-06	-2.720302e-09	-3.500397e+01	-1.739072e+02
5.000000e-07	-4.925762e-06	-2.722578e-09	-3.486445e+01	-1.737013e+02
5.100000e-07	-4.905895e-06	-2.702357e-09	-3.472383e+01	-1.734860e+02
5.200000e-07	-4.885833e-06	-2.695068e-09	-3.458183e+01	-1.732624e+02
5.300000e-07	-4.865497e-06	-2.674239e-09	-3.443789e+01	-1.730318e+02
5.400000e-07	-4.844797e-06	-2.696876e-09	-3.429137e+01	-1.727954e+02
5.500000e-07	-4.823669e-06	-2.690288e-09	-3.414183e+01	-1.725543e+02
5.600000e-07	-4.802130e-06	-2.667930e-09	-3.398938e+01	-1.723094e+02
5.700000e-07	-4.780280e-06	-2.659435e-09	-3.383473e+01	-1.720618e+02
5.800000e-07	-4.758177e-06	-2.684376e-09	-3.367828e+01	-1.718122e+02
5.900000e-07	-4.735819e-06	-2.672404e-09	-3.352003e+01	-1.715613e+02
6.000000e-07	-4.713124e-06	-2.657310e-09	-3.335940e+01	-1.713097e+02
6.100000e-07	-4.690025e-06	-2.644517e-09	-3.319590e+01	-1.710580e+02
6.200000e-07	-4.666603e-06	-2.644566e-09	-3.303012e+01	-1.708063e+02
6.300000e-07	-4.642917e-06	-2.642927e-09	-3.286248e+01	-1.705550e+02
6.400000e-07	-4.619057e-06	-2.635471e-09	-3.269359e+01	-1.703042e+02
6.500000e-07	-4.595012e-06	-2.616099e-09	-3.252340e+01	-1.700539e+02
6.600000e-07	-4.570677e-06	-2.616688e-09	-3.235116e+01	-1.698040e+02
6.700000e-07	-4.545861e-06	-2.628937e-09	-3.217552e+01	-1.695544e+02
6.800000e-07	-4.520527e-06	-2.622986e-09	-3.199620e+01	-1.693049e+02
6.900000e-07	-4.494772e-06	-2.607734e-09	-3.181391e+01	-1.690552e+02
7.000000e-07	-4.468445e-06	-2.600903e-09	-3.162756e+01	-1.688049e+02
7.100000e-07	-4.441469e-06	-2.603790e-09	-3.143663e+01	-1.685537e+02
7.200000e-07	-4.414089e-06	-2.597398e-09	-3.124284e+01	-1.683012e+02
7.300000e-07	-4.386559e-06	-2.587446e-09	-3.104797e+01	-1.680471e+02
7.400000e-07	-4.358882e-06	-2.570696e-09	-3.085208e+01	-1.677909e+02
7.500000e-07	-4.331016e-06	-2.571004e-09	-3.065484e+01	-1.675323e+02
7.600000e-07	-4.302997e-06	-2.567788e-09	-3.045653e+01	-1.672709e+02
7.700000e-07	-4.274757e-06	-2.563720e-09	-3.025664e+01	-1.670063e+02
7.800000e-07	-4.246203e-06	-2.554431e-09	-3.005454e+01	-1.667383e+02
7.900000e-07	-4.217285e-06	-2.560793e-09	-2.984986e+01	-1.664665e+02
8.000000e-07	-4.187975e-06	-2.558480e-09	-2.964240e+01	-1.661906e+02
8.100000e-07	-4.158385e-06	-2.550460e-09	-2.943297e+01	-1.659106e+02
8.200000e-07	-4.128541e-06	-2.530086e-09	-2.922173e+01	-1.656260e+02
8.300000e-07	-4.098499e-06	-2.520655e-09	-2.900909e+01	-1.653369e+02
8.400000e-07	-4.068224e-06	-2.513037e-09	-2.879481e+01	-1.650430e+02
8.500000e-07	-4.037630e-06	-2.511653e-09	-2.857827e+01	-1.647443e+02
8.600000e-07	-4.006720e-06	-2.502112e-09	-2.835948e+01	-1.644405e+02
8.700000e-07	-3.975473e-06	-2.503829e-09	-2.813832e+01	-1.641317e+02
8.800000e-07	-3.944002e-06	-2.508140e-09	-2.791557e+01	-1.638177e+02
8.900000e-07	-3.912382e-06	-2.508393e-09	-2.769176e+01	-1.634985e+02
9.000000e-07	-3.880641e-06	-2.491677e-09	-2.746710e+01	-1.631739e+02
9.100000e-07	-3.848732e-06	-2.476122e-09	-2.724125e+01	-1.628439e+02
9.200000e-07	-3.816589e-06	-2.467685e-09	-2.701374e+01	-1.625085e+02
9.300000e-07	-3.784219e-06	-2.467311e-09	-2.678463e+01	-1.621674e+02
9.400000e-07	-3.751443e-06	-2.463343e-09	-2.655264e+01	-1.618206e+02
9.500000e-07	-3.718161e-06	-2.460433e-09	-2.631707e+01	-1.614681e+02
9.600000e-07	-3.684548e-06	-2.463453e-09	-2.607916e+01	-1.611096e+02
9.700000e-07	-3.650503e-06	-2.467373e-09	-2.583819e+01	-1.607451e+02
9.800000e-07	-3.616016e-06	-2.461339e-09	-2.559409e+01	-1.603744e+02
9.900000e-07	-3.581213e-06	-2.445153e-09	-2.534776e+01	-1.599975e+02
1.000000e-06	-3.546040e-06	-2.434679e-09	-2.509880e+01	-1.596142e+02
1.010000e-06	-3.510603e-06	-2.430885e-09	-2.484798e+01	-1.592244e+02
1.020000e-06	-3.474944e-06	-2.428559e-09	-2.459558e+01	-1.588281e+02
1.030000e-06	-3.439108e-06	-2.418466e-09	-2.434194e+01	-1.584252e+02
1.040000e-06	-3.403178e-06	-2.411601e-09	-2.408762e+01	-1.580155e+02
1.050000e-06	-3.367140e-06	-2.404847e-09	-2.383255e+01	-1.575993e+02
1.060000e-06	-3.330963e-06	-2.398065e-09	-2.357649e+01	-1.571763e+02
1.070000e-06	-3.294514e-06	-2.382975e-09	-2.331850e+01	-1.567467e+02
1.080000e-06	-3.257712e-06	-2.371249e-09	-2.305802e+01	-1.563105e+02
1.090000e-06	-3.220625e-06	-2.363144e-09	-2.279552e+01	-1.558679e+02
1.100000e-06	-3.183333e-06	-2.360588e-09	-2.253157e+01	-1.554189e+02
1.110000e-06	-3.145917e-06	-2.350515e-09	-2.226674e+01	-1.549637e+02
1.120000e-06	-3.108299e-06	-2.337622e-09	-2.200048e+01	-1.545025e+02
1.130000e-06	-3.070509e-06	-2.326919e-09	-2.173300e+01	-1.540354e+02
1.140000e-06	-3.032505e-06	-2.323864e-09	-2.146401e+01	-1.535626e+02
1.150000e-06	-2.994209e-06	-2.316105e-09	-2.119295e+01	-1.530842e+02
1.160000e-06	-2.955777e-06	-2.305951e-09	-2.092093e+01	-1.526004e+02
1.170000e-06	-2.917124e-06	-2.297852e-09	-2.064735e+01	-1.521114e+02
1.180000e-06	-2.878233e-06	-2.298332e-09	-2.037208e+01	-1.516172e+02
1.190000e-06	-2.839088e-06	-2.293342e-09	-2.009501e+01	-1.511179e+02
1.200000e-06	-2.799700e-06	-2.280080e-09	-1.981622e+01	-1.506134e+02
1.210000e-06	-2.760179e-06	-2.262573e-09	-1.953649e+01	-1.501038e+02
1.220000e-06	-2.720535e-06	-2.250839e-09	-1.925589e+01	-1.495888e+02
1.230000e-06	-2.680798e-06	-2.241640e-09	-1.897463e+01	-1.490683e+02
1.240000e-06	-2.640982e-06	-2.230809e-09	-1.869282e+01	-1.485420e+02
1.250000e-06	-2.601076e-06	-2.220366e-09	-1.841036e+01	-1.480094e+02
1.260000e-06	-2.561054e-06	-2.215686e-09	-1.812709e+01	-1.474700e+02
1.270000e-06	-2.520871e-06	-2.213693e-09	-1.784268e+01	-1.469234e+02
1.280000e-06	-2.480456e-06	-2.204360e-09	-1.755662e+01	-1.463688e+02
1.290000e-06	-2.439884e-06	-2.188101e-09	-1.726945e+01	-1.458055e+02
1.300000e-06	-2.399159e-06	-2.173307e-09	-1.698120e+01	-1.452326e+02
1.310000e-06	-2.358187e-06	-2.165265e-09	-1.669120e+01	-1.446493e+02
1.320000e-06	-2.316932e-06	-2.153738e-09	-1.639920e+01	-1.440547e+02
1.330000e-06	-2.275382e-06	-2.140780e-09	-1.610511e+01	-1.434476e+02
1.340000e-06	-2.233551e-06	-2.132037e-09	-1.580903e+01	-1.428271e+02
1.350000e-06	-2.191394e-06	-2.127651e-09	-1.551064e+01	-1.421922e+02
1.360000e-06	-2.148964e-06	-2.118510e-09	-1.521033e+01	-1.415417e+02
1.370000e-06	-2.106276e-06	-2.105775e-09	-1.490818e+01	-1.408746e+02
1.380000e-06	-2.063335e-06	-2.091783e-09	-1.460424e+01	-1.401900e+02
1.390000e-06	-2.020124e-06	-2.080641e-09	-1.429840e+01	-1.394869e+02
1.400000e-06	-1.976719e-06	-2.070181e-09	-1.399118e+01	-1.387644e+02
1.410000e-06	-1.933301e-06	-2.060077e-09	-1.368387e+01	-1.380216e+02
1.420000e-06	-1.889756e-06	-2.044512e-09	-1.337565e+01	-1.372578e+02
1.430000e-06	-1.846079e-06	-2.027826e-09	-1.306651e+01	-1.364725e+02
1.440000e-06	-1.802334e-06	-2.011541e-09	-1.275688e+01	-1.356650e+02
1.450000e-06	-1.758522e-06	-1.995959e-09	-1.244678e+01	-1.348351e+02
1.460000e-06	-1.714673e-06	-1.978737e-09	-1.213642e+01	-1.339823e+02
1.470000e-06	-1.670790e-06	-1.964104e-09	-1.182582e+01	-1.331064e+02
1.480000e-06	-1.626793e-06	-1.951207e-09	-1.151441e+01	-1.322075e+02
1.490000e-06	-1.582659e-06	-1.938687e-09	-1.120203e+01	-1.312855e+02
1.500000e-06	-1.538474e-06	-1.924212e-09	-1.088929e+01	-1.303405e+02
1.510000e-06	-1.494210e-06	-1.909047e-09	-1.057599e+01	-1.293726e+02
1.520000e-06	-1.449871e-06	-1.892069e-09	-1.026216e+01	-1.283822e+02
1.530000e-06	-1.405527e-06	-1.872921e-09	-9.948289e+00	-1.273694e+02
1.540000e-06	-1.361047e-06	-1.851700e-09	-9.633466e+00	-1.263344e+02
1.550000e-06	-1.316356e-06	-1.833303e-09	-9.317144e+00	-1.252777e+02
1.560000e-06	-1.271614e-06	-1.819701e-09	-9.000457e+00	-1.241993e+02
1.570000e-06	-1.226799e-06	-1.808482e-09	-8.683256e+00	-1.230993e+02
1.580000e-06	-1.181857e-06	-1.799967e-09	-8.365163e+00	-1.219779e+02
1.590000e-06	-1.136834e-06	-1.788196e-09	-8.046492e+00	-1.208349e+02
1.600000e-06	-1.091794e-06	-1.770349e-09	-7.727696e+00	-1.196701e+02
1.610000e-06	-1.046683e-06	-1.750688e-09	-7.408400e+00	-1.184831e+02
1.620000e-06	-1.001443e-06	-1.729205e-09	-7.088193e+00	-1.172733e+02
1.630000e-06	-9.560991e-07	-1.705463e-09	-6.767251e+00	-1.160400e+02
1.640000e-06	-9.106613e-07	-1.684417e-09	-6.445643e+00	-1.147821e+02
1.650000e-06	-8.651810e-07	-1.666973e-09	-6.123734e+00	-1.134983e+02
1.660000e-06	-8.196326e-07	-1.652352e-09	-5.801343e+00	-1.121874e+02
1.670000e-06	-7.740249e-07	-1.635819e-09	-5.478533e+00	-1.108475e+02
1.680000e-06	-7.283779e-07	-1.615177e-09	-5.155444e+00	-1.094767e+02
1.690000e-06	-6.826900e-07	-1.590723e-09	-4.832066e+00	-1.080729e+02
1.700000e-06	-6.369519e-07	-1.568142e-09	-4.508333e+00	-1.066339e+02
1.710000e-06	-5.911692e-07	-1.546069e-09	-4.184284e+00	-1.051570e+02
1.720000e-06	-5.453734e-07	-1.524510e-09	-3.860142e+00	-1.036397e+02
1.730000e-06	-4.994977e-07	-1.502409e-09	-3.535435e+00	-1.020792e+02
1.740000e-06	-4.535891e-07	-1.479294e-09	-3.210495e+00	-1.004726e+02
1.750000e-06	-4.076874e-07	-1.452327e-09	-2.885604e+00	-9.881704e+01
1.760000e-06	-3.617801e-07	-1.425700e-09	-2.560673e+00	-9.710957e+01
1.770000e-06	-3.157920e-07	-1.398666e-09	-2.235169e+00	-9.534733e+01
1.780000e-06	-2.696464e-07	-1.372829e-09	-1.908552e+00	-9.352750e+01
1.790000e-06	-2.235825e-07	-1.348713e-09	-1.582512e+00	-9.164739e+01
1.800000e-06	-1.776504e-07	-1.322896e-09	-1.257406e+00	-8.970449e+01
1.810000e-06	-1.316776e-07	-1.294289e-09	-9.320113e-01	-8.769646e+01
1.820000e-06	-8.571649e-08	-1.262590e-09	-6.066996e-01	-8.562123e+01
1.830000e-06	-3.979277e-08	-1.229272e-09	-2.816524e-01	-8.347699e+01
1.840000e-06	6.193663e-09	-1.194419e-09	4.383862e-02	-8.126228e+01
1.850000e-06	5.222824e-08	-1.158928e-09	3.696704e-01	-7.897595e+01
1.860000e-06	9.826694e-08	-1.123335e-09	6.955314e-01	-7.661723e+01
1.870000e-06	1.442724e-07	-1.087643e-09	1.021157e+00	-7.418574e+01
1.880000e-06	1.902246e-07	-1.051132e-09	1.346406e+00	-7.168150e+01
1.890000e-06	2.362104e-07	-1.013778e-09	1.671892e+00	-6.910495e+01
1.900000e-06	2.821700e-07	-9.745810e-10	1.997193e+00	-6.645693e+01
1.910000e-06	3.280802e-07	-9.292477e-10	2.322145e+00	-6.373870e+01
1.920000e-06	3.740004e-07	-8.806160e-10	2.647167e+00	-6.095190e+01
1.930000e-06	4.199159e-07	-8.356788e-10	2.972156e+00	-5.809856e+01
1.940000e-06	4.657890e-07	-7.925765e-10	3.296845e+00	-5.518107e+01
1.950000e-06	5.116490e-07	-7.512592e-10	3.621441e+00	-5.220217e+01
1.960000e-06	5.574424e-07	-7.093324e-10	3.945567e+00	-4.916488e+01
1.970000e-06	6.031088e-07	-6.647818e-10	4.268792e+00	-4.607249e+01
1.980000e-06	6.487891e-07	-6.176410e-10	4.592116e+00	-4.292853e+01
1.990000e-06	6.944765e-07	-5.690176e-10	4.915491e+00	-3.973671e+01
2.000000e-06	7.401187e-07	-5.194824e-10	5.238545e+00	-3.650091e+01
2.010000e-06	7.856775e-07	-4.709887e-10	5.561010e+00	-3.322509e+01
2.020000e-06	8.311723e-07	-4.217019e-10	5.883021e+00	-2.991330e+01
2.030000e-06	8.766147e-07	-3.693101e-10	6.204661e+00	-2.656959e+01
2.040000e-06	9.219231e-07	-3.157839e-10	6.525354e+00	-2.319803e+01
2.050000e-06	9.672093e-07	-2.659073e-10	6.845888e+00	-1.980259e+01
2.060000e-06	1.012422e-06	-2.187462e-10	7.165900e+00	-1.638720e+01
2.070000e-06	1.057530e-06	-1.711655e-10	7.485177e+00	-1.295566e+01
2.080000e-06	1.102578e-06	-1.204647e-10	7.804022e+00	-9.511631e+00
2.090000e-06	1.147469e-06	-6.911753e-11	8.121763e+00	-6.058608e+00
2.100000e-06	1.192267e-06	-2.003567e-11	8.438842e+00	-2.599918e+00
2.110000e-06	1.236951e-06	3.163722e-11	8.755112e+00	8.612999e-01
2.120000e-06	1.281532e-06	8.742215e-11	9.070659e+00	4.322101e+00
2.130000e-06	1.326008e-06	1.423859e-10	9.385459e+00	7.779733e+00
2.140000e-06	1.370399e-06	1.938630e-10	9.699660e+00	1.123163e+01
2.150000e-06	1.414774e-06	2.419775e-10	1.001374e+01	1.467543e+01
2.160000e-06	1.459071e-06	2.890707e-10	1.032727e+01	1.810890e+01
2.170000e-06	1.503274e-06	3.382873e-10	1.064014e+01	2.153000e+01
2.180000e-06	1.547411e-06	3.885700e-10	1.095255e+01	2.493680e+01
2.190000e-06	1.591498e-06	4.388789e-10	1.126459e+01	2.832751e+01
2.200000e-06	1.635578e-06	4.903142e-10	1.157659e+01	3.170042e+01
2.210000e-06	1.679619e-06	5.435024e-10	1.188831e+01	3.505388e+01
2.220000e-06	1.723526e-06	5.951923e-10	1.219909e+01	3.838632e+01
2.230000e-06	1.767362e-06	6.430876e-10	1.250936e+01	4.169616e+01
2.240000e-06	1.811099e-06	6.884011e-10	1.281892e+01	4.498185e+01
2.250000e-06	1.854776e-06	7.347247e-10	1.312807e+01	4.824183e+01
2.260000e-06	1.898450e-06	7.810474e-10	1.343719e+01	5.147449e+01
2.270000e-06	1.941985e-06	8.255390e-10	1.374533e+01	5.467818e+01
2.280000e-06	1.985340e-06	8.690162e-10	1.405219e+01	5.785121e+01
2.290000e-06	2.028520e-06	9.149760e-10	1.435782e+01	6.099182e+01
2.300000e-06	2.071545e-06	9.634794e-10	1.466235e+01	6.409819e+01
2.310000e-06	2.114357e-06	1.008831e-09	1.496538e+01	6.716844e+01
2.320000e-06	2.156860e-06	1.049989e-09	1.526621e+01	7.020063e+01
2.330000e-06	2.199158e-06	1.092124e-09	1.556560e+01	7.319278e+01
2.340000e-06	2.241220e-06	1.135243e-09	1.586331e+01	7.614286e+01
2.350000e-06	2.282923e-06	1.177828e-09	1.615848e+01	7.904885e+01
2.360000e-06	2.324287e-06	1.218684e-09	1.645126e+01	8.190871e+01
2.370000e-06	2.365354e-06	1.257258e-09	1.674193e+01	8.472042e+01
2.380000e-06	2.406203e-06	1.295804e-09	1.703106e+01	8.748203e+01
2.390000e-06	2.446876e-06	1.333763e-09	1.731894e+01	9.019164e+01
2.400000e-06	2.487393e-06	1.368317e-09	1.760572e+01	9.284745e+01
2.410000e-06	2.527676e-06	1.401572e-09	1.789084e+01	9.544779e+01
2.420000e-06	2.567730e-06	1.438231e-09	1.817434e+01	9.799111e+01
2.430000e-06	2.607610e-06	1.478438e-09	1.845661e+01	1.004761e+02
2.440000e-06	2.647377e-06	1.518406e-09	1.873808e+01	1.029015e+02
2.450000e-06	2.687113e-06	1.553563e-09	1.901933e+01	1.052663e+02
2.460000e-06	2.726809e-06	1.585080e-09	1.930030e+01	1.075699e+02
2.470000e-06	2.766297e-06	1.613933e-09	1.957980e+01	1.098117e+02
2.480000e-06	2.805527e-06	1.639777e-09	1.985746e+01	1.119914e+02
2.490000e-06	2.844652e-06	1.665810e-09	2.013439e+01	1.141090e+02
2.500000e-06	2.883657e-06	1.695539e-09	2.041046e+01	1.161646e+02
2.510000e-06	2.922404e-06	1.729559e-09	2.068472e+01	1.181588e+02
2.520000e-06	2.960849e-06	1.763999e-09	2.095683e+01	1.200922e+02
2.530000e-06	2.999124e-06	1.793992e-09	2.122774e+01	1.219657e+02
2.540000e-06	3.037239e-06	1.820886e-09	2.149752e+01	1.237804e+02
2.550000e-06	3.075112e-06	1.847367e-09	2.176559e+01	1.255375e+02
2.560000e-06	3.112816e-06	1.872115e-09	2.203245e+01	1.272384e+02
2.570000e-06	3.150359e-06	1.890929e-09	2.229818e+01	1.288848e+02
2.580000e-06	3.187675e-06	1.908369e-09	2.256230e+01	1.304783e+02
2.590000e-06	3.224781e-06	1.930652e-09	2.282494e+01	1.320205e+02
2.600000e-06	3.261650e-06	1.956430e-09	2.308590e+01	1.335134e+02
2.610000e-06	3.298295e-06	1.981251e-09	2.334526e+01	1.349586e+02
2.620000e-06	3.334702e-06	2.004233e-09	2.360296e+01	1.363579e+02
2.630000e-06	3.370846e-06	2.028454e-09	2.385878e+01	1.377132e+02
2.640000e-06	3.406862e-06	2.050017e-09	2.411370e+01	1.390260e+02
2.650000e-06	3.442752e-06	2.064038e-09	2.436773e+01	1.402981e+02
2.660000e-06	3.478444e-06	2.075017e-09	2.462036e+01	1.415308e+02
2.670000e-06	3.513975e-06	2.089695e-09	2.487184e+01	1.427256e+02
2.680000e-06	3.549333e-06	2.106591e-09	2.512211e+01	1.438838e+02
2.690000e-06	3.584435e-06	2.122387e-09	2.537056e+01	1.450064e+02
2.700000e-06	3.619137e-06	2.137621e-09	2.561618e+01	1.460945e+02
2.710000e-06	3.653399e-06	2.156857e-09	2.585869e+01	1.471489e+02
2.720000e-06	3.687322e-06	2.179267e-09	2.609879e+01	1.481702e+02
2.730000e-06	3.720840e-06	2.197513e-09	2.633603e+01	1.491592e+02
2.740000e-06	3.753903e-06	2.208641e-09	2.657005e+01	1.501162e+02
2.750000e-06	3.786587e-06	2.217606e-09	2.680139e+01	1.510417e+02
2.760000e-06	3.818879e-06	2.230386e-09	2.702995e+01	1.519358e+02
2.770000e-06	3.850918e-06	2.245355e-09	2.725672e+01	1.527989e+02
2.780000e-06	3.882808e-06	2.258640e-09	2.748244e+01	1.536312e+02
2.790000e-06	3.914538e-06	2.272852e-09	2.770702e+01	1.544327e+02
2.800000e-06	3.946133e-06	2.290825e-09	2.793065e+01	1.552036e+02
2.810000e-06	3.977514e-06	2.307923e-09	2.815276e+01	1.559442e+02
2.820000e-06	4.008587e-06	2.315941e-09	2.837270e+01	1.566546e+02
2.830000e-06	4.039335e-06	2.317223e-09	2.859033e+01	1.573353e+02
2.840000e-06	4.069835e-06	2.321193e-09	2.880621e+01	1.579864e+02
2.850000e-06	4.100063e-06	2.329595e-09	2.902016e+01	1.586085e+02
2.860000e-06	4.129970e-06	2.340773e-09	2.923185e+01	1.592023e+02
2.870000e-06	4.159627e-06	2.354072e-09	2.944176e+01	1.597683e+02
2.880000e-06	4.189073e-06	2.369074e-09	2.965018e+01	1.603074e+02
2.890000e-06	4.218285e-06	2.380263e-09	2.985694e+01	1.608206e+02
2.900000e-06	4.247141e-06	2.383826e-09	3.006118e+01	1.613089e+02
