# Temperatura_=_12.87
# Concentracion g/m^3_=_4090.0
# C_Vs_to_Am_M_A/Vsm_=_65563218390.804596
# pendiente_HvsI_1/m_=_3716.3
# ordenada_HvsI_A/m_=_1297.0
# frecuencia_Hz_=_135081.45913070696

Tiempo_(s)	Campo_(V.s)	Magnetizacion_(V.s)	Campo_(kA/m)	Magnetizacion_(A/m)
0.000000e+00	-5.419329e-06	-2.669448e-09	-3.839008e+01	-1.712293e+02
1.000000e-08	-5.419284e-06	-2.663451e-09	-3.838976e+01	-1.711649e+02
2.000000e-08	-5.419084e-06	-2.659590e-09	-3.838835e+01	-1.711003e+02
3.000000e-08	-5.418624e-06	-2.662331e-09	-3.838509e+01	-1.710371e+02
4.000000e-08	-5.417742e-06	-2.668748e-09	-3.837884e+01	-1.709771e+02
5.000000e-08	-5.416273e-06	-2.677376e-09	-3.836843e+01	-1.709219e+02
6.000000e-08	-5.414215e-06	-2.695020e-09	-3.835386e+01	-1.708733e+02
7.000000e-08	-5.411624e-06	-2.694076e-09	-3.833550e+01	-1.708328e+02
8.000000e-08	-5.408353e-06	-2.643579e-09	-3.831233e+01	-1.708022e+02
9.000000e-08	-5.404525e-06	-2.609190e-09	-3.828521e+01	-1.707829e+02
1.000000e-07	-5.400361e-06	-2.672470e-09	-3.825571e+01	-1.707761e+02
1.100000e-07	-5.395935e-06	-2.708693e-09	-3.822436e+01	-1.707831e+02
1.200000e-07	-5.391350e-06	-2.642045e-09	-3.819188e+01	-1.708048e+02
1.300000e-07	-5.386522e-06	-2.583141e-09	-3.815768e+01	-1.708420e+02
1.400000e-07	-5.381343e-06	-2.673980e-09	-3.812099e+01	-1.708950e+02
1.500000e-07	-5.375711e-06	-2.731247e-09	-3.808109e+01	-1.709642e+02
1.600000e-07	-5.369680e-06	-2.629204e-09	-3.803837e+01	-1.710494e+02
1.700000e-07	-5.363328e-06	-2.533016e-09	-3.799338e+01	-1.711503e+02
1.800000e-07	-5.356559e-06	-2.616072e-09	-3.794542e+01	-1.712663e+02
1.900000e-07	-5.349366e-06	-2.684996e-09	-3.789447e+01	-1.713964e+02
2.000000e-07	-5.341860e-06	-2.608639e-09	-3.784129e+01	-1.715396e+02
2.100000e-07	-5.334187e-06	-2.581162e-09	-3.778694e+01	-1.716945e+02
2.200000e-07	-5.326237e-06	-2.652476e-09	-3.773063e+01	-1.718592e+02
2.300000e-07	-5.317881e-06	-2.657316e-09	-3.767143e+01	-1.720321e+02
2.400000e-07	-5.309199e-06	-2.582606e-09	-3.760993e+01	-1.722111e+02
2.500000e-07	-5.300002e-06	-2.617647e-09	-3.754478e+01	-1.723940e+02
2.600000e-07	-5.290043e-06	-2.678212e-09	-3.747423e+01	-1.725785e+02
2.700000e-07	-5.279435e-06	-2.629931e-09	-3.739908e+01	-1.727623e+02
2.800000e-07	-5.268448e-06	-2.590998e-09	-3.732125e+01	-1.729429e+02
2.900000e-07	-5.257082e-06	-2.664348e-09	-3.724073e+01	-1.731181e+02
3.000000e-07	-5.245224e-06	-2.671757e-09	-3.715674e+01	-1.732855e+02
3.100000e-07	-5.232981e-06	-2.595178e-09	-3.707001e+01	-1.734428e+02
3.200000e-07	-5.220426e-06	-2.592049e-09	-3.698107e+01	-1.735879e+02
3.300000e-07	-5.207477e-06	-2.660948e-09	-3.688934e+01	-1.737188e+02
3.400000e-07	-5.194112e-06	-2.638817e-09	-3.679466e+01	-1.738338e+02
3.500000e-07	-5.180384e-06	-2.600560e-09	-3.669741e+01	-1.739312e+02
3.600000e-07	-5.166277e-06	-2.623368e-09	-3.659748e+01	-1.740096e+02
3.700000e-07	-5.151696e-06	-2.638315e-09	-3.649419e+01	-1.740681e+02
3.800000e-07	-5.136502e-06	-2.608972e-09	-3.638655e+01	-1.741057e+02
3.900000e-07	-5.120804e-06	-2.612548e-09	-3.627536e+01	-1.741219e+02
4.000000e-07	-5.104532e-06	-2.617853e-09	-3.616009e+01	-1.741164e+02
4.100000e-07	-5.087751e-06	-2.589990e-09	-3.604121e+01	-1.740891e+02
4.200000e-07	-5.070782e-06	-2.594364e-09	-3.592100e+01	-1.740405e+02
4.300000e-07	-5.053550e-06	-2.625355e-09	-3.579893e+01	-1.739708e+02
4.400000e-07	-5.036066e-06	-2.602466e-09	-3.567508e+01	-1.738809e+02
4.500000e-07	-5.018265e-06	-2.566977e-09	-3.554897e+01	-1.737718e+02
4.600000e-07	-5.000033e-06	-2.585078e-09	-3.541982e+01	-1.736446e+02
4.700000e-07	-4.981440e-06	-2.601513e-09	-3.528811e+01	-1.735005e+02
4.800000e-07	-4.962451e-06	-2.583255e-09	-3.515359e+01	-1.733411e+02
4.900000e-07	-4.943008e-06	-2.571558e-09	-3.501586e+01	-1.731679e+02
5.000000e-07	-4.923245e-06	-2.582756e-09	-3.487586e+01	-1.729825e+02
5.100000e-07	-4.903290e-06	-2.586061e-09	-3.473450e+01	-1.727866e+02
5.200000e-07	-4.883145e-06	-2.581371e-09	-3.459180e+01	-1.725818e+02
5.300000e-07	-4.862830e-06	-2.568351e-09	-3.444789e+01	-1.723699e+02
5.400000e-07	-4.842200e-06	-2.560472e-09	-3.430175e+01	-1.721523e+02
5.500000e-07	-4.821156e-06	-2.560868e-09	-3.415268e+01	-1.719305e+02
5.600000e-07	-4.799728e-06	-2.567423e-09	-3.400087e+01	-1.717061e+02
5.700000e-07	-4.777979e-06	-2.560945e-09	-3.384681e+01	-1.714802e+02
5.800000e-07	-4.755913e-06	-2.553139e-09	-3.369050e+01	-1.712540e+02
5.900000e-07	-4.733496e-06	-2.556055e-09	-3.353170e+01	-1.710285e+02
6.000000e-07	-4.710765e-06	-2.568972e-09	-3.337067e+01	-1.708044e+02
6.100000e-07	-4.687720e-06	-2.561598e-09	-3.320742e+01	-1.705824e+02
6.200000e-07	-4.664400e-06	-2.539699e-09	-3.304223e+01	-1.703630e+02
6.300000e-07	-4.640800e-06	-2.530617e-09	-3.287505e+01	-1.701463e+02
6.400000e-07	-4.616886e-06	-2.542180e-09	-3.270564e+01	-1.699326e+02
6.500000e-07	-4.592691e-06	-2.541870e-09	-3.253424e+01	-1.697217e+02
6.600000e-07	-4.568353e-06	-2.530901e-09	-3.236183e+01	-1.695134e+02
6.700000e-07	-4.543816e-06	-2.527836e-09	-3.218802e+01	-1.693074e+02
6.800000e-07	-4.518891e-06	-2.533927e-09	-3.201145e+01	-1.691033e+02
6.900000e-07	-4.493492e-06	-2.531367e-09	-3.183153e+01	-1.689004e+02
7.000000e-07	-4.467563e-06	-2.518447e-09	-3.164785e+01	-1.686982e+02
7.100000e-07	-4.441090e-06	-2.503934e-09	-3.146032e+01	-1.684959e+02
7.200000e-07	-4.414095e-06	-2.502960e-09	-3.126909e+01	-1.682927e+02
7.300000e-07	-4.386581e-06	-2.511152e-09	-3.107418e+01	-1.680880e+02
7.400000e-07	-4.358791e-06	-2.508128e-09	-3.087732e+01	-1.678808e+02
7.500000e-07	-4.330860e-06	-2.493153e-09	-3.067946e+01	-1.676706e+02
7.600000e-07	-4.302708e-06	-2.486050e-09	-3.048003e+01	-1.674566e+02
7.700000e-07	-4.274412e-06	-2.488441e-09	-3.027958e+01	-1.672380e+02
7.800000e-07	-4.245916e-06	-2.484073e-09	-3.007772e+01	-1.670143e+02
7.900000e-07	-4.217065e-06	-2.472894e-09	-2.987334e+01	-1.667850e+02
8.000000e-07	-4.187927e-06	-2.465344e-09	-2.966693e+01	-1.665496e+02
8.100000e-07	-4.158531e-06	-2.466399e-09	-2.945869e+01	-1.663077e+02
8.200000e-07	-4.128746e-06	-2.466130e-09	-2.924769e+01	-1.660590e+02
8.300000e-07	-4.098627e-06	-2.457897e-09	-2.903434e+01	-1.658033e+02
8.400000e-07	-4.068275e-06	-2.447066e-09	-2.881932e+01	-1.655405e+02
8.500000e-07	-4.037636e-06	-2.445671e-09	-2.860228e+01	-1.652705e+02
8.600000e-07	-4.006662e-06	-2.445585e-09	-2.838286e+01	-1.649934e+02
8.700000e-07	-3.975454e-06	-2.441064e-09	-2.816179e+01	-1.647092e+02
8.800000e-07	-3.944093e-06	-2.432628e-09	-2.793963e+01	-1.644181e+02
8.900000e-07	-3.912491e-06	-2.429501e-09	-2.771576e+01	-1.641203e+02
9.000000e-07	-3.880647e-06	-2.429340e-09	-2.749018e+01	-1.638160e+02
9.100000e-07	-3.848637e-06	-2.424997e-09	-2.726343e+01	-1.635055e+02
9.200000e-07	-3.816479e-06	-2.414038e-09	-2.703562e+01	-1.631889e+02
9.300000e-07	-3.784175e-06	-2.406929e-09	-2.680679e+01	-1.628666e+02
9.400000e-07	-3.751565e-06	-2.403046e-09	-2.657578e+01	-1.625388e+02
9.500000e-07	-3.718668e-06	-2.397963e-09	-2.634274e+01	-1.622057e+02
9.600000e-07	-3.685418e-06	-2.388899e-09	-2.610719e+01	-1.618676e+02
9.700000e-07	-3.651683e-06	-2.385428e-09	-2.586822e+01	-1.615246e+02
9.800000e-07	-3.617586e-06	-2.386208e-09	-2.562668e+01	-1.611768e+02
9.900000e-07	-3.582987e-06	-2.382954e-09	-2.538159e+01	-1.608244e+02
1.000000e-06	-3.547951e-06	-2.373570e-09	-2.513339e+01	-1.604675e+02
1.010000e-06	-3.512650e-06	-2.366857e-09	-2.488332e+01	-1.601059e+02
1.020000e-06	-3.477046e-06	-2.363220e-09	-2.463111e+01	-1.597398e+02
1.030000e-06	-3.441242e-06	-2.355789e-09	-2.437748e+01	-1.593691e+02
1.040000e-06	-3.405310e-06	-2.345782e-09	-2.412293e+01	-1.589936e+02
1.050000e-06	-3.369203e-06	-2.337974e-09	-2.386716e+01	-1.586133e+02
1.060000e-06	-3.332900e-06	-2.334351e-09	-2.360999e+01	-1.582279e+02
1.070000e-06	-3.296365e-06	-2.330651e-09	-2.335118e+01	-1.578374e+02
1.080000e-06	-3.259602e-06	-2.320164e-09	-2.309076e+01	-1.574416e+02
1.090000e-06	-3.222647e-06	-2.309394e-09	-2.282896e+01	-1.570403e+02
1.100000e-06	-3.185450e-06	-2.306897e-09	-2.256547e+01	-1.566333e+02
1.110000e-06	-3.148001e-06	-2.307148e-09	-2.230018e+01	-1.562203e+02
1.120000e-06	-3.110399e-06	-2.300995e-09	-2.203381e+01	-1.558014e+02
1.130000e-06	-3.072631e-06	-2.289627e-09	-2.176627e+01	-1.553762e+02
1.140000e-06	-3.034649e-06	-2.279220e-09	-2.149720e+01	-1.549447e+02
1.150000e-06	-2.996444e-06	-2.270784e-09	-2.122656e+01	-1.545068e+02
1.160000e-06	-2.958025e-06	-2.264971e-09	-2.095440e+01	-1.540623e+02
1.170000e-06	-2.919431e-06	-2.257167e-09	-2.068101e+01	-1.536111e+02
1.180000e-06	-2.880683e-06	-2.252119e-09	-2.040652e+01	-1.531532e+02
1.190000e-06	-2.841750e-06	-2.251196e-09	-2.013073e+01	-1.526885e+02
1.200000e-06	-2.802489e-06	-2.246302e-09	-1.985260e+01	-1.522169e+02
1.210000e-06	-2.763026e-06	-2.232766e-09	-1.957305e+01	-1.517384e+02
1.220000e-06	-2.723367e-06	-2.217790e-09	-1.929211e+01	-1.512530e+02
1.230000e-06	-2.683498e-06	-2.205933e-09	-1.900968e+01	-1.507605e+02
1.240000e-06	-2.643549e-06	-2.197281e-09	-1.872668e+01	-1.502608e+02
1.250000e-06	-2.603573e-06	-2.188145e-09	-1.844350e+01	-1.497540e+02
1.260000e-06	-2.563567e-06	-2.180580e-09	-1.816010e+01	-1.492397e+02
1.270000e-06	-2.523364e-06	-2.174928e-09	-1.787530e+01	-1.487179e+02
1.280000e-06	-2.483017e-06	-2.171039e-09	-1.758949e+01	-1.481883e+02
1.290000e-06	-2.442580e-06	-2.165355e-09	-1.730304e+01	-1.476506e+02
1.300000e-06	-2.402017e-06	-2.155096e-09	-1.701569e+01	-1.471045e+02
1.310000e-06	-2.361274e-06	-2.144306e-09	-1.672707e+01	-1.465497e+02
1.320000e-06	-2.320255e-06	-2.134255e-09	-1.643649e+01	-1.459857e+02
1.330000e-06	-2.279029e-06	-2.120158e-09	-1.614445e+01	-1.454121e+02
1.340000e-06	-2.237607e-06	-2.105873e-09	-1.585103e+01	-1.448283e+02
1.350000e-06	-2.195907e-06	-2.096634e-09	-1.555562e+01	-1.442338e+02
1.360000e-06	-2.153852e-06	-2.090451e-09	-1.525771e+01	-1.436278e+02
1.370000e-06	-2.111463e-06	-2.083904e-09	-1.495743e+01	-1.430099e+02
1.380000e-06	-2.068840e-06	-2.073867e-09	-1.465549e+01	-1.423792e+02
1.390000e-06	-2.025989e-06	-2.060557e-09	-1.435194e+01	-1.417351e+02
1.400000e-06	-1.982932e-06	-2.048952e-09	-1.404692e+01	-1.410768e+02
1.410000e-06	-1.939669e-06	-2.036191e-09	-1.374045e+01	-1.404037e+02
1.420000e-06	-1.896246e-06	-2.018204e-09	-1.343285e+01	-1.397149e+02
1.430000e-06	-1.852677e-06	-2.001207e-09	-1.312421e+01	-1.390097e+02
1.440000e-06	-1.808915e-06	-1.989966e-09	-1.281420e+01	-1.382874e+02
1.450000e-06	-1.765024e-06	-1.982123e-09	-1.250328e+01	-1.375474e+02
1.460000e-06	-1.721103e-06	-1.971611e-09	-1.219215e+01	-1.367890e+02
1.470000e-06	-1.677157e-06	-1.957486e-09	-1.188084e+01	-1.360115e+02
1.480000e-06	-1.633151e-06	-1.943576e-09	-1.156911e+01	-1.352144e+02
1.490000e-06	-1.589057e-06	-1.930811e-09	-1.125675e+01	-1.343971e+02
1.500000e-06	-1.544824e-06	-1.915957e-09	-1.094341e+01	-1.335591e+02
1.510000e-06	-1.500477e-06	-1.898863e-09	-1.062926e+01	-1.327000e+02
1.520000e-06	-1.456107e-06	-1.884923e-09	-1.031494e+01	-1.318192e+02
1.530000e-06	-1.411708e-06	-1.876993e-09	-1.000042e+01	-1.309164e+02
1.540000e-06	-1.367251e-06	-1.868694e-09	-9.685495e+00	-1.299913e+02
1.550000e-06	-1.322673e-06	-1.854876e-09	-9.369705e+00	-1.290433e+02
1.560000e-06	-1.278054e-06	-1.838537e-09	-9.053628e+00	-1.280721e+02
1.570000e-06	-1.233417e-06	-1.826730e-09	-8.737421e+00	-1.270773e+02
1.580000e-06	-1.188630e-06	-1.814516e-09	-8.420158e+00	-1.260584e+02
1.590000e-06	-1.143725e-06	-1.798395e-09	-8.102051e+00	-1.250151e+02
1.600000e-06	-1.098792e-06	-1.780383e-09	-7.783750e+00	-1.239467e+02
1.610000e-06	-1.053733e-06	-1.763289e-09	-7.464555e+00	-1.228526e+02
1.620000e-06	-1.008494e-06	-1.746463e-09	-7.144091e+00	-1.217321e+02
1.630000e-06	-9.631532e-07	-1.725288e-09	-6.822898e+00	-1.205846e+02
1.640000e-06	-9.178085e-07	-1.700264e-09	-6.501680e+00	-1.194090e+02
1.650000e-06	-8.725108e-07	-1.678802e-09	-6.180795e+00	-1.182044e+02
1.660000e-06	-8.271005e-07	-1.663163e-09	-5.859112e+00	-1.169696e+02
1.670000e-06	-7.815862e-07	-1.647869e-09	-5.536692e+00	-1.157035e+02
1.680000e-06	-7.360738e-07	-1.628178e-09	-5.214286e+00	-1.144045e+02
1.690000e-06	-6.904840e-07	-1.604555e-09	-4.891332e+00	-1.130713e+02
1.700000e-06	-6.447968e-07	-1.581354e-09	-4.567688e+00	-1.117021e+02
1.710000e-06	-5.991297e-07	-1.558402e-09	-4.244185e+00	-1.102952e+02
1.720000e-06	-5.534242e-07	-1.532795e-09	-3.920411e+00	-1.088488e+02
1.730000e-06	-5.076352e-07	-1.509957e-09	-3.596046e+00	-1.073610e+02
1.740000e-06	-4.618138e-07	-1.492202e-09	-3.271451e+00	-1.058297e+02
1.750000e-06	-4.159583e-07	-1.475756e-09	-2.946614e+00	-1.042528e+02
1.760000e-06	-3.700649e-07	-1.455332e-09	-2.621509e+00	-1.026283e+02
1.770000e-06	-3.241394e-07	-1.429516e-09	-2.296176e+00	-1.009540e+02
1.780000e-06	-2.781371e-07	-1.401877e-09	-1.970300e+00	-9.922793e+01
1.790000e-06	-2.320909e-07	-1.372815e-09	-1.644113e+00	-9.744795e+01
1.800000e-06	-1.860005e-07	-1.342788e-09	-1.317612e+00	-9.561213e+01
1.810000e-06	-1.399659e-07	-1.314751e-09	-9.915070e-01	-9.371859e+01
1.820000e-06	-9.400039e-08	-1.290685e-09	-6.658910e-01	-9.176561e+01
1.830000e-06	-4.799713e-08	-1.266968e-09	-3.400077e-01	-8.975160e+01
1.840000e-06	-2.015548e-09	-1.240998e-09	-1.427798e-02	-8.767517e+01
1.850000e-06	4.394177e-08	-1.210469e-09	3.112799e-01	-8.553513e+01
1.860000e-06	8.996550e-08	-1.174544e-09	6.373082e-01	-8.333053e+01
1.870000e-06	1.360917e-07	-1.137734e-09	9.640626e-01	-8.106065e+01
1.880000e-06	1.821395e-07	-1.099975e-09	1.290261e+00	-7.872505e+01
1.890000e-06	2.280436e-07	-1.061693e-09	1.615442e+00	-7.632355e+01
1.900000e-06	2.739539e-07	-1.027401e-09	1.940667e+00	-7.385628e+01
1.910000e-06	3.198989e-07	-9.943287e-10	2.266137e+00	-7.132365e+01
1.920000e-06	3.657747e-07	-9.587082e-10	2.591118e+00	-6.872634e+01
1.930000e-06	4.115424e-07	-9.204502e-10	2.915333e+00	-6.606534e+01
1.940000e-06	4.573750e-07	-8.806412e-10	3.240007e+00	-6.334192e+01
1.950000e-06	5.032757e-07	-8.384409e-10	3.565163e+00	-6.055763e+01
1.960000e-06	5.490347e-07	-7.947391e-10	3.889317e+00	-5.771424e+01
1.970000e-06	5.946592e-07	-7.497202e-10	4.212517e+00	-5.481381e+01
1.980000e-06	6.402607e-07	-7.045216e-10	4.535554e+00	-5.185857e+01
1.990000e-06	6.858469e-07	-6.600840e-10	4.858483e+00	-4.885100e+01
2.000000e-06	7.313913e-07	-6.160771e-10	5.181116e+00	-4.579371e+01
2.010000e-06	7.769379e-07	-5.723999e-10	5.503764e+00	-4.268949e+01
2.020000e-06	8.224022e-07	-5.274810e-10	5.825829e+00	-3.954124e+01
2.030000e-06	8.677778e-07	-4.783849e-10	6.147266e+00	-3.635194e+01
2.040000e-06	9.131898e-07	-4.266678e-10	6.468961e+00	-3.312469e+01
2.050000e-06	9.584791e-07	-3.750325e-10	6.789787e+00	-2.986259e+01
2.060000e-06	1.003614e-06	-3.260762e-10	7.109522e+00	-2.656878e+01
2.070000e-06	1.048721e-06	-2.786215e-10	7.429050e+00	-2.324640e+01
2.080000e-06	1.093833e-06	-2.302153e-10	7.748626e+00	-1.989858e+01
2.090000e-06	1.138920e-06	-1.835421e-10	8.068018e+00	-1.652839e+01
2.100000e-06	1.183830e-06	-1.391060e-10	8.386156e+00	-1.313888e+01
2.110000e-06	1.228580e-06	-9.105231e-11	8.703160e+00	-9.733021e+00
2.120000e-06	1.273195e-06	-3.662488e-11	9.019206e+00	-6.313705e+00
2.130000e-06	1.317728e-06	2.114977e-11	9.334680e+00	-2.883760e+00
2.140000e-06	1.362212e-06	7.756772e-11	9.649798e+00	5.540709e-01
2.150000e-06	1.406618e-06	1.314268e-10	9.964367e+00	3.997122e+00
2.160000e-06	1.450983e-06	1.836556e-10	1.027864e+01	7.442805e+00
2.170000e-06	1.495299e-06	2.326095e-10	1.059258e+01	1.088860e+01
2.180000e-06	1.539534e-06	2.807440e-10	1.090593e+01	1.433206e+01
2.190000e-06	1.583719e-06	3.286402e-10	1.121893e+01	1.777078e+01
2.200000e-06	1.627865e-06	3.767456e-10	1.153166e+01	2.120242e+01
2.210000e-06	1.671933e-06	4.286112e-10	1.184384e+01	2.462464e+01
2.220000e-06	1.715934e-06	4.827753e-10	1.215553e+01	2.803516e+01
2.230000e-06	1.759841e-06	5.365155e-10	1.246657e+01	3.143170e+01
2.240000e-06	1.803626e-06	5.890863e-10	1.277674e+01	3.481197e+01
2.250000e-06	1.847352e-06	6.411165e-10	1.308649e+01	3.817369e+01
2.260000e-06	1.890972e-06	6.910889e-10	1.339549e+01	4.151456e+01
2.270000e-06	1.934439e-06	7.367180e-10	1.370341e+01	4.483226e+01
2.280000e-06	1.977734e-06	7.798765e-10	1.401011e+01	4.812444e+01
2.290000e-06	2.020763e-06	8.235463e-10	1.431492e+01	5.138875e+01
2.300000e-06	2.063516e-06	8.703478e-10	1.461778e+01	5.462279e+01
2.310000e-06	2.106111e-06	9.163055e-10	1.491952e+01	5.782415e+01
2.320000e-06	2.148637e-06	9.604990e-10	1.522077e+01	6.099043e+01
2.330000e-06	2.190772e-06	1.005721e-09	1.551925e+01	6.411921e+01
2.340000e-06	2.232560e-06	1.052821e-09	1.581527e+01	6.720807e+01
2.350000e-06	2.274099e-06	1.099734e-09	1.610953e+01	7.025465e+01
2.360000e-06	2.315284e-06	1.143991e-09	1.640128e+01	7.325660e+01
2.370000e-06	2.356232e-06	1.185375e-09	1.669135e+01	7.621166e+01
2.380000e-06	2.397029e-06	1.225787e-09	1.698036e+01	7.911762e+01
2.390000e-06	2.437674e-06	1.265514e-09	1.726828e+01	8.197240e+01
2.400000e-06	2.478146e-06	1.300610e-09	1.755499e+01	8.477402e+01
2.410000e-06	2.518490e-06	1.332266e-09	1.784077e+01	8.752065e+01
2.420000e-06	2.558697e-06	1.368450e-09	1.812560e+01	9.021062e+01
2.430000e-06	2.598790e-06	1.412747e-09	1.840961e+01	9.284244e+01
2.440000e-06	2.638829e-06	1.457465e-09	1.869325e+01	9.541481e+01
2.450000e-06	2.678781e-06	1.493992e-09	1.897626e+01	9.792663e+01
2.460000e-06	2.718591e-06	1.527046e-09	1.925828e+01	1.003771e+02
2.470000e-06	2.758212e-06	1.561536e-09	1.953895e+01	1.027654e+02
2.480000e-06	2.797614e-06	1.591970e-09	1.981807e+01	1.050914e+02
2.490000e-06	2.836734e-06	1.617995e-09	2.009519e+01	1.073547e+02
2.500000e-06	2.875615e-06	1.645590e-09	2.037062e+01	1.095555e+02
2.510000e-06	2.914316e-06	1.680202e-09	2.064477e+01	1.116941e+02
2.520000e-06	2.952751e-06	1.716969e-09	2.091705e+01	1.137710e+02
2.530000e-06	2.991024e-06	1.746344e-09	2.118817e+01	1.157869e+02
2.540000e-06	3.029162e-06	1.768953e-09	2.145833e+01	1.177428e+02
2.550000e-06	3.067106e-06	1.793470e-09	2.172713e+01	1.196397e+02
2.560000e-06	3.104860e-06	1.821669e-09	2.199458e+01	1.214790e+02
2.570000e-06	3.142338e-06	1.848378e-09	2.226006e+01	1.232621e+02
2.580000e-06	3.179646e-06	1.871644e-09	2.252435e+01	1.249905e+02
2.590000e-06	3.216798e-06	1.894560e-09	2.278753e+01	1.266657e+02
2.600000e-06	3.253665e-06	1.920189e-09	2.304870e+01	1.282894e+02
2.610000e-06	3.290331e-06	1.943886e-09	2.330843e+01	1.298633e+02
2.620000e-06	3.326787e-06	1.963867e-09	2.356669e+01	1.313891e+02
2.630000e-06	3.363068e-06	1.985375e-09	2.382370e+01	1.328684e+02
2.640000e-06	3.399214e-06	2.009436e-09	2.407976e+01	1.343030e+02
2.650000e-06	3.435219e-06	2.030841e-09	2.433481e+01	1.356943e+02
2.660000e-06	3.471078e-06	2.047907e-09	2.458883e+01	1.370438e+02
2.670000e-06	3.506771e-06	2.063601e-09	2.484168e+01	1.383530e+02
2.680000e-06	3.542119e-06	2.079969e-09	2.509208e+01	1.396231e+02
2.690000e-06	3.577073e-06	2.095892e-09	2.533969e+01	1.408552e+02
2.700000e-06	3.611726e-06	2.109445e-09	2.558517e+01	1.420504e+02
2.710000e-06	3.645882e-06	2.125224e-09	2.582713e+01	1.432095e+02
2.720000e-06	3.679575e-06	2.146713e-09	2.606580e+01	1.443335e+02
2.730000e-06	3.712903e-06	2.168624e-09	2.630190e+01	1.454228e+02
2.740000e-06	3.745855e-06	2.184594e-09	2.653533e+01	1.464781e+02
2.750000e-06	3.778554e-06	2.197395e-09	2.676696e+01	1.474998e+02
2.760000e-06	3.811030e-06	2.211720e-09	2.699702e+01	1.484883e+02
2.770000e-06	3.843323e-06	2.228226e-09	2.722578e+01	1.494438e+02
2.780000e-06	3.875432e-06	2.243552e-09	2.745324e+01	1.503666e+02
2.790000e-06	3.907283e-06	2.255647e-09	2.767887e+01	1.512569e+02
2.800000e-06	3.938953e-06	2.268710e-09	2.790322e+01	1.521149e+02
2.810000e-06	3.970489e-06	2.283852e-09	2.812662e+01	1.529407e+02
2.820000e-06	4.001666e-06	2.294879e-09	2.834748e+01	1.537346e+02
2.830000e-06	4.032486e-06	2.299868e-09	2.856580e+01	1.544968e+02
2.840000e-06	4.063049e-06	2.303407e-09	2.878231e+01	1.552276e+02
2.850000e-06	4.093318e-06	2.310831e-09	2.899673e+01	1.559275e+02
2.860000e-06	4.123318e-06	2.324755e-09	2.920925e+01	1.565970e+02
2.870000e-06	4.153056e-06	2.339196e-09	2.941990e+01	1.572365e+02
2.880000e-06	4.182630e-06	2.349938e-09	2.962941e+01	1.578469e+02
2.890000e-06	4.211910e-06	2.357442e-09	2.983683e+01	1.584288e+02
2.900000e-06	4.240734e-06	2.363444e-09	3.004101e+01	1.589832e+02
