# Temperatura_=_16.29
# Concentracion g/m^3_=_4090.0
# C_Vs_to_Am_M_A/Vsm_=_65563218390.804596
# pendiente_HvsI_1/m_=_3716.3
# ordenada_HvsI_A/m_=_1297.0
# frecuencia_Hz_=_135079.8860081106

Tiempo_(s)	Campo_(V.s)	Magnetizacion_(V.s)	Campo_(kA/m)	Magnetizacion_(A/m)
0.000000e+00	-5.419811e-06	-2.617264e-09	-3.837843e+01	-1.702545e+02
1.000000e-08	-5.419891e-06	-2.619070e-09	-3.837899e+01	-1.701911e+02
2.000000e-08	-5.419738e-06	-2.619102e-09	-3.837791e+01	-1.701288e+02
3.000000e-08	-5.419260e-06	-2.615433e-09	-3.837453e+01	-1.700699e+02
4.000000e-08	-5.418303e-06	-2.610359e-09	-3.836775e+01	-1.700167e+02
5.000000e-08	-5.416714e-06	-2.607461e-09	-3.835649e+01	-1.699716e+02
6.000000e-08	-5.414539e-06	-2.604756e-09	-3.834110e+01	-1.699367e+02
7.000000e-08	-5.411805e-06	-2.603116e-09	-3.832174e+01	-1.699143e+02
8.000000e-08	-5.408518e-06	-2.621966e-09	-3.829846e+01	-1.699065e+02
9.000000e-08	-5.404746e-06	-2.625084e-09	-3.827175e+01	-1.699150e+02
1.000000e-07	-5.400532e-06	-2.605508e-09	-3.824191e+01	-1.699414e+02
1.100000e-07	-5.396165e-06	-2.617861e-09	-3.821098e+01	-1.699871e+02
1.200000e-07	-5.391702e-06	-2.615439e-09	-3.817938e+01	-1.700531e+02
1.300000e-07	-5.386841e-06	-2.585659e-09	-3.814496e+01	-1.701401e+02
1.400000e-07	-5.381495e-06	-2.563909e-09	-3.810711e+01	-1.702485e+02
1.500000e-07	-5.375803e-06	-2.575816e-09	-3.806680e+01	-1.703780e+02
1.600000e-07	-5.369820e-06	-2.639714e-09	-3.802444e+01	-1.705285e+02
1.700000e-07	-5.363310e-06	-2.577252e-09	-3.797834e+01	-1.706990e+02
1.800000e-07	-5.356365e-06	-2.591947e-09	-3.792916e+01	-1.708884e+02
1.900000e-07	-5.349210e-06	-2.623956e-09	-3.787849e+01	-1.710952e+02
2.000000e-07	-5.341789e-06	-2.683157e-09	-3.782594e+01	-1.713174e+02
2.100000e-07	-5.334074e-06	-2.616328e-09	-3.777131e+01	-1.715530e+02
2.200000e-07	-5.326148e-06	-2.629365e-09	-3.771519e+01	-1.717995e+02
2.300000e-07	-5.317913e-06	-2.683268e-09	-3.765688e+01	-1.720542e+02
2.400000e-07	-5.309225e-06	-2.696577e-09	-3.759535e+01	-1.723143e+02
2.500000e-07	-5.299734e-06	-2.667557e-09	-3.752815e+01	-1.725766e+02
2.600000e-07	-5.289582e-06	-2.710195e-09	-3.745626e+01	-1.728382e+02
2.700000e-07	-5.278950e-06	-2.765904e-09	-3.738097e+01	-1.730959e+02
2.800000e-07	-5.267783e-06	-2.706921e-09	-3.730190e+01	-1.733466e+02
2.900000e-07	-5.256327e-06	-2.670678e-09	-3.722078e+01	-1.735872e+02
3.000000e-07	-5.244551e-06	-2.701286e-09	-3.713739e+01	-1.738147e+02
3.100000e-07	-5.232278e-06	-2.727827e-09	-3.705048e+01	-1.740265e+02
3.200000e-07	-5.219495e-06	-2.659182e-09	-3.695996e+01	-1.742199e+02
3.300000e-07	-5.206440e-06	-2.684059e-09	-3.686752e+01	-1.743926e+02
3.400000e-07	-5.193060e-06	-2.704236e-09	-3.677277e+01	-1.745427e+02
3.500000e-07	-5.179200e-06	-2.693377e-09	-3.667463e+01	-1.746683e+02
3.600000e-07	-5.164980e-06	-2.657087e-09	-3.657393e+01	-1.747682e+02
3.700000e-07	-5.150338e-06	-2.697697e-09	-3.647025e+01	-1.748412e+02
3.800000e-07	-5.135033e-06	-2.661240e-09	-3.636188e+01	-1.748869e+02
3.900000e-07	-5.119205e-06	-2.643982e-09	-3.624979e+01	-1.749047e+02
4.000000e-07	-5.102937e-06	-2.667062e-09	-3.613460e+01	-1.748949e+02
4.100000e-07	-5.086287e-06	-2.692523e-09	-3.601670e+01	-1.748579e+02
4.200000e-07	-5.069336e-06	-2.638297e-09	-3.589667e+01	-1.747944e+02
4.300000e-07	-5.052128e-06	-2.655541e-09	-3.577481e+01	-1.747054e+02
4.400000e-07	-5.034676e-06	-2.670264e-09	-3.565124e+01	-1.745923e+02
4.500000e-07	-5.016856e-06	-2.647861e-09	-3.552505e+01	-1.744568e+02
4.600000e-07	-4.998635e-06	-2.621748e-09	-3.539602e+01	-1.743005e+02
4.700000e-07	-4.979982e-06	-2.650662e-09	-3.526394e+01	-1.741256e+02
4.800000e-07	-4.960914e-06	-2.645581e-09	-3.512891e+01	-1.739339e+02
4.900000e-07	-4.941533e-06	-2.640838e-09	-3.499168e+01	-1.737278e+02
5.000000e-07	-4.921871e-06	-2.643576e-09	-3.485244e+01	-1.735094e+02
5.100000e-07	-4.901981e-06	-2.634029e-09	-3.471160e+01	-1.732810e+02
5.200000e-07	-4.881850e-06	-2.623816e-09	-3.456905e+01	-1.730447e+02
5.300000e-07	-4.861555e-06	-2.636111e-09	-3.442534e+01	-1.728026e+02
5.400000e-07	-4.840953e-06	-2.625263e-09	-3.427945e+01	-1.725567e+02
5.500000e-07	-4.819903e-06	-2.601556e-09	-3.413040e+01	-1.723088e+02
5.600000e-07	-4.798487e-06	-2.612953e-09	-3.397875e+01	-1.720605e+02
5.700000e-07	-4.776719e-06	-2.618935e-09	-3.382461e+01	-1.718133e+02
5.800000e-07	-4.754689e-06	-2.607339e-09	-3.366861e+01	-1.715685e+02
5.900000e-07	-4.732278e-06	-2.598101e-09	-3.350991e+01	-1.713270e+02
6.000000e-07	-4.709476e-06	-2.604391e-09	-3.334845e+01	-1.710895e+02
6.100000e-07	-4.686398e-06	-2.595378e-09	-3.318503e+01	-1.708568e+02
6.200000e-07	-4.663015e-06	-2.597248e-09	-3.301945e+01	-1.706289e+02
6.300000e-07	-4.639397e-06	-2.584573e-09	-3.285221e+01	-1.704061e+02
6.400000e-07	-4.615545e-06	-2.577611e-09	-3.268331e+01	-1.701882e+02
6.500000e-07	-4.591384e-06	-2.575131e-09	-3.251222e+01	-1.699749e+02
6.600000e-07	-4.566929e-06	-2.585670e-09	-3.233906e+01	-1.697656e+02
6.700000e-07	-4.542222e-06	-2.567923e-09	-3.216410e+01	-1.695598e+02
6.800000e-07	-4.517108e-06	-2.561849e-09	-3.198627e+01	-1.693567e+02
6.900000e-07	-4.491426e-06	-2.555515e-09	-3.180440e+01	-1.691553e+02
7.000000e-07	-4.465220e-06	-2.559231e-09	-3.161884e+01	-1.689547e+02
7.100000e-07	-4.438510e-06	-2.547728e-09	-3.142970e+01	-1.687540e+02
7.200000e-07	-4.411343e-06	-2.543972e-09	-3.123733e+01	-1.685521e+02
7.300000e-07	-4.383881e-06	-2.537391e-09	-3.104286e+01	-1.683480e+02
7.400000e-07	-4.356232e-06	-2.546299e-09	-3.084708e+01	-1.681407e+02
7.500000e-07	-4.328380e-06	-2.540870e-09	-3.064985e+01	-1.679293e+02
7.600000e-07	-4.300300e-06	-2.531175e-09	-3.045102e+01	-1.677130e+02
7.700000e-07	-4.271978e-06	-2.520800e-09	-3.025046e+01	-1.674908e+02
7.800000e-07	-4.243382e-06	-2.523086e-09	-3.004797e+01	-1.672622e+02
7.900000e-07	-4.214424e-06	-2.516937e-09	-2.984292e+01	-1.670265e+02
8.000000e-07	-4.185123e-06	-2.506508e-09	-2.963544e+01	-1.667833e+02
8.100000e-07	-4.155542e-06	-2.498166e-09	-2.942597e+01	-1.665322e+02
8.200000e-07	-4.125735e-06	-2.501539e-09	-2.921489e+01	-1.662729e+02
8.300000e-07	-4.095668e-06	-2.505047e-09	-2.900199e+01	-1.660053e+02
8.400000e-07	-4.065268e-06	-2.498325e-09	-2.878672e+01	-1.657294e+02
8.500000e-07	-4.034596e-06	-2.487996e-09	-2.856953e+01	-1.654452e+02
8.600000e-07	-4.003658e-06	-2.481825e-09	-2.835045e+01	-1.651529e+02
8.700000e-07	-3.972496e-06	-2.481413e-09	-2.812979e+01	-1.648525e+02
8.800000e-07	-3.941136e-06	-2.470986e-09	-2.790773e+01	-1.645445e+02
8.900000e-07	-3.909524e-06	-2.457825e-09	-2.768388e+01	-1.642291e+02
9.000000e-07	-3.877713e-06	-2.449563e-09	-2.745862e+01	-1.639066e+02
9.100000e-07	-3.845774e-06	-2.456598e-09	-2.723245e+01	-1.635774e+02
9.200000e-07	-3.813641e-06	-2.458101e-09	-2.700491e+01	-1.632419e+02
9.300000e-07	-3.781258e-06	-2.456284e-09	-2.677561e+01	-1.629004e+02
9.400000e-07	-3.748671e-06	-2.449930e-09	-2.654486e+01	-1.625531e+02
9.500000e-07	-3.715741e-06	-2.451268e-09	-2.631168e+01	-1.622005e+02
9.600000e-07	-3.682296e-06	-2.444661e-09	-2.607485e+01	-1.618428e+02
9.700000e-07	-3.648326e-06	-2.433325e-09	-2.583430e+01	-1.614801e+02
9.800000e-07	-3.613903e-06	-2.414908e-09	-2.559054e+01	-1.611128e+02
9.900000e-07	-3.579058e-06	-2.409911e-09	-2.534380e+01	-1.607408e+02
1.000000e-06	-3.543885e-06	-2.409520e-09	-2.509474e+01	-1.603643e+02
1.010000e-06	-3.508503e-06	-2.412417e-09	-2.484419e+01	-1.599833e+02
1.020000e-06	-3.472955e-06	-2.407612e-09	-2.459247e+01	-1.595979e+02
1.030000e-06	-3.437247e-06	-2.405688e-09	-2.433962e+01	-1.592080e+02
1.040000e-06	-3.401377e-06	-2.401268e-09	-2.408562e+01	-1.588135e+02
1.050000e-06	-3.365373e-06	-2.391126e-09	-2.383067e+01	-1.584143e+02
1.060000e-06	-3.329109e-06	-2.370355e-09	-2.357388e+01	-1.580103e+02
1.070000e-06	-3.292612e-06	-2.353222e-09	-2.331544e+01	-1.576014e+02
1.080000e-06	-3.255950e-06	-2.343203e-09	-2.305583e+01	-1.571875e+02
1.090000e-06	-3.219058e-06	-2.343584e-09	-2.279459e+01	-1.567684e+02
1.100000e-06	-3.181963e-06	-2.344543e-09	-2.253192e+01	-1.563441e+02
1.110000e-06	-3.144603e-06	-2.344391e-09	-2.226737e+01	-1.559145e+02
1.120000e-06	-3.107000e-06	-2.343411e-09	-2.200109e+01	-1.554794e+02
1.130000e-06	-3.069175e-06	-2.339263e-09	-2.173325e+01	-1.550388e+02
1.140000e-06	-3.031061e-06	-2.326845e-09	-2.146336e+01	-1.545927e+02
1.150000e-06	-2.992729e-06	-2.309669e-09	-2.119192e+01	-1.541411e+02
1.160000e-06	-2.954212e-06	-2.296235e-09	-2.091918e+01	-1.536838e+02
1.170000e-06	-2.915602e-06	-2.287116e-09	-2.064578e+01	-1.532210e+02
1.180000e-06	-2.876823e-06	-2.282671e-09	-2.037118e+01	-1.527526e+02
1.190000e-06	-2.837782e-06	-2.279316e-09	-2.009472e+01	-1.522787e+02
1.200000e-06	-2.798511e-06	-2.277482e-09	-1.981664e+01	-1.517992e+02
1.210000e-06	-2.759056e-06	-2.270617e-09	-1.953726e+01	-1.513141e+02
1.220000e-06	-2.719467e-06	-2.260208e-09	-1.925692e+01	-1.508233e+02
1.230000e-06	-2.679735e-06	-2.242602e-09	-1.897557e+01	-1.503269e+02
1.240000e-06	-2.639879e-06	-2.228385e-09	-1.869335e+01	-1.498246e+02
1.250000e-06	-2.599942e-06	-2.215445e-09	-1.841055e+01	-1.493163e+02
1.260000e-06	-2.559948e-06	-2.207623e-09	-1.812734e+01	-1.488018e+02
1.270000e-06	-2.519793e-06	-2.200079e-09	-1.784300e+01	-1.482807e+02
1.280000e-06	-2.479425e-06	-2.194979e-09	-1.755715e+01	-1.477527e+02
1.290000e-06	-2.438897e-06	-2.187919e-09	-1.727017e+01	-1.472174e+02
1.300000e-06	-2.398240e-06	-2.178316e-09	-1.698227e+01	-1.466743e+02
1.310000e-06	-2.357367e-06	-2.163987e-09	-1.669284e+01	-1.461227e+02
1.320000e-06	-2.316226e-06	-2.150577e-09	-1.640152e+01	-1.455621e+02
1.330000e-06	-2.274888e-06	-2.136283e-09	-1.610880e+01	-1.449917e+02
1.340000e-06	-2.233363e-06	-2.126586e-09	-1.581475e+01	-1.444108e+02
1.350000e-06	-2.191400e-06	-2.118728e-09	-1.551760e+01	-1.438186e+02
1.360000e-06	-2.149041e-06	-2.110876e-09	-1.521766e+01	-1.432141e+02
1.370000e-06	-2.106499e-06	-2.101654e-09	-1.491641e+01	-1.425966e+02
1.380000e-06	-2.063690e-06	-2.090566e-09	-1.461327e+01	-1.419650e+02
1.390000e-06	-2.020661e-06	-2.076761e-09	-1.430858e+01	-1.413186e+02
1.400000e-06	-1.977490e-06	-2.063372e-09	-1.400288e+01	-1.406563e+02
1.410000e-06	-1.934172e-06	-2.051921e-09	-1.369614e+01	-1.399772e+02
1.420000e-06	-1.890730e-06	-2.040896e-09	-1.338852e+01	-1.392806e+02
1.430000e-06	-1.847160e-06	-2.029523e-09	-1.307999e+01	-1.385656e+02
1.440000e-06	-1.803502e-06	-2.018886e-09	-1.277085e+01	-1.378315e+02
1.450000e-06	-1.759814e-06	-2.007546e-09	-1.246149e+01	-1.370774e+02
1.460000e-06	-1.716049e-06	-1.990966e-09	-1.215158e+01	-1.363028e+02
1.470000e-06	-1.672187e-06	-1.972296e-09	-1.184098e+01	-1.355071e+02
1.480000e-06	-1.628215e-06	-1.955026e-09	-1.152961e+01	-1.346897e+02
1.490000e-06	-1.584171e-06	-1.943250e-09	-1.121773e+01	-1.338503e+02
1.500000e-06	-1.540102e-06	-1.933175e-09	-1.090568e+01	-1.329885e+02
1.510000e-06	-1.495940e-06	-1.922731e-09	-1.059296e+01	-1.321039e+02
1.520000e-06	-1.451664e-06	-1.909710e-09	-1.027943e+01	-1.311963e+02
1.530000e-06	-1.407286e-06	-1.897403e-09	-9.965183e+00	-1.302654e+02
1.540000e-06	-1.362758e-06	-1.884639e-09	-9.649880e+00	-1.293110e+02
1.550000e-06	-1.318124e-06	-1.868306e-09	-9.333814e+00	-1.283330e+02
1.560000e-06	-1.273404e-06	-1.852019e-09	-9.017150e+00	-1.273311e+02
1.570000e-06	-1.228624e-06	-1.842083e-09	-8.700052e+00	-1.263050e+02
1.580000e-06	-1.183795e-06	-1.832220e-09	-8.382613e+00	-1.252546e+02
1.590000e-06	-1.138915e-06	-1.818145e-09	-8.064815e+00	-1.241794e+02
1.600000e-06	-1.093920e-06	-1.800928e-09	-7.746196e+00	-1.230791e+02
1.610000e-06	-1.048793e-06	-1.783361e-09	-7.426651e+00	-1.219530e+02
1.620000e-06	-1.003580e-06	-1.764286e-09	-7.106487e+00	-1.208005e+02
1.630000e-06	-9.581796e-07	-1.745092e-09	-6.785002e+00	-1.196209e+02
1.640000e-06	-9.126477e-07	-1.725368e-09	-6.462584e+00	-1.184132e+02
1.650000e-06	-8.671616e-07	-1.708695e-09	-6.140491e+00	-1.171762e+02
1.660000e-06	-8.216833e-07	-1.692081e-09	-5.818453e+00	-1.159088e+02
1.670000e-06	-7.761061e-07	-1.673069e-09	-5.495714e+00	-1.146096e+02
1.680000e-06	-7.304280e-07	-1.651130e-09	-5.172261e+00	-1.132768e+02
1.690000e-06	-6.847350e-07	-1.627916e-09	-4.848703e+00	-1.119089e+02
1.700000e-06	-6.389933e-07	-1.606650e-09	-4.524800e+00	-1.105039e+02
1.710000e-06	-5.931757e-07	-1.586930e-09	-4.200359e+00	-1.090599e+02
1.720000e-06	-5.474280e-07	-1.566347e-09	-3.876413e+00	-1.075746e+02
1.730000e-06	-5.016810e-07	-1.545758e-09	-3.552472e+00	-1.060458e+02
1.740000e-06	-4.558585e-07	-1.523815e-09	-3.227997e+00	-1.044712e+02
1.750000e-06	-4.100077e-07	-1.497043e-09	-2.903321e+00	-1.028486e+02
1.760000e-06	-3.641326e-07	-1.468115e-09	-2.578473e+00	-1.011755e+02
1.770000e-06	-3.181736e-07	-1.440069e-09	-2.253031e+00	-9.944952e+01
1.780000e-06	-2.721582e-07	-1.414776e-09	-1.927189e+00	-9.766846e+01
1.790000e-06	-2.261426e-07	-1.390281e-09	-1.601347e+00	-9.583010e+01
1.800000e-06	-1.801378e-07	-1.361848e-09	-1.275581e+00	-9.393233e+01
1.810000e-06	-1.341268e-07	-1.331320e-09	-9.497702e-01	-9.197323e+01
1.820000e-06	-8.812212e-08	-1.303532e-09	-6.240049e-01	-8.995106e+01
1.830000e-06	-4.217308e-08	-1.274428e-09	-2.986334e-01	-8.786428e+01
1.840000e-06	3.758993e-09	-1.241293e-09	2.661794e-02	-8.571160e+01
1.850000e-06	4.967837e-08	-1.202549e-09	3.517794e-01	-8.349202e+01
1.860000e-06	9.559937e-08	-1.166230e-09	6.769523e-01	-8.120479e+01
1.870000e-06	1.415728e-07	-1.133166e-09	1.002496e+00	-7.884950e+01
1.880000e-06	1.875421e-07	-1.098465e-09	1.328012e+00	-7.642604e+01
1.890000e-06	2.334620e-07	-1.061858e-09	1.653177e+00	-7.393465e+01
1.900000e-06	2.793982e-07	-1.027903e-09	1.978457e+00	-7.137586e+01
1.910000e-06	3.253470e-07	-9.938988e-10	2.303827e+00	-6.875058e+01
1.920000e-06	3.712598e-07	-9.530980e-10	2.628942e+00	-6.605999e+01
1.930000e-06	4.171009e-07	-9.058070e-10	2.953549e+00	-6.330562e+01
1.940000e-06	4.629336e-07	-8.596200e-10	3.278097e+00	-6.048927e+01
1.950000e-06	5.087887e-07	-8.179795e-10	3.602803e+00	-5.761304e+01
1.960000e-06	5.545844e-07	-7.768157e-10	3.927089e+00	-5.467926e+01
1.970000e-06	6.002570e-07	-7.323263e-10	4.250503e+00	-5.169051e+01
1.980000e-06	6.458446e-07	-6.882524e-10	4.573315e+00	-4.864955e+01
1.990000e-06	6.914490e-07	-6.458410e-10	4.896246e+00	-4.555932e+01
2.000000e-06	7.370087e-07	-6.007173e-10	5.218860e+00	-4.242290e+01
2.010000e-06	7.824712e-07	-5.490569e-10	5.540786e+00	-3.924348e+01
2.020000e-06	8.279196e-07	-4.939988e-10	5.862613e+00	-3.602430e+01
2.030000e-06	8.733719e-07	-4.436173e-10	6.184467e+00	-3.276869e+01
2.040000e-06	9.188121e-07	-3.969588e-10	6.506235e+00	-2.947996e+01
2.050000e-06	9.642498e-07	-3.510182e-10	6.827985e+00	-2.616143e+01
2.060000e-06	1.009540e-06	-3.047690e-10	7.148694e+00	-2.281637e+01
2.070000e-06	1.054687e-06	-2.605774e-10	7.468380e+00	-1.944803e+01
2.080000e-06	1.099793e-06	-2.148767e-10	7.787785e+00	-1.605955e+01
2.090000e-06	1.144844e-06	-1.624400e-10	8.106800e+00	-1.265400e+01
2.100000e-06	1.189774e-06	-1.048777e-10	8.424951e+00	-9.234354e+00
2.110000e-06	1.234485e-06	-4.860470e-11	8.741557e+00	-5.803493e+00
2.120000e-06	1.279042e-06	3.887124e-12	9.057073e+00	-2.364181e+00
2.130000e-06	1.323546e-06	5.321362e-11	9.372209e+00	1.080916e+00
2.140000e-06	1.367955e-06	1.025276e-10	9.686680e+00	4.529230e+00
2.150000e-06	1.412316e-06	1.510836e-10	1.000080e+01	7.978284e+00
2.160000e-06	1.456540e-06	1.969484e-10	1.031396e+01	1.142568e+01
2.170000e-06	1.500558e-06	2.436475e-10	1.062566e+01	1.486909e+01
2.180000e-06	1.544576e-06	2.979915e-10	1.093735e+01	1.830625e+01
2.190000e-06	1.588607e-06	3.553303e-10	1.124915e+01	2.173491e+01
2.200000e-06	1.632592e-06	4.083164e-10	1.156061e+01	2.515286e+01
2.210000e-06	1.676503e-06	4.561354e-10	1.187155e+01	2.855791e+01
2.220000e-06	1.720336e-06	5.037232e-10	1.218194e+01	3.194783e+01
2.230000e-06	1.764147e-06	5.524269e-10	1.249217e+01	3.532042e+01
2.240000e-06	1.807936e-06	5.993327e-10	1.280224e+01	3.867340e+01
2.250000e-06	1.851676e-06	6.440186e-10	1.311197e+01	4.200449e+01
2.260000e-06	1.895362e-06	6.897566e-10	1.342132e+01	4.531135e+01
2.270000e-06	1.938915e-06	7.397080e-10	1.372972e+01	4.859158e+01
2.280000e-06	1.982285e-06	7.891147e-10	1.403683e+01	5.184276e+01
2.290000e-06	2.025519e-06	8.349647e-10	1.434298e+01	5.506241e+01
2.300000e-06	2.068608e-06	8.810886e-10	1.464810e+01	5.824803e+01
2.310000e-06	2.111418e-06	9.270320e-10	1.495124e+01	6.139706e+01
2.320000e-06	2.153827e-06	9.691312e-10	1.525155e+01	6.450698e+01
2.330000e-06	2.195940e-06	1.009341e-09	1.554975e+01	6.757524e+01
2.340000e-06	2.237811e-06	1.049178e-09	1.584625e+01	7.059934e+01
2.350000e-06	2.279408e-06	1.092438e-09	1.614080e+01	7.357681e+01
2.360000e-06	2.320795e-06	1.136041e-09	1.643387e+01	7.650527e+01
2.370000e-06	2.361875e-06	1.176244e-09	1.672476e+01	7.938242e+01
2.380000e-06	2.402731e-06	1.214673e-09	1.701407e+01	8.220609e+01
2.390000e-06	2.443356e-06	1.255112e-09	1.730174e+01	8.497427e+01
2.400000e-06	2.483704e-06	1.293602e-09	1.758745e+01	8.768510e+01
2.410000e-06	2.523879e-06	1.326352e-09	1.787193e+01	9.033692e+01
2.420000e-06	2.563898e-06	1.359100e-09	1.815532e+01	9.292830e+01
2.430000e-06	2.603868e-06	1.396981e-09	1.843835e+01	9.545803e+01
2.440000e-06	2.643748e-06	1.437095e-09	1.872074e+01	9.792514e+01
2.450000e-06	2.683537e-06	1.471611e-09	1.900249e+01	1.003289e+02
2.460000e-06	2.723243e-06	1.502062e-09	1.928366e+01	1.026690e+02
2.470000e-06	2.762833e-06	1.534349e-09	1.956400e+01	1.049451e+02
2.480000e-06	2.802303e-06	1.568359e-09	1.984349e+01	1.071575e+02
2.490000e-06	2.841598e-06	1.600411e-09	2.012174e+01	1.093063e+02
2.500000e-06	2.880646e-06	1.628414e-09	2.039825e+01	1.113924e+02
2.510000e-06	2.919392e-06	1.658871e-09	2.067262e+01	1.134165e+02
2.520000e-06	2.957870e-06	1.692396e-09	2.094508e+01	1.153797e+02
2.530000e-06	2.996149e-06	1.720532e-09	2.121614e+01	1.172832e+02
2.540000e-06	3.034265e-06	1.741819e-09	2.148605e+01	1.191286e+02
2.550000e-06	3.072216e-06	1.763067e-09	2.175479e+01	1.209173e+02
2.560000e-06	3.109980e-06	1.790699e-09	2.202220e+01	1.226512e+02
2.570000e-06	3.147537e-06	1.821055e-09	2.228814e+01	1.243320e+02
2.580000e-06	3.184920e-06	1.847069e-09	2.255286e+01	1.259615e+02
2.590000e-06	3.222071e-06	1.872453e-09	2.281593e+01	1.275416e+02
2.600000e-06	3.258814e-06	1.900454e-09	2.307611e+01	1.290741e+02
2.610000e-06	3.295299e-06	1.925117e-09	2.333447e+01	1.305609e+02
2.620000e-06	3.331575e-06	1.943057e-09	2.359134e+01	1.320036e+02
2.630000e-06	3.367621e-06	1.959828e-09	2.384659e+01	1.334040e+02
2.640000e-06	3.403568e-06	1.980542e-09	2.410113e+01	1.347635e+02
2.650000e-06	3.439418e-06	2.000524e-09	2.435499e+01	1.360836e+02
2.660000e-06	3.475175e-06	2.016568e-09	2.460819e+01	1.373655e+02
2.670000e-06	3.510811e-06	2.035076e-09	2.486053e+01	1.386103e+02
2.680000e-06	3.546275e-06	2.059044e-09	2.511166e+01	1.398190e+02
2.690000e-06	3.581461e-06	2.081026e-09	2.536082e+01	1.409923e+02
2.700000e-06	3.616285e-06	2.095018e-09	2.560741e+01	1.421308e+02
2.710000e-06	3.650677e-06	2.104197e-09	2.585095e+01	1.432352e+02
2.720000e-06	3.684607e-06	2.115995e-09	2.609121e+01	1.443056e+02
2.730000e-06	3.718122e-06	2.131414e-09	2.632854e+01	1.453424e+02
2.740000e-06	3.751108e-06	2.147550e-09	2.656212e+01	1.463457e+02
2.750000e-06	3.783616e-06	2.163964e-09	2.679231e+01	1.473155e+02
2.760000e-06	3.815907e-06	2.185306e-09	2.702096e+01	1.482520e+02
2.770000e-06	3.847986e-06	2.206292e-09	2.724812e+01	1.491550e+02
2.780000e-06	3.879872e-06	2.218405e-09	2.747390e+01	1.500246e+02
2.790000e-06	3.911638e-06	2.224701e-09	2.769885e+01	1.508609e+02
2.800000e-06	3.943238e-06	2.230679e-09	2.792261e+01	1.516638e+02
2.810000e-06	3.974639e-06	2.241180e-09	2.814496e+01	1.524337e+02
2.820000e-06	4.005756e-06	2.253557e-09	2.836531e+01	1.531707e+02
2.830000e-06	4.036569e-06	2.263637e-09	2.858350e+01	1.538751e+02
2.840000e-06	4.067071e-06	2.273827e-09	2.879949e+01	1.545477e+02
2.850000e-06	4.097280e-06	2.287167e-09	2.901340e+01	1.551889e+02
2.860000e-06	4.127228e-06	2.300373e-09	2.922547e+01	1.557996e+02
2.870000e-06	4.156936e-06	2.308787e-09	2.943583e+01	1.563808e+02
2.880000e-06	4.186419e-06	2.313403e-09	2.964461e+01	1.569335e+02
2.890000e-06	4.215600e-06	2.316330e-09	2.985124e+01	1.574590e+02
2.900000e-06	4.244460e-06	2.320315e-09	3.005561e+01	1.579588e+02
