# Temperatura_=_-1.1
# Concentracion g/m^3_=_4090.0
# C_Vs_to_Am_M_A/Vsm_=_65563218390.804596
# pendiente_HvsI_1/m_=_3716.3
# ordenada_HvsI_A/m_=_1297.0
# frecuencia_Hz_=_135075.39039468273

Tiempo_(s)	Campo_(V.s)	Magnetizacion_(V.s)	Campo_(kA/m)	Magnetizacion_(A/m)
0.000000e+00	-5.395946e-06	-2.609460e-09	-3.839325e+01	-1.681658e+02
1.000000e-08	-5.396098e-06	-2.610210e-09	-3.839433e+01	-1.681511e+02
2.000000e-08	-5.395939e-06	-2.612317e-09	-3.839320e+01	-1.681387e+02
3.000000e-08	-5.395342e-06	-2.613100e-09	-3.838895e+01	-1.681300e+02
4.000000e-08	-5.394369e-06	-2.609011e-09	-3.838203e+01	-1.681264e+02
5.000000e-08	-5.392957e-06	-2.603459e-09	-3.837198e+01	-1.681292e+02
6.000000e-08	-5.390914e-06	-2.602449e-09	-3.835744e+01	-1.681398e+02
7.000000e-08	-5.388202e-06	-2.610277e-09	-3.833814e+01	-1.681596e+02
8.000000e-08	-5.384944e-06	-2.632252e-09	-3.831496e+01	-1.681896e+02
9.000000e-08	-5.381117e-06	-2.630707e-09	-3.828774e+01	-1.682311e+02
1.000000e-07	-5.376855e-06	-2.581835e-09	-3.825741e+01	-1.682849e+02
1.100000e-07	-5.372519e-06	-2.570924e-09	-3.822656e+01	-1.683519e+02
1.200000e-07	-5.368083e-06	-2.638073e-09	-3.819500e+01	-1.684326e+02
1.300000e-07	-5.363280e-06	-2.603115e-09	-3.816083e+01	-1.685273e+02
1.400000e-07	-5.357934e-06	-2.543029e-09	-3.812278e+01	-1.686363e+02
1.500000e-07	-5.352184e-06	-2.527541e-09	-3.808187e+01	-1.687595e+02
1.600000e-07	-5.346282e-06	-2.643259e-09	-3.803988e+01	-1.688965e+02
1.700000e-07	-5.339979e-06	-2.640744e-09	-3.799503e+01	-1.690467e+02
1.800000e-07	-5.333124e-06	-2.545483e-09	-3.794626e+01	-1.692095e+02
1.900000e-07	-5.325994e-06	-2.560339e-09	-3.789552e+01	-1.693838e+02
2.000000e-07	-5.318640e-06	-2.628460e-09	-3.784320e+01	-1.695683e+02
2.100000e-07	-5.310958e-06	-2.613564e-09	-3.778854e+01	-1.697616e+02
2.200000e-07	-5.302973e-06	-2.528040e-09	-3.773172e+01	-1.699621e+02
2.300000e-07	-5.294840e-06	-2.590822e-09	-3.767386e+01	-1.701681e+02
2.400000e-07	-5.286389e-06	-2.628652e-09	-3.761373e+01	-1.703776e+02
2.500000e-07	-5.277190e-06	-2.590384e-09	-3.754827e+01	-1.705887e+02
2.600000e-07	-5.267165e-06	-2.555540e-09	-3.747694e+01	-1.707993e+02
2.700000e-07	-5.256682e-06	-2.651113e-09	-3.740235e+01	-1.710075e+02
2.800000e-07	-5.245766e-06	-2.644140e-09	-3.732469e+01	-1.712110e+02
2.900000e-07	-5.234334e-06	-2.570582e-09	-3.724334e+01	-1.714078e+02
3.000000e-07	-5.222535e-06	-2.594186e-09	-3.715939e+01	-1.715961e+02
3.100000e-07	-5.210357e-06	-2.686375e-09	-3.707274e+01	-1.717739e+02
3.200000e-07	-5.197749e-06	-2.633400e-09	-3.698303e+01	-1.719395e+02
3.300000e-07	-5.184783e-06	-2.574222e-09	-3.689078e+01	-1.720913e+02
3.400000e-07	-5.171414e-06	-2.627843e-09	-3.679566e+01	-1.722280e+02
3.500000e-07	-5.157596e-06	-2.663704e-09	-3.669734e+01	-1.723482e+02
3.600000e-07	-5.143482e-06	-2.615564e-09	-3.659691e+01	-1.724510e+02
3.700000e-07	-5.129101e-06	-2.621837e-09	-3.649459e+01	-1.725356e+02
3.800000e-07	-5.114198e-06	-2.638849e-09	-3.638855e+01	-1.726016e+02
3.900000e-07	-5.098535e-06	-2.607588e-09	-3.627711e+01	-1.726485e+02
4.000000e-07	-5.082378e-06	-2.612897e-09	-3.616214e+01	-1.726764e+02
4.100000e-07	-5.065805e-06	-2.641077e-09	-3.604423e+01	-1.726853e+02
4.200000e-07	-5.048810e-06	-2.602716e-09	-3.592331e+01	-1.726757e+02
4.300000e-07	-5.031535e-06	-2.580732e-09	-3.580039e+01	-1.726481e+02
4.400000e-07	-5.013997e-06	-2.643682e-09	-3.567560e+01	-1.726033e+02
4.500000e-07	-4.996218e-06	-2.635171e-09	-3.554910e+01	-1.725423e+02
4.600000e-07	-4.978176e-06	-2.583473e-09	-3.542073e+01	-1.724660e+02
4.700000e-07	-4.959754e-06	-2.590889e-09	-3.528965e+01	-1.723758e+02
4.800000e-07	-4.940760e-06	-2.632718e-09	-3.515451e+01	-1.722728e+02
4.900000e-07	-4.921297e-06	-2.603853e-09	-3.501602e+01	-1.721585e+02
5.000000e-07	-4.901593e-06	-2.597606e-09	-3.487583e+01	-1.720342e+02
5.100000e-07	-4.881739e-06	-2.597551e-09	-3.473456e+01	-1.719014e+02
5.200000e-07	-4.861742e-06	-2.597593e-09	-3.459227e+01	-1.717614e+02
5.300000e-07	-4.841548e-06	-2.599952e-09	-3.444859e+01	-1.716156e+02
5.400000e-07	-4.821090e-06	-2.611156e-09	-3.430303e+01	-1.714653e+02
5.500000e-07	-4.800170e-06	-2.571106e-09	-3.415418e+01	-1.713118e+02
5.600000e-07	-4.778871e-06	-2.572091e-09	-3.400263e+01	-1.711560e+02
5.700000e-07	-4.757291e-06	-2.602002e-09	-3.384909e+01	-1.709991e+02
5.800000e-07	-4.735367e-06	-2.597064e-09	-3.369309e+01	-1.708420e+02
5.900000e-07	-4.713144e-06	-2.560421e-09	-3.353497e+01	-1.706852e+02
6.000000e-07	-4.690582e-06	-2.571811e-09	-3.337444e+01	-1.705295e+02
6.100000e-07	-4.667674e-06	-2.582528e-09	-3.321144e+01	-1.703753e+02
6.200000e-07	-4.644392e-06	-2.574309e-09	-3.304579e+01	-1.702229e+02
6.300000e-07	-4.620730e-06	-2.560012e-09	-3.287743e+01	-1.700725e+02
6.400000e-07	-4.596918e-06	-2.555085e-09	-3.270800e+01	-1.699241e+02
6.500000e-07	-4.573001e-06	-2.559682e-09	-3.253782e+01	-1.697776e+02
6.600000e-07	-4.548836e-06	-2.572815e-09	-3.236589e+01	-1.696328e+02
6.700000e-07	-4.524353e-06	-2.565653e-09	-3.219169e+01	-1.694893e+02
6.800000e-07	-4.499494e-06	-2.547584e-09	-3.201481e+01	-1.693469e+02
6.900000e-07	-4.474257e-06	-2.552151e-09	-3.183524e+01	-1.692050e+02
7.000000e-07	-4.448492e-06	-2.561964e-09	-3.165192e+01	-1.690630e+02
7.100000e-07	-4.422049e-06	-2.553816e-09	-3.146377e+01	-1.689205e+02
7.200000e-07	-4.395097e-06	-2.535528e-09	-3.127201e+01	-1.687767e+02
7.300000e-07	-4.367748e-06	-2.536806e-09	-3.107741e+01	-1.686312e+02
7.400000e-07	-4.340081e-06	-2.542760e-09	-3.088055e+01	-1.684832e+02
7.500000e-07	-4.312269e-06	-2.544103e-09	-3.068267e+01	-1.683322e+02
7.600000e-07	-4.284305e-06	-2.526165e-09	-3.048370e+01	-1.681777e+02
7.700000e-07	-4.256185e-06	-2.519241e-09	-3.028362e+01	-1.680190e+02
7.800000e-07	-4.227890e-06	-2.523073e-09	-3.008229e+01	-1.678558e+02
7.900000e-07	-4.199217e-06	-2.528918e-09	-2.987828e+01	-1.676876e+02
8.000000e-07	-4.170164e-06	-2.513603e-09	-2.967156e+01	-1.675139e+02
8.100000e-07	-4.140814e-06	-2.505207e-09	-2.946273e+01	-1.673346e+02
8.200000e-07	-4.111183e-06	-2.506558e-09	-2.925190e+01	-1.671494e+02
8.300000e-07	-4.081371e-06	-2.514720e-09	-2.903978e+01	-1.669580e+02
8.400000e-07	-4.051322e-06	-2.505102e-09	-2.882597e+01	-1.667604e+02
8.500000e-07	-4.020872e-06	-2.493049e-09	-2.860932e+01	-1.665565e+02
8.600000e-07	-3.990113e-06	-2.485803e-09	-2.839046e+01	-1.663462e+02
8.700000e-07	-3.959148e-06	-2.490936e-09	-2.817014e+01	-1.661297e+02
8.800000e-07	-3.927946e-06	-2.484864e-09	-2.794813e+01	-1.659069e+02
8.900000e-07	-3.896469e-06	-2.474486e-09	-2.772417e+01	-1.656779e+02
9.000000e-07	-3.864722e-06	-2.469990e-09	-2.749828e+01	-1.654430e+02
9.100000e-07	-3.832837e-06	-2.477371e-09	-2.727141e+01	-1.652022e+02
9.200000e-07	-3.800842e-06	-2.478866e-09	-2.704376e+01	-1.649557e+02
9.300000e-07	-3.768665e-06	-2.472390e-09	-2.681481e+01	-1.647037e+02
9.400000e-07	-3.736274e-06	-2.465283e-09	-2.658435e+01	-1.644463e+02
9.500000e-07	-3.703598e-06	-2.464976e-09	-2.635185e+01	-1.641838e+02
9.600000e-07	-3.670537e-06	-2.463304e-09	-2.611662e+01	-1.639163e+02
9.700000e-07	-3.637045e-06	-2.456223e-09	-2.587831e+01	-1.636439e+02
9.800000e-07	-3.603008e-06	-2.450332e-09	-2.563613e+01	-1.633668e+02
9.900000e-07	-3.568495e-06	-2.448451e-09	-2.539056e+01	-1.630852e+02
1.000000e-06	-3.533643e-06	-2.449599e-09	-2.514258e+01	-1.627991e+02
1.010000e-06	-3.498435e-06	-2.446180e-09	-2.489208e+01	-1.625088e+02
1.020000e-06	-3.462939e-06	-2.439591e-09	-2.463951e+01	-1.622142e+02
1.030000e-06	-3.427254e-06	-2.431881e-09	-2.438561e+01	-1.619155e+02
1.040000e-06	-3.391404e-06	-2.428859e-09	-2.413053e+01	-1.616127e+02
1.050000e-06	-3.355430e-06	-2.419793e-09	-2.387456e+01	-1.613060e+02
1.060000e-06	-3.319354e-06	-2.409793e-09	-2.361788e+01	-1.609955e+02
1.070000e-06	-3.283185e-06	-2.401844e-09	-2.336052e+01	-1.606811e+02
1.080000e-06	-3.246808e-06	-2.400579e-09	-2.310169e+01	-1.603630e+02
1.090000e-06	-3.210128e-06	-2.396516e-09	-2.284071e+01	-1.600412e+02
1.100000e-06	-3.173123e-06	-2.391083e-09	-2.257741e+01	-1.597159e+02
1.110000e-06	-3.135859e-06	-2.381601e-09	-2.231227e+01	-1.593871e+02
1.120000e-06	-3.098389e-06	-2.377331e-09	-2.204567e+01	-1.590548e+02
1.130000e-06	-3.060675e-06	-2.374571e-09	-2.177732e+01	-1.587192e+02
1.140000e-06	-3.022800e-06	-2.370523e-09	-2.150784e+01	-1.583803e+02
1.150000e-06	-2.984864e-06	-2.363151e-09	-2.123791e+01	-1.580381e+02
1.160000e-06	-2.946705e-06	-2.357971e-09	-2.096640e+01	-1.576928e+02
1.170000e-06	-2.908219e-06	-2.348146e-09	-2.069256e+01	-1.573444e+02
1.180000e-06	-2.869561e-06	-2.339164e-09	-2.041751e+01	-1.569928e+02
1.190000e-06	-2.830774e-06	-2.329194e-09	-2.014153e+01	-1.566380e+02
1.200000e-06	-2.791854e-06	-2.321380e-09	-1.986461e+01	-1.562800e+02
1.210000e-06	-2.752683e-06	-2.315599e-09	-1.958590e+01	-1.559188e+02
1.220000e-06	-2.713201e-06	-2.311458e-09	-1.930497e+01	-1.555541e+02
1.230000e-06	-2.673515e-06	-2.306880e-09	-1.902260e+01	-1.551858e+02
1.240000e-06	-2.633700e-06	-2.300062e-09	-1.873931e+01	-1.548136e+02
1.250000e-06	-2.593793e-06	-2.292465e-09	-1.845536e+01	-1.544373e+02
1.260000e-06	-2.553847e-06	-2.284522e-09	-1.817114e+01	-1.540566e+02
1.270000e-06	-2.513824e-06	-2.276441e-09	-1.788637e+01	-1.536709e+02
1.280000e-06	-2.473706e-06	-2.265876e-09	-1.760092e+01	-1.532798e+02
1.290000e-06	-2.433535e-06	-2.255949e-09	-1.731509e+01	-1.528828e+02
1.300000e-06	-2.393218e-06	-2.249023e-09	-1.702823e+01	-1.524793e+02
1.310000e-06	-2.352680e-06	-2.247076e-09	-1.673980e+01	-1.520686e+02
1.320000e-06	-2.311922e-06	-2.244066e-09	-1.644979e+01	-1.516501e+02
1.330000e-06	-2.270896e-06	-2.236909e-09	-1.615788e+01	-1.512230e+02
1.340000e-06	-2.229563e-06	-2.227117e-09	-1.586379e+01	-1.507865e+02
1.350000e-06	-2.187997e-06	-2.219570e-09	-1.556804e+01	-1.503398e+02
1.360000e-06	-2.146119e-06	-2.208603e-09	-1.527007e+01	-1.498821e+02
1.370000e-06	-2.103932e-06	-2.194603e-09	-1.496990e+01	-1.494126e+02
1.380000e-06	-2.061544e-06	-2.179829e-09	-1.466831e+01	-1.489304e+02
1.390000e-06	-2.018913e-06	-2.170153e-09	-1.436497e+01	-1.484347e+02
1.400000e-06	-1.975949e-06	-2.166611e-09	-1.405928e+01	-1.479248e+02
1.410000e-06	-1.932678e-06	-2.162524e-09	-1.375140e+01	-1.473997e+02
1.420000e-06	-1.889246e-06	-2.150082e-09	-1.344237e+01	-1.468590e+02
1.430000e-06	-1.845732e-06	-2.136991e-09	-1.313276e+01	-1.463018e+02
1.440000e-06	-1.802167e-06	-2.125480e-09	-1.282278e+01	-1.457275e+02
1.450000e-06	-1.758507e-06	-2.112728e-09	-1.251213e+01	-1.451356e+02
1.460000e-06	-1.714724e-06	-2.097991e-09	-1.220061e+01	-1.445256e+02
1.470000e-06	-1.670862e-06	-2.085354e-09	-1.188852e+01	-1.438970e+02
1.480000e-06	-1.626958e-06	-2.076267e-09	-1.157614e+01	-1.432495e+02
1.490000e-06	-1.582984e-06	-2.069118e-09	-1.126325e+01	-1.425828e+02
1.500000e-06	-1.538959e-06	-2.058379e-09	-1.095001e+01	-1.418966e+02
1.510000e-06	-1.494872e-06	-2.043601e-09	-1.063631e+01	-1.411908e+02
1.520000e-06	-1.450692e-06	-2.030189e-09	-1.032197e+01	-1.404651e+02
1.530000e-06	-1.406454e-06	-2.019023e-09	-1.000720e+01	-1.397195e+02
1.540000e-06	-1.362131e-06	-2.006046e-09	-9.691837e+00	-1.389539e+02
1.550000e-06	-1.317830e-06	-1.992279e-09	-9.376630e+00	-1.381681e+02
1.560000e-06	-1.273555e-06	-1.982340e-09	-9.061600e+00	-1.373621e+02
1.570000e-06	-1.229129e-06	-1.976069e-09	-8.745499e+00	-1.365357e+02
1.580000e-06	-1.184564e-06	-1.964955e-09	-8.428414e+00	-1.356887e+02
1.590000e-06	-1.139847e-06	-1.948381e-09	-8.110239e+00	-1.348210e+02
1.600000e-06	-1.094980e-06	-1.935843e-09	-7.791002e+00	-1.339322e+02
1.610000e-06	-1.050087e-06	-1.926513e-09	-7.471584e+00	-1.330219e+02
1.620000e-06	-1.005077e-06	-1.912955e-09	-7.151328e+00	-1.320897e+02
1.630000e-06	-9.599440e-07	-1.893892e-09	-6.830196e+00	-1.311350e+02
1.640000e-06	-9.147780e-07	-1.876391e-09	-6.508831e+00	-1.301571e+02
1.650000e-06	-8.695529e-07	-1.864687e-09	-6.187045e+00	-1.291551e+02
1.660000e-06	-8.243438e-07	-1.853630e-09	-5.865373e+00	-1.281281e+02
1.670000e-06	-7.791061e-07	-1.836570e-09	-5.543498e+00	-1.270750e+02
1.680000e-06	-7.337248e-07	-1.816840e-09	-5.220600e+00	-1.259945e+02
1.690000e-06	-6.882764e-07	-1.800141e-09	-4.897226e+00	-1.248852e+02
1.700000e-06	-6.427836e-07	-1.787310e-09	-4.573535e+00	-1.237457e+02
1.710000e-06	-5.972303e-07	-1.769303e-09	-4.249415e+00	-1.225743e+02
1.720000e-06	-5.517033e-07	-1.747813e-09	-3.925481e+00	-1.213692e+02
1.730000e-06	-5.061205e-07	-1.728052e-09	-3.601150e+00	-1.201287e+02
1.740000e-06	-4.604026e-07	-1.710009e-09	-3.275858e+00	-1.188507e+02
1.750000e-06	-4.147037e-07	-1.689002e-09	-2.950701e+00	-1.175334e+02
1.760000e-06	-3.689885e-07	-1.666947e-09	-2.625428e+00	-1.161746e+02
1.770000e-06	-3.232178e-07	-1.648251e-09	-2.299760e+00	-1.147723e+02
1.780000e-06	-2.774741e-07	-1.633284e-09	-1.974284e+00	-1.133244e+02
1.790000e-06	-2.317163e-07	-1.614961e-09	-1.648709e+00	-1.118289e+02
1.800000e-06	-1.859650e-07	-1.590134e-09	-1.323179e+00	-1.102838e+02
1.810000e-06	-1.401952e-07	-1.563750e-09	-9.975174e-01	-1.086871e+02
1.820000e-06	-9.440325e-08	-1.539962e-09	-6.716982e-01	-1.070370e+02
1.830000e-06	-4.865343e-08	-1.515923e-09	-3.461790e-01	-1.053316e+02
1.840000e-06	-2.962421e-09	-1.488366e-09	-2.107822e-02	-1.035694e+02
1.850000e-06	4.278802e-08	-1.459467e-09	3.044454e-01	-1.017487e+02
1.860000e-06	8.863101e-08	-1.431139e-09	6.306276e-01	-9.986838e+01
1.870000e-06	1.344627e-07	-1.402050e-09	9.567291e-01	-9.792707e+01
1.880000e-06	1.802396e-07	-1.371074e-09	1.282441e+00	-9.592380e+01
1.890000e-06	2.260139e-07	-1.340348e-09	1.608134e+00	-9.385771e+01
1.900000e-06	2.717847e-07	-1.311307e-09	1.933803e+00	-9.172813e+01
1.910000e-06	3.175146e-07	-1.281179e-09	2.259181e+00	-8.953460e+01
1.920000e-06	3.632394e-07	-1.247098e-09	2.584522e+00	-8.727680e+01
1.930000e-06	4.088601e-07	-1.210858e-09	2.909122e+00	-8.495462e+01
1.940000e-06	4.544717e-07	-1.173644e-09	3.233658e+00	-8.256813e+01
1.950000e-06	5.001546e-07	-1.138146e-09	3.558701e+00	-8.011755e+01
1.960000e-06	5.457835e-07	-1.101818e-09	3.883360e+00	-7.760327e+01
1.970000e-06	5.913049e-07	-1.062459e-09	4.207254e+00	-7.502583e+01
1.980000e-06	6.368331e-07	-1.021073e-09	4.531196e+00	-7.238591e+01
1.990000e-06	6.823241e-07	-9.800731e-10	4.854874e+00	-6.968432e+01
2.000000e-06	7.276461e-07	-9.400165e-10	5.177349e+00	-6.692199e+01
2.010000e-06	7.729534e-07	-8.996417e-10	5.499720e+00	-6.409995e+01
2.020000e-06	8.182629e-07	-8.576216e-10	5.822106e+00	-6.121934e+01
2.030000e-06	8.633964e-07	-8.146373e-10	6.143240e+00	-5.828138e+01
2.040000e-06	9.084417e-07	-7.707990e-10	6.463747e+00	-5.528738e+01
2.050000e-06	9.535211e-07	-7.243840e-10	6.784495e+00	-5.223873e+01
2.060000e-06	9.985449e-07	-6.749615e-10	7.104849e+00	-4.913689e+01
2.070000e-06	1.043458e-06	-6.255674e-10	7.424417e+00	-4.598340e+01
2.080000e-06	1.088236e-06	-5.773419e-10	7.743019e+00	-4.277985e+01
2.090000e-06	1.132932e-06	-5.329230e-10	8.061037e+00	-3.952795e+01
2.100000e-06	1.177567e-06	-4.903324e-10	8.378625e+00	-3.622944e+01
2.110000e-06	1.222004e-06	-4.435277e-10	8.694804e+00	-3.288620e+01
2.120000e-06	1.266267e-06	-3.926504e-10	9.009742e+00	-2.950016e+01
2.130000e-06	1.310516e-06	-3.400429e-10	9.324583e+00	-2.607338e+01
2.140000e-06	1.354773e-06	-2.853727e-10	9.639487e+00	-2.260803e+01
2.150000e-06	1.399052e-06	-2.278726e-10	9.954537e+00	-1.910640e+01
2.160000e-06	1.443338e-06	-1.711653e-10	1.026964e+01	-1.557093e+01
2.170000e-06	1.487568e-06	-1.194944e-10	1.058435e+01	-1.200421e+01
2.180000e-06	1.531675e-06	-7.278834e-11	1.089818e+01	-8.408964e+00
2.190000e-06	1.575689e-06	-2.674719e-11	1.121135e+01	-4.788105e+00
2.200000e-06	1.619662e-06	2.389141e-11	1.152422e+01	-1.144715e+00
2.210000e-06	1.663556e-06	8.165033e-11	1.183654e+01	2.517948e+00
2.220000e-06	1.707339e-06	1.426983e-10	1.214807e+01	6.196443e+00
2.230000e-06	1.751003e-06	2.024399e-10	1.245874e+01	9.887149e+00
2.240000e-06	1.794609e-06	2.586992e-10	1.276900e+01	1.358627e+01
2.250000e-06	1.838118e-06	3.136961e-10	1.307858e+01	1.728983e+01
2.260000e-06	1.881435e-06	3.673584e-10	1.338679e+01	2.099372e+01
2.270000e-06	1.924613e-06	4.191965e-10	1.369401e+01	2.469365e+01
2.280000e-06	1.967621e-06	4.709917e-10	1.400002e+01	2.838525e+01
2.290000e-06	2.010390e-06	5.238478e-10	1.430433e+01	3.206400e+01
2.300000e-06	2.053041e-06	5.779266e-10	1.460780e+01	3.572533e+01
2.310000e-06	2.095535e-06	6.323114e-10	1.491016e+01	3.936463e+01
2.320000e-06	2.137654e-06	6.832547e-10	1.520984e+01	4.297723e+01
2.330000e-06	2.179384e-06	7.323430e-10	1.550676e+01	4.655852e+01
2.340000e-06	2.220904e-06	7.847863e-10	1.580218e+01	5.010391e+01
2.350000e-06	2.262152e-06	8.398975e-10	1.609567e+01	5.360892e+01
2.360000e-06	2.303105e-06	8.934729e-10	1.638706e+01	5.706916e+01
2.370000e-06	2.343900e-06	9.438676e-10	1.667733e+01	6.048045e+01
2.380000e-06	2.384496e-06	9.907973e-10	1.696617e+01	6.383875e+01
2.390000e-06	2.424910e-06	1.035580e-09	1.725372e+01	6.714030e+01
2.400000e-06	2.465177e-06	1.077803e-09	1.754024e+01	7.038157e+01
2.410000e-06	2.505304e-06	1.118050e-09	1.782575e+01	7.355935e+01
2.420000e-06	2.545359e-06	1.161189e-09	1.811074e+01	7.667074e+01
2.430000e-06	2.585277e-06	1.209641e-09	1.839477e+01	7.971318e+01
2.440000e-06	2.625066e-06	1.262196e-09	1.867787e+01	8.268449e+01
2.450000e-06	2.664757e-06	1.308663e-09	1.896028e+01	8.558284e+01
2.460000e-06	2.704289e-06	1.348102e-09	1.924156e+01	8.840681e+01
2.470000e-06	2.743670e-06	1.381774e-09	1.952177e+01	9.115535e+01
2.480000e-06	2.782933e-06	1.411971e-09	1.980113e+01	9.382783e+01
2.490000e-06	2.822028e-06	1.441359e-09	2.007930e+01	9.642396e+01
2.500000e-06	2.860805e-06	1.474793e-09	2.035521e+01	9.894385e+01
2.510000e-06	2.899338e-06	1.516798e-09	2.062937e+01	1.013879e+02
2.520000e-06	2.937714e-06	1.562768e-09	2.090243e+01	1.037570e+02
2.530000e-06	2.975916e-06	1.602518e-09	2.117424e+01	1.060522e+02
2.540000e-06	3.013905e-06	1.631557e-09	2.144454e+01	1.082748e+02
2.550000e-06	3.051711e-06	1.655581e-09	2.171354e+01	1.104265e+02
2.560000e-06	3.089278e-06	1.678908e-09	2.198084e+01	1.125089e+02
2.570000e-06	3.126594e-06	1.701802e-09	2.224635e+01	1.145243e+02
2.580000e-06	3.163702e-06	1.726426e-09	2.251038e+01	1.164745e+02
2.590000e-06	3.200547e-06	1.756110e-09	2.277254e+01	1.183619e+02
2.600000e-06	3.237195e-06	1.791689e-09	2.303330e+01	1.201887e+02
2.610000e-06	3.273620e-06	1.826179e-09	2.329247e+01	1.219572e+02
2.620000e-06	3.309859e-06	1.854246e-09	2.355031e+01	1.236696e+02
2.630000e-06	3.345994e-06	1.876008e-09	2.380742e+01	1.253281e+02
2.640000e-06	3.381993e-06	1.893287e-09	2.406357e+01	1.269349e+02
2.650000e-06	3.417871e-06	1.908977e-09	2.431884e+01	1.284920e+02
2.660000e-06	3.453616e-06	1.924966e-09	2.457318e+01	1.300012e+02
2.670000e-06	3.489188e-06	1.946951e-09	2.482628e+01	1.314644e+02
2.680000e-06	3.524533e-06	1.973364e-09	2.507776e+01	1.328830e+02
2.690000e-06	3.559427e-06	1.999264e-09	2.532604e+01	1.342586e+02
2.700000e-06	3.593855e-06	2.020113e-09	2.557101e+01	1.355923e+02
2.710000e-06	3.627844e-06	2.035918e-09	2.581284e+01	1.368853e+02
2.720000e-06	3.661426e-06	2.049249e-09	2.605179e+01	1.381384e+02
2.730000e-06	3.694592e-06	2.061173e-09	2.628777e+01	1.393524e+02
2.740000e-06	3.727320e-06	2.073932e-09	2.652064e+01	1.405280e+02
2.750000e-06	3.759864e-06	2.091131e-09	2.675219e+01	1.416656e+02
2.760000e-06	3.792199e-06	2.113120e-09	2.698226e+01	1.427656e+02
2.770000e-06	3.824318e-06	2.136500e-09	2.721079e+01	1.438283e+02
2.780000e-06	3.856301e-06	2.156181e-09	2.743836e+01	1.448540e+02
2.790000e-06	3.888091e-06	2.171364e-09	2.766455e+01	1.458428e+02
2.800000e-06	3.919647e-06	2.183560e-09	2.788908e+01	1.467951e+02
2.810000e-06	3.950948e-06	2.193883e-09	2.811179e+01	1.477110e+02
2.820000e-06	3.981952e-06	2.201023e-09	2.833239e+01	1.485907e+02
2.830000e-06	4.012623e-06	2.207385e-09	2.855062e+01	1.494346e+02
2.840000e-06	4.043019e-06	2.217917e-09	2.876690e+01	1.502431e+02
2.850000e-06	4.073210e-06	2.233313e-09	2.898171e+01	1.510167e+02
2.860000e-06	4.103177e-06	2.250774e-09	2.919493e+01	1.517559e+02
2.870000e-06	4.132902e-06	2.264464e-09	2.940643e+01	1.524615e+02
2.880000e-06	4.162318e-06	2.271065e-09	2.961574e+01	1.531343e+02
2.890000e-06	4.191362e-06	2.273773e-09	2.982239e+01	1.537754e+02
2.900000e-06	4.220114e-06	2.277394e-09	3.002696e+01	1.543857e+02
