# Temperatura_=_16.9
# Concentracion g/m^3_=_4090.0
# C_Vs_to_Am_M_A/Vsm_=_65563218390.804596
# pendiente_HvsI_1/m_=_3716.3
# ordenada_HvsI_A/m_=_1297.0
# frecuencia_Hz_=_135079.878552305

Tiempo_(s)	Campo_(V.s)	Magnetizacion_(V.s)	Campo_(kA/m)	Magnetizacion_(A/m)
0.000000e+00	-5.419744e-06	-2.641825e-09	-3.838815e+01	-1.727287e+02
1.000000e-08	-5.419851e-06	-2.638528e-09	-3.838891e+01	-1.726912e+02
2.000000e-08	-5.419810e-06	-2.630331e-09	-3.838862e+01	-1.726538e+02
3.000000e-08	-5.419556e-06	-2.622539e-09	-3.838682e+01	-1.726181e+02
4.000000e-08	-5.419033e-06	-2.617610e-09	-3.838312e+01	-1.725856e+02
5.000000e-08	-5.418076e-06	-2.614239e-09	-3.837633e+01	-1.725579e+02
6.000000e-08	-5.416463e-06	-2.613857e-09	-3.836491e+01	-1.725366e+02
7.000000e-08	-5.414298e-06	-2.622005e-09	-3.834957e+01	-1.725231e+02
8.000000e-08	-5.411592e-06	-2.638857e-09	-3.833041e+01	-1.725188e+02
9.000000e-08	-5.408204e-06	-2.639360e-09	-3.830641e+01	-1.725251e+02
1.000000e-07	-5.404330e-06	-2.604197e-09	-3.827897e+01	-1.725431e+02
1.100000e-07	-5.400151e-06	-2.604455e-09	-3.824937e+01	-1.725737e+02
1.200000e-07	-5.395779e-06	-2.651037e-09	-3.821841e+01	-1.726177e+02
1.300000e-07	-5.391273e-06	-2.625246e-09	-3.818649e+01	-1.726756e+02
1.400000e-07	-5.386327e-06	-2.569214e-09	-3.815146e+01	-1.727476e+02
1.500000e-07	-5.380909e-06	-2.551326e-09	-3.811308e+01	-1.728339e+02
1.600000e-07	-5.375241e-06	-2.641731e-09	-3.807293e+01	-1.729342e+02
1.700000e-07	-5.369265e-06	-2.664364e-09	-3.803060e+01	-1.730480e+02
1.800000e-07	-5.362814e-06	-2.602826e-09	-3.798491e+01	-1.731745e+02
1.900000e-07	-5.355882e-06	-2.607482e-09	-3.793582e+01	-1.733128e+02
2.000000e-07	-5.348577e-06	-2.673737e-09	-3.788407e+01	-1.734616e+02
2.100000e-07	-5.340997e-06	-2.689813e-09	-3.783038e+01	-1.736194e+02
2.200000e-07	-5.333143e-06	-2.639887e-09	-3.777476e+01	-1.737846e+02
2.300000e-07	-5.325067e-06	-2.678856e-09	-3.771755e+01	-1.739552e+02
2.400000e-07	-5.316810e-06	-2.727821e-09	-3.765907e+01	-1.741294e+02
2.500000e-07	-5.308105e-06	-2.717040e-09	-3.759741e+01	-1.743051e+02
2.600000e-07	-5.298658e-06	-2.701983e-09	-3.753049e+01	-1.744800e+02
2.700000e-07	-5.288581e-06	-2.777606e-09	-3.745912e+01	-1.746519e+02
2.800000e-07	-5.277878e-06	-2.791685e-09	-3.738331e+01	-1.748187e+02
2.900000e-07	-5.266653e-06	-2.736578e-09	-3.730381e+01	-1.749782e+02
3.000000e-07	-5.255149e-06	-2.730649e-09	-3.722232e+01	-1.751281e+02
3.100000e-07	-5.243282e-06	-2.794105e-09	-3.713826e+01	-1.752667e+02
3.200000e-07	-5.230967e-06	-2.780645e-09	-3.705104e+01	-1.753919e+02
3.300000e-07	-5.218273e-06	-2.733032e-09	-3.696112e+01	-1.755021e+02
3.400000e-07	-5.205222e-06	-2.751701e-09	-3.686868e+01	-1.755958e+02
3.500000e-07	-5.191785e-06	-2.779003e-09	-3.677351e+01	-1.756718e+02
3.600000e-07	-5.177989e-06	-2.754976e-09	-3.667580e+01	-1.757289e+02
3.700000e-07	-5.163931e-06	-2.747317e-09	-3.657622e+01	-1.757663e+02
3.800000e-07	-5.149511e-06	-2.755314e-09	-3.647408e+01	-1.757836e+02
3.900000e-07	-5.134475e-06	-2.738072e-09	-3.636759e+01	-1.757805e+02
4.000000e-07	-5.118731e-06	-2.732357e-09	-3.625607e+01	-1.757568e+02
4.100000e-07	-5.102329e-06	-2.750621e-09	-3.613989e+01	-1.757129e+02
4.200000e-07	-5.085547e-06	-2.728263e-09	-3.602102e+01	-1.756492e+02
4.300000e-07	-5.068473e-06	-2.701940e-09	-3.590009e+01	-1.755663e+02
4.400000e-07	-5.051135e-06	-2.736227e-09	-3.577729e+01	-1.754652e+02
4.500000e-07	-5.033548e-06	-2.748981e-09	-3.565271e+01	-1.753468e+02
4.600000e-07	-5.015617e-06	-2.718989e-09	-3.552571e+01	-1.752125e+02
4.700000e-07	-4.997382e-06	-2.708042e-09	-3.539655e+01	-1.750634e+02
4.800000e-07	-4.978753e-06	-2.732807e-09	-3.526460e+01	-1.749011e+02
4.900000e-07	-4.959703e-06	-2.724108e-09	-3.512967e+01	-1.747270e+02
5.000000e-07	-4.940240e-06	-2.710696e-09	-3.499181e+01	-1.745426e+02
5.100000e-07	-4.920422e-06	-2.699910e-09	-3.485144e+01	-1.743493e+02
5.200000e-07	-4.900488e-06	-2.701698e-09	-3.471025e+01	-1.741487e+02
5.300000e-07	-4.880432e-06	-2.708865e-09	-3.456819e+01	-1.739422e+02
5.400000e-07	-4.860106e-06	-2.718730e-09	-3.442422e+01	-1.737311e+02
5.500000e-07	-4.839394e-06	-2.692951e-09	-3.427752e+01	-1.735165e+02
5.600000e-07	-4.818256e-06	-2.681056e-09	-3.412780e+01	-1.732996e+02
5.700000e-07	-4.796683e-06	-2.692990e-09	-3.397500e+01	-1.730813e+02
5.800000e-07	-4.774837e-06	-2.695894e-09	-3.382026e+01	-1.728623e+02
5.900000e-07	-4.752819e-06	-2.670820e-09	-3.366431e+01	-1.726433e+02
6.000000e-07	-4.730503e-06	-2.666125e-09	-3.350624e+01	-1.724248e+02
6.100000e-07	-4.707777e-06	-2.673954e-09	-3.334527e+01	-1.722069e+02
6.200000e-07	-4.684653e-06	-2.676446e-09	-3.318149e+01	-1.719899e+02
6.300000e-07	-4.661207e-06	-2.662884e-09	-3.301542e+01	-1.717736e+02
6.400000e-07	-4.637485e-06	-2.647490e-09	-3.284740e+01	-1.715579e+02
6.500000e-07	-4.613563e-06	-2.639531e-09	-3.267795e+01	-1.713425e+02
6.600000e-07	-4.589476e-06	-2.647752e-09	-3.250735e+01	-1.711269e+02
6.700000e-07	-4.565143e-06	-2.647019e-09	-3.233500e+01	-1.709106e+02
6.800000e-07	-4.540407e-06	-2.631939e-09	-3.215979e+01	-1.706930e+02
6.900000e-07	-4.515281e-06	-2.628546e-09	-3.198182e+01	-1.704734e+02
7.000000e-07	-4.489700e-06	-2.634939e-09	-3.180063e+01	-1.702512e+02
7.100000e-07	-4.463514e-06	-2.629991e-09	-3.161515e+01	-1.700256e+02
7.200000e-07	-4.436691e-06	-2.611147e-09	-3.142517e+01	-1.697959e+02
7.300000e-07	-4.409369e-06	-2.601202e-09	-3.123165e+01	-1.695615e+02
7.400000e-07	-4.381767e-06	-2.602690e-09	-3.103614e+01	-1.693216e+02
7.500000e-07	-4.353954e-06	-2.605878e-09	-3.083914e+01	-1.690759e+02
7.600000e-07	-4.325971e-06	-2.593248e-09	-3.064093e+01	-1.688236e+02
7.700000e-07	-4.297861e-06	-2.583475e-09	-3.044183e+01	-1.685645e+02
7.800000e-07	-4.269548e-06	-2.583219e-09	-3.024129e+01	-1.682982e+02
7.900000e-07	-4.240948e-06	-2.585832e-09	-3.003872e+01	-1.680245e+02
8.000000e-07	-4.212011e-06	-2.572108e-09	-2.983376e+01	-1.677432e+02
8.100000e-07	-4.182727e-06	-2.556881e-09	-2.962634e+01	-1.674543e+02
8.200000e-07	-4.153102e-06	-2.551972e-09	-2.941650e+01	-1.671578e+02
8.300000e-07	-4.123171e-06	-2.558695e-09	-2.920450e+01	-1.668538e+02
8.400000e-07	-4.093052e-06	-2.557421e-09	-2.899116e+01	-1.665427e+02
8.500000e-07	-4.062781e-06	-2.551154e-09	-2.877676e+01	-1.662246e+02
8.600000e-07	-4.032214e-06	-2.543732e-09	-2.856025e+01	-1.658999e+02
8.700000e-07	-4.001331e-06	-2.541545e-09	-2.834150e+01	-1.655690e+02
8.800000e-07	-3.970210e-06	-2.531889e-09	-2.812107e+01	-1.652322e+02
8.900000e-07	-3.938744e-06	-2.516820e-09	-2.789820e+01	-1.648901e+02
9.000000e-07	-3.907002e-06	-2.504130e-09	-2.767337e+01	-1.645429e+02
9.100000e-07	-3.875158e-06	-2.506437e-09	-2.744782e+01	-1.641911e+02
9.200000e-07	-3.843176e-06	-2.510499e-09	-2.722129e+01	-1.638352e+02
9.300000e-07	-3.810974e-06	-2.509662e-09	-2.699320e+01	-1.634753e+02
9.400000e-07	-3.778585e-06	-2.504565e-09	-2.676379e+01	-1.631118e+02
9.500000e-07	-3.745926e-06	-2.501815e-09	-2.653247e+01	-1.627449e+02
9.600000e-07	-3.712891e-06	-2.497030e-09	-2.629848e+01	-1.623749e+02
9.700000e-07	-3.679449e-06	-2.484346e-09	-2.606160e+01	-1.620018e+02
9.800000e-07	-3.645512e-06	-2.469715e-09	-2.582123e+01	-1.616256e+02
9.900000e-07	-3.611088e-06	-2.462755e-09	-2.557740e+01	-1.612463e+02
1.000000e-06	-3.576254e-06	-2.465136e-09	-2.533067e+01	-1.608639e+02
1.010000e-06	-3.540975e-06	-2.467688e-09	-2.508080e+01	-1.604781e+02
1.020000e-06	-3.505362e-06	-2.465431e-09	-2.482855e+01	-1.600888e+02
1.030000e-06	-3.469588e-06	-2.458952e-09	-2.457516e+01	-1.596957e+02
1.040000e-06	-3.433665e-06	-2.450860e-09	-2.432072e+01	-1.592986e+02
1.050000e-06	-3.397642e-06	-2.439642e-09	-2.406556e+01	-1.588971e+02
1.060000e-06	-3.361516e-06	-2.426340e-09	-2.380968e+01	-1.584908e+02
1.070000e-06	-3.325256e-06	-2.414492e-09	-2.355285e+01	-1.580795e+02
1.080000e-06	-3.288735e-06	-2.410168e-09	-2.329417e+01	-1.576629e+02
1.090000e-06	-3.251955e-06	-2.408467e-09	-2.303366e+01	-1.572405e+02
1.100000e-06	-3.214985e-06	-2.404741e-09	-2.277180e+01	-1.568121e+02
1.110000e-06	-3.177726e-06	-2.395862e-09	-2.250789e+01	-1.563774e+02
1.120000e-06	-3.140256e-06	-2.387785e-09	-2.224249e+01	-1.559362e+02
1.130000e-06	-3.102641e-06	-2.379019e-09	-2.197606e+01	-1.554883e+02
1.140000e-06	-3.064852e-06	-2.371130e-09	-2.170840e+01	-1.550336e+02
1.150000e-06	-3.026868e-06	-2.360744e-09	-2.143937e+01	-1.545720e+02
1.160000e-06	-2.988646e-06	-2.354783e-09	-2.116864e+01	-1.541033e+02
1.170000e-06	-2.950208e-06	-2.348251e-09	-2.089638e+01	-1.536276e+02
1.180000e-06	-2.911635e-06	-2.338039e-09	-2.062316e+01	-1.531450e+02
1.190000e-06	-2.872818e-06	-2.325209e-09	-2.034822e+01	-1.526554e+02
1.200000e-06	-2.833741e-06	-2.316130e-09	-2.007144e+01	-1.521589e+02
1.210000e-06	-2.794423e-06	-2.308728e-09	-1.979295e+01	-1.516557e+02
1.220000e-06	-2.754870e-06	-2.298807e-09	-1.951280e+01	-1.511457e+02
1.230000e-06	-2.715165e-06	-2.286633e-09	-1.923157e+01	-1.506292e+02
1.240000e-06	-2.675347e-06	-2.278459e-09	-1.894953e+01	-1.501062e+02
1.250000e-06	-2.635413e-06	-2.271388e-09	-1.866668e+01	-1.495766e+02
1.260000e-06	-2.595342e-06	-2.260825e-09	-1.838286e+01	-1.490405e+02
1.270000e-06	-2.555207e-06	-2.248487e-09	-1.809858e+01	-1.484977e+02
1.280000e-06	-2.515060e-06	-2.236778e-09	-1.781421e+01	-1.479483e+02
1.290000e-06	-2.474868e-06	-2.225675e-09	-1.752953e+01	-1.473920e+02
1.300000e-06	-2.434491e-06	-2.213812e-09	-1.724355e+01	-1.468284e+02
1.310000e-06	-2.393810e-06	-2.203965e-09	-1.695540e+01	-1.462573e+02
1.320000e-06	-2.352876e-06	-2.198070e-09	-1.666546e+01	-1.456782e+02
1.330000e-06	-2.311785e-06	-2.192414e-09	-1.637442e+01	-1.450906e+02
1.340000e-06	-2.270426e-06	-2.180951e-09	-1.608147e+01	-1.444939e+02
1.350000e-06	-2.228724e-06	-2.164514e-09	-1.578609e+01	-1.438874e+02
1.360000e-06	-2.186703e-06	-2.148868e-09	-1.548846e+01	-1.432703e+02
1.370000e-06	-2.144425e-06	-2.135915e-09	-1.518900e+01	-1.426418e+02
1.380000e-06	-2.102019e-06	-2.121425e-09	-1.488864e+01	-1.420010e+02
1.390000e-06	-2.059378e-06	-2.107136e-09	-1.458662e+01	-1.413471e+02
1.400000e-06	-2.016415e-06	-2.094030e-09	-1.428231e+01	-1.406790e+02
1.410000e-06	-1.973206e-06	-2.087877e-09	-1.397626e+01	-1.399958e+02
1.420000e-06	-1.929769e-06	-2.081216e-09	-1.366859e+01	-1.392965e+02
1.430000e-06	-1.886234e-06	-2.069320e-09	-1.336023e+01	-1.385802e+02
1.440000e-06	-1.842624e-06	-2.055352e-09	-1.305134e+01	-1.378459e+02
1.450000e-06	-1.798866e-06	-2.042972e-09	-1.274140e+01	-1.370926e+02
1.460000e-06	-1.755050e-06	-2.026946e-09	-1.243106e+01	-1.363197e+02
1.470000e-06	-1.711167e-06	-2.006067e-09	-1.212023e+01	-1.355261e+02
1.480000e-06	-1.667141e-06	-1.985470e-09	-1.180839e+01	-1.347112e+02
1.490000e-06	-1.623012e-06	-1.971423e-09	-1.149582e+01	-1.338744e+02
1.500000e-06	-1.578825e-06	-1.963421e-09	-1.118284e+01	-1.330149e+02
1.510000e-06	-1.534605e-06	-1.956326e-09	-1.086964e+01	-1.321323e+02
1.520000e-06	-1.490294e-06	-1.947878e-09	-1.055578e+01	-1.312260e+02
1.530000e-06	-1.445962e-06	-1.937221e-09	-1.024177e+01	-1.302958e+02
1.540000e-06	-1.401640e-06	-1.923194e-09	-9.927846e+00	-1.293412e+02
1.550000e-06	-1.357202e-06	-1.905113e-09	-9.613085e+00	-1.283619e+02
1.560000e-06	-1.312631e-06	-1.883380e-09	-9.297392e+00	-1.273577e+02
1.570000e-06	-1.267993e-06	-1.864820e-09	-8.981218e+00	-1.263283e+02
1.580000e-06	-1.223231e-06	-1.853736e-09	-8.664165e+00	-1.252735e+02
1.590000e-06	-1.178311e-06	-1.843422e-09	-8.346000e+00	-1.241929e+02
1.600000e-06	-1.133317e-06	-1.831227e-09	-8.027308e+00	-1.230864e+02
1.610000e-06	-1.088306e-06	-1.818261e-09	-7.708489e+00	-1.219535e+02
1.620000e-06	-1.043267e-06	-1.804995e-09	-7.389477e+00	-1.207938e+02
1.630000e-06	-9.981492e-07	-1.787804e-09	-7.069910e+00	-1.196067e+02
1.640000e-06	-9.529389e-07	-1.763928e-09	-6.749684e+00	-1.183917e+02
1.650000e-06	-9.075553e-07	-1.737813e-09	-6.428232e+00	-1.171480e+02
1.660000e-06	-8.620214e-07	-1.716678e-09	-6.105714e+00	-1.158748e+02
1.670000e-06	-8.165001e-07	-1.698525e-09	-5.783286e+00	-1.145708e+02
1.680000e-06	-7.709498e-07	-1.680166e-09	-5.460652e+00	-1.132351e+02
1.690000e-06	-7.252369e-07	-1.658503e-09	-5.136867e+00	-1.118662e+02
1.700000e-06	-6.794398e-07	-1.637855e-09	-4.812485e+00	-1.104626e+02
1.710000e-06	-6.336802e-07	-1.619482e-09	-4.488369e+00	-1.090226e+02
1.720000e-06	-5.879228e-07	-1.597658e-09	-4.164269e+00	-1.075445e+02
1.730000e-06	-5.421730e-07	-1.570832e-09	-3.840222e+00	-1.060263e+02
1.740000e-06	-4.964397e-07	-1.544599e-09	-3.516292e+00	-1.044659e+02
1.750000e-06	-4.506561e-07	-1.519541e-09	-3.192006e+00	-1.028613e+02
1.760000e-06	-4.048007e-07	-1.492524e-09	-2.867211e+00	-1.012101e+02
1.770000e-06	-3.589672e-07	-1.464620e-09	-2.542572e+00	-9.951011e+01
1.780000e-06	-3.131250e-07	-1.440654e-09	-2.217870e+00	-9.775901e+01
1.790000e-06	-2.672058e-07	-1.420767e-09	-1.892624e+00	-9.595452e+01
1.800000e-06	-2.212557e-07	-1.398262e-09	-1.567158e+00	-9.409441e+01
1.810000e-06	-1.753197e-07	-1.369374e-09	-1.241793e+00	-9.217652e+01
1.820000e-06	-1.293684e-07	-1.338203e-09	-9.163186e-01	-9.019881e+01
1.830000e-06	-8.331947e-08	-1.307713e-09	-5.901534e-01	-8.815938e+01
1.840000e-06	-3.729992e-08	-1.274940e-09	-2.641961e-01	-8.605654e+01
1.850000e-06	8.642072e-09	-1.238282e-09	6.121196e-02	-8.388878e+01
1.860000e-06	5.466270e-08	-1.200954e-09	3.871770e-01	-8.165485e+01
1.870000e-06	1.006923e-07	-1.168045e-09	7.132052e-01	-7.935376e+01
1.880000e-06	1.466888e-07	-1.136769e-09	1.038999e+00	-7.698482e+01
1.890000e-06	1.927277e-07	-1.102163e-09	1.365094e+00	-7.454767e+01
1.900000e-06	2.387213e-07	-1.064677e-09	1.690868e+00	-7.204223e+01
1.910000e-06	2.846453e-07	-1.026816e-09	2.016148e+00	-6.946880e+01
1.920000e-06	3.305360e-07	-9.853752e-10	2.341193e+00	-6.682801e+01
1.930000e-06	3.764505e-07	-9.393376e-10	2.666406e+00	-6.412082e+01
1.940000e-06	4.223238e-07	-8.935097e-10	2.991328e+00	-6.134855e+01
1.950000e-06	4.681180e-07	-8.513001e-10	3.315689e+00	-5.851285e+01
1.960000e-06	5.138667e-07	-8.111783e-10	3.639728e+00	-5.561566e+01
1.970000e-06	5.595895e-07	-7.704503e-10	3.963583e+00	-5.265925e+01
1.980000e-06	6.053355e-07	-7.269482e-10	4.287603e+00	-4.964616e+01
1.990000e-06	6.510284e-07	-6.800339e-10	4.611247e+00	-4.657918e+01
2.000000e-06	6.966535e-07	-6.325291e-10	4.934410e+00	-4.346132e+01
2.010000e-06	7.421943e-07	-5.846853e-10	5.256977e+00	-4.029580e+01
2.020000e-06	7.876660e-07	-5.340133e-10	5.579053e+00	-3.708598e+01
2.030000e-06	8.331257e-07	-4.827912e-10	5.901045e+00	-3.383537e+01
2.040000e-06	8.785046e-07	-4.346234e-10	6.222465e+00	-3.054756e+01
2.050000e-06	9.237916e-07	-3.868304e-10	6.543234e+00	-2.722621e+01
2.060000e-06	9.691050e-07	-3.375193e-10	6.864189e+00	-2.387503e+01
2.070000e-06	1.014398e-06	-2.900820e-10	7.185001e+00	-2.049769e+01
2.080000e-06	1.059539e-06	-2.424084e-10	7.504733e+00	-1.709786e+01
2.090000e-06	1.104594e-06	-1.921288e-10	7.823858e+00	-1.367913e+01
2.100000e-06	1.149570e-06	-1.415711e-10	8.142425e+00	-1.024505e+01
2.110000e-06	1.194368e-06	-9.102215e-11	8.459733e+00	-6.799039e+00
2.120000e-06	1.239040e-06	-3.747557e-11	8.776143e+00	-3.344407e+00
2.130000e-06	1.283612e-06	1.845617e-11	9.091851e+00	1.156582e-01
2.140000e-06	1.328118e-06	7.281386e-11	9.407086e+00	3.578104e+00
2.150000e-06	1.372614e-06	1.244614e-10	9.722249e+00	7.040021e+00
2.160000e-06	1.417036e-06	1.746513e-10	1.003689e+01	1.049864e+01
2.170000e-06	1.461381e-06	2.221542e-10	1.035099e+01	1.395133e+01
2.180000e-06	1.505612e-06	2.691641e-10	1.066428e+01	1.739559e+01
2.190000e-06	1.549753e-06	3.192647e-10	1.097693e+01	2.082906e+01
2.200000e-06	1.593875e-06	3.709869e-10	1.128945e+01	2.424947e+01
2.210000e-06	1.637970e-06	4.218483e-10	1.160177e+01	2.765467e+01
2.220000e-06	1.681994e-06	4.732061e-10	1.191360e+01	3.104258e+01
2.230000e-06	1.725916e-06	5.252478e-10	1.222469e+01	3.441122e+01
2.240000e-06	1.769765e-06	5.748805e-10	1.253528e+01	3.775863e+01
2.250000e-06	1.813497e-06	6.207476e-10	1.284503e+01	4.108292e+01
2.260000e-06	1.857125e-06	6.671783e-10	1.315405e+01	4.438222e+01
2.270000e-06	1.900602e-06	7.176982e-10	1.346200e+01	4.765466e+01
2.280000e-06	1.943936e-06	7.662544e-10	1.376894e+01	5.089839e+01
2.290000e-06	1.987219e-06	8.110248e-10	1.407551e+01	5.411154e+01
2.300000e-06	2.030405e-06	8.553110e-10	1.438140e+01	5.729224e+01
2.310000e-06	2.073336e-06	9.014347e-10	1.468548e+01	6.043860e+01
2.320000e-06	2.115855e-06	9.463896e-10	1.498664e+01	6.354869e+01
2.330000e-06	2.158164e-06	9.882530e-10	1.528632e+01	6.662060e+01
2.340000e-06	2.200282e-06	1.031683e-09	1.558464e+01	6.965238e+01
2.350000e-06	2.242080e-06	1.078447e-09	1.588070e+01	7.264208e+01
2.360000e-06	2.283681e-06	1.125837e-09	1.617536e+01	7.558776e+01
2.370000e-06	2.324982e-06	1.169899e-09	1.646789e+01	7.848751e+01
2.380000e-06	2.366010e-06	1.207278e-09	1.675849e+01	8.133943e+01
2.390000e-06	2.406758e-06	1.240048e-09	1.704711e+01	8.414168e+01
2.400000e-06	2.447249e-06	1.273211e-09	1.733391e+01	8.689249e+01
2.410000e-06	2.487672e-06	1.308000e-09	1.762023e+01	8.959018e+01
2.420000e-06	2.527972e-06	1.344907e-09	1.790568e+01	9.223317e+01
2.430000e-06	2.568128e-06	1.384374e-09	1.819010e+01	9.482000e+01
2.440000e-06	2.608155e-06	1.426770e-09	1.847361e+01	9.734936e+01
2.450000e-06	2.648093e-06	1.469541e-09	1.875649e+01	9.982011e+01
2.460000e-06	2.687896e-06	1.505453e-09	1.903842e+01	1.022313e+02
2.470000e-06	2.727574e-06	1.534371e-09	1.931946e+01	1.045820e+02
2.480000e-06	2.767148e-06	1.560423e-09	1.959976e+01	1.068718e+02
2.490000e-06	2.806456e-06	1.586797e-09	1.987818e+01	1.091003e+02
2.500000e-06	2.845494e-06	1.618217e-09	2.015469e+01	1.112672e+02
2.510000e-06	2.884365e-06	1.654927e-09	2.043001e+01	1.133726e+02
2.520000e-06	2.923051e-06	1.692837e-09	2.070403e+01	1.154168e+02
2.530000e-06	2.961555e-06	1.725797e-09	2.097675e+01	1.174003e+02
2.540000e-06	2.999849e-06	1.750673e-09	2.124799e+01	1.193236e+02
2.550000e-06	3.037872e-06	1.771474e-09	2.151730e+01	1.211876e+02
2.560000e-06	3.075720e-06	1.792324e-09	2.178538e+01	1.229934e+02
2.570000e-06	3.113364e-06	1.815569e-09	2.205202e+01	1.247420e+02
2.580000e-06	3.150724e-06	1.840323e-09	2.231664e+01	1.264349e+02
2.590000e-06	3.187952e-06	1.867235e-09	2.258033e+01	1.280734e+02
2.600000e-06	3.225072e-06	1.898392e-09	2.284325e+01	1.296591e+02
2.610000e-06	3.261937e-06	1.927651e-09	2.310436e+01	1.311934e+02
2.620000e-06	3.298511e-06	1.949006e-09	2.336342e+01	1.326781e+02
2.630000e-06	3.334865e-06	1.966380e-09	2.362091e+01	1.341148e+02
2.640000e-06	3.371072e-06	1.985656e-09	2.387737e+01	1.355051e+02
2.650000e-06	3.407129e-06	2.005383e-09	2.413276e+01	1.368506e+02
2.660000e-06	3.443009e-06	2.022102e-09	2.438690e+01	1.381530e+02
2.670000e-06	3.478766e-06	2.038379e-09	2.464017e+01	1.394137e+02
2.680000e-06	3.514325e-06	2.059056e-09	2.489203e+01	1.406342e+02
2.690000e-06	3.549565e-06	2.081828e-09	2.514163e+01	1.418159e+02
2.700000e-06	3.584442e-06	2.098486e-09	2.538867e+01	1.429600e+02
2.710000e-06	3.618990e-06	2.108941e-09	2.563338e+01	1.440677e+02
2.720000e-06	3.653296e-06	2.122972e-09	2.587637e+01	1.451400e+02
2.730000e-06	3.687159e-06	2.143859e-09	2.611622e+01	1.461780e+02
2.740000e-06	3.720484e-06	2.162861e-09	2.635226e+01	1.471824e+02
2.750000e-06	3.753424e-06	2.175973e-09	2.658558e+01	1.481540e+02
2.760000e-06	3.786049e-06	2.189615e-09	2.681666e+01	1.490935e+02
2.770000e-06	3.818402e-06	2.205698e-09	2.704581e+01	1.500016e+02
2.780000e-06	3.850601e-06	2.220093e-09	2.727388e+01	1.508786e+02
2.790000e-06	3.882652e-06	2.229766e-09	2.750090e+01	1.517252e+02
2.800000e-06	3.914479e-06	2.239773e-09	2.772633e+01	1.525417e+02
2.810000e-06	3.946111e-06	2.256088e-09	2.795038e+01	1.533286e+02
2.820000e-06	3.977480e-06	2.272751e-09	2.817257e+01	1.540864e+02
2.830000e-06	4.008525e-06	2.283119e-09	2.839246e+01	1.548154e+02
2.840000e-06	4.039297e-06	2.289151e-09	2.861042e+01	1.555162e+02
2.850000e-06	4.069808e-06	2.295692e-09	2.882653e+01	1.561893e+02
2.860000e-06	4.100123e-06	2.305093e-09	2.904125e+01	1.568352e+02
2.870000e-06	4.130171e-06	2.315069e-09	2.925408e+01	1.574545e+02
2.880000e-06	4.159842e-06	2.324328e-09	2.946424e+01	1.580481e+02
2.890000e-06	4.189239e-06	2.333799e-09	2.967246e+01	1.586165e+02
2.900000e-06	4.218313e-06	2.341649e-09	2.987839e+01	1.591608e+02
