# Temperatura_=_-2.6
# Concentracion g/m^3_=_4090.0
# C_Vs_to_Am_M_A/Vsm_=_65563218390.804596
# pendiente_HvsI_1/m_=_3716.3
# ordenada_HvsI_A/m_=_1297.0
# frecuencia_Hz_=_135080.3062557576

Tiempo_(s)	Campo_(V.s)	Magnetizacion_(V.s)	Campo_(kA/m)	Magnetizacion_(A/m)
0.000000e+00	-5.380319e-06	-2.492979e-09	-3.838972e+01	-1.601208e+02
1.000000e-08	-5.380521e-06	-2.488567e-09	-3.839116e+01	-1.601115e+02
2.000000e-08	-5.380439e-06	-2.489305e-09	-3.839057e+01	-1.601092e+02
3.000000e-08	-5.380167e-06	-2.494404e-09	-3.838863e+01	-1.601150e+02
4.000000e-08	-5.379622e-06	-2.499052e-09	-3.838475e+01	-1.601302e+02
5.000000e-08	-5.378692e-06	-2.504026e-09	-3.837811e+01	-1.601559e+02
6.000000e-08	-5.377265e-06	-2.515319e-09	-3.836792e+01	-1.601932e+02
7.000000e-08	-5.375180e-06	-2.518514e-09	-3.835305e+01	-1.602427e+02
8.000000e-08	-5.372403e-06	-2.488469e-09	-3.833323e+01	-1.603052e+02
9.000000e-08	-5.369045e-06	-2.443944e-09	-3.830927e+01	-1.603810e+02
1.000000e-07	-5.365134e-06	-2.429122e-09	-3.828137e+01	-1.604704e+02
1.100000e-07	-5.360830e-06	-2.508471e-09	-3.825066e+01	-1.605733e+02
1.200000e-07	-5.356408e-06	-2.528828e-09	-3.821910e+01	-1.606896e+02
1.300000e-07	-5.351807e-06	-2.476514e-09	-3.818628e+01	-1.608187e+02
1.400000e-07	-5.346884e-06	-2.435246e-09	-3.815115e+01	-1.609599e+02
1.500000e-07	-5.341569e-06	-2.512439e-09	-3.811323e+01	-1.611124e+02
1.600000e-07	-5.335869e-06	-2.565814e-09	-3.807256e+01	-1.612751e+02
1.700000e-07	-5.329833e-06	-2.460519e-09	-3.802949e+01	-1.614467e+02
1.800000e-07	-5.323431e-06	-2.399858e-09	-3.798381e+01	-1.616258e+02
1.900000e-07	-5.316597e-06	-2.472499e-09	-3.793505e+01	-1.618108e+02
2.000000e-07	-5.309398e-06	-2.553986e-09	-3.788368e+01	-1.620001e+02
2.100000e-07	-5.301919e-06	-2.500434e-09	-3.783032e+01	-1.621920e+02
2.200000e-07	-5.294179e-06	-2.484987e-09	-3.777509e+01	-1.623846e+02
2.300000e-07	-5.286165e-06	-2.534431e-09	-3.771791e+01	-1.625761e+02
2.400000e-07	-5.277815e-06	-2.542012e-09	-3.765833e+01	-1.627648e+02
2.500000e-07	-5.269030e-06	-2.481784e-09	-3.759565e+01	-1.629489e+02
2.600000e-07	-5.259671e-06	-2.488921e-09	-3.752887e+01	-1.631266e+02
2.700000e-07	-5.249616e-06	-2.515692e-09	-3.745712e+01	-1.632964e+02
2.800000e-07	-5.239087e-06	-2.493401e-09	-3.738200e+01	-1.634568e+02
2.900000e-07	-5.228177e-06	-2.463844e-09	-3.730415e+01	-1.636063e+02
3.000000e-07	-5.216789e-06	-2.508130e-09	-3.722289e+01	-1.637439e+02
3.100000e-07	-5.204980e-06	-2.525369e-09	-3.713863e+01	-1.638683e+02
3.200000e-07	-5.192707e-06	-2.470599e-09	-3.705107e+01	-1.639788e+02
3.300000e-07	-5.180034e-06	-2.462332e-09	-3.696064e+01	-1.640747e+02
3.400000e-07	-5.167089e-06	-2.521610e-09	-3.686827e+01	-1.641554e+02
3.500000e-07	-5.153793e-06	-2.521522e-09	-3.677341e+01	-1.642206e+02
3.600000e-07	-5.140105e-06	-2.488605e-09	-3.667574e+01	-1.642702e+02
3.700000e-07	-5.125988e-06	-2.502003e-09	-3.657501e+01	-1.643042e+02
3.800000e-07	-5.111374e-06	-2.517725e-09	-3.647074e+01	-1.643228e+02
3.900000e-07	-5.096261e-06	-2.492646e-09	-3.636290e+01	-1.643264e+02
4.000000e-07	-5.080597e-06	-2.484060e-09	-3.625114e+01	-1.643154e+02
4.100000e-07	-5.064330e-06	-2.486947e-09	-3.613507e+01	-1.642904e+02
4.200000e-07	-5.047631e-06	-2.466100e-09	-3.601592e+01	-1.642521e+02
4.300000e-07	-5.030654e-06	-2.482580e-09	-3.589478e+01	-1.642014e+02
4.400000e-07	-5.013370e-06	-2.510912e-09	-3.577146e+01	-1.641390e+02
4.500000e-07	-4.995788e-06	-2.495201e-09	-3.564601e+01	-1.640658e+02
4.600000e-07	-4.977871e-06	-2.457840e-09	-3.551817e+01	-1.639828e+02
4.700000e-07	-4.959620e-06	-2.479705e-09	-3.538794e+01	-1.638908e+02
4.800000e-07	-4.941050e-06	-2.492387e-09	-3.525544e+01	-1.637907e+02
4.900000e-07	-4.922126e-06	-2.473667e-09	-3.512041e+01	-1.636834e+02
5.000000e-07	-4.902831e-06	-2.456566e-09	-3.498274e+01	-1.635698e+02
5.100000e-07	-4.883256e-06	-2.477185e-09	-3.484306e+01	-1.634505e+02
5.200000e-07	-4.863468e-06	-2.487170e-09	-3.470187e+01	-1.633264e+02
5.300000e-07	-4.843404e-06	-2.487979e-09	-3.455872e+01	-1.631980e+02
5.400000e-07	-4.823034e-06	-2.469897e-09	-3.441337e+01	-1.630660e+02
5.500000e-07	-4.802398e-06	-2.462549e-09	-3.426613e+01	-1.629308e+02
5.600000e-07	-4.781450e-06	-2.470103e-09	-3.411666e+01	-1.627928e+02
5.700000e-07	-4.760192e-06	-2.480516e-09	-3.396498e+01	-1.626523e+02
5.800000e-07	-4.738542e-06	-2.461606e-09	-3.381050e+01	-1.625098e+02
5.900000e-07	-4.716494e-06	-2.446257e-09	-3.365318e+01	-1.623653e+02
6.000000e-07	-4.694223e-06	-2.452037e-09	-3.349428e+01	-1.622190e+02
6.100000e-07	-4.671689e-06	-2.464093e-09	-3.333349e+01	-1.620710e+02
6.200000e-07	-4.648864e-06	-2.455450e-09	-3.317063e+01	-1.619214e+02
6.300000e-07	-4.625767e-06	-2.439028e-09	-3.300583e+01	-1.617702e+02
6.400000e-07	-4.602313e-06	-2.435100e-09	-3.283848e+01	-1.616173e+02
6.500000e-07	-4.578544e-06	-2.443537e-09	-3.266888e+01	-1.614629e+02
6.600000e-07	-4.554552e-06	-2.441561e-09	-3.249769e+01	-1.613067e+02
6.700000e-07	-4.530328e-06	-2.425951e-09	-3.232485e+01	-1.611489e+02
6.800000e-07	-4.505842e-06	-2.421867e-09	-3.215013e+01	-1.609894e+02
6.900000e-07	-4.480926e-06	-2.430430e-09	-3.197235e+01	-1.608281e+02
7.000000e-07	-4.455401e-06	-2.435566e-09	-3.179023e+01	-1.606651e+02
7.100000e-07	-4.429262e-06	-2.422416e-09	-3.160372e+01	-1.605003e+02
7.200000e-07	-4.402625e-06	-2.410287e-09	-3.141366e+01	-1.603337e+02
7.300000e-07	-4.375608e-06	-2.406552e-09	-3.122089e+01	-1.601655e+02
7.400000e-07	-4.348314e-06	-2.411058e-09	-3.102614e+01	-1.599956e+02
7.500000e-07	-4.320790e-06	-2.402312e-09	-3.082976e+01	-1.598241e+02
7.600000e-07	-4.293033e-06	-2.391804e-09	-3.063170e+01	-1.596509e+02
7.700000e-07	-4.265057e-06	-2.391803e-09	-3.043209e+01	-1.594763e+02
7.800000e-07	-4.236868e-06	-2.403110e-09	-3.023095e+01	-1.593002e+02
7.900000e-07	-4.208482e-06	-2.399147e-09	-3.002841e+01	-1.591227e+02
8.000000e-07	-4.179776e-06	-2.384671e-09	-2.982359e+01	-1.589437e+02
8.100000e-07	-4.150659e-06	-2.372829e-09	-2.961583e+01	-1.587634e+02
8.200000e-07	-4.121289e-06	-2.375110e-09	-2.940627e+01	-1.585816e+02
8.300000e-07	-4.091637e-06	-2.374067e-09	-2.919470e+01	-1.583983e+02
8.400000e-07	-4.061676e-06	-2.366628e-09	-2.898092e+01	-1.582134e+02
8.500000e-07	-4.031494e-06	-2.359094e-09	-2.876556e+01	-1.580268e+02
8.600000e-07	-4.001023e-06	-2.363871e-09	-2.854815e+01	-1.578383e+02
8.700000e-07	-3.970324e-06	-2.366049e-09	-2.832910e+01	-1.576477e+02
8.800000e-07	-3.939383e-06	-2.358182e-09	-2.810833e+01	-1.574547e+02
8.900000e-07	-3.908127e-06	-2.344516e-09	-2.788531e+01	-1.572591e+02
9.000000e-07	-3.876628e-06	-2.338982e-09	-2.766056e+01	-1.570606e+02
9.100000e-07	-3.844983e-06	-2.340038e-09	-2.743477e+01	-1.568589e+02
9.200000e-07	-3.813162e-06	-2.338979e-09	-2.720772e+01	-1.566535e+02
9.300000e-07	-3.781143e-06	-2.334045e-09	-2.697926e+01	-1.564441e+02
9.400000e-07	-3.749009e-06	-2.334488e-09	-2.674997e+01	-1.562304e+02
9.500000e-07	-3.716686e-06	-2.339777e-09	-2.651935e+01	-1.560120e+02
9.600000e-07	-3.684001e-06	-2.337878e-09	-2.628613e+01	-1.557885e+02
9.700000e-07	-3.650871e-06	-2.328189e-09	-2.604974e+01	-1.555597e+02
9.800000e-07	-3.617328e-06	-2.320701e-09	-2.581040e+01	-1.553252e+02
9.900000e-07	-3.583296e-06	-2.319299e-09	-2.556758e+01	-1.550848e+02
1.000000e-06	-3.548794e-06	-2.316721e-09	-2.532140e+01	-1.548382e+02
1.010000e-06	-3.513955e-06	-2.314031e-09	-2.507281e+01	-1.545854e+02
1.020000e-06	-3.478814e-06	-2.311411e-09	-2.482208e+01	-1.543263e+02
1.030000e-06	-3.443452e-06	-2.312025e-09	-2.456976e+01	-1.540608e+02
1.040000e-06	-3.407879e-06	-2.308804e-09	-2.431594e+01	-1.537890e+02
1.050000e-06	-3.372092e-06	-2.300750e-09	-2.406059e+01	-1.535111e+02
1.060000e-06	-3.336135e-06	-2.289260e-09	-2.380403e+01	-1.532271e+02
1.070000e-06	-3.300076e-06	-2.281937e-09	-2.354674e+01	-1.529374e+02
1.080000e-06	-3.263883e-06	-2.277405e-09	-2.328850e+01	-1.526423e+02
1.090000e-06	-3.227485e-06	-2.274021e-09	-2.302879e+01	-1.523421e+02
1.100000e-06	-3.190812e-06	-2.269915e-09	-2.276712e+01	-1.520372e+02
1.110000e-06	-3.153842e-06	-2.269690e-09	-2.250333e+01	-1.517282e+02
1.120000e-06	-3.116531e-06	-2.269607e-09	-2.223711e+01	-1.514155e+02
1.130000e-06	-3.079009e-06	-2.267713e-09	-2.196938e+01	-1.510995e+02
1.140000e-06	-3.041411e-06	-2.261630e-09	-2.170111e+01	-1.507809e+02
1.150000e-06	-3.003605e-06	-2.254755e-09	-2.143136e+01	-1.504600e+02
1.160000e-06	-2.965617e-06	-2.249394e-09	-2.116031e+01	-1.501375e+02
1.170000e-06	-2.927431e-06	-2.245545e-09	-2.088784e+01	-1.498136e+02
1.180000e-06	-2.889001e-06	-2.239414e-09	-2.061364e+01	-1.494889e+02
1.190000e-06	-2.850315e-06	-2.236249e-09	-2.033760e+01	-1.491636e+02
1.200000e-06	-2.811400e-06	-2.237002e-09	-2.005994e+01	-1.488380e+02
1.210000e-06	-2.772240e-06	-2.235838e-09	-1.978052e+01	-1.485123e+02
1.220000e-06	-2.732966e-06	-2.227130e-09	-1.950029e+01	-1.481867e+02
1.230000e-06	-2.693626e-06	-2.214372e-09	-1.921960e+01	-1.478611e+02
1.240000e-06	-2.654076e-06	-2.205773e-09	-1.893740e+01	-1.475356e+02
1.250000e-06	-2.614363e-06	-2.199513e-09	-1.865403e+01	-1.472099e+02
1.260000e-06	-2.574566e-06	-2.194541e-09	-1.837008e+01	-1.468838e+02
1.270000e-06	-2.534679e-06	-2.191105e-09	-1.808547e+01	-1.465569e+02
1.280000e-06	-2.494720e-06	-2.190539e-09	-1.780036e+01	-1.462288e+02
1.290000e-06	-2.454721e-06	-2.190493e-09	-1.751496e+01	-1.458989e+02
1.300000e-06	-2.414626e-06	-2.187121e-09	-1.722887e+01	-1.455668e+02
1.310000e-06	-2.374326e-06	-2.178441e-09	-1.694132e+01	-1.452317e+02
1.320000e-06	-2.333801e-06	-2.167557e-09	-1.665216e+01	-1.448928e+02
1.330000e-06	-2.293138e-06	-2.156496e-09	-1.636202e+01	-1.445495e+02
1.340000e-06	-2.252273e-06	-2.147464e-09	-1.607045e+01	-1.442008e+02
1.350000e-06	-2.211148e-06	-2.140996e-09	-1.577701e+01	-1.438461e+02
1.360000e-06	-2.169722e-06	-2.136664e-09	-1.548142e+01	-1.434844e+02
1.370000e-06	-2.128000e-06	-2.133094e-09	-1.518373e+01	-1.431148e+02
1.380000e-06	-2.085920e-06	-2.130147e-09	-1.488348e+01	-1.427366e+02
1.390000e-06	-2.043616e-06	-2.122886e-09	-1.458163e+01	-1.423489e+02
1.400000e-06	-2.001163e-06	-2.114178e-09	-1.427872e+01	-1.419510e+02
1.410000e-06	-1.958322e-06	-2.106968e-09	-1.397304e+01	-1.415420e+02
1.420000e-06	-1.915206e-06	-2.099937e-09	-1.366540e+01	-1.411213e+02
1.430000e-06	-1.871973e-06	-2.090590e-09	-1.335692e+01	-1.406883e+02
1.440000e-06	-1.828599e-06	-2.079498e-09	-1.304744e+01	-1.402422e+02
1.450000e-06	-1.785041e-06	-2.070592e-09	-1.273665e+01	-1.397826e+02
1.460000e-06	-1.741353e-06	-2.065523e-09	-1.242493e+01	-1.393090e+02
1.470000e-06	-1.697603e-06	-2.060357e-09	-1.211275e+01	-1.388208e+02
1.480000e-06	-1.653791e-06	-2.050934e-09	-1.180015e+01	-1.383177e+02
1.490000e-06	-1.609912e-06	-2.041270e-09	-1.148707e+01	-1.377994e+02
1.500000e-06	-1.565983e-06	-2.034765e-09	-1.117362e+01	-1.372655e+02
1.510000e-06	-1.522034e-06	-2.025735e-09	-1.086004e+01	-1.367156e+02
1.520000e-06	-1.478068e-06	-2.011678e-09	-1.054633e+01	-1.361495e+02
1.530000e-06	-1.434043e-06	-1.997149e-09	-1.023220e+01	-1.355670e+02
1.540000e-06	-1.389947e-06	-1.986854e-09	-9.917570e+00	-1.349677e+02
1.550000e-06	-1.345765e-06	-1.979390e-09	-9.602318e+00	-1.343514e+02
1.560000e-06	-1.301512e-06	-1.970063e-09	-9.286565e+00	-1.337178e+02
1.570000e-06	-1.257135e-06	-1.959656e-09	-8.969924e+00	-1.330665e+02
1.580000e-06	-1.212685e-06	-1.952641e-09	-8.652766e+00	-1.323972e+02
1.590000e-06	-1.168305e-06	-1.948166e-09	-8.336107e+00	-1.317094e+02
1.600000e-06	-1.123844e-06	-1.939514e-09	-8.018866e+00	-1.310027e+02
1.610000e-06	-1.079154e-06	-1.924120e-09	-7.699993e+00	-1.302766e+02
1.620000e-06	-1.034344e-06	-1.905661e-09	-7.380266e+00	-1.295305e+02
1.630000e-06	-9.895565e-07	-1.891186e-09	-7.060696e+00	-1.287637e+02
1.640000e-06	-9.446917e-07	-1.877887e-09	-6.740576e+00	-1.279756e+02
1.650000e-06	-8.996677e-07	-1.865751e-09	-6.419319e+00	-1.271652e+02
1.660000e-06	-8.545762e-07	-1.856196e-09	-6.097582e+00	-1.263319e+02
1.670000e-06	-8.094454e-07	-1.848486e-09	-5.775565e+00	-1.254746e+02
1.680000e-06	-7.642579e-07	-1.837629e-09	-5.453142e+00	-1.245925e+02
1.690000e-06	-7.189785e-07	-1.820932e-09	-5.130064e+00	-1.236843e+02
1.700000e-06	-6.736390e-07	-1.801673e-09	-4.806557e+00	-1.227490e+02
1.710000e-06	-6.282827e-07	-1.784236e-09	-4.482930e+00	-1.217854e+02
1.720000e-06	-5.828212e-07	-1.767268e-09	-4.158553e+00	-1.207923e+02
1.730000e-06	-5.372567e-07	-1.750813e-09	-3.833440e+00	-1.197683e+02
1.740000e-06	-4.916536e-07	-1.736836e-09	-3.508053e+00	-1.187122e+02
1.750000e-06	-4.460060e-07	-1.724740e-09	-3.182347e+00	-1.176225e+02
1.760000e-06	-4.003680e-07	-1.711312e-09	-2.856710e+00	-1.164977e+02
1.770000e-06	-3.547462e-07	-1.694319e-09	-2.531189e+00	-1.153364e+02
1.780000e-06	-3.090146e-07	-1.676002e-09	-2.204885e+00	-1.141369e+02
1.790000e-06	-2.632639e-07	-1.660544e-09	-1.878444e+00	-1.128977e+02
1.800000e-06	-2.175632e-07	-1.645371e-09	-1.552360e+00	-1.116170e+02
1.810000e-06	-1.718989e-07	-1.625628e-09	-1.226535e+00	-1.102932e+02
1.820000e-06	-1.263152e-07	-1.604121e-09	-9.012854e-01	-1.089244e+02
1.830000e-06	-8.071217e-08	-1.581546e-09	-5.758984e-01	-1.075087e+02
1.840000e-06	-3.501036e-08	-1.559352e-09	-2.498063e-01	-1.060442e+02
1.850000e-06	1.068239e-08	-1.537455e-09	7.622109e-02	-1.045288e+02
1.860000e-06	5.632551e-08	-1.513108e-09	4.018945e-01	-1.029604e+02
1.870000e-06	1.020013e-07	-1.486078e-09	7.278008e-01	-1.013369e+02
1.880000e-06	1.476507e-07	-1.460095e-09	1.053519e+00	-9.965595e+01
1.890000e-06	1.932441e-07	-1.434767e-09	1.378837e+00	-9.791518e+01
1.900000e-06	2.387796e-07	-1.407456e-09	1.703743e+00	-9.611217e+01
1.910000e-06	2.843764e-07	-1.378335e-09	2.029086e+00	-9.424442e+01
1.920000e-06	3.300548e-07	-1.347962e-09	2.355011e+00	-9.230936e+01
1.930000e-06	3.756811e-07	-1.317331e-09	2.680564e+00	-9.030436e+01
1.940000e-06	4.212582e-07	-1.287596e-09	3.005766e+00	-8.822678e+01
1.950000e-06	4.668179e-07	-1.256984e-09	3.330844e+00	-8.607396e+01
1.960000e-06	5.122993e-07	-1.225468e-09	3.655364e+00	-8.384324e+01
1.970000e-06	5.577765e-07	-1.191902e-09	3.979853e+00	-8.153200e+01
1.980000e-06	6.033263e-07	-1.157621e-09	4.304861e+00	-7.913771e+01
1.990000e-06	6.486893e-07	-1.121747e-09	4.628535e+00	-7.665790e+01
2.000000e-06	6.938398e-07	-1.083992e-09	4.950694e+00	-7.409028e+01
2.010000e-06	7.389797e-07	-1.043620e-09	5.272777e+00	-7.143272e+01
2.020000e-06	7.841604e-07	-1.000480e-09	5.595151e+00	-6.868332e+01
2.030000e-06	8.292941e-07	-9.580922e-10	5.917189e+00	-6.584045e+01
2.040000e-06	8.743340e-07	-9.166088e-10	6.238558e+00	-6.290277e+01
2.050000e-06	9.192721e-07	-8.736175e-10	6.559201e+00	-5.986934e+01
2.060000e-06	9.641432e-07	-8.289671e-10	6.879366e+00	-5.673958e+01
2.070000e-06	1.008928e-06	-7.853309e-10	7.198915e+00	-5.351338e+01
2.080000e-06	1.053612e-06	-7.407316e-10	7.517743e+00	-5.019113e+01
2.090000e-06	1.098301e-06	-6.909762e-10	7.836612e+00	-4.677372e+01
2.100000e-06	1.142958e-06	-6.365740e-10	8.155248e+00	-4.326262e+01
2.110000e-06	1.187442e-06	-5.809041e-10	8.472653e+00	-3.965988e+01
2.120000e-06	1.231796e-06	-5.231382e-10	8.789128e+00	-3.596818e+01
2.130000e-06	1.276209e-06	-4.631913e-10	9.106023e+00	-3.219082e+01
2.140000e-06	1.320576e-06	-4.044065e-10	9.422591e+00	-2.833175e+01
2.150000e-06	1.364772e-06	-3.480414e-10	9.737936e+00	-2.439557e+01
2.160000e-06	1.408893e-06	-2.917591e-10	1.005275e+01	-2.038749e+01
2.170000e-06	1.452940e-06	-2.321081e-10	1.036704e+01	-1.631339e+01
2.180000e-06	1.496924e-06	-1.674352e-10	1.068087e+01	-1.217972e+01
2.190000e-06	1.540867e-06	-9.867919e-11	1.099441e+01	-7.993506e+00
2.200000e-06	1.584762e-06	-2.882228e-11	1.130761e+01	-3.762312e+00
2.210000e-06	1.628592e-06	3.912092e-11	1.162035e+01	5.058222e-01
2.220000e-06	1.672341e-06	1.073120e-10	1.193251e+01	4.802433e+00
2.230000e-06	1.716013e-06	1.729147e-10	1.224412e+01	9.118695e+00
2.240000e-06	1.759628e-06	2.375788e-10	1.255532e+01	1.344549e+01
2.250000e-06	1.803149e-06	3.023054e-10	1.286585e+01	1.777350e+01
2.260000e-06	1.846533e-06	3.665906e-10	1.317540e+01	2.209325e+01
2.270000e-06	1.889773e-06	4.339585e-10	1.348393e+01	2.639525e+01
2.280000e-06	1.932840e-06	4.998943e-10	1.379122e+01	3.067000e+01
2.290000e-06	1.975696e-06	5.629768e-10	1.409701e+01	3.490818e+01
2.300000e-06	2.018393e-06	6.272012e-10	1.440166e+01	3.910066e+01
2.310000e-06	2.060904e-06	6.954940e-10	1.470499e+01	4.323858e+01
2.320000e-06	2.103082e-06	7.620208e-10	1.500594e+01	4.731352e+01
2.330000e-06	2.144965e-06	8.222334e-10	1.530478e+01	5.131747e+01
2.340000e-06	2.186596e-06	8.766008e-10	1.560183e+01	5.524297e+01
2.350000e-06	2.227870e-06	9.298852e-10	1.589632e+01	5.908318e+01
2.360000e-06	2.268707e-06	9.844985e-10	1.618770e+01	6.283188e+01
2.370000e-06	2.309290e-06	1.036796e-09	1.647728e+01	6.648359e+01
2.380000e-06	2.349815e-06	1.084744e-09	1.676642e+01	7.003355e+01
2.390000e-06	2.390211e-06	1.131944e-09	1.705466e+01	7.347780e+01
2.400000e-06	2.430446e-06	1.178920e-09	1.734175e+01	7.681316e+01
2.410000e-06	2.470570e-06	1.223215e-09	1.762804e+01	8.003727e+01
2.420000e-06	2.510566e-06	1.265297e-09	1.791342e+01	8.314856e+01
2.430000e-06	2.550450e-06	1.306823e-09	1.819800e+01	8.614626e+01
2.440000e-06	2.590283e-06	1.350601e-09	1.848222e+01	8.903035e+01
2.450000e-06	2.630053e-06	1.395145e-09	1.876599e+01	9.180157e+01
2.460000e-06	2.669688e-06	1.433735e-09	1.904879e+01	9.446134e+01
2.470000e-06	2.709103e-06	1.468645e-09	1.933002e+01	9.701170e+01
2.480000e-06	2.748281e-06	1.499256e-09	1.960957e+01	9.945531e+01
2.490000e-06	2.787271e-06	1.525720e-09	1.988777e+01	1.017953e+02
2.500000e-06	2.826075e-06	1.552299e-09	2.016465e+01	1.040353e+02
2.510000e-06	2.864646e-06	1.585426e-09	2.043986e+01	1.061793e+02
2.520000e-06	2.902984e-06	1.623366e-09	2.071340e+01	1.082315e+02
2.530000e-06	2.941127e-06	1.657490e-09	2.098557e+01	1.101965e+02
2.540000e-06	2.979129e-06	1.684706e-09	2.125672e+01	1.120789e+02
2.550000e-06	3.016992e-06	1.709701e-09	2.152687e+01	1.138834e+02
2.560000e-06	3.054650e-06	1.738136e-09	2.179558e+01	1.156148e+02
2.570000e-06	3.092120e-06	1.761803e-09	2.206293e+01	1.172776e+02
2.580000e-06	3.129397e-06	1.776570e-09	2.232891e+01	1.188764e+02
2.590000e-06	3.166426e-06	1.791199e-09	2.259312e+01	1.204154e+02
2.600000e-06	3.203173e-06	1.814357e-09	2.285532e+01	1.218989e+02
2.610000e-06	3.239599e-06	1.841992e-09	2.311523e+01	1.233305e+02
2.620000e-06	3.275842e-06	1.866624e-09	2.337383e+01	1.247138e+02
2.630000e-06	3.311997e-06	1.887882e-09	2.363180e+01	1.260518e+02
2.640000e-06	3.347998e-06	1.911891e-09	2.388868e+01	1.273475e+02
2.650000e-06	3.383840e-06	1.935029e-09	2.414441e+01	1.286032e+02
2.660000e-06	3.419534e-06	1.949525e-09	2.439910e+01	1.298211e+02
2.670000e-06	3.455062e-06	1.956274e-09	2.465260e+01	1.310027e+02
2.680000e-06	3.490366e-06	1.966895e-09	2.490450e+01	1.321495e+02
2.690000e-06	3.525362e-06	1.984164e-09	2.515420e+01	1.332625e+02
2.700000e-06	3.559909e-06	2.001959e-09	2.540071e+01	1.343425e+02
2.710000e-06	3.594076e-06	2.016567e-09	2.564449e+01	1.353901e+02
2.720000e-06	3.627948e-06	2.032338e-09	2.588618e+01	1.364054e+02
2.730000e-06	3.661330e-06	2.051800e-09	2.612436e+01	1.373886e+02
2.740000e-06	3.694285e-06	2.068938e-09	2.635951e+01	1.383398e+02
2.750000e-06	3.726892e-06	2.081962e-09	2.659217e+01	1.392587e+02
2.760000e-06	3.759196e-06	2.095866e-09	2.682266e+01	1.401453e+02
2.770000e-06	3.791355e-06	2.111229e-09	2.705212e+01	1.409992e+02
2.780000e-06	3.823302e-06	2.124433e-09	2.728007e+01	1.418205e+02
2.790000e-06	3.855044e-06	2.134764e-09	2.750656e+01	1.426090e+02
2.800000e-06	3.886601e-06	2.144794e-09	2.773172e+01	1.433648e+02
2.810000e-06	3.917960e-06	2.155914e-09	2.795547e+01	1.440879e+02
2.820000e-06	3.949155e-06	2.167315e-09	2.817806e+01	1.447787e+02
2.830000e-06	3.980108e-06	2.176520e-09	2.839891e+01	1.454376e+02
2.840000e-06	4.010663e-06	2.183841e-09	2.861693e+01	1.460653e+02
2.850000e-06	4.040829e-06	2.193944e-09	2.883217e+01	1.466625e+02
2.860000e-06	4.070722e-06	2.205700e-09	2.904546e+01	1.472301e+02
2.870000e-06	4.100429e-06	2.217546e-09	2.925743e+01	1.477694e+02
2.880000e-06	4.129897e-06	2.226966e-09	2.946769e+01	1.482817e+02
2.890000e-06	4.159130e-06	2.233076e-09	2.967627e+01	1.487683e+02
2.900000e-06	4.188141e-06	2.236382e-09	2.988328e+01	1.492309e+02
