# Temperatura_=_-1.06
# Concentracion g/m^3_=_4090.0
# C_Vs_to_Am_M_A/Vsm_=_65563218390.804596
# pendiente_HvsI_1/m_=_3716.3
# ordenada_HvsI_A/m_=_1297.0
# frecuencia_Hz_=_135072.461954711

Tiempo_(s)	Campo_(V.s)	Magnetizacion_(V.s)	Campo_(kA/m)	Magnetizacion_(A/m)
0.000000e+00	-5.398590e-06	-2.674397e-09	-3.839169e+01	-1.698407e+02
1.000000e-08	-5.398718e-06	-2.676612e-09	-3.839260e+01	-1.698304e+02
2.000000e-08	-5.398687e-06	-2.678971e-09	-3.839238e+01	-1.698244e+02
3.000000e-08	-5.398392e-06	-2.682881e-09	-3.839028e+01	-1.698244e+02
4.000000e-08	-5.397762e-06	-2.683215e-09	-3.838580e+01	-1.698320e+02
5.000000e-08	-5.396684e-06	-2.676245e-09	-3.837813e+01	-1.698489e+02
6.000000e-08	-5.395062e-06	-2.671923e-09	-3.836660e+01	-1.698765e+02
7.000000e-08	-5.392869e-06	-2.669739e-09	-3.835101e+01	-1.699161e+02
8.000000e-08	-5.389993e-06	-2.650296e-09	-3.833055e+01	-1.699690e+02
9.000000e-08	-5.386475e-06	-2.639029e-09	-3.830553e+01	-1.700361e+02
1.000000e-07	-5.382512e-06	-2.689757e-09	-3.827735e+01	-1.701183e+02
1.100000e-07	-5.378215e-06	-2.724500e-09	-3.824679e+01	-1.702161e+02
1.200000e-07	-5.373766e-06	-2.681367e-09	-3.821515e+01	-1.703299e+02
1.300000e-07	-5.369161e-06	-2.607033e-09	-3.818241e+01	-1.704596e+02
1.400000e-07	-5.364172e-06	-2.655313e-09	-3.814692e+01	-1.706050e+02
1.500000e-07	-5.358711e-06	-2.714219e-09	-3.810809e+01	-1.707657e+02
1.600000e-07	-5.352847e-06	-2.662343e-09	-3.806639e+01	-1.709408e+02
1.700000e-07	-5.346659e-06	-2.588381e-09	-3.802238e+01	-1.711292e+02
1.800000e-07	-5.340130e-06	-2.640434e-09	-3.797595e+01	-1.713297e+02
1.900000e-07	-5.333159e-06	-2.733755e-09	-3.792638e+01	-1.715408e+02
2.000000e-07	-5.325823e-06	-2.687880e-09	-3.787421e+01	-1.717605e+02
2.100000e-07	-5.318316e-06	-2.633511e-09	-3.782082e+01	-1.719871e+02
2.200000e-07	-5.310580e-06	-2.662480e-09	-3.776581e+01	-1.722184e+02
2.300000e-07	-5.302560e-06	-2.701619e-09	-3.770877e+01	-1.724522e+02
2.400000e-07	-5.294247e-06	-2.647930e-09	-3.764966e+01	-1.726863e+02
2.500000e-07	-5.285449e-06	-2.654473e-09	-3.758710e+01	-1.729182e+02
2.600000e-07	-5.275779e-06	-2.709064e-09	-3.751833e+01	-1.731456e+02
2.700000e-07	-5.265401e-06	-2.710008e-09	-3.744453e+01	-1.733663e+02
2.800000e-07	-5.254643e-06	-2.662536e-09	-3.736802e+01	-1.735780e+02
2.900000e-07	-5.243509e-06	-2.689528e-09	-3.728884e+01	-1.737785e+02
3.000000e-07	-5.231966e-06	-2.706201e-09	-3.720675e+01	-1.739659e+02
3.100000e-07	-5.219990e-06	-2.653163e-09	-3.712159e+01	-1.741383e+02
3.200000e-07	-5.207645e-06	-2.633413e-09	-3.703380e+01	-1.742941e+02
3.300000e-07	-5.194823e-06	-2.689158e-09	-3.694261e+01	-1.744319e+02
3.400000e-07	-5.181515e-06	-2.694678e-09	-3.684798e+01	-1.745505e+02
3.500000e-07	-5.167878e-06	-2.651022e-09	-3.675099e+01	-1.746490e+02
3.600000e-07	-5.153892e-06	-2.658646e-09	-3.665154e+01	-1.747267e+02
3.700000e-07	-5.139522e-06	-2.684830e-09	-3.654934e+01	-1.747831e+02
3.800000e-07	-5.124706e-06	-2.665576e-09	-3.644398e+01	-1.748182e+02
3.900000e-07	-5.109294e-06	-2.648147e-09	-3.633438e+01	-1.748321e+02
4.000000e-07	-5.093184e-06	-2.659630e-09	-3.621982e+01	-1.748250e+02
4.100000e-07	-5.076609e-06	-2.654293e-09	-3.610194e+01	-1.747976e+02
4.200000e-07	-5.059743e-06	-2.649065e-09	-3.598200e+01	-1.747506e+02
4.300000e-07	-5.042613e-06	-2.658691e-09	-3.586018e+01	-1.746850e+02
4.400000e-07	-5.025267e-06	-2.656042e-09	-3.573682e+01	-1.746018e+02
4.500000e-07	-5.007573e-06	-2.627574e-09	-3.561100e+01	-1.745024e+02
4.600000e-07	-4.989587e-06	-2.634043e-09	-3.548309e+01	-1.743880e+02
4.700000e-07	-4.971332e-06	-2.647572e-09	-3.535327e+01	-1.742602e+02
4.800000e-07	-4.952631e-06	-2.645517e-09	-3.522028e+01	-1.741203e+02
4.900000e-07	-4.933425e-06	-2.629133e-09	-3.508370e+01	-1.739698e+02
5.000000e-07	-4.913814e-06	-2.641729e-09	-3.494424e+01	-1.738102e+02
5.100000e-07	-4.893980e-06	-2.647798e-09	-3.480319e+01	-1.736430e+02
5.200000e-07	-4.873976e-06	-2.639693e-09	-3.466093e+01	-1.734694e+02
5.300000e-07	-4.853732e-06	-2.618191e-09	-3.451697e+01	-1.732907e+02
5.400000e-07	-4.833275e-06	-2.619248e-09	-3.437149e+01	-1.731082e+02
5.500000e-07	-4.812563e-06	-2.624555e-09	-3.422420e+01	-1.729229e+02
5.600000e-07	-4.791395e-06	-2.628697e-09	-3.407366e+01	-1.727358e+02
5.700000e-07	-4.769826e-06	-2.622244e-09	-3.392028e+01	-1.725475e+02
5.800000e-07	-4.747991e-06	-2.620205e-09	-3.376500e+01	-1.723589e+02
5.900000e-07	-4.725851e-06	-2.614787e-09	-3.360756e+01	-1.721704e+02
6.000000e-07	-4.703436e-06	-2.613844e-09	-3.344815e+01	-1.719823e+02
6.100000e-07	-4.680709e-06	-2.606988e-09	-3.328653e+01	-1.717951e+02
6.200000e-07	-4.657606e-06	-2.592983e-09	-3.312223e+01	-1.716088e+02
6.300000e-07	-4.634176e-06	-2.584881e-09	-3.295561e+01	-1.714234e+02
6.400000e-07	-4.610405e-06	-2.594090e-09	-3.278657e+01	-1.712389e+02
6.500000e-07	-4.586421e-06	-2.596538e-09	-3.261601e+01	-1.710552e+02
6.600000e-07	-4.562342e-06	-2.584733e-09	-3.244477e+01	-1.708719e+02
6.700000e-07	-4.538015e-06	-2.580228e-09	-3.227177e+01	-1.706889e+02
6.800000e-07	-4.513402e-06	-2.583817e-09	-3.209674e+01	-1.705059e+02
6.900000e-07	-4.488341e-06	-2.582343e-09	-3.191851e+01	-1.703224e+02
7.000000e-07	-4.462747e-06	-2.572809e-09	-3.173650e+01	-1.701382e+02
7.100000e-07	-4.436636e-06	-2.568430e-09	-3.155082e+01	-1.699530e+02
7.200000e-07	-4.409958e-06	-2.566232e-09	-3.136110e+01	-1.697664e+02
7.300000e-07	-4.382788e-06	-2.568168e-09	-3.116788e+01	-1.695782e+02
7.400000e-07	-4.355273e-06	-2.562325e-09	-3.097221e+01	-1.693880e+02
7.500000e-07	-4.327528e-06	-2.552509e-09	-3.077491e+01	-1.691958e+02
7.600000e-07	-4.299592e-06	-2.543260e-09	-3.057624e+01	-1.690012e+02
7.700000e-07	-4.271482e-06	-2.543391e-09	-3.037634e+01	-1.688042e+02
7.800000e-07	-4.243193e-06	-2.537013e-09	-3.017517e+01	-1.686047e+02
7.900000e-07	-4.214720e-06	-2.531121e-09	-2.997268e+01	-1.684026e+02
8.000000e-07	-4.185885e-06	-2.526253e-09	-2.976762e+01	-1.681980e+02
8.100000e-07	-4.156547e-06	-2.527662e-09	-2.955898e+01	-1.679907e+02
8.200000e-07	-4.126952e-06	-2.524807e-09	-2.934852e+01	-1.677810e+02
8.300000e-07	-4.097165e-06	-2.522303e-09	-2.913670e+01	-1.675687e+02
8.400000e-07	-4.067107e-06	-2.518298e-09	-2.892294e+01	-1.673539e+02
8.500000e-07	-4.036753e-06	-2.520456e-09	-2.870708e+01	-1.671367e+02
8.600000e-07	-4.006045e-06	-2.517382e-09	-2.848870e+01	-1.669171e+02
8.700000e-07	-3.975071e-06	-2.506291e-09	-2.826843e+01	-1.666950e+02
8.800000e-07	-3.943923e-06	-2.494080e-09	-2.804693e+01	-1.664705e+02
8.900000e-07	-3.912607e-06	-2.492651e-09	-2.782422e+01	-1.662435e+02
9.000000e-07	-3.881038e-06	-2.494997e-09	-2.759972e+01	-1.660139e+02
9.100000e-07	-3.849242e-06	-2.492646e-09	-2.737361e+01	-1.657814e+02
9.200000e-07	-3.817297e-06	-2.486489e-09	-2.714644e+01	-1.655460e+02
9.300000e-07	-3.785191e-06	-2.486650e-09	-2.691812e+01	-1.653074e+02
9.400000e-07	-3.752851e-06	-2.488526e-09	-2.668813e+01	-1.650653e+02
9.500000e-07	-3.720205e-06	-2.481860e-09	-2.645598e+01	-1.648194e+02
9.600000e-07	-3.687227e-06	-2.469653e-09	-2.622145e+01	-1.645694e+02
9.700000e-07	-3.653933e-06	-2.463729e-09	-2.598469e+01	-1.643148e+02
9.800000e-07	-3.620228e-06	-2.466631e-09	-2.574499e+01	-1.640554e+02
9.900000e-07	-3.586003e-06	-2.466049e-09	-2.550160e+01	-1.637907e+02
1.000000e-06	-3.551291e-06	-2.460556e-09	-2.525475e+01	-1.635205e+02
1.010000e-06	-3.516324e-06	-2.456138e-09	-2.500609e+01	-1.632442e+02
1.020000e-06	-3.481123e-06	-2.456786e-09	-2.475576e+01	-1.629616e+02
1.030000e-06	-3.445512e-06	-2.453883e-09	-2.450252e+01	-1.626725e+02
1.040000e-06	-3.409653e-06	-2.444576e-09	-2.424751e+01	-1.623766e+02
1.050000e-06	-3.373674e-06	-2.433066e-09	-2.399164e+01	-1.620736e+02
1.060000e-06	-3.337582e-06	-2.426689e-09	-2.373498e+01	-1.617636e+02
1.070000e-06	-3.301417e-06	-2.422341e-09	-2.347779e+01	-1.614464e+02
1.080000e-06	-3.265082e-06	-2.417549e-09	-2.321940e+01	-1.611221e+02
1.090000e-06	-3.228565e-06	-2.409392e-09	-2.295971e+01	-1.607908e+02
1.100000e-06	-3.191850e-06	-2.404736e-09	-2.269862e+01	-1.604526e+02
1.110000e-06	-3.154822e-06	-2.400196e-09	-2.243529e+01	-1.601077e+02
1.120000e-06	-3.117478e-06	-2.394562e-09	-2.216972e+01	-1.597565e+02
1.130000e-06	-3.079825e-06	-2.386015e-09	-2.190195e+01	-1.593992e+02
1.140000e-06	-3.041957e-06	-2.380834e-09	-2.163266e+01	-1.590364e+02
1.150000e-06	-3.003946e-06	-2.377323e-09	-2.136235e+01	-1.586683e+02
1.160000e-06	-2.965818e-06	-2.372902e-09	-2.109120e+01	-1.582953e+02
1.170000e-06	-2.927565e-06	-2.360922e-09	-2.081917e+01	-1.579180e+02
1.180000e-06	-2.889066e-06	-2.347785e-09	-2.054539e+01	-1.575366e+02
1.190000e-06	-2.850245e-06	-2.339305e-09	-2.026931e+01	-1.571516e+02
1.200000e-06	-2.811152e-06	-2.334684e-09	-1.999130e+01	-1.567632e+02
1.210000e-06	-2.771890e-06	-2.328268e-09	-1.971210e+01	-1.563717e+02
1.220000e-06	-2.732502e-06	-2.322062e-09	-1.943200e+01	-1.559773e+02
1.230000e-06	-2.692939e-06	-2.318160e-09	-1.915065e+01	-1.555800e+02
1.240000e-06	-2.653178e-06	-2.313849e-09	-1.886788e+01	-1.551798e+02
1.250000e-06	-2.613298e-06	-2.303628e-09	-1.858428e+01	-1.547766e+02
1.260000e-06	-2.573321e-06	-2.287751e-09	-1.829999e+01	-1.543699e+02
1.270000e-06	-2.533301e-06	-2.274908e-09	-1.801539e+01	-1.539595e+02
1.280000e-06	-2.493220e-06	-2.268541e-09	-1.773036e+01	-1.535449e+02
1.290000e-06	-2.452996e-06	-2.265270e-09	-1.744431e+01	-1.531252e+02
1.300000e-06	-2.412646e-06	-2.260274e-09	-1.715736e+01	-1.526998e+02
1.310000e-06	-2.372145e-06	-2.255910e-09	-1.686934e+01	-1.522678e+02
1.320000e-06	-2.331510e-06	-2.250586e-09	-1.658037e+01	-1.518281e+02
1.330000e-06	-2.290717e-06	-2.241218e-09	-1.629027e+01	-1.513797e+02
1.340000e-06	-2.249651e-06	-2.227394e-09	-1.599823e+01	-1.509214e+02
1.350000e-06	-2.208361e-06	-2.214445e-09	-1.570460e+01	-1.504520e+02
1.360000e-06	-2.166784e-06	-2.202673e-09	-1.540893e+01	-1.499703e+02
1.370000e-06	-2.124785e-06	-2.194087e-09	-1.511026e+01	-1.494750e+02
1.380000e-06	-2.082455e-06	-2.187309e-09	-1.480923e+01	-1.489648e+02
1.390000e-06	-2.039850e-06	-2.180985e-09	-1.450624e+01	-1.484386e+02
1.400000e-06	-1.997025e-06	-2.172630e-09	-1.420170e+01	-1.478951e+02
1.410000e-06	-1.954007e-06	-2.162552e-09	-1.389578e+01	-1.473334e+02
1.420000e-06	-1.910848e-06	-2.149910e-09	-1.358886e+01	-1.467523e+02
1.430000e-06	-1.867551e-06	-2.136691e-09	-1.328095e+01	-1.461510e+02
1.440000e-06	-1.824041e-06	-2.124437e-09	-1.297154e+01	-1.455287e+02
1.450000e-06	-1.780427e-06	-2.113904e-09	-1.266138e+01	-1.448848e+02
1.460000e-06	-1.736715e-06	-2.104040e-09	-1.235053e+01	-1.442188e+02
1.470000e-06	-1.692870e-06	-2.095652e-09	-1.203872e+01	-1.435303e+02
1.480000e-06	-1.648967e-06	-2.084767e-09	-1.172651e+01	-1.428192e+02
1.490000e-06	-1.605028e-06	-2.071129e-09	-1.141404e+01	-1.420854e+02
1.500000e-06	-1.561008e-06	-2.055465e-09	-1.110100e+01	-1.413290e+02
1.510000e-06	-1.516947e-06	-2.040122e-09	-1.078766e+01	-1.405501e+02
1.520000e-06	-1.472838e-06	-2.025088e-09	-1.047398e+01	-1.397491e+02
1.530000e-06	-1.428586e-06	-2.011783e-09	-1.015929e+01	-1.389263e+02
1.540000e-06	-1.384287e-06	-2.001531e-09	-9.844258e+00	-1.380822e+02
1.550000e-06	-1.339977e-06	-1.991491e-09	-9.529149e+00	-1.372173e+02
1.560000e-06	-1.295562e-06	-1.979228e-09	-9.213297e+00	-1.363321e+02
1.570000e-06	-1.251070e-06	-1.964578e-09	-8.896895e+00	-1.354271e+02
1.580000e-06	-1.206551e-06	-1.948775e-09	-8.580302e+00	-1.345027e+02
1.590000e-06	-1.161955e-06	-1.932178e-09	-8.263161e+00	-1.335594e+02
1.600000e-06	-1.117235e-06	-1.917750e-09	-7.945138e+00	-1.325975e+02
1.610000e-06	-1.072392e-06	-1.905686e-09	-7.626238e+00	-1.316170e+02
1.620000e-06	-1.027320e-06	-1.894805e-09	-7.305711e+00	-1.306180e+02
1.630000e-06	-9.820845e-07	-1.881590e-09	-6.984024e+00	-1.296004e+02
1.640000e-06	-9.368897e-07	-1.865138e-09	-6.662625e+00	-1.285639e+02
1.650000e-06	-8.916948e-07	-1.847677e-09	-6.341224e+00	-1.275078e+02
1.660000e-06	-8.463831e-07	-1.830334e-09	-6.018993e+00	-1.264314e+02
1.670000e-06	-8.010895e-07	-1.810853e-09	-5.696891e+00	-1.253337e+02
1.680000e-06	-7.558160e-07	-1.792173e-09	-5.374931e+00	-1.242135e+02
1.690000e-06	-7.104337e-07	-1.774951e-09	-5.052199e+00	-1.230694e+02
1.700000e-06	-6.650115e-07	-1.760473e-09	-4.729182e+00	-1.218997e+02
1.710000e-06	-6.195352e-07	-1.746103e-09	-4.405780e+00	-1.207025e+02
1.720000e-06	-5.739977e-07	-1.726950e-09	-4.081943e+00	-1.194758e+02
1.730000e-06	-5.284227e-07	-1.704678e-09	-3.757840e+00	-1.182174e+02
1.740000e-06	-4.828143e-07	-1.682891e-09	-3.433500e+00	-1.169249e+02
1.750000e-06	-4.371657e-07	-1.661186e-09	-3.108873e+00	-1.155959e+02
1.760000e-06	-3.914074e-07	-1.641181e-09	-2.783465e+00	-1.142278e+02
1.770000e-06	-3.455935e-07	-1.623957e-09	-2.457664e+00	-1.128180e+02
1.780000e-06	-2.998105e-07	-1.610339e-09	-2.132081e+00	-1.113639e+02
1.790000e-06	-2.540004e-07	-1.595555e-09	-1.806306e+00	-1.098628e+02
1.800000e-06	-2.081593e-07	-1.573109e-09	-1.480310e+00	-1.083123e+02
1.810000e-06	-1.623667e-07	-1.540870e-09	-1.154659e+00	-1.067098e+02
1.820000e-06	-1.165954e-07	-1.506856e-09	-8.291602e-01	-1.050531e+02
1.830000e-06	-7.082798e-08	-1.478379e-09	-5.036881e-01	-1.033399e+02
1.840000e-06	-2.507314e-08	-1.454214e-09	-1.783058e-01	-1.015682e+02
1.850000e-06	2.072427e-08	-1.432636e-09	1.473792e-01	-9.973633e+01
1.860000e-06	6.653707e-08	-1.409869e-09	4.731736e-01	-9.784260e+01
1.870000e-06	1.123658e-07	-1.385161e-09	7.990813e-01	-9.588571e+01
1.880000e-06	1.582222e-07	-1.356627e-09	1.125186e+00	-9.386461e+01
1.890000e-06	2.040699e-07	-1.322196e-09	1.451229e+00	-9.177848e+01
1.900000e-06	2.499091e-07	-1.284792e-09	1.777211e+00	-8.962681e+01
1.910000e-06	2.957144e-07	-1.247702e-09	2.102952e+00	-8.740933e+01
1.920000e-06	3.414611e-07	-1.212557e-09	2.428276e+00	-8.512605e+01
1.930000e-06	3.871905e-07	-1.178670e-09	2.753477e+00	-8.277722e+01
1.940000e-06	4.328671e-07	-1.145159e-09	3.078303e+00	-8.036337e+01
1.950000e-06	4.784600e-07	-1.110664e-09	3.402534e+00	-7.788521e+01
1.960000e-06	5.240583e-07	-1.074346e-09	3.726804e+00	-7.534369e+01
1.970000e-06	5.696410e-07	-1.036843e-09	4.050961e+00	-7.273995e+01
1.980000e-06	6.151657e-07	-9.974028e-10	4.374707e+00	-7.007527e+01
1.990000e-06	6.606323e-07	-9.537572e-10	4.698040e+00	-6.735110e+01
2.000000e-06	7.060174e-07	-9.080863e-10	5.020792e+00	-6.456899e+01
2.010000e-06	7.513939e-07	-8.663893e-10	5.343484e+00	-6.173059e+01
2.020000e-06	7.967579e-07	-8.263220e-10	5.666087e+00	-5.883763e+01
2.030000e-06	8.420571e-07	-7.827327e-10	5.988229e+00	-5.589189e+01
2.040000e-06	8.873563e-07	-7.364538e-10	6.310371e+00	-5.289517e+01
2.050000e-06	9.325695e-07	-6.906268e-10	6.631901e+00	-4.984931e+01
2.060000e-06	9.775639e-07	-6.467263e-10	6.951876e+00	-4.675615e+01
2.070000e-06	1.022372e-06	-6.022187e-10	7.270526e+00	-4.361753e+01
2.080000e-06	1.067122e-06	-5.559490e-10	7.588763e+00	-4.043528e+01
2.090000e-06	1.111801e-06	-5.119167e-10	7.906493e+00	-3.721123e+01
2.100000e-06	1.156375e-06	-4.693140e-10	8.223481e+00	-3.394718e+01
2.110000e-06	1.200943e-06	-4.215314e-10	8.540421e+00	-3.064497e+01
2.120000e-06	1.245510e-06	-3.643890e-10	8.857355e+00	-2.730640e+01
2.130000e-06	1.289928e-06	-3.047544e-10	9.173230e+00	-2.393333e+01
2.140000e-06	1.334224e-06	-2.489921e-10	9.488241e+00	-2.052763e+01
2.150000e-06	1.378494e-06	-1.974234e-10	9.803064e+00	-1.709125e+01
2.160000e-06	1.422692e-06	-1.476800e-10	1.011738e+01	-1.362616e+01
2.170000e-06	1.466821e-06	-1.026928e-10	1.043119e+01	-1.013446e+01
2.180000e-06	1.510858e-06	-6.017977e-11	1.074436e+01	-6.618348e+00
2.190000e-06	1.554851e-06	-1.235219e-11	1.105722e+01	-3.080126e+00
2.200000e-06	1.598848e-06	4.409812e-11	1.137009e+01	4.777451e-01
2.210000e-06	1.642809e-06	1.083523e-10	1.168272e+01	4.052655e+00
2.220000e-06	1.686721e-06	1.726328e-10	1.199500e+01	7.641824e+00
2.230000e-06	1.730571e-06	2.302174e-10	1.230684e+01	1.124229e+01
2.240000e-06	1.774311e-06	2.837715e-10	1.261789e+01	1.485093e+01
2.250000e-06	1.817902e-06	3.361826e-10	1.292788e+01	1.846439e+01
2.260000e-06	1.861401e-06	3.845228e-10	1.323722e+01	2.207919e+01
2.270000e-06	1.904740e-06	4.299936e-10	1.354542e+01	2.569162e+01
2.280000e-06	1.947852e-06	4.786335e-10	1.385201e+01	2.929786e+01
2.290000e-06	1.990819e-06	5.335416e-10	1.415756e+01	3.289389e+01
2.300000e-06	2.033547e-06	5.914785e-10	1.446142e+01	3.647559e+01
2.310000e-06	2.076046e-06	6.483410e-10	1.476365e+01	4.003875e+01
2.320000e-06	2.118335e-06	7.020807e-10	1.506439e+01	4.357907e+01
2.330000e-06	2.160241e-06	7.525469e-10	1.536240e+01	4.709220e+01
2.340000e-06	2.201728e-06	7.999980e-10	1.565743e+01	5.057382e+01
2.350000e-06	2.242979e-06	8.459984e-10	1.595079e+01	5.401960e+01
2.360000e-06	2.284038e-06	8.927486e-10	1.624277e+01	5.742530e+01
2.370000e-06	2.324863e-06	9.403529e-10	1.653310e+01	6.078681e+01
2.380000e-06	2.365521e-06	9.878303e-10	1.682223e+01	6.410015e+01
2.390000e-06	2.406030e-06	1.035501e-09	1.711031e+01	6.736153e+01
2.400000e-06	2.446364e-06	1.082257e-09	1.739715e+01	7.056738e+01
2.410000e-06	2.486561e-06	1.126128e-09	1.768300e+01	7.371442e+01
2.420000e-06	2.526677e-06	1.167715e-09	1.796828e+01	7.679963e+01
2.430000e-06	2.566731e-06	1.210268e-09	1.825312e+01	7.982034e+01
2.440000e-06	2.606705e-06	1.256385e-09	1.853739e+01	8.277420e+01
2.450000e-06	2.646570e-06	1.301794e-09	1.882089e+01	8.565924e+01
2.460000e-06	2.686338e-06	1.341772e-09	1.910370e+01	8.847385e+01
2.470000e-06	2.725926e-06	1.379656e-09	1.938523e+01	9.121681e+01
2.480000e-06	2.765276e-06	1.417928e-09	1.966506e+01	9.388730e+01
2.490000e-06	2.804432e-06	1.454690e-09	1.994352e+01	9.648485e+01
2.500000e-06	2.843338e-06	1.488357e-09	2.022020e+01	9.900939e+01
2.510000e-06	2.882055e-06	1.521188e-09	2.049553e+01	1.014612e+02
2.520000e-06	2.920633e-06	1.557434e-09	2.076987e+01	1.038408e+02
2.530000e-06	2.958985e-06	1.594305e-09	2.104261e+01	1.061493e+02
2.540000e-06	2.997100e-06	1.627852e-09	2.131366e+01	1.083877e+02
2.550000e-06	3.035003e-06	1.658390e-09	2.158321e+01	1.105575e+02
2.560000e-06	3.072742e-06	1.689045e-09	2.185158e+01	1.126604e+02
2.570000e-06	3.110258e-06	1.717786e-09	2.211838e+01	1.146982e+02
2.580000e-06	3.147491e-06	1.744050e-09	2.238316e+01	1.166728e+02
2.590000e-06	3.184443e-06	1.770118e-09	2.264594e+01	1.185864e+02
2.600000e-06	3.221154e-06	1.796920e-09	2.290700e+01	1.204410e+02
2.610000e-06	3.257685e-06	1.825038e-09	2.316679e+01	1.222388e+02
2.620000e-06	3.294024e-06	1.852738e-09	2.342522e+01	1.239818e+02
2.630000e-06	3.330202e-06	1.880152e-09	2.368250e+01	1.256722e+02
2.640000e-06	3.366287e-06	1.908723e-09	2.393911e+01	1.273119e+02
2.650000e-06	3.402288e-06	1.934275e-09	2.419513e+01	1.289027e+02
2.660000e-06	3.438144e-06	1.952079e-09	2.445012e+01	1.304465e+02
2.670000e-06	3.473826e-06	1.968449e-09	2.470387e+01	1.319448e+02
2.680000e-06	3.509257e-06	1.989573e-09	2.495583e+01	1.333991e+02
2.690000e-06	3.544322e-06	2.013574e-09	2.520519e+01	1.348106e+02
2.700000e-06	3.579005e-06	2.035193e-09	2.545184e+01	1.361805e+02
2.710000e-06	3.613289e-06	2.054741e-09	2.569565e+01	1.375097e+02
2.720000e-06	3.647186e-06	2.074984e-09	2.593671e+01	1.387989e+02
2.730000e-06	3.680671e-06	2.095540e-09	2.617483e+01	1.400489e+02
2.740000e-06	3.713587e-06	2.114303e-09	2.640891e+01	1.412602e+02
2.750000e-06	3.746074e-06	2.130726e-09	2.663994e+01	1.424331e+02
2.760000e-06	3.778402e-06	2.146689e-09	2.686984e+01	1.435679e+02
2.770000e-06	3.810574e-06	2.165012e-09	2.709863e+01	1.446650e+02
2.780000e-06	3.842626e-06	2.183335e-09	2.732656e+01	1.457245e+02
2.790000e-06	3.874540e-06	2.200809e-09	2.755351e+01	1.467466e+02
2.800000e-06	3.906247e-06	2.217015e-09	2.777900e+01	1.477315e+02
2.810000e-06	3.937811e-06	2.231354e-09	2.800347e+01	1.486795e+02
2.820000e-06	3.969156e-06	2.244031e-09	2.822637e+01	1.495908e+02
2.830000e-06	4.000128e-06	2.253748e-09	2.844663e+01	1.504657e+02
2.840000e-06	4.030686e-06	2.264265e-09	2.866393e+01	1.513048e+02
2.850000e-06	4.060949e-06	2.276071e-09	2.887915e+01	1.521086e+02
2.860000e-06	4.091037e-06	2.291058e-09	2.909312e+01	1.528777e+02
2.870000e-06	4.120880e-06	2.307117e-09	2.930535e+01	1.536130e+02
2.880000e-06	4.150505e-06	2.319486e-09	2.951602e+01	1.543153e+02
2.890000e-06	4.179818e-06	2.328293e-09	2.972448e+01	1.549857e+02
2.900000e-06	4.208721e-06	2.335994e-09	2.993002e+01	1.556254e+02
