# Temperatura_=_-1.9
# Concentracion g/m^3_=_4090.0
# C_Vs_to_Am_M_A/Vsm_=_65563218390.804596
# pendiente_HvsI_1/m_=_3716.3
# ordenada_HvsI_A/m_=_1297.0
# frecuencia_Hz_=_135082.4512380438

Tiempo_(s)	Campo_(V.s)	Magnetizacion_(V.s)	Campo_(kA/m)	Magnetizacion_(A/m)
0.000000e+00	-5.392099e-06	-2.468956e-09	-3.839239e+01	-1.594752e+02
1.000000e-08	-5.392243e-06	-2.466702e-09	-3.839342e+01	-1.594472e+02
2.000000e-08	-5.392118e-06	-2.465855e-09	-3.839253e+01	-1.594235e+02
3.000000e-08	-5.391833e-06	-2.467039e-09	-3.839049e+01	-1.594059e+02
4.000000e-08	-5.391284e-06	-2.467644e-09	-3.838659e+01	-1.593962e+02
5.000000e-08	-5.390317e-06	-2.462525e-09	-3.837970e+01	-1.593961e+02
6.000000e-08	-5.388845e-06	-2.456776e-09	-3.836922e+01	-1.594074e+02
7.000000e-08	-5.386695e-06	-2.452090e-09	-3.835392e+01	-1.594318e+02
8.000000e-08	-5.383776e-06	-2.434056e-09	-3.833313e+01	-1.594705e+02
9.000000e-08	-5.380298e-06	-2.459848e-09	-3.830836e+01	-1.595250e+02
1.000000e-07	-5.376320e-06	-2.516935e-09	-3.828004e+01	-1.595964e+02
1.100000e-07	-5.372008e-06	-2.458005e-09	-3.824934e+01	-1.596855e+02
1.200000e-07	-5.367651e-06	-2.407700e-09	-3.821831e+01	-1.597929e+02
1.300000e-07	-5.363130e-06	-2.442767e-09	-3.818613e+01	-1.599191e+02
1.400000e-07	-5.358181e-06	-2.497980e-09	-3.815089e+01	-1.600640e+02
1.500000e-07	-5.352666e-06	-2.457079e-09	-3.811162e+01	-1.602275e+02
1.600000e-07	-5.346822e-06	-2.338774e-09	-3.807001e+01	-1.604092e+02
1.700000e-07	-5.340792e-06	-2.456630e-09	-3.802708e+01	-1.606083e+02
1.800000e-07	-5.334214e-06	-2.521450e-09	-3.798024e+01	-1.608237e+02
1.900000e-07	-5.327179e-06	-2.508322e-09	-3.793015e+01	-1.610542e+02
2.000000e-07	-5.319970e-06	-2.412413e-09	-3.787883e+01	-1.612982e+02
2.100000e-07	-5.312594e-06	-2.512149e-09	-3.782630e+01	-1.615540e+02
2.200000e-07	-5.304826e-06	-2.526020e-09	-3.777100e+01	-1.618196e+02
2.300000e-07	-5.296736e-06	-2.467850e-09	-3.771339e+01	-1.620930e+02
2.400000e-07	-5.288479e-06	-2.462849e-09	-3.765461e+01	-1.623719e+02
2.500000e-07	-5.279813e-06	-2.561735e-09	-3.759290e+01	-1.626539e+02
2.600000e-07	-5.270335e-06	-2.554391e-09	-3.752542e+01	-1.629368e+02
2.700000e-07	-5.260231e-06	-2.490557e-09	-3.745347e+01	-1.632180e+02
2.800000e-07	-5.249671e-06	-2.554443e-09	-3.737829e+01	-1.634952e+02
2.900000e-07	-5.238570e-06	-2.580262e-09	-3.729925e+01	-1.637660e+02
3.000000e-07	-5.227030e-06	-2.496067e-09	-3.721708e+01	-1.640282e+02
3.100000e-07	-5.215092e-06	-2.463308e-09	-3.713208e+01	-1.642795e+02
3.200000e-07	-5.202767e-06	-2.588131e-09	-3.704432e+01	-1.645179e+02
3.300000e-07	-5.190028e-06	-2.568110e-09	-3.695362e+01	-1.647416e+02
3.400000e-07	-5.176984e-06	-2.510041e-09	-3.686075e+01	-1.649490e+02
3.500000e-07	-5.163543e-06	-2.528099e-09	-3.676505e+01	-1.651385e+02
3.600000e-07	-5.149677e-06	-2.601128e-09	-3.666632e+01	-1.653091e+02
3.700000e-07	-5.135512e-06	-2.531528e-09	-3.656546e+01	-1.654596e+02
3.800000e-07	-5.121027e-06	-2.530201e-09	-3.646232e+01	-1.655894e+02
3.900000e-07	-5.105855e-06	-2.538151e-09	-3.635430e+01	-1.656981e+02
4.000000e-07	-5.089972e-06	-2.534135e-09	-3.624121e+01	-1.657853e+02
4.100000e-07	-5.073616e-06	-2.517187e-09	-3.612475e+01	-1.658511e+02
4.200000e-07	-5.056765e-06	-2.579903e-09	-3.600478e+01	-1.658957e+02
4.300000e-07	-5.039515e-06	-2.542072e-09	-3.588195e+01	-1.659197e+02
4.400000e-07	-5.022118e-06	-2.516179e-09	-3.575808e+01	-1.659237e+02
4.500000e-07	-5.004477e-06	-2.541359e-09	-3.563247e+01	-1.659085e+02
4.600000e-07	-4.986518e-06	-2.564946e-09	-3.550461e+01	-1.658752e+02
4.700000e-07	-4.968326e-06	-2.505499e-09	-3.537507e+01	-1.658250e+02
4.800000e-07	-4.949828e-06	-2.512325e-09	-3.524337e+01	-1.657591e+02
4.900000e-07	-4.930896e-06	-2.540786e-09	-3.510857e+01	-1.656789e+02
5.000000e-07	-4.911488e-06	-2.544109e-09	-3.497038e+01	-1.655859e+02
5.100000e-07	-4.891717e-06	-2.529729e-09	-3.482961e+01	-1.654815e+02
5.200000e-07	-4.871717e-06	-2.525352e-09	-3.468721e+01	-1.653671e+02
5.300000e-07	-4.851544e-06	-2.512628e-09	-3.454357e+01	-1.652444e+02
5.400000e-07	-4.831227e-06	-2.524513e-09	-3.439891e+01	-1.651147e+02
5.500000e-07	-4.810615e-06	-2.530641e-09	-3.425215e+01	-1.649793e+02
5.600000e-07	-4.789520e-06	-2.495177e-09	-3.410196e+01	-1.648397e+02
5.700000e-07	-4.768041e-06	-2.488610e-09	-3.394902e+01	-1.646970e+02
5.800000e-07	-4.746325e-06	-2.512314e-09	-3.379440e+01	-1.645524e+02
5.900000e-07	-4.724372e-06	-2.514220e-09	-3.363809e+01	-1.644067e+02
6.000000e-07	-4.702135e-06	-2.488915e-09	-3.347976e+01	-1.642610e+02
6.100000e-07	-4.679563e-06	-2.492576e-09	-3.331905e+01	-1.641158e+02
6.200000e-07	-4.656638e-06	-2.488060e-09	-3.315582e+01	-1.639719e+02
6.300000e-07	-4.633358e-06	-2.494408e-09	-3.299006e+01	-1.638296e+02
6.400000e-07	-4.609729e-06	-2.482021e-09	-3.282182e+01	-1.636892e+02
6.500000e-07	-4.585845e-06	-2.467703e-09	-3.265176e+01	-1.635510e+02
6.600000e-07	-4.561758e-06	-2.454134e-09	-3.248026e+01	-1.634150e+02
6.700000e-07	-4.537431e-06	-2.478686e-09	-3.230705e+01	-1.632811e+02
6.800000e-07	-4.512825e-06	-2.469692e-09	-3.213185e+01	-1.631491e+02
6.900000e-07	-4.487874e-06	-2.456137e-09	-3.195420e+01	-1.630188e+02
7.000000e-07	-4.462402e-06	-2.445490e-09	-3.177283e+01	-1.628897e+02
7.100000e-07	-4.436352e-06	-2.458716e-09	-3.158735e+01	-1.627614e+02
7.200000e-07	-4.409724e-06	-2.451781e-09	-3.139776e+01	-1.626333e+02
7.300000e-07	-4.382634e-06	-2.447683e-09	-3.120488e+01	-1.625049e+02
7.400000e-07	-4.355230e-06	-2.435156e-09	-3.100976e+01	-1.623756e+02
7.500000e-07	-4.327502e-06	-2.442796e-09	-3.081233e+01	-1.622447e+02
7.600000e-07	-4.299478e-06	-2.444749e-09	-3.061280e+01	-1.621116e+02
7.700000e-07	-4.271295e-06	-2.439935e-09	-3.041213e+01	-1.619756e+02
7.800000e-07	-4.243055e-06	-2.422574e-09	-3.021106e+01	-1.618360e+02
7.900000e-07	-4.214605e-06	-2.424326e-09	-3.000849e+01	-1.616923e+02
8.000000e-07	-4.185798e-06	-2.425082e-09	-2.980339e+01	-1.615439e+02
8.100000e-07	-4.156680e-06	-2.420090e-09	-2.959606e+01	-1.613902e+02
8.200000e-07	-4.127241e-06	-2.412904e-09	-2.938645e+01	-1.612307e+02
8.300000e-07	-4.097497e-06	-2.414758e-09	-2.917467e+01	-1.610650e+02
8.400000e-07	-4.067457e-06	-2.421414e-09	-2.896078e+01	-1.608927e+02
8.500000e-07	-4.037201e-06	-2.420830e-09	-2.874536e+01	-1.607136e+02
8.600000e-07	-4.006768e-06	-2.408880e-09	-2.852867e+01	-1.605273e+02
8.700000e-07	-3.976083e-06	-2.394831e-09	-2.831019e+01	-1.603337e+02
8.800000e-07	-3.945025e-06	-2.394636e-09	-2.808905e+01	-1.601327e+02
8.900000e-07	-3.913642e-06	-2.394581e-09	-2.786560e+01	-1.599244e+02
9.000000e-07	-3.882040e-06	-2.393760e-09	-2.764059e+01	-1.597087e+02
9.100000e-07	-3.850251e-06	-2.388230e-09	-2.741425e+01	-1.594859e+02
9.200000e-07	-3.818321e-06	-2.394075e-09	-2.718690e+01	-1.592560e+02
9.300000e-07	-3.786169e-06	-2.397023e-09	-2.695798e+01	-1.590195e+02
9.400000e-07	-3.753803e-06	-2.397375e-09	-2.672753e+01	-1.587765e+02
9.500000e-07	-3.721323e-06	-2.384574e-09	-2.649626e+01	-1.585276e+02
9.600000e-07	-3.688556e-06	-2.379115e-09	-2.626296e+01	-1.582731e+02
9.700000e-07	-3.655302e-06	-2.374907e-09	-2.602618e+01	-1.580135e+02
9.800000e-07	-3.621611e-06	-2.378718e-09	-2.578630e+01	-1.577493e+02
9.900000e-07	-3.587528e-06	-2.375449e-09	-2.554363e+01	-1.574811e+02
1.000000e-06	-3.553040e-06	-2.377015e-09	-2.529807e+01	-1.572094e+02
1.010000e-06	-3.518192e-06	-2.376467e-09	-2.504995e+01	-1.569348e+02
1.020000e-06	-3.482985e-06	-2.380718e-09	-2.479927e+01	-1.566579e+02
1.030000e-06	-3.447365e-06	-2.373597e-09	-2.454565e+01	-1.563791e+02
1.040000e-06	-3.411546e-06	-2.364743e-09	-2.429062e+01	-1.560992e+02
1.050000e-06	-3.375619e-06	-2.354383e-09	-2.403481e+01	-1.558185e+02
1.060000e-06	-3.339550e-06	-2.350612e-09	-2.377800e+01	-1.555375e+02
1.070000e-06	-3.303305e-06	-2.343288e-09	-2.351992e+01	-1.552567e+02
1.080000e-06	-3.266955e-06	-2.336966e-09	-2.326111e+01	-1.549765e+02
1.090000e-06	-3.230522e-06	-2.329548e-09	-2.300170e+01	-1.546972e+02
1.100000e-06	-3.193813e-06	-2.328636e-09	-2.274033e+01	-1.544190e+02
1.110000e-06	-3.156853e-06	-2.328565e-09	-2.247717e+01	-1.541421e+02
1.120000e-06	-3.119648e-06	-2.324713e-09	-2.221227e+01	-1.538665e+02
1.130000e-06	-3.082160e-06	-2.317472e-09	-2.194535e+01	-1.535924e+02
1.140000e-06	-3.044418e-06	-2.311545e-09	-2.167662e+01	-1.533195e+02
1.150000e-06	-3.006471e-06	-2.307595e-09	-2.140643e+01	-1.530478e+02
1.160000e-06	-2.968378e-06	-2.301248e-09	-2.113521e+01	-1.527769e+02
1.170000e-06	-2.930084e-06	-2.294127e-09	-2.086255e+01	-1.525066e+02
1.180000e-06	-2.891542e-06	-2.287240e-09	-2.058812e+01	-1.522362e+02
1.190000e-06	-2.852750e-06	-2.283321e-09	-2.031192e+01	-1.519654e+02
1.200000e-06	-2.813802e-06	-2.277791e-09	-2.003460e+01	-1.516934e+02
1.210000e-06	-2.774687e-06	-2.272562e-09	-1.975610e+01	-1.514197e+02
1.220000e-06	-2.735334e-06	-2.264317e-09	-1.947590e+01	-1.511433e+02
1.230000e-06	-2.695787e-06	-2.259462e-09	-1.919433e+01	-1.508636e+02
1.240000e-06	-2.656073e-06	-2.252266e-09	-1.891155e+01	-1.505797e+02
1.250000e-06	-2.616219e-06	-2.247786e-09	-1.862779e+01	-1.502907e+02
1.260000e-06	-2.576299e-06	-2.237676e-09	-1.834356e+01	-1.499956e+02
1.270000e-06	-2.536275e-06	-2.231756e-09	-1.805858e+01	-1.496935e+02
1.280000e-06	-2.496056e-06	-2.226278e-09	-1.777222e+01	-1.493836e+02
1.290000e-06	-2.455793e-06	-2.220304e-09	-1.748554e+01	-1.490649e+02
1.300000e-06	-2.415478e-06	-2.209707e-09	-1.719849e+01	-1.487365e+02
1.310000e-06	-2.374982e-06	-2.202710e-09	-1.691015e+01	-1.483976e+02
1.320000e-06	-2.334277e-06	-2.196995e-09	-1.662033e+01	-1.480474e+02
1.330000e-06	-2.293355e-06	-2.190292e-09	-1.632896e+01	-1.476853e+02
1.340000e-06	-2.252304e-06	-2.179379e-09	-1.603668e+01	-1.473105e+02
1.350000e-06	-2.211090e-06	-2.170512e-09	-1.574323e+01	-1.469225e+02
1.360000e-06	-2.169581e-06	-2.161747e-09	-1.544767e+01	-1.465208e+02
1.370000e-06	-2.127805e-06	-2.154617e-09	-1.515023e+01	-1.461051e+02
1.380000e-06	-2.085757e-06	-2.146533e-09	-1.485084e+01	-1.456751e+02
1.390000e-06	-2.043336e-06	-2.135752e-09	-1.454880e+01	-1.452305e+02
1.400000e-06	-2.000613e-06	-2.124967e-09	-1.424460e+01	-1.447713e+02
1.410000e-06	-1.957689e-06	-2.121366e-09	-1.393898e+01	-1.442974e+02
1.420000e-06	-1.914536e-06	-2.116482e-09	-1.363173e+01	-1.438090e+02
1.430000e-06	-1.871151e-06	-2.103475e-09	-1.332282e+01	-1.433061e+02
1.440000e-06	-1.827668e-06	-2.089301e-09	-1.301321e+01	-1.427890e+02
1.450000e-06	-1.784208e-06	-2.081284e-09	-1.270378e+01	-1.422579e+02
1.460000e-06	-1.740609e-06	-2.078872e-09	-1.239335e+01	-1.417132e+02
1.470000e-06	-1.696807e-06	-2.070048e-09	-1.208147e+01	-1.411550e+02
1.480000e-06	-1.652927e-06	-2.057767e-09	-1.176904e+01	-1.405838e+02
1.490000e-06	-1.608938e-06	-2.047998e-09	-1.145583e+01	-1.399998e+02
1.500000e-06	-1.564859e-06	-2.040937e-09	-1.114198e+01	-1.394034e+02
1.510000e-06	-1.520696e-06	-2.027260e-09	-1.082754e+01	-1.387946e+02
1.520000e-06	-1.476468e-06	-2.009953e-09	-1.051263e+01	-1.381738e+02
1.530000e-06	-1.432238e-06	-1.999077e-09	-1.019770e+01	-1.375410e+02
1.540000e-06	-1.387902e-06	-1.998874e-09	-9.882030e+00	-1.368962e+02
1.550000e-06	-1.343500e-06	-2.000012e-09	-9.565879e+00	-1.362393e+02
1.560000e-06	-1.299142e-06	-1.994114e-09	-9.250050e+00	-1.355700e+02
1.570000e-06	-1.254714e-06	-1.983393e-09	-8.933713e+00	-1.348880e+02
1.580000e-06	-1.210183e-06	-1.976561e-09	-8.616647e+00	-1.341928e+02
1.590000e-06	-1.165570e-06	-1.967303e-09	-8.298997e+00	-1.334839e+02
1.600000e-06	-1.120901e-06	-1.951888e-09	-7.980948e+00	-1.327603e+02
1.610000e-06	-1.076179e-06	-1.932826e-09	-7.662523e+00	-1.320212e+02
1.620000e-06	-1.031327e-06	-1.923911e-09	-7.343174e+00	-1.312656e+02
1.630000e-06	-9.863659e-07	-1.921807e-09	-7.023043e+00	-1.304922e+02
1.640000e-06	-9.413289e-07	-1.915555e-09	-6.702375e+00	-1.296998e+02
1.650000e-06	-8.961726e-07	-1.902201e-09	-6.380856e+00	-1.288870e+02
1.660000e-06	-8.510729e-07	-1.891483e-09	-6.059741e+00	-1.280521e+02
1.670000e-06	-8.059971e-07	-1.881840e-09	-5.738796e+00	-1.271936e+02
1.680000e-06	-7.607159e-07	-1.866347e-09	-5.416388e+00	-1.263097e+02
1.690000e-06	-7.153633e-07	-1.846097e-09	-5.093472e+00	-1.253987e+02
1.700000e-06	-6.700489e-07	-1.830465e-09	-4.770829e+00	-1.244588e+02
1.710000e-06	-6.245912e-07	-1.820787e-09	-4.447164e+00	-1.234881e+02
1.720000e-06	-5.790343e-07	-1.810590e-09	-4.122794e+00	-1.224847e+02
1.730000e-06	-5.334437e-07	-1.795199e-09	-3.798183e+00	-1.214467e+02
1.740000e-06	-4.877367e-07	-1.777414e-09	-3.472743e+00	-1.203723e+02
1.750000e-06	-4.420076e-07	-1.761281e-09	-3.147147e+00	-1.192596e+02
1.760000e-06	-3.962832e-07	-1.743598e-09	-2.821584e+00	-1.181067e+02
1.770000e-06	-3.505210e-07	-1.723134e-09	-2.495751e+00	-1.169120e+02
1.780000e-06	-3.047168e-07	-1.702983e-09	-2.169620e+00	-1.156736e+02
1.790000e-06	-2.589426e-07	-1.690006e-09	-1.843702e+00	-1.143898e+02
1.800000e-06	-2.132136e-07	-1.674377e-09	-1.518107e+00	-1.130591e+02
1.810000e-06	-1.675035e-07	-1.651519e-09	-1.192645e+00	-1.116797e+02
1.820000e-06	-1.217769e-07	-1.626594e-09	-8.670663e-01	-1.102502e+02
1.830000e-06	-7.600240e-08	-1.604197e-09	-5.411462e-01	-1.087689e+02
1.840000e-06	-3.024981e-08	-1.581397e-09	-2.153823e-01	-1.072346e+02
1.850000e-06	1.544281e-08	-1.554822e-09	1.099547e-01	-1.056456e+02
1.860000e-06	6.119728e-08	-1.525734e-09	4.357319e-01	-1.040006e+02
1.870000e-06	1.070581e-07	-1.501051e-09	7.622665e-01	-1.022982e+02
1.880000e-06	1.529292e-07	-1.476415e-09	1.088874e+00	-1.005369e+02
1.890000e-06	1.987244e-07	-1.447353e-09	1.414942e+00	-9.871526e+01
1.900000e-06	2.444503e-07	-1.414189e-09	1.740515e+00	-9.683193e+01
1.910000e-06	2.901593e-07	-1.381916e-09	2.065969e+00	-9.488542e+01
1.920000e-06	3.359228e-07	-1.349704e-09	2.391811e+00	-9.287424e+01
1.930000e-06	3.816804e-07	-1.315481e-09	2.717610e+00	-9.079689e+01
1.940000e-06	4.273035e-07	-1.279708e-09	3.042452e+00	-8.865182e+01
1.950000e-06	4.728608e-07	-1.247227e-09	3.366826e+00	-8.643750e+01
1.960000e-06	5.184138e-07	-1.218123e-09	3.691168e+00	-8.415236e+01
1.970000e-06	5.639036e-07	-1.185136e-09	4.015061e+00	-8.179483e+01
1.980000e-06	6.093743e-07	-1.145579e-09	4.338818e+00	-7.936336e+01
1.990000e-06	6.548124e-07	-1.103238e-09	4.662343e+00	-7.685644e+01
2.000000e-06	7.001717e-07	-1.061669e-09	4.985306e+00	-7.427262e+01
2.010000e-06	7.454739e-07	-1.020623e-09	5.307864e+00	-7.161053e+01
2.020000e-06	7.907798e-07	-9.791140e-10	5.630447e+00	-6.886893e+01
2.030000e-06	8.359892e-07	-9.390900e-10	5.952343e+00	-6.604670e+01
2.040000e-06	8.811282e-07	-8.993285e-10	6.273738e+00	-6.314295e+01
2.050000e-06	9.262455e-07	-8.549246e-10	6.594979e+00	-6.015698e+01
2.060000e-06	9.712481e-07	-8.080707e-10	6.915403e+00	-5.708837e+01
2.070000e-06	1.016177e-06	-7.626634e-10	7.235302e+00	-5.393701e+01
2.080000e-06	1.060997e-06	-7.202879e-10	7.554424e+00	-5.070312e+01
2.090000e-06	1.105703e-06	-6.745028e-10	7.872739e+00	-4.738731e+01
2.100000e-06	1.150325e-06	-6.240516e-10	8.190448e+00	-4.399060e+01
2.110000e-06	1.194882e-06	-5.710254e-10	8.507706e+00	-4.051448e+01
2.120000e-06	1.239314e-06	-5.182197e-10	8.824066e+00	-3.696090e+01
2.130000e-06	1.283658e-06	-4.636723e-10	9.139798e+00	-3.333234e+01
2.140000e-06	1.327978e-06	-4.044218e-10	9.455359e+00	-2.963178e+01
2.150000e-06	1.372250e-06	-3.453945e-10	9.770584e+00	-2.586275e+01
2.160000e-06	1.416476e-06	-2.916388e-10	1.008548e+01	-2.202934e+01
2.170000e-06	1.460647e-06	-2.409668e-10	1.039998e+01	-1.813615e+01
2.180000e-06	1.504786e-06	-1.866762e-10	1.071426e+01	-1.418835e+01
2.190000e-06	1.548897e-06	-1.248848e-10	1.102833e+01	-1.019160e+01
2.200000e-06	1.592966e-06	-6.265230e-11	1.134211e+01	-6.152086e+00
2.210000e-06	1.636929e-06	-1.178495e-12	1.165513e+01	-2.076423e+00
2.220000e-06	1.680792e-06	6.311832e-11	1.196744e+01	2.028333e+00
2.230000e-06	1.724671e-06	1.306318e-10	1.227987e+01	6.154758e+00
2.240000e-06	1.768528e-06	1.977540e-10	1.259213e+01	1.029511e+01
2.250000e-06	1.812232e-06	2.594666e-10	1.290331e+01	1.444139e+01
2.260000e-06	1.855699e-06	3.158417e-10	1.321280e+01	1.858541e+01
2.270000e-06	1.899027e-06	3.730381e-10	1.352130e+01	2.271886e+01
2.280000e-06	1.942207e-06	4.334581e-10	1.382875e+01	2.683338e+01
2.290000e-06	1.985054e-06	4.936635e-10	1.413382e+01	3.092066e+01
2.300000e-06	2.027611e-06	5.534272e-10	1.443683e+01	3.497249e+01
2.310000e-06	2.069937e-06	6.147511e-10	1.473820e+01	3.898085e+01
2.320000e-06	2.112049e-06	6.755633e-10	1.503804e+01	4.293798e+01
2.330000e-06	2.153872e-06	7.332664e-10	1.533582e+01	4.683649e+01
2.340000e-06	2.195404e-06	7.872647e-10	1.563154e+01	5.066936e+01
2.350000e-06	2.236724e-06	8.390867e-10	1.592574e+01	5.443009e+01
2.360000e-06	2.277714e-06	8.906506e-10	1.621760e+01	5.811269e+01
2.370000e-06	2.318453e-06	9.399639e-10	1.650766e+01	6.171177e+01
2.380000e-06	2.359113e-06	9.880993e-10	1.679716e+01	6.522258e+01
2.390000e-06	2.399613e-06	1.036288e-09	1.708553e+01	6.864104e+01
2.400000e-06	2.439920e-06	1.082268e-09	1.737252e+01	7.196375e+01
2.410000e-06	2.480157e-06	1.126669e-09	1.765901e+01	7.518806e+01
2.420000e-06	2.520357e-06	1.172308e-09	1.794525e+01	7.831201e+01
2.430000e-06	2.560459e-06	1.219008e-09	1.823077e+01	8.133436e+01
2.440000e-06	2.600421e-06	1.265649e-09	1.851531e+01	8.425461e+01
2.450000e-06	2.640210e-06	1.308851e-09	1.879861e+01	8.707289e+01
2.460000e-06	2.679844e-06	1.348057e-09	1.908081e+01	8.979001e+01
2.470000e-06	2.719432e-06	1.384175e-09	1.936268e+01	9.240738e+01
2.480000e-06	2.758846e-06	1.418404e-09	1.964331e+01	9.492697e+01
2.490000e-06	2.797939e-06	1.451747e-09	1.992166e+01	9.735126e+01
2.500000e-06	2.836734e-06	1.484391e-09	2.019788e+01	9.968315e+01
2.510000e-06	2.875273e-06	1.518706e-09	2.047229e+01	1.019259e+02
2.520000e-06	2.913659e-06	1.555848e-09	2.074560e+01	1.040832e+02
2.530000e-06	2.951890e-06	1.590298e-09	2.101781e+01	1.061588e+02
2.540000e-06	2.989967e-06	1.617956e-09	2.128892e+01	1.081568e+02
2.550000e-06	3.027899e-06	1.644837e-09	2.155900e+01	1.100811e+02
2.560000e-06	3.065611e-06	1.674820e-09	2.182752e+01	1.119359e+02
2.570000e-06	3.103069e-06	1.702977e-09	2.209423e+01	1.137254e+02
2.580000e-06	3.140337e-06	1.727358e-09	2.235957e+01	1.154533e+02
2.590000e-06	3.177353e-06	1.751131e-09	2.262313e+01	1.171236e+02
2.600000e-06	3.214100e-06	1.778961e-09	2.288478e+01	1.187398e+02
2.610000e-06	3.250688e-06	1.808361e-09	2.314529e+01	1.203052e+02
2.620000e-06	3.287096e-06	1.833476e-09	2.340452e+01	1.218228e+02
2.630000e-06	3.323327e-06	1.857018e-09	2.366249e+01	1.232954e+02
2.640000e-06	3.359448e-06	1.882846e-09	2.391967e+01	1.247254e+02
2.650000e-06	3.395461e-06	1.906040e-09	2.417609e+01	1.261146e+02
2.660000e-06	3.431336e-06	1.921038e-09	2.443152e+01	1.274649e+02
2.670000e-06	3.467006e-06	1.934070e-09	2.468550e+01	1.287775e+02
2.680000e-06	3.502408e-06	1.953189e-09	2.493757e+01	1.300534e+02
2.690000e-06	3.537488e-06	1.973939e-09	2.518734e+01	1.312932e+02
2.700000e-06	3.572181e-06	1.989347e-09	2.543436e+01	1.324974e+02
2.710000e-06	3.606403e-06	2.002221e-09	2.567802e+01	1.336661e+02
2.720000e-06	3.640137e-06	2.018503e-09	2.591821e+01	1.347992e+02
2.730000e-06	3.673420e-06	2.037943e-09	2.615519e+01	1.358964e+02
2.740000e-06	3.706303e-06	2.054238e-09	2.638932e+01	1.369574e+02
2.750000e-06	3.738866e-06	2.066256e-09	2.662117e+01	1.379817e+02
2.760000e-06	3.771239e-06	2.079021e-09	2.685168e+01	1.389688e+02
2.770000e-06	3.803489e-06	2.095539e-09	2.708130e+01	1.399181e+02
2.780000e-06	3.835600e-06	2.111172e-09	2.730993e+01	1.408294e+02
2.790000e-06	3.867553e-06	2.121534e-09	2.753744e+01	1.417021e+02
2.800000e-06	3.899336e-06	2.130900e-09	2.776374e+01	1.425360e+02
2.810000e-06	3.930874e-06	2.142525e-09	2.798830e+01	1.433312e+02
2.820000e-06	3.961993e-06	2.153501e-09	2.820987e+01	1.440876e+02
2.830000e-06	3.992765e-06	2.161768e-09	2.842896e+01	1.448057e+02
2.840000e-06	4.023291e-06	2.170116e-09	2.864632e+01	1.454859e+02
2.850000e-06	4.053514e-06	2.180451e-09	2.886151e+01	1.461291e+02
2.860000e-06	4.083482e-06	2.192279e-09	2.907488e+01	1.467362e+02
2.870000e-06	4.113283e-06	2.202313e-09	2.928706e+01	1.473085e+02
2.880000e-06	4.142844e-06	2.207190e-09	2.949755e+01	1.478474e+02
2.890000e-06	4.172130e-06	2.208946e-09	2.970607e+01	1.483546e+02
2.900000e-06	4.201135e-06	2.208073e-09	2.991258e+01	1.488319e+02
