# Temperatura_=_19.2
# Concentracion g/m^3_=_4090.0
# C_Vs_to_Am_M_A/Vsm_=_65563218390.804596
# pendiente_HvsI_1/m_=_3716.3
# ordenada_HvsI_A/m_=_1297.0
# frecuencia_Hz_=_135076.50604336572

Tiempo_(s)	Campo_(V.s)	Magnetizacion_(V.s)	Campo_(kA/m)	Magnetizacion_(A/m)
0.000000e+00	-5.419343e-06	-2.664730e-09	-3.839343e+01	-1.716676e+02
1.000000e-08	-5.419395e-06	-2.660001e-09	-3.839380e+01	-1.716334e+02
2.000000e-08	-5.419257e-06	-2.655198e-09	-3.839283e+01	-1.716004e+02
3.000000e-08	-5.418860e-06	-2.652781e-09	-3.839001e+01	-1.715699e+02
4.000000e-08	-5.418055e-06	-2.652609e-09	-3.838431e+01	-1.715431e+02
5.000000e-08	-5.416771e-06	-2.654120e-09	-3.837521e+01	-1.715213e+02
6.000000e-08	-5.414899e-06	-2.660416e-09	-3.836195e+01	-1.715056e+02
7.000000e-08	-5.412334e-06	-2.659997e-09	-3.834378e+01	-1.714974e+02
8.000000e-08	-5.409109e-06	-2.651903e-09	-3.832093e+01	-1.714976e+02
9.000000e-08	-5.405406e-06	-2.654617e-09	-3.829470e+01	-1.715072e+02
1.000000e-07	-5.401319e-06	-2.675114e-09	-3.826574e+01	-1.715271e+02
1.100000e-07	-5.396950e-06	-2.652248e-09	-3.823479e+01	-1.715580e+02
1.200000e-07	-5.392498e-06	-2.626693e-09	-3.820325e+01	-1.716004e+02
1.300000e-07	-5.387756e-06	-2.616714e-09	-3.816965e+01	-1.716545e+02
1.400000e-07	-5.382488e-06	-2.654717e-09	-3.813234e+01	-1.717206e+02
1.500000e-07	-5.376754e-06	-2.640848e-09	-3.809171e+01	-1.717985e+02
1.600000e-07	-5.370717e-06	-2.622541e-09	-3.804894e+01	-1.718880e+02
1.700000e-07	-5.364360e-06	-2.620382e-09	-3.800391e+01	-1.719883e+02
1.800000e-07	-5.357572e-06	-2.653990e-09	-3.795582e+01	-1.720990e+02
1.900000e-07	-5.350418e-06	-2.659674e-09	-3.790514e+01	-1.722188e+02
2.000000e-07	-5.343000e-06	-2.630203e-09	-3.785258e+01	-1.723469e+02
2.100000e-07	-5.335337e-06	-2.643008e-09	-3.779829e+01	-1.724817e+02
2.200000e-07	-5.327366e-06	-2.657692e-09	-3.774182e+01	-1.726218e+02
2.300000e-07	-5.319139e-06	-2.663573e-09	-3.768354e+01	-1.727656e+02
2.400000e-07	-5.310639e-06	-2.644076e-09	-3.762332e+01	-1.729113e+02
2.500000e-07	-5.301435e-06	-2.678602e-09	-3.755811e+01	-1.730572e+02
2.600000e-07	-5.291465e-06	-2.694476e-09	-3.748748e+01	-1.732013e+02
2.700000e-07	-5.280988e-06	-2.691589e-09	-3.741326e+01	-1.733418e+02
2.800000e-07	-5.269990e-06	-2.686152e-09	-3.733534e+01	-1.734766e+02
2.900000e-07	-5.258553e-06	-2.695729e-09	-3.725431e+01	-1.736041e+02
3.000000e-07	-5.246706e-06	-2.668433e-09	-3.717039e+01	-1.737223e+02
3.100000e-07	-5.234442e-06	-2.666291e-09	-3.708350e+01	-1.738295e+02
3.200000e-07	-5.221786e-06	-2.676919e-09	-3.699384e+01	-1.739242e+02
3.300000e-07	-5.208731e-06	-2.680228e-09	-3.690135e+01	-1.740048e+02
3.400000e-07	-5.195316e-06	-2.663660e-09	-3.680631e+01	-1.740701e+02
3.500000e-07	-5.181515e-06	-2.679388e-09	-3.670854e+01	-1.741190e+02
3.600000e-07	-5.167283e-06	-2.682642e-09	-3.660771e+01	-1.741505e+02
3.700000e-07	-5.152693e-06	-2.672436e-09	-3.650435e+01	-1.741638e+02
3.800000e-07	-5.137624e-06	-2.664195e-09	-3.639759e+01	-1.741585e+02
3.900000e-07	-5.121819e-06	-2.661138e-09	-3.628562e+01	-1.741343e+02
4.000000e-07	-5.105337e-06	-2.650961e-09	-3.616885e+01	-1.740910e+02
4.100000e-07	-5.088575e-06	-2.653037e-09	-3.605010e+01	-1.740288e+02
4.200000e-07	-5.071629e-06	-2.656345e-09	-3.593005e+01	-1.739479e+02
4.300000e-07	-5.054329e-06	-2.643681e-09	-3.580749e+01	-1.738488e+02
4.400000e-07	-5.036693e-06	-2.639451e-09	-3.568254e+01	-1.737322e+02
4.500000e-07	-5.018840e-06	-2.642111e-09	-3.555607e+01	-1.735988e+02
4.600000e-07	-5.000732e-06	-2.638874e-09	-3.542777e+01	-1.734497e+02
4.700000e-07	-4.982201e-06	-2.627945e-09	-3.529650e+01	-1.732857e+02
4.800000e-07	-4.963347e-06	-2.638352e-09	-3.516293e+01	-1.731082e+02
4.900000e-07	-4.944074e-06	-2.636685e-09	-3.502638e+01	-1.729182e+02
5.000000e-07	-4.924377e-06	-2.635949e-09	-3.488684e+01	-1.727169e+02
5.100000e-07	-4.904476e-06	-2.631380e-09	-3.474585e+01	-1.725057e+02
5.200000e-07	-4.884398e-06	-2.625168e-09	-3.460360e+01	-1.722859e+02
5.300000e-07	-4.864121e-06	-2.610757e-09	-3.445996e+01	-1.720585e+02
5.400000e-07	-4.843602e-06	-2.614607e-09	-3.431459e+01	-1.718248e+02
5.500000e-07	-4.822589e-06	-2.608701e-09	-3.416572e+01	-1.715860e+02
5.600000e-07	-4.801044e-06	-2.604070e-09	-3.401309e+01	-1.713430e+02
5.700000e-07	-4.779251e-06	-2.604747e-09	-3.385869e+01	-1.710969e+02
5.800000e-07	-4.757248e-06	-2.611347e-09	-3.370281e+01	-1.708485e+02
5.900000e-07	-4.735046e-06	-2.601137e-09	-3.354552e+01	-1.705985e+02
6.000000e-07	-4.712551e-06	-2.596282e-09	-3.338615e+01	-1.703476e+02
6.100000e-07	-4.689641e-06	-2.583845e-09	-3.322384e+01	-1.700963e+02
6.200000e-07	-4.666310e-06	-2.570570e-09	-3.305856e+01	-1.698450e+02
6.300000e-07	-4.642683e-06	-2.562937e-09	-3.289117e+01	-1.695940e+02
6.400000e-07	-4.618914e-06	-2.565397e-09	-3.272278e+01	-1.693435e+02
6.500000e-07	-4.594948e-06	-2.562301e-09	-3.255299e+01	-1.690936e+02
6.600000e-07	-4.570731e-06	-2.563320e-09	-3.238142e+01	-1.688442e+02
6.700000e-07	-4.546136e-06	-2.563807e-09	-3.220718e+01	-1.685953e+02
6.800000e-07	-4.521088e-06	-2.557939e-09	-3.202973e+01	-1.683466e+02
6.900000e-07	-4.495502e-06	-2.546405e-09	-3.184846e+01	-1.680980e+02
7.000000e-07	-4.469385e-06	-2.534670e-09	-3.166344e+01	-1.678491e+02
7.100000e-07	-4.442795e-06	-2.524911e-09	-3.147506e+01	-1.675995e+02
7.200000e-07	-4.415692e-06	-2.520348e-09	-3.128305e+01	-1.673490e+02
7.300000e-07	-4.388203e-06	-2.521495e-09	-3.108831e+01	-1.670970e+02
7.400000e-07	-4.360487e-06	-2.519491e-09	-3.089195e+01	-1.668432e+02
7.500000e-07	-4.332648e-06	-2.517848e-09	-3.069472e+01	-1.665871e+02
7.600000e-07	-4.304652e-06	-2.510805e-09	-3.049638e+01	-1.663283e+02
7.700000e-07	-4.276438e-06	-2.502858e-09	-3.029650e+01	-1.660664e+02
7.800000e-07	-4.247983e-06	-2.491966e-09	-3.009491e+01	-1.658010e+02
7.900000e-07	-4.219147e-06	-2.486783e-09	-2.989062e+01	-1.655317e+02
8.000000e-07	-4.189938e-06	-2.478634e-09	-2.968369e+01	-1.652581e+02
8.100000e-07	-4.160465e-06	-2.471301e-09	-2.947489e+01	-1.649799e+02
8.200000e-07	-4.130732e-06	-2.464250e-09	-2.926424e+01	-1.646968e+02
8.300000e-07	-4.100702e-06	-2.466603e-09	-2.905150e+01	-1.644084e+02
8.400000e-07	-4.070291e-06	-2.468185e-09	-2.883605e+01	-1.641146e+02
8.500000e-07	-4.039643e-06	-2.465561e-09	-2.861893e+01	-1.638151e+02
8.600000e-07	-4.008792e-06	-2.452522e-09	-2.840036e+01	-1.635096e+02
8.700000e-07	-3.977684e-06	-2.442458e-09	-2.817997e+01	-1.631979e+02
8.800000e-07	-3.946324e-06	-2.433567e-09	-2.795781e+01	-1.628800e+02
8.900000e-07	-3.914711e-06	-2.425109e-09	-2.773384e+01	-1.625556e+02
9.000000e-07	-3.882928e-06	-2.413511e-09	-2.750867e+01	-1.622246e+02
9.100000e-07	-3.851013e-06	-2.408603e-09	-2.728258e+01	-1.618869e+02
9.200000e-07	-3.818918e-06	-2.410384e-09	-2.705520e+01	-1.615423e+02
9.300000e-07	-3.786624e-06	-2.414617e-09	-2.682641e+01	-1.611909e+02
9.400000e-07	-3.754103e-06	-2.411668e-09	-2.659601e+01	-1.608324e+02
9.500000e-07	-3.721186e-06	-2.404541e-09	-2.636281e+01	-1.604669e+02
9.600000e-07	-3.687933e-06	-2.396649e-09	-2.612723e+01	-1.600943e+02
9.700000e-07	-3.654273e-06	-2.389610e-09	-2.588876e+01	-1.597147e+02
9.800000e-07	-3.619987e-06	-2.379203e-09	-2.564586e+01	-1.593280e+02
9.900000e-07	-3.585254e-06	-2.366478e-09	-2.539980e+01	-1.589343e+02
1.000000e-06	-3.550211e-06	-2.359697e-09	-2.515153e+01	-1.585336e+02
1.010000e-06	-3.514905e-06	-2.361151e-09	-2.490141e+01	-1.581261e+02
1.020000e-06	-3.479387e-06	-2.362430e-09	-2.464978e+01	-1.577119e+02
1.030000e-06	-3.443692e-06	-2.355970e-09	-2.439690e+01	-1.572911e+02
1.040000e-06	-3.407882e-06	-2.349316e-09	-2.414320e+01	-1.568640e+02
1.050000e-06	-3.371889e-06	-2.340933e-09	-2.388821e+01	-1.564308e+02
1.060000e-06	-3.335698e-06	-2.328995e-09	-2.363181e+01	-1.559918e+02
1.070000e-06	-3.299357e-06	-2.313107e-09	-2.337436e+01	-1.555472e+02
1.080000e-06	-3.262798e-06	-2.302062e-09	-2.311535e+01	-1.550974e+02
1.090000e-06	-3.225921e-06	-2.296182e-09	-2.285409e+01	-1.546427e+02
1.100000e-06	-3.188803e-06	-2.293541e-09	-2.259114e+01	-1.541834e+02
1.110000e-06	-3.151488e-06	-2.287483e-09	-2.232678e+01	-1.537201e+02
1.120000e-06	-3.113930e-06	-2.281416e-09	-2.206069e+01	-1.532529e+02
1.130000e-06	-3.076206e-06	-2.278017e-09	-2.179343e+01	-1.527823e+02
1.140000e-06	-3.038330e-06	-2.274883e-09	-2.152511e+01	-1.523086e+02
1.150000e-06	-3.000237e-06	-2.265262e-09	-2.125523e+01	-1.518320e+02
1.160000e-06	-2.961913e-06	-2.253480e-09	-2.098373e+01	-1.513530e+02
1.170000e-06	-2.923340e-06	-2.243679e-09	-2.071045e+01	-1.508716e+02
1.180000e-06	-2.884564e-06	-2.236302e-09	-2.043575e+01	-1.503880e+02
1.190000e-06	-2.845567e-06	-2.223104e-09	-2.015947e+01	-1.499022e+02
1.200000e-06	-2.806283e-06	-2.209653e-09	-1.988117e+01	-1.494143e+02
1.210000e-06	-2.766726e-06	-2.201803e-09	-1.960092e+01	-1.489242e+02
1.220000e-06	-2.727012e-06	-2.200018e-09	-1.931956e+01	-1.484316e+02
1.230000e-06	-2.687233e-06	-2.194627e-09	-1.903775e+01	-1.479362e+02
1.240000e-06	-2.647410e-06	-2.182853e-09	-1.875563e+01	-1.474376e+02
1.250000e-06	-2.607541e-06	-2.170809e-09	-1.847317e+01	-1.469351e+02
1.260000e-06	-2.567578e-06	-2.160009e-09	-1.819005e+01	-1.464283e+02
1.270000e-06	-2.527501e-06	-2.145236e-09	-1.790613e+01	-1.459163e+02
1.280000e-06	-2.487277e-06	-2.129043e-09	-1.762116e+01	-1.453981e+02
1.290000e-06	-2.446821e-06	-2.118710e-09	-1.733455e+01	-1.448729e+02
1.300000e-06	-2.406151e-06	-2.115404e-09	-1.704642e+01	-1.443396e+02
1.310000e-06	-2.365331e-06	-2.114689e-09	-1.675723e+01	-1.437970e+02
1.320000e-06	-2.324324e-06	-2.109776e-09	-1.646672e+01	-1.432440e+02
1.330000e-06	-2.283144e-06	-2.100171e-09	-1.617498e+01	-1.426792e+02
1.340000e-06	-2.241621e-06	-2.088098e-09	-1.588080e+01	-1.421014e+02
1.350000e-06	-2.199628e-06	-2.074891e-09	-1.558331e+01	-1.415094e+02
1.360000e-06	-2.157268e-06	-2.058419e-09	-1.528320e+01	-1.409017e+02
1.370000e-06	-2.114622e-06	-2.043764e-09	-1.498108e+01	-1.402771e+02
1.380000e-06	-2.071873e-06	-2.033134e-09	-1.467822e+01	-1.396345e+02
1.390000e-06	-2.028933e-06	-2.024829e-09	-1.437401e+01	-1.389725e+02
1.400000e-06	-1.985728e-06	-2.016739e-09	-1.406792e+01	-1.382902e+02
1.410000e-06	-1.942439e-06	-2.009012e-09	-1.376124e+01	-1.375866e+02
1.420000e-06	-1.899009e-06	-1.997895e-09	-1.345357e+01	-1.368607e+02
1.430000e-06	-1.855432e-06	-1.983824e-09	-1.314484e+01	-1.361117e+02
1.440000e-06	-1.811800e-06	-1.965970e-09	-1.283573e+01	-1.353391e+02
1.450000e-06	-1.768085e-06	-1.946825e-09	-1.252603e+01	-1.345422e+02
1.460000e-06	-1.724237e-06	-1.930196e-09	-1.221539e+01	-1.337207e+02
1.470000e-06	-1.680294e-06	-1.917355e-09	-1.190408e+01	-1.328743e+02
1.480000e-06	-1.636304e-06	-1.903119e-09	-1.159243e+01	-1.320028e+02
1.490000e-06	-1.592243e-06	-1.888632e-09	-1.128028e+01	-1.311063e+02
1.500000e-06	-1.548057e-06	-1.875018e-09	-1.096724e+01	-1.301847e+02
1.510000e-06	-1.503731e-06	-1.859703e-09	-1.065321e+01	-1.292383e+02
1.520000e-06	-1.459390e-06	-1.841291e-09	-1.033908e+01	-1.282672e+02
1.530000e-06	-1.415043e-06	-1.823868e-09	-1.002490e+01	-1.272717e+02
1.540000e-06	-1.370582e-06	-1.809834e-09	-9.709916e+00	-1.262521e+02
1.550000e-06	-1.326005e-06	-1.796404e-09	-9.394107e+00	-1.252086e+02
1.560000e-06	-1.281343e-06	-1.782177e-09	-9.077701e+00	-1.241416e+02
1.570000e-06	-1.236565e-06	-1.769214e-09	-8.760468e+00	-1.230512e+02
1.580000e-06	-1.191631e-06	-1.755508e-09	-8.442133e+00	-1.219376e+02
1.590000e-06	-1.146689e-06	-1.738865e-09	-8.123740e+00	-1.208007e+02
1.600000e-06	-1.101748e-06	-1.720480e-09	-7.805354e+00	-1.196405e+02
1.610000e-06	-1.056678e-06	-1.702066e-09	-7.486057e+00	-1.184566e+02
1.620000e-06	-1.011506e-06	-1.684782e-09	-7.166032e+00	-1.172487e+02
1.630000e-06	-9.662259e-07	-1.667926e-09	-6.845245e+00	-1.160160e+02
1.640000e-06	-9.208549e-07	-1.650633e-09	-6.523814e+00	-1.147578e+02
1.650000e-06	-8.753805e-07	-1.632729e-09	-6.201649e+00	-1.134729e+02
1.660000e-06	-8.299009e-07	-1.614860e-09	-5.879448e+00	-1.121602e+02
1.670000e-06	-7.845237e-07	-1.596830e-09	-5.557973e+00	-1.108181e+02
1.680000e-06	-7.390085e-07	-1.577401e-09	-5.235519e+00	-1.094450e+02
1.690000e-06	-6.933372e-07	-1.555588e-09	-4.911960e+00	-1.080388e+02
1.700000e-06	-6.476834e-07	-1.535544e-09	-4.588525e+00	-1.065976e+02
1.710000e-06	-6.020161e-07	-1.516207e-09	-4.264994e+00	-1.051190e+02
1.720000e-06	-5.563180e-07	-1.493936e-09	-3.941245e+00	-1.036007e+02
1.730000e-06	-5.105893e-07	-1.468418e-09	-3.617279e+00	-1.020401e+02
1.740000e-06	-4.647507e-07	-1.442797e-09	-3.292535e+00	-1.004346e+02
1.750000e-06	-4.188440e-07	-1.417558e-09	-2.967308e+00	-9.878160e+01
1.760000e-06	-3.729284e-07	-1.393847e-09	-2.642018e+00	-9.707831e+01
1.770000e-06	-3.269739e-07	-1.369777e-09	-2.316452e+00	-9.532213e+01
1.780000e-06	-2.809651e-07	-1.346904e-09	-1.990503e+00	-9.351045e+01
1.790000e-06	-2.349254e-07	-1.324796e-09	-1.664333e+00	-9.164081e+01
1.800000e-06	-1.889633e-07	-1.297460e-09	-1.338714e+00	-8.971084e+01
1.810000e-06	-1.430182e-07	-1.263992e-09	-1.013215e+00	-8.771840e+01
1.820000e-06	-9.702897e-08	-1.228145e-09	-6.874035e-01	-8.566154e+01
1.830000e-06	-5.105950e-08	-1.193917e-09	-3.617319e-01	-8.353859e+01
1.840000e-06	-5.144556e-09	-1.162748e-09	-3.644670e-02	-8.134815e+01
1.850000e-06	4.076424e-08	-1.131525e-09	2.887950e-01	-7.908912e+01
1.860000e-06	8.677216e-08	-1.098359e-09	6.147390e-01	-7.676077e+01
1.870000e-06	1.328088e-07	-1.065422e-09	9.408867e-01	-7.436269e+01
1.880000e-06	1.788665e-07	-1.032106e-09	1.267183e+00	-7.189486e+01
1.890000e-06	2.249291e-07	-9.930695e-10	1.593514e+00	-6.935762e+01
1.900000e-06	2.709263e-07	-9.494362e-10	1.919383e+00	-6.675169e+01
1.910000e-06	3.168121e-07	-9.045995e-10	2.244461e+00	-6.407814e+01
1.920000e-06	3.626402e-07	-8.609669e-10	2.569131e+00	-6.133843e+01
1.930000e-06	4.084728e-07	-8.208602e-10	2.893833e+00	-5.853434e+01
1.940000e-06	4.542660e-07	-7.813163e-10	3.218256e+00	-5.566801e+01
1.950000e-06	5.000097e-07	-7.429299e-10	3.542328e+00	-5.274184e+01
1.960000e-06	5.457113e-07	-7.047150e-10	3.866102e+00	-4.975854e+01
1.970000e-06	5.913622e-07	-6.599782e-10	4.189517e+00	-4.672105e+01
1.980000e-06	6.369076e-07	-6.066906e-10	4.512184e+00	-4.363251e+01
1.990000e-06	6.824345e-07	-5.519304e-10	4.834719e+00	-4.049627e+01
2.000000e-06	7.279913e-07	-5.031165e-10	5.157467e+00	-3.731577e+01
2.010000e-06	7.735259e-07	-4.593459e-10	5.480059e+00	-3.409460e+01
2.020000e-06	8.190270e-07	-4.138580e-10	5.802411e+00	-3.083637e+01
2.030000e-06	8.644620e-07	-3.653672e-10	6.124297e+00	-2.754477e+01
2.040000e-06	9.097618e-07	-3.182819e-10	6.445224e+00	-2.422345e+01
2.050000e-06	9.550099e-07	-2.727463e-10	6.765785e+00	-2.087603e+01
2.060000e-06	1.000257e-06	-2.229192e-10	7.086337e+00	-1.750609e+01
2.070000e-06	1.045413e-06	-1.692634e-10	7.406244e+00	-1.411710e+01
2.080000e-06	1.090366e-06	-1.172472e-10	7.724714e+00	-1.071243e+01
2.090000e-06	1.135191e-06	-7.027841e-11	8.042281e+00	-7.295323e+00
2.100000e-06	1.179940e-06	-2.438969e-11	8.359304e+00	-3.868898e+00
2.110000e-06	1.224576e-06	2.704638e-11	8.675529e+00	-4.361171e-01
2.120000e-06	1.269150e-06	8.149981e-11	8.991318e+00	3.000200e+00
2.130000e-06	1.313632e-06	1.346969e-10	9.306448e+00	6.437382e+00
2.140000e-06	1.358077e-06	1.896857e-10	9.621320e+00	9.872897e+00
2.150000e-06	1.402461e-06	2.472110e-10	9.935759e+00	1.330435e+01
2.160000e-06	1.446711e-06	3.007122e-10	1.024925e+01	1.672947e+01
2.170000e-06	1.490921e-06	3.450962e-10	1.056246e+01	2.014608e+01
2.180000e-06	1.535092e-06	3.863137e-10	1.087539e+01	2.355211e+01
2.190000e-06	1.579168e-06	4.325953e-10	1.118765e+01	2.694556e+01
2.200000e-06	1.623209e-06	4.837765e-10	1.149965e+01	3.032448e+01
2.210000e-06	1.667194e-06	5.362840e-10	1.181127e+01	3.368695e+01
2.220000e-06	1.711097e-06	5.909803e-10	1.212229e+01	3.703109e+01
2.230000e-06	1.754904e-06	6.476710e-10	1.243265e+01	4.035500e+01
2.240000e-06	1.798651e-06	7.000701e-10	1.274258e+01	4.365675e+01
2.250000e-06	1.842380e-06	7.434306e-10	1.305237e+01	4.693442e+01
2.260000e-06	1.886061e-06	7.806903e-10	1.336183e+01	5.018602e+01
2.270000e-06	1.929607e-06	8.206142e-10	1.367033e+01	5.340951e+01
2.280000e-06	1.972945e-06	8.661238e-10	1.397737e+01	5.660281e+01
2.290000e-06	2.016118e-06	9.155148e-10	1.428322e+01	5.976378e+01
2.300000e-06	2.059171e-06	9.673450e-10	1.458823e+01	6.289023e+01
2.310000e-06	2.102061e-06	1.020105e-09	1.489209e+01	6.597992e+01
2.320000e-06	2.144594e-06	1.069845e-09	1.519341e+01	6.903058e+01
2.330000e-06	2.186816e-06	1.111606e-09	1.549254e+01	7.203991e+01
2.340000e-06	2.228778e-06	1.145607e-09	1.578982e+01	7.500562e+01
2.350000e-06	2.270382e-06	1.180238e-09	1.608456e+01	7.792543e+01
2.360000e-06	2.311636e-06	1.220793e-09	1.637683e+01	8.079708e+01
2.370000e-06	2.352560e-06	1.263800e-09	1.666676e+01	8.361840e+01
2.380000e-06	2.393284e-06	1.306234e-09	1.695526e+01	8.638728e+01
2.390000e-06	2.433841e-06	1.348584e-09	1.724259e+01	8.910173e+01
2.400000e-06	2.474207e-06	1.389856e-09	1.752856e+01	9.175989e+01
2.410000e-06	2.514423e-06	1.425998e-09	1.781347e+01	9.436007e+01
2.420000e-06	2.554492e-06	1.457191e-09	1.809734e+01	9.690076e+01
2.430000e-06	2.594447e-06	1.487648e-09	1.838041e+01	9.938065e+01
2.440000e-06	2.634354e-06	1.523187e-09	1.866313e+01	1.017987e+02
2.450000e-06	2.674212e-06	1.560210e-09	1.894550e+01	1.041539e+02
2.460000e-06	2.714005e-06	1.593398e-09	1.922742e+01	1.064459e+02
2.470000e-06	2.753669e-06	1.624855e-09	1.950842e+01	1.086742e+02
2.480000e-06	2.793148e-06	1.656759e-09	1.978811e+01	1.108387e+02
2.490000e-06	2.832352e-06	1.688272e-09	2.006585e+01	1.129397e+02
2.500000e-06	2.871238e-06	1.716521e-09	2.034134e+01	1.149776e+02
2.510000e-06	2.909923e-06	1.742671e-09	2.061540e+01	1.169532e+02
2.520000e-06	2.948432e-06	1.769238e-09	2.088822e+01	1.188673e+02
2.530000e-06	2.986708e-06	1.795663e-09	2.115939e+01	1.207211e+02
2.540000e-06	3.024742e-06	1.821586e-09	2.142884e+01	1.225159e+02
2.550000e-06	3.062593e-06	1.850822e-09	2.169699e+01	1.242534e+02
2.560000e-06	3.100295e-06	1.880678e-09	2.196410e+01	1.259352e+02
2.570000e-06	3.137837e-06	1.908630e-09	2.223006e+01	1.275631e+02
2.580000e-06	3.175160e-06	1.932520e-09	2.249448e+01	1.291390e+02
2.590000e-06	3.212225e-06	1.952373e-09	2.275707e+01	1.306649e+02
2.600000e-06	3.249103e-06	1.972830e-09	2.301833e+01	1.321427e+02
2.610000e-06	3.285729e-06	1.991743e-09	2.327781e+01	1.335745e+02
2.620000e-06	3.322077e-06	2.011224e-09	2.353531e+01	1.349622e+02
2.630000e-06	3.358251e-06	2.032188e-09	2.379159e+01	1.363076e+02
2.640000e-06	3.394236e-06	2.055161e-09	2.404652e+01	1.376127e+02
2.650000e-06	3.430080e-06	2.075560e-09	2.430046e+01	1.388791e+02
2.660000e-06	3.465860e-06	2.091686e-09	2.455395e+01	1.401085e+02
2.670000e-06	3.501522e-06	2.109243e-09	2.480660e+01	1.413021e+02
2.680000e-06	3.536960e-06	2.129054e-09	2.505765e+01	1.424614e+02
2.690000e-06	3.572156e-06	2.148302e-09	2.530700e+01	1.435875e+02
2.700000e-06	3.607041e-06	2.160394e-09	2.555415e+01	1.446812e+02
2.710000e-06	3.641435e-06	2.167985e-09	2.579781e+01	1.457435e+02
2.720000e-06	3.675348e-06	2.180873e-09	2.603807e+01	1.467748e+02
2.730000e-06	3.708915e-06	2.198897e-09	2.627588e+01	1.477759e+02
2.740000e-06	3.742083e-06	2.215641e-09	2.651086e+01	1.487469e+02
2.750000e-06	3.774788e-06	2.229938e-09	2.674255e+01	1.496881e+02
2.760000e-06	3.807175e-06	2.245735e-09	2.697200e+01	1.505997e+02
2.770000e-06	3.839339e-06	2.264803e-09	2.719986e+01	1.514817e+02
2.780000e-06	3.871311e-06	2.281541e-09	2.742638e+01	1.523340e+02
2.790000e-06	3.903146e-06	2.291536e-09	2.765191e+01	1.531567e+02
2.800000e-06	3.934795e-06	2.298605e-09	2.787612e+01	1.539497e+02
2.810000e-06	3.966243e-06	2.308412e-09	2.809892e+01	1.547130e+02
2.820000e-06	3.997458e-06	2.318772e-09	2.832006e+01	1.554465e+02
2.830000e-06	4.028364e-06	2.326285e-09	2.853902e+01	1.561504e+02
2.840000e-06	4.058924e-06	2.333923e-09	2.875552e+01	1.568247e+02
2.850000e-06	4.089188e-06	2.345367e-09	2.896993e+01	1.574697e+02
2.860000e-06	4.119246e-06	2.360062e-09	2.918287e+01	1.580858e+02
2.870000e-06	4.149098e-06	2.373369e-09	2.939436e+01	1.586733e+02
2.880000e-06	4.178729e-06	2.380454e-09	2.960428e+01	1.592330e+02
2.890000e-06	4.208011e-06	2.383309e-09	2.981173e+01	1.597654e+02
2.900000e-06	4.236870e-06	2.384558e-09	3.001618e+01	1.602715e+02
