# Temperatura_=_-2.8
# Concentracion g/m^3_=_4090.0
# C_Vs_to_Am_M_A/Vsm_=_65563218390.804596
# pendiente_HvsI_1/m_=_3716.3
# ordenada_HvsI_A/m_=_1297.0
# frecuencia_Hz_=_135080.31765279543

Tiempo_(s)	Campo_(V.s)	Magnetizacion_(V.s)	Campo_(kA/m)	Magnetizacion_(A/m)
0.000000e+00	-5.409909e-06	-2.458148e-09	-3.839331e+01	-1.562003e+02
1.000000e-08	-5.410101e-06	-2.454163e-09	-3.839468e+01	-1.561590e+02
2.000000e-08	-5.410135e-06	-2.453134e-09	-3.839492e+01	-1.561214e+02
3.000000e-08	-5.409929e-06	-2.455108e-09	-3.839346e+01	-1.560891e+02
4.000000e-08	-5.409340e-06	-2.456954e-09	-3.838928e+01	-1.560635e+02
5.000000e-08	-5.408311e-06	-2.456622e-09	-3.838198e+01	-1.560463e+02
6.000000e-08	-5.406791e-06	-2.460556e-09	-3.837119e+01	-1.560389e+02
7.000000e-08	-5.404666e-06	-2.478928e-09	-3.835611e+01	-1.560427e+02
8.000000e-08	-5.401921e-06	-2.485879e-09	-3.833663e+01	-1.560589e+02
9.000000e-08	-5.398577e-06	-2.448830e-09	-3.831289e+01	-1.560885e+02
1.000000e-07	-5.394719e-06	-2.392615e-09	-3.828552e+01	-1.561326e+02
1.100000e-07	-5.390571e-06	-2.382991e-09	-3.825608e+01	-1.561919e+02
1.200000e-07	-5.386256e-06	-2.478745e-09	-3.822545e+01	-1.562669e+02
1.300000e-07	-5.381716e-06	-2.466118e-09	-3.819323e+01	-1.563578e+02
1.400000e-07	-5.376809e-06	-2.408527e-09	-3.815841e+01	-1.564649e+02
1.500000e-07	-5.371414e-06	-2.409973e-09	-3.812013e+01	-1.565878e+02
1.600000e-07	-5.365699e-06	-2.471158e-09	-3.807956e+01	-1.567263e+02
1.700000e-07	-5.359678e-06	-2.497822e-09	-3.803684e+01	-1.568797e+02
1.800000e-07	-5.353224e-06	-2.387922e-09	-3.799103e+01	-1.570472e+02
1.900000e-07	-5.346317e-06	-2.384642e-09	-3.794201e+01	-1.572276e+02
2.000000e-07	-5.339110e-06	-2.418461e-09	-3.789087e+01	-1.574197e+02
2.100000e-07	-5.331688e-06	-2.459236e-09	-3.783820e+01	-1.576221e+02
2.200000e-07	-5.323948e-06	-2.421997e-09	-3.778326e+01	-1.578330e+02
2.300000e-07	-5.315978e-06	-2.457705e-09	-3.772670e+01	-1.580509e+02
2.400000e-07	-5.307703e-06	-2.488786e-09	-3.766798e+01	-1.582737e+02
2.500000e-07	-5.298967e-06	-2.466387e-09	-3.760598e+01	-1.584996e+02
2.600000e-07	-5.289579e-06	-2.431295e-09	-3.753935e+01	-1.587266e+02
2.700000e-07	-5.279590e-06	-2.476040e-09	-3.746846e+01	-1.589525e+02
2.800000e-07	-5.269075e-06	-2.485007e-09	-3.739384e+01	-1.591754e+02
2.900000e-07	-5.258090e-06	-2.428797e-09	-3.731588e+01	-1.593933e+02
3.000000e-07	-5.246654e-06	-2.447875e-09	-3.723472e+01	-1.596042e+02
3.100000e-07	-5.234715e-06	-2.503767e-09	-3.714999e+01	-1.598063e+02
3.200000e-07	-5.222420e-06	-2.481895e-09	-3.706273e+01	-1.599978e+02
3.300000e-07	-5.209692e-06	-2.420383e-09	-3.697241e+01	-1.601771e+02
3.400000e-07	-5.196554e-06	-2.445738e-09	-3.687917e+01	-1.603428e+02
3.500000e-07	-5.183104e-06	-2.462306e-09	-3.678371e+01	-1.604935e+02
3.600000e-07	-5.169270e-06	-2.448560e-09	-3.668554e+01	-1.606282e+02
3.700000e-07	-5.155072e-06	-2.450041e-09	-3.658478e+01	-1.607459e+02
3.800000e-07	-5.140500e-06	-2.467070e-09	-3.648136e+01	-1.608459e+02
3.900000e-07	-5.125433e-06	-2.442431e-09	-3.637443e+01	-1.609276e+02
4.000000e-07	-5.109746e-06	-2.451050e-09	-3.626310e+01	-1.609909e+02
4.100000e-07	-5.093474e-06	-2.459384e-09	-3.614762e+01	-1.610355e+02
4.200000e-07	-5.076744e-06	-2.432857e-09	-3.602889e+01	-1.610616e+02
4.300000e-07	-5.059686e-06	-2.396962e-09	-3.590783e+01	-1.610694e+02
4.400000e-07	-5.042328e-06	-2.443702e-09	-3.578465e+01	-1.610593e+02
4.500000e-07	-5.024668e-06	-2.449784e-09	-3.565932e+01	-1.610320e+02
4.600000e-07	-5.006706e-06	-2.421597e-09	-3.553185e+01	-1.609882e+02
4.700000e-07	-4.988293e-06	-2.414084e-09	-3.540117e+01	-1.609287e+02
4.800000e-07	-4.969445e-06	-2.444792e-09	-3.526741e+01	-1.608546e+02
4.900000e-07	-4.950277e-06	-2.432626e-09	-3.513138e+01	-1.607670e+02
5.000000e-07	-4.930786e-06	-2.421957e-09	-3.499306e+01	-1.606669e+02
5.100000e-07	-4.911056e-06	-2.412454e-09	-3.485303e+01	-1.605556e+02
5.200000e-07	-4.891189e-06	-2.415442e-09	-3.471204e+01	-1.604342e+02
5.300000e-07	-4.871143e-06	-2.427546e-09	-3.456978e+01	-1.603041e+02
5.400000e-07	-4.850856e-06	-2.443054e-09	-3.442580e+01	-1.601665e+02
5.500000e-07	-4.830185e-06	-2.420977e-09	-3.427911e+01	-1.600226e+02
5.600000e-07	-4.809079e-06	-2.408605e-09	-3.412931e+01	-1.598735e+02
5.700000e-07	-4.787594e-06	-2.426189e-09	-3.397684e+01	-1.597203e+02
5.800000e-07	-4.765843e-06	-2.429786e-09	-3.382248e+01	-1.595641e+02
5.900000e-07	-4.743815e-06	-2.405307e-09	-3.366615e+01	-1.594059e+02
6.000000e-07	-4.721395e-06	-2.395964e-09	-3.350704e+01	-1.592466e+02
6.100000e-07	-4.698594e-06	-2.410798e-09	-3.334522e+01	-1.590868e+02
6.200000e-07	-4.675459e-06	-2.415904e-09	-3.318104e+01	-1.589273e+02
6.300000e-07	-4.652007e-06	-2.407848e-09	-3.301460e+01	-1.587687e+02
6.400000e-07	-4.628302e-06	-2.392441e-09	-3.284637e+01	-1.586115e+02
6.500000e-07	-4.604452e-06	-2.392582e-09	-3.267711e+01	-1.584559e+02
6.600000e-07	-4.580416e-06	-2.397241e-09	-3.250653e+01	-1.583022e+02
6.700000e-07	-4.556062e-06	-2.397508e-09	-3.233369e+01	-1.581506e+02
6.800000e-07	-4.531401e-06	-2.379795e-09	-3.215868e+01	-1.580011e+02
6.900000e-07	-4.506365e-06	-2.379366e-09	-3.198100e+01	-1.578537e+02
7.000000e-07	-4.480745e-06	-2.383229e-09	-3.179918e+01	-1.577082e+02
7.100000e-07	-4.454522e-06	-2.382919e-09	-3.161308e+01	-1.575643e+02
7.200000e-07	-4.427805e-06	-2.365566e-09	-3.142347e+01	-1.574219e+02
7.300000e-07	-4.400649e-06	-2.362118e-09	-3.123075e+01	-1.572805e+02
7.400000e-07	-4.373085e-06	-2.365443e-09	-3.103513e+01	-1.571397e+02
7.500000e-07	-4.345318e-06	-2.372314e-09	-3.083808e+01	-1.569991e+02
7.600000e-07	-4.317465e-06	-2.361683e-09	-3.064040e+01	-1.568582e+02
7.700000e-07	-4.289425e-06	-2.355683e-09	-3.044141e+01	-1.567164e+02
7.800000e-07	-4.261156e-06	-2.353116e-09	-3.024079e+01	-1.565732e+02
7.900000e-07	-4.232561e-06	-2.356211e-09	-3.003786e+01	-1.564280e+02
8.000000e-07	-4.203631e-06	-2.347754e-09	-2.983254e+01	-1.562804e+02
8.100000e-07	-4.174367e-06	-2.339508e-09	-2.962486e+01	-1.561297e+02
8.200000e-07	-4.144795e-06	-2.336714e-09	-2.941499e+01	-1.559755e+02
8.300000e-07	-4.114978e-06	-2.343130e-09	-2.920338e+01	-1.558172e+02
8.400000e-07	-4.084904e-06	-2.341263e-09	-2.898995e+01	-1.556544e+02
8.500000e-07	-4.054604e-06	-2.331851e-09	-2.877492e+01	-1.554867e+02
8.600000e-07	-4.024079e-06	-2.321984e-09	-2.855829e+01	-1.553136e+02
8.700000e-07	-3.993294e-06	-2.320938e-09	-2.833981e+01	-1.551349e+02
8.800000e-07	-3.962198e-06	-2.319728e-09	-2.811913e+01	-1.549503e+02
8.900000e-07	-3.930737e-06	-2.311926e-09	-2.789585e+01	-1.547595e+02
9.000000e-07	-3.899040e-06	-2.305099e-09	-2.767091e+01	-1.545625e+02
9.100000e-07	-3.867204e-06	-2.305392e-09	-2.744497e+01	-1.543590e+02
9.200000e-07	-3.835250e-06	-2.309343e-09	-2.721820e+01	-1.541490e+02
9.300000e-07	-3.803141e-06	-2.305105e-09	-2.699032e+01	-1.539326e+02
9.400000e-07	-3.770779e-06	-2.300178e-09	-2.676066e+01	-1.537099e+02
9.500000e-07	-3.738177e-06	-2.298478e-09	-2.652929e+01	-1.534809e+02
9.600000e-07	-3.705347e-06	-2.299077e-09	-2.629630e+01	-1.532458e+02
9.700000e-07	-3.672060e-06	-2.292435e-09	-2.606006e+01	-1.530050e+02
9.800000e-07	-3.638136e-06	-2.287327e-09	-2.581931e+01	-1.527585e+02
9.900000e-07	-3.603722e-06	-2.282957e-09	-2.557508e+01	-1.525069e+02
1.000000e-06	-3.568989e-06	-2.284179e-09	-2.532859e+01	-1.522504e+02
1.010000e-06	-3.533914e-06	-2.282990e-09	-2.507966e+01	-1.519894e+02
1.020000e-06	-3.498522e-06	-2.282984e-09	-2.482849e+01	-1.517243e+02
1.030000e-06	-3.462902e-06	-2.277924e-09	-2.457570e+01	-1.514556e+02
1.040000e-06	-3.427084e-06	-2.273163e-09	-2.432150e+01	-1.511836e+02
1.050000e-06	-3.391167e-06	-2.265195e-09	-2.406661e+01	-1.509087e+02
1.060000e-06	-3.355114e-06	-2.257452e-09	-2.381075e+01	-1.506315e+02
1.070000e-06	-3.318874e-06	-2.247137e-09	-2.355355e+01	-1.503522e+02
1.080000e-06	-3.282397e-06	-2.240591e-09	-2.329468e+01	-1.500712e+02
1.090000e-06	-3.245676e-06	-2.235446e-09	-2.303408e+01	-1.497888e+02
1.100000e-06	-3.208835e-06	-2.232397e-09	-2.277262e+01	-1.495054e+02
1.110000e-06	-3.171869e-06	-2.228447e-09	-2.251028e+01	-1.492212e+02
1.120000e-06	-3.134589e-06	-2.224956e-09	-2.224571e+01	-1.489363e+02
1.130000e-06	-3.097014e-06	-2.220058e-09	-2.197905e+01	-1.486509e+02
1.140000e-06	-3.059187e-06	-2.215579e-09	-2.171060e+01	-1.483650e+02
1.150000e-06	-3.021155e-06	-2.207876e-09	-2.144069e+01	-1.480786e+02
1.160000e-06	-2.983008e-06	-2.196998e-09	-2.116997e+01	-1.477917e+02
1.170000e-06	-2.944656e-06	-2.186468e-09	-2.089778e+01	-1.475041e+02
1.180000e-06	-2.906097e-06	-2.179919e-09	-2.062413e+01	-1.472156e+02
1.190000e-06	-2.867299e-06	-2.177558e-09	-2.034879e+01	-1.469258e+02
1.200000e-06	-2.828227e-06	-2.177633e-09	-2.007151e+01	-1.466346e+02
1.210000e-06	-2.788907e-06	-2.177809e-09	-1.979246e+01	-1.463414e+02
1.220000e-06	-2.749417e-06	-2.177137e-09	-1.951220e+01	-1.460458e+02
1.230000e-06	-2.709807e-06	-2.172978e-09	-1.923110e+01	-1.457472e+02
1.240000e-06	-2.670072e-06	-2.162348e-09	-1.894910e+01	-1.454452e+02
1.250000e-06	-2.630208e-06	-2.146423e-09	-1.866619e+01	-1.451391e+02
1.260000e-06	-2.590239e-06	-2.128858e-09	-1.838254e+01	-1.448284e+02
1.270000e-06	-2.550203e-06	-2.116295e-09	-1.809841e+01	-1.445123e+02
1.280000e-06	-2.510069e-06	-2.108891e-09	-1.781358e+01	-1.441902e+02
1.290000e-06	-2.469803e-06	-2.110200e-09	-1.752782e+01	-1.438616e+02
1.300000e-06	-2.429429e-06	-2.114434e-09	-1.724129e+01	-1.435256e+02
1.310000e-06	-2.388952e-06	-2.119031e-09	-1.695404e+01	-1.431819e+02
1.320000e-06	-2.348266e-06	-2.116158e-09	-1.666530e+01	-1.428296e+02
1.330000e-06	-2.307330e-06	-2.102801e-09	-1.637478e+01	-1.424683e+02
1.340000e-06	-2.266092e-06	-2.080905e-09	-1.608212e+01	-1.420974e+02
1.350000e-06	-2.224550e-06	-2.063816e-09	-1.578730e+01	-1.417165e+02
1.360000e-06	-2.182675e-06	-2.055718e-09	-1.549012e+01	-1.413252e+02
1.370000e-06	-2.140481e-06	-2.052884e-09	-1.519068e+01	-1.409229e+02
1.380000e-06	-2.098036e-06	-2.054350e-09	-1.488945e+01	-1.405094e+02
1.390000e-06	-2.055256e-06	-2.059080e-09	-1.458584e+01	-1.400845e+02
1.400000e-06	-2.012227e-06	-2.059485e-09	-1.428047e+01	-1.396479e+02
1.410000e-06	-1.968974e-06	-2.052445e-09	-1.397351e+01	-1.391993e+02
1.420000e-06	-1.925549e-06	-2.036040e-09	-1.366534e+01	-1.387387e+02
1.430000e-06	-1.882002e-06	-2.017334e-09	-1.335629e+01	-1.382660e+02
1.440000e-06	-1.838302e-06	-2.004033e-09	-1.304615e+01	-1.377810e+02
1.450000e-06	-1.794500e-06	-1.996079e-09	-1.273530e+01	-1.372839e+02
1.460000e-06	-1.750627e-06	-1.989896e-09	-1.242394e+01	-1.367744e+02
1.470000e-06	-1.706731e-06	-1.985875e-09	-1.211241e+01	-1.362526e+02
1.480000e-06	-1.662777e-06	-1.980982e-09	-1.180048e+01	-1.357186e+02
1.490000e-06	-1.618748e-06	-1.972907e-09	-1.148802e+01	-1.351721e+02
1.500000e-06	-1.574685e-06	-1.960895e-09	-1.117531e+01	-1.346133e+02
1.510000e-06	-1.530583e-06	-1.946531e-09	-1.086232e+01	-1.340420e+02
1.520000e-06	-1.486400e-06	-1.933899e-09	-1.054876e+01	-1.334581e+02
1.530000e-06	-1.442168e-06	-1.923805e-09	-1.023485e+01	-1.328614e+02
1.540000e-06	-1.397844e-06	-1.917280e-09	-9.920293e+00	-1.322518e+02
1.550000e-06	-1.353494e-06	-1.913513e-09	-9.605545e+00	-1.316289e+02
1.560000e-06	-1.309143e-06	-1.907503e-09	-9.290794e+00	-1.309924e+02
1.570000e-06	-1.264680e-06	-1.897440e-09	-8.975244e+00	-1.303418e+02
1.580000e-06	-1.220129e-06	-1.887438e-09	-8.659073e+00	-1.296768e+02
1.590000e-06	-1.175508e-06	-1.877439e-09	-8.342406e+00	-1.289967e+02
1.600000e-06	-1.130692e-06	-1.867610e-09	-8.024353e+00	-1.283009e+02
1.610000e-06	-1.085647e-06	-1.855078e-09	-7.704676e+00	-1.275886e+02
1.620000e-06	-1.040535e-06	-1.842372e-09	-7.384523e+00	-1.268592e+02
1.630000e-06	-9.954569e-07	-1.832988e-09	-7.064609e+00	-1.261117e+02
1.640000e-06	-9.502896e-07	-1.823951e-09	-6.744064e+00	-1.253452e+02
1.650000e-06	-9.049500e-07	-1.810952e-09	-6.422295e+00	-1.245587e+02
1.660000e-06	-8.596090e-07	-1.798407e-09	-6.100517e+00	-1.237512e+02
1.670000e-06	-8.142745e-07	-1.787169e-09	-5.778785e+00	-1.229215e+02
1.680000e-06	-7.688555e-07	-1.775008e-09	-5.456453e+00	-1.220685e+02
1.690000e-06	-7.233499e-07	-1.760880e-09	-5.133507e+00	-1.211911e+02
1.700000e-06	-6.777598e-07	-1.745373e-09	-4.809960e+00	-1.202879e+02
1.710000e-06	-6.320987e-07	-1.731865e-09	-4.485910e+00	-1.193576e+02
1.720000e-06	-5.863797e-07	-1.720578e-09	-4.161449e+00	-1.183989e+02
1.730000e-06	-5.406349e-07	-1.705821e-09	-3.836805e+00	-1.174104e+02
1.740000e-06	-4.948727e-07	-1.688658e-09	-3.512038e+00	-1.163907e+02
1.750000e-06	-4.490785e-07	-1.671084e-09	-3.187043e+00	-1.153384e+02
1.760000e-06	-4.032182e-07	-1.654132e-09	-2.861579e+00	-1.142518e+02
1.770000e-06	-3.573740e-07	-1.638249e-09	-2.536230e+00	-1.131296e+02
1.780000e-06	-3.114488e-07	-1.623308e-09	-2.210306e+00	-1.119699e+02
1.790000e-06	-2.654321e-07	-1.609648e-09	-1.883732e+00	-1.107713e+02
1.800000e-06	-2.194973e-07	-1.595605e-09	-1.557739e+00	-1.095318e+02
1.810000e-06	-1.735374e-07	-1.578537e-09	-1.231569e+00	-1.082498e+02
1.820000e-06	-1.275614e-07	-1.557940e-09	-9.052843e-01	-1.069233e+02
1.830000e-06	-8.161948e-08	-1.536494e-09	-5.792412e-01	-1.055502e+02
1.840000e-06	-3.573032e-08	-1.514190e-09	-2.535728e-01	-1.041286e+02
1.850000e-06	1.012450e-08	-1.489992e-09	7.185206e-02	-1.026563e+02
1.860000e-06	5.597631e-08	-1.464054e-09	3.972555e-01	-1.011309e+02
1.870000e-06	1.018169e-07	-1.440134e-09	7.225792e-01	-9.955000e+01
1.880000e-06	1.477208e-07	-1.418248e-09	1.048352e+00	-9.791122e+01
1.890000e-06	1.937190e-07	-1.397183e-09	1.374795e+00	-9.621190e+01
1.900000e-06	2.397159e-07	-1.371831e-09	1.701228e+00	-9.444935e+01
1.910000e-06	2.856246e-07	-1.341942e-09	2.027035e+00	-9.262079e+01
1.920000e-06	3.315809e-07	-1.308617e-09	2.353180e+00	-9.072337e+01
1.930000e-06	3.774929e-07	-1.272815e-09	2.679011e+00	-8.875419e+01
1.940000e-06	4.232539e-07	-1.240758e-09	3.003770e+00	-8.671031e+01
1.950000e-06	4.690179e-07	-1.211781e-09	3.328550e+00	-8.458876e+01
1.960000e-06	5.147783e-07	-1.188880e-09	3.653304e+00	-8.238664e+01
1.970000e-06	5.603962e-07	-1.164503e-09	3.977048e+00	-8.010107e+01
1.980000e-06	6.059595e-07	-1.129312e-09	4.300404e+00	-7.772926e+01
1.990000e-06	6.515461e-07	-1.084901e-09	4.623925e+00	-7.526856e+01
2.000000e-06	6.970335e-07	-1.037684e-09	4.946743e+00	-7.271650e+01
2.010000e-06	7.424681e-07	-9.926962e-10	5.269185e+00	-7.007082e+01
2.020000e-06	7.878943e-07	-9.488051e-10	5.591568e+00	-6.732952e+01
2.030000e-06	8.332869e-07	-9.058704e-10	5.913712e+00	-6.449094e+01
2.040000e-06	8.785799e-07	-8.682177e-10	6.235150e+00	-6.155375e+01
2.050000e-06	9.237416e-07	-8.343835e-10	6.555656e+00	-5.851706e+01
2.060000e-06	9.687892e-07	-7.946578e-10	6.875352e+00	-5.538041e+01
2.070000e-06	1.013768e-06	-7.447612e-10	7.194563e+00	-5.214386e+01
2.080000e-06	1.058684e-06	-6.892154e-10	7.513324e+00	-4.880800e+01
2.090000e-06	1.103508e-06	-6.341520e-10	7.831430e+00	-4.537401e+01
2.100000e-06	1.148310e-06	-5.793156e-10	8.149385e+00	-4.184367e+01
2.110000e-06	1.193075e-06	-5.256117e-10	8.467077e+00	-3.821939e+01
2.120000e-06	1.237689e-06	-4.743148e-10	8.783693e+00	-3.450425e+01
2.130000e-06	1.282175e-06	-4.245291e-10	9.099407e+00	-3.070197e+01
2.140000e-06	1.326595e-06	-3.707175e-10	9.414648e+00	-2.681698e+01
2.150000e-06	1.370902e-06	-3.092577e-10	9.729087e+00	-2.285432e+01
2.160000e-06	1.415161e-06	-2.404954e-10	1.004318e+01	-1.881975e+01
2.170000e-06	1.459421e-06	-1.727774e-10	1.035730e+01	-1.471960e+01
2.180000e-06	1.503661e-06	-1.085871e-10	1.067125e+01	-1.056084e+01
2.190000e-06	1.547850e-06	-4.292048e-11	1.098486e+01	-6.350983e+00
2.200000e-06	1.591952e-06	2.325165e-11	1.129785e+01	-2.098066e+00
2.210000e-06	1.635979e-06	8.457437e-11	1.161030e+01	2.189421e+00
2.220000e-06	1.679917e-06	1.445803e-10	1.192212e+01	6.502590e+00
2.230000e-06	1.723767e-06	2.097299e-10	1.223332e+01	1.083223e+01
2.240000e-06	1.767594e-06	2.810863e-10	1.254435e+01	1.516888e+01
2.250000e-06	1.811338e-06	3.525213e-10	1.285479e+01	1.950290e+01
2.260000e-06	1.854961e-06	4.204651e-10	1.316438e+01	2.382458e+01
2.270000e-06	1.898489e-06	4.862826e-10	1.347329e+01	2.812420e+01
2.280000e-06	1.941771e-06	5.507206e-10	1.378046e+01	3.239214e+01
2.290000e-06	1.984906e-06	6.123096e-10	1.408658e+01	3.661895e+01
2.300000e-06	2.027875e-06	6.713195e-10	1.439153e+01	4.079545e+01
2.310000e-06	2.070503e-06	7.314326e-10	1.469405e+01	4.491282e+01
2.320000e-06	2.112834e-06	7.914759e-10	1.499446e+01	4.896265e+01
2.330000e-06	2.154833e-06	8.503950e-10	1.529253e+01	5.293705e+01
2.340000e-06	2.196678e-06	9.076859e-10	1.558950e+01	5.682871e+01
2.350000e-06	2.238328e-06	9.626128e-10	1.588508e+01	6.063096e+01
2.360000e-06	2.279608e-06	1.018165e-09	1.617804e+01	6.433782e+01
2.370000e-06	2.320659e-06	1.074132e-09	1.646937e+01	6.794403e+01
2.380000e-06	2.361515e-06	1.127153e-09	1.675932e+01	7.144513e+01
2.390000e-06	2.402074e-06	1.176226e-09	1.704716e+01	7.483745e+01
2.400000e-06	2.442409e-06	1.218643e-09	1.733341e+01	7.811811e+01
2.410000e-06	2.482701e-06	1.257658e-09	1.761936e+01	8.128509e+01
2.420000e-06	2.522893e-06	1.296693e-09	1.790460e+01	8.433712e+01
2.430000e-06	2.563003e-06	1.337916e-09	1.818925e+01	8.727377e+01
2.440000e-06	2.603064e-06	1.381383e-09	1.847356e+01	9.009534e+01
2.450000e-06	2.642954e-06	1.424109e-09	1.875665e+01	9.280287e+01
2.460000e-06	2.682733e-06	1.463837e-09	1.903895e+01	9.539806e+01
2.470000e-06	2.722402e-06	1.500364e-09	1.932048e+01	9.788325e+01
2.480000e-06	2.761872e-06	1.532078e-09	1.960059e+01	1.002613e+02
2.490000e-06	2.801096e-06	1.560246e-09	1.987896e+01	1.025357e+02
2.500000e-06	2.840067e-06	1.587795e-09	2.015553e+01	1.047102e+02
2.510000e-06	2.878794e-06	1.615831e-09	2.043037e+01	1.067889e+02
2.520000e-06	2.917325e-06	1.645308e-09	2.070382e+01	1.087763e+02
2.530000e-06	2.955718e-06	1.674153e-09	2.097629e+01	1.106771e+02
2.540000e-06	2.993890e-06	1.700509e-09	2.124719e+01	1.124959e+02
2.550000e-06	3.031890e-06	1.727105e-09	2.151687e+01	1.142376e+02
2.560000e-06	3.069784e-06	1.755261e-09	2.178580e+01	1.159069e+02
2.570000e-06	3.107397e-06	1.783321e-09	2.205273e+01	1.175085e+02
2.580000e-06	3.144771e-06	1.808293e-09	2.231797e+01	1.190469e+02
2.590000e-06	3.182027e-06	1.829588e-09	2.258237e+01	1.205264e+02
2.600000e-06	3.219048e-06	1.848171e-09	2.284510e+01	1.219511e+02
2.610000e-06	3.255725e-06	1.864123e-09	2.310540e+01	1.233247e+02
2.620000e-06	3.292127e-06	1.878543e-09	2.336374e+01	1.246507e+02
2.630000e-06	3.328390e-06	1.895907e-09	2.362109e+01	1.259320e+02
2.640000e-06	3.364581e-06	1.919748e-09	2.387793e+01	1.271715e+02
2.650000e-06	3.400654e-06	1.945410e-09	2.413394e+01	1.283714e+02
2.660000e-06	3.436547e-06	1.966117e-09	2.438866e+01	1.295338e+02
2.670000e-06	3.472267e-06	1.981355e-09	2.464216e+01	1.306602e+02
2.680000e-06	3.507789e-06	1.993988e-09	2.489426e+01	1.317518e+02
2.690000e-06	3.542994e-06	2.005438e-09	2.514410e+01	1.328097e+02
2.700000e-06	3.577781e-06	2.012568e-09	2.539098e+01	1.338344e+02
2.710000e-06	3.612115e-06	2.015869e-09	2.563464e+01	1.348264e+02
2.720000e-06	3.646062e-06	2.026027e-09	2.587556e+01	1.357858e+02
2.730000e-06	3.679633e-06	2.047331e-09	2.611381e+01	1.367127e+02
2.740000e-06	3.712754e-06	2.070852e-09	2.634886e+01	1.376069e+02
2.750000e-06	3.745559e-06	2.087858e-09	2.658168e+01	1.384683e+02
2.760000e-06	3.778140e-06	2.100857e-09	2.681290e+01	1.392965e+02
2.770000e-06	3.810498e-06	2.114379e-09	2.704254e+01	1.400913e+02
2.780000e-06	3.842693e-06	2.123960e-09	2.727102e+01	1.408526e+02
2.790000e-06	3.874684e-06	2.127231e-09	2.749805e+01	1.415801e+02
2.800000e-06	3.906459e-06	2.130314e-09	2.772356e+01	1.422739e+02
2.810000e-06	3.938017e-06	2.139682e-09	2.794752e+01	1.429340e+02
2.820000e-06	3.969296e-06	2.153125e-09	2.816950e+01	1.435608e+02
2.830000e-06	4.000267e-06	2.163909e-09	2.838930e+01	1.441547e+02
2.840000e-06	4.030917e-06	2.172323e-09	2.860681e+01	1.447163e+02
2.850000e-06	4.061262e-06	2.180720e-09	2.882217e+01	1.452464e+02
2.860000e-06	4.091387e-06	2.189622e-09	2.903596e+01	1.457461e+02
2.870000e-06	4.121319e-06	2.196647e-09	2.924839e+01	1.462167e+02
2.880000e-06	4.150972e-06	2.200334e-09	2.945883e+01	1.466594e+02
2.890000e-06	4.180295e-06	2.202809e-09	2.966693e+01	1.470759e+02
2.900000e-06	4.209357e-06	2.204872e-09	2.987318e+01	1.474679e+02
