# Temperatura_=_-3.1
# Concentracion g/m^3_=_4090.0
# C_Vs_to_Am_M_A/Vsm_=_65563218390.804596
# pendiente_HvsI_1/m_=_3716.3
# ordenada_HvsI_A/m_=_1297.0
# frecuencia_Hz_=_135081.27001636816

Tiempo_(s)	Campo_(V.s)	Magnetizacion_(V.s)	Campo_(kA/m)	Magnetizacion_(A/m)
0.000000e+00	-5.402541e-06	-2.424970e-09	-3.839092e+01	-1.546888e+02
1.000000e-08	-5.402546e-06	-2.426099e-09	-3.839095e+01	-1.546803e+02
2.000000e-08	-5.402289e-06	-2.426971e-09	-3.838913e+01	-1.546779e+02
3.000000e-08	-5.401747e-06	-2.427591e-09	-3.838527e+01	-1.546825e+02
4.000000e-08	-5.400780e-06	-2.425160e-09	-3.837840e+01	-1.546948e+02
5.000000e-08	-5.399312e-06	-2.419589e-09	-3.836797e+01	-1.547153e+02
6.000000e-08	-5.397282e-06	-2.421853e-09	-3.835354e+01	-1.547445e+02
7.000000e-08	-5.394623e-06	-2.441717e-09	-3.833465e+01	-1.547828e+02
8.000000e-08	-5.391345e-06	-2.455224e-09	-3.831136e+01	-1.548303e+02
9.000000e-08	-5.387557e-06	-2.411912e-09	-3.828444e+01	-1.548869e+02
1.000000e-07	-5.383430e-06	-2.368168e-09	-3.825511e+01	-1.549527e+02
1.100000e-07	-5.379157e-06	-2.393282e-09	-3.822475e+01	-1.550273e+02
1.200000e-07	-5.374680e-06	-2.460177e-09	-3.819294e+01	-1.551102e+02
1.300000e-07	-5.369669e-06	-2.413560e-09	-3.815732e+01	-1.552010e+02
1.400000e-07	-5.364149e-06	-2.362093e-09	-3.811810e+01	-1.552990e+02
1.500000e-07	-5.358372e-06	-2.400917e-09	-3.807704e+01	-1.554034e+02
1.600000e-07	-5.352326e-06	-2.490205e-09	-3.803409e+01	-1.555133e+02
1.700000e-07	-5.345743e-06	-2.436254e-09	-3.798731e+01	-1.556278e+02
1.800000e-07	-5.338707e-06	-2.358286e-09	-3.793730e+01	-1.557458e+02
1.900000e-07	-5.331457e-06	-2.378817e-09	-3.788579e+01	-1.558662e+02
2.000000e-07	-5.324068e-06	-2.448226e-09	-3.783328e+01	-1.559881e+02
2.100000e-07	-5.316375e-06	-2.406011e-09	-3.777861e+01	-1.561101e+02
2.200000e-07	-5.308378e-06	-2.372066e-09	-3.772179e+01	-1.562314e+02
2.300000e-07	-5.300223e-06	-2.427193e-09	-3.766384e+01	-1.563506e+02
2.400000e-07	-5.291631e-06	-2.460958e-09	-3.760278e+01	-1.564668e+02
2.500000e-07	-5.282295e-06	-2.421455e-09	-3.753644e+01	-1.565790e+02
2.600000e-07	-5.272309e-06	-2.401147e-09	-3.746548e+01	-1.566862e+02
2.700000e-07	-5.261832e-06	-2.448947e-09	-3.739102e+01	-1.567875e+02
2.800000e-07	-5.250792e-06	-2.409846e-09	-3.731257e+01	-1.568821e+02
2.900000e-07	-5.239201e-06	-2.365244e-09	-3.723021e+01	-1.569692e+02
3.000000e-07	-5.227231e-06	-2.406592e-09	-3.714515e+01	-1.570482e+02
3.100000e-07	-5.214972e-06	-2.463832e-09	-3.705804e+01	-1.571186e+02
3.200000e-07	-5.202258e-06	-2.400973e-09	-3.696769e+01	-1.571798e+02
3.300000e-07	-5.189124e-06	-2.378496e-09	-3.687436e+01	-1.572315e+02
3.400000e-07	-5.175674e-06	-2.411795e-09	-3.677878e+01	-1.572734e+02
3.500000e-07	-5.161886e-06	-2.438694e-09	-3.668080e+01	-1.573052e+02
3.600000e-07	-5.147735e-06	-2.398315e-09	-3.658024e+01	-1.573268e+02
3.700000e-07	-5.133119e-06	-2.402283e-09	-3.647638e+01	-1.573380e+02
3.800000e-07	-5.117926e-06	-2.392967e-09	-3.636842e+01	-1.573388e+02
3.900000e-07	-5.102050e-06	-2.399707e-09	-3.625560e+01	-1.573294e+02
4.000000e-07	-5.085713e-06	-2.409254e-09	-3.613951e+01	-1.573096e+02
4.100000e-07	-5.069054e-06	-2.409816e-09	-3.602113e+01	-1.572796e+02
4.200000e-07	-5.051999e-06	-2.369671e-09	-3.589994e+01	-1.572396e+02
4.300000e-07	-5.034644e-06	-2.380892e-09	-3.577661e+01	-1.571897e+02
4.400000e-07	-5.016992e-06	-2.415560e-09	-3.565117e+01	-1.571301e+02
4.500000e-07	-4.999080e-06	-2.401075e-09	-3.552389e+01	-1.570609e+02
4.600000e-07	-4.980868e-06	-2.366740e-09	-3.539447e+01	-1.569825e+02
4.700000e-07	-4.962216e-06	-2.374197e-09	-3.526193e+01	-1.568949e+02
4.800000e-07	-4.943154e-06	-2.395255e-09	-3.512647e+01	-1.567986e+02
4.900000e-07	-4.923786e-06	-2.388622e-09	-3.498884e+01	-1.566936e+02
5.000000e-07	-4.904082e-06	-2.374753e-09	-3.484882e+01	-1.565803e+02
5.100000e-07	-4.884100e-06	-2.363977e-09	-3.470683e+01	-1.564589e+02
5.200000e-07	-4.863914e-06	-2.382842e-09	-3.456339e+01	-1.563298e+02
5.300000e-07	-4.843519e-06	-2.396777e-09	-3.441846e+01	-1.561933e+02
5.400000e-07	-4.822912e-06	-2.381512e-09	-3.427202e+01	-1.560496e+02
5.500000e-07	-4.801942e-06	-2.350148e-09	-3.412301e+01	-1.558992e+02
5.600000e-07	-4.780603e-06	-2.366640e-09	-3.397137e+01	-1.557424e+02
5.700000e-07	-4.758966e-06	-2.378503e-09	-3.381761e+01	-1.555797e+02
5.800000e-07	-4.737036e-06	-2.363864e-09	-3.366178e+01	-1.554116e+02
5.900000e-07	-4.714772e-06	-2.341573e-09	-3.350357e+01	-1.552384e+02
6.000000e-07	-4.692041e-06	-2.349335e-09	-3.334204e+01	-1.550608e+02
6.100000e-07	-4.668890e-06	-2.355266e-09	-3.317753e+01	-1.548793e+02
6.200000e-07	-4.645455e-06	-2.360327e-09	-3.301100e+01	-1.546945e+02
6.300000e-07	-4.621809e-06	-2.342144e-09	-3.284297e+01	-1.545069e+02
6.400000e-07	-4.597963e-06	-2.328849e-09	-3.267352e+01	-1.543172e+02
6.500000e-07	-4.573929e-06	-2.332751e-09	-3.250273e+01	-1.541260e+02
6.600000e-07	-4.549660e-06	-2.344049e-09	-3.233027e+01	-1.539340e+02
6.700000e-07	-4.525050e-06	-2.322848e-09	-3.215539e+01	-1.537418e+02
6.800000e-07	-4.500057e-06	-2.306818e-09	-3.197779e+01	-1.535500e+02
6.900000e-07	-4.474555e-06	-2.312021e-09	-3.179657e+01	-1.533592e+02
7.000000e-07	-4.448461e-06	-2.322968e-09	-3.161114e+01	-1.531699e+02
7.100000e-07	-4.421830e-06	-2.313515e-09	-3.142190e+01	-1.529827e+02
7.200000e-07	-4.394779e-06	-2.301259e-09	-3.122968e+01	-1.527979e+02
7.300000e-07	-4.367401e-06	-2.298747e-09	-3.103512e+01	-1.526161e+02
7.400000e-07	-4.339745e-06	-2.306302e-09	-3.083860e+01	-1.524374e+02
7.500000e-07	-4.311872e-06	-2.303683e-09	-3.064053e+01	-1.522621e+02
7.600000e-07	-4.283795e-06	-2.286265e-09	-3.044101e+01	-1.520903e+02
7.700000e-07	-4.255566e-06	-2.277379e-09	-3.024041e+01	-1.519220e+02
7.800000e-07	-4.227098e-06	-2.284026e-09	-3.003812e+01	-1.517572e+02
7.900000e-07	-4.198262e-06	-2.287038e-09	-2.983321e+01	-1.515956e+02
8.000000e-07	-4.169130e-06	-2.276587e-09	-2.962619e+01	-1.514370e+02
8.100000e-07	-4.139714e-06	-2.270444e-09	-2.941716e+01	-1.512810e+02
8.200000e-07	-4.110003e-06	-2.273272e-09	-2.920603e+01	-1.511271e+02
8.300000e-07	-4.079990e-06	-2.277770e-09	-2.899275e+01	-1.509746e+02
8.400000e-07	-4.049642e-06	-2.266088e-09	-2.877710e+01	-1.508230e+02
8.500000e-07	-4.018975e-06	-2.252796e-09	-2.855918e+01	-1.506716e+02
8.600000e-07	-3.988034e-06	-2.249278e-09	-2.833931e+01	-1.505194e+02
8.700000e-07	-3.956853e-06	-2.256324e-09	-2.811774e+01	-1.503658e+02
8.800000e-07	-3.925467e-06	-2.250091e-09	-2.789470e+01	-1.502099e+02
8.900000e-07	-3.893845e-06	-2.240766e-09	-2.767000e+01	-1.500508e+02
9.000000e-07	-3.861999e-06	-2.237871e-09	-2.744369e+01	-1.498877e+02
9.100000e-07	-3.830035e-06	-2.245859e-09	-2.721655e+01	-1.497197e+02
9.200000e-07	-3.797919e-06	-2.243803e-09	-2.698834e+01	-1.495462e+02
9.300000e-07	-3.765623e-06	-2.235185e-09	-2.675884e+01	-1.493663e+02
9.400000e-07	-3.733078e-06	-2.227242e-09	-2.652757e+01	-1.491795e+02
9.500000e-07	-3.700301e-06	-2.229850e-09	-2.629466e+01	-1.489852e+02
9.600000e-07	-3.667239e-06	-2.226213e-09	-2.605971e+01	-1.487830e+02
9.700000e-07	-3.633628e-06	-2.216517e-09	-2.582087e+01	-1.485726e+02
9.800000e-07	-3.599427e-06	-2.207413e-09	-2.557783e+01	-1.483537e+02
9.900000e-07	-3.564904e-06	-2.209286e-09	-2.533251e+01	-1.481264e+02
1.000000e-06	-3.530004e-06	-2.215435e-09	-2.508451e+01	-1.478905e+02
1.010000e-06	-3.494633e-06	-2.217773e-09	-2.483316e+01	-1.476463e+02
1.020000e-06	-3.459004e-06	-2.211626e-09	-2.457997e+01	-1.473942e+02
1.030000e-06	-3.423237e-06	-2.205480e-09	-2.432581e+01	-1.471344e+02
1.040000e-06	-3.387342e-06	-2.202388e-09	-2.407074e+01	-1.468676e+02
1.050000e-06	-3.351287e-06	-2.193918e-09	-2.381453e+01	-1.465943e+02
1.060000e-06	-3.315093e-06	-2.179564e-09	-2.355733e+01	-1.463153e+02
1.070000e-06	-3.278771e-06	-2.169669e-09	-2.329923e+01	-1.460312e+02
1.080000e-06	-3.242318e-06	-2.170080e-09	-2.304019e+01	-1.457428e+02
1.090000e-06	-3.205645e-06	-2.173648e-09	-2.277959e+01	-1.454511e+02
1.100000e-06	-3.168589e-06	-2.173220e-09	-2.251626e+01	-1.451567e+02
1.110000e-06	-3.131243e-06	-2.168016e-09	-2.225088e+01	-1.448604e+02
1.120000e-06	-3.093730e-06	-2.166061e-09	-2.198431e+01	-1.445632e+02
1.130000e-06	-3.056002e-06	-2.163607e-09	-2.171621e+01	-1.442655e+02
1.140000e-06	-3.018088e-06	-2.154686e-09	-2.144679e+01	-1.439681e+02
1.150000e-06	-2.979958e-06	-2.140879e-09	-2.117584e+01	-1.436714e+02
1.160000e-06	-2.941591e-06	-2.132867e-09	-2.090320e+01	-1.433760e+02
1.170000e-06	-2.903062e-06	-2.127816e-09	-2.062940e+01	-1.430819e+02
1.180000e-06	-2.864346e-06	-2.122779e-09	-2.035429e+01	-1.427895e+02
1.190000e-06	-2.825472e-06	-2.118478e-09	-2.007804e+01	-1.424987e+02
1.200000e-06	-2.786391e-06	-2.120149e-09	-1.980033e+01	-1.422093e+02
1.210000e-06	-2.747093e-06	-2.118078e-09	-1.952107e+01	-1.419211e+02
1.220000e-06	-2.707633e-06	-2.108285e-09	-1.924067e+01	-1.416337e+02
1.230000e-06	-2.667969e-06	-2.092162e-09	-1.895882e+01	-1.413463e+02
1.240000e-06	-2.628140e-06	-2.082772e-09	-1.867579e+01	-1.410584e+02
1.250000e-06	-2.588182e-06	-2.075989e-09	-1.839184e+01	-1.407691e+02
1.260000e-06	-2.548130e-06	-2.070924e-09	-1.810723e+01	-1.404774e+02
1.270000e-06	-2.507986e-06	-2.066860e-09	-1.782196e+01	-1.401824e+02
1.280000e-06	-2.467784e-06	-2.067392e-09	-1.753629e+01	-1.398828e+02
1.290000e-06	-2.427506e-06	-2.065336e-09	-1.725006e+01	-1.395775e+02
1.300000e-06	-2.387049e-06	-2.056706e-09	-1.696257e+01	-1.392654e+02
1.310000e-06	-2.346459e-06	-2.044553e-09	-1.667414e+01	-1.389452e+02
1.320000e-06	-2.305772e-06	-2.033111e-09	-1.638502e+01	-1.386157e+02
1.330000e-06	-2.264792e-06	-2.025535e-09	-1.609380e+01	-1.382757e+02
1.340000e-06	-2.223427e-06	-2.020332e-09	-1.579986e+01	-1.379242e+02
1.350000e-06	-2.181703e-06	-2.014789e-09	-1.550337e+01	-1.375600e+02
1.360000e-06	-2.139594e-06	-2.010136e-09	-1.520413e+01	-1.371822e+02
1.370000e-06	-2.097198e-06	-2.006635e-09	-1.490287e+01	-1.367900e+02
1.380000e-06	-2.054573e-06	-1.998878e-09	-1.459997e+01	-1.363824e+02
1.390000e-06	-2.011689e-06	-1.987978e-09	-1.429523e+01	-1.359590e+02
1.400000e-06	-1.968672e-06	-1.979603e-09	-1.398955e+01	-1.355192e+02
1.410000e-06	-1.925510e-06	-1.973657e-09	-1.368284e+01	-1.350626e+02
1.420000e-06	-1.882177e-06	-1.964511e-09	-1.337491e+01	-1.345890e+02
1.430000e-06	-1.838679e-06	-1.954675e-09	-1.306581e+01	-1.340982e+02
1.440000e-06	-1.795020e-06	-1.946880e-09	-1.275557e+01	-1.335901e+02
1.450000e-06	-1.751323e-06	-1.942069e-09	-1.244505e+01	-1.330649e+02
1.460000e-06	-1.707557e-06	-1.934307e-09	-1.213404e+01	-1.325228e+02
1.470000e-06	-1.663695e-06	-1.922831e-09	-1.182236e+01	-1.319640e+02
1.480000e-06	-1.619708e-06	-1.908705e-09	-1.150979e+01	-1.313887e+02
1.490000e-06	-1.575650e-06	-1.899373e-09	-1.119671e+01	-1.307975e+02
1.500000e-06	-1.531554e-06	-1.891172e-09	-1.088336e+01	-1.301907e+02
1.510000e-06	-1.487374e-06	-1.879068e-09	-1.056941e+01	-1.295686e+02
1.520000e-06	-1.443115e-06	-1.865010e-09	-1.025490e+01	-1.289317e+02
1.530000e-06	-1.398765e-06	-1.856849e-09	-9.939744e+00	-1.282803e+02
1.540000e-06	-1.354375e-06	-1.851761e-09	-9.624301e+00	-1.276148e+02
1.550000e-06	-1.309933e-06	-1.842066e-09	-9.308499e+00	-1.269352e+02
1.560000e-06	-1.265462e-06	-1.827926e-09	-8.992481e+00	-1.262419e+02
1.570000e-06	-1.220954e-06	-1.816044e-09	-8.676204e+00	-1.255348e+02
1.580000e-06	-1.176360e-06	-1.805955e-09	-8.359311e+00	-1.248139e+02
1.590000e-06	-1.131618e-06	-1.794883e-09	-8.041372e+00	-1.240789e+02
1.600000e-06	-1.086766e-06	-1.783300e-09	-7.722655e+00	-1.233296e+02
1.610000e-06	-1.041815e-06	-1.775317e-09	-7.403223e+00	-1.225655e+02
1.620000e-06	-9.967126e-07	-1.767304e-09	-7.082725e+00	-1.217860e+02
1.630000e-06	-9.515906e-07	-1.753341e-09	-6.762084e+00	-1.209904e+02
1.640000e-06	-9.064144e-07	-1.735115e-09	-6.441058e+00	-1.201778e+02
1.650000e-06	-8.611462e-07	-1.718122e-09	-6.119378e+00	-1.193473e+02
1.660000e-06	-8.158791e-07	-1.705876e-09	-5.797706e+00	-1.184976e+02
1.670000e-06	-7.705939e-07	-1.696121e-09	-5.475906e+00	-1.176277e+02
1.680000e-06	-7.252340e-07	-1.685651e-09	-5.153575e+00	-1.167360e+02
1.690000e-06	-6.798089e-07	-1.672864e-09	-4.830780e+00	-1.158213e+02
1.700000e-06	-6.343689e-07	-1.662564e-09	-4.507879e+00	-1.148820e+02
1.710000e-06	-5.888103e-07	-1.649533e-09	-4.184136e+00	-1.139164e+02
1.720000e-06	-5.431627e-07	-1.630510e-09	-3.859760e+00	-1.129229e+02
1.730000e-06	-4.974948e-07	-1.612083e-09	-3.535240e+00	-1.118998e+02
1.740000e-06	-4.517974e-07	-1.598739e-09	-3.210510e+00	-1.108453e+02
1.750000e-06	-4.060458e-07	-1.585713e-09	-2.885396e+00	-1.097576e+02
1.760000e-06	-3.601771e-07	-1.570653e-09	-2.559449e+00	-1.086348e+02
1.770000e-06	-3.143718e-07	-1.555307e-09	-2.233953e+00	-1.074750e+02
1.780000e-06	-2.686081e-07	-1.540863e-09	-1.908752e+00	-1.062764e+02
1.790000e-06	-2.227606e-07	-1.522814e-09	-1.582956e+00	-1.050368e+02
1.800000e-06	-1.768955e-07	-1.497106e-09	-1.257035e+00	-1.037545e+02
1.810000e-06	-1.310476e-07	-1.471266e-09	-9.312353e-01	-1.024273e+02
1.820000e-06	-8.517908e-08	-1.453148e-09	-6.052898e-01	-1.010532e+02
1.830000e-06	-3.930400e-08	-1.438008e-09	-2.792975e-01	-9.963015e+01
1.840000e-06	6.523080e-09	-1.418067e-09	4.635356e-02	-9.815599e+01
1.850000e-06	5.232680e-08	-1.391826e-09	3.718387e-01	-9.662856e+01
1.860000e-06	9.811039e-08	-1.365910e-09	6.971808e-01	-9.504564e+01
1.870000e-06	1.439592e-07	-1.340306e-09	1.022986e+00	-9.340496e+01
1.880000e-06	1.898262e-07	-1.310260e-09	1.348921e+00	-9.170419e+01
1.890000e-06	2.356074e-07	-1.278832e-09	1.674246e+00	-8.994097e+01
1.900000e-06	2.813888e-07	-1.254258e-09	1.999572e+00	-8.811288e+01
1.910000e-06	3.271548e-07	-1.232504e-09	2.324790e+00	-8.621746e+01
1.920000e-06	3.729192e-07	-1.204355e-09	2.649996e+00	-8.425222e+01
1.930000e-06	4.186223e-07	-1.171539e-09	2.974766e+00	-8.221464e+01
1.940000e-06	4.643276e-07	-1.137390e-09	3.299551e+00	-8.010223e+01
1.950000e-06	5.099897e-07	-1.105702e-09	3.624030e+00	-7.791249e+01
1.960000e-06	5.554746e-07	-1.071699e-09	3.947250e+00	-7.564298e+01
1.970000e-06	6.009168e-07	-1.032379e-09	4.270166e+00	-7.329132e+01
1.980000e-06	6.463261e-07	-9.946099e-10	4.592849e+00	-7.085525e+01
1.990000e-06	6.917228e-07	-9.616843e-10	4.915441e+00	-6.833264e+01
2.000000e-06	7.371477e-07	-9.273929e-10	5.238234e+00	-6.572154e+01
2.010000e-06	7.825632e-07	-8.885187e-10	5.560961e+00	-6.302024e+01
2.020000e-06	8.279021e-07	-8.458048e-10	5.883142e+00	-6.022728e+01
2.030000e-06	8.731933e-07	-8.013606e-10	6.204986e+00	-5.734149e+01
2.040000e-06	9.183346e-07	-7.574238e-10	6.525763e+00	-5.436210e+01
2.050000e-06	9.634088e-07	-7.095366e-10	6.846065e+00	-5.128870e+01
2.060000e-06	1.008521e-06	-6.601992e-10	7.166636e+00	-4.812134e+01
2.070000e-06	1.053473e-06	-6.147616e-10	7.486070e+00	-4.486055e+01
2.080000e-06	1.098240e-06	-5.691194e-10	7.804185e+00	-4.150739e+01
2.090000e-06	1.142922e-06	-5.217758e-10	8.121704e+00	-3.806347e+01
2.100000e-06	1.187568e-06	-4.714265e-10	8.438962e+00	-3.453098e+01
2.110000e-06	1.232118e-06	-4.224655e-10	8.755539e+00	-3.091273e+01
2.120000e-06	1.276573e-06	-3.699708e-10	9.071438e+00	-2.721215e+01
2.130000e-06	1.320984e-06	-3.095756e-10	9.387023e+00	-2.343331e+01
2.140000e-06	1.365350e-06	-2.439412e-10	9.702297e+00	-1.958090e+01
2.150000e-06	1.409707e-06	-1.796441e-10	1.001750e+01	-1.566026e+01
2.160000e-06	1.454031e-06	-1.203378e-10	1.033247e+01	-1.167734e+01
2.170000e-06	1.498262e-06	-6.224977e-11	1.064677e+01	-7.638667e+00
2.180000e-06	1.542414e-06	-3.791434e-12	1.096052e+01	-3.551330e+00
2.190000e-06	1.586496e-06	5.496421e-11	1.127378e+01	5.770634e-01
2.200000e-06	1.630510e-06	1.138365e-10	1.158654e+01	4.738446e+00
2.210000e-06	1.674431e-06	1.783248e-10	1.189865e+01	8.924345e+00
2.220000e-06	1.718288e-06	2.503860e-10	1.221030e+01	1.312595e+01
2.230000e-06	1.762152e-06	3.223811e-10	1.252200e+01	1.733417e+01
2.240000e-06	1.805981e-06	3.897752e-10	1.283345e+01	2.153973e+01
2.250000e-06	1.849597e-06	4.537801e-10	1.314339e+01	2.573326e+01
2.260000e-06	1.893006e-06	5.159111e-10	1.345186e+01	2.990535e+01
2.270000e-06	1.936257e-06	5.725554e-10	1.375921e+01	3.404665e+01
2.280000e-06	1.979387e-06	6.239099e-10	1.406569e+01	3.814796e+01
2.290000e-06	2.022317e-06	6.763422e-10	1.437076e+01	4.220033e+01
2.300000e-06	2.064876e-06	7.357358e-10	1.467318e+01	4.619511e+01
2.310000e-06	2.107164e-06	7.988920e-10	1.497369e+01	5.012408e+01
2.320000e-06	2.149120e-06	8.580353e-10	1.527183e+01	5.397947e+01
2.330000e-06	2.190773e-06	9.169054e-10	1.556782e+01	5.775408e+01
2.340000e-06	2.232238e-06	9.755785e-10	1.586248e+01	6.144132e+01
2.350000e-06	2.273460e-06	1.031275e-09	1.615540e+01	6.503526e+01
2.360000e-06	2.314432e-06	1.077405e-09	1.644655e+01	6.853070e+01
2.370000e-06	2.355216e-06	1.115090e-09	1.673637e+01	7.192320e+01
2.380000e-06	2.395794e-06	1.152688e-09	1.702472e+01	7.520907e+01
2.390000e-06	2.436154e-06	1.195967e-09	1.731152e+01	7.838545e+01
2.400000e-06	2.476451e-06	1.240547e-09	1.759787e+01	8.145027e+01
2.410000e-06	2.516687e-06	1.284228e-09	1.788379e+01	8.440227e+01
2.420000e-06	2.556780e-06	1.328713e-09	1.816870e+01	8.724094e+01
2.430000e-06	2.596755e-06	1.373621e-09	1.845276e+01	8.996657e+01
2.440000e-06	2.636690e-06	1.412335e-09	1.873654e+01	9.258015e+01
2.450000e-06	2.676508e-06	1.441382e-09	1.901949e+01	9.508335e+01
2.460000e-06	2.716162e-06	1.467690e-09	1.930128e+01	9.747845e+01
2.470000e-06	2.755705e-06	1.496955e-09	1.958227e+01	9.976834e+01
2.480000e-06	2.795059e-06	1.526366e-09	1.986192e+01	1.019564e+02
2.490000e-06	2.834104e-06	1.555248e-09	2.013938e+01	1.040463e+02
2.500000e-06	2.872793e-06	1.588325e-09	2.041431e+01	1.060424e+02
2.510000e-06	2.911263e-06	1.626122e-09	2.068768e+01	1.079489e+02
2.520000e-06	2.949620e-06	1.658954e-09	2.096025e+01	1.097707e+02
2.530000e-06	2.987822e-06	1.679672e-09	2.123172e+01	1.115124e+02
2.540000e-06	3.025824e-06	1.694847e-09	2.150176e+01	1.131788e+02
2.550000e-06	3.063640e-06	1.716421e-09	2.177049e+01	1.147749e+02
2.560000e-06	3.101272e-06	1.741175e-09	2.203790e+01	1.163053e+02
2.570000e-06	3.138713e-06	1.761598e-09	2.230396e+01	1.177746e+02
2.580000e-06	3.175871e-06	1.781988e-09	2.256801e+01	1.191873e+02
2.590000e-06	3.212767e-06	1.808435e-09	2.283020e+01	1.205475e+02
2.600000e-06	3.249429e-06	1.837191e-09	2.309072e+01	1.218591e+02
2.610000e-06	3.285835e-06	1.858100e-09	2.334942e+01	1.231257e+02
2.620000e-06	3.322105e-06	1.874385e-09	2.360716e+01	1.243505e+02
2.630000e-06	3.358222e-06	1.892854e-09	2.386381e+01	1.255364e+02
2.640000e-06	3.394245e-06	1.910666e-09	2.411979e+01	1.266859e+02
2.650000e-06	3.430217e-06	1.920504e-09	2.437541e+01	1.278011e+02
2.660000e-06	3.466030e-06	1.929431e-09	2.462990e+01	1.288839e+02
2.670000e-06	3.501561e-06	1.946723e-09	2.488239e+01	1.299356e+02
2.680000e-06	3.536813e-06	1.968133e-09	2.513289e+01	1.309575e+02
2.690000e-06	3.571690e-06	1.984424e-09	2.538073e+01	1.319502e+02
2.700000e-06	3.606121e-06	1.994902e-09	2.562541e+01	1.329145e+02
2.710000e-06	3.640125e-06	2.005847e-09	2.586703e+01	1.338505e+02
2.720000e-06	3.673599e-06	2.021741e-09	2.610491e+01	1.347586e+02
2.730000e-06	3.706759e-06	2.035857e-09	2.634054e+01	1.356385e+02
2.740000e-06	3.739632e-06	2.044618e-09	2.657415e+01	1.364902e+02
2.750000e-06	3.772102e-06	2.055035e-09	2.680488e+01	1.373136e+02
2.760000e-06	3.804343e-06	2.067773e-09	2.703398e+01	1.381082e+02
2.770000e-06	3.836432e-06	2.080908e-09	2.726201e+01	1.388739e+02
2.780000e-06	3.868372e-06	2.090010e-09	2.748898e+01	1.396105e+02
2.790000e-06	3.900140e-06	2.098695e-09	2.771472e+01	1.403177e+02
2.800000e-06	3.931641e-06	2.111268e-09	2.793858e+01	1.409956e+02
2.810000e-06	3.962805e-06	2.125824e-09	2.816003e+01	1.416441e+02
2.820000e-06	3.993690e-06	2.135195e-09	2.837950e+01	1.422634e+02
2.830000e-06	4.024370e-06	2.139816e-09	2.859752e+01	1.428538e+02
2.840000e-06	4.054742e-06	2.148096e-09	2.881334e+01	1.434158e+02
2.850000e-06	4.084815e-06	2.155776e-09	2.902705e+01	1.439500e+02
2.860000e-06	4.114721e-06	2.159948e-09	2.923956e+01	1.444570e+02
2.870000e-06	4.144423e-06	2.161790e-09	2.945062e+01	1.449379e+02
2.880000e-06	4.173844e-06	2.167501e-09	2.965969e+01	1.453935e+02
2.890000e-06	4.202906e-06	2.174804e-09	2.986620e+01	1.458250e+02
2.900000e-06	4.231629e-06	2.180253e-09	3.007032e+01	1.462337e+02
