# Temperatura_=_-1.1
# Concentracion g/m^3_=_4090.0
# C_Vs_to_Am_M_A/Vsm_=_65563218390.804596
# pendiente_HvsI_1/m_=_3716.3
# ordenada_HvsI_A/m_=_1297.0
# frecuencia_Hz_=_135075.79266774876

Tiempo_(s)	Campo_(V.s)	Magnetizacion_(V.s)	Campo_(kA/m)	Magnetizacion_(A/m)
0.000000e+00	-5.377082e-06	-2.657877e-09	-3.838957e+01	-1.685496e+02
1.000000e-08	-5.377192e-06	-2.659039e-09	-3.839035e+01	-1.685486e+02
2.000000e-08	-5.377107e-06	-2.658348e-09	-3.838974e+01	-1.685502e+02
3.000000e-08	-5.376637e-06	-2.655896e-09	-3.838638e+01	-1.685559e+02
4.000000e-08	-5.375733e-06	-2.650035e-09	-3.837993e+01	-1.685670e+02
5.000000e-08	-5.374355e-06	-2.644093e-09	-3.837009e+01	-1.685850e+02
6.000000e-08	-5.372388e-06	-2.649205e-09	-3.835605e+01	-1.686110e+02
7.000000e-08	-5.369797e-06	-2.653553e-09	-3.833755e+01	-1.686465e+02
8.000000e-08	-5.366555e-06	-2.631984e-09	-3.831441e+01	-1.686924e+02
9.000000e-08	-5.362802e-06	-2.617461e-09	-3.828761e+01	-1.687498e+02
1.000000e-07	-5.358652e-06	-2.673501e-09	-3.825798e+01	-1.688195e+02
1.100000e-07	-5.354250e-06	-2.687701e-09	-3.822655e+01	-1.689020e+02
1.200000e-07	-5.349754e-06	-2.650207e-09	-3.819445e+01	-1.689979e+02
1.300000e-07	-5.345029e-06	-2.573220e-09	-3.816072e+01	-1.691073e+02
1.400000e-07	-5.339858e-06	-2.642294e-09	-3.812380e+01	-1.692301e+02
1.500000e-07	-5.334266e-06	-2.676765e-09	-3.808388e+01	-1.693661e+02
1.600000e-07	-5.328403e-06	-2.610341e-09	-3.804202e+01	-1.695147e+02
1.700000e-07	-5.322134e-06	-2.562075e-09	-3.799726e+01	-1.696751e+02
1.800000e-07	-5.315303e-06	-2.636863e-09	-3.794849e+01	-1.698464e+02
1.900000e-07	-5.308105e-06	-2.711306e-09	-3.789710e+01	-1.700273e+02
2.000000e-07	-5.300786e-06	-2.630453e-09	-3.784485e+01	-1.702164e+02
2.100000e-07	-5.293225e-06	-2.601961e-09	-3.779087e+01	-1.704122e+02
2.200000e-07	-5.285341e-06	-2.645621e-09	-3.773458e+01	-1.706128e+02
2.300000e-07	-5.277212e-06	-2.668349e-09	-3.767655e+01	-1.708165e+02
2.400000e-07	-5.268733e-06	-2.592576e-09	-3.761601e+01	-1.710212e+02
2.500000e-07	-5.259659e-06	-2.619326e-09	-3.755122e+01	-1.712249e+02
2.600000e-07	-5.249803e-06	-2.671305e-09	-3.748085e+01	-1.714255e+02
2.700000e-07	-5.239343e-06	-2.672748e-09	-3.740618e+01	-1.716211e+02
2.800000e-07	-5.228435e-06	-2.621653e-09	-3.732830e+01	-1.718096e+02
2.900000e-07	-5.217091e-06	-2.666096e-09	-3.724731e+01	-1.719890e+02
3.000000e-07	-5.205355e-06	-2.673987e-09	-3.716352e+01	-1.721576e+02
3.100000e-07	-5.193254e-06	-2.624427e-09	-3.707713e+01	-1.723136e+02
3.200000e-07	-5.180756e-06	-2.616379e-09	-3.698790e+01	-1.724556e+02
3.300000e-07	-5.167909e-06	-2.668658e-09	-3.689617e+01	-1.725821e+02
3.400000e-07	-5.154749e-06	-2.650892e-09	-3.680222e+01	-1.726919e+02
3.500000e-07	-5.141250e-06	-2.629091e-09	-3.670585e+01	-1.727843e+02
3.600000e-07	-5.127356e-06	-2.657591e-09	-3.660665e+01	-1.728584e+02
3.700000e-07	-5.113103e-06	-2.669646e-09	-3.650489e+01	-1.729137e+02
3.800000e-07	-5.098342e-06	-2.632537e-09	-3.639951e+01	-1.729502e+02
3.900000e-07	-5.082869e-06	-2.637108e-09	-3.628903e+01	-1.729676e+02
4.000000e-07	-5.066835e-06	-2.645870e-09	-3.617456e+01	-1.729664e+02
4.100000e-07	-5.050366e-06	-2.616716e-09	-3.605698e+01	-1.729468e+02
4.200000e-07	-5.033540e-06	-2.620913e-09	-3.593685e+01	-1.729097e+02
4.300000e-07	-5.016418e-06	-2.646947e-09	-3.581461e+01	-1.728557e+02
4.400000e-07	-4.998969e-06	-2.642590e-09	-3.569003e+01	-1.727859e+02
4.500000e-07	-4.981277e-06	-2.614463e-09	-3.556372e+01	-1.727013e+02
4.600000e-07	-4.963387e-06	-2.636361e-09	-3.543599e+01	-1.726034e+02
4.700000e-07	-4.945043e-06	-2.633564e-09	-3.530503e+01	-1.724932e+02
4.800000e-07	-4.926130e-06	-2.620242e-09	-3.517000e+01	-1.723724e+02
4.900000e-07	-4.906873e-06	-2.606986e-09	-3.503251e+01	-1.722421e+02
5.000000e-07	-4.887362e-06	-2.620597e-09	-3.489322e+01	-1.721039e+02
5.100000e-07	-4.867590e-06	-2.612029e-09	-3.475206e+01	-1.719592e+02
5.200000e-07	-4.847626e-06	-2.621691e-09	-3.460952e+01	-1.718092e+02
5.300000e-07	-4.827461e-06	-2.612528e-09	-3.446556e+01	-1.716552e+02
5.400000e-07	-4.807053e-06	-2.611116e-09	-3.431985e+01	-1.714984e+02
5.500000e-07	-4.786354e-06	-2.607805e-09	-3.417207e+01	-1.713399e+02
5.600000e-07	-4.765293e-06	-2.618281e-09	-3.402171e+01	-1.711806e+02
5.700000e-07	-4.743791e-06	-2.600842e-09	-3.386820e+01	-1.710213e+02
5.800000e-07	-4.721894e-06	-2.595229e-09	-3.371186e+01	-1.708626e+02
5.900000e-07	-4.699732e-06	-2.594393e-09	-3.355364e+01	-1.707051e+02
6.000000e-07	-4.677395e-06	-2.602585e-09	-3.339417e+01	-1.705491e+02
6.100000e-07	-4.654743e-06	-2.597091e-09	-3.323244e+01	-1.703948e+02
6.200000e-07	-4.631619e-06	-2.591901e-09	-3.306735e+01	-1.702423e+02
6.300000e-07	-4.608129e-06	-2.586341e-09	-3.289964e+01	-1.700916e+02
6.400000e-07	-4.584406e-06	-2.589231e-09	-3.273027e+01	-1.699424e+02
6.500000e-07	-4.560441e-06	-2.583670e-09	-3.255918e+01	-1.697945e+02
6.600000e-07	-4.536269e-06	-2.570498e-09	-3.238660e+01	-1.696476e+02
6.700000e-07	-4.511852e-06	-2.564466e-09	-3.221227e+01	-1.695011e+02
6.800000e-07	-4.487041e-06	-2.568344e-09	-3.203513e+01	-1.693545e+02
6.900000e-07	-4.461828e-06	-2.570358e-09	-3.185513e+01	-1.692073e+02
7.000000e-07	-4.436108e-06	-2.561022e-09	-3.167150e+01	-1.690590e+02
7.100000e-07	-4.409772e-06	-2.554097e-09	-3.148347e+01	-1.689088e+02
7.200000e-07	-4.382922e-06	-2.549774e-09	-3.129178e+01	-1.687562e+02
7.300000e-07	-4.355709e-06	-2.554268e-09	-3.109749e+01	-1.686007e+02
7.400000e-07	-4.328153e-06	-2.546326e-09	-3.090076e+01	-1.684418e+02
7.500000e-07	-4.300324e-06	-2.539704e-09	-3.070207e+01	-1.682788e+02
7.600000e-07	-4.272390e-06	-2.536709e-09	-3.050263e+01	-1.681115e+02
7.700000e-07	-4.244363e-06	-2.542659e-09	-3.030254e+01	-1.679394e+02
7.800000e-07	-4.216185e-06	-2.533422e-09	-3.010136e+01	-1.677622e+02
7.900000e-07	-4.187742e-06	-2.525108e-09	-2.989829e+01	-1.675798e+02
8.000000e-07	-4.158997e-06	-2.516981e-09	-2.969307e+01	-1.673919e+02
8.100000e-07	-4.129841e-06	-2.520348e-09	-2.948492e+01	-1.671984e+02
8.200000e-07	-4.100221e-06	-2.518648e-09	-2.927344e+01	-1.669994e+02
8.300000e-07	-4.070326e-06	-2.517128e-09	-2.906001e+01	-1.667948e+02
8.400000e-07	-4.040226e-06	-2.510547e-09	-2.884511e+01	-1.665848e+02
8.500000e-07	-4.009906e-06	-2.513689e-09	-2.862864e+01	-1.663695e+02
8.600000e-07	-3.979367e-06	-2.508060e-09	-2.841060e+01	-1.661491e+02
8.700000e-07	-3.948593e-06	-2.497099e-09	-2.819090e+01	-1.659238e+02
8.800000e-07	-3.917512e-06	-2.481759e-09	-2.796900e+01	-1.656939e+02
8.900000e-07	-3.886203e-06	-2.479131e-09	-2.774546e+01	-1.654595e+02
9.000000e-07	-3.854725e-06	-2.479883e-09	-2.752073e+01	-1.652209e+02
9.100000e-07	-3.823008e-06	-2.479074e-09	-2.729428e+01	-1.649784e+02
9.200000e-07	-3.791107e-06	-2.474512e-09	-2.706653e+01	-1.647322e+02
9.300000e-07	-3.759038e-06	-2.476416e-09	-2.683757e+01	-1.644825e+02
9.400000e-07	-3.726671e-06	-2.479174e-09	-2.660649e+01	-1.642294e+02
9.500000e-07	-3.693966e-06	-2.475244e-09	-2.637299e+01	-1.639732e+02
9.600000e-07	-3.661056e-06	-2.464604e-09	-2.613803e+01	-1.637139e+02
9.700000e-07	-3.627868e-06	-2.456859e-09	-2.590109e+01	-1.634516e+02
9.800000e-07	-3.594165e-06	-2.452941e-09	-2.566047e+01	-1.631863e+02
9.900000e-07	-3.559917e-06	-2.446764e-09	-2.541596e+01	-1.629181e+02
1.000000e-06	-3.525319e-06	-2.441459e-09	-2.516894e+01	-1.626469e+02
1.010000e-06	-3.490413e-06	-2.438870e-09	-2.491973e+01	-1.623726e+02
1.020000e-06	-3.455134e-06	-2.440561e-09	-2.466785e+01	-1.620951e+02
1.030000e-06	-3.419582e-06	-2.437154e-09	-2.441404e+01	-1.618144e+02
1.040000e-06	-3.383860e-06	-2.434213e-09	-2.415900e+01	-1.615303e+02
1.050000e-06	-3.348051e-06	-2.427496e-09	-2.390334e+01	-1.612426e+02
1.060000e-06	-3.312138e-06	-2.422169e-09	-2.364694e+01	-1.609511e+02
1.070000e-06	-3.276029e-06	-2.413070e-09	-2.338914e+01	-1.606558e+02
1.080000e-06	-3.239739e-06	-2.402689e-09	-2.313005e+01	-1.603565e+02
1.090000e-06	-3.203253e-06	-2.391963e-09	-2.286956e+01	-1.600530e+02
1.100000e-06	-3.166517e-06	-2.390693e-09	-2.260728e+01	-1.597451e+02
1.110000e-06	-3.129458e-06	-2.390421e-09	-2.234270e+01	-1.594328e+02
1.120000e-06	-3.092155e-06	-2.390036e-09	-2.207638e+01	-1.591159e+02
1.130000e-06	-3.054708e-06	-2.386797e-09	-2.180902e+01	-1.587943e+02
1.140000e-06	-3.017020e-06	-2.386242e-09	-2.153995e+01	-1.584679e+02
1.150000e-06	-2.979114e-06	-2.378854e-09	-2.126932e+01	-1.581367e+02
1.160000e-06	-2.940960e-06	-2.366733e-09	-2.099693e+01	-1.578006e+02
1.170000e-06	-2.902602e-06	-2.352271e-09	-2.072306e+01	-1.574595e+02
1.180000e-06	-2.864140e-06	-2.342216e-09	-2.044847e+01	-1.571133e+02
1.190000e-06	-2.825497e-06	-2.337560e-09	-2.017258e+01	-1.567620e+02
1.200000e-06	-2.786532e-06	-2.336927e-09	-1.989438e+01	-1.564056e+02
1.210000e-06	-2.747299e-06	-2.335746e-09	-1.961429e+01	-1.560438e+02
1.220000e-06	-2.707978e-06	-2.333754e-09	-1.933355e+01	-1.556767e+02
1.230000e-06	-2.668490e-06	-2.327980e-09	-1.905163e+01	-1.553040e+02
1.240000e-06	-2.628865e-06	-2.316645e-09	-1.876872e+01	-1.549256e+02
1.250000e-06	-2.589144e-06	-2.298935e-09	-1.848514e+01	-1.545413e+02
1.260000e-06	-2.549294e-06	-2.283574e-09	-1.820063e+01	-1.541507e+02
1.270000e-06	-2.509395e-06	-2.275678e-09	-1.791578e+01	-1.537537e+02
1.280000e-06	-2.469395e-06	-2.273053e-09	-1.763019e+01	-1.533499e+02
1.290000e-06	-2.429252e-06	-2.272300e-09	-1.734360e+01	-1.529388e+02
1.300000e-06	-2.389040e-06	-2.267644e-09	-1.705650e+01	-1.525200e+02
1.310000e-06	-2.348714e-06	-2.262455e-09	-1.676860e+01	-1.520930e+02
1.320000e-06	-2.308226e-06	-2.252262e-09	-1.647953e+01	-1.516573e+02
1.330000e-06	-2.267536e-06	-2.236043e-09	-1.618903e+01	-1.512123e+02
1.340000e-06	-2.226560e-06	-2.217525e-09	-1.589648e+01	-1.507573e+02
1.350000e-06	-2.185195e-06	-2.205409e-09	-1.560115e+01	-1.502917e+02
1.360000e-06	-2.143549e-06	-2.198499e-09	-1.530382e+01	-1.498149e+02
1.370000e-06	-2.101716e-06	-2.195252e-09	-1.500516e+01	-1.493261e+02
1.380000e-06	-2.059589e-06	-2.190750e-09	-1.470439e+01	-1.488247e+02
1.390000e-06	-2.017190e-06	-2.182997e-09	-1.440169e+01	-1.483099e+02
1.400000e-06	-1.974520e-06	-2.172742e-09	-1.409705e+01	-1.477811e+02
1.410000e-06	-1.931527e-06	-2.160323e-09	-1.379010e+01	-1.472376e+02
1.420000e-06	-1.888358e-06	-2.143749e-09	-1.348189e+01	-1.466788e+02
1.430000e-06	-1.845133e-06	-2.129072e-09	-1.317329e+01	-1.461040e+02
1.440000e-06	-1.801806e-06	-2.118448e-09	-1.286395e+01	-1.455128e+02
1.450000e-06	-1.758343e-06	-2.112392e-09	-1.255365e+01	-1.449045e+02
1.460000e-06	-1.714731e-06	-2.105206e-09	-1.224229e+01	-1.442788e+02
1.470000e-06	-1.671007e-06	-2.095472e-09	-1.193012e+01	-1.436351e+02
1.480000e-06	-1.627137e-06	-2.083215e-09	-1.161691e+01	-1.429732e+02
1.490000e-06	-1.583165e-06	-2.069952e-09	-1.130298e+01	-1.422926e+02
1.500000e-06	-1.539158e-06	-2.055732e-09	-1.098879e+01	-1.415931e+02
1.510000e-06	-1.495109e-06	-2.039667e-09	-1.067430e+01	-1.408744e+02
1.520000e-06	-1.451056e-06	-2.024423e-09	-1.035978e+01	-1.401363e+02
1.530000e-06	-1.406985e-06	-2.013561e-09	-1.004514e+01	-1.393786e+02
1.540000e-06	-1.362883e-06	-2.005061e-09	-9.730274e+00	-1.386012e+02
1.550000e-06	-1.318723e-06	-1.995969e-09	-9.414995e+00	-1.378038e+02
1.560000e-06	-1.274473e-06	-1.985856e-09	-9.099070e+00	-1.369862e+02
1.570000e-06	-1.230089e-06	-1.974752e-09	-8.782198e+00	-1.361481e+02
1.580000e-06	-1.185574e-06	-1.961276e-09	-8.464381e+00	-1.352894e+02
1.590000e-06	-1.141017e-06	-1.945733e-09	-8.146263e+00	-1.344097e+02
1.600000e-06	-1.096427e-06	-1.930752e-09	-7.827919e+00	-1.335086e+02
1.610000e-06	-1.051732e-06	-1.919106e-09	-7.508815e+00	-1.325856e+02
1.620000e-06	-1.006921e-06	-1.909390e-09	-7.188890e+00	-1.316402e+02
1.630000e-06	-9.620840e-07	-1.898231e-09	-6.868778e+00	-1.306718e+02
1.640000e-06	-9.172261e-07	-1.884794e-09	-6.548516e+00	-1.296794e+02
1.650000e-06	-8.723185e-07	-1.870642e-09	-6.227899e+00	-1.286624e+02
1.660000e-06	-8.273162e-07	-1.856779e-09	-5.906606e+00	-1.276197e+02
1.670000e-06	-7.821627e-07	-1.841153e-09	-5.584234e+00	-1.265501e+02
1.680000e-06	-7.369903e-07	-1.823566e-09	-5.261726e+00	-1.254525e+02
1.690000e-06	-6.917800e-07	-1.803470e-09	-4.938948e+00	-1.243255e+02
1.700000e-06	-6.464583e-07	-1.783349e-09	-4.615376e+00	-1.231677e+02
1.710000e-06	-6.010300e-07	-1.763661e-09	-4.291041e+00	-1.219775e+02
1.720000e-06	-5.555257e-07	-1.745124e-09	-3.966164e+00	-1.207532e+02
1.730000e-06	-5.100622e-07	-1.725631e-09	-3.641578e+00	-1.194931e+02
1.740000e-06	-4.645341e-07	-1.706835e-09	-3.316532e+00	-1.181955e+02
1.750000e-06	-4.189693e-07	-1.687595e-09	-2.991223e+00	-1.168584e+02
1.760000e-06	-3.734435e-07	-1.668053e-09	-2.666192e+00	-1.154801e+02
1.770000e-06	-3.278595e-07	-1.646369e-09	-2.340746e+00	-1.140586e+02
1.780000e-06	-2.822114e-07	-1.624987e-09	-2.014842e+00	-1.125920e+02
1.790000e-06	-2.365169e-07	-1.603302e-09	-1.688608e+00	-1.110785e+02
1.800000e-06	-1.908053e-07	-1.577513e-09	-1.362250e+00	-1.095162e+02
1.810000e-06	-1.451880e-07	-1.549986e-09	-1.036567e+00	-1.079035e+02
1.820000e-06	-9.962238e-08	-1.524472e-09	-7.112519e-01	-1.062386e+02
1.830000e-06	-5.396690e-08	-1.501443e-09	-3.852956e-01	-1.045200e+02
1.840000e-06	-8.281942e-09	-1.479592e-09	-5.912875e-02	-1.027462e+02
1.850000e-06	3.739836e-08	-1.454213e-09	2.670048e-01	-1.009159e+02
1.860000e-06	8.305394e-08	-1.424326e-09	5.929618e-01	-9.902780e+01
1.870000e-06	1.286948e-07	-1.392721e-09	9.188141e-01	-9.708097e+01
1.880000e-06	1.743924e-07	-1.359360e-09	1.245071e+00	-9.507448e+01
1.890000e-06	2.200483e-07	-1.323562e-09	1.571030e+00	-9.300760e+01
1.900000e-06	2.656230e-07	-1.288036e-09	1.896410e+00	-9.087974e+01
1.910000e-06	3.111580e-07	-1.255671e-09	2.221506e+00	-8.869050e+01
1.920000e-06	3.567180e-07	-1.225007e-09	2.546781e+00	-8.643963e+01
1.930000e-06	4.022724e-07	-1.193272e-09	2.872015e+00	-8.412704e+01
1.940000e-06	4.477459e-07	-1.158250e-09	3.196673e+00	-8.175281e+01
1.950000e-06	4.931831e-07	-1.122265e-09	3.521070e+00	-7.931713e+01
1.960000e-06	5.386033e-07	-1.085883e-09	3.845347e+00	-7.682037e+01
1.970000e-06	5.840228e-07	-1.048667e-09	4.169619e+00	-7.426299e+01
1.980000e-06	6.293434e-07	-1.007820e-09	4.493184e+00	-7.164560e+01
1.990000e-06	6.745916e-07	-9.656192e-10	4.816233e+00	-6.896891e+01
2.000000e-06	7.198355e-07	-9.244888e-10	5.139250e+00	-6.623376e+01
2.010000e-06	7.649880e-07	-8.837179e-10	5.461615e+00	-6.344104e+01
2.020000e-06	8.099910e-07	-8.399592e-10	5.782913e+00	-6.059177e+01
2.030000e-06	8.549008e-07	-7.934819e-10	6.103546e+00	-5.768704e+01
2.040000e-06	8.998426e-07	-7.476185e-10	6.424407e+00	-5.472802e+01
2.050000e-06	9.447630e-07	-7.040290e-10	6.745116e+00	-5.171594e+01
2.060000e-06	9.895840e-07	-6.618192e-10	7.065114e+00	-4.865214e+01
2.070000e-06	1.034329e-06	-6.189097e-10	7.384570e+00	-4.553801e+01
2.080000e-06	1.078986e-06	-5.742392e-10	7.703397e+00	-4.237502e+01
2.090000e-06	1.123508e-06	-5.293170e-10	8.021263e+00	-3.916473e+01
2.100000e-06	1.167949e-06	-4.836097e-10	8.338550e+00	-3.590880e+01
2.110000e-06	1.212329e-06	-4.338931e-10	8.655395e+00	-3.260897e+01
2.120000e-06	1.256623e-06	-3.800401e-10	8.971632e+00	-2.926708e+01
2.130000e-06	1.300854e-06	-3.256411e-10	9.287419e+00	-2.588511e+01
2.140000e-06	1.345021e-06	-2.720275e-10	9.602746e+00	-2.246514e+01
2.150000e-06	1.389135e-06	-2.204566e-10	9.917699e+00	-1.900941e+01
2.160000e-06	1.433187e-06	-1.720049e-10	1.023221e+01	-1.552027e+01
2.170000e-06	1.477170e-06	-1.250996e-10	1.054623e+01	-1.200025e+01
2.180000e-06	1.521123e-06	-7.466560e-11	1.086003e+01	-8.452047e+00
2.190000e-06	1.565051e-06	-1.890669e-11	1.117365e+01	-4.878506e+00
2.200000e-06	1.608923e-06	3.824205e-11	1.148687e+01	-1.282658e+00
2.210000e-06	1.652743e-06	9.461061e-11	1.179972e+01	2.332292e+00
2.220000e-06	1.696496e-06	1.496067e-10	1.211210e+01	5.962964e+00
2.230000e-06	1.740119e-06	2.048474e-10	1.242354e+01	9.605805e+00
2.240000e-06	1.783665e-06	2.589780e-10	1.273444e+01	1.325710e+01
2.250000e-06	1.827100e-06	3.110238e-10	1.304454e+01	1.691296e+01
2.260000e-06	1.870350e-06	3.617864e-10	1.335333e+01	2.056939e+01
2.270000e-06	1.913414e-06	4.135703e-10	1.366078e+01	2.422222e+01
2.280000e-06	1.956331e-06	4.669434e-10	1.396718e+01	2.786721e+01
2.290000e-06	1.998999e-06	5.203769e-10	1.427181e+01	3.150002e+01
2.300000e-06	2.041307e-06	5.743643e-10	1.457387e+01	3.511624e+01
2.310000e-06	2.083424e-06	6.293883e-10	1.487456e+01	3.871146e+01
2.320000e-06	2.125356e-06	6.831695e-10	1.517393e+01	4.228123e+01
2.330000e-06	2.167082e-06	7.352291e-10	1.547184e+01	4.582116e+01
2.340000e-06	2.208497e-06	7.853028e-10	1.576752e+01	4.932692e+01
2.350000e-06	2.249515e-06	8.345022e-10	1.606036e+01	5.279425e+01
2.360000e-06	2.290303e-06	8.837114e-10	1.635157e+01	5.621907e+01
2.370000e-06	2.330925e-06	9.317662e-10	1.664159e+01	5.959742e+01
2.380000e-06	2.371337e-06	9.776280e-10	1.693011e+01	6.292555e+01
2.390000e-06	2.411629e-06	1.023341e-09	1.721778e+01	6.619995e+01
2.400000e-06	2.451805e-06	1.069497e-09	1.750461e+01	6.941736e+01
2.410000e-06	2.491831e-06	1.113933e-09	1.779038e+01	7.257478e+01
2.420000e-06	2.531746e-06	1.156428e-09	1.807535e+01	7.566953e+01
2.430000e-06	2.571568e-06	1.200718e-09	1.835965e+01	7.869926e+01
2.440000e-06	2.611344e-06	1.246874e-09	1.864364e+01	8.166192e+01
2.450000e-06	2.651011e-06	1.289584e-09	1.892684e+01	8.455582e+01
2.460000e-06	2.690487e-06	1.328600e-09	1.920867e+01	8.737963e+01
2.470000e-06	2.729799e-06	1.365004e-09	1.948934e+01	9.013234e+01
2.480000e-06	2.768994e-06	1.400603e-09	1.976917e+01	9.281331e+01
2.490000e-06	2.807889e-06	1.434167e-09	2.004686e+01	9.542220e+01
2.500000e-06	2.846445e-06	1.468554e-09	2.032214e+01	9.795902e+01
2.510000e-06	2.884839e-06	1.507827e-09	2.059624e+01	1.004241e+02
2.520000e-06	2.923130e-06	1.549045e-09	2.086963e+01	1.028179e+02
2.530000e-06	2.961284e-06	1.585961e-09	2.114202e+01	1.051414e+02
2.540000e-06	2.999221e-06	1.615759e-09	2.141288e+01	1.073955e+02
2.550000e-06	3.036916e-06	1.643951e-09	2.168200e+01	1.095816e+02
2.560000e-06	3.074447e-06	1.673037e-09	2.194995e+01	1.117011e+02
2.570000e-06	3.111788e-06	1.700245e-09	2.221655e+01	1.137555e+02
2.580000e-06	3.148894e-06	1.726685e-09	2.248146e+01	1.157465e+02
2.590000e-06	3.185745e-06	1.755927e-09	2.274456e+01	1.176758e+02
2.600000e-06	3.222354e-06	1.788270e-09	2.300593e+01	1.195451e+02
2.610000e-06	3.258751e-06	1.819234e-09	2.326578e+01	1.213563e+02
2.620000e-06	3.294887e-06	1.846249e-09	2.352378e+01	1.231111e+02
2.630000e-06	3.330862e-06	1.871575e-09	2.378062e+01	1.248112e+02
2.640000e-06	3.366767e-06	1.895885e-09	2.403696e+01	1.264582e+02
2.650000e-06	3.402565e-06	1.916462e-09	2.429254e+01	1.280538e+02
2.660000e-06	3.438194e-06	1.933689e-09	2.454691e+01	1.295993e+02
2.670000e-06	3.473614e-06	1.952803e-09	2.479980e+01	1.310961e+02
2.680000e-06	3.508810e-06	1.974836e-09	2.505108e+01	1.325455e+02
2.690000e-06	3.543729e-06	1.997355e-09	2.530038e+01	1.339486e+02
2.700000e-06	3.578151e-06	2.018780e-09	2.554613e+01	1.353064e+02
2.710000e-06	3.611990e-06	2.037893e-09	2.578773e+01	1.366198e+02
2.720000e-06	3.645376e-06	2.056559e-09	2.602608e+01	1.378896e+02
2.730000e-06	3.678413e-06	2.075274e-09	2.626195e+01	1.391165e+02
2.740000e-06	3.711116e-06	2.089782e-09	2.649544e+01	1.403012e+02
2.750000e-06	3.743551e-06	2.102996e-09	2.672700e+01	1.414442e+02
2.760000e-06	3.775779e-06	2.119213e-09	2.695710e+01	1.425461e+02
2.770000e-06	3.807797e-06	2.136953e-09	2.718568e+01	1.436074e+02
2.780000e-06	3.839639e-06	2.153101e-09	2.741302e+01	1.446286e+02
2.790000e-06	3.871279e-06	2.166648e-09	2.763892e+01	1.456103e+02
2.800000e-06	3.902736e-06	2.180336e-09	2.786350e+01	1.465531e+02
2.810000e-06	3.934061e-06	2.195299e-09	2.808714e+01	1.474575e+02
2.820000e-06	3.965062e-06	2.207204e-09	2.830848e+01	1.483244e+02
2.830000e-06	3.995661e-06	2.214816e-09	2.852694e+01	1.491544e+02
2.840000e-06	4.025981e-06	2.223411e-09	2.874341e+01	1.499486e+02
2.850000e-06	4.055997e-06	2.236962e-09	2.895770e+01	1.507077e+02
2.860000e-06	4.085757e-06	2.252943e-09	2.917017e+01	1.514331e+02
2.870000e-06	4.115333e-06	2.265609e-09	2.938134e+01	1.521258e+02
2.880000e-06	4.144659e-06	2.274729e-09	2.959070e+01	1.527871e+02
2.890000e-06	4.173687e-06	2.282850e-09	2.979795e+01	1.534184e+02
2.900000e-06	4.202453e-06	2.290180e-09	3.000332e+01	1.540213e+02
