# Temperatura_=_12.3
# Concentracion g/m^3_=_4090.0
# C_Vs_to_Am_M_A/Vsm_=_65563218390.804596
# pendiente_HvsI_1/m_=_3716.3
# ordenada_HvsI_A/m_=_1297.0
# frecuencia_Hz_=_135084.33717269

Tiempo_(s)	Campo_(V.s)	Magnetizacion_(V.s)	Campo_(kA/m)	Magnetizacion_(A/m)
0.000000e+00	-5.419131e-06	-2.631371e-09	-3.839190e+01	-1.690243e+02
1.000000e-08	-5.419274e-06	-2.631712e-09	-3.839291e+01	-1.689658e+02
2.000000e-08	-5.419221e-06	-2.633322e-09	-3.839254e+01	-1.689109e+02
3.000000e-08	-5.418949e-06	-2.633905e-09	-3.839061e+01	-1.688613e+02
4.000000e-08	-5.418395e-06	-2.633461e-09	-3.838669e+01	-1.688189e+02
5.000000e-08	-5.417281e-06	-2.632081e-09	-3.837879e+01	-1.687853e+02
6.000000e-08	-5.415517e-06	-2.642786e-09	-3.836630e+01	-1.687621e+02
7.000000e-08	-5.413130e-06	-2.650487e-09	-3.834939e+01	-1.687509e+02
8.000000e-08	-5.410100e-06	-2.601097e-09	-3.832792e+01	-1.687531e+02
9.000000e-08	-5.406563e-06	-2.558177e-09	-3.830286e+01	-1.687699e+02
1.000000e-07	-5.402636e-06	-2.642978e-09	-3.827505e+01	-1.688024e+02
1.100000e-07	-5.398364e-06	-2.745100e-09	-3.824478e+01	-1.688512e+02
1.200000e-07	-5.393838e-06	-2.609725e-09	-3.821271e+01	-1.689171e+02
1.300000e-07	-5.389156e-06	-2.512653e-09	-3.817954e+01	-1.690002e+02
1.400000e-07	-5.384132e-06	-2.593607e-09	-3.814395e+01	-1.691006e+02
1.500000e-07	-5.378589e-06	-2.739451e-09	-3.810468e+01	-1.692180e+02
1.600000e-07	-5.372701e-06	-2.598360e-09	-3.806297e+01	-1.693518e+02
1.700000e-07	-5.366594e-06	-2.457568e-09	-3.801970e+01	-1.695011e+02
1.800000e-07	-5.360027e-06	-2.590905e-09	-3.797318e+01	-1.696648e+02
1.900000e-07	-5.352928e-06	-2.727737e-09	-3.792288e+01	-1.698416e+02
2.000000e-07	-5.345505e-06	-2.630006e-09	-3.787030e+01	-1.700298e+02
2.100000e-07	-5.337960e-06	-2.535238e-09	-3.781685e+01	-1.702275e+02
2.200000e-07	-5.330322e-06	-2.655620e-09	-3.776273e+01	-1.704327e+02
2.300000e-07	-5.322217e-06	-2.673386e-09	-3.770531e+01	-1.706432e+02
2.400000e-07	-5.313753e-06	-2.581384e-09	-3.764535e+01	-1.708567e+02
2.500000e-07	-5.305054e-06	-2.595768e-09	-3.758372e+01	-1.710707e+02
2.600000e-07	-5.295530e-06	-2.740228e-09	-3.751625e+01	-1.712828e+02
2.700000e-07	-5.285300e-06	-2.673860e-09	-3.744377e+01	-1.714906e+02
2.800000e-07	-5.274728e-06	-2.599653e-09	-3.736887e+01	-1.716917e+02
2.900000e-07	-5.263548e-06	-2.691033e-09	-3.728967e+01	-1.718836e+02
3.000000e-07	-5.251807e-06	-2.740368e-09	-3.720649e+01	-1.720641e+02
3.100000e-07	-5.239679e-06	-2.589833e-09	-3.712057e+01	-1.722311e+02
3.200000e-07	-5.227185e-06	-2.589385e-09	-3.703206e+01	-1.723827e+02
3.300000e-07	-5.214265e-06	-2.719095e-09	-3.694053e+01	-1.725172e+02
3.400000e-07	-5.201050e-06	-2.707028e-09	-3.684690e+01	-1.726331e+02
3.500000e-07	-5.187606e-06	-2.603689e-09	-3.675166e+01	-1.727290e+02
3.600000e-07	-5.173739e-06	-2.655910e-09	-3.665342e+01	-1.728041e+02
3.700000e-07	-5.159403e-06	-2.680194e-09	-3.655186e+01	-1.728574e+02
3.800000e-07	-5.144674e-06	-2.622626e-09	-3.644750e+01	-1.728887e+02
3.900000e-07	-5.129361e-06	-2.609423e-09	-3.633902e+01	-1.728976e+02
4.000000e-07	-5.113369e-06	-2.636434e-09	-3.622572e+01	-1.728843e+02
4.100000e-07	-5.096894e-06	-2.600581e-09	-3.610901e+01	-1.728491e+02
4.200000e-07	-5.080011e-06	-2.618118e-09	-3.598940e+01	-1.727924e+02
4.300000e-07	-5.062934e-06	-2.678996e-09	-3.586842e+01	-1.727152e+02
4.400000e-07	-5.045604e-06	-2.627502e-09	-3.574564e+01	-1.726182e+02
4.500000e-07	-5.027961e-06	-2.573431e-09	-3.562066e+01	-1.725027e+02
4.600000e-07	-5.010011e-06	-2.608348e-09	-3.549349e+01	-1.723700e+02
4.700000e-07	-4.991584e-06	-2.628989e-09	-3.536294e+01	-1.722213e+02
4.800000e-07	-4.972817e-06	-2.572883e-09	-3.522998e+01	-1.720582e+02
4.900000e-07	-4.953687e-06	-2.574320e-09	-3.509446e+01	-1.718822e+02
5.000000e-07	-4.934104e-06	-2.598573e-09	-3.495572e+01	-1.716947e+02
5.100000e-07	-4.914261e-06	-2.616384e-09	-3.481514e+01	-1.714974e+02
5.200000e-07	-4.894275e-06	-2.606471e-09	-3.467356e+01	-1.712916e+02
5.300000e-07	-4.874072e-06	-2.593256e-09	-3.453042e+01	-1.710788e+02
5.400000e-07	-4.853606e-06	-2.562661e-09	-3.438543e+01	-1.708604e+02
5.500000e-07	-4.832843e-06	-2.585136e-09	-3.423834e+01	-1.706375e+02
5.600000e-07	-4.811627e-06	-2.586723e-09	-3.408803e+01	-1.704114e+02
5.700000e-07	-4.789939e-06	-2.559818e-09	-3.393438e+01	-1.701829e+02
5.800000e-07	-4.767984e-06	-2.547129e-09	-3.377884e+01	-1.699529e+02
5.900000e-07	-4.745857e-06	-2.579240e-09	-3.362208e+01	-1.697222e+02
6.000000e-07	-4.723498e-06	-2.581479e-09	-3.346368e+01	-1.694913e+02
6.100000e-07	-4.700735e-06	-2.569531e-09	-3.330242e+01	-1.692605e+02
6.200000e-07	-4.677579e-06	-2.547163e-09	-3.313837e+01	-1.690303e+02
6.300000e-07	-4.654065e-06	-2.540463e-09	-3.297178e+01	-1.688006e+02
6.400000e-07	-4.630239e-06	-2.550381e-09	-3.280298e+01	-1.685716e+02
6.500000e-07	-4.606293e-06	-2.558219e-09	-3.263334e+01	-1.683433e+02
6.600000e-07	-4.582190e-06	-2.532676e-09	-3.246258e+01	-1.681153e+02
6.700000e-07	-4.557840e-06	-2.523703e-09	-3.229008e+01	-1.678875e+02
6.800000e-07	-4.533055e-06	-2.540006e-09	-3.211449e+01	-1.676596e+02
6.900000e-07	-4.507751e-06	-2.537701e-09	-3.193522e+01	-1.674312e+02
7.000000e-07	-4.481903e-06	-2.512789e-09	-3.175210e+01	-1.672020e+02
7.100000e-07	-4.455527e-06	-2.500810e-09	-3.156523e+01	-1.669716e+02
7.200000e-07	-4.428659e-06	-2.511269e-09	-3.137489e+01	-1.667396e+02
7.300000e-07	-4.401275e-06	-2.521217e-09	-3.118089e+01	-1.665056e+02
7.400000e-07	-4.373580e-06	-2.515463e-09	-3.098468e+01	-1.662694e+02
7.500000e-07	-4.345734e-06	-2.491304e-09	-3.078741e+01	-1.660306e+02
7.600000e-07	-4.317783e-06	-2.485666e-09	-3.058939e+01	-1.657890e+02
7.700000e-07	-4.289690e-06	-2.491315e-09	-3.039036e+01	-1.655444e+02
7.800000e-07	-4.261364e-06	-2.485721e-09	-3.018969e+01	-1.652966e+02
7.900000e-07	-4.232718e-06	-2.465467e-09	-2.998674e+01	-1.650455e+02
8.000000e-07	-4.203712e-06	-2.469633e-09	-2.978125e+01	-1.647911e+02
8.100000e-07	-4.174351e-06	-2.479981e-09	-2.957324e+01	-1.645333e+02
8.200000e-07	-4.144631e-06	-2.482369e-09	-2.936269e+01	-1.642722e+02
8.300000e-07	-4.114620e-06	-2.463765e-09	-2.915008e+01	-1.640078e+02
8.400000e-07	-4.084467e-06	-2.453354e-09	-2.893646e+01	-1.637403e+02
8.500000e-07	-4.054170e-06	-2.451305e-09	-2.872182e+01	-1.634696e+02
8.600000e-07	-4.023512e-06	-2.451043e-09	-2.850462e+01	-1.631959e+02
8.700000e-07	-3.992519e-06	-2.433760e-09	-2.828505e+01	-1.629193e+02
8.800000e-07	-3.961369e-06	-2.423176e-09	-2.806437e+01	-1.626399e+02
8.900000e-07	-3.929997e-06	-2.424359e-09	-2.784212e+01	-1.623576e+02
9.000000e-07	-3.898366e-06	-2.434417e-09	-2.761803e+01	-1.620726e+02
9.100000e-07	-3.866537e-06	-2.426549e-09	-2.739253e+01	-1.617848e+02
9.200000e-07	-3.834529e-06	-2.414089e-09	-2.716577e+01	-1.614941e+02
9.300000e-07	-3.802308e-06	-2.410930e-09	-2.693750e+01	-1.612005e+02
9.400000e-07	-3.769823e-06	-2.418568e-09	-2.670736e+01	-1.609039e+02
9.500000e-07	-3.737090e-06	-2.414418e-09	-2.647546e+01	-1.606039e+02
9.600000e-07	-3.704008e-06	-2.400859e-09	-2.624109e+01	-1.603004e+02
9.700000e-07	-3.670488e-06	-2.393462e-09	-2.600362e+01	-1.599931e+02
9.800000e-07	-3.636465e-06	-2.397334e-09	-2.576258e+01	-1.596818e+02
9.900000e-07	-3.601999e-06	-2.394509e-09	-2.551841e+01	-1.593660e+02
1.000000e-06	-3.567197e-06	-2.379575e-09	-2.527185e+01	-1.590455e+02
1.010000e-06	-3.532011e-06	-2.370697e-09	-2.502258e+01	-1.587199e+02
1.020000e-06	-3.496526e-06	-2.373694e-09	-2.477118e+01	-1.583889e+02
1.030000e-06	-3.460799e-06	-2.374443e-09	-2.451808e+01	-1.580520e+02
1.040000e-06	-3.424908e-06	-2.362132e-09	-2.426380e+01	-1.577090e+02
1.050000e-06	-3.388903e-06	-2.350795e-09	-2.400872e+01	-1.573597e+02
1.060000e-06	-3.352765e-06	-2.346166e-09	-2.375270e+01	-1.570037e+02
1.070000e-06	-3.316453e-06	-2.344858e-09	-2.349545e+01	-1.566408e+02
1.080000e-06	-3.279899e-06	-2.330226e-09	-2.323648e+01	-1.562710e+02
1.090000e-06	-3.243069e-06	-2.312769e-09	-2.297556e+01	-1.558940e+02
1.100000e-06	-3.206059e-06	-2.304651e-09	-2.271337e+01	-1.555100e+02
1.110000e-06	-3.168854e-06	-2.306812e-09	-2.244978e+01	-1.551189e+02
1.120000e-06	-3.131405e-06	-2.301723e-09	-2.218448e+01	-1.547208e+02
1.130000e-06	-3.093821e-06	-2.295423e-09	-2.191821e+01	-1.543158e+02
1.140000e-06	-3.056021e-06	-2.290785e-09	-2.165042e+01	-1.539041e+02
1.150000e-06	-3.017949e-06	-2.288866e-09	-2.138070e+01	-1.534860e+02
1.160000e-06	-2.979661e-06	-2.278907e-09	-2.110945e+01	-1.530617e+02
1.170000e-06	-2.941200e-06	-2.262597e-09	-2.083697e+01	-1.526315e+02
1.180000e-06	-2.902536e-06	-2.245387e-09	-2.056305e+01	-1.521956e+02
1.190000e-06	-2.863598e-06	-2.239520e-09	-2.028720e+01	-1.517544e+02
1.200000e-06	-2.824397e-06	-2.236988e-09	-2.000948e+01	-1.513081e+02
1.210000e-06	-2.785052e-06	-2.231892e-09	-1.973073e+01	-1.508569e+02
1.220000e-06	-2.745487e-06	-2.222294e-09	-1.945044e+01	-1.504010e+02
1.230000e-06	-2.705700e-06	-2.217104e-09	-1.916857e+01	-1.499404e+02
1.240000e-06	-2.665853e-06	-2.210192e-09	-1.888627e+01	-1.494753e+02
1.250000e-06	-2.625918e-06	-2.197565e-09	-1.860335e+01	-1.490055e+02
1.260000e-06	-2.585905e-06	-2.183084e-09	-1.831987e+01	-1.485310e+02
1.270000e-06	-2.545776e-06	-2.171522e-09	-1.803558e+01	-1.480514e+02
1.280000e-06	-2.505531e-06	-2.165368e-09	-1.775046e+01	-1.475663e+02
1.290000e-06	-2.465271e-06	-2.159077e-09	-1.746524e+01	-1.470754e+02
1.300000e-06	-2.424896e-06	-2.150112e-09	-1.717920e+01	-1.465779e+02
1.310000e-06	-2.384297e-06	-2.142429e-09	-1.689158e+01	-1.460733e+02
1.320000e-06	-2.343401e-06	-2.138541e-09	-1.660185e+01	-1.455607e+02
1.330000e-06	-2.302144e-06	-2.129020e-09	-1.630957e+01	-1.450392e+02
1.340000e-06	-2.260575e-06	-2.114979e-09	-1.601507e+01	-1.445078e+02
1.350000e-06	-2.218809e-06	-2.101941e-09	-1.571918e+01	-1.439656e+02
1.360000e-06	-2.176783e-06	-2.095587e-09	-1.542145e+01	-1.434113e+02
1.370000e-06	-2.134430e-06	-2.090774e-09	-1.512140e+01	-1.428440e+02
1.380000e-06	-2.091765e-06	-2.083359e-09	-1.481913e+01	-1.422623e+02
1.390000e-06	-2.048814e-06	-2.070366e-09	-1.451485e+01	-1.416652e+02
1.400000e-06	-2.005679e-06	-2.058281e-09	-1.420925e+01	-1.410515e+02
1.410000e-06	-1.962432e-06	-2.047910e-09	-1.390287e+01	-1.404201e+02
1.420000e-06	-1.919126e-06	-2.036821e-09	-1.359607e+01	-1.397700e+02
1.430000e-06	-1.875666e-06	-2.022238e-09	-1.328818e+01	-1.391001e+02
1.440000e-06	-1.832002e-06	-2.011320e-09	-1.297884e+01	-1.384097e+02
1.450000e-06	-1.788244e-06	-2.003217e-09	-1.266884e+01	-1.376978e+02
1.460000e-06	-1.744497e-06	-1.993810e-09	-1.235891e+01	-1.369639e+02
1.470000e-06	-1.700719e-06	-1.981714e-09	-1.204876e+01	-1.362073e+02
1.480000e-06	-1.656796e-06	-1.967497e-09	-1.173759e+01	-1.354275e+02
1.490000e-06	-1.612707e-06	-1.953537e-09	-1.142524e+01	-1.346242e+02
1.500000e-06	-1.568570e-06	-1.940069e-09	-1.111255e+01	-1.337973e+02
1.510000e-06	-1.524356e-06	-1.925585e-09	-1.079932e+01	-1.329465e+02
1.520000e-06	-1.480107e-06	-1.912708e-09	-1.048584e+01	-1.320718e+02
1.530000e-06	-1.435809e-06	-1.902160e-09	-1.017201e+01	-1.311732e+02
1.540000e-06	-1.391382e-06	-1.895443e-09	-9.857264e+00	-1.302509e+02
1.550000e-06	-1.346853e-06	-1.885066e-09	-9.541793e+00	-1.293051e+02
1.560000e-06	-1.302331e-06	-1.869199e-09	-9.226383e+00	-1.283359e+02
1.570000e-06	-1.257866e-06	-1.853894e-09	-8.911365e+00	-1.273434e+02
1.580000e-06	-1.213213e-06	-1.838553e-09	-8.595021e+00	-1.263278e+02
1.590000e-06	-1.168312e-06	-1.821972e-09	-8.276920e+00	-1.252893e+02
1.600000e-06	-1.123210e-06	-1.804143e-09	-7.957395e+00	-1.242278e+02
1.610000e-06	-1.078005e-06	-1.785074e-09	-7.637141e+00	-1.231432e+02
1.620000e-06	-1.032824e-06	-1.769767e-09	-7.317055e+00	-1.220354e+02
1.630000e-06	-9.876593e-07	-1.756896e-09	-6.997085e+00	-1.209040e+02
1.640000e-06	-9.423094e-07	-1.742277e-09	-6.675803e+00	-1.197484e+02
1.650000e-06	-8.968253e-07	-1.724085e-09	-6.353570e+00	-1.185679e+02
1.660000e-06	-8.514101e-07	-1.704402e-09	-6.031826e+00	-1.173617e+02
1.670000e-06	-8.058983e-07	-1.687169e-09	-5.709396e+00	-1.161286e+02
1.680000e-06	-7.602077e-07	-1.666641e-09	-5.385701e+00	-1.148673e+02
1.690000e-06	-7.145466e-07	-1.640519e-09	-5.062214e+00	-1.135763e+02
1.700000e-06	-6.689494e-07	-1.614812e-09	-4.739181e+00	-1.122539e+02
1.710000e-06	-6.232709e-07	-1.595405e-09	-4.415571e+00	-1.108982e+02
1.720000e-06	-5.775497e-07	-1.577230e-09	-4.091658e+00	-1.095071e+02
1.730000e-06	-5.317429e-07	-1.558100e-09	-3.767139e+00	-1.080784e+02
1.740000e-06	-4.858391e-07	-1.539109e-09	-3.441933e+00	-1.066096e+02
1.750000e-06	-4.399354e-07	-1.518719e-09	-3.116728e+00	-1.050983e+02
1.760000e-06	-3.940133e-07	-1.495199e-09	-2.791392e+00	-1.035420e+02
1.770000e-06	-3.480484e-07	-1.469314e-09	-2.465753e+00	-1.019380e+02
1.780000e-06	-3.020477e-07	-1.439713e-09	-2.139861e+00	-1.002838e+02
1.790000e-06	-2.560659e-07	-1.414004e-09	-1.814102e+00	-9.857683e+01
1.800000e-06	-2.100060e-07	-1.389702e-09	-1.487790e+00	-9.681454e+01
1.810000e-06	-1.639022e-07	-1.363911e-09	-1.161167e+00	-9.499458e+01
1.820000e-06	-1.179201e-07	-1.337385e-09	-8.354061e-01	-9.311469e+01
1.830000e-06	-7.191657e-08	-1.310580e-09	-5.094939e-01	-9.117283e+01
1.840000e-06	-2.593324e-08	-1.281971e-09	-1.837244e-01	-8.916715e+01
1.850000e-06	1.995716e-08	-1.247688e-09	1.413867e-01	-8.709604e+01
1.860000e-06	6.582693e-08	-1.207092e-09	4.663517e-01	-8.495819e+01
1.870000e-06	1.116961e-07	-1.166577e-09	7.913122e-01	-8.275256e+01
1.880000e-06	1.575735e-07	-1.132141e-09	1.116332e+00	-8.047844e+01
1.890000e-06	2.034655e-07	-1.102549e-09	1.441454e+00	-7.813545e+01
1.900000e-06	2.494533e-07	-1.070727e-09	1.767255e+00	-7.572354e+01
1.910000e-06	2.954667e-07	-1.035559e-09	2.093237e+00	-7.324300e+01
1.920000e-06	3.413487e-07	-9.977975e-10	2.418289e+00	-7.069448e+01
1.930000e-06	3.871489e-07	-9.566912e-10	2.742761e+00	-6.807896e+01
1.940000e-06	4.330147e-07	-9.129359e-10	3.067698e+00	-6.539773e+01
1.950000e-06	4.789217e-07	-8.686659e-10	3.392927e+00	-6.265241e+01
1.960000e-06	5.247306e-07	-8.285523e-10	3.717460e+00	-5.984489e+01
1.970000e-06	5.705613e-07	-7.927128e-10	4.042148e+00	-5.697734e+01
1.980000e-06	6.162931e-07	-7.551487e-10	4.366136e+00	-5.405218e+01
1.990000e-06	6.618120e-07	-7.112843e-10	4.688616e+00	-5.107202e+01
2.000000e-06	7.073531e-07	-6.648606e-10	5.011252e+00	-4.803966e+01
2.010000e-06	7.528729e-07	-6.170643e-10	5.333738e+00	-4.495807e+01
2.020000e-06	7.982736e-07	-5.661046e-10	5.655379e+00	-4.183032e+01
2.030000e-06	8.436529e-07	-5.147647e-10	5.976869e+00	-3.865955e+01
2.040000e-06	8.890280e-07	-4.677055e-10	6.298330e+00	-3.544900e+01
2.050000e-06	9.343202e-07	-4.252709e-10	6.619203e+00	-3.220189e+01
2.060000e-06	9.795717e-07	-3.833537e-10	6.939788e+00	-2.892148e+01
2.070000e-06	1.024708e-06	-3.375343e-10	7.259559e+00	-2.561098e+01
2.080000e-06	1.069749e-06	-2.891492e-10	7.578650e+00	-2.227357e+01
2.090000e-06	1.114747e-06	-2.408817e-10	7.897442e+00	-1.891236e+01
2.100000e-06	1.159614e-06	-1.931057e-10	8.215299e+00	-1.553038e+01
2.110000e-06	1.204378e-06	-1.412910e-10	8.532431e+00	-1.213059e+01
2.120000e-06	1.249052e-06	-8.522371e-11	8.848925e+00	-8.715828e+00
2.130000e-06	1.293730e-06	-3.251164e-11	9.165443e+00	-5.288870e+00
2.140000e-06	1.338363e-06	1.649808e-11	9.481650e+00	-1.852376e+00
2.150000e-06	1.382849e-06	6.841186e-11	9.796814e+00	1.591077e+00
2.160000e-06	1.427247e-06	1.218582e-10	1.011135e+01	5.038994e+00
2.170000e-06	1.471525e-06	1.723824e-10	1.042504e+01	8.488952e+00
2.180000e-06	1.515677e-06	2.200227e-10	1.073783e+01	1.193859e+01
2.190000e-06	1.559781e-06	2.707931e-10	1.105029e+01	1.538559e+01
2.200000e-06	1.603848e-06	3.245342e-10	1.136248e+01	1.882767e+01
2.210000e-06	1.647841e-06	3.766151e-10	1.167415e+01	2.226255e+01
2.220000e-06	1.691807e-06	4.262743e-10	1.198563e+01	2.568797e+01
2.230000e-06	1.735777e-06	4.770419e-10	1.229713e+01	2.910166e+01
2.240000e-06	1.779667e-06	5.309437e-10	1.260807e+01	3.250129e+01
2.250000e-06	1.823408e-06	5.830797e-10	1.291795e+01	3.588454e+01
2.260000e-06	1.867044e-06	6.306891e-10	1.322710e+01	3.924902e+01
2.270000e-06	1.910581e-06	6.778873e-10	1.353554e+01	4.259229e+01
2.280000e-06	1.953932e-06	7.264698e-10	1.384266e+01	4.591186e+01
2.290000e-06	1.997182e-06	7.736155e-10	1.414906e+01	4.920519e+01
2.300000e-06	2.040345e-06	8.184058e-10	1.445485e+01	5.246969e+01
2.310000e-06	2.083226e-06	8.645709e-10	1.475864e+01	5.570275e+01
2.320000e-06	2.125751e-06	9.137150e-10	1.505991e+01	5.890169e+01
2.330000e-06	2.167939e-06	9.625034e-10	1.535879e+01	6.206386e+01
2.340000e-06	2.209986e-06	1.007700e-09	1.565667e+01	6.518657e+01
2.350000e-06	2.251782e-06	1.051653e-09	1.595278e+01	6.826719e+01
2.360000e-06	2.293119e-06	1.098028e-09	1.624563e+01	7.130310e+01
2.370000e-06	2.334162e-06	1.142572e-09	1.653640e+01	7.429176e+01
2.380000e-06	2.375008e-06	1.181565e-09	1.682578e+01	7.723073e+01
2.390000e-06	2.415577e-06	1.219676e-09	1.711318e+01	8.011767e+01
2.400000e-06	2.455957e-06	1.259586e-09	1.739926e+01	8.295040e+01
2.410000e-06	2.496304e-06	1.299125e-09	1.768510e+01	8.572688e+01
2.420000e-06	2.536492e-06	1.338103e-09	1.796981e+01	8.844527e+01
2.430000e-06	2.576491e-06	1.378259e-09	1.825318e+01	9.110394e+01
2.440000e-06	2.616449e-06	1.424557e-09	1.853626e+01	9.370149e+01
2.450000e-06	2.656337e-06	1.468850e-09	1.881885e+01	9.623674e+01
2.460000e-06	2.696154e-06	1.503266e-09	1.910094e+01	9.870879e+01
2.470000e-06	2.735811e-06	1.532525e-09	1.938189e+01	1.011170e+02
2.480000e-06	2.775238e-06	1.561927e-09	1.966121e+01	1.034610e+02
2.490000e-06	2.814500e-06	1.590304e-09	1.993936e+01	1.057406e+02
2.500000e-06	2.853547e-06	1.616898e-09	2.021599e+01	1.079560e+02
2.510000e-06	2.892366e-06	1.648270e-09	2.049101e+01	1.101076e+02
2.520000e-06	2.930985e-06	1.688028e-09	2.076460e+01	1.121960e+02
2.530000e-06	2.969397e-06	1.726615e-09	2.103673e+01	1.142222e+02
2.540000e-06	3.007525e-06	1.753803e-09	2.130685e+01	1.161871e+02
2.550000e-06	3.045418e-06	1.774182e-09	2.157530e+01	1.180921e+02
2.560000e-06	3.083207e-06	1.796859e-09	2.184302e+01	1.199385e+02
2.570000e-06	3.120866e-06	1.821694e-09	2.210982e+01	1.217279e+02
2.580000e-06	3.158289e-06	1.844862e-09	2.237494e+01	1.234620e+02
2.590000e-06	3.195442e-06	1.869418e-09	2.263815e+01	1.251425e+02
2.600000e-06	3.232442e-06	1.900827e-09	2.290028e+01	1.267711e+02
2.610000e-06	3.269198e-06	1.932308e-09	2.316068e+01	1.283496e+02
2.620000e-06	3.305700e-06	1.955042e-09	2.341927e+01	1.298798e+02
2.630000e-06	3.342020e-06	1.972887e-09	2.367658e+01	1.313634e+02
2.640000e-06	3.378146e-06	1.992218e-09	2.393252e+01	1.328021e+02
2.650000e-06	3.414189e-06	2.012366e-09	2.418786e+01	1.341975e+02
2.660000e-06	3.450150e-06	2.027811e-09	2.444263e+01	1.355510e+02
2.670000e-06	3.485970e-06	2.042664e-09	2.469640e+01	1.368640e+02
2.680000e-06	3.521575e-06	2.061640e-09	2.494865e+01	1.381377e+02
2.690000e-06	3.556950e-06	2.085370e-09	2.519926e+01	1.393732e+02
2.700000e-06	3.592045e-06	2.105676e-09	2.544789e+01	1.405716e+02
2.710000e-06	3.626667e-06	2.118274e-09	2.569317e+01	1.417335e+02
2.720000e-06	3.660810e-06	2.133033e-09	2.593505e+01	1.428597e+02
2.730000e-06	3.694492e-06	2.151979e-09	2.617367e+01	1.439509e+02
2.740000e-06	3.727775e-06	2.167249e-09	2.640947e+01	1.450073e+02
2.750000e-06	3.760733e-06	2.176397e-09	2.664296e+01	1.460295e+02
2.760000e-06	3.793388e-06	2.186668e-09	2.687430e+01	1.470177e+02
2.770000e-06	3.825741e-06	2.205037e-09	2.710351e+01	1.479721e+02
2.780000e-06	3.857784e-06	2.224100e-09	2.733052e+01	1.488930e+02
2.790000e-06	3.889683e-06	2.235859e-09	2.755651e+01	1.497805e+02
2.800000e-06	3.921497e-06	2.246038e-09	2.778189e+01	1.506349e+02
2.810000e-06	3.953103e-06	2.259845e-09	2.800581e+01	1.514563e+02
2.820000e-06	3.984369e-06	2.271879e-09	2.822731e+01	1.522450e+02
2.830000e-06	4.015415e-06	2.276230e-09	2.844725e+01	1.530014e+02
2.840000e-06	4.046293e-06	2.277655e-09	2.866601e+01	1.537259e+02
2.850000e-06	4.076802e-06	2.285808e-09	2.888215e+01	1.544190e+02
2.860000e-06	4.106975e-06	2.301720e-09	2.909592e+01	1.550813e+02
2.870000e-06	4.136822e-06	2.318560e-09	2.930737e+01	1.557135e+02
2.880000e-06	4.166388e-06	2.331207e-09	2.951683e+01	1.563165e+02
2.890000e-06	4.195767e-06	2.338688e-09	2.972496e+01	1.568913e+02
2.900000e-06	4.224812e-06	2.342935e-09	2.993073e+01	1.574389e+02
