# Temperatura_=_-1.2
# Concentracion g/m^3_=_4090.0
# C_Vs_to_Am_M_A/Vsm_=_65563218390.804596
# pendiente_HvsI_1/m_=_3716.3
# ordenada_HvsI_A/m_=_1297.0
# frecuencia_Hz_=_135081.19715385104

Tiempo_(s)	Campo_(V.s)	Magnetizacion_(V.s)	Campo_(kA/m)	Magnetizacion_(A/m)
0.000000e+00	-5.411059e-06	-2.630751e-09	-3.839241e+01	-1.703795e+02
1.000000e-08	-5.411144e-06	-2.629090e-09	-3.839301e+01	-1.703753e+02
2.000000e-08	-5.410963e-06	-2.629869e-09	-3.839173e+01	-1.703697e+02
3.000000e-08	-5.410412e-06	-2.626518e-09	-3.838782e+01	-1.703641e+02
4.000000e-08	-5.409482e-06	-2.620286e-09	-3.838123e+01	-1.703596e+02
5.000000e-08	-5.408182e-06	-2.619884e-09	-3.837200e+01	-1.703576e+02
6.000000e-08	-5.406231e-06	-2.631319e-09	-3.835816e+01	-1.703595e+02
7.000000e-08	-5.403462e-06	-2.637984e-09	-3.833851e+01	-1.703666e+02
8.000000e-08	-5.400090e-06	-2.620011e-09	-3.831459e+01	-1.703803e+02
9.000000e-08	-5.396330e-06	-2.613914e-09	-3.828791e+01	-1.704019e+02
1.000000e-07	-5.392126e-06	-2.645132e-09	-3.825808e+01	-1.704325e+02
1.100000e-07	-5.387735e-06	-2.631265e-09	-3.822693e+01	-1.704732e+02
1.200000e-07	-5.383380e-06	-2.624625e-09	-3.819603e+01	-1.705250e+02
1.300000e-07	-5.378749e-06	-2.558103e-09	-3.816317e+01	-1.705887e+02
1.400000e-07	-5.373524e-06	-2.616643e-09	-3.812609e+01	-1.706647e+02
1.500000e-07	-5.367800e-06	-2.622139e-09	-3.808549e+01	-1.707536e+02
1.600000e-07	-5.361761e-06	-2.622050e-09	-3.804264e+01	-1.708554e+02
1.700000e-07	-5.355272e-06	-2.616828e-09	-3.799659e+01	-1.709701e+02
1.800000e-07	-5.348307e-06	-2.625612e-09	-3.794718e+01	-1.710975e+02
1.900000e-07	-5.341098e-06	-2.667305e-09	-3.789602e+01	-1.712371e+02
2.000000e-07	-5.333686e-06	-2.628097e-09	-3.784343e+01	-1.713880e+02
2.100000e-07	-5.325938e-06	-2.646682e-09	-3.778846e+01	-1.715494e+02
2.200000e-07	-5.318002e-06	-2.632738e-09	-3.773216e+01	-1.717201e+02
2.300000e-07	-5.309894e-06	-2.672192e-09	-3.767463e+01	-1.718988e+02
2.400000e-07	-5.301375e-06	-2.640284e-09	-3.761419e+01	-1.720839e+02
2.500000e-07	-5.292190e-06	-2.676432e-09	-3.754902e+01	-1.722738e+02
2.600000e-07	-5.282234e-06	-2.691944e-09	-3.747838e+01	-1.724668e+02
2.700000e-07	-5.271765e-06	-2.723945e-09	-3.740410e+01	-1.726608e+02
2.800000e-07	-5.260764e-06	-2.685483e-09	-3.732604e+01	-1.728542e+02
2.900000e-07	-5.249296e-06	-2.696140e-09	-3.724468e+01	-1.730447e+02
3.000000e-07	-5.237473e-06	-2.703546e-09	-3.716079e+01	-1.732306e+02
3.100000e-07	-5.225214e-06	-2.712716e-09	-3.707381e+01	-1.734097e+02
3.200000e-07	-5.212493e-06	-2.699005e-09	-3.698355e+01	-1.735804e+02
3.300000e-07	-5.199427e-06	-2.705096e-09	-3.689084e+01	-1.737407e+02
3.400000e-07	-5.186090e-06	-2.711294e-09	-3.679622e+01	-1.738890e+02
3.500000e-07	-5.172413e-06	-2.710069e-09	-3.669918e+01	-1.740238e+02
3.600000e-07	-5.158329e-06	-2.701297e-09	-3.659925e+01	-1.741436e+02
3.700000e-07	-5.143793e-06	-2.702761e-09	-3.649612e+01	-1.742472e+02
3.800000e-07	-5.128719e-06	-2.700289e-09	-3.638916e+01	-1.743337e+02
3.900000e-07	-5.112978e-06	-2.697400e-09	-3.627748e+01	-1.744023e+02
4.000000e-07	-5.096678e-06	-2.698963e-09	-3.616183e+01	-1.744523e+02
4.100000e-07	-5.080064e-06	-2.691782e-09	-3.604395e+01	-1.744834e+02
4.200000e-07	-5.063088e-06	-2.688271e-09	-3.592350e+01	-1.744955e+02
4.300000e-07	-5.045831e-06	-2.676621e-09	-3.580105e+01	-1.744886e+02
4.400000e-07	-5.028362e-06	-2.688771e-09	-3.567711e+01	-1.744630e+02
4.500000e-07	-5.010462e-06	-2.665951e-09	-3.555011e+01	-1.744191e+02
4.600000e-07	-4.992191e-06	-2.671114e-09	-3.542047e+01	-1.743577e+02
4.700000e-07	-4.973627e-06	-2.669447e-09	-3.528876e+01	-1.742795e+02
4.800000e-07	-4.954706e-06	-2.688560e-09	-3.515450e+01	-1.741855e+02
4.900000e-07	-4.935376e-06	-2.666344e-09	-3.501736e+01	-1.740769e+02
5.000000e-07	-4.915748e-06	-2.674235e-09	-3.487809e+01	-1.739549e+02
5.100000e-07	-4.895882e-06	-2.663087e-09	-3.473714e+01	-1.738208e+02
5.200000e-07	-4.875765e-06	-2.671396e-09	-3.459441e+01	-1.736759e+02
5.300000e-07	-4.855366e-06	-2.655122e-09	-3.444967e+01	-1.735216e+02
5.400000e-07	-4.834665e-06	-2.663432e-09	-3.430280e+01	-1.733594e+02
5.500000e-07	-4.813635e-06	-2.652362e-09	-3.415359e+01	-1.731907e+02
5.600000e-07	-4.792244e-06	-2.668830e-09	-3.400181e+01	-1.730169e+02
5.700000e-07	-4.770521e-06	-2.666323e-09	-3.384768e+01	-1.728392e+02
5.800000e-07	-4.748532e-06	-2.663914e-09	-3.369167e+01	-1.726590e+02
5.900000e-07	-4.726226e-06	-2.647454e-09	-3.353340e+01	-1.724775e+02
6.000000e-07	-4.703593e-06	-2.654409e-09	-3.337281e+01	-1.722957e+02
6.100000e-07	-4.680538e-06	-2.646461e-09	-3.320924e+01	-1.721145e+02
6.200000e-07	-4.657100e-06	-2.636721e-09	-3.304294e+01	-1.719349e+02
6.300000e-07	-4.633404e-06	-2.628055e-09	-3.287481e+01	-1.717574e+02
6.400000e-07	-4.609502e-06	-2.632945e-09	-3.270522e+01	-1.715828e+02
6.500000e-07	-4.585498e-06	-2.635304e-09	-3.253491e+01	-1.714115e+02
6.600000e-07	-4.561227e-06	-2.635000e-09	-3.236271e+01	-1.712436e+02
6.700000e-07	-4.536484e-06	-2.631580e-09	-3.218715e+01	-1.710795e+02
6.800000e-07	-4.511370e-06	-2.625873e-09	-3.200896e+01	-1.709191e+02
6.900000e-07	-4.485857e-06	-2.625654e-09	-3.182794e+01	-1.707624e+02
7.000000e-07	-4.459792e-06	-2.613463e-09	-3.164300e+01	-1.706091e+02
7.100000e-07	-4.433147e-06	-2.605086e-09	-3.145396e+01	-1.704589e+02
7.200000e-07	-4.406023e-06	-2.596702e-09	-3.126151e+01	-1.703115e+02
7.300000e-07	-4.378613e-06	-2.604265e-09	-3.106703e+01	-1.701662e+02
7.400000e-07	-4.350970e-06	-2.599836e-09	-3.087089e+01	-1.700226e+02
7.500000e-07	-4.323137e-06	-2.599696e-09	-3.067342e+01	-1.698800e+02
7.600000e-07	-4.295160e-06	-2.587871e-09	-3.047491e+01	-1.697378e+02
7.700000e-07	-4.266969e-06	-2.588357e-09	-3.027489e+01	-1.695951e+02
7.800000e-07	-4.238418e-06	-2.579323e-09	-3.007232e+01	-1.694513e+02
7.900000e-07	-4.209521e-06	-2.578992e-09	-2.986729e+01	-1.693056e+02
8.000000e-07	-4.180334e-06	-2.570783e-09	-2.966020e+01	-1.691572e+02
8.100000e-07	-4.150849e-06	-2.576738e-09	-2.945100e+01	-1.690055e+02
8.200000e-07	-4.121131e-06	-2.574077e-09	-2.924015e+01	-1.688497e+02
8.300000e-07	-4.091141e-06	-2.575166e-09	-2.902736e+01	-1.686891e+02
8.400000e-07	-4.060836e-06	-2.565029e-09	-2.881234e+01	-1.685230e+02
8.500000e-07	-4.030165e-06	-2.562737e-09	-2.859473e+01	-1.683509e+02
8.600000e-07	-3.999227e-06	-2.553097e-09	-2.837522e+01	-1.681723e+02
8.700000e-07	-3.968188e-06	-2.549830e-09	-2.815499e+01	-1.679865e+02
8.800000e-07	-3.936945e-06	-2.542617e-09	-2.793331e+01	-1.677933e+02
8.900000e-07	-3.905496e-06	-2.544818e-09	-2.771018e+01	-1.675922e+02
9.000000e-07	-3.873795e-06	-2.544400e-09	-2.748525e+01	-1.673830e+02
9.100000e-07	-3.841901e-06	-2.543487e-09	-2.725896e+01	-1.671655e+02
9.200000e-07	-3.809870e-06	-2.536978e-09	-2.703169e+01	-1.669394e+02
9.300000e-07	-3.777554e-06	-2.532491e-09	-2.680241e+01	-1.667049e+02
9.400000e-07	-3.745000e-06	-2.526883e-09	-2.657143e+01	-1.664617e+02
9.500000e-07	-3.712195e-06	-2.522411e-09	-2.633868e+01	-1.662101e+02
9.600000e-07	-3.678972e-06	-2.517350e-09	-2.610295e+01	-1.659501e+02
9.700000e-07	-3.645171e-06	-2.515348e-09	-2.586313e+01	-1.656820e+02
9.800000e-07	-3.610902e-06	-2.517078e-09	-2.561998e+01	-1.654059e+02
9.900000e-07	-3.576337e-06	-2.515089e-09	-2.537474e+01	-1.651223e+02
1.000000e-06	-3.541339e-06	-2.513244e-09	-2.512642e+01	-1.648313e+02
1.010000e-06	-3.506001e-06	-2.507858e-09	-2.487569e+01	-1.645335e+02
1.020000e-06	-3.470429e-06	-2.504247e-09	-2.462330e+01	-1.642292e+02
1.030000e-06	-3.434657e-06	-2.492975e-09	-2.436949e+01	-1.639190e+02
1.040000e-06	-3.398755e-06	-2.485436e-09	-2.411476e+01	-1.636031e+02
1.050000e-06	-3.362702e-06	-2.476768e-09	-2.385896e+01	-1.632822e+02
1.060000e-06	-3.326546e-06	-2.474993e-09	-2.360243e+01	-1.629567e+02
1.070000e-06	-3.290298e-06	-2.467389e-09	-2.334524e+01	-1.626271e+02
1.080000e-06	-3.253849e-06	-2.459952e-09	-2.308663e+01	-1.622937e+02
1.090000e-06	-3.217033e-06	-2.449826e-09	-2.282541e+01	-1.619571e+02
1.100000e-06	-3.179844e-06	-2.448530e-09	-2.256155e+01	-1.616177e+02
1.110000e-06	-3.142426e-06	-2.441544e-09	-2.229606e+01	-1.612757e+02
1.120000e-06	-3.104820e-06	-2.435638e-09	-2.202924e+01	-1.609316e+02
1.130000e-06	-3.067082e-06	-2.427878e-09	-2.176149e+01	-1.605854e+02
1.140000e-06	-3.029190e-06	-2.425906e-09	-2.149263e+01	-1.602375e+02
1.150000e-06	-2.991041e-06	-2.419139e-09	-2.122196e+01	-1.598879e+02
1.160000e-06	-2.952684e-06	-2.412143e-09	-2.094981e+01	-1.595367e+02
1.170000e-06	-2.914082e-06	-2.399490e-09	-2.067592e+01	-1.591838e+02
1.180000e-06	-2.875196e-06	-2.391897e-09	-2.040002e+01	-1.588290e+02
1.190000e-06	-2.836135e-06	-2.389843e-09	-2.012288e+01	-1.584722e+02
1.200000e-06	-2.796970e-06	-2.390669e-09	-1.984499e+01	-1.581131e+02
1.210000e-06	-2.757612e-06	-2.383839e-09	-1.956574e+01	-1.577512e+02
1.220000e-06	-2.718037e-06	-2.375161e-09	-1.928495e+01	-1.573861e+02
1.230000e-06	-2.678318e-06	-2.365426e-09	-1.900313e+01	-1.570172e+02
1.240000e-06	-2.638488e-06	-2.356254e-09	-1.872053e+01	-1.566439e+02
1.250000e-06	-2.598568e-06	-2.345026e-09	-1.843729e+01	-1.562656e+02
1.260000e-06	-2.558608e-06	-2.334622e-09	-1.815378e+01	-1.558813e+02
1.270000e-06	-2.518483e-06	-2.330236e-09	-1.786908e+01	-1.554904e+02
1.280000e-06	-2.478189e-06	-2.327130e-09	-1.758318e+01	-1.550919e+02
1.290000e-06	-2.437811e-06	-2.323765e-09	-1.729670e+01	-1.546849e+02
1.300000e-06	-2.397322e-06	-2.315193e-09	-1.700942e+01	-1.542686e+02
1.310000e-06	-2.356639e-06	-2.306400e-09	-1.672076e+01	-1.538421e+02
1.320000e-06	-2.315553e-06	-2.294037e-09	-1.642926e+01	-1.534043e+02
1.330000e-06	-2.274109e-06	-2.281216e-09	-1.613520e+01	-1.529544e+02
1.340000e-06	-2.232483e-06	-2.269249e-09	-1.583986e+01	-1.524916e+02
1.350000e-06	-2.190626e-06	-2.263291e-09	-1.554288e+01	-1.520150e+02
1.360000e-06	-2.148419e-06	-2.256161e-09	-1.524341e+01	-1.515238e+02
1.370000e-06	-2.105924e-06	-2.250319e-09	-1.494190e+01	-1.510173e+02
1.380000e-06	-2.063275e-06	-2.241525e-09	-1.463930e+01	-1.504949e+02
1.390000e-06	-2.020437e-06	-2.232230e-09	-1.433536e+01	-1.499561e+02
1.400000e-06	-1.977433e-06	-2.222292e-09	-1.403023e+01	-1.494003e+02
1.410000e-06	-1.934239e-06	-2.214489e-09	-1.372376e+01	-1.488271e+02
1.420000e-06	-1.890759e-06	-2.202449e-09	-1.341527e+01	-1.482363e+02
1.430000e-06	-1.847178e-06	-2.191259e-09	-1.310605e+01	-1.476277e+02
1.440000e-06	-1.803558e-06	-2.181186e-09	-1.279656e+01	-1.470011e+02
1.450000e-06	-1.759818e-06	-2.171744e-09	-1.248622e+01	-1.463565e+02
1.460000e-06	-1.715978e-06	-2.158554e-09	-1.217516e+01	-1.456939e+02
1.470000e-06	-1.672053e-06	-2.143925e-09	-1.186351e+01	-1.450135e+02
1.480000e-06	-1.628003e-06	-2.128351e-09	-1.155097e+01	-1.443153e+02
1.490000e-06	-1.583899e-06	-2.115309e-09	-1.123804e+01	-1.435996e+02
1.500000e-06	-1.539779e-06	-2.103116e-09	-1.092500e+01	-1.428666e+02
1.510000e-06	-1.495573e-06	-2.090991e-09	-1.061135e+01	-1.421165e+02
1.520000e-06	-1.451267e-06	-2.080258e-09	-1.029699e+01	-1.413495e+02
1.530000e-06	-1.406909e-06	-2.070289e-09	-9.982269e+00	-1.405658e+02
1.540000e-06	-1.362521e-06	-2.055700e-09	-9.667327e+00	-1.397655e+02
1.550000e-06	-1.318108e-06	-2.039408e-09	-9.352208e+00	-1.389487e+02
1.560000e-06	-1.273599e-06	-2.023484e-09	-9.036409e+00	-1.381154e+02
1.570000e-06	-1.228974e-06	-2.009998e-09	-8.719789e+00	-1.372654e+02
1.580000e-06	-1.184154e-06	-1.998761e-09	-8.401777e+00	-1.363986e+02
1.590000e-06	-1.139305e-06	-1.987072e-09	-8.083571e+00	-1.355146e+02
1.600000e-06	-1.094418e-06	-1.974597e-09	-7.765090e+00	-1.346128e+02
1.610000e-06	-1.049329e-06	-1.961973e-09	-7.445176e+00	-1.336926e+02
1.620000e-06	-1.004200e-06	-1.948878e-09	-7.124973e+00	-1.327533e+02
1.630000e-06	-9.590145e-07	-1.929963e-09	-6.804376e+00	-1.317938e+02
1.640000e-06	-9.137655e-07	-1.908604e-09	-6.483327e+00	-1.308131e+02
1.650000e-06	-8.683903e-07	-1.890765e-09	-6.161381e+00	-1.298097e+02
1.660000e-06	-8.229019e-07	-1.878148e-09	-5.838633e+00	-1.287824e+02
1.670000e-06	-7.773880e-07	-1.865694e-09	-5.515704e+00	-1.277295e+02
1.680000e-06	-7.318759e-07	-1.852307e-09	-5.192788e+00	-1.266492e+02
1.690000e-06	-6.863091e-07	-1.834036e-09	-4.869483e+00	-1.255398e+02
1.700000e-06	-6.406633e-07	-1.814310e-09	-4.545619e+00	-1.243992e+02
1.710000e-06	-5.950206e-07	-1.792294e-09	-4.221775e+00	-1.232254e+02
1.720000e-06	-5.493578e-07	-1.769678e-09	-3.897790e+00	-1.220164e+02
1.730000e-06	-5.036462e-07	-1.746385e-09	-3.573458e+00	-1.207698e+02
1.740000e-06	-4.579003e-07	-1.724109e-09	-3.248883e+00	-1.194836e+02
1.750000e-06	-4.120737e-07	-1.704006e-09	-2.923735e+00	-1.181556e+02
1.760000e-06	-3.661690e-07	-1.687738e-09	-2.598033e+00	-1.167836e+02
1.770000e-06	-3.201510e-07	-1.670473e-09	-2.271528e+00	-1.153655e+02
1.780000e-06	-2.741680e-07	-1.652542e-09	-1.945270e+00	-1.138991e+02
1.790000e-06	-2.283131e-07	-1.630428e-09	-1.619921e+00	-1.123827e+02
1.800000e-06	-1.824615e-07	-1.604642e-09	-1.294596e+00	-1.108143e+02
1.810000e-06	-1.366044e-07	-1.577603e-09	-9.692321e-01	-1.091921e+02
1.820000e-06	-9.080748e-08	-1.550574e-09	-6.442950e-01	-1.075147e+02
1.830000e-06	-4.498643e-08	-1.522068e-09	-3.191866e-01	-1.057805e+02
1.840000e-06	9.478164e-10	-1.493253e-09	6.724924e-03	-1.039883e+02
1.850000e-06	4.687002e-08	-1.466111e-09	3.325510e-01	-1.021370e+02
1.860000e-06	9.276301e-08	-1.440495e-09	6.581698e-01	-1.002257e+02
1.870000e-06	1.386753e-07	-1.414874e-09	9.839252e-01	-9.825358e+01
1.880000e-06	1.846161e-07	-1.386335e-09	1.309883e+00	-9.622010e+01
1.890000e-06	2.305397e-07	-1.355482e-09	1.635720e+00	-9.412485e+01
1.900000e-06	2.764165e-07	-1.322444e-09	1.961223e+00	-9.196758e+01
1.910000e-06	3.222227e-07	-1.284195e-09	2.286227e+00	-8.974817e+01
1.920000e-06	3.680144e-07	-1.241220e-09	2.611127e+00	-8.746669e+01
1.930000e-06	4.137860e-07	-1.201908e-09	2.935884e+00	-8.512329e+01
1.940000e-06	4.595341e-07	-1.168516e-09	3.260475e+00	-8.271826e+01
1.950000e-06	5.053607e-07	-1.139114e-09	3.585623e+00	-8.025199e+01
1.960000e-06	5.510292e-07	-1.107450e-09	3.909649e+00	-7.772495e+01
1.970000e-06	5.965946e-07	-1.072396e-09	4.232943e+00	-7.513768e+01
1.980000e-06	6.422026e-07	-1.035744e-09	4.556540e+00	-7.249080e+01
1.990000e-06	6.877654e-07	-9.980294e-10	4.879816e+00	-6.978496e+01
2.000000e-06	7.332712e-07	-9.540693e-10	5.202688e+00	-6.702086e+01
2.010000e-06	7.786166e-07	-9.057396e-10	5.524421e+00	-6.419924e+01
2.020000e-06	8.238835e-07	-8.587696e-10	5.845598e+00	-6.132086e+01
2.030000e-06	8.692073e-07	-8.170792e-10	6.167178e+00	-5.838651e+01
2.040000e-06	9.145416e-07	-7.746534e-10	6.488833e+00	-5.539701e+01
2.050000e-06	9.598245e-07	-7.298480e-10	6.810123e+00	-5.235322e+01
2.060000e-06	1.005029e-06	-6.860436e-10	7.130855e+00	-4.925603e+01
2.070000e-06	1.050171e-06	-6.461527e-10	7.451145e+00	-4.610638e+01
2.080000e-06	1.095156e-06	-6.073382e-10	7.770321e+00	-4.290529e+01
2.090000e-06	1.139956e-06	-5.641448e-10	8.088185e+00	-3.965383e+01
2.100000e-06	1.184684e-06	-5.148269e-10	8.405542e+00	-3.635320e+01
2.110000e-06	1.229353e-06	-4.619242e-10	8.722474e+00	-3.300468e+01
2.120000e-06	1.273958e-06	-4.063538e-10	9.038957e+00	-2.960971e+01
2.130000e-06	1.318489e-06	-3.474878e-10	9.354907e+00	-2.616986e+01
2.140000e-06	1.362915e-06	-2.888156e-10	9.670123e+00	-2.268689e+01
2.150000e-06	1.407236e-06	-2.356129e-10	9.984585e+00	-1.916277e+01
2.160000e-06	1.451440e-06	-1.909583e-10	1.029822e+01	-1.559965e+01
2.170000e-06	1.495549e-06	-1.499738e-10	1.061119e+01	-1.199993e+01
2.180000e-06	1.539664e-06	-1.040512e-10	1.092418e+01	-8.366269e+00
2.190000e-06	1.583754e-06	-4.898867e-11	1.123701e+01	-4.701553e+00
2.200000e-06	1.627703e-06	1.411066e-11	1.154884e+01	-1.008954e+00
2.210000e-06	1.671570e-06	8.144169e-11	1.186009e+01	2.708093e+00
2.220000e-06	1.715418e-06	1.484594e-10	1.217119e+01	6.445882e+00
2.230000e-06	1.759222e-06	2.101482e-10	1.248199e+01	1.020044e+01
2.240000e-06	1.802997e-06	2.634370e-10	1.279258e+01	1.396755e+01
2.250000e-06	1.846676e-06	3.101891e-10	1.310249e+01	1.774275e+01
2.260000e-06	1.890177e-06	3.546694e-10	1.341113e+01	2.152135e+01
2.270000e-06	1.933601e-06	4.044013e-10	1.371924e+01	2.529846e+01
2.280000e-06	1.976958e-06	4.629942e-10	1.402687e+01	2.906906e+01
2.290000e-06	2.020098e-06	5.277135e-10	1.433295e+01	3.282795e+01
2.300000e-06	2.062988e-06	5.931678e-10	1.463727e+01	3.656987e+01
2.310000e-06	2.105610e-06	6.539528e-10	1.493967e+01	4.028948e+01
2.320000e-06	2.147987e-06	7.076037e-10	1.524034e+01	4.398146e+01
2.330000e-06	2.189988e-06	7.561571e-10	1.553835e+01	4.764050e+01
2.340000e-06	2.231633e-06	8.017555e-10	1.583383e+01	5.126137e+01
2.350000e-06	2.273203e-06	8.501953e-10	1.612877e+01	5.483900e+01
2.360000e-06	2.314523e-06	9.016623e-10	1.642195e+01	5.836846e+01
2.370000e-06	2.355494e-06	9.529537e-10	1.671264e+01	6.184505e+01
2.380000e-06	2.396170e-06	1.003101e-09	1.700125e+01	6.526437e+01
2.390000e-06	2.436596e-06	1.054340e-09	1.728807e+01	6.862227e+01
2.400000e-06	2.476880e-06	1.101764e-09	1.757390e+01	7.191499e+01
2.410000e-06	2.517054e-06	1.144331e-09	1.785894e+01	7.513914e+01
2.420000e-06	2.557108e-06	1.187490e-09	1.814313e+01	7.829171e+01
2.430000e-06	2.597047e-06	1.235767e-09	1.842651e+01	8.137014e+01
2.440000e-06	2.636911e-06	1.285873e-09	1.870934e+01	8.437232e+01
2.450000e-06	2.676644e-06	1.329896e-09	1.899126e+01	8.729657e+01
2.460000e-06	2.716299e-06	1.368077e-09	1.927262e+01	9.014169e+01
2.470000e-06	2.755816e-06	1.402772e-09	1.955300e+01	9.290693e+01
2.480000e-06	2.795032e-06	1.434747e-09	1.983124e+01	9.559200e+01
2.490000e-06	2.834053e-06	1.465403e-09	2.010810e+01	9.819701e+01
2.500000e-06	2.872963e-06	1.498009e-09	2.038418e+01	1.007225e+02
2.510000e-06	2.911581e-06	1.539017e-09	2.065818e+01	1.031694e+02
2.520000e-06	2.949936e-06	1.585752e-09	2.093031e+01	1.055391e+02
2.530000e-06	2.988155e-06	1.626931e-09	2.120148e+01	1.078330e+02
2.540000e-06	3.026171e-06	1.659064e-09	2.147121e+01	1.100531e+02
2.550000e-06	3.064034e-06	1.686104e-09	2.173986e+01	1.122014e+02
2.560000e-06	3.101745e-06	1.709947e-09	2.200742e+01	1.142803e+02
2.570000e-06	3.139176e-06	1.729342e-09	2.227300e+01	1.162922e+02
2.580000e-06	3.176353e-06	1.749543e-09	2.253678e+01	1.182396e+02
2.590000e-06	3.213296e-06	1.778085e-09	2.279890e+01	1.201252e+02
2.600000e-06	3.249983e-06	1.815251e-09	2.305920e+01	1.219514e+02
2.610000e-06	3.286411e-06	1.851458e-09	2.331766e+01	1.237209e+02
2.620000e-06	3.322673e-06	1.879794e-09	2.357495e+01	1.254360e+02
2.630000e-06	3.358869e-06	1.903849e-09	2.383176e+01	1.270993e+02
2.640000e-06	3.394915e-06	1.925978e-09	2.408752e+01	1.287129e+02
2.650000e-06	3.430817e-06	1.942139e-09	2.434225e+01	1.302789e+02
2.660000e-06	3.466622e-06	1.955154e-09	2.459629e+01	1.317991e+02
2.670000e-06	3.502267e-06	1.973813e-09	2.484920e+01	1.332752e+02
2.680000e-06	3.537700e-06	1.999472e-09	2.510060e+01	1.347087e+02
2.690000e-06	3.572848e-06	2.024050e-09	2.534998e+01	1.361008e+02
2.700000e-06	3.607601e-06	2.044102e-09	2.559656e+01	1.374525e+02
2.710000e-06	3.641911e-06	2.064293e-09	2.584000e+01	1.387648e+02
2.720000e-06	3.675678e-06	2.085989e-09	2.607958e+01	1.400382e+02
2.730000e-06	3.708907e-06	2.103074e-09	2.631534e+01	1.412731e+02
2.740000e-06	3.741722e-06	2.113789e-09	2.654817e+01	1.424700e+02
2.750000e-06	3.774162e-06	2.126242e-09	2.677834e+01	1.436289e+02
2.760000e-06	3.806368e-06	2.144149e-09	2.700685e+01	1.447499e+02
2.770000e-06	3.838417e-06	2.162199e-09	2.723424e+01	1.458331e+02
2.780000e-06	3.870297e-06	2.177809e-09	2.746044e+01	1.468784e+02
2.790000e-06	3.902082e-06	2.194155e-09	2.768596e+01	1.478857e+02
2.800000e-06	3.933736e-06	2.212380e-09	2.791055e+01	1.488550e+02
2.810000e-06	3.965163e-06	2.229012e-09	2.813353e+01	1.497864e+02
2.820000e-06	3.996224e-06	2.240103e-09	2.835391e+01	1.506798e+02
2.830000e-06	4.026961e-06	2.246979e-09	2.857200e+01	1.515356e+02
2.840000e-06	4.057417e-06	2.256306e-09	2.878809e+01	1.523539e+02
2.850000e-06	4.087564e-06	2.268125e-09	2.900198e+01	1.531352e+02
2.860000e-06	4.117492e-06	2.279271e-09	2.921433e+01	1.538802e+02
2.870000e-06	4.147145e-06	2.289848e-09	2.942472e+01	1.545895e+02
2.880000e-06	4.176586e-06	2.300534e-09	2.963361e+01	1.552641e+02
2.890000e-06	4.205775e-06	2.310959e-09	2.984071e+01	1.559051e+02
2.900000e-06	4.234560e-06	2.320272e-09	3.004494e+01	1.565136e+02
