# Temperatura_=_-1.5
# Concentracion g/m^3_=_4090.0
# C_Vs_to_Am_M_A/Vsm_=_65563218390.804596
# pendiente_HvsI_1/m_=_3716.3
# ordenada_HvsI_A/m_=_1297.0
# frecuencia_Hz_=_135085.33988881708

Tiempo_(s)	Campo_(V.s)	Magnetizacion_(V.s)	Campo_(kA/m)	Magnetizacion_(A/m)
0.000000e+00	-5.419121e-06	-2.552772e-09	-3.837710e+01	-1.645770e+02
1.000000e-08	-5.419257e-06	-2.555538e-09	-3.837807e+01	-1.646115e+02
2.000000e-08	-5.419159e-06	-2.557327e-09	-3.837737e+01	-1.646475e+02
3.000000e-08	-5.418718e-06	-2.557072e-09	-3.837425e+01	-1.646851e+02
4.000000e-08	-5.417865e-06	-2.552896e-09	-3.836821e+01	-1.647247e+02
5.000000e-08	-5.416532e-06	-2.550075e-09	-3.835877e+01	-1.647664e+02
6.000000e-08	-5.414710e-06	-2.573838e-09	-3.834587e+01	-1.648104e+02
7.000000e-08	-5.412352e-06	-2.603472e-09	-3.832916e+01	-1.648568e+02
8.000000e-08	-5.409397e-06	-2.541202e-09	-3.830824e+01	-1.649057e+02
9.000000e-08	-5.405897e-06	-2.400395e-09	-3.828345e+01	-1.649572e+02
1.000000e-07	-5.402009e-06	-2.454839e-09	-3.825592e+01	-1.650113e+02
1.100000e-07	-5.397812e-06	-2.646032e-09	-3.822620e+01	-1.650678e+02
1.200000e-07	-5.393210e-06	-2.649750e-09	-3.819361e+01	-1.651269e+02
1.300000e-07	-5.388371e-06	-2.416372e-09	-3.815934e+01	-1.651882e+02
1.400000e-07	-5.383354e-06	-2.432652e-09	-3.812381e+01	-1.652516e+02
1.500000e-07	-5.377883e-06	-2.670568e-09	-3.808506e+01	-1.653169e+02
1.600000e-07	-5.371950e-06	-2.686552e-09	-3.804305e+01	-1.653838e+02
1.700000e-07	-5.365625e-06	-2.380463e-09	-3.799826e+01	-1.654521e+02
1.800000e-07	-5.358905e-06	-2.354416e-09	-3.795067e+01	-1.655212e+02
1.900000e-07	-5.351805e-06	-2.599079e-09	-3.790039e+01	-1.655909e+02
2.000000e-07	-5.344371e-06	-2.628974e-09	-3.784774e+01	-1.656607e+02
2.100000e-07	-5.336668e-06	-2.469578e-09	-3.779319e+01	-1.657302e+02
2.200000e-07	-5.328828e-06	-2.527980e-09	-3.773767e+01	-1.657989e+02
2.300000e-07	-5.320664e-06	-2.673998e-09	-3.767985e+01	-1.658664e+02
2.400000e-07	-5.311989e-06	-2.546959e-09	-3.761842e+01	-1.659322e+02
2.500000e-07	-5.302868e-06	-2.454234e-09	-3.755383e+01	-1.659958e+02
2.600000e-07	-5.293215e-06	-2.581716e-09	-3.748546e+01	-1.660567e+02
2.700000e-07	-5.282869e-06	-2.621931e-09	-3.741220e+01	-1.661145e+02
2.800000e-07	-5.271981e-06	-2.454116e-09	-3.733509e+01	-1.661688e+02
2.900000e-07	-5.260665e-06	-2.511930e-09	-3.725495e+01	-1.662191e+02
3.000000e-07	-5.248847e-06	-2.675031e-09	-3.717126e+01	-1.662649e+02
3.100000e-07	-5.236657e-06	-2.598417e-09	-3.708493e+01	-1.663060e+02
3.200000e-07	-5.224135e-06	-2.434275e-09	-3.699625e+01	-1.663420e+02
3.300000e-07	-5.211280e-06	-2.547458e-09	-3.690522e+01	-1.663725e+02
3.400000e-07	-5.198021e-06	-2.636568e-09	-3.681132e+01	-1.663973e+02
3.500000e-07	-5.184352e-06	-2.573396e-09	-3.671452e+01	-1.664160e+02
3.600000e-07	-5.170315e-06	-2.541453e-09	-3.661511e+01	-1.664284e+02
3.700000e-07	-5.155912e-06	-2.612184e-09	-3.651311e+01	-1.664344e+02
3.800000e-07	-5.141012e-06	-2.579009e-09	-3.640760e+01	-1.664338e+02
3.900000e-07	-5.125642e-06	-2.568676e-09	-3.629875e+01	-1.664263e+02
4.000000e-07	-5.109826e-06	-2.587926e-09	-3.618674e+01	-1.664120e+02
4.100000e-07	-5.093398e-06	-2.542271e-09	-3.607040e+01	-1.663906e+02
4.200000e-07	-5.076567e-06	-2.503420e-09	-3.595121e+01	-1.663622e+02
4.300000e-07	-5.059410e-06	-2.597009e-09	-3.582971e+01	-1.663267e+02
4.400000e-07	-5.041877e-06	-2.628371e-09	-3.570554e+01	-1.662840e+02
4.500000e-07	-5.024081e-06	-2.536729e-09	-3.557951e+01	-1.662343e+02
4.600000e-07	-5.005973e-06	-2.518752e-09	-3.545127e+01	-1.661774e+02
4.700000e-07	-4.987528e-06	-2.578713e-09	-3.532065e+01	-1.661135e+02
4.800000e-07	-4.968658e-06	-2.575044e-09	-3.518702e+01	-1.660427e+02
4.900000e-07	-4.949406e-06	-2.517280e-09	-3.505068e+01	-1.659650e+02
5.000000e-07	-4.929879e-06	-2.515710e-09	-3.491239e+01	-1.658806e+02
5.100000e-07	-4.910077e-06	-2.544880e-09	-3.477216e+01	-1.657896e+02
5.200000e-07	-4.890029e-06	-2.581175e-09	-3.463018e+01	-1.656921e+02
5.300000e-07	-4.869774e-06	-2.561987e-09	-3.448674e+01	-1.655883e+02
5.400000e-07	-4.849282e-06	-2.519061e-09	-3.434162e+01	-1.654786e+02
5.500000e-07	-4.828409e-06	-2.509912e-09	-3.419380e+01	-1.653630e+02
5.600000e-07	-4.807106e-06	-2.555388e-09	-3.404294e+01	-1.652418e+02
5.700000e-07	-4.785393e-06	-2.544066e-09	-3.388917e+01	-1.651153e+02
5.800000e-07	-4.763451e-06	-2.507477e-09	-3.373379e+01	-1.649839e+02
5.900000e-07	-4.741270e-06	-2.493957e-09	-3.357671e+01	-1.648477e+02
6.000000e-07	-4.718667e-06	-2.527162e-09	-3.341663e+01	-1.647072e+02
6.100000e-07	-4.695756e-06	-2.535263e-09	-3.325438e+01	-1.645626e+02
6.200000e-07	-4.672574e-06	-2.513131e-09	-3.309021e+01	-1.644144e+02
6.300000e-07	-4.649135e-06	-2.477037e-09	-3.292422e+01	-1.642630e+02
6.400000e-07	-4.625416e-06	-2.496227e-09	-3.275625e+01	-1.641085e+02
6.500000e-07	-4.601406e-06	-2.525467e-09	-3.258621e+01	-1.639515e+02
6.600000e-07	-4.577238e-06	-2.510796e-09	-3.241506e+01	-1.637924e+02
6.700000e-07	-4.552801e-06	-2.468408e-09	-3.224200e+01	-1.636313e+02
6.800000e-07	-4.527897e-06	-2.473801e-09	-3.206564e+01	-1.634688e+02
6.900000e-07	-4.502471e-06	-2.494046e-09	-3.188558e+01	-1.633050e+02
7.000000e-07	-4.476520e-06	-2.489981e-09	-3.170180e+01	-1.631403e+02
7.100000e-07	-4.450075e-06	-2.464464e-09	-3.151452e+01	-1.629749e+02
7.200000e-07	-4.423236e-06	-2.460891e-09	-3.132445e+01	-1.628091e+02
7.300000e-07	-4.396000e-06	-2.483101e-09	-3.113157e+01	-1.626430e+02
7.400000e-07	-4.368406e-06	-2.492766e-09	-3.093616e+01	-1.624766e+02
7.500000e-07	-4.340602e-06	-2.465099e-09	-3.073926e+01	-1.623102e+02
7.600000e-07	-4.312572e-06	-2.439169e-09	-3.054075e+01	-1.621435e+02
7.700000e-07	-4.284278e-06	-2.450774e-09	-3.034037e+01	-1.619767e+02
7.800000e-07	-4.255794e-06	-2.462034e-09	-3.013866e+01	-1.618096e+02
7.900000e-07	-4.227068e-06	-2.450940e-09	-2.993523e+01	-1.616420e+02
8.000000e-07	-4.198015e-06	-2.434183e-09	-2.972948e+01	-1.614737e+02
8.100000e-07	-4.168676e-06	-2.444511e-09	-2.952171e+01	-1.613043e+02
8.200000e-07	-4.139054e-06	-2.460575e-09	-2.931193e+01	-1.611336e+02
8.300000e-07	-4.109106e-06	-2.457666e-09	-2.909984e+01	-1.609612e+02
8.400000e-07	-4.078847e-06	-2.429786e-09	-2.888556e+01	-1.607866e+02
8.500000e-07	-4.048330e-06	-2.420526e-09	-2.866945e+01	-1.606093e+02
8.600000e-07	-4.017594e-06	-2.426835e-09	-2.845178e+01	-1.604290e+02
8.700000e-07	-3.986648e-06	-2.429532e-09	-2.823262e+01	-1.602450e+02
8.800000e-07	-3.955412e-06	-2.410465e-09	-2.801142e+01	-1.600569e+02
8.900000e-07	-3.923965e-06	-2.403913e-09	-2.778871e+01	-1.598643e+02
9.000000e-07	-3.892414e-06	-2.414481e-09	-2.756528e+01	-1.596665e+02
9.100000e-07	-3.860678e-06	-2.426465e-09	-2.734053e+01	-1.594632e+02
9.200000e-07	-3.828710e-06	-2.414184e-09	-2.711414e+01	-1.592540e+02
9.300000e-07	-3.796461e-06	-2.401893e-09	-2.688576e+01	-1.590386e+02
9.400000e-07	-3.763928e-06	-2.402091e-09	-2.665537e+01	-1.588165e+02
9.500000e-07	-3.731094e-06	-2.409308e-09	-2.642284e+01	-1.585876e+02
9.600000e-07	-3.697760e-06	-2.397732e-09	-2.618678e+01	-1.583517e+02
9.700000e-07	-3.663977e-06	-2.382949e-09	-2.594753e+01	-1.581088e+02
9.800000e-07	-3.629846e-06	-2.380111e-09	-2.570582e+01	-1.578588e+02
9.900000e-07	-3.595263e-06	-2.387874e-09	-2.546092e+01	-1.576018e+02
1.000000e-06	-3.560234e-06	-2.387553e-09	-2.521285e+01	-1.573380e+02
1.010000e-06	-3.524887e-06	-2.380928e-09	-2.496253e+01	-1.570677e+02
1.020000e-06	-3.489364e-06	-2.378810e-09	-2.471096e+01	-1.567911e+02
1.030000e-06	-3.453720e-06	-2.381097e-09	-2.445854e+01	-1.565087e+02
1.040000e-06	-3.417889e-06	-2.374847e-09	-2.420479e+01	-1.562210e+02
1.050000e-06	-3.381872e-06	-2.357058e-09	-2.394972e+01	-1.559285e+02
1.060000e-06	-3.345709e-06	-2.343536e-09	-2.369362e+01	-1.556317e+02
1.070000e-06	-3.309329e-06	-2.340096e-09	-2.343599e+01	-1.553312e+02
1.080000e-06	-3.272671e-06	-2.339148e-09	-2.317639e+01	-1.550278e+02
1.090000e-06	-3.235765e-06	-2.330972e-09	-2.291502e+01	-1.547219e+02
1.100000e-06	-3.198600e-06	-2.326725e-09	-2.265183e+01	-1.544143e+02
1.110000e-06	-3.161167e-06	-2.328657e-09	-2.238674e+01	-1.541055e+02
1.120000e-06	-3.123583e-06	-2.330487e-09	-2.212057e+01	-1.537961e+02
1.130000e-06	-3.085896e-06	-2.324825e-09	-2.185368e+01	-1.534865e+02
1.140000e-06	-3.048047e-06	-2.316562e-09	-2.158564e+01	-1.531773e+02
1.150000e-06	-3.010011e-06	-2.305970e-09	-2.131628e+01	-1.528686e+02
1.160000e-06	-2.971721e-06	-2.298438e-09	-2.104512e+01	-1.525609e+02
1.170000e-06	-2.933134e-06	-2.286450e-09	-2.077186e+01	-1.522542e+02
1.180000e-06	-2.894323e-06	-2.276490e-09	-2.049700e+01	-1.519485e+02
1.190000e-06	-2.855355e-06	-2.271348e-09	-2.022104e+01	-1.516438e+02
1.200000e-06	-2.816315e-06	-2.271396e-09	-1.994456e+01	-1.513398e+02
1.210000e-06	-2.777035e-06	-2.269069e-09	-1.966640e+01	-1.510362e+02
1.220000e-06	-2.737479e-06	-2.263703e-09	-1.938627e+01	-1.507325e+02
1.230000e-06	-2.697837e-06	-2.256196e-09	-1.910553e+01	-1.504282e+02
1.240000e-06	-2.658075e-06	-2.250871e-09	-1.882394e+01	-1.501226e+02
1.250000e-06	-2.618220e-06	-2.240609e-09	-1.854170e+01	-1.498147e+02
1.260000e-06	-2.578297e-06	-2.230667e-09	-1.825897e+01	-1.495039e+02
1.270000e-06	-2.538214e-06	-2.220755e-09	-1.797511e+01	-1.491890e+02
1.280000e-06	-2.497979e-06	-2.216453e-09	-1.769017e+01	-1.488690e+02
1.290000e-06	-2.457699e-06	-2.213660e-09	-1.740492e+01	-1.485429e+02
1.300000e-06	-2.417295e-06	-2.207546e-09	-1.711879e+01	-1.482095e+02
1.310000e-06	-2.376533e-06	-2.201457e-09	-1.683012e+01	-1.478676e+02
1.320000e-06	-2.335451e-06	-2.195904e-09	-1.653919e+01	-1.475160e+02
1.330000e-06	-2.294193e-06	-2.186585e-09	-1.624701e+01	-1.471538e+02
1.340000e-06	-2.252647e-06	-2.176213e-09	-1.595279e+01	-1.467796e+02
1.350000e-06	-2.210706e-06	-2.169842e-09	-1.565576e+01	-1.463926e+02
1.360000e-06	-2.168482e-06	-2.165760e-09	-1.535674e+01	-1.459917e+02
1.370000e-06	-2.126131e-06	-2.159822e-09	-1.505682e+01	-1.455760e+02
1.380000e-06	-2.083558e-06	-2.150283e-09	-1.475533e+01	-1.451447e+02
1.390000e-06	-2.040632e-06	-2.139223e-09	-1.445134e+01	-1.446970e+02
1.400000e-06	-1.997473e-06	-2.130045e-09	-1.414569e+01	-1.442325e+02
1.410000e-06	-1.954170e-06	-2.125078e-09	-1.383903e+01	-1.437506e+02
1.420000e-06	-1.910680e-06	-2.119523e-09	-1.353104e+01	-1.432508e+02
1.430000e-06	-1.867043e-06	-2.111556e-09	-1.322202e+01	-1.427331e+02
1.440000e-06	-1.823316e-06	-2.101455e-09	-1.291235e+01	-1.421971e+02
1.450000e-06	-1.779537e-06	-2.093185e-09	-1.260231e+01	-1.416429e+02
1.460000e-06	-1.735739e-06	-2.083044e-09	-1.229215e+01	-1.410704e+02
1.470000e-06	-1.691864e-06	-2.070707e-09	-1.198144e+01	-1.404799e+02
1.480000e-06	-1.647906e-06	-2.056032e-09	-1.167013e+01	-1.398714e+02
1.490000e-06	-1.603895e-06	-2.044967e-09	-1.135846e+01	-1.392452e+02
1.500000e-06	-1.559724e-06	-2.038612e-09	-1.104565e+01	-1.386017e+02
1.510000e-06	-1.515488e-06	-2.033725e-09	-1.073238e+01	-1.379410e+02
1.520000e-06	-1.471255e-06	-2.023342e-09	-1.041913e+01	-1.372635e+02
1.530000e-06	-1.426940e-06	-2.012924e-09	-1.010530e+01	-1.365694e+02
1.540000e-06	-1.382562e-06	-2.006986e-09	-9.791020e+00	-1.358590e+02
1.550000e-06	-1.338068e-06	-2.000875e-09	-9.475922e+00	-1.351324e+02
1.560000e-06	-1.293424e-06	-1.988117e-09	-9.159764e+00	-1.343898e+02
1.570000e-06	-1.248642e-06	-1.973422e-09	-8.842627e+00	-1.336310e+02
1.580000e-06	-1.203825e-06	-1.960732e-09	-8.525243e+00	-1.328561e+02
1.590000e-06	-1.158986e-06	-1.951626e-09	-8.207704e+00	-1.320647e+02
1.600000e-06	-1.114000e-06	-1.941635e-09	-7.889118e+00	-1.312565e+02
1.610000e-06	-1.068888e-06	-1.929431e-09	-7.569646e+00	-1.304311e+02
1.620000e-06	-1.023748e-06	-1.916365e-09	-7.249974e+00	-1.295877e+02
1.630000e-06	-9.785194e-07	-1.903597e-09	-6.929674e+00	-1.287255e+02
1.640000e-06	-9.331613e-07	-1.888773e-09	-6.608457e+00	-1.278437e+02
1.650000e-06	-8.877115e-07	-1.872469e-09	-6.286591e+00	-1.269411e+02
1.660000e-06	-8.422703e-07	-1.858893e-09	-5.964786e+00	-1.260166e+02
1.670000e-06	-7.968607e-07	-1.849548e-09	-5.643204e+00	-1.250687e+02
1.680000e-06	-7.513572e-07	-1.837318e-09	-5.320958e+00	-1.240959e+02
1.690000e-06	-7.057887e-07	-1.817019e-09	-4.998251e+00	-1.230968e+02
1.700000e-06	-6.601669e-07	-1.797449e-09	-4.675167e+00	-1.220695e+02
1.710000e-06	-6.144729e-07	-1.782202e-09	-4.351571e+00	-1.210123e+02
1.720000e-06	-5.687172e-07	-1.768023e-09	-4.027538e+00	-1.199234e+02
1.730000e-06	-5.229373e-07	-1.751190e-09	-3.703335e+00	-1.188009e+02
1.740000e-06	-4.771927e-07	-1.736061e-09	-3.379381e+00	-1.176428e+02
1.750000e-06	-4.314249e-07	-1.722178e-09	-3.055262e+00	-1.164472e+02
1.760000e-06	-3.855910e-07	-1.707748e-09	-2.730676e+00	-1.152122e+02
1.770000e-06	-3.397677e-07	-1.685413e-09	-2.406165e+00	-1.139357e+02
1.780000e-06	-2.938999e-07	-1.658974e-09	-2.081339e+00	-1.126160e+02
1.790000e-06	-2.479314e-07	-1.636670e-09	-1.755799e+00	-1.112510e+02
1.800000e-06	-2.020211e-07	-1.616651e-09	-1.430672e+00	-1.098391e+02
1.810000e-06	-1.561931e-07	-1.596667e-09	-1.106127e+00	-1.083783e+02
1.820000e-06	-1.102783e-07	-1.575639e-09	-7.809685e-01	-1.068671e+02
1.830000e-06	-6.430616e-08	-1.555257e-09	-4.554030e-01	-1.053038e+02
1.840000e-06	-1.835436e-08	-1.536254e-09	-1.299818e-01	-1.036868e+02
1.850000e-06	2.759126e-08	-1.513124e-09	1.953957e-01	-1.020146e+02
1.860000e-06	7.359016e-08	-1.482361e-09	5.211504e-01	-1.002859e+02
1.870000e-06	1.195656e-07	-1.448863e-09	8.467390e-01	-9.849942e+01
1.880000e-06	1.654707e-07	-1.417113e-09	1.171829e+00	-9.665380e+01
1.890000e-06	2.113771e-07	-1.388564e-09	1.496929e+00	-9.474793e+01
1.900000e-06	2.572445e-07	-1.359793e-09	1.821753e+00	-9.278070e+01
1.910000e-06	3.031019e-07	-1.330409e-09	2.146505e+00	-9.075109e+01
1.920000e-06	3.489258e-07	-1.302316e-09	2.471021e+00	-8.865815e+01
1.930000e-06	3.947135e-07	-1.275738e-09	2.795280e+00	-8.650097e+01
1.940000e-06	4.405721e-07	-1.245219e-09	3.120041e+00	-8.427872e+01
1.950000e-06	4.863984e-07	-1.207679e-09	3.444574e+00	-8.199063e+01
1.960000e-06	5.320593e-07	-1.169014e-09	3.767935e+00	-7.963597e+01
1.970000e-06	5.777861e-07	-1.131864e-09	4.091763e+00	-7.721411e+01
1.980000e-06	6.235241e-07	-1.091465e-09	4.415670e+00	-7.472447e+01
1.990000e-06	6.691133e-07	-1.048816e-09	4.738523e+00	-7.216655e+01
2.000000e-06	7.147178e-07	-1.009625e-09	5.061485e+00	-6.953994e+01
2.010000e-06	7.603829e-07	-9.739744e-10	5.384876e+00	-6.684433e+01
2.020000e-06	8.059442e-07	-9.373961e-10	5.707532e+00	-6.407952e+01
2.030000e-06	8.513221e-07	-8.953793e-10	6.028888e+00	-6.124544e+01
2.040000e-06	8.966074e-07	-8.487373e-10	6.349589e+00	-5.834216e+01
2.050000e-06	9.418771e-07	-8.005756e-10	6.670181e+00	-5.536992e+01
2.060000e-06	9.871066e-07	-7.543773e-10	6.990487e+00	-5.232915e+01
2.070000e-06	1.032234e-06	-7.079303e-10	7.310066e+00	-4.922048e+01
2.080000e-06	1.077329e-06	-6.620749e-10	7.629421e+00	-4.604477e+01
2.090000e-06	1.122340e-06	-6.186459e-10	7.948183e+00	-4.280315e+01
2.100000e-06	1.167251e-06	-5.757751e-10	8.266235e+00	-3.949697e+01
2.110000e-06	1.212043e-06	-5.297542e-10	8.583442e+00	-3.612794e+01
2.120000e-06	1.256615e-06	-4.781435e-10	8.899087e+00	-3.269802e+01
2.130000e-06	1.301044e-06	-4.229317e-10	9.213725e+00	-2.920952e+01
2.140000e-06	1.345406e-06	-3.676874e-10	9.527893e+00	-2.566509e+01
2.150000e-06	1.389756e-06	-3.133361e-10	9.841966e+00	-2.206771e+01
2.160000e-06	1.434119e-06	-2.604513e-10	1.015614e+01	-1.842075e+01
2.170000e-06	1.478402e-06	-2.100554e-10	1.046974e+01	-1.472788e+01
2.180000e-06	1.522574e-06	-1.573641e-10	1.078256e+01	-1.099316e+01
2.190000e-06	1.566677e-06	-1.005624e-10	1.109489e+01	-7.220973e+00
2.200000e-06	1.610752e-06	-4.059368e-11	1.140702e+01	-3.416050e+00
2.210000e-06	1.654772e-06	2.107524e-11	1.171875e+01	4.165824e-01
2.220000e-06	1.698661e-06	7.928563e-11	1.202957e+01	4.271603e+00
2.230000e-06	1.742465e-06	1.361743e-10	1.233978e+01	8.143429e+00
2.240000e-06	1.786281e-06	1.937457e-10	1.265007e+01	1.202625e+01
2.250000e-06	1.830016e-06	2.488984e-10	1.295980e+01	1.591407e+01
2.260000e-06	1.873567e-06	3.017870e-10	1.326822e+01	1.980073e+01
2.270000e-06	1.917060e-06	3.581570e-10	1.357623e+01	2.367998e+01
2.280000e-06	1.960471e-06	4.190130e-10	1.388365e+01	2.754549e+01
2.290000e-06	2.003685e-06	4.790337e-10	1.418969e+01	3.139095e+01
2.300000e-06	2.046779e-06	5.357227e-10	1.449487e+01	3.521008e+01
2.310000e-06	2.089742e-06	5.912283e-10	1.479912e+01	3.899667e+01
2.320000e-06	2.132341e-06	6.466028e-10	1.510080e+01	4.274468e+01
2.330000e-06	2.174606e-06	6.997420e-10	1.540011e+01	4.644828e+01
2.340000e-06	2.216614e-06	7.492024e-10	1.569761e+01	5.010185e+01
2.350000e-06	2.258420e-06	7.995105e-10	1.599367e+01	5.370007e+01
2.360000e-06	2.300046e-06	8.560532e-10	1.628846e+01	5.723799e+01
2.370000e-06	2.341358e-06	9.124867e-10	1.658102e+01	6.071098e+01
2.380000e-06	2.382347e-06	9.625108e-10	1.687129e+01	6.411487e+01
2.390000e-06	2.423051e-06	1.007134e-09	1.715955e+01	6.744591e+01
2.400000e-06	2.463567e-06	1.049820e-09	1.744647e+01	7.070080e+01
2.410000e-06	2.503904e-06	1.092013e-09	1.773213e+01	7.387674e+01
2.420000e-06	2.544110e-06	1.133987e-09	1.801687e+01	7.697142e+01
2.430000e-06	2.584239e-06	1.176271e-09	1.830105e+01	7.998305e+01
2.440000e-06	2.624202e-06	1.221747e-09	1.858406e+01	8.291031e+01
2.450000e-06	2.664018e-06	1.266230e-09	1.886603e+01	8.575239e+01
2.460000e-06	2.703708e-06	1.305811e-09	1.914710e+01	8.850895e+01
2.470000e-06	2.743300e-06	1.343148e-09	1.942749e+01	9.118012e+01
2.480000e-06	2.782782e-06	1.379379e-09	1.970709e+01	9.376647e+01
2.490000e-06	2.822020e-06	1.415771e-09	1.998497e+01	9.626897e+01
2.500000e-06	2.861002e-06	1.452352e-09	2.026103e+01	9.868895e+01
2.510000e-06	2.899783e-06	1.488290e-09	2.053567e+01	1.010281e+02
2.520000e-06	2.938310e-06	1.523504e-09	2.080851e+01	1.032883e+02
2.530000e-06	2.976589e-06	1.556539e-09	2.107960e+01	1.054719e+02
2.540000e-06	3.014727e-06	1.582868e-09	2.134968e+01	1.075813e+02
2.550000e-06	3.052769e-06	1.606174e-09	2.161908e+01	1.096189e+02
2.560000e-06	3.090558e-06	1.633200e-09	2.188670e+01	1.115876e+02
2.570000e-06	3.128068e-06	1.663926e-09	2.215234e+01	1.134901e+02
2.580000e-06	3.165462e-06	1.694388e-09	2.241715e+01	1.153290e+02
2.590000e-06	3.202676e-06	1.722476e-09	2.268070e+01	1.171073e+02
2.600000e-06	3.239569e-06	1.751304e-09	2.294196e+01	1.188276e+02
2.610000e-06	3.276181e-06	1.778244e-09	2.320124e+01	1.204924e+02
2.620000e-06	3.312647e-06	1.798996e-09	2.345949e+01	1.221044e+02
2.630000e-06	3.348910e-06	1.818678e-09	2.371629e+01	1.236658e+02
2.640000e-06	3.385034e-06	1.841234e-09	2.397211e+01	1.251789e+02
2.650000e-06	3.421007e-06	1.865432e-09	2.422687e+01	1.266455e+02
2.660000e-06	3.456779e-06	1.887301e-09	2.448020e+01	1.280676e+02
2.670000e-06	3.492478e-06	1.908709e-09	2.473301e+01	1.294467e+02
2.680000e-06	3.528004e-06	1.932131e-09	2.498460e+01	1.307842e+02
2.690000e-06	3.563216e-06	1.955718e-09	2.523396e+01	1.320814e+02
2.700000e-06	3.598000e-06	1.975534e-09	2.548030e+01	1.333392e+02
2.710000e-06	3.632452e-06	1.989719e-09	2.572428e+01	1.345584e+02
2.720000e-06	3.666528e-06	2.002674e-09	2.596560e+01	1.357398e+02
2.730000e-06	3.700108e-06	2.018946e-09	2.620341e+01	1.368839e+02
2.740000e-06	3.733336e-06	2.036573e-09	2.643872e+01	1.379911e+02
2.750000e-06	3.766221e-06	2.052865e-09	2.667160e+01	1.390617e+02
2.760000e-06	3.798782e-06	2.070158e-09	2.690220e+01	1.400959e+02
2.770000e-06	3.831051e-06	2.089281e-09	2.713072e+01	1.410940e+02
2.780000e-06	3.863063e-06	2.106103e-09	2.735742e+01	1.420561e+02
2.790000e-06	3.894935e-06	2.116559e-09	2.758313e+01	1.429824e+02
2.800000e-06	3.926610e-06	2.124908e-09	2.780745e+01	1.438731e+02
2.810000e-06	3.958074e-06	2.136736e-09	2.803027e+01	1.447284e+02
2.820000e-06	3.989282e-06	2.149140e-09	2.825128e+01	1.455487e+02
2.830000e-06	4.020124e-06	2.158169e-09	2.846969e+01	1.463343e+02
2.840000e-06	4.050758e-06	2.165655e-09	2.868664e+01	1.470857e+02
2.850000e-06	4.081180e-06	2.175495e-09	2.890208e+01	1.478035e+02
2.860000e-06	4.111283e-06	2.189918e-09	2.911527e+01	1.484885e+02
2.870000e-06	4.141090e-06	2.204298e-09	2.932635e+01	1.491414e+02
2.880000e-06	4.170644e-06	2.214318e-09	2.953565e+01	1.497632e+02
2.890000e-06	4.199904e-06	2.219707e-09	2.974286e+01	1.503550e+02
2.900000e-06	4.228901e-06	2.225024e-09	2.994821e+01	1.509179e+02
