# Temperatura_=_-7.0
# Concentracion g/m^3_=_4090.0
# C_Vs_to_Am_M_A/Vsm_=_65563218390.804596
# pendiente_HvsI_1/m_=_3716.3
# ordenada_HvsI_A/m_=_1297.0
# frecuencia_Hz_=_135059.52910903541

Tiempo_(s)	Campo_(V.s)	Magnetizacion_(V.s)	Campo_(kA/m)	Magnetizacion_(A/m)
0.000000e+00	-5.386425e-06	-2.047335e-09	-3.840660e+01	-1.315789e+02
1.000000e-08	-5.386594e-06	-2.049446e-09	-3.840781e+01	-1.315477e+02
2.000000e-08	-5.386589e-06	-2.049745e-09	-3.840777e+01	-1.315189e+02
3.000000e-08	-5.386337e-06	-2.051737e-09	-3.840597e+01	-1.314938e+02
4.000000e-08	-5.385730e-06	-2.053077e-09	-3.840165e+01	-1.314741e+02
5.000000e-08	-5.384587e-06	-2.048959e-09	-3.839349e+01	-1.314613e+02
6.000000e-08	-5.382842e-06	-2.041743e-09	-3.838105e+01	-1.314566e+02
7.000000e-08	-5.380606e-06	-2.041908e-09	-3.836511e+01	-1.314614e+02
8.000000e-08	-5.377725e-06	-2.043669e-09	-3.834457e+01	-1.314766e+02
9.000000e-08	-5.374158e-06	-2.025844e-09	-3.831913e+01	-1.315031e+02
1.000000e-07	-5.370156e-06	-2.021581e-09	-3.829060e+01	-1.315417e+02
1.100000e-07	-5.365883e-06	-2.059144e-09	-3.826013e+01	-1.315927e+02
1.200000e-07	-5.361459e-06	-2.077842e-09	-3.822859e+01	-1.316564e+02
1.300000e-07	-5.356819e-06	-2.016575e-09	-3.819550e+01	-1.317327e+02
1.400000e-07	-5.351767e-06	-1.986755e-09	-3.815948e+01	-1.318215e+02
1.500000e-07	-5.346279e-06	-2.035700e-09	-3.812035e+01	-1.319220e+02
1.600000e-07	-5.340495e-06	-2.074642e-09	-3.807911e+01	-1.320337e+02
1.700000e-07	-5.334385e-06	-2.006861e-09	-3.803555e+01	-1.321556e+02
1.800000e-07	-5.327799e-06	-1.986351e-09	-3.798858e+01	-1.322864e+02
1.900000e-07	-5.320779e-06	-2.068774e-09	-3.793853e+01	-1.324247e+02
2.000000e-07	-5.313451e-06	-2.101359e-09	-3.788628e+01	-1.325690e+02
2.100000e-07	-5.305893e-06	-2.041273e-09	-3.783239e+01	-1.327177e+02
2.200000e-07	-5.298139e-06	-2.027453e-09	-3.777710e+01	-1.328689e+02
2.300000e-07	-5.290153e-06	-2.087347e-09	-3.772016e+01	-1.330206e+02
2.400000e-07	-5.281894e-06	-2.076403e-09	-3.766127e+01	-1.331710e+02
2.500000e-07	-5.273141e-06	-2.037494e-09	-3.759886e+01	-1.333180e+02
2.600000e-07	-5.263674e-06	-2.069829e-09	-3.753135e+01	-1.334597e+02
2.700000e-07	-5.253466e-06	-2.121399e-09	-3.745857e+01	-1.335941e+02
2.800000e-07	-5.242705e-06	-2.076577e-09	-3.738184e+01	-1.337195e+02
2.900000e-07	-5.231628e-06	-2.041038e-09	-3.730286e+01	-1.338339e+02
3.000000e-07	-5.220184e-06	-2.082166e-09	-3.722126e+01	-1.339358e+02
3.100000e-07	-5.208323e-06	-2.095865e-09	-3.713669e+01	-1.340238e+02
3.200000e-07	-5.196035e-06	-2.039794e-09	-3.704907e+01	-1.340964e+02
3.300000e-07	-5.183336e-06	-2.053403e-09	-3.695852e+01	-1.341527e+02
3.400000e-07	-5.170203e-06	-2.099122e-09	-3.686489e+01	-1.341915e+02
3.500000e-07	-5.156632e-06	-2.078072e-09	-3.676812e+01	-1.342123e+02
3.600000e-07	-5.142670e-06	-2.040235e-09	-3.666857e+01	-1.342146e+02
3.700000e-07	-5.128399e-06	-2.062737e-09	-3.656681e+01	-1.341980e+02
3.800000e-07	-5.113686e-06	-2.060580e-09	-3.646190e+01	-1.341625e+02
3.900000e-07	-5.098464e-06	-2.033081e-09	-3.635336e+01	-1.341082e+02
4.000000e-07	-5.082588e-06	-2.044434e-09	-3.624016e+01	-1.340355e+02
4.100000e-07	-5.066089e-06	-2.058144e-09	-3.612252e+01	-1.339448e+02
4.200000e-07	-5.049322e-06	-2.036531e-09	-3.600297e+01	-1.338367e+02
4.300000e-07	-5.032296e-06	-2.043083e-09	-3.588157e+01	-1.337122e+02
4.400000e-07	-5.015009e-06	-2.063441e-09	-3.575831e+01	-1.335721e+02
4.500000e-07	-4.997487e-06	-2.034070e-09	-3.563337e+01	-1.334174e+02
4.600000e-07	-4.979625e-06	-2.010799e-09	-3.550601e+01	-1.332492e+02
4.700000e-07	-4.961327e-06	-2.027774e-09	-3.537554e+01	-1.330687e+02
4.800000e-07	-4.942668e-06	-2.033830e-09	-3.524250e+01	-1.328769e+02
4.900000e-07	-4.923672e-06	-2.016850e-09	-3.510705e+01	-1.326751e+02
5.000000e-07	-4.904308e-06	-2.025694e-09	-3.496898e+01	-1.324645e+02
5.100000e-07	-4.884610e-06	-2.033299e-09	-3.482853e+01	-1.322460e+02
5.200000e-07	-4.864696e-06	-2.030254e-09	-3.468654e+01	-1.320207e+02
5.300000e-07	-4.844598e-06	-2.025783e-09	-3.454323e+01	-1.317896e+02
5.400000e-07	-4.824215e-06	-2.018035e-09	-3.439790e+01	-1.315535e+02
5.500000e-07	-4.803476e-06	-2.000964e-09	-3.425003e+01	-1.313132e+02
5.600000e-07	-4.782425e-06	-2.006514e-09	-3.409992e+01	-1.310694e+02
5.700000e-07	-4.761088e-06	-2.010503e-09	-3.394778e+01	-1.308225e+02
5.800000e-07	-4.739398e-06	-1.998681e-09	-3.379313e+01	-1.305731e+02
5.900000e-07	-4.717337e-06	-1.991591e-09	-3.363583e+01	-1.303214e+02
6.000000e-07	-4.694960e-06	-2.000665e-09	-3.347628e+01	-1.300676e+02
6.100000e-07	-4.672295e-06	-1.997995e-09	-3.331467e+01	-1.298118e+02
6.200000e-07	-4.649278e-06	-1.987406e-09	-3.315055e+01	-1.295540e+02
6.300000e-07	-4.625910e-06	-1.973189e-09	-3.298393e+01	-1.292941e+02
6.400000e-07	-4.602252e-06	-1.963412e-09	-3.281524e+01	-1.290320e+02
6.500000e-07	-4.578346e-06	-1.962372e-09	-3.264479e+01	-1.287674e+02
6.600000e-07	-4.554294e-06	-1.961911e-09	-3.247329e+01	-1.285000e+02
6.700000e-07	-4.530074e-06	-1.952290e-09	-3.230060e+01	-1.282296e+02
6.800000e-07	-4.505502e-06	-1.949313e-09	-3.212539e+01	-1.279557e+02
6.900000e-07	-4.480534e-06	-1.954282e-09	-3.194737e+01	-1.276782e+02
7.000000e-07	-4.455137e-06	-1.950912e-09	-3.176628e+01	-1.273965e+02
7.100000e-07	-4.429122e-06	-1.937361e-09	-3.158078e+01	-1.271104e+02
7.200000e-07	-4.402599e-06	-1.926898e-09	-3.139167e+01	-1.268197e+02
7.300000e-07	-4.375707e-06	-1.924889e-09	-3.119992e+01	-1.265239e+02
7.400000e-07	-4.348347e-06	-1.924733e-09	-3.100483e+01	-1.262230e+02
7.500000e-07	-4.320673e-06	-1.919222e-09	-3.080752e+01	-1.259167e+02
7.600000e-07	-4.292809e-06	-1.907334e-09	-3.060884e+01	-1.256049e+02
7.700000e-07	-4.264744e-06	-1.903403e-09	-3.040873e+01	-1.252874e+02
7.800000e-07	-4.236462e-06	-1.902121e-09	-3.020706e+01	-1.249643e+02
7.900000e-07	-4.207955e-06	-1.893182e-09	-3.000380e+01	-1.246356e+02
8.000000e-07	-4.179125e-06	-1.878217e-09	-2.979824e+01	-1.243013e+02
8.100000e-07	-4.149989e-06	-1.871510e-09	-2.959049e+01	-1.239614e+02
8.200000e-07	-4.120584e-06	-1.869056e-09	-2.938083e+01	-1.236162e+02
8.300000e-07	-4.090874e-06	-1.866591e-09	-2.916899e+01	-1.232656e+02
8.400000e-07	-4.060932e-06	-1.857132e-09	-2.895549e+01	-1.229099e+02
8.500000e-07	-4.030661e-06	-1.847126e-09	-2.873966e+01	-1.225491e+02
8.600000e-07	-4.000175e-06	-1.841047e-09	-2.852228e+01	-1.221835e+02
8.700000e-07	-3.969434e-06	-1.837777e-09	-2.830309e+01	-1.218131e+02
8.800000e-07	-3.938364e-06	-1.829900e-09	-2.808155e+01	-1.214380e+02
8.900000e-07	-3.907090e-06	-1.819290e-09	-2.785856e+01	-1.210583e+02
9.000000e-07	-3.875614e-06	-1.810832e-09	-2.763413e+01	-1.206741e+02
9.100000e-07	-3.843951e-06	-1.809259e-09	-2.740836e+01	-1.202853e+02
9.200000e-07	-3.812144e-06	-1.806660e-09	-2.718157e+01	-1.198920e+02
9.300000e-07	-3.780210e-06	-1.800490e-09	-2.695388e+01	-1.194940e+02
9.400000e-07	-3.747982e-06	-1.793530e-09	-2.672408e+01	-1.190913e+02
9.500000e-07	-3.715410e-06	-1.788875e-09	-2.649184e+01	-1.186837e+02
9.600000e-07	-3.682619e-06	-1.783330e-09	-2.625802e+01	-1.182710e+02
9.700000e-07	-3.649497e-06	-1.774641e-09	-2.602186e+01	-1.178530e+02
9.800000e-07	-3.615863e-06	-1.766113e-09	-2.578204e+01	-1.174294e+02
9.900000e-07	-3.581675e-06	-1.761028e-09	-2.553827e+01	-1.170001e+02
1.000000e-06	-3.547040e-06	-1.757240e-09	-2.529131e+01	-1.165647e+02
1.010000e-06	-3.511999e-06	-1.751591e-09	-2.504146e+01	-1.161230e+02
1.020000e-06	-3.476610e-06	-1.742637e-09	-2.478913e+01	-1.156747e+02
1.030000e-06	-3.441096e-06	-1.733898e-09	-2.453590e+01	-1.152196e+02
1.040000e-06	-3.405468e-06	-1.727487e-09	-2.428187e+01	-1.147575e+02
1.050000e-06	-3.369650e-06	-1.720299e-09	-2.402648e+01	-1.142881e+02
1.060000e-06	-3.333685e-06	-1.711653e-09	-2.377004e+01	-1.138112e+02
1.070000e-06	-3.297565e-06	-1.704603e-09	-2.351249e+01	-1.133269e+02
1.080000e-06	-3.261271e-06	-1.699043e-09	-2.325371e+01	-1.128350e+02
1.090000e-06	-3.224780e-06	-1.689936e-09	-2.299351e+01	-1.123354e+02
1.100000e-06	-3.188007e-06	-1.679593e-09	-2.273131e+01	-1.118284e+02
1.110000e-06	-3.151002e-06	-1.669106e-09	-2.246746e+01	-1.113138e+02
1.120000e-06	-3.113758e-06	-1.658325e-09	-2.220190e+01	-1.107919e+02
1.130000e-06	-3.076248e-06	-1.647567e-09	-2.193444e+01	-1.102629e+02
1.140000e-06	-3.038578e-06	-1.640403e-09	-2.166585e+01	-1.097270e+02
1.150000e-06	-3.000762e-06	-1.634761e-09	-2.139621e+01	-1.091845e+02
1.160000e-06	-2.962797e-06	-1.628344e-09	-2.112551e+01	-1.086356e+02
1.170000e-06	-2.924613e-06	-1.618938e-09	-2.085325e+01	-1.080808e+02
1.180000e-06	-2.886223e-06	-1.607828e-09	-2.057951e+01	-1.075202e+02
1.190000e-06	-2.847649e-06	-1.597261e-09	-2.030448e+01	-1.069543e+02
1.200000e-06	-2.808825e-06	-1.589057e-09	-2.002765e+01	-1.063834e+02
1.210000e-06	-2.769692e-06	-1.579818e-09	-1.974862e+01	-1.058077e+02
1.220000e-06	-2.730319e-06	-1.569284e-09	-1.946788e+01	-1.052276e+02
1.230000e-06	-2.690826e-06	-1.559392e-09	-1.918628e+01	-1.046432e+02
1.240000e-06	-2.651260e-06	-1.550300e-09	-1.890417e+01	-1.040547e+02
1.250000e-06	-2.611582e-06	-1.537951e-09	-1.862125e+01	-1.034622e+02
1.260000e-06	-2.571739e-06	-1.524133e-09	-1.833717e+01	-1.028658e+02
1.270000e-06	-2.531826e-06	-1.512068e-09	-1.805258e+01	-1.022653e+02
1.280000e-06	-2.491820e-06	-1.504247e-09	-1.776732e+01	-1.016606e+02
1.290000e-06	-2.451739e-06	-1.497862e-09	-1.748153e+01	-1.010516e+02
1.300000e-06	-2.411575e-06	-1.489124e-09	-1.719515e+01	-1.004380e+02
1.310000e-06	-2.371270e-06	-1.478024e-09	-1.690777e+01	-9.981921e+01
1.320000e-06	-2.330783e-06	-1.466049e-09	-1.661908e+01	-9.919494e+01
1.330000e-06	-2.290075e-06	-1.452590e-09	-1.632882e+01	-9.856460e+01
1.340000e-06	-2.249177e-06	-1.434589e-09	-1.603721e+01	-9.792757e+01
1.350000e-06	-2.207966e-06	-1.417533e-09	-1.574337e+01	-9.728319e+01
1.360000e-06	-2.166360e-06	-1.405791e-09	-1.544671e+01	-9.663073e+01
1.370000e-06	-2.124410e-06	-1.399372e-09	-1.514759e+01	-9.596944e+01
1.380000e-06	-2.082242e-06	-1.394008e-09	-1.484692e+01	-9.529852e+01
1.390000e-06	-2.039907e-06	-1.386653e-09	-1.454506e+01	-9.461719e+01
1.400000e-06	-1.997316e-06	-1.376005e-09	-1.424138e+01	-9.392465e+01
1.410000e-06	-1.954474e-06	-1.365783e-09	-1.393590e+01	-9.322010e+01
1.420000e-06	-1.911458e-06	-1.351967e-09	-1.362919e+01	-9.250281e+01
1.430000e-06	-1.868244e-06	-1.331060e-09	-1.332106e+01	-9.177205e+01
1.440000e-06	-1.824857e-06	-1.309629e-09	-1.301170e+01	-9.102716e+01
1.450000e-06	-1.781349e-06	-1.294203e-09	-1.270148e+01	-9.026754e+01
1.460000e-06	-1.737730e-06	-1.285318e-09	-1.239046e+01	-8.949266e+01
1.470000e-06	-1.694058e-06	-1.277619e-09	-1.207907e+01	-8.870208e+01
1.480000e-06	-1.650329e-06	-1.267095e-09	-1.176727e+01	-8.789544e+01
1.490000e-06	-1.606493e-06	-1.256799e-09	-1.145471e+01	-8.707246e+01
1.500000e-06	-1.562545e-06	-1.245388e-09	-1.114135e+01	-8.623296e+01
1.510000e-06	-1.518529e-06	-1.228817e-09	-1.082750e+01	-8.537685e+01
1.520000e-06	-1.474445e-06	-1.207103e-09	-1.051317e+01	-8.450412e+01
1.530000e-06	-1.430277e-06	-1.185913e-09	-1.019824e+01	-8.361485e+01
1.540000e-06	-1.386029e-06	-1.173665e-09	-9.882745e+00	-8.270919e+01
1.550000e-06	-1.341775e-06	-1.165360e-09	-9.567200e+00	-8.178739e+01
1.560000e-06	-1.297500e-06	-1.152740e-09	-9.251510e+00	-8.084970e+01
1.570000e-06	-1.253130e-06	-1.138390e-09	-8.935138e+00	-7.989648e+01
1.580000e-06	-1.208688e-06	-1.126561e-09	-8.618258e+00	-7.892808e+01
1.590000e-06	-1.164168e-06	-1.114935e-09	-8.300819e+00	-7.794491e+01
1.600000e-06	-1.119531e-06	-1.099752e-09	-7.982544e+00	-7.694735e+01
1.610000e-06	-1.074771e-06	-1.081288e-09	-7.663395e+00	-7.593582e+01
1.620000e-06	-1.029947e-06	-1.062900e-09	-7.343792e+00	-7.491069e+01
1.630000e-06	-9.850427e-07	-1.047986e-09	-7.023609e+00	-7.387233e+01
1.640000e-06	-9.400395e-07	-1.034174e-09	-6.702725e+00	-7.282106e+01
1.650000e-06	-8.949569e-07	-1.016874e-09	-6.381274e+00	-7.175714e+01
1.660000e-06	-8.499130e-07	-1.000337e-09	-6.060099e+00	-7.068078e+01
1.670000e-06	-8.048757e-07	-9.885901e-10	-5.738972e+00	-6.959214e+01
1.680000e-06	-7.596868e-07	-9.787257e-10	-5.416763e+00	-6.849128e+01
1.690000e-06	-7.144109e-07	-9.635427e-10	-5.093934e+00	-6.737821e+01
1.700000e-06	-6.691274e-07	-9.440740e-10	-4.771052e+00	-6.625285e+01
1.710000e-06	-6.237450e-07	-9.269482e-10	-4.447463e+00	-6.511504e+01
1.720000e-06	-5.782100e-07	-9.116254e-10	-4.122787e+00	-6.396455e+01
1.730000e-06	-5.327012e-07	-8.923474e-10	-3.798297e+00	-6.280108e+01
1.740000e-06	-4.872593e-07	-8.715283e-10	-3.474285e+00	-6.162427e+01
1.750000e-06	-4.417283e-07	-8.541685e-10	-3.149637e+00	-6.043367e+01
1.760000e-06	-3.961375e-07	-8.403938e-10	-2.824562e+00	-5.922882e+01
1.770000e-06	-3.505894e-07	-8.258450e-10	-2.499793e+00	-5.800918e+01
1.780000e-06	-3.049556e-07	-8.070860e-10	-2.174412e+00	-5.677421e+01
1.790000e-06	-2.592488e-07	-7.892021e-10	-1.848511e+00	-5.552332e+01
1.800000e-06	-2.136435e-07	-7.731130e-10	-1.523334e+00	-5.425591e+01
1.810000e-06	-1.680235e-07	-7.538301e-10	-1.198051e+00	-5.297140e+01
1.820000e-06	-1.222940e-07	-7.311073e-10	-8.719881e-01	-5.166921e+01
1.830000e-06	-7.651393e-08	-7.095821e-10	-5.455641e-01	-5.034876e+01
1.840000e-06	-3.076010e-08	-6.906948e-10	-2.193275e-01	-4.900952e+01
1.850000e-06	1.497025e-08	-6.722656e-10	1.067417e-01	-4.765100e+01
1.860000e-06	6.068311e-08	-6.519730e-10	4.326863e-01	-4.627273e+01
1.870000e-06	1.063658e-07	-6.310311e-10	7.584153e-01	-4.487430e+01
1.880000e-06	1.519740e-07	-6.120923e-10	1.083614e+00	-4.345537e+01
1.890000e-06	1.975524e-07	-5.927838e-10	1.408600e+00	-4.201564e+01
1.900000e-06	2.432193e-07	-5.698781e-10	1.734217e+00	-4.055486e+01
1.910000e-06	2.888786e-07	-5.441735e-10	2.059779e+00	-3.907285e+01
1.920000e-06	3.345155e-07	-5.187443e-10	2.385182e+00	-3.756949e+01
1.930000e-06	3.801329e-07	-4.956626e-10	2.710446e+00	-3.604470e+01
1.940000e-06	4.257393e-07	-4.739662e-10	3.035631e+00	-3.449847e+01
1.950000e-06	4.712996e-07	-4.534333e-10	3.360488e+00	-3.293082e+01
1.960000e-06	5.167779e-07	-4.341911e-10	3.684760e+00	-3.134183e+01
1.970000e-06	5.621848e-07	-4.142844e-10	4.008523e+00	-2.973161e+01
1.980000e-06	6.075315e-07	-3.906862e-10	4.331857e+00	-2.810029e+01
1.990000e-06	6.528339e-07	-3.622884e-10	4.654874e+00	-2.644804e+01
2.000000e-06	6.980967e-07	-3.328764e-10	4.977610e+00	-2.477505e+01
2.010000e-06	7.432892e-07	-3.074964e-10	5.299844e+00	-2.308154e+01
2.020000e-06	7.884129e-07	-2.852427e-10	5.621588e+00	-2.136772e+01
2.030000e-06	8.334843e-07	-2.601500e-10	5.942958e+00	-1.963384e+01
2.040000e-06	8.785064e-07	-2.331432e-10	6.263978e+00	-1.788015e+01
2.050000e-06	9.234511e-07	-2.079772e-10	6.584445e+00	-1.610691e+01
2.060000e-06	9.683691e-07	-1.825421e-10	6.904722e+00	-1.431439e+01
2.070000e-06	1.013310e-06	-1.553327e-10	7.225164e+00	-1.250290e+01
2.080000e-06	1.058134e-06	-1.292474e-10	7.544769e+00	-1.067273e+01
2.090000e-06	1.102839e-06	-1.050132e-10	7.863528e+00	-8.824233e+00
2.100000e-06	1.147452e-06	-7.957095e-11	8.181630e+00	-6.957779e+00
2.110000e-06	1.191907e-06	-5.011965e-11	8.498605e+00	-5.073778e+00
2.120000e-06	1.236274e-06	-1.662583e-11	8.814956e+00	-3.172691e+00
2.130000e-06	1.280573e-06	1.575570e-11	9.130814e+00	-1.255033e+00
2.140000e-06	1.324815e-06	4.626526e-11	9.446276e+00	6.786144e-01
2.150000e-06	1.369080e-06	7.908903e-11	9.761896e+00	2.627593e+00
2.160000e-06	1.413277e-06	1.100574e-10	1.007703e+01	4.591162e+00
2.170000e-06	1.457375e-06	1.332784e-10	1.039146e+01	6.568488e+00
2.180000e-06	1.501417e-06	1.543914e-10	1.070549e+01	8.558640e+00
2.190000e-06	1.545417e-06	1.820975e-10	1.101922e+01	1.056058e+01
2.200000e-06	1.589352e-06	2.156798e-10	1.133249e+01	1.257316e+01
2.210000e-06	1.633184e-06	2.482805e-10	1.164502e+01	1.459512e+01
2.220000e-06	1.676957e-06	2.775924e-10	1.195714e+01	1.662508e+01
2.230000e-06	1.720703e-06	3.073296e-10	1.226906e+01	1.866157e+01
2.240000e-06	1.764383e-06	3.402657e-10	1.258051e+01	2.070297e+01
2.250000e-06	1.807997e-06	3.712692e-10	1.289148e+01	2.274761e+01
2.260000e-06	1.851463e-06	3.965828e-10	1.320141e+01	2.479366e+01
2.270000e-06	1.894690e-06	4.206663e-10	1.350963e+01	2.683927e+01
2.280000e-06	1.937777e-06	4.495685e-10	1.381685e+01	2.888246e+01
2.290000e-06	1.980681e-06	4.812767e-10	1.412277e+01	3.092124e+01
2.300000e-06	2.023343e-06	5.103732e-10	1.442696e+01	3.295353e+01
2.310000e-06	2.065734e-06	5.383065e-10	1.472922e+01	3.497727e+01
2.320000e-06	2.107795e-06	5.694230e-10	1.502913e+01	3.699035e+01
2.330000e-06	2.149564e-06	6.015503e-10	1.532695e+01	3.899071e+01
2.340000e-06	2.191091e-06	6.306270e-10	1.562304e+01	4.097629e+01
2.350000e-06	2.232364e-06	6.557670e-10	1.591733e+01	4.294512e+01
2.360000e-06	2.273344e-06	6.814301e-10	1.620953e+01	4.489528e+01
2.370000e-06	2.314104e-06	7.089064e-10	1.650016e+01	4.682494e+01
2.380000e-06	2.354588e-06	7.339098e-10	1.678882e+01	4.873239e+01
2.390000e-06	2.394875e-06	7.591127e-10	1.707608e+01	5.061604e+01
2.400000e-06	2.435100e-06	7.848025e-10	1.736289e+01	5.247446e+01
2.410000e-06	2.475264e-06	8.093624e-10	1.764927e+01	5.430635e+01
2.420000e-06	2.515329e-06	8.324923e-10	1.793495e+01	5.611059e+01
2.430000e-06	2.555234e-06	8.573660e-10	1.821948e+01	5.788623e+01
2.440000e-06	2.595052e-06	8.864958e-10	1.850339e+01	5.963249e+01
2.450000e-06	2.634775e-06	9.153882e-10	1.878662e+01	6.134879e+01
2.460000e-06	2.674343e-06	9.395430e-10	1.906876e+01	6.303469e+01
2.470000e-06	2.713757e-06	9.609353e-10	1.934978e+01	6.468995e+01
2.480000e-06	2.753042e-06	9.814004e-10	1.962990e+01	6.631450e+01
2.490000e-06	2.792127e-06	1.001777e-09	1.990858e+01	6.790842e+01
2.500000e-06	2.830920e-06	1.022557e-09	2.018519e+01	6.947191e+01
2.510000e-06	2.869422e-06	1.045756e-09	2.045972e+01	7.100534e+01
2.520000e-06	2.907712e-06	1.073725e-09	2.073274e+01	7.250915e+01
2.530000e-06	2.945860e-06	1.101161e-09	2.100474e+01	7.398392e+01
2.540000e-06	2.983892e-06	1.121568e-09	2.127592e+01	7.543028e+01
2.550000e-06	3.021715e-06	1.138519e-09	2.154561e+01	7.684891e+01
2.560000e-06	3.059281e-06	1.158169e-09	2.181347e+01	7.824054e+01
2.570000e-06	3.096707e-06	1.178993e-09	2.208032e+01	7.960593e+01
2.580000e-06	3.134037e-06	1.195954e-09	2.234650e+01	8.094580e+01
2.590000e-06	3.171138e-06	1.210683e-09	2.261103e+01	8.226090e+01
2.600000e-06	3.207882e-06	1.229430e-09	2.287303e+01	8.355190e+01
2.610000e-06	3.244368e-06	1.252942e-09	2.313318e+01	8.481945e+01
2.620000e-06	3.280651e-06	1.274653e-09	2.339189e+01	8.606412e+01
2.630000e-06	3.316748e-06	1.291654e-09	2.364927e+01	8.728642e+01
2.640000e-06	3.352714e-06	1.309901e-09	2.390572e+01	8.848678e+01
2.650000e-06	3.388559e-06	1.331489e-09	2.416130e+01	8.966554e+01
2.660000e-06	3.424318e-06	1.350331e-09	2.441627e+01	9.082295e+01
2.670000e-06	3.459954e-06	1.364117e-09	2.467036e+01	9.195920e+01
2.680000e-06	3.495407e-06	1.379414e-09	2.492315e+01	9.307436e+01
2.690000e-06	3.530559e-06	1.398795e-09	2.517380e+01	9.416847e+01
2.700000e-06	3.565251e-06	1.416081e-09	2.542116e+01	9.524146e+01
2.710000e-06	3.599445e-06	1.428204e-09	2.566497e+01	9.629323e+01
2.720000e-06	3.633167e-06	1.441554e-09	2.590542e+01	9.732363e+01
2.730000e-06	3.666367e-06	1.460050e-09	2.614214e+01	9.833249e+01
2.740000e-06	3.699150e-06	1.479270e-09	2.637590e+01	9.931960e+01
2.750000e-06	3.731623e-06	1.493864e-09	2.660744e+01	1.002848e+02
2.760000e-06	3.763816e-06	1.509067e-09	2.683698e+01	1.012278e+02
2.770000e-06	3.795841e-06	1.528562e-09	2.706533e+01	1.021486e+02
2.780000e-06	3.827766e-06	1.546277e-09	2.729296e+01	1.030470e+02
2.790000e-06	3.859635e-06	1.555978e-09	2.752020e+01	1.039229e+02
2.800000e-06	3.891327e-06	1.560972e-09	2.774616e+01	1.047764e+02
2.810000e-06	3.922754e-06	1.570632e-09	2.797025e+01	1.056075e+02
2.820000e-06	3.953819e-06	1.586889e-09	2.819175e+01	1.064165e+02
2.830000e-06	3.984580e-06	1.602267e-09	2.841108e+01	1.072035e+02
2.840000e-06	4.015142e-06	1.612732e-09	2.862900e+01	1.079690e+02
2.850000e-06	4.045447e-06	1.624185e-09	2.884508e+01	1.087133e+02
2.860000e-06	4.075425e-06	1.640320e-09	2.905884e+01	1.094370e+02
2.870000e-06	4.105080e-06	1.653951e-09	2.927028e+01	1.101408e+02
2.880000e-06	4.134499e-06	1.659784e-09	2.948005e+01	1.108252e+02
2.890000e-06	4.163639e-06	1.663088e-09	2.968782e+01	1.114910e+02
2.900000e-06	4.192461e-06	1.670509e-09	2.989333e+01	1.121391e+02
