# Temperatura_=_17.1
# Concentracion g/m^3_=_4090.0
# C_Vs_to_Am_M_A/Vsm_=_65563218390.804596
# pendiente_HvsI_1/m_=_3716.3
# ordenada_HvsI_A/m_=_1297.0
# frecuencia_Hz_=_135076.4011531409

Tiempo_(s)	Campo_(V.s)	Magnetizacion_(V.s)	Campo_(kA/m)	Magnetizacion_(A/m)
0.000000e+00	-5.430287e-06	-2.648512e-09	-3.839383e+01	-1.716647e+02
1.000000e-08	-5.430268e-06	-2.655913e-09	-3.839369e+01	-1.716396e+02
2.000000e-08	-5.430084e-06	-2.660319e-09	-3.839240e+01	-1.716129e+02
3.000000e-08	-5.429576e-06	-2.661487e-09	-3.838880e+01	-1.715859e+02
4.000000e-08	-5.428651e-06	-2.660441e-09	-3.838226e+01	-1.715603e+02
5.000000e-08	-5.427160e-06	-2.660474e-09	-3.837172e+01	-1.715374e+02
6.000000e-08	-5.425022e-06	-2.672291e-09	-3.835660e+01	-1.715190e+02
7.000000e-08	-5.422223e-06	-2.661343e-09	-3.833682e+01	-1.715065e+02
8.000000e-08	-5.418867e-06	-2.592790e-09	-3.831309e+01	-1.715017e+02
9.000000e-08	-5.415108e-06	-2.593675e-09	-3.828651e+01	-1.715058e+02
1.000000e-07	-5.410954e-06	-2.728593e-09	-3.825714e+01	-1.715203e+02
1.100000e-07	-5.406547e-06	-2.724970e-09	-3.822598e+01	-1.715463e+02
1.200000e-07	-5.401967e-06	-2.604894e-09	-3.819360e+01	-1.715850e+02
1.300000e-07	-5.397109e-06	-2.535858e-09	-3.815925e+01	-1.716372e+02
1.400000e-07	-5.391862e-06	-2.708144e-09	-3.812215e+01	-1.717034e+02
1.500000e-07	-5.386182e-06	-2.725644e-09	-3.808199e+01	-1.717842e+02
1.600000e-07	-5.380133e-06	-2.535956e-09	-3.803923e+01	-1.718795e+02
1.700000e-07	-5.373689e-06	-2.528439e-09	-3.799367e+01	-1.719893e+02
1.800000e-07	-5.366763e-06	-2.679381e-09	-3.794469e+01	-1.721131e+02
1.900000e-07	-5.359500e-06	-2.742044e-09	-3.789334e+01	-1.722504e+02
2.000000e-07	-5.351995e-06	-2.579150e-09	-3.784028e+01	-1.724000e+02
2.100000e-07	-5.344244e-06	-2.617450e-09	-3.778548e+01	-1.725609e+02
2.200000e-07	-5.336168e-06	-2.697344e-09	-3.772838e+01	-1.727316e+02
2.300000e-07	-5.327773e-06	-2.679297e-09	-3.766902e+01	-1.729104e+02
2.400000e-07	-5.319058e-06	-2.578056e-09	-3.760741e+01	-1.730955e+02
2.500000e-07	-5.309772e-06	-2.671579e-09	-3.754175e+01	-1.732849e+02
2.600000e-07	-5.299617e-06	-2.722310e-09	-3.746995e+01	-1.734765e+02
2.700000e-07	-5.288894e-06	-2.656953e-09	-3.739413e+01	-1.736680e+02
2.800000e-07	-5.277794e-06	-2.640025e-09	-3.731565e+01	-1.738571e+02
2.900000e-07	-5.266210e-06	-2.754370e-09	-3.723376e+01	-1.740416e+02
3.000000e-07	-5.254270e-06	-2.722955e-09	-3.714934e+01	-1.742190e+02
3.100000e-07	-5.241971e-06	-2.622925e-09	-3.706238e+01	-1.743873e+02
3.200000e-07	-5.229181e-06	-2.687486e-09	-3.697194e+01	-1.745441e+02
3.300000e-07	-5.216024e-06	-2.753994e-09	-3.687893e+01	-1.746876e+02
3.400000e-07	-5.202625e-06	-2.694065e-09	-3.678419e+01	-1.748157e+02
3.500000e-07	-5.188851e-06	-2.664523e-09	-3.668681e+01	-1.749268e+02
3.600000e-07	-5.174481e-06	-2.720427e-09	-3.658520e+01	-1.750194e+02
3.700000e-07	-5.159618e-06	-2.687957e-09	-3.648011e+01	-1.750923e+02
3.800000e-07	-5.144454e-06	-2.663851e-09	-3.637290e+01	-1.751443e+02
3.900000e-07	-5.128700e-06	-2.692494e-09	-3.626152e+01	-1.751748e+02
4.000000e-07	-5.112337e-06	-2.685881e-09	-3.614582e+01	-1.751832e+02
4.100000e-07	-5.095627e-06	-2.648790e-09	-3.602768e+01	-1.751693e+02
4.200000e-07	-5.078557e-06	-2.712916e-09	-3.590699e+01	-1.751331e+02
4.300000e-07	-5.061165e-06	-2.719173e-09	-3.578402e+01	-1.750749e+02
4.400000e-07	-5.043526e-06	-2.663936e-09	-3.565931e+01	-1.749951e+02
4.500000e-07	-5.025604e-06	-2.639914e-09	-3.553260e+01	-1.748946e+02
4.600000e-07	-5.007389e-06	-2.692043e-09	-3.540381e+01	-1.747742e+02
4.700000e-07	-4.988756e-06	-2.664872e-09	-3.527207e+01	-1.746351e+02
4.800000e-07	-4.969640e-06	-2.653309e-09	-3.513691e+01	-1.744785e+02
4.900000e-07	-4.950116e-06	-2.654319e-09	-3.499887e+01	-1.743059e+02
5.000000e-07	-4.930354e-06	-2.676203e-09	-3.485915e+01	-1.741187e+02
5.100000e-07	-4.910393e-06	-2.674825e-09	-3.471802e+01	-1.739185e+02
5.200000e-07	-4.890290e-06	-2.679705e-09	-3.457588e+01	-1.737069e+02
5.300000e-07	-4.869954e-06	-2.634003e-09	-3.443210e+01	-1.734856e+02
5.400000e-07	-4.849250e-06	-2.630417e-09	-3.428572e+01	-1.732561e+02
5.500000e-07	-4.828108e-06	-2.648847e-09	-3.413623e+01	-1.730199e+02
5.600000e-07	-4.806576e-06	-2.647420e-09	-3.398400e+01	-1.727787e+02
5.700000e-07	-4.784820e-06	-2.617647e-09	-3.383018e+01	-1.725336e+02
5.800000e-07	-4.762785e-06	-2.631212e-09	-3.367438e+01	-1.722861e+02
5.900000e-07	-4.740380e-06	-2.640427e-09	-3.351597e+01	-1.720373e+02
6.000000e-07	-4.717636e-06	-2.635851e-09	-3.335516e+01	-1.717881e+02
6.100000e-07	-4.694579e-06	-2.621488e-09	-3.319214e+01	-1.715394e+02
6.200000e-07	-4.671127e-06	-2.602421e-09	-3.302633e+01	-1.712919e+02
6.300000e-07	-4.647369e-06	-2.599254e-09	-3.285835e+01	-1.710461e+02
6.400000e-07	-4.623482e-06	-2.611156e-09	-3.268946e+01	-1.708025e+02
6.500000e-07	-4.599425e-06	-2.604327e-09	-3.251938e+01	-1.705611e+02
6.600000e-07	-4.575049e-06	-2.578785e-09	-3.234703e+01	-1.703221e+02
6.700000e-07	-4.550171e-06	-2.584846e-09	-3.217113e+01	-1.700854e+02
6.800000e-07	-4.524827e-06	-2.593595e-09	-3.199195e+01	-1.698508e+02
6.900000e-07	-4.499093e-06	-2.589553e-09	-3.181000e+01	-1.696179e+02
7.000000e-07	-4.472918e-06	-2.570886e-09	-3.162493e+01	-1.693864e+02
7.100000e-07	-4.446169e-06	-2.573556e-09	-3.143581e+01	-1.691556e+02
7.200000e-07	-4.418907e-06	-2.574317e-09	-3.124306e+01	-1.689250e+02
7.300000e-07	-4.391397e-06	-2.579980e-09	-3.104855e+01	-1.686941e+02
7.400000e-07	-4.363617e-06	-2.559240e-09	-3.085214e+01	-1.684620e+02
7.500000e-07	-4.335627e-06	-2.549353e-09	-3.065424e+01	-1.682281e+02
7.600000e-07	-4.307488e-06	-2.543187e-09	-3.045529e+01	-1.679917e+02
7.700000e-07	-4.279091e-06	-2.547213e-09	-3.025451e+01	-1.677520e+02
7.800000e-07	-4.250382e-06	-2.531990e-09	-3.005153e+01	-1.675085e+02
7.900000e-07	-4.221356e-06	-2.528791e-09	-2.984631e+01	-1.672605e+02
8.000000e-07	-4.191982e-06	-2.528878e-09	-2.963862e+01	-1.670074e+02
8.100000e-07	-4.162300e-06	-2.536925e-09	-2.942876e+01	-1.667486e+02
8.200000e-07	-4.132419e-06	-2.527047e-09	-2.921750e+01	-1.664836e+02
8.300000e-07	-4.102359e-06	-2.517070e-09	-2.900496e+01	-1.662120e+02
8.400000e-07	-4.072034e-06	-2.505480e-09	-2.879056e+01	-1.659334e+02
8.500000e-07	-4.041382e-06	-2.504990e-09	-2.857383e+01	-1.656476e+02
8.600000e-07	-4.010341e-06	-2.495664e-09	-2.835436e+01	-1.653543e+02
8.700000e-07	-3.979113e-06	-2.485624e-09	-2.813357e+01	-1.650533e+02
8.800000e-07	-3.947795e-06	-2.478625e-09	-2.791215e+01	-1.647445e+02
8.900000e-07	-3.916207e-06	-2.482228e-09	-2.768881e+01	-1.644279e+02
9.000000e-07	-3.884337e-06	-2.482285e-09	-2.746348e+01	-1.641034e+02
9.100000e-07	-3.852270e-06	-2.475384e-09	-2.723676e+01	-1.637710e+02
9.200000e-07	-3.820009e-06	-2.469311e-09	-2.700866e+01	-1.634309e+02
9.300000e-07	-3.787507e-06	-2.468744e-09	-2.677886e+01	-1.630832e+02
9.400000e-07	-3.754779e-06	-2.467572e-09	-2.654746e+01	-1.627281e+02
9.500000e-07	-3.721708e-06	-2.455154e-09	-2.631364e+01	-1.623656e+02
9.600000e-07	-3.688225e-06	-2.441814e-09	-2.607690e+01	-1.619960e+02
9.700000e-07	-3.654226e-06	-2.432337e-09	-2.583652e+01	-1.616196e+02
9.800000e-07	-3.619585e-06	-2.430162e-09	-2.559160e+01	-1.612365e+02
9.900000e-07	-3.584573e-06	-2.424530e-09	-2.534406e+01	-1.608469e+02
1.000000e-06	-3.549350e-06	-2.426390e-09	-2.509501e+01	-1.604512e+02
1.010000e-06	-3.513795e-06	-2.428976e-09	-2.484363e+01	-1.600496e+02
1.020000e-06	-3.478013e-06	-2.431121e-09	-2.459064e+01	-1.596422e+02
1.030000e-06	-3.442100e-06	-2.418457e-09	-2.433673e+01	-1.592295e+02
1.040000e-06	-3.406110e-06	-2.404590e-09	-2.408227e+01	-1.588115e+02
1.050000e-06	-3.370073e-06	-2.385614e-09	-2.382747e+01	-1.583886e+02
1.060000e-06	-3.333852e-06	-2.373164e-09	-2.357138e+01	-1.579610e+02
1.070000e-06	-3.297254e-06	-2.360957e-09	-2.331262e+01	-1.575288e+02
1.080000e-06	-3.260329e-06	-2.356056e-09	-2.305155e+01	-1.570925e+02
1.090000e-06	-3.223264e-06	-2.353307e-09	-2.278949e+01	-1.566520e+02
1.100000e-06	-3.186005e-06	-2.358119e-09	-2.252605e+01	-1.562077e+02
1.110000e-06	-3.148491e-06	-2.354211e-09	-2.226082e+01	-1.557597e+02
1.120000e-06	-3.110830e-06	-2.345376e-09	-2.199454e+01	-1.553081e+02
1.130000e-06	-3.073030e-06	-2.330927e-09	-2.172728e+01	-1.548532e+02
1.140000e-06	-3.035000e-06	-2.317182e-09	-2.145840e+01	-1.543949e+02
1.150000e-06	-2.996714e-06	-2.301845e-09	-2.118771e+01	-1.539334e+02
1.160000e-06	-2.958200e-06	-2.291642e-09	-2.091540e+01	-1.534686e+02
1.170000e-06	-2.919452e-06	-2.285103e-09	-2.064144e+01	-1.530007e+02
1.180000e-06	-2.880457e-06	-2.282113e-09	-2.036573e+01	-1.525294e+02
1.190000e-06	-2.841260e-06	-2.280158e-09	-2.008860e+01	-1.520547e+02
1.200000e-06	-2.801834e-06	-2.274122e-09	-1.980984e+01	-1.515765e+02
1.210000e-06	-2.762286e-06	-2.262600e-09	-1.953022e+01	-1.510943e+02
1.220000e-06	-2.722632e-06	-2.247793e-09	-1.924986e+01	-1.506081e+02
1.230000e-06	-2.682802e-06	-2.233541e-09	-1.896825e+01	-1.501173e+02
1.240000e-06	-2.642909e-06	-2.220677e-09	-1.868619e+01	-1.496214e+02
1.250000e-06	-2.602929e-06	-2.212269e-09	-1.840352e+01	-1.491201e+02
1.260000e-06	-2.562839e-06	-2.204900e-09	-1.812007e+01	-1.486126e+02
1.270000e-06	-2.522657e-06	-2.200564e-09	-1.783598e+01	-1.480984e+02
1.280000e-06	-2.482330e-06	-2.194065e-09	-1.755085e+01	-1.475765e+02
1.290000e-06	-2.441908e-06	-2.187075e-09	-1.726505e+01	-1.470464e+02
1.300000e-06	-2.401302e-06	-2.176682e-09	-1.697796e+01	-1.465069e+02
1.310000e-06	-2.360336e-06	-2.166856e-09	-1.668831e+01	-1.459574e+02
1.320000e-06	-2.319096e-06	-2.152909e-09	-1.639673e+01	-1.453967e+02
1.330000e-06	-2.277542e-06	-2.138408e-09	-1.610294e+01	-1.448239e+02
1.340000e-06	-2.235673e-06	-2.122621e-09	-1.580691e+01	-1.442380e+02
1.350000e-06	-2.193513e-06	-2.111066e-09	-1.550882e+01	-1.436380e+02
1.360000e-06	-2.151091e-06	-2.099739e-09	-1.520888e+01	-1.430228e+02
1.370000e-06	-2.108419e-06	-2.091033e-09	-1.490718e+01	-1.423914e+02
1.380000e-06	-2.065490e-06	-2.078763e-09	-1.460366e+01	-1.417429e+02
1.390000e-06	-2.022345e-06	-2.065738e-09	-1.429861e+01	-1.410764e+02
1.400000e-06	-1.978991e-06	-2.054778e-09	-1.399209e+01	-1.403909e+02
1.410000e-06	-1.935523e-06	-2.043870e-09	-1.368476e+01	-1.396856e+02
1.420000e-06	-1.891975e-06	-2.028073e-09	-1.337686e+01	-1.389599e+02
1.430000e-06	-1.848317e-06	-2.010342e-09	-1.306818e+01	-1.382130e+02
1.440000e-06	-1.804549e-06	-1.995843e-09	-1.275873e+01	-1.374443e+02
1.450000e-06	-1.760722e-06	-1.985838e-09	-1.244885e+01	-1.366534e+02
1.460000e-06	-1.716809e-06	-1.974835e-09	-1.213838e+01	-1.358399e+02
1.470000e-06	-1.672829e-06	-1.959817e-09	-1.182742e+01	-1.350034e+02
1.480000e-06	-1.628801e-06	-1.942937e-09	-1.151614e+01	-1.341437e+02
1.490000e-06	-1.584658e-06	-1.927920e-09	-1.120403e+01	-1.332608e+02
1.500000e-06	-1.540421e-06	-1.914306e-09	-1.089126e+01	-1.323544e+02
1.510000e-06	-1.496113e-06	-1.896936e-09	-1.057799e+01	-1.314246e+02
1.520000e-06	-1.451694e-06	-1.876943e-09	-1.026393e+01	-1.304714e+02
1.530000e-06	-1.407223e-06	-1.860535e-09	-9.949504e+00	-1.294947e+02
1.540000e-06	-1.362738e-06	-1.849814e-09	-9.634982e+00	-1.284948e+02
1.550000e-06	-1.318099e-06	-1.835626e-09	-9.319371e+00	-1.274716e+02
1.560000e-06	-1.273339e-06	-1.816409e-09	-9.002909e+00	-1.264250e+02
1.570000e-06	-1.228581e-06	-1.799768e-09	-8.686449e+00	-1.253551e+02
1.580000e-06	-1.183713e-06	-1.789633e-09	-8.369221e+00	-1.242617e+02
1.590000e-06	-1.138737e-06	-1.776983e-09	-8.051224e+00	-1.231446e+02
1.600000e-06	-1.093703e-06	-1.759473e-09	-7.732821e+00	-1.220035e+02
1.610000e-06	-1.048507e-06	-1.742342e-09	-7.413272e+00	-1.208379e+02
1.620000e-06	-1.003225e-06	-1.727491e-09	-7.093112e+00	-1.196472e+02
1.630000e-06	-9.578767e-07	-1.708448e-09	-6.772489e+00	-1.184305e+02
1.640000e-06	-9.124308e-07	-1.685057e-09	-6.451172e+00	-1.171871e+02
1.650000e-06	-8.668911e-07	-1.662760e-09	-6.129192e+00	-1.159156e+02
1.660000e-06	-8.212199e-07	-1.646291e-09	-5.806282e+00	-1.146150e+02
1.670000e-06	-7.754844e-07	-1.629592e-09	-5.482918e+00	-1.132835e+02
1.680000e-06	-7.297791e-07	-1.608321e-09	-5.159767e+00	-1.119196e+02
1.690000e-06	-6.840701e-07	-1.584805e-09	-4.836590e+00	-1.105215e+02
1.700000e-06	-6.382706e-07	-1.564790e-09	-4.512773e+00	-1.090872e+02
1.710000e-06	-5.924403e-07	-1.543556e-09	-4.188739e+00	-1.076144e+02
1.720000e-06	-5.465921e-07	-1.518790e-09	-3.864577e+00	-1.061011e+02
1.730000e-06	-5.006414e-07	-1.492554e-09	-3.539692e+00	-1.045449e+02
1.740000e-06	-4.546969e-07	-1.468561e-09	-3.214850e+00	-1.029433e+02
1.750000e-06	-4.088243e-07	-1.446271e-09	-2.890516e+00	-1.012939e+02
1.760000e-06	-3.628876e-07	-1.422545e-09	-2.565729e+00	-9.959437e+01
1.770000e-06	-3.168776e-07	-1.396222e-09	-2.240424e+00	-9.784216e+01
1.780000e-06	-2.708654e-07	-1.370924e-09	-1.915103e+00	-9.603497e+01
1.790000e-06	-2.248997e-07	-1.345089e-09	-1.590112e+00	-9.417056e+01
1.800000e-06	-1.788801e-07	-1.315244e-09	-1.264739e+00	-9.224681e+01
1.810000e-06	-1.328540e-07	-1.283107e-09	-9.393195e-01	-9.026177e+01
1.820000e-06	-8.685205e-08	-1.251705e-09	-6.140712e-01	-8.821370e+01
1.830000e-06	-4.082693e-08	-1.221129e-09	-2.886592e-01	-8.610109e+01
1.840000e-06	5.161781e-09	-1.187785e-09	3.649541e-02	-8.392268e+01
1.850000e-06	5.110509e-08	-1.151106e-09	3.613290e-01	-8.167751e+01
1.860000e-06	9.706952e-08	-1.113986e-09	6.863119e-01	-7.936491e+01
1.870000e-06	1.430777e-07	-1.079750e-09	1.011604e+00	-7.698452e+01
1.880000e-06	1.891098e-07	-1.043507e-09	1.337066e+00	-7.453632e+01
1.890000e-06	2.351682e-07	-1.004535e-09	1.662713e+00	-7.202064e+01
1.900000e-06	2.811398e-07	-9.661188e-10	1.987747e+00	-6.943812e+01
1.910000e-06	3.270699e-07	-9.276208e-10	2.312486e+00	-6.678974e+01
1.920000e-06	3.729935e-07	-8.872338e-10	2.637181e+00	-6.407683e+01
1.930000e-06	4.189105e-07	-8.453544e-10	2.961828e+00	-6.130101e+01
1.940000e-06	4.648710e-07	-8.014019e-10	3.286784e+00	-5.846421e+01
1.950000e-06	5.107285e-07	-7.597579e-10	3.611011e+00	-5.556861e+01
1.960000e-06	5.564207e-07	-7.186913e-10	3.934069e+00	-5.261667e+01
1.970000e-06	6.021028e-07	-6.738696e-10	4.257055e+00	-4.961107e+01
1.980000e-06	6.478397e-07	-6.263965e-10	4.580429e+00	-4.655466e+01
1.990000e-06	6.935479e-07	-5.813118e-10	4.903601e+00	-4.345048e+01
2.000000e-06	7.391755e-07	-5.384655e-10	5.226202e+00	-4.030168e+01
2.010000e-06	7.847742e-07	-4.932805e-10	5.548600e+00	-3.711153e+01
2.020000e-06	8.302942e-07	-4.422869e-10	5.870440e+00	-3.388333e+01
2.030000e-06	8.757039e-07	-3.901334e-10	6.191501e+00	-3.062045e+01
2.040000e-06	9.211103e-07	-3.396081e-10	6.512538e+00	-2.732624e+01
2.050000e-06	9.664914e-07	-2.888035e-10	6.833397e+00	-2.400404e+01
2.060000e-06	1.011766e-06	-2.387897e-10	7.153500e+00	-2.065714e+01
2.070000e-06	1.056913e-06	-1.926542e-10	7.472705e+00	-1.728874e+01
2.080000e-06	1.101994e-06	-1.502152e-10	7.791441e+00	-1.390198e+01
2.090000e-06	1.147014e-06	-1.060408e-10	8.109747e+00	-1.049989e+01
2.100000e-06	1.191901e-06	-5.556590e-11	8.427117e+00	-7.085378e+00
2.110000e-06	1.236716e-06	-1.748903e-12	8.743968e+00	-3.661242e+00
2.120000e-06	1.281515e-06	5.219438e-11	9.060709e+00	-2.301589e-01
2.130000e-06	1.326146e-06	1.076663e-10	9.376266e+00	3.205313e+00
2.140000e-06	1.370611e-06	1.627189e-10	9.690649e+00	6.642730e+00
2.150000e-06	1.415021e-06	2.148487e-10	1.000464e+01	1.007975e+01
2.160000e-06	1.459347e-06	2.616956e-10	1.031804e+01	1.351413e+01
2.170000e-06	1.503595e-06	3.080914e-10	1.063089e+01	1.694369e+01
2.180000e-06	1.547798e-06	3.576572e-10	1.094342e+01	2.036634e+01
2.190000e-06	1.591963e-06	4.096763e-10	1.125568e+01	2.378001e+01
2.200000e-06	1.636024e-06	4.613884e-10	1.156720e+01	2.718268e+01
2.210000e-06	1.680016e-06	5.123167e-10	1.187824e+01	3.057232e+01
2.220000e-06	1.723992e-06	5.632459e-10	1.218917e+01	3.394690e+01
2.230000e-06	1.767924e-06	6.121681e-10	1.249978e+01	3.730439e+01
2.240000e-06	1.811771e-06	6.580029e-10	1.280979e+01	4.064270e+01
2.250000e-06	1.855518e-06	7.039847e-10	1.311909e+01	4.395968e+01
2.260000e-06	1.899168e-06	7.519212e-10	1.342771e+01	4.725317e+01
2.270000e-06	1.942714e-06	8.003123e-10	1.373560e+01	5.052090e+01
2.280000e-06	1.986143e-06	8.468070e-10	1.404265e+01	5.376056e+01
2.290000e-06	2.029399e-06	8.912657e-10	1.434848e+01	5.696978e+01
2.300000e-06	2.072433e-06	9.356156e-10	1.465275e+01	6.014611e+01
2.310000e-06	2.115201e-06	9.807508e-10	1.495513e+01	6.328707e+01
2.320000e-06	2.157744e-06	1.024475e-09	1.525592e+01	6.639013e+01
2.330000e-06	2.200135e-06	1.066384e-09	1.555564e+01	6.945275e+01
2.340000e-06	2.242309e-06	1.109312e-09	1.585383e+01	7.247238e+01
2.350000e-06	2.284120e-06	1.154826e-09	1.614944e+01	7.544649e+01
2.360000e-06	2.325561e-06	1.197517e-09	1.644244e+01	7.837260e+01
2.370000e-06	2.366650e-06	1.234338e-09	1.673296e+01	8.124829e+01
2.380000e-06	2.407441e-06	1.271786e-09	1.702136e+01	8.407123e+01
2.390000e-06	2.448090e-06	1.310775e-09	1.730876e+01	8.683923e+01
2.400000e-06	2.488629e-06	1.345943e-09	1.759538e+01	8.955024e+01
2.410000e-06	2.528968e-06	1.376732e-09	1.788060e+01	9.220237e+01
2.420000e-06	2.569140e-06	1.410075e-09	1.816462e+01	9.479397e+01
2.430000e-06	2.609203e-06	1.451660e-09	1.844788e+01	9.732357e+01
2.440000e-06	2.649138e-06	1.495657e-09	1.873024e+01	9.978996e+01
2.450000e-06	2.689006e-06	1.531008e-09	1.901212e+01	1.021922e+02
2.460000e-06	2.728806e-06	1.561180e-09	1.929352e+01	1.045296e+02
2.470000e-06	2.768420e-06	1.590669e-09	1.957359e+01	1.068017e+02
2.480000e-06	2.807835e-06	1.618778e-09	1.985227e+01	1.090085e+02
2.490000e-06	2.847091e-06	1.644860e-09	2.012982e+01	1.111501e+02
2.500000e-06	2.886156e-06	1.671210e-09	2.040603e+01	1.132269e+02
2.510000e-06	2.924965e-06	1.704217e-09	2.068042e+01	1.152397e+02
2.520000e-06	2.963531e-06	1.740807e-09	2.095309e+01	1.171894e+02
2.530000e-06	3.001864e-06	1.770131e-09	2.122412e+01	1.190772e+02
2.540000e-06	3.040025e-06	1.791803e-09	2.149393e+01	1.209046e+02
2.550000e-06	3.078089e-06	1.815708e-09	2.176305e+01	1.226731e+02
2.560000e-06	3.115895e-06	1.842865e-09	2.203036e+01	1.243846e+02
2.570000e-06	3.153488e-06	1.865394e-09	2.229615e+01	1.260408e+02
2.580000e-06	3.190941e-06	1.882232e-09	2.256095e+01	1.276439e+02
2.590000e-06	3.228063e-06	1.902506e-09	2.282341e+01	1.291958e+02
2.600000e-06	3.264991e-06	1.930252e-09	2.308451e+01	1.306986e+02
2.610000e-06	3.301704e-06	1.958055e-09	2.334408e+01	1.321544e+02
2.620000e-06	3.338094e-06	1.980971e-09	2.360137e+01	1.335654e+02
2.630000e-06	3.374309e-06	2.001813e-09	2.385742e+01	1.349334e+02
2.640000e-06	3.410355e-06	2.023855e-09	2.411228e+01	1.362603e+02
2.650000e-06	3.446258e-06	2.043356e-09	2.436612e+01	1.375480e+02
2.660000e-06	3.482043e-06	2.058322e-09	2.461913e+01	1.387980e+02
2.670000e-06	3.517694e-06	2.073929e-09	2.487120e+01	1.400119e+02
2.680000e-06	3.553100e-06	2.092580e-09	2.512153e+01	1.411910e+02
2.690000e-06	3.588261e-06	2.110663e-09	2.537013e+01	1.423363e+02
2.700000e-06	3.623120e-06	2.124955e-09	2.561659e+01	1.434490e+02
2.710000e-06	3.657548e-06	2.140362e-09	2.586001e+01	1.445298e+02
2.720000e-06	3.691526e-06	2.160611e-09	2.610025e+01	1.455794e+02
2.730000e-06	3.724972e-06	2.180687e-09	2.633672e+01	1.465981e+02
2.740000e-06	3.757932e-06	2.195508e-09	2.656976e+01	1.475863e+02
2.750000e-06	3.790488e-06	2.208905e-09	2.679994e+01	1.485442e+02
2.760000e-06	3.822752e-06	2.224688e-09	2.702806e+01	1.494720e+02
2.770000e-06	3.854875e-06	2.241041e-09	2.725517e+01	1.503695e+02
2.780000e-06	3.886866e-06	2.253335e-09	2.748136e+01	1.512369e+02
2.790000e-06	3.918707e-06	2.261513e-09	2.770649e+01	1.520739e+02
2.800000e-06	3.950344e-06	2.270428e-09	2.793017e+01	1.528804e+02
2.810000e-06	3.981784e-06	2.283291e-09	2.815246e+01	1.536566e+02
2.820000e-06	4.013014e-06	2.295989e-09	2.837327e+01	1.544022e+02
2.830000e-06	4.043934e-06	2.306341e-09	2.859188e+01	1.551173e+02
2.840000e-06	4.074488e-06	2.318865e-09	2.880790e+01	1.558022e+02
2.850000e-06	4.104703e-06	2.332794e-09	2.902153e+01	1.564570e+02
2.860000e-06	4.134681e-06	2.344891e-09	2.923349e+01	1.570821e+02
2.870000e-06	4.164420e-06	2.352219e-09	2.944376e+01	1.576780e+02
2.880000e-06	4.193845e-06	2.356750e-09	2.965180e+01	1.582454e+02
2.890000e-06	4.222995e-06	2.361592e-09	2.985790e+01	1.587850e+02
2.900000e-06	4.251903e-06	2.368069e-09	3.006229e+01	1.592980e+02
