# Temperatura_=_19.29
# Concentracion g/m^3_=_4090.0
# C_Vs_to_Am_M_A/Vsm_=_65563218390.804596
# pendiente_HvsI_1/m_=_3716.3
# ordenada_HvsI_A/m_=_1297.0
# frecuencia_Hz_=_135078.5269242007

Tiempo_(s)	Campo_(V.s)	Magnetizacion_(V.s)	Campo_(kA/m)	Magnetizacion_(A/m)
0.000000e+00	-5.410950e-06	-2.722442e-09	-3.838927e+01	-1.757894e+02
1.000000e-08	-5.411012e-06	-2.722239e-09	-3.838971e+01	-1.757292e+02
2.000000e-08	-5.410868e-06	-2.721001e-09	-3.838869e+01	-1.756699e+02
3.000000e-08	-5.410357e-06	-2.722882e-09	-3.838506e+01	-1.756129e+02
4.000000e-08	-5.409328e-06	-2.722350e-09	-3.837776e+01	-1.755596e+02
5.000000e-08	-5.407828e-06	-2.716195e-09	-3.836712e+01	-1.755112e+02
6.000000e-08	-5.405752e-06	-2.709076e-09	-3.835239e+01	-1.754693e+02
7.000000e-08	-5.402995e-06	-2.710118e-09	-3.833283e+01	-1.754349e+02
8.000000e-08	-5.399640e-06	-2.736960e-09	-3.830902e+01	-1.754095e+02
9.000000e-08	-5.395706e-06	-2.757880e-09	-3.828112e+01	-1.753940e+02
1.000000e-07	-5.391409e-06	-2.724273e-09	-3.825063e+01	-1.753894e+02
1.100000e-07	-5.387081e-06	-2.679010e-09	-3.821993e+01	-1.753965e+02
1.200000e-07	-5.382771e-06	-2.704770e-09	-3.818934e+01	-1.754160e+02
1.300000e-07	-5.378094e-06	-2.729577e-09	-3.815617e+01	-1.754483e+02
1.400000e-07	-5.372745e-06	-2.711709e-09	-3.811821e+01	-1.754936e+02
1.500000e-07	-5.366919e-06	-2.649640e-09	-3.807688e+01	-1.755519e+02
1.600000e-07	-5.360917e-06	-2.688460e-09	-3.803430e+01	-1.756230e+02
1.700000e-07	-5.354480e-06	-2.726854e-09	-3.798863e+01	-1.757064e+02
1.800000e-07	-5.347374e-06	-2.712485e-09	-3.793822e+01	-1.758015e+02
1.900000e-07	-5.340032e-06	-2.668813e-09	-3.788612e+01	-1.759074e+02
2.000000e-07	-5.332680e-06	-2.681147e-09	-3.783396e+01	-1.760229e+02
2.100000e-07	-5.325095e-06	-2.697812e-09	-3.778015e+01	-1.761468e+02
2.200000e-07	-5.317148e-06	-2.678382e-09	-3.772377e+01	-1.762775e+02
2.300000e-07	-5.308926e-06	-2.687416e-09	-3.766543e+01	-1.764135e+02
2.400000e-07	-5.300371e-06	-2.717957e-09	-3.760474e+01	-1.765529e+02
2.500000e-07	-5.290961e-06	-2.733123e-09	-3.753798e+01	-1.766939e+02
2.600000e-07	-5.280674e-06	-2.713918e-09	-3.746500e+01	-1.768346e+02
2.700000e-07	-5.269859e-06	-2.742427e-09	-3.738826e+01	-1.769728e+02
2.800000e-07	-5.258610e-06	-2.744132e-09	-3.730845e+01	-1.771066e+02
2.900000e-07	-5.247042e-06	-2.703125e-09	-3.722639e+01	-1.772341e+02
3.000000e-07	-5.235149e-06	-2.683273e-09	-3.714201e+01	-1.773531e+02
3.100000e-07	-5.222889e-06	-2.741457e-09	-3.705503e+01	-1.774619e+02
3.200000e-07	-5.210255e-06	-2.749355e-09	-3.696539e+01	-1.775587e+02
3.300000e-07	-5.197242e-06	-2.716488e-09	-3.687306e+01	-1.776417e+02
3.400000e-07	-5.183888e-06	-2.702657e-09	-3.677832e+01	-1.777096e+02
3.500000e-07	-5.170183e-06	-2.729193e-09	-3.668109e+01	-1.777610e+02
3.600000e-07	-5.156105e-06	-2.715776e-09	-3.658121e+01	-1.777947e+02
3.700000e-07	-5.141583e-06	-2.707775e-09	-3.647818e+01	-1.778098e+02
3.800000e-07	-5.126331e-06	-2.696366e-09	-3.636997e+01	-1.778056e+02
3.900000e-07	-5.110298e-06	-2.694466e-09	-3.625622e+01	-1.777815e+02
4.000000e-07	-5.093878e-06	-2.700798e-09	-3.613972e+01	-1.777373e+02
4.100000e-07	-5.077248e-06	-2.717377e-09	-3.602174e+01	-1.776729e+02
4.200000e-07	-5.060389e-06	-2.689684e-09	-3.590213e+01	-1.775884e+02
4.300000e-07	-5.043213e-06	-2.664579e-09	-3.578027e+01	-1.774842e+02
4.400000e-07	-5.025726e-06	-2.676246e-09	-3.565620e+01	-1.773607e+02
4.500000e-07	-5.007937e-06	-2.686858e-09	-3.553000e+01	-1.772187e+02
4.600000e-07	-4.989676e-06	-2.668753e-09	-3.540044e+01	-1.770590e+02
4.700000e-07	-4.970973e-06	-2.653973e-09	-3.526775e+01	-1.768826e+02
4.800000e-07	-4.951915e-06	-2.662307e-09	-3.513253e+01	-1.766906e+02
4.900000e-07	-4.932528e-06	-2.668691e-09	-3.499499e+01	-1.764841e+02
5.000000e-07	-4.912871e-06	-2.666346e-09	-3.485553e+01	-1.762644e+02
5.100000e-07	-4.893039e-06	-2.644702e-09	-3.471483e+01	-1.760327e+02
5.200000e-07	-4.873030e-06	-2.637607e-09	-3.457287e+01	-1.757904e+02
5.300000e-07	-4.852731e-06	-2.649157e-09	-3.442885e+01	-1.755388e+02
5.400000e-07	-4.832093e-06	-2.656561e-09	-3.428243e+01	-1.752791e+02
5.500000e-07	-4.811095e-06	-2.630574e-09	-3.413345e+01	-1.750126e+02
5.600000e-07	-4.789702e-06	-2.625116e-09	-3.398168e+01	-1.747403e+02
5.700000e-07	-4.767960e-06	-2.634159e-09	-3.382743e+01	-1.744635e+02
5.800000e-07	-4.745946e-06	-2.636360e-09	-3.367124e+01	-1.741832e+02
5.900000e-07	-4.723648e-06	-2.620596e-09	-3.351304e+01	-1.739001e+02
6.000000e-07	-4.701033e-06	-2.615962e-09	-3.335259e+01	-1.736151e+02
6.100000e-07	-4.678125e-06	-2.608033e-09	-3.319007e+01	-1.733289e+02
6.200000e-07	-4.654949e-06	-2.607843e-09	-3.302564e+01	-1.730421e+02
6.300000e-07	-4.631408e-06	-2.600116e-09	-3.285862e+01	-1.727551e+02
6.400000e-07	-4.607573e-06	-2.585961e-09	-3.268952e+01	-1.724682e+02
6.500000e-07	-4.583577e-06	-2.576696e-09	-3.251928e+01	-1.721817e+02
6.600000e-07	-4.559339e-06	-2.590700e-09	-3.234731e+01	-1.718957e+02
6.700000e-07	-4.534685e-06	-2.590486e-09	-3.217240e+01	-1.716103e+02
6.800000e-07	-4.509547e-06	-2.576033e-09	-3.199405e+01	-1.713254e+02
6.900000e-07	-4.483921e-06	-2.566197e-09	-3.181224e+01	-1.710409e+02
7.000000e-07	-4.457781e-06	-2.567966e-09	-3.162679e+01	-1.707565e+02
7.100000e-07	-4.431107e-06	-2.563146e-09	-3.143754e+01	-1.704721e+02
7.200000e-07	-4.403918e-06	-2.551893e-09	-3.124464e+01	-1.701874e+02
7.300000e-07	-4.376425e-06	-2.542695e-09	-3.104959e+01	-1.699021e+02
7.400000e-07	-4.348725e-06	-2.544471e-09	-3.085306e+01	-1.696158e+02
7.500000e-07	-4.320851e-06	-2.548395e-09	-3.065530e+01	-1.693282e+02
7.600000e-07	-4.292823e-06	-2.542739e-09	-3.045645e+01	-1.690390e+02
7.700000e-07	-4.264592e-06	-2.532440e-09	-3.025616e+01	-1.687477e+02
7.800000e-07	-4.236153e-06	-2.529224e-09	-3.005439e+01	-1.684541e+02
7.900000e-07	-4.207358e-06	-2.529494e-09	-2.985010e+01	-1.681579e+02
8.000000e-07	-4.178207e-06	-2.519351e-09	-2.964328e+01	-1.678587e+02
8.100000e-07	-4.148779e-06	-2.506751e-09	-2.943450e+01	-1.675563e+02
8.200000e-07	-4.119034e-06	-2.502095e-09	-2.922346e+01	-1.672504e+02
8.300000e-07	-4.089023e-06	-2.507130e-09	-2.901054e+01	-1.669409e+02
8.400000e-07	-4.058766e-06	-2.504193e-09	-2.879588e+01	-1.666273e+02
8.500000e-07	-4.028173e-06	-2.497309e-09	-2.857883e+01	-1.663097e+02
8.600000e-07	-3.997304e-06	-2.488519e-09	-2.835982e+01	-1.659879e+02
8.700000e-07	-3.966233e-06	-2.489281e-09	-2.813938e+01	-1.656616e+02
8.800000e-07	-3.934948e-06	-2.485527e-09	-2.791742e+01	-1.653308e+02
8.900000e-07	-3.903440e-06	-2.476814e-09	-2.769388e+01	-1.649953e+02
9.000000e-07	-3.871673e-06	-2.464693e-09	-2.746850e+01	-1.646550e+02
9.100000e-07	-3.839736e-06	-2.460478e-09	-2.724191e+01	-1.643099e+02
9.200000e-07	-3.807667e-06	-2.458613e-09	-2.701440e+01	-1.639598e+02
9.300000e-07	-3.775337e-06	-2.455988e-09	-2.678502e+01	-1.636047e+02
9.400000e-07	-3.742744e-06	-2.447070e-09	-2.655378e+01	-1.632445e+02
9.500000e-07	-3.709858e-06	-2.443973e-09	-2.632047e+01	-1.628790e+02
9.600000e-07	-3.676437e-06	-2.442567e-09	-2.608336e+01	-1.625083e+02
9.700000e-07	-3.642503e-06	-2.438507e-09	-2.584260e+01	-1.621322e+02
9.800000e-07	-3.608234e-06	-2.429003e-09	-2.559947e+01	-1.617507e+02
9.900000e-07	-3.573596e-06	-2.423837e-09	-2.535372e+01	-1.613637e+02
1.000000e-06	-3.538602e-06	-2.421849e-09	-2.510545e+01	-1.609712e+02
1.010000e-06	-3.503272e-06	-2.417099e-09	-2.485479e+01	-1.605732e+02
1.020000e-06	-3.467711e-06	-2.406564e-09	-2.460250e+01	-1.601695e+02
1.030000e-06	-3.432032e-06	-2.395865e-09	-2.434937e+01	-1.597602e+02
1.040000e-06	-3.396216e-06	-2.390047e-09	-2.409526e+01	-1.593454e+02
1.050000e-06	-3.360211e-06	-2.383575e-09	-2.383981e+01	-1.589250e+02
1.060000e-06	-3.323999e-06	-2.373203e-09	-2.358290e+01	-1.584990e+02
1.070000e-06	-3.287672e-06	-2.362256e-09	-2.332517e+01	-1.580676e+02
1.080000e-06	-3.251133e-06	-2.356271e-09	-2.306593e+01	-1.576308e+02
1.090000e-06	-3.214371e-06	-2.350192e-09	-2.280511e+01	-1.571887e+02
1.100000e-06	-3.177337e-06	-2.341900e-09	-2.254237e+01	-1.567414e+02
1.110000e-06	-3.139997e-06	-2.333077e-09	-2.227745e+01	-1.562890e+02
1.120000e-06	-3.102518e-06	-2.328584e-09	-2.201155e+01	-1.558316e+02
1.130000e-06	-3.064833e-06	-2.324306e-09	-2.174418e+01	-1.553693e+02
1.140000e-06	-3.026921e-06	-2.316703e-09	-2.147521e+01	-1.549023e+02
1.150000e-06	-2.988919e-06	-2.306321e-09	-2.120559e+01	-1.544306e+02
1.160000e-06	-2.950656e-06	-2.298445e-09	-2.093413e+01	-1.539543e+02
1.170000e-06	-2.912068e-06	-2.289604e-09	-2.066036e+01	-1.534734e+02
1.180000e-06	-2.873258e-06	-2.280162e-09	-2.038501e+01	-1.529880e+02
1.190000e-06	-2.834233e-06	-2.269773e-09	-2.010814e+01	-1.524978e+02
1.200000e-06	-2.795036e-06	-2.261905e-09	-1.983004e+01	-1.520029e+02
1.210000e-06	-2.755691e-06	-2.249616e-09	-1.955090e+01	-1.515031e+02
1.220000e-06	-2.716174e-06	-2.236706e-09	-1.927054e+01	-1.509980e+02
1.230000e-06	-2.676514e-06	-2.226172e-09	-1.898916e+01	-1.504874e+02
1.240000e-06	-2.636747e-06	-2.220508e-09	-1.870703e+01	-1.499709e+02
1.250000e-06	-2.596851e-06	-2.214947e-09	-1.842397e+01	-1.494480e+02
1.260000e-06	-2.556854e-06	-2.205741e-09	-1.814021e+01	-1.489180e+02
1.270000e-06	-2.516718e-06	-2.193975e-09	-1.785546e+01	-1.483805e+02
1.280000e-06	-2.476471e-06	-2.184266e-09	-1.756991e+01	-1.478345e+02
1.290000e-06	-2.436143e-06	-2.174963e-09	-1.728379e+01	-1.472794e+02
1.300000e-06	-2.395641e-06	-2.166101e-09	-1.699644e+01	-1.467142e+02
1.310000e-06	-2.354787e-06	-2.156926e-09	-1.670660e+01	-1.461380e+02
1.320000e-06	-2.313652e-06	-2.146475e-09	-1.641475e+01	-1.455498e+02
1.330000e-06	-2.272292e-06	-2.135099e-09	-1.612131e+01	-1.449486e+02
1.340000e-06	-2.230687e-06	-2.125478e-09	-1.582614e+01	-1.443334e+02
1.350000e-06	-2.188931e-06	-2.117039e-09	-1.552989e+01	-1.437030e+02
1.360000e-06	-2.146833e-06	-2.106896e-09	-1.523121e+01	-1.430565e+02
1.370000e-06	-2.104357e-06	-2.095714e-09	-1.492986e+01	-1.423927e+02
1.380000e-06	-2.061598e-06	-2.082777e-09	-1.462650e+01	-1.417108e+02
1.390000e-06	-2.018613e-06	-2.068324e-09	-1.432153e+01	-1.410096e+02
1.400000e-06	-1.975526e-06	-2.057850e-09	-1.401584e+01	-1.402883e+02
1.410000e-06	-1.932278e-06	-2.048890e-09	-1.370900e+01	-1.395461e+02
1.420000e-06	-1.888830e-06	-2.036026e-09	-1.340075e+01	-1.387822e+02
1.430000e-06	-1.845228e-06	-2.022847e-09	-1.309141e+01	-1.379960e+02
1.440000e-06	-1.801497e-06	-2.009227e-09	-1.278115e+01	-1.371869e+02
1.450000e-06	-1.757693e-06	-1.995601e-09	-1.247037e+01	-1.363544e+02
1.460000e-06	-1.713854e-06	-1.979493e-09	-1.215935e+01	-1.354983e+02
1.470000e-06	-1.669954e-06	-1.961764e-09	-1.184788e+01	-1.346181e+02
1.480000e-06	-1.626000e-06	-1.944559e-09	-1.153604e+01	-1.337139e+02
1.490000e-06	-1.581992e-06	-1.932783e-09	-1.122381e+01	-1.327854e+02
1.500000e-06	-1.537883e-06	-1.923047e-09	-1.091088e+01	-1.318327e+02
1.510000e-06	-1.493675e-06	-1.910156e-09	-1.059723e+01	-1.308560e+02
1.520000e-06	-1.449403e-06	-1.893090e-09	-1.028314e+01	-1.298552e+02
1.530000e-06	-1.405075e-06	-1.878218e-09	-9.968637e+00	-1.288306e+02
1.540000e-06	-1.360706e-06	-1.862905e-09	-9.653852e+00	-1.277823e+02
1.550000e-06	-1.316334e-06	-1.844136e-09	-9.339040e+00	-1.267104e+02
1.560000e-06	-1.271843e-06	-1.824766e-09	-9.023391e+00	-1.256150e+02
1.570000e-06	-1.227261e-06	-1.810211e-09	-8.707092e+00	-1.244963e+02
1.580000e-06	-1.182554e-06	-1.797861e-09	-8.389907e+00	-1.233540e+02
1.590000e-06	-1.137682e-06	-1.781176e-09	-8.071557e+00	-1.221882e+02
1.600000e-06	-1.092715e-06	-1.759369e-09	-7.752524e+00	-1.209985e+02
1.610000e-06	-1.047643e-06	-1.742140e-09	-7.432752e+00	-1.197845e+02
1.620000e-06	-1.002517e-06	-1.728122e-09	-7.112592e+00	-1.185456e+02
1.630000e-06	-9.573250e-07	-1.708961e-09	-6.791969e+00	-1.172810e+02
1.640000e-06	-9.120791e-07	-1.685516e-09	-6.470962e+00	-1.159897e+02
1.650000e-06	-8.668122e-07	-1.664703e-09	-6.149805e+00	-1.146706e+02
1.660000e-06	-8.214820e-07	-1.649880e-09	-5.828199e+00	-1.133223e+02
1.670000e-06	-7.760841e-07	-1.631581e-09	-5.506112e+00	-1.119432e+02
1.680000e-06	-7.305992e-07	-1.607552e-09	-5.183409e+00	-1.105315e+02
1.690000e-06	-6.849499e-07	-1.581561e-09	-4.859540e+00	-1.090853e+02
1.700000e-06	-6.391996e-07	-1.559092e-09	-4.534953e+00	-1.076023e+02
1.710000e-06	-5.934097e-07	-1.535851e-09	-4.210086e+00	-1.060803e+02
1.720000e-06	-5.476640e-07	-1.508096e-09	-3.885532e+00	-1.045168e+02
1.730000e-06	-5.019835e-07	-1.480569e-09	-3.561441e+00	-1.029093e+02
1.740000e-06	-4.562588e-07	-1.457110e-09	-3.237037e+00	-1.012552e+02
1.750000e-06	-4.104968e-07	-1.435295e-09	-2.912367e+00	-9.955169e+01
1.760000e-06	-3.646918e-07	-1.412301e-09	-2.587393e+00	-9.779619e+01
1.770000e-06	-3.187784e-07	-1.386180e-09	-2.261649e+00	-9.598601e+01
1.780000e-06	-2.728608e-07	-1.358425e-09	-1.935876e+00	-9.411860e+01
1.790000e-06	-2.270182e-07	-1.327460e-09	-1.610634e+00	-9.219147e+01
1.800000e-06	-1.811832e-07	-1.293888e-09	-1.285447e+00	-9.020231e+01
1.810000e-06	-1.353400e-07	-1.259760e-09	-9.602018e-01	-8.814901e+01
1.820000e-06	-8.949118e-08	-1.227797e-09	-6.349164e-01	-8.602965e+01
1.830000e-06	-4.361675e-08	-1.199274e-09	-3.094494e-01	-8.384260e+01
1.840000e-06	2.268795e-09	-1.171076e-09	1.609651e-02	-8.158652e+01
1.850000e-06	4.814568e-08	-1.138905e-09	3.415810e-01	-7.926038e+01
1.860000e-06	9.403281e-08	-1.102966e-09	6.671381e-01	-7.686351e+01
1.870000e-06	1.399198e-07	-1.064996e-09	9.926939e-01	-7.439558e+01
1.880000e-06	1.857899e-07	-1.023516e-09	1.318130e+00	-7.185666e+01
1.890000e-06	2.316695e-07	-9.789595e-10	1.643634e+00	-6.924720e+01
1.900000e-06	2.775212e-07	-9.343255e-10	1.968940e+00	-6.656802e+01
1.910000e-06	3.233905e-07	-8.919705e-10	2.294370e+00	-6.382034e+01
1.920000e-06	3.692736e-07	-8.516672e-10	2.619899e+00	-6.100577e+01
1.930000e-06	4.151215e-07	-8.134987e-10	2.945178e+00	-5.812624e+01
1.940000e-06	4.608946e-07	-7.743297e-10	3.269926e+00	-5.518407e+01
1.950000e-06	5.065773e-07	-7.327989e-10	3.594033e+00	-5.218187e+01
1.960000e-06	5.522176e-07	-6.878008e-10	3.917839e+00	-4.912256e+01
1.970000e-06	5.978009e-07	-6.383598e-10	4.241240e+00	-4.600929e+01
1.980000e-06	6.434150e-07	-5.853052e-10	4.564860e+00	-4.284547e+01
1.990000e-06	6.890995e-07	-5.322854e-10	4.888980e+00	-3.963469e+01
2.000000e-06	7.347426e-07	-4.826873e-10	5.212805e+00	-3.638067e+01
2.010000e-06	7.802851e-07	-4.357060e-10	5.535917e+00	-3.308727e+01
2.020000e-06	8.257562e-07	-3.905906e-10	5.858523e+00	-2.975841e+01
2.030000e-06	8.711269e-07	-3.464631e-10	6.180416e+00	-2.639804e+01
2.040000e-06	9.164115e-07	-2.977117e-10	6.501699e+00	-2.301010e+01
2.050000e-06	9.616270e-07	-2.450639e-10	6.822491e+00	-1.959851e+01
2.060000e-06	1.006736e-06	-1.897608e-10	7.142526e+00	-1.616712e+01
2.070000e-06	1.051754e-06	-1.367751e-10	7.461919e+00	-1.271965e+01
2.080000e-06	1.096674e-06	-8.656195e-11	7.780615e+00	-9.259735e+00
2.090000e-06	1.141444e-06	-4.007612e-11	8.098246e+00	-5.790837e+00
2.100000e-06	1.186128e-06	6.268703e-12	8.415266e+00	-2.316266e+00
2.110000e-06	1.230751e-06	5.634166e-11	8.731856e+00	1.160844e+00
2.120000e-06	1.275285e-06	1.098827e-10	9.047814e+00	4.637540e+00
2.130000e-06	1.319708e-06	1.655869e-10	9.362982e+00	8.111053e+00
2.140000e-06	1.363976e-06	2.206643e-10	9.677051e+00	1.157880e+01
2.150000e-06	1.408195e-06	2.741248e-10	9.990772e+00	1.503837e+01
2.160000e-06	1.452430e-06	3.225205e-10	1.030461e+01	1.848751e+01
2.170000e-06	1.496542e-06	3.690274e-10	1.061757e+01	2.192415e+01
2.180000e-06	1.540603e-06	4.190313e-10	1.093017e+01	2.534634e+01
2.190000e-06	1.584649e-06	4.697466e-10	1.124267e+01	2.875223e+01
2.200000e-06	1.628605e-06	5.204416e-10	1.155453e+01	3.214011e+01
2.210000e-06	1.672540e-06	5.727256e-10	1.186623e+01	3.550832e+01
2.220000e-06	1.716417e-06	6.242708e-10	1.217753e+01	3.885526e+01
2.230000e-06	1.760280e-06	6.710065e-10	1.248872e+01	4.217938e+01
2.240000e-06	1.804154e-06	7.130203e-10	1.280000e+01	4.547914e+01
2.250000e-06	1.847908e-06	7.584824e-10	1.311042e+01	4.875299e+01
2.260000e-06	1.891502e-06	8.065329e-10	1.341971e+01	5.199938e+01
2.270000e-06	1.934873e-06	8.537234e-10	1.372741e+01	5.521670e+01
2.280000e-06	1.977998e-06	8.995517e-10	1.403338e+01	5.840332e+01
2.290000e-06	2.021040e-06	9.455488e-10	1.433875e+01	6.155755e+01
2.300000e-06	2.063931e-06	9.920535e-10	1.464305e+01	6.467764e+01
2.310000e-06	2.106499e-06	1.035380e-09	1.494506e+01	6.776179e+01
2.320000e-06	2.148858e-06	1.074686e-09	1.524558e+01	7.080816e+01
2.330000e-06	2.190923e-06	1.116591e-09	1.554402e+01	7.381483e+01
2.340000e-06	2.232717e-06	1.161905e-09	1.584054e+01	7.677988e+01
2.350000e-06	2.274371e-06	1.207995e-09	1.613607e+01	7.970135e+01
2.360000e-06	2.315741e-06	1.251049e-09	1.642957e+01	8.257727e+01
2.370000e-06	2.356777e-06	1.289251e-09	1.672072e+01	8.540571e+01
2.380000e-06	2.397438e-06	1.325249e-09	1.700919e+01	8.818475e+01
2.390000e-06	2.437817e-06	1.360418e-09	1.729567e+01	9.091254e+01
2.400000e-06	2.478060e-06	1.393296e-09	1.758118e+01	9.358730e+01
2.410000e-06	2.518154e-06	1.428294e-09	1.786564e+01	9.620737e+01
2.420000e-06	2.558143e-06	1.467525e-09	1.814935e+01	9.877120e+01
2.430000e-06	2.598119e-06	1.508474e-09	1.843297e+01	1.012774e+02
2.440000e-06	2.638026e-06	1.548155e-09	1.871610e+01	1.037248e+02
2.450000e-06	2.677743e-06	1.583034e-09	1.899788e+01	1.061123e+02
2.460000e-06	2.717324e-06	1.615396e-09	1.927870e+01	1.084391e+02
2.470000e-06	2.756800e-06	1.645891e-09	1.955877e+01	1.107046e+02
2.480000e-06	2.796045e-06	1.673412e-09	1.983721e+01	1.129084e+02
2.490000e-06	2.835084e-06	1.701655e-09	2.011418e+01	1.150504e+02
2.500000e-06	2.873985e-06	1.734421e-09	2.039017e+01	1.171307e+02
2.510000e-06	2.912617e-06	1.770344e-09	2.066425e+01	1.191495e+02
2.520000e-06	2.950992e-06	1.802317e-09	2.093651e+01	1.211076e+02
2.530000e-06	2.989240e-06	1.826336e-09	2.120787e+01	1.230055e+02
2.540000e-06	3.027321e-06	1.849439e-09	2.147804e+01	1.248444e+02
2.550000e-06	3.065234e-06	1.876141e-09	2.174703e+01	1.266254e+02
2.560000e-06	3.103004e-06	1.902783e-09	2.201500e+01	1.283498e+02
2.570000e-06	3.140543e-06	1.927072e-09	2.228133e+01	1.300192e+02
2.580000e-06	3.177779e-06	1.951056e-09	2.254551e+01	1.316350e+02
2.590000e-06	3.214796e-06	1.977093e-09	2.280814e+01	1.331991e+02
2.600000e-06	3.251525e-06	2.000650e-09	2.306872e+01	1.347132e+02
2.610000e-06	3.287972e-06	2.015920e-09	2.332730e+01	1.361791e+02
2.620000e-06	3.324267e-06	2.030433e-09	2.358480e+01	1.375987e+02
2.630000e-06	3.360381e-06	2.051934e-09	2.384102e+01	1.389737e+02
2.640000e-06	3.396353e-06	2.075622e-09	2.409623e+01	1.403060e+02
2.650000e-06	3.432199e-06	2.094087e-09	2.435055e+01	1.415973e+02
2.660000e-06	3.467911e-06	2.109997e-09	2.460392e+01	1.428492e+02
2.670000e-06	3.503512e-06	2.130287e-09	2.485649e+01	1.440632e+02
2.680000e-06	3.538881e-06	2.151672e-09	2.510743e+01	1.452409e+02
2.690000e-06	3.573931e-06	2.164322e-09	2.535610e+01	1.463834e+02
2.700000e-06	3.608624e-06	2.169971e-09	2.560224e+01	1.474919e+02
2.710000e-06	3.642848e-06	2.180733e-09	2.584505e+01	1.485676e+02
2.720000e-06	3.676592e-06	2.200395e-09	2.608445e+01	1.496112e+02
2.730000e-06	3.709913e-06	2.220500e-09	2.632086e+01	1.506236e+02
2.740000e-06	3.742866e-06	2.236180e-09	2.655465e+01	1.516054e+02
2.750000e-06	3.775406e-06	2.251646e-09	2.678551e+01	1.525570e+02
2.760000e-06	3.807585e-06	2.268996e-09	2.701381e+01	1.534790e+02
2.770000e-06	3.839579e-06	2.282354e-09	2.724080e+01	1.543717e+02
2.780000e-06	3.871487e-06	2.288138e-09	2.746718e+01	1.552352e+02
2.790000e-06	3.903344e-06	2.293653e-09	2.769320e+01	1.560699e+02
2.800000e-06	3.935030e-06	2.305049e-09	2.791800e+01	1.568758e+02
2.810000e-06	3.966386e-06	2.317402e-09	2.814047e+01	1.576532e+02
2.820000e-06	3.997435e-06	2.324464e-09	2.836075e+01	1.584022e+02
2.830000e-06	4.028203e-06	2.332075e-09	2.857904e+01	1.591230e+02
2.840000e-06	4.058607e-06	2.346649e-09	2.879475e+01	1.598158e+02
2.850000e-06	4.088724e-06	2.361070e-09	2.900842e+01	1.604809e+02
2.860000e-06	4.118616e-06	2.369105e-09	2.922050e+01	1.611187e+02
2.870000e-06	4.148297e-06	2.373097e-09	2.943108e+01	1.617297e+02
2.880000e-06	4.177817e-06	2.378074e-09	2.964051e+01	1.623144e+02
2.890000e-06	4.207092e-06	2.384311e-09	2.984821e+01	1.628735e+02
2.900000e-06	4.235948e-06	2.389000e-09	3.005294e+01	1.634076e+02
