# Temperatura_=_13.56
# Concentracion g/m^3_=_4090.0
# C_Vs_to_Am_M_A/Vsm_=_65563218390.804596
# pendiente_HvsI_1/m_=_3716.3
# ordenada_HvsI_A/m_=_1297.0
# frecuencia_Hz_=_135082.17077735648

Tiempo_(s)	Campo_(V.s)	Magnetizacion_(V.s)	Campo_(kA/m)	Magnetizacion_(A/m)
0.000000e+00	-5.397276e-06	-2.607200e-09	-3.839311e+01	-1.694748e+02
1.000000e-08	-5.397216e-06	-2.605670e-09	-3.839268e+01	-1.694324e+02
2.000000e-08	-5.396987e-06	-2.601621e-09	-3.839106e+01	-1.693899e+02
3.000000e-08	-5.396448e-06	-2.593673e-09	-3.838722e+01	-1.693490e+02
4.000000e-08	-5.395468e-06	-2.582370e-09	-3.838025e+01	-1.693110e+02
5.000000e-08	-5.393948e-06	-2.576480e-09	-3.836944e+01	-1.692774e+02
6.000000e-08	-5.391888e-06	-2.581467e-09	-3.835479e+01	-1.692497e+02
7.000000e-08	-5.389178e-06	-2.597546e-09	-3.833551e+01	-1.692294e+02
8.000000e-08	-5.385765e-06	-2.592106e-09	-3.831123e+01	-1.692178e+02
9.000000e-08	-5.381815e-06	-2.581936e-09	-3.828313e+01	-1.692162e+02
1.000000e-07	-5.377531e-06	-2.597999e-09	-3.825266e+01	-1.692257e+02
1.100000e-07	-5.373159e-06	-2.591534e-09	-3.822156e+01	-1.692473e+02
1.200000e-07	-5.368677e-06	-2.561381e-09	-3.818967e+01	-1.692817e+02
1.300000e-07	-5.363787e-06	-2.528881e-09	-3.815489e+01	-1.693296e+02
1.400000e-07	-5.358376e-06	-2.561576e-09	-3.811640e+01	-1.693913e+02
1.500000e-07	-5.352620e-06	-2.582780e-09	-3.807545e+01	-1.694668e+02
1.600000e-07	-5.346638e-06	-2.527057e-09	-3.803291e+01	-1.695561e+02
1.700000e-07	-5.340312e-06	-2.544374e-09	-3.798790e+01	-1.696586e+02
1.800000e-07	-5.333453e-06	-2.580830e-09	-3.793912e+01	-1.697739e+02
1.900000e-07	-5.326116e-06	-2.612699e-09	-3.788692e+01	-1.699010e+02
2.000000e-07	-5.318547e-06	-2.538642e-09	-3.783308e+01	-1.700387e+02
2.100000e-07	-5.310781e-06	-2.560438e-09	-3.777784e+01	-1.701858e+02
2.200000e-07	-5.302775e-06	-2.597571e-09	-3.772089e+01	-1.703406e+02
2.300000e-07	-5.294569e-06	-2.607706e-09	-3.766252e+01	-1.705014e+02
2.400000e-07	-5.285926e-06	-2.576605e-09	-3.760104e+01	-1.706665e+02
2.500000e-07	-5.276691e-06	-2.616148e-09	-3.753534e+01	-1.708337e+02
2.600000e-07	-5.266752e-06	-2.658186e-09	-3.746464e+01	-1.710011e+02
2.700000e-07	-5.256312e-06	-2.645281e-09	-3.739038e+01	-1.711664e+02
2.800000e-07	-5.245442e-06	-2.615374e-09	-3.731305e+01	-1.713276e+02
2.900000e-07	-5.234055e-06	-2.629332e-09	-3.723205e+01	-1.714825e+02
3.000000e-07	-5.222221e-06	-2.639637e-09	-3.714788e+01	-1.716291e+02
3.100000e-07	-5.209882e-06	-2.606473e-09	-3.706010e+01	-1.717654e+02
3.200000e-07	-5.197199e-06	-2.631742e-09	-3.696988e+01	-1.718895e+02
3.300000e-07	-5.184168e-06	-2.649763e-09	-3.687718e+01	-1.719997e+02
3.400000e-07	-5.170760e-06	-2.645542e-09	-3.678181e+01	-1.720944e+02
3.500000e-07	-5.157023e-06	-2.622018e-09	-3.668409e+01	-1.721724e+02
3.600000e-07	-5.142908e-06	-2.655753e-09	-3.658368e+01	-1.722324e+02
3.700000e-07	-5.128314e-06	-2.633464e-09	-3.647987e+01	-1.722736e+02
3.800000e-07	-5.113097e-06	-2.608139e-09	-3.637163e+01	-1.722952e+02
3.900000e-07	-5.097146e-06	-2.610730e-09	-3.625816e+01	-1.722970e+02
4.000000e-07	-5.080827e-06	-2.636549e-09	-3.614208e+01	-1.722786e+02
4.100000e-07	-5.064268e-06	-2.612665e-09	-3.602429e+01	-1.722401e+02
4.200000e-07	-5.047264e-06	-2.621206e-09	-3.590333e+01	-1.721819e+02
4.300000e-07	-5.029902e-06	-2.631822e-09	-3.577982e+01	-1.721043e+02
4.400000e-07	-5.012359e-06	-2.631082e-09	-3.565504e+01	-1.720082e+02
4.500000e-07	-4.994478e-06	-2.603812e-09	-3.552784e+01	-1.718944e+02
4.600000e-07	-4.976229e-06	-2.616603e-09	-3.539802e+01	-1.717640e+02
4.700000e-07	-4.957665e-06	-2.607131e-09	-3.526598e+01	-1.716181e+02
4.800000e-07	-4.938601e-06	-2.602569e-09	-3.513036e+01	-1.714581e+02
4.900000e-07	-4.919072e-06	-2.602686e-09	-3.499144e+01	-1.712852e+02
5.000000e-07	-4.899277e-06	-2.614470e-09	-3.485063e+01	-1.711011e+02
5.100000e-07	-4.879322e-06	-2.605320e-09	-3.470869e+01	-1.709071e+02
5.200000e-07	-4.859254e-06	-2.611067e-09	-3.456593e+01	-1.707047e+02
5.300000e-07	-4.838977e-06	-2.611118e-09	-3.442170e+01	-1.704953e+02
5.400000e-07	-4.818368e-06	-2.602489e-09	-3.427509e+01	-1.702803e+02
5.500000e-07	-4.797366e-06	-2.589851e-09	-3.412570e+01	-1.700611e+02
5.600000e-07	-4.775928e-06	-2.590766e-09	-3.397320e+01	-1.698388e+02
5.700000e-07	-4.754171e-06	-2.588540e-09	-3.381843e+01	-1.696145e+02
5.800000e-07	-4.732119e-06	-2.577578e-09	-3.366157e+01	-1.693894e+02
5.900000e-07	-4.709828e-06	-2.571882e-09	-3.350301e+01	-1.691641e+02
6.000000e-07	-4.687233e-06	-2.572762e-09	-3.334228e+01	-1.689394e+02
6.100000e-07	-4.664149e-06	-2.574483e-09	-3.317807e+01	-1.687159e+02
6.200000e-07	-4.640724e-06	-2.561270e-09	-3.301144e+01	-1.684940e+02
6.300000e-07	-4.617076e-06	-2.556709e-09	-3.284322e+01	-1.682740e+02
6.400000e-07	-4.593159e-06	-2.552855e-09	-3.267309e+01	-1.680559e+02
6.500000e-07	-4.569044e-06	-2.552660e-09	-3.250155e+01	-1.678398e+02
6.600000e-07	-4.544750e-06	-2.540190e-09	-3.232874e+01	-1.676256e+02
6.700000e-07	-4.520216e-06	-2.535001e-09	-3.215421e+01	-1.674130e+02
6.800000e-07	-4.495272e-06	-2.525017e-09	-3.197678e+01	-1.672015e+02
6.900000e-07	-4.469806e-06	-2.529091e-09	-3.179562e+01	-1.669910e+02
7.000000e-07	-4.443803e-06	-2.524786e-09	-3.161065e+01	-1.667807e+02
7.100000e-07	-4.417281e-06	-2.523771e-09	-3.142199e+01	-1.665702e+02
7.200000e-07	-4.390387e-06	-2.516103e-09	-3.123069e+01	-1.663588e+02
7.300000e-07	-4.363069e-06	-2.517908e-09	-3.103636e+01	-1.661459e+02
7.400000e-07	-4.335400e-06	-2.507203e-09	-3.083954e+01	-1.659310e+02
7.500000e-07	-4.307572e-06	-2.499787e-09	-3.064158e+01	-1.657133e+02
7.600000e-07	-4.279538e-06	-2.489564e-09	-3.044217e+01	-1.654923e+02
7.700000e-07	-4.251277e-06	-2.488318e-09	-3.024114e+01	-1.652674e+02
7.800000e-07	-4.222744e-06	-2.482614e-09	-3.003817e+01	-1.650380e+02
7.900000e-07	-4.193916e-06	-2.482269e-09	-2.983311e+01	-1.648036e+02
8.000000e-07	-4.164777e-06	-2.477021e-09	-2.962582e+01	-1.645639e+02
8.100000e-07	-4.135304e-06	-2.476687e-09	-2.941617e+01	-1.643183e+02
8.200000e-07	-4.105553e-06	-2.475751e-09	-2.920454e+01	-1.640665e+02
8.300000e-07	-4.075549e-06	-2.473882e-09	-2.899110e+01	-1.638084e+02
8.400000e-07	-4.045310e-06	-2.467295e-09	-2.877601e+01	-1.635436e+02
8.500000e-07	-4.014831e-06	-2.461564e-09	-2.855919e+01	-1.632720e+02
8.600000e-07	-3.984028e-06	-2.454707e-09	-2.834008e+01	-1.629935e+02
8.700000e-07	-3.952907e-06	-2.446781e-09	-2.811871e+01	-1.627080e+02
8.800000e-07	-3.921607e-06	-2.440053e-09	-2.789605e+01	-1.624156e+02
8.900000e-07	-3.890044e-06	-2.434133e-09	-2.767153e+01	-1.621162e+02
9.000000e-07	-3.858251e-06	-2.432775e-09	-2.744538e+01	-1.618100e+02
9.100000e-07	-3.826316e-06	-2.431874e-09	-2.721821e+01	-1.614970e+02
9.200000e-07	-3.794198e-06	-2.434165e-09	-2.698974e+01	-1.611774e+02
9.300000e-07	-3.761952e-06	-2.432300e-09	-2.676036e+01	-1.608513e+02
9.400000e-07	-3.729558e-06	-2.428985e-09	-2.652993e+01	-1.605189e+02
9.500000e-07	-3.696808e-06	-2.417237e-09	-2.629696e+01	-1.601804e+02
9.600000e-07	-3.663626e-06	-2.408574e-09	-2.606093e+01	-1.598359e+02
9.700000e-07	-3.630094e-06	-2.401591e-09	-2.582240e+01	-1.594857e+02
9.800000e-07	-3.596077e-06	-2.399188e-09	-2.558042e+01	-1.591300e+02
9.900000e-07	-3.561636e-06	-2.393825e-09	-2.533543e+01	-1.587689e+02
1.000000e-06	-3.526890e-06	-2.395950e-09	-2.508826e+01	-1.584027e+02
1.010000e-06	-3.491782e-06	-2.398848e-09	-2.483852e+01	-1.580315e+02
1.020000e-06	-3.456330e-06	-2.401147e-09	-2.458634e+01	-1.576556e+02
1.030000e-06	-3.420636e-06	-2.390828e-09	-2.433243e+01	-1.572752e+02
1.040000e-06	-3.384768e-06	-2.378331e-09	-2.407729e+01	-1.568905e+02
1.050000e-06	-3.348736e-06	-2.363826e-09	-2.382098e+01	-1.565016e+02
1.060000e-06	-3.312557e-06	-2.353655e-09	-2.356362e+01	-1.561089e+02
1.070000e-06	-3.276230e-06	-2.342099e-09	-2.330522e+01	-1.557124e+02
1.080000e-06	-3.239680e-06	-2.335864e-09	-2.304522e+01	-1.553123e+02
1.090000e-06	-3.202897e-06	-2.335386e-09	-2.278357e+01	-1.549089e+02
1.100000e-06	-3.165820e-06	-2.339615e-09	-2.251982e+01	-1.545023e+02
1.110000e-06	-3.128461e-06	-2.336871e-09	-2.225407e+01	-1.540926e+02
1.120000e-06	-3.090992e-06	-2.328802e-09	-2.198753e+01	-1.536801e+02
1.130000e-06	-3.053370e-06	-2.318425e-09	-2.171991e+01	-1.532647e+02
1.140000e-06	-3.015555e-06	-2.308961e-09	-2.145092e+01	-1.528467e+02
1.150000e-06	-2.977536e-06	-2.297255e-09	-2.118048e+01	-1.524261e+02
1.160000e-06	-2.939301e-06	-2.282970e-09	-2.090850e+01	-1.520028e+02
1.170000e-06	-2.900861e-06	-2.274718e-09	-2.063505e+01	-1.515769e+02
1.180000e-06	-2.862213e-06	-2.274421e-09	-2.036014e+01	-1.511483e+02
1.190000e-06	-2.823254e-06	-2.274484e-09	-2.008300e+01	-1.507168e+02
1.200000e-06	-2.784044e-06	-2.266400e-09	-1.980408e+01	-1.502823e+02
1.210000e-06	-2.744718e-06	-2.256744e-09	-1.952434e+01	-1.498445e+02
1.220000e-06	-2.705141e-06	-2.247292e-09	-1.924282e+01	-1.494030e+02
1.230000e-06	-2.665419e-06	-2.237508e-09	-1.896025e+01	-1.489574e+02
1.240000e-06	-2.625596e-06	-2.222546e-09	-1.867698e+01	-1.485073e+02
1.250000e-06	-2.585643e-06	-2.209593e-09	-1.839277e+01	-1.480520e+02
1.260000e-06	-2.545591e-06	-2.200875e-09	-1.810786e+01	-1.475909e+02
1.270000e-06	-2.505423e-06	-2.196647e-09	-1.782213e+01	-1.471232e+02
1.280000e-06	-2.465165e-06	-2.188536e-09	-1.753576e+01	-1.466482e+02
1.290000e-06	-2.424815e-06	-2.179628e-09	-1.724874e+01	-1.461650e+02
1.300000e-06	-2.384424e-06	-2.172020e-09	-1.696142e+01	-1.456726e+02
1.310000e-06	-2.343891e-06	-2.167276e-09	-1.667309e+01	-1.451700e+02
1.320000e-06	-2.303050e-06	-2.156112e-09	-1.638257e+01	-1.446563e+02
1.330000e-06	-2.261900e-06	-2.140898e-09	-1.608985e+01	-1.441303e+02
1.340000e-06	-2.220417e-06	-2.126683e-09	-1.579477e+01	-1.435910e+02
1.350000e-06	-2.178701e-06	-2.116752e-09	-1.549803e+01	-1.430373e+02
1.360000e-06	-2.136752e-06	-2.105572e-09	-1.519962e+01	-1.424681e+02
1.370000e-06	-2.094582e-06	-2.093948e-09	-1.489965e+01	-1.418825e+02
1.380000e-06	-2.052244e-06	-2.081018e-09	-1.459848e+01	-1.412793e+02
1.390000e-06	-2.009639e-06	-2.072331e-09	-1.429542e+01	-1.406576e+02
1.400000e-06	-1.966722e-06	-2.065300e-09	-1.399013e+01	-1.400165e+02
1.410000e-06	-1.923506e-06	-2.052073e-09	-1.368271e+01	-1.393552e+02
1.420000e-06	-1.880013e-06	-2.034123e-09	-1.337333e+01	-1.386731e+02
1.430000e-06	-1.836387e-06	-2.020290e-09	-1.306300e+01	-1.379693e+02
1.440000e-06	-1.792836e-06	-2.010422e-09	-1.275320e+01	-1.372435e+02
1.450000e-06	-1.749192e-06	-1.997034e-09	-1.244275e+01	-1.364951e+02
1.460000e-06	-1.705354e-06	-1.979309e-09	-1.213091e+01	-1.357239e+02
1.470000e-06	-1.661393e-06	-1.962867e-09	-1.181819e+01	-1.349296e+02
1.480000e-06	-1.617395e-06	-1.952072e-09	-1.150522e+01	-1.341120e+02
1.490000e-06	-1.573394e-06	-1.939705e-09	-1.119222e+01	-1.332712e+02
1.500000e-06	-1.529337e-06	-1.922730e-09	-1.087882e+01	-1.324072e+02
1.510000e-06	-1.485220e-06	-1.906081e-09	-1.056500e+01	-1.315201e+02
1.520000e-06	-1.441038e-06	-1.894112e-09	-1.025071e+01	-1.306099e+02
1.530000e-06	-1.396782e-06	-1.882841e-09	-9.935905e+00	-1.296771e+02
1.540000e-06	-1.352442e-06	-1.869243e-09	-9.620495e+00	-1.287216e+02
1.550000e-06	-1.308026e-06	-1.852150e-09	-9.304545e+00	-1.277437e+02
1.560000e-06	-1.263534e-06	-1.836703e-09	-8.988050e+00	-1.267436e+02
1.570000e-06	-1.219078e-06	-1.822754e-09	-8.671821e+00	-1.257214e+02
1.580000e-06	-1.174499e-06	-1.807724e-09	-8.354713e+00	-1.246771e+02
1.590000e-06	-1.129756e-06	-1.791983e-09	-8.036436e+00	-1.236106e+02
1.600000e-06	-1.084930e-06	-1.778841e-09	-7.717570e+00	-1.225218e+02
1.610000e-06	-1.039995e-06	-1.766393e-09	-7.397928e+00	-1.214104e+02
1.620000e-06	-9.950251e-07	-1.752029e-09	-7.078035e+00	-1.202758e+02
1.630000e-06	-9.498996e-07	-1.733817e-09	-6.757038e+00	-1.191175e+02
1.640000e-06	-9.047572e-07	-1.714768e-09	-6.435922e+00	-1.179346e+02
1.650000e-06	-8.595854e-07	-1.696269e-09	-6.114595e+00	-1.167262e+02
1.660000e-06	-8.143681e-07	-1.678210e-09	-5.792946e+00	-1.154909e+02
1.670000e-06	-7.691161e-07	-1.659043e-09	-5.471049e+00	-1.142276e+02
1.680000e-06	-7.237734e-07	-1.639550e-09	-5.148507e+00	-1.129345e+02
1.690000e-06	-6.784006e-07	-1.619881e-09	-4.825751e+00	-1.116099e+02
1.700000e-06	-6.329165e-07	-1.601076e-09	-4.502204e+00	-1.102519e+02
1.710000e-06	-5.872933e-07	-1.581895e-09	-4.177666e+00	-1.088585e+02
1.720000e-06	-5.415695e-07	-1.561665e-09	-3.852414e+00	-1.074274e+02
1.730000e-06	-4.958610e-07	-1.540802e-09	-3.527270e+00	-1.059563e+02
1.740000e-06	-4.501774e-07	-1.519231e-09	-3.202303e+00	-1.044429e+02
1.750000e-06	-4.044727e-07	-1.495862e-09	-2.877186e+00	-1.028846e+02
1.760000e-06	-3.587023e-07	-1.473345e-09	-2.551601e+00	-1.012790e+02
1.770000e-06	-3.127781e-07	-1.450696e-09	-2.224924e+00	-9.962377e+01
1.780000e-06	-2.668791e-07	-1.425167e-09	-1.898424e+00	-9.791635e+01
1.790000e-06	-2.211288e-07	-1.397105e-09	-1.572983e+00	-9.615447e+01
1.800000e-06	-1.753746e-07	-1.368043e-09	-1.247514e+00	-9.433592e+01
1.810000e-06	-1.295126e-07	-1.342701e-09	-9.212779e-01	-9.245865e+01
1.820000e-06	-8.360111e-08	-1.317155e-09	-5.946902e-01	-9.052077e+01
1.830000e-06	-3.774225e-08	-1.287800e-09	-2.684766e-01	-8.852061e+01
1.840000e-06	8.075264e-09	-1.257196e-09	5.744277e-02	-8.645675e+01
1.850000e-06	5.385825e-08	-1.227993e-09	3.831166e-01	-8.432800e+01
1.860000e-06	9.963576e-08	-1.196107e-09	7.087514e-01	-8.213348e+01
1.870000e-06	1.454006e-07	-1.159007e-09	1.034296e+00	-7.987258e+01
1.880000e-06	1.911622e-07	-1.120177e-09	1.359818e+00	-7.754502e+01
1.890000e-06	2.369441e-07	-1.085192e-09	1.685484e+00	-7.515083e+01
1.900000e-06	2.826814e-07	-1.050991e-09	2.010833e+00	-7.269033e+01
1.910000e-06	3.284098e-07	-1.010686e-09	2.336118e+00	-7.016419e+01
1.920000e-06	3.741948e-07	-9.667845e-10	2.661807e+00	-6.757336e+01
1.930000e-06	4.199469e-07	-9.267367e-10	2.987260e+00	-6.491910e+01
1.940000e-06	4.656642e-07	-8.897088e-10	3.312467e+00	-6.220294e+01
1.950000e-06	5.113421e-07	-8.502099e-10	3.637393e+00	-5.942669e+01
1.960000e-06	5.568936e-07	-8.059256e-10	3.961420e+00	-5.659239e+01
1.970000e-06	6.024005e-07	-7.607463e-10	4.285130e+00	-5.370229e+01
1.980000e-06	6.478503e-07	-7.159163e-10	4.608434e+00	-5.075885e+01
1.990000e-06	6.932119e-07	-6.700355e-10	4.931110e+00	-4.776467e+01
2.000000e-06	7.385712e-07	-6.222310e-10	5.253770e+00	-4.472251e+01
2.010000e-06	7.839461e-07	-5.751387e-10	5.576541e+00	-4.163520e+01
2.020000e-06	8.292875e-07	-5.287494e-10	5.899074e+00	-3.850569e+01
2.030000e-06	8.744581e-07	-4.824132e-10	6.220392e+00	-3.533695e+01
2.040000e-06	9.195660e-07	-4.349685e-10	6.541263e+00	-3.213200e+01
2.050000e-06	9.646312e-07	-3.870909e-10	6.861831e+00	-2.889383e+01
2.060000e-06	1.009521e-06	-3.408837e-10	7.181155e+00	-2.562544e+01
2.070000e-06	1.054339e-06	-2.945958e-10	7.499964e+00	-2.232978e+01
2.080000e-06	1.099076e-06	-2.453942e-10	7.818195e+00	-1.900975e+01
2.090000e-06	1.143691e-06	-1.936109e-10	8.135558e+00	-1.566820e+01
2.100000e-06	1.188222e-06	-1.434328e-10	8.452324e+00	-1.230790e+01
2.110000e-06	1.232691e-06	-9.409355e-11	8.768653e+00	-8.931544e+00
2.120000e-06	1.277095e-06	-4.378665e-11	9.084515e+00	-5.541754e+00
2.130000e-06	1.321419e-06	6.355989e-12	9.399814e+00	-2.141081e+00
2.140000e-06	1.365671e-06	5.453218e-11	9.714597e+00	1.267991e+00
2.150000e-06	1.409895e-06	1.032489e-10	1.002918e+01	4.683036e+00
2.160000e-06	1.454060e-06	1.535634e-10	1.034334e+01	8.101677e+00
2.170000e-06	1.498196e-06	2.048513e-10	1.065731e+01	1.152157e+01
2.180000e-06	1.542328e-06	2.554752e-10	1.097124e+01	1.494041e+01
2.190000e-06	1.586381e-06	3.037669e-10	1.128460e+01	1.835588e+01
2.200000e-06	1.630403e-06	3.522684e-10	1.159775e+01	2.176567e+01
2.210000e-06	1.674391e-06	4.016830e-10	1.191065e+01	2.516745e+01
2.220000e-06	1.718304e-06	4.497204e-10	1.222303e+01	2.855887e+01
2.230000e-06	1.762143e-06	4.961275e-10	1.253487e+01	3.193752e+01
2.240000e-06	1.805839e-06	5.449257e-10	1.284570e+01	3.530096e+01
2.250000e-06	1.849353e-06	5.955211e-10	1.315523e+01	3.864668e+01
2.260000e-06	1.892727e-06	6.434203e-10	1.346377e+01	4.197212e+01
2.270000e-06	1.935993e-06	6.898608e-10	1.377154e+01	4.527466e+01
2.280000e-06	1.978970e-06	7.354694e-10	1.407725e+01	4.855163e+01
2.290000e-06	2.021663e-06	7.815381e-10	1.438094e+01	5.180030e+01
2.300000e-06	2.064146e-06	8.267373e-10	1.468315e+01	5.501791e+01
2.310000e-06	2.106380e-06	8.694351e-10	1.498357e+01	5.820166e+01
2.320000e-06	2.148465e-06	9.117044e-10	1.528294e+01	6.134875e+01
2.330000e-06	2.190235e-06	9.555161e-10	1.558007e+01	6.445640e+01
2.340000e-06	2.231660e-06	1.000331e-09	1.587474e+01	6.752184e+01
2.350000e-06	2.272821e-06	1.045893e-09	1.616754e+01	7.054236e+01
2.360000e-06	2.313689e-06	1.089777e-09	1.645825e+01	7.351533e+01
2.370000e-06	2.354359e-06	1.130024e-09	1.674755e+01	7.643823e+01
2.380000e-06	2.394828e-06	1.167757e-09	1.703543e+01	7.930866e+01
2.390000e-06	2.435122e-06	1.202174e-09	1.732206e+01	8.212438e+01
2.400000e-06	2.475349e-06	1.235083e-09	1.760820e+01	8.488334e+01
2.410000e-06	2.515523e-06	1.270612e-09	1.789398e+01	8.758368e+01
2.420000e-06	2.555609e-06	1.308733e-09	1.817913e+01	9.022377e+01
2.430000e-06	2.595551e-06	1.349059e-09	1.846325e+01	9.280223e+01
2.440000e-06	2.635398e-06	1.389514e-09	1.874671e+01	9.531793e+01
2.450000e-06	2.675188e-06	1.424904e-09	1.902975e+01	9.777003e+01
2.460000e-06	2.714862e-06	1.455950e-09	1.931196e+01	1.001579e+02
2.470000e-06	2.754332e-06	1.485712e-09	1.959273e+01	1.024814e+02
2.480000e-06	2.793528e-06	1.515355e-09	1.987155e+01	1.047403e+02
2.490000e-06	2.832446e-06	1.547099e-09	2.014839e+01	1.069351e+02
2.500000e-06	2.871095e-06	1.581498e-09	2.042332e+01	1.090661e+02
2.510000e-06	2.909524e-06	1.616967e-09	2.069668e+01	1.111343e+02
2.520000e-06	2.947863e-06	1.649788e-09	2.096940e+01	1.131406e+02
2.530000e-06	2.986099e-06	1.676705e-09	2.124139e+01	1.150862e+02
2.540000e-06	3.024059e-06	1.699854e-09	2.151141e+01	1.169727e+02
2.550000e-06	3.061740e-06	1.724261e-09	2.177946e+01	1.188015e+02
2.560000e-06	3.099222e-06	1.751670e-09	2.204608e+01	1.205744e+02
2.570000e-06	3.136544e-06	1.778578e-09	2.231157e+01	1.222931e+02
2.580000e-06	3.173681e-06	1.804591e-09	2.257574e+01	1.239597e+02
2.590000e-06	3.210569e-06	1.831174e-09	2.283814e+01	1.255759e+02
2.600000e-06	3.247149e-06	1.856996e-09	2.309835e+01	1.271437e+02
2.610000e-06	3.283507e-06	1.878633e-09	2.335698e+01	1.286650e+02
2.620000e-06	3.319750e-06	1.898196e-09	2.361479e+01	1.301417e+02
2.630000e-06	3.355867e-06	1.919721e-09	2.387171e+01	1.315754e+02
2.640000e-06	3.391864e-06	1.941894e-09	2.412777e+01	1.329678e+02
2.650000e-06	3.427763e-06	1.962991e-09	2.438313e+01	1.343204e+02
2.660000e-06	3.463545e-06	1.984151e-09	2.463766e+01	1.356346e+02
2.670000e-06	3.499071e-06	2.005883e-09	2.489038e+01	1.369116e+02
2.680000e-06	3.534200e-06	2.026510e-09	2.514026e+01	1.381524e+02
2.690000e-06	3.568886e-06	2.043055e-09	2.538700e+01	1.393580e+02
2.700000e-06	3.603115e-06	2.055945e-09	2.563048e+01	1.405290e+02
2.710000e-06	3.636936e-06	2.070225e-09	2.587107e+01	1.416661e+02
2.720000e-06	3.670332e-06	2.088606e-09	2.610863e+01	1.427696e+02
2.730000e-06	3.703300e-06	2.108913e-09	2.634315e+01	1.438398e+02
2.740000e-06	3.735921e-06	2.128385e-09	2.657519e+01	1.448770e+02
2.750000e-06	3.768300e-06	2.146755e-09	2.680551e+01	1.458811e+02
2.760000e-06	3.800513e-06	2.163796e-09	2.703466e+01	1.468521e+02
2.770000e-06	3.832614e-06	2.177075e-09	2.726301e+01	1.477901e+02
2.780000e-06	3.864635e-06	2.185872e-09	2.749079e+01	1.486949e+02
2.790000e-06	3.896481e-06	2.194892e-09	2.771732e+01	1.495665e+02
2.800000e-06	3.927998e-06	2.209066e-09	2.794151e+01	1.504048e+02
2.810000e-06	3.959200e-06	2.224237e-09	2.816347e+01	1.512099e+02
2.820000e-06	3.990143e-06	2.237804e-09	2.838358e+01	1.519818e+02
2.830000e-06	4.020694e-06	2.247607e-09	2.860090e+01	1.527207e+02
2.840000e-06	4.051031e-06	2.256812e-09	2.881670e+01	1.534270e+02
2.850000e-06	4.081174e-06	2.264976e-09	2.903112e+01	1.541011e+02
2.860000e-06	4.111026e-06	2.269188e-09	2.924347e+01	1.547435e+02
2.870000e-06	4.140651e-06	2.272220e-09	2.945420e+01	1.553550e+02
2.880000e-06	4.169944e-06	2.277197e-09	2.966258e+01	1.559365e+02
2.890000e-06	4.198963e-06	2.285016e-09	2.986900e+01	1.564890e+02
2.900000e-06	4.227741e-06	2.292356e-09	3.007372e+01	1.570137e+02
