# Temperatura_=_-2.04
# Concentracion g/m^3_=_4090.0
# C_Vs_to_Am_M_A/Vsm_=_65563218390.804596
# pendiente_HvsI_1/m_=_3716.3
# ordenada_HvsI_A/m_=_1297.0
# frecuencia_Hz_=_135084.65072745833

Tiempo_(s)	Campo_(V.s)	Magnetizacion_(V.s)	Campo_(kA/m)	Magnetizacion_(A/m)
0.000000e+00	-5.409028e-06	-2.533336e-09	-3.838501e+01	-1.621643e+02
1.000000e-08	-5.409246e-06	-2.531511e-09	-3.838656e+01	-1.621271e+02
2.000000e-08	-5.409232e-06	-2.530192e-09	-3.838647e+01	-1.620933e+02
3.000000e-08	-5.408945e-06	-2.527201e-09	-3.838443e+01	-1.620643e+02
4.000000e-08	-5.408344e-06	-2.521971e-09	-3.838016e+01	-1.620418e+02
5.000000e-08	-5.407373e-06	-2.519898e-09	-3.837327e+01	-1.620273e+02
6.000000e-08	-5.405854e-06	-2.526737e-09	-3.836249e+01	-1.620221e+02
7.000000e-08	-5.403740e-06	-2.545424e-09	-3.834749e+01	-1.620275e+02
8.000000e-08	-5.400952e-06	-2.536602e-09	-3.832771e+01	-1.620446e+02
9.000000e-08	-5.397391e-06	-2.496658e-09	-3.830244e+01	-1.620745e+02
1.000000e-07	-5.393306e-06	-2.495941e-09	-3.827345e+01	-1.621180e+02
1.100000e-07	-5.389014e-06	-2.576868e-09	-3.824299e+01	-1.621756e+02
1.200000e-07	-5.384643e-06	-2.536782e-09	-3.821197e+01	-1.622477e+02
1.300000e-07	-5.380108e-06	-2.480388e-09	-3.817979e+01	-1.623346e+02
1.400000e-07	-5.375213e-06	-2.456604e-09	-3.814505e+01	-1.624362e+02
1.500000e-07	-5.369858e-06	-2.582421e-09	-3.810705e+01	-1.625522e+02
1.600000e-07	-5.364058e-06	-2.558966e-09	-3.806589e+01	-1.626820e+02
1.700000e-07	-5.357919e-06	-2.446039e-09	-3.802233e+01	-1.628251e+02
1.800000e-07	-5.351420e-06	-2.436933e-09	-3.797620e+01	-1.629805e+02
1.900000e-07	-5.344413e-06	-2.548276e-09	-3.792648e+01	-1.631470e+02
2.000000e-07	-5.336992e-06	-2.544324e-09	-3.787382e+01	-1.633233e+02
2.100000e-07	-5.329400e-06	-2.452378e-09	-3.781994e+01	-1.635081e+02
2.200000e-07	-5.321620e-06	-2.488373e-09	-3.776473e+01	-1.636998e+02
2.300000e-07	-5.313580e-06	-2.543195e-09	-3.770767e+01	-1.638966e+02
2.400000e-07	-5.305215e-06	-2.507993e-09	-3.764831e+01	-1.640969e+02
2.500000e-07	-5.296431e-06	-2.461788e-09	-3.758597e+01	-1.642987e+02
2.600000e-07	-5.287017e-06	-2.559759e-09	-3.751917e+01	-1.645003e+02
2.700000e-07	-5.276986e-06	-2.557149e-09	-3.744799e+01	-1.646998e+02
2.800000e-07	-5.266407e-06	-2.493363e-09	-3.737291e+01	-1.648953e+02
2.900000e-07	-5.255229e-06	-2.497285e-09	-3.729359e+01	-1.650852e+02
3.000000e-07	-5.243684e-06	-2.578799e-09	-3.721166e+01	-1.652677e+02
3.100000e-07	-5.231758e-06	-2.521817e-09	-3.712702e+01	-1.654412e+02
3.200000e-07	-5.219382e-06	-2.486373e-09	-3.703920e+01	-1.656043e+02
3.300000e-07	-5.206536e-06	-2.531726e-09	-3.694804e+01	-1.657556e+02
3.400000e-07	-5.193309e-06	-2.583603e-09	-3.685417e+01	-1.658939e+02
3.500000e-07	-5.179797e-06	-2.514609e-09	-3.675828e+01	-1.660181e+02
3.600000e-07	-5.165917e-06	-2.526314e-09	-3.665978e+01	-1.661275e+02
3.700000e-07	-5.151563e-06	-2.545981e-09	-3.655792e+01	-1.662213e+02
3.800000e-07	-5.136659e-06	-2.536267e-09	-3.645216e+01	-1.662990e+02
3.900000e-07	-5.121216e-06	-2.501212e-09	-3.634257e+01	-1.663602e+02
4.000000e-07	-5.105303e-06	-2.532726e-09	-3.622964e+01	-1.664049e+02
4.100000e-07	-5.088949e-06	-2.514481e-09	-3.611359e+01	-1.664330e+02
4.200000e-07	-5.072225e-06	-2.493079e-09	-3.599490e+01	-1.664447e+02
4.300000e-07	-5.055110e-06	-2.523557e-09	-3.587345e+01	-1.664403e+02
4.400000e-07	-5.037745e-06	-2.534553e-09	-3.575022e+01	-1.664203e+02
4.500000e-07	-5.020168e-06	-2.493794e-09	-3.562548e+01	-1.663852e+02
4.600000e-07	-5.002314e-06	-2.487623e-09	-3.549879e+01	-1.663358e+02
4.700000e-07	-4.984080e-06	-2.521602e-09	-3.536939e+01	-1.662728e+02
4.800000e-07	-4.965340e-06	-2.500043e-09	-3.523640e+01	-1.661971e+02
4.900000e-07	-4.946188e-06	-2.481774e-09	-3.510048e+01	-1.661097e+02
5.000000e-07	-4.926707e-06	-2.480492e-09	-3.496224e+01	-1.660115e+02
5.100000e-07	-4.906989e-06	-2.497663e-09	-3.482231e+01	-1.659036e+02
5.200000e-07	-4.887037e-06	-2.492923e-09	-3.468073e+01	-1.657869e+02
5.300000e-07	-4.866922e-06	-2.505215e-09	-3.453797e+01	-1.656625e+02
5.400000e-07	-4.846556e-06	-2.490490e-09	-3.439345e+01	-1.655315e+02
5.500000e-07	-4.825856e-06	-2.496102e-09	-3.424655e+01	-1.653947e+02
5.600000e-07	-4.804702e-06	-2.496383e-09	-3.409643e+01	-1.652533e+02
5.700000e-07	-4.783114e-06	-2.494867e-09	-3.394324e+01	-1.651080e+02
5.800000e-07	-4.761215e-06	-2.463067e-09	-3.378783e+01	-1.649598e+02
5.900000e-07	-4.739108e-06	-2.463807e-09	-3.363095e+01	-1.648095e+02
6.000000e-07	-4.716662e-06	-2.469617e-09	-3.347166e+01	-1.646578e+02
6.100000e-07	-4.693784e-06	-2.481986e-09	-3.330931e+01	-1.645053e+02
6.200000e-07	-4.670572e-06	-2.467461e-09	-3.314458e+01	-1.643527e+02
6.300000e-07	-4.647025e-06	-2.466943e-09	-3.297748e+01	-1.642004e+02
6.400000e-07	-4.623279e-06	-2.470824e-09	-3.280897e+01	-1.640489e+02
6.500000e-07	-4.599329e-06	-2.478254e-09	-3.263901e+01	-1.638985e+02
6.600000e-07	-4.575215e-06	-2.456093e-09	-3.246789e+01	-1.637495e+02
6.700000e-07	-4.550927e-06	-2.439756e-09	-3.229553e+01	-1.636021e+02
6.800000e-07	-4.526241e-06	-2.436425e-09	-3.212035e+01	-1.634563e+02
6.900000e-07	-4.501016e-06	-2.444762e-09	-3.194133e+01	-1.633122e+02
7.000000e-07	-4.475130e-06	-2.441290e-09	-3.175763e+01	-1.631698e+02
7.100000e-07	-4.448689e-06	-2.433739e-09	-3.157000e+01	-1.630290e+02
7.200000e-07	-4.421890e-06	-2.431697e-09	-3.137982e+01	-1.628895e+02
7.300000e-07	-4.394735e-06	-2.438321e-09	-3.118712e+01	-1.627512e+02
7.400000e-07	-4.367240e-06	-2.438477e-09	-3.099200e+01	-1.626136e+02
7.500000e-07	-4.339519e-06	-2.423046e-09	-3.079527e+01	-1.624766e+02
7.600000e-07	-4.311590e-06	-2.415246e-09	-3.059708e+01	-1.623397e+02
7.700000e-07	-4.283439e-06	-2.418238e-09	-3.039731e+01	-1.622024e+02
7.800000e-07	-4.255160e-06	-2.423878e-09	-3.019662e+01	-1.620644e+02
7.900000e-07	-4.226548e-06	-2.415597e-09	-2.999358e+01	-1.619249e+02
8.000000e-07	-4.197631e-06	-2.411587e-09	-2.978837e+01	-1.617837e+02
8.100000e-07	-4.168487e-06	-2.408875e-09	-2.958155e+01	-1.616400e+02
8.200000e-07	-4.138950e-06	-2.412571e-09	-2.937194e+01	-1.614933e+02
8.300000e-07	-4.109069e-06	-2.402690e-09	-2.915990e+01	-1.613431e+02
8.400000e-07	-4.078853e-06	-2.397698e-09	-2.894546e+01	-1.611889e+02
8.500000e-07	-4.048432e-06	-2.393249e-09	-2.872958e+01	-1.610299e+02
8.600000e-07	-4.017868e-06	-2.398654e-09	-2.851269e+01	-1.608658e+02
8.700000e-07	-3.987133e-06	-2.391698e-09	-2.829458e+01	-1.606959e+02
8.800000e-07	-3.956113e-06	-2.386338e-09	-2.807444e+01	-1.605199e+02
8.900000e-07	-3.924585e-06	-2.378738e-09	-2.785071e+01	-1.603373e+02
9.000000e-07	-3.892790e-06	-2.380264e-09	-2.762507e+01	-1.601476e+02
9.100000e-07	-3.860895e-06	-2.374413e-09	-2.739873e+01	-1.599506e+02
9.200000e-07	-3.828807e-06	-2.370808e-09	-2.717102e+01	-1.597459e+02
9.300000e-07	-3.796522e-06	-2.368715e-09	-2.694191e+01	-1.595334e+02
9.400000e-07	-3.764028e-06	-2.375689e-09	-2.671132e+01	-1.593129e+02
9.500000e-07	-3.731419e-06	-2.374540e-09	-2.647991e+01	-1.590843e+02
9.600000e-07	-3.698482e-06	-2.368520e-09	-2.624618e+01	-1.588476e+02
9.700000e-07	-3.665136e-06	-2.360817e-09	-2.600953e+01	-1.586030e+02
9.800000e-07	-3.631348e-06	-2.358575e-09	-2.576976e+01	-1.583505e+02
9.900000e-07	-3.597050e-06	-2.354346e-09	-2.552637e+01	-1.580903e+02
1.000000e-06	-3.562251e-06	-2.348447e-09	-2.527941e+01	-1.578229e+02
1.010000e-06	-3.527132e-06	-2.346992e-09	-2.503020e+01	-1.575485e+02
1.020000e-06	-3.491816e-06	-2.351762e-09	-2.477957e+01	-1.572676e+02
1.030000e-06	-3.456178e-06	-2.351441e-09	-2.452667e+01	-1.569807e+02
1.040000e-06	-3.420359e-06	-2.343043e-09	-2.427248e+01	-1.566882e+02
1.050000e-06	-3.384451e-06	-2.334589e-09	-2.401766e+01	-1.563909e+02
1.060000e-06	-3.348441e-06	-2.325264e-09	-2.376212e+01	-1.560892e+02
1.070000e-06	-3.312193e-06	-2.317998e-09	-2.350489e+01	-1.557839e+02
1.080000e-06	-3.275696e-06	-2.308755e-09	-2.324589e+01	-1.554755e+02
1.090000e-06	-3.239094e-06	-2.303842e-09	-2.298614e+01	-1.551646e+02
1.100000e-06	-3.202223e-06	-2.300270e-09	-2.272448e+01	-1.548519e+02
1.110000e-06	-3.165015e-06	-2.297627e-09	-2.246044e+01	-1.545379e+02
1.120000e-06	-3.127598e-06	-2.289947e-09	-2.219491e+01	-1.542232e+02
1.130000e-06	-3.090019e-06	-2.286124e-09	-2.192824e+01	-1.539081e+02
1.140000e-06	-3.052311e-06	-2.281837e-09	-2.166064e+01	-1.535931e+02
1.150000e-06	-3.014409e-06	-2.279572e-09	-2.139167e+01	-1.532786e+02
1.160000e-06	-2.976215e-06	-2.273703e-09	-2.112063e+01	-1.529646e+02
1.170000e-06	-2.937763e-06	-2.267785e-09	-2.084775e+01	-1.526514e+02
1.180000e-06	-2.899107e-06	-2.259339e-09	-2.057343e+01	-1.523390e+02
1.190000e-06	-2.860223e-06	-2.252153e-09	-2.029749e+01	-1.520274e+02
1.200000e-06	-2.821180e-06	-2.241808e-09	-2.002043e+01	-1.517162e+02
1.210000e-06	-2.781965e-06	-2.233700e-09	-1.974214e+01	-1.514054e+02
1.220000e-06	-2.742613e-06	-2.226097e-09	-1.946287e+01	-1.510944e+02
1.230000e-06	-2.703139e-06	-2.224787e-09	-1.918275e+01	-1.507828e+02
1.240000e-06	-2.663420e-06	-2.221003e-09	-1.890089e+01	-1.504700e+02
1.250000e-06	-2.623582e-06	-2.215378e-09	-1.861818e+01	-1.501553e+02
1.260000e-06	-2.583716e-06	-2.209143e-09	-1.833527e+01	-1.498381e+02
1.270000e-06	-2.543749e-06	-2.202539e-09	-1.805164e+01	-1.495175e+02
1.280000e-06	-2.503636e-06	-2.191709e-09	-1.776698e+01	-1.491926e+02
1.290000e-06	-2.463276e-06	-2.179595e-09	-1.748057e+01	-1.488625e+02
1.300000e-06	-2.422836e-06	-2.171591e-09	-1.719359e+01	-1.485264e+02
1.310000e-06	-2.382363e-06	-2.168624e-09	-1.690637e+01	-1.481833e+02
1.320000e-06	-2.341591e-06	-2.168693e-09	-1.661704e+01	-1.478322e+02
1.330000e-06	-2.300512e-06	-2.164034e-09	-1.632552e+01	-1.474724e+02
1.340000e-06	-2.259226e-06	-2.156161e-09	-1.603253e+01	-1.471028e+02
1.350000e-06	-2.217649e-06	-2.147536e-09	-1.573749e+01	-1.467227e+02
1.360000e-06	-2.175753e-06	-2.137685e-09	-1.544017e+01	-1.463312e+02
1.370000e-06	-2.133518e-06	-2.126312e-09	-1.514045e+01	-1.459278e+02
1.380000e-06	-2.090977e-06	-2.117003e-09	-1.483856e+01	-1.455116e+02
1.390000e-06	-2.048180e-06	-2.108642e-09	-1.453485e+01	-1.450823e+02
1.400000e-06	-2.005129e-06	-2.102176e-09	-1.422934e+01	-1.446392e+02
1.410000e-06	-1.961948e-06	-2.096987e-09	-1.392291e+01	-1.441820e+02
1.420000e-06	-1.918644e-06	-2.091959e-09	-1.361561e+01	-1.437104e+02
1.430000e-06	-1.875141e-06	-2.082960e-09	-1.330689e+01	-1.432242e+02
1.440000e-06	-1.831584e-06	-2.072348e-09	-1.299779e+01	-1.427231e+02
1.450000e-06	-1.787968e-06	-2.062478e-09	-1.268826e+01	-1.422072e+02
1.460000e-06	-1.744232e-06	-2.057159e-09	-1.237789e+01	-1.416763e+02
1.470000e-06	-1.700410e-06	-2.050330e-09	-1.206691e+01	-1.411306e+02
1.480000e-06	-1.656459e-06	-2.039308e-09	-1.175501e+01	-1.405700e+02
1.490000e-06	-1.612438e-06	-2.027573e-09	-1.144262e+01	-1.399946e+02
1.500000e-06	-1.568405e-06	-2.019997e-09	-1.113014e+01	-1.394045e+02
1.510000e-06	-1.524335e-06	-2.010651e-09	-1.081740e+01	-1.387998e+02
1.520000e-06	-1.480207e-06	-1.998122e-09	-1.050424e+01	-1.381806e+02
1.530000e-06	-1.435937e-06	-1.985835e-09	-1.019008e+01	-1.375468e+02
1.540000e-06	-1.391575e-06	-1.979526e-09	-9.875273e+00	-1.368985e+02
1.550000e-06	-1.347251e-06	-1.976279e-09	-9.560729e+00	-1.362356e+02
1.560000e-06	-1.302828e-06	-1.972030e-09	-9.245481e+00	-1.355579e+02
1.570000e-06	-1.258295e-06	-1.964741e-09	-8.929452e+00	-1.348651e+02
1.580000e-06	-1.213702e-06	-1.953377e-09	-8.613005e+00	-1.341570e+02
1.590000e-06	-1.169023e-06	-1.940982e-09	-8.295942e+00	-1.334330e+02
1.600000e-06	-1.124236e-06	-1.929857e-09	-7.978108e+00	-1.326927e+02
1.610000e-06	-1.079281e-06	-1.915179e-09	-7.659086e+00	-1.319354e+02
1.620000e-06	-1.034243e-06	-1.900921e-09	-7.339474e+00	-1.311603e+02
1.630000e-06	-9.890790e-07	-1.891485e-09	-7.018971e+00	-1.303665e+02
1.640000e-06	-9.437739e-07	-1.886737e-09	-6.697466e+00	-1.295531e+02
1.650000e-06	-8.983842e-07	-1.880280e-09	-6.375359e+00	-1.287190e+02
1.660000e-06	-8.530030e-07	-1.869941e-09	-6.053312e+00	-1.278629e+02
1.670000e-06	-8.076298e-07	-1.858451e-09	-5.731322e+00	-1.269837e+02
1.680000e-06	-7.621164e-07	-1.843373e-09	-5.408338e+00	-1.260799e+02
1.690000e-06	-7.165383e-07	-1.820125e-09	-5.084894e+00	-1.251503e+02
1.700000e-06	-6.709945e-07	-1.795956e-09	-4.761694e+00	-1.241932e+02
1.710000e-06	-6.254864e-07	-1.781069e-09	-4.438747e+00	-1.232071e+02
1.720000e-06	-5.799291e-07	-1.772414e-09	-4.115451e+00	-1.221905e+02
1.730000e-06	-5.343013e-07	-1.763241e-09	-3.791654e+00	-1.211418e+02
1.740000e-06	-4.886612e-07	-1.750244e-09	-3.467771e+00	-1.200593e+02
1.750000e-06	-4.430191e-07	-1.738628e-09	-3.143872e+00	-1.189413e+02
1.760000e-06	-3.973139e-07	-1.726225e-09	-2.819527e+00	-1.177863e+02
1.770000e-06	-3.514315e-07	-1.707795e-09	-2.493924e+00	-1.165925e+02
1.780000e-06	-3.054676e-07	-1.682207e-09	-2.167742e+00	-1.153583e+02
1.790000e-06	-2.595907e-07	-1.659248e-09	-1.842178e+00	-1.140820e+02
1.800000e-06	-2.137575e-07	-1.638893e-09	-1.516924e+00	-1.127619e+02
1.810000e-06	-1.679076e-07	-1.617647e-09	-1.191551e+00	-1.113963e+02
1.820000e-06	-1.220082e-07	-1.595522e-09	-8.658280e-01	-1.099835e+02
1.830000e-06	-7.610868e-08	-1.575986e-09	-5.401031e-01	-1.085219e+02
1.840000e-06	-3.028600e-08	-1.558712e-09	-2.149238e-01	-1.070096e+02
1.850000e-06	1.555252e-08	-1.540044e-09	1.103681e-01	-1.054450e+02
1.860000e-06	6.142024e-08	-1.515180e-09	4.358670e-01	-1.038263e+02
1.870000e-06	1.072909e-07	-1.486968e-09	7.613868e-01	-1.021517e+02
1.880000e-06	1.531915e-07	-1.457785e-09	1.087119e+00	-1.004193e+02
1.890000e-06	1.990736e-07	-1.427464e-09	1.412720e+00	-9.862722e+01
1.900000e-06	2.448699e-07	-1.394649e-09	1.737713e+00	-9.677359e+01
1.910000e-06	2.906068e-07	-1.362685e-09	2.062283e+00	-9.485643e+01
1.920000e-06	3.363080e-07	-1.332944e-09	2.386600e+00	-9.287372e+01
1.930000e-06	3.820046e-07	-1.305568e-09	2.710885e+00	-9.082343e+01
1.940000e-06	4.277262e-07	-1.278668e-09	3.035347e+00	-8.870348e+01
1.950000e-06	4.734813e-07	-1.249093e-09	3.360047e+00	-8.651181e+01
1.960000e-06	5.192503e-07	-1.217424e-09	3.684845e+00	-8.424634e+01
1.970000e-06	5.649217e-07	-1.181619e-09	4.008951e+00	-8.190503e+01
1.980000e-06	6.105241e-07	-1.140536e-09	4.332568e+00	-7.948586e+01
1.990000e-06	6.560167e-07	-1.096089e-09	4.655404e+00	-7.698691e+01
2.000000e-06	7.014193e-07	-1.056716e-09	4.977603e+00	-7.440635e+01
2.010000e-06	7.468425e-07	-1.023943e-09	5.299947e+00	-7.174249e+01
2.020000e-06	7.922530e-07	-9.899968e-10	5.622202e+00	-6.899381e+01
2.030000e-06	8.376397e-07	-9.501440e-10	5.944287e+00	-6.615899e+01
2.040000e-06	8.829795e-07	-9.069766e-10	6.266039e+00	-6.323699e+01
2.050000e-06	9.282199e-07	-8.618184e-10	6.587087e+00	-6.022702e+01
2.060000e-06	9.734060e-07	-8.131008e-10	6.907748e+00	-5.712866e+01
2.070000e-06	1.018527e-06	-7.604384e-10	7.227949e+00	-5.394182e+01
2.080000e-06	1.063613e-06	-7.111510e-10	7.547900e+00	-5.066686e+01
2.090000e-06	1.108538e-06	-6.675999e-10	7.866708e+00	-4.730456e+01
2.100000e-06	1.153250e-06	-6.255887e-10	8.184003e+00	-4.385619e+01
2.110000e-06	1.197944e-06	-5.763773e-10	8.501177e+00	-4.032353e+01
2.120000e-06	1.242566e-06	-5.192001e-10	8.817835e+00	-3.670889e+01
2.130000e-06	1.287051e-06	-4.602513e-10	9.133519e+00	-3.301514e+01
2.140000e-06	1.331509e-06	-4.004613e-10	9.449014e+00	-2.924570e+01
2.150000e-06	1.375962e-06	-3.404066e-10	9.764474e+00	-2.540458e+01
2.160000e-06	1.420305e-06	-2.815384e-10	1.007915e+01	-2.149635e+01
2.170000e-06	1.464572e-06	-2.261596e-10	1.039330e+01	-1.752615e+01
2.180000e-06	1.508787e-06	-1.711289e-10	1.070707e+01	-1.349967e+01
2.190000e-06	1.552905e-06	-1.095655e-10	1.102015e+01	-9.423105e+00
2.200000e-06	1.596983e-06	-4.263692e-11	1.133294e+01	-5.303151e+00
2.210000e-06	1.641024e-06	2.416216e-11	1.164548e+01	-1.146948e+00
2.220000e-06	1.684999e-06	9.002315e-11	1.195755e+01	3.037959e+00
2.230000e-06	1.728901e-06	1.553094e-10	1.226910e+01	7.243684e+00
2.240000e-06	1.772721e-06	2.204606e-10	1.258007e+01	1.146205e+01
2.250000e-06	1.816453e-06	2.816678e-10	1.289041e+01	1.568467e+01
2.260000e-06	1.860009e-06	3.380194e-10	1.319951e+01	1.990300e+01
2.270000e-06	1.903389e-06	3.961134e-10	1.350735e+01	2.410842e+01
2.280000e-06	1.946576e-06	4.603499e-10	1.381382e+01	2.829233e+01
2.290000e-06	1.989675e-06	5.273958e-10	1.411967e+01	3.244618e+01
2.300000e-06	2.032718e-06	5.905594e-10	1.442513e+01	3.656163e+01
2.310000e-06	2.075515e-06	6.510099e-10	1.472884e+01	4.063053e+01
2.320000e-06	2.118004e-06	7.134026e-10	1.503036e+01	4.464506e+01
2.330000e-06	2.160216e-06	7.749691e-10	1.532991e+01	4.859780e+01
2.340000e-06	2.202066e-06	8.290551e-10	1.562690e+01	5.248176e+01
2.350000e-06	2.243539e-06	8.780122e-10	1.592121e+01	5.629048e+01
2.360000e-06	2.284861e-06	9.307418e-10	1.621445e+01	6.001806e+01
2.370000e-06	2.325968e-06	9.850638e-10	1.650617e+01	6.365921e+01
2.380000e-06	2.366778e-06	1.035345e-09	1.679578e+01	6.720930e+01
2.390000e-06	2.407386e-06	1.083785e-09	1.708395e+01	7.066439e+01
2.400000e-06	2.447820e-06	1.132382e-09	1.737089e+01	7.402123e+01
2.410000e-06	2.488140e-06	1.179991e-09	1.765702e+01	7.727731e+01
2.420000e-06	2.528353e-06	1.223947e-09	1.794239e+01	8.043080e+01
2.430000e-06	2.568414e-06	1.264094e-09	1.822668e+01	8.348061e+01
2.440000e-06	2.608358e-06	1.307903e-09	1.851014e+01	8.642632e+01
2.450000e-06	2.648185e-06	1.355340e-09	1.879277e+01	8.926817e+01
2.460000e-06	2.687944e-06	1.396450e-09	1.907492e+01	9.200705e+01
2.470000e-06	2.727594e-06	1.429332e-09	1.935629e+01	9.464441e+01
2.480000e-06	2.767077e-06	1.461316e-09	1.963649e+01	9.718223e+01
2.490000e-06	2.806413e-06	1.496954e-09	1.991563e+01	9.962299e+01
2.500000e-06	2.845444e-06	1.532731e-09	2.019261e+01	1.019696e+02
2.510000e-06	2.884218e-06	1.566211e-09	2.046777e+01	1.042252e+02
2.520000e-06	2.922815e-06	1.600887e-09	2.074168e+01	1.063934e+02
2.530000e-06	2.961161e-06	1.637247e-09	2.101380e+01	1.084779e+02
2.540000e-06	2.999277e-06	1.667597e-09	2.128428e+01	1.104826e+02
2.550000e-06	3.037225e-06	1.690463e-09	2.155358e+01	1.124115e+02
2.560000e-06	3.075027e-06	1.713713e-09	2.182184e+01	1.142685e+02
2.570000e-06	3.112595e-06	1.739579e-09	2.208845e+01	1.160576e+02
2.580000e-06	3.149990e-06	1.765158e-09	2.235382e+01	1.177827e+02
2.590000e-06	3.187132e-06	1.788664e-09	2.261739e+01	1.194474e+02
2.600000e-06	3.223943e-06	1.813952e-09	2.287862e+01	1.210552e+02
2.610000e-06	3.260592e-06	1.843338e-09	2.313870e+01	1.226094e+02
2.620000e-06	3.297063e-06	1.870918e-09	2.339751e+01	1.241130e+02
2.630000e-06	3.333324e-06	1.892504e-09	2.365484e+01	1.255688e+02
2.640000e-06	3.369409e-06	1.910098e-09	2.391092e+01	1.269791e+02
2.650000e-06	3.405377e-06	1.927582e-09	2.416616e+01	1.283460e+02
2.660000e-06	3.441273e-06	1.944460e-09	2.442090e+01	1.296714e+02
2.670000e-06	3.477027e-06	1.962513e-09	2.467462e+01	1.309568e+02
2.680000e-06	3.512519e-06	1.983061e-09	2.492649e+01	1.322034e+02
2.690000e-06	3.547723e-06	2.005367e-09	2.517632e+01	1.334121e+02
2.700000e-06	3.582614e-06	2.027069e-09	2.542392e+01	1.345836e+02
2.710000e-06	3.617054e-06	2.042731e-09	2.566832e+01	1.357184e+02
2.720000e-06	3.651093e-06	2.055727e-09	2.590988e+01	1.368169e+02
2.730000e-06	3.684690e-06	2.070648e-09	2.614830e+01	1.378792e+02
2.740000e-06	3.717875e-06	2.085132e-09	2.638380e+01	1.389053e+02
2.750000e-06	3.750748e-06	2.097213e-09	2.661708e+01	1.398952e+02
2.760000e-06	3.783279e-06	2.109608e-09	2.684793e+01	1.408490e+02
2.770000e-06	3.815536e-06	2.124614e-09	2.707684e+01	1.417666e+02
2.780000e-06	3.847632e-06	2.139921e-09	2.730461e+01	1.426479e+02
2.790000e-06	3.879596e-06	2.153636e-09	2.753144e+01	1.434931e+02
2.800000e-06	3.911384e-06	2.165656e-09	2.775703e+01	1.443024e+02
2.810000e-06	3.942942e-06	2.177307e-09	2.798098e+01	1.450760e+02
2.820000e-06	3.974249e-06	2.186458e-09	2.820315e+01	1.458144e+02
2.830000e-06	4.005274e-06	2.194455e-09	2.842332e+01	1.465183e+02
2.840000e-06	4.035945e-06	2.201142e-09	2.864097e+01	1.471883e+02
2.850000e-06	4.066373e-06	2.207290e-09	2.885690e+01	1.478254e+02
2.860000e-06	4.096501e-06	2.217101e-09	2.907071e+01	1.484308e+02
2.870000e-06	4.126360e-06	2.228748e-09	2.928260e+01	1.490057e+02
2.880000e-06	4.156015e-06	2.237131e-09	2.949304e+01	1.495515e+02
2.890000e-06	4.185295e-06	2.240621e-09	2.970083e+01	1.500698e+02
2.900000e-06	4.214254e-06	2.244426e-09	2.990634e+01	1.505623e+02
