# Temperatura_=_-1.3
# Concentracion g/m^3_=_4090.0
# C_Vs_to_Am_M_A/Vsm_=_65563218390.804596
# pendiente_HvsI_1/m_=_3716.3
# ordenada_HvsI_A/m_=_1297.0
# frecuencia_Hz_=_135086.59289550417

Tiempo_(s)	Campo_(V.s)	Magnetizacion_(V.s)	Campo_(kA/m)	Magnetizacion_(A/m)
0.000000e+00	-5.415349e-06	-2.632844e-09	-3.838129e+01	-1.683178e+02
1.000000e-08	-5.415562e-06	-2.632323e-09	-3.838280e+01	-1.683130e+02
2.000000e-08	-5.415502e-06	-2.632721e-09	-3.838237e+01	-1.683112e+02
3.000000e-08	-5.415150e-06	-2.635110e-09	-3.837987e+01	-1.683135e+02
4.000000e-08	-5.414372e-06	-2.633358e-09	-3.837436e+01	-1.683211e+02
5.000000e-08	-5.413094e-06	-2.628468e-09	-3.836531e+01	-1.683350e+02
6.000000e-08	-5.411241e-06	-2.631070e-09	-3.835217e+01	-1.683564e+02
7.000000e-08	-5.408729e-06	-2.646418e-09	-3.833436e+01	-1.683863e+02
8.000000e-08	-5.405625e-06	-2.633592e-09	-3.831237e+01	-1.684257e+02
9.000000e-08	-5.402041e-06	-2.609610e-09	-3.828696e+01	-1.684752e+02
1.000000e-07	-5.398007e-06	-2.619113e-09	-3.825837e+01	-1.685356e+02
1.100000e-07	-5.393698e-06	-2.637242e-09	-3.822784e+01	-1.686075e+02
1.200000e-07	-5.389258e-06	-2.635263e-09	-3.819637e+01	-1.686910e+02
1.300000e-07	-5.384611e-06	-2.598852e-09	-3.816343e+01	-1.687866e+02
1.400000e-07	-5.379564e-06	-2.606256e-09	-3.812766e+01	-1.688940e+02
1.500000e-07	-5.374102e-06	-2.656008e-09	-3.808895e+01	-1.690131e+02
1.600000e-07	-5.368285e-06	-2.621712e-09	-3.804772e+01	-1.691435e+02
1.700000e-07	-5.362125e-06	-2.602016e-09	-3.800406e+01	-1.692846e+02
1.800000e-07	-5.355482e-06	-2.563992e-09	-3.795698e+01	-1.694356e+02
1.900000e-07	-5.348348e-06	-2.629500e-09	-3.790642e+01	-1.695956e+02
2.000000e-07	-5.341016e-06	-2.587169e-09	-3.785445e+01	-1.697634e+02
2.100000e-07	-5.333624e-06	-2.602694e-09	-3.780206e+01	-1.699377e+02
2.200000e-07	-5.325879e-06	-2.601750e-09	-3.774717e+01	-1.701172e+02
2.300000e-07	-5.317825e-06	-2.640049e-09	-3.769009e+01	-1.703002e+02
2.400000e-07	-5.309555e-06	-2.607107e-09	-3.763147e+01	-1.704853e+02
2.500000e-07	-5.300688e-06	-2.614405e-09	-3.756863e+01	-1.706707e+02
2.600000e-07	-5.290888e-06	-2.643760e-09	-3.749917e+01	-1.708547e+02
2.700000e-07	-5.280475e-06	-2.641924e-09	-3.742537e+01	-1.710356e+02
2.800000e-07	-5.269684e-06	-2.617306e-09	-3.734889e+01	-1.712116e+02
2.900000e-07	-5.258296e-06	-2.613245e-09	-3.726817e+01	-1.713812e+02
3.000000e-07	-5.246512e-06	-2.644897e-09	-3.718466e+01	-1.715427e+02
3.100000e-07	-5.234464e-06	-2.621781e-09	-3.709926e+01	-1.716945e+02
3.200000e-07	-5.221993e-06	-2.624913e-09	-3.701088e+01	-1.718353e+02
3.300000e-07	-5.209065e-06	-2.607847e-09	-3.691925e+01	-1.719637e+02
3.400000e-07	-5.195831e-06	-2.638421e-09	-3.682546e+01	-1.720786e+02
3.500000e-07	-5.182328e-06	-2.616544e-09	-3.672975e+01	-1.721790e+02
3.600000e-07	-5.168464e-06	-2.641193e-09	-3.663149e+01	-1.722641e+02
3.700000e-07	-5.154075e-06	-2.619308e-09	-3.652951e+01	-1.723333e+02
3.800000e-07	-5.139161e-06	-2.629874e-09	-3.642380e+01	-1.723859e+02
3.900000e-07	-5.123655e-06	-2.606214e-09	-3.631391e+01	-1.724218e+02
4.000000e-07	-5.107603e-06	-2.618776e-09	-3.620014e+01	-1.724407e+02
4.100000e-07	-5.091181e-06	-2.594588e-09	-3.608375e+01	-1.724428e+02
4.200000e-07	-5.074385e-06	-2.605229e-09	-3.596471e+01	-1.724283e+02
4.300000e-07	-5.057274e-06	-2.597467e-09	-3.584343e+01	-1.723974e+02
4.400000e-07	-5.039868e-06	-2.616223e-09	-3.572006e+01	-1.723507e+02
4.500000e-07	-5.022154e-06	-2.597273e-09	-3.559452e+01	-1.722889e+02
4.600000e-07	-5.004121e-06	-2.599730e-09	-3.546671e+01	-1.722126e+02
4.700000e-07	-4.985661e-06	-2.585211e-09	-3.533587e+01	-1.721227e+02
4.800000e-07	-4.966825e-06	-2.592200e-09	-3.520237e+01	-1.720201e+02
4.900000e-07	-4.947549e-06	-2.581084e-09	-3.506576e+01	-1.719057e+02
5.000000e-07	-4.927955e-06	-2.581087e-09	-3.492688e+01	-1.717807e+02
5.100000e-07	-4.908200e-06	-2.580526e-09	-3.478687e+01	-1.716459e+02
5.200000e-07	-4.888209e-06	-2.593895e-09	-3.464518e+01	-1.715026e+02
5.300000e-07	-4.868058e-06	-2.594946e-09	-3.450236e+01	-1.713516e+02
5.400000e-07	-4.847706e-06	-2.589736e-09	-3.435812e+01	-1.711941e+02
5.500000e-07	-4.826918e-06	-2.581721e-09	-3.421078e+01	-1.710309e+02
5.600000e-07	-4.805679e-06	-2.573877e-09	-3.406025e+01	-1.708631e+02
5.700000e-07	-4.784104e-06	-2.569972e-09	-3.390734e+01	-1.706916e+02
5.800000e-07	-4.762232e-06	-2.562134e-09	-3.375232e+01	-1.705171e+02
5.900000e-07	-4.740039e-06	-2.561578e-09	-3.359503e+01	-1.703404e+02
6.000000e-07	-4.717507e-06	-2.563056e-09	-3.343533e+01	-1.701622e+02
6.100000e-07	-4.694619e-06	-2.576474e-09	-3.327311e+01	-1.699831e+02
6.200000e-07	-4.671418e-06	-2.569577e-09	-3.310867e+01	-1.698037e+02
6.300000e-07	-4.647978e-06	-2.561720e-09	-3.294254e+01	-1.696243e+02
6.400000e-07	-4.624222e-06	-2.545156e-09	-3.277418e+01	-1.694455e+02
6.500000e-07	-4.600196e-06	-2.548799e-09	-3.260389e+01	-1.692674e+02
6.600000e-07	-4.576030e-06	-2.537744e-09	-3.243261e+01	-1.690903e+02
6.700000e-07	-4.551601e-06	-2.537039e-09	-3.225947e+01	-1.689145e+02
6.800000e-07	-4.526711e-06	-2.529103e-09	-3.208306e+01	-1.687400e+02
6.900000e-07	-4.501313e-06	-2.541813e-09	-3.190306e+01	-1.685670e+02
7.000000e-07	-4.475306e-06	-2.537705e-09	-3.171873e+01	-1.683954e+02
7.100000e-07	-4.448706e-06	-2.534466e-09	-3.153020e+01	-1.682252e+02
7.200000e-07	-4.421725e-06	-2.513306e-09	-3.133898e+01	-1.680563e+02
7.300000e-07	-4.394477e-06	-2.513216e-09	-3.114585e+01	-1.678887e+02
7.400000e-07	-4.366971e-06	-2.508700e-09	-3.095091e+01	-1.677222e+02
7.500000e-07	-4.339287e-06	-2.510636e-09	-3.075470e+01	-1.675567e+02
7.600000e-07	-4.311404e-06	-2.499816e-09	-3.055708e+01	-1.673919e+02
7.700000e-07	-4.283232e-06	-2.501404e-09	-3.035741e+01	-1.672276e+02
7.800000e-07	-4.254756e-06	-2.501246e-09	-3.015559e+01	-1.670637e+02
7.900000e-07	-4.226015e-06	-2.503517e-09	-2.995188e+01	-1.668997e+02
8.000000e-07	-4.196940e-06	-2.492823e-09	-2.974581e+01	-1.667355e+02
8.100000e-07	-4.167602e-06	-2.485291e-09	-2.953788e+01	-1.665707e+02
8.200000e-07	-4.137993e-06	-2.482184e-09	-2.932802e+01	-1.664050e+02
8.300000e-07	-4.107991e-06	-2.482614e-09	-2.911538e+01	-1.662380e+02
8.400000e-07	-4.077758e-06	-2.476337e-09	-2.890111e+01	-1.660692e+02
8.500000e-07	-4.047350e-06	-2.468430e-09	-2.868559e+01	-1.658984e+02
8.600000e-07	-4.016623e-06	-2.463391e-09	-2.846781e+01	-1.657251e+02
8.700000e-07	-3.985585e-06	-2.460788e-09	-2.824784e+01	-1.655487e+02
8.800000e-07	-3.954360e-06	-2.461681e-09	-2.802653e+01	-1.653689e+02
8.900000e-07	-3.922943e-06	-2.456560e-09	-2.780386e+01	-1.651852e+02
9.000000e-07	-3.891294e-06	-2.454656e-09	-2.757955e+01	-1.649970e+02
9.100000e-07	-3.859416e-06	-2.451353e-09	-2.735361e+01	-1.648039e+02
9.200000e-07	-3.827394e-06	-2.452750e-09	-2.712666e+01	-1.646054e+02
9.300000e-07	-3.795134e-06	-2.444914e-09	-2.689801e+01	-1.644009e+02
9.400000e-07	-3.762495e-06	-2.440688e-09	-2.666669e+01	-1.641900e+02
9.500000e-07	-3.729514e-06	-2.433985e-09	-2.643293e+01	-1.639722e+02
9.600000e-07	-3.696263e-06	-2.433313e-09	-2.619726e+01	-1.637471e+02
9.700000e-07	-3.662594e-06	-2.426891e-09	-2.595863e+01	-1.635143e+02
9.800000e-07	-3.628421e-06	-2.427846e-09	-2.571643e+01	-1.632735e+02
9.900000e-07	-3.593781e-06	-2.425978e-09	-2.547093e+01	-1.630243e+02
1.000000e-06	-3.558769e-06	-2.428200e-09	-2.522277e+01	-1.627664e+02
1.010000e-06	-3.523567e-06	-2.424230e-09	-2.497328e+01	-1.624998e+02
1.020000e-06	-3.488109e-06	-2.420791e-09	-2.472198e+01	-1.622243e+02
1.030000e-06	-3.452430e-06	-2.408394e-09	-2.446910e+01	-1.619398e+02
1.040000e-06	-3.416603e-06	-2.400366e-09	-2.421517e+01	-1.616463e+02
1.050000e-06	-3.380651e-06	-2.390290e-09	-2.396036e+01	-1.613441e+02
1.060000e-06	-3.344591e-06	-2.386539e-09	-2.370479e+01	-1.610332e+02
1.070000e-06	-3.308298e-06	-2.382165e-09	-2.344756e+01	-1.607139e+02
1.080000e-06	-3.271764e-06	-2.379653e-09	-2.318863e+01	-1.603866e+02
1.090000e-06	-3.235033e-06	-2.373550e-09	-2.292829e+01	-1.600517e+02
1.100000e-06	-3.198056e-06	-2.370550e-09	-2.266622e+01	-1.597096e+02
1.110000e-06	-3.160772e-06	-2.366570e-09	-2.240197e+01	-1.593607e+02
1.120000e-06	-3.123271e-06	-2.360867e-09	-2.213618e+01	-1.590057e+02
1.130000e-06	-3.085561e-06	-2.355572e-09	-2.186891e+01	-1.586452e+02
1.140000e-06	-3.047611e-06	-2.349846e-09	-2.159994e+01	-1.582796e+02
1.150000e-06	-3.009438e-06	-2.342113e-09	-2.132939e+01	-1.579095e+02
1.160000e-06	-2.971167e-06	-2.332873e-09	-2.105814e+01	-1.575356e+02
1.170000e-06	-2.932755e-06	-2.323090e-09	-2.078590e+01	-1.571583e+02
1.180000e-06	-2.894072e-06	-2.314195e-09	-2.051173e+01	-1.567782e+02
1.190000e-06	-2.855055e-06	-2.310722e-09	-2.023521e+01	-1.563956e+02
1.200000e-06	-2.815768e-06	-2.308074e-09	-1.995676e+01	-1.560108e+02
1.210000e-06	-2.776396e-06	-2.304758e-09	-1.967770e+01	-1.556243e+02
1.220000e-06	-2.736906e-06	-2.295999e-09	-1.939782e+01	-1.552360e+02
1.230000e-06	-2.697303e-06	-2.288786e-09	-1.911714e+01	-1.548461e+02
1.240000e-06	-2.657539e-06	-2.278252e-09	-1.883530e+01	-1.544546e+02
1.250000e-06	-2.617606e-06	-2.268129e-09	-1.855228e+01	-1.540611e+02
1.260000e-06	-2.577621e-06	-2.257043e-09	-1.826889e+01	-1.536656e+02
1.270000e-06	-2.537613e-06	-2.252919e-09	-1.798533e+01	-1.532674e+02
1.280000e-06	-2.497422e-06	-2.250366e-09	-1.770048e+01	-1.528661e+02
1.290000e-06	-2.457037e-06	-2.248598e-09	-1.741425e+01	-1.524609e+02
1.300000e-06	-2.416499e-06	-2.239785e-09	-1.712694e+01	-1.520512e+02
1.310000e-06	-2.375780e-06	-2.232292e-09	-1.683834e+01	-1.516361e+02
1.320000e-06	-2.334857e-06	-2.222177e-09	-1.654830e+01	-1.512146e+02
1.330000e-06	-2.293678e-06	-2.209108e-09	-1.625644e+01	-1.507856e+02
1.340000e-06	-2.252222e-06	-2.193426e-09	-1.596262e+01	-1.503481e+02
1.350000e-06	-2.210444e-06	-2.185498e-09	-1.566653e+01	-1.499009e+02
1.360000e-06	-2.168262e-06	-2.183617e-09	-1.536756e+01	-1.494430e+02
1.370000e-06	-2.125630e-06	-2.182406e-09	-1.506540e+01	-1.489730e+02
1.380000e-06	-2.082795e-06	-2.173296e-09	-1.476181e+01	-1.484899e+02
1.390000e-06	-2.039864e-06	-2.158823e-09	-1.445753e+01	-1.479925e+02
1.400000e-06	-1.996757e-06	-2.147698e-09	-1.415202e+01	-1.474799e+02
1.410000e-06	-1.953500e-06	-2.140497e-09	-1.384543e+01	-1.469509e+02
1.420000e-06	-1.910034e-06	-2.128892e-09	-1.353737e+01	-1.464046e+02
1.430000e-06	-1.866452e-06	-2.113982e-09	-1.322848e+01	-1.458403e+02
1.440000e-06	-1.822832e-06	-2.106007e-09	-1.291932e+01	-1.452571e+02
1.450000e-06	-1.779110e-06	-2.101721e-09	-1.260944e+01	-1.446545e+02
1.460000e-06	-1.735348e-06	-2.093096e-09	-1.229928e+01	-1.440319e+02
1.470000e-06	-1.691467e-06	-2.078496e-09	-1.198827e+01	-1.433890e+02
1.480000e-06	-1.647469e-06	-2.061938e-09	-1.167644e+01	-1.427255e+02
1.490000e-06	-1.603425e-06	-2.050013e-09	-1.136427e+01	-1.420412e+02
1.500000e-06	-1.559256e-06	-2.038514e-09	-1.105123e+01	-1.413361e+02
1.510000e-06	-1.514991e-06	-2.022072e-09	-1.073750e+01	-1.406102e+02
1.520000e-06	-1.470733e-06	-2.007374e-09	-1.042382e+01	-1.398636e+02
1.530000e-06	-1.426443e-06	-1.998669e-09	-1.010991e+01	-1.390965e+02
1.540000e-06	-1.382019e-06	-1.995606e-09	-9.795062e+00	-1.383091e+02
1.550000e-06	-1.337514e-06	-1.987693e-09	-9.479628e+00	-1.375018e+02
1.560000e-06	-1.292973e-06	-1.973442e-09	-9.163945e+00	-1.366747e+02
1.570000e-06	-1.248341e-06	-1.957175e-09	-8.847618e+00	-1.358281e+02
1.580000e-06	-1.203609e-06	-1.944195e-09	-8.530582e+00	-1.349623e+02
1.590000e-06	-1.158814e-06	-1.928938e-09	-8.213097e+00	-1.340774e+02
1.600000e-06	-1.113876e-06	-1.912029e-09	-7.894596e+00	-1.331735e+02
1.610000e-06	-1.068821e-06	-1.897135e-09	-7.575272e+00	-1.322506e+02
1.620000e-06	-1.023691e-06	-1.888571e-09	-7.255412e+00	-1.313085e+02
1.630000e-06	-9.784396e-07	-1.879823e-09	-6.934691e+00	-1.303470e+02
1.640000e-06	-9.330646e-07	-1.866519e-09	-6.613096e+00	-1.293657e+02
1.650000e-06	-8.876693e-07	-1.849049e-09	-6.291356e+00	-1.283639e+02
1.660000e-06	-8.423015e-07	-1.835417e-09	-5.969812e+00	-1.273409e+02
1.670000e-06	-7.968891e-07	-1.822348e-09	-5.647951e+00	-1.262958e+02
1.680000e-06	-7.512910e-07	-1.801948e-09	-5.324775e+00	-1.252276e+02
1.690000e-06	-7.055944e-07	-1.777253e-09	-5.000900e+00	-1.241348e+02
1.700000e-06	-6.598964e-07	-1.757655e-09	-4.677015e+00	-1.230161e+02
1.710000e-06	-6.141632e-07	-1.745190e-09	-4.352882e+00	-1.218698e+02
1.720000e-06	-5.684650e-07	-1.730484e-09	-4.028996e+00	-1.206943e+02
1.730000e-06	-5.227070e-07	-1.713989e-09	-3.704686e+00	-1.194875e+02
1.740000e-06	-4.768067e-07	-1.701043e-09	-3.379367e+00	-1.182475e+02
1.750000e-06	-4.308310e-07	-1.686824e-09	-3.053515e+00	-1.169721e+02
1.760000e-06	-3.849258e-07	-1.666006e-09	-2.728162e+00	-1.156592e+02
1.770000e-06	-3.390692e-07	-1.637224e-09	-2.403153e+00	-1.143065e+02
1.780000e-06	-2.931073e-07	-1.611091e-09	-2.077398e+00	-1.129118e+02
1.790000e-06	-2.471342e-07	-1.591316e-09	-1.751564e+00	-1.114727e+02
1.800000e-06	-2.011526e-07	-1.572105e-09	-1.425669e+00	-1.099869e+02
1.810000e-06	-1.552109e-07	-1.551333e-09	-1.100057e+00	-1.084523e+02
1.820000e-06	-1.093291e-07	-1.532573e-09	-7.748702e-01	-1.068666e+02
1.830000e-06	-6.333955e-08	-1.516439e-09	-4.489190e-01	-1.052279e+02
1.840000e-06	-1.738299e-08	-1.495644e-09	-1.232019e-01	-1.035341e+02
1.850000e-06	2.849276e-08	-1.464738e-09	2.019424e-01	-1.017833e+02
1.860000e-06	7.444697e-08	-1.428774e-09	5.276429e-01	-9.997392e+01
1.870000e-06	1.203812e-07	-1.397886e-09	8.532016e-01	-9.810435e+01
1.880000e-06	1.662691e-07	-1.369470e-09	1.178432e+00	-9.617320e+01
1.890000e-06	2.121342e-07	-1.340743e-09	1.503501e+00	-9.417926e+01
1.900000e-06	2.580082e-07	-1.313600e-09	1.828633e+00	-9.212149e+01
1.910000e-06	3.038560e-07	-1.288795e-09	2.153579e+00	-8.999901e+01
1.920000e-06	3.496931e-07	-1.257973e-09	2.478450e+00	-8.781115e+01
1.930000e-06	3.955549e-07	-1.218823e-09	2.803495e+00	-8.555740e+01
1.940000e-06	4.413564e-07	-1.177630e-09	3.128114e+00	-8.323742e+01
1.950000e-06	4.871031e-07	-1.139341e-09	3.452343e+00	-8.085104e+01
1.960000e-06	5.327810e-07	-1.104207e-09	3.776085e+00	-7.839825e+01
1.970000e-06	5.783907e-07	-1.068856e-09	4.099344e+00	-7.587919e+01
1.980000e-06	6.239634e-07	-1.033887e-09	4.422341e+00	-7.329413e+01
1.990000e-06	6.695329e-07	-1.002434e-09	4.745314e+00	-7.064349e+01
2.000000e-06	7.150712e-07	-9.685480e-10	5.068067e+00	-6.792780e+01
2.010000e-06	7.605645e-07	-9.273878e-10	5.390501e+00	-6.514773e+01
2.020000e-06	8.059252e-07	-8.787590e-10	5.711995e+00	-6.230403e+01
2.030000e-06	8.512800e-07	-8.293447e-10	6.033447e+00	-5.939757e+01
2.040000e-06	8.966317e-07	-7.839588e-10	6.354877e+00	-5.642932e+01
2.050000e-06	9.418403e-07	-7.407617e-10	6.675293e+00	-5.340036e+01
2.060000e-06	9.869312e-07	-7.000367e-10	6.994875e+00	-5.031185e+01
2.070000e-06	1.032040e-06	-6.617079e-10	7.314581e+00	-4.716507e+01
2.080000e-06	1.077151e-06	-6.213334e-10	7.634305e+00	-4.396141e+01
2.090000e-06	1.122085e-06	-5.744400e-10	7.952778e+00	-4.070236e+01
2.100000e-06	1.166916e-06	-5.219137e-10	8.270516e+00	-3.738954e+01
2.110000e-06	1.211760e-06	-4.667731e-10	8.588350e+00	-3.402471e+01
2.120000e-06	1.256502e-06	-4.097306e-10	8.905461e+00	-3.060976e+01
2.130000e-06	1.301069e-06	-3.525996e-10	9.221327e+00	-2.714677e+01
2.140000e-06	1.345563e-06	-2.978540e-10	9.536679e+00	-2.363794e+01
2.150000e-06	1.389961e-06	-2.487160e-10	9.851348e+00	-2.008570e+01
2.160000e-06	1.434233e-06	-2.023716e-10	1.016512e+01	-1.649264e+01
2.170000e-06	1.478428e-06	-1.537521e-10	1.047836e+01	-1.286159e+01
2.180000e-06	1.522516e-06	-9.785640e-11	1.079083e+01	-9.195561e+00
2.190000e-06	1.566517e-06	-3.558412e-11	1.110269e+01	-5.497819e+00
2.200000e-06	1.610495e-06	2.696200e-11	1.141438e+01	-1.771843e+00
2.210000e-06	1.654382e-06	8.691347e-11	1.172543e+01	1.978651e+00
2.220000e-06	1.698213e-06	1.453265e-10	1.203608e+01	5.749714e+00
2.230000e-06	1.742034e-06	2.014688e-10	1.234667e+01	9.537174e+00
2.240000e-06	1.785792e-06	2.543374e-10	1.265680e+01	1.333664e+01
2.250000e-06	1.829516e-06	3.059672e-10	1.296669e+01	1.714351e+01
2.260000e-06	1.873059e-06	3.588674e-10	1.327530e+01	2.095299e+01
2.270000e-06	1.916455e-06	4.158646e-10	1.358288e+01	2.476015e+01
2.280000e-06	1.959833e-06	4.740054e-10	1.389031e+01	2.855987e+01
2.290000e-06	2.002981e-06	5.304980e-10	1.419613e+01	3.234694e+01
2.300000e-06	2.045906e-06	5.877076e-10	1.450036e+01	3.611609e+01
2.310000e-06	2.088627e-06	6.458948e-10	1.480315e+01	3.986195e+01
2.320000e-06	2.131120e-06	7.006264e-10	1.510432e+01	4.357921e+01
2.330000e-06	2.173407e-06	7.509028e-10	1.540402e+01	4.726254e+01
2.340000e-06	2.215399e-06	7.999977e-10	1.570164e+01	5.090671e+01
2.350000e-06	2.257093e-06	8.542563e-10	1.599714e+01	5.450661e+01
2.360000e-06	2.298481e-06	9.091560e-10	1.629048e+01	5.805728e+01
2.370000e-06	2.339550e-06	9.583626e-10	1.658156e+01	6.155398e+01
2.380000e-06	2.380362e-06	1.005388e-09	1.687081e+01	6.499221e+01
2.390000e-06	2.420976e-06	1.054458e-09	1.715867e+01	6.836776e+01
2.400000e-06	2.461390e-06	1.101924e-09	1.744510e+01	7.167673e+01
2.410000e-06	2.501642e-06	1.143072e-09	1.773039e+01	7.491558e+01
2.420000e-06	2.541825e-06	1.184683e-09	1.801518e+01	7.808116e+01
2.430000e-06	2.581898e-06	1.233014e-09	1.829920e+01	8.117073e+01
2.440000e-06	2.621813e-06	1.283790e-09	1.858210e+01	8.418196e+01
2.450000e-06	2.661652e-06	1.325868e-09	1.886446e+01	8.711299e+01
2.460000e-06	2.701417e-06	1.359571e-09	1.914629e+01	8.996237e+01
2.470000e-06	2.740961e-06	1.395612e-09	1.942656e+01	9.272914e+01
2.480000e-06	2.780297e-06	1.434386e-09	1.970536e+01	9.541276e+01
2.490000e-06	2.819542e-06	1.471100e-09	1.998350e+01	9.801313e+01
2.500000e-06	2.858646e-06	1.505381e-09	2.026065e+01	1.005306e+02
2.510000e-06	2.897551e-06	1.542860e-09	2.053639e+01	1.029658e+02
2.520000e-06	2.936173e-06	1.582606e-09	2.081013e+01	1.053200e+02
2.530000e-06	2.974507e-06	1.615450e-09	2.108182e+01	1.075945e+02
2.540000e-06	3.012706e-06	1.640754e-09	2.135256e+01	1.097912e+02
2.550000e-06	3.050725e-06	1.668108e-09	2.162201e+01	1.119119e+02
2.560000e-06	3.088481e-06	1.701666e-09	2.188961e+01	1.139590e+02
2.570000e-06	3.126057e-06	1.733180e-09	2.215593e+01	1.159350e+02
2.580000e-06	3.163469e-06	1.757445e-09	2.242108e+01	1.178423e+02
2.590000e-06	3.200709e-06	1.782679e-09	2.268502e+01	1.196837e+02
2.600000e-06	3.237651e-06	1.809820e-09	2.294686e+01	1.214620e+02
2.610000e-06	3.274252e-06	1.834066e-09	2.320626e+01	1.231799e+02
2.620000e-06	3.310653e-06	1.852659e-09	2.346425e+01	1.248401e+02
2.630000e-06	3.346831e-06	1.871762e-09	2.372066e+01	1.264453e+02
2.640000e-06	3.382869e-06	1.898749e-09	2.397608e+01	1.279981e+02
2.650000e-06	3.418801e-06	1.927615e-09	2.423075e+01	1.295010e+02
2.660000e-06	3.454557e-06	1.949746e-09	2.448417e+01	1.309563e+02
2.670000e-06	3.490210e-06	1.966404e-09	2.473687e+01	1.323661e+02
2.680000e-06	3.525694e-06	1.983330e-09	2.498836e+01	1.337325e+02
2.690000e-06	3.560888e-06	1.999417e-09	2.523780e+01	1.350571e+02
2.700000e-06	3.595724e-06	2.012308e-09	2.548470e+01	1.363416e+02
2.710000e-06	3.630121e-06	2.025078e-09	2.572848e+01	1.375873e+02
2.720000e-06	3.664059e-06	2.044121e-09	2.596902e+01	1.387954e+02
2.730000e-06	3.697502e-06	2.070898e-09	2.620604e+01	1.399670e+02
2.740000e-06	3.730626e-06	2.096354e-09	2.644081e+01	1.411028e+02
2.750000e-06	3.763464e-06	2.114266e-09	2.667355e+01	1.422035e+02
2.760000e-06	3.795937e-06	2.127969e-09	2.690371e+01	1.432697e+02
2.770000e-06	3.828132e-06	2.140214e-09	2.713189e+01	1.443017e+02
2.780000e-06	3.860141e-06	2.151562e-09	2.735875e+01	1.453000e+02
2.790000e-06	3.891987e-06	2.162028e-09	2.758446e+01	1.462646e+02
2.800000e-06	3.923677e-06	2.175733e-09	2.780906e+01	1.471960e+02
2.810000e-06	3.955170e-06	2.193613e-09	2.803227e+01	1.480942e+02
2.820000e-06	3.986422e-06	2.212649e-09	2.825377e+01	1.489594e+02
2.830000e-06	4.017487e-06	2.224998e-09	2.847394e+01	1.497920e+02
2.840000e-06	4.048202e-06	2.231813e-09	2.869163e+01	1.505921e+02
2.850000e-06	4.078561e-06	2.240343e-09	2.890680e+01	1.513601e+02
2.860000e-06	4.108596e-06	2.252809e-09	2.911967e+01	1.520965e+02
2.870000e-06	4.138364e-06	2.265918e-09	2.933065e+01	1.528018e+02
2.880000e-06	4.167887e-06	2.277385e-09	2.953990e+01	1.534766e+02
2.890000e-06	4.197170e-06	2.287242e-09	2.974744e+01	1.541216e+02
2.900000e-06	4.226300e-06	2.296902e-09	2.995390e+01	1.547377e+02
