# Temperatura_=_-2.1
# Concentracion g/m^3_=_4090.0
# C_Vs_to_Am_M_A/Vsm_=_65563218390.804596
# pendiente_HvsI_1/m_=_3716.3
# ordenada_HvsI_A/m_=_1297.0
# frecuencia_Hz_=_135082.38465776475

Tiempo_(s)	Campo_(V.s)	Magnetizacion_(V.s)	Campo_(kA/m)	Magnetizacion_(A/m)
0.000000e+00	-5.386768e-06	-2.523762e-09	-3.839311e+01	-1.603047e+02
1.000000e-08	-5.386814e-06	-2.519515e-09	-3.839344e+01	-1.602999e+02
2.000000e-08	-5.386676e-06	-2.515051e-09	-3.839245e+01	-1.602969e+02
3.000000e-08	-5.386264e-06	-2.512766e-09	-3.838952e+01	-1.602966e+02
4.000000e-08	-5.385409e-06	-2.511074e-09	-3.838342e+01	-1.603004e+02
5.000000e-08	-5.384021e-06	-2.509554e-09	-3.837353e+01	-1.603093e+02
6.000000e-08	-5.382051e-06	-2.511972e-09	-3.835949e+01	-1.603245e+02
7.000000e-08	-5.379371e-06	-2.530401e-09	-3.834039e+01	-1.603470e+02
8.000000e-08	-5.376059e-06	-2.530314e-09	-3.831678e+01	-1.603779e+02
9.000000e-08	-5.372236e-06	-2.484609e-09	-3.828953e+01	-1.604179e+02
1.000000e-07	-5.368008e-06	-2.467959e-09	-3.825940e+01	-1.604680e+02
1.100000e-07	-5.363597e-06	-2.543121e-09	-3.822796e+01	-1.605286e+02
1.200000e-07	-5.359108e-06	-2.537955e-09	-3.819597e+01	-1.606003e+02
1.300000e-07	-5.354336e-06	-2.452977e-09	-3.816195e+01	-1.606834e+02
1.400000e-07	-5.349111e-06	-2.435619e-09	-3.812472e+01	-1.607780e+02
1.500000e-07	-5.343521e-06	-2.530601e-09	-3.808487e+01	-1.608840e+02
1.600000e-07	-5.337627e-06	-2.535156e-09	-3.804287e+01	-1.610012e+02
1.700000e-07	-5.331321e-06	-2.419326e-09	-3.799792e+01	-1.611291e+02
1.800000e-07	-5.324518e-06	-2.440599e-09	-3.794943e+01	-1.612672e+02
1.900000e-07	-5.317323e-06	-2.522658e-09	-3.789815e+01	-1.614146e+02
2.000000e-07	-5.309849e-06	-2.504979e-09	-3.784488e+01	-1.615704e+02
2.100000e-07	-5.302138e-06	-2.407578e-09	-3.778992e+01	-1.617334e+02
2.200000e-07	-5.294272e-06	-2.468214e-09	-3.773386e+01	-1.619024e+02
2.300000e-07	-5.286171e-06	-2.536080e-09	-3.767612e+01	-1.620761e+02
2.400000e-07	-5.277544e-06	-2.489984e-09	-3.761464e+01	-1.622529e+02
2.500000e-07	-5.268221e-06	-2.441343e-09	-3.754819e+01	-1.624314e+02
2.600000e-07	-5.258341e-06	-2.528848e-09	-3.747777e+01	-1.626099e+02
2.700000e-07	-5.247880e-06	-2.554754e-09	-3.740321e+01	-1.627868e+02
2.800000e-07	-5.236826e-06	-2.450920e-09	-3.732443e+01	-1.629605e+02
2.900000e-07	-5.225363e-06	-2.440016e-09	-3.724273e+01	-1.631293e+02
3.000000e-07	-5.213548e-06	-2.539647e-09	-3.715852e+01	-1.632918e+02
3.100000e-07	-5.201357e-06	-2.510669e-09	-3.707163e+01	-1.634464e+02
3.200000e-07	-5.188835e-06	-2.430339e-09	-3.698238e+01	-1.635917e+02
3.300000e-07	-5.175986e-06	-2.489975e-09	-3.689080e+01	-1.637263e+02
3.400000e-07	-5.162725e-06	-2.539442e-09	-3.679628e+01	-1.638491e+02
3.500000e-07	-5.149027e-06	-2.480797e-09	-3.669866e+01	-1.639590e+02
3.600000e-07	-5.135003e-06	-2.466972e-09	-3.659870e+01	-1.640551e+02
3.700000e-07	-5.120535e-06	-2.517432e-09	-3.649558e+01	-1.641366e+02
3.800000e-07	-5.105456e-06	-2.478057e-09	-3.638811e+01	-1.642029e+02
3.900000e-07	-5.089694e-06	-2.461468e-09	-3.627577e+01	-1.642536e+02
4.000000e-07	-5.073428e-06	-2.502622e-09	-3.615984e+01	-1.642885e+02
4.100000e-07	-5.056806e-06	-2.490710e-09	-3.604137e+01	-1.643073e+02
4.200000e-07	-5.039851e-06	-2.436893e-09	-3.592052e+01	-1.643103e+02
4.300000e-07	-5.022622e-06	-2.487815e-09	-3.579773e+01	-1.642976e+02
4.400000e-07	-5.005124e-06	-2.510061e-09	-3.567301e+01	-1.642695e+02
4.500000e-07	-4.987381e-06	-2.456847e-09	-3.554656e+01	-1.642266e+02
4.600000e-07	-4.969243e-06	-2.443483e-09	-3.541728e+01	-1.641695e+02
4.700000e-07	-4.950662e-06	-2.489675e-09	-3.528485e+01	-1.640989e+02
4.800000e-07	-4.931648e-06	-2.472522e-09	-3.514933e+01	-1.640157e+02
4.900000e-07	-4.912305e-06	-2.452634e-09	-3.501147e+01	-1.639208e+02
5.000000e-07	-4.892732e-06	-2.459961e-09	-3.487197e+01	-1.638151e+02
5.100000e-07	-4.873020e-06	-2.463885e-09	-3.473147e+01	-1.636998e+02
5.200000e-07	-4.853154e-06	-2.461826e-09	-3.458988e+01	-1.635758e+02
5.300000e-07	-4.833034e-06	-2.474788e-09	-3.444648e+01	-1.634442e+02
5.400000e-07	-4.812557e-06	-2.453892e-09	-3.430053e+01	-1.633061e+02
5.500000e-07	-4.791713e-06	-2.436854e-09	-3.415197e+01	-1.631625e+02
5.600000e-07	-4.770519e-06	-2.452919e-09	-3.400092e+01	-1.630145e+02
5.700000e-07	-4.748963e-06	-2.453890e-09	-3.384728e+01	-1.628631e+02
5.800000e-07	-4.727077e-06	-2.428860e-09	-3.369129e+01	-1.627091e+02
5.900000e-07	-4.704882e-06	-2.425845e-09	-3.353310e+01	-1.625534e+02
6.000000e-07	-4.682342e-06	-2.437358e-09	-3.337245e+01	-1.623969e+02
6.100000e-07	-4.659415e-06	-2.435835e-09	-3.320904e+01	-1.622401e+02
6.200000e-07	-4.636153e-06	-2.428839e-09	-3.304325e+01	-1.620837e+02
6.300000e-07	-4.612627e-06	-2.417000e-09	-3.287557e+01	-1.619282e+02
6.400000e-07	-4.588930e-06	-2.414926e-09	-3.270668e+01	-1.617740e+02
6.500000e-07	-4.565002e-06	-2.421420e-09	-3.253614e+01	-1.616213e+02
6.600000e-07	-4.540827e-06	-2.417540e-09	-3.236383e+01	-1.614705e+02
6.700000e-07	-4.516390e-06	-2.397394e-09	-3.218966e+01	-1.613215e+02
6.800000e-07	-4.491470e-06	-2.397168e-09	-3.201205e+01	-1.611743e+02
6.900000e-07	-4.465980e-06	-2.403339e-09	-3.183037e+01	-1.610289e+02
7.000000e-07	-4.440060e-06	-2.402967e-09	-3.164563e+01	-1.608851e+02
7.100000e-07	-4.413714e-06	-2.388552e-09	-3.145786e+01	-1.607425e+02
7.200000e-07	-4.386802e-06	-2.384576e-09	-3.126605e+01	-1.606008e+02
7.300000e-07	-4.359386e-06	-2.386268e-09	-3.107065e+01	-1.604596e+02
7.400000e-07	-4.331738e-06	-2.389483e-09	-3.087360e+01	-1.603184e+02
7.500000e-07	-4.303932e-06	-2.375659e-09	-3.067541e+01	-1.601766e+02
7.600000e-07	-4.275944e-06	-2.365510e-09	-3.047593e+01	-1.600336e+02
7.700000e-07	-4.247783e-06	-2.368500e-09	-3.027522e+01	-1.598889e+02
7.800000e-07	-4.219369e-06	-2.376256e-09	-3.007270e+01	-1.597418e+02
7.900000e-07	-4.190762e-06	-2.367809e-09	-2.986881e+01	-1.595916e+02
8.000000e-07	-4.161754e-06	-2.356952e-09	-2.966206e+01	-1.594376e+02
8.100000e-07	-4.132370e-06	-2.349429e-09	-2.945264e+01	-1.592793e+02
8.200000e-07	-4.102826e-06	-2.352595e-09	-2.924207e+01	-1.591160e+02
8.300000e-07	-4.073043e-06	-2.352011e-09	-2.902980e+01	-1.589472e+02
8.400000e-07	-4.042978e-06	-2.347532e-09	-2.881551e+01	-1.587722e+02
8.500000e-07	-4.012599e-06	-2.343666e-09	-2.859899e+01	-1.585907e+02
8.600000e-07	-3.981944e-06	-2.345705e-09	-2.838051e+01	-1.584021e+02
8.700000e-07	-3.951089e-06	-2.343907e-09	-2.816059e+01	-1.582061e+02
8.800000e-07	-3.919960e-06	-2.332278e-09	-2.793872e+01	-1.580025e+02
8.900000e-07	-3.888531e-06	-2.318881e-09	-2.771472e+01	-1.577910e+02
9.000000e-07	-3.856897e-06	-2.315569e-09	-2.748926e+01	-1.575716e+02
9.100000e-07	-3.825051e-06	-2.321772e-09	-2.726229e+01	-1.573441e+02
9.200000e-07	-3.793041e-06	-2.325861e-09	-2.703414e+01	-1.571088e+02
9.300000e-07	-3.760876e-06	-2.326222e-09	-2.680489e+01	-1.568656e+02
9.400000e-07	-3.728507e-06	-2.325517e-09	-2.657418e+01	-1.566150e+02
9.500000e-07	-3.695800e-06	-2.327201e-09	-2.634107e+01	-1.563571e+02
9.600000e-07	-3.662607e-06	-2.320707e-09	-2.610449e+01	-1.560925e+02
9.700000e-07	-3.628968e-06	-2.308521e-09	-2.586474e+01	-1.558217e+02
9.800000e-07	-3.594919e-06	-2.297375e-09	-2.562206e+01	-1.555451e+02
9.900000e-07	-3.560408e-06	-2.297104e-09	-2.537609e+01	-1.552635e+02
1.000000e-06	-3.525458e-06	-2.299210e-09	-2.512700e+01	-1.549776e+02
1.010000e-06	-3.490187e-06	-2.301891e-09	-2.487561e+01	-1.546879e+02
1.020000e-06	-3.454739e-06	-2.299032e-09	-2.462296e+01	-1.543954e+02
1.030000e-06	-3.419118e-06	-2.295196e-09	-2.436908e+01	-1.541007e+02
1.040000e-06	-3.383336e-06	-2.287620e-09	-2.411405e+01	-1.538046e+02
1.050000e-06	-3.347459e-06	-2.276896e-09	-2.385834e+01	-1.535079e+02
1.060000e-06	-3.311438e-06	-2.263505e-09	-2.360161e+01	-1.532113e+02
1.070000e-06	-3.275180e-06	-2.255509e-09	-2.334319e+01	-1.529154e+02
1.080000e-06	-3.238718e-06	-2.250857e-09	-2.308331e+01	-1.526208e+02
1.090000e-06	-3.202072e-06	-2.249654e-09	-2.282212e+01	-1.523281e+02
1.100000e-06	-3.165184e-06	-2.246619e-09	-2.255921e+01	-1.520378e+02
1.110000e-06	-3.128069e-06	-2.242723e-09	-2.229468e+01	-1.517502e+02
1.120000e-06	-3.090704e-06	-2.239091e-09	-2.202837e+01	-1.514656e+02
1.130000e-06	-3.053131e-06	-2.235998e-09	-2.176058e+01	-1.511841e+02
1.140000e-06	-3.015395e-06	-2.229080e-09	-2.149162e+01	-1.509057e+02
1.150000e-06	-2.977432e-06	-2.223737e-09	-2.122105e+01	-1.506303e+02
1.160000e-06	-2.939220e-06	-2.219392e-09	-2.094870e+01	-1.503577e+02
1.170000e-06	-2.900826e-06	-2.212836e-09	-2.067505e+01	-1.500875e+02
1.180000e-06	-2.862198e-06	-2.204856e-09	-2.039974e+01	-1.498192e+02
1.190000e-06	-2.823238e-06	-2.200188e-09	-2.012206e+01	-1.495523e+02
1.200000e-06	-2.784092e-06	-2.200366e-09	-1.984305e+01	-1.492859e+02
1.210000e-06	-2.744832e-06	-2.199586e-09	-1.956324e+01	-1.490194e+02
1.220000e-06	-2.705427e-06	-2.194609e-09	-1.928239e+01	-1.487516e+02
1.230000e-06	-2.665834e-06	-2.189125e-09	-1.900019e+01	-1.484818e+02
1.240000e-06	-2.626116e-06	-2.183888e-09	-1.871711e+01	-1.482087e+02
1.250000e-06	-2.586311e-06	-2.174295e-09	-1.843341e+01	-1.479313e+02
1.260000e-06	-2.546402e-06	-2.163088e-09	-1.814897e+01	-1.476484e+02
1.270000e-06	-2.506372e-06	-2.154364e-09	-1.786366e+01	-1.473589e+02
1.280000e-06	-2.466163e-06	-2.151218e-09	-1.757708e+01	-1.470616e+02
1.290000e-06	-2.425882e-06	-2.148955e-09	-1.728999e+01	-1.467553e+02
1.300000e-06	-2.385534e-06	-2.144899e-09	-1.700241e+01	-1.464391e+02
1.310000e-06	-2.345099e-06	-2.138884e-09	-1.671422e+01	-1.461118e+02
1.320000e-06	-2.304491e-06	-2.134884e-09	-1.642480e+01	-1.457725e+02
1.330000e-06	-2.263562e-06	-2.127762e-09	-1.613308e+01	-1.454203e+02
1.340000e-06	-2.222281e-06	-2.117456e-09	-1.583886e+01	-1.450545e+02
1.350000e-06	-2.180620e-06	-2.105509e-09	-1.554193e+01	-1.446743e+02
1.360000e-06	-2.138638e-06	-2.098163e-09	-1.524271e+01	-1.442792e+02
1.370000e-06	-2.096458e-06	-2.093663e-09	-1.494208e+01	-1.438688e+02
1.380000e-06	-2.054018e-06	-2.087310e-09	-1.463960e+01	-1.434428e+02
1.390000e-06	-2.011308e-06	-2.077426e-09	-1.433519e+01	-1.430009e+02
1.400000e-06	-1.968373e-06	-2.070826e-09	-1.402918e+01	-1.425432e+02
1.410000e-06	-1.925307e-06	-2.066051e-09	-1.372224e+01	-1.420697e+02
1.420000e-06	-1.882014e-06	-2.057856e-09	-1.341368e+01	-1.415805e+02
1.430000e-06	-1.838487e-06	-2.045071e-09	-1.310345e+01	-1.410758e+02
1.440000e-06	-1.794953e-06	-2.035138e-09	-1.279317e+01	-1.405561e+02
1.450000e-06	-1.751353e-06	-2.028743e-09	-1.248241e+01	-1.400216e+02
1.460000e-06	-1.707667e-06	-2.020725e-09	-1.217106e+01	-1.394728e+02
1.470000e-06	-1.663919e-06	-2.007720e-09	-1.185925e+01	-1.389102e+02
1.480000e-06	-1.620106e-06	-1.994428e-09	-1.154698e+01	-1.383341e+02
1.490000e-06	-1.576252e-06	-1.987649e-09	-1.123442e+01	-1.377451e+02
1.500000e-06	-1.532297e-06	-1.983822e-09	-1.092114e+01	-1.371434e+02
1.510000e-06	-1.488293e-06	-1.974452e-09	-1.060751e+01	-1.365295e+02
1.520000e-06	-1.444267e-06	-1.963178e-09	-1.029372e+01	-1.359037e+02
1.530000e-06	-1.400133e-06	-1.959295e-09	-9.979169e+00	-1.352659e+02
1.540000e-06	-1.355979e-06	-1.956942e-09	-9.664468e+00	-1.346164e+02
1.550000e-06	-1.311836e-06	-1.948249e-09	-9.349847e+00	-1.339550e+02
1.560000e-06	-1.267570e-06	-1.934354e-09	-9.034350e+00	-1.332814e+02
1.570000e-06	-1.223142e-06	-1.923389e-09	-8.717700e+00	-1.325953e+02
1.580000e-06	-1.178637e-06	-1.917822e-09	-8.400499e+00	-1.318963e+02
1.590000e-06	-1.134133e-06	-1.912226e-09	-8.083304e+00	-1.311834e+02
1.600000e-06	-1.089572e-06	-1.900677e-09	-7.765704e+00	-1.304560e+02
1.610000e-06	-1.044802e-06	-1.888951e-09	-7.446618e+00	-1.297130e+02
1.620000e-06	-9.999054e-07	-1.881156e-09	-7.126625e+00	-1.289532e+02
1.630000e-06	-9.549483e-07	-1.871956e-09	-6.806202e+00	-1.281754e+02
1.640000e-06	-9.098307e-07	-1.854802e-09	-6.484635e+00	-1.273780e+02
1.650000e-06	-8.646243e-07	-1.838553e-09	-6.162436e+00	-1.265595e+02
1.660000e-06	-8.194244e-07	-1.828962e-09	-5.840283e+00	-1.257182e+02
1.670000e-06	-7.741497e-07	-1.821211e-09	-5.517597e+00	-1.248524e+02
1.680000e-06	-7.287853e-07	-1.807627e-09	-5.194271e+00	-1.239602e+02
1.690000e-06	-6.833427e-07	-1.790247e-09	-4.870388e+00	-1.230397e+02
1.700000e-06	-6.378025e-07	-1.777358e-09	-4.545809e+00	-1.220891e+02
1.710000e-06	-5.922698e-07	-1.766696e-09	-4.221284e+00	-1.211064e+02
1.720000e-06	-5.467658e-07	-1.749197e-09	-3.896964e+00	-1.200896e+02
1.730000e-06	-5.012465e-07	-1.727984e-09	-3.572534e+00	-1.190368e+02
1.740000e-06	-4.556374e-07	-1.711376e-09	-3.247464e+00	-1.179463e+02
1.750000e-06	-4.099874e-07	-1.697571e-09	-2.922103e+00	-1.168160e+02
1.760000e-06	-3.643852e-07	-1.680800e-09	-2.597082e+00	-1.156442e+02
1.770000e-06	-3.187310e-07	-1.660064e-09	-2.271691e+00	-1.144293e+02
1.780000e-06	-2.730224e-07	-1.642570e-09	-1.945913e+00	-1.131695e+02
1.790000e-06	-2.273249e-07	-1.629905e-09	-1.620213e+00	-1.118633e+02
1.800000e-06	-1.816547e-07	-1.612866e-09	-1.294707e+00	-1.105091e+02
1.810000e-06	-1.359655e-07	-1.591556e-09	-9.690669e-01	-1.091055e+02
1.820000e-06	-9.022101e-08	-1.570039e-09	-6.430322e-01	-1.076511e+02
1.830000e-06	-4.449000e-08	-1.550268e-09	-3.170935e-01	-1.061446e+02
1.840000e-06	1.204166e-09	-1.527801e-09	8.582453e-03	-1.045847e+02
1.850000e-06	4.689603e-08	-1.498283e-09	3.342420e-01	-1.029701e+02
1.860000e-06	9.253549e-08	-1.467012e-09	6.595281e-01	-1.012995e+02
1.870000e-06	1.381886e-07	-1.441696e-09	9.849114e-01	-9.957173e+01
1.880000e-06	1.839420e-07	-1.419308e-09	1.311009e+00	-9.778552e+01
1.890000e-06	2.296584e-07	-1.392983e-09	1.636844e+00	-9.593960e+01
1.900000e-06	2.753114e-07	-1.365436e-09	1.962227e+00	-9.403267e+01
1.910000e-06	3.209509e-07	-1.337461e-09	2.287513e+00	-9.206338e+01
1.920000e-06	3.665836e-07	-1.306884e-09	2.612751e+00	-9.003035e+01
1.930000e-06	4.122385e-07	-1.271066e-09	2.938147e+00	-8.793213e+01
1.940000e-06	4.578658e-07	-1.232583e-09	3.263346e+00	-8.576725e+01
1.950000e-06	5.034749e-07	-1.197815e-09	3.588416e+00	-8.353416e+01
1.960000e-06	5.490940e-07	-1.165705e-09	3.913557e+00	-8.123131e+01
1.970000e-06	5.946091e-07	-1.130547e-09	4.237957e+00	-7.885709e+01
1.980000e-06	6.399959e-07	-1.092624e-09	4.561442e+00	-7.640989e+01
1.990000e-06	6.852676e-07	-1.055846e-09	4.884107e+00	-7.388814e+01
2.000000e-06	7.304251e-07	-1.022210e-09	5.205958e+00	-7.129028e+01
2.010000e-06	7.756169e-07	-9.847871e-10	5.528054e+00	-6.861482e+01
2.020000e-06	8.208354e-07	-9.400795e-10	5.850340e+00	-6.586039e+01
2.030000e-06	8.659586e-07	-8.933933e-10	6.171946e+00	-6.302575e+01
2.040000e-06	9.109656e-07	-8.492645e-10	6.492724e+00	-6.010983e+01
2.050000e-06	9.559230e-07	-8.043874e-10	6.813149e+00	-5.711181e+01
2.060000e-06	1.000796e-06	-7.581259e-10	7.132973e+00	-5.403109e+01
2.070000e-06	1.045605e-06	-7.120964e-10	7.452337e+00	-5.086743e+01
2.080000e-06	1.090353e-06	-6.679158e-10	7.771274e+00	-4.762090e+01
2.090000e-06	1.134916e-06	-6.242639e-10	8.088887e+00	-4.429198e+01
2.100000e-06	1.179386e-06	-5.775439e-10	8.405836e+00	-4.088159e+01
2.110000e-06	1.223812e-06	-5.278150e-10	8.722472e+00	-3.739110e+01
2.120000e-06	1.268121e-06	-4.755079e-10	9.038276e+00	-3.382241e+01
2.130000e-06	1.312338e-06	-4.177090e-10	9.353425e+00	-3.017791e+01
2.140000e-06	1.356536e-06	-3.554797e-10	9.668440e+00	-2.646057e+01
2.150000e-06	1.400731e-06	-2.917728e-10	9.983430e+00	-2.267392e+01
2.160000e-06	1.444870e-06	-2.340883e-10	1.029802e+01	-1.882204e+01
2.170000e-06	1.488913e-06	-1.799686e-10	1.061193e+01	-1.490959e+01
2.180000e-06	1.532874e-06	-1.239818e-10	1.092525e+01	-1.094179e+01
2.190000e-06	1.576792e-06	-6.625410e-11	1.123827e+01	-6.924422e+00
2.200000e-06	1.620678e-06	-7.349537e-12	1.155106e+01	-2.863750e+00
2.210000e-06	1.664511e-06	5.221647e-11	1.186347e+01	1.233458e+00
2.220000e-06	1.708287e-06	1.190319e-10	1.217547e+01	5.360001e+00
2.230000e-06	1.752006e-06	1.883832e-10	1.248707e+01	9.508288e+00
2.240000e-06	1.795638e-06	2.547642e-10	1.279805e+01	1.367039e+01
2.250000e-06	1.839245e-06	3.186162e-10	1.310885e+01	1.783813e+01
2.260000e-06	1.882800e-06	3.809701e-10	1.341928e+01	2.200311e+01
2.270000e-06	1.926160e-06	4.396262e-10	1.372832e+01	2.615682e+01
2.280000e-06	1.969209e-06	4.936109e-10	1.403514e+01	3.029070e+01
2.290000e-06	2.012013e-06	5.464196e-10	1.434021e+01	3.439622e+01
2.300000e-06	2.054624e-06	6.048042e-10	1.464392e+01	3.846498e+01
2.310000e-06	2.096967e-06	6.672146e-10	1.494571e+01	4.248876e+01
2.320000e-06	2.139021e-06	7.301774e-10	1.524544e+01	4.645963e+01
2.330000e-06	2.180798e-06	7.896369e-10	1.554320e+01	5.036998e+01
2.340000e-06	2.222368e-06	8.471264e-10	1.583948e+01	5.421267e+01
2.350000e-06	2.263632e-06	9.038772e-10	1.613358e+01	5.798101e+01
2.360000e-06	2.304486e-06	9.567676e-10	1.642476e+01	6.166889e+01
2.370000e-06	2.345115e-06	1.002965e-09	1.671434e+01	6.527078e+01
2.380000e-06	2.385637e-06	1.047165e-09	1.700315e+01	6.878183e+01
2.390000e-06	2.425914e-06	1.093223e-09	1.729022e+01	7.219784e+01
2.400000e-06	2.466054e-06	1.140461e-09	1.757630e+01	7.551537e+01
2.410000e-06	2.506156e-06	1.185092e-09	1.786213e+01	7.873165e+01
2.420000e-06	2.546123e-06	1.228769e-09	1.814698e+01	8.184470e+01
2.430000e-06	2.585968e-06	1.276879e-09	1.843096e+01	8.485323e+01
2.440000e-06	2.625706e-06	1.325303e-09	1.871419e+01	8.775669e+01
2.450000e-06	2.665288e-06	1.365287e-09	1.899630e+01	9.055522e+01
2.460000e-06	2.704780e-06	1.399500e-09	1.927778e+01	9.324962e+01
2.470000e-06	2.744118e-06	1.436111e-09	1.955815e+01	9.584130e+01
2.480000e-06	2.783265e-06	1.470799e-09	1.983716e+01	9.833224e+01
2.490000e-06	2.822236e-06	1.502536e-09	2.011492e+01	1.007249e+02
2.500000e-06	2.860889e-06	1.532550e-09	2.039041e+01	1.030223e+02
2.510000e-06	2.899325e-06	1.565440e-09	2.066436e+01	1.052278e+02
2.520000e-06	2.937596e-06	1.600553e-09	2.093712e+01	1.073449e+02
2.530000e-06	2.975627e-06	1.631816e-09	2.120818e+01	1.093777e+02
2.540000e-06	3.013450e-06	1.658658e-09	2.147776e+01	1.113301e+02
2.550000e-06	3.051102e-06	1.687959e-09	2.174612e+01	1.132063e+02
2.560000e-06	3.088582e-06	1.719060e-09	2.201325e+01	1.150105e+02
2.570000e-06	3.125840e-06	1.744649e-09	2.227880e+01	1.167469e+02
2.580000e-06	3.162831e-06	1.761712e-09	2.254244e+01	1.184195e+02
2.590000e-06	3.199594e-06	1.778756e-09	2.280447e+01	1.200323e+02
2.600000e-06	3.236101e-06	1.803149e-09	2.306466e+01	1.215890e+02
2.610000e-06	3.272369e-06	1.830412e-09	2.332315e+01	1.230930e+02
2.620000e-06	3.308477e-06	1.853512e-09	2.358051e+01	1.245475e+02
2.630000e-06	3.344473e-06	1.877712e-09	2.383706e+01	1.259555e+02
2.640000e-06	3.380372e-06	1.904018e-09	2.409292e+01	1.273195e+02
2.650000e-06	3.416179e-06	1.924964e-09	2.434813e+01	1.286416e+02
2.660000e-06	3.451900e-06	1.938865e-09	2.460272e+01	1.299237e+02
2.670000e-06	3.487432e-06	1.950902e-09	2.485597e+01	1.311675e+02
2.680000e-06	3.522613e-06	1.965759e-09	2.510672e+01	1.323740e+02
2.690000e-06	3.557368e-06	1.982458e-09	2.535443e+01	1.335442e+02
2.700000e-06	3.591839e-06	1.998442e-09	2.560011e+01	1.346787e+02
2.710000e-06	3.625871e-06	2.013936e-09	2.584267e+01	1.357779e+02
2.720000e-06	3.659277e-06	2.034734e-09	2.608076e+01	1.368419e+02
2.730000e-06	3.692239e-06	2.056745e-09	2.631569e+01	1.378707e+02
2.740000e-06	3.724814e-06	2.072848e-09	2.654787e+01	1.388642e+02
2.750000e-06	3.757092e-06	2.083030e-09	2.677792e+01	1.398222e+02
2.760000e-06	3.789199e-06	2.092641e-09	2.700675e+01	1.407443e+02
2.770000e-06	3.821181e-06	2.104504e-09	2.723470e+01	1.416303e+02
2.780000e-06	3.853078e-06	2.116177e-09	2.746204e+01	1.424799e+02
2.790000e-06	3.884803e-06	2.127058e-09	2.768815e+01	1.432929e+02
2.800000e-06	3.916340e-06	2.140231e-09	2.791293e+01	1.440694e+02
2.810000e-06	3.947716e-06	2.157328e-09	2.813655e+01	1.448092e+02
2.820000e-06	3.978726e-06	2.169867e-09	2.835757e+01	1.455128e+02
2.830000e-06	4.009316e-06	2.172961e-09	2.857559e+01	1.461804e+02
2.840000e-06	4.039657e-06	2.174440e-09	2.879185e+01	1.468128e+02
2.850000e-06	4.069724e-06	2.182605e-09	2.900614e+01	1.474106e+02
2.860000e-06	4.099537e-06	2.196676e-09	2.921862e+01	1.479751e+02
2.870000e-06	4.129211e-06	2.208223e-09	2.943012e+01	1.485073e+02
2.880000e-06	4.158609e-06	2.214492e-09	2.963965e+01	1.490088e+02
2.890000e-06	4.187565e-06	2.217965e-09	2.984603e+01	1.494810e+02
2.900000e-06	4.216194e-06	2.222171e-09	3.005008e+01	1.499259e+02
