# Temperatura_=_-1.8
# Concentracion g/m^3_=_4090.0
# C_Vs_to_Am_M_A/Vsm_=_65563218390.804596
# pendiente_HvsI_1/m_=_3716.3
# ordenada_HvsI_A/m_=_1297.0
# frecuencia_Hz_=_135083.9021778887

Tiempo_(s)	Campo_(V.s)	Magnetizacion_(V.s)	Campo_(kA/m)	Magnetizacion_(A/m)
0.000000e+00	-5.410655e-06	-2.565093e-09	-3.838602e+01	-1.638757e+02
1.000000e-08	-5.410849e-06	-2.563599e-09	-3.838740e+01	-1.638823e+02
2.000000e-08	-5.410776e-06	-2.560571e-09	-3.838688e+01	-1.638910e+02
3.000000e-08	-5.410450e-06	-2.558344e-09	-3.838456e+01	-1.639025e+02
4.000000e-08	-5.409849e-06	-2.554065e-09	-3.838030e+01	-1.639174e+02
5.000000e-08	-5.408752e-06	-2.546948e-09	-3.837252e+01	-1.639364e+02
6.000000e-08	-5.407150e-06	-2.548174e-09	-3.836116e+01	-1.639600e+02
7.000000e-08	-5.404929e-06	-2.573118e-09	-3.834540e+01	-1.639888e+02
8.000000e-08	-5.401936e-06	-2.600720e-09	-3.832416e+01	-1.640234e+02
9.000000e-08	-5.398396e-06	-2.558463e-09	-3.829905e+01	-1.640643e+02
1.000000e-07	-5.394440e-06	-2.483729e-09	-3.827099e+01	-1.641120e+02
1.100000e-07	-5.390245e-06	-2.518220e-09	-3.824122e+01	-1.641667e+02
1.200000e-07	-5.385926e-06	-2.609617e-09	-3.821058e+01	-1.642289e+02
1.300000e-07	-5.381291e-06	-2.578020e-09	-3.817769e+01	-1.642986e+02
1.400000e-07	-5.376172e-06	-2.466242e-09	-3.814138e+01	-1.643759e+02
1.500000e-07	-5.370712e-06	-2.496406e-09	-3.810264e+01	-1.644610e+02
1.600000e-07	-5.365035e-06	-2.652687e-09	-3.806237e+01	-1.645536e+02
1.700000e-07	-5.358860e-06	-2.598022e-09	-3.801856e+01	-1.646536e+02
1.800000e-07	-5.352189e-06	-2.467521e-09	-3.797123e+01	-1.647605e+02
1.900000e-07	-5.345235e-06	-2.459398e-09	-3.792190e+01	-1.648740e+02
2.000000e-07	-5.338014e-06	-2.602072e-09	-3.787067e+01	-1.649936e+02
2.100000e-07	-5.330427e-06	-2.558460e-09	-3.781684e+01	-1.651185e+02
2.200000e-07	-5.322518e-06	-2.490935e-09	-3.776073e+01	-1.652481e+02
2.300000e-07	-5.314445e-06	-2.526660e-09	-3.770346e+01	-1.653814e+02
2.400000e-07	-5.306185e-06	-2.582631e-09	-3.764486e+01	-1.655177e+02
2.500000e-07	-5.297282e-06	-2.509639e-09	-3.758169e+01	-1.656558e+02
2.600000e-07	-5.287633e-06	-2.487155e-09	-3.751324e+01	-1.657948e+02
2.700000e-07	-5.277425e-06	-2.567937e-09	-3.744082e+01	-1.659336e+02
2.800000e-07	-5.266778e-06	-2.558067e-09	-3.736528e+01	-1.660711e+02
2.900000e-07	-5.255684e-06	-2.483635e-09	-3.728657e+01	-1.662060e+02
3.000000e-07	-5.244153e-06	-2.524727e-09	-3.720477e+01	-1.663373e+02
3.100000e-07	-5.232169e-06	-2.614653e-09	-3.711975e+01	-1.664639e+02
3.200000e-07	-5.219806e-06	-2.537612e-09	-3.703203e+01	-1.665845e+02
3.300000e-07	-5.207179e-06	-2.484824e-09	-3.694245e+01	-1.666981e+02
3.400000e-07	-5.194017e-06	-2.528854e-09	-3.684908e+01	-1.668036e+02
3.500000e-07	-5.180391e-06	-2.576588e-09	-3.675241e+01	-1.669000e+02
3.600000e-07	-5.166478e-06	-2.523343e-09	-3.665370e+01	-1.669865e+02
3.700000e-07	-5.152264e-06	-2.541641e-09	-3.655286e+01	-1.670622e+02
3.800000e-07	-5.137489e-06	-2.540111e-09	-3.644804e+01	-1.671262e+02
3.900000e-07	-5.122102e-06	-2.533720e-09	-3.633887e+01	-1.671779e+02
4.000000e-07	-5.106265e-06	-2.535667e-09	-3.622652e+01	-1.672169e+02
4.100000e-07	-5.089943e-06	-2.559044e-09	-3.611072e+01	-1.672425e+02
4.200000e-07	-5.073152e-06	-2.498868e-09	-3.599160e+01	-1.672545e+02
4.300000e-07	-5.055977e-06	-2.500001e-09	-3.586975e+01	-1.672526e+02
4.400000e-07	-5.038479e-06	-2.549457e-09	-3.574561e+01	-1.672367e+02
4.500000e-07	-5.020745e-06	-2.551559e-09	-3.561979e+01	-1.672068e+02
4.600000e-07	-5.002647e-06	-2.490740e-09	-3.549140e+01	-1.671629e+02
4.700000e-07	-4.984202e-06	-2.503960e-09	-3.536054e+01	-1.671054e+02
4.800000e-07	-4.965447e-06	-2.534881e-09	-3.522748e+01	-1.670345e+02
4.900000e-07	-4.946292e-06	-2.533733e-09	-3.509158e+01	-1.669507e+02
5.000000e-07	-4.926762e-06	-2.509035e-09	-3.495303e+01	-1.668545e+02
5.100000e-07	-4.907019e-06	-2.502820e-09	-3.481296e+01	-1.667464e+02
5.200000e-07	-4.887016e-06	-2.511926e-09	-3.467105e+01	-1.666272e+02
5.300000e-07	-4.866721e-06	-2.535502e-09	-3.452707e+01	-1.664976e+02
5.400000e-07	-4.846183e-06	-2.523769e-09	-3.438136e+01	-1.663585e+02
5.500000e-07	-4.825328e-06	-2.483077e-09	-3.423340e+01	-1.662106e+02
5.600000e-07	-4.804134e-06	-2.490630e-09	-3.408304e+01	-1.660549e+02
5.700000e-07	-4.782604e-06	-2.524589e-09	-3.393029e+01	-1.658923e+02
5.800000e-07	-4.760821e-06	-2.518820e-09	-3.377576e+01	-1.657237e+02
5.900000e-07	-4.738724e-06	-2.482661e-09	-3.361899e+01	-1.655502e+02
6.000000e-07	-4.716210e-06	-2.483846e-09	-3.345926e+01	-1.653725e+02
6.100000e-07	-4.693347e-06	-2.499328e-09	-3.329706e+01	-1.651917e+02
6.200000e-07	-4.670173e-06	-2.502553e-09	-3.313265e+01	-1.650087e+02
6.300000e-07	-4.646672e-06	-2.473688e-09	-3.296592e+01	-1.648242e+02
6.400000e-07	-4.622934e-06	-2.462089e-09	-3.279751e+01	-1.646390e+02
6.500000e-07	-4.598987e-06	-2.473509e-09	-3.262762e+01	-1.644539e+02
6.600000e-07	-4.574821e-06	-2.496968e-09	-3.245617e+01	-1.642696e+02
6.700000e-07	-4.550389e-06	-2.477758e-09	-3.228284e+01	-1.640866e+02
6.800000e-07	-4.525544e-06	-2.455328e-09	-3.210658e+01	-1.639054e+02
6.900000e-07	-4.500175e-06	-2.454318e-09	-3.192660e+01	-1.637264e+02
7.000000e-07	-4.474278e-06	-2.473455e-09	-3.174287e+01	-1.635500e+02
7.100000e-07	-4.447889e-06	-2.458851e-09	-3.155565e+01	-1.633763e+02
7.200000e-07	-4.421031e-06	-2.438902e-09	-3.136511e+01	-1.632054e+02
7.300000e-07	-4.393834e-06	-2.433833e-09	-3.117216e+01	-1.630375e+02
7.400000e-07	-4.366406e-06	-2.456507e-09	-3.097757e+01	-1.628723e+02
7.500000e-07	-4.338651e-06	-2.455136e-09	-3.078066e+01	-1.627097e+02
7.600000e-07	-4.310642e-06	-2.434808e-09	-3.058195e+01	-1.625494e+02
7.700000e-07	-4.282502e-06	-2.418401e-09	-3.038231e+01	-1.623911e+02
7.800000e-07	-4.254117e-06	-2.427907e-09	-3.018093e+01	-1.622343e+02
7.900000e-07	-4.225449e-06	-2.432411e-09	-2.997754e+01	-1.620784e+02
8.000000e-07	-4.196510e-06	-2.421492e-09	-2.977224e+01	-1.619230e+02
8.100000e-07	-4.167219e-06	-2.407851e-09	-2.956443e+01	-1.617672e+02
8.200000e-07	-4.137629e-06	-2.415189e-09	-2.935450e+01	-1.616105e+02
8.300000e-07	-4.107800e-06	-2.427290e-09	-2.914288e+01	-1.614521e+02
8.400000e-07	-4.077684e-06	-2.418798e-09	-2.892922e+01	-1.612913e+02
8.500000e-07	-4.047237e-06	-2.396513e-09	-2.871322e+01	-1.611272e+02
8.600000e-07	-4.016513e-06	-2.386020e-09	-2.849525e+01	-1.609592e+02
8.700000e-07	-3.985585e-06	-2.392606e-09	-2.827583e+01	-1.607864e+02
8.800000e-07	-3.954376e-06	-2.391617e-09	-2.805442e+01	-1.606082e+02
8.900000e-07	-3.922870e-06	-2.380980e-09	-2.783089e+01	-1.604239e+02
9.000000e-07	-3.891150e-06	-2.374311e-09	-2.760585e+01	-1.602328e+02
9.100000e-07	-3.859271e-06	-2.384501e-09	-2.737969e+01	-1.600345e+02
9.200000e-07	-3.827305e-06	-2.387509e-09	-2.715290e+01	-1.598283e+02
9.300000e-07	-3.795162e-06	-2.379110e-09	-2.692487e+01	-1.596139e+02
9.400000e-07	-3.762649e-06	-2.365802e-09	-2.669420e+01	-1.593910e+02
9.500000e-07	-3.729826e-06	-2.369311e-09	-2.646134e+01	-1.591593e+02
9.600000e-07	-3.696727e-06	-2.370193e-09	-2.622652e+01	-1.589186e+02
9.700000e-07	-3.663267e-06	-2.362631e-09	-2.598913e+01	-1.586690e+02
9.800000e-07	-3.629341e-06	-2.351970e-09	-2.574845e+01	-1.584105e+02
9.900000e-07	-3.595047e-06	-2.354321e-09	-2.550515e+01	-1.581432e+02
1.000000e-06	-3.560331e-06	-2.356830e-09	-2.525885e+01	-1.578674e+02
1.010000e-06	-3.525243e-06	-2.357946e-09	-2.500992e+01	-1.575835e+02
1.020000e-06	-3.489963e-06	-2.350347e-09	-2.475963e+01	-1.572917e+02
1.030000e-06	-3.454317e-06	-2.343728e-09	-2.450673e+01	-1.569927e+02
1.040000e-06	-3.418472e-06	-2.336411e-09	-2.425243e+01	-1.566870e+02
1.050000e-06	-3.382458e-06	-2.329545e-09	-2.399693e+01	-1.563751e+02
1.060000e-06	-3.346213e-06	-2.316150e-09	-2.373979e+01	-1.560578e+02
1.070000e-06	-3.309885e-06	-2.307118e-09	-2.348205e+01	-1.557356e+02
1.080000e-06	-3.273504e-06	-2.303657e-09	-2.322395e+01	-1.554092e+02
1.090000e-06	-3.236878e-06	-2.302956e-09	-2.296411e+01	-1.550794e+02
1.100000e-06	-3.199906e-06	-2.298795e-09	-2.270181e+01	-1.547467e+02
1.110000e-06	-3.162662e-06	-2.294413e-09	-2.243758e+01	-1.544118e+02
1.120000e-06	-3.125135e-06	-2.291104e-09	-2.217134e+01	-1.540753e+02
1.130000e-06	-3.087483e-06	-2.289707e-09	-2.190422e+01	-1.537376e+02
1.140000e-06	-3.049669e-06	-2.283555e-09	-2.163595e+01	-1.533992e+02
1.150000e-06	-3.011542e-06	-2.271340e-09	-2.136546e+01	-1.530606e+02
1.160000e-06	-2.973197e-06	-2.260286e-09	-2.109342e+01	-1.527218e+02
1.170000e-06	-2.934722e-06	-2.251041e-09	-2.082046e+01	-1.523832e+02
1.180000e-06	-2.896102e-06	-2.244550e-09	-2.054646e+01	-1.520448e+02
1.190000e-06	-2.857234e-06	-2.239253e-09	-2.027071e+01	-1.517065e+02
1.200000e-06	-2.818129e-06	-2.239137e-09	-1.999329e+01	-1.513682e+02
1.210000e-06	-2.778813e-06	-2.239486e-09	-1.971436e+01	-1.510297e+02
1.220000e-06	-2.739329e-06	-2.236102e-09	-1.943423e+01	-1.506906e+02
1.230000e-06	-2.699703e-06	-2.225832e-09	-1.915311e+01	-1.503504e+02
1.240000e-06	-2.659945e-06	-2.214148e-09	-1.887105e+01	-1.500086e+02
1.250000e-06	-2.620066e-06	-2.201517e-09	-1.858812e+01	-1.496645e+02
1.260000e-06	-2.580013e-06	-2.194664e-09	-1.830396e+01	-1.493174e+02
1.270000e-06	-2.539862e-06	-2.188268e-09	-1.801911e+01	-1.489665e+02
1.280000e-06	-2.499596e-06	-2.187964e-09	-1.773344e+01	-1.486110e+02
1.290000e-06	-2.459137e-06	-2.187947e-09	-1.744641e+01	-1.482501e+02
1.300000e-06	-2.418536e-06	-2.186366e-09	-1.715836e+01	-1.478827e+02
1.310000e-06	-2.377772e-06	-2.181957e-09	-1.686916e+01	-1.475081e+02
1.320000e-06	-2.336795e-06	-2.174726e-09	-1.657845e+01	-1.471253e+02
1.330000e-06	-2.295585e-06	-2.161430e-09	-1.628608e+01	-1.467334e+02
1.340000e-06	-2.254274e-06	-2.147839e-09	-1.599300e+01	-1.463316e+02
1.350000e-06	-2.212782e-06	-2.137078e-09	-1.569863e+01	-1.459191e+02
1.360000e-06	-2.170954e-06	-2.129917e-09	-1.540188e+01	-1.454951e+02
1.370000e-06	-2.128770e-06	-2.125224e-09	-1.510261e+01	-1.450589e+02
1.380000e-06	-2.086213e-06	-2.123063e-09	-1.480069e+01	-1.446100e+02
1.390000e-06	-2.043444e-06	-2.117666e-09	-1.449726e+01	-1.441477e+02
1.400000e-06	-2.000553e-06	-2.112513e-09	-1.419297e+01	-1.436716e+02
1.410000e-06	-1.957534e-06	-2.107082e-09	-1.388777e+01	-1.431815e+02
1.420000e-06	-1.914418e-06	-2.097044e-09	-1.358188e+01	-1.426769e+02
1.430000e-06	-1.871032e-06	-2.083391e-09	-1.327408e+01	-1.421577e+02
1.440000e-06	-1.827363e-06	-2.070017e-09	-1.296427e+01	-1.416237e+02
1.450000e-06	-1.783637e-06	-2.059583e-09	-1.265405e+01	-1.410750e+02
1.460000e-06	-1.739832e-06	-2.047948e-09	-1.234328e+01	-1.405114e+02
1.470000e-06	-1.695991e-06	-2.037611e-09	-1.203225e+01	-1.399332e+02
1.480000e-06	-1.652065e-06	-2.029555e-09	-1.172062e+01	-1.393403e+02
1.490000e-06	-1.608003e-06	-2.027559e-09	-1.140802e+01	-1.387329e+02
1.500000e-06	-1.563871e-06	-2.025048e-09	-1.109492e+01	-1.381111e+02
1.510000e-06	-1.519699e-06	-2.015833e-09	-1.078154e+01	-1.374751e+02
1.520000e-06	-1.475493e-06	-1.998310e-09	-1.046792e+01	-1.368249e+02
1.530000e-06	-1.431159e-06	-1.978656e-09	-1.015339e+01	-1.361607e+02
1.540000e-06	-1.386689e-06	-1.963198e-09	-9.837898e+00	-1.354825e+02
1.550000e-06	-1.342179e-06	-1.951542e-09	-9.522118e+00	-1.347902e+02
1.560000e-06	-1.297610e-06	-1.943026e-09	-9.205928e+00	-1.340837e+02
1.570000e-06	-1.252998e-06	-1.940904e-09	-8.889423e+00	-1.333629e+02
1.580000e-06	-1.208332e-06	-1.938720e-09	-8.572542e+00	-1.326274e+02
1.590000e-06	-1.163519e-06	-1.931710e-09	-8.254610e+00	-1.318769e+02
1.600000e-06	-1.118675e-06	-1.918254e-09	-7.936467e+00	-1.311107e+02
1.610000e-06	-1.073741e-06	-1.902278e-09	-7.617681e+00	-1.303283e+02
1.620000e-06	-1.028679e-06	-1.884064e-09	-7.297990e+00	-1.295290e+02
1.630000e-06	-9.836426e-07	-1.864846e-09	-6.978475e+00	-1.287118e+02
1.640000e-06	-9.385369e-07	-1.848209e-09	-6.658472e+00	-1.278757e+02
1.650000e-06	-8.932688e-07	-1.838817e-09	-6.337317e+00	-1.270196e+02
1.660000e-06	-8.478588e-07	-1.834911e-09	-6.015154e+00	-1.261422e+02
1.670000e-06	-8.023698e-07	-1.829654e-09	-5.692431e+00	-1.252422e+02
1.680000e-06	-7.569541e-07	-1.818612e-09	-5.370229e+00	-1.243182e+02
1.690000e-06	-7.115609e-07	-1.802767e-09	-5.048185e+00	-1.233685e+02
1.700000e-06	-6.660291e-07	-1.784334e-09	-4.725159e+00	-1.223916e+02
1.710000e-06	-6.203525e-07	-1.764540e-09	-4.401105e+00	-1.213857e+02
1.720000e-06	-5.746107e-07	-1.743947e-09	-4.076589e+00	-1.203490e+02
1.730000e-06	-5.288839e-07	-1.726224e-09	-3.752180e+00	-1.192798e+02
1.740000e-06	-4.831937e-07	-1.714719e-09	-3.428029e+00	-1.181762e+02
1.750000e-06	-4.374171e-07	-1.705089e-09	-3.103266e+00	-1.170363e+02
1.760000e-06	-3.915753e-07	-1.692774e-09	-2.778040e+00	-1.158583e+02
1.770000e-06	-3.457671e-07	-1.675930e-09	-2.453053e+00	-1.146401e+02
1.780000e-06	-2.999116e-07	-1.655983e-09	-2.127730e+00	-1.133799e+02
1.790000e-06	-2.540069e-07	-1.635831e-09	-1.802058e+00	-1.120758e+02
1.800000e-06	-2.081298e-07	-1.613494e-09	-1.476582e+00	-1.107259e+02
1.810000e-06	-1.622446e-07	-1.590881e-09	-1.151048e+00	-1.093283e+02
1.820000e-06	-1.163282e-07	-1.572472e-09	-8.252933e-01	-1.078813e+02
1.830000e-06	-7.044678e-08	-1.556274e-09	-4.997863e-01	-1.063829e+02
1.840000e-06	-2.459721e-08	-1.537976e-09	-1.745055e-01	-1.048315e+02
1.850000e-06	2.128239e-08	-1.512685e-09	1.509884e-01	-1.032252e+02
1.860000e-06	6.721758e-08	-1.484002e-09	4.768767e-01	-1.015624e+02
1.870000e-06	1.131939e-07	-1.454096e-09	8.030564e-01	-9.984139e+01
1.880000e-06	1.591146e-07	-1.426788e-09	1.128842e+00	-9.806045e+01
1.890000e-06	2.049255e-07	-1.398630e-09	1.453849e+00	-9.621798e+01
1.900000e-06	2.507774e-07	-1.370895e-09	1.779146e+00	-9.431240e+01
1.910000e-06	2.967310e-07	-1.344591e-09	2.105165e+00	-9.234213e+01
1.920000e-06	3.426280e-07	-1.317279e-09	2.430783e+00	-9.030564e+01
1.930000e-06	3.884582e-07	-1.289394e-09	2.755926e+00	-8.820144e+01
1.940000e-06	4.342548e-07	-1.259579e-09	3.080831e+00	-8.602806e+01
1.950000e-06	4.800336e-07	-1.226609e-09	3.405610e+00	-8.378411e+01
1.960000e-06	5.257887e-07	-1.188203e-09	3.730220e+00	-8.146824e+01
1.970000e-06	5.714750e-07	-1.147623e-09	4.054343e+00	-7.907915e+01
1.980000e-06	6.171078e-07	-1.107000e-09	4.378086e+00	-7.661566e+01
1.990000e-06	6.626873e-07	-1.068721e-09	4.701451e+00	-7.407664e+01
2.000000e-06	7.082048e-07	-1.033842e-09	5.024376e+00	-7.146112e+01
2.010000e-06	7.536732e-07	-1.002139e-09	5.346952e+00	-6.876822e+01
2.020000e-06	7.991404e-07	-9.687639e-10	5.669520e+00	-6.599724e+01
2.030000e-06	8.445546e-07	-9.301448e-10	5.991712e+00	-6.314765e+01
2.040000e-06	8.898993e-07	-8.856886e-10	6.313412e+00	-6.021913e+01
2.050000e-06	9.351568e-07	-8.333335e-10	6.634492e+00	-5.721157e+01
2.060000e-06	9.803156e-07	-7.771715e-10	6.954872e+00	-5.412513e+01
2.070000e-06	1.025365e-06	-7.281258e-10	7.274476e+00	-5.096024e+01
2.080000e-06	1.070304e-06	-6.859415e-10	7.593297e+00	-4.771766e+01
2.090000e-06	1.115131e-06	-6.469513e-10	7.911320e+00	-4.439844e+01
2.100000e-06	1.159898e-06	-6.048545e-10	8.228921e+00	-4.100403e+01
2.110000e-06	1.204613e-06	-5.559481e-10	8.546156e+00	-3.753622e+01
2.120000e-06	1.249154e-06	-5.016836e-10	8.862153e+00	-3.399721e+01
2.130000e-06	1.293655e-06	-4.406988e-10	9.177869e+00	-3.038962e+01
2.140000e-06	1.338167e-06	-3.731738e-10	9.493655e+00	-2.671647e+01
2.150000e-06	1.382519e-06	-3.075992e-10	9.808314e+00	-2.298123e+01
2.160000e-06	1.426761e-06	-2.510604e-10	1.012219e+01	-1.918779e+01
2.170000e-06	1.470990e-06	-1.995626e-10	1.043598e+01	-1.534047e+01
2.180000e-06	1.515180e-06	-1.463661e-10	1.074948e+01	-1.144401e+01
2.190000e-06	1.559283e-06	-8.885512e-11	1.106237e+01	-7.503552e+00
2.200000e-06	1.603318e-06	-2.912580e-11	1.137478e+01	-3.524645e+00
2.210000e-06	1.647311e-06	3.419216e-11	1.168688e+01	4.868157e-01
2.220000e-06	1.691279e-06	9.945182e-11	1.199882e+01	4.524596e+00
2.230000e-06	1.735206e-06	1.644387e-10	1.231046e+01	8.582166e+00
2.240000e-06	1.779047e-06	2.270085e-10	1.262149e+01	1.265274e+01
2.250000e-06	1.822803e-06	2.869297e-10	1.293192e+01	1.672931e+01
2.260000e-06	1.866525e-06	3.477089e-10	1.324210e+01	2.080473e+01
2.270000e-06	1.910137e-06	4.110541e-10	1.355151e+01	2.487173e+01
2.280000e-06	1.953533e-06	4.731981e-10	1.385939e+01	2.892298e+01
2.290000e-06	1.996751e-06	5.325912e-10	1.416600e+01	3.295117e+01
2.300000e-06	2.039725e-06	5.908299e-10	1.447088e+01	3.694905e+01
2.310000e-06	2.082476e-06	6.499759e-10	1.477417e+01	4.090950e+01
2.320000e-06	2.125029e-06	7.076369e-10	1.507607e+01	4.482557e+01
2.330000e-06	2.167285e-06	7.621384e-10	1.537585e+01	4.869057e+01
2.340000e-06	2.209176e-06	8.161105e-10	1.567305e+01	5.249810e+01
2.350000e-06	2.250636e-06	8.741720e-10	1.596719e+01	5.624210e+01
2.360000e-06	2.291792e-06	9.337497e-10	1.625917e+01	5.991693e+01
2.370000e-06	2.332789e-06	9.888518e-10	1.655003e+01	6.351739e+01
2.380000e-06	2.373585e-06	1.037400e-09	1.683945e+01	6.703877e+01
2.390000e-06	2.414110e-06	1.084172e-09	1.712696e+01	7.047685e+01
2.400000e-06	2.454455e-06	1.127615e-09	1.741319e+01	7.382799e+01
2.410000e-06	2.494679e-06	1.166308e-09	1.769856e+01	7.708911e+01
2.420000e-06	2.534806e-06	1.206314e-09	1.798324e+01	8.025769e+01
2.430000e-06	2.574858e-06	1.252736e-09	1.826739e+01	8.333181e+01
2.440000e-06	2.614849e-06	1.305952e-09	1.855111e+01	8.631013e+01
2.450000e-06	2.654787e-06	1.355791e-09	1.883445e+01	8.919191e+01
2.460000e-06	2.694578e-06	1.394974e-09	1.911675e+01	9.197692e+01
2.470000e-06	2.734208e-06	1.427963e-09	1.939790e+01	9.466552e+01
2.480000e-06	2.773741e-06	1.461308e-09	1.967837e+01	9.725855e+01
2.490000e-06	2.813054e-06	1.493007e-09	1.995728e+01	9.975734e+01
2.500000e-06	2.851963e-06	1.521799e-09	2.023332e+01	1.021637e+02
2.510000e-06	2.890605e-06	1.554758e-09	2.050747e+01	1.044796e+02
2.520000e-06	2.929132e-06	1.594491e-09	2.078079e+01	1.067078e+02
2.530000e-06	2.967497e-06	1.633066e-09	2.105298e+01	1.088510e+02
2.540000e-06	3.005691e-06	1.662964e-09	2.132395e+01	1.109122e+02
2.550000e-06	3.043718e-06	1.688049e-09	2.159373e+01	1.128946e+02
2.560000e-06	3.081534e-06	1.716508e-09	2.186202e+01	1.148017e+02
2.570000e-06	3.119155e-06	1.744492e-09	2.212892e+01	1.166369e+02
2.580000e-06	3.156574e-06	1.767188e-09	2.239439e+01	1.184037e+02
2.590000e-06	3.193718e-06	1.788145e-09	2.265791e+01	1.201056e+02
2.600000e-06	3.230574e-06	1.814080e-09	2.291938e+01	1.217459e+02
2.610000e-06	3.267200e-06	1.841655e-09	2.317922e+01	1.233282e+02
2.620000e-06	3.303613e-06	1.863191e-09	2.343756e+01	1.248554e+02
2.630000e-06	3.339881e-06	1.880349e-09	2.369487e+01	1.263307e+02
2.640000e-06	3.376024e-06	1.901830e-09	2.395128e+01	1.277568e+02
2.650000e-06	3.412014e-06	1.924658e-09	2.420662e+01	1.291364e+02
2.660000e-06	3.447861e-06	1.942439e-09	2.446093e+01	1.304719e+02
2.670000e-06	3.483555e-06	1.960514e-09	2.471416e+01	1.317653e+02
2.680000e-06	3.519000e-06	1.982313e-09	2.496563e+01	1.330185e+02
2.690000e-06	3.554201e-06	2.004651e-09	2.521536e+01	1.342333e+02
2.700000e-06	3.589095e-06	2.019685e-09	2.546292e+01	1.354108e+02
2.710000e-06	3.623481e-06	2.028822e-09	2.570687e+01	1.365524e+02
2.720000e-06	3.657411e-06	2.041676e-09	2.594759e+01	1.376590e+02
2.730000e-06	3.690916e-06	2.060006e-09	2.618529e+01	1.387313e+02
2.740000e-06	3.723851e-06	2.078834e-09	2.641895e+01	1.397698e+02
2.750000e-06	3.756345e-06	2.095407e-09	2.664948e+01	1.407750e+02
2.760000e-06	3.788707e-06	2.113790e-09	2.687907e+01	1.417472e+02
2.770000e-06	3.820939e-06	2.132659e-09	2.710774e+01	1.426865e+02
2.780000e-06	3.853049e-06	2.146891e-09	2.733555e+01	1.435932e+02
2.790000e-06	3.885019e-06	2.155388e-09	2.756236e+01	1.444672e+02
2.800000e-06	3.916801e-06	2.165044e-09	2.778784e+01	1.453088e+02
2.810000e-06	3.948402e-06	2.177662e-09	2.801203e+01	1.461179e+02
2.820000e-06	3.979680e-06	2.189388e-09	2.823394e+01	1.468947e+02
2.830000e-06	4.010572e-06	2.200086e-09	2.845310e+01	1.476395e+02
2.840000e-06	4.041111e-06	2.210081e-09	2.866976e+01	1.483524e+02
2.850000e-06	4.071394e-06	2.220261e-09	2.888460e+01	1.490339e+02
2.860000e-06	4.101470e-06	2.230228e-09	2.909798e+01	1.496844e+02
2.870000e-06	4.131309e-06	2.241057e-09	2.930967e+01	1.503046e+02
2.880000e-06	4.160911e-06	2.252147e-09	2.951968e+01	1.508951e+02
2.890000e-06	4.190214e-06	2.259961e-09	2.972757e+01	1.514568e+02
2.900000e-06	4.219160e-06	2.265875e-09	2.993293e+01	1.519907e+02
