# Temperatura_=_-7.0
# Concentracion g/m^3_=_4090.0
# C_Vs_to_Am_M_A/Vsm_=_65563218390.804596
# pendiente_HvsI_1/m_=_3716.3
# ordenada_HvsI_A/m_=_1297.0
# frecuencia_Hz_=_135060.69983828795

Tiempo_(s)	Campo_(V.s)	Magnetizacion_(V.s)	Campo_(kA/m)	Magnetizacion_(A/m)
0.000000e+00	-5.397743e-06	-2.068559e-09	-3.839900e+01	-1.323903e+02
1.000000e-08	-5.397897e-06	-2.070809e-09	-3.840010e+01	-1.323761e+02
2.000000e-08	-5.397795e-06	-2.065035e-09	-3.839937e+01	-1.323601e+02
3.000000e-08	-5.397616e-06	-2.057208e-09	-3.839810e+01	-1.323437e+02
4.000000e-08	-5.397171e-06	-2.050492e-09	-3.839493e+01	-1.323286e+02
5.000000e-08	-5.396244e-06	-2.044993e-09	-3.838834e+01	-1.323160e+02
6.000000e-08	-5.394797e-06	-2.054128e-09	-3.837804e+01	-1.323077e+02
7.000000e-08	-5.392760e-06	-2.077966e-09	-3.836355e+01	-1.323050e+02
8.000000e-08	-5.390057e-06	-2.069203e-09	-3.834432e+01	-1.323095e+02
9.000000e-08	-5.386719e-06	-2.004985e-09	-3.832058e+01	-1.323225e+02
1.000000e-07	-5.382882e-06	-2.007829e-09	-3.829328e+01	-1.323451e+02
1.100000e-07	-5.378711e-06	-2.105792e-09	-3.826361e+01	-1.323786e+02
1.200000e-07	-5.374339e-06	-2.113488e-09	-3.823251e+01	-1.324239e+02
1.300000e-07	-5.369761e-06	-1.981338e-09	-3.819994e+01	-1.324816e+02
1.400000e-07	-5.364881e-06	-1.946090e-09	-3.816522e+01	-1.325523e+02
1.500000e-07	-5.359595e-06	-2.099804e-09	-3.812762e+01	-1.326362e+02
1.600000e-07	-5.353876e-06	-2.143514e-09	-3.808694e+01	-1.327335e+02
1.700000e-07	-5.347751e-06	-1.977956e-09	-3.804336e+01	-1.328437e+02
1.800000e-07	-5.341197e-06	-1.921890e-09	-3.799674e+01	-1.329665e+02
1.900000e-07	-5.334182e-06	-2.068992e-09	-3.794684e+01	-1.331011e+02
2.000000e-07	-5.326887e-06	-2.112989e-09	-3.789494e+01	-1.332466e+02
2.100000e-07	-5.319478e-06	-1.997313e-09	-3.784223e+01	-1.334016e+02
2.200000e-07	-5.311828e-06	-2.003458e-09	-3.778781e+01	-1.335647e+02
2.300000e-07	-5.303890e-06	-2.116162e-09	-3.773134e+01	-1.337342e+02
2.400000e-07	-5.295654e-06	-2.090828e-09	-3.767275e+01	-1.339083e+02
2.500000e-07	-5.286861e-06	-2.013247e-09	-3.761020e+01	-1.340850e+02
2.600000e-07	-5.277452e-06	-2.079076e-09	-3.754326e+01	-1.342622e+02
2.700000e-07	-5.267454e-06	-2.137868e-09	-3.747214e+01	-1.344378e+02
2.800000e-07	-5.256911e-06	-2.060167e-09	-3.739714e+01	-1.346093e+02
2.900000e-07	-5.245954e-06	-2.039794e-09	-3.731919e+01	-1.347747e+02
3.000000e-07	-5.234521e-06	-2.133476e-09	-3.723786e+01	-1.349316e+02
3.100000e-07	-5.222626e-06	-2.114896e-09	-3.715324e+01	-1.350778e+02
3.200000e-07	-5.210313e-06	-2.017895e-09	-3.706564e+01	-1.352114e+02
3.300000e-07	-5.197655e-06	-2.061272e-09	-3.697560e+01	-1.353303e+02
3.400000e-07	-5.184706e-06	-2.142674e-09	-3.688348e+01	-1.354327e+02
3.500000e-07	-5.171388e-06	-2.097358e-09	-3.678873e+01	-1.355169e+02
3.600000e-07	-5.157564e-06	-2.057908e-09	-3.669039e+01	-1.355817e+02
3.700000e-07	-5.143232e-06	-2.102109e-09	-3.658843e+01	-1.356258e+02
3.800000e-07	-5.128526e-06	-2.103802e-09	-3.648382e+01	-1.356482e+02
3.900000e-07	-5.113244e-06	-2.066365e-09	-3.637510e+01	-1.356483e+02
4.000000e-07	-5.097284e-06	-2.076128e-09	-3.626157e+01	-1.356256e+02
4.100000e-07	-5.080818e-06	-2.066463e-09	-3.614443e+01	-1.355799e+02
4.200000e-07	-5.063952e-06	-2.035839e-09	-3.602445e+01	-1.355114e+02
4.300000e-07	-5.046872e-06	-2.068475e-09	-3.590294e+01	-1.354203e+02
4.400000e-07	-5.029551e-06	-2.097654e-09	-3.577972e+01	-1.353072e+02
4.500000e-07	-5.012004e-06	-2.050804e-09	-3.565489e+01	-1.351729e+02
4.600000e-07	-4.994129e-06	-2.029339e-09	-3.552773e+01	-1.350183e+02
4.700000e-07	-4.975835e-06	-2.067524e-09	-3.539759e+01	-1.348447e+02
4.800000e-07	-4.957188e-06	-2.063096e-09	-3.526494e+01	-1.346533e+02
4.900000e-07	-4.938184e-06	-2.024204e-09	-3.512975e+01	-1.344455e+02
5.000000e-07	-4.918802e-06	-2.021292e-09	-3.499186e+01	-1.342228e+02
5.100000e-07	-4.899088e-06	-2.039470e-09	-3.485162e+01	-1.339868e+02
5.200000e-07	-4.879218e-06	-2.043913e-09	-3.471027e+01	-1.337391e+02
5.300000e-07	-4.859113e-06	-2.042503e-09	-3.456724e+01	-1.334814e+02
5.400000e-07	-4.838736e-06	-2.026147e-09	-3.442228e+01	-1.332151e+02
5.500000e-07	-4.818081e-06	-2.015508e-09	-3.427534e+01	-1.329418e+02
5.600000e-07	-4.797044e-06	-2.027683e-09	-3.412569e+01	-1.326630e+02
5.700000e-07	-4.775600e-06	-2.027485e-09	-3.397314e+01	-1.323799e+02
5.800000e-07	-4.753835e-06	-1.997315e-09	-3.381830e+01	-1.320939e+02
5.900000e-07	-4.731823e-06	-1.987650e-09	-3.366172e+01	-1.318060e+02
6.000000e-07	-4.709564e-06	-2.004394e-09	-3.350336e+01	-1.315171e+02
6.100000e-07	-4.686924e-06	-2.008336e-09	-3.334231e+01	-1.312281e+02
6.200000e-07	-4.663856e-06	-1.989107e-09	-3.317820e+01	-1.309395e+02
6.300000e-07	-4.640505e-06	-1.971677e-09	-3.301208e+01	-1.306519e+02
6.400000e-07	-4.616888e-06	-1.970044e-09	-3.284407e+01	-1.303654e+02
6.500000e-07	-4.593059e-06	-1.978566e-09	-3.267456e+01	-1.300803e+02
6.600000e-07	-4.569027e-06	-1.972392e-09	-3.250360e+01	-1.297965e+02
6.700000e-07	-4.544724e-06	-1.952163e-09	-3.233071e+01	-1.295138e+02
6.800000e-07	-4.520142e-06	-1.946814e-09	-3.215584e+01	-1.292320e+02
6.900000e-07	-4.495265e-06	-1.956620e-09	-3.197887e+01	-1.289507e+02
7.000000e-07	-4.469821e-06	-1.952407e-09	-3.179786e+01	-1.286694e+02
7.100000e-07	-4.443676e-06	-1.931985e-09	-3.161186e+01	-1.283876e+02
7.200000e-07	-4.417097e-06	-1.920275e-09	-3.142278e+01	-1.281045e+02
7.300000e-07	-4.390130e-06	-1.925551e-09	-3.123095e+01	-1.278195e+02
7.400000e-07	-4.362803e-06	-1.931276e-09	-3.103654e+01	-1.275319e+02
7.500000e-07	-4.335202e-06	-1.920282e-09	-3.084019e+01	-1.272410e+02
7.600000e-07	-4.307307e-06	-1.903883e-09	-3.064175e+01	-1.269461e+02
7.700000e-07	-4.279223e-06	-1.900254e-09	-3.044196e+01	-1.266466e+02
7.800000e-07	-4.251010e-06	-1.903382e-09	-3.024126e+01	-1.263417e+02
7.900000e-07	-4.222544e-06	-1.891982e-09	-3.003875e+01	-1.260309e+02
8.000000e-07	-4.193794e-06	-1.876143e-09	-2.983423e+01	-1.257137e+02
8.100000e-07	-4.164704e-06	-1.874607e-09	-2.962728e+01	-1.253896e+02
8.200000e-07	-4.135250e-06	-1.883544e-09	-2.941775e+01	-1.250581e+02
8.300000e-07	-4.105516e-06	-1.882815e-09	-2.920623e+01	-1.247190e+02
8.400000e-07	-4.075512e-06	-1.870020e-09	-2.899278e+01	-1.243721e+02
8.500000e-07	-4.045252e-06	-1.859894e-09	-2.877752e+01	-1.240171e+02
8.600000e-07	-4.014709e-06	-1.860167e-09	-2.856024e+01	-1.236539e+02
8.700000e-07	-3.983897e-06	-1.854979e-09	-2.834105e+01	-1.232825e+02
8.800000e-07	-3.952866e-06	-1.836572e-09	-2.812029e+01	-1.229029e+02
8.900000e-07	-3.921526e-06	-1.820260e-09	-2.789735e+01	-1.225153e+02
9.000000e-07	-3.889916e-06	-1.821562e-09	-2.767247e+01	-1.221196e+02
9.100000e-07	-3.858162e-06	-1.826669e-09	-2.744657e+01	-1.217162e+02
9.200000e-07	-3.826236e-06	-1.820794e-09	-2.721946e+01	-1.213052e+02
9.300000e-07	-3.794135e-06	-1.811763e-09	-2.699110e+01	-1.208867e+02
9.400000e-07	-3.761883e-06	-1.812101e-09	-2.676165e+01	-1.204612e+02
9.500000e-07	-3.729411e-06	-1.813511e-09	-2.653066e+01	-1.200287e+02
9.600000e-07	-3.696655e-06	-1.801358e-09	-2.629764e+01	-1.195896e+02
9.700000e-07	-3.663409e-06	-1.781124e-09	-2.606112e+01	-1.191441e+02
9.800000e-07	-3.629712e-06	-1.769960e-09	-2.582141e+01	-1.186923e+02
9.900000e-07	-3.595706e-06	-1.769527e-09	-2.557949e+01	-1.182346e+02
1.000000e-06	-3.561261e-06	-1.767944e-09	-2.533446e+01	-1.177712e+02
1.010000e-06	-3.526431e-06	-1.763274e-09	-2.508668e+01	-1.173021e+02
1.020000e-06	-3.491207e-06	-1.759433e-09	-2.483609e+01	-1.168276e+02
1.030000e-06	-3.455663e-06	-1.756187e-09	-2.458324e+01	-1.163478e+02
1.040000e-06	-3.419948e-06	-1.746125e-09	-2.432917e+01	-1.158627e+02
1.050000e-06	-3.384055e-06	-1.727790e-09	-2.407383e+01	-1.153725e+02
1.060000e-06	-3.348046e-06	-1.710726e-09	-2.381766e+01	-1.148773e+02
1.070000e-06	-3.311853e-06	-1.704287e-09	-2.356019e+01	-1.143771e+02
1.080000e-06	-3.275449e-06	-1.702348e-09	-2.330121e+01	-1.138718e+02
1.090000e-06	-3.238881e-06	-1.694905e-09	-2.304107e+01	-1.133617e+02
1.100000e-06	-3.202075e-06	-1.686497e-09	-2.277924e+01	-1.128466e+02
1.110000e-06	-3.165024e-06	-1.683010e-09	-2.251566e+01	-1.123266e+02
1.120000e-06	-3.127698e-06	-1.678312e-09	-2.225013e+01	-1.118018e+02
1.130000e-06	-3.090141e-06	-1.667263e-09	-2.198295e+01	-1.112720e+02
1.140000e-06	-3.052430e-06	-1.652148e-09	-2.171468e+01	-1.107373e+02
1.150000e-06	-3.014533e-06	-1.640667e-09	-2.144508e+01	-1.101977e+02
1.160000e-06	-2.976484e-06	-1.634548e-09	-2.117441e+01	-1.096532e+02
1.170000e-06	-2.938300e-06	-1.628625e-09	-2.090277e+01	-1.091039e+02
1.180000e-06	-2.899848e-06	-1.619303e-09	-2.062923e+01	-1.085496e+02
1.190000e-06	-2.861133e-06	-1.610304e-09	-2.035382e+01	-1.079904e+02
1.200000e-06	-2.822196e-06	-1.605177e-09	-2.007682e+01	-1.074262e+02
1.210000e-06	-2.782999e-06	-1.597462e-09	-1.979797e+01	-1.068571e+02
1.220000e-06	-2.743597e-06	-1.582791e-09	-1.951767e+01	-1.062829e+02
1.230000e-06	-2.704000e-06	-1.568633e-09	-1.923599e+01	-1.057035e+02
1.240000e-06	-2.664275e-06	-1.558282e-09	-1.895339e+01	-1.051190e+02
1.250000e-06	-2.624464e-06	-1.548632e-09	-1.867017e+01	-1.045290e+02
1.260000e-06	-2.584573e-06	-1.537895e-09	-1.838640e+01	-1.039335e+02
1.270000e-06	-2.544629e-06	-1.527256e-09	-1.810224e+01	-1.033323e+02
1.280000e-06	-2.504569e-06	-1.518531e-09	-1.781725e+01	-1.027251e+02
1.290000e-06	-2.464413e-06	-1.510655e-09	-1.753159e+01	-1.021116e+02
1.300000e-06	-2.424182e-06	-1.499551e-09	-1.724539e+01	-1.014915e+02
1.310000e-06	-2.383814e-06	-1.486969e-09	-1.695821e+01	-1.008645e+02
1.320000e-06	-2.343220e-06	-1.476594e-09	-1.666943e+01	-1.002302e+02
1.330000e-06	-2.302402e-06	-1.466706e-09	-1.637906e+01	-9.958805e+01
1.340000e-06	-2.261304e-06	-1.453669e-09	-1.608669e+01	-9.893771e+01
1.350000e-06	-2.219848e-06	-1.439795e-09	-1.579178e+01	-9.827866e+01
1.360000e-06	-2.178123e-06	-1.426680e-09	-1.549495e+01	-9.761038e+01
1.370000e-06	-2.136067e-06	-1.414540e-09	-1.519576e+01	-9.693237e+01
1.380000e-06	-2.093688e-06	-1.403603e-09	-1.489429e+01	-9.624410e+01
1.390000e-06	-2.051148e-06	-1.392697e-09	-1.459166e+01	-9.554505e+01
1.400000e-06	-2.008463e-06	-1.382124e-09	-1.428800e+01	-9.483470e+01
1.410000e-06	-1.965505e-06	-1.372177e-09	-1.398241e+01	-9.411255e+01
1.420000e-06	-1.922326e-06	-1.359890e-09	-1.367523e+01	-9.337816e+01
1.430000e-06	-1.879075e-06	-1.344518e-09	-1.336755e+01	-9.263107e+01
1.440000e-06	-1.835654e-06	-1.330533e-09	-1.305866e+01	-9.187090e+01
1.450000e-06	-1.792036e-06	-1.317856e-09	-1.274836e+01	-9.109732e+01
1.460000e-06	-1.748290e-06	-1.304362e-09	-1.243716e+01	-9.031003e+01
1.470000e-06	-1.704443e-06	-1.289066e-09	-1.212524e+01	-8.950881e+01
1.480000e-06	-1.660561e-06	-1.274083e-09	-1.181306e+01	-8.869349e+01
1.490000e-06	-1.616640e-06	-1.260614e-09	-1.150061e+01	-8.786397e+01
1.500000e-06	-1.572649e-06	-1.247161e-09	-1.118767e+01	-8.702021e+01
1.510000e-06	-1.528649e-06	-1.233244e-09	-1.087466e+01	-8.616222e+01
1.520000e-06	-1.484625e-06	-1.219914e-09	-1.056147e+01	-8.529009e+01
1.530000e-06	-1.440487e-06	-1.206750e-09	-1.024748e+01	-8.440394e+01
1.540000e-06	-1.396226e-06	-1.194433e-09	-9.932614e+00	-8.350395e+01
1.550000e-06	-1.351902e-06	-1.182265e-09	-9.617295e+00	-8.259034e+01
1.560000e-06	-1.307544e-06	-1.168477e-09	-9.301736e+00	-8.166335e+01
1.570000e-06	-1.263034e-06	-1.153300e-09	-8.985098e+00	-8.072323e+01
1.580000e-06	-1.218446e-06	-1.138726e-09	-8.667905e+00	-7.977026e+01
1.590000e-06	-1.173903e-06	-1.126558e-09	-8.351027e+00	-7.880470e+01
1.600000e-06	-1.129219e-06	-1.116311e-09	-8.033149e+00	-7.782678e+01
1.610000e-06	-1.084400e-06	-1.104841e-09	-7.714313e+00	-7.683675e+01
1.620000e-06	-1.039505e-06	-1.090810e-09	-7.394935e+00	-7.583476e+01
1.630000e-06	-9.945184e-07	-1.076428e-09	-7.074904e+00	-7.482095e+01
1.640000e-06	-9.494422e-07	-1.062227e-09	-6.754237e+00	-7.379539e+01
1.650000e-06	-9.042117e-07	-1.045951e-09	-6.432471e+00	-7.275808e+01
1.660000e-06	-8.589239e-07	-1.028502e-09	-6.110298e+00	-7.170895e+01
1.670000e-06	-8.136899e-07	-1.011959e-09	-5.788508e+00	-7.064783e+01
1.680000e-06	-7.684084e-07	-9.967379e-10	-5.466380e+00	-6.957449e+01
1.690000e-06	-7.229866e-07	-9.808853e-10	-5.143254e+00	-6.848861e+01
1.700000e-06	-6.774116e-07	-9.629403e-10	-4.819038e+00	-6.738977e+01
1.710000e-06	-6.317691e-07	-9.464739e-10	-4.494342e+00	-6.627749e+01
1.720000e-06	-5.861818e-07	-9.305248e-10	-4.170039e+00	-6.515119e+01
1.730000e-06	-5.405449e-07	-9.140992e-10	-3.845382e+00	-6.401025e+01
1.740000e-06	-4.948389e-07	-8.969581e-10	-3.520234e+00	-6.285397e+01
1.750000e-06	-4.491460e-07	-8.784049e-10	-3.195179e+00	-6.168160e+01
1.760000e-06	-4.034361e-07	-8.599112e-10	-2.870004e+00	-6.049235e+01
1.770000e-06	-3.577074e-07	-8.430033e-10	-2.544695e+00	-5.928544e+01
1.780000e-06	-3.119462e-07	-8.268005e-10	-2.219154e+00	-5.806003e+01
1.790000e-06	-2.661233e-07	-8.110873e-10	-1.893175e+00	-5.681533e+01
1.800000e-06	-2.203114e-07	-7.943301e-10	-1.567273e+00	-5.555054e+01
1.810000e-06	-1.745342e-07	-7.737448e-10	-1.241619e+00	-5.426491e+01
1.820000e-06	-1.287918e-07	-7.525948e-10	-9.162122e-01	-5.295774e+01
1.830000e-06	-8.304020e-08	-7.315676e-10	-5.907396e-01	-5.162839e+01
1.840000e-06	-3.722606e-08	-7.111475e-10	-2.648225e-01	-5.027629e+01
1.850000e-06	8.586623e-09	-6.924273e-10	6.108437e-02	-4.890098e+01
1.860000e-06	5.441432e-08	-6.722147e-10	3.870980e-01	-4.750207e+01
1.870000e-06	1.002457e-07	-6.503542e-10	7.131376e-01	-4.607928e+01
1.880000e-06	1.460097e-07	-6.278172e-10	1.038698e+00	-4.463245e+01
1.890000e-06	1.917129e-07	-6.041969e-10	1.363827e+00	-4.316151e+01
1.900000e-06	2.374740e-07	-5.809589e-10	1.689366e+00	-4.166652e+01
1.910000e-06	2.833012e-07	-5.583588e-10	2.015376e+00	-4.014763e+01
1.920000e-06	3.290859e-07	-5.338876e-10	2.341084e+00	-3.860511e+01
1.930000e-06	3.747939e-07	-5.077308e-10	2.666246e+00	-3.703931e+01
1.940000e-06	4.204707e-07	-4.835630e-10	2.991187e+00	-3.545068e+01
1.950000e-06	4.661908e-07	-4.639885e-10	3.316435e+00	-3.383974e+01
1.960000e-06	5.118665e-07	-4.450575e-10	3.641367e+00	-3.220708e+01
1.970000e-06	5.574542e-07	-4.226567e-10	3.965674e+00	-3.055335e+01
1.980000e-06	6.029344e-07	-3.973290e-10	4.289215e+00	-2.887921e+01
1.990000e-06	6.483158e-07	-3.707572e-10	4.612053e+00	-2.718538e+01
2.000000e-06	6.937035e-07	-3.430648e-10	4.934937e+00	-2.547257e+01
2.010000e-06	7.390609e-07	-3.147345e-10	5.257605e+00	-2.374148e+01
2.020000e-06	7.843638e-07	-2.883925e-10	5.579886e+00	-2.199281e+01
2.030000e-06	8.296144e-07	-2.631743e-10	5.901794e+00	-2.022723e+01
2.040000e-06	8.748031e-07	-2.394818e-10	6.223261e+00	-1.844536e+01
2.050000e-06	9.199363e-07	-2.162891e-10	6.544335e+00	-1.664780e+01
2.060000e-06	9.649613e-07	-1.906887e-10	6.864638e+00	-1.483508e+01
2.070000e-06	1.009819e-06	-1.624443e-10	7.183752e+00	-1.300767e+01
2.080000e-06	1.054592e-06	-1.315423e-10	7.502265e+00	-1.116600e+01
2.090000e-06	1.099310e-06	-1.030774e-10	7.820381e+00	-9.310443e+00
2.100000e-06	1.143962e-06	-7.948421e-11	8.138028e+00	-7.441327e+00
2.110000e-06	1.188581e-06	-5.798366e-11	8.455448e+00	-5.558935e+00
2.120000e-06	1.233099e-06	-3.327994e-11	8.772140e+00	-3.663521e+00
2.130000e-06	1.277502e-06	-4.555202e-12	9.088021e+00	-1.755320e+00
2.140000e-06	1.321837e-06	2.740523e-11	9.403417e+00	1.654378e-01
2.150000e-06	1.366115e-06	6.362413e-11	9.718402e+00	2.098512e+00
2.160000e-06	1.410284e-06	1.008944e-10	1.003262e+01	4.043635e+00
2.170000e-06	1.454383e-06	1.332993e-10	1.034634e+01	6.000493e+00
2.180000e-06	1.498483e-06	1.583514e-10	1.066006e+01	7.968712e+00
2.190000e-06	1.542559e-06	1.797502e-10	1.097361e+01	9.947836e+00
2.200000e-06	1.586568e-06	2.019952e-10	1.128669e+01	1.193731e+01
2.210000e-06	1.630501e-06	2.274892e-10	1.159922e+01	1.393648e+01
2.220000e-06	1.674368e-06	2.576310e-10	1.191128e+01	1.594454e+01
2.230000e-06	1.718221e-06	2.926354e-10	1.222325e+01	1.796057e+01
2.240000e-06	1.762032e-06	3.294690e-10	1.253492e+01	1.998348e+01
2.250000e-06	1.805718e-06	3.633490e-10	1.284569e+01	2.201205e+01
2.260000e-06	1.849269e-06	3.929617e-10	1.315552e+01	2.404489e+01
2.270000e-06	1.892707e-06	4.169997e-10	1.346453e+01	2.608044e+01
2.280000e-06	1.936025e-06	4.374867e-10	1.377268e+01	2.811702e+01
2.290000e-06	1.979162e-06	4.605498e-10	1.407956e+01	3.015277e+01
2.300000e-06	2.022106e-06	4.885737e-10	1.438506e+01	3.218571e+01
2.310000e-06	2.064813e-06	5.207362e-10	1.468887e+01	3.421376e+01
2.320000e-06	2.107256e-06	5.540664e-10	1.499081e+01	3.623470e+01
2.330000e-06	2.149333e-06	5.880044e-10	1.529014e+01	3.824626e+01
2.340000e-06	2.191001e-06	6.195761e-10	1.558656e+01	4.024611e+01
2.350000e-06	2.232420e-06	6.447890e-10	1.588121e+01	4.223187e+01
2.360000e-06	2.273527e-06	6.667920e-10	1.617364e+01	4.420120e+01
2.370000e-06	2.314403e-06	6.910882e-10	1.646443e+01	4.615173e+01
2.380000e-06	2.355136e-06	7.176023e-10	1.675420e+01	4.808121e+01
2.390000e-06	2.395683e-06	7.455699e-10	1.704265e+01	4.998742e+01
2.400000e-06	2.436105e-06	7.734281e-10	1.733021e+01	5.186830e+01
2.410000e-06	2.476337e-06	8.023323e-10	1.761641e+01	5.372191e+01
2.420000e-06	2.516411e-06	8.319480e-10	1.790149e+01	5.554648e+01
2.430000e-06	2.556417e-06	8.585189e-10	1.818609e+01	5.734045e+01
2.440000e-06	2.596378e-06	8.826162e-10	1.847038e+01	5.910245e+01
2.450000e-06	2.636235e-06	9.072610e-10	1.875391e+01	6.083137e+01
2.460000e-06	2.675954e-06	9.311648e-10	1.903647e+01	6.252631e+01
2.470000e-06	2.715558e-06	9.554630e-10	1.931821e+01	6.418666e+01
2.480000e-06	2.754924e-06	9.787497e-10	1.959825e+01	6.581202e+01
2.490000e-06	2.794028e-06	1.000004e-09	1.987643e+01	6.740230e+01
2.500000e-06	2.833049e-06	1.021863e-09	2.015403e+01	6.895762e+01
2.510000e-06	2.871890e-06	1.044087e-09	2.043034e+01	7.047836e+01
2.520000e-06	2.910380e-06	1.065665e-09	2.070415e+01	7.196512e+01
2.530000e-06	2.948567e-06	1.085909e-09	2.097581e+01	7.341872e+01
2.540000e-06	2.986623e-06	1.105459e-09	2.124654e+01	7.484016e+01
2.550000e-06	3.024576e-06	1.125477e-09	2.151653e+01	7.623061e+01
2.560000e-06	3.062333e-06	1.146737e-09	2.178513e+01	7.759137e+01
2.570000e-06	3.099905e-06	1.168196e-09	2.205241e+01	7.892385e+01
2.580000e-06	3.137298e-06	1.189018e-09	2.231843e+01	8.022953e+01
2.590000e-06	3.174457e-06	1.208750e-09	2.258277e+01	8.150992e+01
2.600000e-06	3.211302e-06	1.227905e-09	2.284488e+01	8.276655e+01
2.610000e-06	3.247856e-06	1.245949e-09	2.310492e+01	8.400094e+01
2.620000e-06	3.284176e-06	1.262633e-09	2.336330e+01	8.521452e+01
2.630000e-06	3.320324e-06	1.280621e-09	2.362045e+01	8.640866e+01
2.640000e-06	3.356337e-06	1.301005e-09	2.387664e+01	8.758461e+01
2.650000e-06	3.392267e-06	1.320261e-09	2.413224e+01	8.874348e+01
2.660000e-06	3.428141e-06	1.336129e-09	2.438745e+01	8.988624e+01
2.670000e-06	3.463859e-06	1.351770e-09	2.464155e+01	9.101367e+01
2.680000e-06	3.499279e-06	1.370144e-09	2.489352e+01	9.212638e+01
2.690000e-06	3.534397e-06	1.386581e-09	2.514335e+01	9.322477e+01
2.700000e-06	3.569176e-06	1.399967e-09	2.539076e+01	9.430907e+01
2.710000e-06	3.603565e-06	1.413436e-09	2.563540e+01	9.537930e+01
2.720000e-06	3.637498e-06	1.428700e-09	2.587680e+01	9.643530e+01
2.730000e-06	3.670975e-06	1.444380e-09	2.611495e+01	9.747674e+01
2.740000e-06	3.704030e-06	1.460033e-09	2.635010e+01	9.850312e+01
2.750000e-06	3.736622e-06	1.476414e-09	2.658196e+01	9.951380e+01
2.760000e-06	3.768957e-06	1.494594e-09	2.681198e+01	1.005080e+02
2.770000e-06	3.801153e-06	1.513060e-09	2.704102e+01	1.014850e+02
2.780000e-06	3.833179e-06	1.528425e-09	2.726885e+01	1.024437e+02
2.790000e-06	3.865083e-06	1.541223e-09	2.749581e+01	1.033832e+02
2.800000e-06	3.896875e-06	1.553133e-09	2.772197e+01	1.043026e+02
2.810000e-06	3.928460e-06	1.564252e-09	2.794667e+01	1.052009e+02
2.820000e-06	3.959796e-06	1.574568e-09	2.816959e+01	1.060772e+02
2.830000e-06	3.990835e-06	1.586068e-09	2.839040e+01	1.069306e+02
2.840000e-06	4.021488e-06	1.598490e-09	2.860846e+01	1.077605e+02
2.850000e-06	4.051784e-06	1.610141e-09	2.882398e+01	1.085661e+02
2.860000e-06	4.081814e-06	1.622656e-09	2.903762e+01	1.093471e+02
2.870000e-06	4.111624e-06	1.638046e-09	2.924968e+01	1.101031e+02
2.880000e-06	4.141226e-06	1.655014e-09	2.946027e+01	1.108339e+02
2.890000e-06	4.170643e-06	1.664388e-09	2.966953e+01	1.115396e+02
2.900000e-06	4.199713e-06	1.664887e-09	2.987634e+01	1.122204e+02
