# Temperatura_=_-2.8
# Concentracion g/m^3_=_4090.0
# C_Vs_to_Am_M_A/Vsm_=_65563218390.804596
# pendiente_HvsI_1/m_=_3716.3
# ordenada_HvsI_A/m_=_1297.0
# frecuencia_Hz_=_135080.56263532114

Tiempo_(s)	Campo_(V.s)	Magnetizacion_(V.s)	Campo_(kA/m)	Magnetizacion_(A/m)
0.000000e+00	-5.430487e-06	-2.486125e-09	-3.840019e+01	-1.591165e+02
1.000000e-08	-5.430714e-06	-2.484632e-09	-3.840179e+01	-1.590608e+02
2.000000e-08	-5.430695e-06	-2.482954e-09	-3.840166e+01	-1.590093e+02
3.000000e-08	-5.430333e-06	-2.481495e-09	-3.839910e+01	-1.589633e+02
4.000000e-08	-5.429700e-06	-2.480318e-09	-3.839462e+01	-1.589242e+02
5.000000e-08	-5.428675e-06	-2.479571e-09	-3.838737e+01	-1.588930e+02
6.000000e-08	-5.427083e-06	-2.480966e-09	-3.837612e+01	-1.588711e+02
7.000000e-08	-5.424922e-06	-2.497673e-09	-3.836084e+01	-1.588594e+02
8.000000e-08	-5.422178e-06	-2.499306e-09	-3.834143e+01	-1.588588e+02
9.000000e-08	-5.418740e-06	-2.457391e-09	-3.831712e+01	-1.588700e+02
1.000000e-07	-5.414761e-06	-2.419187e-09	-3.828898e+01	-1.588937e+02
1.100000e-07	-5.410520e-06	-2.497729e-09	-3.825899e+01	-1.589302e+02
1.200000e-07	-5.406079e-06	-2.531310e-09	-3.822759e+01	-1.589797e+02
1.300000e-07	-5.401456e-06	-2.479342e-09	-3.819490e+01	-1.590423e+02
1.400000e-07	-5.396503e-06	-2.388275e-09	-3.815988e+01	-1.591178e+02
1.500000e-07	-5.391170e-06	-2.463757e-09	-3.812217e+01	-1.592058e+02
1.600000e-07	-5.385426e-06	-2.531515e-09	-3.808155e+01	-1.593058e+02
1.700000e-07	-5.379254e-06	-2.463951e-09	-3.803791e+01	-1.594171e+02
1.800000e-07	-5.372673e-06	-2.367991e-09	-3.799137e+01	-1.595387e+02
1.900000e-07	-5.365695e-06	-2.436640e-09	-3.794203e+01	-1.596698e+02
2.000000e-07	-5.358446e-06	-2.513438e-09	-3.789077e+01	-1.598091e+02
2.100000e-07	-5.350960e-06	-2.454776e-09	-3.783783e+01	-1.599553e+02
2.200000e-07	-5.343149e-06	-2.411297e-09	-3.778260e+01	-1.601070e+02
2.300000e-07	-5.335096e-06	-2.468070e-09	-3.772565e+01	-1.602628e+02
2.400000e-07	-5.326756e-06	-2.491856e-09	-3.766668e+01	-1.604212e+02
2.500000e-07	-5.317990e-06	-2.416132e-09	-3.760469e+01	-1.605805e+02
2.600000e-07	-5.308570e-06	-2.443994e-09	-3.753809e+01	-1.607393e+02
2.700000e-07	-5.298479e-06	-2.506112e-09	-3.746673e+01	-1.608959e+02
2.800000e-07	-5.287888e-06	-2.485618e-09	-3.739183e+01	-1.610489e+02
2.900000e-07	-5.276825e-06	-2.436066e-09	-3.731361e+01	-1.611967e+02
3.000000e-07	-5.265345e-06	-2.500111e-09	-3.723243e+01	-1.613380e+02
3.100000e-07	-5.253375e-06	-2.513693e-09	-3.714778e+01	-1.614713e+02
3.200000e-07	-5.240985e-06	-2.463995e-09	-3.706018e+01	-1.615955e+02
3.300000e-07	-5.228185e-06	-2.436557e-09	-3.696966e+01	-1.617093e+02
3.400000e-07	-5.215014e-06	-2.500404e-09	-3.687653e+01	-1.618119e+02
3.500000e-07	-5.201472e-06	-2.490889e-09	-3.678077e+01	-1.619023e+02
3.600000e-07	-5.187548e-06	-2.481518e-09	-3.668231e+01	-1.619798e+02
3.700000e-07	-5.173181e-06	-2.483154e-09	-3.658072e+01	-1.620437e+02
3.800000e-07	-5.158375e-06	-2.494511e-09	-3.647602e+01	-1.620937e+02
3.900000e-07	-5.142993e-06	-2.467457e-09	-3.636725e+01	-1.621293e+02
4.000000e-07	-5.127038e-06	-2.479783e-09	-3.625443e+01	-1.621505e+02
4.100000e-07	-5.110624e-06	-2.474743e-09	-3.613836e+01	-1.621571e+02
4.200000e-07	-5.093735e-06	-2.447339e-09	-3.601894e+01	-1.621493e+02
4.300000e-07	-5.076571e-06	-2.453192e-09	-3.589757e+01	-1.621273e+02
4.400000e-07	-5.059009e-06	-2.488602e-09	-3.577338e+01	-1.620913e+02
4.500000e-07	-5.041154e-06	-2.473824e-09	-3.564713e+01	-1.620419e+02
4.600000e-07	-5.023168e-06	-2.437902e-09	-3.551994e+01	-1.619794e+02
4.700000e-07	-5.004812e-06	-2.447648e-09	-3.539015e+01	-1.619046e+02
4.800000e-07	-4.986076e-06	-2.461437e-09	-3.525765e+01	-1.618181e+02
4.900000e-07	-4.966976e-06	-2.451649e-09	-3.512260e+01	-1.617206e+02
5.000000e-07	-4.947474e-06	-2.430778e-09	-3.498469e+01	-1.616129e+02
5.100000e-07	-4.927629e-06	-2.439774e-09	-3.484436e+01	-1.614958e+02
5.200000e-07	-4.907586e-06	-2.449952e-09	-3.470264e+01	-1.613701e+02
5.300000e-07	-4.887367e-06	-2.458113e-09	-3.455967e+01	-1.612366e+02
5.400000e-07	-4.866866e-06	-2.437583e-09	-3.441469e+01	-1.610962e+02
5.500000e-07	-4.846016e-06	-2.426596e-09	-3.426726e+01	-1.609498e+02
5.600000e-07	-4.824787e-06	-2.424528e-09	-3.411715e+01	-1.607980e+02
5.700000e-07	-4.803242e-06	-2.438425e-09	-3.396479e+01	-1.606417e+02
5.800000e-07	-4.781383e-06	-2.429852e-09	-3.381023e+01	-1.604816e+02
5.900000e-07	-4.759172e-06	-2.421299e-09	-3.365317e+01	-1.603185e+02
6.000000e-07	-4.736673e-06	-2.415578e-09	-3.349407e+01	-1.601529e+02
6.100000e-07	-4.713908e-06	-2.429675e-09	-3.333310e+01	-1.599855e+02
6.200000e-07	-4.690772e-06	-2.419992e-09	-3.316949e+01	-1.598168e+02
6.300000e-07	-4.667254e-06	-2.401816e-09	-3.300320e+01	-1.596473e+02
6.400000e-07	-4.643444e-06	-2.391515e-09	-3.283483e+01	-1.594774e+02
6.500000e-07	-4.619436e-06	-2.405553e-09	-3.266506e+01	-1.593074e+02
6.600000e-07	-4.595245e-06	-2.403913e-09	-3.249400e+01	-1.591377e+02
6.700000e-07	-4.570864e-06	-2.392821e-09	-3.232160e+01	-1.589685e+02
6.800000e-07	-4.546045e-06	-2.381887e-09	-3.214610e+01	-1.587999e+02
6.900000e-07	-4.520580e-06	-2.388712e-09	-3.196603e+01	-1.586320e+02
7.000000e-07	-4.494709e-06	-2.390083e-09	-3.178309e+01	-1.584649e+02
7.100000e-07	-4.468471e-06	-2.382055e-09	-3.159755e+01	-1.582985e+02
7.200000e-07	-4.441730e-06	-2.369159e-09	-3.140846e+01	-1.581328e+02
7.300000e-07	-4.414541e-06	-2.371135e-09	-3.121620e+01	-1.579676e+02
7.400000e-07	-4.387021e-06	-2.378179e-09	-3.102160e+01	-1.578028e+02
7.500000e-07	-4.359251e-06	-2.370044e-09	-3.082523e+01	-1.576381e+02
7.600000e-07	-4.331267e-06	-2.354212e-09	-3.062735e+01	-1.574733e+02
7.700000e-07	-4.303072e-06	-2.349992e-09	-3.042799e+01	-1.573080e+02
7.800000e-07	-4.274602e-06	-2.359205e-09	-3.022666e+01	-1.571420e+02
7.900000e-07	-4.245886e-06	-2.362204e-09	-3.002361e+01	-1.569749e+02
8.000000e-07	-4.216845e-06	-2.355638e-09	-2.981825e+01	-1.568063e+02
8.100000e-07	-4.187493e-06	-2.346479e-09	-2.961070e+01	-1.566357e+02
8.200000e-07	-4.157946e-06	-2.347064e-09	-2.940176e+01	-1.564630e+02
8.300000e-07	-4.128088e-06	-2.342135e-09	-2.919063e+01	-1.562875e+02
8.400000e-07	-4.097867e-06	-2.332408e-09	-2.897693e+01	-1.561090e+02
8.500000e-07	-4.067416e-06	-2.319516e-09	-2.876161e+01	-1.559271e+02
8.600000e-07	-4.036737e-06	-2.322444e-09	-2.854467e+01	-1.557413e+02
8.700000e-07	-4.005770e-06	-2.326874e-09	-2.832569e+01	-1.555514e+02
8.800000e-07	-3.974590e-06	-2.326428e-09	-2.810521e+01	-1.553570e+02
8.900000e-07	-3.943097e-06	-2.315091e-09	-2.788252e+01	-1.551578e+02
9.000000e-07	-3.911298e-06	-2.312235e-09	-2.765766e+01	-1.549536e+02
9.100000e-07	-3.879346e-06	-2.309960e-09	-2.743172e+01	-1.547441e+02
9.200000e-07	-3.847241e-06	-2.307874e-09	-2.720470e+01	-1.545293e+02
9.300000e-07	-3.814917e-06	-2.299202e-09	-2.697613e+01	-1.543088e+02
9.400000e-07	-3.782317e-06	-2.297533e-09	-2.674561e+01	-1.540828e+02
9.500000e-07	-3.749422e-06	-2.298417e-09	-2.651300e+01	-1.538510e+02
9.600000e-07	-3.716205e-06	-2.299147e-09	-2.627811e+01	-1.536135e+02
9.700000e-07	-3.682671e-06	-2.290935e-09	-2.604099e+01	-1.533704e+02
9.800000e-07	-3.648647e-06	-2.285875e-09	-2.580040e+01	-1.531218e+02
9.900000e-07	-3.614069e-06	-2.284961e-09	-2.555589e+01	-1.528677e+02
1.000000e-06	-3.579153e-06	-2.284376e-09	-2.530899e+01	-1.526084e+02
1.010000e-06	-3.543997e-06	-2.279221e-09	-2.506039e+01	-1.523440e+02
1.020000e-06	-3.508546e-06	-2.273710e-09	-2.480971e+01	-1.520748e+02
1.030000e-06	-3.472847e-06	-2.271319e-09	-2.455728e+01	-1.518009e+02
1.040000e-06	-3.436996e-06	-2.267631e-09	-2.430377e+01	-1.515228e+02
1.050000e-06	-3.400988e-06	-2.259249e-09	-2.404915e+01	-1.512406e+02
1.060000e-06	-3.364873e-06	-2.250738e-09	-2.379377e+01	-1.509546e+02
1.070000e-06	-3.328637e-06	-2.248808e-09	-2.353753e+01	-1.506650e+02
1.080000e-06	-3.292190e-06	-2.248244e-09	-2.327981e+01	-1.503723e+02
1.090000e-06	-3.255485e-06	-2.243129e-09	-2.302026e+01	-1.500765e+02
1.100000e-06	-3.218524e-06	-2.233845e-09	-2.275890e+01	-1.497780e+02
1.110000e-06	-3.181291e-06	-2.226567e-09	-2.249562e+01	-1.494769e+02
1.120000e-06	-3.143799e-06	-2.219908e-09	-2.223051e+01	-1.491733e+02
1.130000e-06	-3.106021e-06	-2.214582e-09	-2.196337e+01	-1.488674e+02
1.140000e-06	-3.067965e-06	-2.209696e-09	-2.169427e+01	-1.485593e+02
1.150000e-06	-3.029702e-06	-2.209719e-09	-2.142370e+01	-1.482490e+02
1.160000e-06	-2.991275e-06	-2.207916e-09	-2.115197e+01	-1.479365e+02
1.170000e-06	-2.952747e-06	-2.203221e-09	-2.087954e+01	-1.476218e+02
1.180000e-06	-2.914020e-06	-2.192188e-09	-2.060569e+01	-1.473046e+02
1.190000e-06	-2.875062e-06	-2.182791e-09	-2.033021e+01	-1.469850e+02
1.200000e-06	-2.835932e-06	-2.175607e-09	-2.005351e+01	-1.466626e+02
1.210000e-06	-2.796598e-06	-2.170759e-09	-1.977537e+01	-1.463372e+02
1.220000e-06	-2.757039e-06	-2.163091e-09	-1.949564e+01	-1.460086e+02
1.230000e-06	-2.717244e-06	-2.158537e-09	-1.921424e+01	-1.456764e+02
1.240000e-06	-2.677362e-06	-2.154460e-09	-1.893222e+01	-1.453402e+02
1.250000e-06	-2.637395e-06	-2.149469e-09	-1.864961e+01	-1.449999e+02
1.260000e-06	-2.597289e-06	-2.141732e-09	-1.836601e+01	-1.446548e+02
1.270000e-06	-2.557111e-06	-2.133577e-09	-1.808190e+01	-1.443047e+02
1.280000e-06	-2.516775e-06	-2.125913e-09	-1.779668e+01	-1.439491e+02
1.290000e-06	-2.476330e-06	-2.118659e-09	-1.751068e+01	-1.435876e+02
1.300000e-06	-2.435811e-06	-2.110575e-09	-1.722416e+01	-1.432198e+02
1.310000e-06	-2.395110e-06	-2.104855e-09	-1.693636e+01	-1.428454e+02
1.320000e-06	-2.354195e-06	-2.103205e-09	-1.664704e+01	-1.424639e+02
1.330000e-06	-2.313014e-06	-2.098977e-09	-1.635584e+01	-1.420750e+02
1.340000e-06	-2.271603e-06	-2.088636e-09	-1.606301e+01	-1.416782e+02
1.350000e-06	-2.229912e-06	-2.077757e-09	-1.576820e+01	-1.412734e+02
1.360000e-06	-2.187850e-06	-2.069401e-09	-1.547077e+01	-1.408602e+02
1.370000e-06	-2.145479e-06	-2.063308e-09	-1.517116e+01	-1.404382e+02
1.380000e-06	-2.102814e-06	-2.057809e-09	-1.486947e+01	-1.400073e+02
1.390000e-06	-2.059943e-06	-2.050388e-09	-1.456632e+01	-1.395672e+02
1.400000e-06	-2.016940e-06	-2.044827e-09	-1.426224e+01	-1.391175e+02
1.410000e-06	-1.973820e-06	-2.041467e-09	-1.395732e+01	-1.386582e+02
1.420000e-06	-1.930505e-06	-2.036207e-09	-1.365103e+01	-1.381889e+02
1.430000e-06	-1.886925e-06	-2.025632e-09	-1.334286e+01	-1.377094e+02
1.440000e-06	-1.843221e-06	-2.015444e-09	-1.303383e+01	-1.372196e+02
1.450000e-06	-1.799470e-06	-2.006950e-09	-1.272446e+01	-1.367190e+02
1.460000e-06	-1.755625e-06	-1.998408e-09	-1.241441e+01	-1.362076e+02
1.470000e-06	-1.711636e-06	-1.987530e-09	-1.210336e+01	-1.356848e+02
1.480000e-06	-1.667569e-06	-1.977065e-09	-1.179175e+01	-1.351506e+02
1.490000e-06	-1.623449e-06	-1.968302e-09	-1.147977e+01	-1.346044e+02
1.500000e-06	-1.579274e-06	-1.961472e-09	-1.116740e+01	-1.340459e+02
1.510000e-06	-1.535052e-06	-1.954900e-09	-1.085470e+01	-1.334747e+02
1.520000e-06	-1.490708e-06	-1.949126e-09	-1.054113e+01	-1.328902e+02
1.530000e-06	-1.446263e-06	-1.939390e-09	-1.022685e+01	-1.322920e+02
1.540000e-06	-1.401780e-06	-1.927458e-09	-9.912303e+00	-1.316794e+02
1.550000e-06	-1.357164e-06	-1.915953e-09	-9.596807e+00	-1.310519e+02
1.560000e-06	-1.312475e-06	-1.903217e-09	-9.280801e+00	-1.304087e+02
1.570000e-06	-1.267715e-06	-1.890681e-09	-8.964294e+00	-1.297491e+02
1.580000e-06	-1.222808e-06	-1.882012e-09	-8.646751e+00	-1.290724e+02
1.590000e-06	-1.177832e-06	-1.876119e-09	-8.328710e+00	-1.283779e+02
1.600000e-06	-1.132869e-06	-1.873237e-09	-8.010772e+00	-1.276646e+02
1.610000e-06	-1.087827e-06	-1.867379e-09	-7.692266e+00	-1.269317e+02
1.620000e-06	-1.042631e-06	-1.856509e-09	-7.372676e+00	-1.261784e+02
1.630000e-06	-9.973391e-07	-1.842793e-09	-7.052407e+00	-1.254038e+02
1.640000e-06	-9.519864e-07	-1.827061e-09	-6.731709e+00	-1.246069e+02
1.650000e-06	-9.066055e-07	-1.810040e-09	-6.410810e+00	-1.237869e+02
1.660000e-06	-8.610800e-07	-1.794028e-09	-6.088889e+00	-1.229427e+02
1.670000e-06	-8.154426e-07	-1.783152e-09	-5.766177e+00	-1.220736e+02
1.680000e-06	-7.697773e-07	-1.776114e-09	-5.443267e+00	-1.211785e+02
1.690000e-06	-7.241019e-07	-1.768510e-09	-5.120286e+00	-1.202566e+02
1.700000e-06	-6.784322e-07	-1.755616e-09	-4.797345e+00	-1.193068e+02
1.710000e-06	-6.327765e-07	-1.739344e-09	-4.474504e+00	-1.183283e+02
1.720000e-06	-5.870873e-07	-1.721222e-09	-4.151425e+00	-1.173200e+02
1.730000e-06	-5.413507e-07	-1.701858e-09	-3.828011e+00	-1.162809e+02
1.740000e-06	-4.955669e-07	-1.682784e-09	-3.504264e+00	-1.152100e+02
1.750000e-06	-4.497206e-07	-1.665255e-09	-3.180075e+00	-1.141062e+02
1.760000e-06	-4.037790e-07	-1.649876e-09	-2.855212e+00	-1.129684e+02
1.770000e-06	-3.578000e-07	-1.637522e-09	-2.530084e+00	-1.117953e+02
1.780000e-06	-3.118222e-07	-1.623257e-09	-2.204964e+00	-1.105857e+02
1.790000e-06	-2.658342e-07	-1.606566e-09	-1.879773e+00	-1.093382e+02
1.800000e-06	-2.198566e-07	-1.588228e-09	-1.554655e+00	-1.080513e+02
1.810000e-06	-1.738460e-07	-1.566803e-09	-1.229304e+00	-1.067233e+02
1.820000e-06	-1.277590e-07	-1.543899e-09	-9.034125e-01	-1.053525e+02
1.830000e-06	-8.158054e-08	-1.520073e-09	-5.768742e-01	-1.039369e+02
1.840000e-06	-3.547166e-08	-1.495777e-09	-2.508280e-01	-1.024746e+02
1.850000e-06	1.052155e-08	-1.472743e-09	7.440023e-02	-1.009632e+02
1.860000e-06	5.644550e-08	-1.448684e-09	3.991387e-01	-9.940047e+01
1.870000e-06	1.023822e-07	-1.423257e-09	7.239674e-01	-9.778373e+01
1.880000e-06	1.484580e-07	-1.395663e-09	1.049780e+00	-9.611029e+01
1.890000e-06	1.945119e-07	-1.367506e-09	1.375437e+00	-9.437728e+01
1.900000e-06	2.404848e-07	-1.339710e-09	1.700522e+00	-9.258168e+01
1.910000e-06	2.864385e-07	-1.311826e-09	2.025471e+00	-9.072035e+01
1.920000e-06	3.323681e-07	-1.280687e-09	2.350249e+00	-8.879005e+01
1.930000e-06	3.783344e-07	-1.248409e-09	2.675287e+00	-8.678745e+01
1.940000e-06	4.242506e-07	-1.218411e-09	2.999970e+00	-8.470921e+01
1.950000e-06	4.701108e-07	-1.188017e-09	3.324258e+00	-8.255194e+01
1.960000e-06	5.159705e-07	-1.155447e-09	3.648543e+00	-8.031231e+01
1.970000e-06	5.618253e-07	-1.121216e-09	3.972792e+00	-7.798707e+01
1.980000e-06	6.076135e-07	-1.087325e-09	4.296571e+00	-7.557310e+01
1.990000e-06	6.532974e-07	-1.050687e-09	4.619612e+00	-7.306744e+01
2.000000e-06	6.990040e-07	-1.012259e-09	4.942813e+00	-7.046737e+01
2.010000e-06	7.447162e-07	-9.711349e-10	5.266054e+00	-6.777046e+01
2.020000e-06	7.903271e-07	-9.289630e-10	5.588579e+00	-6.497461e+01
2.030000e-06	8.358792e-07	-8.875057e-10	5.910688e+00	-6.207813e+01
2.040000e-06	8.814202e-07	-8.435533e-10	6.232719e+00	-5.907977e+01
2.050000e-06	9.268733e-07	-7.993669e-10	6.554128e+00	-5.597876e+01
2.060000e-06	9.722049e-07	-7.539189e-10	6.874678e+00	-5.277491e+01
2.070000e-06	1.017482e-06	-7.059002e-10	7.194842e+00	-4.946861e+01
2.080000e-06	1.062733e-06	-6.551254e-10	7.514819e+00	-4.606086e+01
2.090000e-06	1.107900e-06	-6.026730e-10	7.834210e+00	-4.255333e+01
2.100000e-06	1.152886e-06	-5.521385e-10	8.152312e+00	-3.894839e+01
2.110000e-06	1.197699e-06	-5.023409e-10	8.469195e+00	-3.524909e+01
2.120000e-06	1.242453e-06	-4.473027e-10	8.785662e+00	-3.145920e+01
2.130000e-06	1.287139e-06	-3.878648e-10	9.101650e+00	-2.758321e+01
2.140000e-06	1.331703e-06	-3.258489e-10	9.416769e+00	-2.362630e+01
2.150000e-06	1.376235e-06	-2.616903e-10	9.731662e+00	-1.959435e+01
2.160000e-06	1.420721e-06	-1.975185e-10	1.004623e+01	-1.549389e+01
2.170000e-06	1.465119e-06	-1.348083e-10	1.036018e+01	-1.133207e+01
2.180000e-06	1.509477e-06	-7.359115e-11	1.067385e+01	-7.116618e+00
2.190000e-06	1.553781e-06	-1.231403e-11	1.098713e+01	-2.855796e+00
2.200000e-06	1.597997e-06	5.008443e-11	1.129979e+01	1.441684e+00
2.210000e-06	1.642112e-06	1.155921e-10	1.161174e+01	5.766718e+00
2.220000e-06	1.686183e-06	1.864539e-10	1.192337e+01	1.010988e+01
2.230000e-06	1.730221e-06	2.610913e-10	1.223478e+01	1.446152e+01
2.240000e-06	1.774162e-06	3.338108e-10	1.254550e+01	1.881182e+01
2.250000e-06	1.818007e-06	4.018124e-10	1.285554e+01	2.315092e+01
2.260000e-06	1.861748e-06	4.665451e-10	1.316483e+01	2.746897e+01
2.270000e-06	1.905418e-06	5.292612e-10	1.347363e+01	3.175625e+01
2.280000e-06	1.948984e-06	5.911722e-10	1.378170e+01	3.600326e+01
2.290000e-06	1.992313e-06	6.517742e-10	1.408809e+01	4.020077e+01
2.300000e-06	2.035470e-06	7.105386e-10	1.439326e+01	4.433994e+01
2.310000e-06	2.078474e-06	7.719807e-10	1.469735e+01	4.841241e+01
2.320000e-06	2.121103e-06	8.338956e-10	1.499879e+01	5.241032e+01
2.330000e-06	2.163497e-06	8.938338e-10	1.529857e+01	5.632645e+01
2.340000e-06	2.205792e-06	9.512544e-10	1.559765e+01	6.015419e+01
2.350000e-06	2.247734e-06	1.007925e-09	1.589423e+01	6.388769e+01
2.360000e-06	2.289295e-06	1.063769e-09	1.618811e+01	6.752181e+01
2.370000e-06	2.330578e-06	1.113977e-09	1.648004e+01	7.105221e+01
2.380000e-06	2.371638e-06	1.156591e-09	1.677038e+01	7.447534e+01
2.390000e-06	2.412430e-06	1.196072e-09	1.705883e+01	7.778844e+01
2.400000e-06	2.453017e-06	1.235305e-09	1.734583e+01	8.098959e+01
2.410000e-06	2.493530e-06	1.275693e-09	1.763231e+01	8.407765e+01
2.420000e-06	2.533888e-06	1.318243e-09	1.791769e+01	8.705222e+01
2.430000e-06	2.574074e-06	1.365212e-09	1.820185e+01	8.991369e+01
2.440000e-06	2.614164e-06	1.415577e-09	1.848533e+01	9.266311e+01
2.450000e-06	2.654160e-06	1.460312e-09	1.876815e+01	9.530219e+01
2.460000e-06	2.694078e-06	1.493868e-09	1.905043e+01	9.783324e+01
2.470000e-06	2.733842e-06	1.520284e-09	1.933160e+01	1.002591e+02
2.480000e-06	2.773412e-06	1.545029e-09	1.961142e+01	1.025831e+02
2.490000e-06	2.812781e-06	1.569811e-09	1.988980e+01	1.048088e+02
2.500000e-06	2.851925e-06	1.596816e-09	2.016659e+01	1.069404e+02
2.510000e-06	2.890880e-06	1.630440e-09	2.044206e+01	1.089820e+02
2.520000e-06	2.929672e-06	1.672926e-09	2.071636e+01	1.109382e+02
2.530000e-06	2.968247e-06	1.714213e-09	2.098913e+01	1.128134e+02
2.540000e-06	3.006617e-06	1.741816e-09	2.126046e+01	1.146122e+02
2.550000e-06	3.044754e-06	1.757863e-09	2.153013e+01	1.163391e+02
2.560000e-06	3.082681e-06	1.774320e-09	2.179832e+01	1.179987e+02
2.570000e-06	3.120467e-06	1.794217e-09	2.206552e+01	1.195951e+02
2.580000e-06	3.157968e-06	1.812870e-09	2.233070e+01	1.211324e+02
2.590000e-06	3.195208e-06	1.832823e-09	2.259403e+01	1.226145e+02
2.600000e-06	3.232221e-06	1.861015e-09	2.285575e+01	1.240450e+02
2.610000e-06	3.269038e-06	1.894449e-09	2.311610e+01	1.254271e+02
2.620000e-06	3.305718e-06	1.921429e-09	2.337547e+01	1.267637e+02
2.630000e-06	3.342172e-06	1.938058e-09	2.363324e+01	1.280574e+02
2.640000e-06	3.378400e-06	1.952452e-09	2.388942e+01	1.293106e+02
2.650000e-06	3.414499e-06	1.966235e-09	2.414469e+01	1.305251e+02
2.660000e-06	3.450475e-06	1.977125e-09	2.439908e+01	1.317024e+02
2.670000e-06	3.486332e-06	1.987765e-09	2.465263e+01	1.328440e+02
2.680000e-06	3.522014e-06	2.004636e-09	2.490494e+01	1.339508e+02
2.690000e-06	3.557456e-06	2.028041e-09	2.515556e+01	1.350236e+02
2.700000e-06	3.592567e-06	2.049072e-09	2.540384e+01	1.360629e+02
2.710000e-06	3.627304e-06	2.062592e-09	2.564947e+01	1.370691e+02
2.720000e-06	3.661648e-06	2.072577e-09	2.589233e+01	1.380422e+02
2.730000e-06	3.695429e-06	2.083216e-09	2.613120e+01	1.389825e+02
2.740000e-06	3.728680e-06	2.093524e-09	2.636633e+01	1.398899e+02
2.750000e-06	3.761498e-06	2.103037e-09	2.659839e+01	1.407644e+02
2.760000e-06	3.794031e-06	2.116575e-09	2.682844e+01	1.416058e+02
2.770000e-06	3.826398e-06	2.136111e-09	2.705731e+01	1.424143e+02
2.780000e-06	3.858596e-06	2.153389e-09	2.728499e+01	1.431898e+02
2.790000e-06	3.890623e-06	2.164377e-09	2.751146e+01	1.439326e+02
2.800000e-06	3.922483e-06	2.172059e-09	2.773675e+01	1.446427e+02
2.810000e-06	3.954220e-06	2.177998e-09	2.796117e+01	1.453207e+02
2.820000e-06	3.985752e-06	2.183382e-09	2.818414e+01	1.459669e+02
2.830000e-06	4.016972e-06	2.187332e-09	2.840490e+01	1.465821e+02
2.840000e-06	4.047773e-06	2.191621e-09	2.862271e+01	1.471671e+02
2.850000e-06	4.078258e-06	2.201153e-09	2.883827e+01	1.477229e+02
2.860000e-06	4.108562e-06	2.214489e-09	2.905256e+01	1.482505e+02
2.870000e-06	4.138573e-06	2.227140e-09	2.926477e+01	1.487511e+02
2.880000e-06	4.168294e-06	2.234915e-09	2.947494e+01	1.492262e+02
2.890000e-06	4.197734e-06	2.236988e-09	2.968311e+01	1.496771e+02
2.900000e-06	4.226850e-06	2.236297e-09	2.988900e+01	1.501054e+02
