# Temperatura_=_-1.16
# Concentracion g/m^3_=_4090.0
# C_Vs_to_Am_M_A/Vsm_=_65563218390.804596
# pendiente_HvsI_1/m_=_3716.3
# ordenada_HvsI_A/m_=_1297.0
# frecuencia_Hz_=_135079.11447440865

Tiempo_(s)	Campo_(V.s)	Magnetizacion_(V.s)	Campo_(kA/m)	Magnetizacion_(A/m)
0.000000e+00	-5.409048e-06	-2.715298e-09	-3.838931e+01	-1.728440e+02
1.000000e-08	-5.409338e-06	-2.717528e-09	-3.839136e+01	-1.728415e+02
2.000000e-08	-5.409331e-06	-2.720291e-09	-3.839131e+01	-1.728407e+02
3.000000e-08	-5.409090e-06	-2.722109e-09	-3.838960e+01	-1.728429e+02
4.000000e-08	-5.408519e-06	-2.721368e-09	-3.838555e+01	-1.728497e+02
5.000000e-08	-5.407515e-06	-2.718553e-09	-3.837842e+01	-1.728624e+02
6.000000e-08	-5.406009e-06	-2.727192e-09	-3.836774e+01	-1.728826e+02
7.000000e-08	-5.403817e-06	-2.754990e-09	-3.835218e+01	-1.729117e+02
8.000000e-08	-5.400947e-06	-2.763065e-09	-3.833181e+01	-1.729509e+02
9.000000e-08	-5.397489e-06	-2.694530e-09	-3.830726e+01	-1.730014e+02
1.000000e-07	-5.393583e-06	-2.626941e-09	-3.827954e+01	-1.730645e+02
1.100000e-07	-5.389432e-06	-2.675357e-09	-3.825008e+01	-1.731410e+02
1.200000e-07	-5.385085e-06	-2.760929e-09	-3.821923e+01	-1.732315e+02
1.300000e-07	-5.380411e-06	-2.746086e-09	-3.818606e+01	-1.733367e+02
1.400000e-07	-5.375372e-06	-2.623482e-09	-3.815030e+01	-1.734568e+02
1.500000e-07	-5.370064e-06	-2.679006e-09	-3.811263e+01	-1.735918e+02
1.600000e-07	-5.364425e-06	-2.801414e-09	-3.807260e+01	-1.737416e+02
1.700000e-07	-5.358284e-06	-2.770007e-09	-3.802902e+01	-1.739055e+02
1.800000e-07	-5.351606e-06	-2.622246e-09	-3.798162e+01	-1.740829e+02
1.900000e-07	-5.344655e-06	-2.615690e-09	-3.793229e+01	-1.742727e+02
2.000000e-07	-5.337504e-06	-2.741385e-09	-3.788154e+01	-1.744738e+02
2.100000e-07	-5.330054e-06	-2.740562e-09	-3.782866e+01	-1.746846e+02
2.200000e-07	-5.322313e-06	-2.688056e-09	-3.777373e+01	-1.749035e+02
2.300000e-07	-5.314406e-06	-2.719773e-09	-3.771761e+01	-1.751287e+02
2.400000e-07	-5.306197e-06	-2.780618e-09	-3.765935e+01	-1.753580e+02
2.500000e-07	-5.297277e-06	-2.722463e-09	-3.759604e+01	-1.755895e+02
2.600000e-07	-5.287701e-06	-2.696719e-09	-3.752808e+01	-1.758209e+02
2.700000e-07	-5.277644e-06	-2.739207e-09	-3.745670e+01	-1.760498e+02
2.800000e-07	-5.267252e-06	-2.749766e-09	-3.738294e+01	-1.762741e+02
2.900000e-07	-5.256433e-06	-2.678665e-09	-3.730616e+01	-1.764915e+02
3.000000e-07	-5.245007e-06	-2.712639e-09	-3.722506e+01	-1.766997e+02
3.100000e-07	-5.233060e-06	-2.775654e-09	-3.714028e+01	-1.768966e+02
3.200000e-07	-5.220738e-06	-2.723515e-09	-3.705283e+01	-1.770803e+02
3.300000e-07	-5.208093e-06	-2.650483e-09	-3.696308e+01	-1.772490e+02
3.400000e-07	-5.195100e-06	-2.696632e-09	-3.687087e+01	-1.774009e+02
3.500000e-07	-5.181629e-06	-2.745498e-09	-3.677526e+01	-1.775346e+02
3.600000e-07	-5.167743e-06	-2.727728e-09	-3.667671e+01	-1.776490e+02
3.700000e-07	-5.153597e-06	-2.716286e-09	-3.657631e+01	-1.777430e+02
3.800000e-07	-5.138981e-06	-2.730303e-09	-3.647257e+01	-1.778160e+02
3.900000e-07	-5.123762e-06	-2.708632e-09	-3.636456e+01	-1.778674e+02
4.000000e-07	-5.108077e-06	-2.702695e-09	-3.625324e+01	-1.778972e+02
4.100000e-07	-5.091880e-06	-2.697259e-09	-3.613829e+01	-1.779053e+02
4.200000e-07	-5.075249e-06	-2.663009e-09	-3.602025e+01	-1.778922e+02
4.300000e-07	-5.058281e-06	-2.662907e-09	-3.589983e+01	-1.778582e+02
4.400000e-07	-5.040936e-06	-2.718933e-09	-3.577672e+01	-1.778043e+02
4.500000e-07	-5.023283e-06	-2.737144e-09	-3.565144e+01	-1.777314e+02
4.600000e-07	-5.005336e-06	-2.686175e-09	-3.552406e+01	-1.776407e+02
4.700000e-07	-4.987109e-06	-2.680436e-09	-3.539470e+01	-1.775334e+02
4.800000e-07	-4.968482e-06	-2.700612e-09	-3.526250e+01	-1.774111e+02
4.900000e-07	-4.949486e-06	-2.694768e-09	-3.512768e+01	-1.772751e+02
5.000000e-07	-4.930215e-06	-2.654964e-09	-3.499091e+01	-1.771272e+02
5.100000e-07	-4.910592e-06	-2.653405e-09	-3.485164e+01	-1.769689e+02
5.200000e-07	-4.890677e-06	-2.675780e-09	-3.471030e+01	-1.768018e+02
5.300000e-07	-4.870537e-06	-2.706396e-09	-3.456736e+01	-1.766276e+02
5.400000e-07	-4.850119e-06	-2.691561e-09	-3.442245e+01	-1.764479e+02
5.500000e-07	-4.829425e-06	-2.669686e-09	-3.427558e+01	-1.762641e+02
5.600000e-07	-4.808388e-06	-2.664709e-09	-3.412628e+01	-1.760775e+02
5.700000e-07	-4.787025e-06	-2.683008e-09	-3.397466e+01	-1.758896e+02
5.800000e-07	-4.765329e-06	-2.667871e-09	-3.382068e+01	-1.757013e+02
5.900000e-07	-4.743316e-06	-2.645175e-09	-3.366445e+01	-1.755137e+02
6.000000e-07	-4.721008e-06	-2.640095e-09	-3.350612e+01	-1.753276e+02
6.100000e-07	-4.698267e-06	-2.666512e-09	-3.334472e+01	-1.751437e+02
6.200000e-07	-4.675090e-06	-2.676021e-09	-3.318023e+01	-1.749626e+02
6.300000e-07	-4.651641e-06	-2.656628e-09	-3.301381e+01	-1.747845e+02
6.400000e-07	-4.628004e-06	-2.638087e-09	-3.284605e+01	-1.746096e+02
6.500000e-07	-4.604142e-06	-2.654582e-09	-3.267669e+01	-1.744381e+02
6.600000e-07	-4.580045e-06	-2.666728e-09	-3.250567e+01	-1.742697e+02
6.700000e-07	-4.555630e-06	-2.648628e-09	-3.233239e+01	-1.741044e+02
6.800000e-07	-4.530827e-06	-2.626922e-09	-3.215636e+01	-1.739417e+02
6.900000e-07	-4.505533e-06	-2.632306e-09	-3.197684e+01	-1.737812e+02
7.000000e-07	-4.479889e-06	-2.644856e-09	-3.179484e+01	-1.736224e+02
7.100000e-07	-4.453944e-06	-2.634540e-09	-3.161070e+01	-1.734647e+02
7.200000e-07	-4.427464e-06	-2.614575e-09	-3.142277e+01	-1.733075e+02
7.300000e-07	-4.400441e-06	-2.611879e-09	-3.123098e+01	-1.731500e+02
7.400000e-07	-4.372943e-06	-2.632684e-09	-3.103582e+01	-1.729917e+02
7.500000e-07	-4.345138e-06	-2.634722e-09	-3.083848e+01	-1.728318e+02
7.600000e-07	-4.317182e-06	-2.615452e-09	-3.064007e+01	-1.726696e+02
7.700000e-07	-4.289074e-06	-2.600270e-09	-3.044058e+01	-1.725045e+02
7.800000e-07	-4.260746e-06	-2.609589e-09	-3.023953e+01	-1.723359e+02
7.900000e-07	-4.232076e-06	-2.611868e-09	-3.003605e+01	-1.721631e+02
8.000000e-07	-4.203108e-06	-2.598214e-09	-2.983046e+01	-1.719857e+02
8.100000e-07	-4.173937e-06	-2.580608e-09	-2.962343e+01	-1.718032e+02
8.200000e-07	-4.144441e-06	-2.587792e-09	-2.941408e+01	-1.716152e+02
8.300000e-07	-4.114533e-06	-2.598486e-09	-2.920182e+01	-1.714213e+02
8.400000e-07	-4.084382e-06	-2.595620e-09	-2.898783e+01	-1.712213e+02
8.500000e-07	-4.053994e-06	-2.577608e-09	-2.877216e+01	-1.710148e+02
8.600000e-07	-4.023423e-06	-2.574473e-09	-2.855519e+01	-1.708018e+02
8.700000e-07	-3.992703e-06	-2.577854e-09	-2.833717e+01	-1.705820e+02
8.800000e-07	-3.961688e-06	-2.571941e-09	-2.811704e+01	-1.703555e+02
8.900000e-07	-3.930364e-06	-2.549763e-09	-2.789473e+01	-1.701221e+02
9.000000e-07	-3.898723e-06	-2.539439e-09	-2.767016e+01	-1.698819e+02
9.100000e-07	-3.866873e-06	-2.545625e-09	-2.744412e+01	-1.696350e+02
9.200000e-07	-3.834861e-06	-2.552434e-09	-2.721693e+01	-1.693812e+02
9.300000e-07	-3.802698e-06	-2.544994e-09	-2.698865e+01	-1.691208e+02
9.400000e-07	-3.770389e-06	-2.538311e-09	-2.675935e+01	-1.688538e+02
9.500000e-07	-3.737816e-06	-2.538770e-09	-2.652817e+01	-1.685803e+02
9.600000e-07	-3.704900e-06	-2.538481e-09	-2.629456e+01	-1.683004e+02
9.700000e-07	-3.671515e-06	-2.526212e-09	-2.605762e+01	-1.680143e+02
9.800000e-07	-3.637596e-06	-2.510559e-09	-2.581688e+01	-1.677220e+02
9.900000e-07	-3.603268e-06	-2.505323e-09	-2.557325e+01	-1.674236e+02
1.000000e-06	-3.568635e-06	-2.508162e-09	-2.532746e+01	-1.671193e+02
1.010000e-06	-3.533679e-06	-2.507660e-09	-2.507936e+01	-1.668092e+02
1.020000e-06	-3.498353e-06	-2.499024e-09	-2.482864e+01	-1.664934e+02
1.030000e-06	-3.462717e-06	-2.493585e-09	-2.457573e+01	-1.661720e+02
1.040000e-06	-3.426893e-06	-2.491075e-09	-2.432148e+01	-1.658452e+02
1.050000e-06	-3.390950e-06	-2.485142e-09	-2.406638e+01	-1.655131e+02
1.060000e-06	-3.354867e-06	-2.469719e-09	-2.381029e+01	-1.651759e+02
1.070000e-06	-3.318602e-06	-2.456997e-09	-2.355291e+01	-1.648336e+02
1.080000e-06	-3.282099e-06	-2.450278e-09	-2.329384e+01	-1.644866e+02
1.090000e-06	-3.245407e-06	-2.445924e-09	-2.303343e+01	-1.641349e+02
1.100000e-06	-3.208569e-06	-2.436431e-09	-2.277198e+01	-1.637787e+02
1.110000e-06	-3.171467e-06	-2.431275e-09	-2.250866e+01	-1.634183e+02
1.120000e-06	-3.134134e-06	-2.428476e-09	-2.224370e+01	-1.630539e+02
1.130000e-06	-3.096647e-06	-2.426752e-09	-2.197764e+01	-1.626856e+02
1.140000e-06	-3.058932e-06	-2.419244e-09	-2.170997e+01	-1.623137e+02
1.150000e-06	-3.020900e-06	-2.409872e-09	-2.144005e+01	-1.619383e+02
1.160000e-06	-2.982726e-06	-2.401935e-09	-2.116911e+01	-1.615598e+02
1.170000e-06	-2.944444e-06	-2.396620e-09	-2.089742e+01	-1.611782e+02
1.180000e-06	-2.905874e-06	-2.385624e-09	-2.062368e+01	-1.607936e+02
1.190000e-06	-2.867047e-06	-2.374021e-09	-2.034812e+01	-1.604063e+02
1.200000e-06	-2.828010e-06	-2.367415e-09	-2.007106e+01	-1.600163e+02
1.210000e-06	-2.788779e-06	-2.363927e-09	-1.979263e+01	-1.596236e+02
1.220000e-06	-2.749325e-06	-2.357264e-09	-1.951261e+01	-1.592282e+02
1.230000e-06	-2.709722e-06	-2.349941e-09	-1.923154e+01	-1.588301e+02
1.240000e-06	-2.670003e-06	-2.343320e-09	-1.894965e+01	-1.584291e+02
1.250000e-06	-2.630148e-06	-2.337353e-09	-1.866679e+01	-1.580249e+02
1.260000e-06	-2.590205e-06	-2.327639e-09	-1.838331e+01	-1.576174e+02
1.270000e-06	-2.550151e-06	-2.316433e-09	-1.809903e+01	-1.572060e+02
1.280000e-06	-2.510007e-06	-2.307521e-09	-1.781412e+01	-1.567905e+02
1.290000e-06	-2.469699e-06	-2.299609e-09	-1.752804e+01	-1.563701e+02
1.300000e-06	-2.429258e-06	-2.292082e-09	-1.724102e+01	-1.559445e+02
1.310000e-06	-2.388714e-06	-2.284995e-09	-1.695327e+01	-1.555128e+02
1.320000e-06	-2.347965e-06	-2.280442e-09	-1.666407e+01	-1.550743e+02
1.330000e-06	-2.306955e-06	-2.275310e-09	-1.637301e+01	-1.546283e+02
1.340000e-06	-2.265699e-06	-2.267892e-09	-1.608021e+01	-1.541739e+02
1.350000e-06	-2.224193e-06	-2.258007e-09	-1.578563e+01	-1.537102e+02
1.360000e-06	-2.182283e-06	-2.247506e-09	-1.548818e+01	-1.532363e+02
1.370000e-06	-2.140107e-06	-2.236295e-09	-1.518885e+01	-1.527512e+02
1.380000e-06	-2.097773e-06	-2.227151e-09	-1.488839e+01	-1.522540e+02
1.390000e-06	-2.055118e-06	-2.216937e-09	-1.458566e+01	-1.517437e+02
1.400000e-06	-2.012136e-06	-2.207286e-09	-1.428061e+01	-1.512194e+02
1.410000e-06	-1.968943e-06	-2.199646e-09	-1.397406e+01	-1.506803e+02
1.420000e-06	-1.925604e-06	-2.191664e-09	-1.366647e+01	-1.501255e+02
1.430000e-06	-1.882147e-06	-2.179579e-09	-1.335804e+01	-1.495541e+02
1.440000e-06	-1.838576e-06	-2.167434e-09	-1.304881e+01	-1.489654e+02
1.450000e-06	-1.794856e-06	-2.155448e-09	-1.273852e+01	-1.483588e+02
1.460000e-06	-1.751080e-06	-2.145135e-09	-1.242783e+01	-1.477337e+02
1.470000e-06	-1.707251e-06	-2.133537e-09	-1.211677e+01	-1.470895e+02
1.480000e-06	-1.663280e-06	-2.120608e-09	-1.180469e+01	-1.464258e+02
1.490000e-06	-1.619236e-06	-2.106639e-09	-1.149210e+01	-1.457422e+02
1.500000e-06	-1.575145e-06	-2.094055e-09	-1.117918e+01	-1.450385e+02
1.510000e-06	-1.531018e-06	-2.081603e-09	-1.086600e+01	-1.443143e+02
1.520000e-06	-1.486829e-06	-2.068582e-09	-1.055238e+01	-1.435697e+02
1.530000e-06	-1.442543e-06	-2.056520e-09	-1.023807e+01	-1.428043e+02
1.540000e-06	-1.398209e-06	-2.047122e-09	-9.923421e+00	-1.420182e+02
1.550000e-06	-1.353838e-06	-2.038441e-09	-9.608508e+00	-1.412113e+02
1.560000e-06	-1.309403e-06	-2.027312e-09	-9.293146e+00	-1.403836e+02
1.570000e-06	-1.264877e-06	-2.013276e-09	-8.977132e+00	-1.395349e+02
1.580000e-06	-1.220148e-06	-1.997696e-09	-8.659684e+00	-1.386653e+02
1.590000e-06	-1.175331e-06	-1.982257e-09	-8.341604e+00	-1.377746e+02
1.600000e-06	-1.130518e-06	-1.967204e-09	-8.023555e+00	-1.368626e+02
1.610000e-06	-1.085618e-06	-1.951717e-09	-7.704893e+00	-1.359290e+02
1.620000e-06	-1.040595e-06	-1.937508e-09	-7.385352e+00	-1.349736e+02
1.630000e-06	-9.955231e-07	-1.924994e-09	-7.065465e+00	-1.339958e+02
1.640000e-06	-9.504057e-07	-1.911223e-09	-6.745256e+00	-1.329951e+02
1.650000e-06	-9.051025e-07	-1.897553e-09	-6.423728e+00	-1.319708e+02
1.660000e-06	-8.597266e-07	-1.883122e-09	-6.101685e+00	-1.309221e+02
1.670000e-06	-8.144023e-07	-1.867862e-09	-5.780007e+00	-1.298479e+02
1.680000e-06	-7.690373e-07	-1.849156e-09	-5.458041e+00	-1.287472e+02
1.690000e-06	-7.235379e-07	-1.826201e-09	-5.135121e+00	-1.276187e+02
1.700000e-06	-6.779942e-07	-1.802577e-09	-4.811887e+00	-1.264610e+02
1.710000e-06	-6.324531e-07	-1.781889e-09	-4.488671e+00	-1.252726e+02
1.720000e-06	-5.868399e-07	-1.762098e-09	-4.164943e+00	-1.240517e+02
1.730000e-06	-5.411287e-07	-1.743237e-09	-3.840520e+00	-1.227967e+02
1.740000e-06	-4.954003e-07	-1.728197e-09	-3.515974e+00	-1.215057e+02
1.750000e-06	-4.496887e-07	-1.714959e-09	-3.191548e+00	-1.201768e+02
1.760000e-06	-4.039159e-07	-1.697405e-09	-2.866688e+00	-1.188079e+02
1.770000e-06	-3.580675e-07	-1.675304e-09	-2.541290e+00	-1.173970e+02
1.780000e-06	-3.121916e-07	-1.650588e-09	-2.215698e+00	-1.159421e+02
1.790000e-06	-2.662823e-07	-1.624639e-09	-1.889869e+00	-1.144411e+02
1.800000e-06	-2.203858e-07	-1.596543e-09	-1.564131e+00	-1.128921e+02
1.810000e-06	-1.745528e-07	-1.569269e-09	-1.238843e+00	-1.112931e+02
1.820000e-06	-1.286982e-07	-1.546641e-09	-9.134018e-01	-1.096421e+02
1.830000e-06	-8.282486e-08	-1.528047e-09	-5.878278e-01	-1.079374e+02
1.840000e-06	-3.694333e-08	-1.508389e-09	-2.621956e-01	-1.061774e+02
1.850000e-06	8.907721e-09	-1.484872e-09	6.322022e-02	-1.043604e+02
1.860000e-06	5.472218e-08	-1.455853e-09	3.883763e-01	-1.024851e+02
1.870000e-06	1.005575e-07	-1.421365e-09	7.136806e-01	-1.005503e+02
1.880000e-06	1.464217e-07	-1.385918e-09	1.039190e+00	-9.855481e+01
1.890000e-06	1.923262e-07	-1.351347e-09	1.364985e+00	-9.649783e+01
1.900000e-06	2.381628e-07	-1.318902e-09	1.690298e+00	-9.437860e+01
1.910000e-06	2.839425e-07	-1.290206e-09	2.015207e+00	-9.219660e+01
1.920000e-06	3.297487e-07	-1.260760e-09	2.340305e+00	-8.995147e+01
1.930000e-06	3.755968e-07	-1.227702e-09	2.665700e+00	-8.764303e+01
1.940000e-06	4.214255e-07	-1.194334e-09	2.990958e+00	-8.527127e+01
1.950000e-06	4.671490e-07	-1.160633e-09	3.315468e+00	-8.283633e+01
1.960000e-06	5.127936e-07	-1.124959e-09	3.639418e+00	-8.033853e+01
1.970000e-06	5.584043e-07	-1.086455e-09	3.963129e+00	-7.777830e+01
1.980000e-06	6.040052e-07	-1.047084e-09	4.286769e+00	-7.515621e+01
1.990000e-06	6.496535e-07	-1.006327e-09	4.610746e+00	-7.247295e+01
2.000000e-06	6.952606e-07	-9.631762e-10	4.934430e+00	-6.972933e+01
2.010000e-06	7.407684e-07	-9.212286e-10	5.257410e+00	-6.692623e+01
2.020000e-06	7.861936e-07	-8.822145e-10	5.579803e+00	-6.406461e+01
2.030000e-06	8.315584e-07	-8.416831e-10	5.901768e+00	-6.114554e+01
2.040000e-06	8.768894e-07	-7.963739e-10	6.223493e+00	-5.817012e+01
2.050000e-06	9.221851e-07	-7.497946e-10	6.544968e+00	-5.513954e+01
2.060000e-06	9.675409e-07	-7.055435e-10	6.866869e+00	-5.205503e+01
2.070000e-06	1.012779e-06	-6.613708e-10	7.187938e+00	-4.891788e+01
2.080000e-06	1.057843e-06	-6.160092e-10	7.507760e+00	-4.572945e+01
2.090000e-06	1.102831e-06	-5.695297e-10	7.827051e+00	-4.249117e+01
2.100000e-06	1.147695e-06	-5.236116e-10	8.145463e+00	-3.920451e+01
2.110000e-06	1.192383e-06	-4.766250e-10	8.462623e+00	-3.587107e+01
2.120000e-06	1.237026e-06	-4.246433e-10	8.779468e+00	-3.249250e+01
2.130000e-06	1.281605e-06	-3.696186e-10	9.095854e+00	-2.907056e+01
2.140000e-06	1.326020e-06	-3.145551e-10	9.411079e+00	-2.560714e+01
2.150000e-06	1.370374e-06	-2.613122e-10	9.725870e+00	-2.210425e+01
2.160000e-06	1.414720e-06	-2.087271e-10	1.004061e+01	-1.856406e+01
2.170000e-06	1.459028e-06	-1.555775e-10	1.035507e+01	-1.498890e+01
2.180000e-06	1.503216e-06	-1.017199e-10	1.066869e+01	-1.138125e+01
2.190000e-06	1.547386e-06	-4.649097e-11	1.098217e+01	-7.743801e+00
2.200000e-06	1.591518e-06	8.925461e-12	1.129538e+01	-4.079446e+00
2.210000e-06	1.635540e-06	6.437618e-11	1.160782e+01	-3.912714e-01
2.220000e-06	1.679493e-06	1.210277e-10	1.191976e+01	3.317419e+00
2.230000e-06	1.723389e-06	1.804829e-10	1.223130e+01	7.043106e+00
2.240000e-06	1.767223e-06	2.404541e-10	1.254240e+01	1.078206e+01
2.250000e-06	1.810945e-06	2.966821e-10	1.285271e+01	1.453034e+01
2.260000e-06	1.854474e-06	3.490571e-10	1.316164e+01	1.828381e+01
2.270000e-06	1.897844e-06	3.998169e-10	1.346945e+01	2.203814e+01
2.280000e-06	1.941210e-06	4.522462e-10	1.377723e+01	2.578886e+01
2.290000e-06	1.984434e-06	5.068015e-10	1.408400e+01	2.953133e+01
2.300000e-06	2.027382e-06	5.634154e-10	1.438882e+01	3.326080e+01
2.310000e-06	2.070101e-06	6.219618e-10	1.469200e+01	3.697244e+01
2.320000e-06	2.112591e-06	6.777475e-10	1.499356e+01	4.066136e+01
2.330000e-06	2.154802e-06	7.321619e-10	1.529314e+01	4.432267e+01
2.340000e-06	2.196740e-06	7.856593e-10	1.559079e+01	4.795147e+01
2.350000e-06	2.238420e-06	8.369743e-10	1.588660e+01	5.154296e+01
2.360000e-06	2.279827e-06	8.884274e-10	1.618048e+01	5.509242e+01
2.370000e-06	2.320918e-06	9.368410e-10	1.647211e+01	5.859528e+01
2.380000e-06	2.361703e-06	9.831167e-10	1.676157e+01	6.204717e+01
2.390000e-06	2.402312e-06	1.028430e-09	1.704978e+01	6.544394e+01
2.400000e-06	2.442787e-06	1.074429e-09	1.733704e+01	6.878170e+01
2.410000e-06	2.483102e-06	1.120139e-09	1.762317e+01	7.205687e+01
2.420000e-06	2.523254e-06	1.167453e-09	1.790813e+01	7.526620e+01
2.430000e-06	2.563312e-06	1.219171e-09	1.819244e+01	7.840680e+01
2.440000e-06	2.603286e-06	1.274330e-09	1.847614e+01	8.147617e+01
2.450000e-06	2.643110e-06	1.325902e-09	1.875878e+01	8.447220e+01
2.460000e-06	2.682838e-06	1.364573e-09	1.904074e+01	8.739320e+01
2.470000e-06	2.722486e-06	1.394206e-09	1.932213e+01	9.023791e+01
2.480000e-06	2.761942e-06	1.423363e-09	1.960216e+01	9.300546e+01
2.490000e-06	2.801214e-06	1.454330e-09	1.988088e+01	9.569544e+01
2.500000e-06	2.840238e-06	1.489527e-09	2.015785e+01	9.830781e+01
2.510000e-06	2.878982e-06	1.530651e-09	2.043282e+01	1.008429e+02
2.520000e-06	2.917555e-06	1.576604e-09	2.070659e+01	1.033015e+02
2.530000e-06	2.955915e-06	1.620790e-09	2.097884e+01	1.056846e+02
2.540000e-06	2.994079e-06	1.654176e-09	2.124969e+01	1.079936e+02
2.550000e-06	3.032073e-06	1.677812e-09	2.151935e+01	1.102301e+02
2.560000e-06	3.069793e-06	1.699622e-09	2.178705e+01	1.123961e+02
2.570000e-06	3.107334e-06	1.724239e-09	2.205349e+01	1.144934e+02
2.580000e-06	3.144692e-06	1.749351e-09	2.231863e+01	1.165245e+02
2.590000e-06	3.181836e-06	1.775866e-09	2.258225e+01	1.184914e+02
2.600000e-06	3.218775e-06	1.806561e-09	2.284441e+01	1.203968e+02
2.610000e-06	3.255452e-06	1.841123e-09	2.310472e+01	1.222428e+02
2.620000e-06	3.291912e-06	1.872029e-09	2.336348e+01	1.240320e+02
2.630000e-06	3.328139e-06	1.896971e-09	2.362060e+01	1.257666e+02
2.640000e-06	3.364217e-06	1.920402e-09	2.387665e+01	1.274488e+02
2.650000e-06	3.400226e-06	1.943337e-09	2.413221e+01	1.290808e+02
2.660000e-06	3.436098e-06	1.961930e-09	2.438681e+01	1.306646e+02
2.670000e-06	3.471778e-06	1.979197e-09	2.464004e+01	1.322019e+02
2.680000e-06	3.507277e-06	1.998762e-09	2.489198e+01	1.336944e+02
2.690000e-06	3.542563e-06	2.019413e-09	2.514242e+01	1.351435e+02
2.700000e-06	3.577501e-06	2.040990e-09	2.539038e+01	1.365505e+02
2.710000e-06	3.612026e-06	2.061745e-09	2.563541e+01	1.379164e+02
2.720000e-06	3.646092e-06	2.083128e-09	2.587719e+01	1.392421e+02
2.730000e-06	3.679692e-06	2.105871e-09	2.611565e+01	1.405283e+02
2.740000e-06	3.712882e-06	2.127194e-09	2.635121e+01	1.417756e+02
2.750000e-06	3.745768e-06	2.145104e-09	2.658461e+01	1.429842e+02
2.760000e-06	3.778386e-06	2.159070e-09	2.681610e+01	1.441545e+02
2.770000e-06	3.810743e-06	2.172848e-09	2.704575e+01	1.452867e+02
2.780000e-06	3.842931e-06	2.185972e-09	2.727420e+01	1.463810e+02
2.790000e-06	3.874894e-06	2.198352e-09	2.750105e+01	1.474373e+02
2.800000e-06	3.906635e-06	2.212261e-09	2.772632e+01	1.484558e+02
2.810000e-06	3.938196e-06	2.231313e-09	2.795032e+01	1.494366e+02
2.820000e-06	3.969535e-06	2.253135e-09	2.817274e+01	1.503797e+02
2.830000e-06	4.000606e-06	2.270090e-09	2.839326e+01	1.512856e+02
2.840000e-06	4.031345e-06	2.281212e-09	2.861142e+01	1.521543e+02
2.850000e-06	4.061735e-06	2.289331e-09	2.882710e+01	1.529865e+02
2.860000e-06	4.091887e-06	2.298237e-09	2.904110e+01	1.537826e+02
2.870000e-06	4.121842e-06	2.308995e-09	2.925369e+01	1.545434e+02
2.880000e-06	4.151530e-06	2.319229e-09	2.946440e+01	1.552696e+02
2.890000e-06	4.180893e-06	2.329255e-09	2.967279e+01	1.559624e+02
2.900000e-06	4.209947e-06	2.341012e-09	2.987900e+01	1.566229e+02
