# Temperatura_=_19.86
# Concentracion g/m^3_=_4090.0
# C_Vs_to_Am_M_A/Vsm_=_65563218390.804596
# pendiente_HvsI_1/m_=_3716.3
# ordenada_HvsI_A/m_=_1297.0
# frecuencia_Hz_=_135067.5309887995

Tiempo_(s)	Campo_(V.s)	Magnetizacion_(V.s)	Campo_(kA/m)	Magnetizacion_(A/m)
0.000000e+00	-5.403812e-06	-2.693937e-09	-3.840648e+01	-1.731239e+02
1.000000e-08	-5.403878e-06	-2.695600e-09	-3.840695e+01	-1.730957e+02
2.000000e-08	-5.403665e-06	-2.695365e-09	-3.840544e+01	-1.730677e+02
3.000000e-08	-5.403101e-06	-2.691276e-09	-3.840144e+01	-1.730407e+02
4.000000e-08	-5.402129e-06	-2.687809e-09	-3.839453e+01	-1.730160e+02
5.000000e-08	-5.400646e-06	-2.699135e-09	-3.838399e+01	-1.729945e+02
6.000000e-08	-5.398551e-06	-2.735203e-09	-3.836909e+01	-1.729772e+02
7.000000e-08	-5.395801e-06	-2.736092e-09	-3.834955e+01	-1.729651e+02
8.000000e-08	-5.392431e-06	-2.648352e-09	-3.832560e+01	-1.729591e+02
9.000000e-08	-5.388622e-06	-2.583935e-09	-3.829853e+01	-1.729602e+02
1.000000e-07	-5.384523e-06	-2.673802e-09	-3.826940e+01	-1.729689e+02
1.100000e-07	-5.380158e-06	-2.772983e-09	-3.823837e+01	-1.729860e+02
1.200000e-07	-5.375582e-06	-2.699541e-09	-3.820585e+01	-1.730119e+02
1.300000e-07	-5.370730e-06	-2.580999e-09	-3.817136e+01	-1.730469e+02
1.400000e-07	-5.365524e-06	-2.675985e-09	-3.813436e+01	-1.730912e+02
1.500000e-07	-5.359925e-06	-2.808974e-09	-3.809457e+01	-1.731448e+02
1.600000e-07	-5.353923e-06	-2.728041e-09	-3.805191e+01	-1.732076e+02
1.700000e-07	-5.347514e-06	-2.555419e-09	-3.800636e+01	-1.732790e+02
1.800000e-07	-5.340683e-06	-2.609797e-09	-3.795781e+01	-1.733587e+02
1.900000e-07	-5.333478e-06	-2.721135e-09	-3.790660e+01	-1.734459e+02
2.000000e-07	-5.325974e-06	-2.697671e-09	-3.785327e+01	-1.735397e+02
2.100000e-07	-5.318213e-06	-2.636957e-09	-3.779811e+01	-1.736392e+02
2.200000e-07	-5.310252e-06	-2.703533e-09	-3.774153e+01	-1.737431e+02
2.300000e-07	-5.301970e-06	-2.724017e-09	-3.768266e+01	-1.738502e+02
2.400000e-07	-5.293210e-06	-2.650771e-09	-3.762040e+01	-1.739590e+02
2.500000e-07	-5.283865e-06	-2.655291e-09	-3.755399e+01	-1.740683e+02
2.600000e-07	-5.273938e-06	-2.724940e-09	-3.748343e+01	-1.741764e+02
2.700000e-07	-5.263470e-06	-2.696127e-09	-3.740903e+01	-1.742817e+02
2.800000e-07	-5.252383e-06	-2.640038e-09	-3.733023e+01	-1.743828e+02
2.900000e-07	-5.240837e-06	-2.706433e-09	-3.724817e+01	-1.744782e+02
3.000000e-07	-5.228933e-06	-2.744347e-09	-3.716357e+01	-1.745662e+02
3.100000e-07	-5.216657e-06	-2.666097e-09	-3.707632e+01	-1.746455e+02
3.200000e-07	-5.204077e-06	-2.610474e-09	-3.698691e+01	-1.747146e+02
3.300000e-07	-5.191081e-06	-2.676693e-09	-3.689455e+01	-1.747725e+02
3.400000e-07	-5.177581e-06	-2.697498e-09	-3.679860e+01	-1.748178e+02
3.500000e-07	-5.163787e-06	-2.681612e-09	-3.670056e+01	-1.748497e+02
3.600000e-07	-5.149646e-06	-2.677750e-09	-3.660006e+01	-1.748673e+02
3.700000e-07	-5.135008e-06	-2.693493e-09	-3.649602e+01	-1.748698e+02
3.800000e-07	-5.119818e-06	-2.675907e-09	-3.638806e+01	-1.748567e+02
3.900000e-07	-5.104005e-06	-2.677613e-09	-3.627567e+01	-1.748276e+02
4.000000e-07	-5.087715e-06	-2.652860e-09	-3.615989e+01	-1.747824e+02
4.100000e-07	-5.071103e-06	-2.615498e-09	-3.604183e+01	-1.747210e+02
4.200000e-07	-5.054170e-06	-2.627533e-09	-3.592148e+01	-1.746434e+02
4.300000e-07	-5.036891e-06	-2.687215e-09	-3.579867e+01	-1.745501e+02
4.400000e-07	-5.019316e-06	-2.674304e-09	-3.567376e+01	-1.744412e+02
4.500000e-07	-5.001498e-06	-2.631544e-09	-3.554712e+01	-1.743175e+02
4.600000e-07	-4.983339e-06	-2.632539e-09	-3.541806e+01	-1.741794e+02
4.700000e-07	-4.964760e-06	-2.657904e-09	-3.528602e+01	-1.740278e+02
4.800000e-07	-4.945749e-06	-2.636514e-09	-3.515090e+01	-1.738634e+02
4.900000e-07	-4.926401e-06	-2.605803e-09	-3.501338e+01	-1.736871e+02
5.000000e-07	-4.906841e-06	-2.603958e-09	-3.487437e+01	-1.734998e+02
5.100000e-07	-4.887059e-06	-2.635082e-09	-3.473377e+01	-1.733026e+02
5.200000e-07	-4.867038e-06	-2.655356e-09	-3.459148e+01	-1.730963e+02
5.300000e-07	-4.846761e-06	-2.634645e-09	-3.444736e+01	-1.728818e+02
5.400000e-07	-4.826126e-06	-2.601915e-09	-3.430070e+01	-1.726602e+02
5.500000e-07	-4.805006e-06	-2.605827e-09	-3.415060e+01	-1.724323e+02
5.600000e-07	-4.783525e-06	-2.624024e-09	-3.399792e+01	-1.721991e+02
5.700000e-07	-4.761807e-06	-2.606918e-09	-3.384357e+01	-1.719612e+02
5.800000e-07	-4.739802e-06	-2.579976e-09	-3.368717e+01	-1.717194e+02
5.900000e-07	-4.717535e-06	-2.584322e-09	-3.352891e+01	-1.714745e+02
6.000000e-07	-4.694884e-06	-2.610798e-09	-3.336792e+01	-1.712269e+02
6.100000e-07	-4.671767e-06	-2.607469e-09	-3.320362e+01	-1.709773e+02
6.200000e-07	-4.648348e-06	-2.578651e-09	-3.303718e+01	-1.707261e+02
6.300000e-07	-4.624730e-06	-2.556523e-09	-3.286932e+01	-1.704736e+02
6.400000e-07	-4.600898e-06	-2.570052e-09	-3.269994e+01	-1.702201e+02
6.500000e-07	-4.576888e-06	-2.579120e-09	-3.252930e+01	-1.699658e+02
6.600000e-07	-4.552607e-06	-2.564632e-09	-3.235672e+01	-1.697109e+02
6.700000e-07	-4.527904e-06	-2.544316e-09	-3.218115e+01	-1.694555e+02
6.800000e-07	-4.502754e-06	-2.552561e-09	-3.200240e+01	-1.691995e+02
6.900000e-07	-4.477100e-06	-2.558248e-09	-3.182007e+01	-1.689430e+02
7.000000e-07	-4.450973e-06	-2.545068e-09	-3.163438e+01	-1.686858e+02
7.100000e-07	-4.424338e-06	-2.520257e-09	-3.144508e+01	-1.684279e+02
7.200000e-07	-4.397268e-06	-2.521677e-09	-3.125268e+01	-1.681691e+02
7.300000e-07	-4.369898e-06	-2.534920e-09	-3.105816e+01	-1.679092e+02
7.400000e-07	-4.342275e-06	-2.533223e-09	-3.086183e+01	-1.676481e+02
7.500000e-07	-4.314516e-06	-2.509948e-09	-3.066454e+01	-1.673854e+02
7.600000e-07	-4.286572e-06	-2.500801e-09	-3.046594e+01	-1.671210e+02
7.700000e-07	-4.258350e-06	-2.506804e-09	-3.026535e+01	-1.668546e+02
7.800000e-07	-4.229844e-06	-2.507438e-09	-3.006275e+01	-1.665860e+02
7.900000e-07	-4.200983e-06	-2.489680e-09	-2.985763e+01	-1.663150e+02
8.000000e-07	-4.171774e-06	-2.478817e-09	-2.965003e+01	-1.660412e+02
8.100000e-07	-4.142251e-06	-2.483938e-09	-2.944020e+01	-1.657644e+02
8.200000e-07	-4.112456e-06	-2.488693e-09	-2.922844e+01	-1.654843e+02
8.300000e-07	-4.082433e-06	-2.476349e-09	-2.901505e+01	-1.652008e+02
8.400000e-07	-4.052128e-06	-2.460141e-09	-2.879967e+01	-1.649134e+02
8.500000e-07	-4.021572e-06	-2.457887e-09	-2.858250e+01	-1.646220e+02
8.600000e-07	-3.990769e-06	-2.459781e-09	-2.836357e+01	-1.643263e+02
8.700000e-07	-3.959648e-06	-2.452124e-09	-2.814239e+01	-1.640260e+02
8.800000e-07	-3.928319e-06	-2.437054e-09	-2.791972e+01	-1.637208e+02
8.900000e-07	-3.896825e-06	-2.434339e-09	-2.769589e+01	-1.634105e+02
9.000000e-07	-3.865089e-06	-2.439732e-09	-2.747033e+01	-1.630947e+02
9.100000e-07	-3.833204e-06	-2.438147e-09	-2.724371e+01	-1.627733e+02
9.200000e-07	-3.801153e-06	-2.425344e-09	-2.701592e+01	-1.624459e+02
9.300000e-07	-3.768815e-06	-2.418880e-09	-2.678608e+01	-1.621123e+02
9.400000e-07	-3.736196e-06	-2.418635e-09	-2.655425e+01	-1.617723e+02
9.500000e-07	-3.703255e-06	-2.416035e-09	-2.632013e+01	-1.614256e+02
9.600000e-07	-3.669927e-06	-2.402116e-09	-2.608325e+01	-1.610719e+02
9.700000e-07	-3.636276e-06	-2.392596e-09	-2.584409e+01	-1.607112e+02
9.800000e-07	-3.602233e-06	-2.390189e-09	-2.560214e+01	-1.603433e+02
9.900000e-07	-3.567665e-06	-2.388615e-09	-2.535645e+01	-1.599680e+02
1.000000e-06	-3.532638e-06	-2.379970e-09	-2.510750e+01	-1.595852e+02
1.010000e-06	-3.497271e-06	-2.375266e-09	-2.485614e+01	-1.591950e+02
1.020000e-06	-3.461687e-06	-2.373880e-09	-2.460323e+01	-1.587972e+02
1.030000e-06	-3.425953e-06	-2.371328e-09	-2.434926e+01	-1.583919e+02
1.040000e-06	-3.390068e-06	-2.361045e-09	-2.409422e+01	-1.579792e+02
1.050000e-06	-3.354062e-06	-2.348060e-09	-2.383831e+01	-1.575592e+02
1.060000e-06	-3.317898e-06	-2.338193e-09	-2.358128e+01	-1.571322e+02
1.070000e-06	-3.281557e-06	-2.332161e-09	-2.332299e+01	-1.566982e+02
1.080000e-06	-3.245089e-06	-2.322066e-09	-2.306380e+01	-1.562576e+02
1.090000e-06	-3.208455e-06	-2.314229e-09	-2.280344e+01	-1.558106e+02
1.100000e-06	-3.171549e-06	-2.311396e-09	-2.254114e+01	-1.553575e+02
1.110000e-06	-3.134325e-06	-2.307080e-09	-2.227657e+01	-1.548988e+02
1.120000e-06	-3.096812e-06	-2.298073e-09	-2.200996e+01	-1.544346e+02
1.130000e-06	-3.059007e-06	-2.288107e-09	-2.174127e+01	-1.539654e+02
1.140000e-06	-3.021039e-06	-2.279097e-09	-2.147142e+01	-1.534914e+02
1.150000e-06	-2.982912e-06	-2.270180e-09	-2.120044e+01	-1.530130e+02
1.160000e-06	-2.944583e-06	-2.261115e-09	-2.092802e+01	-1.525305e+02
1.170000e-06	-2.906021e-06	-2.251344e-09	-2.065395e+01	-1.520440e+02
1.180000e-06	-2.867238e-06	-2.244547e-09	-2.037831e+01	-1.515537e+02
1.190000e-06	-2.828379e-06	-2.238754e-09	-2.010213e+01	-1.510598e+02
1.200000e-06	-2.789309e-06	-2.230968e-09	-1.982444e+01	-1.505622e+02
1.210000e-06	-2.749976e-06	-2.220293e-09	-1.954489e+01	-1.500609e+02
1.220000e-06	-2.710511e-06	-2.211610e-09	-1.926440e+01	-1.495557e+02
1.230000e-06	-2.670938e-06	-2.202420e-09	-1.898315e+01	-1.490464e+02
1.240000e-06	-2.631220e-06	-2.192160e-09	-1.870085e+01	-1.485325e+02
1.250000e-06	-2.591356e-06	-2.180362e-09	-1.841754e+01	-1.480137e+02
1.260000e-06	-2.551395e-06	-2.170290e-09	-1.813352e+01	-1.474893e+02
1.270000e-06	-2.511347e-06	-2.160449e-09	-1.784889e+01	-1.469586e+02
1.280000e-06	-2.471186e-06	-2.152171e-09	-1.756345e+01	-1.464209e+02
1.290000e-06	-2.430815e-06	-2.144238e-09	-1.727652e+01	-1.458753e+02
1.300000e-06	-2.390241e-06	-2.137482e-09	-1.698815e+01	-1.453207e+02
1.310000e-06	-2.349535e-06	-2.130992e-09	-1.669884e+01	-1.447563e+02
1.320000e-06	-2.308612e-06	-2.122100e-09	-1.640799e+01	-1.441809e+02
1.330000e-06	-2.267449e-06	-2.108462e-09	-1.611543e+01	-1.435934e+02
1.340000e-06	-2.225963e-06	-2.094576e-09	-1.582057e+01	-1.429926e+02
1.350000e-06	-2.184198e-06	-2.082258e-09	-1.552374e+01	-1.423774e+02
1.360000e-06	-2.142202e-06	-2.070221e-09	-1.522526e+01	-1.417466e+02
1.370000e-06	-2.099845e-06	-2.057665e-09	-1.492422e+01	-1.410990e+02
1.380000e-06	-2.057163e-06	-2.046359e-09	-1.462086e+01	-1.404337e+02
1.390000e-06	-2.014274e-06	-2.036377e-09	-1.431604e+01	-1.397495e+02
1.400000e-06	-1.971220e-06	-2.026300e-09	-1.401004e+01	-1.390456e+02
1.410000e-06	-1.928028e-06	-2.013954e-09	-1.370306e+01	-1.383210e+02
1.420000e-06	-1.884720e-06	-2.000166e-09	-1.339526e+01	-1.375750e+02
1.430000e-06	-1.841216e-06	-1.987139e-09	-1.308606e+01	-1.368070e+02
1.440000e-06	-1.797547e-06	-1.975219e-09	-1.277570e+01	-1.360164e+02
1.450000e-06	-1.753775e-06	-1.962399e-09	-1.246460e+01	-1.352028e+02
1.460000e-06	-1.709963e-06	-1.945960e-09	-1.215321e+01	-1.343658e+02
1.470000e-06	-1.666101e-06	-1.928295e-09	-1.184147e+01	-1.335054e+02
1.480000e-06	-1.622141e-06	-1.911561e-09	-1.152904e+01	-1.326214e+02
1.490000e-06	-1.578144e-06	-1.895106e-09	-1.121634e+01	-1.317138e+02
1.500000e-06	-1.534104e-06	-1.880293e-09	-1.090333e+01	-1.307827e+02
1.510000e-06	-1.490014e-06	-1.870409e-09	-1.058997e+01	-1.298284e+02
1.520000e-06	-1.445915e-06	-1.860808e-09	-1.027655e+01	-1.288509e+02
1.530000e-06	-1.401718e-06	-1.846462e-09	-9.962424e+00	-1.278506e+02
1.540000e-06	-1.357372e-06	-1.827310e-09	-9.647243e+00	-1.268276e+02
1.550000e-06	-1.312899e-06	-1.805621e-09	-9.331159e+00	-1.257822e+02
1.560000e-06	-1.268363e-06	-1.784635e-09	-9.014627e+00	-1.247146e+02
1.570000e-06	-1.223833e-06	-1.767205e-09	-8.698142e+00	-1.236248e+02
1.580000e-06	-1.179166e-06	-1.752542e-09	-8.380677e+00	-1.225127e+02
1.590000e-06	-1.134277e-06	-1.741793e-09	-8.061642e+00	-1.213784e+02
1.600000e-06	-1.089270e-06	-1.731647e-09	-7.741762e+00	-1.202214e+02
1.610000e-06	-1.044163e-06	-1.718649e-09	-7.421177e+00	-1.190413e+02
1.620000e-06	-9.989535e-07	-1.699441e-09	-7.099857e+00	-1.178375e+02
1.630000e-06	-9.536975e-07	-1.674325e-09	-6.778210e+00	-1.166091e+02
1.640000e-06	-9.084014e-07	-1.647197e-09	-6.456277e+00	-1.153550e+02
1.650000e-06	-8.630662e-07	-1.621713e-09	-6.134066e+00	-1.140740e+02
1.660000e-06	-8.177344e-07	-1.600616e-09	-5.811880e+00	-1.127645e+02
1.670000e-06	-7.724303e-07	-1.584976e-09	-5.489890e+00	-1.114249e+02
1.680000e-06	-7.271028e-07	-1.571993e-09	-5.167734e+00	-1.100531e+02
1.690000e-06	-6.816871e-07	-1.555797e-09	-4.844951e+00	-1.086470e+02
1.700000e-06	-6.361444e-07	-1.533713e-09	-4.521266e+00	-1.072044e+02
1.710000e-06	-5.905172e-07	-1.505154e-09	-4.196980e+00	-1.057227e+02
1.720000e-06	-5.448730e-07	-1.473183e-09	-3.872573e+00	-1.041993e+02
1.730000e-06	-4.991802e-07	-1.445035e-09	-3.547821e+00	-1.026316e+02
1.740000e-06	-4.534367e-07	-1.422178e-09	-3.222708e+00	-1.010168e+02
1.750000e-06	-4.077028e-07	-1.404302e-09	-2.897664e+00	-9.935200e+01
1.760000e-06	-3.619327e-07	-1.389204e-09	-2.572363e+00	-9.763448e+01
1.770000e-06	-3.161070e-07	-1.368958e-09	-2.246666e+00	-9.586151e+01
1.780000e-06	-2.702876e-07	-1.340291e-09	-1.921014e+00	-9.403042e+01
1.790000e-06	-2.244874e-07	-1.304193e-09	-1.595499e+00	-9.213872e+01
1.800000e-06	-1.786308e-07	-1.264236e-09	-1.269582e+00	-9.018407e+01
1.810000e-06	-1.326611e-07	-1.227969e-09	-9.428616e-01	-8.816436e+01
1.820000e-06	-8.676750e-08	-1.199605e-09	-6.166822e-01	-8.607774e+01
1.830000e-06	-4.093700e-08	-1.178334e-09	-2.909513e-01	-8.392262e+01
1.840000e-06	5.010404e-09	-1.160371e-09	3.561042e-02	-8.169776e+01
1.850000e-06	5.094437e-08	-1.136716e-09	3.620767e-01	-7.940226e+01
1.860000e-06	9.678830e-08	-1.100855e-09	6.879030e-01	-7.703556e+01
1.870000e-06	1.425688e-07	-1.054666e-09	1.013278e+00	-7.459752e+01
1.880000e-06	1.883976e-07	-1.005882e-09	1.338997e+00	-7.208837e+01
1.890000e-06	2.342750e-07	-9.597718e-10	1.665061e+00	-6.950875e+01
1.900000e-06	2.800635e-07	-9.195435e-10	1.990494e+00	-6.685969e+01
1.910000e-06	3.258066e-07	-8.836788e-10	2.315604e+00	-6.414260e+01
1.920000e-06	3.715533e-07	-8.505692e-10	2.640739e+00	-6.135928e+01
1.930000e-06	4.172375e-07	-8.184470e-10	2.965430e+00	-5.851189e+01
1.940000e-06	4.628778e-07	-7.795876e-10	3.289809e+00	-5.560293e+01
1.950000e-06	5.085334e-07	-7.301035e-10	3.614297e+00	-5.263518e+01
1.960000e-06	5.541339e-07	-6.758924e-10	3.938393e+00	-4.961172e+01
1.970000e-06	5.996389e-07	-6.234416e-10	4.261811e+00	-4.653588e+01
1.980000e-06	6.450839e-07	-5.743322e-10	4.584802e+00	-4.341115e+01
1.990000e-06	6.905053e-07	-5.292585e-10	4.907625e+00	-4.024122e+01
2.000000e-06	7.359301e-07	-4.891934e-10	5.230472e+00	-3.702989e+01
2.010000e-06	7.813068e-07	-4.509586e-10	5.552978e+00	-3.378105e+01
2.020000e-06	8.266555e-07	-4.085856e-10	5.875285e+00	-3.049860e+01
2.030000e-06	8.720029e-07	-3.586303e-10	6.197582e+00	-2.718648e+01
2.040000e-06	9.173395e-07	-3.009127e-10	6.519803e+00	-2.384856e+01
2.050000e-06	9.626545e-07	-2.428325e-10	6.841870e+00	-2.048866e+01
2.060000e-06	1.007787e-06	-1.902696e-10	7.162641e+00	-1.711050e+01
2.070000e-06	1.052676e-06	-1.420309e-10	7.481680e+00	-1.371765e+01
2.080000e-06	1.097475e-06	-9.666266e-11	7.800082e+00	-1.031354e+01
2.090000e-06	1.142241e-06	-5.437972e-11	8.118245e+00	-6.901441e+00
2.100000e-06	1.186884e-06	-1.320862e-11	8.435533e+00	-3.484425e+00
2.110000e-06	1.231441e-06	3.438410e-11	8.752214e+00	-6.537923e-02
2.120000e-06	1.275957e-06	9.043546e-11	9.068600e+00	3.353006e+00
2.130000e-06	1.320356e-06	1.509716e-10	9.384159e+00	6.768231e+00
2.140000e-06	1.364660e-06	2.072207e-10	9.699043e+00	1.017799e+01
2.150000e-06	1.408905e-06	2.582352e-10	1.001351e+01	1.358014e+01
2.160000e-06	1.453094e-06	3.069757e-10	1.032757e+01	1.697271e+01
2.170000e-06	1.497237e-06	3.531146e-10	1.064130e+01	2.035387e+01
2.180000e-06	1.541299e-06	3.967068e-10	1.095447e+01	2.372193e+01
2.190000e-06	1.585294e-06	4.398639e-10	1.126715e+01	2.707527e+01
2.200000e-06	1.629274e-06	4.868822e-10	1.157973e+01	3.041239e+01
2.210000e-06	1.673216e-06	5.383098e-10	1.189204e+01	3.373181e+01
2.220000e-06	1.717051e-06	5.907091e-10	1.220359e+01	3.703209e+01
2.230000e-06	1.760746e-06	6.410017e-10	1.251414e+01	4.031180e+01
2.240000e-06	1.804379e-06	6.890490e-10	1.282425e+01	4.356950e+01
2.250000e-06	1.847990e-06	7.357315e-10	1.313421e+01	4.680372e+01
2.260000e-06	1.891388e-06	7.804372e-10	1.344265e+01	5.001291e+01
2.270000e-06	1.934605e-06	8.230558e-10	1.374981e+01	5.319548e+01
2.280000e-06	1.977738e-06	8.658004e-10	1.405637e+01	5.634976e+01
2.290000e-06	2.020657e-06	9.092396e-10	1.436141e+01	5.947399e+01
2.300000e-06	2.063314e-06	9.533691e-10	1.466458e+01	6.256633e+01
2.310000e-06	2.105696e-06	9.956775e-10	1.496580e+01	6.562485e+01
2.320000e-06	2.147854e-06	1.037977e-09	1.526543e+01	6.864756e+01
2.330000e-06	2.189759e-06	1.082329e-09	1.556327e+01	7.163237e+01
2.340000e-06	2.231379e-06	1.127344e-09	1.585907e+01	7.457716e+01
2.350000e-06	2.272665e-06	1.172304e-09	1.615250e+01	7.747976e+01
2.360000e-06	2.313706e-06	1.215831e-09	1.644419e+01	8.033801e+01
2.370000e-06	2.354455e-06	1.253594e-09	1.673381e+01	8.314971e+01
2.380000e-06	2.394931e-06	1.286772e-09	1.702148e+01	8.591272e+01
2.390000e-06	2.435304e-06	1.320875e-09	1.730842e+01	8.862495e+01
2.400000e-06	2.475561e-06	1.356092e-09	1.759454e+01	9.128440e+01
2.410000e-06	2.515695e-06	1.391607e-09	1.787978e+01	9.388918e+01
2.420000e-06	2.555664e-06	1.429952e-09	1.816386e+01	9.643751e+01
2.430000e-06	2.595525e-06	1.471853e-09	1.844716e+01	9.892782e+01
2.440000e-06	2.635305e-06	1.513416e-09	1.872989e+01	1.013587e+02
2.450000e-06	2.675034e-06	1.547143e-09	1.901225e+01	1.037289e+02
2.460000e-06	2.714686e-06	1.574971e-09	1.929407e+01	1.060375e+02
2.470000e-06	2.754165e-06	1.600517e-09	1.957466e+01	1.082838e+02
2.480000e-06	2.793487e-06	1.626539e-09	1.985414e+01	1.104672e+02
2.490000e-06	2.832590e-06	1.654795e-09	2.013205e+01	1.125876e+02
2.500000e-06	2.871363e-06	1.685952e-09	2.040763e+01	1.146450e+02
2.510000e-06	2.909830e-06	1.721067e-09	2.068102e+01	1.166397e+02
2.520000e-06	2.948097e-06	1.755292e-09	2.095300e+01	1.185722e+02
2.530000e-06	2.986174e-06	1.783170e-09	2.122362e+01	1.204433e+02
2.540000e-06	3.024026e-06	1.804677e-09	2.149265e+01	1.222542e+02
2.550000e-06	3.061739e-06	1.825118e-09	2.176068e+01	1.240059e+02
2.560000e-06	3.099357e-06	1.846666e-09	2.202804e+01	1.256999e+02
2.570000e-06	3.136756e-06	1.868807e-09	2.229385e+01	1.273378e+02
2.580000e-06	3.173848e-06	1.892750e-09	2.255747e+01	1.289214e+02
2.590000e-06	3.210701e-06	1.919398e-09	2.281940e+01	1.304525e+02
2.600000e-06	3.247369e-06	1.945915e-09	2.308001e+01	1.319330e+02
2.610000e-06	3.283811e-06	1.967831e-09	2.333902e+01	1.333649e+02
2.620000e-06	3.320028e-06	1.985126e-09	2.359642e+01	1.347501e+02
2.630000e-06	3.356130e-06	2.003237e-09	2.385301e+01	1.360908e+02
2.640000e-06	3.392126e-06	2.022398e-09	2.410884e+01	1.373888e+02
2.650000e-06	3.427972e-06	2.039116e-09	2.436361e+01	1.386460e+02
2.660000e-06	3.463653e-06	2.054763e-09	2.461720e+01	1.398642e+02
2.670000e-06	3.499124e-06	2.073980e-09	2.486930e+01	1.410452e+02
2.680000e-06	3.534350e-06	2.094990e-09	2.511967e+01	1.421906e+02
2.690000e-06	3.569299e-06	2.112738e-09	2.536806e+01	1.433017e+02
2.700000e-06	3.603800e-06	2.125725e-09	2.561327e+01	1.443800e+02
2.710000e-06	3.637816e-06	2.139160e-09	2.585503e+01	1.454265e+02
2.720000e-06	3.671444e-06	2.155949e-09	2.609403e+01	1.464424e+02
2.730000e-06	3.704739e-06	2.172689e-09	2.633067e+01	1.474284e+02
2.740000e-06	3.737666e-06	2.187848e-09	2.656470e+01	1.483853e+02
2.750000e-06	3.770215e-06	2.202427e-09	2.679603e+01	1.493137e+02
2.760000e-06	3.802504e-06	2.216816e-09	2.702552e+01	1.502141e+02
2.770000e-06	3.834633e-06	2.228809e-09	2.725387e+01	1.510869e+02
2.780000e-06	3.866600e-06	2.238740e-09	2.748107e+01	1.519323e+02
2.790000e-06	3.898282e-06	2.250965e-09	2.770624e+01	1.527505e+02
2.800000e-06	3.929728e-06	2.266056e-09	2.792973e+01	1.535417e+02
2.810000e-06	3.961030e-06	2.281934e-09	2.815221e+01	1.543061e+02
2.820000e-06	3.992053e-06	2.294961e-09	2.837270e+01	1.550438e+02
2.830000e-06	4.022790e-06	2.304917e-09	2.859116e+01	1.557549e+02
2.840000e-06	4.053277e-06	2.313023e-09	2.880784e+01	1.564396e+02
2.850000e-06	4.083396e-06	2.319289e-09	2.902190e+01	1.570982e+02
2.860000e-06	4.113188e-06	2.327089e-09	2.923364e+01	1.577309e+02
2.870000e-06	4.142708e-06	2.336847e-09	2.944345e+01	1.583381e+02
2.880000e-06	4.171975e-06	2.347323e-09	2.965146e+01	1.589202e+02
2.890000e-06	4.200973e-06	2.355809e-09	2.985755e+01	1.594778e+02
2.900000e-06	4.229692e-06	2.363029e-09	3.006167e+01	1.600115e+02
