# Temperatura_=_13.82
# Concentracion g/m^3_=_4090.0
# C_Vs_to_Am_M_A/Vsm_=_65563218390.804596
# pendiente_HvsI_1/m_=_3716.3
# ordenada_HvsI_A/m_=_1297.0
# frecuencia_Hz_=_135081.0223547115

Tiempo_(s)	Campo_(V.s)	Magnetizacion_(V.s)	Campo_(kA/m)	Magnetizacion_(A/m)
0.000000e+00	-5.422490e-06	-2.696715e-09	-3.839567e+01	-1.742997e+02
1.000000e-08	-5.422438e-06	-2.696275e-09	-3.839530e+01	-1.742687e+02
2.000000e-08	-5.422190e-06	-2.696425e-09	-3.839355e+01	-1.742387e+02
3.000000e-08	-5.421737e-06	-2.695843e-09	-3.839034e+01	-1.742108e+02
4.000000e-08	-5.420824e-06	-2.692810e-09	-3.838387e+01	-1.741858e+02
5.000000e-08	-5.419373e-06	-2.693107e-09	-3.837360e+01	-1.741651e+02
6.000000e-08	-5.417467e-06	-2.704552e-09	-3.836010e+01	-1.741495e+02
7.000000e-08	-5.415047e-06	-2.677059e-09	-3.834296e+01	-1.741400e+02
8.000000e-08	-5.411896e-06	-2.622957e-09	-3.832065e+01	-1.741376e+02
9.000000e-08	-5.408107e-06	-2.682585e-09	-3.829382e+01	-1.741431e+02
1.000000e-07	-5.403917e-06	-2.802172e-09	-3.826416e+01	-1.741573e+02
1.100000e-07	-5.399467e-06	-2.711447e-09	-3.823265e+01	-1.741806e+02
1.200000e-07	-5.394910e-06	-2.584404e-09	-3.820038e+01	-1.742135e+02
1.300000e-07	-5.390105e-06	-2.633713e-09	-3.816636e+01	-1.742564e+02
1.400000e-07	-5.384844e-06	-2.804975e-09	-3.812911e+01	-1.743093e+02
1.500000e-07	-5.379092e-06	-2.684967e-09	-3.808838e+01	-1.743722e+02
1.600000e-07	-5.373012e-06	-2.501136e-09	-3.804533e+01	-1.744448e+02
1.700000e-07	-5.366673e-06	-2.628702e-09	-3.800044e+01	-1.745267e+02
1.800000e-07	-5.359841e-06	-2.798019e-09	-3.795206e+01	-1.746172e+02
1.900000e-07	-5.352490e-06	-2.709524e-09	-3.790001e+01	-1.747156e+02
2.000000e-07	-5.344881e-06	-2.563603e-09	-3.784613e+01	-1.748210e+02
2.100000e-07	-5.337124e-06	-2.699570e-09	-3.779121e+01	-1.749322e+02
2.200000e-07	-5.329092e-06	-2.755498e-09	-3.773434e+01	-1.750481e+02
2.300000e-07	-5.320729e-06	-2.640532e-09	-3.767512e+01	-1.751673e+02
2.400000e-07	-5.312132e-06	-2.616835e-09	-3.761424e+01	-1.752884e+02
2.500000e-07	-5.303042e-06	-2.779905e-09	-3.754988e+01	-1.754098e+02
2.600000e-07	-5.293028e-06	-2.758974e-09	-3.747897e+01	-1.755300e+02
2.700000e-07	-5.282353e-06	-2.656635e-09	-3.740339e+01	-1.756476e+02
2.800000e-07	-5.271322e-06	-2.731838e-09	-3.732527e+01	-1.757608e+02
2.900000e-07	-5.259824e-06	-2.817778e-09	-3.724386e+01	-1.758681e+02
3.000000e-07	-5.247917e-06	-2.670812e-09	-3.715955e+01	-1.759681e+02
3.100000e-07	-5.235703e-06	-2.626228e-09	-3.707307e+01	-1.760593e+02
3.200000e-07	-5.223106e-06	-2.777145e-09	-3.698386e+01	-1.761404e+02
3.300000e-07	-5.210115e-06	-2.785225e-09	-3.689188e+01	-1.762101e+02
3.400000e-07	-5.196704e-06	-2.662739e-09	-3.679692e+01	-1.762674e+02
3.500000e-07	-5.182820e-06	-2.702427e-09	-3.669861e+01	-1.763112e+02
3.600000e-07	-5.168550e-06	-2.763850e-09	-3.659757e+01	-1.763408e+02
3.700000e-07	-5.153934e-06	-2.691359e-09	-3.649407e+01	-1.763555e+02
3.800000e-07	-5.138755e-06	-2.678552e-09	-3.638660e+01	-1.763547e+02
3.900000e-07	-5.122873e-06	-2.719427e-09	-3.627414e+01	-1.763381e+02
4.000000e-07	-5.106450e-06	-2.678006e-09	-3.615785e+01	-1.763056e+02
4.100000e-07	-5.089774e-06	-2.677637e-09	-3.603977e+01	-1.762570e+02
4.200000e-07	-5.072855e-06	-2.762411e-09	-3.591997e+01	-1.761925e+02
4.300000e-07	-5.055541e-06	-2.717808e-09	-3.579737e+01	-1.761124e+02
4.400000e-07	-5.037956e-06	-2.645361e-09	-3.567285e+01	-1.760169e+02
4.500000e-07	-5.020099e-06	-2.688091e-09	-3.554641e+01	-1.759067e+02
4.600000e-07	-5.001883e-06	-2.726773e-09	-3.541743e+01	-1.757823e+02
4.700000e-07	-4.983256e-06	-2.656708e-09	-3.528553e+01	-1.756443e+02
4.800000e-07	-4.964243e-06	-2.652870e-09	-3.515091e+01	-1.754935e+02
4.900000e-07	-4.944860e-06	-2.686049e-09	-3.501366e+01	-1.753307e+02
5.000000e-07	-4.925146e-06	-2.695058e-09	-3.487406e+01	-1.751568e+02
5.100000e-07	-4.905193e-06	-2.687809e-09	-3.473278e+01	-1.749726e+02
5.200000e-07	-4.884969e-06	-2.685007e-09	-3.458958e+01	-1.747790e+02
5.300000e-07	-4.864491e-06	-2.655241e-09	-3.444458e+01	-1.745769e+02
5.400000e-07	-4.843790e-06	-2.674647e-09	-3.429800e+01	-1.743671e+02
5.500000e-07	-4.822718e-06	-2.687614e-09	-3.414879e+01	-1.741504e+02
5.600000e-07	-4.801220e-06	-2.652503e-09	-3.399657e+01	-1.739277e+02
5.700000e-07	-4.779443e-06	-2.630075e-09	-3.384237e+01	-1.736996e+02
5.800000e-07	-4.757375e-06	-2.665126e-09	-3.368611e+01	-1.734669e+02
5.900000e-07	-4.735027e-06	-2.671820e-09	-3.352787e+01	-1.732303e+02
6.000000e-07	-4.712331e-06	-2.653448e-09	-3.336716e+01	-1.729903e+02
6.100000e-07	-4.689179e-06	-2.636582e-09	-3.320323e+01	-1.727475e+02
6.200000e-07	-4.665738e-06	-2.632978e-09	-3.303725e+01	-1.725024e+02
6.300000e-07	-4.642071e-06	-2.640767e-09	-3.286967e+01	-1.722553e+02
6.400000e-07	-4.618175e-06	-2.639285e-09	-3.270046e+01	-1.720067e+02
6.500000e-07	-4.594093e-06	-2.611667e-09	-3.252994e+01	-1.717569e+02
6.600000e-07	-4.569754e-06	-2.600914e-09	-3.235760e+01	-1.715062e+02
6.700000e-07	-4.545073e-06	-2.620912e-09	-3.218284e+01	-1.712548e+02
6.800000e-07	-4.519994e-06	-2.620816e-09	-3.200526e+01	-1.710029e+02
6.900000e-07	-4.494393e-06	-2.599318e-09	-3.182398e+01	-1.707506e+02
7.000000e-07	-4.468289e-06	-2.587347e-09	-3.163915e+01	-1.704981e+02
7.100000e-07	-4.441738e-06	-2.595777e-09	-3.145114e+01	-1.702454e+02
7.200000e-07	-4.414693e-06	-2.597434e-09	-3.125964e+01	-1.699927e+02
7.300000e-07	-4.387229e-06	-2.588961e-09	-3.106517e+01	-1.697399e+02
7.400000e-07	-4.359417e-06	-2.567157e-09	-3.086824e+01	-1.694871e+02
7.500000e-07	-4.331370e-06	-2.565383e-09	-3.066964e+01	-1.692342e+02
7.600000e-07	-4.303201e-06	-2.569772e-09	-3.047019e+01	-1.689811e+02
7.700000e-07	-4.274900e-06	-2.563611e-09	-3.026979e+01	-1.687279e+02
7.800000e-07	-4.246343e-06	-2.542475e-09	-3.006758e+01	-1.684742e+02
7.900000e-07	-4.217528e-06	-2.541753e-09	-2.986355e+01	-1.682200e+02
8.000000e-07	-4.188380e-06	-2.546968e-09	-2.965716e+01	-1.679651e+02
8.100000e-07	-4.158848e-06	-2.545584e-09	-2.944805e+01	-1.677093e+02
8.200000e-07	-4.128997e-06	-2.528838e-09	-2.923668e+01	-1.674521e+02
8.300000e-07	-4.098904e-06	-2.519385e-09	-2.902360e+01	-1.671935e+02
8.400000e-07	-4.068542e-06	-2.519930e-09	-2.880861e+01	-1.669329e+02
8.500000e-07	-4.037926e-06	-2.523313e-09	-2.859182e+01	-1.666700e+02
8.600000e-07	-4.007136e-06	-2.508782e-09	-2.837380e+01	-1.664043e+02
8.700000e-07	-3.976096e-06	-2.495500e-09	-2.815402e+01	-1.661353e+02
8.800000e-07	-3.944722e-06	-2.494757e-09	-2.793187e+01	-1.658625e+02
8.900000e-07	-3.913003e-06	-2.502183e-09	-2.770726e+01	-1.655854e+02
9.000000e-07	-3.881044e-06	-2.495093e-09	-2.748097e+01	-1.653033e+02
9.100000e-07	-3.848956e-06	-2.483615e-09	-2.725376e+01	-1.650158e+02
9.200000e-07	-3.816761e-06	-2.481175e-09	-2.702579e+01	-1.647221e+02
9.300000e-07	-3.784375e-06	-2.485593e-09	-2.679647e+01	-1.644217e+02
9.400000e-07	-3.751646e-06	-2.478240e-09	-2.656473e+01	-1.641140e+02
9.500000e-07	-3.718538e-06	-2.459064e-09	-2.633029e+01	-1.637985e+02
9.600000e-07	-3.685127e-06	-2.448664e-09	-2.609371e+01	-1.634745e+02
9.700000e-07	-3.651232e-06	-2.453271e-09	-2.585371e+01	-1.631416e+02
9.800000e-07	-3.616900e-06	-2.458132e-09	-2.561061e+01	-1.627995e+02
9.900000e-07	-3.582288e-06	-2.451246e-09	-2.536553e+01	-1.624477e+02
1.000000e-06	-3.547329e-06	-2.447138e-09	-2.511799e+01	-1.620859e+02
1.010000e-06	-3.512009e-06	-2.447957e-09	-2.486790e+01	-1.617140e+02
1.020000e-06	-3.476349e-06	-2.445833e-09	-2.461540e+01	-1.613319e+02
1.030000e-06	-3.440476e-06	-2.428023e-09	-2.436139e+01	-1.609396e+02
1.040000e-06	-3.404451e-06	-2.409255e-09	-2.410630e+01	-1.605372e+02
1.050000e-06	-3.368268e-06	-2.398871e-09	-2.385009e+01	-1.601248e+02
1.060000e-06	-3.331957e-06	-2.397716e-09	-2.359298e+01	-1.597029e+02
1.070000e-06	-3.295542e-06	-2.390935e-09	-2.333513e+01	-1.592718e+02
1.080000e-06	-3.258881e-06	-2.382711e-09	-2.307555e+01	-1.588320e+02
1.090000e-06	-3.221846e-06	-2.378423e-09	-2.281331e+01	-1.583842e+02
1.100000e-06	-3.184547e-06	-2.379297e-09	-2.254920e+01	-1.579290e+02
1.110000e-06	-3.147097e-06	-2.368143e-09	-2.228403e+01	-1.574671e+02
1.120000e-06	-3.109480e-06	-2.351132e-09	-2.201767e+01	-1.569993e+02
1.130000e-06	-3.071658e-06	-2.339681e-09	-2.174985e+01	-1.565264e+02
1.140000e-06	-3.033627e-06	-2.336742e-09	-2.148056e+01	-1.560492e+02
1.150000e-06	-2.995423e-06	-2.330636e-09	-2.121005e+01	-1.555685e+02
1.160000e-06	-2.957045e-06	-2.321240e-09	-2.093830e+01	-1.550850e+02
1.170000e-06	-2.918428e-06	-2.309927e-09	-2.066486e+01	-1.545995e+02
1.180000e-06	-2.879610e-06	-2.305177e-09	-2.039000e+01	-1.541126e+02
1.190000e-06	-2.840521e-06	-2.300440e-09	-2.011322e+01	-1.536248e+02
1.200000e-06	-2.801154e-06	-2.288798e-09	-1.983447e+01	-1.531365e+02
1.210000e-06	-2.761608e-06	-2.273265e-09	-1.955445e+01	-1.526480e+02
1.220000e-06	-2.721926e-06	-2.262764e-09	-1.927346e+01	-1.521594e+02
1.230000e-06	-2.682151e-06	-2.255214e-09	-1.899182e+01	-1.516706e+02
1.240000e-06	-2.642196e-06	-2.246078e-09	-1.870891e+01	-1.511816e+02
1.250000e-06	-2.602089e-06	-2.237471e-09	-1.842492e+01	-1.506920e+02
1.260000e-06	-2.561868e-06	-2.229116e-09	-1.814012e+01	-1.502011e+02
1.270000e-06	-2.521588e-06	-2.223168e-09	-1.785491e+01	-1.497083e+02
1.280000e-06	-2.481314e-06	-2.215032e-09	-1.756973e+01	-1.492126e+02
1.290000e-06	-2.440945e-06	-2.203275e-09	-1.728389e+01	-1.487130e+02
1.300000e-06	-2.400326e-06	-2.191931e-09	-1.699627e+01	-1.482084e+02
1.310000e-06	-2.359469e-06	-2.185796e-09	-1.670697e+01	-1.476973e+02
1.320000e-06	-2.318444e-06	-2.178928e-09	-1.641648e+01	-1.471783e+02
1.330000e-06	-2.277132e-06	-2.168400e-09	-1.612396e+01	-1.466499e+02
1.340000e-06	-2.235473e-06	-2.156913e-09	-1.582898e+01	-1.461105e+02
1.350000e-06	-2.193585e-06	-2.150937e-09	-1.553238e+01	-1.455584e+02
1.360000e-06	-2.151436e-06	-2.144426e-09	-1.523393e+01	-1.449919e+02
1.370000e-06	-2.108970e-06	-2.134809e-09	-1.493324e+01	-1.444093e+02
1.380000e-06	-2.066281e-06	-2.122517e-09	-1.463096e+01	-1.438091e+02
1.390000e-06	-2.023329e-06	-2.111220e-09	-1.432683e+01	-1.431897e+02
1.400000e-06	-1.980093e-06	-2.100048e-09	-1.402068e+01	-1.425496e+02
1.410000e-06	-1.936657e-06	-2.088424e-09	-1.371312e+01	-1.418874e+02
1.420000e-06	-1.893166e-06	-2.072615e-09	-1.340517e+01	-1.412020e+02
1.430000e-06	-1.849583e-06	-2.057770e-09	-1.309656e+01	-1.404922e+02
1.440000e-06	-1.805863e-06	-2.046758e-09	-1.278699e+01	-1.397573e+02
1.450000e-06	-1.762012e-06	-2.037316e-09	-1.247649e+01	-1.389964e+02
1.460000e-06	-1.718018e-06	-2.021537e-09	-1.216497e+01	-1.382090e+02
1.470000e-06	-1.673949e-06	-2.003499e-09	-1.185293e+01	-1.373947e+02
1.480000e-06	-1.629818e-06	-1.989349e-09	-1.154045e+01	-1.365535e+02
1.490000e-06	-1.585577e-06	-1.977880e-09	-1.122719e+01	-1.356852e+02
1.500000e-06	-1.541284e-06	-1.964852e-09	-1.091355e+01	-1.347900e+02
1.510000e-06	-1.497019e-06	-1.949213e-09	-1.060012e+01	-1.338683e+02
1.520000e-06	-1.452705e-06	-1.934762e-09	-1.028634e+01	-1.329203e+02
1.530000e-06	-1.408287e-06	-1.922835e-09	-9.971824e+00	-1.319467e+02
1.540000e-06	-1.363769e-06	-1.908840e-09	-9.656600e+00	-1.309479e+02
1.550000e-06	-1.319137e-06	-1.890853e-09	-9.340572e+00	-1.299247e+02
1.560000e-06	-1.274423e-06	-1.873406e-09	-9.023960e+00	-1.288775e+02
1.570000e-06	-1.229719e-06	-1.858280e-09	-8.707415e+00	-1.278070e+02
1.580000e-06	-1.184997e-06	-1.844960e-09	-8.390746e+00	-1.267137e+02
1.590000e-06	-1.140201e-06	-1.831078e-09	-8.073557e+00	-1.255979e+02
1.600000e-06	-1.095316e-06	-1.815249e-09	-7.755731e+00	-1.244599e+02
1.610000e-06	-1.050242e-06	-1.797479e-09	-7.436573e+00	-1.232999e+02
1.620000e-06	-1.005062e-06	-1.778283e-09	-7.116660e+00	-1.221178e+02
1.630000e-06	-9.597696e-07	-1.755054e-09	-6.795955e+00	-1.209133e+02
1.640000e-06	-9.143549e-07	-1.732496e-09	-6.474382e+00	-1.196858e+02
1.650000e-06	-8.688482e-07	-1.714502e-09	-6.152157e+00	-1.184346e+02
1.660000e-06	-8.233060e-07	-1.699721e-09	-5.829681e+00	-1.171587e+02
1.670000e-06	-7.777893e-07	-1.683733e-09	-5.507385e+00	-1.158567e+02
1.680000e-06	-7.321817e-07	-1.663809e-09	-5.184446e+00	-1.145272e+02
1.690000e-06	-6.864769e-07	-1.638975e-09	-4.860819e+00	-1.131683e+02
1.700000e-06	-6.408088e-07	-1.617328e-09	-4.537451e+00	-1.117780e+02
1.710000e-06	-5.950969e-07	-1.598053e-09	-4.213774e+00	-1.103540e+02
1.720000e-06	-5.492548e-07	-1.578040e-09	-3.889173e+00	-1.088939e+02
1.730000e-06	-5.034483e-07	-1.558568e-09	-3.564826e+00	-1.073951e+02
1.740000e-06	-4.576166e-07	-1.539953e-09	-3.240300e+00	-1.058548e+02
1.750000e-06	-4.117119e-07	-1.518172e-09	-2.915258e+00	-1.042701e+02
1.760000e-06	-3.657683e-07	-1.492111e-09	-2.589939e+00	-1.026383e+02
1.770000e-06	-3.197688e-07	-1.463129e-09	-2.264225e+00	-1.009563e+02
1.780000e-06	-2.737034e-07	-1.434704e-09	-1.938044e+00	-9.922135e+01
1.790000e-06	-2.276057e-07	-1.407748e-09	-1.611635e+00	-9.743060e+01
1.800000e-06	-1.815048e-07	-1.379394e-09	-1.285203e+00	-9.558140e+01
1.810000e-06	-1.353912e-07	-1.351443e-09	-9.586807e-01	-9.367124e+01
1.820000e-06	-8.926278e-08	-1.323564e-09	-6.320536e-01	-9.169785e+01
1.830000e-06	-4.313426e-08	-1.293702e-09	-3.054259e-01	-8.965919e+01
1.840000e-06	2.934925e-09	-1.263049e-09	2.078167e-02	-8.755349e+01
1.850000e-06	4.898821e-08	-1.232587e-09	3.468767e-01	-8.537931e+01
1.860000e-06	9.503986e-08	-1.200471e-09	6.729600e-01	-8.313556e+01
1.870000e-06	1.410565e-07	-1.163089e-09	9.987958e-01	-8.082149e+01
1.880000e-06	1.870737e-07	-1.122144e-09	1.324635e+00	-7.843674e+01
1.890000e-06	2.331748e-07	-1.083520e-09	1.651069e+00	-7.598133e+01
1.900000e-06	2.792901e-07	-1.046364e-09	1.977603e+00	-7.345567e+01
1.910000e-06	3.252818e-07	-1.006798e-09	2.303261e+00	-7.086054e+01
1.920000e-06	3.711449e-07	-9.660917e-10	2.628010e+00	-6.819711e+01
1.930000e-06	4.169506e-07	-9.295719e-10	2.952352e+00	-6.546691e+01
1.940000e-06	4.628060e-07	-8.945896e-10	3.277046e+00	-6.267178e+01
1.950000e-06	5.086349e-07	-8.566138e-10	3.601551e+00	-5.981390e+01
1.960000e-06	5.544373e-07	-8.128894e-10	3.925870e+00	-5.689573e+01
1.970000e-06	6.002282e-07	-7.646237e-10	4.250107e+00	-5.391997e+01
1.980000e-06	6.458544e-07	-7.154833e-10	4.573178e+00	-5.088955e+01
1.990000e-06	6.913728e-07	-6.664537e-10	4.895485e+00	-4.780756e+01
2.000000e-06	7.369657e-07	-6.176701e-10	5.218320e+00	-4.467724e+01
2.010000e-06	7.825614e-07	-5.725360e-10	5.541175e+00	-4.150194e+01
2.020000e-06	8.280377e-07	-5.289758e-10	5.863185e+00	-3.828504e+01
2.030000e-06	8.734855e-07	-4.845664e-10	6.184992e+00	-3.502999e+01
2.040000e-06	9.188430e-07	-4.364784e-10	6.506161e+00	-3.174020e+01
2.050000e-06	9.640387e-07	-3.853316e-10	6.826183e+00	-2.841906e+01
2.060000e-06	1.009130e-06	-3.326277e-10	7.145466e+00	-2.506989e+01
2.070000e-06	1.054189e-06	-2.785154e-10	7.464520e+00	-2.169591e+01
2.080000e-06	1.099191e-06	-2.251407e-10	7.783169e+00	-1.830026e+01
2.090000e-06	1.144097e-06	-1.767313e-10	8.101141e+00	-1.488591e+01
2.100000e-06	1.188932e-06	-1.332859e-10	8.418610e+00	-1.145575e+01
2.110000e-06	1.233649e-06	-8.666516e-11	8.735245e+00	-8.012487e+00
2.120000e-06	1.278343e-06	-3.323097e-11	9.051712e+00	-4.558725e+00
2.130000e-06	1.322915e-06	2.369398e-11	9.367324e+00	-1.096918e+00
2.140000e-06	1.367339e-06	7.897363e-11	9.681883e+00	2.370599e+00
2.150000e-06	1.411768e-06	1.335475e-10	9.996472e+00	5.841605e+00
2.160000e-06	1.456129e-06	1.884610e-10	1.031058e+01	9.313969e+00
2.170000e-06	1.500438e-06	2.410976e-10	1.062433e+01	1.278564e+01
2.180000e-06	1.544688e-06	2.897377e-10	1.093766e+01	1.625462e+01
2.190000e-06	1.588838e-06	3.364199e-10	1.125027e+01	1.971896e+01
2.200000e-06	1.632962e-06	3.853992e-10	1.156271e+01	2.317669e+01
2.210000e-06	1.677059e-06	4.378724e-10	1.187495e+01	2.662586e+01
2.220000e-06	1.721112e-06	4.900275e-10	1.218688e+01	3.006447e+01
2.230000e-06	1.765082e-06	5.420305e-10	1.249823e+01	3.349050e+01
2.240000e-06	1.808959e-06	5.946311e-10	1.280891e+01	3.690181e+01
2.250000e-06	1.852749e-06	6.467942e-10	1.311898e+01	4.029623e+01
2.260000e-06	1.896400e-06	6.940140e-10	1.342806e+01	4.367147e+01
2.270000e-06	1.939882e-06	7.355501e-10	1.373595e+01	4.702515e+01
2.280000e-06	1.983224e-06	7.770076e-10	1.404285e+01	5.035479e+01
2.290000e-06	2.026363e-06	8.206855e-10	1.434831e+01	5.365780e+01
2.300000e-06	2.069229e-06	8.678657e-10	1.465183e+01	5.693151e+01
2.310000e-06	2.111908e-06	9.156589e-10	1.495404e+01	6.017317e+01
2.320000e-06	2.154359e-06	9.639894e-10	1.525463e+01	6.337996e+01
2.330000e-06	2.196497e-06	1.015048e-09	1.555299e+01	6.654901e+01
2.340000e-06	2.238395e-06	1.063989e-09	1.584967e+01	6.967742e+01
2.350000e-06	2.279989e-06	1.107746e-09	1.614419e+01	7.276231e+01
2.360000e-06	2.321193e-06	1.148133e-09	1.643595e+01	7.580083e+01
2.370000e-06	2.362154e-06	1.185496e-09	1.672598e+01	7.879017e+01
2.380000e-06	2.402920e-06	1.220997e-09	1.701464e+01	8.172763e+01
2.390000e-06	2.443491e-06	1.256803e-09	1.730192e+01	8.461063e+01
2.400000e-06	2.483903e-06	1.294313e-09	1.758807e+01	8.743676e+01
2.410000e-06	2.524207e-06	1.335730e-09	1.787345e+01	9.020378e+01
2.420000e-06	2.564396e-06	1.378728e-09	1.815802e+01	9.290968e+01
2.430000e-06	2.604489e-06	1.421053e-09	1.844192e+01	9.555268e+01
2.440000e-06	2.644509e-06	1.462186e-09	1.872529e+01	9.813127e+01
2.450000e-06	2.684407e-06	1.497581e-09	1.900780e+01	1.006442e+02
2.460000e-06	2.724193e-06	1.527538e-09	1.928952e+01	1.030907e+02
2.470000e-06	2.763851e-06	1.555130e-09	1.957033e+01	1.054700e+02
2.480000e-06	2.803324e-06	1.583405e-09	1.984983e+01	1.077818e+02
2.490000e-06	2.842441e-06	1.616140e-09	2.012681e+01	1.100262e+02
2.500000e-06	2.881237e-06	1.651010e-09	2.040151e+01	1.122036e+02
2.510000e-06	2.919835e-06	1.686544e-09	2.067482e+01	1.143145e+02
2.520000e-06	2.958216e-06	1.720117e-09	2.094659e+01	1.163599e+02
2.530000e-06	2.996408e-06	1.748666e-09	2.121702e+01	1.183410e+02
2.540000e-06	3.034500e-06	1.774046e-09	2.148674e+01	1.202593e+02
2.550000e-06	3.072450e-06	1.798671e-09	2.175546e+01	1.221163e+02
2.560000e-06	3.110115e-06	1.822393e-09	2.202216e+01	1.239140e+02
2.570000e-06	3.147605e-06	1.846334e-09	2.228762e+01	1.256542e+02
2.580000e-06	3.185004e-06	1.873268e-09	2.255244e+01	1.273391e+02
2.590000e-06	3.222098e-06	1.899975e-09	2.281509e+01	1.289710e+02
2.600000e-06	3.258943e-06	1.923870e-09	2.307599e+01	1.305519e+02
2.610000e-06	3.295576e-06	1.946048e-09	2.333538e+01	1.320841e+02
2.620000e-06	3.331878e-06	1.967925e-09	2.359242e+01	1.335699e+02
2.630000e-06	3.367991e-06	1.991415e-09	2.384813e+01	1.350113e+02
2.640000e-06	3.404035e-06	2.013265e-09	2.410336e+01	1.364103e+02
2.650000e-06	3.440017e-06	2.031786e-09	2.435814e+01	1.377690e+02
2.660000e-06	3.475849e-06	2.050937e-09	2.461186e+01	1.390890e+02
2.670000e-06	3.511416e-06	2.071961e-09	2.486370e+01	1.403720e+02
2.680000e-06	3.546704e-06	2.092092e-09	2.511357e+01	1.416194e+02
2.690000e-06	3.581618e-06	2.108456e-09	2.536079e+01	1.428324e+02
2.700000e-06	3.616173e-06	2.122645e-09	2.560547e+01	1.440121e+02
2.710000e-06	3.650398e-06	2.137856e-09	2.584781e+01	1.451594e+02
2.720000e-06	3.684159e-06	2.155598e-09	2.608687e+01	1.462750e+02
2.730000e-06	3.717490e-06	2.172507e-09	2.632287e+01	1.473592e+02
2.740000e-06	3.750438e-06	2.188516e-09	2.655617e+01	1.484126e+02
2.750000e-06	3.783074e-06	2.206217e-09	2.678726e+01	1.494353e+02
2.760000e-06	3.815468e-06	2.223614e-09	2.701664e+01	1.504273e+02
2.770000e-06	3.847673e-06	2.237985e-09	2.724468e+01	1.513887e+02
2.780000e-06	3.879694e-06	2.251350e-09	2.747141e+01	1.523194e+02
2.790000e-06	3.911559e-06	2.265699e-09	2.769704e+01	1.532192e+02
2.800000e-06	3.943255e-06	2.280533e-09	2.792147e+01	1.540881e+02
2.810000e-06	3.974701e-06	2.294048e-09	2.814414e+01	1.549258e+02
2.820000e-06	4.005891e-06	2.305083e-09	2.836499e+01	1.557322e+02
2.830000e-06	4.036724e-06	2.314700e-09	2.858331e+01	1.565074e+02
2.840000e-06	4.067235e-06	2.323187e-09	2.879936e+01	1.572514e+02
2.850000e-06	4.097516e-06	2.332130e-09	2.901377e+01	1.579643e+02
2.860000e-06	4.127497e-06	2.344967e-09	2.922606e+01	1.586464e+02
2.870000e-06	4.157192e-06	2.359943e-09	2.943632e+01	1.592982e+02
2.880000e-06	4.186658e-06	2.372443e-09	2.964496e+01	1.599202e+02
2.890000e-06	4.215873e-06	2.379027e-09	2.985183e+01	1.605130e+02
2.900000e-06	4.244812e-06	2.382554e-09	3.005675e+01	1.610776e+02
