# Temperatura_=_-1.1
# Concentracion g/m^3_=_4090.0
# C_Vs_to_Am_M_A/Vsm_=_65563218390.804596
# pendiente_HvsI_1/m_=_3716.3
# ordenada_HvsI_A/m_=_1297.0
# frecuencia_Hz_=_135075.08748189363

Tiempo_(s)	Campo_(V.s)	Magnetizacion_(V.s)	Campo_(kA/m)	Magnetizacion_(A/m)
0.000000e+00	-5.403231e-06	-2.659056e-09	-3.839519e+01	-1.684708e+02
1.000000e-08	-5.403243e-06	-2.654051e-09	-3.839528e+01	-1.684577e+02
2.000000e-08	-5.403097e-06	-2.650273e-09	-3.839424e+01	-1.684492e+02
3.000000e-08	-5.402640e-06	-2.649835e-09	-3.839100e+01	-1.684469e+02
4.000000e-08	-5.401724e-06	-2.647769e-09	-3.838448e+01	-1.684521e+02
5.000000e-08	-5.400304e-06	-2.647706e-09	-3.837439e+01	-1.684663e+02
6.000000e-08	-5.398269e-06	-2.665860e-09	-3.835993e+01	-1.684909e+02
7.000000e-08	-5.395543e-06	-2.675305e-09	-3.834057e+01	-1.685270e+02
8.000000e-08	-5.392223e-06	-2.632298e-09	-3.831697e+01	-1.685758e+02
9.000000e-08	-5.388389e-06	-2.589307e-09	-3.828973e+01	-1.686383e+02
1.000000e-07	-5.384163e-06	-2.660476e-09	-3.825970e+01	-1.687151e+02
1.100000e-07	-5.379792e-06	-2.682572e-09	-3.822864e+01	-1.688070e+02
1.200000e-07	-5.375276e-06	-2.651799e-09	-3.819654e+01	-1.689142e+02
1.300000e-07	-5.370407e-06	-2.554557e-09	-3.816195e+01	-1.690369e+02
1.400000e-07	-5.365118e-06	-2.639366e-09	-3.812436e+01	-1.691750e+02
1.500000e-07	-5.359415e-06	-2.706001e-09	-3.808384e+01	-1.693281e+02
1.600000e-07	-5.353363e-06	-2.642421e-09	-3.804083e+01	-1.694957e+02
1.700000e-07	-5.346899e-06	-2.566405e-09	-3.799490e+01	-1.696769e+02
1.800000e-07	-5.340046e-06	-2.624861e-09	-3.794620e+01	-1.698707e+02
1.900000e-07	-5.332884e-06	-2.700531e-09	-3.789531e+01	-1.700759e+02
2.000000e-07	-5.325479e-06	-2.635527e-09	-3.784269e+01	-1.702908e+02
2.100000e-07	-5.317784e-06	-2.611855e-09	-3.778801e+01	-1.705140e+02
2.200000e-07	-5.309824e-06	-2.654197e-09	-3.773144e+01	-1.707435e+02
2.300000e-07	-5.301580e-06	-2.677633e-09	-3.767287e+01	-1.709775e+02
2.400000e-07	-5.292908e-06	-2.611362e-09	-3.761124e+01	-1.712139e+02
2.500000e-07	-5.283648e-06	-2.646735e-09	-3.754544e+01	-1.714507e+02
2.600000e-07	-5.273689e-06	-2.678866e-09	-3.747467e+01	-1.716856e+02
2.700000e-07	-5.263162e-06	-2.662110e-09	-3.739987e+01	-1.719165e+02
2.800000e-07	-5.252164e-06	-2.616308e-09	-3.732172e+01	-1.721414e+02
2.900000e-07	-5.240762e-06	-2.675882e-09	-3.724069e+01	-1.723581e+02
3.000000e-07	-5.228973e-06	-2.689438e-09	-3.715692e+01	-1.725648e+02
3.100000e-07	-5.216830e-06	-2.648488e-09	-3.707063e+01	-1.727595e+02
3.200000e-07	-5.204197e-06	-2.621757e-09	-3.698087e+01	-1.729406e+02
3.300000e-07	-5.191124e-06	-2.669749e-09	-3.688797e+01	-1.731065e+02
3.400000e-07	-5.177771e-06	-2.655732e-09	-3.679308e+01	-1.732558e+02
3.500000e-07	-5.164075e-06	-2.643512e-09	-3.669576e+01	-1.733876e+02
3.600000e-07	-5.149923e-06	-2.648082e-09	-3.659520e+01	-1.735008e+02
3.700000e-07	-5.135412e-06	-2.667275e-09	-3.649208e+01	-1.735946e+02
3.800000e-07	-5.120408e-06	-2.645045e-09	-3.638546e+01	-1.736687e+02
3.900000e-07	-5.104759e-06	-2.655834e-09	-3.627426e+01	-1.737228e+02
4.000000e-07	-5.088638e-06	-2.658582e-09	-3.615971e+01	-1.737569e+02
4.100000e-07	-5.072096e-06	-2.635852e-09	-3.604216e+01	-1.737711e+02
4.200000e-07	-5.055141e-06	-2.634247e-09	-3.592168e+01	-1.737658e+02
4.300000e-07	-5.037808e-06	-2.654307e-09	-3.579851e+01	-1.737416e+02
4.400000e-07	-5.020210e-06	-2.652327e-09	-3.567346e+01	-1.736992e+02
4.500000e-07	-5.002370e-06	-2.622943e-09	-3.554669e+01	-1.736395e+02
4.600000e-07	-4.984214e-06	-2.637387e-09	-3.541767e+01	-1.735635e+02
4.700000e-07	-4.965680e-06	-2.651331e-09	-3.528597e+01	-1.734723e+02
4.800000e-07	-4.946693e-06	-2.653151e-09	-3.515105e+01	-1.733671e+02
4.900000e-07	-4.927294e-06	-2.626907e-09	-3.501320e+01	-1.732493e+02
5.000000e-07	-4.907598e-06	-2.633783e-09	-3.487324e+01	-1.731199e+02
5.100000e-07	-4.887695e-06	-2.634716e-09	-3.473181e+01	-1.729803e+02
5.200000e-07	-4.867570e-06	-2.640696e-09	-3.458880e+01	-1.728319e+02
5.300000e-07	-4.847229e-06	-2.619759e-09	-3.444426e+01	-1.726757e+02
5.400000e-07	-4.826672e-06	-2.618675e-09	-3.429819e+01	-1.725130e+02
5.500000e-07	-4.805717e-06	-2.611864e-09	-3.414928e+01	-1.723449e+02
5.600000e-07	-4.784370e-06	-2.624561e-09	-3.399758e+01	-1.721723e+02
5.700000e-07	-4.762669e-06	-2.615224e-09	-3.384338e+01	-1.719963e+02
5.800000e-07	-4.740636e-06	-2.605632e-09	-3.368682e+01	-1.718176e+02
5.900000e-07	-4.718318e-06	-2.589103e-09	-3.352822e+01	-1.716369e+02
6.000000e-07	-4.695723e-06	-2.602568e-09	-3.336766e+01	-1.714549e+02
6.100000e-07	-4.672839e-06	-2.598401e-09	-3.320505e+01	-1.712719e+02
6.200000e-07	-4.649538e-06	-2.582112e-09	-3.303948e+01	-1.710884e+02
6.300000e-07	-4.625928e-06	-2.568865e-09	-3.287170e+01	-1.709046e+02
6.400000e-07	-4.602140e-06	-2.583927e-09	-3.270267e+01	-1.707206e+02
6.500000e-07	-4.578113e-06	-2.585556e-09	-3.253193e+01	-1.705366e+02
6.600000e-07	-4.553776e-06	-2.574505e-09	-3.235899e+01	-1.703525e+02
6.700000e-07	-4.529111e-06	-2.563533e-09	-3.218372e+01	-1.701682e+02
6.800000e-07	-4.504055e-06	-2.562445e-09	-3.200568e+01	-1.699836e+02
6.900000e-07	-4.478471e-06	-2.559192e-09	-3.182388e+01	-1.697985e+02
7.000000e-07	-4.452341e-06	-2.550002e-09	-3.163820e+01	-1.696126e+02
7.100000e-07	-4.425734e-06	-2.538606e-09	-3.144913e+01	-1.694257e+02
7.200000e-07	-4.398700e-06	-2.534712e-09	-3.125703e+01	-1.692375e+02
7.300000e-07	-4.371309e-06	-2.544572e-09	-3.106239e+01	-1.690478e+02
7.400000e-07	-4.343587e-06	-2.539723e-09	-3.086539e+01	-1.688563e+02
7.500000e-07	-4.315667e-06	-2.526869e-09	-3.066700e+01	-1.686627e+02
7.600000e-07	-4.287656e-06	-2.518486e-09	-3.046795e+01	-1.684668e+02
7.700000e-07	-4.259406e-06	-2.521916e-09	-3.026721e+01	-1.682683e+02
7.800000e-07	-4.230873e-06	-2.513083e-09	-3.006446e+01	-1.680672e+02
7.900000e-07	-4.202050e-06	-2.503568e-09	-2.985964e+01	-1.678632e+02
8.000000e-07	-4.172841e-06	-2.494250e-09	-2.965208e+01	-1.676562e+02
8.100000e-07	-4.143334e-06	-2.499138e-09	-2.944240e+01	-1.674462e+02
8.200000e-07	-4.113626e-06	-2.497903e-09	-2.923130e+01	-1.672330e+02
8.300000e-07	-4.083645e-06	-2.494746e-09	-2.901826e+01	-1.670166e+02
8.400000e-07	-4.053402e-06	-2.483123e-09	-2.880335e+01	-1.667970e+02
8.500000e-07	-4.022893e-06	-2.484051e-09	-2.858656e+01	-1.665741e+02
8.600000e-07	-3.992116e-06	-2.479574e-09	-2.836785e+01	-1.663481e+02
8.700000e-07	-3.961069e-06	-2.476737e-09	-2.814724e+01	-1.661187e+02
8.800000e-07	-3.929780e-06	-2.467611e-09	-2.792490e+01	-1.658862e+02
8.900000e-07	-3.898286e-06	-2.469339e-09	-2.770110e+01	-1.656503e+02
9.000000e-07	-3.866588e-06	-2.470092e-09	-2.747586e+01	-1.654113e+02
9.100000e-07	-3.834722e-06	-2.467986e-09	-2.724942e+01	-1.651689e+02
9.200000e-07	-3.802664e-06	-2.458355e-09	-2.702161e+01	-1.649232e+02
9.300000e-07	-3.770386e-06	-2.457223e-09	-2.679225e+01	-1.646741e+02
9.400000e-07	-3.737881e-06	-2.461532e-09	-2.656127e+01	-1.644215e+02
9.500000e-07	-3.705076e-06	-2.463632e-09	-2.632816e+01	-1.641654e+02
9.600000e-07	-3.671887e-06	-2.457103e-09	-2.609232e+01	-1.639056e+02
9.700000e-07	-3.638332e-06	-2.452480e-09	-2.585388e+01	-1.636420e+02
9.800000e-07	-3.604264e-06	-2.449723e-09	-2.561179e+01	-1.633744e+02
9.900000e-07	-3.569633e-06	-2.445389e-09	-2.536570e+01	-1.631028e+02
1.000000e-06	-3.534641e-06	-2.438100e-09	-2.511705e+01	-1.628270e+02
1.010000e-06	-3.499335e-06	-2.433760e-09	-2.486617e+01	-1.625467e+02
1.020000e-06	-3.463821e-06	-2.435232e-09	-2.461381e+01	-1.622620e+02
1.030000e-06	-3.428146e-06	-2.433559e-09	-2.436030e+01	-1.619727e+02
1.040000e-06	-3.392288e-06	-2.429373e-09	-2.410549e+01	-1.616785e+02
1.050000e-06	-3.356331e-06	-2.419715e-09	-2.384999e+01	-1.613796e+02
1.060000e-06	-3.320217e-06	-2.412629e-09	-2.359336e+01	-1.610757e+02
1.070000e-06	-3.283930e-06	-2.403560e-09	-2.333551e+01	-1.607668e+02
1.080000e-06	-3.247463e-06	-2.394508e-09	-2.307637e+01	-1.604530e+02
1.090000e-06	-3.210735e-06	-2.384556e-09	-2.281539e+01	-1.601342e+02
1.100000e-06	-3.173719e-06	-2.383866e-09	-2.255235e+01	-1.598105e+02
1.110000e-06	-3.136431e-06	-2.383247e-09	-2.228738e+01	-1.594819e+02
1.120000e-06	-3.098887e-06	-2.380573e-09	-2.202060e+01	-1.591485e+02
1.130000e-06	-3.061183e-06	-2.372650e-09	-2.175267e+01	-1.588104e+02
1.140000e-06	-3.023285e-06	-2.365079e-09	-2.148337e+01	-1.584678e+02
1.150000e-06	-2.985178e-06	-2.354481e-09	-2.121258e+01	-1.581207e+02
1.160000e-06	-2.946874e-06	-2.343789e-09	-2.094039e+01	-1.577692e+02
1.170000e-06	-2.908338e-06	-2.329986e-09	-2.066656e+01	-1.574135e+02
1.180000e-06	-2.869615e-06	-2.323581e-09	-2.039140e+01	-1.570537e+02
1.190000e-06	-2.830571e-06	-2.321490e-09	-2.011395e+01	-1.566898e+02
1.200000e-06	-2.791294e-06	-2.321175e-09	-1.983485e+01	-1.563218e+02
1.210000e-06	-2.751976e-06	-2.314729e-09	-1.955546e+01	-1.559498e+02
1.220000e-06	-2.712481e-06	-2.308643e-09	-1.927481e+01	-1.555736e+02
1.230000e-06	-2.672771e-06	-2.299246e-09	-1.899263e+01	-1.551932e+02
1.240000e-06	-2.632967e-06	-2.286919e-09	-1.870978e+01	-1.548083e+02
1.250000e-06	-2.593078e-06	-2.272702e-09	-1.842634e+01	-1.544188e+02
1.260000e-06	-2.553104e-06	-2.261181e-09	-1.814228e+01	-1.540242e+02
1.270000e-06	-2.513032e-06	-2.253501e-09	-1.785753e+01	-1.536242e+02
1.280000e-06	-2.472803e-06	-2.246546e-09	-1.757167e+01	-1.532182e+02
1.290000e-06	-2.432446e-06	-2.240542e-09	-1.728489e+01	-1.528058e+02
1.300000e-06	-2.391935e-06	-2.236055e-09	-1.699702e+01	-1.523863e+02
1.310000e-06	-2.351193e-06	-2.231840e-09	-1.670750e+01	-1.519591e+02
1.320000e-06	-2.310215e-06	-2.222406e-09	-1.641631e+01	-1.515234e+02
1.330000e-06	-2.268962e-06	-2.207444e-09	-1.612317e+01	-1.510784e+02
1.340000e-06	-2.227497e-06	-2.192641e-09	-1.582853e+01	-1.506232e+02
1.350000e-06	-2.185805e-06	-2.183294e-09	-1.553226e+01	-1.501571e+02
1.360000e-06	-2.143822e-06	-2.173924e-09	-1.523393e+01	-1.496792e+02
1.370000e-06	-2.101477e-06	-2.166992e-09	-1.493303e+01	-1.491885e+02
1.380000e-06	-2.058841e-06	-2.160797e-09	-1.463006e+01	-1.486843e+02
1.390000e-06	-2.016015e-06	-2.156865e-09	-1.432574e+01	-1.481657e+02
1.400000e-06	-1.973003e-06	-2.150105e-09	-1.402010e+01	-1.476318e+02
1.410000e-06	-1.929789e-06	-2.138634e-09	-1.371302e+01	-1.470819e+02
1.420000e-06	-1.886339e-06	-2.121143e-09	-1.340427e+01	-1.465154e+02
1.430000e-06	-1.842849e-06	-2.106763e-09	-1.309523e+01	-1.459314e+02
1.440000e-06	-1.799292e-06	-2.095148e-09	-1.278572e+01	-1.453295e+02
1.450000e-06	-1.755548e-06	-2.085052e-09	-1.247487e+01	-1.447092e+02
1.460000e-06	-1.711724e-06	-2.073991e-09	-1.216346e+01	-1.440699e+02
1.470000e-06	-1.667862e-06	-2.065642e-09	-1.185178e+01	-1.434114e+02
1.480000e-06	-1.623883e-06	-2.059057e-09	-1.153926e+01	-1.427334e+02
1.490000e-06	-1.579781e-06	-2.051392e-09	-1.122588e+01	-1.420356e+02
1.500000e-06	-1.535631e-06	-2.040031e-09	-1.091215e+01	-1.413179e+02
1.510000e-06	-1.491489e-06	-2.028033e-09	-1.059847e+01	-1.405802e+02
1.520000e-06	-1.447281e-06	-2.015559e-09	-1.028433e+01	-1.398225e+02
1.530000e-06	-1.402968e-06	-2.003973e-09	-9.969451e+00	-1.390448e+02
1.540000e-06	-1.358614e-06	-1.989909e-09	-9.654269e+00	-1.382469e+02
1.550000e-06	-1.314185e-06	-1.974979e-09	-9.338559e+00	-1.374290e+02
1.560000e-06	-1.269720e-06	-1.963473e-09	-9.022591e+00	-1.365909e+02
1.570000e-06	-1.225193e-06	-1.954727e-09	-8.706182e+00	-1.357327e+02
1.580000e-06	-1.180569e-06	-1.946341e-09	-8.389090e+00	-1.348542e+02
1.590000e-06	-1.135866e-06	-1.936821e-09	-8.071426e+00	-1.339552e+02
1.600000e-06	-1.091004e-06	-1.924370e-09	-7.752640e+00	-1.330354e+02
1.610000e-06	-1.045913e-06	-1.909463e-09	-7.432228e+00	-1.320946e+02
1.620000e-06	-1.000801e-06	-1.893020e-09	-7.111662e+00	-1.311321e+02
1.630000e-06	-9.557250e-07	-1.874315e-09	-6.791352e+00	-1.301473e+02
1.640000e-06	-9.105264e-07	-1.857058e-09	-6.470173e+00	-1.291395e+02
1.650000e-06	-8.653254e-07	-1.842659e-09	-6.148976e+00	-1.281078e+02
1.660000e-06	-8.201284e-07	-1.832606e-09	-5.827807e+00	-1.270512e+02
1.670000e-06	-7.748570e-07	-1.822477e-09	-5.506110e+00	-1.259683e+02
1.680000e-06	-7.294718e-07	-1.808912e-09	-5.183605e+00	-1.248580e+02
1.690000e-06	-6.839399e-07	-1.791553e-09	-4.860056e+00	-1.237186e+02
1.700000e-06	-6.383038e-07	-1.773815e-09	-4.535768e+00	-1.225486e+02
1.710000e-06	-5.926380e-07	-1.753085e-09	-4.211267e+00	-1.213462e+02
1.720000e-06	-5.470162e-07	-1.730799e-09	-3.887080e+00	-1.201096e+02
1.730000e-06	-5.014291e-07	-1.709765e-09	-3.563140e+00	-1.188368e+02
1.740000e-06	-4.557062e-07	-1.691847e-09	-3.238235e+00	-1.175258e+02
1.750000e-06	-4.098453e-07	-1.674498e-09	-2.912348e+00	-1.161746e+02
1.760000e-06	-3.640853e-07	-1.657236e-09	-2.587179e+00	-1.147811e+02
1.770000e-06	-3.183364e-07	-1.636726e-09	-2.262089e+00	-1.133432e+02
1.780000e-06	-2.724540e-07	-1.616456e-09	-1.936050e+00	-1.118589e+02
1.790000e-06	-2.265056e-07	-1.593385e-09	-1.609542e+00	-1.103261e+02
1.800000e-06	-1.805837e-07	-1.564515e-09	-1.283222e+00	-1.087429e+02
1.810000e-06	-1.347508e-07	-1.535285e-09	-9.575350e-01	-1.071075e+02
1.820000e-06	-8.892486e-08	-1.509371e-09	-6.318974e-01	-1.054182e+02
1.830000e-06	-4.303210e-08	-1.486525e-09	-3.057848e-01	-1.036733e+02
1.840000e-06	2.834901e-09	-1.463511e-09	2.014472e-02	-1.018714e+02
1.850000e-06	4.864647e-08	-1.436102e-09	3.456803e-01	-1.000113e+02
1.860000e-06	9.446513e-08	-1.404778e-09	6.712663e-01	-9.809179e+01
1.870000e-06	1.402467e-07	-1.373274e-09	9.965887e-01	-9.611210e+01
1.880000e-06	1.860485e-07	-1.340173e-09	1.322055e+00	-9.407148e+01
1.890000e-06	2.319015e-07	-1.303494e-09	1.647885e+00	-9.196944e+01
1.900000e-06	2.777092e-07	-1.267369e-09	1.973393e+00	-8.980567e+01
1.910000e-06	3.234413e-07	-1.232350e-09	2.298364e+00	-8.758007e+01
1.920000e-06	3.691409e-07	-1.198824e-09	2.623104e+00	-8.529272e+01
1.930000e-06	4.148453e-07	-1.167216e-09	2.947878e+00	-8.294389e+01
1.940000e-06	4.606166e-07	-1.133567e-09	3.273127e+00	-8.053399e+01
1.950000e-06	5.064421e-07	-1.098224e-09	3.598762e+00	-7.806363e+01
1.960000e-06	5.521801e-07	-1.060504e-09	3.923775e+00	-7.553354e+01
1.970000e-06	5.977865e-07	-1.019707e-09	4.247852e+00	-7.294456e+01
1.980000e-06	6.433284e-07	-9.752490e-10	4.571472e+00	-7.029767e+01
1.990000e-06	6.888447e-07	-9.302117e-10	4.894909e+00	-6.759392e+01
2.000000e-06	7.342787e-07	-8.870494e-10	5.217762e+00	-6.483447e+01
2.010000e-06	7.795992e-07	-8.462225e-10	5.539808e+00	-6.202053e+01
2.020000e-06	8.248900e-07	-8.050846e-10	5.861643e+00	-5.915334e+01
2.030000e-06	8.701800e-07	-7.635046e-10	6.183473e+00	-5.623423e+01
2.040000e-06	9.153466e-07	-7.205686e-10	6.504425e+00	-5.326452e+01
2.050000e-06	9.604521e-07	-6.743554e-10	6.824943e+00	-5.024559e+01
2.060000e-06	1.005479e-06	-6.253010e-10	7.144901e+00	-4.717883e+01
2.070000e-06	1.050340e-06	-5.784778e-10	7.463686e+00	-4.406564e+01
2.080000e-06	1.095183e-06	-5.331375e-10	7.782337e+00	-4.090747e+01
2.090000e-06	1.139939e-06	-4.875156e-10	8.100369e+00	-3.770580e+01
2.100000e-06	1.184602e-06	-4.410552e-10	8.417744e+00	-3.446212e+01
2.110000e-06	1.229233e-06	-3.923057e-10	8.734891e+00	-3.117799e+01
2.120000e-06	1.273754e-06	-3.413514e-10	9.051254e+00	-2.785504e+01
2.130000e-06	1.318211e-06	-2.895975e-10	9.367168e+00	-2.449494e+01
2.140000e-06	1.362542e-06	-2.373562e-10	9.682183e+00	-2.109950e+01
2.150000e-06	1.406769e-06	-1.856847e-10	9.996459e+00	-1.767058e+01
2.160000e-06	1.450953e-06	-1.365103e-10	1.031043e+01	-1.421022e+01
2.170000e-06	1.495068e-06	-8.800778e-11	1.062391e+01	-1.072054e+01
2.180000e-06	1.539145e-06	-3.713942e-11	1.093711e+01	-7.203870e+00
2.190000e-06	1.583175e-06	1.672626e-11	1.125000e+01	-3.662674e+00
2.200000e-06	1.627146e-06	7.044088e-11	1.156245e+01	-9.961093e-02
2.210000e-06	1.671035e-06	1.228286e-10	1.187432e+01	3.482470e+00
2.220000e-06	1.714851e-06	1.761006e-10	1.218568e+01	7.080520e+00
2.230000e-06	1.758617e-06	2.307794e-10	1.249668e+01	1.069129e+01
2.240000e-06	1.802291e-06	2.837202e-10	1.280702e+01	1.431133e+01
2.250000e-06	1.845799e-06	3.350414e-10	1.311619e+01	1.793698e+01
2.260000e-06	1.889156e-06	3.877666e-10	1.342429e+01	2.156441e+01
2.270000e-06	1.932424e-06	4.438813e-10	1.373174e+01	2.518960e+01
2.280000e-06	1.975656e-06	4.971709e-10	1.403895e+01	2.880838e+01
2.290000e-06	2.018703e-06	5.464653e-10	1.434484e+01	3.241642e+01
2.300000e-06	2.061402e-06	5.984970e-10	1.464826e+01	3.600931e+01
2.310000e-06	2.103852e-06	6.527023e-10	1.494991e+01	3.958252e+01
2.320000e-06	2.146030e-06	7.047746e-10	1.524962e+01	4.313150e+01
2.330000e-06	2.187960e-06	7.525015e-10	1.554758e+01	4.665166e+01
2.340000e-06	2.229688e-06	7.979898e-10	1.584410e+01	5.013845e+01
2.350000e-06	2.271041e-06	8.480198e-10	1.613795e+01	5.358736e+01
2.360000e-06	2.312093e-06	9.027637e-10	1.642966e+01	5.699399e+01
2.370000e-06	2.352987e-06	9.533694e-10	1.672026e+01	6.035410e+01
2.380000e-06	2.393670e-06	9.977324e-10	1.700934e+01	6.366358e+01
2.390000e-06	2.434075e-06	1.042678e-09	1.729646e+01	6.691859e+01
2.400000e-06	2.474293e-06	1.088131e-09	1.758225e+01	7.011551e+01
2.410000e-06	2.514416e-06	1.130787e-09	1.786736e+01	7.325102e+01
2.420000e-06	2.554458e-06	1.171810e-09	1.815190e+01	7.632212e+01
2.430000e-06	2.594434e-06	1.216595e-09	1.843597e+01	7.932615e+01
2.440000e-06	2.634304e-06	1.265122e-09	1.871928e+01	8.226082e+01
2.450000e-06	2.674052e-06	1.308751e-09	1.900173e+01	8.512421e+01
2.460000e-06	2.713654e-06	1.347844e-09	1.928315e+01	8.791481e+01
2.470000e-06	2.753070e-06	1.385498e-09	1.956323e+01	9.063150e+01
2.480000e-06	2.792260e-06	1.421504e-09	1.984171e+01	9.327356e+01
2.490000e-06	2.831262e-06	1.457312e-09	2.011886e+01	9.584068e+01
2.500000e-06	2.870103e-06	1.493219e-09	2.039486e+01	9.833289e+01
2.510000e-06	2.908722e-06	1.531343e-09	2.066929e+01	1.007506e+02
2.520000e-06	2.947060e-06	1.570334e-09	2.094172e+01	1.030947e+02
2.530000e-06	2.985190e-06	1.603846e-09	2.121267e+01	1.053661e+02
2.540000e-06	3.023153e-06	1.631779e-09	2.148243e+01	1.075663e+02
2.550000e-06	3.060934e-06	1.661630e-09	2.175090e+01	1.096969e+02
2.560000e-06	3.098552e-06	1.695780e-09	2.201822e+01	1.117598e+02
2.570000e-06	3.135980e-06	1.727321e-09	2.228418e+01	1.137569e+02
2.580000e-06	3.173166e-06	1.754611e-09	2.254842e+01	1.156904e+02
2.590000e-06	3.210118e-06	1.783270e-09	2.281100e+01	1.175627e+02
2.600000e-06	3.246842e-06	1.813422e-09	2.307196e+01	1.193760e+02
2.610000e-06	3.283314e-06	1.840293e-09	2.333113e+01	1.211327e+02
2.620000e-06	3.319590e-06	1.863485e-09	2.358890e+01	1.228352e+02
2.630000e-06	3.355721e-06	1.887407e-09	2.384565e+01	1.244856e+02
2.640000e-06	3.391725e-06	1.915350e-09	2.410149e+01	1.260862e+02
2.650000e-06	3.427621e-06	1.941317e-09	2.435657e+01	1.276391e+02
2.660000e-06	3.463411e-06	1.962550e-09	2.461089e+01	1.291462e+02
2.670000e-06	3.498960e-06	1.983365e-09	2.486350e+01	1.306094e+02
2.680000e-06	3.534162e-06	2.005957e-09	2.511364e+01	1.320302e+02
2.690000e-06	3.568969e-06	2.028945e-09	2.536098e+01	1.334101e+02
2.700000e-06	3.603467e-06	2.047577e-09	2.560613e+01	1.347504e+02
2.710000e-06	3.637634e-06	2.062249e-09	2.584891e+01	1.360521e+02
2.720000e-06	3.671249e-06	2.079720e-09	2.608779e+01	1.373161e+02
2.730000e-06	3.704383e-06	2.099598e-09	2.632323e+01	1.385433e+02
2.740000e-06	3.737224e-06	2.117598e-09	2.655660e+01	1.397340e+02
2.750000e-06	3.769814e-06	2.135039e-09	2.678818e+01	1.408889e+02
2.760000e-06	3.802102e-06	2.154396e-09	2.701762e+01	1.420082e+02
2.770000e-06	3.834204e-06	2.175891e-09	2.724573e+01	1.430920e+02
2.780000e-06	3.866136e-06	2.194275e-09	2.747264e+01	1.441406e+02
2.790000e-06	3.897859e-06	2.206141e-09	2.769807e+01	1.451541e+02
2.800000e-06	3.929362e-06	2.215521e-09	2.792193e+01	1.461324e+02
2.810000e-06	3.960601e-06	2.227886e-09	2.814391e+01	1.470758e+02
2.820000e-06	3.991620e-06	2.239156e-09	2.836433e+01	1.479842e+02
2.830000e-06	4.022338e-06	2.245995e-09	2.858261e+01	1.488578e+02
2.840000e-06	4.052754e-06	2.254163e-09	2.879874e+01	1.496968e+02
2.850000e-06	4.082950e-06	2.268951e-09	2.901332e+01	1.505015e+02
2.860000e-06	4.112866e-06	2.287724e-09	2.922590e+01	1.512723e+02
2.870000e-06	4.142490e-06	2.302474e-09	2.943641e+01	1.520097e+02
2.880000e-06	4.171846e-06	2.309455e-09	2.964501e+01	1.527143e+02
2.890000e-06	4.200896e-06	2.314384e-09	2.985144e+01	1.533869e+02
2.900000e-06	4.229604e-06	2.320377e-09	3.005544e+01	1.540284e+02
