# Temperatura_=_12.3
# Concentracion g/m^3_=_4090.0
# C_Vs_to_Am_M_A/Vsm_=_65563218390.804596
# pendiente_HvsI_1/m_=_3716.3
# ordenada_HvsI_A/m_=_1297.0
# frecuencia_Hz_=_135083.0182223968

Tiempo_(s)	Campo_(V.s)	Magnetizacion_(V.s)	Campo_(kA/m)	Magnetizacion_(A/m)
0.000000e+00	-5.402078e-06	-2.665634e-09	-3.839286e+01	-1.679744e+02
1.000000e-08	-5.402127e-06	-2.664562e-09	-3.839321e+01	-1.679130e+02
2.000000e-08	-5.402025e-06	-2.661339e-09	-3.839249e+01	-1.678559e+02
3.000000e-08	-5.401701e-06	-2.659058e-09	-3.839019e+01	-1.678050e+02
4.000000e-08	-5.400981e-06	-2.659106e-09	-3.838507e+01	-1.677621e+02
5.000000e-08	-5.399720e-06	-2.659007e-09	-3.837610e+01	-1.677290e+02
6.000000e-08	-5.397797e-06	-2.665675e-09	-3.836244e+01	-1.677075e+02
7.000000e-08	-5.395237e-06	-2.704036e-09	-3.834425e+01	-1.676991e+02
8.000000e-08	-5.392271e-06	-2.736030e-09	-3.832317e+01	-1.677051e+02
9.000000e-08	-5.388837e-06	-2.647716e-09	-3.829876e+01	-1.677269e+02
1.000000e-07	-5.384909e-06	-2.498384e-09	-3.827084e+01	-1.677653e+02
1.100000e-07	-5.380766e-06	-2.584864e-09	-3.824140e+01	-1.678212e+02
1.200000e-07	-5.376483e-06	-2.762685e-09	-3.821096e+01	-1.678950e+02
1.300000e-07	-5.371762e-06	-2.724114e-09	-3.817741e+01	-1.679869e+02
1.400000e-07	-5.366496e-06	-2.487379e-09	-3.813998e+01	-1.680967e+02
1.500000e-07	-5.361011e-06	-2.577149e-09	-3.810100e+01	-1.682242e+02
1.600000e-07	-5.355324e-06	-2.852136e-09	-3.806058e+01	-1.683685e+02
1.700000e-07	-5.349116e-06	-2.775081e-09	-3.801646e+01	-1.685288e+02
1.800000e-07	-5.342384e-06	-2.463860e-09	-3.796862e+01	-1.687038e+02
1.900000e-07	-5.335366e-06	-2.480491e-09	-3.791874e+01	-1.688919e+02
2.000000e-07	-5.328176e-06	-2.741287e-09	-3.786764e+01	-1.690916e+02
2.100000e-07	-5.320658e-06	-2.687237e-09	-3.781421e+01	-1.693007e+02
2.200000e-07	-5.312827e-06	-2.543047e-09	-3.775855e+01	-1.695172e+02
2.300000e-07	-5.304841e-06	-2.640011e-09	-3.770180e+01	-1.697388e+02
2.400000e-07	-5.296486e-06	-2.762355e-09	-3.764241e+01	-1.699632e+02
2.500000e-07	-5.287334e-06	-2.608224e-09	-3.757737e+01	-1.701878e+02
2.600000e-07	-5.277564e-06	-2.565750e-09	-3.750794e+01	-1.704102e+02
2.700000e-07	-5.267491e-06	-2.707423e-09	-3.743635e+01	-1.706280e+02
2.800000e-07	-5.256900e-06	-2.696408e-09	-3.736108e+01	-1.708386e+02
2.900000e-07	-5.245724e-06	-2.523346e-09	-3.728165e+01	-1.710397e+02
3.000000e-07	-5.234163e-06	-2.618807e-09	-3.719949e+01	-1.712291e+02
3.100000e-07	-5.222201e-06	-2.768633e-09	-3.711447e+01	-1.714048e+02
3.200000e-07	-5.209760e-06	-2.633563e-09	-3.702605e+01	-1.715647e+02
3.300000e-07	-5.196960e-06	-2.486384e-09	-3.693508e+01	-1.717071e+02
3.400000e-07	-5.183831e-06	-2.621792e-09	-3.684177e+01	-1.718307e+02
3.500000e-07	-5.170260e-06	-2.705982e-09	-3.674532e+01	-1.719342e+02
3.600000e-07	-5.156292e-06	-2.617805e-09	-3.664605e+01	-1.720166e+02
3.700000e-07	-5.142015e-06	-2.600347e-09	-3.654458e+01	-1.720773e+02
3.800000e-07	-5.127174e-06	-2.655085e-09	-3.643911e+01	-1.721158e+02
3.900000e-07	-5.111686e-06	-2.627186e-09	-3.632903e+01	-1.721319e+02
4.000000e-07	-5.095857e-06	-2.624008e-09	-3.621653e+01	-1.721258e+02
4.100000e-07	-5.079541e-06	-2.637429e-09	-3.610058e+01	-1.720978e+02
4.200000e-07	-5.062760e-06	-2.556227e-09	-3.598132e+01	-1.720486e+02
4.300000e-07	-5.045704e-06	-2.547431e-09	-3.586010e+01	-1.719789e+02
4.400000e-07	-5.028320e-06	-2.655466e-09	-3.573654e+01	-1.718898e+02
4.500000e-07	-5.010631e-06	-2.662849e-09	-3.561083e+01	-1.717824e+02
4.600000e-07	-4.992546e-06	-2.547799e-09	-3.548230e+01	-1.716581e+02
4.700000e-07	-4.974101e-06	-2.567219e-09	-3.535121e+01	-1.715182e+02
4.800000e-07	-4.955316e-06	-2.632726e-09	-3.521770e+01	-1.713644e+02
4.900000e-07	-4.936186e-06	-2.607528e-09	-3.508175e+01	-1.711982e+02
5.000000e-07	-4.916741e-06	-2.538930e-09	-3.494355e+01	-1.710211e+02
5.100000e-07	-4.897002e-06	-2.550739e-09	-3.480326e+01	-1.708347e+02
5.200000e-07	-4.877040e-06	-2.582270e-09	-3.466139e+01	-1.706407e+02
5.300000e-07	-4.856902e-06	-2.620383e-09	-3.451827e+01	-1.704405e+02
5.400000e-07	-4.836406e-06	-2.591890e-09	-3.437261e+01	-1.702354e+02
5.500000e-07	-4.815582e-06	-2.541924e-09	-3.422461e+01	-1.700268e+02
5.600000e-07	-4.794494e-06	-2.546664e-09	-3.407473e+01	-1.698159e+02
5.700000e-07	-4.773045e-06	-2.600917e-09	-3.392230e+01	-1.696037e+02
5.800000e-07	-4.751321e-06	-2.571650e-09	-3.376790e+01	-1.693910e+02
5.900000e-07	-4.729285e-06	-2.519614e-09	-3.361129e+01	-1.691787e+02
6.000000e-07	-4.706877e-06	-2.527353e-09	-3.345204e+01	-1.689673e+02
6.100000e-07	-4.684135e-06	-2.570399e-09	-3.329041e+01	-1.687573e+02
6.200000e-07	-4.661106e-06	-2.565553e-09	-3.312674e+01	-1.685489e+02
6.300000e-07	-4.637729e-06	-2.525594e-09	-3.296059e+01	-1.683422e+02
6.400000e-07	-4.614011e-06	-2.497510e-09	-3.279203e+01	-1.681373e+02
6.500000e-07	-4.590107e-06	-2.520807e-09	-3.262214e+01	-1.679340e+02
6.600000e-07	-4.565989e-06	-2.546458e-09	-3.245074e+01	-1.677320e+02
6.700000e-07	-4.541579e-06	-2.519717e-09	-3.227725e+01	-1.675311e+02
6.800000e-07	-4.516719e-06	-2.483712e-09	-3.210057e+01	-1.673308e+02
6.900000e-07	-4.491435e-06	-2.499290e-09	-3.192088e+01	-1.671306e+02
7.000000e-07	-4.465758e-06	-2.528924e-09	-3.173839e+01	-1.669300e+02
7.100000e-07	-4.439491e-06	-2.507649e-09	-3.155171e+01	-1.667284e+02
7.200000e-07	-4.412743e-06	-2.472073e-09	-3.136161e+01	-1.665254e+02
7.300000e-07	-4.385624e-06	-2.470838e-09	-3.116887e+01	-1.663202e+02
7.400000e-07	-4.358247e-06	-2.503803e-09	-3.097430e+01	-1.661123e+02
7.500000e-07	-4.330680e-06	-2.505675e-09	-3.077838e+01	-1.659013e+02
7.600000e-07	-4.302843e-06	-2.476689e-09	-3.058054e+01	-1.656866e+02
7.700000e-07	-4.274785e-06	-2.456633e-09	-3.038113e+01	-1.654678e+02
7.800000e-07	-4.246532e-06	-2.476811e-09	-3.018033e+01	-1.652446e+02
7.900000e-07	-4.217961e-06	-2.482735e-09	-2.997728e+01	-1.650165e+02
8.000000e-07	-4.189046e-06	-2.459067e-09	-2.977178e+01	-1.647834e+02
8.100000e-07	-4.159837e-06	-2.433145e-09	-2.956419e+01	-1.645450e+02
8.200000e-07	-4.130282e-06	-2.448279e-09	-2.935414e+01	-1.643013e+02
8.300000e-07	-4.100404e-06	-2.463910e-09	-2.914180e+01	-1.640521e+02
8.400000e-07	-4.070294e-06	-2.453974e-09	-2.892780e+01	-1.637974e+02
8.500000e-07	-4.039968e-06	-2.425210e-09	-2.871228e+01	-1.635373e+02
8.600000e-07	-4.009352e-06	-2.423134e-09	-2.849469e+01	-1.632718e+02
8.700000e-07	-3.978498e-06	-2.436574e-09	-2.827541e+01	-1.630010e+02
8.800000e-07	-3.947403e-06	-2.433573e-09	-2.805441e+01	-1.627251e+02
8.900000e-07	-3.916006e-06	-2.403139e-09	-2.783127e+01	-1.624441e+02
9.000000e-07	-3.884361e-06	-2.388987e-09	-2.760636e+01	-1.621583e+02
9.100000e-07	-3.852527e-06	-2.400702e-09	-2.738012e+01	-1.618678e+02
9.200000e-07	-3.820555e-06	-2.409097e-09	-2.715289e+01	-1.615728e+02
9.300000e-07	-3.788414e-06	-2.391660e-09	-2.692447e+01	-1.612734e+02
9.400000e-07	-3.756110e-06	-2.380698e-09	-2.669488e+01	-1.609697e+02
9.500000e-07	-3.723514e-06	-2.392795e-09	-2.646322e+01	-1.606618e+02
9.600000e-07	-3.690533e-06	-2.400626e-09	-2.622882e+01	-1.603499e+02
9.700000e-07	-3.657094e-06	-2.383198e-09	-2.599117e+01	-1.600339e+02
9.800000e-07	-3.623127e-06	-2.359645e-09	-2.574976e+01	-1.597139e+02
9.900000e-07	-3.588807e-06	-2.357625e-09	-2.550585e+01	-1.593899e+02
1.000000e-06	-3.554103e-06	-2.366144e-09	-2.525920e+01	-1.590620e+02
1.010000e-06	-3.519085e-06	-2.363886e-09	-2.501033e+01	-1.587299e+02
1.020000e-06	-3.483793e-06	-2.350328e-09	-2.475951e+01	-1.583938e+02
1.030000e-06	-3.448272e-06	-2.347316e-09	-2.450706e+01	-1.580535e+02
1.040000e-06	-3.412595e-06	-2.351996e-09	-2.425350e+01	-1.577090e+02
1.050000e-06	-3.376677e-06	-2.348437e-09	-2.399823e+01	-1.573601e+02
1.060000e-06	-3.340580e-06	-2.325643e-09	-2.374169e+01	-1.570067e+02
1.070000e-06	-3.304346e-06	-2.309119e-09	-2.348417e+01	-1.566488e+02
1.080000e-06	-3.267927e-06	-2.306263e-09	-2.322534e+01	-1.562863e+02
1.090000e-06	-3.231192e-06	-2.306347e-09	-2.296426e+01	-1.559191e+02
1.100000e-06	-3.194161e-06	-2.294719e-09	-2.270108e+01	-1.555472e+02
1.110000e-06	-3.156953e-06	-2.286297e-09	-2.243664e+01	-1.551704e+02
1.120000e-06	-3.119553e-06	-2.285766e-09	-2.217084e+01	-1.547887e+02
1.130000e-06	-3.081927e-06	-2.288581e-09	-2.190343e+01	-1.544021e+02
1.140000e-06	-3.044108e-06	-2.277627e-09	-2.163464e+01	-1.540106e+02
1.150000e-06	-3.006089e-06	-2.262178e-09	-2.136444e+01	-1.536141e+02
1.160000e-06	-2.967914e-06	-2.252646e-09	-2.109313e+01	-1.532125e+02
1.170000e-06	-2.929592e-06	-2.250671e-09	-2.082077e+01	-1.528060e+02
1.180000e-06	-2.891042e-06	-2.241234e-09	-2.054680e+01	-1.523943e+02
1.190000e-06	-2.852181e-06	-2.227415e-09	-2.027061e+01	-1.519775e+02
1.200000e-06	-2.813103e-06	-2.220571e-09	-1.999287e+01	-1.515555e+02
1.210000e-06	-2.773843e-06	-2.219990e-09	-1.971386e+01	-1.511282e+02
1.220000e-06	-2.734355e-06	-2.211024e-09	-1.943321e+01	-1.506954e+02
1.230000e-06	-2.694764e-06	-2.195302e-09	-1.915183e+01	-1.502569e+02
1.240000e-06	-2.655073e-06	-2.183600e-09	-1.886975e+01	-1.498125e+02
1.250000e-06	-2.615219e-06	-2.178840e-09	-1.858651e+01	-1.493619e+02
1.260000e-06	-2.575307e-06	-2.176031e-09	-1.830285e+01	-1.489048e+02
1.270000e-06	-2.535301e-06	-2.167201e-09	-1.801852e+01	-1.484408e+02
1.280000e-06	-2.495143e-06	-2.156962e-09	-1.773312e+01	-1.479694e+02
1.290000e-06	-2.454893e-06	-2.148678e-09	-1.744706e+01	-1.474900e+02
1.300000e-06	-2.414509e-06	-2.139144e-09	-1.716005e+01	-1.470022e+02
1.310000e-06	-2.373935e-06	-2.126280e-09	-1.687169e+01	-1.465051e+02
1.320000e-06	-2.333173e-06	-2.115725e-09	-1.658199e+01	-1.459983e+02
1.330000e-06	-2.292211e-06	-2.107631e-09	-1.629087e+01	-1.454809e+02
1.340000e-06	-2.250862e-06	-2.102917e-09	-1.599700e+01	-1.449521e+02
1.350000e-06	-2.209146e-06	-2.095180e-09	-1.570052e+01	-1.444112e+02
1.360000e-06	-2.167333e-06	-2.085246e-09	-1.540335e+01	-1.438573e+02
1.370000e-06	-2.125411e-06	-2.076025e-09	-1.510541e+01	-1.432895e+02
1.380000e-06	-2.083071e-06	-2.067026e-09	-1.480450e+01	-1.427070e+02
1.390000e-06	-2.040372e-06	-2.053456e-09	-1.450104e+01	-1.421090e+02
1.400000e-06	-1.997496e-06	-2.042189e-09	-1.419631e+01	-1.414947e+02
1.410000e-06	-1.954380e-06	-2.034092e-09	-1.388989e+01	-1.408632e+02
1.420000e-06	-1.910984e-06	-2.024192e-09	-1.358147e+01	-1.402138e+02
1.430000e-06	-1.867517e-06	-2.010170e-09	-1.327255e+01	-1.395458e+02
1.440000e-06	-1.823989e-06	-1.997541e-09	-1.296319e+01	-1.388585e+02
1.450000e-06	-1.780277e-06	-1.987217e-09	-1.265252e+01	-1.381513e+02
1.460000e-06	-1.736502e-06	-1.977992e-09	-1.234142e+01	-1.374238e+02
1.470000e-06	-1.692657e-06	-1.966011e-09	-1.202980e+01	-1.366753e+02
1.480000e-06	-1.648742e-06	-1.948742e-09	-1.171770e+01	-1.359056e+02
1.490000e-06	-1.604749e-06	-1.931349e-09	-1.140504e+01	-1.351142e+02
1.500000e-06	-1.560680e-06	-1.917780e-09	-1.109184e+01	-1.343009e+02
1.510000e-06	-1.516615e-06	-1.903720e-09	-1.077867e+01	-1.334654e+02
1.520000e-06	-1.472489e-06	-1.888222e-09	-1.046506e+01	-1.326076e+02
1.530000e-06	-1.428262e-06	-1.875753e-09	-1.015074e+01	-1.317272e+02
1.540000e-06	-1.383922e-06	-1.867455e-09	-9.835612e+00	-1.308240e+02
1.550000e-06	-1.339482e-06	-1.857888e-09	-9.519771e+00	-1.298980e+02
1.560000e-06	-1.295040e-06	-1.843172e-09	-9.203918e+00	-1.289490e+02
1.570000e-06	-1.250467e-06	-1.827965e-09	-8.887136e+00	-1.279767e+02
1.580000e-06	-1.205836e-06	-1.812749e-09	-8.569941e+00	-1.269810e+02
1.590000e-06	-1.161179e-06	-1.795254e-09	-8.252564e+00	-1.259615e+02
1.600000e-06	-1.116401e-06	-1.778523e-09	-7.934323e+00	-1.249179e+02
1.610000e-06	-1.071481e-06	-1.764466e-09	-7.615075e+00	-1.238497e+02
1.620000e-06	-1.026483e-06	-1.750669e-09	-7.295269e+00	-1.227564e+02
1.630000e-06	-9.814505e-07	-1.733402e-09	-6.975222e+00	-1.216371e+02
1.640000e-06	-9.362996e-07	-1.713968e-09	-6.654332e+00	-1.204913e+02
1.650000e-06	-8.911576e-07	-1.697014e-09	-6.333506e+00	-1.193178e+02
1.660000e-06	-8.459312e-07	-1.681807e-09	-6.012079e+00	-1.181155e+02
1.670000e-06	-8.004893e-07	-1.665372e-09	-5.689121e+00	-1.168834e+02
1.680000e-06	-7.549625e-07	-1.644736e-09	-5.365560e+00	-1.156199e+02
1.690000e-06	-7.094241e-07	-1.621073e-09	-5.041916e+00	-1.143236e+02
1.700000e-06	-6.638959e-07	-1.598435e-09	-4.718345e+00	-1.129927e+02
1.710000e-06	-6.183399e-07	-1.579020e-09	-4.394576e+00	-1.116256e+02
1.720000e-06	-5.727425e-07	-1.556934e-09	-4.070512e+00	-1.102204e+02
1.730000e-06	-5.271301e-07	-1.533487e-09	-3.746343e+00	-1.087750e+02
1.740000e-06	-4.814715e-07	-1.512579e-09	-3.421844e+00	-1.072874e+02
1.750000e-06	-4.357426e-07	-1.492107e-09	-3.096847e+00	-1.057556e+02
1.760000e-06	-3.900460e-07	-1.466983e-09	-2.772078e+00	-1.041773e+02
1.770000e-06	-3.443616e-07	-1.440319e-09	-2.447397e+00	-1.025505e+02
1.780000e-06	-2.986088e-07	-1.418379e-09	-2.122229e+00	-1.008729e+02
1.790000e-06	-2.527999e-07	-1.399445e-09	-1.796663e+00	-9.914269e+01
1.800000e-06	-2.069609e-07	-1.372819e-09	-1.470883e+00	-9.735770e+01
1.810000e-06	-1.611365e-07	-1.340198e-09	-1.145206e+00	-9.551610e+01
1.820000e-06	-1.152765e-07	-1.311202e-09	-8.192767e-01	-9.361612e+01
1.830000e-06	-6.933099e-08	-1.285094e-09	-4.927392e-01	-9.165616e+01
1.840000e-06	-2.346145e-08	-1.256130e-09	-1.667418e-01	-8.963481e+01
1.850000e-06	2.234042e-08	-1.222396e-09	1.587746e-01	-8.755083e+01
1.860000e-06	6.821024e-08	-1.188607e-09	4.847739e-01	-8.540323e+01
1.870000e-06	1.140623e-07	-1.157927e-09	8.106469e-01	-8.319125e+01
1.880000e-06	1.599076e-07	-1.126047e-09	1.136472e+00	-8.091436e+01
1.890000e-06	2.057655e-07	-1.087638e-09	1.462387e+00	-7.857231e+01
1.900000e-06	2.516021e-07	-1.048150e-09	1.788150e+00	-7.616510e+01
1.910000e-06	2.974648e-07	-1.013151e-09	2.114099e+00	-7.369302e+01
1.920000e-06	3.432829e-07	-9.792109e-10	2.439730e+00	-7.115661e+01
1.930000e-06	3.890566e-07	-9.403809e-10	2.765047e+00	-6.855668e+01
1.940000e-06	4.348277e-07	-8.978598e-10	3.090344e+00	-6.589429e+01
1.950000e-06	4.805483e-07	-8.605296e-10	3.415283e+00	-6.317077e+01
1.960000e-06	5.261988e-07	-8.251517e-10	3.739724e+00	-6.038767e+01
1.970000e-06	5.717790e-07	-7.830946e-10	4.063665e+00	-5.754675e+01
1.980000e-06	6.173351e-07	-7.341960e-10	4.387434e+00	-5.464999e+01
1.990000e-06	6.628866e-07	-6.863854e-10	4.711172e+00	-5.169954e+01
2.000000e-06	7.084072e-07	-6.453217e-10	5.034689e+00	-4.869773e+01
2.010000e-06	7.537899e-07	-6.026241e-10	5.357227e+00	-4.564702e+01
2.020000e-06	7.990787e-07	-5.569376e-10	5.679096e+00	-4.255000e+01
2.030000e-06	8.443985e-07	-5.100897e-10	6.001187e+00	-3.940934e+01
2.040000e-06	8.896944e-07	-4.647422e-10	6.323107e+00	-3.622782e+01
2.050000e-06	9.349932e-07	-4.181719e-10	6.645048e+00	-3.300827e+01
2.060000e-06	9.802353e-07	-3.688949e-10	6.966586e+00	-2.975356e+01
2.070000e-06	1.025298e-06	-3.185363e-10	7.286850e+00	-2.646658e+01
2.080000e-06	1.070178e-06	-2.719917e-10	7.605813e+00	-2.315025e+01
2.090000e-06	1.114915e-06	-2.309544e-10	7.923764e+00	-1.980747e+01
2.100000e-06	1.159547e-06	-1.866263e-10	8.240966e+00	-1.644114e+01
2.110000e-06	1.204063e-06	-1.361954e-10	8.557345e+00	-1.305415e+01
2.120000e-06	1.248544e-06	-8.363528e-11	8.873474e+00	-9.649340e+00
2.130000e-06	1.292973e-06	-3.074862e-11	9.189231e+00	-6.229542e+00
2.140000e-06	1.337369e-06	2.281843e-11	9.504753e+00	-2.797548e+00
2.150000e-06	1.381700e-06	7.794738e-11	9.819817e+00	6.438777e-01
2.160000e-06	1.425900e-06	1.311586e-10	1.013395e+01	4.092001e+00
2.170000e-06	1.470012e-06	1.773320e-10	1.044746e+01	7.544113e+00
2.180000e-06	1.514128e-06	2.227269e-10	1.076099e+01	1.099753e+01
2.190000e-06	1.558240e-06	2.736201e-10	1.107450e+01	1.444957e+01
2.200000e-06	1.602288e-06	3.253881e-10	1.138755e+01	1.789759e+01
2.210000e-06	1.646276e-06	3.763829e-10	1.170017e+01	2.133892e+01
2.220000e-06	1.690200e-06	4.286937e-10	1.201234e+01	2.477093e+01
2.230000e-06	1.734056e-06	4.831949e-10	1.232403e+01	2.819094e+01
2.240000e-06	1.777832e-06	5.370119e-10	1.263515e+01	3.159631e+01
2.250000e-06	1.821514e-06	5.852036e-10	1.294560e+01	3.498437e+01
2.260000e-06	1.865098e-06	6.312509e-10	1.325535e+01	3.835244e+01
2.270000e-06	1.908483e-06	6.788285e-10	1.356369e+01	4.169783e+01
2.280000e-06	1.951664e-06	7.270150e-10	1.387058e+01	4.501787e+01
2.290000e-06	1.994680e-06	7.724902e-10	1.417630e+01	4.830987e+01
2.300000e-06	2.037481e-06	8.182187e-10	1.448049e+01	5.157116e+01
2.310000e-06	2.080028e-06	8.674843e-10	1.478287e+01	5.479908e+01
2.320000e-06	2.122246e-06	9.166001e-10	1.508292e+01	5.799100e+01
2.330000e-06	2.164150e-06	9.624681e-10	1.538073e+01	6.114434e+01
2.340000e-06	2.205753e-06	1.006051e-09	1.567641e+01	6.425657e+01
2.350000e-06	2.247171e-06	1.049056e-09	1.597077e+01	6.732522e+01
2.360000e-06	2.288292e-06	1.092966e-09	1.626301e+01	7.034793e+01
2.370000e-06	2.329112e-06	1.133597e-09	1.655313e+01	7.332242e+01
2.380000e-06	2.369741e-06	1.170501e-09	1.684188e+01	7.624654e+01
2.390000e-06	2.410138e-06	1.209269e-09	1.712899e+01	7.911828e+01
2.400000e-06	2.450434e-06	1.250758e-09	1.741537e+01	8.193576e+01
2.410000e-06	2.490637e-06	1.289841e-09	1.770110e+01	8.469729e+01
2.420000e-06	2.530752e-06	1.326194e-09	1.798619e+01	8.740134e+01
2.430000e-06	2.570787e-06	1.364904e-09	1.827072e+01	9.004658e+01
2.440000e-06	2.610647e-06	1.408197e-09	1.855401e+01	9.263188e+01
2.450000e-06	2.650387e-06	1.448728e-09	1.883644e+01	9.515631e+01
2.460000e-06	2.690095e-06	1.481578e-09	1.911865e+01	9.761916e+01
2.470000e-06	2.729716e-06	1.511377e-09	1.940024e+01	1.000199e+02
2.480000e-06	2.769148e-06	1.541252e-09	1.968049e+01	1.023583e+02
2.490000e-06	2.808286e-06	1.570804e-09	1.995865e+01	1.046342e+02
2.500000e-06	2.847231e-06	1.600560e-09	2.023543e+01	1.068478e+02
2.510000e-06	2.886045e-06	1.631597e-09	2.051128e+01	1.089994e+02
2.520000e-06	2.924604e-06	1.665192e-09	2.078532e+01	1.110894e+02
2.530000e-06	2.962884e-06	1.698110e-09	2.105738e+01	1.131186e+02
2.540000e-06	3.000990e-06	1.725925e-09	2.132820e+01	1.150877e+02
2.550000e-06	3.038951e-06	1.752618e-09	2.159799e+01	1.169977e+02
2.560000e-06	3.076773e-06	1.781081e-09	2.186680e+01	1.188498e+02
2.570000e-06	3.114375e-06	1.807994e-09	2.213404e+01	1.206450e+02
2.580000e-06	3.151665e-06	1.831296e-09	2.239905e+01	1.223846e+02
2.590000e-06	3.188710e-06	1.854340e-09	2.266234e+01	1.240700e+02
2.600000e-06	3.225573e-06	1.879095e-09	2.292433e+01	1.257024e+02
2.610000e-06	3.262200e-06	1.904008e-09	2.318464e+01	1.272833e+02
2.620000e-06	3.298578e-06	1.927380e-09	2.344318e+01	1.288140e+02
2.630000e-06	3.334760e-06	1.951354e-09	2.370032e+01	1.302959e+02
2.640000e-06	3.370795e-06	1.977308e-09	2.395642e+01	1.317303e+02
2.650000e-06	3.406763e-06	1.999662e-09	2.421205e+01	1.331186e+02
2.660000e-06	3.442616e-06	2.015025e-09	2.446686e+01	1.344619e+02
2.670000e-06	3.478310e-06	2.029398e-09	2.472054e+01	1.357614e+02
2.680000e-06	3.513685e-06	2.045690e-09	2.497195e+01	1.370183e+02
2.690000e-06	3.548657e-06	2.062011e-09	2.522050e+01	1.382336e+02
2.700000e-06	3.583280e-06	2.076296e-09	2.546657e+01	1.394084e+02
2.710000e-06	3.617637e-06	2.090509e-09	2.571075e+01	1.405435e+02
2.720000e-06	3.651600e-06	2.108789e-09	2.595212e+01	1.416398e+02
2.730000e-06	3.685049e-06	2.129064e-09	2.618985e+01	1.426981e+02
2.740000e-06	3.718082e-06	2.145515e-09	2.642461e+01	1.437193e+02
2.750000e-06	3.750776e-06	2.158425e-09	2.665697e+01	1.447040e+02
2.760000e-06	3.783182e-06	2.172229e-09	2.688728e+01	1.456530e+02
2.770000e-06	3.815320e-06	2.186914e-09	2.711569e+01	1.465669e+02
2.780000e-06	3.847310e-06	2.197942e-09	2.734304e+01	1.474465e+02
2.790000e-06	3.879182e-06	2.206164e-09	2.756956e+01	1.482925e+02
2.800000e-06	3.910903e-06	2.217521e-09	2.779500e+01	1.491055e+02
2.810000e-06	3.942373e-06	2.232241e-09	2.801866e+01	1.498864e+02
2.820000e-06	3.973664e-06	2.245751e-09	2.824105e+01	1.506359e+02
2.830000e-06	4.004682e-06	2.256118e-09	2.846149e+01	1.513548e+02
2.840000e-06	4.035262e-06	2.264595e-09	2.867883e+01	1.520441e+02
2.850000e-06	4.065529e-06	2.274452e-09	2.889394e+01	1.527047e+02
2.860000e-06	4.095533e-06	2.286256e-09	2.910718e+01	1.533375e+02
2.870000e-06	4.125285e-06	2.298379e-09	2.931863e+01	1.539437e+02
2.880000e-06	4.154752e-06	2.309368e-09	2.952805e+01	1.545243e+02
2.890000e-06	4.183931e-06	2.316849e-09	2.973543e+01	1.550804e+02
2.900000e-06	4.212836e-06	2.321884e-09	2.994086e+01	1.556133e+02
