# Temperatura_=_-1.1
# Concentracion g/m^3_=_4090.0
# C_Vs_to_Am_M_A/Vsm_=_65563218390.804596
# pendiente_HvsI_1/m_=_3716.3
# ordenada_HvsI_A/m_=_1297.0
# frecuencia_Hz_=_135073.23340867815

Tiempo_(s)	Campo_(V.s)	Magnetizacion_(V.s)	Campo_(kA/m)	Magnetizacion_(A/m)
0.000000e+00	-5.424806e-06	-2.621767e-09	-3.839882e+01	-1.680472e+02
1.000000e-08	-5.424846e-06	-2.627260e-09	-3.839910e+01	-1.680290e+02
2.000000e-08	-5.424758e-06	-2.629106e-09	-3.839848e+01	-1.680103e+02
3.000000e-08	-5.424457e-06	-2.626902e-09	-3.839635e+01	-1.679925e+02
4.000000e-08	-5.423721e-06	-2.617402e-09	-3.839114e+01	-1.679771e+02
5.000000e-08	-5.422507e-06	-2.603486e-09	-3.838255e+01	-1.679655e+02
6.000000e-08	-5.420701e-06	-2.593901e-09	-3.836977e+01	-1.679591e+02
7.000000e-08	-5.418296e-06	-2.589254e-09	-3.835274e+01	-1.679595e+02
8.000000e-08	-5.415241e-06	-2.614131e-09	-3.833112e+01	-1.679680e+02
9.000000e-08	-5.411604e-06	-2.664799e-09	-3.830537e+01	-1.679859e+02
1.000000e-07	-5.407526e-06	-2.657677e-09	-3.827650e+01	-1.680144e+02
1.100000e-07	-5.403176e-06	-2.574262e-09	-3.824572e+01	-1.680545e+02
1.200000e-07	-5.398838e-06	-2.604564e-09	-3.821501e+01	-1.681071e+02
1.300000e-07	-5.394299e-06	-2.639019e-09	-3.818288e+01	-1.681729e+02
1.400000e-07	-5.389228e-06	-2.625842e-09	-3.814699e+01	-1.682523e+02
1.500000e-07	-5.383732e-06	-2.511929e-09	-3.810808e+01	-1.683456e+02
1.600000e-07	-5.378004e-06	-2.551848e-09	-3.806754e+01	-1.684528e+02
1.700000e-07	-5.371878e-06	-2.661444e-09	-3.802418e+01	-1.685736e+02
1.800000e-07	-5.365177e-06	-2.633870e-09	-3.797675e+01	-1.687075e+02
1.900000e-07	-5.358050e-06	-2.559634e-09	-3.792630e+01	-1.688539e+02
2.000000e-07	-5.350717e-06	-2.574366e-09	-3.787439e+01	-1.690118e+02
2.100000e-07	-5.343132e-06	-2.642340e-09	-3.782070e+01	-1.691800e+02
2.200000e-07	-5.335234e-06	-2.582192e-09	-3.776480e+01	-1.693570e+02
2.300000e-07	-5.327069e-06	-2.572717e-09	-3.770700e+01	-1.695414e+02
2.400000e-07	-5.318637e-06	-2.631159e-09	-3.764732e+01	-1.697315e+02
2.500000e-07	-5.309573e-06	-2.665599e-09	-3.758316e+01	-1.699252e+02
2.600000e-07	-5.299681e-06	-2.600013e-09	-3.751314e+01	-1.701207e+02
2.700000e-07	-5.289397e-06	-2.648032e-09	-3.744034e+01	-1.703159e+02
2.800000e-07	-5.278644e-06	-2.711883e-09	-3.736423e+01	-1.705088e+02
2.900000e-07	-5.267296e-06	-2.662260e-09	-3.728390e+01	-1.706972e+02
3.000000e-07	-5.255564e-06	-2.593247e-09	-3.720087e+01	-1.708790e+02
3.100000e-07	-5.243470e-06	-2.682965e-09	-3.711526e+01	-1.710523e+02
3.200000e-07	-5.230955e-06	-2.718857e-09	-3.702667e+01	-1.712152e+02
3.300000e-07	-5.218072e-06	-2.642489e-09	-3.693548e+01	-1.713659e+02
3.400000e-07	-5.204919e-06	-2.619671e-09	-3.684238e+01	-1.715027e+02
3.500000e-07	-5.191419e-06	-2.681638e-09	-3.674682e+01	-1.716242e+02
3.600000e-07	-5.177493e-06	-2.654882e-09	-3.664825e+01	-1.717291e+02
3.700000e-07	-5.163269e-06	-2.627977e-09	-3.654756e+01	-1.718163e+02
3.800000e-07	-5.148540e-06	-2.649131e-09	-3.644331e+01	-1.718852e+02
3.900000e-07	-5.132976e-06	-2.641625e-09	-3.633314e+01	-1.719350e+02
4.000000e-07	-5.116705e-06	-2.620497e-09	-3.621797e+01	-1.719654e+02
4.100000e-07	-5.100170e-06	-2.659515e-09	-3.610093e+01	-1.719763e+02
4.200000e-07	-5.083347e-06	-2.656457e-09	-3.598185e+01	-1.719678e+02
4.300000e-07	-5.066217e-06	-2.590603e-09	-3.586059e+01	-1.719404e+02
4.400000e-07	-5.048916e-06	-2.612046e-09	-3.573813e+01	-1.718944e+02
4.500000e-07	-5.031223e-06	-2.651329e-09	-3.561289e+01	-1.718308e+02
4.600000e-07	-5.013120e-06	-2.622446e-09	-3.548476e+01	-1.717504e+02
4.700000e-07	-4.994615e-06	-2.586888e-09	-3.535377e+01	-1.716544e+02
4.800000e-07	-4.975649e-06	-2.624449e-09	-3.521952e+01	-1.715439e+02
4.900000e-07	-4.956253e-06	-2.632002e-09	-3.508222e+01	-1.714203e+02
5.000000e-07	-4.936571e-06	-2.627404e-09	-3.494291e+01	-1.712850e+02
5.100000e-07	-4.916699e-06	-2.613321e-09	-3.480225e+01	-1.711394e+02
5.200000e-07	-4.896680e-06	-2.604014e-09	-3.466055e+01	-1.709849e+02
5.300000e-07	-4.876489e-06	-2.600099e-09	-3.451762e+01	-1.708232e+02
5.400000e-07	-4.856025e-06	-2.628917e-09	-3.437278e+01	-1.706555e+02
5.500000e-07	-4.835184e-06	-2.604590e-09	-3.422525e+01	-1.704833e+02
5.600000e-07	-4.813934e-06	-2.582146e-09	-3.407484e+01	-1.703078e+02
5.700000e-07	-4.792315e-06	-2.599530e-09	-3.392181e+01	-1.701303e+02
5.800000e-07	-4.770355e-06	-2.624567e-09	-3.376637e+01	-1.699519e+02
5.900000e-07	-4.748087e-06	-2.598091e-09	-3.360875e+01	-1.697734e+02
6.000000e-07	-4.725586e-06	-2.584389e-09	-3.344948e+01	-1.695958e+02
6.100000e-07	-4.702756e-06	-2.583073e-09	-3.328788e+01	-1.694197e+02
6.200000e-07	-4.679466e-06	-2.589378e-09	-3.312302e+01	-1.692456e+02
6.300000e-07	-4.655830e-06	-2.587146e-09	-3.295572e+01	-1.690740e+02
6.400000e-07	-4.631989e-06	-2.578890e-09	-3.278696e+01	-1.689050e+02
6.500000e-07	-4.607993e-06	-2.568851e-09	-3.261711e+01	-1.687387e+02
6.600000e-07	-4.583771e-06	-2.580704e-09	-3.244566e+01	-1.685751e+02
6.700000e-07	-4.559207e-06	-2.585188e-09	-3.227179e+01	-1.684141e+02
6.800000e-07	-4.534321e-06	-2.565545e-09	-3.209563e+01	-1.682553e+02
6.900000e-07	-4.509053e-06	-2.552302e-09	-3.191677e+01	-1.680984e+02
7.000000e-07	-4.483204e-06	-2.558909e-09	-3.173380e+01	-1.679430e+02
7.100000e-07	-4.456726e-06	-2.566450e-09	-3.154639e+01	-1.677885e+02
7.200000e-07	-4.429736e-06	-2.556472e-09	-3.135534e+01	-1.676344e+02
7.300000e-07	-4.402379e-06	-2.547567e-09	-3.116170e+01	-1.674801e+02
7.400000e-07	-4.374772e-06	-2.546156e-09	-3.096629e+01	-1.673250e+02
7.500000e-07	-4.346970e-06	-2.554694e-09	-3.076949e+01	-1.671685e+02
7.600000e-07	-4.319007e-06	-2.546399e-09	-3.057156e+01	-1.670100e+02
7.700000e-07	-4.290889e-06	-2.532650e-09	-3.037253e+01	-1.668489e+02
7.800000e-07	-4.262549e-06	-2.525670e-09	-3.017192e+01	-1.666847e+02
7.900000e-07	-4.233873e-06	-2.536697e-09	-2.996895e+01	-1.665169e+02
8.000000e-07	-4.204796e-06	-2.534142e-09	-2.976313e+01	-1.663451e+02
8.100000e-07	-4.175397e-06	-2.522855e-09	-2.955504e+01	-1.661690e+02
8.200000e-07	-4.145667e-06	-2.510807e-09	-2.934460e+01	-1.659882e+02
8.300000e-07	-4.115568e-06	-2.518023e-09	-2.913154e+01	-1.658025e+02
8.400000e-07	-4.085303e-06	-2.522048e-09	-2.891731e+01	-1.656118e+02
8.500000e-07	-4.054808e-06	-2.517529e-09	-2.870146e+01	-1.654159e+02
8.600000e-07	-4.023963e-06	-2.502288e-09	-2.848312e+01	-1.652147e+02
8.700000e-07	-3.992816e-06	-2.501405e-09	-2.826266e+01	-1.650083e+02
8.800000e-07	-3.961480e-06	-2.501690e-09	-2.804085e+01	-1.647968e+02
8.900000e-07	-3.930032e-06	-2.494434e-09	-2.781825e+01	-1.645802e+02
9.000000e-07	-3.898384e-06	-2.477607e-09	-2.759423e+01	-1.643586e+02
9.100000e-07	-3.866555e-06	-2.475149e-09	-2.736893e+01	-1.641323e+02
9.200000e-07	-3.834560e-06	-2.483789e-09	-2.714246e+01	-1.639013e+02
9.300000e-07	-3.802307e-06	-2.487502e-09	-2.691416e+01	-1.636659e+02
9.400000e-07	-3.769832e-06	-2.476254e-09	-2.668429e+01	-1.634262e+02
9.500000e-07	-3.737121e-06	-2.467598e-09	-2.645275e+01	-1.631825e+02
9.600000e-07	-3.704018e-06	-2.466603e-09	-2.621844e+01	-1.629348e+02
9.700000e-07	-3.670328e-06	-2.465977e-09	-2.597996e+01	-1.626833e+02
9.800000e-07	-3.636001e-06	-2.458290e-09	-2.573698e+01	-1.624282e+02
9.900000e-07	-3.601337e-06	-2.452095e-09	-2.549162e+01	-1.621696e+02
1.000000e-06	-3.566408e-06	-2.456384e-09	-2.524438e+01	-1.619074e+02
1.010000e-06	-3.531079e-06	-2.460946e-09	-2.499431e+01	-1.616418e+02
1.020000e-06	-3.495444e-06	-2.455389e-09	-2.474207e+01	-1.613729e+02
1.030000e-06	-3.459667e-06	-2.439758e-09	-2.448883e+01	-1.611004e+02
1.040000e-06	-3.423780e-06	-2.432343e-09	-2.423480e+01	-1.608245e+02
1.050000e-06	-3.387754e-06	-2.429154e-09	-2.397980e+01	-1.605451e+02
1.060000e-06	-3.351567e-06	-2.420390e-09	-2.372366e+01	-1.602620e+02
1.070000e-06	-3.315165e-06	-2.404809e-09	-2.346599e+01	-1.599751e+02
1.080000e-06	-3.278627e-06	-2.397268e-09	-2.320736e+01	-1.596844e+02
1.090000e-06	-3.241841e-06	-2.394332e-09	-2.294697e+01	-1.593896e+02
1.100000e-06	-3.204649e-06	-2.392514e-09	-2.268371e+01	-1.590907e+02
1.110000e-06	-3.167181e-06	-2.386103e-09	-2.241850e+01	-1.587874e+02
1.120000e-06	-3.129563e-06	-2.382513e-09	-2.215222e+01	-1.584795e+02
1.130000e-06	-3.091817e-06	-2.380886e-09	-2.188505e+01	-1.581670e+02
1.140000e-06	-3.053892e-06	-2.377344e-09	-2.161660e+01	-1.578495e+02
1.150000e-06	-3.015739e-06	-2.363333e-09	-2.134654e+01	-1.575270e+02
1.160000e-06	-2.977435e-06	-2.352288e-09	-2.107540e+01	-1.571991e+02
1.170000e-06	-2.938935e-06	-2.343905e-09	-2.080289e+01	-1.568658e+02
1.180000e-06	-2.900144e-06	-2.339003e-09	-2.052831e+01	-1.565268e+02
1.190000e-06	-2.861103e-06	-2.332345e-09	-2.025197e+01	-1.561818e+02
1.200000e-06	-2.821864e-06	-2.327418e-09	-1.997422e+01	-1.558308e+02
1.210000e-06	-2.782470e-06	-2.321663e-09	-1.969537e+01	-1.554733e+02
1.220000e-06	-2.742911e-06	-2.314551e-09	-1.941536e+01	-1.551093e+02
1.230000e-06	-2.703184e-06	-2.303971e-09	-1.913416e+01	-1.547383e+02
1.240000e-06	-2.663292e-06	-2.294883e-09	-1.885178e+01	-1.543602e+02
1.250000e-06	-2.623331e-06	-2.286276e-09	-1.856892e+01	-1.539746e+02
1.260000e-06	-2.583290e-06	-2.281087e-09	-1.828550e+01	-1.535811e+02
1.270000e-06	-2.543141e-06	-2.276505e-09	-1.800131e+01	-1.531794e+02
1.280000e-06	-2.502865e-06	-2.269496e-09	-1.771622e+01	-1.527690e+02
1.290000e-06	-2.462452e-06	-2.260682e-09	-1.743017e+01	-1.523496e+02
1.300000e-06	-2.421972e-06	-2.249625e-09	-1.714363e+01	-1.519207e+02
1.310000e-06	-2.381361e-06	-2.241701e-09	-1.685617e+01	-1.514818e+02
1.320000e-06	-2.340514e-06	-2.234768e-09	-1.656704e+01	-1.510324e+02
1.330000e-06	-2.299390e-06	-2.227702e-09	-1.627595e+01	-1.505720e+02
1.340000e-06	-2.257918e-06	-2.220322e-09	-1.598240e+01	-1.501000e+02
1.350000e-06	-2.216091e-06	-2.213042e-09	-1.568632e+01	-1.496158e+02
1.360000e-06	-2.173863e-06	-2.200871e-09	-1.538742e+01	-1.491190e+02
1.370000e-06	-2.131170e-06	-2.186588e-09	-1.508523e+01	-1.486088e+02
1.380000e-06	-2.088227e-06	-2.171256e-09	-1.478126e+01	-1.480849e+02
1.390000e-06	-2.045186e-06	-2.159422e-09	-1.447660e+01	-1.475466e+02
1.400000e-06	-2.001930e-06	-2.153973e-09	-1.417042e+01	-1.469935e+02
1.410000e-06	-1.958524e-06	-2.154622e-09	-1.386317e+01	-1.464250e+02
1.420000e-06	-1.915066e-06	-2.149708e-09	-1.355556e+01	-1.458407e+02
1.430000e-06	-1.871503e-06	-2.140188e-09	-1.324721e+01	-1.452401e+02
1.440000e-06	-1.827790e-06	-2.128418e-09	-1.293779e+01	-1.446230e+02
1.450000e-06	-1.783958e-06	-2.115156e-09	-1.262752e+01	-1.439890e+02
1.460000e-06	-1.740098e-06	-2.097175e-09	-1.231707e+01	-1.433378e+02
1.470000e-06	-1.696188e-06	-2.078243e-09	-1.200626e+01	-1.426691e+02
1.480000e-06	-1.652232e-06	-2.062816e-09	-1.169512e+01	-1.419829e+02
1.490000e-06	-1.608226e-06	-2.056428e-09	-1.138363e+01	-1.412790e+02
1.500000e-06	-1.564119e-06	-2.053699e-09	-1.107142e+01	-1.405573e+02
1.510000e-06	-1.519916e-06	-2.047146e-09	-1.075854e+01	-1.398177e+02
1.520000e-06	-1.475613e-06	-2.034724e-09	-1.044494e+01	-1.390603e+02
1.530000e-06	-1.431256e-06	-2.021442e-09	-1.013097e+01	-1.382849e+02
1.540000e-06	-1.386921e-06	-2.007390e-09	-9.817147e+00	-1.374916e+02
1.550000e-06	-1.342428e-06	-1.989806e-09	-9.502210e+00	-1.366804e+02
1.560000e-06	-1.297713e-06	-1.972678e-09	-9.185702e+00	-1.358512e+02
1.570000e-06	-1.252942e-06	-1.961443e-09	-8.868797e+00	-1.350039e+02
1.580000e-06	-1.208091e-06	-1.955666e-09	-8.551323e+00	-1.341384e+02
1.590000e-06	-1.163157e-06	-1.948076e-09	-8.233262e+00	-1.332545e+02
1.600000e-06	-1.118124e-06	-1.935061e-09	-7.914504e+00	-1.323519e+02
1.610000e-06	-1.072973e-06	-1.921464e-09	-7.594905e+00	-1.314303e+02
1.620000e-06	-1.027744e-06	-1.908445e-09	-7.274757e+00	-1.304890e+02
1.630000e-06	-9.823844e-07	-1.890459e-09	-6.953687e+00	-1.295276e+02
1.640000e-06	-9.369462e-07	-1.869015e-09	-6.632058e+00	-1.285453e+02
1.650000e-06	-8.914855e-07	-1.850292e-09	-6.310270e+00	-1.275412e+02
1.660000e-06	-8.459560e-07	-1.838902e-09	-5.987995e+00	-1.265142e+02
1.670000e-06	-8.003680e-07	-1.828078e-09	-5.665306e+00	-1.254632e+02
1.680000e-06	-7.547518e-07	-1.811274e-09	-5.342418e+00	-1.243869e+02
1.690000e-06	-7.091237e-07	-1.791031e-09	-5.019445e+00	-1.232837e+02
1.700000e-06	-6.634583e-07	-1.774503e-09	-4.696208e+00	-1.221521e+02
1.710000e-06	-6.177597e-07	-1.758508e-09	-4.372736e+00	-1.209904e+02
1.720000e-06	-5.720302e-07	-1.738742e-09	-4.049045e+00	-1.197965e+02
1.730000e-06	-5.262088e-07	-1.716917e-09	-3.724704e+00	-1.185686e+02
1.740000e-06	-4.803236e-07	-1.699732e-09	-3.399911e+00	-1.173045e+02
1.750000e-06	-4.344443e-07	-1.683208e-09	-3.075161e+00	-1.160022e+02
1.760000e-06	-3.885878e-07	-1.662112e-09	-2.750571e+00	-1.146593e+02
1.770000e-06	-3.426206e-07	-1.636792e-09	-2.425198e+00	-1.132736e+02
1.780000e-06	-2.965938e-07	-1.614505e-09	-2.099402e+00	-1.118429e+02
1.790000e-06	-2.506258e-07	-1.595422e-09	-1.774024e+00	-1.103650e+02
1.800000e-06	-2.046537e-07	-1.572746e-09	-1.448616e+00	-1.088375e+02
1.810000e-06	-1.587335e-07	-1.546039e-09	-1.123576e+00	-1.072584e+02
1.820000e-06	-1.128220e-07	-1.521470e-09	-7.985963e-01	-1.056255e+02
1.830000e-06	-6.690683e-08	-1.499937e-09	-4.735917e-01	-1.039370e+02
1.840000e-06	-2.098363e-08	-1.474907e-09	-1.485300e-01	-1.021911e+02
1.850000e-06	2.502842e-08	-1.444009e-09	1.771606e-01	-1.003859e+02
1.860000e-06	7.101564e-08	-1.412244e-09	5.026754e-01	-9.852008e+01
1.870000e-06	1.169026e-07	-1.382825e-09	8.274807e-01	-9.659227e+01
1.880000e-06	1.628027e-07	-1.352993e-09	1.152379e+00	-9.460134e+01
1.890000e-06	2.087388e-07	-1.320310e-09	1.477532e+00	-9.254637e+01
1.900000e-06	2.546433e-07	-1.287464e-09	1.802461e+00	-9.042668e+01
1.910000e-06	3.006033e-07	-1.255602e-09	2.127784e+00	-8.824177e+01
1.920000e-06	3.466122e-07	-1.223253e-09	2.453452e+00	-8.599139e+01
1.930000e-06	3.925534e-07	-1.189190e-09	2.778641e+00	-8.367549e+01
1.940000e-06	4.383924e-07	-1.154351e-09	3.103106e+00	-8.129425e+01
1.950000e-06	4.841721e-07	-1.122111e-09	3.427152e+00	-7.884805e+01
1.960000e-06	5.299422e-07	-1.088419e-09	3.751131e+00	-7.633746e+01
1.970000e-06	5.757207e-07	-1.048879e-09	4.075168e+00	-7.376325e+01
1.980000e-06	6.214558e-07	-1.005816e-09	4.398898e+00	-7.112637e+01
1.990000e-06	6.671399e-07	-9.650544e-10	4.722268e+00	-6.842793e+01
2.000000e-06	7.128180e-07	-9.257507e-10	5.045594e+00	-6.566917e+01
2.010000e-06	7.584424e-07	-8.851527e-10	5.368541e+00	-6.285147e+01
2.020000e-06	8.040671e-07	-8.431486e-10	5.691490e+00	-5.997635e+01
2.030000e-06	8.496166e-07	-8.016849e-10	6.013907e+00	-5.704541e+01
2.040000e-06	8.950648e-07	-7.607965e-10	6.335606e+00	-5.406035e+01
2.050000e-06	9.404330e-07	-7.176520e-10	6.656739e+00	-5.102294e+01
2.060000e-06	9.857107e-07	-6.707185e-10	6.977231e+00	-4.793503e+01
2.070000e-06	1.030876e-06	-6.223145e-10	7.296928e+00	-4.479853e+01
2.080000e-06	1.075917e-06	-5.757233e-10	7.615747e+00	-4.161539e+01
2.090000e-06	1.120948e-06	-5.328816e-10	7.934493e+00	-3.838763e+01
2.100000e-06	1.165925e-06	-4.886648e-10	8.252853e+00	-3.511729e+01
2.110000e-06	1.210763e-06	-4.400533e-10	8.570238e+00	-3.180649e+01
2.120000e-06	1.255481e-06	-3.885707e-10	8.886768e+00	-2.845737e+01
2.130000e-06	1.300077e-06	-3.360519e-10	9.202435e+00	-2.507214e+01
2.140000e-06	1.344601e-06	-2.819645e-10	9.517592e+00	-2.165308e+01
2.150000e-06	1.389039e-06	-2.282383e-10	9.832139e+00	-1.820250e+01
2.160000e-06	1.433354e-06	-1.774611e-10	1.014582e+01	-1.472283e+01
2.170000e-06	1.477594e-06	-1.294725e-10	1.045897e+01	-1.121655e+01
2.180000e-06	1.521772e-06	-8.039571e-11	1.077168e+01	-7.686257e+00
2.190000e-06	1.565917e-06	-2.769849e-11	1.108415e+01	-4.134641e+00
2.200000e-06	1.610007e-06	2.486715e-11	1.139624e+01	-5.645109e-01
2.210000e-06	1.654041e-06	7.746232e-11	1.170793e+01	3.021208e+00
2.220000e-06	1.698022e-06	1.309579e-10	1.201924e+01	6.619460e+00
2.230000e-06	1.741939e-06	1.855342e-10	1.233010e+01	1.022706e+01
2.240000e-06	1.785808e-06	2.397722e-10	1.264062e+01	1.384068e+01
2.250000e-06	1.829602e-06	2.924996e-10	1.295061e+01	1.745688e+01
2.260000e-06	1.873325e-06	3.449088e-10	1.326010e+01	2.107207e+01
2.270000e-06	1.916946e-06	3.996724e-10	1.356887e+01	2.468254e+01
2.280000e-06	1.960384e-06	4.548739e-10	1.387634e+01	2.828447e+01
2.290000e-06	2.003704e-06	5.081368e-10	1.418297e+01	3.187395e+01
2.300000e-06	2.046936e-06	5.620945e-10	1.448898e+01	3.544696e+01
2.310000e-06	2.089961e-06	6.168087e-10	1.479353e+01	3.899944e+01
2.320000e-06	2.132689e-06	6.704122e-10	1.509598e+01	4.252728e+01
2.330000e-06	2.175127e-06	7.222481e-10	1.539637e+01	4.602635e+01
2.340000e-06	2.217278e-06	7.717868e-10	1.569473e+01	4.949255e+01
2.350000e-06	2.259079e-06	8.216545e-10	1.599061e+01	5.292179e+01
2.360000e-06	2.300549e-06	8.714043e-10	1.628415e+01	5.631009e+01
2.370000e-06	2.341782e-06	9.192890e-10	1.657601e+01	5.965354e+01
2.380000e-06	2.382715e-06	9.652894e-10	1.686576e+01	6.294840e+01
2.390000e-06	2.423320e-06	1.012862e-09	1.715317e+01	6.619108e+01
2.400000e-06	2.463650e-06	1.061399e-09	1.743864e+01	6.937820e+01
2.410000e-06	2.503815e-06	1.105229e-09	1.772295e+01	7.250661e+01
2.420000e-06	2.543967e-06	1.146425e-09	1.800716e+01	7.557342e+01
2.430000e-06	2.584104e-06	1.189720e-09	1.829126e+01	7.857601e+01
2.440000e-06	2.624147e-06	1.234216e-09	1.857470e+01	8.151210e+01
2.450000e-06	2.664061e-06	1.276688e-09	1.885722e+01	8.437970e+01
2.460000e-06	2.703845e-06	1.317491e-09	1.913883e+01	8.717718e+01
2.470000e-06	2.743557e-06	1.357752e-09	1.941993e+01	8.990325e+01
2.480000e-06	2.783115e-06	1.397478e-09	1.969994e+01	9.255697e+01
2.490000e-06	2.822385e-06	1.434058e-09	1.997791e+01	9.513777e+01
2.500000e-06	2.861451e-06	1.466924e-09	2.025443e+01	9.764540e+01
2.510000e-06	2.900327e-06	1.502359e-09	2.052961e+01	1.000800e+02
2.520000e-06	2.938950e-06	1.541305e-09	2.080299e+01	1.024419e+02
2.530000e-06	2.977324e-06	1.575269e-09	2.107462e+01	1.047320e+02
2.540000e-06	3.015487e-06	1.600973e-09	2.134475e+01	1.069512e+02
2.550000e-06	3.053514e-06	1.627851e-09	2.161392e+01	1.091009e+02
2.560000e-06	3.091398e-06	1.659356e-09	2.188208e+01	1.111825e+02
2.570000e-06	3.129107e-06	1.687990e-09	2.214900e+01	1.131977e+02
2.580000e-06	3.166593e-06	1.711993e-09	2.241434e+01	1.151485e+02
2.590000e-06	3.203888e-06	1.736615e-09	2.267832e+01	1.170367e+02
2.600000e-06	3.240999e-06	1.767241e-09	2.294101e+01	1.188646e+02
2.610000e-06	3.277780e-06	1.799556e-09	2.320136e+01	1.206342e+02
2.620000e-06	3.314212e-06	1.828050e-09	2.345924e+01	1.223478e+02
2.630000e-06	3.350402e-06	1.852400e-09	2.371540e+01	1.240074e+02
2.640000e-06	3.386416e-06	1.874539e-09	2.397033e+01	1.256152e+02
2.650000e-06	3.422316e-06	1.894261e-09	2.422444e+01	1.271733e+02
2.660000e-06	3.458128e-06	1.909105e-09	2.447793e+01	1.286835e+02
2.670000e-06	3.493871e-06	1.924162e-09	2.473094e+01	1.301478e+02
2.680000e-06	3.529507e-06	1.945030e-09	2.498318e+01	1.315678e+02
2.690000e-06	3.564881e-06	1.970501e-09	2.523357e+01	1.329451e+02
2.700000e-06	3.600008e-06	1.995572e-09	2.548221e+01	1.342809e+02
2.710000e-06	3.634788e-06	2.017371e-09	2.572840e+01	1.355767e+02
2.720000e-06	3.669017e-06	2.037271e-09	2.597069e+01	1.368333e+02
2.730000e-06	3.702698e-06	2.055159e-09	2.620909e+01	1.380518e+02
2.740000e-06	3.735866e-06	2.068420e-09	2.644387e+01	1.392328e+02
2.750000e-06	3.768630e-06	2.079425e-09	2.667579e+01	1.403770e+02
2.760000e-06	3.801074e-06	2.091857e-09	2.690544e+01	1.414848e+02
2.770000e-06	3.833248e-06	2.107447e-09	2.713318e+01	1.425566e+02
2.780000e-06	3.865294e-06	2.124069e-09	2.736001e+01	1.435927e+02
2.790000e-06	3.897256e-06	2.141514e-09	2.758625e+01	1.445932e+02
2.800000e-06	3.929058e-06	2.161715e-09	2.781135e+01	1.455585e+02
2.810000e-06	3.960664e-06	2.182797e-09	2.803507e+01	1.464885e+02
2.820000e-06	3.992024e-06	2.198708e-09	2.825705e+01	1.473836e+02
2.830000e-06	4.023064e-06	2.204863e-09	2.847677e+01	1.482438e+02
2.840000e-06	4.053791e-06	2.206492e-09	2.869426e+01	1.490694e+02
2.850000e-06	4.084227e-06	2.212360e-09	2.890970e+01	1.498607e+02
2.860000e-06	4.114404e-06	2.224790e-09	2.912330e+01	1.506181e+02
2.870000e-06	4.144281e-06	2.240436e-09	2.933478e+01	1.513421e+02
2.880000e-06	4.173915e-06	2.256708e-09	2.954454e+01	1.520333e+02
2.890000e-06	4.203320e-06	2.270457e-09	2.975268e+01	1.526923e+02
2.900000e-06	4.232370e-06	2.279866e-09	2.995831e+01	1.533201e+02
