# Temperatura_=_-1.4
# Concentracion g/m^3_=_4090.0
# C_Vs_to_Am_M_A/Vsm_=_65563218390.804596
# pendiente_HvsI_1/m_=_3716.3
# ordenada_HvsI_A/m_=_1297.0
# frecuencia_Hz_=_135081.74761973307

Tiempo_(s)	Campo_(V.s)	Magnetizacion_(V.s)	Campo_(kA/m)	Magnetizacion_(A/m)
0.000000e+00	-5.419119e-06	-2.576949e-09	-3.839127e+01	-1.648707e+02
1.000000e-08	-5.419293e-06	-2.576051e-09	-3.839251e+01	-1.648597e+02
2.000000e-08	-5.419193e-06	-2.572950e-09	-3.839180e+01	-1.648538e+02
3.000000e-08	-5.418830e-06	-2.568637e-09	-3.838923e+01	-1.648540e+02
4.000000e-08	-5.418118e-06	-2.568776e-09	-3.838418e+01	-1.648616e+02
5.000000e-08	-5.416867e-06	-2.569428e-09	-3.837533e+01	-1.648778e+02
6.000000e-08	-5.414915e-06	-2.576790e-09	-3.836149e+01	-1.649033e+02
7.000000e-08	-5.412244e-06	-2.591138e-09	-3.834257e+01	-1.649392e+02
8.000000e-08	-5.408980e-06	-2.585994e-09	-3.831945e+01	-1.649862e+02
9.000000e-08	-5.405263e-06	-2.543772e-09	-3.829312e+01	-1.650448e+02
1.000000e-07	-5.401194e-06	-2.531448e-09	-3.826429e+01	-1.651153e+02
1.100000e-07	-5.396890e-06	-2.579923e-09	-3.823379e+01	-1.651980e+02
1.200000e-07	-5.392447e-06	-2.612610e-09	-3.820232e+01	-1.652929e+02
1.300000e-07	-5.387722e-06	-2.524413e-09	-3.816885e+01	-1.653999e+02
1.400000e-07	-5.382576e-06	-2.507714e-09	-3.813239e+01	-1.655184e+02
1.500000e-07	-5.377039e-06	-2.579685e-09	-3.809316e+01	-1.656479e+02
1.600000e-07	-5.371206e-06	-2.633310e-09	-3.805184e+01	-1.657876e+02
1.700000e-07	-5.364956e-06	-2.526822e-09	-3.800756e+01	-1.659367e+02
1.800000e-07	-5.358212e-06	-2.478815e-09	-3.795978e+01	-1.660939e+02
1.900000e-07	-5.351052e-06	-2.584885e-09	-3.790906e+01	-1.662580e+02
2.000000e-07	-5.343670e-06	-2.608965e-09	-3.785676e+01	-1.664277e+02
2.100000e-07	-5.336070e-06	-2.537686e-09	-3.780292e+01	-1.666014e+02
2.200000e-07	-5.328159e-06	-2.529278e-09	-3.774688e+01	-1.667776e+02
2.300000e-07	-5.319954e-06	-2.628901e-09	-3.768875e+01	-1.669546e+02
2.400000e-07	-5.311345e-06	-2.592600e-09	-3.762776e+01	-1.671308e+02
2.500000e-07	-5.302160e-06	-2.544007e-09	-3.756269e+01	-1.673046e+02
2.600000e-07	-5.292369e-06	-2.591352e-09	-3.749333e+01	-1.674744e+02
2.700000e-07	-5.281997e-06	-2.657048e-09	-3.741985e+01	-1.676384e+02
2.800000e-07	-5.271004e-06	-2.580358e-09	-3.734197e+01	-1.677953e+02
2.900000e-07	-5.259585e-06	-2.555309e-09	-3.726107e+01	-1.679436e+02
3.000000e-07	-5.247833e-06	-2.626213e-09	-3.717782e+01	-1.680820e+02
3.100000e-07	-5.235721e-06	-2.638912e-09	-3.709201e+01	-1.682093e+02
3.200000e-07	-5.223245e-06	-2.548847e-09	-3.700362e+01	-1.683245e+02
3.300000e-07	-5.210389e-06	-2.560961e-09	-3.691255e+01	-1.684266e+02
3.400000e-07	-5.197101e-06	-2.622895e-09	-3.681841e+01	-1.685150e+02
3.500000e-07	-5.183388e-06	-2.600944e-09	-3.672126e+01	-1.685890e+02
3.600000e-07	-5.169408e-06	-2.565814e-09	-3.662222e+01	-1.686483e+02
3.700000e-07	-5.155039e-06	-2.602679e-09	-3.652042e+01	-1.686926e+02
3.800000e-07	-5.140016e-06	-2.600071e-09	-3.641400e+01	-1.687219e+02
3.900000e-07	-5.124435e-06	-2.568789e-09	-3.630361e+01	-1.687362e+02
4.000000e-07	-5.108367e-06	-2.587666e-09	-3.618978e+01	-1.687357e+02
4.100000e-07	-5.091774e-06	-2.590743e-09	-3.607223e+01	-1.687208e+02
4.200000e-07	-5.074893e-06	-2.551617e-09	-3.595263e+01	-1.686919e+02
4.300000e-07	-5.057762e-06	-2.567142e-09	-3.583128e+01	-1.686495e+02
4.400000e-07	-5.040296e-06	-2.609233e-09	-3.570754e+01	-1.685945e+02
4.500000e-07	-5.022503e-06	-2.566635e-09	-3.558149e+01	-1.685273e+02
4.600000e-07	-5.004335e-06	-2.538515e-09	-3.545278e+01	-1.684488e+02
4.700000e-07	-4.985803e-06	-2.564055e-09	-3.532149e+01	-1.683599e+02
4.800000e-07	-4.966840e-06	-2.578029e-09	-3.518715e+01	-1.682612e+02
4.900000e-07	-4.947505e-06	-2.542159e-09	-3.505017e+01	-1.681537e+02
5.000000e-07	-4.927939e-06	-2.546682e-09	-3.491155e+01	-1.680381e+02
5.100000e-07	-4.908123e-06	-2.552836e-09	-3.477117e+01	-1.679153e+02
5.200000e-07	-4.888037e-06	-2.555949e-09	-3.462887e+01	-1.677859e+02
5.300000e-07	-4.867723e-06	-2.551718e-09	-3.448496e+01	-1.676507e+02
5.400000e-07	-4.847082e-06	-2.548635e-09	-3.433873e+01	-1.675104e+02
5.500000e-07	-4.826077e-06	-2.528118e-09	-3.418992e+01	-1.673655e+02
5.600000e-07	-4.804769e-06	-2.542254e-09	-3.403897e+01	-1.672166e+02
5.700000e-07	-4.783093e-06	-2.548343e-09	-3.388541e+01	-1.670642e+02
5.800000e-07	-4.761020e-06	-2.530187e-09	-3.372903e+01	-1.669087e+02
5.900000e-07	-4.738668e-06	-2.506753e-09	-3.357068e+01	-1.667505e+02
6.000000e-07	-4.715966e-06	-2.520852e-09	-3.340985e+01	-1.665899e+02
6.100000e-07	-4.692957e-06	-2.524837e-09	-3.324684e+01	-1.664270e+02
6.200000e-07	-4.669714e-06	-2.519209e-09	-3.308218e+01	-1.662623e+02
6.300000e-07	-4.646159e-06	-2.509329e-09	-3.291531e+01	-1.660958e+02
6.400000e-07	-4.622404e-06	-2.511784e-09	-3.274702e+01	-1.659276e+02
6.500000e-07	-4.598456e-06	-2.512856e-09	-3.257736e+01	-1.657579e+02
6.600000e-07	-4.574172e-06	-2.504330e-09	-3.240533e+01	-1.655867e+02
6.700000e-07	-4.549558e-06	-2.485000e-09	-3.223095e+01	-1.654142e+02
6.800000e-07	-4.524532e-06	-2.476856e-09	-3.205365e+01	-1.652403e+02
6.900000e-07	-4.498972e-06	-2.483055e-09	-3.187258e+01	-1.650652e+02
7.000000e-07	-4.472979e-06	-2.485151e-09	-3.168843e+01	-1.648888e+02
7.100000e-07	-4.446466e-06	-2.477118e-09	-3.150060e+01	-1.647112e+02
7.200000e-07	-4.419440e-06	-2.470872e-09	-3.130914e+01	-1.645324e+02
7.300000e-07	-4.392021e-06	-2.476664e-09	-3.111489e+01	-1.643524e+02
7.400000e-07	-4.364286e-06	-2.475030e-09	-3.091840e+01	-1.641713e+02
7.500000e-07	-4.336418e-06	-2.463603e-09	-3.072098e+01	-1.639890e+02
7.600000e-07	-4.308423e-06	-2.446511e-09	-3.052265e+01	-1.638057e+02
7.700000e-07	-4.280192e-06	-2.448406e-09	-3.032264e+01	-1.636212e+02
7.800000e-07	-4.251784e-06	-2.452184e-09	-3.012139e+01	-1.634356e+02
7.900000e-07	-4.223137e-06	-2.452063e-09	-2.991844e+01	-1.632488e+02
8.000000e-07	-4.194104e-06	-2.440170e-09	-2.971277e+01	-1.630608e+02
8.100000e-07	-4.164771e-06	-2.437855e-09	-2.950495e+01	-1.628715e+02
8.200000e-07	-4.135113e-06	-2.436434e-09	-2.929485e+01	-1.626807e+02
8.300000e-07	-4.105193e-06	-2.435366e-09	-2.908288e+01	-1.624883e+02
8.400000e-07	-4.075053e-06	-2.423361e-09	-2.886936e+01	-1.622942e+02
8.500000e-07	-4.044530e-06	-2.418586e-09	-2.865312e+01	-1.620981e+02
8.600000e-07	-4.013659e-06	-2.418114e-09	-2.843442e+01	-1.618997e+02
8.700000e-07	-3.982550e-06	-2.420534e-09	-2.821403e+01	-1.616988e+02
8.800000e-07	-3.951222e-06	-2.410773e-09	-2.799209e+01	-1.614950e+02
8.900000e-07	-3.919709e-06	-2.401643e-09	-2.776884e+01	-1.612880e+02
9.000000e-07	-3.888058e-06	-2.395314e-09	-2.754461e+01	-1.610774e+02
9.100000e-07	-3.856233e-06	-2.396456e-09	-2.731915e+01	-1.608628e+02
9.200000e-07	-3.824221e-06	-2.392805e-09	-2.709236e+01	-1.606439e+02
9.300000e-07	-3.792015e-06	-2.389279e-09	-2.686420e+01	-1.604201e+02
9.400000e-07	-3.759491e-06	-2.391583e-09	-2.663378e+01	-1.601912e+02
9.500000e-07	-3.726502e-06	-2.399926e-09	-2.640008e+01	-1.599568e+02
9.600000e-07	-3.693004e-06	-2.397992e-09	-2.616277e+01	-1.597164e+02
9.700000e-07	-3.659134e-06	-2.385364e-09	-2.592281e+01	-1.594698e+02
9.800000e-07	-3.624873e-06	-2.375262e-09	-2.568010e+01	-1.592168e+02
9.900000e-07	-3.590096e-06	-2.373979e-09	-2.543372e+01	-1.589570e+02
1.000000e-06	-3.554957e-06	-2.373131e-09	-2.518478e+01	-1.586904e+02
1.010000e-06	-3.519602e-06	-2.367956e-09	-2.493431e+01	-1.584169e+02
1.020000e-06	-3.484026e-06	-2.366978e-09	-2.468228e+01	-1.581364e+02
1.030000e-06	-3.448309e-06	-2.368849e-09	-2.442924e+01	-1.578491e+02
1.040000e-06	-3.412517e-06	-2.370361e-09	-2.417568e+01	-1.575550e+02
1.050000e-06	-3.376585e-06	-2.360440e-09	-2.392112e+01	-1.572544e+02
1.060000e-06	-3.340482e-06	-2.345617e-09	-2.366535e+01	-1.569476e+02
1.070000e-06	-3.304170e-06	-2.333188e-09	-2.340810e+01	-1.566350e+02
1.080000e-06	-3.267640e-06	-2.328558e-09	-2.314931e+01	-1.563170e+02
1.090000e-06	-3.230865e-06	-2.322621e-09	-2.288878e+01	-1.559941e+02
1.100000e-06	-3.193759e-06	-2.318627e-09	-2.262591e+01	-1.556669e+02
1.110000e-06	-3.156438e-06	-2.317967e-09	-2.236151e+01	-1.553358e+02
1.120000e-06	-3.118915e-06	-2.321368e-09	-2.209568e+01	-1.550015e+02
1.130000e-06	-3.081104e-06	-2.317268e-09	-2.182781e+01	-1.546645e+02
1.140000e-06	-3.043187e-06	-2.305220e-09	-2.155919e+01	-1.543255e+02
1.150000e-06	-3.005177e-06	-2.289247e-09	-2.128992e+01	-1.539850e+02
1.160000e-06	-2.966955e-06	-2.281791e-09	-2.101913e+01	-1.536435e+02
1.170000e-06	-2.928530e-06	-2.274104e-09	-2.074692e+01	-1.533014e+02
1.180000e-06	-2.889759e-06	-2.268163e-09	-2.047224e+01	-1.529591e+02
1.190000e-06	-2.850723e-06	-2.265354e-09	-2.019570e+01	-1.526168e+02
1.200000e-06	-2.811596e-06	-2.267881e-09	-1.991851e+01	-1.522748e+02
1.210000e-06	-2.772332e-06	-2.263135e-09	-1.964034e+01	-1.519330e+02
1.220000e-06	-2.732841e-06	-2.248193e-09	-1.936058e+01	-1.515914e+02
1.230000e-06	-2.693170e-06	-2.231841e-09	-1.907953e+01	-1.512498e+02
1.240000e-06	-2.653394e-06	-2.222648e-09	-1.879774e+01	-1.509079e+02
1.250000e-06	-2.613525e-06	-2.217603e-09	-1.851529e+01	-1.505651e+02
1.260000e-06	-2.573564e-06	-2.214429e-09	-1.823219e+01	-1.502208e+02
1.270000e-06	-2.533429e-06	-2.211367e-09	-1.794785e+01	-1.498744e+02
1.280000e-06	-2.493147e-06	-2.210012e-09	-1.766248e+01	-1.495248e+02
1.290000e-06	-2.452742e-06	-2.207740e-09	-1.737624e+01	-1.491713e+02
1.300000e-06	-2.412131e-06	-2.197371e-09	-1.708853e+01	-1.488126e+02
1.310000e-06	-2.371357e-06	-2.182339e-09	-1.679967e+01	-1.484477e+02
1.320000e-06	-2.330370e-06	-2.169583e-09	-1.650931e+01	-1.480752e+02
1.330000e-06	-2.289030e-06	-2.161811e-09	-1.621643e+01	-1.476940e+02
1.340000e-06	-2.247468e-06	-2.155692e-09	-1.592199e+01	-1.473027e+02
1.350000e-06	-2.205704e-06	-2.151999e-09	-1.562612e+01	-1.469001e+02
1.360000e-06	-2.163569e-06	-2.148664e-09	-1.532762e+01	-1.464847e+02
1.370000e-06	-2.121059e-06	-2.146807e-09	-1.502645e+01	-1.460555e+02
1.380000e-06	-2.078351e-06	-2.140360e-09	-1.472390e+01	-1.456111e+02
1.390000e-06	-2.035460e-06	-2.127207e-09	-1.442004e+01	-1.451505e+02
1.400000e-06	-1.992308e-06	-2.112059e-09	-1.411433e+01	-1.446727e+02
1.410000e-06	-1.948915e-06	-2.101117e-09	-1.380692e+01	-1.441767e+02
1.420000e-06	-1.905429e-06	-2.091599e-09	-1.349885e+01	-1.436617e+02
1.430000e-06	-1.861912e-06	-2.084606e-09	-1.319056e+01	-1.431270e+02
1.440000e-06	-1.818301e-06	-2.078229e-09	-1.288160e+01	-1.425722e+02
1.450000e-06	-1.774636e-06	-2.073894e-09	-1.257225e+01	-1.419967e+02
1.460000e-06	-1.730915e-06	-2.066770e-09	-1.226251e+01	-1.414005e+02
1.470000e-06	-1.687070e-06	-2.054659e-09	-1.195190e+01	-1.407833e+02
1.480000e-06	-1.643104e-06	-2.038288e-09	-1.164043e+01	-1.401453e+02
1.490000e-06	-1.599055e-06	-2.024490e-09	-1.132837e+01	-1.394864e+02
1.500000e-06	-1.554897e-06	-2.014050e-09	-1.101553e+01	-1.388070e+02
1.510000e-06	-1.510679e-06	-2.004606e-09	-1.070228e+01	-1.381075e+02
1.520000e-06	-1.466446e-06	-1.992929e-09	-1.038891e+01	-1.373881e+02
1.530000e-06	-1.422061e-06	-1.982819e-09	-1.007447e+01	-1.366494e+02
1.540000e-06	-1.377558e-06	-1.974549e-09	-9.759188e+00	-1.358918e+02
1.550000e-06	-1.333077e-06	-1.966875e-09	-9.444069e+00	-1.351159e+02
1.560000e-06	-1.288464e-06	-1.955311e-09	-9.128014e+00	-1.343220e+02
1.570000e-06	-1.243788e-06	-1.941511e-09	-8.811504e+00	-1.335107e+02
1.580000e-06	-1.199082e-06	-1.929497e-09	-8.494793e+00	-1.326822e+02
1.590000e-06	-1.154172e-06	-1.917396e-09	-8.176632e+00	-1.318368e+02
1.600000e-06	-1.109080e-06	-1.904429e-09	-7.857179e+00	-1.309746e+02
1.610000e-06	-1.063883e-06	-1.892141e-09	-7.536988e+00	-1.300957e+02
1.620000e-06	-1.018625e-06	-1.881224e-09	-7.216357e+00	-1.291998e+02
1.630000e-06	-9.733085e-07	-1.868354e-09	-6.895319e+00	-1.282866e+02
1.640000e-06	-9.279369e-07	-1.851858e-09	-6.573888e+00	-1.273557e+02
1.650000e-06	-8.825211e-07	-1.835520e-09	-6.252144e+00	-1.264062e+02
1.660000e-06	-8.370676e-07	-1.824053e-09	-5.930133e+00	-1.254373e+02
1.670000e-06	-7.915309e-07	-1.813477e-09	-5.607532e+00	-1.244480e+02
1.680000e-06	-7.459489e-07	-1.798260e-09	-5.284610e+00	-1.234369e+02
1.690000e-06	-7.003050e-07	-1.779581e-09	-4.961250e+00	-1.224025e+02
1.700000e-06	-6.546197e-07	-1.764162e-09	-4.637596e+00	-1.213433e+02
1.710000e-06	-6.089608e-07	-1.748874e-09	-4.314130e+00	-1.202573e+02
1.720000e-06	-5.632495e-07	-1.729410e-09	-3.990292e+00	-1.191427e+02
1.730000e-06	-5.174281e-07	-1.707165e-09	-3.665674e+00	-1.179973e+02
1.740000e-06	-4.716687e-07	-1.689818e-09	-3.341496e+00	-1.168189e+02
1.750000e-06	-4.259991e-07	-1.674487e-09	-3.017953e+00	-1.156054e+02
1.760000e-06	-3.800806e-07	-1.656933e-09	-2.692648e+00	-1.143542e+02
1.770000e-06	-3.340491e-07	-1.634391e-09	-2.366542e+00	-1.130631e+02
1.780000e-06	-2.881726e-07	-1.613116e-09	-2.041533e+00	-1.117296e+02
1.790000e-06	-2.423278e-07	-1.595533e-09	-1.716750e+00	-1.103513e+02
1.800000e-06	-1.964295e-07	-1.575489e-09	-1.391587e+00	-1.089260e+02
1.810000e-06	-1.505140e-07	-1.550340e-09	-1.066303e+00	-1.074513e+02
1.820000e-06	-1.046492e-07	-1.525248e-09	-7.413779e-01	-1.059250e+02
1.830000e-06	-5.867958e-08	-1.502549e-09	-4.157104e-01	-1.043450e+02
1.840000e-06	-1.263080e-08	-1.480811e-09	-8.948178e-02	-1.027094e+02
1.850000e-06	3.333283e-08	-1.454965e-09	2.361435e-01	-1.010161e+02
1.860000e-06	7.927533e-08	-1.426496e-09	5.616192e-01	-9.926360e+01
1.870000e-06	1.251908e-07	-1.400364e-09	8.869034e-01	-9.745022e+01
1.880000e-06	1.711069e-07	-1.373629e-09	1.212192e+00	-9.557456e+01
1.890000e-06	2.171337e-07	-1.344346e-09	1.538265e+00	-9.363535e+01
1.900000e-06	2.631868e-07	-1.313606e-09	1.864524e+00	-9.163152e+01
1.910000e-06	3.091349e-07	-1.283129e-09	2.190039e+00	-8.956211e+01
1.920000e-06	3.550107e-07	-1.250694e-09	2.515043e+00	-8.742635e+01
1.930000e-06	4.008755e-07	-1.215559e-09	2.839968e+00	-8.522362e+01
1.940000e-06	4.467550e-07	-1.179592e-09	3.164997e+00	-8.295344e+01
1.950000e-06	4.925804e-07	-1.147236e-09	3.489643e+00	-8.061547e+01
1.960000e-06	5.383052e-07	-1.116398e-09	3.813577e+00	-7.820953e+01
1.970000e-06	5.840111e-07	-1.081718e-09	4.137376e+00	-7.573554e+01
1.980000e-06	6.297354e-07	-1.041964e-09	4.461306e+00	-7.319355e+01
1.990000e-06	6.754356e-07	-9.995629e-10	4.785064e+00	-7.058374e+01
2.000000e-06	7.210419e-07	-9.572981e-10	5.108158e+00	-6.790639e+01
2.010000e-06	7.665163e-07	-9.150956e-10	5.430318e+00	-6.516190e+01
2.020000e-06	8.118922e-07	-8.714980e-10	5.751779e+00	-6.235076e+01
2.030000e-06	8.572934e-07	-8.297011e-10	6.073420e+00	-5.947361e+01
2.040000e-06	9.027257e-07	-7.889324e-10	6.395281e+00	-5.653118e+01
2.050000e-06	9.480710e-07	-7.460449e-10	6.716526e+00	-5.352431e+01
2.060000e-06	9.932996e-07	-7.004654e-10	7.036944e+00	-5.045398e+01
2.070000e-06	1.038434e-06	-6.549699e-10	7.356698e+00	-4.732131e+01
2.080000e-06	1.083490e-06	-6.106683e-10	7.675888e+00	-4.412758e+01
2.090000e-06	1.128441e-06	-5.659636e-10	7.994339e+00	-4.087419e+01
2.100000e-06	1.173332e-06	-5.195063e-10	8.312369e+00	-3.756277e+01
2.110000e-06	1.218062e-06	-4.705914e-10	8.629254e+00	-3.419509e+01
2.120000e-06	1.262594e-06	-4.187858e-10	8.944739e+00	-3.077316e+01
2.130000e-06	1.307094e-06	-3.644119e-10	9.259994e+00	-2.729919e+01
2.140000e-06	1.351463e-06	-3.084474e-10	9.574319e+00	-2.377563e+01
2.150000e-06	1.395712e-06	-2.535309e-10	9.887800e+00	-2.020517e+01
2.160000e-06	1.440006e-06	-2.044730e-10	1.020160e+01	-1.659077e+01
2.170000e-06	1.484239e-06	-1.585926e-10	1.051496e+01	-1.293565e+01
2.180000e-06	1.528302e-06	-1.068059e-10	1.082712e+01	-9.243282e+00
2.190000e-06	1.572279e-06	-4.888635e-11	1.113868e+01	-5.517439e+00
2.200000e-06	1.616248e-06	9.681590e-12	1.145017e+01	-1.762151e+00
2.210000e-06	1.660217e-06	7.037765e-11	1.176166e+01	2.018284e+00
2.220000e-06	1.704124e-06	1.345273e-10	1.207271e+01	5.819313e+00
2.230000e-06	1.747942e-06	1.988407e-10	1.238314e+01	9.636139e+00
2.240000e-06	1.791704e-06	2.577238e-10	1.269317e+01	1.346375e+01
2.250000e-06	1.835360e-06	3.086054e-10	1.300245e+01	1.729691e+01
2.260000e-06	1.878972e-06	3.566563e-10	1.331142e+01	2.113025e+01
2.270000e-06	1.922595e-06	4.076221e-10	1.362046e+01	2.495824e+01
2.280000e-06	1.966047e-06	4.604996e-10	1.392829e+01	2.877523e+01
2.290000e-06	2.009374e-06	5.137164e-10	1.423523e+01	3.257554e+01
2.300000e-06	2.052585e-06	5.736280e-10	1.454136e+01	3.635345e+01
2.310000e-06	2.095506e-06	6.389777e-10	1.484543e+01	4.010325e+01
2.320000e-06	2.138073e-06	7.020727e-10	1.514699e+01	4.381931e+01
2.330000e-06	2.180350e-06	7.569991e-10	1.544650e+01	4.749612e+01
2.340000e-06	2.222410e-06	8.044428e-10	1.574447e+01	5.112832e+01
2.350000e-06	2.264100e-06	8.516567e-10	1.603982e+01	5.471074e+01
2.360000e-06	2.305403e-06	8.996367e-10	1.633243e+01	5.823849e+01
2.370000e-06	2.346430e-06	9.442435e-10	1.662308e+01	6.170695e+01
2.380000e-06	2.387216e-06	9.896946e-10	1.691203e+01	6.511184e+01
2.390000e-06	2.427810e-06	1.040821e-09	1.719961e+01	6.844924e+01
2.400000e-06	2.468247e-06	1.095063e-09	1.748608e+01	7.171562e+01
2.410000e-06	2.508515e-06	1.144113e-09	1.777135e+01	7.490789e+01
2.420000e-06	2.548619e-06	1.186091e-09	1.805547e+01	7.802338e+01
2.430000e-06	2.588624e-06	1.226762e-09	1.833888e+01	8.105989e+01
2.440000e-06	2.628511e-06	1.268598e-09	1.862145e+01	8.401568e+01
2.450000e-06	2.668266e-06	1.307366e-09	1.890310e+01	8.688948e+01
2.460000e-06	2.707954e-06	1.343077e-09	1.918427e+01	8.968046e+01
2.470000e-06	2.747487e-06	1.381930e-09	1.946433e+01	9.238828e+01
2.480000e-06	2.786814e-06	1.424549e-09	1.974294e+01	9.501299e+01
2.490000e-06	2.826011e-06	1.466676e-09	2.002063e+01	9.755510e+01
2.500000e-06	2.864928e-06	1.503888e-09	2.029633e+01	1.000155e+02
2.510000e-06	2.903646e-06	1.539360e-09	2.057063e+01	1.023953e+02
2.520000e-06	2.942286e-06	1.575258e-09	2.084437e+01	1.046962e+02
2.530000e-06	2.980628e-06	1.607363e-09	2.111600e+01	1.069200e+02
2.540000e-06	3.018744e-06	1.631738e-09	2.138603e+01	1.090687e+02
2.550000e-06	3.056746e-06	1.656106e-09	2.165525e+01	1.111446e+02
2.560000e-06	3.094560e-06	1.687512e-09	2.192314e+01	1.131501e+02
2.570000e-06	3.132200e-06	1.722224e-09	2.218980e+01	1.150878e+02
2.580000e-06	3.169652e-06	1.750619e-09	2.245512e+01	1.169601e+02
2.590000e-06	3.206889e-06	1.774384e-09	2.271893e+01	1.187698e+02
2.600000e-06	3.243843e-06	1.801497e-09	2.298072e+01	1.205194e+02
2.610000e-06	3.280480e-06	1.829015e-09	2.324028e+01	1.222114e+02
2.620000e-06	3.316827e-06	1.851009e-09	2.349777e+01	1.238483e+02
2.630000e-06	3.352963e-06	1.872868e-09	2.375377e+01	1.254324e+02
2.640000e-06	3.388963e-06	1.898991e-09	2.400881e+01	1.269659e+02
2.650000e-06	3.424858e-06	1.926052e-09	2.426310e+01	1.284509e+02
2.660000e-06	3.460645e-06	1.947513e-09	2.451664e+01	1.298891e+02
2.670000e-06	3.496231e-06	1.963560e-09	2.476874e+01	1.312823e+02
2.680000e-06	3.531669e-06	1.980054e-09	2.501980e+01	1.326320e+02
2.690000e-06	3.566949e-06	1.999490e-09	2.526974e+01	1.339395e+02
2.700000e-06	3.601990e-06	2.016940e-09	2.551798e+01	1.352058e+02
2.710000e-06	3.636620e-06	2.031014e-09	2.576332e+01	1.364320e+02
2.720000e-06	3.670721e-06	2.048615e-09	2.600490e+01	1.376188e+02
2.730000e-06	3.704401e-06	2.070741e-09	2.624351e+01	1.387668e+02
2.740000e-06	3.737599e-06	2.089692e-09	2.647869e+01	1.398767e+02
2.750000e-06	3.770325e-06	2.102590e-09	2.671054e+01	1.409488e+02
2.760000e-06	3.802740e-06	2.115555e-09	2.694018e+01	1.419836e+02
2.770000e-06	3.834977e-06	2.133148e-09	2.716856e+01	1.429813e+02
2.780000e-06	3.867080e-06	2.151207e-09	2.739599e+01	1.439422e+02
2.790000e-06	3.898969e-06	2.163691e-09	2.762191e+01	1.448666e+02
2.800000e-06	3.930752e-06	2.173333e-09	2.784707e+01	1.457549e+02
2.810000e-06	3.962371e-06	2.186001e-09	2.807107e+01	1.466073e+02
2.820000e-06	3.993674e-06	2.199742e-09	2.829284e+01	1.474244e+02
2.830000e-06	4.024758e-06	2.206718e-09	2.851305e+01	1.482066e+02
2.840000e-06	4.055426e-06	2.210968e-09	2.873031e+01	1.489546e+02
2.850000e-06	4.085674e-06	2.220983e-09	2.894460e+01	1.496690e+02
2.860000e-06	4.115709e-06	2.237394e-09	2.915738e+01	1.503506e+02
2.870000e-06	4.145479e-06	2.251480e-09	2.936828e+01	1.510004e+02
2.880000e-06	4.175043e-06	2.258427e-09	2.957773e+01	1.516194e+02
2.890000e-06	4.204397e-06	2.262807e-09	2.978568e+01	1.522088e+02
2.900000e-06	4.233355e-06	2.268590e-09	2.999083e+01	1.527697e+02
