# Temperatura_=_10.36
# Concentracion g/m^3_=_4090.0
# C_Vs_to_Am_M_A/Vsm_=_65563218390.804596
# pendiente_HvsI_1/m_=_3716.3
# ordenada_HvsI_A/m_=_1297.0
# frecuencia_Hz_=_135085.91824718425

Tiempo_(s)	Campo_(V.s)	Magnetizacion_(V.s)	Campo_(kA/m)	Magnetizacion_(A/m)
0.000000e+00	-5.421686e-06	-2.616403e-09	-3.838663e+01	-1.662893e+02
1.000000e-08	-5.421865e-06	-2.618557e-09	-3.838790e+01	-1.662463e+02
2.000000e-08	-5.421816e-06	-2.614379e-09	-3.838756e+01	-1.662033e+02
3.000000e-08	-5.421406e-06	-2.608881e-09	-3.838465e+01	-1.661615e+02
4.000000e-08	-5.420547e-06	-2.603668e-09	-3.837858e+01	-1.661220e+02
5.000000e-08	-5.419272e-06	-2.597383e-09	-3.836955e+01	-1.660861e+02
6.000000e-08	-5.417437e-06	-2.598107e-09	-3.835655e+01	-1.660547e+02
7.000000e-08	-5.414936e-06	-2.629976e-09	-3.833885e+01	-1.660292e+02
8.000000e-08	-5.411795e-06	-2.648000e-09	-3.831660e+01	-1.660105e+02
9.000000e-08	-5.408002e-06	-2.573893e-09	-3.828975e+01	-1.659998e+02
1.000000e-07	-5.403788e-06	-2.501665e-09	-3.825991e+01	-1.659979e+02
1.100000e-07	-5.399552e-06	-2.654027e-09	-3.822992e+01	-1.660056e+02
1.200000e-07	-5.395202e-06	-2.710137e-09	-3.819913e+01	-1.660236e+02
1.300000e-07	-5.390407e-06	-2.556095e-09	-3.816518e+01	-1.660524e+02
1.400000e-07	-5.385177e-06	-2.450755e-09	-3.812814e+01	-1.660925e+02
1.500000e-07	-5.379707e-06	-2.616551e-09	-3.808942e+01	-1.661438e+02
1.600000e-07	-5.373876e-06	-2.750186e-09	-3.804813e+01	-1.662065e+02
1.700000e-07	-5.367523e-06	-2.528537e-09	-3.800315e+01	-1.662803e+02
1.800000e-07	-5.360795e-06	-2.410609e-09	-3.795552e+01	-1.663648e+02
1.900000e-07	-5.353704e-06	-2.597916e-09	-3.790531e+01	-1.664595e+02
2.000000e-07	-5.346268e-06	-2.700061e-09	-3.785267e+01	-1.665636e+02
2.100000e-07	-5.338545e-06	-2.506695e-09	-3.779798e+01	-1.666762e+02
2.200000e-07	-5.330574e-06	-2.473209e-09	-3.774154e+01	-1.667961e+02
2.300000e-07	-5.322417e-06	-2.656645e-09	-3.768379e+01	-1.669222e+02
2.400000e-07	-5.313964e-06	-2.631395e-09	-3.762394e+01	-1.670531e+02
2.500000e-07	-5.304799e-06	-2.454736e-09	-3.755905e+01	-1.671872e+02
2.600000e-07	-5.294895e-06	-2.551994e-09	-3.748893e+01	-1.673232e+02
2.700000e-07	-5.284337e-06	-2.698184e-09	-3.741418e+01	-1.674593e+02
2.800000e-07	-5.273146e-06	-2.545662e-09	-3.733494e+01	-1.675939e+02
2.900000e-07	-5.261643e-06	-2.465538e-09	-3.725350e+01	-1.677254e+02
3.000000e-07	-5.249881e-06	-2.657752e-09	-3.717022e+01	-1.678522e+02
3.100000e-07	-5.237705e-06	-2.674849e-09	-3.708402e+01	-1.679727e+02
3.200000e-07	-5.225114e-06	-2.481169e-09	-3.699487e+01	-1.680853e+02
3.300000e-07	-5.212189e-06	-2.513218e-09	-3.690336e+01	-1.681887e+02
3.400000e-07	-5.198955e-06	-2.666853e-09	-3.680966e+01	-1.682815e+02
3.500000e-07	-5.185364e-06	-2.589383e-09	-3.671343e+01	-1.683626e+02
3.600000e-07	-5.171433e-06	-2.523734e-09	-3.661480e+01	-1.684308e+02
3.700000e-07	-5.156883e-06	-2.609916e-09	-3.651178e+01	-1.684854e+02
3.800000e-07	-5.141651e-06	-2.604778e-09	-3.640393e+01	-1.685255e+02
3.900000e-07	-5.125980e-06	-2.542342e-09	-3.629298e+01	-1.685507e+02
4.000000e-07	-5.109787e-06	-2.595505e-09	-3.617833e+01	-1.685604e+02
4.100000e-07	-5.093150e-06	-2.593114e-09	-3.606054e+01	-1.685546e+02
4.200000e-07	-5.076230e-06	-2.495256e-09	-3.594074e+01	-1.685332e+02
4.300000e-07	-5.059048e-06	-2.550545e-09	-3.581909e+01	-1.684963e+02
4.400000e-07	-5.041577e-06	-2.627684e-09	-3.569539e+01	-1.684442e+02
4.500000e-07	-5.023802e-06	-2.545254e-09	-3.556953e+01	-1.683773e+02
4.600000e-07	-5.005722e-06	-2.496727e-09	-3.544152e+01	-1.682961e+02
4.700000e-07	-4.987268e-06	-2.576589e-09	-3.531087e+01	-1.682014e+02
4.800000e-07	-4.968370e-06	-2.582586e-09	-3.517707e+01	-1.680939e+02
4.900000e-07	-4.949144e-06	-2.529703e-09	-3.504095e+01	-1.679744e+02
5.000000e-07	-4.929732e-06	-2.529958e-09	-3.490350e+01	-1.678440e+02
5.100000e-07	-4.910016e-06	-2.541901e-09	-3.476391e+01	-1.677034e+02
5.200000e-07	-4.890012e-06	-2.546697e-09	-3.462228e+01	-1.675538e+02
5.300000e-07	-4.869778e-06	-2.566638e-09	-3.447902e+01	-1.673960e+02
5.400000e-07	-4.849191e-06	-2.533471e-09	-3.433326e+01	-1.672312e+02
5.500000e-07	-4.828230e-06	-2.498510e-09	-3.418485e+01	-1.670601e+02
5.600000e-07	-4.806842e-06	-2.536427e-09	-3.403342e+01	-1.668839e+02
5.700000e-07	-4.785150e-06	-2.553061e-09	-3.387984e+01	-1.667033e+02
5.800000e-07	-4.763217e-06	-2.506888e-09	-3.372454e+01	-1.665190e+02
5.900000e-07	-4.740876e-06	-2.493833e-09	-3.356636e+01	-1.663320e+02
6.000000e-07	-4.718148e-06	-2.518333e-09	-3.340544e+01	-1.661427e+02
6.100000e-07	-4.695116e-06	-2.523888e-09	-3.324237e+01	-1.659518e+02
6.200000e-07	-4.671831e-06	-2.510441e-09	-3.307751e+01	-1.657597e+02
6.300000e-07	-4.648265e-06	-2.485429e-09	-3.291066e+01	-1.655669e+02
6.400000e-07	-4.624431e-06	-2.475894e-09	-3.274191e+01	-1.653735e+02
6.500000e-07	-4.600415e-06	-2.499054e-09	-3.257187e+01	-1.651798e+02
6.600000e-07	-4.576143e-06	-2.500918e-09	-3.240002e+01	-1.649860e+02
6.700000e-07	-4.551498e-06	-2.464678e-09	-3.222553e+01	-1.647921e+02
6.800000e-07	-4.526459e-06	-2.456159e-09	-3.204825e+01	-1.645981e+02
6.900000e-07	-4.501084e-06	-2.479575e-09	-3.186859e+01	-1.644038e+02
7.000000e-07	-4.475285e-06	-2.482433e-09	-3.168593e+01	-1.642091e+02
7.100000e-07	-4.448837e-06	-2.459433e-09	-3.149867e+01	-1.640139e+02
7.200000e-07	-4.421879e-06	-2.446076e-09	-3.130780e+01	-1.638179e+02
7.300000e-07	-4.394638e-06	-2.454704e-09	-3.111493e+01	-1.636209e+02
7.400000e-07	-4.367160e-06	-2.468795e-09	-3.092038e+01	-1.634225e+02
7.500000e-07	-4.339434e-06	-2.452335e-09	-3.072407e+01	-1.632225e+02
7.600000e-07	-4.311445e-06	-2.424100e-09	-3.052591e+01	-1.630205e+02
7.700000e-07	-4.283220e-06	-2.425596e-09	-3.032607e+01	-1.628163e+02
7.800000e-07	-4.254703e-06	-2.441512e-09	-3.012416e+01	-1.626095e+02
7.900000e-07	-4.225892e-06	-2.433287e-09	-2.992017e+01	-1.623998e+02
8.000000e-07	-4.196824e-06	-2.412113e-09	-2.971437e+01	-1.621870e+02
8.100000e-07	-4.167506e-06	-2.405560e-09	-2.950679e+01	-1.619707e+02
8.200000e-07	-4.137821e-06	-2.415868e-09	-2.929661e+01	-1.617506e+02
8.300000e-07	-4.107807e-06	-2.416926e-09	-2.908411e+01	-1.615266e+02
8.400000e-07	-4.077501e-06	-2.402595e-09	-2.886953e+01	-1.612984e+02
8.500000e-07	-4.046908e-06	-2.393003e-09	-2.865293e+01	-1.610658e+02
8.600000e-07	-4.016163e-06	-2.403477e-09	-2.843525e+01	-1.608286e+02
8.700000e-07	-3.985299e-06	-2.410358e-09	-2.821672e+01	-1.605866e+02
8.800000e-07	-3.954245e-06	-2.393080e-09	-2.799686e+01	-1.603397e+02
8.900000e-07	-3.922855e-06	-2.369735e-09	-2.777461e+01	-1.600876e+02
9.000000e-07	-3.891191e-06	-2.365954e-09	-2.755042e+01	-1.598303e+02
9.100000e-07	-3.859348e-06	-2.373461e-09	-2.732497e+01	-1.595677e+02
9.200000e-07	-3.827265e-06	-2.371605e-09	-2.709781e+01	-1.592995e+02
9.300000e-07	-3.794956e-06	-2.364306e-09	-2.686906e+01	-1.590259e+02
9.400000e-07	-3.762270e-06	-2.370666e-09	-2.663763e+01	-1.587465e+02
9.500000e-07	-3.729247e-06	-2.383370e-09	-2.640383e+01	-1.584614e+02
9.600000e-07	-3.696102e-06	-2.376227e-09	-2.616915e+01	-1.581706e+02
9.700000e-07	-3.662460e-06	-2.352305e-09	-2.593096e+01	-1.578739e+02
9.800000e-07	-3.628250e-06	-2.337150e-09	-2.568875e+01	-1.575714e+02
9.900000e-07	-3.593737e-06	-2.338212e-09	-2.544439e+01	-1.572629e+02
1.000000e-06	-3.558820e-06	-2.341039e-09	-2.519717e+01	-1.569486e+02
1.010000e-06	-3.523461e-06	-2.339714e-09	-2.494682e+01	-1.566285e+02
1.020000e-06	-3.487832e-06	-2.340872e-09	-2.469456e+01	-1.563026e+02
1.030000e-06	-3.452108e-06	-2.346884e-09	-2.444163e+01	-1.559709e+02
1.040000e-06	-3.416283e-06	-2.343483e-09	-2.418797e+01	-1.556335e+02
1.050000e-06	-3.380264e-06	-2.323300e-09	-2.393296e+01	-1.552907e+02
1.060000e-06	-3.344029e-06	-2.300781e-09	-2.367640e+01	-1.549423e+02
1.070000e-06	-3.307630e-06	-2.292654e-09	-2.341869e+01	-1.545888e+02
1.080000e-06	-3.271078e-06	-2.291186e-09	-2.315990e+01	-1.542301e+02
1.090000e-06	-3.234239e-06	-2.285130e-09	-2.289907e+01	-1.538664e+02
1.100000e-06	-3.197094e-06	-2.276842e-09	-2.263607e+01	-1.534980e+02
1.110000e-06	-3.159703e-06	-2.276564e-09	-2.237134e+01	-1.531251e+02
1.120000e-06	-3.122123e-06	-2.277821e-09	-2.210527e+01	-1.527478e+02
1.130000e-06	-3.084359e-06	-2.271386e-09	-2.183789e+01	-1.523662e+02
1.140000e-06	-3.046295e-06	-2.257400e-09	-2.156839e+01	-1.519807e+02
1.150000e-06	-3.008057e-06	-2.246598e-09	-2.129765e+01	-1.515913e+02
1.160000e-06	-2.969712e-06	-2.241417e-09	-2.102616e+01	-1.511981e+02
1.170000e-06	-2.931089e-06	-2.232952e-09	-2.075271e+01	-1.508013e+02
1.180000e-06	-2.892203e-06	-2.218809e-09	-2.047738e+01	-1.504008e+02
1.190000e-06	-2.853261e-06	-2.210614e-09	-2.020166e+01	-1.499967e+02
1.200000e-06	-2.814204e-06	-2.208667e-09	-1.992514e+01	-1.495888e+02
1.210000e-06	-2.774863e-06	-2.204936e-09	-1.964659e+01	-1.491771e+02
1.220000e-06	-2.735320e-06	-2.193977e-09	-1.936662e+01	-1.487614e+02
1.230000e-06	-2.695657e-06	-2.184678e-09	-1.908580e+01	-1.483413e+02
1.240000e-06	-2.655884e-06	-2.179433e-09	-1.880420e+01	-1.479164e+02
1.250000e-06	-2.615939e-06	-2.170135e-09	-1.852138e+01	-1.474865e+02
1.260000e-06	-2.575822e-06	-2.155471e-09	-1.823734e+01	-1.470508e+02
1.270000e-06	-2.535690e-06	-2.137067e-09	-1.795320e+01	-1.466089e+02
1.280000e-06	-2.495449e-06	-2.124404e-09	-1.766829e+01	-1.461600e+02
1.290000e-06	-2.454934e-06	-2.118984e-09	-1.738143e+01	-1.457035e+02
1.300000e-06	-2.414206e-06	-2.116931e-09	-1.709307e+01	-1.452384e+02
1.310000e-06	-2.373249e-06	-2.115472e-09	-1.680308e+01	-1.447640e+02
1.320000e-06	-2.332059e-06	-2.114028e-09	-1.651145e+01	-1.442794e+02
1.330000e-06	-2.290660e-06	-2.106794e-09	-1.621834e+01	-1.437835e+02
1.340000e-06	-2.248996e-06	-2.090349e-09	-1.592335e+01	-1.432755e+02
1.350000e-06	-2.207062e-06	-2.070543e-09	-1.562645e+01	-1.427544e+02
1.360000e-06	-2.164804e-06	-2.053699e-09	-1.532725e+01	-1.422192e+02
1.370000e-06	-2.122381e-06	-2.042625e-09	-1.502689e+01	-1.416689e+02
1.380000e-06	-2.079787e-06	-2.036015e-09	-1.472531e+01	-1.411028e+02
1.390000e-06	-2.036845e-06	-2.029145e-09	-1.442128e+01	-1.405198e+02
1.400000e-06	-1.993663e-06	-2.025902e-09	-1.411554e+01	-1.399193e+02
1.410000e-06	-1.950304e-06	-2.022875e-09	-1.380855e+01	-1.393004e+02
1.420000e-06	-1.906852e-06	-2.011480e-09	-1.350090e+01	-1.386625e+02
1.430000e-06	-1.863317e-06	-1.992413e-09	-1.319266e+01	-1.380051e+02
1.440000e-06	-1.819673e-06	-1.973749e-09	-1.288366e+01	-1.373277e+02
1.450000e-06	-1.775892e-06	-1.958890e-09	-1.257368e+01	-1.366298e+02
1.460000e-06	-1.732025e-06	-1.948304e-09	-1.226309e+01	-1.359112e+02
1.470000e-06	-1.688090e-06	-1.938548e-09	-1.195202e+01	-1.351717e+02
1.480000e-06	-1.644079e-06	-1.928375e-09	-1.164041e+01	-1.344113e+02
1.490000e-06	-1.599961e-06	-1.920265e-09	-1.132805e+01	-1.336298e+02
1.500000e-06	-1.555750e-06	-1.910814e-09	-1.101503e+01	-1.328274e+02
1.510000e-06	-1.511517e-06	-1.894284e-09	-1.070185e+01	-1.320042e+02
1.520000e-06	-1.467188e-06	-1.874759e-09	-1.038799e+01	-1.311603e+02
1.530000e-06	-1.422768e-06	-1.857597e-09	-1.007349e+01	-1.302959e+02
1.540000e-06	-1.378340e-06	-1.846368e-09	-9.758926e+00	-1.294112e+02
1.550000e-06	-1.333775e-06	-1.838884e-09	-9.443398e+00	-1.285064e+02
1.560000e-06	-1.289072e-06	-1.828468e-09	-9.126889e+00	-1.275817e+02
1.570000e-06	-1.244398e-06	-1.817791e-09	-8.810591e+00	-1.266371e+02
1.580000e-06	-1.199736e-06	-1.806189e-09	-8.494377e+00	-1.256727e+02
1.590000e-06	-1.154955e-06	-1.789855e-09	-8.177318e+00	-1.246883e+02
1.600000e-06	-1.109993e-06	-1.770497e-09	-7.858973e+00	-1.236839e+02
1.610000e-06	-1.064906e-06	-1.753655e-09	-7.539753e+00	-1.226591e+02
1.620000e-06	-1.019757e-06	-1.740646e-09	-7.220090e+00	-1.216134e+02
1.630000e-06	-9.744647e-07	-1.728366e-09	-6.899407e+00	-1.205461e+02
1.640000e-06	-9.290865e-07	-1.713449e-09	-6.578121e+00	-1.194565e+02
1.650000e-06	-8.837008e-07	-1.698950e-09	-6.256781e+00	-1.183434e+02
1.660000e-06	-8.382976e-07	-1.684067e-09	-5.935317e+00	-1.172057e+02
1.670000e-06	-7.928698e-07	-1.666381e-09	-5.613679e+00	-1.160421e+02
1.680000e-06	-7.472713e-07	-1.644601e-09	-5.290832e+00	-1.148508e+02
1.690000e-06	-7.015397e-07	-1.622088e-09	-4.967044e+00	-1.136301e+02
1.700000e-06	-6.558089e-07	-1.604531e-09	-4.643260e+00	-1.123781e+02
1.710000e-06	-6.101408e-07	-1.590427e-09	-4.319921e+00	-1.110927e+02
1.720000e-06	-5.644609e-07	-1.573660e-09	-3.996498e+00	-1.097715e+02
1.730000e-06	-5.186557e-07	-1.552256e-09	-3.672188e+00	-1.084123e+02
1.740000e-06	-4.727650e-07	-1.528981e-09	-3.347272e+00	-1.070126e+02
1.750000e-06	-4.268215e-07	-1.503967e-09	-3.021983e+00	-1.055697e+02
1.760000e-06	-3.808862e-07	-1.477788e-09	-2.696752e+00	-1.040813e+02
1.770000e-06	-3.349475e-07	-1.453071e-09	-2.371496e+00	-1.025446e+02
1.780000e-06	-2.889426e-07	-1.432580e-09	-2.045772e+00	-1.009573e+02
1.790000e-06	-2.429306e-07	-1.415069e-09	-1.719998e+00	-9.931671e+01
1.800000e-06	-1.969146e-07	-1.393387e-09	-1.394195e+00	-9.762057e+01
1.810000e-06	-1.509138e-07	-1.366301e-09	-1.068500e+00	-9.586663e+01
1.820000e-06	-1.049384e-07	-1.337836e-09	-7.429854e-01	-9.405281e+01
1.830000e-06	-5.897827e-08	-1.308716e-09	-4.175781e-01	-9.217721e+01
1.840000e-06	-1.300720e-08	-1.276674e-09	-9.209361e-02	-9.023819e+01
1.850000e-06	3.295977e-08	-1.242099e-09	2.333619e-01	-8.823433e+01
1.860000e-06	7.894024e-08	-1.209012e-09	5.589129e-01	-8.616449e+01
1.870000e-06	1.249673e-07	-1.181682e-09	8.847938e-01	-8.402779e+01
1.880000e-06	1.709694e-07	-1.153378e-09	1.210498e+00	-8.182368e+01
1.890000e-06	2.169646e-07	-1.117717e-09	1.536154e+00	-7.955191e+01
1.900000e-06	2.629058e-07	-1.079316e-09	1.861426e+00	-7.721253e+01
1.910000e-06	3.088343e-07	-1.042273e-09	2.186609e+00	-7.480592e+01
1.920000e-06	3.548103e-07	-1.005550e-09	2.512129e+00	-7.233275e+01
1.930000e-06	4.007406e-07	-9.649577e-10	2.837325e+00	-6.979402e+01
1.940000e-06	4.465868e-07	-9.246143e-10	3.161925e+00	-6.719100e+01
1.950000e-06	4.923895e-07	-8.878852e-10	3.486218e+00	-6.452524e+01
1.960000e-06	5.381622e-07	-8.508512e-10	3.810298e+00	-6.179852e+01
1.970000e-06	5.839536e-07	-8.065733e-10	4.134510e+00	-5.901290e+01
1.980000e-06	6.296866e-07	-7.574610e-10	4.458309e+00	-5.617060e+01
1.990000e-06	6.752938e-07	-7.105766e-10	4.781217e+00	-5.327406e+01
2.000000e-06	7.208468e-07	-6.695460e-10	5.103741e+00	-5.032584e+01
2.010000e-06	7.663987e-07	-6.294485e-10	5.426258e+00	-4.732865e+01
2.020000e-06	8.119398e-07	-5.871548e-10	5.748699e+00	-4.428530e+01
2.030000e-06	8.573170e-07	-5.442174e-10	6.069978e+00	-4.119864e+01
2.040000e-06	9.026893e-07	-4.992716e-10	6.391223e+00	-3.807161e+01
2.050000e-06	9.480811e-07	-4.473637e-10	6.712607e+00	-3.490713e+01
2.060000e-06	9.932979e-07	-3.917337e-10	7.032751e+00	-3.170815e+01
2.070000e-06	1.038439e-06	-3.416031e-10	7.352357e+00	-2.847757e+01
2.080000e-06	1.083628e-06	-2.982478e-10	7.672304e+00	-2.521826e+01
2.090000e-06	1.128756e-06	-2.577827e-10	7.991821e+00	-2.193306e+01
2.100000e-06	1.173734e-06	-2.164294e-10	8.310277e+00	-1.862472e+01
2.110000e-06	1.218557e-06	-1.719300e-10	8.627634e+00	-1.529592e+01
2.120000e-06	1.263280e-06	-1.233099e-10	8.944279e+00	-1.194928e+01
2.130000e-06	1.307887e-06	-7.009799e-11	9.260103e+00	-8.587350e+00
2.140000e-06	1.352366e-06	-1.279761e-11	9.575025e+00	-5.212592e+00
2.150000e-06	1.396748e-06	4.342055e-11	9.889259e+00	-1.827414e+00
2.160000e-06	1.441015e-06	9.403322e-11	1.020268e+01	1.565837e+00
2.170000e-06	1.485165e-06	1.378576e-10	1.051527e+01	4.964858e+00
2.180000e-06	1.529201e-06	1.815467e-10	1.082705e+01	8.367383e+00
2.190000e-06	1.573238e-06	2.279188e-10	1.113885e+01	1.177116e+01
2.200000e-06	1.617255e-06	2.758316e-10	1.145049e+01	1.517396e+01
2.210000e-06	1.661242e-06	3.253956e-10	1.176193e+01	1.857354e+01
2.220000e-06	1.705246e-06	3.795605e-10	1.207349e+01	2.196762e+01
2.230000e-06	1.749162e-06	4.360859e-10	1.238442e+01	2.535391e+01
2.240000e-06	1.792986e-06	4.892109e-10	1.269470e+01	2.873006e+01
2.250000e-06	1.836782e-06	5.374266e-10	1.300479e+01	3.209369e+01
2.260000e-06	1.880562e-06	5.826545e-10	1.331476e+01	3.544232e+01
2.270000e-06	1.924238e-06	6.279528e-10	1.362400e+01	3.877344e+01
2.280000e-06	1.967778e-06	6.732314e-10	1.393227e+01	4.208446e+01
2.290000e-06	2.011130e-06	7.187771e-10	1.423921e+01	4.537272e+01
2.300000e-06	2.054243e-06	7.664813e-10	1.454445e+01	4.863550e+01
2.310000e-06	2.097122e-06	8.152679e-10	1.484805e+01	5.187005e+01
2.320000e-06	2.139840e-06	8.610929e-10	1.515050e+01	5.507354e+01
2.330000e-06	2.182308e-06	9.045953e-10	1.545118e+01	5.824315e+01
2.340000e-06	2.224387e-06	9.475580e-10	1.574911e+01	6.137603e+01
2.350000e-06	2.266058e-06	9.922636e-10	1.604415e+01	6.446935e+01
2.360000e-06	2.307366e-06	1.038782e-09	1.633662e+01	6.752029e+01
2.370000e-06	2.348508e-06	1.081407e-09	1.662791e+01	7.052613e+01
2.380000e-06	2.389384e-06	1.120189e-09	1.691732e+01	7.348417e+01
2.390000e-06	2.429874e-06	1.158992e-09	1.720400e+01	7.639188e+01
2.400000e-06	2.470170e-06	1.197843e-09	1.748930e+01	7.924680e+01
2.410000e-06	2.510427e-06	1.233232e-09	1.777434e+01	8.204667e+01
2.420000e-06	2.550591e-06	1.267275e-09	1.805870e+01	8.478939e+01
2.430000e-06	2.590572e-06	1.305620e-09	1.834178e+01	8.747306e+01
2.440000e-06	2.630465e-06	1.349162e-09	1.862423e+01	9.009601e+01
2.450000e-06	2.670326e-06	1.389946e-09	1.890645e+01	9.265679e+01
2.460000e-06	2.710041e-06	1.424288e-09	1.918764e+01	9.515423e+01
2.470000e-06	2.749650e-06	1.458676e-09	1.946808e+01	9.758742e+01
2.480000e-06	2.789202e-06	1.492025e-09	1.974812e+01	9.995569e+01
2.490000e-06	2.828587e-06	1.522148e-09	2.002697e+01	1.022587e+02
2.500000e-06	2.867700e-06	1.547925e-09	2.030390e+01	1.044963e+02
2.510000e-06	2.906596e-06	1.574891e-09	2.057929e+01	1.066687e+02
2.520000e-06	2.945338e-06	1.606804e-09	2.085359e+01	1.087763e+02
2.530000e-06	2.983761e-06	1.638884e-09	2.112563e+01	1.108198e+02
2.540000e-06	3.021853e-06	1.668063e-09	2.139533e+01	1.128001e+02
2.550000e-06	3.059773e-06	1.698893e-09	2.166381e+01	1.147184e+02
2.560000e-06	3.097566e-06	1.733274e-09	2.193139e+01	1.165759e+02
2.570000e-06	3.135197e-06	1.762881e-09	2.219783e+01	1.183741e+02
2.580000e-06	3.172617e-06	1.783918e-09	2.246277e+01	1.201147e+02
2.590000e-06	3.209811e-06	1.800874e-09	2.272611e+01	1.217994e+02
2.600000e-06	3.246714e-06	1.820747e-09	2.298739e+01	1.234300e+02
2.610000e-06	3.283339e-06	1.843107e-09	2.324670e+01	1.250083e+02
2.620000e-06	3.319805e-06	1.864651e-09	2.350489e+01	1.265363e+02
2.630000e-06	3.356065e-06	1.887459e-09	2.376162e+01	1.280158e+02
2.640000e-06	3.392107e-06	1.914807e-09	2.401681e+01	1.294488e+02
2.650000e-06	3.428029e-06	1.943599e-09	2.427114e+01	1.308369e+02
2.660000e-06	3.463824e-06	1.965830e-09	2.452458e+01	1.321820e+02
2.670000e-06	3.499513e-06	1.981651e-09	2.477726e+01	1.334856e+02
2.680000e-06	3.535081e-06	1.996025e-09	2.502909e+01	1.347494e+02
2.690000e-06	3.570381e-06	2.010109e-09	2.527902e+01	1.359746e+02
2.700000e-06	3.605357e-06	2.022502e-09	2.552666e+01	1.371626e+02
2.710000e-06	3.639890e-06	2.034010e-09	2.577116e+01	1.383146e+02
2.720000e-06	3.673898e-06	2.050696e-09	2.601195e+01	1.394314e+02
2.730000e-06	3.707395e-06	2.073392e-09	2.624911e+01	1.405141e+02
2.740000e-06	3.740360e-06	2.096314e-09	2.648251e+01	1.415633e+02
2.750000e-06	3.772964e-06	2.115024e-09	2.671335e+01	1.425796e+02
2.760000e-06	3.805297e-06	2.131430e-09	2.694228e+01	1.435636e+02
2.770000e-06	3.837396e-06	2.147402e-09	2.716954e+01	1.445158e+02
2.780000e-06	3.869368e-06	2.159071e-09	2.739591e+01	1.454363e+02
2.790000e-06	3.901239e-06	2.166930e-09	2.762156e+01	1.463256e+02
2.800000e-06	3.932968e-06	2.175770e-09	2.784621e+01	1.471839e+02
2.810000e-06	3.964552e-06	2.187545e-09	2.806983e+01	1.480114e+02
2.820000e-06	3.995881e-06	2.198945e-09	2.829165e+01	1.488083e+02
2.830000e-06	4.026857e-06	2.207840e-09	2.851096e+01	1.495749e+02
2.840000e-06	4.057397e-06	2.217639e-09	2.872720e+01	1.503115e+02
2.850000e-06	4.087607e-06	2.230528e-09	2.894109e+01	1.510184e+02
2.860000e-06	4.117710e-06	2.246073e-09	2.915423e+01	1.516959e+02
2.870000e-06	4.147594e-06	2.259708e-09	2.936581e+01	1.523447e+02
2.880000e-06	4.177164e-06	2.268125e-09	2.957517e+01	1.529651e+02
2.890000e-06	4.206467e-06	2.271528e-09	2.978264e+01	1.535579e+02
2.900000e-06	4.235470e-06	2.271632e-09	2.998799e+01	1.541238e+02
