# Temperatura_=_13.61
# Concentracion g/m^3_=_4090.0
# C_Vs_to_Am_M_A/Vsm_=_65563218390.804596
# pendiente_HvsI_1/m_=_3716.3
# ordenada_HvsI_A/m_=_1297.0
# frecuencia_Hz_=_135084.32973722776

Tiempo_(s)	Campo_(V.s)	Magnetizacion_(V.s)	Campo_(kA/m)	Magnetizacion_(A/m)
0.000000e+00	-5.412258e-06	-2.669531e-09	-3.839171e+01	-1.721036e+02
1.000000e-08	-5.412264e-06	-2.671770e-09	-3.839175e+01	-1.720739e+02
2.000000e-08	-5.412056e-06	-2.673531e-09	-3.839027e+01	-1.720435e+02
3.000000e-08	-5.411624e-06	-2.671865e-09	-3.838721e+01	-1.720136e+02
4.000000e-08	-5.410914e-06	-2.668893e-09	-3.838217e+01	-1.719852e+02
5.000000e-08	-5.409713e-06	-2.665511e-09	-3.837365e+01	-1.719594e+02
6.000000e-08	-5.407892e-06	-2.669046e-09	-3.836074e+01	-1.719372e+02
7.000000e-08	-5.405474e-06	-2.690826e-09	-3.834359e+01	-1.719196e+02
8.000000e-08	-5.402403e-06	-2.678231e-09	-3.832180e+01	-1.719076e+02
9.000000e-08	-5.398719e-06	-2.613968e-09	-3.829567e+01	-1.719022e+02
1.000000e-07	-5.394642e-06	-2.616948e-09	-3.826675e+01	-1.719039e+02
1.100000e-07	-5.390339e-06	-2.707871e-09	-3.823623e+01	-1.719135e+02
1.200000e-07	-5.385861e-06	-2.693704e-09	-3.820446e+01	-1.719315e+02
1.300000e-07	-5.381058e-06	-2.592937e-09	-3.817039e+01	-1.719582e+02
1.400000e-07	-5.375889e-06	-2.575558e-09	-3.813373e+01	-1.719938e+02
1.500000e-07	-5.370387e-06	-2.722924e-09	-3.809470e+01	-1.720383e+02
1.600000e-07	-5.364471e-06	-2.710180e-09	-3.805273e+01	-1.720914e+02
1.700000e-07	-5.358184e-06	-2.558343e-09	-3.800813e+01	-1.721529e+02
1.800000e-07	-5.351388e-06	-2.550414e-09	-3.795993e+01	-1.722221e+02
1.900000e-07	-5.344195e-06	-2.684916e-09	-3.790890e+01	-1.722985e+02
2.000000e-07	-5.336781e-06	-2.672885e-09	-3.785631e+01	-1.723810e+02
2.100000e-07	-5.329063e-06	-2.551584e-09	-3.780156e+01	-1.724686e+02
2.200000e-07	-5.321158e-06	-2.593035e-09	-3.774549e+01	-1.725602e+02
2.300000e-07	-5.313021e-06	-2.676833e-09	-3.768777e+01	-1.726546e+02
2.400000e-07	-5.304431e-06	-2.626150e-09	-3.762684e+01	-1.727503e+02
2.500000e-07	-5.295262e-06	-2.565559e-09	-3.756180e+01	-1.728458e+02
2.600000e-07	-5.285551e-06	-2.651221e-09	-3.749291e+01	-1.729398e+02
2.700000e-07	-5.275200e-06	-2.670142e-09	-3.741949e+01	-1.730307e+02
2.800000e-07	-5.264329e-06	-2.580897e-09	-3.734237e+01	-1.731169e+02
2.900000e-07	-5.253130e-06	-2.582618e-09	-3.726294e+01	-1.731970e+02
3.000000e-07	-5.241459e-06	-2.682101e-09	-3.718015e+01	-1.732696e+02
3.100000e-07	-5.229277e-06	-2.634215e-09	-3.709374e+01	-1.733332e+02
3.200000e-07	-5.216628e-06	-2.560689e-09	-3.700401e+01	-1.733867e+02
3.300000e-07	-5.203676e-06	-2.609535e-09	-3.691214e+01	-1.734287e+02
3.400000e-07	-5.190450e-06	-2.659819e-09	-3.681832e+01	-1.734584e+02
3.500000e-07	-5.176847e-06	-2.598625e-09	-3.672182e+01	-1.734748e+02
3.600000e-07	-5.162868e-06	-2.600760e-09	-3.662267e+01	-1.734772e+02
3.700000e-07	-5.148480e-06	-2.635122e-09	-3.652061e+01	-1.734650e+02
3.800000e-07	-5.133620e-06	-2.608738e-09	-3.641520e+01	-1.734378e+02
3.900000e-07	-5.118162e-06	-2.588927e-09	-3.630554e+01	-1.733952e+02
4.000000e-07	-5.102109e-06	-2.624172e-09	-3.619167e+01	-1.733373e+02
4.100000e-07	-5.085564e-06	-2.597396e-09	-3.607431e+01	-1.732641e+02
4.200000e-07	-5.068683e-06	-2.563312e-09	-3.595457e+01	-1.731758e+02
4.300000e-07	-5.051523e-06	-2.606497e-09	-3.583284e+01	-1.730728e+02
4.400000e-07	-5.034022e-06	-2.624190e-09	-3.570870e+01	-1.729555e+02
4.500000e-07	-5.016150e-06	-2.572956e-09	-3.558192e+01	-1.728246e+02
4.600000e-07	-4.998000e-06	-2.560331e-09	-3.545318e+01	-1.726807e+02
4.700000e-07	-4.979611e-06	-2.596208e-09	-3.532274e+01	-1.725246e+02
4.800000e-07	-4.960760e-06	-2.589611e-09	-3.518902e+01	-1.723572e+02
4.900000e-07	-4.941412e-06	-2.567636e-09	-3.505178e+01	-1.721794e+02
5.000000e-07	-4.921722e-06	-2.559994e-09	-3.491211e+01	-1.719920e+02
5.100000e-07	-4.901775e-06	-2.568752e-09	-3.477061e+01	-1.717960e+02
5.200000e-07	-4.881679e-06	-2.573097e-09	-3.462806e+01	-1.715924e+02
5.300000e-07	-4.861398e-06	-2.571837e-09	-3.448420e+01	-1.713819e+02
5.400000e-07	-4.840728e-06	-2.550264e-09	-3.433757e+01	-1.711656e+02
5.500000e-07	-4.819742e-06	-2.552504e-09	-3.418871e+01	-1.709442e+02
5.600000e-07	-4.798428e-06	-2.564820e-09	-3.403752e+01	-1.707184e+02
5.700000e-07	-4.776740e-06	-2.563067e-09	-3.388368e+01	-1.704891e+02
5.800000e-07	-4.754799e-06	-2.543398e-09	-3.372804e+01	-1.702568e+02
5.900000e-07	-4.732559e-06	-2.540010e-09	-3.357028e+01	-1.700221e+02
6.000000e-07	-4.709947e-06	-2.544170e-09	-3.340988e+01	-1.697856e+02
6.100000e-07	-4.687018e-06	-2.553054e-09	-3.324724e+01	-1.695475e+02
6.200000e-07	-4.663735e-06	-2.539279e-09	-3.308208e+01	-1.693084e+02
6.300000e-07	-4.640140e-06	-2.519954e-09	-3.291471e+01	-1.690684e+02
6.400000e-07	-4.616312e-06	-2.520728e-09	-3.274569e+01	-1.688277e+02
6.500000e-07	-4.592248e-06	-2.530497e-09	-3.257499e+01	-1.685866e+02
6.600000e-07	-4.568008e-06	-2.513766e-09	-3.240304e+01	-1.683450e+02
6.700000e-07	-4.543520e-06	-2.497024e-09	-3.222934e+01	-1.681031e+02
6.800000e-07	-4.518711e-06	-2.498514e-09	-3.205336e+01	-1.678609e+02
6.900000e-07	-4.493488e-06	-2.504750e-09	-3.187444e+01	-1.676182e+02
7.000000e-07	-4.467734e-06	-2.499238e-09	-3.169175e+01	-1.673752e+02
7.100000e-07	-4.441380e-06	-2.487615e-09	-3.150481e+01	-1.671316e+02
7.200000e-07	-4.414466e-06	-2.477562e-09	-3.131390e+01	-1.668874e+02
7.300000e-07	-4.387147e-06	-2.479408e-09	-3.112011e+01	-1.666424e+02
7.400000e-07	-4.359480e-06	-2.481561e-09	-3.092386e+01	-1.663966e+02
7.500000e-07	-4.331539e-06	-2.467391e-09	-3.072565e+01	-1.661499e+02
7.600000e-07	-4.303431e-06	-2.458625e-09	-3.052627e+01	-1.659020e+02
7.700000e-07	-4.275178e-06	-2.463993e-09	-3.032586e+01	-1.656529e+02
7.800000e-07	-4.246772e-06	-2.469009e-09	-3.012436e+01	-1.654024e+02
7.900000e-07	-4.218014e-06	-2.459351e-09	-2.992037e+01	-1.651505e+02
8.000000e-07	-4.188884e-06	-2.448798e-09	-2.971374e+01	-1.648969e+02
8.100000e-07	-4.159471e-06	-2.443174e-09	-2.950510e+01	-1.646416e+02
8.200000e-07	-4.129742e-06	-2.444242e-09	-2.929421e+01	-1.643843e+02
8.300000e-07	-4.099751e-06	-2.438372e-09	-2.908148e+01	-1.641249e+02
8.400000e-07	-4.069564e-06	-2.429477e-09	-2.886734e+01	-1.638633e+02
8.500000e-07	-4.039206e-06	-2.425030e-09	-2.865200e+01	-1.635991e+02
8.600000e-07	-4.008537e-06	-2.426828e-09	-2.843445e+01	-1.633323e+02
8.700000e-07	-3.977492e-06	-2.422857e-09	-2.821423e+01	-1.630626e+02
8.800000e-07	-3.946188e-06	-2.413239e-09	-2.799218e+01	-1.627896e+02
8.900000e-07	-3.914639e-06	-2.401577e-09	-2.776839e+01	-1.625132e+02
9.000000e-07	-3.882886e-06	-2.398618e-09	-2.754315e+01	-1.622330e+02
9.100000e-07	-3.850989e-06	-2.395837e-09	-2.731689e+01	-1.619487e+02
9.200000e-07	-3.818874e-06	-2.391424e-09	-2.708908e+01	-1.616600e+02
9.300000e-07	-3.786559e-06	-2.386285e-09	-2.685985e+01	-1.613665e+02
9.400000e-07	-3.753953e-06	-2.387554e-09	-2.662856e+01	-1.610678e+02
9.500000e-07	-3.721118e-06	-2.387792e-09	-2.639565e+01	-1.607636e+02
9.600000e-07	-3.687966e-06	-2.382266e-09	-2.616049e+01	-1.604535e+02
9.700000e-07	-3.654300e-06	-2.372742e-09	-2.592168e+01	-1.601372e+02
9.800000e-07	-3.620301e-06	-2.366794e-09	-2.568051e+01	-1.598144e+02
9.900000e-07	-3.585964e-06	-2.365545e-09	-2.543694e+01	-1.594847e+02
1.000000e-06	-3.551157e-06	-2.366181e-09	-2.519004e+01	-1.591479e+02
1.010000e-06	-3.515900e-06	-2.365246e-09	-2.493994e+01	-1.588037e+02
1.020000e-06	-3.480381e-06	-2.361758e-09	-2.468799e+01	-1.584520e+02
1.030000e-06	-3.444628e-06	-2.355260e-09	-2.443438e+01	-1.580926e+02
1.040000e-06	-3.408738e-06	-2.347630e-09	-2.417979e+01	-1.577255e+02
1.050000e-06	-3.372725e-06	-2.338843e-09	-2.392433e+01	-1.573506e+02
1.060000e-06	-3.336543e-06	-2.329565e-09	-2.366768e+01	-1.569680e+02
1.070000e-06	-3.300275e-06	-2.323929e-09	-2.341041e+01	-1.565778e+02
1.080000e-06	-3.263784e-06	-2.320394e-09	-2.315156e+01	-1.561801e+02
1.090000e-06	-3.227041e-06	-2.318558e-09	-2.289093e+01	-1.557752e+02
1.100000e-06	-3.190094e-06	-2.315662e-09	-2.262884e+01	-1.553634e+02
1.110000e-06	-3.152843e-06	-2.310337e-09	-2.236461e+01	-1.549449e+02
1.120000e-06	-3.115379e-06	-2.302310e-09	-2.209885e+01	-1.545201e+02
1.130000e-06	-3.077694e-06	-2.294777e-09	-2.183154e+01	-1.540893e+02
1.140000e-06	-3.039732e-06	-2.284761e-09	-2.156226e+01	-1.536530e+02
1.150000e-06	-3.001654e-06	-2.275526e-09	-2.129215e+01	-1.532115e+02
1.160000e-06	-2.963411e-06	-2.267325e-09	-2.102088e+01	-1.527651e+02
1.170000e-06	-2.924883e-06	-2.261262e-09	-2.074758e+01	-1.523143e+02
1.180000e-06	-2.886106e-06	-2.254677e-09	-2.047252e+01	-1.518592e+02
1.190000e-06	-2.847102e-06	-2.248134e-09	-2.019584e+01	-1.514001e+02
1.200000e-06	-2.807815e-06	-2.240403e-09	-1.991716e+01	-1.509372e+02
1.210000e-06	-2.768342e-06	-2.231190e-09	-1.963716e+01	-1.504705e+02
1.220000e-06	-2.728785e-06	-2.219155e-09	-1.935657e+01	-1.500001e+02
1.230000e-06	-2.689042e-06	-2.208275e-09	-1.907464e+01	-1.495257e+02
1.240000e-06	-2.649104e-06	-2.197548e-09	-1.879135e+01	-1.490472e+02
1.250000e-06	-2.609128e-06	-2.189236e-09	-1.850778e+01	-1.485642e+02
1.260000e-06	-2.569080e-06	-2.182782e-09	-1.822370e+01	-1.480762e+02
1.270000e-06	-2.528941e-06	-2.173183e-09	-1.793898e+01	-1.475827e+02
1.280000e-06	-2.488700e-06	-2.161939e-09	-1.765353e+01	-1.470829e+02
1.290000e-06	-2.448296e-06	-2.152851e-09	-1.736693e+01	-1.465761e+02
1.300000e-06	-2.407812e-06	-2.143651e-09	-1.707975e+01	-1.460612e+02
1.310000e-06	-2.367205e-06	-2.133329e-09	-1.679170e+01	-1.455373e+02
1.320000e-06	-2.326309e-06	-2.122976e-09	-1.650161e+01	-1.450034e+02
1.330000e-06	-2.285140e-06	-2.112341e-09	-1.620958e+01	-1.444582e+02
1.340000e-06	-2.243882e-06	-2.101455e-09	-1.591692e+01	-1.439006e+02
1.350000e-06	-2.202414e-06	-2.090084e-09	-1.562277e+01	-1.433294e+02
1.360000e-06	-2.160562e-06	-2.079270e-09	-1.532589e+01	-1.427433e+02
1.370000e-06	-2.118423e-06	-2.069681e-09	-1.502697e+01	-1.421412e+02
1.380000e-06	-2.075953e-06	-2.059950e-09	-1.472572e+01	-1.415217e+02
1.390000e-06	-2.033241e-06	-2.047748e-09	-1.442274e+01	-1.408839e+02
1.400000e-06	-1.990336e-06	-2.036163e-09	-1.411839e+01	-1.402267e+02
1.410000e-06	-1.947218e-06	-2.025228e-09	-1.381254e+01	-1.395490e+02
1.420000e-06	-1.903940e-06	-2.014291e-09	-1.350555e+01	-1.388501e+02
1.430000e-06	-1.860454e-06	-2.000578e-09	-1.319708e+01	-1.381292e+02
1.440000e-06	-1.816743e-06	-1.984478e-09	-1.288702e+01	-1.373856e+02
1.450000e-06	-1.772903e-06	-1.968644e-09	-1.257604e+01	-1.366190e+02
1.460000e-06	-1.728997e-06	-1.955945e-09	-1.226459e+01	-1.358288e+02
1.470000e-06	-1.684963e-06	-1.943321e-09	-1.195224e+01	-1.350149e+02
1.480000e-06	-1.640869e-06	-1.929269e-09	-1.163946e+01	-1.341773e+02
1.490000e-06	-1.596773e-06	-1.915646e-09	-1.132667e+01	-1.333159e+02
1.500000e-06	-1.552647e-06	-1.904524e-09	-1.101366e+01	-1.324310e+02
1.510000e-06	-1.508422e-06	-1.891163e-09	-1.069995e+01	-1.315227e+02
1.520000e-06	-1.464131e-06	-1.870307e-09	-1.038577e+01	-1.305913e+02
1.530000e-06	-1.419808e-06	-1.850307e-09	-1.007137e+01	-1.296374e+02
1.540000e-06	-1.375384e-06	-1.838045e-09	-9.756248e+00	-1.286612e+02
1.550000e-06	-1.330879e-06	-1.828394e-09	-9.440555e+00	-1.276632e+02
1.560000e-06	-1.286323e-06	-1.812905e-09	-9.124501e+00	-1.266438e+02
1.570000e-06	-1.241707e-06	-1.793474e-09	-8.808013e+00	-1.256033e+02
1.580000e-06	-1.197061e-06	-1.777354e-09	-8.491321e+00	-1.245421e+02
1.590000e-06	-1.152318e-06	-1.764040e-09	-8.173938e+00	-1.234602e+02
1.600000e-06	-1.107509e-06	-1.748406e-09	-7.856083e+00	-1.223578e+02
1.610000e-06	-1.062604e-06	-1.729318e-09	-7.537550e+00	-1.212347e+02
1.620000e-06	-1.017521e-06	-1.711328e-09	-7.217759e+00	-1.200906e+02
1.630000e-06	-9.723560e-07	-1.696823e-09	-6.897381e+00	-1.189250e+02
1.640000e-06	-9.270578e-07	-1.681329e-09	-6.576060e+00	-1.177373e+02
1.650000e-06	-8.816918e-07	-1.661413e-09	-6.254257e+00	-1.165264e+02
1.660000e-06	-8.363629e-07	-1.642580e-09	-5.932718e+00	-1.152913e+02
1.670000e-06	-7.909561e-07	-1.628377e-09	-5.610626e+00	-1.140304e+02
1.680000e-06	-7.454997e-07	-1.611195e-09	-5.288182e+00	-1.127423e+02
1.690000e-06	-7.000017e-07	-1.588469e-09	-4.965444e+00	-1.114250e+02
1.700000e-06	-6.543603e-07	-1.566777e-09	-4.641687e+00	-1.100765e+02
1.710000e-06	-6.087385e-07	-1.548614e-09	-4.318070e+00	-1.086945e+02
1.720000e-06	-5.631278e-07	-1.529869e-09	-3.994532e+00	-1.072765e+02
1.730000e-06	-5.174050e-07	-1.505453e-09	-3.670199e+00	-1.058200e+02
1.740000e-06	-4.716535e-07	-1.478518e-09	-3.345661e+00	-1.043224e+02
1.750000e-06	-4.258393e-07	-1.455528e-09	-3.020679e+00	-1.027808e+02
1.760000e-06	-3.800122e-07	-1.435179e-09	-2.695606e+00	-1.011924e+02
1.770000e-06	-3.341822e-07	-1.410748e-09	-2.370513e+00	-9.955442e+01
1.780000e-06	-2.882789e-07	-1.383570e-09	-2.044899e+00	-9.786410e+01
1.790000e-06	-2.423728e-07	-1.361245e-09	-1.719265e+00	-9.611874e+01
1.800000e-06	-1.965030e-07	-1.339408e-09	-1.393889e+00	-9.431576e+01
1.810000e-06	-1.505999e-07	-1.310890e-09	-1.068277e+00	-9.245275e+01
1.820000e-06	-1.046613e-07	-1.276930e-09	-7.424121e-01	-9.052751e+01
1.830000e-06	-5.872647e-08	-1.245672e-09	-4.165746e-01	-8.853805e+01
1.840000e-06	-1.279619e-08	-1.220623e-09	-9.076943e-02	-8.648267e+01
1.850000e-06	3.314532e-08	-1.192891e-09	2.351154e-01	-8.435996e+01
1.860000e-06	7.910275e-08	-1.158121e-09	5.611133e-01	-8.216883e+01
1.870000e-06	1.250751e-07	-1.123675e-09	8.872172e-01	-7.990853e+01
1.880000e-06	1.710793e-07	-1.091421e-09	1.213546e+00	-7.757868e+01
1.890000e-06	2.170679e-07	-1.057507e-09	1.539766e+00	-7.517925e+01
1.900000e-06	2.629628e-07	-1.016673e-09	1.865319e+00	-7.271059e+01
1.910000e-06	3.087792e-07	-9.720867e-10	2.190317e+00	-7.017340e+01
1.920000e-06	3.546299e-07	-9.331538e-10	2.515557e+00	-6.756876e+01
1.930000e-06	4.004991e-07	-8.987980e-10	2.840929e+00	-6.489808e+01
1.940000e-06	4.463721e-07	-8.612114e-10	3.166329e+00	-6.216311e+01
1.950000e-06	4.922500e-07	-8.198920e-10	3.491762e+00	-5.936591e+01
1.960000e-06	5.380166e-07	-7.782179e-10	3.816407e+00	-5.650880e+01
1.970000e-06	5.836702e-07	-7.342992e-10	4.140249e+00	-5.359436e+01
1.980000e-06	6.292824e-07	-6.836308e-10	4.463798e+00	-5.062541e+01
1.990000e-06	6.748292e-07	-6.301697e-10	4.786883e+00	-4.760492e+01
2.000000e-06	7.203174e-07	-5.834470e-10	5.109552e+00	-4.453603e+01
2.010000e-06	7.657972e-07	-5.434834e-10	5.432162e+00	-4.142198e+01
2.020000e-06	8.112608e-07	-5.007626e-10	5.754657e+00	-3.826609e+01
2.030000e-06	8.566256e-07	-4.520161e-10	6.076451e+00	-3.507174e+01
2.040000e-06	9.019131e-07	-4.030815e-10	6.397696e+00	-3.184229e+01
2.050000e-06	9.471131e-07	-3.554549e-10	6.718321e+00	-2.858109e+01
2.060000e-06	9.921904e-07	-3.061808e-10	7.038076e+00	-2.529144e+01
2.070000e-06	1.037188e-06	-2.560061e-10	7.357263e+00	-2.197658e+01
2.080000e-06	1.082062e-06	-2.078857e-10	7.675582e+00	-1.863963e+01
2.090000e-06	1.126881e-06	-1.613537e-10	7.993501e+00	-1.528362e+01
2.100000e-06	1.171590e-06	-1.152770e-10	8.310646e+00	-1.191145e+01
2.110000e-06	1.216166e-06	-6.700885e-11	8.626840e+00	-8.525892e+00
2.120000e-06	1.260706e-06	-1.664642e-11	8.942786e+00	-5.129579e+00
2.130000e-06	1.305162e-06	3.470590e-11	9.258134e+00	-1.725022e+00
2.140000e-06	1.349546e-06	8.862384e-11	9.572970e+00	1.685399e+00
2.150000e-06	1.393915e-06	1.449125e-10	9.887696e+00	5.099417e+00
2.160000e-06	1.438224e-06	1.979025e-10	1.020201e+01	8.514873e+00
2.170000e-06	1.482463e-06	2.452725e-10	1.051581e+01	1.192969e+01
2.180000e-06	1.526639e-06	2.921103e-10	1.082918e+01	1.534188e+01
2.190000e-06	1.570748e-06	3.418860e-10	1.114206e+01	1.874949e+01
2.200000e-06	1.614844e-06	3.923608e-10	1.145485e+01	2.215060e+01
2.210000e-06	1.658898e-06	4.414489e-10	1.176735e+01	2.554332e+01
2.220000e-06	1.702857e-06	4.901529e-10	1.207917e+01	2.892574e+01
2.230000e-06	1.746725e-06	5.415194e-10	1.239035e+01	3.229592e+01
2.240000e-06	1.790538e-06	5.924677e-10	1.270113e+01	3.565190e+01
2.250000e-06	1.834281e-06	6.377712e-10	1.301142e+01	3.899164e+01
2.260000e-06	1.877892e-06	6.802240e-10	1.332078e+01	4.231305e+01
2.270000e-06	1.921364e-06	7.261962e-10	1.362914e+01	4.561395e+01
2.280000e-06	1.964599e-06	7.750363e-10	1.393583e+01	4.889208e+01
2.290000e-06	2.007638e-06	8.226815e-10	1.424113e+01	5.214511e+01
2.300000e-06	2.050549e-06	8.683242e-10	1.454551e+01	5.537061e+01
2.310000e-06	2.093194e-06	9.134862e-10	1.484802e+01	5.856609e+01
2.320000e-06	2.135523e-06	9.589170e-10	1.514827e+01	6.172899e+01
2.330000e-06	2.177548e-06	1.001739e-09	1.544638e+01	6.485670e+01
2.340000e-06	2.219330e-06	1.041500e-09	1.574276e+01	6.794658e+01
2.350000e-06	2.260847e-06	1.083281e-09	1.603726e+01	7.099599e+01
2.360000e-06	2.301985e-06	1.129476e-09	1.632907e+01	7.400227e+01
2.370000e-06	2.342868e-06	1.174385e-09	1.661907e+01	7.696283e+01
2.380000e-06	2.383616e-06	1.215273e-09	1.690812e+01	7.987513e+01
2.390000e-06	2.424161e-06	1.252795e-09	1.719572e+01	8.273671e+01
2.400000e-06	2.464526e-06	1.289020e-09	1.748205e+01	8.554523e+01
2.410000e-06	2.504741e-06	1.323835e-09	1.776731e+01	8.829853e+01
2.420000e-06	2.544929e-06	1.360444e-09	1.805239e+01	9.099457e+01
2.430000e-06	2.585046e-06	1.400725e-09	1.833695e+01	9.363154e+01
2.440000e-06	2.625034e-06	1.443592e-09	1.862061e+01	9.620785e+01
2.450000e-06	2.664951e-06	1.483963e-09	1.890376e+01	9.872212e+01
2.460000e-06	2.704730e-06	1.518430e-09	1.918593e+01	1.011732e+02
2.470000e-06	2.744392e-06	1.549858e-09	1.946727e+01	1.035604e+02
2.480000e-06	2.783809e-06	1.578233e-09	1.974687e+01	1.058830e+02
2.490000e-06	2.822863e-06	1.604433e-09	2.002390e+01	1.081407e+02
2.500000e-06	2.861786e-06	1.630882e-09	2.030000e+01	1.103336e+02
2.510000e-06	2.900569e-06	1.664588e-09	2.057511e+01	1.124618e+02
2.520000e-06	2.939021e-06	1.703248e-09	2.084787e+01	1.145260e+02
2.530000e-06	2.977286e-06	1.736554e-09	2.111930e+01	1.165268e+02
2.540000e-06	3.015445e-06	1.760142e-09	2.138998e+01	1.184653e+02
2.550000e-06	3.053430e-06	1.781345e-09	2.165943e+01	1.203427e+02
2.560000e-06	3.091222e-06	1.806769e-09	2.192750e+01	1.221603e+02
2.570000e-06	3.128848e-06	1.831712e-09	2.219440e+01	1.239197e+02
2.580000e-06	3.166220e-06	1.851620e-09	2.245950e+01	1.256227e+02
2.590000e-06	3.203248e-06	1.873596e-09	2.272216e+01	1.272709e+02
2.600000e-06	3.240115e-06	1.903771e-09	2.298367e+01	1.288662e+02
2.610000e-06	3.276785e-06	1.934108e-09	2.324378e+01	1.304106e+02
2.620000e-06	3.313156e-06	1.955765e-09	2.350179e+01	1.319059e+02
2.630000e-06	3.349371e-06	1.972340e-09	2.375867e+01	1.333540e+02
2.640000e-06	3.385549e-06	1.990023e-09	2.401530e+01	1.347568e+02
2.650000e-06	3.421635e-06	2.009960e-09	2.427128e+01	1.361161e+02
2.660000e-06	3.457575e-06	2.028202e-09	2.452622e+01	1.374335e+02
2.670000e-06	3.493351e-06	2.045438e-09	2.477999e+01	1.387106e+02
2.680000e-06	3.528838e-06	2.066293e-09	2.503172e+01	1.399489e+02
2.690000e-06	3.564012e-06	2.088317e-09	2.528122e+01	1.411498e+02
2.700000e-06	3.598730e-06	2.104509e-09	2.552749e+01	1.423143e+02
2.710000e-06	3.632963e-06	2.115699e-09	2.577033e+01	1.434437e+02
2.720000e-06	3.666756e-06	2.129583e-09	2.601004e+01	1.445387e+02
2.730000e-06	3.700073e-06	2.147560e-09	2.624637e+01	1.456002e+02
2.740000e-06	3.732988e-06	2.164168e-09	2.647985e+01	1.466288e+02
2.750000e-06	3.765561e-06	2.176823e-09	2.671091e+01	1.476251e+02
2.760000e-06	3.797910e-06	2.192728e-09	2.694037e+01	1.485895e+02
2.770000e-06	3.830079e-06	2.212785e-09	2.716856e+01	1.495224e+02
2.780000e-06	3.862093e-06	2.229724e-09	2.739566e+01	1.504240e+02
2.790000e-06	3.893992e-06	2.239422e-09	2.762193e+01	1.512947e+02
2.800000e-06	3.925676e-06	2.248194e-09	2.784668e+01	1.521346e+02
2.810000e-06	3.957099e-06	2.261929e-09	2.806958e+01	1.529441e+02
2.820000e-06	3.988315e-06	2.274830e-09	2.829101e+01	1.537233e+02
2.830000e-06	4.019199e-06	2.282987e-09	2.851008e+01	1.544725e+02
2.840000e-06	4.049671e-06	2.290081e-09	2.872624e+01	1.551921e+02
2.850000e-06	4.079882e-06	2.301706e-09	2.894054e+01	1.558825e+02
2.860000e-06	4.109905e-06	2.316974e-09	2.915350e+01	1.565442e+02
2.870000e-06	4.139757e-06	2.328512e-09	2.936526e+01	1.571777e+02
2.880000e-06	4.169320e-06	2.335208e-09	2.957496e+01	1.577838e+02
2.890000e-06	4.198557e-06	2.341405e-09	2.978235e+01	1.583633e+02
2.900000e-06	4.227524e-06	2.348648e-09	2.998783e+01	1.589169e+02
