# Temperatura_=_6.24
# Concentracion g/m^3_=_4090.0
# C_Vs_to_Am_M_A/Vsm_=_65563218390.804596
# pendiente_HvsI_1/m_=_3716.3
# ordenada_HvsI_A/m_=_1297.0
# frecuencia_Hz_=_135084.08453531167

Tiempo_(s)	Campo_(V.s)	Magnetizacion_(V.s)	Campo_(kA/m)	Magnetizacion_(A/m)
0.000000e+00	-5.422276e-06	-2.667657e-09	-3.838579e+01	-1.712391e+02
1.000000e-08	-5.422511e-06	-2.666781e-09	-3.838745e+01	-1.712371e+02
2.000000e-08	-5.422585e-06	-2.664108e-09	-3.838798e+01	-1.712329e+02
3.000000e-08	-5.422450e-06	-2.663612e-09	-3.838702e+01	-1.712277e+02
4.000000e-08	-5.421988e-06	-2.666477e-09	-3.838375e+01	-1.712224e+02
5.000000e-08	-5.420934e-06	-2.667186e-09	-3.837628e+01	-1.712183e+02
6.000000e-08	-5.419283e-06	-2.663574e-09	-3.836460e+01	-1.712165e+02
7.000000e-08	-5.417031e-06	-2.658362e-09	-3.834866e+01	-1.712184e+02
8.000000e-08	-5.414086e-06	-2.664553e-09	-3.832781e+01	-1.712252e+02
9.000000e-08	-5.410615e-06	-2.687521e-09	-3.830324e+01	-1.712381e+02
1.000000e-07	-5.406652e-06	-2.688819e-09	-3.827518e+01	-1.712582e+02
1.100000e-07	-5.402371e-06	-2.645454e-09	-3.824487e+01	-1.712867e+02
1.200000e-07	-5.398060e-06	-2.648605e-09	-3.821436e+01	-1.713246e+02
1.300000e-07	-5.393555e-06	-2.644860e-09	-3.818246e+01	-1.713726e+02
1.400000e-07	-5.388585e-06	-2.664679e-09	-3.814728e+01	-1.714316e+02
1.500000e-07	-5.383137e-06	-2.627129e-09	-3.810871e+01	-1.715020e+02
1.600000e-07	-5.377378e-06	-2.633263e-09	-3.806794e+01	-1.715842e+02
1.700000e-07	-5.371323e-06	-2.658780e-09	-3.802508e+01	-1.716783e+02
1.800000e-07	-5.364800e-06	-2.641438e-09	-3.797890e+01	-1.717843e+02
1.900000e-07	-5.357717e-06	-2.650517e-09	-3.792876e+01	-1.719017e+02
2.000000e-07	-5.350304e-06	-2.630795e-09	-3.787628e+01	-1.720301e+02
2.100000e-07	-5.342800e-06	-2.632691e-09	-3.782315e+01	-1.721688e+02
2.200000e-07	-5.335032e-06	-2.590539e-09	-3.776816e+01	-1.723168e+02
2.300000e-07	-5.327006e-06	-2.617393e-09	-3.771134e+01	-1.724729e+02
2.400000e-07	-5.318818e-06	-2.628754e-09	-3.765338e+01	-1.726358e+02
2.500000e-07	-5.310168e-06	-2.646525e-09	-3.759215e+01	-1.728040e+02
2.600000e-07	-5.300684e-06	-2.637070e-09	-3.752501e+01	-1.729758e+02
2.700000e-07	-5.290515e-06	-2.678567e-09	-3.745301e+01	-1.731495e+02
2.800000e-07	-5.279771e-06	-2.686328e-09	-3.737696e+01	-1.733232e+02
2.900000e-07	-5.268510e-06	-2.665339e-09	-3.729724e+01	-1.734950e+02
3.000000e-07	-5.256849e-06	-2.640974e-09	-3.721469e+01	-1.736630e+02
3.100000e-07	-5.244861e-06	-2.670771e-09	-3.712982e+01	-1.738251e+02
3.200000e-07	-5.232482e-06	-2.686116e-09	-3.704219e+01	-1.739795e+02
3.300000e-07	-5.219710e-06	-2.667630e-09	-3.695177e+01	-1.741243e+02
3.400000e-07	-5.206617e-06	-2.670802e-09	-3.685908e+01	-1.742578e+02
3.500000e-07	-5.193128e-06	-2.678010e-09	-3.676358e+01	-1.743783e+02
3.600000e-07	-5.179273e-06	-2.667129e-09	-3.666550e+01	-1.744843e+02
3.700000e-07	-5.165060e-06	-2.663112e-09	-3.656488e+01	-1.745745e+02
3.800000e-07	-5.150457e-06	-2.677601e-09	-3.646151e+01	-1.746477e+02
3.900000e-07	-5.135287e-06	-2.657855e-09	-3.635411e+01	-1.747030e+02
4.000000e-07	-5.119449e-06	-2.649039e-09	-3.624199e+01	-1.747397e+02
4.100000e-07	-5.103158e-06	-2.667987e-09	-3.612666e+01	-1.747572e+02
4.200000e-07	-5.086565e-06	-2.673929e-09	-3.600920e+01	-1.747553e+02
4.300000e-07	-5.069590e-06	-2.635757e-09	-3.588903e+01	-1.747339e+02
4.400000e-07	-5.052330e-06	-2.646369e-09	-3.576684e+01	-1.746931e+02
4.500000e-07	-5.034811e-06	-2.657473e-09	-3.564282e+01	-1.746334e+02
4.600000e-07	-5.016990e-06	-2.654974e-09	-3.551666e+01	-1.745552e+02
4.700000e-07	-4.998748e-06	-2.631436e-09	-3.538752e+01	-1.744594e+02
4.800000e-07	-4.980014e-06	-2.642260e-09	-3.525489e+01	-1.743469e+02
4.900000e-07	-4.960897e-06	-2.633042e-09	-3.511956e+01	-1.742187e+02
5.000000e-07	-4.941474e-06	-2.635410e-09	-3.498206e+01	-1.740761e+02
5.100000e-07	-4.921788e-06	-2.623531e-09	-3.484270e+01	-1.739202e+02
5.200000e-07	-4.901879e-06	-2.620031e-09	-3.470176e+01	-1.737524e+02
5.300000e-07	-4.881760e-06	-2.614203e-09	-3.455932e+01	-1.735742e+02
5.400000e-07	-4.861399e-06	-2.633232e-09	-3.441518e+01	-1.733869e+02
5.500000e-07	-4.840644e-06	-2.622125e-09	-3.426825e+01	-1.731919e+02
5.600000e-07	-4.819431e-06	-2.607588e-09	-3.411808e+01	-1.729907e+02
5.700000e-07	-4.797821e-06	-2.601038e-09	-3.396510e+01	-1.727845e+02
5.800000e-07	-4.775933e-06	-2.606685e-09	-3.381015e+01	-1.725746e+02
5.900000e-07	-4.753800e-06	-2.594302e-09	-3.365346e+01	-1.723621e+02
6.000000e-07	-4.731376e-06	-2.586748e-09	-3.349472e+01	-1.721480e+02
6.100000e-07	-4.708620e-06	-2.581472e-09	-3.333362e+01	-1.719334e+02
6.200000e-07	-4.685522e-06	-2.582642e-09	-3.317010e+01	-1.717189e+02
6.300000e-07	-4.662104e-06	-2.581913e-09	-3.300432e+01	-1.715052e+02
6.400000e-07	-4.638393e-06	-2.571776e-09	-3.283646e+01	-1.712928e+02
6.500000e-07	-4.614503e-06	-2.560748e-09	-3.266734e+01	-1.710821e+02
6.600000e-07	-4.590448e-06	-2.560270e-09	-3.249705e+01	-1.708732e+02
6.700000e-07	-4.566143e-06	-2.564008e-09	-3.232499e+01	-1.706662e+02
6.800000e-07	-4.541474e-06	-2.555542e-09	-3.215035e+01	-1.704610e+02
6.900000e-07	-4.516280e-06	-2.550682e-09	-3.197199e+01	-1.702575e+02
7.000000e-07	-4.490438e-06	-2.544081e-09	-3.178905e+01	-1.700552e+02
7.100000e-07	-4.463934e-06	-2.542489e-09	-3.160142e+01	-1.698540e+02
7.200000e-07	-4.436951e-06	-2.531249e-09	-3.141040e+01	-1.696531e+02
7.300000e-07	-4.409658e-06	-2.526844e-09	-3.121719e+01	-1.694521e+02
7.400000e-07	-4.382077e-06	-2.521963e-09	-3.102193e+01	-1.692503e+02
7.500000e-07	-4.354333e-06	-2.527933e-09	-3.082553e+01	-1.690471e+02
7.600000e-07	-4.326484e-06	-2.519276e-09	-3.062837e+01	-1.688418e+02
7.700000e-07	-4.298437e-06	-2.511574e-09	-3.042982e+01	-1.686338e+02
7.800000e-07	-4.270119e-06	-2.503496e-09	-3.022935e+01	-1.684222e+02
7.900000e-07	-4.241475e-06	-2.508978e-09	-3.002657e+01	-1.682066e+02
8.000000e-07	-4.212522e-06	-2.504868e-09	-2.982161e+01	-1.679862e+02
8.100000e-07	-4.183291e-06	-2.498999e-09	-2.961467e+01	-1.677606e+02
8.200000e-07	-4.153718e-06	-2.489662e-09	-2.940531e+01	-1.675291e+02
8.300000e-07	-4.123915e-06	-2.492428e-09	-2.919433e+01	-1.672913e+02
8.400000e-07	-4.093874e-06	-2.490476e-09	-2.898167e+01	-1.670469e+02
8.500000e-07	-4.063484e-06	-2.486104e-09	-2.876653e+01	-1.667954e+02
8.600000e-07	-4.032786e-06	-2.475949e-09	-2.854920e+01	-1.665368e+02
8.700000e-07	-4.001812e-06	-2.474663e-09	-2.832993e+01	-1.662707e+02
8.800000e-07	-3.970662e-06	-2.474502e-09	-2.810941e+01	-1.659971e+02
8.900000e-07	-3.939300e-06	-2.470316e-09	-2.788739e+01	-1.657159e+02
9.000000e-07	-3.907680e-06	-2.460630e-09	-2.766355e+01	-1.654273e+02
9.100000e-07	-3.875941e-06	-2.457773e-09	-2.743886e+01	-1.651313e+02
9.200000e-07	-3.844075e-06	-2.459645e-09	-2.721327e+01	-1.648280e+02
9.300000e-07	-3.811899e-06	-2.456447e-09	-2.698548e+01	-1.645176e+02
9.400000e-07	-3.779384e-06	-2.445838e-09	-2.675530e+01	-1.642005e+02
9.500000e-07	-3.746620e-06	-2.436789e-09	-2.652336e+01	-1.638768e+02
9.600000e-07	-3.713528e-06	-2.433987e-09	-2.628909e+01	-1.635469e+02
9.700000e-07	-3.679967e-06	-2.430287e-09	-2.605150e+01	-1.632111e+02
9.800000e-07	-3.645931e-06	-2.426230e-09	-2.581055e+01	-1.628697e+02
9.900000e-07	-3.611382e-06	-2.418979e-09	-2.556597e+01	-1.625230e+02
1.000000e-06	-3.576378e-06	-2.416529e-09	-2.531817e+01	-1.621714e+02
1.010000e-06	-3.541129e-06	-2.413445e-09	-2.506863e+01	-1.618153e+02
1.020000e-06	-3.505687e-06	-2.408871e-09	-2.481772e+01	-1.614548e+02
1.030000e-06	-3.470010e-06	-2.396579e-09	-2.456516e+01	-1.610903e+02
1.040000e-06	-3.434166e-06	-2.390169e-09	-2.431141e+01	-1.607220e+02
1.050000e-06	-3.398264e-06	-2.386612e-09	-2.405725e+01	-1.603502e+02
1.060000e-06	-3.362245e-06	-2.382219e-09	-2.380226e+01	-1.599751e+02
1.070000e-06	-3.325951e-06	-2.369982e-09	-2.354532e+01	-1.595968e+02
1.080000e-06	-3.289359e-06	-2.361886e-09	-2.328628e+01	-1.592155e+02
1.090000e-06	-3.252566e-06	-2.353354e-09	-2.302581e+01	-1.588312e+02
1.100000e-06	-3.215537e-06	-2.348087e-09	-2.276367e+01	-1.584440e+02
1.110000e-06	-3.178352e-06	-2.337962e-09	-2.250043e+01	-1.580539e+02
1.120000e-06	-3.141011e-06	-2.329082e-09	-2.223608e+01	-1.576608e+02
1.130000e-06	-3.103412e-06	-2.324395e-09	-2.196991e+01	-1.572648e+02
1.140000e-06	-3.065551e-06	-2.322916e-09	-2.170188e+01	-1.568657e+02
1.150000e-06	-3.027397e-06	-2.313966e-09	-2.143178e+01	-1.564633e+02
1.160000e-06	-2.989052e-06	-2.303426e-09	-2.116033e+01	-1.560575e+02
1.170000e-06	-2.950530e-06	-2.293202e-09	-2.088761e+01	-1.556481e+02
1.180000e-06	-2.911859e-06	-2.285530e-09	-2.061386e+01	-1.552347e+02
1.190000e-06	-2.872968e-06	-2.277881e-09	-2.033853e+01	-1.548171e+02
1.200000e-06	-2.833840e-06	-2.272867e-09	-2.006153e+01	-1.543949e+02
1.210000e-06	-2.794545e-06	-2.267581e-09	-1.978336e+01	-1.539678e+02
1.220000e-06	-2.755073e-06	-2.260394e-09	-1.950392e+01	-1.535354e+02
1.230000e-06	-2.715488e-06	-2.250935e-09	-1.922369e+01	-1.530972e+02
1.240000e-06	-2.675728e-06	-2.237346e-09	-1.894222e+01	-1.526527e+02
1.250000e-06	-2.635825e-06	-2.222687e-09	-1.865974e+01	-1.522014e+02
1.260000e-06	-2.595858e-06	-2.209956e-09	-1.837680e+01	-1.517428e+02
1.270000e-06	-2.555853e-06	-2.203159e-09	-1.809359e+01	-1.512763e+02
1.280000e-06	-2.515722e-06	-2.199750e-09	-1.780949e+01	-1.508014e+02
1.290000e-06	-2.475366e-06	-2.196850e-09	-1.752380e+01	-1.503174e+02
1.300000e-06	-2.434881e-06	-2.188205e-09	-1.723720e+01	-1.498237e+02
1.310000e-06	-2.394241e-06	-2.179322e-09	-1.694949e+01	-1.493196e+02
1.320000e-06	-2.353359e-06	-2.167731e-09	-1.666007e+01	-1.488046e+02
1.330000e-06	-2.312158e-06	-2.154294e-09	-1.636840e+01	-1.482779e+02
1.340000e-06	-2.270630e-06	-2.137581e-09	-1.607442e+01	-1.477390e+02
1.350000e-06	-2.228820e-06	-2.125408e-09	-1.577843e+01	-1.471872e+02
1.360000e-06	-2.186595e-06	-2.118723e-09	-1.547951e+01	-1.466218e+02
1.370000e-06	-2.144133e-06	-2.116364e-09	-1.517891e+01	-1.460424e+02
1.380000e-06	-2.101473e-06	-2.112877e-09	-1.487691e+01	-1.454482e+02
1.390000e-06	-2.058588e-06	-2.104496e-09	-1.457331e+01	-1.448389e+02
1.400000e-06	-2.015546e-06	-2.092502e-09	-1.426860e+01	-1.442138e+02
1.410000e-06	-1.972287e-06	-2.081183e-09	-1.396236e+01	-1.435726e+02
1.420000e-06	-1.928845e-06	-2.066770e-09	-1.365483e+01	-1.429148e+02
1.430000e-06	-1.885291e-06	-2.049857e-09	-1.334650e+01	-1.422400e+02
1.440000e-06	-1.841694e-06	-2.033259e-09	-1.303786e+01	-1.415480e+02
1.450000e-06	-1.798009e-06	-2.023269e-09	-1.272860e+01	-1.408385e+02
1.460000e-06	-1.754206e-06	-2.017296e-09	-1.241851e+01	-1.401112e+02
1.470000e-06	-1.710361e-06	-2.009347e-09	-1.210812e+01	-1.393659e+02
1.480000e-06	-1.666501e-06	-1.996756e-09	-1.179762e+01	-1.386026e+02
1.490000e-06	-1.622507e-06	-1.984501e-09	-1.148617e+01	-1.378211e+02
1.500000e-06	-1.578394e-06	-1.972988e-09	-1.117389e+01	-1.370213e+02
1.510000e-06	-1.534222e-06	-1.954748e-09	-1.086118e+01	-1.362033e+02
1.520000e-06	-1.489959e-06	-1.932327e-09	-1.054783e+01	-1.353668e+02
1.530000e-06	-1.445624e-06	-1.915906e-09	-1.023397e+01	-1.345119e+02
1.540000e-06	-1.401242e-06	-1.908833e-09	-9.919779e+00	-1.336385e+02
1.550000e-06	-1.356735e-06	-1.903726e-09	-9.604702e+00	-1.327464e+02
1.560000e-06	-1.312103e-06	-1.894377e-09	-9.288737e+00	-1.318355e+02
1.570000e-06	-1.267414e-06	-1.883507e-09	-8.972370e+00	-1.309056e+02
1.580000e-06	-1.222682e-06	-1.873795e-09	-8.655706e+00	-1.299565e+02
1.590000e-06	-1.177873e-06	-1.858665e-09	-8.338490e+00	-1.289876e+02
1.600000e-06	-1.132891e-06	-1.837901e-09	-8.020046e+00	-1.279986e+02
1.610000e-06	-1.087783e-06	-1.819269e-09	-7.700714e+00	-1.269888e+02
1.620000e-06	-1.042590e-06	-1.804769e-09	-7.380783e+00	-1.259575e+02
1.630000e-06	-9.972809e-07	-1.791175e-09	-7.060026e+00	-1.249040e+02
1.640000e-06	-9.518741e-07	-1.776241e-09	-6.738579e+00	-1.238271e+02
1.650000e-06	-9.064647e-07	-1.761057e-09	-6.417114e+00	-1.227258e+02
1.660000e-06	-8.610213e-07	-1.748198e-09	-6.095407e+00	-1.215988e+02
1.670000e-06	-8.154543e-07	-1.734365e-09	-5.772826e+00	-1.204447e+02
1.680000e-06	-7.698019e-07	-1.716887e-09	-5.449640e+00	-1.192618e+02
1.690000e-06	-7.240595e-07	-1.694533e-09	-5.125817e+00	-1.180486e+02
1.700000e-06	-6.783212e-07	-1.672445e-09	-4.802023e+00	-1.168031e+02
1.710000e-06	-6.326485e-07	-1.652881e-09	-4.478693e+00	-1.155233e+02
1.720000e-06	-5.869047e-07	-1.633574e-09	-4.154860e+00	-1.142073e+02
1.730000e-06	-5.410630e-07	-1.609849e-09	-3.830334e+00	-1.128529e+02
1.740000e-06	-4.952615e-07	-1.587172e-09	-3.506093e+00	-1.114579e+02
1.750000e-06	-4.494741e-07	-1.567063e-09	-3.181951e+00	-1.100199e+02
1.760000e-06	-4.036287e-07	-1.549732e-09	-2.857399e+00	-1.085368e+02
1.770000e-06	-3.577515e-07	-1.531745e-09	-2.532622e+00	-1.070063e+02
1.780000e-06	-3.117836e-07	-1.511581e-09	-2.207202e+00	-1.054260e+02
1.790000e-06	-2.657874e-07	-1.489901e-09	-1.881582e+00	-1.037939e+02
1.800000e-06	-2.199424e-07	-1.462634e-09	-1.557033e+00	-1.021077e+02
1.810000e-06	-1.740872e-07	-1.428729e-09	-1.232411e+00	-1.003655e+02
1.820000e-06	-1.281411e-07	-1.395518e-09	-9.071464e-01	-9.856537e+01
1.830000e-06	-8.219187e-08	-1.367106e-09	-5.818590e-01	-9.670562e+01
1.840000e-06	-3.622472e-08	-1.342073e-09	-2.564448e-01	-9.478470e+01
1.850000e-06	9.724980e-09	-1.319527e-09	6.884581e-02	-9.280125e+01
1.860000e-06	5.566237e-08	-1.295053e-09	3.940493e-01	-9.075414e+01
1.870000e-06	1.015953e-07	-1.266667e-09	7.192208e-01	-8.864249e+01
1.880000e-06	1.475837e-07	-1.231813e-09	1.044785e+00	-8.646564e+01
1.890000e-06	1.935780e-07	-1.190503e-09	1.370392e+00	-8.422318e+01
1.900000e-06	2.395114e-07	-1.147268e-09	1.695567e+00	-8.191499e+01
1.910000e-06	2.854922e-07	-1.108220e-09	2.021078e+00	-7.954117e+01
1.920000e-06	3.314542e-07	-1.071746e-09	2.346456e+00	-7.710212e+01
1.930000e-06	3.773664e-07	-1.036997e-09	2.671481e+00	-7.459846e+01
1.940000e-06	4.232403e-07	-1.003405e-09	2.996235e+00	-7.203108e+01
1.950000e-06	4.691223e-07	-9.693760e-10	3.321046e+00	-6.940111e+01
1.960000e-06	5.149851e-07	-9.320099e-10	3.645722e+00	-6.670988e+01
1.970000e-06	5.607625e-07	-8.896579e-10	3.969792e+00	-6.395894e+01
1.980000e-06	6.064828e-07	-8.429460e-10	4.293459e+00	-6.115004e+01
1.990000e-06	6.521257e-07	-7.957243e-10	4.616578e+00	-5.828510e+01
2.000000e-06	6.977464e-07	-7.508114e-10	4.939540e+00	-5.536617e+01
2.010000e-06	7.433373e-07	-7.082942e-10	5.262290e+00	-5.239545e+01
2.020000e-06	7.889056e-07	-6.653414e-10	5.584880e+00	-4.937524e+01
2.030000e-06	8.343980e-07	-6.220205e-10	5.906934e+00	-4.630793e+01
2.040000e-06	8.798734e-07	-5.779739e-10	6.228866e+00	-4.319599e+01
2.050000e-06	9.253023e-07	-5.329474e-10	6.550470e+00	-4.004192e+01
2.060000e-06	9.705484e-07	-4.866860e-10	6.870780e+00	-3.684826e+01
2.070000e-06	1.015733e-06	-4.398953e-10	7.190656e+00	-3.361757e+01
2.080000e-06	1.060871e-06	-3.917691e-10	7.510199e+00	-3.035240e+01
2.090000e-06	1.105881e-06	-3.422418e-10	7.828840e+00	-2.705533e+01
2.100000e-06	1.150777e-06	-2.924992e-10	8.146668e+00	-2.372887e+01
2.110000e-06	1.195560e-06	-2.425912e-10	8.463696e+00	-2.037555e+01
2.120000e-06	1.240248e-06	-1.918221e-10	8.780060e+00	-1.699787e+01
2.130000e-06	1.284845e-06	-1.415451e-10	9.095771e+00	-1.359830e+01
2.140000e-06	1.329354e-06	-9.238638e-11	9.410866e+00	-1.017928e+01
2.150000e-06	1.373772e-06	-4.284424e-11	9.725314e+00	-6.743253e+00
2.160000e-06	1.418102e-06	6.028998e-12	1.003914e+01	-3.292631e+00
2.170000e-06	1.462327e-06	5.282268e-11	1.035222e+01	1.701668e-01
2.180000e-06	1.506515e-06	1.020648e-10	1.066503e+01	3.642716e+00
2.190000e-06	1.550747e-06	1.562206e-10	1.097817e+01	7.122579e+00
2.200000e-06	1.594879e-06	2.110915e-10	1.129059e+01	1.060729e+01
2.210000e-06	1.638878e-06	2.637810e-10	1.160207e+01	1.409435e+01
2.220000e-06	1.682826e-06	3.141060e-10	1.191319e+01	1.758121e+01
2.230000e-06	1.726738e-06	3.645242e-10	1.222406e+01	2.106527e+01
2.240000e-06	1.770600e-06	4.137593e-10	1.253457e+01	2.454387e+01
2.250000e-06	1.814338e-06	4.615434e-10	1.284420e+01	2.801427e+01
2.260000e-06	1.857930e-06	5.092421e-10	1.315280e+01	3.147369e+01
2.270000e-06	1.901461e-06	5.608022e-10	1.346096e+01	3.491924e+01
2.280000e-06	1.944916e-06	6.137283e-10	1.376860e+01	3.834799e+01
2.290000e-06	1.988270e-06	6.642079e-10	1.407551e+01	4.175693e+01
2.300000e-06	2.031525e-06	7.133662e-10	1.438173e+01	4.514301e+01
2.310000e-06	2.074559e-06	7.623675e-10	1.468638e+01	4.850311e+01
2.320000e-06	2.117261e-06	8.088990e-10	1.498868e+01	5.183411e+01
2.330000e-06	2.159738e-06	8.528636e-10	1.528938e+01	5.513285e+01
2.340000e-06	2.202013e-06	8.961529e-10	1.558865e+01	5.839619e+01
2.350000e-06	2.243911e-06	9.424131e-10	1.588527e+01	6.162099e+01
2.360000e-06	2.285470e-06	9.925478e-10	1.617947e+01	6.480419e+01
2.370000e-06	2.326886e-06	1.040536e-09	1.647267e+01	6.794278e+01
2.380000e-06	2.368026e-06	1.082422e-09	1.676391e+01	7.103387e+01
2.390000e-06	2.408878e-06	1.122587e-09	1.705311e+01	7.407466e+01
2.400000e-06	2.449509e-06	1.162855e-09	1.734075e+01	7.706254e+01
2.410000e-06	2.489819e-06	1.200818e-09	1.762611e+01	7.999504e+01
2.420000e-06	2.529957e-06	1.237336e-09	1.791026e+01	8.286992e+01
2.430000e-06	2.570040e-06	1.276559e-09	1.819402e+01	8.568513e+01
2.440000e-06	2.610017e-06	1.321543e-09	1.847703e+01	8.843890e+01
2.450000e-06	2.649855e-06	1.366217e-09	1.875906e+01	9.112967e+01
2.460000e-06	2.689589e-06	1.404292e-09	1.904034e+01	9.375619e+01
2.470000e-06	2.729187e-06	1.439585e-09	1.932067e+01	9.631747e+01
2.480000e-06	2.768710e-06	1.474381e-09	1.960046e+01	9.881283e+01
2.490000e-06	2.808160e-06	1.506694e-09	1.987974e+01	1.012419e+02
2.500000e-06	2.847392e-06	1.535996e-09	2.015747e+01	1.036045e+02
2.510000e-06	2.886362e-06	1.566969e-09	2.043336e+01	1.059008e+02
2.520000e-06	2.925040e-06	1.603540e-09	2.070716e+01	1.081313e+02
2.530000e-06	2.963546e-06	1.640772e-09	2.097976e+01	1.102967e+02
2.540000e-06	3.001886e-06	1.671379e-09	2.125118e+01	1.123979e+02
2.550000e-06	3.040075e-06	1.697022e-09	2.152153e+01	1.144361e+02
2.560000e-06	3.078099e-06	1.723554e-09	2.179072e+01	1.164127e+02
2.570000e-06	3.115823e-06	1.749396e-09	2.205777e+01	1.183291e+02
2.580000e-06	3.153206e-06	1.775382e-09	2.232242e+01	1.201871e+02
2.590000e-06	3.190425e-06	1.802431e-09	2.258590e+01	1.219884e+02
2.600000e-06	3.227543e-06	1.831039e-09	2.284867e+01	1.237349e+02
2.610000e-06	3.264360e-06	1.859508e-09	2.310930e+01	1.254285e+02
2.620000e-06	3.300890e-06	1.883437e-09	2.336791e+01	1.270712e+02
2.630000e-06	3.337201e-06	1.905540e-09	2.362496e+01	1.286647e+02
2.640000e-06	3.373313e-06	1.930711e-09	2.388061e+01	1.302110e+02
2.650000e-06	3.409307e-06	1.954445e-09	2.413542e+01	1.317119e+02
2.660000e-06	3.445212e-06	1.972862e-09	2.438961e+01	1.331690e+02
2.670000e-06	3.480990e-06	1.989794e-09	2.464289e+01	1.345840e+02
2.680000e-06	3.516594e-06	2.009825e-09	2.489494e+01	1.359582e+02
2.690000e-06	3.552020e-06	2.030155e-09	2.514573e+01	1.372931e+02
2.700000e-06	3.587191e-06	2.046712e-09	2.539471e+01	1.385898e+02
2.710000e-06	3.621943e-06	2.060336e-09	2.564073e+01	1.398492e+02
2.720000e-06	3.656245e-06	2.077718e-09	2.588356e+01	1.410722e+02
2.730000e-06	3.690143e-06	2.100504e-09	2.612354e+01	1.422596e+02
2.740000e-06	3.723696e-06	2.119865e-09	2.636107e+01	1.434118e+02
2.750000e-06	3.756695e-06	2.133019e-09	2.659468e+01	1.445293e+02
2.760000e-06	3.789185e-06	2.145612e-09	2.682469e+01	1.456123e+02
2.770000e-06	3.821427e-06	2.162347e-09	2.705294e+01	1.466610e+02
2.780000e-06	3.853455e-06	2.180456e-09	2.727967e+01	1.476756e+02
2.790000e-06	3.885342e-06	2.195106e-09	2.750541e+01	1.486561e+02
2.800000e-06	3.917109e-06	2.206562e-09	2.773029e+01	1.496025e+02
2.810000e-06	3.948719e-06	2.218242e-09	2.795407e+01	1.505147e+02
2.820000e-06	3.980049e-06	2.230861e-09	2.817586e+01	1.513927e+02
2.830000e-06	4.011143e-06	2.242269e-09	2.839599e+01	1.522367e+02
2.840000e-06	4.042029e-06	2.251100e-09	2.861464e+01	1.530466e+02
2.850000e-06	4.072550e-06	2.261803e-09	2.883070e+01	1.538227e+02
2.860000e-06	4.102664e-06	2.274003e-09	2.904389e+01	1.545651e+02
2.870000e-06	4.132489e-06	2.286703e-09	2.925503e+01	1.552743e+02
2.880000e-06	4.162132e-06	2.297867e-09	2.946488e+01	1.559507e+02
2.890000e-06	4.191516e-06	2.303817e-09	2.967290e+01	1.565949e+02
2.900000e-06	4.220615e-06	2.305966e-09	2.987890e+01	1.572076e+02
