# Temperatura_=_0.62
# Concentracion g/m^3_=_4090.0
# C_Vs_to_Am_M_A/Vsm_=_65563218390.804596
# pendiente_HvsI_1/m_=_3716.3
# ordenada_HvsI_A/m_=_1297.0
# frecuencia_Hz_=_135086.08216031382

Tiempo_(s)	Campo_(V.s)	Magnetizacion_(V.s)	Campo_(kA/m)	Magnetizacion_(A/m)
0.000000e+00	-5.423603e-06	-2.676190e-09	-3.838287e+01	-1.705777e+02
1.000000e-08	-5.423568e-06	-2.675883e-09	-3.838262e+01	-1.705626e+02
2.000000e-08	-5.423293e-06	-2.678101e-09	-3.838067e+01	-1.705464e+02
3.000000e-08	-5.422709e-06	-2.678157e-09	-3.837654e+01	-1.705305e+02
4.000000e-08	-5.421679e-06	-2.674991e-09	-3.836925e+01	-1.705165e+02
5.000000e-08	-5.420099e-06	-2.673633e-09	-3.835807e+01	-1.705059e+02
6.000000e-08	-5.417934e-06	-2.686473e-09	-3.834275e+01	-1.705002e+02
7.000000e-08	-5.415126e-06	-2.689107e-09	-3.832288e+01	-1.705009e+02
8.000000e-08	-5.411648e-06	-2.664373e-09	-3.829826e+01	-1.705095e+02
9.000000e-08	-5.407654e-06	-2.649171e-09	-3.827000e+01	-1.705271e+02
1.000000e-07	-5.403384e-06	-2.688912e-09	-3.823978e+01	-1.705549e+02
1.100000e-07	-5.398987e-06	-2.694105e-09	-3.820866e+01	-1.705940e+02
1.200000e-07	-5.394445e-06	-2.645793e-09	-3.817652e+01	-1.706451e+02
1.300000e-07	-5.389517e-06	-2.604007e-09	-3.814165e+01	-1.707087e+02
1.400000e-07	-5.384064e-06	-2.677928e-09	-3.810305e+01	-1.707853e+02
1.500000e-07	-5.378216e-06	-2.701067e-09	-3.806167e+01	-1.708750e+02
1.600000e-07	-5.372079e-06	-2.648163e-09	-3.801824e+01	-1.709775e+02
1.700000e-07	-5.365611e-06	-2.590966e-09	-3.797246e+01	-1.710925e+02
1.800000e-07	-5.358671e-06	-2.652232e-09	-3.792334e+01	-1.712193e+02
1.900000e-07	-5.351335e-06	-2.670686e-09	-3.787143e+01	-1.713571e+02
2.000000e-07	-5.343837e-06	-2.617957e-09	-3.781837e+01	-1.715045e+02
2.100000e-07	-5.336186e-06	-2.597218e-09	-3.776422e+01	-1.716604e+02
2.200000e-07	-5.328282e-06	-2.652005e-09	-3.770829e+01	-1.718231e+02
2.300000e-07	-5.319984e-06	-2.667481e-09	-3.764956e+01	-1.719910e+02
2.400000e-07	-5.311297e-06	-2.626691e-09	-3.758808e+01	-1.721621e+02
2.500000e-07	-5.301983e-06	-2.654947e-09	-3.752216e+01	-1.723344e+02
2.600000e-07	-5.291901e-06	-2.687893e-09	-3.745081e+01	-1.725059e+02
2.700000e-07	-5.281264e-06	-2.659460e-09	-3.737554e+01	-1.726745e+02
2.800000e-07	-5.270120e-06	-2.615900e-09	-3.729667e+01	-1.728381e+02
2.900000e-07	-5.258556e-06	-2.663555e-09	-3.721483e+01	-1.729946e+02
3.000000e-07	-5.246664e-06	-2.668737e-09	-3.713067e+01	-1.731420e+02
3.100000e-07	-5.234371e-06	-2.640664e-09	-3.704368e+01	-1.732783e+02
3.200000e-07	-5.221618e-06	-2.636746e-09	-3.695342e+01	-1.734018e+02
3.300000e-07	-5.208488e-06	-2.680744e-09	-3.686050e+01	-1.735108e+02
3.400000e-07	-5.195031e-06	-2.650332e-09	-3.676526e+01	-1.736038e+02
3.500000e-07	-5.181168e-06	-2.638721e-09	-3.666716e+01	-1.736797e+02
3.600000e-07	-5.166914e-06	-2.644574e-09	-3.656628e+01	-1.737373e+02
3.700000e-07	-5.152295e-06	-2.655667e-09	-3.646282e+01	-1.737760e+02
3.800000e-07	-5.137078e-06	-2.628698e-09	-3.635513e+01	-1.737950e+02
3.900000e-07	-5.121233e-06	-2.646699e-09	-3.624299e+01	-1.737943e+02
4.000000e-07	-5.105004e-06	-2.647176e-09	-3.612814e+01	-1.737736e+02
4.100000e-07	-5.088317e-06	-2.630671e-09	-3.601005e+01	-1.737332e+02
4.200000e-07	-5.071110e-06	-2.625164e-09	-3.588827e+01	-1.736735e+02
4.300000e-07	-5.053735e-06	-2.643475e-09	-3.576531e+01	-1.735951e+02
4.400000e-07	-5.036197e-06	-2.625961e-09	-3.564120e+01	-1.734989e+02
4.500000e-07	-5.018255e-06	-2.613175e-09	-3.551422e+01	-1.733860e+02
4.600000e-07	-4.999990e-06	-2.625452e-09	-3.538496e+01	-1.732574e+02
4.700000e-07	-4.981345e-06	-2.625592e-09	-3.525301e+01	-1.731146e+02
4.800000e-07	-4.962256e-06	-2.611427e-09	-3.511791e+01	-1.729589e+02
4.900000e-07	-4.942768e-06	-2.605992e-09	-3.498000e+01	-1.727917e+02
5.000000e-07	-4.922978e-06	-2.606758e-09	-3.483995e+01	-1.726147e+02
5.100000e-07	-4.903005e-06	-2.598626e-09	-3.469860e+01	-1.724294e+02
5.200000e-07	-4.882799e-06	-2.604831e-09	-3.455560e+01	-1.722372e+02
5.300000e-07	-4.862349e-06	-2.598896e-09	-3.441087e+01	-1.720398e+02
5.400000e-07	-4.841696e-06	-2.594604e-09	-3.426471e+01	-1.718385e+02
5.500000e-07	-4.820640e-06	-2.596854e-09	-3.411570e+01	-1.716346e+02
5.600000e-07	-4.799089e-06	-2.606951e-09	-3.396318e+01	-1.714295e+02
5.700000e-07	-4.777201e-06	-2.587408e-09	-3.380828e+01	-1.712241e+02
5.800000e-07	-4.755065e-06	-2.577235e-09	-3.365162e+01	-1.710195e+02
5.900000e-07	-4.732674e-06	-2.576561e-09	-3.349316e+01	-1.708165e+02
6.000000e-07	-4.709978e-06	-2.581952e-09	-3.333254e+01	-1.706157e+02
6.100000e-07	-4.686892e-06	-2.572003e-09	-3.316916e+01	-1.704177e+02
6.200000e-07	-4.663473e-06	-2.573775e-09	-3.300342e+01	-1.702227e+02
6.300000e-07	-4.639787e-06	-2.568467e-09	-3.283580e+01	-1.700310e+02
6.400000e-07	-4.615884e-06	-2.570131e-09	-3.266663e+01	-1.698426e+02
6.500000e-07	-4.591810e-06	-2.563669e-09	-3.249626e+01	-1.696573e+02
6.600000e-07	-4.567460e-06	-2.556922e-09	-3.232394e+01	-1.694750e+02
6.700000e-07	-4.542703e-06	-2.545607e-09	-3.214873e+01	-1.692953e+02
6.800000e-07	-4.517534e-06	-2.550953e-09	-3.197061e+01	-1.691177e+02
6.900000e-07	-4.491906e-06	-2.548934e-09	-3.178925e+01	-1.689417e+02
7.000000e-07	-4.465715e-06	-2.539733e-09	-3.160389e+01	-1.687667e+02
7.100000e-07	-4.439067e-06	-2.528833e-09	-3.141530e+01	-1.685920e+02
7.200000e-07	-4.411952e-06	-2.529523e-09	-3.122341e+01	-1.684168e+02
7.300000e-07	-4.384434e-06	-2.531210e-09	-3.102867e+01	-1.682406e+02
7.400000e-07	-4.356642e-06	-2.528723e-09	-3.083198e+01	-1.680626e+02
7.500000e-07	-4.328641e-06	-2.522711e-09	-3.063382e+01	-1.678821e+02
7.600000e-07	-4.300499e-06	-2.521809e-09	-3.043466e+01	-1.676984e+02
7.700000e-07	-4.272166e-06	-2.523602e-09	-3.023415e+01	-1.675110e+02
7.800000e-07	-4.243619e-06	-2.516848e-09	-3.003212e+01	-1.673192e+02
7.900000e-07	-4.214847e-06	-2.503692e-09	-2.982850e+01	-1.671225e+02
8.000000e-07	-4.185702e-06	-2.493490e-09	-2.962224e+01	-1.669206e+02
8.100000e-07	-4.156155e-06	-2.493194e-09	-2.941313e+01	-1.667130e+02
8.200000e-07	-4.126313e-06	-2.492616e-09	-2.920194e+01	-1.664994e+02
8.300000e-07	-4.096213e-06	-2.492676e-09	-2.898892e+01	-1.662796e+02
8.400000e-07	-4.065826e-06	-2.491700e-09	-2.877388e+01	-1.660534e+02
8.500000e-07	-4.035066e-06	-2.494611e-09	-2.855618e+01	-1.658208e+02
8.600000e-07	-4.004062e-06	-2.486669e-09	-2.833677e+01	-1.655818e+02
8.700000e-07	-3.972888e-06	-2.474339e-09	-2.811615e+01	-1.653363e+02
8.800000e-07	-3.941515e-06	-2.457621e-09	-2.789412e+01	-1.650844e+02
8.900000e-07	-3.909949e-06	-2.452170e-09	-2.767073e+01	-1.648264e+02
9.000000e-07	-3.878147e-06	-2.449856e-09	-2.744567e+01	-1.645622e+02
9.100000e-07	-3.846172e-06	-2.451298e-09	-2.721938e+01	-1.642922e+02
9.200000e-07	-3.813973e-06	-2.450948e-09	-2.699151e+01	-1.640165e+02
9.300000e-07	-3.781574e-06	-2.454150e-09	-2.676222e+01	-1.637353e+02
9.400000e-07	-3.748954e-06	-2.451087e-09	-2.653137e+01	-1.634488e+02
9.500000e-07	-3.715976e-06	-2.442152e-09	-2.629798e+01	-1.631573e+02
9.600000e-07	-3.682535e-06	-2.425760e-09	-2.606132e+01	-1.628610e+02
9.700000e-07	-3.648583e-06	-2.417146e-09	-2.582104e+01	-1.625600e+02
9.800000e-07	-3.614204e-06	-2.411639e-09	-2.557774e+01	-1.622544e+02
9.900000e-07	-3.579366e-06	-2.408208e-09	-2.533119e+01	-1.619446e+02
1.000000e-06	-3.544120e-06	-2.405540e-09	-2.508176e+01	-1.616305e+02
1.010000e-06	-3.508626e-06	-2.408137e-09	-2.483056e+01	-1.613122e+02
1.020000e-06	-3.472932e-06	-2.408250e-09	-2.457796e+01	-1.609899e+02
1.030000e-06	-3.437109e-06	-2.404108e-09	-2.432444e+01	-1.606636e+02
1.040000e-06	-3.401165e-06	-2.396471e-09	-2.407006e+01	-1.603333e+02
1.050000e-06	-3.365073e-06	-2.387852e-09	-2.381464e+01	-1.599989e+02
1.060000e-06	-3.328785e-06	-2.380149e-09	-2.355783e+01	-1.596606e+02
1.070000e-06	-3.292224e-06	-2.371970e-09	-2.329909e+01	-1.593181e+02
1.080000e-06	-3.255481e-06	-2.363742e-09	-2.303906e+01	-1.589715e+02
1.090000e-06	-3.218542e-06	-2.356206e-09	-2.277764e+01	-1.586208e+02
1.100000e-06	-3.181358e-06	-2.351336e-09	-2.251449e+01	-1.582657e+02
1.110000e-06	-3.143878e-06	-2.345470e-09	-2.224924e+01	-1.579063e+02
1.120000e-06	-3.106153e-06	-2.343347e-09	-2.198226e+01	-1.575424e+02
1.130000e-06	-3.068304e-06	-2.340965e-09	-2.171441e+01	-1.571739e+02
1.140000e-06	-3.030312e-06	-2.337359e-09	-2.144553e+01	-1.568008e+02
1.150000e-06	-2.992066e-06	-2.329835e-09	-2.117487e+01	-1.564228e+02
1.160000e-06	-2.953542e-06	-2.320603e-09	-2.090223e+01	-1.560399e+02
1.170000e-06	-2.914891e-06	-2.309928e-09	-2.062870e+01	-1.556518e+02
1.180000e-06	-2.876039e-06	-2.302465e-09	-2.035375e+01	-1.552585e+02
1.190000e-06	-2.836935e-06	-2.295574e-09	-2.007700e+01	-1.548598e+02
1.200000e-06	-2.797592e-06	-2.291905e-09	-1.979858e+01	-1.544555e+02
1.210000e-06	-2.757990e-06	-2.288012e-09	-1.951831e+01	-1.540454e+02
1.220000e-06	-2.718288e-06	-2.284229e-09	-1.923734e+01	-1.536292e+02
1.230000e-06	-2.678581e-06	-2.274521e-09	-1.895633e+01	-1.532068e+02
1.240000e-06	-2.638735e-06	-2.263298e-09	-1.867435e+01	-1.527777e+02
1.250000e-06	-2.598713e-06	-2.252761e-09	-1.839111e+01	-1.523418e+02
1.260000e-06	-2.558622e-06	-2.244446e-09	-1.810738e+01	-1.518986e+02
1.270000e-06	-2.518424e-06	-2.235292e-09	-1.782290e+01	-1.514479e+02
1.280000e-06	-2.478079e-06	-2.227478e-09	-1.753738e+01	-1.509891e+02
1.290000e-06	-2.437571e-06	-2.220893e-09	-1.725071e+01	-1.505219e+02
1.300000e-06	-2.396887e-06	-2.216392e-09	-1.696278e+01	-1.500459e+02
1.310000e-06	-2.356004e-06	-2.211356e-09	-1.667346e+01	-1.495604e+02
1.320000e-06	-2.314923e-06	-2.201602e-09	-1.638272e+01	-1.490651e+02
1.330000e-06	-2.273489e-06	-2.188326e-09	-1.608949e+01	-1.485594e+02
1.340000e-06	-2.231717e-06	-2.178408e-09	-1.579387e+01	-1.480427e+02
1.350000e-06	-2.189665e-06	-2.170320e-09	-1.549627e+01	-1.475145e+02
1.360000e-06	-2.147335e-06	-2.159535e-09	-1.519670e+01	-1.469743e+02
1.370000e-06	-2.104815e-06	-2.149045e-09	-1.489579e+01	-1.464214e+02
1.380000e-06	-2.061996e-06	-2.139689e-09	-1.459276e+01	-1.458554e+02
1.390000e-06	-2.018997e-06	-2.130848e-09	-1.428846e+01	-1.452757e+02
1.400000e-06	-1.975846e-06	-2.120894e-09	-1.398308e+01	-1.446818e+02
1.410000e-06	-1.932462e-06	-2.109470e-09	-1.367605e+01	-1.440732e+02
1.420000e-06	-1.888985e-06	-2.097313e-09	-1.336836e+01	-1.434495e+02
1.430000e-06	-1.845448e-06	-2.086412e-09	-1.306024e+01	-1.428102e+02
1.440000e-06	-1.801716e-06	-2.074567e-09	-1.275076e+01	-1.421549e+02
1.450000e-06	-1.757826e-06	-2.062204e-09	-1.244015e+01	-1.414833e+02
1.460000e-06	-1.713873e-06	-2.049387e-09	-1.212909e+01	-1.407949e+02
1.470000e-06	-1.669896e-06	-2.038363e-09	-1.181786e+01	-1.400896e+02
1.480000e-06	-1.625889e-06	-2.025528e-09	-1.150643e+01	-1.393671e+02
1.490000e-06	-1.581793e-06	-2.010587e-09	-1.119436e+01	-1.386270e+02
1.500000e-06	-1.537607e-06	-1.998499e-09	-1.088165e+01	-1.378692e+02
1.510000e-06	-1.493300e-06	-1.986990e-09	-1.056809e+01	-1.370933e+02
1.520000e-06	-1.448898e-06	-1.973931e-09	-1.025386e+01	-1.362993e+02
1.530000e-06	-1.404461e-06	-1.962144e-09	-9.939377e+00	-1.354868e+02
1.540000e-06	-1.359955e-06	-1.949988e-09	-9.624406e+00	-1.346555e+02
1.550000e-06	-1.315406e-06	-1.941634e-09	-9.309135e+00	-1.338051e+02
1.560000e-06	-1.270811e-06	-1.930601e-09	-8.993539e+00	-1.329353e+02
1.570000e-06	-1.226048e-06	-1.918201e-09	-8.676746e+00	-1.320457e+02
1.580000e-06	-1.181181e-06	-1.907027e-09	-8.359227e+00	-1.311357e+02
1.590000e-06	-1.136282e-06	-1.897432e-09	-8.041471e+00	-1.302048e+02
1.600000e-06	-1.091218e-06	-1.882674e-09	-7.722553e+00	-1.292523e+02
1.610000e-06	-1.045948e-06	-1.860266e-09	-7.402181e+00	-1.282775e+02
1.620000e-06	-1.000617e-06	-1.837178e-09	-7.081371e+00	-1.272794e+02
1.630000e-06	-9.552398e-07	-1.818103e-09	-6.760238e+00	-1.262571e+02
1.640000e-06	-9.097829e-07	-1.802873e-09	-6.438539e+00	-1.252094e+02
1.650000e-06	-8.643533e-07	-1.791827e-09	-6.117033e+00	-1.241351e+02
1.660000e-06	-8.188631e-07	-1.782967e-09	-5.795099e+00	-1.230328e+02
1.670000e-06	-7.732478e-07	-1.771501e-09	-5.472279e+00	-1.219011e+02
1.680000e-06	-7.276567e-07	-1.751775e-09	-5.149631e+00	-1.207383e+02
1.690000e-06	-6.820876e-07	-1.725023e-09	-4.827138e+00	-1.195428e+02
1.700000e-06	-6.363908e-07	-1.699937e-09	-4.503741e+00	-1.183128e+02
1.710000e-06	-5.906148e-07	-1.679362e-09	-4.179784e+00	-1.170464e+02
1.720000e-06	-5.448560e-07	-1.660914e-09	-3.855949e+00	-1.157418e+02
1.730000e-06	-4.990460e-07	-1.642033e-09	-3.531752e+00	-1.143968e+02
1.740000e-06	-4.531806e-07	-1.623716e-09	-3.207162e+00	-1.130097e+02
1.750000e-06	-4.073000e-07	-1.606033e-09	-2.882465e+00	-1.115782e+02
1.760000e-06	-3.614224e-07	-1.587337e-09	-2.557788e+00	-1.101006e+02
1.770000e-06	-3.155041e-07	-1.566444e-09	-2.232824e+00	-1.085748e+02
1.780000e-06	-2.695034e-07	-1.543762e-09	-1.907277e+00	-1.069990e+02
1.790000e-06	-2.234899e-07	-1.517733e-09	-1.581639e+00	-1.053713e+02
1.800000e-06	-1.775054e-07	-1.489612e-09	-1.256206e+00	-1.036902e+02
1.810000e-06	-1.315094e-07	-1.461315e-09	-9.306927e-01	-1.019539e+02
1.820000e-06	-8.549531e-08	-1.434948e-09	-6.050508e-01	-1.001612e+02
1.830000e-06	-3.951656e-08	-1.409249e-09	-2.796589e-01	-9.831067e+01
1.840000e-06	6.482442e-09	-1.384333e-09	4.587628e-02	-9.640130e+01
1.850000e-06	5.247455e-08	-1.357826e-09	3.713627e-01	-9.443217e+01
1.860000e-06	9.843874e-08	-1.330188e-09	6.966515e-01	-9.240256e+01
1.870000e-06	1.443865e-07	-1.299581e-09	1.021824e+00	-9.031197e+01
1.880000e-06	1.903045e-07	-1.263364e-09	1.346786e+00	-8.816007e+01
1.890000e-06	2.363119e-07	-1.224531e-09	1.672381e+00	-8.594678e+01
1.900000e-06	2.823148e-07	-1.187771e-09	1.997943e+00	-8.367218e+01
1.910000e-06	3.281907e-07	-1.149809e-09	2.322607e+00	-8.133657e+01
1.920000e-06	3.740371e-07	-1.111970e-09	2.647063e+00	-7.894043e+01
1.930000e-06	4.198551e-07	-1.078035e-09	2.971317e+00	-7.648443e+01
1.940000e-06	4.657287e-07	-1.047481e-09	3.295965e+00	-7.396938e+01
1.950000e-06	5.116084e-07	-1.014683e-09	3.620656e+00	-7.139626e+01
1.960000e-06	5.574153e-07	-9.783189e-10	3.944832e+00	-6.876621e+01
1.970000e-06	6.031983e-07	-9.368950e-10	4.268838e+00	-6.608045e+01
1.980000e-06	6.488622e-07	-8.888800e-10	4.592002e+00	-6.334033e+01
1.990000e-06	6.945197e-07	-8.410492e-10	4.915120e+00	-6.054730e+01
2.000000e-06	7.401865e-07	-7.984318e-10	5.238304e+00	-5.770286e+01
2.010000e-06	7.857006e-07	-7.575159e-10	5.560407e+00	-5.480859e+01
2.020000e-06	8.311868e-07	-7.155010e-10	5.882314e+00	-5.186610e+01
2.030000e-06	8.766959e-07	-6.737171e-10	6.204382e+00	-4.887706e+01
2.040000e-06	9.220937e-07	-6.317581e-10	6.525662e+00	-4.584314e+01
2.050000e-06	9.673944e-07	-5.863381e-10	6.846256e+00	-4.276605e+01
2.060000e-06	1.012615e-06	-5.368450e-10	7.166283e+00	-3.964749e+01
2.070000e-06	1.057716e-06	-4.865376e-10	7.485463e+00	-3.648920e+01
2.080000e-06	1.102772e-06	-4.385070e-10	7.804323e+00	-3.329290e+01
2.090000e-06	1.147721e-06	-3.938219e-10	8.122427e+00	-3.006036e+01
2.100000e-06	1.192447e-06	-3.471588e-10	8.438954e+00	-2.679334e+01
2.110000e-06	1.237167e-06	-2.945268e-10	8.755435e+00	-2.349363e+01
2.120000e-06	1.281872e-06	-2.412471e-10	9.071816e+00	-2.016308e+01
2.130000e-06	1.326418e-06	-1.921719e-10	9.387071e+00	-1.680355e+01
2.140000e-06	1.370862e-06	-1.449011e-10	9.701596e+00	-1.341700e+01
2.150000e-06	1.415239e-06	-9.547695e-11	1.001565e+01	-1.000543e+01
2.160000e-06	1.459535e-06	-4.485189e-11	1.032914e+01	-6.570938e+00
2.170000e-06	1.503743e-06	3.339136e-12	1.064200e+01	-3.115723e+00
2.180000e-06	1.547893e-06	5.409961e-11	1.095445e+01	3.579064e-01
2.190000e-06	1.591997e-06	1.110160e-10	1.126657e+01	3.847516e+00
2.200000e-06	1.636083e-06	1.703254e-10	1.157857e+01	7.350539e+00
2.210000e-06	1.680097e-06	2.242069e-10	1.189005e+01	1.086427e+01
2.220000e-06	1.724036e-06	2.732487e-10	1.220101e+01	1.438584e+01
2.230000e-06	1.767931e-06	3.236368e-10	1.251166e+01	1.791226e+01
2.240000e-06	1.811709e-06	3.760016e-10	1.282147e+01	2.144035e+01
2.250000e-06	1.855416e-06	4.266231e-10	1.313079e+01	2.496683e+01
2.260000e-06	1.899094e-06	4.773363e-10	1.343990e+01	2.848825e+01
2.270000e-06	1.942628e-06	5.317007e-10	1.374799e+01	3.200103e+01
2.280000e-06	1.986008e-06	5.875988e-10	1.405499e+01	3.550150e+01
2.290000e-06	2.029206e-06	6.411659e-10	1.436070e+01	3.898587e+01
2.300000e-06	2.072068e-06	6.920355e-10	1.466403e+01	4.245030e+01
2.310000e-06	2.114648e-06	7.392690e-10	1.496538e+01	4.589088e+01
2.320000e-06	2.157033e-06	7.848443e-10	1.526533e+01	4.930370e+01
2.330000e-06	2.199151e-06	8.320024e-10	1.556341e+01	5.268483e+01
2.340000e-06	2.240979e-06	8.808519e-10	1.585942e+01	5.603041e+01
2.350000e-06	2.282518e-06	9.317618e-10	1.615339e+01	5.933663e+01
2.360000e-06	2.323700e-06	9.810085e-10	1.644483e+01	6.259978e+01
2.370000e-06	2.364689e-06	1.027941e-09	1.673491e+01	6.581631e+01
2.380000e-06	2.405536e-06	1.072344e-09	1.702399e+01	6.898282e+01
2.390000e-06	2.446148e-06	1.110673e-09	1.731140e+01	7.209612e+01
2.400000e-06	2.486585e-06	1.145553e-09	1.759758e+01	7.515325e+01
2.410000e-06	2.526846e-06	1.186555e-09	1.788250e+01	7.815150e+01
2.420000e-06	2.566986e-06	1.234680e-09	1.816658e+01	8.108844e+01
2.430000e-06	2.607012e-06	1.285377e-09	1.844984e+01	8.396194e+01
2.440000e-06	2.646937e-06	1.332811e-09	1.873239e+01	8.677019e+01
2.450000e-06	2.686825e-06	1.373972e-09	1.901468e+01	8.951171e+01
2.460000e-06	2.726541e-06	1.412217e-09	1.929574e+01	9.218534e+01
2.470000e-06	2.766074e-06	1.445428e-09	1.957552e+01	9.479026e+01
2.480000e-06	2.805496e-06	1.472721e-09	1.985451e+01	9.732600e+01
2.490000e-06	2.844731e-06	1.501366e-09	2.013218e+01	9.979238e+01
2.500000e-06	2.883746e-06	1.536831e-09	2.040829e+01	1.021896e+02
2.510000e-06	2.922523e-06	1.577703e-09	2.068271e+01	1.045180e+02
2.520000e-06	2.961086e-06	1.617683e-09	2.095562e+01	1.067784e+02
2.530000e-06	2.999394e-06	1.649921e-09	2.122673e+01	1.089718e+02
2.540000e-06	3.037474e-06	1.675988e-09	2.149622e+01	1.110994e+02
2.550000e-06	3.075433e-06	1.702863e-09	2.176486e+01	1.131625e+02
2.560000e-06	3.113230e-06	1.731633e-09	2.203235e+01	1.151627e+02
2.570000e-06	3.150796e-06	1.757486e-09	2.229820e+01	1.171018e+02
2.580000e-06	3.188102e-06	1.780189e-09	2.256222e+01	1.189814e+02
2.590000e-06	3.225206e-06	1.806424e-09	2.282480e+01	1.208035e+02
2.600000e-06	3.262116e-06	1.837243e-09	2.308601e+01	1.225699e+02
2.610000e-06	3.298770e-06	1.865995e-09	2.334541e+01	1.242825e+02
2.620000e-06	3.335180e-06	1.889704e-09	2.360308e+01	1.259431e+02
2.630000e-06	3.371369e-06	1.913893e-09	2.385920e+01	1.275536e+02
2.640000e-06	3.407431e-06	1.941377e-09	2.411441e+01	1.291156e+02
2.650000e-06	3.443413e-06	1.964007e-09	2.436905e+01	1.306307e+02
2.660000e-06	3.479198e-06	1.980105e-09	2.462230e+01	1.321004e+02
2.670000e-06	3.514794e-06	1.995862e-09	2.487422e+01	1.335261e+02
2.680000e-06	3.550188e-06	2.016376e-09	2.512470e+01	1.349090e+02
2.690000e-06	3.585259e-06	2.037284e-09	2.537290e+01	1.362501e+02
2.700000e-06	3.619996e-06	2.053743e-09	2.561873e+01	1.375504e+02
2.710000e-06	3.654291e-06	2.070093e-09	2.586144e+01	1.388107e+02
2.720000e-06	3.688148e-06	2.089517e-09	2.610104e+01	1.400318e+02
2.730000e-06	3.721560e-06	2.110826e-09	2.633750e+01	1.412140e+02
2.740000e-06	3.754434e-06	2.127788e-09	2.657015e+01	1.423580e+02
2.750000e-06	3.787006e-06	2.142851e-09	2.680066e+01	1.434641e+02
2.760000e-06	3.819370e-06	2.161111e-09	2.702971e+01	1.445327e+02
2.770000e-06	3.851526e-06	2.180934e-09	2.725727e+01	1.455640e+02
2.780000e-06	3.883593e-06	2.195454e-09	2.748421e+01	1.465583e+02
2.790000e-06	3.915514e-06	2.204097e-09	2.771011e+01	1.475159e+02
2.800000e-06	3.947181e-06	2.213529e-09	2.793422e+01	1.484372e+02
2.810000e-06	3.978570e-06	2.228313e-09	2.815636e+01	1.493224e+02
2.820000e-06	4.009750e-06	2.242811e-09	2.837702e+01	1.501721e+02
2.830000e-06	4.040616e-06	2.253531e-09	2.859546e+01	1.509867e+02
2.840000e-06	4.071120e-06	2.263358e-09	2.881134e+01	1.517669e+02
2.850000e-06	4.101326e-06	2.277151e-09	2.902511e+01	1.525133e+02
2.860000e-06	4.131290e-06	2.293575e-09	2.923716e+01	1.532269e+02
2.870000e-06	4.161016e-06	2.306108e-09	2.944753e+01	1.539085e+02
2.880000e-06	4.190476e-06	2.312830e-09	2.965603e+01	1.545594e+02
2.890000e-06	4.219610e-06	2.315695e-09	2.986221e+01	1.551806e+02
2.900000e-06	4.248485e-06	2.320951e-09	3.006655e+01	1.557735e+02
