# Temperatura_=_-1.3
# Concentracion g/m^3_=_4090.0
# C_Vs_to_Am_M_A/Vsm_=_65563218390.804596
# pendiente_HvsI_1/m_=_3716.3
# ordenada_HvsI_A/m_=_1297.0
# frecuencia_Hz_=_135084.50679292655

Tiempo_(s)	Campo_(V.s)	Magnetizacion_(V.s)	Campo_(kA/m)	Magnetizacion_(A/m)
0.000000e+00	-5.409703e-06	-2.630037e-09	-3.840182e+01	-1.696492e+02
1.000000e-08	-5.409842e-06	-2.626473e-09	-3.840280e+01	-1.696522e+02
2.000000e-08	-5.409762e-06	-2.625382e-09	-3.840223e+01	-1.696560e+02
3.000000e-08	-5.409330e-06	-2.627564e-09	-3.839917e+01	-1.696614e+02
4.000000e-08	-5.408483e-06	-2.628360e-09	-3.839316e+01	-1.696694e+02
5.000000e-08	-5.407148e-06	-2.625331e-09	-3.838368e+01	-1.696809e+02
6.000000e-08	-5.405261e-06	-2.626100e-09	-3.837028e+01	-1.696967e+02
7.000000e-08	-5.402728e-06	-2.642333e-09	-3.835230e+01	-1.697177e+02
8.000000e-08	-5.399498e-06	-2.634305e-09	-3.832937e+01	-1.697447e+02
9.000000e-08	-5.395762e-06	-2.603368e-09	-3.830285e+01	-1.697783e+02
1.000000e-07	-5.391614e-06	-2.602782e-09	-3.827341e+01	-1.698192e+02
1.100000e-07	-5.387206e-06	-2.647747e-09	-3.824212e+01	-1.698680e+02
1.200000e-07	-5.382674e-06	-2.631944e-09	-3.820995e+01	-1.699250e+02
1.300000e-07	-5.377920e-06	-2.587098e-09	-3.817620e+01	-1.699906e+02
1.400000e-07	-5.372753e-06	-2.568935e-09	-3.813952e+01	-1.700649e+02
1.500000e-07	-5.367166e-06	-2.641667e-09	-3.809986e+01	-1.701478e+02
1.600000e-07	-5.361249e-06	-2.615286e-09	-3.805786e+01	-1.702393e+02
1.700000e-07	-5.354938e-06	-2.582485e-09	-3.801305e+01	-1.703391e+02
1.800000e-07	-5.348190e-06	-2.584785e-09	-3.796516e+01	-1.704467e+02
1.900000e-07	-5.341138e-06	-2.645838e-09	-3.791509e+01	-1.705614e+02
2.000000e-07	-5.333847e-06	-2.624625e-09	-3.786334e+01	-1.706827e+02
2.100000e-07	-5.326281e-06	-2.585149e-09	-3.780963e+01	-1.708095e+02
2.200000e-07	-5.318472e-06	-2.609080e-09	-3.775420e+01	-1.709409e+02
2.300000e-07	-5.310369e-06	-2.631324e-09	-3.769667e+01	-1.710758e+02
2.400000e-07	-5.301779e-06	-2.618002e-09	-3.763570e+01	-1.712130e+02
2.500000e-07	-5.292614e-06	-2.599097e-09	-3.757064e+01	-1.713512e+02
2.600000e-07	-5.282777e-06	-2.650253e-09	-3.750081e+01	-1.714891e+02
2.700000e-07	-5.272256e-06	-2.657183e-09	-3.742613e+01	-1.716254e+02
2.800000e-07	-5.261322e-06	-2.640487e-09	-3.734850e+01	-1.717587e+02
2.900000e-07	-5.249965e-06	-2.635338e-09	-3.726789e+01	-1.718876e+02
3.000000e-07	-5.238142e-06	-2.675993e-09	-3.718396e+01	-1.720107e+02
3.100000e-07	-5.225893e-06	-2.643969e-09	-3.709701e+01	-1.721268e+02
3.200000e-07	-5.213261e-06	-2.633045e-09	-3.700734e+01	-1.722346e+02
3.300000e-07	-5.200265e-06	-2.639966e-09	-3.691508e+01	-1.723330e+02
3.400000e-07	-5.186908e-06	-2.662427e-09	-3.682026e+01	-1.724209e+02
3.500000e-07	-5.173263e-06	-2.638615e-09	-3.672340e+01	-1.724974e+02
3.600000e-07	-5.159305e-06	-2.661906e-09	-3.662432e+01	-1.725615e+02
3.700000e-07	-5.144876e-06	-2.659968e-09	-3.652189e+01	-1.726126e+02
3.800000e-07	-5.129834e-06	-2.649478e-09	-3.641511e+01	-1.726501e+02
3.900000e-07	-5.114122e-06	-2.638224e-09	-3.630358e+01	-1.726736e+02
4.000000e-07	-5.097869e-06	-2.650549e-09	-3.618820e+01	-1.726827e+02
4.100000e-07	-5.081352e-06	-2.626347e-09	-3.607096e+01	-1.726774e+02
4.200000e-07	-5.064544e-06	-2.615151e-09	-3.595164e+01	-1.726575e+02
4.300000e-07	-5.047295e-06	-2.627842e-09	-3.582919e+01	-1.726233e+02
4.400000e-07	-5.029751e-06	-2.634784e-09	-3.570465e+01	-1.725749e+02
4.500000e-07	-5.011980e-06	-2.619481e-09	-3.557851e+01	-1.725127e+02
4.600000e-07	-4.993828e-06	-2.615051e-09	-3.544965e+01	-1.724371e+02
4.700000e-07	-4.975221e-06	-2.624771e-09	-3.531756e+01	-1.723488e+02
4.800000e-07	-4.956231e-06	-2.621244e-09	-3.518276e+01	-1.722483e+02
4.900000e-07	-4.936970e-06	-2.613275e-09	-3.504603e+01	-1.721364e+02
5.000000e-07	-4.917393e-06	-2.601639e-09	-3.490706e+01	-1.720138e+02
5.100000e-07	-4.897568e-06	-2.605855e-09	-3.476633e+01	-1.718814e+02
5.200000e-07	-4.877583e-06	-2.607160e-09	-3.462446e+01	-1.717400e+02
5.300000e-07	-4.857396e-06	-2.611332e-09	-3.448116e+01	-1.715904e+02
5.400000e-07	-4.836932e-06	-2.601947e-09	-3.433589e+01	-1.714334e+02
5.500000e-07	-4.816110e-06	-2.601665e-09	-3.418808e+01	-1.712701e+02
5.600000e-07	-4.794921e-06	-2.595135e-09	-3.403767e+01	-1.711010e+02
5.700000e-07	-4.773342e-06	-2.598102e-09	-3.388448e+01	-1.709272e+02
5.800000e-07	-4.751485e-06	-2.585773e-09	-3.372933e+01	-1.707492e+02
5.900000e-07	-4.729265e-06	-2.577690e-09	-3.357160e+01	-1.705678e+02
6.000000e-07	-4.706595e-06	-2.572991e-09	-3.341067e+01	-1.703837e+02
6.100000e-07	-4.683684e-06	-2.583415e-09	-3.324803e+01	-1.701974e+02
6.200000e-07	-4.660464e-06	-2.571053e-09	-3.308320e+01	-1.700094e+02
6.300000e-07	-4.636914e-06	-2.560963e-09	-3.291603e+01	-1.698203e+02
6.400000e-07	-4.613150e-06	-2.558700e-09	-3.274733e+01	-1.696304e+02
6.500000e-07	-4.589222e-06	-2.565135e-09	-3.257748e+01	-1.694401e+02
6.600000e-07	-4.565088e-06	-2.556221e-09	-3.240616e+01	-1.692496e+02
6.700000e-07	-4.540530e-06	-2.552195e-09	-3.223183e+01	-1.690591e+02
6.800000e-07	-4.515464e-06	-2.546654e-09	-3.205389e+01	-1.688688e+02
6.900000e-07	-4.489947e-06	-2.546875e-09	-3.187275e+01	-1.686788e+02
7.000000e-07	-4.464022e-06	-2.541531e-09	-3.168872e+01	-1.684891e+02
7.100000e-07	-4.437632e-06	-2.531720e-09	-3.150139e+01	-1.682996e+02
7.200000e-07	-4.410739e-06	-2.520384e-09	-3.131048e+01	-1.681104e+02
7.300000e-07	-4.383398e-06	-2.526811e-09	-3.111640e+01	-1.679214e+02
7.400000e-07	-4.355790e-06	-2.535378e-09	-3.092041e+01	-1.677323e+02
7.500000e-07	-4.327982e-06	-2.530706e-09	-3.072301e+01	-1.675431e+02
7.600000e-07	-4.299918e-06	-2.523384e-09	-3.052379e+01	-1.673536e+02
7.700000e-07	-4.271692e-06	-2.521588e-09	-3.032342e+01	-1.671635e+02
7.800000e-07	-4.243275e-06	-2.519711e-09	-3.012170e+01	-1.669726e+02
7.900000e-07	-4.214448e-06	-2.509922e-09	-2.991707e+01	-1.667807e+02
8.000000e-07	-4.185275e-06	-2.498920e-09	-2.970998e+01	-1.665875e+02
8.100000e-07	-4.155888e-06	-2.494860e-09	-2.950137e+01	-1.663928e+02
8.200000e-07	-4.126233e-06	-2.504783e-09	-2.929086e+01	-1.661962e+02
8.300000e-07	-4.096345e-06	-2.509099e-09	-2.907869e+01	-1.659974e+02
8.400000e-07	-4.066180e-06	-2.509747e-09	-2.886456e+01	-1.657963e+02
8.500000e-07	-4.035638e-06	-2.504285e-09	-2.864776e+01	-1.655925e+02
8.600000e-07	-4.004808e-06	-2.503054e-09	-2.842890e+01	-1.653856e+02
8.700000e-07	-3.973809e-06	-2.493492e-09	-2.820885e+01	-1.651756e+02
8.800000e-07	-3.942607e-06	-2.480329e-09	-2.798735e+01	-1.649620e+02
8.900000e-07	-3.911114e-06	-2.465855e-09	-2.776380e+01	-1.647446e+02
9.000000e-07	-3.879371e-06	-2.465328e-09	-2.753846e+01	-1.645232e+02
9.100000e-07	-3.847512e-06	-2.470037e-09	-2.731230e+01	-1.642975e+02
9.200000e-07	-3.815452e-06	-2.479130e-09	-2.708472e+01	-1.640673e+02
9.300000e-07	-3.783133e-06	-2.480741e-09	-2.685530e+01	-1.638323e+02
9.400000e-07	-3.750598e-06	-2.482429e-09	-2.662434e+01	-1.635925e+02
9.500000e-07	-3.717741e-06	-2.476010e-09	-2.639110e+01	-1.633477e+02
9.600000e-07	-3.684557e-06	-2.463475e-09	-2.615554e+01	-1.630976e+02
9.700000e-07	-3.650891e-06	-2.446916e-09	-2.591655e+01	-1.628422e+02
9.800000e-07	-3.616657e-06	-2.438244e-09	-2.567354e+01	-1.625815e+02
9.900000e-07	-3.582035e-06	-2.436476e-09	-2.542776e+01	-1.623153e+02
1.000000e-06	-3.547069e-06	-2.443758e-09	-2.517955e+01	-1.620437e+02
1.010000e-06	-3.511793e-06	-2.453251e-09	-2.492914e+01	-1.617666e+02
1.020000e-06	-3.476190e-06	-2.458866e-09	-2.467640e+01	-1.614842e+02
1.030000e-06	-3.440375e-06	-2.453687e-09	-2.442216e+01	-1.611964e+02
1.040000e-06	-3.404454e-06	-2.441781e-09	-2.416717e+01	-1.609035e+02
1.050000e-06	-3.368400e-06	-2.425703e-09	-2.391123e+01	-1.606055e+02
1.060000e-06	-3.332217e-06	-2.410304e-09	-2.365439e+01	-1.603026e+02
1.070000e-06	-3.295831e-06	-2.401956e-09	-2.339609e+01	-1.599949e+02
1.080000e-06	-3.259267e-06	-2.399961e-09	-2.313653e+01	-1.596828e+02
1.090000e-06	-3.222497e-06	-2.403414e-09	-2.287551e+01	-1.593663e+02
1.100000e-06	-3.185528e-06	-2.405231e-09	-2.261309e+01	-1.590457e+02
1.110000e-06	-3.148390e-06	-2.403100e-09	-2.234945e+01	-1.587212e+02
1.120000e-06	-3.110943e-06	-2.393269e-09	-2.208363e+01	-1.583930e+02
1.130000e-06	-3.073236e-06	-2.383224e-09	-2.181595e+01	-1.580614e+02
1.140000e-06	-3.035332e-06	-2.371285e-09	-2.154688e+01	-1.577264e+02
1.150000e-06	-2.997219e-06	-2.362275e-09	-2.127634e+01	-1.573882e+02
1.160000e-06	-2.958877e-06	-2.352863e-09	-2.100416e+01	-1.570469e+02
1.170000e-06	-2.920403e-06	-2.347997e-09	-2.073104e+01	-1.567025e+02
1.180000e-06	-2.881704e-06	-2.344405e-09	-2.045633e+01	-1.563552e+02
1.190000e-06	-2.842659e-06	-2.342901e-09	-2.017916e+01	-1.560046e+02
1.200000e-06	-2.803421e-06	-2.337253e-09	-1.990063e+01	-1.556509e+02
1.210000e-06	-2.764020e-06	-2.329128e-09	-1.962092e+01	-1.552938e+02
1.220000e-06	-2.724466e-06	-2.317622e-09	-1.934014e+01	-1.549330e+02
1.230000e-06	-2.684775e-06	-2.309410e-09	-1.905839e+01	-1.545682e+02
1.240000e-06	-2.644985e-06	-2.300008e-09	-1.877594e+01	-1.541990e+02
1.250000e-06	-2.605113e-06	-2.289959e-09	-1.849290e+01	-1.538250e+02
1.260000e-06	-2.565192e-06	-2.280901e-09	-1.820951e+01	-1.534456e+02
1.270000e-06	-2.525149e-06	-2.274693e-09	-1.792525e+01	-1.530602e+02
1.280000e-06	-2.484982e-06	-2.269183e-09	-1.764012e+01	-1.526681e+02
1.290000e-06	-2.444691e-06	-2.263659e-09	-1.735411e+01	-1.522687e+02
1.300000e-06	-2.404181e-06	-2.257596e-09	-1.706654e+01	-1.518613e+02
1.310000e-06	-2.363463e-06	-2.253177e-09	-1.677750e+01	-1.514449e+02
1.320000e-06	-2.322611e-06	-2.248774e-09	-1.648750e+01	-1.510189e+02
1.330000e-06	-2.281584e-06	-2.237895e-09	-1.619626e+01	-1.505824e+02
1.340000e-06	-2.240188e-06	-2.222822e-09	-1.590240e+01	-1.501345e+02
1.350000e-06	-2.198463e-06	-2.208526e-09	-1.560621e+01	-1.496746e+02
1.360000e-06	-2.156434e-06	-2.197253e-09	-1.530786e+01	-1.492018e+02
1.370000e-06	-2.114091e-06	-2.188908e-09	-1.500728e+01	-1.487153e+02
1.380000e-06	-2.071518e-06	-2.182394e-09	-1.470507e+01	-1.482144e+02
1.390000e-06	-2.028769e-06	-2.175552e-09	-1.440161e+01	-1.476985e+02
1.400000e-06	-1.985839e-06	-2.171856e-09	-1.409686e+01	-1.471670e+02
1.410000e-06	-1.942647e-06	-2.166000e-09	-1.379025e+01	-1.466193e+02
1.420000e-06	-1.899307e-06	-2.152904e-09	-1.348260e+01	-1.460550e+02
1.430000e-06	-1.855851e-06	-2.135717e-09	-1.317411e+01	-1.454736e+02
1.440000e-06	-1.812231e-06	-2.122896e-09	-1.286447e+01	-1.448750e+02
1.450000e-06	-1.768503e-06	-2.113565e-09	-1.255406e+01	-1.442588e+02
1.460000e-06	-1.724650e-06	-2.105348e-09	-1.224276e+01	-1.436250e+02
1.470000e-06	-1.680721e-06	-2.096084e-09	-1.193092e+01	-1.429733e+02
1.480000e-06	-1.636723e-06	-2.087951e-09	-1.161859e+01	-1.423038e+02
1.490000e-06	-1.592656e-06	-2.080243e-09	-1.130578e+01	-1.416166e+02
1.500000e-06	-1.548564e-06	-2.071110e-09	-1.099278e+01	-1.409116e+02
1.510000e-06	-1.504376e-06	-2.055387e-09	-1.067910e+01	-1.401890e+02
1.520000e-06	-1.460110e-06	-2.036539e-09	-1.036487e+01	-1.394489e+02
1.530000e-06	-1.415815e-06	-2.021706e-09	-1.005043e+01	-1.386915e+02
1.540000e-06	-1.371483e-06	-2.010756e-09	-9.735733e+00	-1.379168e+02
1.550000e-06	-1.327060e-06	-2.000460e-09	-9.420389e+00	-1.371249e+02
1.560000e-06	-1.282477e-06	-1.990662e-09	-9.103911e+00	-1.363158e+02
1.570000e-06	-1.237852e-06	-1.981228e-09	-8.787131e+00	-1.354896e+02
1.580000e-06	-1.193170e-06	-1.973824e-09	-8.469949e+00	-1.346460e+02
1.590000e-06	-1.148374e-06	-1.963622e-09	-8.151951e+00	-1.337850e+02
1.600000e-06	-1.103524e-06	-1.948676e-09	-7.833578e+00	-1.329061e+02
1.610000e-06	-1.058621e-06	-1.931298e-09	-7.514827e+00	-1.320090e+02
1.620000e-06	-1.013592e-06	-1.914877e-09	-7.195181e+00	-1.310931e+02
1.630000e-06	-9.684298e-07	-1.899484e-09	-6.874585e+00	-1.301577e+02
1.640000e-06	-9.231723e-07	-1.883075e-09	-6.553316e+00	-1.292019e+02
1.650000e-06	-8.778218e-07	-1.869344e-09	-6.231387e+00	-1.282247e+02
1.660000e-06	-8.324045e-07	-1.860547e-09	-5.908983e+00	-1.272251e+02
1.670000e-06	-7.869607e-07	-1.851142e-09	-5.586392e+00	-1.262017e+02
1.680000e-06	-7.414697e-07	-1.834649e-09	-5.263465e+00	-1.251531e+02
1.690000e-06	-6.959637e-07	-1.812985e-09	-4.940432e+00	-1.240777e+02
1.700000e-06	-6.504298e-07	-1.790744e-09	-4.617201e+00	-1.229739e+02
1.710000e-06	-6.048137e-07	-1.769955e-09	-4.293386e+00	-1.218398e+02
1.720000e-06	-5.591215e-07	-1.749816e-09	-3.969032e+00	-1.206735e+02
1.730000e-06	-5.134384e-07	-1.730645e-09	-3.644741e+00	-1.194731e+02
1.740000e-06	-4.677896e-07	-1.711941e-09	-3.320694e+00	-1.182365e+02
1.750000e-06	-4.219966e-07	-1.694968e-09	-2.995624e+00	-1.169615e+02
1.760000e-06	-3.761353e-07	-1.675143e-09	-2.670069e+00	-1.156460e+02
1.770000e-06	-3.303113e-07	-1.652615e-09	-2.344778e+00	-1.142880e+02
1.780000e-06	-2.844352e-07	-1.630398e-09	-2.019118e+00	-1.128851e+02
1.790000e-06	-2.385425e-07	-1.609483e-09	-1.693340e+00	-1.114355e+02
1.800000e-06	-1.926586e-07	-1.586406e-09	-1.367624e+00	-1.099369e+02
1.810000e-06	-1.466926e-07	-1.561534e-09	-1.041325e+00	-1.083874e+02
1.820000e-06	-1.007100e-07	-1.540760e-09	-7.149094e-01	-1.067851e+02
1.830000e-06	-5.472660e-08	-1.520268e-09	-3.884873e-01	-1.051281e+02
1.840000e-06	-8.733937e-09	-1.493826e-09	-6.199953e-02	-1.034149e+02
1.850000e-06	3.715259e-08	-1.460829e-09	2.637348e-01	-1.016437e+02
1.860000e-06	8.300640e-08	-1.425963e-09	5.892369e-01	-9.981328e+01
1.870000e-06	1.288951e-07	-1.393861e-09	9.149866e-01	-9.792222e+01
1.880000e-06	1.747834e-07	-1.363936e-09	1.240733e+00	-9.596940e+01
1.890000e-06	2.206421e-07	-1.335220e-09	1.566271e+00	-9.395383e+01
1.900000e-06	2.664611e-07	-1.309114e-09	1.891525e+00	-9.187469e+01
1.910000e-06	3.122521e-07	-1.282197e-09	2.216581e+00	-8.973127e+01
1.920000e-06	3.581045e-07	-1.248192e-09	2.542074e+00	-8.752306e+01
1.930000e-06	4.039419e-07	-1.209382e-09	2.867460e+00	-8.524965e+01
1.940000e-06	4.496810e-07	-1.169780e-09	3.192147e+00	-8.291081e+01
1.950000e-06	4.954560e-07	-1.131023e-09	3.517089e+00	-8.050644e+01
1.960000e-06	5.412098e-07	-1.093664e-09	3.841882e+00	-7.803655e+01
1.970000e-06	5.868010e-07	-1.055218e-09	4.165520e+00	-7.550130e+01
1.980000e-06	6.323540e-07	-1.017822e-09	4.488887e+00	-7.290096e+01
1.990000e-06	6.779453e-07	-9.809058e-10	4.812525e+00	-7.023593e+01
2.000000e-06	7.234636e-07	-9.435099e-10	5.135646e+00	-6.750669e+01
2.010000e-06	7.688657e-07	-9.047781e-10	5.457941e+00	-6.471386e+01
2.020000e-06	8.142277e-07	-8.618757e-10	5.779952e+00	-6.185814e+01
2.030000e-06	8.595450e-07	-8.155278e-10	6.101645e+00	-5.894036e+01
2.040000e-06	9.047925e-07	-7.672397e-10	6.422843e+00	-5.596143e+01
2.050000e-06	9.499789e-07	-7.198408e-10	6.743608e+00	-5.292239e+01
2.060000e-06	9.950615e-07	-6.749091e-10	7.063636e+00	-4.982437e+01
2.070000e-06	1.040053e-06	-6.328936e-10	7.383017e+00	-4.666864e+01
2.080000e-06	1.084972e-06	-5.914609e-10	7.701884e+00	-4.345658e+01
2.090000e-06	1.129745e-06	-5.495240e-10	8.019715e+00	-4.018972e+01
2.100000e-06	1.174365e-06	-5.058861e-10	8.336458e+00	-3.686972e+01
2.110000e-06	1.219030e-06	-4.565286e-10	8.653518e+00	-3.349839e+01
2.120000e-06	1.263617e-06	-4.020985e-10	8.970030e+00	-3.007773e+01
2.130000e-06	1.308063e-06	-3.461740e-10	9.285537e+00	-2.660991e+01
2.140000e-06	1.352447e-06	-2.901991e-10	9.600603e+00	-2.309726e+01
2.150000e-06	1.396754e-06	-2.357477e-10	9.915125e+00	-1.954235e+01
2.160000e-06	1.441012e-06	-1.848645e-10	1.022930e+01	-1.594794e+01
2.170000e-06	1.485213e-06	-1.393205e-10	1.054307e+01	-1.231699e+01
2.180000e-06	1.529345e-06	-9.237328e-11	1.085635e+01	-8.652708e+00
2.190000e-06	1.573398e-06	-3.877667e-11	1.116907e+01	-4.958510e+00
2.200000e-06	1.617426e-06	1.719259e-11	1.148161e+01	-1.238040e+00
2.210000e-06	1.661411e-06	7.391263e-11	1.179385e+01	2.504836e+00
2.220000e-06	1.705308e-06	1.327587e-10	1.210546e+01	6.266038e+00
2.230000e-06	1.749189e-06	1.930756e-10	1.241695e+01	1.004128e+01
2.240000e-06	1.792991e-06	2.523106e-10	1.272789e+01	1.382608e+01
2.250000e-06	1.836653e-06	3.086256e-10	1.303784e+01	1.761579e+01
2.260000e-06	1.880210e-06	3.639548e-10	1.334703e+01	2.140561e+01
2.270000e-06	1.923614e-06	4.187826e-10	1.365514e+01	2.519059e+01
2.280000e-06	1.966930e-06	4.733875e-10	1.396263e+01	2.896569e+01
2.290000e-06	2.010074e-06	5.279067e-10	1.426889e+01	3.272581e+01
2.300000e-06	2.052815e-06	5.820350e-10	1.457230e+01	3.646581e+01
2.310000e-06	2.095335e-06	6.364567e-10	1.487414e+01	4.018053e+01
2.320000e-06	2.137686e-06	6.909720e-10	1.517477e+01	4.386486e+01
2.330000e-06	2.179711e-06	7.452019e-10	1.547310e+01	4.751377e+01
2.340000e-06	2.221414e-06	7.973598e-10	1.576914e+01	5.112233e+01
2.350000e-06	2.262820e-06	8.489219e-10	1.606307e+01	5.468579e+01
2.360000e-06	2.304004e-06	9.013708e-10	1.635542e+01	5.819957e+01
2.370000e-06	2.344860e-06	9.512173e-10	1.664544e+01	6.165932e+01
2.380000e-06	2.385468e-06	9.951286e-10	1.693370e+01	6.506097e+01
2.390000e-06	2.425906e-06	1.036459e-09	1.722076e+01	6.840075e+01
2.400000e-06	2.466210e-06	1.078551e-09	1.750687e+01	7.167522e+01
2.410000e-06	2.506431e-06	1.122586e-09	1.779239e+01	7.488127e+01
2.420000e-06	2.546531e-06	1.170309e-09	1.807704e+01	7.801620e+01
2.430000e-06	2.586544e-06	1.220213e-09	1.836108e+01	8.107769e+01
2.440000e-06	2.626454e-06	1.269101e-09	1.864439e+01	8.406383e+01
2.450000e-06	2.666243e-06	1.313733e-09	1.892684e+01	8.697312e+01
2.460000e-06	2.705920e-06	1.354056e-09	1.920849e+01	8.980448e+01
2.470000e-06	2.745412e-06	1.389849e-09	1.948884e+01	9.255723e+01
2.480000e-06	2.784763e-06	1.420741e-09	1.976818e+01	9.523112e+01
2.490000e-06	2.824001e-06	1.452231e-09	2.004671e+01	9.782626e+01
2.500000e-06	2.862910e-06	1.487877e-09	2.032291e+01	1.003431e+02
2.510000e-06	2.901469e-06	1.526657e-09	2.059663e+01	1.027826e+02
2.520000e-06	2.939831e-06	1.566430e-09	2.086896e+01	1.051458e+02
2.530000e-06	2.978109e-06	1.602877e-09	2.114068e+01	1.074341e+02
2.540000e-06	3.016258e-06	1.633755e-09	2.141149e+01	1.096493e+02
2.550000e-06	3.054187e-06	1.661764e-09	2.168073e+01	1.117933e+02
2.560000e-06	3.091885e-06	1.688153e-09	2.194834e+01	1.138681e+02
2.570000e-06	3.129377e-06	1.712756e-09	2.221449e+01	1.158760e+02
2.580000e-06	3.166638e-06	1.737599e-09	2.247899e+01	1.178192e+02
2.590000e-06	3.203576e-06	1.766561e-09	2.274120e+01	1.197002e+02
2.600000e-06	3.240299e-06	1.798763e-09	2.300188e+01	1.215213e+02
2.610000e-06	3.276874e-06	1.828918e-09	2.326152e+01	1.232850e+02
2.620000e-06	3.313175e-06	1.854329e-09	2.351921e+01	1.249934e+02
2.630000e-06	3.349284e-06	1.876628e-09	2.377554e+01	1.266490e+02
2.640000e-06	3.385312e-06	1.898922e-09	2.403129e+01	1.282538e+02
2.650000e-06	3.421195e-06	1.920364e-09	2.428601e+01	1.298099e+02
2.660000e-06	3.456947e-06	1.939880e-09	2.453980e+01	1.313190e+02
2.670000e-06	3.492566e-06	1.961127e-09	2.479265e+01	1.327829e+02
2.680000e-06	3.528016e-06	1.983772e-09	2.504430e+01	1.342031e+02
2.690000e-06	3.563194e-06	2.005256e-09	2.529402e+01	1.355809e+02
2.700000e-06	3.597951e-06	2.023897e-09	2.554075e+01	1.369175e+02
2.710000e-06	3.632255e-06	2.040702e-09	2.578426e+01	1.382139e+02
2.720000e-06	3.666111e-06	2.059332e-09	2.602460e+01	1.394710e+02
2.730000e-06	3.699590e-06	2.078028e-09	2.626225e+01	1.406893e+02
2.740000e-06	3.732618e-06	2.095817e-09	2.649671e+01	1.418694e+02
2.750000e-06	3.765242e-06	2.113516e-09	2.672830e+01	1.430117e+02
2.760000e-06	3.797640e-06	2.130606e-09	2.695828e+01	1.441165e+02
2.770000e-06	3.829901e-06	2.145124e-09	2.718729e+01	1.451841e+02
2.780000e-06	3.861960e-06	2.156983e-09	2.741487e+01	1.462146e+02
2.790000e-06	3.893762e-06	2.169454e-09	2.764062e+01	1.472082e+02
2.800000e-06	3.925373e-06	2.184308e-09	2.786501e+01	1.481650e+02
2.810000e-06	3.956791e-06	2.198997e-09	2.808804e+01	1.490852e+02
2.820000e-06	3.987938e-06	2.211027e-09	2.830915e+01	1.499691e+02
2.830000e-06	4.018779e-06	2.222280e-09	2.852807e+01	1.508168e+02
2.840000e-06	4.049304e-06	2.234797e-09	2.874476e+01	1.516288e+02
2.850000e-06	4.079551e-06	2.246494e-09	2.895948e+01	1.524054e+02
2.860000e-06	4.109603e-06	2.256455e-09	2.917281e+01	1.531473e+02
2.870000e-06	4.139350e-06	2.265651e-09	2.938398e+01	1.538552e+02
2.880000e-06	4.168728e-06	2.274877e-09	2.959252e+01	1.545298e+02
2.890000e-06	4.197808e-06	2.282501e-09	2.979895e+01	1.551720e+02
2.900000e-06	4.226642e-06	2.287513e-09	3.000363e+01	1.557830e+02
