# Temperatura_=_15.78
# Concentracion g/m^3_=_4090.0
# C_Vs_to_Am_M_A/Vsm_=_65563218390.804596
# pendiente_HvsI_1/m_=_3716.3
# ordenada_HvsI_A/m_=_1297.0
# frecuencia_Hz_=_135079.31708278868

Tiempo_(s)	Campo_(V.s)	Magnetizacion_(V.s)	Campo_(kA/m)	Magnetizacion_(A/m)
0.000000e+00	-5.386049e-06	-2.721546e-09	-3.838905e+01	-1.732189e+02
1.000000e-08	-5.386120e-06	-2.719653e-09	-3.838955e+01	-1.731843e+02
2.000000e-08	-5.386014e-06	-2.720482e-09	-3.838880e+01	-1.731535e+02
3.000000e-08	-5.385664e-06	-2.719967e-09	-3.838630e+01	-1.731279e+02
4.000000e-08	-5.384969e-06	-2.715727e-09	-3.838135e+01	-1.731091e+02
5.000000e-08	-5.383876e-06	-2.712778e-09	-3.837356e+01	-1.730987e+02
6.000000e-08	-5.382290e-06	-2.724765e-09	-3.836226e+01	-1.730980e+02
7.000000e-08	-5.379998e-06	-2.749059e-09	-3.834592e+01	-1.731083e+02
8.000000e-08	-5.376968e-06	-2.721822e-09	-3.832432e+01	-1.731307e+02
9.000000e-08	-5.373447e-06	-2.669092e-09	-3.829923e+01	-1.731662e+02
1.000000e-07	-5.369566e-06	-2.721946e-09	-3.827156e+01	-1.732156e+02
1.100000e-07	-5.365323e-06	-2.794468e-09	-3.824132e+01	-1.732793e+02
1.200000e-07	-5.360816e-06	-2.734055e-09	-3.820920e+01	-1.733577e+02
1.300000e-07	-5.356143e-06	-2.617926e-09	-3.817590e+01	-1.734507e+02
1.400000e-07	-5.351182e-06	-2.672604e-09	-3.814053e+01	-1.735582e+02
1.500000e-07	-5.345743e-06	-2.806199e-09	-3.810176e+01	-1.736796e+02
1.600000e-07	-5.339898e-06	-2.711705e-09	-3.806011e+01	-1.738142e+02
1.700000e-07	-5.333790e-06	-2.585697e-09	-3.801657e+01	-1.739610e+02
1.800000e-07	-5.327342e-06	-2.667967e-09	-3.797061e+01	-1.741187e+02
1.900000e-07	-5.320473e-06	-2.803940e-09	-3.792166e+01	-1.742859e+02
2.000000e-07	-5.313259e-06	-2.711087e-09	-3.787023e+01	-1.744608e+02
2.100000e-07	-5.305746e-06	-2.621298e-09	-3.781669e+01	-1.746416e+02
2.200000e-07	-5.298050e-06	-2.703515e-09	-3.776184e+01	-1.748263e+02
2.300000e-07	-5.290121e-06	-2.752169e-09	-3.770532e+01	-1.750128e+02
2.400000e-07	-5.281751e-06	-2.656895e-09	-3.764567e+01	-1.751990e+02
2.500000e-07	-5.272918e-06	-2.658011e-09	-3.758271e+01	-1.753825e+02
2.600000e-07	-5.263397e-06	-2.757301e-09	-3.751484e+01	-1.755611e+02
2.700000e-07	-5.253179e-06	-2.727154e-09	-3.744202e+01	-1.757327e+02
2.800000e-07	-5.242506e-06	-2.639231e-09	-3.736595e+01	-1.758951e+02
2.900000e-07	-5.231398e-06	-2.696275e-09	-3.728677e+01	-1.760463e+02
3.000000e-07	-5.219850e-06	-2.751626e-09	-3.720447e+01	-1.761843e+02
3.100000e-07	-5.207920e-06	-2.642237e-09	-3.711943e+01	-1.763076e+02
3.200000e-07	-5.195591e-06	-2.616658e-09	-3.703156e+01	-1.764144e+02
3.300000e-07	-5.182848e-06	-2.720666e-09	-3.694073e+01	-1.765036e+02
3.400000e-07	-5.169746e-06	-2.727973e-09	-3.684735e+01	-1.765739e+02
3.500000e-07	-5.156232e-06	-2.646085e-09	-3.675102e+01	-1.766247e+02
3.600000e-07	-5.142302e-06	-2.681785e-09	-3.665174e+01	-1.766551e+02
3.700000e-07	-5.128029e-06	-2.716572e-09	-3.655001e+01	-1.766650e+02
3.800000e-07	-5.113365e-06	-2.667165e-09	-3.644549e+01	-1.766541e+02
3.900000e-07	-5.098164e-06	-2.659438e-09	-3.633715e+01	-1.766227e+02
4.000000e-07	-5.082307e-06	-2.692073e-09	-3.622413e+01	-1.765710e+02
4.100000e-07	-5.065866e-06	-2.649501e-09	-3.610695e+01	-1.764998e+02
4.200000e-07	-5.049172e-06	-2.644637e-09	-3.598796e+01	-1.764096e+02
4.300000e-07	-5.032173e-06	-2.693566e-09	-3.586680e+01	-1.763016e+02
4.400000e-07	-5.014823e-06	-2.674185e-09	-3.574314e+01	-1.761768e+02
4.500000e-07	-4.997299e-06	-2.614625e-09	-3.561823e+01	-1.760364e+02
4.600000e-07	-4.979445e-06	-2.642517e-09	-3.549098e+01	-1.758817e+02
4.700000e-07	-4.961193e-06	-2.664532e-09	-3.536088e+01	-1.757141e+02
4.800000e-07	-4.942579e-06	-2.636933e-09	-3.522822e+01	-1.755349e+02
4.900000e-07	-4.923516e-06	-2.625066e-09	-3.509234e+01	-1.753457e+02
5.000000e-07	-4.903992e-06	-2.637768e-09	-3.495319e+01	-1.751478e+02
5.100000e-07	-4.884211e-06	-2.635030e-09	-3.481220e+01	-1.749424e+02
5.200000e-07	-4.864264e-06	-2.640560e-09	-3.467003e+01	-1.747310e+02
5.300000e-07	-4.844114e-06	-2.627447e-09	-3.452640e+01	-1.745145e+02
5.400000e-07	-4.823744e-06	-2.603442e-09	-3.438122e+01	-1.742942e+02
5.500000e-07	-4.803059e-06	-2.615050e-09	-3.423379e+01	-1.740708e+02
5.600000e-07	-4.781943e-06	-2.632660e-09	-3.408328e+01	-1.738453e+02
5.700000e-07	-4.760375e-06	-2.608613e-09	-3.392956e+01	-1.736183e+02
5.800000e-07	-4.738541e-06	-2.590054e-09	-3.377394e+01	-1.733902e+02
5.900000e-07	-4.716500e-06	-2.597956e-09	-3.361684e+01	-1.731615e+02
6.000000e-07	-4.694173e-06	-2.599678e-09	-3.345770e+01	-1.729324e+02
6.100000e-07	-4.671458e-06	-2.596172e-09	-3.329581e+01	-1.727029e+02
6.200000e-07	-4.648345e-06	-2.584916e-09	-3.313106e+01	-1.724731e+02
6.300000e-07	-4.624914e-06	-2.572101e-09	-3.296406e+01	-1.722429e+02
6.400000e-07	-4.601230e-06	-2.576838e-09	-3.279525e+01	-1.720119e+02
6.500000e-07	-4.577346e-06	-2.586903e-09	-3.262502e+01	-1.717799e+02
6.600000e-07	-4.553278e-06	-2.564533e-09	-3.245347e+01	-1.715465e+02
6.700000e-07	-4.528942e-06	-2.549112e-09	-3.228002e+01	-1.713114e+02
6.800000e-07	-4.504306e-06	-2.557652e-09	-3.210443e+01	-1.710740e+02
6.900000e-07	-4.479258e-06	-2.561900e-09	-3.192590e+01	-1.708339e+02
7.000000e-07	-4.453696e-06	-2.541902e-09	-3.174370e+01	-1.705908e+02
7.100000e-07	-4.427577e-06	-2.529521e-09	-3.155754e+01	-1.703441e+02
7.200000e-07	-4.400801e-06	-2.529348e-09	-3.136669e+01	-1.700935e+02
7.300000e-07	-4.373543e-06	-2.538047e-09	-3.117241e+01	-1.698386e+02
7.400000e-07	-4.346042e-06	-2.531555e-09	-3.097640e+01	-1.695792e+02
7.500000e-07	-4.318380e-06	-2.512584e-09	-3.077924e+01	-1.693150e+02
7.600000e-07	-4.290547e-06	-2.501735e-09	-3.058086e+01	-1.690459e+02
7.700000e-07	-4.262561e-06	-2.510079e-09	-3.038139e+01	-1.687717e+02
7.800000e-07	-4.234358e-06	-2.504952e-09	-3.018037e+01	-1.684925e+02
7.900000e-07	-4.205863e-06	-2.487922e-09	-2.997727e+01	-1.682082e+02
8.000000e-07	-4.177018e-06	-2.479272e-09	-2.977168e+01	-1.679190e+02
8.100000e-07	-4.147819e-06	-2.484312e-09	-2.956356e+01	-1.676249e+02
8.200000e-07	-4.118268e-06	-2.483558e-09	-2.935294e+01	-1.673260e+02
8.300000e-07	-4.088399e-06	-2.472566e-09	-2.914005e+01	-1.670227e+02
8.400000e-07	-4.058334e-06	-2.460878e-09	-2.892576e+01	-1.667150e+02
8.500000e-07	-4.028041e-06	-2.461728e-09	-2.870985e+01	-1.664032e+02
8.600000e-07	-3.997503e-06	-2.464197e-09	-2.849219e+01	-1.660875e+02
8.700000e-07	-3.966723e-06	-2.451465e-09	-2.827281e+01	-1.657680e+02
8.800000e-07	-3.935668e-06	-2.435398e-09	-2.805146e+01	-1.654449e+02
8.900000e-07	-3.904311e-06	-2.434738e-09	-2.782796e+01	-1.651183e+02
9.000000e-07	-3.872717e-06	-2.441548e-09	-2.760278e+01	-1.647883e+02
9.100000e-07	-3.840968e-06	-2.436209e-09	-2.737649e+01	-1.644548e+02
9.200000e-07	-3.809084e-06	-2.423361e-09	-2.714923e+01	-1.641179e+02
9.300000e-07	-3.777029e-06	-2.418945e-09	-2.692076e+01	-1.637774e+02
9.400000e-07	-3.744720e-06	-2.424911e-09	-2.669048e+01	-1.634333e+02
9.500000e-07	-3.712194e-06	-2.418772e-09	-2.645865e+01	-1.630851e+02
9.600000e-07	-3.679300e-06	-2.403179e-09	-2.622420e+01	-1.627328e+02
9.700000e-07	-3.645962e-06	-2.394506e-09	-2.598658e+01	-1.623760e+02
9.800000e-07	-3.612184e-06	-2.399574e-09	-2.574583e+01	-1.620144e+02
9.900000e-07	-3.577979e-06	-2.398150e-09	-2.550203e+01	-1.616475e+02
1.000000e-06	-3.543557e-06	-2.385132e-09	-2.525669e+01	-1.612751e+02
1.010000e-06	-3.508784e-06	-2.375430e-09	-2.500885e+01	-1.608967e+02
1.020000e-06	-3.473515e-06	-2.379475e-09	-2.475747e+01	-1.605119e+02
1.030000e-06	-3.437903e-06	-2.376893e-09	-2.450364e+01	-1.601204e+02
1.040000e-06	-3.402141e-06	-2.361691e-09	-2.424875e+01	-1.597218e+02
1.050000e-06	-3.366283e-06	-2.344595e-09	-2.399317e+01	-1.593158e+02
1.060000e-06	-3.330297e-06	-2.339643e-09	-2.373668e+01	-1.589023e+02
1.070000e-06	-3.294214e-06	-2.337473e-09	-2.347950e+01	-1.584809e+02
1.080000e-06	-3.258003e-06	-2.328308e-09	-2.322141e+01	-1.580515e+02
1.090000e-06	-3.221494e-06	-2.315934e-09	-2.296119e+01	-1.576142e+02
1.100000e-06	-3.184691e-06	-2.314044e-09	-2.269887e+01	-1.571688e+02
1.110000e-06	-3.147642e-06	-2.316026e-09	-2.243481e+01	-1.567156e+02
1.120000e-06	-3.110283e-06	-2.307602e-09	-2.216853e+01	-1.562545e+02
1.130000e-06	-3.072660e-06	-2.292861e-09	-2.190038e+01	-1.557859e+02
1.140000e-06	-3.034897e-06	-2.284305e-09	-2.163122e+01	-1.553101e+02
1.150000e-06	-2.997087e-06	-2.282056e-09	-2.136173e+01	-1.548273e+02
1.160000e-06	-2.959106e-06	-2.275544e-09	-2.109102e+01	-1.543379e+02
1.170000e-06	-2.920900e-06	-2.261509e-09	-2.081870e+01	-1.538422e+02
1.180000e-06	-2.882534e-06	-2.250744e-09	-2.054525e+01	-1.533408e+02
1.190000e-06	-2.843931e-06	-2.248480e-09	-2.027011e+01	-1.528339e+02
1.200000e-06	-2.805001e-06	-2.243190e-09	-1.999264e+01	-1.523219e+02
1.210000e-06	-2.765833e-06	-2.229028e-09	-1.971347e+01	-1.518052e+02
1.220000e-06	-2.726525e-06	-2.215677e-09	-1.943330e+01	-1.512841e+02
1.230000e-06	-2.686979e-06	-2.212312e-09	-1.915143e+01	-1.507587e+02
1.240000e-06	-2.647225e-06	-2.207455e-09	-1.886808e+01	-1.502292e+02
1.250000e-06	-2.607432e-06	-2.194146e-09	-1.858447e+01	-1.496957e+02
1.260000e-06	-2.567550e-06	-2.179306e-09	-1.830021e+01	-1.491581e+02
1.270000e-06	-2.527564e-06	-2.171211e-09	-1.801520e+01	-1.486162e+02
1.280000e-06	-2.487516e-06	-2.164752e-09	-1.772977e+01	-1.480698e+02
1.290000e-06	-2.447371e-06	-2.153729e-09	-1.744363e+01	-1.475185e+02
1.300000e-06	-2.407059e-06	-2.141751e-09	-1.715631e+01	-1.469616e+02
1.310000e-06	-2.366585e-06	-2.138140e-09	-1.686783e+01	-1.463987e+02
1.320000e-06	-2.326015e-06	-2.134968e-09	-1.657866e+01	-1.458289e+02
1.330000e-06	-2.285188e-06	-2.120983e-09	-1.628767e+01	-1.452514e+02
1.340000e-06	-2.244092e-06	-2.100131e-09	-1.599476e+01	-1.446653e+02
1.350000e-06	-2.202831e-06	-2.085398e-09	-1.570067e+01	-1.440695e+02
1.360000e-06	-2.161260e-06	-2.076306e-09	-1.540437e+01	-1.434630e+02
1.370000e-06	-2.119353e-06	-2.065995e-09	-1.510568e+01	-1.428445e+02
1.380000e-06	-2.077229e-06	-2.053816e-09	-1.480544e+01	-1.422130e+02
1.390000e-06	-2.034831e-06	-2.045412e-09	-1.450325e+01	-1.415673e+02
1.400000e-06	-1.992146e-06	-2.041344e-09	-1.419901e+01	-1.409061e+02
1.410000e-06	-1.949137e-06	-2.034357e-09	-1.389247e+01	-1.402283e+02
1.420000e-06	-1.905928e-06	-2.018390e-09	-1.358449e+01	-1.395328e+02
1.430000e-06	-1.862659e-06	-1.998688e-09	-1.327610e+01	-1.388185e+02
1.440000e-06	-1.819257e-06	-1.984140e-09	-1.296675e+01	-1.380844e+02
1.450000e-06	-1.775734e-06	-1.972609e-09	-1.265654e+01	-1.373296e+02
1.460000e-06	-1.732065e-06	-1.959339e-09	-1.234529e+01	-1.365533e+02
1.470000e-06	-1.688271e-06	-1.946726e-09	-1.203314e+01	-1.357547e+02
1.480000e-06	-1.644438e-06	-1.936693e-09	-1.172072e+01	-1.349332e+02
1.490000e-06	-1.600572e-06	-1.926545e-09	-1.140807e+01	-1.340883e+02
1.500000e-06	-1.556658e-06	-1.912152e-09	-1.109507e+01	-1.332196e+02
1.510000e-06	-1.512694e-06	-1.895578e-09	-1.078172e+01	-1.323266e+02
1.520000e-06	-1.468645e-06	-1.878546e-09	-1.046776e+01	-1.314092e+02
1.530000e-06	-1.424493e-06	-1.862952e-09	-1.015307e+01	-1.304672e+02
1.540000e-06	-1.380284e-06	-1.850147e-09	-9.837967e+00	-1.295004e+02
1.550000e-06	-1.336001e-06	-1.836525e-09	-9.522343e+00	-1.285087e+02
1.560000e-06	-1.291599e-06	-1.823070e-09	-9.205868e+00	-1.274920e+02
1.570000e-06	-1.247198e-06	-1.810555e-09	-8.889399e+00	-1.264503e+02
1.580000e-06	-1.202803e-06	-1.796900e-09	-8.572976e+00	-1.253835e+02
1.590000e-06	-1.158251e-06	-1.780883e-09	-8.255430e+00	-1.242913e+02
1.600000e-06	-1.113523e-06	-1.764583e-09	-7.936631e+00	-1.231736e+02
1.610000e-06	-1.068697e-06	-1.745355e-09	-7.617136e+00	-1.220301e+02
1.620000e-06	-1.023765e-06	-1.722881e-09	-7.296883e+00	-1.208603e+02
1.630000e-06	-9.787045e-07	-1.702501e-09	-6.975713e+00	-1.196636e+02
1.640000e-06	-9.334693e-07	-1.684822e-09	-6.653300e+00	-1.184395e+02
1.650000e-06	-8.882391e-07	-1.669164e-09	-6.330922e+00	-1.171870e+02
1.660000e-06	-8.430880e-07	-1.655316e-09	-6.009107e+00	-1.159051e+02
1.670000e-06	-7.977293e-07	-1.638106e-09	-5.685813e+00	-1.145926e+02
1.680000e-06	-7.523013e-07	-1.616218e-09	-5.362025e+00	-1.132482e+02
1.690000e-06	-7.069563e-07	-1.593211e-09	-5.038829e+00	-1.118705e+02
1.700000e-06	-6.615523e-07	-1.569973e-09	-4.715212e+00	-1.104576e+02
1.710000e-06	-6.160380e-07	-1.545824e-09	-4.390809e+00	-1.090079e+02
1.720000e-06	-5.704692e-07	-1.521998e-09	-4.066018e+00	-1.075193e+02
1.730000e-06	-5.249556e-07	-1.499252e-09	-3.741619e+00	-1.059898e+02
1.740000e-06	-4.794755e-07	-1.477977e-09	-3.417460e+00	-1.044173e+02
1.750000e-06	-4.339017e-07	-1.454659e-09	-3.092633e+00	-1.027996e+02
1.760000e-06	-3.882481e-07	-1.431056e-09	-2.767237e+00	-1.011344e+02
1.770000e-06	-3.425955e-07	-1.408267e-09	-2.441848e+00	-9.941951e+01
1.780000e-06	-2.968493e-07	-1.384357e-09	-2.115793e+00	-9.765275e+01
1.790000e-06	-2.510402e-07	-1.358063e-09	-1.789288e+00	-9.583198e+01
1.800000e-06	-2.052728e-07	-1.329062e-09	-1.463082e+00	-9.395516e+01
1.810000e-06	-1.595400e-07	-1.299351e-09	-1.137121e+00	-9.202039e+01
1.820000e-06	-1.137855e-07	-1.269518e-09	-8.110056e-01	-9.002592e+01
1.830000e-06	-6.801349e-08	-1.238009e-09	-4.847659e-01	-8.797021e+01
1.840000e-06	-2.222762e-08	-1.207016e-09	-1.584273e-01	-8.585194e+01
1.850000e-06	2.355281e-08	-1.177484e-09	1.678726e-01	-8.367003e+01
1.860000e-06	6.932436e-08	-1.145286e-09	4.941092e-01	-8.142364e+01
1.870000e-06	1.151496e-07	-1.109595e-09	8.207282e-01	-7.911225e+01
1.880000e-06	1.609054e-07	-1.072772e-09	1.146853e+00	-7.673562e+01
1.890000e-06	2.065855e-07	-1.036604e-09	1.472437e+00	-7.429380e+01
1.900000e-06	2.522551e-07	-9.995882e-10	1.797948e+00	-7.178716e+01
1.910000e-06	2.978878e-07	-9.578819e-10	2.123194e+00	-6.921636e+01
1.920000e-06	3.435102e-07	-9.137134e-10	2.448368e+00	-6.658238e+01
1.930000e-06	3.890884e-07	-8.737027e-10	2.773227e+00	-6.388647e+01
1.940000e-06	4.347103e-07	-8.367760e-10	3.098397e+00	-6.113016e+01
1.950000e-06	4.802820e-07	-7.975391e-10	3.423208e+00	-5.831524e+01
1.960000e-06	5.257255e-07	-7.540748e-10	3.747107e+00	-5.544373e+01
1.970000e-06	5.711909e-07	-7.101677e-10	4.071162e+00	-5.251786e+01
1.980000e-06	6.166575e-07	-6.664239e-10	4.395224e+00	-4.954007e+01
1.990000e-06	6.621485e-07	-6.207184e-10	4.719461e+00	-4.651293e+01
2.000000e-06	7.075758e-07	-5.720478e-10	5.043244e+00	-4.343916e+01
2.010000e-06	7.529284e-07	-5.242221e-10	5.366495e+00	-4.032157e+01
2.020000e-06	7.982526e-07	-4.779883e-10	5.689543e+00	-3.716307e+01
2.030000e-06	8.434809e-07	-4.302174e-10	6.011908e+00	-3.396659e+01
2.040000e-06	8.886001e-07	-3.795134e-10	6.333495e+00	-3.073511e+01
2.050000e-06	9.336380e-07	-3.298000e-10	6.654502e+00	-2.747159e+01
2.060000e-06	9.785523e-07	-2.834238e-10	6.974629e+00	-2.417899e+01
2.070000e-06	1.023329e-06	-2.354178e-10	7.293773e+00	-2.086020e+01
2.080000e-06	1.068029e-06	-1.841361e-10	7.612371e+00	-1.751811e+01
2.090000e-06	1.112629e-06	-1.344398e-10	7.930257e+00	-1.415550e+01
2.100000e-06	1.157178e-06	-8.845147e-11	8.247784e+00	-1.077510e+01
2.110000e-06	1.201721e-06	-4.010190e-11	8.565263e+00	-7.379575e+00
2.120000e-06	1.246101e-06	1.425493e-11	8.881581e+00	-3.971502e+00
2.130000e-06	1.290366e-06	6.915085e-11	9.197082e+00	-5.533942e-01
2.140000e-06	1.334607e-06	1.214963e-10	9.512409e+00	2.872303e+00
2.150000e-06	1.378748e-06	1.730158e-10	9.827024e+00	6.303201e+00
2.160000e-06	1.422824e-06	2.253310e-10	1.014118e+01	9.736957e+00
2.170000e-06	1.466866e-06	2.759506e-10	1.045508e+01	1.317126e+01
2.180000e-06	1.510865e-06	3.241562e-10	1.076868e+01	1.660383e+01
2.190000e-06	1.554839e-06	3.729487e-10	1.108211e+01	2.003237e+01
2.200000e-06	1.598812e-06	4.246016e-10	1.139553e+01	2.345462e+01
2.210000e-06	1.642739e-06	4.783310e-10	1.170862e+01	2.686825e+01
2.220000e-06	1.686555e-06	5.313702e-10	1.202092e+01	3.027093e+01
2.230000e-06	1.730263e-06	5.807459e-10	1.233244e+01	3.366029e+01
2.240000e-06	1.773842e-06	6.283297e-10	1.264305e+01	3.703389e+01
2.250000e-06	1.817335e-06	6.777667e-10	1.295305e+01	4.038924e+01
2.260000e-06	1.860770e-06	7.258307e-10	1.326263e+01	4.372381e+01
2.270000e-06	1.904089e-06	7.726552e-10	1.357139e+01	4.703499e+01
2.280000e-06	1.947247e-06	8.196349e-10	1.387900e+01	5.032012e+01
2.290000e-06	1.990224e-06	8.679791e-10	1.418531e+01	5.357651e+01
2.300000e-06	2.032927e-06	9.160949e-10	1.448968e+01	5.680141e+01
2.310000e-06	2.075320e-06	9.615518e-10	1.479184e+01	5.999207e+01
2.320000e-06	2.117431e-06	1.005384e-09	1.509198e+01	6.314571e+01
2.330000e-06	2.159257e-06	1.050629e-09	1.539009e+01	6.625958e+01
2.340000e-06	2.200917e-06	1.095202e-09	1.568703e+01	6.933097e+01
2.350000e-06	2.242184e-06	1.137671e-09	1.598116e+01	7.235722e+01
2.360000e-06	2.283110e-06	1.180056e-09	1.627286e+01	7.533577e+01
2.370000e-06	2.323889e-06	1.222124e-09	1.656351e+01	7.826414e+01
2.380000e-06	2.364501e-06	1.262632e-09	1.685297e+01	8.114003e+01
2.390000e-06	2.404949e-06	1.300728e-09	1.714127e+01	8.396126e+01
2.400000e-06	2.445139e-06	1.335376e-09	1.742772e+01	8.672588e+01
2.410000e-06	2.485202e-06	1.370130e-09	1.771327e+01	8.943212e+01
2.420000e-06	2.525257e-06	1.408076e-09	1.799876e+01	9.207845e+01
2.430000e-06	2.565255e-06	1.448571e-09	1.828384e+01	9.466358e+01
2.440000e-06	2.605130e-06	1.490551e-09	1.856806e+01	9.718651e+01
2.450000e-06	2.644854e-06	1.530878e-09	1.885119e+01	9.964647e+01
2.460000e-06	2.684429e-06	1.567421e-09	1.913326e+01	1.020430e+02
2.470000e-06	2.723942e-06	1.598281e-09	1.941489e+01	1.043760e+02
2.480000e-06	2.763252e-06	1.625745e-09	1.969507e+01	1.066454e+02
2.490000e-06	2.802258e-06	1.654310e-09	1.997309e+01	1.088517e+02
2.500000e-06	2.841085e-06	1.684742e-09	2.024983e+01	1.109954e+02
2.510000e-06	2.879706e-06	1.716465e-09	2.052510e+01	1.130775e+02
2.520000e-06	2.918100e-06	1.750141e-09	2.079875e+01	1.150991e+02
2.530000e-06	2.956280e-06	1.783198e-09	2.107088e+01	1.170615e+02
2.540000e-06	2.994244e-06	1.812293e-09	2.134147e+01	1.189660e+02
2.550000e-06	3.032033e-06	1.836128e-09	2.161081e+01	1.208145e+02
2.560000e-06	3.069666e-06	1.857501e-09	2.187903e+01	1.226085e+02
2.570000e-06	3.107051e-06	1.880120e-09	2.214550e+01	1.243500e+02
2.580000e-06	3.144149e-06	1.903885e-09	2.240991e+01	1.260409e+02
2.590000e-06	3.181082e-06	1.927549e-09	2.267315e+01	1.276830e+02
2.600000e-06	3.217756e-06	1.951813e-09	2.293454e+01	1.292782e+02
2.610000e-06	3.254181e-06	1.976582e-09	2.319417e+01	1.308285e+02
2.620000e-06	3.290505e-06	2.001613e-09	2.345307e+01	1.323355e+02
2.630000e-06	3.326656e-06	2.024947e-09	2.371073e+01	1.338010e+02
2.640000e-06	3.362647e-06	2.045687e-09	2.396725e+01	1.352266e+02
2.650000e-06	3.398521e-06	2.065176e-09	2.422295e+01	1.366137e+02
2.660000e-06	3.434189e-06	2.083745e-09	2.447717e+01	1.379637e+02
2.670000e-06	3.469720e-06	2.101646e-09	2.473042e+01	1.392775e+02
2.680000e-06	3.505167e-06	2.118992e-09	2.498307e+01	1.405564e+02
2.690000e-06	3.540311e-06	2.135308e-09	2.523356e+01	1.418009e+02
2.700000e-06	3.574935e-06	2.150858e-09	2.548034e+01	1.430118e+02
2.710000e-06	3.609055e-06	2.167902e-09	2.572353e+01	1.441896e+02
2.720000e-06	3.642744e-06	2.187756e-09	2.596365e+01	1.453347e+02
2.730000e-06	3.676012e-06	2.207628e-09	2.620077e+01	1.464471e+02
2.740000e-06	3.708873e-06	2.226367e-09	2.643498e+01	1.475271e+02
2.750000e-06	3.741406e-06	2.243477e-09	2.666686e+01	1.485746e+02
2.760000e-06	3.773737e-06	2.258281e-09	2.689730e+01	1.495897e+02
2.770000e-06	3.805855e-06	2.271424e-09	2.712622e+01	1.505721e+02
2.780000e-06	3.837775e-06	2.282584e-09	2.735373e+01	1.515218e+02
2.790000e-06	3.869590e-06	2.293407e-09	2.758049e+01	1.524387e+02
2.800000e-06	3.901203e-06	2.306917e-09	2.780582e+01	1.533227e+02
2.810000e-06	3.932534e-06	2.321352e-09	2.802912e+01	1.541738e+02
2.820000e-06	3.963561e-06	2.333116e-09	2.825027e+01	1.549921e+02
2.830000e-06	3.994203e-06	2.343227e-09	2.846867e+01	1.557776e+02
2.840000e-06	4.024597e-06	2.352040e-09	2.868530e+01	1.565307e+02
2.850000e-06	4.054813e-06	2.360682e-09	2.890067e+01	1.572517e+02
2.860000e-06	4.084745e-06	2.370549e-09	2.911401e+01	1.579413e+02
2.870000e-06	4.114419e-06	2.383090e-09	2.932551e+01	1.585999e+02
2.880000e-06	4.143856e-06	2.395086e-09	2.953532e+01	1.592286e+02
2.890000e-06	4.172970e-06	2.401458e-09	2.974283e+01	1.598281e+02
2.900000e-06	4.201771e-06	2.403925e-09	2.994811e+01	1.603996e+02
