# Temperatura_=_3.86
# Concentracion g/m^3_=_4090.0
# C_Vs_to_Am_M_A/Vsm_=_65563218390.804596
# pendiente_HvsI_1/m_=_3716.3
# ordenada_HvsI_A/m_=_1297.0
# frecuencia_Hz_=_135080.58879080953

Tiempo_(s)	Campo_(V.s)	Magnetizacion_(V.s)	Campo_(kA/m)	Magnetizacion_(A/m)
0.000000e+00	-5.444447e-06	-2.642234e-09	-3.839366e+01	-1.679190e+02
1.000000e-08	-5.444621e-06	-2.646039e-09	-3.839489e+01	-1.678626e+02
2.000000e-08	-5.444554e-06	-2.643776e-09	-3.839442e+01	-1.678087e+02
3.000000e-08	-5.444215e-06	-2.636928e-09	-3.839202e+01	-1.677595e+02
4.000000e-08	-5.443425e-06	-2.627048e-09	-3.838645e+01	-1.677172e+02
5.000000e-08	-5.442096e-06	-2.618089e-09	-3.837708e+01	-1.676839e+02
6.000000e-08	-5.440166e-06	-2.615021e-09	-3.836347e+01	-1.676616e+02
7.000000e-08	-5.437623e-06	-2.629737e-09	-3.834554e+01	-1.676526e+02
8.000000e-08	-5.434515e-06	-2.660114e-09	-3.832362e+01	-1.676585e+02
9.000000e-08	-5.430824e-06	-2.648851e-09	-3.829759e+01	-1.676812e+02
1.000000e-07	-5.426679e-06	-2.590482e-09	-3.826836e+01	-1.677222e+02
1.100000e-07	-5.422386e-06	-2.619643e-09	-3.823809e+01	-1.677826e+02
1.200000e-07	-5.418006e-06	-2.680999e-09	-3.820720e+01	-1.678636e+02
1.300000e-07	-5.413305e-06	-2.628076e-09	-3.817405e+01	-1.679656e+02
1.400000e-07	-5.408113e-06	-2.547040e-09	-3.813744e+01	-1.680892e+02
1.500000e-07	-5.402495e-06	-2.579209e-09	-3.809782e+01	-1.682342e+02
1.600000e-07	-5.396605e-06	-2.714855e-09	-3.805628e+01	-1.684004e+02
1.700000e-07	-5.390282e-06	-2.649485e-09	-3.801170e+01	-1.685870e+02
1.800000e-07	-5.383473e-06	-2.533674e-09	-3.796368e+01	-1.687931e+02
1.900000e-07	-5.376273e-06	-2.592496e-09	-3.791290e+01	-1.690171e+02
2.000000e-07	-5.368853e-06	-2.702262e-09	-3.786058e+01	-1.692575e+02
2.100000e-07	-5.361217e-06	-2.629738e-09	-3.780673e+01	-1.695122e+02
2.200000e-07	-5.353220e-06	-2.550270e-09	-3.775034e+01	-1.697790e+02
2.300000e-07	-5.345020e-06	-2.659772e-09	-3.769252e+01	-1.700555e+02
2.400000e-07	-5.336533e-06	-2.709139e-09	-3.763266e+01	-1.703390e+02
2.500000e-07	-5.327362e-06	-2.624373e-09	-3.756799e+01	-1.706266e+02
2.600000e-07	-5.317488e-06	-2.620526e-09	-3.749836e+01	-1.709155e+02
2.700000e-07	-5.307128e-06	-2.734540e-09	-3.742530e+01	-1.712028e+02
2.800000e-07	-5.296172e-06	-2.689055e-09	-3.734804e+01	-1.714854e+02
2.900000e-07	-5.284686e-06	-2.590649e-09	-3.726704e+01	-1.717605e+02
3.000000e-07	-5.272899e-06	-2.645387e-09	-3.718392e+01	-1.720252e+02
3.100000e-07	-5.260789e-06	-2.721108e-09	-3.709852e+01	-1.722768e+02
3.200000e-07	-5.248219e-06	-2.623659e-09	-3.700988e+01	-1.725127e+02
3.300000e-07	-5.235230e-06	-2.583251e-09	-3.691828e+01	-1.727307e+02
3.400000e-07	-5.221893e-06	-2.673831e-09	-3.682424e+01	-1.729287e+02
3.500000e-07	-5.208133e-06	-2.684579e-09	-3.672720e+01	-1.731048e+02
3.600000e-07	-5.194086e-06	-2.618662e-09	-3.662814e+01	-1.732576e+02
3.700000e-07	-5.179714e-06	-2.647143e-09	-3.652679e+01	-1.733858e+02
3.800000e-07	-5.164588e-06	-2.663200e-09	-3.642013e+01	-1.734885e+02
3.900000e-07	-5.148726e-06	-2.615101e-09	-3.630827e+01	-1.735652e+02
4.000000e-07	-5.132544e-06	-2.626440e-09	-3.619416e+01	-1.736156e+02
4.100000e-07	-5.116172e-06	-2.657474e-09	-3.607870e+01	-1.736399e+02
4.200000e-07	-5.099318e-06	-2.599945e-09	-3.595985e+01	-1.736383e+02
4.300000e-07	-5.082084e-06	-2.592942e-09	-3.583832e+01	-1.736117e+02
4.400000e-07	-5.064681e-06	-2.656577e-09	-3.571559e+01	-1.735609e+02
4.500000e-07	-5.046940e-06	-2.635041e-09	-3.559049e+01	-1.734871e+02
4.600000e-07	-5.028789e-06	-2.580355e-09	-3.546248e+01	-1.733917e+02
4.700000e-07	-5.010256e-06	-2.609023e-09	-3.533179e+01	-1.732762e+02
4.800000e-07	-4.991334e-06	-2.636497e-09	-3.519836e+01	-1.731425e+02
4.900000e-07	-4.971998e-06	-2.602980e-09	-3.506200e+01	-1.729922e+02
5.000000e-07	-4.952347e-06	-2.592154e-09	-3.492342e+01	-1.728274e+02
5.100000e-07	-4.932478e-06	-2.595607e-09	-3.478331e+01	-1.726498e+02
5.200000e-07	-4.912339e-06	-2.595405e-09	-3.464129e+01	-1.724615e+02
5.300000e-07	-4.891927e-06	-2.604692e-09	-3.449735e+01	-1.722642e+02
5.400000e-07	-4.871298e-06	-2.601729e-09	-3.435187e+01	-1.720600e+02
5.500000e-07	-4.850280e-06	-2.568214e-09	-3.420366e+01	-1.718503e+02
5.600000e-07	-4.828845e-06	-2.578670e-09	-3.405250e+01	-1.716370e+02
5.700000e-07	-4.807099e-06	-2.601901e-09	-3.389915e+01	-1.714214e+02
5.800000e-07	-4.785011e-06	-2.585708e-09	-3.374339e+01	-1.712048e+02
5.900000e-07	-4.762612e-06	-2.558946e-09	-3.358543e+01	-1.709885e+02
6.000000e-07	-4.739873e-06	-2.568623e-09	-3.342508e+01	-1.707733e+02
6.100000e-07	-4.716725e-06	-2.575712e-09	-3.326184e+01	-1.705601e+02
6.200000e-07	-4.693312e-06	-2.569597e-09	-3.309674e+01	-1.703495e+02
6.300000e-07	-4.669721e-06	-2.551274e-09	-3.293038e+01	-1.701420e+02
6.400000e-07	-4.645883e-06	-2.539543e-09	-3.276227e+01	-1.699376e+02
6.500000e-07	-4.621794e-06	-2.548497e-09	-3.259240e+01	-1.697367e+02
6.600000e-07	-4.597472e-06	-2.566210e-09	-3.242088e+01	-1.695391e+02
6.700000e-07	-4.572869e-06	-2.555774e-09	-3.224738e+01	-1.693446e+02
6.800000e-07	-4.547777e-06	-2.541958e-09	-3.207044e+01	-1.691529e+02
6.900000e-07	-4.522089e-06	-2.545778e-09	-3.188929e+01	-1.689637e+02
7.000000e-07	-4.495842e-06	-2.547468e-09	-3.170420e+01	-1.687765e+02
7.100000e-07	-4.469089e-06	-2.530530e-09	-3.151554e+01	-1.685906e+02
7.200000e-07	-4.441968e-06	-2.514899e-09	-3.132428e+01	-1.684056e+02
7.300000e-07	-4.414499e-06	-2.516554e-09	-3.113058e+01	-1.682208e+02
7.400000e-07	-4.386778e-06	-2.530028e-09	-3.093509e+01	-1.680356e+02
7.500000e-07	-4.358932e-06	-2.531680e-09	-3.073872e+01	-1.678494e+02
7.600000e-07	-4.330870e-06	-2.515669e-09	-3.054083e+01	-1.676615e+02
7.700000e-07	-4.302568e-06	-2.506215e-09	-3.034125e+01	-1.674715e+02
7.800000e-07	-4.273985e-06	-2.509164e-09	-3.013969e+01	-1.672788e+02
7.900000e-07	-4.245021e-06	-2.507371e-09	-2.993544e+01	-1.670829e+02
8.000000e-07	-4.215766e-06	-2.492231e-09	-2.972913e+01	-1.668834e+02
8.100000e-07	-4.186282e-06	-2.484191e-09	-2.952121e+01	-1.666800e+02
8.200000e-07	-4.156529e-06	-2.488375e-09	-2.931140e+01	-1.664723e+02
8.300000e-07	-4.126503e-06	-2.494694e-09	-2.909966e+01	-1.662600e+02
8.400000e-07	-4.096159e-06	-2.486837e-09	-2.888568e+01	-1.660430e+02
8.500000e-07	-4.065477e-06	-2.475034e-09	-2.866931e+01	-1.658211e+02
8.600000e-07	-4.034469e-06	-2.469454e-09	-2.845065e+01	-1.655941e+02
8.700000e-07	-4.003275e-06	-2.473349e-09	-2.823067e+01	-1.653620e+02
8.800000e-07	-3.971896e-06	-2.467086e-09	-2.800938e+01	-1.651246e+02
8.900000e-07	-3.940271e-06	-2.454094e-09	-2.778637e+01	-1.648821e+02
9.000000e-07	-3.908473e-06	-2.447952e-09	-2.756213e+01	-1.646343e+02
9.100000e-07	-3.876377e-06	-2.454278e-09	-2.733580e+01	-1.643812e+02
9.200000e-07	-3.844033e-06	-2.454298e-09	-2.710771e+01	-1.641228e+02
9.300000e-07	-3.811529e-06	-2.445956e-09	-2.687850e+01	-1.638591e+02
9.400000e-07	-3.778686e-06	-2.438680e-09	-2.664689e+01	-1.635900e+02
9.500000e-07	-3.745506e-06	-2.440710e-09	-2.641291e+01	-1.633155e+02
9.600000e-07	-3.711950e-06	-2.438766e-09	-2.617628e+01	-1.630356e+02
9.700000e-07	-3.678018e-06	-2.428412e-09	-2.593699e+01	-1.627503e+02
9.800000e-07	-3.643683e-06	-2.417523e-09	-2.569487e+01	-1.624593e+02
9.900000e-07	-3.608868e-06	-2.417312e-09	-2.544935e+01	-1.621628e+02
1.000000e-06	-3.573752e-06	-2.419943e-09	-2.520172e+01	-1.618605e+02
1.010000e-06	-3.538384e-06	-2.415670e-09	-2.495231e+01	-1.615524e+02
1.020000e-06	-3.502789e-06	-2.406046e-09	-2.470130e+01	-1.612385e+02
1.030000e-06	-3.467092e-06	-2.397904e-09	-2.444956e+01	-1.609187e+02
1.040000e-06	-3.431239e-06	-2.393038e-09	-2.419673e+01	-1.605928e+02
1.050000e-06	-3.395150e-06	-2.384722e-09	-2.394223e+01	-1.602610e+02
1.060000e-06	-3.358830e-06	-2.371681e-09	-2.368611e+01	-1.599231e+02
1.070000e-06	-3.322244e-06	-2.360440e-09	-2.342811e+01	-1.595792e+02
1.080000e-06	-3.285437e-06	-2.355406e-09	-2.316855e+01	-1.592293e+02
1.090000e-06	-3.248452e-06	-2.350215e-09	-2.290774e+01	-1.588735e+02
1.100000e-06	-3.211246e-06	-2.344527e-09	-2.264536e+01	-1.585118e+02
1.110000e-06	-3.173820e-06	-2.338906e-09	-2.238144e+01	-1.581445e+02
1.120000e-06	-3.136145e-06	-2.335541e-09	-2.211576e+01	-1.577715e+02
1.130000e-06	-3.098225e-06	-2.330819e-09	-2.184835e+01	-1.573932e+02
1.140000e-06	-3.060138e-06	-2.321874e-09	-2.157976e+01	-1.570097e+02
1.150000e-06	-3.021791e-06	-2.312078e-09	-2.130935e+01	-1.566212e+02
1.160000e-06	-2.983085e-06	-2.306001e-09	-2.103640e+01	-1.562278e+02
1.170000e-06	-2.944218e-06	-2.298272e-09	-2.076231e+01	-1.558298e+02
1.180000e-06	-2.905333e-06	-2.287891e-09	-2.048810e+01	-1.554272e+02
1.190000e-06	-2.866262e-06	-2.277563e-09	-2.021258e+01	-1.550203e+02
1.200000e-06	-2.826932e-06	-2.273756e-09	-1.993522e+01	-1.546092e+02
1.210000e-06	-2.787426e-06	-2.268872e-09	-1.965663e+01	-1.541938e+02
1.220000e-06	-2.747830e-06	-2.258215e-09	-1.937740e+01	-1.537742e+02
1.230000e-06	-2.708150e-06	-2.245983e-09	-1.909758e+01	-1.533502e+02
1.240000e-06	-2.668256e-06	-2.237504e-09	-1.881626e+01	-1.529217e+02
1.250000e-06	-2.628194e-06	-2.227714e-09	-1.853374e+01	-1.524885e+02
1.260000e-06	-2.588107e-06	-2.217127e-09	-1.825106e+01	-1.520501e+02
1.270000e-06	-2.547843e-06	-2.207197e-09	-1.796712e+01	-1.516063e+02
1.280000e-06	-2.507361e-06	-2.201792e-09	-1.768164e+01	-1.511563e+02
1.290000e-06	-2.466786e-06	-2.198389e-09	-1.739551e+01	-1.506997e+02
1.300000e-06	-2.425977e-06	-2.192397e-09	-1.710773e+01	-1.502357e+02
1.310000e-06	-2.384849e-06	-2.183557e-09	-1.681770e+01	-1.497636e+02
1.320000e-06	-2.343428e-06	-2.171740e-09	-1.652561e+01	-1.492824e+02
1.330000e-06	-2.301749e-06	-2.159068e-09	-1.623169e+01	-1.487912e+02
1.340000e-06	-2.259819e-06	-2.146706e-09	-1.593600e+01	-1.482891e+02
1.350000e-06	-2.217578e-06	-2.138436e-09	-1.563812e+01	-1.477750e+02
1.360000e-06	-2.175005e-06	-2.132547e-09	-1.533790e+01	-1.472480e+02
1.370000e-06	-2.132166e-06	-2.127881e-09	-1.503581e+01	-1.467069e+02
1.380000e-06	-2.089184e-06	-2.120711e-09	-1.473270e+01	-1.461507e+02
1.390000e-06	-2.045998e-06	-2.107333e-09	-1.442816e+01	-1.455784e+02
1.400000e-06	-2.002614e-06	-2.091821e-09	-1.412222e+01	-1.449891e+02
1.410000e-06	-1.959137e-06	-2.078856e-09	-1.381562e+01	-1.443819e+02
1.420000e-06	-1.915602e-06	-2.066739e-09	-1.350862e+01	-1.437559e+02
1.430000e-06	-1.872000e-06	-2.055329e-09	-1.320114e+01	-1.431104e+02
1.440000e-06	-1.828222e-06	-2.047906e-09	-1.289243e+01	-1.424447e+02
1.450000e-06	-1.784301e-06	-2.042119e-09	-1.258270e+01	-1.417584e+02
1.460000e-06	-1.740348e-06	-2.031114e-09	-1.227275e+01	-1.410509e+02
1.470000e-06	-1.696336e-06	-2.014671e-09	-1.196238e+01	-1.403220e+02
1.480000e-06	-1.652217e-06	-1.995309e-09	-1.165126e+01	-1.395716e+02
1.490000e-06	-1.607988e-06	-1.980263e-09	-1.133936e+01	-1.387994e+02
1.500000e-06	-1.563659e-06	-1.969051e-09	-1.102675e+01	-1.380056e+02
1.510000e-06	-1.519204e-06	-1.956285e-09	-1.071327e+01	-1.371902e+02
1.520000e-06	-1.474686e-06	-1.942234e-09	-1.039933e+01	-1.363535e+02
1.530000e-06	-1.430145e-06	-1.932528e-09	-1.008523e+01	-1.354957e+02
1.540000e-06	-1.385501e-06	-1.927925e-09	-9.770405e+00	-1.346170e+02
1.550000e-06	-1.340753e-06	-1.919273e-09	-9.454846e+00	-1.337179e+02
1.560000e-06	-1.295887e-06	-1.903222e-09	-9.138455e+00	-1.327985e+02
1.570000e-06	-1.250913e-06	-1.888123e-09	-8.821305e+00	-1.318593e+02
1.580000e-06	-1.205843e-06	-1.874748e-09	-8.503480e+00	-1.309003e+02
1.590000e-06	-1.160694e-06	-1.858263e-09	-8.185092e+00	-1.299219e+02
1.600000e-06	-1.115485e-06	-1.841358e-09	-7.866281e+00	-1.289239e+02
1.610000e-06	-1.070210e-06	-1.828467e-09	-7.547008e+00	-1.279064e+02
1.620000e-06	-1.024887e-06	-1.817899e-09	-7.227396e+00	-1.268691e+02
1.630000e-06	-9.794874e-07	-1.804928e-09	-6.907241e+00	-1.258116e+02
1.640000e-06	-9.338791e-07	-1.787033e-09	-6.585616e+00	-1.247333e+02
1.650000e-06	-8.880861e-07	-1.768458e-09	-6.262688e+00	-1.236334e+02
1.660000e-06	-8.422373e-07	-1.751674e-09	-5.939368e+00	-1.225109e+02
1.670000e-06	-7.964365e-07	-1.734247e-09	-5.616386e+00	-1.213647e+02
1.680000e-06	-7.506512e-07	-1.715815e-09	-5.293512e+00	-1.201933e+02
1.690000e-06	-7.047710e-07	-1.698005e-09	-4.969970e+00	-1.189951e+02
1.700000e-06	-6.588961e-07	-1.682241e-09	-4.646465e+00	-1.177683e+02
1.710000e-06	-6.130343e-07	-1.667458e-09	-4.323053e+00	-1.165107e+02
1.720000e-06	-5.671854e-07	-1.649993e-09	-3.999731e+00	-1.152203e+02
1.730000e-06	-5.213075e-07	-1.627874e-09	-3.676205e+00	-1.138947e+02
1.740000e-06	-4.753903e-07	-1.604911e-09	-3.352401e+00	-1.125314e+02
1.750000e-06	-4.294363e-07	-1.583016e-09	-3.028339e+00	-1.111279e+02
1.760000e-06	-3.833404e-07	-1.563799e-09	-2.703276e+00	-1.096815e+02
1.770000e-06	-3.371804e-07	-1.544298e-09	-2.377760e+00	-1.081896e+02
1.780000e-06	-2.909454e-07	-1.522439e-09	-2.051716e+00	-1.066495e+02
1.790000e-06	-2.446809e-07	-1.499063e-09	-1.725464e+00	-1.050587e+02
1.800000e-06	-1.984602e-07	-1.472987e-09	-1.399520e+00	-1.034145e+02
1.810000e-06	-1.522093e-07	-1.445581e-09	-1.073364e+00	-1.017145e+02
1.820000e-06	-1.060487e-07	-1.420563e-09	-7.478440e-01	-9.995654e+01
1.830000e-06	-6.002812e-08	-1.397093e-09	-4.233119e-01	-9.813845e+01
1.840000e-06	-1.401839e-08	-1.373038e-09	-9.885617e-02	-9.625835e+01
1.850000e-06	3.207655e-08	-1.343922e-09	2.262004e-01	-9.431461e+01
1.860000e-06	7.819791e-08	-1.310011e-09	5.514434e-01	-9.230583e+01
1.870000e-06	1.244685e-07	-1.277759e-09	8.777386e-01	-9.023089e+01
1.880000e-06	1.707211e-07	-1.244824e-09	1.203907e+00	-8.808900e+01
1.890000e-06	2.168268e-07	-1.209420e-09	1.529040e+00	-8.587962e+01
1.900000e-06	2.629769e-07	-1.175949e-09	1.854485e+00	-8.360255e+01
1.910000e-06	3.090679e-07	-1.143414e-09	2.179514e+00	-8.125790e+01
1.920000e-06	3.551717e-07	-1.108032e-09	2.504633e+00	-7.884607e+01
1.930000e-06	4.012463e-07	-1.069974e-09	2.829546e+00	-7.636776e+01
1.940000e-06	4.472242e-07	-1.030673e-09	3.153777e+00	-7.382394e+01
1.950000e-06	4.931635e-07	-9.932065e-10	3.477737e+00	-7.121586e+01
1.960000e-06	5.390249e-07	-9.560109e-10	3.801146e+00	-6.854500e+01
1.970000e-06	5.848426e-07	-9.163989e-10	4.124248e+00	-6.581305e+01
1.980000e-06	6.306854e-07	-8.731594e-10	4.447526e+00	-6.302193e+01
1.990000e-06	6.765433e-07	-8.288840e-10	4.770911e+00	-6.017368e+01
2.000000e-06	7.222669e-07	-7.878673e-10	5.093349e+00	-5.727050e+01
2.010000e-06	7.679041e-07	-7.479365e-10	5.415178e+00	-5.431471e+01
2.020000e-06	8.136340e-07	-7.040997e-10	5.737660e+00	-5.130871e+01
2.030000e-06	8.593398e-07	-6.579601e-10	6.059973e+00	-4.825493e+01
2.040000e-06	9.050193e-07	-6.115480e-10	6.382100e+00	-4.515586e+01
2.050000e-06	9.506417e-07	-5.627275e-10	6.703824e+00	-4.201401e+01
2.060000e-06	9.960659e-07	-5.130552e-10	7.024151e+00	-3.883185e+01
2.070000e-06	1.041455e-06	-4.659869e-10	7.344230e+00	-3.561185e+01
2.080000e-06	1.086775e-06	-4.241668e-10	7.663824e+00	-3.235645e+01
2.090000e-06	1.131962e-06	-3.836383e-10	7.982476e+00	-2.906802e+01
2.100000e-06	1.177086e-06	-3.381118e-10	8.300686e+00	-2.574891e+01
2.110000e-06	1.222083e-06	-2.872435e-10	8.618001e+00	-2.240140e+01
2.120000e-06	1.266995e-06	-2.336318e-10	8.934711e+00	-1.902775e+01
2.130000e-06	1.311823e-06	-1.781639e-10	9.250835e+00	-1.563017e+01
2.140000e-06	1.356428e-06	-1.210486e-10	9.565388e+00	-1.221083e+01
2.150000e-06	1.401000e-06	-6.728771e-11	9.879705e+00	-8.771918e+00
2.160000e-06	1.445625e-06	-1.901571e-11	1.019439e+01	-5.315588e+00
2.170000e-06	1.490068e-06	2.576234e-11	1.050780e+01	-1.844029e+00
2.180000e-06	1.534382e-06	7.504103e-11	1.082030e+01	1.640537e+00
2.190000e-06	1.578611e-06	1.311080e-10	1.113220e+01	5.135839e+00
2.200000e-06	1.622743e-06	1.863369e-10	1.144341e+01	8.639533e+00
2.210000e-06	1.666831e-06	2.425233e-10	1.175431e+01	1.214919e+01
2.220000e-06	1.710853e-06	2.989754e-10	1.206475e+01	1.566228e+01
2.230000e-06	1.754825e-06	3.529229e-10	1.237484e+01	1.917616e+01
2.240000e-06	1.798750e-06	4.021296e-10	1.268459e+01	2.268806e+01
2.250000e-06	1.842603e-06	4.473847e-10	1.299384e+01	2.619508e+01
2.260000e-06	1.886385e-06	4.924169e-10	1.330259e+01	2.969419e+01
2.270000e-06	1.930112e-06	5.432837e-10	1.361094e+01	3.318222e+01
2.280000e-06	1.973794e-06	5.982169e-10	1.391899e+01	3.665589e+01
2.290000e-06	2.017361e-06	6.530995e-10	1.422622e+01	4.011179e+01
2.300000e-06	2.060708e-06	7.078609e-10	1.453190e+01	4.354641e+01
2.310000e-06	2.103902e-06	7.591062e-10	1.483650e+01	4.695615e+01
2.320000e-06	2.146924e-06	8.047826e-10	1.513988e+01	5.033738e+01
2.330000e-06	2.189579e-06	8.475348e-10	1.544067e+01	5.368640e+01
2.340000e-06	2.231911e-06	8.901604e-10	1.573920e+01	5.699952e+01
2.350000e-06	2.273917e-06	9.353926e-10	1.603542e+01	6.027307e+01
2.360000e-06	2.315544e-06	9.849812e-10	1.632897e+01	6.350345e+01
2.370000e-06	2.356850e-06	1.036591e-09	1.662026e+01	6.668714e+01
2.380000e-06	2.397863e-06	1.088259e-09	1.690948e+01	6.982075e+01
2.390000e-06	2.438655e-06	1.138069e-09	1.719714e+01	7.290107e+01
2.400000e-06	2.479217e-06	1.180052e-09	1.748317e+01	7.592509e+01
2.410000e-06	2.519601e-06	1.212985e-09	1.776796e+01	7.889000e+01
2.420000e-06	2.559863e-06	1.245037e-09	1.805188e+01	8.179328e+01
2.430000e-06	2.599998e-06	1.283406e-09	1.833491e+01	8.463270e+01
2.440000e-06	2.640081e-06	1.330157e-09	1.861757e+01	8.740631e+01
2.450000e-06	2.680090e-06	1.376499e-09	1.889971e+01	9.011251e+01
2.460000e-06	2.719980e-06	1.420364e-09	1.918101e+01	9.275004e+01
2.470000e-06	2.759695e-06	1.462067e-09	1.946108e+01	9.531798e+01
2.480000e-06	2.799246e-06	1.498912e-09	1.973998e+01	9.781577e+01
2.490000e-06	2.838654e-06	1.527391e-09	2.001789e+01	1.002432e+02
2.500000e-06	2.877777e-06	1.551084e-09	2.029378e+01	1.026004e+02
2.510000e-06	2.916594e-06	1.581925e-09	2.056751e+01	1.048878e+02
2.520000e-06	2.955218e-06	1.622340e-09	2.083988e+01	1.071061e+02
2.530000e-06	2.993642e-06	1.663718e-09	2.111085e+01	1.092565e+02
2.540000e-06	3.031936e-06	1.698342e-09	2.138089e+01	1.113401e+02
2.550000e-06	3.070145e-06	1.726156e-09	2.165033e+01	1.133586e+02
2.560000e-06	3.108161e-06	1.754685e-09	2.191842e+01	1.153136e+02
2.570000e-06	3.146033e-06	1.778629e-09	2.218549e+01	1.172070e+02
2.580000e-06	3.183763e-06	1.796481e-09	2.245155e+01	1.190408e+02
2.590000e-06	3.221143e-06	1.815401e-09	2.271515e+01	1.208171e+02
2.600000e-06	3.258163e-06	1.843482e-09	2.297622e+01	1.225378e+02
2.610000e-06	3.294952e-06	1.877264e-09	2.323565e+01	1.242052e+02
2.620000e-06	3.331521e-06	1.906816e-09	2.349353e+01	1.258213e+02
2.630000e-06	3.367839e-06	1.932187e-09	2.374964e+01	1.273881e+02
2.640000e-06	3.403942e-06	1.954398e-09	2.400424e+01	1.289075e+02
2.650000e-06	3.439913e-06	1.973776e-09	2.425790e+01	1.303812e+02
2.660000e-06	3.475817e-06	1.988776e-09	2.451109e+01	1.318109e+02
2.670000e-06	3.511619e-06	2.002879e-09	2.476357e+01	1.331981e+02
2.680000e-06	3.547223e-06	2.021844e-09	2.501464e+01	1.345441e+02
2.690000e-06	3.582689e-06	2.044373e-09	2.526474e+01	1.358500e+02
2.700000e-06	3.617910e-06	2.062821e-09	2.551311e+01	1.371168e+02
2.710000e-06	3.652613e-06	2.078855e-09	2.575784e+01	1.383451e+02
2.720000e-06	3.686864e-06	2.098293e-09	2.599937e+01	1.395358e+02
2.730000e-06	3.720582e-06	2.120138e-09	2.623714e+01	1.406891e+02
2.740000e-06	3.753783e-06	2.137867e-09	2.647128e+01	1.418054e+02
2.750000e-06	3.786795e-06	2.150786e-09	2.670408e+01	1.428850e+02
2.760000e-06	3.819538e-06	2.165496e-09	2.693497e+01	1.439279e+02
2.770000e-06	3.851908e-06	2.181576e-09	2.716324e+01	1.449342e+02
2.780000e-06	3.884024e-06	2.196989e-09	2.738972e+01	1.459040e+02
2.790000e-06	3.915987e-06	2.207521e-09	2.761513e+01	1.468372e+02
2.800000e-06	3.947788e-06	2.219400e-09	2.783938e+01	1.477340e+02
2.810000e-06	3.979390e-06	2.236698e-09	2.806223e+01	1.485943e+02
2.820000e-06	4.010847e-06	2.250254e-09	2.828407e+01	1.494183e+02
2.830000e-06	4.041988e-06	2.257093e-09	2.850367e+01	1.502064e+02
2.840000e-06	4.072763e-06	2.261654e-09	2.872069e+01	1.509588e+02
2.850000e-06	4.103274e-06	2.271901e-09	2.893585e+01	1.516761e+02
2.860000e-06	4.133507e-06	2.286242e-09	2.914905e+01	1.523590e+02
2.870000e-06	4.163560e-06	2.299499e-09	2.936098e+01	1.530082e+02
2.880000e-06	4.193398e-06	2.309579e-09	2.957139e+01	1.536248e+02
2.890000e-06	4.222850e-06	2.318060e-09	2.977909e+01	1.542098e+02
2.900000e-06	4.251947e-06	2.323626e-09	2.998428e+01	1.547647e+02
