# Temperatura_=_-3.2
# Concentracion g/m^3_=_4090.0
# C_Vs_to_Am_M_A/Vsm_=_65563218390.804596
# pendiente_HvsI_1/m_=_3716.3
# ordenada_HvsI_A/m_=_1297.0
# frecuencia_Hz_=_135078.4618949998

Tiempo_(s)	Campo_(V.s)	Magnetizacion_(V.s)	Campo_(kA/m)	Magnetizacion_(A/m)
0.000000e+00	-5.422262e-06	-2.391056e-09	-3.839213e+01	-1.559145e+02
1.000000e-08	-5.422500e-06	-2.388690e-09	-3.839382e+01	-1.558920e+02
2.000000e-08	-5.422527e-06	-2.385688e-09	-3.839401e+01	-1.558729e+02
3.000000e-08	-5.422351e-06	-2.383363e-09	-3.839276e+01	-1.558585e+02
4.000000e-08	-5.421772e-06	-2.382493e-09	-3.838866e+01	-1.558502e+02
5.000000e-08	-5.420678e-06	-2.380058e-09	-3.838092e+01	-1.558491e+02
6.000000e-08	-5.419116e-06	-2.379844e-09	-3.836986e+01	-1.558565e+02
7.000000e-08	-5.416967e-06	-2.390457e-09	-3.835464e+01	-1.558735e+02
8.000000e-08	-5.414156e-06	-2.397014e-09	-3.833474e+01	-1.559013e+02
9.000000e-08	-5.410734e-06	-2.379412e-09	-3.831051e+01	-1.559407e+02
1.000000e-07	-5.406800e-06	-2.375024e-09	-3.828265e+01	-1.559926e+02
1.100000e-07	-5.402478e-06	-2.437568e-09	-3.825205e+01	-1.560577e+02
1.200000e-07	-5.397954e-06	-2.399962e-09	-3.822002e+01	-1.561364e+02
1.300000e-07	-5.393328e-06	-2.343613e-09	-3.818726e+01	-1.562292e+02
1.400000e-07	-5.388450e-06	-2.321167e-09	-3.815272e+01	-1.563361e+02
1.500000e-07	-5.383178e-06	-2.414231e-09	-3.811540e+01	-1.564571e+02
1.600000e-07	-5.377478e-06	-2.420403e-09	-3.807504e+01	-1.565920e+02
1.700000e-07	-5.371349e-06	-2.334242e-09	-3.803165e+01	-1.567402e+02
1.800000e-07	-5.364766e-06	-2.350895e-09	-3.798503e+01	-1.569012e+02
1.900000e-07	-5.357790e-06	-2.449436e-09	-3.793564e+01	-1.570741e+02
2.000000e-07	-5.350511e-06	-2.453029e-09	-3.788410e+01	-1.572578e+02
2.100000e-07	-5.343014e-06	-2.357933e-09	-3.783102e+01	-1.574512e+02
2.200000e-07	-5.335358e-06	-2.392359e-09	-3.777681e+01	-1.576528e+02
2.300000e-07	-5.327422e-06	-2.468615e-09	-3.772062e+01	-1.578612e+02
2.400000e-07	-5.319110e-06	-2.452770e-09	-3.766177e+01	-1.580748e+02
2.500000e-07	-5.310380e-06	-2.408343e-09	-3.759995e+01	-1.582919e+02
2.600000e-07	-5.300891e-06	-2.491959e-09	-3.753277e+01	-1.585106e+02
2.700000e-07	-5.290530e-06	-2.521589e-09	-3.745941e+01	-1.587291e+02
2.800000e-07	-5.279678e-06	-2.466645e-09	-3.738257e+01	-1.589455e+02
2.900000e-07	-5.268430e-06	-2.457424e-09	-3.730293e+01	-1.591579e+02
3.000000e-07	-5.256785e-06	-2.528705e-09	-3.722047e+01	-1.593645e+02
3.100000e-07	-5.244748e-06	-2.500195e-09	-3.713525e+01	-1.595635e+02
3.200000e-07	-5.232331e-06	-2.457267e-09	-3.704733e+01	-1.597530e+02
3.300000e-07	-5.219489e-06	-2.494730e-09	-3.695641e+01	-1.599315e+02
3.400000e-07	-5.206258e-06	-2.530211e-09	-3.686272e+01	-1.600974e+02
3.500000e-07	-5.192691e-06	-2.465528e-09	-3.676666e+01	-1.602492e+02
3.600000e-07	-5.178767e-06	-2.460636e-09	-3.666807e+01	-1.603858e+02
3.700000e-07	-5.164477e-06	-2.488720e-09	-3.656689e+01	-1.605058e+02
3.800000e-07	-5.149736e-06	-2.482307e-09	-3.646252e+01	-1.606085e+02
3.900000e-07	-5.134319e-06	-2.459892e-09	-3.635336e+01	-1.606930e+02
4.000000e-07	-5.118279e-06	-2.489776e-09	-3.623979e+01	-1.607587e+02
4.100000e-07	-5.101839e-06	-2.485079e-09	-3.612339e+01	-1.608052e+02
4.200000e-07	-5.084986e-06	-2.461185e-09	-3.600406e+01	-1.608323e+02
4.300000e-07	-5.067883e-06	-2.480517e-09	-3.588296e+01	-1.608399e+02
4.400000e-07	-5.050583e-06	-2.478389e-09	-3.576047e+01	-1.608282e+02
4.500000e-07	-5.033016e-06	-2.442851e-09	-3.563609e+01	-1.607974e+02
4.600000e-07	-5.015124e-06	-2.442826e-09	-3.550940e+01	-1.607481e+02
4.700000e-07	-4.996844e-06	-2.476459e-09	-3.537997e+01	-1.606809e+02
4.800000e-07	-4.978201e-06	-2.461047e-09	-3.524798e+01	-1.605965e+02
4.900000e-07	-4.959054e-06	-2.455297e-09	-3.511240e+01	-1.604959e+02
5.000000e-07	-4.939489e-06	-2.463533e-09	-3.497387e+01	-1.603800e+02
5.100000e-07	-4.919760e-06	-2.466485e-09	-3.483419e+01	-1.602499e+02
5.200000e-07	-4.899866e-06	-2.449692e-09	-3.469332e+01	-1.601067e+02
5.300000e-07	-4.879812e-06	-2.452908e-09	-3.455133e+01	-1.599518e+02
5.400000e-07	-4.859443e-06	-2.435092e-09	-3.440712e+01	-1.597864e+02
5.500000e-07	-4.838688e-06	-2.438993e-09	-3.426016e+01	-1.596117e+02
5.600000e-07	-4.817584e-06	-2.451569e-09	-3.411073e+01	-1.594290e+02
5.700000e-07	-4.796090e-06	-2.455932e-09	-3.395855e+01	-1.592397e+02
5.800000e-07	-4.774278e-06	-2.437254e-09	-3.380411e+01	-1.590450e+02
5.900000e-07	-4.752200e-06	-2.446287e-09	-3.364778e+01	-1.588460e+02
6.000000e-07	-4.729826e-06	-2.445930e-09	-3.348936e+01	-1.586441e+02
6.100000e-07	-4.707104e-06	-2.433937e-09	-3.332848e+01	-1.584401e+02
6.200000e-07	-4.683993e-06	-2.416955e-09	-3.316484e+01	-1.582352e+02
6.300000e-07	-4.660562e-06	-2.412523e-09	-3.299895e+01	-1.580303e+02
6.400000e-07	-4.636867e-06	-2.408181e-09	-3.283117e+01	-1.578261e+02
6.500000e-07	-4.612980e-06	-2.416725e-09	-3.266204e+01	-1.576235e+02
6.600000e-07	-4.588924e-06	-2.416342e-09	-3.249171e+01	-1.574229e+02
6.700000e-07	-4.564528e-06	-2.409160e-09	-3.231898e+01	-1.572249e+02
6.800000e-07	-4.539739e-06	-2.406837e-09	-3.214346e+01	-1.570299e+02
6.900000e-07	-4.514505e-06	-2.405584e-09	-3.196479e+01	-1.568380e+02
7.000000e-07	-4.488696e-06	-2.394652e-09	-3.178205e+01	-1.566496e+02
7.100000e-07	-4.462389e-06	-2.383219e-09	-3.159579e+01	-1.564645e+02
7.200000e-07	-4.435610e-06	-2.380689e-09	-3.140618e+01	-1.562827e+02
7.300000e-07	-4.408373e-06	-2.380298e-09	-3.121333e+01	-1.561040e+02
7.400000e-07	-4.380760e-06	-2.380938e-09	-3.101782e+01	-1.559282e+02
7.500000e-07	-4.352884e-06	-2.373624e-09	-3.082044e+01	-1.557548e+02
7.600000e-07	-4.324926e-06	-2.368960e-09	-3.062248e+01	-1.555835e+02
7.700000e-07	-4.296827e-06	-2.367844e-09	-3.042353e+01	-1.554138e+02
7.800000e-07	-4.268466e-06	-2.370107e-09	-3.022272e+01	-1.552450e+02
7.900000e-07	-4.239834e-06	-2.362851e-09	-3.001999e+01	-1.550766e+02
8.000000e-07	-4.210927e-06	-2.360720e-09	-2.981532e+01	-1.549078e+02
8.100000e-07	-4.181651e-06	-2.354832e-09	-2.960803e+01	-1.547381e+02
8.200000e-07	-4.152066e-06	-2.350279e-09	-2.939855e+01	-1.545667e+02
8.300000e-07	-4.122247e-06	-2.340396e-09	-2.918742e+01	-1.543929e+02
8.400000e-07	-4.092121e-06	-2.336356e-09	-2.897412e+01	-1.542161e+02
8.500000e-07	-4.061685e-06	-2.333977e-09	-2.875862e+01	-1.540355e+02
8.600000e-07	-4.031013e-06	-2.339666e-09	-2.854145e+01	-1.538506e+02
8.700000e-07	-4.000045e-06	-2.340058e-09	-2.832217e+01	-1.536607e+02
8.800000e-07	-3.968724e-06	-2.337128e-09	-2.810041e+01	-1.534654e+02
8.900000e-07	-3.937181e-06	-2.326816e-09	-2.787707e+01	-1.532640e+02
9.000000e-07	-3.905501e-06	-2.321968e-09	-2.765276e+01	-1.530562e+02
9.100000e-07	-3.873667e-06	-2.315335e-09	-2.742736e+01	-1.528417e+02
9.200000e-07	-3.841660e-06	-2.309763e-09	-2.720073e+01	-1.526201e+02
9.300000e-07	-3.809432e-06	-2.306061e-09	-2.697254e+01	-1.523913e+02
9.400000e-07	-3.776976e-06	-2.311512e-09	-2.674275e+01	-1.521551e+02
9.500000e-07	-3.744270e-06	-2.316059e-09	-2.651117e+01	-1.519116e+02
9.600000e-07	-3.711203e-06	-2.311859e-09	-2.627704e+01	-1.516607e+02
9.700000e-07	-3.677724e-06	-2.300711e-09	-2.603999e+01	-1.514025e+02
9.800000e-07	-3.643759e-06	-2.292360e-09	-2.579951e+01	-1.511374e+02
9.900000e-07	-3.609253e-06	-2.288218e-09	-2.555519e+01	-1.508655e+02
1.000000e-06	-3.574298e-06	-2.284647e-09	-2.530769e+01	-1.505873e+02
1.010000e-06	-3.539104e-06	-2.282573e-09	-2.505850e+01	-1.503030e+02
1.020000e-06	-3.503691e-06	-2.281947e-09	-2.480776e+01	-1.500132e+02
1.030000e-06	-3.467978e-06	-2.282226e-09	-2.455490e+01	-1.497183e+02
1.040000e-06	-3.432134e-06	-2.277528e-09	-2.430110e+01	-1.494189e+02
1.050000e-06	-3.396238e-06	-2.267519e-09	-2.404694e+01	-1.491154e+02
1.060000e-06	-3.360172e-06	-2.252127e-09	-2.379158e+01	-1.488086e+02
1.070000e-06	-3.323895e-06	-2.242290e-09	-2.353472e+01	-1.484988e+02
1.080000e-06	-3.287453e-06	-2.239355e-09	-2.327670e+01	-1.481866e+02
1.090000e-06	-3.250784e-06	-2.240305e-09	-2.301706e+01	-1.478727e+02
1.100000e-06	-3.213798e-06	-2.238490e-09	-2.275518e+01	-1.475573e+02
1.110000e-06	-3.176547e-06	-2.238084e-09	-2.249143e+01	-1.472410e+02
1.120000e-06	-3.139072e-06	-2.235396e-09	-2.222609e+01	-1.469242e+02
1.130000e-06	-3.101384e-06	-2.231239e-09	-2.195924e+01	-1.466071e+02
1.140000e-06	-3.063512e-06	-2.219971e-09	-2.169109e+01	-1.462900e+02
1.150000e-06	-3.025434e-06	-2.209184e-09	-2.142148e+01	-1.459732e+02
1.160000e-06	-2.987156e-06	-2.201755e-09	-2.115045e+01	-1.456566e+02
1.170000e-06	-2.948574e-06	-2.197779e-09	-2.087727e+01	-1.453403e+02
1.180000e-06	-2.909805e-06	-2.193035e-09	-2.060277e+01	-1.450242e+02
1.190000e-06	-2.870959e-06	-2.189040e-09	-2.032772e+01	-1.447082e+02
1.200000e-06	-2.831948e-06	-2.183689e-09	-2.005151e+01	-1.443919e+02
1.210000e-06	-2.792743e-06	-2.178907e-09	-1.977392e+01	-1.440751e+02
1.220000e-06	-2.753240e-06	-2.169673e-09	-1.949422e+01	-1.437574e+02
1.230000e-06	-2.713504e-06	-2.157947e-09	-1.921287e+01	-1.434382e+02
1.240000e-06	-2.673652e-06	-2.148056e-09	-1.893070e+01	-1.431169e+02
1.250000e-06	-2.633761e-06	-2.143365e-09	-1.864825e+01	-1.427931e+02
1.260000e-06	-2.593778e-06	-2.140870e-09	-1.836515e+01	-1.424659e+02
1.270000e-06	-2.553693e-06	-2.137128e-09	-1.808133e+01	-1.421347e+02
1.280000e-06	-2.513474e-06	-2.132204e-09	-1.779656e+01	-1.417987e+02
1.290000e-06	-2.473161e-06	-2.126793e-09	-1.751113e+01	-1.414572e+02
1.300000e-06	-2.432722e-06	-2.121105e-09	-1.722480e+01	-1.411094e+02
1.310000e-06	-2.392021e-06	-2.113813e-09	-1.693662e+01	-1.407544e+02
1.320000e-06	-2.351128e-06	-2.105559e-09	-1.664708e+01	-1.403915e+02
1.330000e-06	-2.309990e-06	-2.097104e-09	-1.635580e+01	-1.400200e+02
1.340000e-06	-2.268557e-06	-2.090204e-09	-1.606244e+01	-1.396391e+02
1.350000e-06	-2.226883e-06	-2.083761e-09	-1.576736e+01	-1.392482e+02
1.360000e-06	-2.184894e-06	-2.076765e-09	-1.547006e+01	-1.388465e+02
1.370000e-06	-2.142604e-06	-2.069030e-09	-1.517063e+01	-1.384334e+02
1.380000e-06	-2.100039e-06	-2.062112e-09	-1.486925e+01	-1.380085e+02
1.390000e-06	-2.057186e-06	-2.053140e-09	-1.456583e+01	-1.375712e+02
1.400000e-06	-2.014112e-06	-2.043699e-09	-1.426084e+01	-1.371210e+02
1.410000e-06	-1.970801e-06	-2.035723e-09	-1.395419e+01	-1.366576e+02
1.420000e-06	-1.927246e-06	-2.029639e-09	-1.364580e+01	-1.361807e+02
1.430000e-06	-1.883580e-06	-2.019864e-09	-1.333662e+01	-1.356900e+02
1.440000e-06	-1.839879e-06	-2.007505e-09	-1.302719e+01	-1.351852e+02
1.450000e-06	-1.796093e-06	-1.997363e-09	-1.271717e+01	-1.346663e+02
1.460000e-06	-1.752256e-06	-1.991552e-09	-1.240678e+01	-1.341330e+02
1.470000e-06	-1.708388e-06	-1.984406e-09	-1.209618e+01	-1.335852e+02
1.480000e-06	-1.664444e-06	-1.973818e-09	-1.178504e+01	-1.330230e+02
1.490000e-06	-1.620425e-06	-1.961254e-09	-1.147336e+01	-1.324461e+02
1.500000e-06	-1.576342e-06	-1.951893e-09	-1.116123e+01	-1.318546e+02
1.510000e-06	-1.532185e-06	-1.944230e-09	-1.084858e+01	-1.312484e+02
1.520000e-06	-1.487904e-06	-1.933429e-09	-1.053505e+01	-1.306275e+02
1.530000e-06	-1.443475e-06	-1.919339e-09	-1.022047e+01	-1.299917e+02
1.540000e-06	-1.399046e-06	-1.908542e-09	-9.905896e+00	-1.293410e+02
1.550000e-06	-1.354636e-06	-1.900826e-09	-9.591449e+00	-1.286752e+02
1.560000e-06	-1.310188e-06	-1.892234e-09	-9.276739e+00	-1.279942e+02
1.570000e-06	-1.265669e-06	-1.882588e-09	-8.961522e+00	-1.272976e+02
1.580000e-06	-1.220920e-06	-1.872283e-09	-8.644680e+00	-1.265853e+02
1.590000e-06	-1.176042e-06	-1.862208e-09	-8.326923e+00	-1.258569e+02
1.600000e-06	-1.131101e-06	-1.849649e-09	-8.008717e+00	-1.251120e+02
1.610000e-06	-1.086048e-06	-1.833113e-09	-7.689721e+00	-1.243501e+02
1.620000e-06	-1.040984e-06	-1.818063e-09	-7.370649e+00	-1.235707e+02
1.630000e-06	-9.958302e-07	-1.807505e-09	-7.050940e+00	-1.227732e+02
1.640000e-06	-9.505056e-07	-1.798815e-09	-6.730021e+00	-1.219569e+02
1.650000e-06	-9.050171e-07	-1.787639e-09	-6.407941e+00	-1.211211e+02
1.660000e-06	-8.594042e-07	-1.775669e-09	-6.084981e+00	-1.202649e+02
1.670000e-06	-8.137869e-07	-1.763820e-09	-5.761989e+00	-1.193875e+02
1.680000e-06	-7.681952e-07	-1.749734e-09	-5.439179e+00	-1.184880e+02
1.690000e-06	-7.226154e-07	-1.730661e-09	-5.116453e+00	-1.175652e+02
1.700000e-06	-6.769668e-07	-1.708835e-09	-4.793239e+00	-1.166181e+02
1.710000e-06	-6.312476e-07	-1.694242e-09	-4.469526e+00	-1.156456e+02
1.720000e-06	-5.855765e-07	-1.684802e-09	-4.146153e+00	-1.146464e+02
1.730000e-06	-5.399292e-07	-1.673081e-09	-3.822949e+00	-1.136191e+02
1.740000e-06	-4.942021e-07	-1.659216e-09	-3.499180e+00	-1.125625e+02
1.750000e-06	-4.483997e-07	-1.646506e-09	-3.174878e+00	-1.114750e+02
1.760000e-06	-4.025558e-07	-1.631664e-09	-2.850282e+00	-1.103552e+02
1.770000e-06	-3.566399e-07	-1.611738e-09	-2.525176e+00	-1.092014e+02
1.780000e-06	-3.106733e-07	-1.588027e-09	-2.199711e+00	-1.080119e+02
1.790000e-06	-2.647702e-07	-1.568177e-09	-1.874696e+00	-1.067849e+02
1.800000e-06	-2.188906e-07	-1.552695e-09	-1.549847e+00	-1.055185e+02
1.810000e-06	-1.729500e-07	-1.536391e-09	-1.224567e+00	-1.042109e+02
1.820000e-06	-1.270275e-07	-1.518078e-09	-8.994139e-01	-1.028598e+02
1.830000e-06	-8.114077e-08	-1.499388e-09	-5.745143e-01	-1.014631e+02
1.840000e-06	-3.521798e-08	-1.479033e-09	-2.493596e-01	-1.000187e+02
1.850000e-06	1.066838e-08	-1.452739e-09	7.553707e-02	-9.852394e+01
1.860000e-06	5.652722e-08	-1.420693e-09	4.002390e-01	-9.697653e+01
1.870000e-06	1.024418e-07	-1.392020e-09	7.253353e-01	-9.537385e+01
1.880000e-06	1.483642e-07	-1.368647e-09	1.050488e+00	-9.371324e+01
1.890000e-06	1.943094e-07	-1.346152e-09	1.375801e+00	-9.199197e+01
1.900000e-06	2.402560e-07	-1.321053e-09	1.701124e+00	-9.020721e+01
1.910000e-06	2.861863e-07	-1.293205e-09	2.026332e+00	-8.835612e+01
1.920000e-06	3.321180e-07	-1.261572e-09	2.351550e+00	-8.643579e+01
1.930000e-06	3.780547e-07	-1.227529e-09	2.676803e+00	-8.444330e+01
1.940000e-06	4.239377e-07	-1.193846e-09	3.001676e+00	-8.237575e+01
1.950000e-06	4.697261e-07	-1.161865e-09	3.325879e+00	-8.023027e+01
1.960000e-06	5.155345e-07	-1.132244e-09	3.650223e+00	-7.800407e+01
1.970000e-06	5.612944e-07	-1.100663e-09	3.974225e+00	-7.569444e+01
1.980000e-06	6.069372e-07	-1.063875e-09	4.297397e+00	-7.329883e+01
1.990000e-06	6.525490e-07	-1.025707e-09	4.620350e+00	-7.081485e+01
2.000000e-06	6.981194e-07	-9.884839e-10	4.943010e+00	-6.824036e+01
2.010000e-06	7.436156e-07	-9.489404e-10	5.265144e+00	-6.557344e+01
2.020000e-06	7.890522e-07	-9.062702e-10	5.586856e+00	-6.281250e+01
2.030000e-06	8.344623e-07	-8.634119e-10	5.908380e+00	-5.995631e+01
2.040000e-06	8.798298e-07	-8.226461e-10	6.229604e+00	-5.700400e+01
2.050000e-06	9.251566e-07	-7.800894e-10	6.550538e+00	-5.395516e+01
2.060000e-06	9.704225e-07	-7.336588e-10	6.871042e+00	-5.080983e+01
2.070000e-06	1.015614e-06	-6.851389e-10	7.191021e+00	-4.756859e+01
2.080000e-06	1.060748e-06	-6.377569e-10	7.510587e+00	-4.423254e+01
2.090000e-06	1.105825e-06	-5.892221e-10	7.829754e+00	-4.080335e+01
2.100000e-06	1.150802e-06	-5.379806e-10	8.148212e+00	-3.728330e+01
2.110000e-06	1.195546e-06	-4.849862e-10	8.465022e+00	-3.367527e+01
2.120000e-06	1.240228e-06	-4.296863e-10	8.781387e+00	-2.998276e+01
2.130000e-06	1.284901e-06	-3.710570e-10	9.097695e+00	-2.620993e+01
2.140000e-06	1.329442e-06	-3.091293e-10	9.413068e+00	-2.236153e+01
2.150000e-06	1.373855e-06	-2.460821e-10	9.727529e+00	-1.844296e+01
2.160000e-06	1.418136e-06	-1.843348e-10	1.004106e+01	-1.446019e+01
2.170000e-06	1.462374e-06	-1.254125e-10	1.035429e+01	-1.041977e+01
2.180000e-06	1.506625e-06	-6.759243e-11	1.066761e+01	-6.328804e+00
2.190000e-06	1.550819e-06	-5.707595e-12	1.098052e+01	-2.194876e+00
2.200000e-06	1.594900e-06	6.102896e-11	1.129263e+01	1.973978e+00
2.210000e-06	1.638930e-06	1.283409e-10	1.160438e+01	6.169331e+00
2.220000e-06	1.682904e-06	1.940502e-10	1.191574e+01	1.038243e+01
2.230000e-06	1.726806e-06	2.614746e-10	1.222659e+01	1.460425e+01
2.240000e-06	1.770638e-06	3.287683e-10	1.253694e+01	1.882561e+01
2.250000e-06	1.814386e-06	3.912069e-10	1.284670e+01	2.303719e+01
2.260000e-06	1.858042e-06	4.493055e-10	1.315580e+01	2.722964e+01
2.270000e-06	1.901553e-06	5.076865e-10	1.346388e+01	3.139369e+01
2.280000e-06	1.944908e-06	5.690563e-10	1.377085e+01	3.552019e+01
2.290000e-06	1.988176e-06	6.307813e-10	1.407721e+01	3.960021e+01
2.300000e-06	2.031333e-06	6.905929e-10	1.438278e+01	4.362512e+01
2.310000e-06	2.074294e-06	7.497344e-10	1.468696e+01	4.758665e+01
2.320000e-06	2.117004e-06	8.099908e-10	1.498937e+01	5.147702e+01
2.330000e-06	2.159516e-06	8.678926e-10	1.529038e+01	5.528893e+01
2.340000e-06	2.201754e-06	9.226667e-10	1.558944e+01	5.901569e+01
2.350000e-06	2.243557e-06	9.755239e-10	1.588542e+01	6.265123e+01
2.360000e-06	2.285021e-06	1.027164e-09	1.617901e+01	6.619018e+01
2.370000e-06	2.326259e-06	1.076791e-09	1.647099e+01	6.962788e+01
2.380000e-06	2.367219e-06	1.119972e-09	1.676101e+01	7.296044e+01
2.390000e-06	2.407983e-06	1.159193e-09	1.704964e+01	7.618473e+01
2.400000e-06	2.448567e-06	1.198787e-09	1.733699e+01	7.929841e+01
2.410000e-06	2.488927e-06	1.238176e-09	1.762276e+01	8.229994e+01
2.420000e-06	2.529198e-06	1.278606e-09	1.790790e+01	8.518853e+01
2.430000e-06	2.569342e-06	1.321412e-09	1.819213e+01	8.796416e+01
2.440000e-06	2.609311e-06	1.365237e-09	1.847513e+01	9.062754e+01
2.450000e-06	2.649162e-06	1.405814e-09	1.875729e+01	9.318006e+01
2.460000e-06	2.688938e-06	1.439644e-09	1.903893e+01	9.562376e+01
2.470000e-06	2.728709e-06	1.468749e-09	1.932053e+01	9.796127e+01
2.480000e-06	2.768325e-06	1.494295e-09	1.960103e+01	1.001957e+02
2.490000e-06	2.807675e-06	1.518850e-09	1.987964e+01	1.023308e+02
2.500000e-06	2.846776e-06	1.547372e-09	2.015650e+01	1.043705e+02
2.510000e-06	2.885648e-06	1.581014e-09	2.043173e+01	1.063192e+02
2.520000e-06	2.924308e-06	1.618214e-09	2.070546e+01	1.081814e+02
2.530000e-06	2.962779e-06	1.652913e-09	2.097785e+01	1.099620e+02
2.540000e-06	3.001090e-06	1.678856e-09	2.124911e+01	1.116658e+02
2.550000e-06	3.039177e-06	1.698461e-09	2.151879e+01	1.132977e+02
2.560000e-06	3.077077e-06	1.716817e-09	2.178713e+01	1.148627e+02
2.570000e-06	3.114811e-06	1.733884e-09	2.205431e+01	1.163655e+02
2.580000e-06	3.152368e-06	1.749030e-09	2.232023e+01	1.178108e+02
2.590000e-06	3.189720e-06	1.766935e-09	2.258470e+01	1.192028e+02
2.600000e-06	3.226852e-06	1.793022e-09	2.284761e+01	1.205459e+02
2.610000e-06	3.263701e-06	1.821725e-09	2.310852e+01	1.218437e+02
2.620000e-06	3.300186e-06	1.845010e-09	2.336685e+01	1.230999e+02
2.630000e-06	3.336477e-06	1.862249e-09	2.362381e+01	1.243176e+02
2.640000e-06	3.372606e-06	1.877527e-09	2.387962e+01	1.254995e+02
2.650000e-06	3.408587e-06	1.891172e-09	2.413438e+01	1.266480e+02
2.660000e-06	3.444493e-06	1.901203e-09	2.438861e+01	1.277652e+02
2.670000e-06	3.480269e-06	1.912597e-09	2.464192e+01	1.288527e+02
2.680000e-06	3.515873e-06	1.929694e-09	2.489401e+01	1.299117e+02
2.690000e-06	3.551248e-06	1.948938e-09	2.514449e+01	1.309433e+02
2.700000e-06	3.586316e-06	1.965282e-09	2.539278e+01	1.319479e+02
2.710000e-06	3.620976e-06	1.976164e-09	2.563819e+01	1.329259e+02
2.720000e-06	3.655235e-06	1.985842e-09	2.588076e+01	1.338775e+02
2.730000e-06	3.689081e-06	1.998476e-09	2.612040e+01	1.348024e+02
2.740000e-06	3.722467e-06	2.011182e-09	2.635680e+01	1.357005e+02
2.750000e-06	3.755354e-06	2.023584e-09	2.658965e+01	1.365712e+02
2.760000e-06	3.787893e-06	2.038145e-09	2.682004e+01	1.374141e+02
2.770000e-06	3.820205e-06	2.053149e-09	2.704882e+01	1.382286e+02
2.780000e-06	3.852273e-06	2.065602e-09	2.727588e+01	1.390142e+02
2.790000e-06	3.884183e-06	2.073602e-09	2.750182e+01	1.397705e+02
2.800000e-06	3.915957e-06	2.080522e-09	2.772679e+01	1.404969e+02
2.810000e-06	3.947528e-06	2.089848e-09	2.795033e+01	1.411932e+02
2.820000e-06	3.978832e-06	2.099988e-09	2.817198e+01	1.418591e+02
2.830000e-06	4.009878e-06	2.109028e-09	2.839180e+01	1.424947e+02
2.840000e-06	4.040615e-06	2.117231e-09	2.860943e+01	1.431001e+02
2.850000e-06	4.071022e-06	2.127247e-09	2.882473e+01	1.436755e+02
2.860000e-06	4.101130e-06	2.138688e-09	2.903790e+01	1.442216e+02
2.870000e-06	4.130951e-06	2.148046e-09	2.924905e+01	1.447390e+02
2.880000e-06	4.160600e-06	2.153880e-09	2.945898e+01	1.452285e+02
2.890000e-06	4.190050e-06	2.157547e-09	2.966750e+01	1.456913e+02
2.900000e-06	4.219160e-06	2.159480e-09	2.987361e+01	1.461286e+02
