# Temperatura_=_-10.11
# Concentracion g/m^3_=_4090.0
# C_Vs_to_Am_M_A/Vsm_=_65563218390.804596
# pendiente_HvsI_1/m_=_3716.3
# ordenada_HvsI_A/m_=_1297.0
# frecuencia_Hz_=_135059.9376229439

Tiempo_(s)	Campo_(V.s)	Magnetizacion_(V.s)	Campo_(kA/m)	Magnetizacion_(A/m)
0.000000e+00	-5.397550e-06	-2.138454e-09	-3.841328e+01	-1.363490e+02
1.000000e-08	-5.397601e-06	-2.138941e-09	-3.841364e+01	-1.364151e+02
2.000000e-08	-5.397383e-06	-2.136937e-09	-3.841209e+01	-1.364783e+02
3.000000e-08	-5.396759e-06	-2.133972e-09	-3.840765e+01	-1.365386e+02
4.000000e-08	-5.395687e-06	-2.130787e-09	-3.840002e+01	-1.365957e+02
5.000000e-08	-5.394147e-06	-2.130220e-09	-3.838906e+01	-1.366498e+02
6.000000e-08	-5.391997e-06	-2.151873e-09	-3.837376e+01	-1.367008e+02
7.000000e-08	-5.389253e-06	-2.161924e-09	-3.835423e+01	-1.367485e+02
8.000000e-08	-5.386003e-06	-2.091969e-09	-3.833110e+01	-1.367930e+02
9.000000e-08	-5.382232e-06	-2.022788e-09	-3.830426e+01	-1.368340e+02
1.000000e-07	-5.378130e-06	-2.158227e-09	-3.827506e+01	-1.368715e+02
1.100000e-07	-5.373839e-06	-2.238211e-09	-3.824453e+01	-1.369052e+02
1.200000e-07	-5.369261e-06	-2.124232e-09	-3.821195e+01	-1.369350e+02
1.300000e-07	-5.364399e-06	-1.985190e-09	-3.817734e+01	-1.369607e+02
1.400000e-07	-5.359214e-06	-2.143846e-09	-3.814045e+01	-1.369820e+02
1.500000e-07	-5.353569e-06	-2.277188e-09	-3.810027e+01	-1.369986e+02
1.600000e-07	-5.347531e-06	-2.095452e-09	-3.805730e+01	-1.370102e+02
1.700000e-07	-5.341176e-06	-1.939559e-09	-3.801207e+01	-1.370166e+02
1.800000e-07	-5.334440e-06	-2.111666e-09	-3.796413e+01	-1.370172e+02
1.900000e-07	-5.327288e-06	-2.255029e-09	-3.791324e+01	-1.370118e+02
2.000000e-07	-5.319785e-06	-2.101476e-09	-3.785984e+01	-1.370000e+02
2.100000e-07	-5.312109e-06	-2.039819e-09	-3.780521e+01	-1.369813e+02
2.200000e-07	-5.304284e-06	-2.192816e-09	-3.774952e+01	-1.369553e+02
2.300000e-07	-5.296071e-06	-2.215257e-09	-3.769107e+01	-1.369218e+02
2.400000e-07	-5.287254e-06	-2.047932e-09	-3.762832e+01	-1.368802e+02
2.500000e-07	-5.277888e-06	-2.093683e-09	-3.756166e+01	-1.368302e+02
2.600000e-07	-5.267959e-06	-2.226171e-09	-3.749100e+01	-1.367714e+02
2.700000e-07	-5.257320e-06	-2.148381e-09	-3.741529e+01	-1.367035e+02
2.800000e-07	-5.246207e-06	-2.026142e-09	-3.733620e+01	-1.366263e+02
2.900000e-07	-5.234781e-06	-2.155046e-09	-3.725488e+01	-1.365394e+02
3.000000e-07	-5.222972e-06	-2.195648e-09	-3.717084e+01	-1.364427e+02
3.100000e-07	-5.210776e-06	-2.039206e-09	-3.708404e+01	-1.363359e+02
3.200000e-07	-5.198163e-06	-2.011213e-09	-3.699428e+01	-1.362190e+02
3.300000e-07	-5.185144e-06	-2.162524e-09	-3.690163e+01	-1.360920e+02
3.400000e-07	-5.171713e-06	-2.132979e-09	-3.680604e+01	-1.359547e+02
3.500000e-07	-5.157929e-06	-2.056496e-09	-3.670794e+01	-1.358073e+02
3.600000e-07	-5.143672e-06	-2.095626e-09	-3.660648e+01	-1.356498e+02
3.700000e-07	-5.128910e-06	-2.121002e-09	-3.650142e+01	-1.354824e+02
3.800000e-07	-5.113583e-06	-2.053227e-09	-3.639234e+01	-1.353053e+02
3.900000e-07	-5.097699e-06	-2.075088e-09	-3.627929e+01	-1.351187e+02
4.000000e-07	-5.081419e-06	-2.086124e-09	-3.616343e+01	-1.349229e+02
4.100000e-07	-5.064748e-06	-2.019015e-09	-3.604479e+01	-1.347182e+02
4.200000e-07	-5.047810e-06	-2.041261e-09	-3.592425e+01	-1.345049e+02
4.300000e-07	-5.030570e-06	-2.118656e-09	-3.580155e+01	-1.342835e+02
4.400000e-07	-5.012957e-06	-2.065389e-09	-3.567620e+01	-1.340544e+02
4.500000e-07	-4.995099e-06	-1.987697e-09	-3.554911e+01	-1.338178e+02
4.600000e-07	-4.976949e-06	-2.041729e-09	-3.541994e+01	-1.335744e+02
4.700000e-07	-4.958319e-06	-2.068635e-09	-3.528736e+01	-1.333244e+02
4.800000e-07	-4.939287e-06	-2.021729e-09	-3.515191e+01	-1.330683e+02
4.900000e-07	-4.919955e-06	-1.997829e-09	-3.501433e+01	-1.328064e+02
5.000000e-07	-4.900366e-06	-2.022258e-09	-3.487492e+01	-1.325393e+02
5.100000e-07	-4.880571e-06	-2.025300e-09	-3.473404e+01	-1.322672e+02
5.200000e-07	-4.860603e-06	-2.033766e-09	-3.459193e+01	-1.319906e+02
5.300000e-07	-4.840318e-06	-2.005042e-09	-3.444757e+01	-1.317097e+02
5.400000e-07	-4.819650e-06	-1.977559e-09	-3.430048e+01	-1.314249e+02
5.500000e-07	-4.798642e-06	-1.993798e-09	-3.415097e+01	-1.311364e+02
5.600000e-07	-4.777254e-06	-2.024553e-09	-3.399875e+01	-1.308444e+02
5.700000e-07	-4.755528e-06	-1.985725e-09	-3.384414e+01	-1.305493e+02
5.800000e-07	-4.733560e-06	-1.958408e-09	-3.368779e+01	-1.302511e+02
5.900000e-07	-4.711297e-06	-1.971148e-09	-3.352935e+01	-1.299501e+02
6.000000e-07	-4.688663e-06	-1.990024e-09	-3.336827e+01	-1.296464e+02
6.100000e-07	-4.665570e-06	-1.967935e-09	-3.320392e+01	-1.293400e+02
6.200000e-07	-4.642143e-06	-1.939859e-09	-3.303720e+01	-1.290311e+02
6.300000e-07	-4.618628e-06	-1.930317e-09	-3.286985e+01	-1.287196e+02
6.400000e-07	-4.594981e-06	-1.953959e-09	-3.270156e+01	-1.284057e+02
6.500000e-07	-4.571089e-06	-1.955058e-09	-3.253152e+01	-1.280893e+02
6.600000e-07	-4.546901e-06	-1.923430e-09	-3.235938e+01	-1.277704e+02
6.700000e-07	-4.522416e-06	-1.905148e-09	-3.218512e+01	-1.274490e+02
6.800000e-07	-4.497467e-06	-1.925049e-09	-3.200757e+01	-1.271250e+02
6.900000e-07	-4.471857e-06	-1.933329e-09	-3.182531e+01	-1.267984e+02
7.000000e-07	-4.445683e-06	-1.911299e-09	-3.163903e+01	-1.264690e+02
7.100000e-07	-4.419076e-06	-1.891570e-09	-3.144967e+01	-1.261367e+02
7.200000e-07	-4.392094e-06	-1.898547e-09	-3.125765e+01	-1.258015e+02
7.300000e-07	-4.364815e-06	-1.915797e-09	-3.106351e+01	-1.254632e+02
7.400000e-07	-4.337292e-06	-1.902738e-09	-3.086763e+01	-1.251216e+02
7.500000e-07	-4.309541e-06	-1.870925e-09	-3.067013e+01	-1.247766e+02
7.600000e-07	-4.281611e-06	-1.858878e-09	-3.047136e+01	-1.244279e+02
7.700000e-07	-4.253440e-06	-1.872054e-09	-3.027088e+01	-1.240754e+02
7.800000e-07	-4.224939e-06	-1.865765e-09	-3.006804e+01	-1.237187e+02
7.900000e-07	-4.196186e-06	-1.844528e-09	-2.986341e+01	-1.233578e+02
8.000000e-07	-4.167137e-06	-1.832734e-09	-2.965667e+01	-1.229922e+02
8.100000e-07	-4.137714e-06	-1.844379e-09	-2.944727e+01	-1.226217e+02
8.200000e-07	-4.108038e-06	-1.846981e-09	-2.923608e+01	-1.222459e+02
8.300000e-07	-4.078161e-06	-1.830482e-09	-2.902345e+01	-1.218646e+02
8.400000e-07	-4.048016e-06	-1.805808e-09	-2.880891e+01	-1.214775e+02
8.500000e-07	-4.017504e-06	-1.805463e-09	-2.859177e+01	-1.210840e+02
8.600000e-07	-3.986629e-06	-1.808395e-09	-2.837203e+01	-1.206840e+02
8.700000e-07	-3.955529e-06	-1.800798e-09	-2.815070e+01	-1.202770e+02
8.800000e-07	-3.924323e-06	-1.780832e-09	-2.792861e+01	-1.198627e+02
8.900000e-07	-3.893001e-06	-1.780317e-09	-2.770570e+01	-1.194407e+02
9.000000e-07	-3.861467e-06	-1.789520e-09	-2.748128e+01	-1.190106e+02
9.100000e-07	-3.829665e-06	-1.787407e-09	-2.725495e+01	-1.185722e+02
9.200000e-07	-3.797628e-06	-1.768066e-09	-2.702696e+01	-1.181252e+02
9.300000e-07	-3.765342e-06	-1.756753e-09	-2.679718e+01	-1.176692e+02
9.400000e-07	-3.732805e-06	-1.754926e-09	-2.656562e+01	-1.172041e+02
9.500000e-07	-3.699954e-06	-1.747348e-09	-2.633182e+01	-1.167296e+02
9.600000e-07	-3.666628e-06	-1.727554e-09	-2.609466e+01	-1.162457e+02
9.700000e-07	-3.632832e-06	-1.715760e-09	-2.585414e+01	-1.157522e+02
9.800000e-07	-3.598642e-06	-1.719607e-09	-2.561081e+01	-1.152492e+02
9.900000e-07	-3.564079e-06	-1.725295e-09	-2.536484e+01	-1.147366e+02
1.000000e-06	-3.529125e-06	-1.718566e-09	-2.511607e+01	-1.142145e+02
1.010000e-06	-3.493910e-06	-1.707963e-09	-2.486545e+01	-1.136832e+02
1.020000e-06	-3.458493e-06	-1.702917e-09	-2.461340e+01	-1.131428e+02
1.030000e-06	-3.422903e-06	-1.693338e-09	-2.436011e+01	-1.125937e+02
1.040000e-06	-3.387181e-06	-1.676034e-09	-2.410589e+01	-1.120363e+02
1.050000e-06	-3.351281e-06	-1.654670e-09	-2.385039e+01	-1.114708e+02
1.060000e-06	-3.315206e-06	-1.645757e-09	-2.359365e+01	-1.108979e+02
1.070000e-06	-3.278919e-06	-1.643050e-09	-2.333540e+01	-1.103180e+02
1.080000e-06	-3.242442e-06	-1.637759e-09	-2.307580e+01	-1.097316e+02
1.090000e-06	-3.205763e-06	-1.627601e-09	-2.281477e+01	-1.091394e+02
1.100000e-06	-3.168845e-06	-1.621956e-09	-2.255203e+01	-1.085419e+02
1.110000e-06	-3.131687e-06	-1.614942e-09	-2.228759e+01	-1.079398e+02
1.120000e-06	-3.094273e-06	-1.605076e-09	-2.202132e+01	-1.073335e+02
1.130000e-06	-3.056644e-06	-1.589856e-09	-2.175352e+01	-1.067236e+02
1.140000e-06	-3.018782e-06	-1.577378e-09	-2.148406e+01	-1.061107e+02
1.150000e-06	-2.980756e-06	-1.568354e-09	-2.121344e+01	-1.054952e+02
1.160000e-06	-2.942561e-06	-1.562351e-09	-2.094161e+01	-1.048776e+02
1.170000e-06	-2.904090e-06	-1.549872e-09	-2.066782e+01	-1.042581e+02
1.180000e-06	-2.865352e-06	-1.538822e-09	-2.039214e+01	-1.036370e+02
1.190000e-06	-2.826408e-06	-1.532675e-09	-2.011497e+01	-1.030146e+02
1.200000e-06	-2.787248e-06	-1.529888e-09	-1.983628e+01	-1.023908e+02
1.210000e-06	-2.747911e-06	-1.522574e-09	-1.955633e+01	-1.017655e+02
1.220000e-06	-2.708444e-06	-1.512432e-09	-1.927545e+01	-1.011387e+02
1.230000e-06	-2.668860e-06	-1.499360e-09	-1.899374e+01	-1.005101e+02
1.240000e-06	-2.629161e-06	-1.484219e-09	-1.871121e+01	-9.987930e+01
1.250000e-06	-2.589369e-06	-1.466343e-09	-1.842802e+01	-9.924577e+01
1.260000e-06	-2.549517e-06	-1.448463e-09	-1.814440e+01	-9.860892e+01
1.270000e-06	-2.509579e-06	-1.438862e-09	-1.786017e+01	-9.796808e+01
1.280000e-06	-2.469518e-06	-1.437561e-09	-1.757506e+01	-9.732244e+01
1.290000e-06	-2.429244e-06	-1.436979e-09	-1.728844e+01	-9.667114e+01
1.300000e-06	-2.388753e-06	-1.428051e-09	-1.700028e+01	-9.601326e+01
1.310000e-06	-2.348063e-06	-1.414574e-09	-1.671069e+01	-9.534780e+01
1.320000e-06	-2.307151e-06	-1.398366e-09	-1.641953e+01	-9.467376e+01
1.330000e-06	-2.266022e-06	-1.379650e-09	-1.612682e+01	-9.399009e+01
1.340000e-06	-2.224554e-06	-1.360861e-09	-1.583171e+01	-9.329577e+01
1.350000e-06	-2.182710e-06	-1.349356e-09	-1.553391e+01	-9.258976e+01
1.360000e-06	-2.140582e-06	-1.343161e-09	-1.523409e+01	-9.187110e+01
1.370000e-06	-2.098266e-06	-1.338887e-09	-1.493294e+01	-9.113885e+01
1.380000e-06	-2.055771e-06	-1.328948e-09	-1.463051e+01	-9.039214e+01
1.390000e-06	-2.013013e-06	-1.314153e-09	-1.432621e+01	-8.963020e+01
1.400000e-06	-1.970025e-06	-1.298701e-09	-1.402027e+01	-8.885236e+01
1.410000e-06	-1.926881e-06	-1.283464e-09	-1.371322e+01	-8.805804e+01
1.420000e-06	-1.883664e-06	-1.265822e-09	-1.340566e+01	-8.724680e+01
1.430000e-06	-1.840319e-06	-1.250723e-09	-1.309718e+01	-8.641832e+01
1.440000e-06	-1.796758e-06	-1.237916e-09	-1.278716e+01	-8.557241e+01
1.450000e-06	-1.753072e-06	-1.227080e-09	-1.247626e+01	-8.470902e+01
1.460000e-06	-1.709358e-06	-1.215476e-09	-1.216516e+01	-8.382825e+01
1.470000e-06	-1.665584e-06	-1.200421e-09	-1.185363e+01	-8.293029e+01
1.480000e-06	-1.621770e-06	-1.181716e-09	-1.154181e+01	-8.201550e+01
1.490000e-06	-1.577920e-06	-1.164440e-09	-1.122974e+01	-8.108432e+01
1.500000e-06	-1.533966e-06	-1.150033e-09	-1.091693e+01	-8.013733e+01
1.510000e-06	-1.489917e-06	-1.135024e-09	-1.060344e+01	-7.917518e+01
1.520000e-06	-1.445797e-06	-1.117492e-09	-1.028945e+01	-7.819860e+01
1.530000e-06	-1.401627e-06	-1.102939e-09	-9.975098e+00	-7.720838e+01
1.540000e-06	-1.357420e-06	-1.092053e-09	-9.660483e+00	-7.620536e+01
1.550000e-06	-1.313119e-06	-1.077397e-09	-9.345203e+00	-7.519038e+01
1.560000e-06	-1.268630e-06	-1.059574e-09	-9.028582e+00	-7.416430e+01
1.570000e-06	-1.224038e-06	-1.043966e-09	-8.711229e+00	-7.312797e+01
1.580000e-06	-1.179435e-06	-1.030213e-09	-8.393804e+00	-7.208218e+01
1.590000e-06	-1.134716e-06	-1.015889e-09	-8.075544e+00	-7.102768e+01
1.600000e-06	-1.089831e-06	-1.000543e-09	-7.756106e+00	-6.996514e+01
1.610000e-06	-1.044897e-06	-9.850429e-10	-7.436319e+00	-6.889516e+01
1.620000e-06	-9.999110e-07	-9.707388e-10	-7.116165e+00	-6.781820e+01
1.630000e-06	-9.548325e-07	-9.564526e-10	-6.795351e+00	-6.673464e+01
1.640000e-06	-9.096840e-07	-9.427758e-10	-6.474038e+00	-6.564472e+01
1.650000e-06	-8.644667e-07	-9.282994e-10	-6.152235e+00	-6.454857e+01
1.660000e-06	-8.191663e-07	-9.128955e-10	-5.829842e+00	-6.344616e+01
1.670000e-06	-7.737636e-07	-8.971637e-10	-5.506719e+00	-6.233734e+01
1.680000e-06	-7.283280e-07	-8.791787e-10	-5.183364e+00	-6.122184e+01
1.690000e-06	-6.827813e-07	-8.582590e-10	-4.859217e+00	-6.009924e+01
1.700000e-06	-6.372129e-07	-8.406213e-10	-4.534916e+00	-5.896904e+01
1.710000e-06	-5.917039e-07	-8.243217e-10	-4.211037e+00	-5.783060e+01
1.720000e-06	-5.461905e-07	-8.068601e-10	-3.887127e+00	-5.668320e+01
1.730000e-06	-5.006147e-07	-7.890711e-10	-3.562774e+00	-5.552605e+01
1.740000e-06	-4.549140e-07	-7.731108e-10	-3.237532e+00	-5.435828e+01
1.750000e-06	-4.092026e-07	-7.571119e-10	-2.912213e+00	-5.317900e+01
1.760000e-06	-3.635768e-07	-7.401137e-10	-2.587503e+00	-5.198727e+01
1.770000e-06	-3.179562e-07	-7.194925e-10	-2.262830e+00	-5.078218e+01
1.780000e-06	-2.722887e-07	-6.991906e-10	-1.937824e+00	-4.956279e+01
1.790000e-06	-2.265726e-07	-6.811736e-10	-1.612472e+00	-4.832824e+01
1.800000e-06	-1.807989e-07	-6.624512e-10	-1.286709e+00	-4.707769e+01
1.810000e-06	-1.350648e-07	-6.446573e-10	-9.612292e-01	-4.581038e+01
1.820000e-06	-8.937229e-08	-6.286741e-10	-6.360446e-01	-4.452563e+01
1.830000e-06	-4.368586e-08	-6.120061e-10	-3.109035e-01	-4.322287e+01
1.840000e-06	2.034117e-09	-5.918873e-10	1.447640e-02	-4.190161e+01
1.850000e-06	4.780202e-08	-5.692884e-10	3.401974e-01	-4.056151e+01
1.860000e-06	9.358872e-08	-5.456395e-10	6.660521e-01	-3.920232e+01
1.870000e-06	1.393415e-07	-5.229112e-10	9.916653e-01	-3.782393e+01
1.880000e-06	1.850137e-07	-5.025231e-10	1.316705e+00	-3.642637e+01
1.890000e-06	2.307189e-07	-4.833990e-10	1.641980e+00	-3.500975e+01
1.900000e-06	2.765124e-07	-4.653624e-10	1.967883e+00	-3.357434e+01
1.910000e-06	3.222378e-07	-4.446094e-10	2.293301e+00	-3.212049e+01
1.920000e-06	3.679141e-07	-4.202273e-10	2.618371e+00	-3.064865e+01
1.930000e-06	4.136507e-07	-3.969910e-10	2.943869e+00	-2.915938e+01
1.940000e-06	4.593278e-07	-3.756473e-10	3.268944e+00	-2.765329e+01
1.950000e-06	5.049323e-07	-3.545414e-10	3.593502e+00	-2.613104e+01
1.960000e-06	5.505257e-07	-3.319289e-10	3.917980e+00	-2.459336e+01
1.970000e-06	5.960542e-07	-3.085102e-10	4.241997e+00	-2.304098e+01
1.980000e-06	6.414854e-07	-2.843746e-10	4.565322e+00	-2.147465e+01
1.990000e-06	6.868260e-07	-2.608465e-10	4.888002e+00	-1.989510e+01
2.000000e-06	7.321153e-07	-2.371430e-10	5.210317e+00	-1.830305e+01
2.010000e-06	7.773746e-07	-2.126583e-10	5.532418e+00	-1.669918e+01
2.020000e-06	8.225907e-07	-1.869797e-10	5.854212e+00	-1.508411e+01
2.030000e-06	8.677754e-07	-1.619401e-10	6.175783e+00	-1.345840e+01
2.040000e-06	9.128586e-07	-1.363028e-10	6.496631e+00	-1.182257e+01
2.050000e-06	9.578559e-07	-1.093730e-10	6.816868e+00	-1.017703e+01
2.060000e-06	1.002769e-06	-8.430824e-11	7.136505e+00	-8.522131e+00
2.070000e-06	1.047623e-06	-6.419483e-11	7.455721e+00	-6.858141e+00
2.080000e-06	1.092446e-06	-4.525104e-11	7.774716e+00	-5.185255e+00
2.090000e-06	1.137165e-06	-2.336137e-11	8.092972e+00	-3.503598e+00
2.100000e-06	1.181843e-06	4.079995e-13	8.410939e+00	-1.813230e+00
2.110000e-06	1.226403e-06	2.656600e-11	8.728066e+00	-1.141579e-01
2.120000e-06	1.270779e-06	5.555374e-11	9.043876e+00	1.593650e+00
2.130000e-06	1.315040e-06	8.591732e-11	9.358872e+00	3.310254e+00
2.140000e-06	1.359255e-06	1.158943e-10	9.673543e+00	5.035727e+00
2.150000e-06	1.403428e-06	1.430813e-10	9.987915e+00	6.770134e+00
2.160000e-06	1.447527e-06	1.647984e-10	1.030176e+01	8.513519e+00
2.170000e-06	1.491529e-06	1.845191e-10	1.061491e+01	1.026589e+01
2.180000e-06	1.535415e-06	2.075874e-10	1.092724e+01	1.202719e+01
2.190000e-06	1.579242e-06	2.332529e-10	1.123915e+01	1.379730e+01
2.200000e-06	1.623052e-06	2.598004e-10	1.155094e+01	1.557600e+01
2.210000e-06	1.666823e-06	2.886662e-10	1.186244e+01	1.736298e+01
2.220000e-06	1.710575e-06	3.199644e-10	1.217382e+01	1.915780e+01
2.230000e-06	1.754274e-06	3.497426e-10	1.248481e+01	2.095991e+01
2.240000e-06	1.797891e-06	3.733290e-10	1.279523e+01	2.276862e+01
2.250000e-06	1.841371e-06	3.934341e-10	1.310467e+01	2.458310e+01
2.260000e-06	1.884693e-06	4.138026e-10	1.341298e+01	2.640241e+01
2.270000e-06	1.928003e-06	4.360890e-10	1.372121e+01	2.822544e+01
2.280000e-06	1.971212e-06	4.604190e-10	1.402872e+01	3.005096e+01
2.290000e-06	2.014113e-06	4.864843e-10	1.433403e+01	3.187762e+01
2.300000e-06	2.056825e-06	5.165670e-10	1.463801e+01	3.370398e+01
2.310000e-06	2.099377e-06	5.474938e-10	1.494084e+01	3.552845e+01
2.320000e-06	2.141584e-06	5.727888e-10	1.524122e+01	3.734942e+01
2.330000e-06	2.183568e-06	5.938837e-10	1.554001e+01	3.916516e+01
2.340000e-06	2.225334e-06	6.152809e-10	1.583726e+01	4.097393e+01
2.350000e-06	2.266694e-06	6.402680e-10	1.613160e+01	4.277395e+01
2.360000e-06	2.307746e-06	6.662347e-10	1.642376e+01	4.456346e+01
2.370000e-06	2.348528e-06	6.885881e-10	1.671400e+01	4.634070e+01
2.380000e-06	2.388984e-06	7.105814e-10	1.700192e+01	4.810398e+01
2.390000e-06	2.429197e-06	7.361038e-10	1.728811e+01	4.985164e+01
2.400000e-06	2.469308e-06	7.611563e-10	1.757357e+01	5.158214e+01
2.410000e-06	2.509326e-06	7.834369e-10	1.785837e+01	5.329405e+01
2.420000e-06	2.549225e-06	8.082421e-10	1.814232e+01	5.498605e+01
2.430000e-06	2.589041e-06	8.402191e-10	1.842568e+01	5.665696e+01
2.440000e-06	2.628774e-06	8.735742e-10	1.870845e+01	5.830578e+01
2.450000e-06	2.668451e-06	8.974721e-10	1.899083e+01	5.993164e+01
2.460000e-06	2.707984e-06	9.151199e-10	1.927218e+01	6.153387e+01
2.470000e-06	2.747376e-06	9.323979e-10	1.955252e+01	6.311197e+01
2.480000e-06	2.786711e-06	9.480350e-10	1.983246e+01	6.466560e+01
2.490000e-06	2.825807e-06	9.627950e-10	2.011070e+01	6.619461e+01
2.500000e-06	2.864521e-06	9.831912e-10	2.038622e+01	6.769900e+01
2.510000e-06	2.902945e-06	1.013708e-09	2.065967e+01	6.917895e+01
2.520000e-06	2.941215e-06	1.047952e-09	2.093204e+01	7.063476e+01
2.530000e-06	2.979338e-06	1.073647e-09	2.120335e+01	7.206687e+01
2.540000e-06	3.017215e-06	1.089372e-09	2.147291e+01	7.347583e+01
2.550000e-06	3.054937e-06	1.103350e-09	2.174137e+01	7.486230e+01
2.560000e-06	3.092593e-06	1.117233e-09	2.200936e+01	7.622697e+01
2.570000e-06	3.130011e-06	1.130226e-09	2.227566e+01	7.757062e+01
2.580000e-06	3.167133e-06	1.145172e-09	2.253985e+01	7.889404e+01
2.590000e-06	3.204022e-06	1.169906e-09	2.280238e+01	8.019804e+01
2.600000e-06	3.240591e-06	1.202326e-09	2.306264e+01	8.148340e+01
2.610000e-06	3.276885e-06	1.229777e-09	2.332093e+01	8.275088e+01
2.620000e-06	3.313033e-06	1.248148e-09	2.357819e+01	8.400116e+01
2.630000e-06	3.349075e-06	1.260050e-09	2.383469e+01	8.523487e+01
2.640000e-06	3.384994e-06	1.272865e-09	2.409032e+01	8.645255e+01
2.650000e-06	3.420740e-06	1.285274e-09	2.434472e+01	8.765465e+01
2.660000e-06	3.456340e-06	1.297411e-09	2.459808e+01	8.884148e+01
2.670000e-06	3.491790e-06	1.317235e-09	2.485037e+01	9.001327e+01
2.680000e-06	3.527027e-06	1.344367e-09	2.510114e+01	9.117010e+01
2.690000e-06	3.562018e-06	1.369050e-09	2.535017e+01	9.231196e+01
2.700000e-06	3.596733e-06	1.384363e-09	2.559722e+01	9.343870e+01
2.710000e-06	3.631021e-06	1.393083e-09	2.584124e+01	9.455007e+01
2.720000e-06	3.664744e-06	1.402515e-09	2.608125e+01	9.564572e+01
2.730000e-06	3.697953e-06	1.414268e-09	2.631759e+01	9.672519e+01
2.740000e-06	3.730666e-06	1.426322e-09	2.655040e+01	9.778796e+01
2.750000e-06	3.762986e-06	1.442501e-09	2.678041e+01	9.883345e+01
2.760000e-06	3.795101e-06	1.465661e-09	2.700897e+01	9.986103e+01
2.770000e-06	3.827089e-06	1.490920e-09	2.723662e+01	1.008700e+02
2.780000e-06	3.858957e-06	1.510074e-09	2.746342e+01	1.018598e+02
2.790000e-06	3.890665e-06	1.520461e-09	2.768908e+01	1.028296e+02
2.800000e-06	3.922173e-06	1.527759e-09	2.791331e+01	1.037790e+02
2.810000e-06	3.953430e-06	1.537284e-09	2.813576e+01	1.047072e+02
2.820000e-06	3.984379e-06	1.547185e-09	2.835602e+01	1.056139e+02
2.830000e-06	4.015117e-06	1.558038e-09	2.857478e+01	1.064985e+02
2.840000e-06	4.045623e-06	1.573402e-09	2.879189e+01	1.073607e+02
2.850000e-06	4.075740e-06	1.592928e-09	2.900622e+01	1.082004e+02
2.860000e-06	4.105522e-06	1.613279e-09	2.921817e+01	1.090173e+02
2.870000e-06	4.135115e-06	1.627987e-09	2.942878e+01	1.098116e+02
2.880000e-06	4.164491e-06	1.633906e-09	2.963784e+01	1.105834e+02
2.890000e-06	4.193571e-06	1.635935e-09	2.984480e+01	1.113329e+02
2.900000e-06	4.222288e-06	1.639550e-09	3.004917e+01	1.120606e+02
