# Temperatura_=_-1.1
# Concentracion g/m^3_=_4090.0
# C_Vs_to_Am_M_A/Vsm_=_65563218390.804596
# pendiente_HvsI_1/m_=_3716.3
# ordenada_HvsI_A/m_=_1297.0
# frecuencia_Hz_=_135073.35049191577

Tiempo_(s)	Campo_(V.s)	Magnetizacion_(V.s)	Campo_(kA/m)	Magnetizacion_(A/m)
0.000000e+00	-5.376860e-06	-2.654741e-09	-3.839139e+01	-1.690770e+02
1.000000e-08	-5.376946e-06	-2.660772e-09	-3.839200e+01	-1.690722e+02
2.000000e-08	-5.376764e-06	-2.665283e-09	-3.839070e+01	-1.690726e+02
3.000000e-08	-5.376337e-06	-2.665650e-09	-3.838766e+01	-1.690795e+02
4.000000e-08	-5.375458e-06	-2.663957e-09	-3.838138e+01	-1.690943e+02
5.000000e-08	-5.373934e-06	-2.662470e-09	-3.837050e+01	-1.691181e+02
6.000000e-08	-5.371751e-06	-2.665418e-09	-3.835492e+01	-1.691523e+02
7.000000e-08	-5.368892e-06	-2.678662e-09	-3.833450e+01	-1.691980e+02
8.000000e-08	-5.365419e-06	-2.660194e-09	-3.830970e+01	-1.692561e+02
9.000000e-08	-5.361493e-06	-2.613450e-09	-3.828167e+01	-1.693275e+02
1.000000e-07	-5.357351e-06	-2.644538e-09	-3.825209e+01	-1.694127e+02
1.100000e-07	-5.353080e-06	-2.728769e-09	-3.822160e+01	-1.695124e+02
1.200000e-07	-5.348525e-06	-2.681670e-09	-3.818908e+01	-1.696267e+02
1.300000e-07	-5.343646e-06	-2.591129e-09	-3.815424e+01	-1.697557e+02
1.400000e-07	-5.338413e-06	-2.596438e-09	-3.811688e+01	-1.698992e+02
1.500000e-07	-5.332745e-06	-2.725591e-09	-3.807641e+01	-1.700568e+02
1.600000e-07	-5.326678e-06	-2.685253e-09	-3.803308e+01	-1.702279e+02
1.700000e-07	-5.320185e-06	-2.584003e-09	-3.798672e+01	-1.704117e+02
1.800000e-07	-5.313261e-06	-2.624666e-09	-3.793728e+01	-1.706069e+02
1.900000e-07	-5.306134e-06	-2.743040e-09	-3.788640e+01	-1.708125e+02
2.000000e-07	-5.298803e-06	-2.693825e-09	-3.783405e+01	-1.710269e+02
2.100000e-07	-5.291224e-06	-2.610293e-09	-3.777994e+01	-1.712485e+02
2.200000e-07	-5.283404e-06	-2.683979e-09	-3.772411e+01	-1.714756e+02
2.300000e-07	-5.275276e-06	-2.738414e-09	-3.766607e+01	-1.717063e+02
2.400000e-07	-5.266617e-06	-2.662876e-09	-3.760424e+01	-1.719386e+02
2.500000e-07	-5.257295e-06	-2.630634e-09	-3.753768e+01	-1.721705e+02
2.600000e-07	-5.247406e-06	-2.736745e-09	-3.746708e+01	-1.723999e+02
2.700000e-07	-5.236884e-06	-2.722037e-09	-3.739195e+01	-1.726249e+02
2.800000e-07	-5.225795e-06	-2.629620e-09	-3.731277e+01	-1.728433e+02
2.900000e-07	-5.214327e-06	-2.655468e-09	-3.723089e+01	-1.730531e+02
3.000000e-07	-5.202566e-06	-2.747541e-09	-3.714691e+01	-1.732526e+02
3.100000e-07	-5.190453e-06	-2.675382e-09	-3.706042e+01	-1.734400e+02
3.200000e-07	-5.177902e-06	-2.625886e-09	-3.697081e+01	-1.736135e+02
3.300000e-07	-5.164872e-06	-2.691001e-09	-3.687777e+01	-1.737718e+02
3.400000e-07	-5.151553e-06	-2.727254e-09	-3.678267e+01	-1.739135e+02
3.500000e-07	-5.137904e-06	-2.661801e-09	-3.668522e+01	-1.740375e+02
3.600000e-07	-5.123778e-06	-2.683430e-09	-3.658436e+01	-1.741430e+02
3.700000e-07	-5.109170e-06	-2.706807e-09	-3.648006e+01	-1.742291e+02
3.800000e-07	-5.093981e-06	-2.673950e-09	-3.637161e+01	-1.742956e+02
3.900000e-07	-5.078163e-06	-2.659646e-09	-3.625866e+01	-1.743420e+02
4.000000e-07	-5.061922e-06	-2.697094e-09	-3.614270e+01	-1.743683e+02
4.100000e-07	-5.045407e-06	-2.658942e-09	-3.602478e+01	-1.743747e+02
4.200000e-07	-5.028588e-06	-2.636735e-09	-3.590469e+01	-1.743616e+02
4.300000e-07	-5.011500e-06	-2.685397e-09	-3.578268e+01	-1.743294e+02
4.400000e-07	-4.994057e-06	-2.684223e-09	-3.565814e+01	-1.742789e+02
4.500000e-07	-4.976222e-06	-2.626760e-09	-3.553079e+01	-1.742109e+02
4.600000e-07	-4.958145e-06	-2.639276e-09	-3.540172e+01	-1.741265e+02
4.700000e-07	-4.939716e-06	-2.680100e-09	-3.527013e+01	-1.740267e+02
4.800000e-07	-4.920818e-06	-2.660137e-09	-3.513520e+01	-1.739127e+02
4.900000e-07	-4.901524e-06	-2.643023e-09	-3.499744e+01	-1.737857e+02
5.000000e-07	-4.881887e-06	-2.646570e-09	-3.485723e+01	-1.736471e+02
5.100000e-07	-4.862072e-06	-2.646643e-09	-3.471575e+01	-1.734983e+02
5.200000e-07	-4.842107e-06	-2.641913e-09	-3.457320e+01	-1.733405e+02
5.300000e-07	-4.821943e-06	-2.642210e-09	-3.442922e+01	-1.731750e+02
5.400000e-07	-4.801419e-06	-2.620147e-09	-3.428268e+01	-1.730032e+02
5.500000e-07	-4.780408e-06	-2.629465e-09	-3.413265e+01	-1.728263e+02
5.600000e-07	-4.758991e-06	-2.651721e-09	-3.397973e+01	-1.726454e+02
5.700000e-07	-4.737278e-06	-2.648003e-09	-3.382470e+01	-1.724617e+02
5.800000e-07	-4.715317e-06	-2.617440e-09	-3.366790e+01	-1.722761e+02
5.900000e-07	-4.693138e-06	-2.615556e-09	-3.350954e+01	-1.720896e+02
6.000000e-07	-4.670658e-06	-2.613295e-09	-3.334903e+01	-1.719029e+02
6.100000e-07	-4.647773e-06	-2.608441e-09	-3.318563e+01	-1.717168e+02
6.200000e-07	-4.624559e-06	-2.592476e-09	-3.301988e+01	-1.715317e+02
6.300000e-07	-4.601058e-06	-2.588041e-09	-3.285208e+01	-1.713482e+02
6.400000e-07	-4.577292e-06	-2.596344e-09	-3.268239e+01	-1.711667e+02
6.500000e-07	-4.553325e-06	-2.613561e-09	-3.251126e+01	-1.709873e+02
6.600000e-07	-4.529134e-06	-2.600703e-09	-3.233853e+01	-1.708103e+02
6.700000e-07	-4.504646e-06	-2.581994e-09	-3.216369e+01	-1.706356e+02
6.800000e-07	-4.479775e-06	-2.577394e-09	-3.198610e+01	-1.704632e+02
6.900000e-07	-4.454519e-06	-2.580945e-09	-3.180577e+01	-1.702931e+02
7.000000e-07	-4.428741e-06	-2.569730e-09	-3.162171e+01	-1.701249e+02
7.100000e-07	-4.402507e-06	-2.559685e-09	-3.143440e+01	-1.699585e+02
7.200000e-07	-4.375798e-06	-2.560557e-09	-3.124369e+01	-1.697936e+02
7.300000e-07	-4.348569e-06	-2.572416e-09	-3.104928e+01	-1.696297e+02
7.400000e-07	-4.321009e-06	-2.573551e-09	-3.085250e+01	-1.694665e+02
7.500000e-07	-4.293227e-06	-2.557821e-09	-3.065413e+01	-1.693036e+02
7.600000e-07	-4.265286e-06	-2.543479e-09	-3.045463e+01	-1.691404e+02
7.700000e-07	-4.237176e-06	-2.542138e-09	-3.025392e+01	-1.689765e+02
7.800000e-07	-4.208766e-06	-2.543020e-09	-3.005107e+01	-1.688114e+02
7.900000e-07	-4.179962e-06	-2.534083e-09	-2.984541e+01	-1.686446e+02
8.000000e-07	-4.150901e-06	-2.529705e-09	-2.963790e+01	-1.684756e+02
8.100000e-07	-4.121594e-06	-2.530392e-09	-2.942865e+01	-1.683040e+02
8.200000e-07	-4.092023e-06	-2.538753e-09	-2.921751e+01	-1.681292e+02
8.300000e-07	-4.062203e-06	-2.538546e-09	-2.900459e+01	-1.679508e+02
8.400000e-07	-4.032083e-06	-2.530532e-09	-2.878953e+01	-1.677683e+02
8.500000e-07	-4.001723e-06	-2.519029e-09	-2.857276e+01	-1.675813e+02
8.600000e-07	-3.971142e-06	-2.517128e-09	-2.835441e+01	-1.673893e+02
8.700000e-07	-3.940288e-06	-2.513766e-09	-2.813411e+01	-1.671921e+02
8.800000e-07	-3.909146e-06	-2.508700e-09	-2.791174e+01	-1.669891e+02
8.900000e-07	-3.877750e-06	-2.502043e-09	-2.768758e+01	-1.667802e+02
9.000000e-07	-3.846167e-06	-2.507247e-09	-2.746207e+01	-1.665649e+02
9.100000e-07	-3.814378e-06	-2.509852e-09	-2.723509e+01	-1.663430e+02
9.200000e-07	-3.782393e-06	-2.504679e-09	-2.700672e+01	-1.661142e+02
9.300000e-07	-3.750180e-06	-2.492479e-09	-2.677671e+01	-1.658784e+02
9.400000e-07	-3.717732e-06	-2.488972e-09	-2.654503e+01	-1.656354e+02
9.500000e-07	-3.684998e-06	-2.486280e-09	-2.631130e+01	-1.653851e+02
9.600000e-07	-3.651964e-06	-2.481695e-09	-2.607544e+01	-1.651273e+02
9.700000e-07	-3.618574e-06	-2.475318e-09	-2.583703e+01	-1.648621e+02
9.800000e-07	-3.584647e-06	-2.473633e-09	-2.559479e+01	-1.645895e+02
9.900000e-07	-3.550228e-06	-2.471494e-09	-2.534903e+01	-1.643095e+02
1.000000e-06	-3.515399e-06	-2.466721e-09	-2.510035e+01	-1.640222e+02
1.010000e-06	-3.480221e-06	-2.459145e-09	-2.484918e+01	-1.637278e+02
1.020000e-06	-3.444812e-06	-2.452813e-09	-2.459635e+01	-1.634265e+02
1.030000e-06	-3.409233e-06	-2.447865e-09	-2.434231e+01	-1.631184e+02
1.040000e-06	-3.373559e-06	-2.442162e-09	-2.408760e+01	-1.628040e+02
1.050000e-06	-3.337752e-06	-2.432323e-09	-2.383193e+01	-1.624835e+02
1.060000e-06	-3.301744e-06	-2.422354e-09	-2.357482e+01	-1.621572e+02
1.070000e-06	-3.265531e-06	-2.416200e-09	-2.331626e+01	-1.618256e+02
1.080000e-06	-3.229151e-06	-2.408711e-09	-2.305650e+01	-1.614890e+02
1.090000e-06	-3.192529e-06	-2.400885e-09	-2.279502e+01	-1.611478e+02
1.100000e-06	-3.155581e-06	-2.392966e-09	-2.253121e+01	-1.608025e+02
1.110000e-06	-3.118391e-06	-2.388778e-09	-2.226566e+01	-1.604534e+02
1.120000e-06	-3.081075e-06	-2.384384e-09	-2.199922e+01	-1.601010e+02
1.130000e-06	-3.043560e-06	-2.379391e-09	-2.173137e+01	-1.597455e+02
1.140000e-06	-3.005785e-06	-2.371139e-09	-2.146165e+01	-1.593874e+02
1.150000e-06	-2.967860e-06	-2.367023e-09	-2.119086e+01	-1.590269e+02
1.160000e-06	-2.929704e-06	-2.362089e-09	-2.091842e+01	-1.586643e+02
1.170000e-06	-2.891349e-06	-2.355032e-09	-2.064456e+01	-1.582997e+02
1.180000e-06	-2.852798e-06	-2.343785e-09	-2.036930e+01	-1.579332e+02
1.190000e-06	-2.814029e-06	-2.336325e-09	-2.009249e+01	-1.575648e+02
1.200000e-06	-2.775110e-06	-2.331831e-09	-1.981460e+01	-1.571945e+02
1.210000e-06	-2.735856e-06	-2.327994e-09	-1.953432e+01	-1.568222e+02
1.220000e-06	-2.696215e-06	-2.320773e-09	-1.925128e+01	-1.564475e+02
1.230000e-06	-2.656529e-06	-2.315784e-09	-1.896792e+01	-1.560701e+02
1.240000e-06	-2.616884e-06	-2.310876e-09	-1.868485e+01	-1.556896e+02
1.250000e-06	-2.577120e-06	-2.303260e-09	-1.840093e+01	-1.553054e+02
1.260000e-06	-2.537277e-06	-2.292438e-09	-1.811644e+01	-1.549170e+02
1.270000e-06	-2.497316e-06	-2.281629e-09	-1.783112e+01	-1.545236e+02
1.280000e-06	-2.457233e-06	-2.274552e-09	-1.754492e+01	-1.541244e+02
1.290000e-06	-2.417074e-06	-2.270758e-09	-1.725819e+01	-1.537186e+02
1.300000e-06	-2.376806e-06	-2.266247e-09	-1.697067e+01	-1.533053e+02
1.310000e-06	-2.336330e-06	-2.259927e-09	-1.668166e+01	-1.528835e+02
1.320000e-06	-2.295626e-06	-2.254371e-09	-1.639103e+01	-1.524523e+02
1.330000e-06	-2.254742e-06	-2.248513e-09	-1.609911e+01	-1.520106e+02
1.340000e-06	-2.213650e-06	-2.240178e-09	-1.580571e+01	-1.515574e+02
1.350000e-06	-2.172279e-06	-2.227311e-09	-1.551032e+01	-1.510919e+02
1.360000e-06	-2.130644e-06	-2.213676e-09	-1.521304e+01	-1.506129e+02
1.370000e-06	-2.088746e-06	-2.205917e-09	-1.491388e+01	-1.501197e+02
1.380000e-06	-2.046545e-06	-2.201364e-09	-1.461256e+01	-1.496113e+02
1.390000e-06	-2.004155e-06	-2.190167e-09	-1.430990e+01	-1.490869e+02
1.400000e-06	-1.961636e-06	-2.177798e-09	-1.400630e+01	-1.485458e+02
1.410000e-06	-1.918830e-06	-2.169056e-09	-1.370066e+01	-1.479874e+02
1.420000e-06	-1.875762e-06	-2.161819e-09	-1.339315e+01	-1.474112e+02
1.430000e-06	-1.832562e-06	-2.152481e-09	-1.308470e+01	-1.468166e+02
1.440000e-06	-1.789178e-06	-2.142396e-09	-1.277494e+01	-1.462033e+02
1.450000e-06	-1.745629e-06	-2.132331e-09	-1.246399e+01	-1.455712e+02
1.460000e-06	-1.702026e-06	-2.123035e-09	-1.215266e+01	-1.449199e+02
1.470000e-06	-1.658324e-06	-2.109249e-09	-1.184062e+01	-1.442494e+02
1.480000e-06	-1.614490e-06	-2.094040e-09	-1.152764e+01	-1.435598e+02
1.490000e-06	-1.570631e-06	-2.083199e-09	-1.121449e+01	-1.428511e+02
1.500000e-06	-1.526697e-06	-2.076032e-09	-1.090079e+01	-1.421233e+02
1.510000e-06	-1.482677e-06	-2.066636e-09	-1.058648e+01	-1.413767e+02
1.520000e-06	-1.438595e-06	-2.053840e-09	-1.027173e+01	-1.406115e+02
1.530000e-06	-1.394422e-06	-2.041887e-09	-9.956332e+00	-1.398277e+02
1.540000e-06	-1.350145e-06	-2.030863e-09	-9.640191e+00	-1.390257e+02
1.550000e-06	-1.305809e-06	-2.015612e-09	-9.323628e+00	-1.382054e+02
1.560000e-06	-1.261463e-06	-1.997125e-09	-9.006990e+00	-1.373669e+02
1.570000e-06	-1.217077e-06	-1.984152e-09	-8.690065e+00	-1.365103e+02
1.580000e-06	-1.172615e-06	-1.975972e-09	-8.372604e+00	-1.356355e+02
1.590000e-06	-1.128041e-06	-1.965740e-09	-8.054339e+00	-1.347421e+02
1.600000e-06	-1.083312e-06	-1.949382e-09	-7.734973e+00	-1.338299e+02
1.610000e-06	-1.038523e-06	-1.931710e-09	-7.415174e+00	-1.328984e+02
1.620000e-06	-9.937069e-07	-1.918218e-09	-7.095180e+00	-1.319470e+02
1.630000e-06	-9.487250e-07	-1.903715e-09	-6.774005e+00	-1.309748e+02
1.640000e-06	-9.037465e-07	-1.884348e-09	-6.452853e+00	-1.299809e+02
1.650000e-06	-8.587745e-07	-1.865927e-09	-6.131747e+00	-1.289641e+02
1.660000e-06	-8.136984e-07	-1.853993e-09	-5.809899e+00	-1.279233e+02
1.670000e-06	-7.685555e-07	-1.842187e-09	-5.487574e+00	-1.268568e+02
1.680000e-06	-7.233366e-07	-1.821650e-09	-5.164705e+00	-1.257632e+02
1.690000e-06	-6.781004e-07	-1.796450e-09	-4.841714e+00	-1.246406e+02
1.700000e-06	-6.328035e-07	-1.777471e-09	-4.518289e+00	-1.234872e+02
1.710000e-06	-5.873443e-07	-1.761364e-09	-4.193705e+00	-1.223010e+02
1.720000e-06	-5.418706e-07	-1.740590e-09	-3.869018e+00	-1.210799e+02
1.730000e-06	-4.964666e-07	-1.718688e-09	-3.544828e+00	-1.198218e+02
1.740000e-06	-4.509779e-07	-1.701139e-09	-3.220033e+00	-1.185245e+02
1.750000e-06	-4.054516e-07	-1.687689e-09	-2.894971e+00	-1.171858e+02
1.760000e-06	-3.599461e-07	-1.670790e-09	-2.570056e+00	-1.158035e+02
1.770000e-06	-3.144222e-07	-1.645457e-09	-2.245010e+00	-1.143753e+02
1.780000e-06	-2.688251e-07	-1.618316e-09	-1.919442e+00	-1.128992e+02
1.790000e-06	-2.231765e-07	-1.595533e-09	-1.593505e+00	-1.113730e+02
1.800000e-06	-1.775229e-07	-1.572631e-09	-1.267534e+00	-1.097950e+02
1.810000e-06	-1.318823e-07	-1.546483e-09	-9.416543e-01	-1.081631e+02
1.820000e-06	-8.624628e-08	-1.520529e-09	-6.158082e-01	-1.064757e+02
1.830000e-06	-4.063292e-08	-1.498684e-09	-2.901237e-01	-1.047312e+02
1.840000e-06	4.986925e-09	-1.478353e-09	3.560721e-02	-1.029283e+02
1.850000e-06	5.068054e-08	-1.452343e-09	3.618648e-01	-1.010658e+02
1.860000e-06	9.632617e-08	-1.419728e-09	6.877798e-01	-9.914269e+01
1.870000e-06	1.418875e-07	-1.385773e-09	1.013093e+00	-9.715810e+01
1.880000e-06	1.874458e-07	-1.350532e-09	1.338385e+00	-9.511144e+01
1.890000e-06	2.330760e-07	-1.314403e-09	1.664189e+00	-9.300228e+01
1.900000e-06	2.787660e-07	-1.281464e-09	1.990421e+00	-9.083036e+01
1.910000e-06	3.244347e-07	-1.251078e-09	2.316500e+00	-8.859564e+01
1.920000e-06	3.700092e-07	-1.220625e-09	2.641908e+00	-8.629822e+01
1.930000e-06	4.155267e-07	-1.189001e-09	2.966908e+00	-8.393837e+01
1.940000e-06	4.611009e-07	-1.154619e-09	3.292313e+00	-8.151651e+01
1.950000e-06	5.066422e-07	-1.118116e-09	3.617483e+00	-7.903321e+01
1.960000e-06	5.520712e-07	-1.077881e-09	3.941851e+00	-7.648913e+01
1.970000e-06	5.973956e-07	-1.034504e-09	4.265473e+00	-7.388507e+01
1.980000e-06	6.426545e-07	-9.905643e-10	4.588626e+00	-7.122188e+01
1.990000e-06	6.878674e-07	-9.501481e-10	4.911451e+00	-6.850054e+01
2.000000e-06	7.329822e-07	-9.140021e-10	5.233577e+00	-6.572206e+01
2.010000e-06	7.780457e-07	-8.765599e-10	5.555335e+00	-6.288751e+01
2.020000e-06	8.230844e-07	-8.339564e-10	5.876916e+00	-5.999802e+01
2.030000e-06	8.681139e-07	-7.901012e-10	6.198432e+00	-5.705475e+01
2.040000e-06	9.131198e-07	-7.478779e-10	6.519779e+00	-5.405891e+01
2.050000e-06	9.580202e-07	-7.044010e-10	6.840373e+00	-5.101174e+01
2.060000e-06	1.002759e-06	-6.573147e-10	7.159814e+00	-4.791450e+01
2.070000e-06	1.047469e-06	-6.088336e-10	7.479045e+00	-4.476851e+01
2.080000e-06	1.092211e-06	-5.642860e-10	7.798513e+00	-4.157515e+01
2.090000e-06	1.136774e-06	-5.225142e-10	8.116697e+00	-3.833583e+01
2.100000e-06	1.181181e-06	-4.766674e-10	8.433768e+00	-3.505204e+01
2.110000e-06	1.225538e-06	-4.263560e-10	8.750484e+00	-3.172535e+01
2.120000e-06	1.269802e-06	-3.776592e-10	9.066529e+00	-2.835742e+01
2.130000e-06	1.314018e-06	-3.281948e-10	9.382240e+00	-2.495005e+01
2.140000e-06	1.358201e-06	-2.728644e-10	9.697712e+00	-2.150513e+01
2.150000e-06	1.402285e-06	-2.147980e-10	1.001247e+01	-1.802471e+01
2.160000e-06	1.446313e-06	-1.623994e-10	1.032684e+01	-1.451099e+01
2.170000e-06	1.490309e-06	-1.157624e-10	1.064098e+01	-1.096637e+01
2.180000e-06	1.534286e-06	-6.579525e-11	1.095497e+01	-7.393389e+00
2.190000e-06	1.578227e-06	-1.073796e-11	1.126872e+01	-3.794821e+00
2.200000e-06	1.622081e-06	4.285656e-11	1.158184e+01	-1.736269e-01
2.210000e-06	1.665872e-06	9.483156e-11	1.189452e+01	3.467025e+00
2.220000e-06	1.709600e-06	1.502975e-10	1.220673e+01	7.123756e+00
2.230000e-06	1.753258e-06	2.091538e-10	1.251846e+01	1.079298e+01
2.240000e-06	1.796864e-06	2.652053e-10	1.282981e+01	1.447092e+01
2.250000e-06	1.840330e-06	3.159727e-10	1.314016e+01	1.815359e+01
2.260000e-06	1.883586e-06	3.671648e-10	1.344902e+01	2.183685e+01
2.270000e-06	1.926671e-06	4.221431e-10	1.375665e+01	2.551641e+01
2.280000e-06	1.969552e-06	4.759869e-10	1.406283e+01	2.918782e+01
2.290000e-06	2.012205e-06	5.279878e-10	1.436738e+01	3.284656e+01
2.300000e-06	2.054677e-06	5.833363e-10	1.467063e+01	3.648802e+01
2.310000e-06	2.096867e-06	6.407023e-10	1.497187e+01	4.010753e+01
2.320000e-06	2.138692e-06	6.954417e-10	1.527051e+01	4.370044e+01
2.330000e-06	2.180179e-06	7.473606e-10	1.556672e+01	4.726212e+01
2.340000e-06	2.221358e-06	7.996051e-10	1.586075e+01	5.078802e+01
2.350000e-06	2.262277e-06	8.542822e-10	1.615292e+01	5.427367e+01
2.360000e-06	2.302970e-06	9.065997e-10	1.644347e+01	5.771478e+01
2.370000e-06	2.343474e-06	9.519121e-10	1.673267e+01	6.110721e+01
2.380000e-06	2.383799e-06	9.947571e-10	1.702059e+01	6.444707e+01
2.390000e-06	2.424024e-06	1.040428e-09	1.730781e+01	6.773072e+01
2.400000e-06	2.464200e-06	1.086609e-09	1.759467e+01	7.095478e+01
2.410000e-06	2.504226e-06	1.129327e-09	1.788046e+01	7.411621e+01
2.420000e-06	2.544139e-06	1.172819e-09	1.816545e+01	7.721229e+01
2.430000e-06	2.584011e-06	1.222224e-09	1.845013e+01	8.024066e+01
2.440000e-06	2.623739e-06	1.273344e-09	1.873380e+01	8.319934e+01
2.450000e-06	2.663277e-06	1.317391e-09	1.901610e+01	8.608671e+01
2.460000e-06	2.702664e-06	1.355360e-09	1.929733e+01	8.890153e+01
2.470000e-06	2.741920e-06	1.391969e-09	1.957762e+01	9.164296e+01
2.480000e-06	2.781037e-06	1.427087e-09	1.985692e+01	9.431052e+01
2.490000e-06	2.819947e-06	1.459206e-09	2.013474e+01	9.690408e+01
2.500000e-06	2.858630e-06	1.492171e-09	2.041094e+01	9.942387e+01
2.510000e-06	2.897100e-06	1.531859e-09	2.068562e+01	1.018704e+02
2.520000e-06	2.935306e-06	1.575156e-09	2.095842e+01	1.042446e+02
2.530000e-06	2.973208e-06	1.611199e-09	2.122904e+01	1.065475e+02
2.540000e-06	3.010953e-06	1.640916e-09	2.149854e+01	1.087805e+02
2.550000e-06	3.048669e-06	1.672547e-09	2.176785e+01	1.109451e+02
2.560000e-06	3.086186e-06	1.704474e-09	2.203572e+01	1.130430e+02
2.570000e-06	3.123388e-06	1.730266e-09	2.230135e+01	1.150761e+02
2.580000e-06	3.160336e-06	1.751379e-09	2.256516e+01	1.170462e+02
2.590000e-06	3.197063e-06	1.775774e-09	2.282739e+01	1.189554e+02
2.600000e-06	3.233592e-06	1.805346e-09	2.308821e+01	1.208057e+02
2.610000e-06	3.269896e-06	1.835185e-09	2.334743e+01	1.225991e+02
2.620000e-06	3.306005e-06	1.863149e-09	2.360525e+01	1.243374e+02
2.630000e-06	3.341993e-06	1.891617e-09	2.386221e+01	1.260226e+02
2.640000e-06	3.377830e-06	1.918227e-09	2.411809e+01	1.276565e+02
2.650000e-06	3.413549e-06	1.938560e-09	2.437312e+01	1.292406e+02
2.660000e-06	3.449128e-06	1.953055e-09	2.462716e+01	1.307767e+02
2.670000e-06	3.484419e-06	1.966758e-09	2.487915e+01	1.322660e+02
2.680000e-06	3.519345e-06	1.984513e-09	2.512853e+01	1.337098e+02
2.690000e-06	3.553944e-06	2.006175e-09	2.537556e+01	1.351092e+02
2.700000e-06	3.588224e-06	2.027669e-09	2.562033e+01	1.364652e+02
2.710000e-06	3.621908e-06	2.049565e-09	2.586084e+01	1.377787e+02
2.720000e-06	3.655049e-06	2.072676e-09	2.609747e+01	1.390502e+02
2.730000e-06	3.687978e-06	2.093592e-09	2.633258e+01	1.402803e+02
2.740000e-06	3.720635e-06	2.107830e-09	2.656576e+01	1.414696e+02
2.750000e-06	3.752909e-06	2.119470e-09	2.679620e+01	1.426185e+02
2.760000e-06	3.784933e-06	2.134647e-09	2.702485e+01	1.437273e+02
2.770000e-06	3.816825e-06	2.152450e-09	2.725256e+01	1.447963e+02
2.780000e-06	3.848601e-06	2.168665e-09	2.747945e+01	1.458258e+02
2.790000e-06	3.880279e-06	2.182521e-09	2.770563e+01	1.468161e+02
2.800000e-06	3.911767e-06	2.197500e-09	2.793046e+01	1.477676e+02
2.810000e-06	3.942983e-06	2.215108e-09	2.815334e+01	1.486806e+02
2.820000e-06	3.973879e-06	2.230098e-09	2.837395e+01	1.495557e+02
2.830000e-06	4.004432e-06	2.237245e-09	2.859210e+01	1.503933e+02
2.840000e-06	4.034729e-06	2.242125e-09	2.880842e+01	1.511941e+02
2.850000e-06	4.064793e-06	2.251752e-09	2.902309e+01	1.519588e+02
2.860000e-06	4.094572e-06	2.264202e-09	2.923571e+01	1.526884e+02
2.870000e-06	4.124027e-06	2.274081e-09	2.944602e+01	1.533838e+02
2.880000e-06	4.153175e-06	2.281644e-09	2.965414e+01	1.540461e+02
2.890000e-06	4.182034e-06	2.289937e-09	2.986020e+01	1.546767e+02
2.900000e-06	4.210581e-06	2.299282e-09	3.006403e+01	1.552767e+02
