# Temperatura_=_18.17
# Concentracion g/m^3_=_4090.0
# C_Vs_to_Am_M_A/Vsm_=_65563218390.804596
# pendiente_HvsI_1/m_=_3716.3
# ordenada_HvsI_A/m_=_1297.0
# frecuencia_Hz_=_135080.8810674335

Tiempo_(s)	Campo_(V.s)	Magnetizacion_(V.s)	Campo_(kA/m)	Magnetizacion_(A/m)
0.000000e+00	-5.426745e-06	-2.723309e-09	-3.840237e+01	-1.769148e+02
1.000000e-08	-5.426777e-06	-2.719043e-09	-3.840259e+01	-1.768451e+02
2.000000e-08	-5.426664e-06	-2.717332e-09	-3.840179e+01	-1.767758e+02
3.000000e-08	-5.426169e-06	-2.715526e-09	-3.839829e+01	-1.767086e+02
4.000000e-08	-5.425168e-06	-2.709502e-09	-3.839120e+01	-1.766455e+02
5.000000e-08	-5.423655e-06	-2.707777e-09	-3.838049e+01	-1.765883e+02
6.000000e-08	-5.421443e-06	-2.724678e-09	-3.836484e+01	-1.765389e+02
7.000000e-08	-5.418580e-06	-2.727613e-09	-3.834458e+01	-1.764989e+02
8.000000e-08	-5.415208e-06	-2.681906e-09	-3.832073e+01	-1.764701e+02
9.000000e-08	-5.411337e-06	-2.660858e-09	-3.829333e+01	-1.764539e+02
1.000000e-07	-5.407009e-06	-2.730931e-09	-3.826270e+01	-1.764515e+02
1.100000e-07	-5.402527e-06	-2.743427e-09	-3.823098e+01	-1.764641e+02
1.200000e-07	-5.397995e-06	-2.691911e-09	-3.819891e+01	-1.764923e+02
1.300000e-07	-5.393216e-06	-2.604104e-09	-3.816510e+01	-1.765369e+02
1.400000e-07	-5.387995e-06	-2.723844e-09	-3.812815e+01	-1.765980e+02
1.500000e-07	-5.382305e-06	-2.757178e-09	-3.808789e+01	-1.766757e+02
1.600000e-07	-5.376305e-06	-2.677280e-09	-3.804542e+01	-1.767696e+02
1.700000e-07	-5.369927e-06	-2.617870e-09	-3.800029e+01	-1.768791e+02
1.800000e-07	-5.363060e-06	-2.703195e-09	-3.795170e+01	-1.770034e+02
1.900000e-07	-5.355808e-06	-2.768881e-09	-3.790038e+01	-1.771412e+02
2.000000e-07	-5.348403e-06	-2.690232e-09	-3.784798e+01	-1.772911e+02
2.100000e-07	-5.340665e-06	-2.686066e-09	-3.779322e+01	-1.774514e+02
2.200000e-07	-5.332624e-06	-2.735156e-09	-3.773631e+01	-1.776203e+02
2.300000e-07	-5.324324e-06	-2.764287e-09	-3.767758e+01	-1.777956e+02
2.400000e-07	-5.315501e-06	-2.702566e-09	-3.761515e+01	-1.779750e+02
2.500000e-07	-5.306154e-06	-2.748212e-09	-3.754900e+01	-1.781564e+02
2.600000e-07	-5.296113e-06	-2.786587e-09	-3.747794e+01	-1.783371e+02
2.700000e-07	-5.285382e-06	-2.788829e-09	-3.740201e+01	-1.785147e+02
2.800000e-07	-5.274203e-06	-2.746213e-09	-3.732290e+01	-1.786869e+02
2.900000e-07	-5.262718e-06	-2.800972e-09	-3.724163e+01	-1.788510e+02
3.000000e-07	-5.250839e-06	-2.799034e-09	-3.715757e+01	-1.790049e+02
3.100000e-07	-5.238533e-06	-2.756265e-09	-3.707048e+01	-1.791462e+02
3.200000e-07	-5.225835e-06	-2.744064e-09	-3.698063e+01	-1.792729e+02
3.300000e-07	-5.212765e-06	-2.799161e-09	-3.688813e+01	-1.793831e+02
3.400000e-07	-5.199346e-06	-2.781049e-09	-3.679318e+01	-1.794751e+02
3.500000e-07	-5.185591e-06	-2.766020e-09	-3.669584e+01	-1.795474e+02
3.600000e-07	-5.171361e-06	-2.771612e-09	-3.659514e+01	-1.795990e+02
3.700000e-07	-5.156593e-06	-2.784952e-09	-3.649063e+01	-1.796287e+02
3.800000e-07	-5.141335e-06	-2.756149e-09	-3.638266e+01	-1.796361e+02
3.900000e-07	-5.125475e-06	-2.764532e-09	-3.627043e+01	-1.796207e+02
4.000000e-07	-5.109050e-06	-2.762441e-09	-3.615420e+01	-1.795823e+02
4.100000e-07	-5.092295e-06	-2.743996e-09	-3.603563e+01	-1.795212e+02
4.200000e-07	-5.075282e-06	-2.748157e-09	-3.591524e+01	-1.794378e+02
4.300000e-07	-5.057943e-06	-2.766837e-09	-3.579254e+01	-1.793327e+02
4.400000e-07	-5.040361e-06	-2.758944e-09	-3.566812e+01	-1.792068e+02
4.500000e-07	-5.022485e-06	-2.725223e-09	-3.554162e+01	-1.790612e+02
4.600000e-07	-5.004179e-06	-2.744758e-09	-3.541208e+01	-1.788971e+02
4.700000e-07	-4.985486e-06	-2.751100e-09	-3.527979e+01	-1.787160e+02
4.800000e-07	-4.966374e-06	-2.744937e-09	-3.514455e+01	-1.785192e+02
4.900000e-07	-4.946941e-06	-2.722079e-09	-3.500703e+01	-1.783084e+02
5.000000e-07	-4.927281e-06	-2.741129e-09	-3.486791e+01	-1.780852e+02
5.100000e-07	-4.907381e-06	-2.733709e-09	-3.472709e+01	-1.778512e+02
5.200000e-07	-4.887321e-06	-2.734767e-09	-3.458513e+01	-1.776081e+02
5.300000e-07	-4.866969e-06	-2.715922e-09	-3.444111e+01	-1.773573e+02
5.400000e-07	-4.846144e-06	-2.719194e-09	-3.429374e+01	-1.771005e+02
5.500000e-07	-4.824976e-06	-2.709665e-09	-3.414394e+01	-1.768389e+02
5.600000e-07	-4.803572e-06	-2.725068e-09	-3.399248e+01	-1.765740e+02
5.700000e-07	-4.781794e-06	-2.710413e-09	-3.383837e+01	-1.763068e+02
5.800000e-07	-4.759688e-06	-2.699523e-09	-3.368193e+01	-1.760384e+02
5.900000e-07	-4.737297e-06	-2.690656e-09	-3.352348e+01	-1.757695e+02
6.000000e-07	-4.714520e-06	-2.706294e-09	-3.336230e+01	-1.755010e+02
6.100000e-07	-4.691392e-06	-2.691402e-09	-3.319864e+01	-1.752333e+02
6.200000e-07	-4.667989e-06	-2.675178e-09	-3.303303e+01	-1.749668e+02
6.300000e-07	-4.644347e-06	-2.666572e-09	-3.286572e+01	-1.747016e+02
6.400000e-07	-4.620488e-06	-2.675285e-09	-3.269688e+01	-1.744378e+02
6.500000e-07	-4.596419e-06	-2.668521e-09	-3.252656e+01	-1.741753e+02
6.600000e-07	-4.572036e-06	-2.661323e-09	-3.235401e+01	-1.739139e+02
6.700000e-07	-4.547236e-06	-2.654419e-09	-3.217852e+01	-1.736532e+02
6.800000e-07	-4.521980e-06	-2.653782e-09	-3.199979e+01	-1.733927e+02
6.900000e-07	-4.496264e-06	-2.653606e-09	-3.181781e+01	-1.731320e+02
7.000000e-07	-4.470022e-06	-2.644100e-09	-3.163211e+01	-1.728704e+02
7.100000e-07	-4.443149e-06	-2.631003e-09	-3.144195e+01	-1.726073e+02
7.200000e-07	-4.415791e-06	-2.623637e-09	-3.124834e+01	-1.723420e+02
7.300000e-07	-4.388219e-06	-2.623812e-09	-3.105323e+01	-1.720740e+02
7.400000e-07	-4.360542e-06	-2.612681e-09	-3.085738e+01	-1.718025e+02
7.500000e-07	-4.332692e-06	-2.604883e-09	-3.066029e+01	-1.715269e+02
7.600000e-07	-4.304676e-06	-2.597431e-09	-3.046204e+01	-1.712466e+02
7.700000e-07	-4.276370e-06	-2.605275e-09	-3.026173e+01	-1.709611e+02
7.800000e-07	-4.247708e-06	-2.602761e-09	-3.005891e+01	-1.706699e+02
7.900000e-07	-4.218747e-06	-2.600506e-09	-2.985397e+01	-1.703726e+02
8.000000e-07	-4.189513e-06	-2.586373e-09	-2.964709e+01	-1.700689e+02
8.100000e-07	-4.160023e-06	-2.581883e-09	-2.943841e+01	-1.697584e+02
8.200000e-07	-4.130271e-06	-2.571333e-09	-2.922786e+01	-1.694411e+02
8.300000e-07	-4.100230e-06	-2.566143e-09	-2.901528e+01	-1.691168e+02
8.400000e-07	-4.069829e-06	-2.557081e-09	-2.880015e+01	-1.687854e+02
8.500000e-07	-4.039116e-06	-2.563080e-09	-2.858280e+01	-1.684470e+02
8.600000e-07	-4.008151e-06	-2.562087e-09	-2.836368e+01	-1.681017e+02
8.700000e-07	-3.976973e-06	-2.557876e-09	-2.814305e+01	-1.677496e+02
8.800000e-07	-3.945614e-06	-2.540275e-09	-2.792114e+01	-1.673908e+02
8.900000e-07	-3.914040e-06	-2.532030e-09	-2.769771e+01	-1.670256e+02
9.000000e-07	-3.882268e-06	-2.523763e-09	-2.747287e+01	-1.666542e+02
9.100000e-07	-3.850325e-06	-2.518738e-09	-2.724683e+01	-1.662769e+02
9.200000e-07	-3.818139e-06	-2.510512e-09	-2.701906e+01	-1.658938e+02
9.300000e-07	-3.785606e-06	-2.511951e-09	-2.678884e+01	-1.655053e+02
9.400000e-07	-3.752721e-06	-2.515086e-09	-2.655613e+01	-1.651115e+02
9.500000e-07	-3.719522e-06	-2.513424e-09	-2.632120e+01	-1.647127e+02
9.600000e-07	-3.685948e-06	-2.501159e-09	-2.608361e+01	-1.643091e+02
9.700000e-07	-3.651919e-06	-2.489417e-09	-2.584281e+01	-1.639008e+02
9.800000e-07	-3.617452e-06	-2.480015e-09	-2.559890e+01	-1.634880e+02
9.900000e-07	-3.582517e-06	-2.472393e-09	-2.535169e+01	-1.630708e+02
1.000000e-06	-3.547219e-06	-2.469072e-09	-2.510189e+01	-1.626492e+02
1.010000e-06	-3.511786e-06	-2.468795e-09	-2.485115e+01	-1.622233e+02
1.020000e-06	-3.476231e-06	-2.470564e-09	-2.459955e+01	-1.617931e+02
1.030000e-06	-3.440510e-06	-2.464359e-09	-2.434677e+01	-1.613586e+02
1.040000e-06	-3.404620e-06	-2.454185e-09	-2.409280e+01	-1.609197e+02
1.050000e-06	-3.368574e-06	-2.439546e-09	-2.383772e+01	-1.604763e+02
1.060000e-06	-3.332394e-06	-2.429816e-09	-2.358169e+01	-1.600284e+02
1.070000e-06	-3.295954e-06	-2.419474e-09	-2.332382e+01	-1.595759e+02
1.080000e-06	-3.259225e-06	-2.414311e-09	-2.306391e+01	-1.591187e+02
1.090000e-06	-3.222266e-06	-2.406796e-09	-2.280236e+01	-1.586566e+02
1.100000e-06	-3.185037e-06	-2.402617e-09	-2.253892e+01	-1.581896e+02
1.110000e-06	-3.147562e-06	-2.394946e-09	-2.227372e+01	-1.577176e+02
1.120000e-06	-3.109903e-06	-2.390058e-09	-2.200723e+01	-1.572404e+02
1.130000e-06	-3.072064e-06	-2.378890e-09	-2.173946e+01	-1.567579e+02
1.140000e-06	-3.033991e-06	-2.368511e-09	-2.147004e+01	-1.562700e+02
1.150000e-06	-2.995679e-06	-2.357210e-09	-2.119892e+01	-1.557767e+02
1.160000e-06	-2.957193e-06	-2.349071e-09	-2.092658e+01	-1.552777e+02
1.170000e-06	-2.918550e-06	-2.336951e-09	-2.065312e+01	-1.547731e+02
1.180000e-06	-2.879698e-06	-2.327500e-09	-2.037819e+01	-1.542628e+02
1.190000e-06	-2.840585e-06	-2.318414e-09	-2.010140e+01	-1.537465e+02
1.200000e-06	-2.801194e-06	-2.310901e-09	-1.982265e+01	-1.532241e+02
1.210000e-06	-2.761689e-06	-2.298576e-09	-1.954309e+01	-1.526956e+02
1.220000e-06	-2.722125e-06	-2.286223e-09	-1.926312e+01	-1.521606e+02
1.230000e-06	-2.682489e-06	-2.273549e-09	-1.898264e+01	-1.516191e+02
1.240000e-06	-2.642760e-06	-2.264526e-09	-1.870150e+01	-1.510707e+02
1.250000e-06	-2.602881e-06	-2.256481e-09	-1.841929e+01	-1.505151e+02
1.260000e-06	-2.562853e-06	-2.245035e-09	-1.813603e+01	-1.499520e+02
1.270000e-06	-2.522708e-06	-2.232412e-09	-1.785194e+01	-1.493811e+02
1.280000e-06	-2.482369e-06	-2.222514e-09	-1.756649e+01	-1.488018e+02
1.290000e-06	-2.441783e-06	-2.212686e-09	-1.727928e+01	-1.482137e+02
1.300000e-06	-2.401028e-06	-2.199223e-09	-1.699088e+01	-1.476162e+02
1.310000e-06	-2.360037e-06	-2.186874e-09	-1.670080e+01	-1.470088e+02
1.320000e-06	-2.318741e-06	-2.176820e-09	-1.640857e+01	-1.463907e+02
1.330000e-06	-2.277166e-06	-2.167009e-09	-1.611437e+01	-1.457614e+02
1.340000e-06	-2.235215e-06	-2.153134e-09	-1.581750e+01	-1.451201e+02
1.350000e-06	-2.193008e-06	-2.137937e-09	-1.551882e+01	-1.444660e+02
1.360000e-06	-2.150651e-06	-2.123905e-09	-1.521908e+01	-1.437983e+02
1.370000e-06	-2.108004e-06	-2.114684e-09	-1.491729e+01	-1.431163e+02
1.380000e-06	-2.065177e-06	-2.099973e-09	-1.461422e+01	-1.424192e+02
1.390000e-06	-2.022173e-06	-2.083463e-09	-1.430991e+01	-1.417062e+02
1.400000e-06	-1.978943e-06	-2.070652e-09	-1.400399e+01	-1.409764e+02
1.410000e-06	-1.935570e-06	-2.061471e-09	-1.369706e+01	-1.402291e+02
1.420000e-06	-1.892111e-06	-2.047622e-09	-1.338953e+01	-1.394636e+02
1.430000e-06	-1.848572e-06	-2.032919e-09	-1.308142e+01	-1.386791e+02
1.440000e-06	-1.804945e-06	-2.019576e-09	-1.277270e+01	-1.378750e+02
1.450000e-06	-1.761218e-06	-2.009245e-09	-1.246326e+01	-1.370507e+02
1.460000e-06	-1.717332e-06	-1.992943e-09	-1.215270e+01	-1.362055e+02
1.470000e-06	-1.673344e-06	-1.971378e-09	-1.184142e+01	-1.353390e+02
1.480000e-06	-1.629351e-06	-1.952430e-09	-1.153010e+01	-1.344507e+02
1.490000e-06	-1.585283e-06	-1.939938e-09	-1.121825e+01	-1.335401e+02
1.500000e-06	-1.541087e-06	-1.928582e-09	-1.090551e+01	-1.326069e+02
1.510000e-06	-1.496785e-06	-1.915792e-09	-1.059200e+01	-1.316507e+02
1.520000e-06	-1.452385e-06	-1.901563e-09	-1.027781e+01	-1.306713e+02
1.530000e-06	-1.407971e-06	-1.890873e-09	-9.963508e+00	-1.296682e+02
1.540000e-06	-1.363469e-06	-1.879577e-09	-9.648589e+00	-1.286413e+02
1.550000e-06	-1.318815e-06	-1.862591e-09	-9.332594e+00	-1.275902e+02
1.560000e-06	-1.274068e-06	-1.841380e-09	-9.015942e+00	-1.265146e+02
1.570000e-06	-1.229251e-06	-1.825202e-09	-8.698794e+00	-1.254143e+02
1.580000e-06	-1.184374e-06	-1.814133e-09	-8.381224e+00	-1.242886e+02
1.590000e-06	-1.139406e-06	-1.799333e-09	-8.063004e+00	-1.231374e+02
1.600000e-06	-1.094331e-06	-1.781277e-09	-7.744035e+00	-1.219599e+02
1.610000e-06	-1.049172e-06	-1.764674e-09	-7.424464e+00	-1.207555e+02
1.620000e-06	-1.003889e-06	-1.748439e-09	-7.104018e+00	-1.195237e+02
1.630000e-06	-9.585094e-07	-1.727128e-09	-6.782893e+00	-1.182634e+02
1.640000e-06	-9.130515e-07	-1.703648e-09	-6.461209e+00	-1.169737e+02
1.650000e-06	-8.675015e-07	-1.685333e-09	-6.138875e+00	-1.156535e+02
1.660000e-06	-8.219544e-07	-1.672545e-09	-5.816561e+00	-1.143017e+02
1.670000e-06	-7.764024e-07	-1.655996e-09	-5.494212e+00	-1.129168e+02
1.680000e-06	-7.307777e-07	-1.631882e-09	-5.171349e+00	-1.114973e+02
1.690000e-06	-6.851497e-07	-1.604502e-09	-4.848462e+00	-1.100416e+02
1.700000e-06	-6.395164e-07	-1.581454e-09	-4.525538e+00	-1.085480e+02
1.710000e-06	-5.938004e-07	-1.557512e-09	-4.202029e+00	-1.070147e+02
1.720000e-06	-5.479896e-07	-1.529939e-09	-3.877848e+00	-1.054396e+02
1.730000e-06	-5.021376e-07	-1.503567e-09	-3.553377e+00	-1.038208e+02
1.740000e-06	-4.562887e-07	-1.484667e-09	-3.228928e+00	-1.021562e+02
1.750000e-06	-4.104124e-07	-1.464742e-09	-2.904283e+00	-1.004437e+02
1.760000e-06	-3.644555e-07	-1.436251e-09	-2.579069e+00	-9.868121e+01
1.770000e-06	-3.184381e-07	-1.402532e-09	-2.253428e+00	-9.686666e+01
1.780000e-06	-2.724348e-07	-1.372812e-09	-1.927885e+00	-9.499803e+01
1.790000e-06	-2.264615e-07	-1.346142e-09	-1.602555e+00	-9.307335e+01
1.800000e-06	-1.804889e-07	-1.315308e-09	-1.277230e+00	-9.109078e+01
1.810000e-06	-1.344320e-07	-1.282100e-09	-9.513080e-01	-8.904861e+01
1.820000e-06	-8.838556e-08	-1.252775e-09	-6.254605e-01	-8.694530e+01
1.830000e-06	-4.237330e-08	-1.224520e-09	-2.998547e-01	-8.477948e+01
1.840000e-06	3.647412e-09	-1.191958e-09	2.581091e-02	-8.255002e+01
1.850000e-06	4.961319e-08	-1.151605e-09	3.510878e-01	-8.025599e+01
1.860000e-06	9.556297e-08	-1.109926e-09	6.762514e-01	-7.789674e+01
1.870000e-06	1.415464e-07	-1.073722e-09	1.001653e+00	-7.547187e+01
1.880000e-06	1.875597e-07	-1.037685e-09	1.327266e+00	-7.298128e+01
1.890000e-06	2.335936e-07	-9.979902e-10	1.653025e+00	-7.042514e+01
1.900000e-06	2.795731e-07	-9.583675e-10	1.978399e+00	-6.780392e+01
1.910000e-06	3.254990e-07	-9.216552e-10	2.303394e+00	-6.511839e+01
1.920000e-06	3.713880e-07	-8.841469e-10	2.628127e+00	-6.236961e+01
1.930000e-06	4.172501e-07	-8.403044e-10	2.952670e+00	-5.955892e+01
1.940000e-06	4.631715e-07	-7.942361e-10	3.277633e+00	-5.668794e+01
1.950000e-06	5.090799e-07	-7.536546e-10	3.602504e+00	-5.375857e+01
1.960000e-06	5.548603e-07	-7.149572e-10	3.926469e+00	-5.077291e+01
1.970000e-06	6.005953e-07	-6.702340e-10	4.250113e+00	-4.773333e+01
1.980000e-06	6.462467e-07	-6.190158e-10	4.573165e+00	-4.464238e+01
1.990000e-06	6.918707e-07	-5.683571e-10	4.896023e+00	-4.150281e+01
2.000000e-06	7.375019e-07	-5.212879e-10	5.218933e+00	-3.831750e+01
2.010000e-06	7.830262e-07	-4.729486e-10	5.541085e+00	-3.508949e+01
2.020000e-06	8.285364e-07	-4.206106e-10	5.863138e+00	-3.182191e+01
2.030000e-06	8.740355e-07	-3.719282e-10	6.185113e+00	-2.851796e+01
2.040000e-06	9.193840e-07	-3.259202e-10	6.506021e+00	-2.518092e+01
2.050000e-06	9.645306e-07	-2.785826e-10	6.825501e+00	-2.181408e+01
2.060000e-06	1.009682e-06	-2.276673e-10	7.145017e+00	-1.842075e+01
2.070000e-06	1.054853e-06	-1.754265e-10	7.464665e+00	-1.500423e+01
2.080000e-06	1.099906e-06	-1.244849e-10	7.783482e+00	-1.156778e+01
2.090000e-06	1.144867e-06	-7.276391e-11	8.101649e+00	-8.114630e+00
2.100000e-06	1.189675e-06	-2.120727e-11	8.418737e+00	-4.647943e+00
2.110000e-06	1.234414e-06	2.764685e-11	8.735328e+00	-1.170815e+00
2.120000e-06	1.279093e-06	7.568118e-11	9.051504e+00	2.313731e+00
2.130000e-06	1.323670e-06	1.257792e-10	9.366949e+00	5.802754e+00
2.140000e-06	1.368200e-06	1.803091e-10	9.682071e+00	9.293392e+00
2.150000e-06	1.412620e-06	2.351388e-10	9.996409e+00	1.278287e+01
2.160000e-06	1.456905e-06	2.854538e-10	1.030979e+01	1.626849e+01
2.170000e-06	1.501083e-06	3.354895e-10	1.062241e+01	1.974762e+01
2.180000e-06	1.545251e-06	3.894826e-10	1.093497e+01	2.321772e+01
2.190000e-06	1.589358e-06	4.426341e-10	1.124710e+01	2.667629e+01
2.200000e-06	1.633413e-06	4.908430e-10	1.155885e+01	3.012090e+01
2.210000e-06	1.677430e-06	5.395853e-10	1.187033e+01	3.354916e+01
2.220000e-06	1.721362e-06	5.925067e-10	1.218122e+01	3.695872e+01
2.230000e-06	1.765238e-06	6.451233e-10	1.249171e+01	4.034727e+01
2.240000e-06	1.809042e-06	6.924691e-10	1.280168e+01	4.371251e+01
2.250000e-06	1.852723e-06	7.375767e-10	1.311080e+01	4.705216e+01
2.260000e-06	1.896286e-06	7.853544e-10	1.341907e+01	5.036399e+01
2.270000e-06	1.939732e-06	8.346379e-10	1.372651e+01	5.364573e+01
2.280000e-06	1.983040e-06	8.811055e-10	1.403298e+01	5.689517e+01
2.290000e-06	2.026284e-06	9.255533e-10	1.433900e+01	6.011008e+01
2.300000e-06	2.069305e-06	9.707990e-10	1.464344e+01	6.328828e+01
2.310000e-06	2.111984e-06	1.016866e-09	1.494546e+01	6.642758e+01
2.320000e-06	2.154506e-06	1.059322e-09	1.524636e+01	6.952586e+01
2.330000e-06	2.196869e-06	1.097503e-09	1.554614e+01	7.258101e+01
2.340000e-06	2.239033e-06	1.138376e-09	1.584452e+01	7.559100e+01
2.350000e-06	2.280995e-06	1.184971e-09	1.614146e+01	7.855385e+01
2.360000e-06	2.322604e-06	1.229759e-09	1.643591e+01	8.146765e+01
2.370000e-06	2.363721e-06	1.266305e-09	1.672688e+01	8.433063e+01
2.380000e-06	2.404565e-06	1.299485e-09	1.701591e+01	8.714107e+01
2.390000e-06	2.445236e-06	1.335560e-09	1.730371e+01	8.989743e+01
2.400000e-06	2.485688e-06	1.370062e-09	1.758997e+01	9.259827e+01
2.410000e-06	2.525977e-06	1.401501e-09	1.787508e+01	9.524233e+01
2.420000e-06	2.566128e-06	1.434546e-09	1.815920e+01	9.782851e+01
2.430000e-06	2.606149e-06	1.473214e-09	1.844242e+01	1.003559e+02
2.440000e-06	2.646022e-06	1.515860e-09	1.872457e+01	1.028237e+02
2.450000e-06	2.685853e-06	1.552424e-09	1.900644e+01	1.052314e+02
2.460000e-06	2.725615e-06	1.582633e-09	1.928781e+01	1.075787e+02
2.470000e-06	2.765210e-06	1.614103e-09	1.956801e+01	1.098654e+02
2.480000e-06	2.804609e-06	1.646822e-09	1.984682e+01	1.120916e+02
2.490000e-06	2.843764e-06	1.675679e-09	2.012390e+01	1.142574e+02
2.500000e-06	2.882723e-06	1.699582e-09	2.039959e+01	1.163634e+02
2.510000e-06	2.921491e-06	1.727443e-09	2.067393e+01	1.184102e+02
2.520000e-06	2.960027e-06	1.762190e-09	2.094664e+01	1.203985e+02
2.530000e-06	2.998338e-06	1.794433e-09	2.121774e+01	1.223292e+02
2.540000e-06	3.036424e-06	1.820544e-09	2.148726e+01	1.242034e+02
2.550000e-06	3.074369e-06	1.847648e-09	2.175577e+01	1.260222e+02
2.560000e-06	3.112142e-06	1.878153e-09	2.202308e+01	1.277871e+02
2.570000e-06	3.149705e-06	1.904009e-09	2.228889e+01	1.294991e+02
2.580000e-06	3.187069e-06	1.921070e-09	2.255330e+01	1.311599e+02
2.590000e-06	3.224174e-06	1.937893e-09	2.281587e+01	1.327708e+02
2.600000e-06	3.260913e-06	1.962401e-09	2.307585e+01	1.343332e+02
2.610000e-06	3.297414e-06	1.989010e-09	2.333415e+01	1.358486e+02
2.620000e-06	3.333747e-06	2.012758e-09	2.359126e+01	1.373184e+02
2.630000e-06	3.369857e-06	2.037065e-09	2.384679e+01	1.387440e+02
2.640000e-06	3.405867e-06	2.063814e-09	2.410162e+01	1.401266e+02
2.650000e-06	3.441796e-06	2.086470e-09	2.435587e+01	1.414675e+02
2.660000e-06	3.477550e-06	2.101123e-09	2.460889e+01	1.427679e+02
2.670000e-06	3.513104e-06	2.114963e-09	2.486048e+01	1.440289e+02
2.680000e-06	3.548472e-06	2.131631e-09	2.511076e+01	1.452513e+02
2.690000e-06	3.583551e-06	2.149046e-09	2.535900e+01	1.464362e+02
2.700000e-06	3.618311e-06	2.163939e-09	2.560498e+01	1.475843e+02
2.710000e-06	3.652796e-06	2.176972e-09	2.584901e+01	1.486963e+02
2.720000e-06	3.686836e-06	2.194157e-09	2.608990e+01	1.497728e+02
2.730000e-06	3.720317e-06	2.214200e-09	2.632683e+01	1.508145e+02
2.740000e-06	3.753319e-06	2.230970e-09	2.656036e+01	1.518219e+02
2.750000e-06	3.786019e-06	2.244465e-09	2.679177e+01	1.527954e+02
2.760000e-06	3.818478e-06	2.259712e-09	2.702146e+01	1.537355e+02
2.770000e-06	3.850606e-06	2.276513e-09	2.724881e+01	1.546425e+02
2.780000e-06	3.882475e-06	2.290387e-09	2.747434e+01	1.555170e+02
2.790000e-06	3.914191e-06	2.300001e-09	2.769877e+01	1.563594e+02
2.800000e-06	3.945774e-06	2.308883e-09	2.792227e+01	1.571701e+02
2.810000e-06	3.977192e-06	2.321004e-09	2.814460e+01	1.579497e+02
2.820000e-06	4.008427e-06	2.331873e-09	2.836563e+01	1.586987e+02
2.830000e-06	4.039357e-06	2.336920e-09	2.858451e+01	1.594178e+02
2.840000e-06	4.069876e-06	2.343133e-09	2.880048e+01	1.601078e+02
2.850000e-06	4.100123e-06	2.354211e-09	2.901452e+01	1.607693e+02
2.860000e-06	4.130090e-06	2.366081e-09	2.922659e+01	1.614034e+02
2.870000e-06	4.159755e-06	2.377234e-09	2.943651e+01	1.620109e+02
2.880000e-06	4.189242e-06	2.386780e-09	2.964517e+01	1.625930e+02
2.890000e-06	4.218553e-06	2.393239e-09	2.985259e+01	1.631507e+02
2.900000e-06	4.247615e-06	2.399190e-09	3.005825e+01	1.636853e+02
