# Temperatura_=_-7.26
# Concentracion g/m^3_=_4090.0
# C_Vs_to_Am_M_A/Vsm_=_65563218390.804596
# pendiente_HvsI_1/m_=_3716.3
# ordenada_HvsI_A/m_=_1297.0
# frecuencia_Hz_=_135063.6296740029

Tiempo_(s)	Campo_(V.s)	Magnetizacion_(V.s)	Campo_(kA/m)	Magnetizacion_(A/m)
0.000000e+00	-5.394735e-06	-2.130510e-09	-3.840644e+01	-1.389646e+02
1.000000e-08	-5.394810e-06	-2.131630e-09	-3.840698e+01	-1.389879e+02
2.000000e-08	-5.394664e-06	-2.133150e-09	-3.840594e+01	-1.390091e+02
3.000000e-08	-5.394236e-06	-2.133946e-09	-3.840289e+01	-1.390284e+02
4.000000e-08	-5.393479e-06	-2.133744e-09	-3.839750e+01	-1.390459e+02
5.000000e-08	-5.392239e-06	-2.133360e-09	-3.838868e+01	-1.390618e+02
6.000000e-08	-5.390366e-06	-2.139191e-09	-3.837534e+01	-1.390764e+02
7.000000e-08	-5.387874e-06	-2.129820e-09	-3.835760e+01	-1.390897e+02
8.000000e-08	-5.384780e-06	-2.106235e-09	-3.833557e+01	-1.391020e+02
9.000000e-08	-5.381120e-06	-2.133981e-09	-3.830952e+01	-1.391134e+02
1.000000e-07	-5.376984e-06	-2.197892e-09	-3.828007e+01	-1.391240e+02
1.100000e-07	-5.372606e-06	-2.159058e-09	-3.824890e+01	-1.391340e+02
1.200000e-07	-5.368224e-06	-2.080338e-09	-3.821770e+01	-1.391433e+02
1.300000e-07	-5.363622e-06	-2.090002e-09	-3.818494e+01	-1.391519e+02
1.400000e-07	-5.358416e-06	-2.187208e-09	-3.814788e+01	-1.391600e+02
1.500000e-07	-5.352687e-06	-2.148059e-09	-3.810710e+01	-1.391674e+02
1.600000e-07	-5.346760e-06	-2.048332e-09	-3.806490e+01	-1.391741e+02
1.700000e-07	-5.340533e-06	-2.101806e-09	-3.802056e+01	-1.391799e+02
1.800000e-07	-5.333745e-06	-2.224503e-09	-3.797224e+01	-1.391846e+02
1.900000e-07	-5.326419e-06	-2.197640e-09	-3.792008e+01	-1.391881e+02
2.000000e-07	-5.318940e-06	-2.098226e-09	-3.786684e+01	-1.391900e+02
2.100000e-07	-5.311410e-06	-2.148515e-09	-3.781323e+01	-1.391901e+02
2.200000e-07	-5.303565e-06	-2.211608e-09	-3.775738e+01	-1.391880e+02
2.300000e-07	-5.295399e-06	-2.163832e-09	-3.769925e+01	-1.391834e+02
2.400000e-07	-5.286960e-06	-2.134280e-09	-3.763917e+01	-1.391759e+02
2.500000e-07	-5.277948e-06	-2.224047e-09	-3.757501e+01	-1.391650e+02
2.600000e-07	-5.268069e-06	-2.237700e-09	-3.750468e+01	-1.391503e+02
2.700000e-07	-5.257458e-06	-2.169533e-09	-3.742913e+01	-1.391313e+02
2.800000e-07	-5.246382e-06	-2.182233e-09	-3.735028e+01	-1.391076e+02
2.900000e-07	-5.234951e-06	-2.239652e-09	-3.726890e+01	-1.390787e+02
3.000000e-07	-5.223213e-06	-2.168960e-09	-3.718533e+01	-1.390441e+02
3.100000e-07	-5.211117e-06	-2.119069e-09	-3.709922e+01	-1.390034e+02
3.200000e-07	-5.198527e-06	-2.188776e-09	-3.700959e+01	-1.389560e+02
3.300000e-07	-5.185557e-06	-2.216650e-09	-3.691725e+01	-1.389014e+02
3.400000e-07	-5.172349e-06	-2.141762e-09	-3.682322e+01	-1.388394e+02
3.500000e-07	-5.158781e-06	-2.139497e-09	-3.672663e+01	-1.387694e+02
3.600000e-07	-5.144799e-06	-2.182795e-09	-3.662709e+01	-1.386912e+02
3.700000e-07	-5.130435e-06	-2.158493e-09	-3.652483e+01	-1.386042e+02
3.800000e-07	-5.115515e-06	-2.131634e-09	-3.641860e+01	-1.385082e+02
3.900000e-07	-5.099843e-06	-2.152847e-09	-3.630704e+01	-1.384030e+02
4.000000e-07	-5.083551e-06	-2.142139e-09	-3.619105e+01	-1.382882e+02
4.100000e-07	-5.066902e-06	-2.124237e-09	-3.607252e+01	-1.381637e+02
4.200000e-07	-5.049915e-06	-2.151315e-09	-3.595158e+01	-1.380294e+02
4.300000e-07	-5.032561e-06	-2.142839e-09	-3.582804e+01	-1.378850e+02
4.400000e-07	-5.014995e-06	-2.098332e-09	-3.570298e+01	-1.377306e+02
4.500000e-07	-4.997260e-06	-2.101936e-09	-3.557672e+01	-1.375660e+02
4.600000e-07	-4.979191e-06	-2.132782e-09	-3.544808e+01	-1.373913e+02
4.700000e-07	-4.960673e-06	-2.112438e-09	-3.531625e+01	-1.372065e+02
4.800000e-07	-4.941699e-06	-2.094764e-09	-3.518117e+01	-1.370118e+02
4.900000e-07	-4.922369e-06	-2.102672e-09	-3.504355e+01	-1.368072e+02
5.000000e-07	-4.902763e-06	-2.109876e-09	-3.490397e+01	-1.365929e+02
5.100000e-07	-4.882940e-06	-2.097743e-09	-3.476285e+01	-1.363692e+02
5.200000e-07	-4.862945e-06	-2.085381e-09	-3.462050e+01	-1.361361e+02
5.300000e-07	-4.842757e-06	-2.072335e-09	-3.447677e+01	-1.358941e+02
5.400000e-07	-4.822257e-06	-2.080518e-09	-3.433083e+01	-1.356434e+02
5.500000e-07	-4.801285e-06	-2.085630e-09	-3.418153e+01	-1.353842e+02
5.600000e-07	-4.779915e-06	-2.072092e-09	-3.402939e+01	-1.351170e+02
5.700000e-07	-4.758284e-06	-2.054379e-09	-3.387540e+01	-1.348421e+02
5.800000e-07	-4.736311e-06	-2.054554e-09	-3.371896e+01	-1.345599e+02
5.900000e-07	-4.714025e-06	-2.050256e-09	-3.356030e+01	-1.342708e+02
6.000000e-07	-4.691513e-06	-2.043702e-09	-3.340003e+01	-1.339750e+02
6.100000e-07	-4.668585e-06	-2.031544e-09	-3.323680e+01	-1.336732e+02
6.200000e-07	-4.645248e-06	-2.022099e-09	-3.307066e+01	-1.333656e+02
6.300000e-07	-4.621749e-06	-2.025121e-09	-3.290337e+01	-1.330527e+02
6.400000e-07	-4.598067e-06	-2.030258e-09	-3.273477e+01	-1.327349e+02
6.500000e-07	-4.574077e-06	-2.013611e-09	-3.256398e+01	-1.324125e+02
6.600000e-07	-4.549875e-06	-1.998322e-09	-3.239168e+01	-1.320860e+02
6.700000e-07	-4.525481e-06	-1.999942e-09	-3.221801e+01	-1.317557e+02
6.800000e-07	-4.500681e-06	-1.999009e-09	-3.204146e+01	-1.314220e+02
6.900000e-07	-4.475331e-06	-1.987604e-09	-3.186098e+01	-1.310851e+02
7.000000e-07	-4.449450e-06	-1.978056e-09	-3.167673e+01	-1.307454e+02
7.100000e-07	-4.422986e-06	-1.976493e-09	-3.148832e+01	-1.304030e+02
7.200000e-07	-4.396041e-06	-1.979431e-09	-3.129650e+01	-1.300583e+02
7.300000e-07	-4.368760e-06	-1.978588e-09	-3.110228e+01	-1.297114e+02
7.400000e-07	-4.341112e-06	-1.964541e-09	-3.090544e+01	-1.293625e+02
7.500000e-07	-4.313276e-06	-1.954682e-09	-3.070727e+01	-1.290115e+02
7.600000e-07	-4.285308e-06	-1.953155e-09	-3.050816e+01	-1.286586e+02
7.700000e-07	-4.257150e-06	-1.950716e-09	-3.030770e+01	-1.283037e+02
7.800000e-07	-4.228755e-06	-1.941316e-09	-3.010555e+01	-1.279467e+02
7.900000e-07	-4.199982e-06	-1.938134e-09	-2.990070e+01	-1.275877e+02
8.000000e-07	-4.170886e-06	-1.936320e-09	-2.969356e+01	-1.272263e+02
8.100000e-07	-4.141556e-06	-1.931862e-09	-2.948476e+01	-1.268623e+02
8.200000e-07	-4.111963e-06	-1.919949e-09	-2.927407e+01	-1.264956e+02
8.300000e-07	-4.082068e-06	-1.909851e-09	-2.906125e+01	-1.261257e+02
8.400000e-07	-4.051910e-06	-1.903678e-09	-2.884654e+01	-1.257524e+02
8.500000e-07	-4.021559e-06	-1.900198e-09	-2.863047e+01	-1.253753e+02
8.600000e-07	-3.990920e-06	-1.891166e-09	-2.841234e+01	-1.249939e+02
8.700000e-07	-3.959898e-06	-1.885835e-09	-2.819148e+01	-1.246078e+02
8.800000e-07	-3.928560e-06	-1.883080e-09	-2.796838e+01	-1.242166e+02
8.900000e-07	-3.897033e-06	-1.879697e-09	-2.774394e+01	-1.238197e+02
9.000000e-07	-3.865373e-06	-1.869584e-09	-2.751854e+01	-1.234168e+02
9.100000e-07	-3.833565e-06	-1.857845e-09	-2.729209e+01	-1.230074e+02
9.200000e-07	-3.801560e-06	-1.852184e-09	-2.706424e+01	-1.225909e+02
9.300000e-07	-3.769380e-06	-1.852929e-09	-2.683514e+01	-1.221671e+02
9.400000e-07	-3.737054e-06	-1.850421e-09	-2.660500e+01	-1.217356e+02
9.500000e-07	-3.704418e-06	-1.843337e-09	-2.637266e+01	-1.212959e+02
9.600000e-07	-3.671316e-06	-1.837175e-09	-2.613700e+01	-1.208477e+02
9.700000e-07	-3.637793e-06	-1.834218e-09	-2.589834e+01	-1.203909e+02
9.800000e-07	-3.603863e-06	-1.825417e-09	-2.565678e+01	-1.199252e+02
9.900000e-07	-3.569566e-06	-1.810186e-09	-2.541262e+01	-1.194505e+02
1.000000e-06	-3.534892e-06	-1.800494e-09	-2.516577e+01	-1.189668e+02
1.010000e-06	-3.499744e-06	-1.798436e-09	-2.491554e+01	-1.184740e+02
1.020000e-06	-3.464283e-06	-1.795488e-09	-2.466308e+01	-1.179722e+02
1.030000e-06	-3.428654e-06	-1.785278e-09	-2.440943e+01	-1.174615e+02
1.040000e-06	-3.392883e-06	-1.774299e-09	-2.415476e+01	-1.169422e+02
1.050000e-06	-3.357007e-06	-1.762908e-09	-2.389936e+01	-1.164146e+02
1.060000e-06	-3.320993e-06	-1.750492e-09	-2.364296e+01	-1.158788e+02
1.070000e-06	-3.284754e-06	-1.734924e-09	-2.338497e+01	-1.153354e+02
1.080000e-06	-3.248304e-06	-1.722394e-09	-2.312547e+01	-1.147848e+02
1.090000e-06	-3.211652e-06	-1.716352e-09	-2.286454e+01	-1.142274e+02
1.100000e-06	-3.174735e-06	-1.714296e-09	-2.260172e+01	-1.136636e+02
1.110000e-06	-3.137544e-06	-1.708297e-09	-2.233694e+01	-1.130940e+02
1.120000e-06	-3.100123e-06	-1.700886e-09	-2.207054e+01	-1.125191e+02
1.130000e-06	-3.062521e-06	-1.693036e-09	-2.180284e+01	-1.119394e+02
1.140000e-06	-3.024683e-06	-1.682881e-09	-2.153346e+01	-1.113552e+02
1.150000e-06	-2.986656e-06	-1.668038e-09	-2.126274e+01	-1.107672e+02
1.160000e-06	-2.948506e-06	-1.653589e-09	-2.099114e+01	-1.101755e+02
1.170000e-06	-2.910180e-06	-1.640548e-09	-2.071829e+01	-1.095806e+02
1.180000e-06	-2.871590e-06	-1.630924e-09	-2.044355e+01	-1.089828e+02
1.190000e-06	-2.832725e-06	-1.624496e-09	-2.016686e+01	-1.083822e+02
1.200000e-06	-2.793611e-06	-1.617865e-09	-1.988840e+01	-1.077789e+02
1.210000e-06	-2.754288e-06	-1.608051e-09	-1.960846e+01	-1.071729e+02
1.220000e-06	-2.714822e-06	-1.596780e-09	-1.932749e+01	-1.065642e+02
1.230000e-06	-2.675198e-06	-1.583479e-09	-1.904539e+01	-1.059526e+02
1.240000e-06	-2.635459e-06	-1.569342e-09	-1.876248e+01	-1.053378e+02
1.250000e-06	-2.595646e-06	-1.555755e-09	-1.847904e+01	-1.047195e+02
1.260000e-06	-2.555750e-06	-1.546589e-09	-1.819501e+01	-1.040971e+02
1.270000e-06	-2.515751e-06	-1.541540e-09	-1.791025e+01	-1.034701e+02
1.280000e-06	-2.475653e-06	-1.535487e-09	-1.762478e+01	-1.028379e+02
1.290000e-06	-2.435479e-06	-1.525780e-09	-1.733878e+01	-1.021997e+02
1.300000e-06	-2.395146e-06	-1.513360e-09	-1.705163e+01	-1.015548e+02
1.310000e-06	-2.354657e-06	-1.501625e-09	-1.676338e+01	-1.009024e+02
1.320000e-06	-2.313920e-06	-1.487921e-09	-1.647337e+01	-1.002415e+02
1.330000e-06	-2.272857e-06	-1.473287e-09	-1.618103e+01	-9.957125e+01
1.340000e-06	-2.231519e-06	-1.464155e-09	-1.588673e+01	-9.889078e+01
1.350000e-06	-2.189870e-06	-1.459304e-09	-1.559022e+01	-9.819914e+01
1.360000e-06	-2.147996e-06	-1.452022e-09	-1.529211e+01	-9.749546e+01
1.370000e-06	-2.105951e-06	-1.441421e-09	-1.499278e+01	-9.677887e+01
1.380000e-06	-2.063632e-06	-1.428096e-09	-1.469150e+01	-9.604855e+01
1.390000e-06	-2.021018e-06	-1.412805e-09	-1.438812e+01	-9.530375e+01
1.400000e-06	-1.978129e-06	-1.397940e-09	-1.408279e+01	-9.454380e+01
1.410000e-06	-1.934927e-06	-1.385429e-09	-1.377522e+01	-9.376810e+01
1.420000e-06	-1.891476e-06	-1.373727e-09	-1.346589e+01	-9.297615e+01
1.430000e-06	-1.847870e-06	-1.362650e-09	-1.315544e+01	-9.216754e+01
1.440000e-06	-1.804176e-06	-1.351922e-09	-1.284437e+01	-9.134199e+01
1.450000e-06	-1.760450e-06	-1.340506e-09	-1.253308e+01	-9.049930e+01
1.460000e-06	-1.716644e-06	-1.325803e-09	-1.222121e+01	-8.963940e+01
1.470000e-06	-1.672757e-06	-1.310435e-09	-1.190877e+01	-8.876232e+01
1.480000e-06	-1.628860e-06	-1.296475e-09	-1.159625e+01	-8.786820e+01
1.490000e-06	-1.584963e-06	-1.286181e-09	-1.128374e+01	-8.695728e+01
1.500000e-06	-1.540960e-06	-1.276067e-09	-1.097047e+01	-8.602990e+01
1.510000e-06	-1.496857e-06	-1.261950e-09	-1.065649e+01	-8.508645e+01
1.520000e-06	-1.452726e-06	-1.244380e-09	-1.034232e+01	-8.412742e+01
1.530000e-06	-1.408494e-06	-1.228090e-09	-1.002741e+01	-8.315336e+01
1.540000e-06	-1.364237e-06	-1.213457e-09	-9.712342e+00	-8.216484e+01
1.550000e-06	-1.319961e-06	-1.197503e-09	-9.397127e+00	-8.116247e+01
1.560000e-06	-1.275526e-06	-1.180696e-09	-9.080779e+00	-8.014687e+01
1.570000e-06	-1.230990e-06	-1.168102e-09	-8.763723e+00	-7.911865e+01
1.580000e-06	-1.186434e-06	-1.159322e-09	-8.446512e+00	-7.807842e+01
1.590000e-06	-1.141768e-06	-1.147513e-09	-8.128525e+00	-7.702672e+01
1.600000e-06	-1.097000e-06	-1.129870e-09	-7.809815e+00	-7.596406e+01
1.610000e-06	-1.052154e-06	-1.111130e-09	-7.490544e+00	-7.489089e+01
1.620000e-06	-1.007148e-06	-1.093847e-09	-7.170134e+00	-7.380757e+01
1.630000e-06	-9.620683e-07	-1.074819e-09	-6.849200e+00	-7.271437e+01
1.640000e-06	-9.168563e-07	-1.054114e-09	-6.527325e+00	-7.161147e+01
1.650000e-06	-8.715075e-07	-1.036844e-09	-6.204476e+00	-7.049896e+01
1.660000e-06	-8.262124e-07	-1.025419e-09	-5.882009e+00	-6.937678e+01
1.670000e-06	-7.808896e-07	-1.013780e-09	-5.559345e+00	-6.824481e+01
1.680000e-06	-7.355021e-07	-9.947838e-10	-5.236220e+00	-6.710280e+01
1.690000e-06	-6.901083e-07	-9.714073e-10	-4.913050e+00	-6.595037e+01
1.700000e-06	-6.446856e-07	-9.519165e-10	-4.589675e+00	-6.478708e+01
1.710000e-06	-5.992178e-07	-9.347245e-10	-4.265979e+00	-6.361236e+01
1.720000e-06	-5.536329e-07	-9.144090e-10	-3.941448e+00	-6.242558e+01
1.730000e-06	-5.080270e-07	-8.934951e-10	-3.616769e+00	-6.122603e+01
1.740000e-06	-4.624990e-07	-8.764681e-10	-3.292644e+00	-6.001292e+01
1.750000e-06	-4.169568e-07	-8.612453e-10	-2.968418e+00	-5.878543e+01
1.760000e-06	-3.712946e-07	-8.449064e-10	-2.643337e+00	-5.754272e+01
1.770000e-06	-3.254999e-07	-8.245776e-10	-2.317314e+00	-5.628390e+01
1.780000e-06	-2.796278e-07	-8.050901e-10	-1.990739e+00	-5.500811e+01
1.790000e-06	-2.338064e-07	-7.870683e-10	-1.664526e+00	-5.371448e+01
1.800000e-06	-1.880609e-07	-7.665317e-10	-1.338852e+00	-5.240220e+01
1.810000e-06	-1.422446e-07	-7.450956e-10	-1.012674e+00	-5.107048e+01
1.820000e-06	-9.641148e-08	-7.244124e-10	-6.863770e-01	-4.971861e+01
1.830000e-06	-5.061285e-08	-7.038346e-10	-3.603253e-01	-4.834593e+01
1.840000e-06	-4.833100e-09	-6.825333e-10	-3.440803e-02	-4.695189e+01
1.850000e-06	4.094231e-08	-6.593318e-10	2.914784e-01	-4.553601e+01
1.860000e-06	8.672492e-08	-6.339909e-10	6.174160e-01	-4.409791e+01
1.870000e-06	1.324149e-07	-6.090854e-10	9.426945e-01	-4.263735e+01
1.880000e-06	1.780907e-07	-5.849321e-10	1.267871e+00	-4.115415e+01
1.890000e-06	2.238239e-07	-5.619461e-10	1.593458e+00	-3.964827e+01
1.900000e-06	2.695698e-07	-5.433075e-10	1.919134e+00	-3.811977e+01
1.910000e-06	3.152940e-07	-5.246742e-10	2.244656e+00	-3.656882e+01
1.920000e-06	3.609638e-07	-5.026928e-10	2.569790e+00	-3.499567e+01
1.930000e-06	4.065783e-07	-4.777491e-10	2.894531e+00	-3.340067e+01
1.940000e-06	4.521772e-07	-4.517393e-10	3.219161e+00	-3.178428e+01
1.950000e-06	4.977847e-07	-4.261684e-10	3.543852e+00	-3.014699e+01
1.960000e-06	5.432880e-07	-3.995328e-10	3.867801e+00	-2.848938e+01
1.970000e-06	5.887694e-07	-3.726934e-10	4.191594e+00	-2.681208e+01
1.980000e-06	6.342404e-07	-3.479449e-10	4.515313e+00	-2.511574e+01
1.990000e-06	6.796048e-07	-3.261054e-10	4.838274e+00	-2.340106e+01
2.000000e-06	7.249457e-07	-3.050169e-10	5.161067e+00	-2.166873e+01
2.010000e-06	7.702609e-07	-2.815252e-10	5.483676e+00	-1.991946e+01
2.020000e-06	8.155347e-07	-2.554017e-10	5.805992e+00	-1.815394e+01
2.030000e-06	8.607282e-07	-2.285368e-10	6.127736e+00	-1.637287e+01
2.040000e-06	9.058430e-07	-1.997055e-10	6.448919e+00	-1.457689e+01
2.050000e-06	9.508383e-07	-1.694997e-10	6.769252e+00	-1.276663e+01
2.060000e-06	9.957101e-07	-1.405726e-10	7.088705e+00	-1.094267e+01
2.070000e-06	1.040552e-06	-1.149198e-10	7.407947e+00	-9.105576e+00
2.080000e-06	1.085305e-06	-9.324504e-11	7.726554e+00	-7.255850e+00
2.090000e-06	1.129996e-06	-7.310748e-11	8.044719e+00	-5.393967e+00
2.100000e-06	1.174659e-06	-5.122274e-11	8.362684e+00	-3.520366e+00
2.110000e-06	1.219178e-06	-2.574611e-11	8.679629e+00	-1.635457e+00
2.120000e-06	1.263552e-06	2.810308e-12	8.995540e+00	2.603735e-01
2.130000e-06	1.307863e-06	3.436239e-11	9.310999e+00	2.166755e+00
2.140000e-06	1.352119e-06	6.963743e-11	9.626066e+00	4.083322e+00
2.150000e-06	1.396319e-06	1.037552e-10	9.940735e+00	6.009703e+00
2.160000e-06	1.440439e-06	1.317520e-10	1.025484e+01	7.945510e+00
2.170000e-06	1.484499e-06	1.549295e-10	1.056851e+01	9.890327e+00
2.180000e-06	1.528524e-06	1.800989e-10	1.088194e+01	1.184370e+01
2.190000e-06	1.572525e-06	2.074302e-10	1.119519e+01	1.380512e+01
2.200000e-06	1.616446e-06	2.339512e-10	1.150788e+01	1.577402e+01
2.210000e-06	1.660286e-06	2.606965e-10	1.181999e+01	1.774975e+01
2.220000e-06	1.704111e-06	2.906451e-10	1.213198e+01	1.973160e+01
2.230000e-06	1.747899e-06	3.232504e-10	1.244372e+01	2.171874e+01
2.240000e-06	1.791613e-06	3.531440e-10	1.275493e+01	2.371028e+01
2.250000e-06	1.835218e-06	3.794330e-10	1.306537e+01	2.570521e+01
2.260000e-06	1.878702e-06	4.067983e-10	1.337494e+01	2.770241e+01
2.270000e-06	1.922030e-06	4.363086e-10	1.368340e+01	2.970069e+01
2.280000e-06	1.965106e-06	4.642575e-10	1.399007e+01	3.169873e+01
2.290000e-06	2.007956e-06	4.912572e-10	1.429513e+01	3.369516e+01
2.300000e-06	2.050639e-06	5.209578e-10	1.459900e+01	3.568847e+01
2.310000e-06	2.092997e-06	5.531692e-10	1.490056e+01	3.767713e+01
2.320000e-06	2.134971e-06	5.838452e-10	1.519938e+01	3.965951e+01
2.330000e-06	2.176648e-06	6.115831e-10	1.549609e+01	4.163394e+01
2.340000e-06	2.218116e-06	6.390562e-10	1.579132e+01	4.359872e+01
2.350000e-06	2.259361e-06	6.686434e-10	1.608494e+01	4.555212e+01
2.360000e-06	2.300408e-06	6.993242e-10	1.637717e+01	4.749241e+01
2.370000e-06	2.341319e-06	7.274391e-10	1.666842e+01	4.941788e+01
2.380000e-06	2.381989e-06	7.542497e-10	1.695796e+01	5.132686e+01
2.390000e-06	2.422403e-06	7.812996e-10	1.724568e+01	5.321770e+01
2.400000e-06	2.462607e-06	8.064283e-10	1.753190e+01	5.508885e+01
2.410000e-06	2.502642e-06	8.292814e-10	1.781692e+01	5.693883e+01
2.420000e-06	2.542568e-06	8.540965e-10	1.810117e+01	5.876627e+01
2.430000e-06	2.582401e-06	8.839007e-10	1.838475e+01	6.056989e+01
2.440000e-06	2.622154e-06	9.160506e-10	1.866776e+01	6.234857e+01
2.450000e-06	2.661808e-06	9.441348e-10	1.895007e+01	6.410130e+01
2.460000e-06	2.701367e-06	9.680715e-10	1.923170e+01	6.582723e+01
2.470000e-06	2.740775e-06	9.915324e-10	1.951225e+01	6.752564e+01
2.480000e-06	2.780039e-06	1.012619e-09	1.979178e+01	6.919598e+01
2.490000e-06	2.819091e-06	1.031435e-09	2.006980e+01	7.083784e+01
2.500000e-06	2.857840e-06	1.052992e-09	2.034566e+01	7.245098e+01
2.510000e-06	2.896437e-06	1.082127e-09	2.062044e+01	7.403529e+01
2.520000e-06	2.934820e-06	1.115309e-09	2.089370e+01	7.559079e+01
2.530000e-06	2.972892e-06	1.141784e-09	2.116475e+01	7.711765e+01
2.540000e-06	3.010825e-06	1.159887e-09	2.143480e+01	7.861616e+01
2.550000e-06	3.048584e-06	1.176705e-09	2.170362e+01	8.008669e+01
2.560000e-06	3.086129e-06	1.194093e-09	2.197091e+01	8.152972e+01
2.570000e-06	3.123573e-06	1.210029e-09	2.223748e+01	8.294582e+01
2.580000e-06	3.160788e-06	1.225440e-09	2.250242e+01	8.433557e+01
2.590000e-06	3.197644e-06	1.246981e-09	2.276482e+01	8.569965e+01
2.600000e-06	3.234204e-06	1.274840e-09	2.302509e+01	8.703873e+01
2.610000e-06	3.270584e-06	1.300813e-09	2.328409e+01	8.835349e+01
2.620000e-06	3.306841e-06	1.319494e-09	2.354221e+01	8.964462e+01
2.630000e-06	3.342997e-06	1.333960e-09	2.379962e+01	9.091277e+01
2.640000e-06	3.379021e-06	1.347661e-09	2.405608e+01	9.215855e+01
2.650000e-06	3.414929e-06	1.359621e-09	2.431172e+01	9.338255e+01
2.660000e-06	3.450742e-06	1.370912e-09	2.456668e+01	9.458527e+01
2.670000e-06	3.486340e-06	1.385724e-09	2.482011e+01	9.576716e+01
2.680000e-06	3.521606e-06	1.407132e-09	2.507118e+01	9.692859e+01
2.690000e-06	3.556487e-06	1.432638e-09	2.531951e+01	9.806984e+01
2.700000e-06	3.590917e-06	1.455275e-09	2.556462e+01	9.919113e+01
2.710000e-06	3.624932e-06	1.471627e-09	2.580678e+01	1.002926e+02
2.720000e-06	3.658581e-06	1.483603e-09	2.604634e+01	1.013743e+02
2.730000e-06	3.691798e-06	1.492589e-09	2.628282e+01	1.024362e+02
2.740000e-06	3.724596e-06	1.501033e-09	2.651631e+01	1.034782e+02
2.750000e-06	3.757074e-06	1.512285e-09	2.674754e+01	1.045002e+02
2.760000e-06	3.789344e-06	1.527847e-09	2.697727e+01	1.055020e+02
2.770000e-06	3.821445e-06	1.547390e-09	2.720580e+01	1.064833e+02
2.780000e-06	3.853361e-06	1.569190e-09	2.743302e+01	1.074440e+02
2.790000e-06	3.885076e-06	1.588915e-09	2.765881e+01	1.083837e+02
2.800000e-06	3.916573e-06	1.602015e-09	2.788305e+01	1.093023e+02
2.810000e-06	3.947770e-06	1.608644e-09	2.810515e+01	1.101994e+02
2.820000e-06	3.978636e-06	1.613045e-09	2.832488e+01	1.110749e+02
2.830000e-06	4.009258e-06	1.618657e-09	2.854289e+01	1.119285e+02
2.840000e-06	4.039658e-06	1.629256e-09	2.875931e+01	1.127602e+02
2.850000e-06	4.069792e-06	1.644578e-09	2.897385e+01	1.135698e+02
2.860000e-06	4.099671e-06	1.662104e-09	2.918656e+01	1.143575e+02
2.870000e-06	4.129337e-06	1.678480e-09	2.939776e+01	1.151232e+02
2.880000e-06	4.158772e-06	1.689854e-09	2.960732e+01	1.158672e+02
2.890000e-06	4.187826e-06	1.695053e-09	2.981416e+01	1.165896e+02
2.900000e-06	4.216473e-06	1.699513e-09	3.001810e+01	1.172909e+02
