# Temperatura_=_-2.21
# Concentracion g/m^3_=_4090.0
# C_Vs_to_Am_M_A/Vsm_=_65563218390.804596
# pendiente_HvsI_1/m_=_3716.3
# ordenada_HvsI_A/m_=_1297.0
# frecuencia_Hz_=_135084.61545265932

Tiempo_(s)	Campo_(V.s)	Magnetizacion_(V.s)	Campo_(kA/m)	Magnetizacion_(A/m)
0.000000e+00	-5.404345e-06	-2.455172e-09	-3.839114e+01	-1.578019e+02
1.000000e-08	-5.404346e-06	-2.455156e-09	-3.839115e+01	-1.578278e+02
2.000000e-08	-5.404227e-06	-2.458676e-09	-3.839031e+01	-1.578558e+02
3.000000e-08	-5.403825e-06	-2.461862e-09	-3.838746e+01	-1.578861e+02
4.000000e-08	-5.402937e-06	-2.461165e-09	-3.838115e+01	-1.579190e+02
5.000000e-08	-5.401562e-06	-2.457874e-09	-3.837138e+01	-1.579544e+02
6.000000e-08	-5.399599e-06	-2.459909e-09	-3.835743e+01	-1.579926e+02
7.000000e-08	-5.396994e-06	-2.476060e-09	-3.833893e+01	-1.580336e+02
8.000000e-08	-5.393657e-06	-2.471435e-09	-3.831522e+01	-1.580772e+02
9.000000e-08	-5.389779e-06	-2.423849e-09	-3.828767e+01	-1.581235e+02
1.000000e-07	-5.385699e-06	-2.410934e-09	-3.825869e+01	-1.581723e+02
1.100000e-07	-5.381473e-06	-2.489015e-09	-3.822867e+01	-1.582234e+02
1.200000e-07	-5.377043e-06	-2.498627e-09	-3.819720e+01	-1.582766e+02
1.300000e-07	-5.372268e-06	-2.396089e-09	-3.816328e+01	-1.583316e+02
1.400000e-07	-5.367014e-06	-2.381538e-09	-3.812596e+01	-1.583882e+02
1.500000e-07	-5.361363e-06	-2.478833e-09	-3.808581e+01	-1.584459e+02
1.600000e-07	-5.355383e-06	-2.506788e-09	-3.804333e+01	-1.585045e+02
1.700000e-07	-5.348898e-06	-2.376556e-09	-3.799726e+01	-1.585634e+02
1.800000e-07	-5.342079e-06	-2.362320e-09	-3.794882e+01	-1.586224e+02
1.900000e-07	-5.334979e-06	-2.466729e-09	-3.789839e+01	-1.586809e+02
2.000000e-07	-5.327632e-06	-2.476263e-09	-3.784620e+01	-1.587386e+02
2.100000e-07	-5.320064e-06	-2.367773e-09	-3.779243e+01	-1.587950e+02
2.200000e-07	-5.312187e-06	-2.373001e-09	-3.773648e+01	-1.588497e+02
2.300000e-07	-5.304063e-06	-2.448941e-09	-3.767877e+01	-1.589022e+02
2.400000e-07	-5.295521e-06	-2.413524e-09	-3.761808e+01	-1.589523e+02
2.500000e-07	-5.286350e-06	-2.350544e-09	-3.755294e+01	-1.589994e+02
2.600000e-07	-5.276374e-06	-2.404176e-09	-3.748207e+01	-1.590433e+02
2.700000e-07	-5.265638e-06	-2.458395e-09	-3.740580e+01	-1.590836e+02
2.800000e-07	-5.254493e-06	-2.367093e-09	-3.732663e+01	-1.591201e+02
2.900000e-07	-5.243013e-06	-2.346584e-09	-3.724508e+01	-1.591523e+02
3.000000e-07	-5.231097e-06	-2.429294e-09	-3.716043e+01	-1.591802e+02
3.100000e-07	-5.218758e-06	-2.413058e-09	-3.707278e+01	-1.592033e+02
3.200000e-07	-5.206093e-06	-2.322987e-09	-3.698281e+01	-1.592215e+02
3.300000e-07	-5.193154e-06	-2.368430e-09	-3.689090e+01	-1.592347e+02
3.400000e-07	-5.179838e-06	-2.428372e-09	-3.679630e+01	-1.592425e+02
3.500000e-07	-5.166109e-06	-2.389783e-09	-3.669877e+01	-1.592449e+02
3.600000e-07	-5.152055e-06	-2.372175e-09	-3.659894e+01	-1.592417e+02
3.700000e-07	-5.137624e-06	-2.419690e-09	-3.649642e+01	-1.592327e+02
3.800000e-07	-5.122514e-06	-2.389396e-09	-3.638909e+01	-1.592179e+02
3.900000e-07	-5.106735e-06	-2.367342e-09	-3.627700e+01	-1.591970e+02
4.000000e-07	-5.090446e-06	-2.394022e-09	-3.616128e+01	-1.591701e+02
4.100000e-07	-5.073717e-06	-2.384869e-09	-3.604245e+01	-1.591368e+02
4.200000e-07	-5.056725e-06	-2.344069e-09	-3.592174e+01	-1.590973e+02
4.300000e-07	-5.039525e-06	-2.385889e-09	-3.579955e+01	-1.590513e+02
4.400000e-07	-5.022044e-06	-2.409870e-09	-3.567537e+01	-1.589988e+02
4.500000e-07	-5.004244e-06	-2.361230e-09	-3.554893e+01	-1.589398e+02
4.600000e-07	-4.986141e-06	-2.349318e-09	-3.542033e+01	-1.588742e+02
4.700000e-07	-4.967742e-06	-2.378824e-09	-3.528962e+01	-1.588019e+02
4.800000e-07	-4.948795e-06	-2.371640e-09	-3.515503e+01	-1.587230e+02
4.900000e-07	-4.929383e-06	-2.354756e-09	-3.501713e+01	-1.586376e+02
5.000000e-07	-4.909739e-06	-2.360750e-09	-3.487759e+01	-1.585457e+02
5.100000e-07	-4.889855e-06	-2.359064e-09	-3.473634e+01	-1.584474e+02
5.200000e-07	-4.869810e-06	-2.373428e-09	-3.459394e+01	-1.583429e+02
5.300000e-07	-4.849481e-06	-2.382954e-09	-3.444953e+01	-1.582324e+02
5.400000e-07	-4.828813e-06	-2.360957e-09	-3.430270e+01	-1.581161e+02
5.500000e-07	-4.807803e-06	-2.345494e-09	-3.415345e+01	-1.579943e+02
5.600000e-07	-4.786404e-06	-2.371801e-09	-3.400145e+01	-1.578675e+02
5.700000e-07	-4.764715e-06	-2.363658e-09	-3.384737e+01	-1.577359e+02
5.800000e-07	-4.742731e-06	-2.339295e-09	-3.369120e+01	-1.576001e+02
5.900000e-07	-4.720392e-06	-2.340769e-09	-3.353251e+01	-1.574605e+02
6.000000e-07	-4.697728e-06	-2.354027e-09	-3.337151e+01	-1.573177e+02
6.100000e-07	-4.674745e-06	-2.347631e-09	-3.320824e+01	-1.571723e+02
6.200000e-07	-4.651439e-06	-2.344380e-09	-3.304268e+01	-1.570247e+02
6.300000e-07	-4.627845e-06	-2.328007e-09	-3.287508e+01	-1.568758e+02
6.400000e-07	-4.603990e-06	-2.323923e-09	-3.270562e+01	-1.567259e+02
6.500000e-07	-4.579961e-06	-2.337640e-09	-3.253492e+01	-1.565759e+02
6.600000e-07	-4.555711e-06	-2.337139e-09	-3.236266e+01	-1.564262e+02
6.700000e-07	-4.531172e-06	-2.312321e-09	-3.218834e+01	-1.562774e+02
6.800000e-07	-4.506164e-06	-2.313050e-09	-3.201069e+01	-1.561300e+02
6.900000e-07	-4.480497e-06	-2.326764e-09	-3.182836e+01	-1.559846e+02
7.000000e-07	-4.454273e-06	-2.325147e-09	-3.164206e+01	-1.558415e+02
7.100000e-07	-4.427719e-06	-2.310493e-09	-3.145343e+01	-1.557011e+02
7.200000e-07	-4.400767e-06	-2.306890e-09	-3.126198e+01	-1.555637e+02
7.300000e-07	-4.373397e-06	-2.314648e-09	-3.106754e+01	-1.554293e+02
7.400000e-07	-4.345822e-06	-2.320550e-09	-3.087166e+01	-1.552980e+02
7.500000e-07	-4.318073e-06	-2.308227e-09	-3.067453e+01	-1.551698e+02
7.600000e-07	-4.290126e-06	-2.291363e-09	-3.047600e+01	-1.550446e+02
7.700000e-07	-4.261954e-06	-2.295381e-09	-3.027588e+01	-1.549220e+02
7.800000e-07	-4.233572e-06	-2.304022e-09	-3.007426e+01	-1.548018e+02
7.900000e-07	-4.204848e-06	-2.298661e-09	-2.987021e+01	-1.546833e+02
8.000000e-07	-4.175667e-06	-2.288113e-09	-2.966292e+01	-1.545662e+02
8.100000e-07	-4.146169e-06	-2.289746e-09	-2.945337e+01	-1.544495e+02
8.200000e-07	-4.116442e-06	-2.296117e-09	-2.924220e+01	-1.543328e+02
8.300000e-07	-4.086474e-06	-2.295764e-09	-2.902931e+01	-1.542150e+02
8.400000e-07	-4.056265e-06	-2.283362e-09	-2.881472e+01	-1.540954e+02
8.500000e-07	-4.025748e-06	-2.276466e-09	-2.859793e+01	-1.539731e+02
8.600000e-07	-3.994925e-06	-2.276780e-09	-2.837897e+01	-1.538472e+02
8.700000e-07	-3.963801e-06	-2.277664e-09	-2.815787e+01	-1.537167e+02
8.800000e-07	-3.932328e-06	-2.268149e-09	-2.793430e+01	-1.535807e+02
8.900000e-07	-3.900648e-06	-2.264191e-09	-2.770925e+01	-1.534384e+02
9.000000e-07	-3.868842e-06	-2.267580e-09	-2.748331e+01	-1.532891e+02
9.100000e-07	-3.836913e-06	-2.274696e-09	-2.725649e+01	-1.531319e+02
9.200000e-07	-3.804844e-06	-2.270761e-09	-2.702868e+01	-1.529663e+02
9.300000e-07	-3.772579e-06	-2.264423e-09	-2.679948e+01	-1.527917e+02
9.400000e-07	-3.740152e-06	-2.261895e-09	-2.656913e+01	-1.526078e+02
9.500000e-07	-3.707326e-06	-2.263581e-09	-2.633594e+01	-1.524142e+02
9.600000e-07	-3.673985e-06	-2.257865e-09	-2.609909e+01	-1.522109e+02
9.700000e-07	-3.640200e-06	-2.250701e-09	-2.585909e+01	-1.519978e+02
9.800000e-07	-3.605994e-06	-2.249572e-09	-2.561610e+01	-1.517751e+02
9.900000e-07	-3.571432e-06	-2.252836e-09	-2.537058e+01	-1.515431e+02
1.000000e-06	-3.536447e-06	-2.253307e-09	-2.512206e+01	-1.513023e+02
1.010000e-06	-3.501103e-06	-2.248454e-09	-2.487098e+01	-1.510531e+02
1.020000e-06	-3.465542e-06	-2.240339e-09	-2.461836e+01	-1.507963e+02
1.030000e-06	-3.429816e-06	-2.234105e-09	-2.436458e+01	-1.505327e+02
1.040000e-06	-3.393966e-06	-2.227499e-09	-2.410991e+01	-1.502632e+02
1.050000e-06	-3.357966e-06	-2.218453e-09	-2.385417e+01	-1.499887e+02
1.060000e-06	-3.321811e-06	-2.212675e-09	-2.359733e+01	-1.497102e+02
1.070000e-06	-3.285501e-06	-2.213208e-09	-2.333940e+01	-1.494287e+02
1.080000e-06	-3.248976e-06	-2.212725e-09	-2.307993e+01	-1.491452e+02
1.090000e-06	-3.212243e-06	-2.204804e-09	-2.281899e+01	-1.488609e+02
1.100000e-06	-3.175292e-06	-2.196065e-09	-2.255650e+01	-1.485766e+02
1.110000e-06	-3.138022e-06	-2.189142e-09	-2.229174e+01	-1.482932e+02
1.120000e-06	-3.100470e-06	-2.184825e-09	-2.202498e+01	-1.480115e+02
1.130000e-06	-3.062749e-06	-2.179812e-09	-2.175702e+01	-1.477323e+02
1.140000e-06	-3.024844e-06	-2.177019e-09	-2.148775e+01	-1.474561e+02
1.150000e-06	-2.986793e-06	-2.175454e-09	-2.121745e+01	-1.471833e+02
1.160000e-06	-2.948592e-06	-2.175246e-09	-2.094608e+01	-1.469143e+02
1.170000e-06	-2.910144e-06	-2.170059e-09	-2.067295e+01	-1.466490e+02
1.180000e-06	-2.871444e-06	-2.162263e-09	-2.039804e+01	-1.463874e+02
1.190000e-06	-2.832440e-06	-2.155840e-09	-2.012096e+01	-1.461294e+02
1.200000e-06	-2.793135e-06	-2.151381e-09	-1.984175e+01	-1.458744e+02
1.210000e-06	-2.753644e-06	-2.144505e-09	-1.956121e+01	-1.456219e+02
1.220000e-06	-2.714053e-06	-2.136772e-09	-1.927997e+01	-1.453712e+02
1.230000e-06	-2.674375e-06	-2.131774e-09	-1.899811e+01	-1.451212e+02
1.240000e-06	-2.634597e-06	-2.127232e-09	-1.871553e+01	-1.448712e+02
1.250000e-06	-2.594719e-06	-2.119918e-09	-1.843225e+01	-1.446197e+02
1.260000e-06	-2.554747e-06	-2.113659e-09	-1.814830e+01	-1.443657e+02
1.270000e-06	-2.514703e-06	-2.107866e-09	-1.786384e+01	-1.441079e+02
1.280000e-06	-2.474601e-06	-2.103684e-09	-1.757896e+01	-1.438448e+02
1.290000e-06	-2.434320e-06	-2.098167e-09	-1.729281e+01	-1.435751e+02
1.300000e-06	-2.393885e-06	-2.092762e-09	-1.700558e+01	-1.432975e+02
1.310000e-06	-2.353314e-06	-2.088458e-09	-1.671737e+01	-1.430105e+02
1.320000e-06	-2.312494e-06	-2.083298e-09	-1.642739e+01	-1.427129e+02
1.330000e-06	-2.271428e-06	-2.075866e-09	-1.613567e+01	-1.424035e+02
1.340000e-06	-2.230099e-06	-2.067070e-09	-1.584208e+01	-1.420811e+02
1.350000e-06	-2.188465e-06	-2.059396e-09	-1.554632e+01	-1.417448e+02
1.360000e-06	-2.146407e-06	-2.052671e-09	-1.524755e+01	-1.413935e+02
1.370000e-06	-2.104037e-06	-2.046269e-09	-1.494657e+01	-1.410267e+02
1.380000e-06	-2.061560e-06	-2.038380e-09	-1.464482e+01	-1.406437e+02
1.390000e-06	-2.018821e-06	-2.031700e-09	-1.434121e+01	-1.402440e+02
1.400000e-06	-1.975689e-06	-2.028740e-09	-1.403481e+01	-1.398274e+02
1.410000e-06	-1.932361e-06	-2.024664e-09	-1.372702e+01	-1.393938e+02
1.420000e-06	-1.888887e-06	-2.014685e-09	-1.341819e+01	-1.389431e+02
1.430000e-06	-1.845323e-06	-2.004893e-09	-1.310872e+01	-1.384755e+02
1.440000e-06	-1.801720e-06	-1.996558e-09	-1.279898e+01	-1.379913e+02
1.450000e-06	-1.757991e-06	-1.987003e-09	-1.248834e+01	-1.374908e+02
1.460000e-06	-1.714179e-06	-1.974599e-09	-1.217711e+01	-1.369744e+02
1.470000e-06	-1.670318e-06	-1.963916e-09	-1.186553e+01	-1.364428e+02
1.480000e-06	-1.626400e-06	-1.958358e-09	-1.155355e+01	-1.358965e+02
1.490000e-06	-1.582399e-06	-1.952837e-09	-1.124098e+01	-1.353360e+02
1.500000e-06	-1.538306e-06	-1.942152e-09	-1.092775e+01	-1.347619e+02
1.510000e-06	-1.494206e-06	-1.930354e-09	-1.061447e+01	-1.341747e+02
1.520000e-06	-1.450089e-06	-1.921046e-09	-1.030108e+01	-1.335750e+02
1.530000e-06	-1.405799e-06	-1.914944e-09	-9.986449e+00	-1.329630e+02
1.540000e-06	-1.361351e-06	-1.906611e-09	-9.670705e+00	-1.323391e+02
1.550000e-06	-1.316895e-06	-1.898390e-09	-9.354900e+00	-1.317034e+02
1.560000e-06	-1.272334e-06	-1.892647e-09	-9.038353e+00	-1.310560e+02
1.570000e-06	-1.227614e-06	-1.886069e-09	-8.720668e+00	-1.303967e+02
1.580000e-06	-1.182915e-06	-1.877254e-09	-8.403137e+00	-1.297251e+02
1.590000e-06	-1.138201e-06	-1.865254e-09	-8.085503e+00	-1.290410e+02
1.600000e-06	-1.093319e-06	-1.852983e-09	-7.766672e+00	-1.283435e+02
1.610000e-06	-1.048371e-06	-1.843915e-09	-7.447369e+00	-1.276318e+02
1.620000e-06	-1.003359e-06	-1.835741e-09	-7.127618e+00	-1.269050e+02
1.630000e-06	-9.582541e-07	-1.826549e-09	-6.807203e+00	-1.261619e+02
1.640000e-06	-9.131389e-07	-1.813987e-09	-6.486716e+00	-1.254011e+02
1.650000e-06	-8.679329e-07	-1.801702e-09	-6.165583e+00	-1.246212e+02
1.660000e-06	-8.225743e-07	-1.790902e-09	-5.843367e+00	-1.238206e+02
1.670000e-06	-7.771010e-07	-1.776635e-09	-5.520336e+00	-1.229976e+02
1.680000e-06	-7.315602e-07	-1.759997e-09	-5.196825e+00	-1.221502e+02
1.690000e-06	-6.860467e-07	-1.746401e-09	-4.873508e+00	-1.212768e+02
1.700000e-06	-6.405415e-07	-1.737253e-09	-4.550250e+00	-1.203752e+02
1.710000e-06	-5.950217e-07	-1.726511e-09	-4.226889e+00	-1.194435e+02
1.720000e-06	-5.494943e-07	-1.712880e-09	-3.903473e+00	-1.184796e+02
1.730000e-06	-5.039646e-07	-1.698201e-09	-3.580041e+00	-1.174816e+02
1.740000e-06	-4.583718e-07	-1.683876e-09	-3.256161e+00	-1.164475e+02
1.750000e-06	-4.125991e-07	-1.666723e-09	-2.931003e+00	-1.153751e+02
1.760000e-06	-3.667939e-07	-1.647453e-09	-2.605614e+00	-1.142626e+02
1.770000e-06	-3.210191e-07	-1.630116e-09	-2.280441e+00	-1.131081e+02
1.780000e-06	-2.752431e-07	-1.617771e-09	-1.955260e+00	-1.119095e+02
1.790000e-06	-2.294911e-07	-1.603819e-09	-1.630249e+00	-1.106652e+02
1.800000e-06	-1.837434e-07	-1.583062e-09	-1.305268e+00	-1.093733e+02
1.810000e-06	-1.379464e-07	-1.561465e-09	-9.799377e-01	-1.080321e+02
1.820000e-06	-9.213137e-08	-1.540714e-09	-6.544788e-01	-1.066398e+02
1.830000e-06	-4.630055e-08	-1.519156e-09	-3.289078e-01	-1.051948e+02
1.840000e-06	-4.547115e-10	-1.495579e-09	-3.230159e-03	-1.036954e+02
1.850000e-06	4.528318e-08	-1.469875e-09	3.216807e-01	-1.021400e+02
1.860000e-06	9.101386e-08	-1.446816e-09	6.465402e-01	-1.005269e+02
1.870000e-06	1.368324e-07	-1.426638e-09	9.720238e-01	-9.885456e+01
1.880000e-06	1.827128e-07	-1.401578e-09	1.297947e+00	-9.712120e+01
1.890000e-06	2.285716e-07	-1.371713e-09	1.623717e+00	-9.532517e+01
1.900000e-06	2.743955e-07	-1.341868e-09	1.949239e+00	-9.346473e+01
1.910000e-06	3.203078e-07	-1.310601e-09	2.275388e+00	-9.153810e+01
1.920000e-06	3.661642e-07	-1.277791e-09	2.601141e+00	-8.954347e+01
1.930000e-06	4.118850e-07	-1.244807e-09	2.925930e+00	-8.747898e+01
1.940000e-06	4.575644e-07	-1.212975e-09	3.250426e+00	-8.534274e+01
1.950000e-06	5.032499e-07	-1.183852e-09	3.574964e+00	-8.313284e+01
1.960000e-06	5.489484e-07	-1.155838e-09	3.899596e+00	-8.084735e+01
1.970000e-06	5.945386e-07	-1.124138e-09	4.223457e+00	-7.848436e+01
1.980000e-06	6.400870e-07	-1.086553e-09	4.547022e+00	-7.604198e+01
1.990000e-06	6.856118e-07	-1.045170e-09	4.870419e+00	-7.351838e+01
2.000000e-06	7.310599e-07	-1.002679e-09	5.193271e+00	-7.091183e+01
2.010000e-06	7.765214e-07	-9.591238e-10	5.516218e+00	-6.822072e+01
2.020000e-06	8.219367e-07	-9.144092e-10	5.838837e+00	-6.544361e+01
2.030000e-06	8.672619e-07	-8.706997e-10	6.160817e+00	-6.257926e+01
2.040000e-06	9.125168e-07	-8.307810e-10	6.482297e+00	-5.962670e+01
2.050000e-06	9.576196e-07	-7.918891e-10	6.802696e+00	-5.658524e+01
2.060000e-06	1.002595e-06	-7.479260e-10	7.122190e+00	-5.345454e+01
2.070000e-06	1.047500e-06	-7.004678e-10	7.441182e+00	-5.023464e+01
2.080000e-06	1.092420e-06	-6.532825e-10	7.760287e+00	-4.692601e+01
2.090000e-06	1.137201e-06	-6.053945e-10	8.078397e+00	-4.352959e+01
2.100000e-06	1.181751e-06	-5.541022e-10	8.394870e+00	-4.004684e+01
2.110000e-06	1.226276e-06	-4.993483e-10	8.711165e+00	-3.647974e+01
2.120000e-06	1.270775e-06	-4.431970e-10	9.027273e+00	-3.283085e+01
2.130000e-06	1.315263e-06	-3.881972e-10	9.343307e+00	-2.910331e+01
2.140000e-06	1.359646e-06	-3.325198e-10	9.658591e+00	-2.530086e+01
2.150000e-06	1.403848e-06	-2.728245e-10	9.972591e+00	-2.142783e+01
2.160000e-06	1.448044e-06	-2.144608e-10	1.028655e+01	-1.748919e+01
2.170000e-06	1.492242e-06	-1.577950e-10	1.060052e+01	-1.349047e+01
2.180000e-06	1.536325e-06	-9.667732e-11	1.091368e+01	-9.437769e+00
2.190000e-06	1.580356e-06	-3.072819e-11	1.122646e+01	-5.337752e+00
2.200000e-06	1.624353e-06	3.448255e-11	1.153901e+01	-1.197574e+00
2.210000e-06	1.668254e-06	9.761496e-11	1.185087e+01	2.975150e+00
2.220000e-06	1.712076e-06	1.606780e-10	1.216217e+01	7.172396e+00
2.230000e-06	1.755806e-06	2.239923e-10	1.247281e+01	1.138580e+01
2.240000e-06	1.799465e-06	2.861774e-10	1.278296e+01	1.560671e+01
2.250000e-06	1.843130e-06	3.470836e-10	1.309315e+01	1.982628e+01
2.260000e-06	1.886660e-06	4.086800e-10	1.340237e+01	2.403555e+01
2.270000e-06	1.930047e-06	4.717272e-10	1.371059e+01	2.822549e+01
2.280000e-06	1.973345e-06	5.366888e-10	1.401816e+01	3.238713e+01
2.290000e-06	2.016403e-06	6.000285e-10	1.432403e+01	3.651161e+01
2.300000e-06	2.059214e-06	6.619695e-10	1.462815e+01	4.059028e+01
2.310000e-06	2.101893e-06	7.215888e-10	1.493133e+01	4.461480e+01
2.320000e-06	2.144285e-06	7.790444e-10	1.523248e+01	4.857718e+01
2.330000e-06	2.186317e-06	8.365794e-10	1.553106e+01	5.246988e+01
2.340000e-06	2.228035e-06	8.912809e-10	1.582742e+01	5.628586e+01
2.350000e-06	2.269420e-06	9.430365e-10	1.612141e+01	6.001869e+01
2.360000e-06	2.310523e-06	9.936324e-10	1.641339e+01	6.366254e+01
2.370000e-06	2.351367e-06	1.042956e-09	1.670353e+01	6.721227e+01
2.380000e-06	2.392018e-06	1.089687e-09	1.699231e+01	7.066347e+01
2.390000e-06	2.432406e-06	1.134120e-09	1.727922e+01	7.401244e+01
2.400000e-06	2.472639e-06	1.177212e-09	1.756502e+01	7.725627e+01
2.410000e-06	2.512806e-06	1.220434e-09	1.785036e+01	8.039280e+01
2.420000e-06	2.552852e-06	1.265717e-09	1.813484e+01	8.342064e+01
2.430000e-06	2.592799e-06	1.312067e-09	1.841861e+01	8.633915e+01
2.440000e-06	2.632648e-06	1.355735e-09	1.870169e+01	8.914842e+01
2.450000e-06	2.672422e-06	1.391964e-09	1.898423e+01	9.184921e+01
2.460000e-06	2.712055e-06	1.423602e-09	1.926578e+01	9.444296e+01
2.470000e-06	2.751545e-06	1.454073e-09	1.954630e+01	9.693168e+01
2.480000e-06	2.790847e-06	1.483779e-09	1.982550e+01	9.931795e+01
2.490000e-06	2.829856e-06	1.514995e-09	2.010261e+01	1.016048e+02
2.500000e-06	2.868622e-06	1.547676e-09	2.037799e+01	1.037958e+02
2.510000e-06	2.907198e-06	1.582029e-09	2.065202e+01	1.058946e+02
2.520000e-06	2.945617e-06	1.618428e-09	2.092494e+01	1.079054e+02
2.530000e-06	2.983847e-06	1.648812e-09	2.119652e+01	1.098324e+02
2.540000e-06	3.021887e-06	1.671965e-09	2.146675e+01	1.116802e+02
2.550000e-06	3.059764e-06	1.695477e-09	2.173581e+01	1.134530e+02
2.560000e-06	3.097370e-06	1.722589e-09	2.200296e+01	1.151555e+02
2.570000e-06	3.134810e-06	1.749987e-09	2.226892e+01	1.167920e+02
2.580000e-06	3.172085e-06	1.771327e-09	2.253372e+01	1.183667e+02
2.590000e-06	3.209077e-06	1.789759e-09	2.279650e+01	1.198837e+02
2.600000e-06	3.245836e-06	1.808946e-09	2.305762e+01	1.213469e+02
2.610000e-06	3.282329e-06	1.832140e-09	2.331686e+01	1.227598e+02
2.620000e-06	3.318520e-06	1.856518e-09	2.357395e+01	1.241258e+02
2.630000e-06	3.354502e-06	1.881310e-09	2.382956e+01	1.254477e+02
2.640000e-06	3.390422e-06	1.906901e-09	2.408473e+01	1.267282e+02
2.650000e-06	3.426301e-06	1.928986e-09	2.433961e+01	1.279695e+02
2.660000e-06	3.462031e-06	1.944981e-09	2.459342e+01	1.291736e+02
2.670000e-06	3.497535e-06	1.955626e-09	2.484563e+01	1.303421e+02
2.680000e-06	3.532797e-06	1.964736e-09	2.509613e+01	1.314761e+02
2.690000e-06	3.567850e-06	1.976971e-09	2.534514e+01	1.325767e+02
2.700000e-06	3.602665e-06	1.992786e-09	2.559245e+01	1.336446e+02
2.710000e-06	3.636970e-06	2.012880e-09	2.583614e+01	1.346801e+02
2.720000e-06	3.670738e-06	2.035654e-09	2.607602e+01	1.356835e+02
2.730000e-06	3.703996e-06	2.056274e-09	2.631228e+01	1.366549e+02
2.740000e-06	3.736783e-06	2.071908e-09	2.654519e+01	1.375941e+02
2.750000e-06	3.769321e-06	2.081895e-09	2.677633e+01	1.385010e+02
2.760000e-06	3.801577e-06	2.088804e-09	2.700547e+01	1.393753e+02
2.770000e-06	3.833626e-06	2.096420e-09	2.723314e+01	1.402168e+02
2.780000e-06	3.865575e-06	2.108160e-09	2.746010e+01	1.410252e+02
2.790000e-06	3.897393e-06	2.122861e-09	2.768612e+01	1.418004e+02
2.800000e-06	3.929015e-06	2.137282e-09	2.791076e+01	1.425421e+02
2.810000e-06	3.960420e-06	2.150501e-09	2.813386e+01	1.432505e+02
2.820000e-06	3.991526e-06	2.160134e-09	2.835482e+01	1.439256e+02
2.830000e-06	4.022239e-06	2.165605e-09	2.857300e+01	1.445677e+02
2.840000e-06	4.052660e-06	2.170360e-09	2.878911e+01	1.451772e+02
2.850000e-06	4.082844e-06	2.176711e-09	2.900353e+01	1.457548e+02
2.860000e-06	4.112790e-06	2.187803e-09	2.921626e+01	1.463012e+02
2.870000e-06	4.142461e-06	2.200362e-09	2.942703e+01	1.468173e+02
2.880000e-06	4.171835e-06	2.209257e-09	2.963570e+01	1.473043e+02
2.890000e-06	4.200917e-06	2.212716e-09	2.984229e+01	1.477634e+02
2.900000e-06	4.229753e-06	2.214404e-09	3.004713e+01	1.481959e+02
