# Temperatura_=_6.61
# Concentracion g/m^3_=_4090.0
# C_Vs_to_Am_M_A/Vsm_=_65563218390.804596
# pendiente_HvsI_1/m_=_3716.3
# ordenada_HvsI_A/m_=_1297.0
# frecuencia_Hz_=_135083.00203276527

Tiempo_(s)	Campo_(V.s)	Magnetizacion_(V.s)	Campo_(kA/m)	Magnetizacion_(A/m)
0.000000e+00	-5.429245e-06	-2.554539e-09	-3.839284e+01	-1.662107e+02
1.000000e-08	-5.429441e-06	-2.552421e-09	-3.839423e+01	-1.661846e+02
2.000000e-08	-5.429366e-06	-2.549199e-09	-3.839370e+01	-1.661585e+02
3.000000e-08	-5.429030e-06	-2.550464e-09	-3.839133e+01	-1.661338e+02
4.000000e-08	-5.428412e-06	-2.555359e-09	-3.838695e+01	-1.661120e+02
5.000000e-08	-5.427418e-06	-2.557455e-09	-3.837992e+01	-1.660947e+02
6.000000e-08	-5.425877e-06	-2.557093e-09	-3.836903e+01	-1.660835e+02
7.000000e-08	-5.423577e-06	-2.557354e-09	-3.835276e+01	-1.660798e+02
8.000000e-08	-5.420648e-06	-2.557263e-09	-3.833205e+01	-1.660852e+02
9.000000e-08	-5.417265e-06	-2.551187e-09	-3.830813e+01	-1.661009e+02
1.000000e-07	-5.413413e-06	-2.562407e-09	-3.828089e+01	-1.661284e+02
1.100000e-07	-5.409209e-06	-2.595207e-09	-3.825116e+01	-1.661685e+02
1.200000e-07	-5.404850e-06	-2.556449e-09	-3.822034e+01	-1.662223e+02
1.300000e-07	-5.400367e-06	-2.534570e-09	-3.818864e+01	-1.662905e+02
1.400000e-07	-5.395599e-06	-2.523739e-09	-3.815491e+01	-1.663736e+02
1.500000e-07	-5.390312e-06	-2.575764e-09	-3.811753e+01	-1.664718e+02
1.600000e-07	-5.384621e-06	-2.543945e-09	-3.807728e+01	-1.665850e+02
1.700000e-07	-5.378701e-06	-2.492160e-09	-3.803542e+01	-1.667132e+02
1.800000e-07	-5.372319e-06	-2.547270e-09	-3.799029e+01	-1.668556e+02
1.900000e-07	-5.365401e-06	-2.602869e-09	-3.794137e+01	-1.670116e+02
2.000000e-07	-5.358088e-06	-2.577121e-09	-3.788966e+01	-1.671800e+02
2.100000e-07	-5.350449e-06	-2.497077e-09	-3.783564e+01	-1.673597e+02
2.200000e-07	-5.342622e-06	-2.556140e-09	-3.778029e+01	-1.675491e+02
2.300000e-07	-5.334607e-06	-2.593563e-09	-3.772361e+01	-1.677466e+02
2.400000e-07	-5.326317e-06	-2.570946e-09	-3.766499e+01	-1.679502e+02
2.500000e-07	-5.317591e-06	-2.545834e-09	-3.760328e+01	-1.681579e+02
2.600000e-07	-5.308215e-06	-2.622911e-09	-3.753698e+01	-1.683677e+02
2.700000e-07	-5.298123e-06	-2.639971e-09	-3.746562e+01	-1.685773e+02
2.800000e-07	-5.287413e-06	-2.616030e-09	-3.738988e+01	-1.687845e+02
2.900000e-07	-5.276297e-06	-2.612280e-09	-3.731127e+01	-1.689870e+02
3.000000e-07	-5.264775e-06	-2.639903e-09	-3.722979e+01	-1.691825e+02
3.100000e-07	-5.252780e-06	-2.612810e-09	-3.714497e+01	-1.693690e+02
3.200000e-07	-5.240432e-06	-2.599279e-09	-3.705766e+01	-1.695442e+02
3.300000e-07	-5.227693e-06	-2.635235e-09	-3.696757e+01	-1.697063e+02
3.400000e-07	-5.214613e-06	-2.640155e-09	-3.687508e+01	-1.698535e+02
3.500000e-07	-5.201131e-06	-2.594262e-09	-3.677973e+01	-1.699841e+02
3.600000e-07	-5.187112e-06	-2.596013e-09	-3.668060e+01	-1.700967e+02
3.700000e-07	-5.172802e-06	-2.618114e-09	-3.657941e+01	-1.701902e+02
3.800000e-07	-5.158167e-06	-2.599922e-09	-3.647592e+01	-1.702636e+02
3.900000e-07	-5.142894e-06	-2.578260e-09	-3.636791e+01	-1.703161e+02
4.000000e-07	-5.126899e-06	-2.595872e-09	-3.625481e+01	-1.703474e+02
4.100000e-07	-5.110390e-06	-2.599050e-09	-3.613807e+01	-1.703573e+02
4.200000e-07	-5.093636e-06	-2.585050e-09	-3.601959e+01	-1.703457e+02
4.300000e-07	-5.076605e-06	-2.597151e-09	-3.589915e+01	-1.703130e+02
4.400000e-07	-5.059294e-06	-2.583868e-09	-3.577674e+01	-1.702597e+02
4.500000e-07	-5.041825e-06	-2.567824e-09	-3.565321e+01	-1.701865e+02
4.600000e-07	-5.024009e-06	-2.568848e-09	-3.552722e+01	-1.700942e+02
4.700000e-07	-5.005667e-06	-2.591487e-09	-3.539752e+01	-1.699841e+02
4.800000e-07	-4.986851e-06	-2.568319e-09	-3.526446e+01	-1.698573e+02
4.900000e-07	-4.967651e-06	-2.571167e-09	-3.512869e+01	-1.697150e+02
5.000000e-07	-4.948101e-06	-2.582488e-09	-3.499044e+01	-1.695589e+02
5.100000e-07	-4.928317e-06	-2.586695e-09	-3.485053e+01	-1.693903e+02
5.200000e-07	-4.908350e-06	-2.560455e-09	-3.470934e+01	-1.692107e+02
5.300000e-07	-4.888221e-06	-2.566608e-09	-3.456700e+01	-1.690217e+02
5.400000e-07	-4.867808e-06	-2.562068e-09	-3.442265e+01	-1.688248e+02
5.500000e-07	-4.846979e-06	-2.564280e-09	-3.427536e+01	-1.686214e+02
5.600000e-07	-4.825836e-06	-2.559394e-09	-3.412585e+01	-1.684130e+02
5.700000e-07	-4.804377e-06	-2.561850e-09	-3.397410e+01	-1.682007e+02
5.800000e-07	-4.782565e-06	-2.548540e-09	-3.381985e+01	-1.679859e+02
5.900000e-07	-4.760476e-06	-2.549999e-09	-3.366365e+01	-1.677695e+02
6.000000e-07	-4.738112e-06	-2.546178e-09	-3.350550e+01	-1.675526e+02
6.100000e-07	-4.715359e-06	-2.537595e-09	-3.334461e+01	-1.673359e+02
6.200000e-07	-4.692227e-06	-2.525810e-09	-3.318103e+01	-1.671202e+02
6.300000e-07	-4.668774e-06	-2.530554e-09	-3.301518e+01	-1.669058e+02
6.400000e-07	-4.645005e-06	-2.533446e-09	-3.284710e+01	-1.666933e+02
6.500000e-07	-4.621079e-06	-2.529045e-09	-3.267791e+01	-1.664829e+02
6.600000e-07	-4.597024e-06	-2.523073e-09	-3.250780e+01	-1.662747e+02
6.700000e-07	-4.572705e-06	-2.521678e-09	-3.233583e+01	-1.660686e+02
6.800000e-07	-4.547984e-06	-2.520651e-09	-3.216102e+01	-1.658647e+02
6.900000e-07	-4.522819e-06	-2.514087e-09	-3.198306e+01	-1.656626e+02
7.000000e-07	-4.497179e-06	-2.509122e-09	-3.180175e+01	-1.654622e+02
7.100000e-07	-4.470939e-06	-2.499971e-09	-3.161620e+01	-1.652630e+02
7.200000e-07	-4.444103e-06	-2.499575e-09	-3.142642e+01	-1.650648e+02
7.300000e-07	-4.416800e-06	-2.497371e-09	-3.123335e+01	-1.648669e+02
7.400000e-07	-4.389222e-06	-2.497395e-09	-3.103833e+01	-1.646690e+02
7.500000e-07	-4.361427e-06	-2.487750e-09	-3.084178e+01	-1.644707e+02
7.600000e-07	-4.333442e-06	-2.485292e-09	-3.064388e+01	-1.642714e+02
7.700000e-07	-4.305298e-06	-2.477257e-09	-3.044487e+01	-1.640707e+02
7.800000e-07	-4.276941e-06	-2.472657e-09	-3.024434e+01	-1.638682e+02
7.900000e-07	-4.248324e-06	-2.462618e-09	-3.004197e+01	-1.636634e+02
8.000000e-07	-4.219387e-06	-2.463818e-09	-2.983735e+01	-1.634561e+02
8.100000e-07	-4.190092e-06	-2.462111e-09	-2.963019e+01	-1.632459e+02
8.200000e-07	-4.160541e-06	-2.464538e-09	-2.942122e+01	-1.630324e+02
8.300000e-07	-4.130746e-06	-2.457947e-09	-2.921052e+01	-1.628156e+02
8.400000e-07	-4.100616e-06	-2.452548e-09	-2.899746e+01	-1.625951e+02
8.500000e-07	-4.070106e-06	-2.445037e-09	-2.878171e+01	-1.623708e+02
8.600000e-07	-4.039284e-06	-2.442720e-09	-2.856375e+01	-1.621427e+02
8.700000e-07	-4.008198e-06	-2.435267e-09	-2.834393e+01	-1.619105e+02
8.800000e-07	-3.976922e-06	-2.430703e-09	-2.812276e+01	-1.616743e+02
8.900000e-07	-3.945428e-06	-2.426087e-09	-2.790005e+01	-1.614339e+02
9.000000e-07	-3.913764e-06	-2.425807e-09	-2.767614e+01	-1.611894e+02
9.100000e-07	-3.882013e-06	-2.421090e-09	-2.745161e+01	-1.609407e+02
9.200000e-07	-3.850041e-06	-2.415771e-09	-2.722552e+01	-1.606878e+02
9.300000e-07	-3.817828e-06	-2.411187e-09	-2.699773e+01	-1.604306e+02
9.400000e-07	-3.785384e-06	-2.409182e-09	-2.676830e+01	-1.601691e+02
9.500000e-07	-3.752585e-06	-2.406040e-09	-2.653636e+01	-1.599033e+02
9.600000e-07	-3.719446e-06	-2.399025e-09	-2.630202e+01	-1.596330e+02
9.700000e-07	-3.685879e-06	-2.391835e-09	-2.606465e+01	-1.593582e+02
9.800000e-07	-3.651807e-06	-2.386211e-09	-2.582371e+01	-1.590787e+02
9.900000e-07	-3.617296e-06	-2.381302e-09	-2.557967e+01	-1.587945e+02
1.000000e-06	-3.582412e-06	-2.375380e-09	-2.533298e+01	-1.585054e+02
1.010000e-06	-3.547200e-06	-2.374060e-09	-2.508399e+01	-1.582113e+02
1.020000e-06	-3.511676e-06	-2.374776e-09	-2.483278e+01	-1.579120e+02
1.030000e-06	-3.475980e-06	-2.374389e-09	-2.458035e+01	-1.576073e+02
1.040000e-06	-3.440128e-06	-2.363888e-09	-2.432683e+01	-1.572970e+02
1.050000e-06	-3.404167e-06	-2.353361e-09	-2.407253e+01	-1.569811e+02
1.060000e-06	-3.368055e-06	-2.341269e-09	-2.381716e+01	-1.566594e+02
1.070000e-06	-3.331767e-06	-2.333228e-09	-2.356055e+01	-1.563318e+02
1.080000e-06	-3.295276e-06	-2.324838e-09	-2.330251e+01	-1.559980e+02
1.090000e-06	-3.258432e-06	-2.321421e-09	-2.304196e+01	-1.556582e+02
1.100000e-06	-3.221349e-06	-2.323213e-09	-2.277973e+01	-1.553122e+02
1.110000e-06	-3.184065e-06	-2.329176e-09	-2.251608e+01	-1.549599e+02
1.120000e-06	-3.146499e-06	-2.323107e-09	-2.225043e+01	-1.546015e+02
1.130000e-06	-3.108736e-06	-2.310182e-09	-2.198339e+01	-1.542369e+02
1.140000e-06	-3.070792e-06	-2.295511e-09	-2.171507e+01	-1.538662e+02
1.150000e-06	-3.032713e-06	-2.287129e-09	-2.144579e+01	-1.534895e+02
1.160000e-06	-2.994386e-06	-2.278925e-09	-2.117477e+01	-1.531069e+02
1.170000e-06	-2.955804e-06	-2.272041e-09	-2.090194e+01	-1.527186e+02
1.180000e-06	-2.917120e-06	-2.267887e-09	-2.062838e+01	-1.523248e+02
1.190000e-06	-2.878188e-06	-2.268832e-09	-2.035308e+01	-1.519255e+02
1.200000e-06	-2.838930e-06	-2.267366e-09	-2.007546e+01	-1.515209e+02
1.210000e-06	-2.799517e-06	-2.258408e-09	-1.979675e+01	-1.511112e+02
1.220000e-06	-2.760002e-06	-2.243303e-09	-1.951732e+01	-1.506964e+02
1.230000e-06	-2.720309e-06	-2.231139e-09	-1.923664e+01	-1.502768e+02
1.240000e-06	-2.680495e-06	-2.221508e-09	-1.895509e+01	-1.498522e+02
1.250000e-06	-2.640595e-06	-2.211987e-09	-1.867294e+01	-1.494227e+02
1.260000e-06	-2.600573e-06	-2.206227e-09	-1.838992e+01	-1.489883e+02
1.270000e-06	-2.560465e-06	-2.203685e-09	-1.810630e+01	-1.485488e+02
1.280000e-06	-2.520248e-06	-2.203156e-09	-1.782190e+01	-1.481040e+02
1.290000e-06	-2.479837e-06	-2.197068e-09	-1.753614e+01	-1.476537e+02
1.300000e-06	-2.439294e-06	-2.184102e-09	-1.724944e+01	-1.471974e+02
1.310000e-06	-2.398562e-06	-2.172458e-09	-1.696140e+01	-1.467348e+02
1.320000e-06	-2.357483e-06	-2.169130e-09	-1.667092e+01	-1.462653e+02
1.330000e-06	-2.316126e-06	-2.162747e-09	-1.637846e+01	-1.457884e+02
1.340000e-06	-2.274522e-06	-2.152597e-09	-1.608426e+01	-1.453033e+02
1.350000e-06	-2.232611e-06	-2.144370e-09	-1.578788e+01	-1.448093e+02
1.360000e-06	-2.190392e-06	-2.138805e-09	-1.548933e+01	-1.443057e+02
1.370000e-06	-2.147864e-06	-2.130474e-09	-1.518859e+01	-1.437916e+02
1.380000e-06	-2.105060e-06	-2.121079e-09	-1.488591e+01	-1.432661e+02
1.390000e-06	-2.062033e-06	-2.109488e-09	-1.458164e+01	-1.427282e+02
1.400000e-06	-2.018752e-06	-2.098652e-09	-1.427558e+01	-1.421771e+02
1.410000e-06	-1.975283e-06	-2.089899e-09	-1.396819e+01	-1.416116e+02
1.420000e-06	-1.931743e-06	-2.079144e-09	-1.366030e+01	-1.410310e+02
1.430000e-06	-1.888121e-06	-2.063687e-09	-1.335182e+01	-1.404342e+02
1.440000e-06	-1.844476e-06	-2.051983e-09	-1.304319e+01	-1.398203e+02
1.450000e-06	-1.800796e-06	-2.042687e-09	-1.273431e+01	-1.391885e+02
1.460000e-06	-1.756939e-06	-2.033639e-09	-1.242417e+01	-1.385379e+02
1.470000e-06	-1.713005e-06	-2.022757e-09	-1.211349e+01	-1.378678e+02
1.480000e-06	-1.669017e-06	-2.012388e-09	-1.180243e+01	-1.371774e+02
1.490000e-06	-1.624931e-06	-2.000485e-09	-1.149068e+01	-1.364660e+02
1.500000e-06	-1.580805e-06	-1.986141e-09	-1.117865e+01	-1.357331e+02
1.510000e-06	-1.536614e-06	-1.971720e-09	-1.086615e+01	-1.349782e+02
1.520000e-06	-1.492367e-06	-1.957708e-09	-1.055326e+01	-1.342008e+02
1.530000e-06	-1.448026e-06	-1.944395e-09	-1.023970e+01	-1.334005e+02
1.540000e-06	-1.403528e-06	-1.933414e-09	-9.925035e+00	-1.325769e+02
1.550000e-06	-1.358980e-06	-1.921565e-09	-9.610010e+00	-1.317297e+02
1.560000e-06	-1.314335e-06	-1.907624e-09	-9.294304e+00	-1.308586e+02
1.570000e-06	-1.269587e-06	-1.896229e-09	-8.977867e+00	-1.299635e+02
1.580000e-06	-1.224742e-06	-1.883068e-09	-8.660748e+00	-1.290439e+02
1.590000e-06	-1.179762e-06	-1.866036e-09	-8.342671e+00	-1.280997e+02
1.600000e-06	-1.134694e-06	-1.848836e-09	-8.023972e+00	-1.271305e+02
1.610000e-06	-1.089551e-06	-1.834482e-09	-7.704747e+00	-1.261360e+02
1.620000e-06	-1.044327e-06	-1.821155e-09	-7.384943e+00	-1.251158e+02
1.630000e-06	-9.990040e-07	-1.805956e-09	-7.064445e+00	-1.240694e+02
1.640000e-06	-9.536656e-07	-1.787777e-09	-6.743835e+00	-1.229962e+02
1.650000e-06	-9.082177e-07	-1.770055e-09	-6.422451e+00	-1.218956e+02
1.660000e-06	-8.626180e-07	-1.753277e-09	-6.099993e+00	-1.207667e+02
1.670000e-06	-8.170130e-07	-1.734731e-09	-5.777498e+00	-1.196087e+02
1.680000e-06	-7.713885e-07	-1.713307e-09	-5.454865e+00	-1.184204e+02
1.690000e-06	-7.257102e-07	-1.692167e-09	-5.131851e+00	-1.172009e+02
1.700000e-06	-6.800238e-07	-1.673652e-09	-4.808780e+00	-1.159486e+02
1.710000e-06	-6.342269e-07	-1.657981e-09	-4.484928e+00	-1.146623e+02
1.720000e-06	-5.883477e-07	-1.639907e-09	-4.160494e+00	-1.133403e+02
1.730000e-06	-5.425452e-07	-1.618984e-09	-3.836602e+00	-1.119810e+02
1.740000e-06	-4.967365e-07	-1.598405e-09	-3.512667e+00	-1.105826e+02
1.750000e-06	-4.508953e-07	-1.577576e-09	-3.188501e+00	-1.091433e+02
1.760000e-06	-4.049870e-07	-1.555314e-09	-2.863861e+00	-1.076611e+02
1.770000e-06	-3.590044e-07	-1.534271e-09	-2.538696e+00	-1.061341e+02
1.780000e-06	-3.129643e-07	-1.513325e-09	-2.213123e+00	-1.045603e+02
1.790000e-06	-2.669402e-07	-1.493263e-09	-1.887664e+00	-1.029375e+02
1.800000e-06	-2.209468e-07	-1.468117e-09	-1.562423e+00	-1.012640e+02
1.810000e-06	-1.748746e-07	-1.436235e-09	-1.236623e+00	-9.953768e+01
1.820000e-06	-1.286051e-07	-1.406152e-09	-9.094298e-01	-9.775674e+01
1.830000e-06	-8.236198e-08	-1.380696e-09	-5.824218e-01	-9.591941e+01
1.840000e-06	-3.638373e-08	-1.354688e-09	-2.572871e-01	-9.402407e+01
1.850000e-06	9.585706e-09	-1.326782e-09	6.778521e-02	-9.206923e+01
1.860000e-06	5.562297e-08	-1.298135e-09	3.933372e-01	-9.005357e+01
1.870000e-06	1.016378e-07	-1.268523e-09	7.187308e-01	-8.797599e+01
1.880000e-06	1.476542e-07	-1.236301e-09	1.044135e+00	-8.583557e+01
1.890000e-06	1.937068e-07	-1.199715e-09	1.369796e+00	-8.363163e+01
1.900000e-06	2.397511e-07	-1.161852e-09	1.695397e+00	-8.136372e+01
1.910000e-06	2.857449e-07	-1.126648e-09	2.020641e+00	-7.903166e+01
1.920000e-06	3.317048e-07	-1.091629e-09	2.345646e+00	-7.663549e+01
1.930000e-06	3.776110e-07	-1.056046e-09	2.670272e+00	-7.417553e+01
1.940000e-06	4.234664e-07	-1.022442e-09	2.994538e+00	-7.165233e+01
1.950000e-06	4.693952e-07	-9.889682e-10	3.319323e+00	-6.906671e+01
1.960000e-06	5.152728e-07	-9.533154e-10	3.643746e+00	-6.641973e+01
1.970000e-06	5.611064e-07	-9.139218e-10	3.967857e+00	-6.371266e+01
1.980000e-06	6.069556e-07	-8.714799e-10	4.292080e+00	-6.094700e+01
1.990000e-06	6.526943e-07	-8.262426e-10	4.615520e+00	-5.812446e+01
2.000000e-06	6.983144e-07	-7.813571e-10	4.938122e+00	-5.524693e+01
2.010000e-06	7.438785e-07	-7.375107e-10	5.260328e+00	-5.231646e+01
2.020000e-06	7.894851e-07	-6.955784e-10	5.582835e+00	-4.933524e+01
2.030000e-06	8.351501e-07	-6.539196e-10	5.905755e+00	-4.630562e+01
2.040000e-06	8.807402e-07	-6.099939e-10	6.228144e+00	-4.323003e+01
2.050000e-06	9.261947e-07	-5.607866e-10	6.549575e+00	-4.011098e+01
2.060000e-06	9.715587e-07	-5.102625e-10	6.870367e+00	-3.695108e+01
2.070000e-06	1.016782e-06	-4.615928e-10	7.190166e+00	-3.375298e+01
2.080000e-06	1.061943e-06	-4.148485e-10	7.509520e+00	-3.051934e+01
2.090000e-06	1.107111e-06	-3.685621e-10	7.828922e+00	-2.725288e+01
2.100000e-06	1.152139e-06	-3.223410e-10	8.147339e+00	-2.395631e+01
2.110000e-06	1.197030e-06	-2.761007e-10	8.464782e+00	-2.063234e+01
2.120000e-06	1.241816e-06	-2.262461e-10	8.781487e+00	-1.728368e+01
2.130000e-06	1.286494e-06	-1.732213e-10	9.097429e+00	-1.391300e+01
2.140000e-06	1.331125e-06	-1.192829e-10	9.413034e+00	-1.052300e+01
2.150000e-06	1.375621e-06	-6.563687e-11	9.727687e+00	-7.116326e+00
2.160000e-06	1.419976e-06	-1.259277e-11	1.004135e+01	-3.695618e+00
2.170000e-06	1.464231e-06	3.855581e-11	1.035429e+01	-2.635039e-01
2.180000e-06	1.508419e-06	8.722745e-11	1.066676e+01	3.177396e+00
2.190000e-06	1.552570e-06	1.366709e-10	1.097898e+01	6.624467e+00
2.200000e-06	1.596631e-06	1.880935e-10	1.129056e+01	1.007509e+01
2.210000e-06	1.640637e-06	2.405377e-10	1.160175e+01	1.352664e+01
2.220000e-06	1.684616e-06	2.948796e-10	1.191274e+01	1.697647e+01
2.230000e-06	1.728577e-06	3.489397e-10	1.222361e+01	2.042192e+01
2.240000e-06	1.772481e-06	4.014826e-10	1.253408e+01	2.386030e+01
2.250000e-06	1.816278e-06	4.516136e-10	1.284379e+01	2.728887e+01
2.260000e-06	1.860000e-06	4.995079e-10	1.315297e+01	3.070488e+01
2.270000e-06	1.903656e-06	5.485269e-10	1.346168e+01	3.410554e+01
2.280000e-06	1.947168e-06	6.006647e-10	1.376938e+01	3.748802e+01
2.290000e-06	1.990630e-06	6.524720e-10	1.407672e+01	4.084945e+01
2.300000e-06	2.033973e-06	7.018912e-10	1.438322e+01	4.418694e+01
2.310000e-06	2.077062e-06	7.495395e-10	1.468792e+01	4.749760e+01
2.320000e-06	2.119909e-06	7.965066e-10	1.499091e+01	5.077851e+01
2.330000e-06	2.162497e-06	8.415826e-10	1.529207e+01	5.402676e+01
2.340000e-06	2.204872e-06	8.846748e-10	1.559173e+01	5.723946e+01
2.350000e-06	2.246924e-06	9.283852e-10	1.588910e+01	6.041375e+01
2.360000e-06	2.288661e-06	9.739570e-10	1.618424e+01	6.354684e+01
2.370000e-06	2.330210e-06	1.023070e-09	1.647806e+01	6.663598e+01
2.380000e-06	2.371423e-06	1.071283e-09	1.676949e+01	6.967855e+01
2.390000e-06	2.412225e-06	1.116103e-09	1.705802e+01	7.267201e+01
2.400000e-06	2.452797e-06	1.157717e-09	1.734492e+01	7.561396e+01
2.410000e-06	2.493249e-06	1.193661e-09	1.763098e+01	7.850218e+01
2.420000e-06	2.533561e-06	1.226365e-09	1.791605e+01	8.133457e+01
2.430000e-06	2.573690e-06	1.257667e-09	1.819982e+01	8.410925e+01
2.440000e-06	2.613669e-06	1.294957e-09	1.848253e+01	8.682456e+01
2.450000e-06	2.653573e-06	1.338132e-09	1.876471e+01	8.947900e+01
2.460000e-06	2.693403e-06	1.383140e-09	1.904637e+01	9.207137e+01
2.470000e-06	2.733140e-06	1.429011e-09	1.932737e+01	9.460064e+01
2.480000e-06	2.772771e-06	1.469534e-09	1.960762e+01	9.706606e+01
2.490000e-06	2.812214e-06	1.498288e-09	1.988654e+01	9.946712e+01
2.500000e-06	2.851495e-06	1.520961e-09	2.016431e+01	1.018035e+02
2.510000e-06	2.890505e-06	1.543762e-09	2.044017e+01	1.040753e+02
2.520000e-06	2.929246e-06	1.571208e-09	2.071413e+01	1.062825e+02
2.530000e-06	2.967737e-06	1.604342e-09	2.098632e+01	1.084257e+02
2.540000e-06	3.006003e-06	1.638553e-09	2.125691e+01	1.105054e+02
2.550000e-06	3.044144e-06	1.672503e-09	2.152663e+01	1.125224e+02
2.560000e-06	3.082084e-06	1.705934e-09	2.179492e+01	1.144777e+02
2.570000e-06	3.119837e-06	1.735034e-09	2.206189e+01	1.163724e+02
2.580000e-06	3.157395e-06	1.757045e-09	2.232748e+01	1.182077e+02
2.590000e-06	3.194779e-06	1.774560e-09	2.259184e+01	1.199850e+02
2.600000e-06	3.231906e-06	1.791869e-09	2.285438e+01	1.217057e+02
2.610000e-06	3.268655e-06	1.812640e-09	2.311425e+01	1.233713e+02
2.620000e-06	3.305146e-06	1.836966e-09	2.337230e+01	1.249831e+02
2.630000e-06	3.341506e-06	1.864120e-09	2.362942e+01	1.265429e+02
2.640000e-06	3.377715e-06	1.892072e-09	2.388547e+01	1.280520e+02
2.650000e-06	3.413756e-06	1.919125e-09	2.414034e+01	1.295118e+02
2.660000e-06	3.449678e-06	1.941633e-09	2.439436e+01	1.309240e+02
2.670000e-06	3.485469e-06	1.959511e-09	2.464745e+01	1.322897e+02
2.680000e-06	3.521106e-06	1.975067e-09	2.489946e+01	1.336102e+02
2.690000e-06	3.556579e-06	1.989485e-09	2.515031e+01	1.348869e+02
2.700000e-06	3.591818e-06	2.003085e-09	2.539950e+01	1.361207e+02
2.710000e-06	3.626671e-06	2.017401e-09	2.564596e+01	1.373127e+02
2.720000e-06	3.660980e-06	2.033555e-09	2.588858e+01	1.384639e+02
2.730000e-06	3.694902e-06	2.052272e-09	2.612845e+01	1.395751e+02
2.740000e-06	3.728408e-06	2.070023e-09	2.636539e+01	1.406470e+02
2.750000e-06	3.761312e-06	2.087181e-09	2.659807e+01	1.416806e+02
2.760000e-06	3.793895e-06	2.106011e-09	2.682849e+01	1.426763e+02
2.770000e-06	3.826272e-06	2.125080e-09	2.705744e+01	1.436348e+02
2.780000e-06	3.858384e-06	2.137946e-09	2.728452e+01	1.445567e+02
2.790000e-06	3.890339e-06	2.145704e-09	2.751049e+01	1.454427e+02
2.800000e-06	3.922173e-06	2.154434e-09	2.773560e+01	1.462932e+02
2.810000e-06	3.953806e-06	2.165930e-09	2.795929e+01	1.471090e+02
2.820000e-06	3.985215e-06	2.176607e-09	2.818140e+01	1.478906e+02
2.830000e-06	4.016353e-06	2.185978e-09	2.840159e+01	1.486388e+02
2.840000e-06	4.047193e-06	2.197429e-09	2.861968e+01	1.493542e+02
2.850000e-06	4.077654e-06	2.212494e-09	2.883508e+01	1.500379e+02
2.860000e-06	4.107752e-06	2.227254e-09	2.904792e+01	1.506906e+02
2.870000e-06	4.137680e-06	2.238986e-09	2.925955e+01	1.513133e+02
2.880000e-06	4.167399e-06	2.246704e-09	2.946971e+01	1.519071e+02
2.890000e-06	4.196846e-06	2.251490e-09	2.967795e+01	1.524732e+02
2.900000e-06	4.225958e-06	2.256450e-09	2.988381e+01	1.530128e+02
