# Temperatura_=_11.43
# Concentracion g/m^3_=_4090.0
# C_Vs_to_Am_M_A/Vsm_=_65563218390.804596
# pendiente_HvsI_1/m_=_3716.3
# ordenada_HvsI_A/m_=_1297.0
# frecuencia_Hz_=_135082.34912269816

Tiempo_(s)	Campo_(V.s)	Magnetizacion_(V.s)	Campo_(kA/m)	Magnetizacion_(A/m)
0.000000e+00	-5.420457e-06	-2.615042e-09	-3.838853e+01	-1.680294e+02
1.000000e-08	-5.420593e-06	-2.607917e-09	-3.838950e+01	-1.679954e+02
2.000000e-08	-5.420463e-06	-2.603194e-09	-3.838857e+01	-1.679639e+02
3.000000e-08	-5.419973e-06	-2.600704e-09	-3.838510e+01	-1.679366e+02
4.000000e-08	-5.419064e-06	-2.597141e-09	-3.837867e+01	-1.679152e+02
5.000000e-08	-5.417666e-06	-2.598306e-09	-3.836877e+01	-1.679013e+02
6.000000e-08	-5.415743e-06	-2.620579e-09	-3.835515e+01	-1.678967e+02
7.000000e-08	-5.413224e-06	-2.624933e-09	-3.833730e+01	-1.679027e+02
8.000000e-08	-5.410136e-06	-2.569126e-09	-3.831544e+01	-1.679210e+02
9.000000e-08	-5.406509e-06	-2.522115e-09	-3.828975e+01	-1.679526e+02
1.000000e-07	-5.402388e-06	-2.596692e-09	-3.826056e+01	-1.679988e+02
1.100000e-07	-5.397930e-06	-2.617511e-09	-3.822899e+01	-1.680603e+02
1.200000e-07	-5.393331e-06	-2.601657e-09	-3.819642e+01	-1.681377e+02
1.300000e-07	-5.388465e-06	-2.524562e-09	-3.816196e+01	-1.682315e+02
1.400000e-07	-5.383208e-06	-2.600342e-09	-3.812473e+01	-1.683416e+02
1.500000e-07	-5.377584e-06	-2.646005e-09	-3.808490e+01	-1.684680e+02
1.600000e-07	-5.371639e-06	-2.584298e-09	-3.804279e+01	-1.686101e+02
1.700000e-07	-5.365311e-06	-2.515813e-09	-3.799798e+01	-1.687672e+02
1.800000e-07	-5.358505e-06	-2.549169e-09	-3.794978e+01	-1.689381e+02
1.900000e-07	-5.351303e-06	-2.610336e-09	-3.789877e+01	-1.691216e+02
2.000000e-07	-5.343880e-06	-2.573110e-09	-3.784620e+01	-1.693162e+02
2.100000e-07	-5.336121e-06	-2.572658e-09	-3.779125e+01	-1.695200e+02
2.200000e-07	-5.328078e-06	-2.596651e-09	-3.773429e+01	-1.697311e+02
2.300000e-07	-5.319819e-06	-2.620452e-09	-3.767580e+01	-1.699473e+02
2.400000e-07	-5.311163e-06	-2.577609e-09	-3.761449e+01	-1.701664e+02
2.500000e-07	-5.301978e-06	-2.613001e-09	-3.754944e+01	-1.703861e+02
2.600000e-07	-5.292016e-06	-2.619873e-09	-3.747889e+01	-1.706038e+02
2.700000e-07	-5.281425e-06	-2.611012e-09	-3.740388e+01	-1.708171e+02
2.800000e-07	-5.270406e-06	-2.599914e-09	-3.732585e+01	-1.710238e+02
2.900000e-07	-5.258962e-06	-2.639013e-09	-3.724480e+01	-1.712213e+02
3.000000e-07	-5.247129e-06	-2.621381e-09	-3.716099e+01	-1.714076e+02
3.100000e-07	-5.235000e-06	-2.607421e-09	-3.707509e+01	-1.715805e+02
3.200000e-07	-5.222408e-06	-2.599641e-09	-3.698592e+01	-1.717381e+02
3.300000e-07	-5.209303e-06	-2.618499e-09	-3.689310e+01	-1.718786e+02
3.400000e-07	-5.195834e-06	-2.604306e-09	-3.679772e+01	-1.720007e+02
3.500000e-07	-5.182073e-06	-2.624599e-09	-3.670026e+01	-1.721029e+02
3.600000e-07	-5.167830e-06	-2.617603e-09	-3.659938e+01	-1.721844e+02
3.700000e-07	-5.153132e-06	-2.606495e-09	-3.649530e+01	-1.722443e+02
3.800000e-07	-5.138059e-06	-2.598371e-09	-3.638854e+01	-1.722823e+02
3.900000e-07	-5.122426e-06	-2.611096e-09	-3.627783e+01	-1.722982e+02
4.000000e-07	-5.106260e-06	-2.596831e-09	-3.616334e+01	-1.722921e+02
4.100000e-07	-5.089709e-06	-2.578838e-09	-3.604612e+01	-1.722642e+02
4.200000e-07	-5.072764e-06	-2.593048e-09	-3.592611e+01	-1.722152e+02
4.300000e-07	-5.055492e-06	-2.603008e-09	-3.580379e+01	-1.721459e+02
4.400000e-07	-5.038079e-06	-2.601242e-09	-3.568047e+01	-1.720573e+02
4.500000e-07	-5.020315e-06	-2.583942e-09	-3.555466e+01	-1.719505e+02
4.600000e-07	-5.002064e-06	-2.584563e-09	-3.542541e+01	-1.718269e+02
4.700000e-07	-4.983457e-06	-2.581727e-09	-3.529363e+01	-1.716878e+02
4.800000e-07	-4.964524e-06	-2.591328e-09	-3.515954e+01	-1.715348e+02
4.900000e-07	-4.945218e-06	-2.573407e-09	-3.502281e+01	-1.713695e+02
5.000000e-07	-4.925566e-06	-2.574323e-09	-3.488364e+01	-1.711933e+02
5.100000e-07	-4.905712e-06	-2.576211e-09	-3.474303e+01	-1.710079e+02
5.200000e-07	-4.885687e-06	-2.591607e-09	-3.460121e+01	-1.708148e+02
5.300000e-07	-4.865376e-06	-2.576726e-09	-3.445736e+01	-1.706153e+02
5.400000e-07	-4.844758e-06	-2.573395e-09	-3.431134e+01	-1.704108e+02
5.500000e-07	-4.823742e-06	-2.563450e-09	-3.416250e+01	-1.702026e+02
5.600000e-07	-4.802396e-06	-2.572558e-09	-3.401133e+01	-1.699917e+02
5.700000e-07	-4.780808e-06	-2.563557e-09	-3.385844e+01	-1.697792e+02
5.800000e-07	-4.758851e-06	-2.551404e-09	-3.370293e+01	-1.695658e+02
5.900000e-07	-4.736570e-06	-2.534218e-09	-3.354513e+01	-1.693522e+02
6.000000e-07	-4.713958e-06	-2.548320e-09	-3.338500e+01	-1.691389e+02
6.100000e-07	-4.690966e-06	-2.548833e-09	-3.322216e+01	-1.689262e+02
6.200000e-07	-4.667694e-06	-2.541522e-09	-3.305734e+01	-1.687144e+02
6.300000e-07	-4.644142e-06	-2.533041e-09	-3.289054e+01	-1.685034e+02
6.400000e-07	-4.620307e-06	-2.537206e-09	-3.272174e+01	-1.682932e+02
6.500000e-07	-4.596191e-06	-2.529357e-09	-3.255095e+01	-1.680836e+02
6.600000e-07	-4.571908e-06	-2.518482e-09	-3.237897e+01	-1.678744e+02
6.700000e-07	-4.547255e-06	-2.504181e-09	-3.220438e+01	-1.676651e+02
6.800000e-07	-4.522104e-06	-2.499917e-09	-3.202626e+01	-1.674554e+02
6.900000e-07	-4.496602e-06	-2.507400e-09	-3.184565e+01	-1.672448e+02
7.000000e-07	-4.470512e-06	-2.510284e-09	-3.166087e+01	-1.670328e+02
7.100000e-07	-4.443898e-06	-2.502715e-09	-3.147239e+01	-1.668189e+02
7.200000e-07	-4.416906e-06	-2.496521e-09	-3.128123e+01	-1.666026e+02
7.300000e-07	-4.389540e-06	-2.498656e-09	-3.108742e+01	-1.663836e+02
7.400000e-07	-4.361895e-06	-2.487508e-09	-3.089163e+01	-1.661614e+02
7.500000e-07	-4.334020e-06	-2.472725e-09	-3.069422e+01	-1.659355e+02
7.600000e-07	-4.305970e-06	-2.460344e-09	-3.049556e+01	-1.657058e+02
7.700000e-07	-4.277674e-06	-2.464796e-09	-3.029516e+01	-1.654720e+02
7.800000e-07	-4.249087e-06	-2.466337e-09	-3.009270e+01	-1.652339e+02
7.900000e-07	-4.220163e-06	-2.469243e-09	-2.988786e+01	-1.649915e+02
8.000000e-07	-4.190934e-06	-2.461976e-09	-2.968086e+01	-1.647445e+02
8.100000e-07	-4.161453e-06	-2.460723e-09	-2.947207e+01	-1.644932e+02
8.200000e-07	-4.131767e-06	-2.452351e-09	-2.926183e+01	-1.642376e+02
8.300000e-07	-4.101802e-06	-2.441971e-09	-2.904961e+01	-1.639778e+02
8.400000e-07	-4.071464e-06	-2.424778e-09	-2.883475e+01	-1.637139e+02
8.500000e-07	-4.040927e-06	-2.423663e-09	-2.861848e+01	-1.634461e+02
8.600000e-07	-4.010137e-06	-2.424744e-09	-2.840042e+01	-1.631748e+02
8.700000e-07	-3.979061e-06	-2.429401e-09	-2.818034e+01	-1.629000e+02
8.800000e-07	-3.947794e-06	-2.423984e-09	-2.795890e+01	-1.626219e+02
8.900000e-07	-3.916229e-06	-2.420070e-09	-2.773535e+01	-1.623408e+02
9.000000e-07	-3.884440e-06	-2.412279e-09	-2.751022e+01	-1.620568e+02
9.100000e-07	-3.852508e-06	-2.405331e-09	-2.728407e+01	-1.617700e+02
9.200000e-07	-3.820362e-06	-2.394054e-09	-2.705641e+01	-1.614806e+02
9.300000e-07	-3.788021e-06	-2.391311e-09	-2.682736e+01	-1.611884e+02
9.400000e-07	-3.755366e-06	-2.393092e-09	-2.659609e+01	-1.608935e+02
9.500000e-07	-3.722319e-06	-2.395954e-09	-2.636205e+01	-1.605959e+02
9.600000e-07	-3.688907e-06	-2.392222e-09	-2.612542e+01	-1.602953e+02
9.700000e-07	-3.655162e-06	-2.387016e-09	-2.588644e+01	-1.599916e+02
9.800000e-07	-3.620941e-06	-2.382924e-09	-2.564408e+01	-1.596846e+02
9.900000e-07	-3.586233e-06	-2.378567e-09	-2.539827e+01	-1.593740e+02
1.000000e-06	-3.551157e-06	-2.372273e-09	-2.514985e+01	-1.590595e+02
1.010000e-06	-3.515795e-06	-2.365959e-09	-2.489941e+01	-1.587408e+02
1.020000e-06	-3.480318e-06	-2.364180e-09	-2.464816e+01	-1.584174e+02
1.030000e-06	-3.444599e-06	-2.359649e-09	-2.439519e+01	-1.580892e+02
1.040000e-06	-3.408677e-06	-2.354500e-09	-2.414079e+01	-1.577557e+02
1.050000e-06	-3.372638e-06	-2.344843e-09	-2.388555e+01	-1.574166e+02
1.060000e-06	-3.336390e-06	-2.336458e-09	-2.362884e+01	-1.570717e+02
1.070000e-06	-3.299913e-06	-2.326211e-09	-2.337051e+01	-1.567207e+02
1.080000e-06	-3.263203e-06	-2.318568e-09	-2.311052e+01	-1.563633e+02
1.090000e-06	-3.226279e-06	-2.310462e-09	-2.284902e+01	-1.559994e+02
1.100000e-06	-3.189069e-06	-2.310114e-09	-2.258549e+01	-1.556290e+02
1.110000e-06	-3.151649e-06	-2.307998e-09	-2.232048e+01	-1.552520e+02
1.120000e-06	-3.114101e-06	-2.304564e-09	-2.205456e+01	-1.548683e+02
1.130000e-06	-3.076348e-06	-2.297488e-09	-2.178718e+01	-1.544781e+02
1.140000e-06	-3.038364e-06	-2.291520e-09	-2.151818e+01	-1.540815e+02
1.150000e-06	-3.000184e-06	-2.283351e-09	-2.124778e+01	-1.536786e+02
1.160000e-06	-2.961785e-06	-2.278414e-09	-2.097583e+01	-1.532696e+02
1.170000e-06	-2.923169e-06	-2.269215e-09	-2.070235e+01	-1.528549e+02
1.180000e-06	-2.884335e-06	-2.259829e-09	-2.042732e+01	-1.524345e+02
1.190000e-06	-2.845345e-06	-2.250848e-09	-2.015118e+01	-1.520088e+02
1.200000e-06	-2.806151e-06	-2.245828e-09	-1.987360e+01	-1.515780e+02
1.210000e-06	-2.766738e-06	-2.237481e-09	-1.959448e+01	-1.511424e+02
1.220000e-06	-2.727201e-06	-2.227610e-09	-1.931447e+01	-1.507020e+02
1.230000e-06	-2.687521e-06	-2.215760e-09	-1.903345e+01	-1.502570e+02
1.240000e-06	-2.647772e-06	-2.207327e-09	-1.875194e+01	-1.498074e+02
1.250000e-06	-2.607940e-06	-2.199944e-09	-1.846984e+01	-1.493532e+02
1.260000e-06	-2.567962e-06	-2.192024e-09	-1.818671e+01	-1.488943e+02
1.270000e-06	-2.527801e-06	-2.184535e-09	-1.790229e+01	-1.484304e+02
1.280000e-06	-2.487501e-06	-2.176706e-09	-1.761688e+01	-1.479612e+02
1.290000e-06	-2.447125e-06	-2.168530e-09	-1.733093e+01	-1.474862e+02
1.300000e-06	-2.406498e-06	-2.157951e-09	-1.704320e+01	-1.470050e+02
1.310000e-06	-2.365532e-06	-2.149321e-09	-1.675307e+01	-1.465167e+02
1.320000e-06	-2.324402e-06	-2.139637e-09	-1.646178e+01	-1.460207e+02
1.330000e-06	-2.283095e-06	-2.129498e-09	-1.616924e+01	-1.455160e+02
1.340000e-06	-2.241417e-06	-2.120446e-09	-1.587407e+01	-1.450017e+02
1.350000e-06	-2.199427e-06	-2.113591e-09	-1.557669e+01	-1.444767e+02
1.360000e-06	-2.157135e-06	-2.105211e-09	-1.527717e+01	-1.439399e+02
1.370000e-06	-2.114521e-06	-2.096530e-09	-1.497537e+01	-1.433901e+02
1.380000e-06	-2.071691e-06	-2.083739e-09	-1.467204e+01	-1.428262e+02
1.390000e-06	-2.028699e-06	-2.070014e-09	-1.436757e+01	-1.422470e+02
1.400000e-06	-1.985565e-06	-2.057890e-09	-1.406208e+01	-1.416511e+02
1.410000e-06	-1.942275e-06	-2.048479e-09	-1.375550e+01	-1.410376e+02
1.420000e-06	-1.898811e-06	-2.037583e-09	-1.344768e+01	-1.404052e+02
1.430000e-06	-1.855179e-06	-2.027858e-09	-1.313867e+01	-1.397529e+02
1.440000e-06	-1.811440e-06	-2.018572e-09	-1.282891e+01	-1.390797e+02
1.450000e-06	-1.767652e-06	-2.009569e-09	-1.251879e+01	-1.383848e+02
1.460000e-06	-1.723800e-06	-1.995282e-09	-1.220822e+01	-1.376672e+02
1.470000e-06	-1.679860e-06	-1.979559e-09	-1.189703e+01	-1.369265e+02
1.480000e-06	-1.635831e-06	-1.964104e-09	-1.158521e+01	-1.361620e+02
1.490000e-06	-1.591695e-06	-1.949218e-09	-1.127263e+01	-1.353734e+02
1.500000e-06	-1.547478e-06	-1.936131e-09	-1.095948e+01	-1.345602e+02
1.510000e-06	-1.503194e-06	-1.922895e-09	-1.064586e+01	-1.337224e+02
1.520000e-06	-1.458800e-06	-1.910603e-09	-1.033145e+01	-1.328598e+02
1.530000e-06	-1.414391e-06	-1.900101e-09	-1.001694e+01	-1.319724e+02
1.540000e-06	-1.369938e-06	-1.890158e-09	-9.702114e+00	-1.310605e+02
1.550000e-06	-1.325380e-06	-1.877128e-09	-9.386551e+00	-1.301240e+02
1.560000e-06	-1.280712e-06	-1.860860e-09	-9.070202e+00	-1.291632e+02
1.570000e-06	-1.235950e-06	-1.844529e-09	-8.753194e+00	-1.281784e+02
1.580000e-06	-1.191147e-06	-1.827367e-09	-8.435888e+00	-1.271696e+02
1.590000e-06	-1.146275e-06	-1.813533e-09	-8.118103e+00	-1.261371e+02
1.600000e-06	-1.101343e-06	-1.802075e-09	-7.799882e+00	-1.250809e+02
1.610000e-06	-1.056236e-06	-1.792586e-09	-7.480433e+00	-1.240012e+02
1.620000e-06	-1.010921e-06	-1.784586e-09	-7.159504e+00	-1.228977e+02
1.630000e-06	-9.655523e-07	-1.772495e-09	-6.838194e+00	-1.217702e+02
1.640000e-06	-9.201547e-07	-1.753450e-09	-6.516681e+00	-1.206183e+02
1.650000e-06	-8.747941e-07	-1.729948e-09	-6.195430e+00	-1.194416e+02
1.660000e-06	-8.294312e-07	-1.706852e-09	-5.874163e+00	-1.182390e+02
1.670000e-06	-7.839115e-07	-1.685640e-09	-5.551785e+00	-1.170099e+02
1.680000e-06	-7.383328e-07	-1.664875e-09	-5.228989e+00	-1.157528e+02
1.690000e-06	-6.926936e-07	-1.646483e-09	-4.905765e+00	-1.144665e+02
1.700000e-06	-6.469985e-07	-1.635504e-09	-4.582145e+00	-1.131494e+02
1.710000e-06	-6.012316e-07	-1.624560e-09	-4.258017e+00	-1.117996e+02
1.720000e-06	-5.554158e-07	-1.606140e-09	-3.933542e+00	-1.104152e+02
1.730000e-06	-5.095892e-07	-1.579366e-09	-3.608991e+00	-1.089939e+02
1.740000e-06	-4.637506e-07	-1.548698e-09	-3.284355e+00	-1.075336e+02
1.750000e-06	-4.178531e-07	-1.516914e-09	-2.959301e+00	-1.060318e+02
1.760000e-06	-3.718989e-07	-1.488607e-09	-2.633847e+00	-1.044859e+02
1.770000e-06	-3.259672e-07	-1.465379e-09	-2.308551e+00	-1.028933e+02
1.780000e-06	-2.799990e-07	-1.450364e-09	-1.982997e+00	-1.012515e+02
1.790000e-06	-2.340571e-07	-1.437359e-09	-1.657629e+00	-9.955785e+01
1.800000e-06	-1.882082e-07	-1.413868e-09	-1.332920e+00	-9.780978e+01
1.810000e-06	-1.423171e-07	-1.380572e-09	-1.007912e+00	-9.600485e+01
1.820000e-06	-9.635179e-08	-1.346576e-09	-6.823786e-01	-9.414072e+01
1.830000e-06	-5.035781e-08	-1.314386e-09	-3.566420e-01	-9.221525e+01
1.840000e-06	-4.358627e-09	-1.283283e-09	-3.086848e-02	-9.022645e+01
1.850000e-06	4.161690e-08	-1.250757e-09	2.947375e-01	-8.817261e+01
1.860000e-06	8.764464e-08	-1.219313e-09	6.207132e-01	-8.605226e+01
1.870000e-06	1.336909e-07	-1.190091e-09	9.468199e-01	-8.386424e+01
1.880000e-06	1.796770e-07	-1.158461e-09	1.272501e+00	-8.160770e+01
1.890000e-06	2.256562e-07	-1.121814e-09	1.598133e+00	-7.928210e+01
1.900000e-06	2.716305e-07	-1.083904e-09	1.923730e+00	-7.688726e+01
1.910000e-06	3.175529e-07	-1.047689e-09	2.248960e+00	-7.442336e+01
1.920000e-06	3.634747e-07	-1.011216e-09	2.574185e+00	-7.189091e+01
1.930000e-06	4.093867e-07	-9.736570e-10	2.899341e+00	-6.929078e+01
1.940000e-06	4.553535e-07	-9.345317e-10	3.224886e+00	-6.662418e+01
1.950000e-06	5.013386e-07	-8.932045e-10	3.550559e+00	-6.389263e+01
1.960000e-06	5.472009e-07	-8.513295e-10	3.875363e+00	-6.109798e+01
1.970000e-06	5.929884e-07	-8.072998e-10	4.199637e+00	-5.824235e+01
1.980000e-06	6.386251e-07	-7.581137e-10	4.522844e+00	-5.532812e+01
1.990000e-06	6.841947e-07	-7.085964e-10	4.845575e+00	-5.235790e+01
2.000000e-06	7.297676e-07	-6.645286e-10	5.168329e+00	-4.933451e+01
2.010000e-06	7.752737e-07	-6.244761e-10	5.490611e+00	-4.626092e+01
2.020000e-06	8.207518e-07	-5.820984e-10	5.812693e+00	-4.314025e+01
2.030000e-06	8.662514e-07	-5.362115e-10	6.134929e+00	-3.997572e+01
2.040000e-06	9.117430e-07	-4.866268e-10	6.457108e+00	-3.677060e+01
2.050000e-06	9.571498e-07	-4.340367e-10	6.778686e+00	-3.352822e+01
2.060000e-06	1.002451e-06	-3.801254e-10	7.099514e+00	-3.025191e+01
2.070000e-06	1.047622e-06	-3.280673e-10	7.419424e+00	-2.694498e+01
2.080000e-06	1.092643e-06	-2.805024e-10	7.738272e+00	-2.361070e+01
2.090000e-06	1.137573e-06	-2.385545e-10	8.056470e+00	-2.025227e+01
2.100000e-06	1.182491e-06	-1.971994e-10	8.374584e+00	-1.687283e+01
2.110000e-06	1.227321e-06	-1.507363e-10	8.692084e+00	-1.347541e+01
2.120000e-06	1.272067e-06	-9.713445e-11	9.008980e+00	-1.006295e+01
2.130000e-06	1.316702e-06	-4.024327e-11	9.325094e+00	-6.638276e+00
2.140000e-06	1.361170e-06	1.453839e-11	9.640022e+00	-3.204131e+00
2.150000e-06	1.405549e-06	6.707374e-11	9.954317e+00	2.368607e-01
2.160000e-06	1.449840e-06	1.179356e-10	1.026800e+01	3.682164e+00
2.170000e-06	1.494050e-06	1.674218e-10	1.058110e+01	7.129328e+00
2.180000e-06	1.538205e-06	2.170607e-10	1.089381e+01	1.057598e+01
2.190000e-06	1.582319e-06	2.683027e-10	1.120623e+01	1.401979e+01
2.200000e-06	1.626361e-06	3.188083e-10	1.151815e+01	1.745849e+01
2.210000e-06	1.670296e-06	3.688996e-10	1.182930e+01	2.088983e+01
2.220000e-06	1.714153e-06	4.218559e-10	1.213990e+01	2.431157e+01
2.230000e-06	1.757945e-06	4.750533e-10	1.245004e+01	2.772147e+01
2.240000e-06	1.801678e-06	5.246701e-10	1.275976e+01	3.111728e+01
2.250000e-06	1.845308e-06	5.723314e-10	1.306876e+01	3.449668e+01
2.260000e-06	1.888806e-06	6.217924e-10	1.337682e+01	3.785736e+01
2.270000e-06	1.932254e-06	6.710838e-10	1.368453e+01	4.119691e+01
2.280000e-06	1.975516e-06	7.165591e-10	1.399092e+01	4.451290e+01
2.290000e-06	2.018486e-06	7.617314e-10	1.429524e+01	4.780283e+01
2.300000e-06	2.061379e-06	8.102770e-10	1.459901e+01	5.106414e+01
2.310000e-06	2.104146e-06	8.574505e-10	1.490189e+01	5.429421e+01
2.320000e-06	2.146589e-06	9.011904e-10	1.520248e+01	5.749041e+01
2.330000e-06	2.188743e-06	9.431329e-10	1.550102e+01	6.065006e+01
2.340000e-06	2.230627e-06	9.869712e-10	1.579765e+01	6.377047e+01
2.350000e-06	2.272253e-06	1.034837e-09	1.609245e+01	6.684894e+01
2.360000e-06	2.313561e-06	1.080418e-09	1.638500e+01	6.988284e+01
2.370000e-06	2.354557e-06	1.120765e-09	1.667534e+01	7.286954e+01
2.380000e-06	2.395339e-06	1.159093e-09	1.696417e+01	7.580653e+01
2.390000e-06	2.435833e-06	1.196616e-09	1.725096e+01	7.869136e+01
2.400000e-06	2.476164e-06	1.231191e-09	1.753658e+01	8.152174e+01
2.410000e-06	2.516493e-06	1.266232e-09	1.782220e+01	8.429552e+01
2.420000e-06	2.556659e-06	1.306480e-09	1.810666e+01	8.701072e+01
2.430000e-06	2.596655e-06	1.351940e-09	1.838992e+01	8.966557e+01
2.440000e-06	2.636571e-06	1.397654e-09	1.867261e+01	9.225854e+01
2.450000e-06	2.676412e-06	1.435240e-09	1.895477e+01	9.478830e+01
2.460000e-06	2.716124e-06	1.466170e-09	1.923602e+01	9.725380e+01
2.470000e-06	2.755692e-06	1.495505e-09	1.951625e+01	9.965427e+01
2.480000e-06	2.795148e-06	1.523843e-09	1.979568e+01	1.019892e+02
2.490000e-06	2.834336e-06	1.551884e-09	2.007322e+01	1.042583e+02
2.500000e-06	2.873331e-06	1.582726e-09	2.034938e+01	1.064617e+02
2.510000e-06	2.912119e-06	1.620162e-09	2.062409e+01	1.085997e+02
2.520000e-06	2.950707e-06	1.660089e-09	2.089737e+01	1.106728e+02
2.530000e-06	2.989112e-06	1.692285e-09	2.116936e+01	1.126819e+02
2.540000e-06	3.027216e-06	1.714508e-09	2.143922e+01	1.146280e+02
2.550000e-06	3.065122e-06	1.736895e-09	2.170768e+01	1.165125e+02
2.560000e-06	3.102861e-06	1.762542e-09	2.197495e+01	1.183366e+02
2.570000e-06	3.140353e-06	1.785873e-09	2.224047e+01	1.201021e+02
2.580000e-06	3.177613e-06	1.806953e-09	2.250436e+01	1.218107e+02
2.590000e-06	3.214731e-06	1.832224e-09	2.276723e+01	1.234641e+02
2.600000e-06	3.251643e-06	1.863034e-09	2.302865e+01	1.250644e+02
2.610000e-06	3.288319e-06	1.890687e-09	2.328839e+01	1.266134e+02
2.620000e-06	3.324768e-06	1.910201e-09	2.354653e+01	1.281131e+02
2.630000e-06	3.361013e-06	1.929418e-09	2.380322e+01	1.295654e+02
2.640000e-06	3.397084e-06	1.952906e-09	2.405869e+01	1.309722e+02
2.650000e-06	3.433035e-06	1.974437e-09	2.431329e+01	1.323352e+02
2.660000e-06	3.468846e-06	1.989713e-09	2.456692e+01	1.336562e+02
2.670000e-06	3.504454e-06	2.006430e-09	2.481909e+01	1.349368e+02
2.680000e-06	3.539873e-06	2.029374e-09	2.506994e+01	1.361784e+02
2.690000e-06	3.575026e-06	2.050026e-09	2.531890e+01	1.373824e+02
2.700000e-06	3.609877e-06	2.063643e-09	2.556572e+01	1.385499e+02
2.710000e-06	3.644321e-06	2.076865e-09	2.580966e+01	1.396821e+02
2.720000e-06	3.678333e-06	2.095587e-09	2.605054e+01	1.407798e+02
2.730000e-06	3.711928e-06	2.115668e-09	2.628846e+01	1.418438e+02
2.740000e-06	3.744993e-06	2.131254e-09	2.652263e+01	1.428746e+02
2.750000e-06	3.777569e-06	2.143345e-09	2.675334e+01	1.438730e+02
2.760000e-06	3.809905e-06	2.159152e-09	2.698235e+01	1.448392e+02
2.770000e-06	3.842160e-06	2.177321e-09	2.721078e+01	1.457737e+02
2.780000e-06	3.874209e-06	2.190298e-09	2.743776e+01	1.466767e+02
2.790000e-06	3.906023e-06	2.198409e-09	2.766307e+01	1.475484e+02
2.800000e-06	3.937692e-06	2.210215e-09	2.788735e+01	1.483892e+02
2.810000e-06	3.969193e-06	2.227185e-09	2.811045e+01	1.491992e+02
2.820000e-06	4.000487e-06	2.239496e-09	2.833208e+01	1.499787e+02
2.830000e-06	4.031396e-06	2.244702e-09	2.855098e+01	1.507280e+02
2.840000e-06	4.062007e-06	2.253501e-09	2.876778e+01	1.514474e+02
2.850000e-06	4.092347e-06	2.268417e-09	2.898264e+01	1.521375e+02
2.860000e-06	4.122304e-06	2.281453e-09	2.919481e+01	1.527986e+02
2.870000e-06	4.152030e-06	2.288841e-09	2.940533e+01	1.534315e+02
2.880000e-06	4.181507e-06	2.294089e-09	2.961409e+01	1.540369e+02
2.890000e-06	4.210744e-06	2.301025e-09	2.982115e+01	1.546155e+02
2.900000e-06	4.239644e-06	2.307117e-09	3.002583e+01	1.551684e+02
