# Temperatura_=_0.21
# Concentracion g/m^3_=_4090.0
# C_Vs_to_Am_M_A/Vsm_=_65563218390.804596
# pendiente_HvsI_1/m_=_3716.3
# ordenada_HvsI_A/m_=_1297.0
# frecuencia_Hz_=_135082.3289385262

Tiempo_(s)	Campo_(V.s)	Magnetizacion_(V.s)	Campo_(kA/m)	Magnetizacion_(A/m)
0.000000e+00	-5.434837e-06	-2.601414e-09	-3.837994e+01	-1.665242e+02
1.000000e-08	-5.435088e-06	-2.603510e-09	-3.838171e+01	-1.664862e+02
2.000000e-08	-5.435091e-06	-2.603553e-09	-3.838173e+01	-1.664471e+02
3.000000e-08	-5.434738e-06	-2.599669e-09	-3.837924e+01	-1.664088e+02
4.000000e-08	-5.434046e-06	-2.595812e-09	-3.837435e+01	-1.663732e+02
5.000000e-08	-5.433011e-06	-2.596613e-09	-3.836704e+01	-1.663423e+02
6.000000e-08	-5.431399e-06	-2.611394e-09	-3.835566e+01	-1.663180e+02
7.000000e-08	-5.429103e-06	-2.641627e-09	-3.833944e+01	-1.663023e+02
8.000000e-08	-5.426218e-06	-2.607624e-09	-3.831907e+01	-1.662969e+02
9.000000e-08	-5.422730e-06	-2.480992e-09	-3.829444e+01	-1.663037e+02
1.000000e-07	-5.418791e-06	-2.488205e-09	-3.826662e+01	-1.663242e+02
1.100000e-07	-5.414641e-06	-2.711788e-09	-3.823731e+01	-1.663598e+02
1.200000e-07	-5.410170e-06	-2.691457e-09	-3.820574e+01	-1.664117e+02
1.300000e-07	-5.405357e-06	-2.476010e-09	-3.817175e+01	-1.664808e+02
1.400000e-07	-5.400355e-06	-2.438912e-09	-3.813643e+01	-1.665677e+02
1.500000e-07	-5.395035e-06	-2.706176e-09	-3.809886e+01	-1.666727e+02
1.600000e-07	-5.389202e-06	-2.726529e-09	-3.805767e+01	-1.667959e+02
1.700000e-07	-5.382956e-06	-2.398611e-09	-3.801356e+01	-1.669370e+02
1.800000e-07	-5.376406e-06	-2.401592e-09	-3.796730e+01	-1.670953e+02
1.900000e-07	-5.369494e-06	-2.656257e-09	-3.791849e+01	-1.672698e+02
2.000000e-07	-5.362149e-06	-2.708259e-09	-3.786662e+01	-1.674594e+02
2.100000e-07	-5.354464e-06	-2.471059e-09	-3.781235e+01	-1.676625e+02
2.200000e-07	-5.346733e-06	-2.552944e-09	-3.775776e+01	-1.678773e+02
2.300000e-07	-5.338738e-06	-2.704799e-09	-3.770130e+01	-1.681017e+02
2.400000e-07	-5.330270e-06	-2.616602e-09	-3.764150e+01	-1.683335e+02
2.500000e-07	-5.321441e-06	-2.473901e-09	-3.757915e+01	-1.685702e+02
2.600000e-07	-5.312118e-06	-2.642371e-09	-3.751332e+01	-1.688094e+02
2.700000e-07	-5.302022e-06	-2.715079e-09	-3.744202e+01	-1.690483e+02
2.800000e-07	-5.291315e-06	-2.555157e-09	-3.736640e+01	-1.692844e+02
2.900000e-07	-5.280171e-06	-2.575585e-09	-3.728771e+01	-1.695149e+02
3.000000e-07	-5.268579e-06	-2.769603e-09	-3.720585e+01	-1.697373e+02
3.100000e-07	-5.256546e-06	-2.669418e-09	-3.712087e+01	-1.699490e+02
3.200000e-07	-5.244100e-06	-2.479501e-09	-3.703298e+01	-1.701476e+02
3.300000e-07	-5.231338e-06	-2.606353e-09	-3.694285e+01	-1.703308e+02
3.400000e-07	-5.218116e-06	-2.707671e-09	-3.684949e+01	-1.704968e+02
3.500000e-07	-5.204532e-06	-2.599571e-09	-3.675356e+01	-1.706437e+02
3.600000e-07	-5.190681e-06	-2.580781e-09	-3.665575e+01	-1.707700e+02
3.700000e-07	-5.176442e-06	-2.684930e-09	-3.655519e+01	-1.708745e+02
3.800000e-07	-5.161734e-06	-2.628099e-09	-3.645133e+01	-1.709562e+02
3.900000e-07	-5.146389e-06	-2.599939e-09	-3.634296e+01	-1.710145e+02
4.000000e-07	-5.130454e-06	-2.641562e-09	-3.623043e+01	-1.710491e+02
4.100000e-07	-5.113979e-06	-2.593591e-09	-3.611408e+01	-1.710599e+02
4.200000e-07	-5.097093e-06	-2.521047e-09	-3.599484e+01	-1.710473e+02
4.300000e-07	-5.080024e-06	-2.640440e-09	-3.587431e+01	-1.710118e+02
4.400000e-07	-5.062624e-06	-2.663471e-09	-3.575143e+01	-1.709542e+02
4.500000e-07	-5.044882e-06	-2.565953e-09	-3.562614e+01	-1.708755e+02
4.600000e-07	-5.026878e-06	-2.562254e-09	-3.549899e+01	-1.707771e+02
4.700000e-07	-5.008511e-06	-2.656066e-09	-3.536929e+01	-1.706604e+02
4.800000e-07	-4.989667e-06	-2.610488e-09	-3.523622e+01	-1.705269e+02
4.900000e-07	-4.970467e-06	-2.566069e-09	-3.510063e+01	-1.703783e+02
5.000000e-07	-4.950943e-06	-2.566524e-09	-3.496275e+01	-1.702166e+02
5.100000e-07	-4.931163e-06	-2.588619e-09	-3.482307e+01	-1.700433e+02
5.200000e-07	-4.911208e-06	-2.605183e-09	-3.468215e+01	-1.698605e+02
5.300000e-07	-4.891004e-06	-2.616984e-09	-3.453947e+01	-1.696699e+02
5.400000e-07	-4.870470e-06	-2.558662e-09	-3.439447e+01	-1.694731e+02
5.500000e-07	-4.849618e-06	-2.554889e-09	-3.424722e+01	-1.692719e+02
5.600000e-07	-4.828411e-06	-2.602104e-09	-3.409745e+01	-1.690678e+02
5.700000e-07	-4.806827e-06	-2.589230e-09	-3.394503e+01	-1.688622e+02
5.800000e-07	-4.784950e-06	-2.535363e-09	-3.379054e+01	-1.686562e+02
5.900000e-07	-4.762796e-06	-2.546576e-09	-3.363409e+01	-1.684511e+02
6.000000e-07	-4.740368e-06	-2.577453e-09	-3.347570e+01	-1.682476e+02
6.100000e-07	-4.717543e-06	-2.576876e-09	-3.331452e+01	-1.680465e+02
6.200000e-07	-4.694293e-06	-2.555473e-09	-3.315033e+01	-1.678482e+02
6.300000e-07	-4.670807e-06	-2.525356e-09	-3.298448e+01	-1.676532e+02
6.400000e-07	-4.647109e-06	-2.531842e-09	-3.281713e+01	-1.674615e+02
6.500000e-07	-4.623117e-06	-2.557710e-09	-3.264770e+01	-1.672732e+02
6.600000e-07	-4.598920e-06	-2.546089e-09	-3.247682e+01	-1.670881e+02
6.700000e-07	-4.574545e-06	-2.506809e-09	-3.230470e+01	-1.669059e+02
6.800000e-07	-4.549742e-06	-2.522459e-09	-3.212953e+01	-1.667262e+02
6.900000e-07	-4.524430e-06	-2.544042e-09	-3.195079e+01	-1.665485e+02
7.000000e-07	-4.498584e-06	-2.535487e-09	-3.176827e+01	-1.663722e+02
7.100000e-07	-4.472091e-06	-2.501628e-09	-3.158118e+01	-1.661966e+02
7.200000e-07	-4.445047e-06	-2.499352e-09	-3.139020e+01	-1.660212e+02
7.300000e-07	-4.417599e-06	-2.509589e-09	-3.119636e+01	-1.658451e+02
7.400000e-07	-4.389894e-06	-2.523848e-09	-3.100072e+01	-1.656678e+02
7.500000e-07	-4.362004e-06	-2.499020e-09	-3.080377e+01	-1.654886e+02
7.600000e-07	-4.334003e-06	-2.484400e-09	-3.060602e+01	-1.653068e+02
7.700000e-07	-4.305881e-06	-2.490993e-09	-3.040743e+01	-1.651219e+02
7.800000e-07	-4.277506e-06	-2.503122e-09	-3.020705e+01	-1.649333e+02
7.900000e-07	-4.248766e-06	-2.481192e-09	-3.000409e+01	-1.647408e+02
8.000000e-07	-4.219640e-06	-2.467647e-09	-2.979841e+01	-1.645439e+02
8.100000e-07	-4.190187e-06	-2.468082e-09	-2.959042e+01	-1.643423e+02
8.200000e-07	-4.160508e-06	-2.481398e-09	-2.938083e+01	-1.641358e+02
8.300000e-07	-4.130562e-06	-2.475040e-09	-2.916936e+01	-1.639244e+02
8.400000e-07	-4.100335e-06	-2.459410e-09	-2.895590e+01	-1.637081e+02
8.500000e-07	-4.069869e-06	-2.449659e-09	-2.874075e+01	-1.634868e+02
8.600000e-07	-4.039071e-06	-2.456494e-09	-2.852326e+01	-1.632606e+02
8.700000e-07	-4.007924e-06	-2.453582e-09	-2.830331e+01	-1.630297e+02
8.800000e-07	-3.976607e-06	-2.437566e-09	-2.808215e+01	-1.627944e+02
8.900000e-07	-3.945178e-06	-2.427224e-09	-2.786021e+01	-1.625547e+02
9.000000e-07	-3.913524e-06	-2.435281e-09	-2.763667e+01	-1.623109e+02
9.100000e-07	-3.881659e-06	-2.441645e-09	-2.741165e+01	-1.620634e+02
9.200000e-07	-3.849614e-06	-2.431672e-09	-2.718535e+01	-1.618122e+02
9.300000e-07	-3.817360e-06	-2.422687e-09	-2.695757e+01	-1.615577e+02
9.400000e-07	-3.784920e-06	-2.424431e-09	-2.672849e+01	-1.613000e+02
9.500000e-07	-3.752131e-06	-2.429104e-09	-2.649694e+01	-1.610393e+02
9.600000e-07	-3.718898e-06	-2.417780e-09	-2.626225e+01	-1.607757e+02
9.700000e-07	-3.685180e-06	-2.403537e-09	-2.602414e+01	-1.605093e+02
9.800000e-07	-3.650967e-06	-2.396359e-09	-2.578254e+01	-1.602402e+02
9.900000e-07	-3.616373e-06	-2.399108e-09	-2.553824e+01	-1.599683e+02
1.000000e-06	-3.581296e-06	-2.393126e-09	-2.529053e+01	-1.596936e+02
1.010000e-06	-3.545848e-06	-2.390959e-09	-2.504020e+01	-1.594160e+02
1.020000e-06	-3.510319e-06	-2.391506e-09	-2.478930e+01	-1.591355e+02
1.030000e-06	-3.474637e-06	-2.399063e-09	-2.453732e+01	-1.588517e+02
1.040000e-06	-3.438715e-06	-2.393153e-09	-2.428365e+01	-1.585646e+02
1.050000e-06	-3.402639e-06	-2.382289e-09	-2.402889e+01	-1.582739e+02
1.060000e-06	-3.366436e-06	-2.366002e-09	-2.377322e+01	-1.579794e+02
1.070000e-06	-3.330074e-06	-2.357818e-09	-2.351644e+01	-1.576809e+02
1.080000e-06	-3.293436e-06	-2.348899e-09	-2.325771e+01	-1.573780e+02
1.090000e-06	-3.256531e-06	-2.342601e-09	-2.299709e+01	-1.570707e+02
1.100000e-06	-3.219428e-06	-2.339010e-09	-2.273507e+01	-1.567587e+02
1.110000e-06	-3.182081e-06	-2.344617e-09	-2.247134e+01	-1.564417e+02
1.120000e-06	-3.144426e-06	-2.345776e-09	-2.220542e+01	-1.561196e+02
1.130000e-06	-3.106556e-06	-2.342392e-09	-2.193800e+01	-1.557922e+02
1.140000e-06	-3.068547e-06	-2.332140e-09	-2.166958e+01	-1.554595e+02
1.150000e-06	-3.030327e-06	-2.323372e-09	-2.139968e+01	-1.551212e+02
1.160000e-06	-2.991952e-06	-2.313165e-09	-2.112868e+01	-1.547773e+02
1.170000e-06	-2.953407e-06	-2.300673e-09	-2.085648e+01	-1.544278e+02
1.180000e-06	-2.914564e-06	-2.289012e-09	-2.058218e+01	-1.540725e+02
1.190000e-06	-2.875430e-06	-2.286167e-09	-2.030582e+01	-1.537114e+02
1.200000e-06	-2.836087e-06	-2.289043e-09	-2.002798e+01	-1.533445e+02
1.210000e-06	-2.796548e-06	-2.287935e-09	-1.974876e+01	-1.529717e+02
1.220000e-06	-2.756854e-06	-2.280884e-09	-1.946846e+01	-1.525929e+02
1.230000e-06	-2.717043e-06	-2.271369e-09	-1.918731e+01	-1.522081e+02
1.240000e-06	-2.677153e-06	-2.262243e-09	-1.890562e+01	-1.518171e+02
1.250000e-06	-2.637209e-06	-2.246801e-09	-1.862354e+01	-1.514198e+02
1.260000e-06	-2.597201e-06	-2.232273e-09	-1.834101e+01	-1.510159e+02
1.270000e-06	-2.557120e-06	-2.221371e-09	-1.805797e+01	-1.506052e+02
1.280000e-06	-2.516915e-06	-2.221035e-09	-1.777405e+01	-1.501875e+02
1.290000e-06	-2.476498e-06	-2.218626e-09	-1.748863e+01	-1.497623e+02
1.300000e-06	-2.435884e-06	-2.213580e-09	-1.720182e+01	-1.493291e+02
1.310000e-06	-2.395145e-06	-2.205908e-09	-1.691412e+01	-1.488876e+02
1.320000e-06	-2.354171e-06	-2.201498e-09	-1.662477e+01	-1.484371e+02
1.330000e-06	-2.312824e-06	-2.192916e-09	-1.633279e+01	-1.479771e+02
1.340000e-06	-2.271172e-06	-2.178142e-09	-1.603865e+01	-1.475068e+02
1.350000e-06	-2.229214e-06	-2.160149e-09	-1.574235e+01	-1.470256e+02
1.360000e-06	-2.186965e-06	-2.149866e-09	-1.544399e+01	-1.465327e+02
1.370000e-06	-2.144484e-06	-2.142328e-09	-1.514400e+01	-1.460273e+02
1.380000e-06	-2.101675e-06	-2.135780e-09	-1.484169e+01	-1.455087e+02
1.390000e-06	-2.058616e-06	-2.124445e-09	-1.453761e+01	-1.449760e+02
1.400000e-06	-2.015398e-06	-2.113447e-09	-1.423241e+01	-1.444285e+02
1.410000e-06	-1.972043e-06	-2.107208e-09	-1.392625e+01	-1.438653e+02
1.420000e-06	-1.928576e-06	-2.103649e-09	-1.361929e+01	-1.432858e+02
1.430000e-06	-1.884952e-06	-2.093168e-09	-1.331122e+01	-1.426893e+02
1.440000e-06	-1.841216e-06	-2.078460e-09	-1.300237e+01	-1.420750e+02
1.450000e-06	-1.797388e-06	-2.064413e-09	-1.269286e+01	-1.414425e+02
1.460000e-06	-1.753433e-06	-2.050201e-09	-1.238246e+01	-1.407911e+02
1.470000e-06	-1.709420e-06	-2.033021e-09	-1.207164e+01	-1.401205e+02
1.480000e-06	-1.665336e-06	-2.013590e-09	-1.176033e+01	-1.394302e+02
1.490000e-06	-1.621123e-06	-2.000099e-09	-1.144811e+01	-1.387200e+02
1.500000e-06	-1.576835e-06	-1.995371e-09	-1.113535e+01	-1.379897e+02
1.510000e-06	-1.532515e-06	-1.991993e-09	-1.082237e+01	-1.372390e+02
1.520000e-06	-1.488125e-06	-1.983516e-09	-1.050889e+01	-1.364679e+02
1.530000e-06	-1.443720e-06	-1.972802e-09	-1.019531e+01	-1.356765e+02
1.540000e-06	-1.399274e-06	-1.960788e-09	-9.881446e+00	-1.348645e+02
1.550000e-06	-1.354640e-06	-1.946067e-09	-9.566248e+00	-1.340322e+02
1.560000e-06	-1.309851e-06	-1.926852e-09	-9.249953e+00	-1.331796e+02
1.570000e-06	-1.264987e-06	-1.908277e-09	-8.933135e+00	-1.323066e+02
1.580000e-06	-1.219967e-06	-1.897198e-09	-8.615207e+00	-1.314133e+02
1.590000e-06	-1.174853e-06	-1.893854e-09	-8.296618e+00	-1.304996e+02
1.600000e-06	-1.129725e-06	-1.888671e-09	-7.977934e+00	-1.295655e+02
1.610000e-06	-1.084534e-06	-1.878413e-09	-7.658802e+00	-1.286108e+02
1.620000e-06	-1.039153e-06	-1.862760e-09	-7.338327e+00	-1.276352e+02
1.630000e-06	-9.936100e-07	-1.844883e-09	-7.016712e+00	-1.266383e+02
1.640000e-06	-9.480600e-07	-1.820433e-09	-6.695046e+00	-1.256194e+02
1.650000e-06	-9.024921e-07	-1.793206e-09	-6.373252e+00	-1.245781e+02
1.660000e-06	-8.568864e-07	-1.771519e-09	-6.051192e+00	-1.235134e+02
1.670000e-06	-8.112154e-07	-1.760994e-09	-5.728671e+00	-1.224242e+02
1.680000e-06	-7.655553e-07	-1.753531e-09	-5.406227e+00	-1.213095e+02
1.690000e-06	-7.198637e-07	-1.741240e-09	-5.083560e+00	-1.201678e+02
1.700000e-06	-6.741388e-07	-1.723468e-09	-4.760659e+00	-1.189977e+02
1.710000e-06	-6.283825e-07	-1.706360e-09	-4.437535e+00	-1.177974e+02
1.720000e-06	-5.825313e-07	-1.685943e-09	-4.113741e+00	-1.165652e+02
1.730000e-06	-5.366512e-07	-1.659284e-09	-3.789744e+00	-1.152990e+02
1.740000e-06	-4.907923e-07	-1.632417e-09	-3.465896e+00	-1.139968e+02
1.750000e-06	-4.448868e-07	-1.612862e-09	-3.141718e+00	-1.126563e+02
1.760000e-06	-3.988606e-07	-1.598770e-09	-2.816689e+00	-1.112753e+02
1.770000e-06	-3.528022e-07	-1.583863e-09	-2.491432e+00	-1.098515e+02
1.780000e-06	-3.067719e-07	-1.564524e-09	-2.166374e+00	-1.083825e+02
1.790000e-06	-2.607847e-07	-1.544141e-09	-1.841619e+00	-1.068661e+02
1.800000e-06	-2.147691e-07	-1.522537e-09	-1.516664e+00	-1.052998e+02
1.810000e-06	-1.687142e-07	-1.494728e-09	-1.191432e+00	-1.036814e+02
1.820000e-06	-1.226862e-07	-1.464135e-09	-8.663900e-01	-1.020088e+02
1.830000e-06	-7.668445e-08	-1.435002e-09	-5.415331e-01	-1.002801e+02
1.840000e-06	-3.065529e-08	-1.407800e-09	-2.164827e-01	-9.849316e+01
1.850000e-06	1.541719e-08	-1.379424e-09	1.088737e-01	-9.664645e+01
1.860000e-06	6.147660e-08	-1.348785e-09	4.341377e-01	-9.473841e+01
1.870000e-06	1.075882e-07	-1.317966e-09	7.597703e-01	-9.276775e+01
1.880000e-06	1.535890e-07	-1.288904e-09	1.084620e+00	-9.073340e+01
1.890000e-06	1.994895e-07	-1.259336e-09	1.408762e+00	-8.863455e+01
1.900000e-06	2.455677e-07	-1.229114e-09	1.734159e+00	-8.647062e+01
1.910000e-06	2.915923e-07	-1.197609e-09	2.059178e+00	-8.424129e+01
1.920000e-06	3.375263e-07	-1.163751e-09	2.383556e+00	-8.194651e+01
1.930000e-06	3.834551e-07	-1.126008e-09	2.707897e+00	-7.958648e+01
1.940000e-06	4.293732e-07	-1.086705e-09	3.032164e+00	-7.716165e+01
1.950000e-06	4.752991e-07	-1.048854e-09	3.356485e+00	-7.467269e+01
1.960000e-06	5.211594e-07	-1.013748e-09	3.680343e+00	-7.212052e+01
1.970000e-06	5.670167e-07	-9.785636e-10	4.004180e+00	-6.950625e+01
1.980000e-06	6.128136e-07	-9.428197e-10	4.327590e+00	-6.683119e+01
1.990000e-06	6.585166e-07	-9.051578e-10	4.650337e+00	-6.409683e+01
2.000000e-06	7.042825e-07	-8.657816e-10	4.973528e+00	-6.130480e+01
2.010000e-06	7.500160e-07	-8.231972e-10	5.296491e+00	-5.845688e+01
2.020000e-06	7.955806e-07	-7.772682e-10	5.618261e+00	-5.555494e+01
2.030000e-06	8.410453e-07	-7.291896e-10	5.939325e+00	-5.260094e+01
2.040000e-06	8.865158e-07	-6.813467e-10	6.260430e+00	-4.959694e+01
2.050000e-06	9.320952e-07	-6.341829e-10	6.582304e+00	-4.654503e+01
2.060000e-06	9.776522e-07	-5.900666e-10	6.904021e+00	-4.344734e+01
2.070000e-06	1.023067e-06	-5.467126e-10	7.224733e+00	-4.030603e+01
2.080000e-06	1.068292e-06	-5.035717e-10	7.544104e+00	-3.712328e+01
2.090000e-06	1.113383e-06	-4.600044e-10	7.862533e+00	-3.390127e+01
2.100000e-06	1.158439e-06	-4.149296e-10	8.180706e+00	-3.064218e+01
2.110000e-06	1.203415e-06	-3.676066e-10	8.498323e+00	-2.734821e+01
2.120000e-06	1.248317e-06	-3.146699e-10	8.815411e+00	-2.402154e+01
2.130000e-06	1.293150e-06	-2.584645e-10	9.132013e+00	-2.066437e+01
2.140000e-06	1.337806e-06	-2.032784e-10	9.447371e+00	-1.727892e+01
2.150000e-06	1.382309e-06	-1.513960e-10	9.761640e+00	-1.386741e+01
2.160000e-06	1.426741e-06	-1.024646e-10	1.007541e+01	-1.043212e+01
2.170000e-06	1.471074e-06	-5.692421e-11	1.038848e+01	-6.975361e+00
2.180000e-06	1.515319e-06	-1.087743e-11	1.070093e+01	-3.499509e+00
2.190000e-06	1.559558e-06	3.921410e-11	1.101335e+01	-7.011198e-03
2.200000e-06	1.603777e-06	9.108581e-11	1.132561e+01	3.499597e+00
2.210000e-06	1.647894e-06	1.418359e-10	1.163716e+01	7.017683e+00
2.220000e-06	1.691930e-06	1.955375e-10	1.194813e+01	1.054450e+01
2.230000e-06	1.735890e-06	2.516125e-10	1.225858e+01	1.407720e+01
2.240000e-06	1.779774e-06	3.068238e-10	1.256848e+01	1.761278e+01
2.250000e-06	1.823575e-06	3.599366e-10	1.287779e+01	2.114813e+01
2.260000e-06	1.867272e-06	4.120067e-10	1.318637e+01	2.468001e+01
2.270000e-06	1.910927e-06	4.629645e-10	1.349465e+01	2.820503e+01
2.280000e-06	1.954481e-06	5.114747e-10	1.380222e+01	3.171971e+01
2.290000e-06	1.997883e-06	5.593623e-10	1.410872e+01	3.522044e+01
2.300000e-06	2.041177e-06	6.094293e-10	1.441446e+01	3.870353e+01
2.310000e-06	2.084277e-06	6.605456e-10	1.471883e+01	4.216519e+01
2.320000e-06	2.127148e-06	7.108630e-10	1.502158e+01	4.560159e+01
2.330000e-06	2.169914e-06	7.610664e-10	1.532358e+01	4.900888e+01
2.340000e-06	2.212450e-06	8.115388e-10	1.562396e+01	5.238318e+01
2.350000e-06	2.254588e-06	8.609660e-10	1.592153e+01	5.572065e+01
2.360000e-06	2.296349e-06	9.094887e-10	1.621644e+01	5.901751e+01
2.370000e-06	2.337700e-06	9.548639e-10	1.650846e+01	6.227008e+01
2.380000e-06	2.378798e-06	9.971106e-10	1.679868e+01	6.547478e+01
2.390000e-06	2.419673e-06	1.038286e-09	1.708734e+01	6.862823e+01
2.400000e-06	2.460248e-06	1.078135e-09	1.737387e+01	7.172720e+01
2.410000e-06	2.500637e-06	1.117920e-09	1.765909e+01	7.476871e+01
2.420000e-06	2.540888e-06	1.159332e-09	1.794334e+01	7.775002e+01
2.430000e-06	2.580983e-06	1.202405e-09	1.822648e+01	8.066868e+01
2.440000e-06	2.620976e-06	1.248818e-09	1.850891e+01	8.352254e+01
2.450000e-06	2.660855e-06	1.295454e-09	1.879052e+01	8.630975e+01
2.460000e-06	2.700594e-06	1.336275e-09	1.907116e+01	8.902882e+01
2.470000e-06	2.740264e-06	1.371811e-09	1.935130e+01	9.167859e+01
2.480000e-06	2.779813e-06	1.405204e-09	1.963059e+01	9.425825e+01
2.490000e-06	2.819248e-06	1.438755e-09	1.990907e+01	9.676734e+01
2.500000e-06	2.858539e-06	1.472109e-09	2.018653e+01	9.920574e+01
2.510000e-06	2.897552e-06	1.505667e-09	2.046204e+01	1.015737e+02
2.520000e-06	2.936349e-06	1.540399e-09	2.073602e+01	1.038716e+02
2.530000e-06	2.974913e-06	1.575898e-09	2.100835e+01	1.061004e+02
2.540000e-06	3.013177e-06	1.608530e-09	2.127857e+01	1.082611e+02
2.550000e-06	3.051234e-06	1.638284e-09	2.154732e+01	1.103551e+02
2.560000e-06	3.089165e-06	1.668805e-09	2.181518e+01	1.123838e+02
2.570000e-06	3.126997e-06	1.698691e-09	2.208234e+01	1.143490e+02
2.580000e-06	3.164676e-06	1.725775e-09	2.234843e+01	1.162526e+02
2.590000e-06	3.202074e-06	1.750813e-09	2.261253e+01	1.180963e+02
2.600000e-06	3.239148e-06	1.775534e-09	2.287434e+01	1.198823e+02
2.610000e-06	3.275955e-06	1.801522e-09	2.313426e+01	1.216126e+02
2.620000e-06	3.312603e-06	1.825613e-09	2.339306e+01	1.232892e+02
2.630000e-06	3.349041e-06	1.848286e-09	2.365038e+01	1.249140e+02
2.640000e-06	3.385208e-06	1.872791e-09	2.390578e+01	1.264890e+02
2.650000e-06	3.421247e-06	1.897145e-09	2.416029e+01	1.280160e+02
2.660000e-06	3.457160e-06	1.917554e-09	2.441390e+01	1.294966e+02
2.670000e-06	3.492848e-06	1.938333e-09	2.466592e+01	1.309325e+02
2.680000e-06	3.528369e-06	1.961801e-09	2.491677e+01	1.323250e+02
2.690000e-06	3.563704e-06	1.982896e-09	2.516630e+01	1.336753e+02
2.700000e-06	3.598790e-06	1.998726e-09	2.541407e+01	1.349846e+02
2.710000e-06	3.633674e-06	2.013485e-09	2.566041e+01	1.362537e+02
2.720000e-06	3.668087e-06	2.032757e-09	2.590344e+01	1.374834e+02
2.730000e-06	3.701944e-06	2.055581e-09	2.614253e+01	1.386743e+02
2.740000e-06	3.735358e-06	2.077171e-09	2.637849e+01	1.398269e+02
2.750000e-06	3.768359e-06	2.095175e-09	2.661154e+01	1.409416e+02
2.760000e-06	3.800988e-06	2.112390e-09	2.684196e+01	1.420185e+02
2.770000e-06	3.833309e-06	2.129549e-09	2.707020e+01	1.430579e+02
2.780000e-06	3.865456e-06	2.142753e-09	2.729722e+01	1.440600e+02
2.790000e-06	3.897427e-06	2.152388e-09	2.752299e+01	1.450248e+02
2.800000e-06	3.929186e-06	2.166178e-09	2.774727e+01	1.459525e+02
2.810000e-06	3.960778e-06	2.184591e-09	2.797037e+01	1.468433e+02
2.820000e-06	3.992203e-06	2.200527e-09	2.819229e+01	1.476974e+02
2.830000e-06	4.023351e-06	2.212552e-09	2.841225e+01	1.485150e+02
2.840000e-06	4.054274e-06	2.222227e-09	2.863063e+01	1.492967e+02
2.850000e-06	4.084968e-06	2.231301e-09	2.884738e+01	1.500429e+02
2.860000e-06	4.115301e-06	2.242129e-09	2.906159e+01	1.507542e+02
2.870000e-06	4.145296e-06	2.252524e-09	2.927341e+01	1.514315e+02
2.880000e-06	4.175065e-06	2.262039e-09	2.948363e+01	1.520757e+02
2.890000e-06	4.204591e-06	2.269761e-09	2.969214e+01	1.526878e+02
2.900000e-06	4.233849e-06	2.273718e-09	2.989875e+01	1.532692e+02
