# Temperatura_=_-2.3
# Concentracion g/m^3_=_4090.0
# C_Vs_to_Am_M_A/Vsm_=_65563218390.804596
# pendiente_HvsI_1/m_=_3716.3
# ordenada_HvsI_A/m_=_1297.0
# frecuencia_Hz_=_135076.36690852803

Tiempo_(s)	Campo_(V.s)	Magnetizacion_(V.s)	Campo_(kA/m)	Magnetizacion_(A/m)
0.000000e+00	-5.422569e-06	-2.533457e-09	-3.838058e+01	-1.619724e+02
1.000000e-08	-5.422686e-06	-2.532364e-09	-3.838140e+01	-1.619520e+02
2.000000e-08	-5.422605e-06	-2.532416e-09	-3.838082e+01	-1.619333e+02
3.000000e-08	-5.422246e-06	-2.531725e-09	-3.837829e+01	-1.619176e+02
4.000000e-08	-5.421535e-06	-2.527993e-09	-3.837325e+01	-1.619055e+02
5.000000e-08	-5.420464e-06	-2.523445e-09	-3.836568e+01	-1.618983e+02
6.000000e-08	-5.418893e-06	-2.522780e-09	-3.835456e+01	-1.618966e+02
7.000000e-08	-5.416532e-06	-2.530349e-09	-3.833785e+01	-1.619014e+02
8.000000e-08	-5.413425e-06	-2.547548e-09	-3.831585e+01	-1.619134e+02
9.000000e-08	-5.409856e-06	-2.528208e-09	-3.829059e+01	-1.619332e+02
1.000000e-07	-5.405837e-06	-2.483824e-09	-3.826215e+01	-1.619615e+02
1.100000e-07	-5.401515e-06	-2.512126e-09	-3.823156e+01	-1.619986e+02
1.200000e-07	-5.397079e-06	-2.598064e-09	-3.820015e+01	-1.620449e+02
1.300000e-07	-5.392375e-06	-2.518371e-09	-3.816686e+01	-1.621006e+02
1.400000e-07	-5.387292e-06	-2.452532e-09	-3.813088e+01	-1.621656e+02
1.500000e-07	-5.381828e-06	-2.469003e-09	-3.809221e+01	-1.622399e+02
1.600000e-07	-5.376132e-06	-2.604596e-09	-3.805190e+01	-1.623233e+02
1.700000e-07	-5.370023e-06	-2.514953e-09	-3.800865e+01	-1.624153e+02
1.800000e-07	-5.363366e-06	-2.408063e-09	-3.796154e+01	-1.625155e+02
1.900000e-07	-5.356297e-06	-2.485785e-09	-3.791150e+01	-1.626232e+02
2.000000e-07	-5.348939e-06	-2.585432e-09	-3.785942e+01	-1.627377e+02
2.100000e-07	-5.341272e-06	-2.513454e-09	-3.780516e+01	-1.628580e+02
2.200000e-07	-5.333354e-06	-2.417302e-09	-3.774911e+01	-1.629832e+02
2.300000e-07	-5.325265e-06	-2.523187e-09	-3.769186e+01	-1.631122e+02
2.400000e-07	-5.316810e-06	-2.552826e-09	-3.763202e+01	-1.632440e+02
2.500000e-07	-5.307771e-06	-2.479783e-09	-3.756804e+01	-1.633773e+02
2.600000e-07	-5.298017e-06	-2.448968e-09	-3.749901e+01	-1.635110e+02
2.700000e-07	-5.287677e-06	-2.571919e-09	-3.742582e+01	-1.636438e+02
2.800000e-07	-5.276823e-06	-2.535877e-09	-3.734899e+01	-1.637745e+02
2.900000e-07	-5.265505e-06	-2.458689e-09	-3.726889e+01	-1.639018e+02
3.000000e-07	-5.253800e-06	-2.508648e-09	-3.718604e+01	-1.640246e+02
3.100000e-07	-5.241653e-06	-2.606410e-09	-3.710006e+01	-1.641417e+02
3.200000e-07	-5.229085e-06	-2.506198e-09	-3.701110e+01	-1.642521e+02
3.300000e-07	-5.216265e-06	-2.478099e-09	-3.692037e+01	-1.643547e+02
3.400000e-07	-5.203075e-06	-2.561515e-09	-3.682701e+01	-1.644485e+02
3.500000e-07	-5.189483e-06	-2.575423e-09	-3.673080e+01	-1.645328e+02
3.600000e-07	-5.175565e-06	-2.490786e-09	-3.663229e+01	-1.646067e+02
3.700000e-07	-5.161308e-06	-2.535378e-09	-3.653139e+01	-1.646697e+02
3.800000e-07	-5.146471e-06	-2.559871e-09	-3.642637e+01	-1.647211e+02
3.900000e-07	-5.130927e-06	-2.516980e-09	-3.631635e+01	-1.647606e+02
4.000000e-07	-5.114819e-06	-2.521562e-09	-3.620234e+01	-1.647878e+02
4.100000e-07	-5.098227e-06	-2.560799e-09	-3.608491e+01	-1.648026e+02
4.200000e-07	-5.081385e-06	-2.507111e-09	-3.596569e+01	-1.648047e+02
4.300000e-07	-5.064308e-06	-2.495358e-09	-3.584483e+01	-1.647944e+02
4.400000e-07	-5.046932e-06	-2.561536e-09	-3.572184e+01	-1.647716e+02
4.500000e-07	-5.029324e-06	-2.533287e-09	-3.559721e+01	-1.647366e+02
4.600000e-07	-5.011414e-06	-2.479236e-09	-3.547045e+01	-1.646898e+02
4.700000e-07	-4.993102e-06	-2.506900e-09	-3.534084e+01	-1.646314e+02
4.800000e-07	-4.974264e-06	-2.544761e-09	-3.520750e+01	-1.645621e+02
4.900000e-07	-4.954932e-06	-2.505227e-09	-3.507067e+01	-1.644823e+02
5.000000e-07	-4.935295e-06	-2.511821e-09	-3.493168e+01	-1.643925e+02
5.100000e-07	-4.915443e-06	-2.519051e-09	-3.479117e+01	-1.642936e+02
5.200000e-07	-4.895397e-06	-2.521469e-09	-3.464928e+01	-1.641861e+02
5.300000e-07	-4.875136e-06	-2.519629e-09	-3.450588e+01	-1.640708e+02
5.400000e-07	-4.854648e-06	-2.521069e-09	-3.436086e+01	-1.639484e+02
5.500000e-07	-4.833827e-06	-2.478473e-09	-3.421350e+01	-1.638196e+02
5.600000e-07	-4.812611e-06	-2.498594e-09	-3.406333e+01	-1.636852e+02
5.700000e-07	-4.790989e-06	-2.522109e-09	-3.391029e+01	-1.635459e+02
5.800000e-07	-4.769046e-06	-2.509542e-09	-3.375498e+01	-1.634025e+02
5.900000e-07	-4.746886e-06	-2.483275e-09	-3.359814e+01	-1.632556e+02
6.000000e-07	-4.724425e-06	-2.505302e-09	-3.343915e+01	-1.631060e+02
6.100000e-07	-4.701603e-06	-2.501808e-09	-3.327762e+01	-1.629541e+02
6.200000e-07	-4.678425e-06	-2.492004e-09	-3.311357e+01	-1.628007e+02
6.300000e-07	-4.654896e-06	-2.473715e-09	-3.294704e+01	-1.626462e+02
6.400000e-07	-4.631108e-06	-2.467200e-09	-3.277867e+01	-1.624912e+02
6.500000e-07	-4.607083e-06	-2.473898e-09	-3.260862e+01	-1.623360e+02
6.600000e-07	-4.582878e-06	-2.491771e-09	-3.243730e+01	-1.621809e+02
6.700000e-07	-4.558486e-06	-2.473669e-09	-3.226465e+01	-1.620264e+02
6.800000e-07	-4.533683e-06	-2.457143e-09	-3.208910e+01	-1.618726e+02
6.900000e-07	-4.508311e-06	-2.464195e-09	-3.190951e+01	-1.617196e+02
7.000000e-07	-4.482340e-06	-2.469220e-09	-3.172570e+01	-1.615676e+02
7.100000e-07	-4.455765e-06	-2.454193e-09	-3.153760e+01	-1.614166e+02
7.200000e-07	-4.428772e-06	-2.441385e-09	-3.134655e+01	-1.612665e+02
7.300000e-07	-4.401438e-06	-2.445778e-09	-3.115308e+01	-1.611173e+02
7.400000e-07	-4.373792e-06	-2.453673e-09	-3.095740e+01	-1.609686e+02
7.500000e-07	-4.345977e-06	-2.451934e-09	-3.076053e+01	-1.608204e+02
7.600000e-07	-4.317973e-06	-2.431783e-09	-3.056232e+01	-1.606723e+02
7.700000e-07	-4.289735e-06	-2.427920e-09	-3.036245e+01	-1.605239e+02
7.800000e-07	-4.261297e-06	-2.433402e-09	-3.016117e+01	-1.603749e+02
7.900000e-07	-4.232581e-06	-2.433838e-09	-2.995792e+01	-1.602249e+02
8.000000e-07	-4.203493e-06	-2.416235e-09	-2.975203e+01	-1.600734e+02
8.100000e-07	-4.174110e-06	-2.413321e-09	-2.954406e+01	-1.599200e+02
8.200000e-07	-4.144439e-06	-2.414367e-09	-2.933405e+01	-1.597640e+02
8.300000e-07	-4.114506e-06	-2.420427e-09	-2.912219e+01	-1.596051e+02
8.400000e-07	-4.084304e-06	-2.410094e-09	-2.890842e+01	-1.594426e+02
8.500000e-07	-4.053751e-06	-2.402359e-09	-2.869217e+01	-1.592762e+02
8.600000e-07	-4.022843e-06	-2.396264e-09	-2.847341e+01	-1.591053e+02
8.700000e-07	-3.991789e-06	-2.402997e-09	-2.825361e+01	-1.589294e+02
8.800000e-07	-3.960614e-06	-2.395711e-09	-2.803295e+01	-1.587481e+02
8.900000e-07	-3.929142e-06	-2.385301e-09	-2.781020e+01	-1.585610e+02
9.000000e-07	-3.897430e-06	-2.376554e-09	-2.758575e+01	-1.583677e+02
9.100000e-07	-3.865551e-06	-2.380840e-09	-2.736010e+01	-1.581680e+02
9.200000e-07	-3.833462e-06	-2.376952e-09	-2.713298e+01	-1.579616e+02
9.300000e-07	-3.801180e-06	-2.370717e-09	-2.690449e+01	-1.577484e+02
9.400000e-07	-3.768704e-06	-2.364435e-09	-2.667463e+01	-1.575281e+02
9.500000e-07	-3.735921e-06	-2.369786e-09	-2.644260e+01	-1.573007e+02
9.600000e-07	-3.702663e-06	-2.369497e-09	-2.620720e+01	-1.570664e+02
9.700000e-07	-3.668976e-06	-2.359717e-09	-2.596876e+01	-1.568250e+02
9.800000e-07	-3.634827e-06	-2.347644e-09	-2.572706e+01	-1.565769e+02
9.900000e-07	-3.600257e-06	-2.343693e-09	-2.548237e+01	-1.563221e+02
1.000000e-06	-3.565302e-06	-2.344633e-09	-2.523497e+01	-1.560611e+02
1.010000e-06	-3.529974e-06	-2.343870e-09	-2.498492e+01	-1.557941e+02
1.020000e-06	-3.494479e-06	-2.339739e-09	-2.473368e+01	-1.555214e+02
1.030000e-06	-3.458790e-06	-2.334582e-09	-2.448108e+01	-1.552436e+02
1.040000e-06	-3.422888e-06	-2.332189e-09	-2.422697e+01	-1.549610e+02
1.050000e-06	-3.386824e-06	-2.323717e-09	-2.397171e+01	-1.546742e+02
1.060000e-06	-3.350615e-06	-2.311188e-09	-2.371542e+01	-1.543836e+02
1.070000e-06	-3.314189e-06	-2.298789e-09	-2.345760e+01	-1.540897e+02
1.080000e-06	-3.277583e-06	-2.295962e-09	-2.319851e+01	-1.537931e+02
1.090000e-06	-3.240792e-06	-2.292643e-09	-2.293810e+01	-1.534942e+02
1.100000e-06	-3.203690e-06	-2.290511e-09	-2.267550e+01	-1.531934e+02
1.110000e-06	-3.166298e-06	-2.283899e-09	-2.241084e+01	-1.528912e+02
1.120000e-06	-3.128733e-06	-2.279247e-09	-2.214495e+01	-1.525879e+02
1.130000e-06	-3.091008e-06	-2.274814e-09	-2.187794e+01	-1.522839e+02
1.140000e-06	-3.053126e-06	-2.272042e-09	-2.160982e+01	-1.519793e+02
1.150000e-06	-3.015033e-06	-2.262293e-09	-2.134020e+01	-1.516744e+02
1.160000e-06	-2.976696e-06	-2.255580e-09	-2.106885e+01	-1.513692e+02
1.170000e-06	-2.938225e-06	-2.249178e-09	-2.079656e+01	-1.510638e+02
1.180000e-06	-2.899442e-06	-2.245144e-09	-2.052205e+01	-1.507581e+02
1.190000e-06	-2.860348e-06	-2.238149e-09	-2.024535e+01	-1.504520e+02
1.200000e-06	-2.821130e-06	-2.235836e-09	-1.996776e+01	-1.501451e+02
1.210000e-06	-2.781694e-06	-2.232186e-09	-1.968864e+01	-1.498374e+02
1.220000e-06	-2.742067e-06	-2.226427e-09	-1.940816e+01	-1.495282e+02
1.230000e-06	-2.702301e-06	-2.216890e-09	-1.912670e+01	-1.492173e+02
1.240000e-06	-2.662436e-06	-2.208045e-09	-1.884454e+01	-1.489040e+02
1.250000e-06	-2.622514e-06	-2.197432e-09	-1.856198e+01	-1.485877e+02
1.260000e-06	-2.582461e-06	-2.188932e-09	-1.827848e+01	-1.482679e+02
1.270000e-06	-2.542284e-06	-2.180541e-09	-1.799411e+01	-1.479439e+02
1.280000e-06	-2.502023e-06	-2.173611e-09	-1.770915e+01	-1.476149e+02
1.290000e-06	-2.461641e-06	-2.167886e-09	-1.742332e+01	-1.472802e+02
1.300000e-06	-2.421137e-06	-2.162715e-09	-1.713664e+01	-1.469391e+02
1.310000e-06	-2.380441e-06	-2.159692e-09	-1.684860e+01	-1.465909e+02
1.320000e-06	-2.339522e-06	-2.156840e-09	-1.655898e+01	-1.462347e+02
1.330000e-06	-2.298423e-06	-2.152049e-09	-1.626808e+01	-1.458699e+02
1.340000e-06	-2.256967e-06	-2.143053e-09	-1.597466e+01	-1.454959e+02
1.350000e-06	-2.215173e-06	-2.133912e-09	-1.567884e+01	-1.451118e+02
1.360000e-06	-2.173056e-06	-2.122770e-09	-1.538074e+01	-1.447172e+02
1.370000e-06	-2.130503e-06	-2.112234e-09	-1.507956e+01	-1.443114e+02
1.380000e-06	-2.087694e-06	-2.102556e-09	-1.477655e+01	-1.438939e+02
1.390000e-06	-2.044713e-06	-2.095171e-09	-1.447234e+01	-1.434642e+02
1.400000e-06	-2.001576e-06	-2.087238e-09	-1.416702e+01	-1.430220e+02
1.410000e-06	-1.958360e-06	-2.081182e-09	-1.386114e+01	-1.425667e+02
1.420000e-06	-1.915032e-06	-2.074310e-09	-1.355446e+01	-1.420982e+02
1.430000e-06	-1.871527e-06	-2.066045e-09	-1.324654e+01	-1.416161e+02
1.440000e-06	-1.827875e-06	-2.054762e-09	-1.293757e+01	-1.411202e+02
1.450000e-06	-1.784118e-06	-2.045414e-09	-1.262787e+01	-1.406102e+02
1.460000e-06	-1.740242e-06	-2.034156e-09	-1.231732e+01	-1.400860e+02
1.470000e-06	-1.696261e-06	-2.022683e-09	-1.200602e+01	-1.395474e+02
1.480000e-06	-1.652209e-06	-2.010144e-09	-1.169422e+01	-1.389942e+02
1.490000e-06	-1.608080e-06	-2.001154e-09	-1.138188e+01	-1.384263e+02
1.500000e-06	-1.563880e-06	-1.994684e-09	-1.106904e+01	-1.378435e+02
1.510000e-06	-1.519573e-06	-1.988663e-09	-1.075543e+01	-1.372456e+02
1.520000e-06	-1.475236e-06	-1.980379e-09	-1.044162e+01	-1.366324e+02
1.530000e-06	-1.430929e-06	-1.970982e-09	-1.012802e+01	-1.360037e+02
1.540000e-06	-1.386512e-06	-1.962248e-09	-9.813635e+00	-1.353592e+02
1.550000e-06	-1.341983e-06	-1.951979e-09	-9.498462e+00	-1.346985e+02
1.560000e-06	-1.297416e-06	-1.939301e-09	-9.183024e+00	-1.340213e+02
1.570000e-06	-1.252691e-06	-1.928977e-09	-8.866460e+00	-1.333272e+02
1.580000e-06	-1.207792e-06	-1.919132e-09	-8.548673e+00	-1.326155e+02
1.590000e-06	-1.162857e-06	-1.909579e-09	-8.230621e+00	-1.318858e+02
1.600000e-06	-1.117869e-06	-1.903293e-09	-7.912203e+00	-1.311374e+02
1.610000e-06	-1.072834e-06	-1.894945e-09	-7.593445e+00	-1.303697e+02
1.620000e-06	-1.027739e-06	-1.879270e-09	-7.274264e+00	-1.295819e+02
1.630000e-06	-9.825032e-07	-1.862571e-09	-6.954091e+00	-1.287732e+02
1.640000e-06	-9.372134e-07	-1.849767e-09	-6.633532e+00	-1.279428e+02
1.650000e-06	-8.919025e-07	-1.839381e-09	-6.312825e+00	-1.270896e+02
1.660000e-06	-8.464149e-07	-1.828061e-09	-5.990867e+00	-1.262128e+02
1.670000e-06	-8.008335e-07	-1.815389e-09	-5.668245e+00	-1.253114e+02
1.680000e-06	-7.552554e-07	-1.802372e-09	-5.345646e+00	-1.243842e+02
1.690000e-06	-7.095941e-07	-1.787044e-09	-5.022458e+00	-1.234303e+02
1.700000e-06	-6.638979e-07	-1.771026e-09	-4.699024e+00	-1.224485e+02
1.710000e-06	-6.181848e-07	-1.754685e-09	-4.375470e+00	-1.214375e+02
1.720000e-06	-5.724110e-07	-1.739493e-09	-4.051486e+00	-1.203964e+02
1.730000e-06	-5.265925e-07	-1.725600e-09	-3.727186e+00	-1.193238e+02
1.740000e-06	-4.807104e-07	-1.712579e-09	-3.402435e+00	-1.182185e+02
1.750000e-06	-4.347856e-07	-1.695806e-09	-3.077383e+00	-1.170791e+02
1.760000e-06	-3.889372e-07	-1.678634e-09	-2.752871e+00	-1.159045e+02
1.770000e-06	-3.430891e-07	-1.660965e-09	-2.428361e+00	-1.146933e+02
1.780000e-06	-2.971634e-07	-1.643638e-09	-2.103302e+00	-1.134439e+02
1.790000e-06	-2.512033e-07	-1.624063e-09	-1.778000e+00	-1.121551e+02
1.800000e-06	-2.052283e-07	-1.602797e-09	-1.452592e+00	-1.108252e+02
1.810000e-06	-1.592998e-07	-1.581411e-09	-1.127513e+00	-1.094526e+02
1.820000e-06	-1.133102e-07	-1.561616e-09	-8.020019e-01	-1.080358e+02
1.830000e-06	-6.725047e-08	-1.541976e-09	-4.759942e-01	-1.065731e+02
1.840000e-06	-2.128117e-08	-1.521091e-09	-1.506266e-01	-1.050624e+02
1.850000e-06	2.466521e-08	-1.498095e-09	1.745787e-01	-1.035020e+02
1.860000e-06	7.069141e-08	-1.474111e-09	5.003489e-01	-1.018899e+02
1.870000e-06	1.167161e-07	-1.448771e-09	8.261085e-01	-1.002238e+02
1.880000e-06	1.627430e-07	-1.421885e-09	1.151884e+00	-9.850169e+01
1.890000e-06	2.087632e-07	-1.393763e-09	1.477612e+00	-9.672111e+01
1.900000e-06	2.546979e-07	-1.365338e-09	1.802734e+00	-9.487969e+01
1.910000e-06	3.006270e-07	-1.336154e-09	2.127817e+00	-9.297493e+01
1.920000e-06	3.466080e-07	-1.305101e-09	2.453268e+00	-9.100424e+01
1.930000e-06	3.926477e-07	-1.274962e-09	2.779134e+00	-8.896501e+01
1.940000e-06	4.386116e-07	-1.245594e-09	3.104463e+00	-8.685455e+01
1.950000e-06	4.843656e-07	-1.216852e-09	3.428307e+00	-8.467017e+01
1.960000e-06	5.300855e-07	-1.186311e-09	3.751909e+00	-8.240918e+01
1.970000e-06	5.758454e-07	-1.153262e-09	4.075794e+00	-8.006896e+01
1.980000e-06	6.215603e-07	-1.115235e-09	4.399361e+00	-7.764692e+01
1.990000e-06	6.672026e-07	-1.073300e-09	4.722414e+00	-7.514062e+01
2.000000e-06	7.128311e-07	-1.031462e-09	5.045370e+00	-7.254775e+01
2.010000e-06	7.584381e-07	-9.897192e-10	5.368173e+00	-6.986619e+01
2.020000e-06	8.039637e-07	-9.529139e-10	5.690400e+00	-6.709409e+01
2.030000e-06	8.494771e-07	-9.183578e-10	6.012541e+00	-6.422985e+01
2.040000e-06	8.949551e-07	-8.845555e-10	6.334431e+00	-6.127220e+01
2.050000e-06	9.402448e-07	-8.457061e-10	6.654988e+00	-5.822027e+01
2.060000e-06	9.854526e-07	-7.966282e-10	6.974966e+00	-5.507359e+01
2.070000e-06	1.030726e-06	-7.397671e-10	7.295409e+00	-5.183213e+01
2.080000e-06	1.075924e-06	-6.770481e-10	7.615315e+00	-4.849640e+01
2.090000e-06	1.120976e-06	-6.174060e-10	7.934190e+00	-4.506741e+01
2.100000e-06	1.165853e-06	-5.666298e-10	8.251830e+00	-4.154675e+01
2.110000e-06	1.210564e-06	-5.261793e-10	8.568288e+00	-3.793658e+01
2.120000e-06	1.255273e-06	-4.887772e-10	8.884736e+00	-3.423969e+01
2.130000e-06	1.299973e-06	-4.429184e-10	9.201121e+00	-3.045947e+01
2.140000e-06	1.344545e-06	-3.809477e-10	9.516598e+00	-2.659995e+01
2.150000e-06	1.389043e-06	-3.098931e-10	9.831548e+00	-2.266578e+01
2.160000e-06	1.433504e-06	-2.366584e-10	1.014624e+01	-1.866222e+01
2.170000e-06	1.477881e-06	-1.662144e-10	1.046034e+01	-1.459511e+01
2.180000e-06	1.522106e-06	-9.980403e-11	1.077336e+01	-1.047090e+01
2.190000e-06	1.566245e-06	-4.088137e-11	1.108577e+01	-6.296530e+00
2.200000e-06	1.610370e-06	1.004324e-11	1.139809e+01	-2.079452e+00
2.210000e-06	1.654488e-06	6.229986e-11	1.171035e+01	2.172442e+00
2.220000e-06	1.698526e-06	1.261722e-10	1.202205e+01	6.450876e+00
2.230000e-06	1.742365e-06	2.013337e-10	1.233234e+01	1.074725e+01
2.240000e-06	1.786101e-06	2.786712e-10	1.264190e+01	1.505272e+01
2.250000e-06	1.829839e-06	3.508853e-10	1.295148e+01	1.935825e+01
2.260000e-06	1.873552e-06	4.199039e-10	1.326088e+01	2.365471e+01
2.270000e-06	1.917162e-06	4.828658e-10	1.356954e+01	2.793293e+01
2.280000e-06	1.960572e-06	5.376588e-10	1.387679e+01	3.218381e+01
2.290000e-06	2.003731e-06	5.893822e-10	1.418227e+01	3.639840e+01
2.300000e-06	2.046719e-06	6.474326e-10	1.448654e+01	4.056794e+01
2.310000e-06	2.089588e-06	7.149052e-10	1.478996e+01	4.468399e+01
2.320000e-06	2.132296e-06	7.824221e-10	1.509224e+01	4.873848e+01
2.330000e-06	2.174766e-06	8.445870e-10	1.539285e+01	5.272377e+01
2.340000e-06	2.216885e-06	9.016798e-10	1.569096e+01	5.663275e+01
2.350000e-06	2.258736e-06	9.571934e-10	1.598718e+01	6.045886e+01
2.360000e-06	2.300303e-06	1.009692e-09	1.628139e+01	6.419617e+01
2.370000e-06	2.341528e-06	1.056056e-09	1.657317e+01	6.783941e+01
2.380000e-06	2.382478e-06	1.100140e-09	1.686302e+01	7.138401e+01
2.390000e-06	2.423237e-06	1.150014e-09	1.715151e+01	7.482613e+01
2.400000e-06	2.463791e-06	1.200394e-09	1.743854e+01	7.816267e+01
2.410000e-06	2.504057e-06	1.245790e-09	1.772354e+01	8.139127e+01
2.420000e-06	2.544163e-06	1.287081e-09	1.800741e+01	8.451035e+01
2.430000e-06	2.584205e-06	1.328720e-09	1.829083e+01	8.751901e+01
2.440000e-06	2.624201e-06	1.374260e-09	1.857391e+01	9.041712e+01
2.450000e-06	2.664108e-06	1.418192e-09	1.885637e+01	9.320520e+01
2.460000e-06	2.703883e-06	1.455829e-09	1.913790e+01	9.588442e+01
2.470000e-06	2.743504e-06	1.492695e-09	1.941833e+01	9.845656e+01
2.480000e-06	2.782944e-06	1.528803e-09	1.969749e+01	1.009239e+02
2.490000e-06	2.822244e-06	1.558362e-09	1.997565e+01	1.032894e+02
2.500000e-06	2.861408e-06	1.584319e-09	2.025285e+01	1.055561e+02
2.510000e-06	2.900408e-06	1.613601e-09	2.052889e+01	1.077278e+02
2.520000e-06	2.939188e-06	1.645795e-09	2.080337e+01	1.098083e+02
2.530000e-06	2.977648e-06	1.677033e-09	2.107559e+01	1.118017e+02
2.540000e-06	3.015861e-06	1.704481e-09	2.134606e+01	1.137125e+02
2.550000e-06	3.053925e-06	1.732770e-09	2.161547e+01	1.155448e+02
2.560000e-06	3.091712e-06	1.763523e-09	2.188293e+01	1.173033e+02
2.570000e-06	3.129311e-06	1.789712e-09	2.214905e+01	1.189922e+02
2.580000e-06	3.166799e-06	1.808110e-09	2.241438e+01	1.206158e+02
2.590000e-06	3.204073e-06	1.826396e-09	2.267821e+01	1.221784e+02
2.600000e-06	3.241043e-06	1.851356e-09	2.293988e+01	1.236839e+02
2.610000e-06	3.277719e-06	1.876554e-09	2.319947e+01	1.251360e+02
2.620000e-06	3.314211e-06	1.895912e-09	2.345776e+01	1.265382e+02
2.630000e-06	3.350562e-06	1.914207e-09	2.371505e+01	1.278937e+02
2.640000e-06	3.386719e-06	1.936190e-09	2.397097e+01	1.292054e+02
2.650000e-06	3.422683e-06	1.957323e-09	2.422551e+01	1.304758e+02
2.660000e-06	3.458534e-06	1.972740e-09	2.447927e+01	1.317073e+02
2.670000e-06	3.494248e-06	1.986110e-09	2.473205e+01	1.329016e+02
2.680000e-06	3.529741e-06	2.004370e-09	2.498327e+01	1.340606e+02
2.690000e-06	3.564999e-06	2.026398e-09	2.523282e+01	1.351853e+02
2.700000e-06	3.599980e-06	2.044270e-09	2.548041e+01	1.362770e+02
2.710000e-06	3.634545e-06	2.054936e-09	2.572506e+01	1.373364e+02
2.720000e-06	3.668602e-06	2.065911e-09	2.596611e+01	1.383640e+02
2.730000e-06	3.702154e-06	2.079733e-09	2.620359e+01	1.393602e+02
2.740000e-06	3.735285e-06	2.093476e-09	2.643809e+01	1.403253e+02
2.750000e-06	3.768035e-06	2.106564e-09	2.666989e+01	1.412594e+02
2.760000e-06	3.800473e-06	2.122573e-09	2.689949e+01	1.421623e+02
2.770000e-06	3.832718e-06	2.142681e-09	2.712772e+01	1.430342e+02
2.780000e-06	3.864776e-06	2.159902e-09	2.735462e+01	1.438749e+02
2.790000e-06	3.896653e-06	2.169439e-09	2.758024e+01	1.446843e+02
2.800000e-06	3.928361e-06	2.177209e-09	2.780467e+01	1.454625e+02
2.810000e-06	3.959847e-06	2.186711e-09	2.802752e+01	1.462095e+02
2.820000e-06	3.991133e-06	2.194682e-09	2.824897e+01	1.469254e+02
2.830000e-06	4.022205e-06	2.200440e-09	2.846889e+01	1.476106e+02
2.840000e-06	4.052920e-06	2.208231e-09	2.868629e+01	1.482652e+02
2.850000e-06	4.083283e-06	2.220662e-09	2.890120e+01	1.488900e+02
2.860000e-06	4.113365e-06	2.235274e-09	2.911411e+01	1.494855e+02
2.870000e-06	4.143175e-06	2.246814e-09	2.932511e+01	1.500524e+02
2.880000e-06	4.172736e-06	2.254520e-09	2.953434e+01	1.505917e+02
2.890000e-06	4.202044e-06	2.259529e-09	2.974178e+01	1.511045e+02
2.900000e-06	4.231068e-06	2.261612e-09	2.994721e+01	1.515919e+02
