# Temperatura_=_-1.81
# Concentracion g/m^3_=_4090.0
# C_Vs_to_Am_M_A/Vsm_=_65563218390.804596
# pendiente_HvsI_1/m_=_3716.3
# ordenada_HvsI_A/m_=_1297.0
# frecuencia_Hz_=_135084.3737166434

Tiempo_(s)	Campo_(V.s)	Magnetizacion_(V.s)	Campo_(kA/m)	Magnetizacion_(A/m)
0.000000e+00	-5.391930e-06	-2.515736e-09	-3.838990e+01	-1.601388e+02
1.000000e-08	-5.392152e-06	-2.513754e-09	-3.839148e+01	-1.601528e+02
2.000000e-08	-5.392169e-06	-2.513396e-09	-3.839160e+01	-1.601697e+02
3.000000e-08	-5.391961e-06	-2.515357e-09	-3.839012e+01	-1.601906e+02
4.000000e-08	-5.391428e-06	-2.514298e-09	-3.838633e+01	-1.602163e+02
5.000000e-08	-5.390387e-06	-2.509337e-09	-3.837891e+01	-1.602476e+02
6.000000e-08	-5.388761e-06	-2.509820e-09	-3.836734e+01	-1.602855e+02
7.000000e-08	-5.386487e-06	-2.525256e-09	-3.835115e+01	-1.603307e+02
8.000000e-08	-5.383627e-06	-2.554801e-09	-3.833078e+01	-1.603838e+02
9.000000e-08	-5.380300e-06	-2.550607e-09	-3.830710e+01	-1.604455e+02
1.000000e-07	-5.376555e-06	-2.466702e-09	-3.828044e+01	-1.605161e+02
1.100000e-07	-5.372495e-06	-2.380134e-09	-3.825152e+01	-1.605961e+02
1.200000e-07	-5.368235e-06	-2.504569e-09	-3.822120e+01	-1.606855e+02
1.300000e-07	-5.363662e-06	-2.607349e-09	-3.818864e+01	-1.607845e+02
1.400000e-07	-5.358559e-06	-2.508046e-09	-3.815230e+01	-1.608929e+02
1.500000e-07	-5.352979e-06	-2.370366e-09	-3.811258e+01	-1.610104e+02
1.600000e-07	-5.347274e-06	-2.481575e-09	-3.807196e+01	-1.611367e+02
1.700000e-07	-5.341289e-06	-2.624220e-09	-3.802934e+01	-1.612711e+02
1.800000e-07	-5.334692e-06	-2.500781e-09	-3.798237e+01	-1.614129e+02
1.900000e-07	-5.327669e-06	-2.330333e-09	-3.793237e+01	-1.615614e+02
2.000000e-07	-5.320511e-06	-2.436407e-09	-3.788141e+01	-1.617154e+02
2.100000e-07	-5.313087e-06	-2.556788e-09	-3.782855e+01	-1.618739e+02
2.200000e-07	-5.305266e-06	-2.466087e-09	-3.777286e+01	-1.620358e+02
2.300000e-07	-5.297199e-06	-2.390039e-09	-3.771543e+01	-1.621998e+02
2.400000e-07	-5.288935e-06	-2.520413e-09	-3.765659e+01	-1.623645e+02
2.500000e-07	-5.280058e-06	-2.552836e-09	-3.759338e+01	-1.625287e+02
2.600000e-07	-5.270402e-06	-2.415944e-09	-3.752464e+01	-1.626908e+02
2.700000e-07	-5.260422e-06	-2.442348e-09	-3.745358e+01	-1.628496e+02
2.800000e-07	-5.249996e-06	-2.561999e-09	-3.737935e+01	-1.630037e+02
2.900000e-07	-5.238884e-06	-2.483069e-09	-3.730023e+01	-1.631517e+02
3.000000e-07	-5.227316e-06	-2.369842e-09	-3.721787e+01	-1.632924e+02
3.100000e-07	-5.215410e-06	-2.511315e-09	-3.713310e+01	-1.634245e+02
3.200000e-07	-5.202973e-06	-2.577949e-09	-3.704455e+01	-1.635470e+02
3.300000e-07	-5.190147e-06	-2.434892e-09	-3.695323e+01	-1.636587e+02
3.400000e-07	-5.177095e-06	-2.378035e-09	-3.686031e+01	-1.637589e+02
3.500000e-07	-5.163640e-06	-2.519351e-09	-3.676451e+01	-1.638467e+02
3.600000e-07	-5.149753e-06	-2.511233e-09	-3.666563e+01	-1.639215e+02
3.700000e-07	-5.135625e-06	-2.444941e-09	-3.656504e+01	-1.639827e+02
3.800000e-07	-5.121063e-06	-2.463809e-09	-3.646136e+01	-1.640300e+02
3.900000e-07	-5.105761e-06	-2.498785e-09	-3.635241e+01	-1.640630e+02
4.000000e-07	-5.089839e-06	-2.460506e-09	-3.623905e+01	-1.640817e+02
4.100000e-07	-5.073538e-06	-2.487208e-09	-3.612299e+01	-1.640861e+02
4.200000e-07	-5.056919e-06	-2.480488e-09	-3.600466e+01	-1.640764e+02
4.300000e-07	-5.039905e-06	-2.412368e-09	-3.588352e+01	-1.640528e+02
4.400000e-07	-5.022541e-06	-2.435305e-09	-3.575990e+01	-1.640158e+02
4.500000e-07	-5.004951e-06	-2.518312e-09	-3.563465e+01	-1.639658e+02
4.600000e-07	-4.987052e-06	-2.467096e-09	-3.550722e+01	-1.639034e+02
4.700000e-07	-4.968693e-06	-2.400577e-09	-3.537650e+01	-1.638293e+02
4.800000e-07	-4.949972e-06	-2.453610e-09	-3.524321e+01	-1.637444e+02
4.900000e-07	-4.930939e-06	-2.496626e-09	-3.510770e+01	-1.636493e+02
5.000000e-07	-4.911564e-06	-2.452172e-09	-3.496975e+01	-1.635450e+02
5.100000e-07	-4.891914e-06	-2.418102e-09	-3.482985e+01	-1.634324e+02
5.200000e-07	-4.872003e-06	-2.430529e-09	-3.468808e+01	-1.633124e+02
5.300000e-07	-4.851850e-06	-2.454951e-09	-3.454460e+01	-1.631860e+02
5.400000e-07	-4.831438e-06	-2.475948e-09	-3.439927e+01	-1.630542e+02
5.500000e-07	-4.810687e-06	-2.443639e-09	-3.425152e+01	-1.629178e+02
5.600000e-07	-4.789601e-06	-2.412111e-09	-3.410139e+01	-1.627779e+02
5.700000e-07	-4.768158e-06	-2.440662e-09	-3.394872e+01	-1.626352e+02
5.800000e-07	-4.746394e-06	-2.469591e-09	-3.379376e+01	-1.624907e+02
5.900000e-07	-4.724315e-06	-2.424549e-09	-3.363656e+01	-1.623451e+02
6.000000e-07	-4.701981e-06	-2.399245e-09	-3.347754e+01	-1.621993e+02
6.100000e-07	-4.679348e-06	-2.424495e-09	-3.331640e+01	-1.620538e+02
6.200000e-07	-4.656266e-06	-2.451884e-09	-3.315206e+01	-1.619094e+02
6.300000e-07	-4.632831e-06	-2.436526e-09	-3.298521e+01	-1.617666e+02
6.400000e-07	-4.609127e-06	-2.412681e-09	-3.281644e+01	-1.616259e+02
6.500000e-07	-4.585281e-06	-2.401616e-09	-3.264666e+01	-1.614876e+02
6.600000e-07	-4.561272e-06	-2.429315e-09	-3.247571e+01	-1.613521e+02
6.700000e-07	-4.536960e-06	-2.436014e-09	-3.230261e+01	-1.612196e+02
6.800000e-07	-4.512344e-06	-2.405680e-09	-3.212735e+01	-1.610903e+02
6.900000e-07	-4.487287e-06	-2.387107e-09	-3.194895e+01	-1.609642e+02
7.000000e-07	-4.461704e-06	-2.415756e-09	-3.176681e+01	-1.608414e+02
7.100000e-07	-4.435617e-06	-2.428404e-09	-3.158107e+01	-1.607217e+02
7.200000e-07	-4.409051e-06	-2.407905e-09	-3.139192e+01	-1.606049e+02
7.300000e-07	-4.382046e-06	-2.386985e-09	-3.119964e+01	-1.604908e+02
7.400000e-07	-4.354745e-06	-2.397842e-09	-3.100527e+01	-1.603790e+02
7.500000e-07	-4.327151e-06	-2.411518e-09	-3.080880e+01	-1.602693e+02
7.600000e-07	-4.299240e-06	-2.402245e-09	-3.061008e+01	-1.601610e+02
7.700000e-07	-4.271092e-06	-2.377925e-09	-3.040967e+01	-1.600538e+02
7.800000e-07	-4.242717e-06	-2.380024e-09	-3.020764e+01	-1.599469e+02
7.900000e-07	-4.214126e-06	-2.401200e-09	-3.000408e+01	-1.598399e+02
8.000000e-07	-4.185292e-06	-2.400146e-09	-2.979878e+01	-1.597320e+02
8.100000e-07	-4.156259e-06	-2.377573e-09	-2.959207e+01	-1.596226e+02
8.200000e-07	-4.126880e-06	-2.367106e-09	-2.938289e+01	-1.595109e+02
8.300000e-07	-4.097176e-06	-2.381052e-09	-2.917141e+01	-1.593963e+02
8.400000e-07	-4.067302e-06	-2.387774e-09	-2.895871e+01	-1.592781e+02
8.500000e-07	-4.037187e-06	-2.372874e-09	-2.874430e+01	-1.591554e+02
8.600000e-07	-4.006730e-06	-2.354887e-09	-2.852744e+01	-1.590277e+02
8.700000e-07	-3.975971e-06	-2.362127e-09	-2.830844e+01	-1.588943e+02
8.800000e-07	-3.944949e-06	-2.373029e-09	-2.808757e+01	-1.587545e+02
8.900000e-07	-3.913645e-06	-2.364625e-09	-2.786469e+01	-1.586077e+02
9.000000e-07	-3.882131e-06	-2.344153e-09	-2.764031e+01	-1.584535e+02
9.100000e-07	-3.850404e-06	-2.345907e-09	-2.741442e+01	-1.582914e+02
9.200000e-07	-3.818455e-06	-2.357964e-09	-2.718695e+01	-1.581209e+02
9.300000e-07	-3.786318e-06	-2.358229e-09	-2.695814e+01	-1.579418e+02
9.400000e-07	-3.753975e-06	-2.341832e-09	-2.672786e+01	-1.577539e+02
9.500000e-07	-3.721392e-06	-2.338913e-09	-2.649587e+01	-1.575569e+02
9.600000e-07	-3.688523e-06	-2.346442e-09	-2.626185e+01	-1.573509e+02
9.700000e-07	-3.655309e-06	-2.347050e-09	-2.602537e+01	-1.571358e+02
9.800000e-07	-3.621663e-06	-2.331474e-09	-2.578581e+01	-1.569119e+02
9.900000e-07	-3.587634e-06	-2.324133e-09	-2.554353e+01	-1.566792e+02
1.000000e-06	-3.553262e-06	-2.328928e-09	-2.529880e+01	-1.564382e+02
1.010000e-06	-3.518470e-06	-2.335376e-09	-2.505109e+01	-1.561891e+02
1.020000e-06	-3.483384e-06	-2.329154e-09	-2.480128e+01	-1.559325e+02
1.030000e-06	-3.448061e-06	-2.322275e-09	-2.454978e+01	-1.556689e+02
1.040000e-06	-3.412466e-06	-2.322173e-09	-2.429635e+01	-1.553988e+02
1.050000e-06	-3.376605e-06	-2.321270e-09	-2.404103e+01	-1.551228e+02
1.060000e-06	-3.340538e-06	-2.307087e-09	-2.378424e+01	-1.548417e+02
1.070000e-06	-3.304307e-06	-2.291166e-09	-2.352627e+01	-1.545560e+02
1.080000e-06	-3.267889e-06	-2.286293e-09	-2.326698e+01	-1.542665e+02
1.090000e-06	-3.231248e-06	-2.289694e-09	-2.300610e+01	-1.539739e+02
1.100000e-06	-3.194415e-06	-2.290503e-09	-2.274385e+01	-1.536786e+02
1.110000e-06	-3.157369e-06	-2.286032e-09	-2.248009e+01	-1.533815e+02
1.120000e-06	-3.120133e-06	-2.284760e-09	-2.221498e+01	-1.530829e+02
1.130000e-06	-3.082742e-06	-2.286092e-09	-2.194876e+01	-1.527835e+02
1.140000e-06	-3.045137e-06	-2.282282e-09	-2.168102e+01	-1.524837e+02
1.150000e-06	-3.007263e-06	-2.267623e-09	-2.141136e+01	-1.521837e+02
1.160000e-06	-2.969205e-06	-2.253984e-09	-2.114039e+01	-1.518838e+02
1.170000e-06	-2.931065e-06	-2.247202e-09	-2.086883e+01	-1.515842e+02
1.180000e-06	-2.892659e-06	-2.246720e-09	-2.059539e+01	-1.512848e+02
1.190000e-06	-2.853884e-06	-2.243891e-09	-2.031931e+01	-1.509857e+02
1.200000e-06	-2.814942e-06	-2.241101e-09	-2.004205e+01	-1.506866e+02
1.210000e-06	-2.775868e-06	-2.240721e-09	-1.976385e+01	-1.503872e+02
1.220000e-06	-2.736600e-06	-2.239159e-09	-1.948427e+01	-1.500872e+02
1.230000e-06	-2.697073e-06	-2.228355e-09	-1.920284e+01	-1.497860e+02
1.240000e-06	-2.657359e-06	-2.216003e-09	-1.892008e+01	-1.494830e+02
1.250000e-06	-2.617611e-06	-2.205943e-09	-1.863708e+01	-1.491775e+02
1.260000e-06	-2.577758e-06	-2.199825e-09	-1.835333e+01	-1.488689e+02
1.270000e-06	-2.537812e-06	-2.194714e-09	-1.806892e+01	-1.485562e+02
1.280000e-06	-2.497763e-06	-2.194775e-09	-1.778378e+01	-1.482386e+02
1.290000e-06	-2.457597e-06	-2.195098e-09	-1.749780e+01	-1.479153e+02
1.300000e-06	-2.417274e-06	-2.193325e-09	-1.721070e+01	-1.475852e+02
1.310000e-06	-2.376831e-06	-2.188159e-09	-1.692276e+01	-1.472476e+02
1.320000e-06	-2.336184e-06	-2.182054e-09	-1.663335e+01	-1.469015e+02
1.330000e-06	-2.295267e-06	-2.175119e-09	-1.634203e+01	-1.465460e+02
1.340000e-06	-2.254182e-06	-2.167852e-09	-1.604951e+01	-1.461803e+02
1.350000e-06	-2.212896e-06	-2.158410e-09	-1.575556e+01	-1.458036e+02
1.360000e-06	-2.171260e-06	-2.147710e-09	-1.545911e+01	-1.454153e+02
1.370000e-06	-2.129261e-06	-2.139362e-09	-1.516008e+01	-1.450147e+02
1.380000e-06	-2.087098e-06	-2.134224e-09	-1.485989e+01	-1.446013e+02
1.390000e-06	-2.044705e-06	-2.126944e-09	-1.455805e+01	-1.441746e+02
1.400000e-06	-2.002029e-06	-2.118373e-09	-1.425421e+01	-1.437342e+02
1.410000e-06	-1.959205e-06	-2.113368e-09	-1.394931e+01	-1.432798e+02
1.420000e-06	-1.916195e-06	-2.106617e-09	-1.364308e+01	-1.428114e+02
1.430000e-06	-1.872926e-06	-2.094593e-09	-1.333501e+01	-1.423287e+02
1.440000e-06	-1.829452e-06	-2.080261e-09	-1.302548e+01	-1.418318e+02
1.450000e-06	-1.785892e-06	-2.068371e-09	-1.271534e+01	-1.413206e+02
1.460000e-06	-1.742221e-06	-2.057356e-09	-1.240440e+01	-1.407954e+02
1.470000e-06	-1.698406e-06	-2.046554e-09	-1.209245e+01	-1.402561e+02
1.480000e-06	-1.654596e-06	-2.035933e-09	-1.178053e+01	-1.397031e+02
1.490000e-06	-1.610683e-06	-2.028081e-09	-1.146787e+01	-1.391364e+02
1.500000e-06	-1.566603e-06	-2.021133e-09	-1.115403e+01	-1.385563e+02
1.510000e-06	-1.522469e-06	-2.011734e-09	-1.083980e+01	-1.379628e+02
1.520000e-06	-1.478313e-06	-1.998348e-09	-1.052542e+01	-1.373562e+02
1.530000e-06	-1.434141e-06	-1.987857e-09	-1.021091e+01	-1.367364e+02
1.540000e-06	-1.389924e-06	-1.981689e-09	-9.896096e+00	-1.361035e+02
1.550000e-06	-1.345630e-06	-1.974457e-09	-9.580726e+00	-1.354573e+02
1.560000e-06	-1.301265e-06	-1.964506e-09	-9.264853e+00	-1.347976e+02
1.570000e-06	-1.256852e-06	-1.954697e-09	-8.948634e+00	-1.341242e+02
1.580000e-06	-1.212396e-06	-1.944953e-09	-8.632119e+00	-1.334365e+02
1.590000e-06	-1.167912e-06	-1.935036e-09	-8.315396e+00	-1.327341e+02
1.600000e-06	-1.123248e-06	-1.921966e-09	-7.997392e+00	-1.320162e+02
1.610000e-06	-1.078516e-06	-1.909718e-09	-7.678909e+00	-1.312820e+02
1.620000e-06	-1.033733e-06	-1.901848e-09	-7.360053e+00	-1.305305e+02
1.630000e-06	-9.887350e-07	-1.894738e-09	-7.039676e+00	-1.297606e+02
1.640000e-06	-9.436482e-07	-1.881477e-09	-6.718663e+00	-1.289711e+02
1.650000e-06	-8.985717e-07	-1.862981e-09	-6.397724e+00	-1.281606e+02
1.660000e-06	-8.534730e-07	-1.847316e-09	-6.076626e+00	-1.273277e+02
1.670000e-06	-8.082632e-07	-1.838180e-09	-5.754738e+00	-1.264708e+02
1.680000e-06	-7.629208e-07	-1.827436e-09	-5.431906e+00	-1.255882e+02
1.690000e-06	-7.174822e-07	-1.811108e-09	-5.108388e+00	-1.246782e+02
1.700000e-06	-6.719743e-07	-1.796865e-09	-4.784377e+00	-1.237392e+02
1.710000e-06	-6.264430e-07	-1.788866e-09	-4.460200e+00	-1.227691e+02
1.720000e-06	-5.809465e-07	-1.777587e-09	-4.136270e+00	-1.217662e+02
1.730000e-06	-5.354284e-07	-1.759381e-09	-3.812186e+00	-1.207287e+02
1.740000e-06	-4.899525e-07	-1.741786e-09	-3.488403e+00	-1.196546e+02
1.750000e-06	-4.443944e-07	-1.726634e-09	-3.164036e+00	-1.185421e+02
1.760000e-06	-3.987309e-07	-1.712412e-09	-2.838917e+00	-1.173894e+02
1.770000e-06	-3.530933e-07	-1.694638e-09	-2.513982e+00	-1.161948e+02
1.780000e-06	-3.073803e-07	-1.675527e-09	-2.188511e+00	-1.149565e+02
1.790000e-06	-2.615751e-07	-1.661103e-09	-1.862384e+00	-1.136727e+02
1.800000e-06	-2.157621e-07	-1.647360e-09	-1.536201e+00	-1.123420e+02
1.810000e-06	-1.700153e-07	-1.627304e-09	-1.210489e+00	-1.109626e+02
1.820000e-06	-1.242414e-07	-1.604036e-09	-8.845841e-01	-1.095332e+02
1.830000e-06	-7.842641e-08	-1.581340e-09	-5.583867e-01	-1.080521e+02
1.840000e-06	-3.260482e-08	-1.559676e-09	-2.321425e-01	-1.065180e+02
1.850000e-06	1.325026e-08	-1.534727e-09	9.434025e-02	-1.049295e+02
1.860000e-06	5.911911e-08	-1.506974e-09	4.209211e-01	-1.032853e+02
1.870000e-06	1.049305e-07	-1.481900e-09	7.470930e-01	-1.015841e+02
1.880000e-06	1.506477e-07	-1.459358e-09	1.072594e+00	-9.982455e+01
1.890000e-06	1.964028e-07	-1.433005e-09	1.398365e+00	-9.800537e+01
1.900000e-06	2.421449e-07	-1.401804e-09	1.724043e+00	-9.612530e+01
1.910000e-06	2.879488e-07	-1.371725e-09	2.050161e+00	-9.418306e+01
1.920000e-06	3.337355e-07	-1.344380e-09	2.376157e+00	-9.217737e+01
1.930000e-06	3.793687e-07	-1.315466e-09	2.701060e+00	-9.010694e+01
1.940000e-06	4.250007e-07	-1.283710e-09	3.025955e+00	-8.797045e+01
1.950000e-06	4.705906e-07	-1.252112e-09	3.350549e+00	-8.576660e+01
1.960000e-06	5.161247e-07	-1.222461e-09	3.674747e+00	-8.349408e+01
1.970000e-06	5.615906e-07	-1.190524e-09	3.998459e+00	-8.115156e+01
1.980000e-06	6.069536e-07	-1.153295e-09	4.321438e+00	-7.873777e+01
1.990000e-06	6.523467e-07	-1.113763e-09	4.644631e+00	-7.625143e+01
2.000000e-06	6.977151e-07	-1.076514e-09	4.967649e+00	-7.369135e+01
2.010000e-06	7.429909e-07	-1.040444e-09	5.290007e+00	-7.105640e+01
2.020000e-06	7.881671e-07	-1.000288e-09	5.611657e+00	-6.834553e+01
2.030000e-06	8.332804e-07	-9.554599e-10	5.932858e+00	-6.555784e+01
2.040000e-06	8.784633e-07	-9.107835e-10	6.254555e+00	-6.269260e+01
2.050000e-06	9.235416e-07	-8.672018e-10	6.575507e+00	-5.974924e+01
2.060000e-06	9.685047e-07	-8.215728e-10	6.895638e+00	-5.672745e+01
2.070000e-06	1.013474e-06	-7.751128e-10	7.215812e+00	-5.362715e+01
2.080000e-06	1.058384e-06	-7.317458e-10	7.535565e+00	-5.044858e+01
2.090000e-06	1.103180e-06	-6.916387e-10	7.854508e+00	-4.719231e+01
2.100000e-06	1.147852e-06	-6.487240e-10	8.172572e+00	-4.385926e+01
2.110000e-06	1.192443e-06	-5.983905e-10	8.490052e+00	-4.045075e+01
2.120000e-06	1.236888e-06	-5.427192e-10	8.806493e+00	-3.696852e+01
2.130000e-06	1.281172e-06	-4.852740e-10	9.121792e+00	-3.341477e+01
2.140000e-06	1.325426e-06	-4.253463e-10	9.436877e+00	-2.979215e+01
2.150000e-06	1.369666e-06	-3.645102e-10	9.751856e+00	-2.610380e+01
2.160000e-06	1.413913e-06	-3.076623e-10	1.006689e+01	-2.235333e+01
2.170000e-06	1.458110e-06	-2.565654e-10	1.038157e+01	-1.854485e+01
2.180000e-06	1.502211e-06	-2.048850e-10	1.069557e+01	-1.468297e+01
2.190000e-06	1.546248e-06	-1.460845e-10	1.100911e+01	-1.077274e+01
2.200000e-06	1.590228e-06	-8.349592e-11	1.132223e+01	-6.819697e+00
2.210000e-06	1.634209e-06	-2.236759e-11	1.163537e+01	-2.829789e+00
2.220000e-06	1.678137e-06	4.125283e-11	1.194814e+01	1.190635e+00
2.230000e-06	1.721965e-06	1.087834e-10	1.226019e+01	5.234870e+00
2.240000e-06	1.765690e-06	1.758802e-10	1.257151e+01	9.295898e+00
2.250000e-06	1.809276e-06	2.363432e-10	1.288183e+01	1.336644e+01
2.260000e-06	1.852801e-06	2.911665e-10	1.319172e+01	1.743902e+01
2.270000e-06	1.896264e-06	3.488525e-10	1.350118e+01	2.150600e+01
2.280000e-06	1.939492e-06	4.105718e-10	1.380895e+01	2.555969e+01
2.290000e-06	1.982365e-06	4.702229e-10	1.411420e+01	2.959237e+01
2.300000e-06	2.025023e-06	5.262414e-10	1.441792e+01	3.359639e+01
2.310000e-06	2.067592e-06	5.863248e-10	1.472101e+01	3.756421e+01
2.320000e-06	2.109932e-06	6.497767e-10	1.502246e+01	4.148849e+01
2.330000e-06	2.151959e-06	7.095539e-10	1.532169e+01	4.536216e+01
2.340000e-06	2.193714e-06	7.632001e-10	1.561898e+01	4.917846e+01
2.350000e-06	2.235159e-06	8.151180e-10	1.591407e+01	5.293104e+01
2.360000e-06	2.276348e-06	8.712392e-10	1.620733e+01	5.661395e+01
2.370000e-06	2.317242e-06	9.279106e-10	1.649849e+01	6.022178e+01
2.380000e-06	2.357803e-06	9.780385e-10	1.678728e+01	6.374961e+01
2.390000e-06	2.398189e-06	1.023915e-09	1.707482e+01	6.719311e+01
2.400000e-06	2.438537e-06	1.069206e-09	1.736209e+01	7.054856e+01
2.410000e-06	2.478791e-06	1.112673e-09	1.764870e+01	7.381283e+01
2.420000e-06	2.518881e-06	1.152349e-09	1.793414e+01	7.698345e+01
2.430000e-06	2.558932e-06	1.192313e-09	1.821929e+01	8.005855e+01
2.440000e-06	2.598926e-06	1.238977e-09	1.850405e+01	8.303692e+01
2.450000e-06	2.638758e-06	1.288899e-09	1.878765e+01	8.591796e+01
2.460000e-06	2.678481e-06	1.333163e-09	1.907047e+01	8.870164e+01
2.470000e-06	2.718030e-06	1.369541e-09	1.935205e+01	9.138852e+01
2.480000e-06	2.757394e-06	1.402389e-09	1.963232e+01	9.397968e+01
2.490000e-06	2.796606e-06	1.432778e-09	1.991150e+01	9.647669e+01
2.500000e-06	2.835553e-06	1.460740e-09	2.018880e+01	9.888153e+01
2.510000e-06	2.874276e-06	1.489059e-09	2.046451e+01	1.011966e+02
2.520000e-06	2.912773e-06	1.523363e-09	2.073860e+01	1.034247e+02
2.530000e-06	2.951040e-06	1.561805e-09	2.101105e+01	1.055686e+02
2.540000e-06	2.989207e-06	1.596333e-09	2.128280e+01	1.076318e+02
2.550000e-06	3.027180e-06	1.624920e-09	2.155317e+01	1.096174e+02
2.560000e-06	3.064894e-06	1.651448e-09	2.182168e+01	1.115291e+02
2.570000e-06	3.102296e-06	1.677699e-09	2.208798e+01	1.133702e+02
2.580000e-06	3.139431e-06	1.698501e-09	2.235237e+01	1.151442e+02
2.590000e-06	3.176398e-06	1.716080e-09	2.261558e+01	1.168547e+02
2.600000e-06	3.213134e-06	1.738019e-09	2.287713e+01	1.185048e+02
2.610000e-06	3.249710e-06	1.765599e-09	2.313755e+01	1.200977e+02
2.620000e-06	3.286128e-06	1.793093e-09	2.339684e+01	1.216365e+02
2.630000e-06	3.322408e-06	1.817097e-09	2.365515e+01	1.231238e+02
2.640000e-06	3.358542e-06	1.840637e-09	2.391242e+01	1.245623e+02
2.650000e-06	3.394533e-06	1.862221e-09	2.416867e+01	1.259541e+02
2.660000e-06	3.430366e-06	1.877609e-09	2.442380e+01	1.273013e+02
2.670000e-06	3.465921e-06	1.891076e-09	2.467694e+01	1.286057e+02
2.680000e-06	3.501241e-06	1.909376e-09	2.492842e+01	1.298687e+02
2.690000e-06	3.536308e-06	1.931257e-09	2.517809e+01	1.310917e+02
2.700000e-06	3.570942e-06	1.951443e-09	2.542468e+01	1.322756e+02
2.710000e-06	3.605164e-06	1.967063e-09	2.566834e+01	1.334212e+02
2.720000e-06	3.639034e-06	1.983420e-09	2.590949e+01	1.345292e+02
2.730000e-06	3.672490e-06	2.001406e-09	2.614770e+01	1.356001e+02
2.740000e-06	3.705483e-06	2.015148e-09	2.638260e+01	1.366342e+02
2.750000e-06	3.738135e-06	2.025687e-09	2.661508e+01	1.376317e+02
2.760000e-06	3.770578e-06	2.038532e-09	2.684606e+01	1.385929e+02
2.770000e-06	3.802771e-06	2.055453e-09	2.707528e+01	1.395178e+02
2.780000e-06	3.834752e-06	2.071145e-09	2.730298e+01	1.404067e+02
2.790000e-06	3.866647e-06	2.082545e-09	2.753006e+01	1.412597e+02
2.800000e-06	3.898415e-06	2.094183e-09	2.775625e+01	1.420771e+02
2.810000e-06	3.929859e-06	2.107892e-09	2.798013e+01	1.428591e+02
2.820000e-06	3.960959e-06	2.120320e-09	2.820156e+01	1.436062e+02
2.830000e-06	3.991824e-06	2.128603e-09	2.842132e+01	1.443190e+02
2.840000e-06	4.022352e-06	2.135889e-09	2.863867e+01	1.449982e+02
2.850000e-06	4.052557e-06	2.146200e-09	2.885373e+01	1.456444e+02
2.860000e-06	4.082562e-06	2.157098e-09	2.906736e+01	1.462588e+02
2.870000e-06	4.112360e-06	2.167559e-09	2.927952e+01	1.468425e+02
2.880000e-06	4.141893e-06	2.176159e-09	2.948979e+01	1.473965e+02
2.890000e-06	4.171128e-06	2.185985e-09	2.969793e+01	1.479225e+02
2.900000e-06	4.200016e-06	2.194031e-09	2.990361e+01	1.484218e+02
