# Temperatura_=_-2.09
# Concentracion g/m^3_=_4090.0
# C_Vs_to_Am_M_A/Vsm_=_65563218390.804596
# pendiente_HvsI_1/m_=_3716.3
# ordenada_HvsI_A/m_=_1297.0
# frecuencia_Hz_=_135084.61732964998

Tiempo_(s)	Campo_(V.s)	Magnetizacion_(V.s)	Campo_(kA/m)	Magnetizacion_(A/m)
0.000000e+00	-5.392357e-06	-2.594409e-09	-3.838916e+01	-1.650284e+02
1.000000e-08	-5.392415e-06	-2.593403e-09	-3.838958e+01	-1.650480e+02
2.000000e-08	-5.392284e-06	-2.590148e-09	-3.838864e+01	-1.650722e+02
3.000000e-08	-5.391802e-06	-2.585911e-09	-3.838521e+01	-1.651018e+02
4.000000e-08	-5.390770e-06	-2.582734e-09	-3.837786e+01	-1.651374e+02
5.000000e-08	-5.389140e-06	-2.591745e-09	-3.836626e+01	-1.651798e+02
6.000000e-08	-5.386966e-06	-2.612673e-09	-3.835078e+01	-1.652295e+02
7.000000e-08	-5.384190e-06	-2.608382e-09	-3.833102e+01	-1.652870e+02
8.000000e-08	-5.380854e-06	-2.539024e-09	-3.830727e+01	-1.653525e+02
9.000000e-08	-5.377006e-06	-2.522885e-09	-3.827987e+01	-1.654263e+02
1.000000e-07	-5.372762e-06	-2.613343e-09	-3.824966e+01	-1.655084e+02
1.100000e-07	-5.368320e-06	-2.673196e-09	-3.821804e+01	-1.655989e+02
1.200000e-07	-5.363718e-06	-2.533334e-09	-3.818527e+01	-1.656974e+02
1.300000e-07	-5.358864e-06	-2.494949e-09	-3.815072e+01	-1.658036e+02
1.400000e-07	-5.353550e-06	-2.594665e-09	-3.811289e+01	-1.659171e+02
1.500000e-07	-5.347863e-06	-2.685226e-09	-3.807240e+01	-1.660373e+02
1.600000e-07	-5.341749e-06	-2.505358e-09	-3.802888e+01	-1.661635e+02
1.700000e-07	-5.335213e-06	-2.448047e-09	-3.798235e+01	-1.662947e+02
1.800000e-07	-5.328350e-06	-2.572493e-09	-3.793348e+01	-1.664302e+02
1.900000e-07	-5.321194e-06	-2.651335e-09	-3.788254e+01	-1.665689e+02
2.000000e-07	-5.313757e-06	-2.530884e-09	-3.782959e+01	-1.667099e+02
2.100000e-07	-5.306100e-06	-2.509451e-09	-3.777508e+01	-1.668519e+02
2.200000e-07	-5.298176e-06	-2.622969e-09	-3.771867e+01	-1.669938e+02
2.300000e-07	-5.289862e-06	-2.598658e-09	-3.765948e+01	-1.671346e+02
2.400000e-07	-5.281101e-06	-2.514943e-09	-3.759711e+01	-1.672730e+02
2.500000e-07	-5.271827e-06	-2.551110e-09	-3.753109e+01	-1.674080e+02
2.600000e-07	-5.261844e-06	-2.642981e-09	-3.746002e+01	-1.675383e+02
2.700000e-07	-5.251170e-06	-2.540673e-09	-3.738403e+01	-1.676631e+02
2.800000e-07	-5.240037e-06	-2.507601e-09	-3.730477e+01	-1.677812e+02
2.900000e-07	-5.228566e-06	-2.591882e-09	-3.722310e+01	-1.678918e+02
3.000000e-07	-5.216787e-06	-2.613960e-09	-3.713925e+01	-1.679939e+02
3.100000e-07	-5.204561e-06	-2.480741e-09	-3.705221e+01	-1.680868e+02
3.200000e-07	-5.191965e-06	-2.525557e-09	-3.696253e+01	-1.681698e+02
3.300000e-07	-5.178869e-06	-2.597111e-09	-3.686930e+01	-1.682422e+02
3.400000e-07	-5.165456e-06	-2.576795e-09	-3.677381e+01	-1.683037e+02
3.500000e-07	-5.151780e-06	-2.504823e-09	-3.667645e+01	-1.683538e+02
3.600000e-07	-5.137541e-06	-2.573894e-09	-3.657508e+01	-1.683921e+02
3.700000e-07	-5.122849e-06	-2.562553e-09	-3.647048e+01	-1.684185e+02
3.800000e-07	-5.107768e-06	-2.538720e-09	-3.636312e+01	-1.684328e+02
3.900000e-07	-5.092145e-06	-2.545921e-09	-3.625190e+01	-1.684350e+02
4.000000e-07	-5.076025e-06	-2.563388e-09	-3.613714e+01	-1.684250e+02
4.100000e-07	-5.059393e-06	-2.513466e-09	-3.601873e+01	-1.684031e+02
4.200000e-07	-5.042411e-06	-2.544844e-09	-3.589783e+01	-1.683694e+02
4.300000e-07	-5.025179e-06	-2.583553e-09	-3.577515e+01	-1.683241e+02
4.400000e-07	-5.007674e-06	-2.534878e-09	-3.565053e+01	-1.682675e+02
4.500000e-07	-4.989885e-06	-2.495215e-09	-3.552389e+01	-1.682000e+02
4.600000e-07	-4.971743e-06	-2.534650e-09	-3.539473e+01	-1.681220e+02
4.700000e-07	-4.953223e-06	-2.548637e-09	-3.526289e+01	-1.680338e+02
4.800000e-07	-4.934318e-06	-2.512940e-09	-3.512830e+01	-1.679360e+02
4.900000e-07	-4.915024e-06	-2.521232e-09	-3.499094e+01	-1.678290e+02
5.000000e-07	-4.895350e-06	-2.536786e-09	-3.485088e+01	-1.677134e+02
5.100000e-07	-4.875482e-06	-2.545144e-09	-3.470944e+01	-1.675896e+02
5.200000e-07	-4.855458e-06	-2.525101e-09	-3.456688e+01	-1.674581e+02
5.300000e-07	-4.835222e-06	-2.507655e-09	-3.442282e+01	-1.673197e+02
5.400000e-07	-4.814643e-06	-2.483586e-09	-3.427631e+01	-1.671747e+02
5.500000e-07	-4.793672e-06	-2.506658e-09	-3.412702e+01	-1.670238e+02
5.600000e-07	-4.772297e-06	-2.507837e-09	-3.397484e+01	-1.668676e+02
5.700000e-07	-4.750636e-06	-2.500393e-09	-3.382064e+01	-1.667066e+02
5.800000e-07	-4.728776e-06	-2.490075e-09	-3.366501e+01	-1.665414e+02
5.900000e-07	-4.706561e-06	-2.510564e-09	-3.350685e+01	-1.663725e+02
6.000000e-07	-4.683947e-06	-2.501910e-09	-3.334587e+01	-1.662006e+02
6.100000e-07	-4.660906e-06	-2.486585e-09	-3.318183e+01	-1.660261e+02
6.200000e-07	-4.637546e-06	-2.455271e-09	-3.301553e+01	-1.658496e+02
6.300000e-07	-4.613946e-06	-2.459124e-09	-3.284752e+01	-1.656717e+02
6.400000e-07	-4.590093e-06	-2.469544e-09	-3.267770e+01	-1.654928e+02
6.500000e-07	-4.566114e-06	-2.472564e-09	-3.250699e+01	-1.653134e+02
6.600000e-07	-4.541924e-06	-2.448370e-09	-3.233478e+01	-1.651340e+02
6.700000e-07	-4.517420e-06	-2.453087e-09	-3.216033e+01	-1.649549e+02
6.800000e-07	-4.492462e-06	-2.462515e-09	-3.198265e+01	-1.647765e+02
6.900000e-07	-4.466965e-06	-2.459727e-09	-3.180113e+01	-1.645992e+02
7.000000e-07	-4.441012e-06	-2.434434e-09	-3.161637e+01	-1.644232e+02
7.100000e-07	-4.414558e-06	-2.423003e-09	-3.142803e+01	-1.642487e+02
7.200000e-07	-4.387574e-06	-2.426052e-09	-3.123593e+01	-1.640760e+02
7.300000e-07	-4.360200e-06	-2.434519e-09	-3.104105e+01	-1.639049e+02
7.400000e-07	-4.332553e-06	-2.423688e-09	-3.084422e+01	-1.637356e+02
7.500000e-07	-4.304699e-06	-2.407695e-09	-3.064593e+01	-1.635681e+02
7.600000e-07	-4.276679e-06	-2.411773e-09	-3.044645e+01	-1.634021e+02
7.700000e-07	-4.248487e-06	-2.421721e-09	-3.024574e+01	-1.632375e+02
7.800000e-07	-4.220128e-06	-2.416887e-09	-3.004385e+01	-1.630739e+02
7.900000e-07	-4.191475e-06	-2.401916e-09	-2.983987e+01	-1.629111e+02
8.000000e-07	-4.162439e-06	-2.401113e-09	-2.963315e+01	-1.627486e+02
8.100000e-07	-4.133020e-06	-2.402938e-09	-2.942372e+01	-1.625859e+02
8.200000e-07	-4.103319e-06	-2.402603e-09	-2.921227e+01	-1.624225e+02
8.300000e-07	-4.073342e-06	-2.385040e-09	-2.899886e+01	-1.622578e+02
8.400000e-07	-4.043166e-06	-2.378680e-09	-2.878402e+01	-1.620912e+02
8.500000e-07	-4.012769e-06	-2.382313e-09	-2.856763e+01	-1.619220e+02
8.600000e-07	-3.982015e-06	-2.390951e-09	-2.834868e+01	-1.617496e+02
8.700000e-07	-3.950918e-06	-2.381310e-09	-2.812729e+01	-1.615732e+02
8.800000e-07	-3.919616e-06	-2.377175e-09	-2.790445e+01	-1.613923e+02
8.900000e-07	-3.888110e-06	-2.375061e-09	-2.768016e+01	-1.612062e+02
9.000000e-07	-3.856362e-06	-2.378148e-09	-2.745413e+01	-1.610143e+02
9.100000e-07	-3.824547e-06	-2.365151e-09	-2.722764e+01	-1.608160e+02
9.200000e-07	-3.792562e-06	-2.355610e-09	-2.699993e+01	-1.606108e+02
9.300000e-07	-3.760278e-06	-2.354067e-09	-2.677010e+01	-1.603984e+02
9.400000e-07	-3.727780e-06	-2.366216e-09	-2.653874e+01	-1.601783e+02
9.500000e-07	-3.694960e-06	-2.366905e-09	-2.630508e+01	-1.599504e+02
9.600000e-07	-3.661677e-06	-2.363032e-09	-2.606814e+01	-1.597143e+02
9.700000e-07	-3.628010e-06	-2.357996e-09	-2.582846e+01	-1.594702e+02
9.800000e-07	-3.594093e-06	-2.359422e-09	-2.558700e+01	-1.592180e+02
9.900000e-07	-3.559794e-06	-2.353063e-09	-2.534282e+01	-1.589579e+02
1.000000e-06	-3.525065e-06	-2.342146e-09	-2.509558e+01	-1.586901e+02
1.010000e-06	-3.489996e-06	-2.334910e-09	-2.484591e+01	-1.584150e+02
1.020000e-06	-3.454488e-06	-2.339536e-09	-2.459312e+01	-1.581329e+02
1.030000e-06	-3.418765e-06	-2.342329e-09	-2.433880e+01	-1.578445e+02
1.040000e-06	-3.382956e-06	-2.336567e-09	-2.408387e+01	-1.575503e+02
1.050000e-06	-3.347046e-06	-2.327397e-09	-2.382823e+01	-1.572509e+02
1.060000e-06	-3.311010e-06	-2.322926e-09	-2.357168e+01	-1.569470e+02
1.070000e-06	-3.274668e-06	-2.320674e-09	-2.331295e+01	-1.566393e+02
1.080000e-06	-3.238086e-06	-2.310537e-09	-2.305252e+01	-1.563285e+02
1.090000e-06	-3.201392e-06	-2.300681e-09	-2.279129e+01	-1.560153e+02
1.100000e-06	-3.164421e-06	-2.296576e-09	-2.252809e+01	-1.557004e+02
1.110000e-06	-3.127152e-06	-2.299471e-09	-2.226276e+01	-1.553844e+02
1.120000e-06	-3.089713e-06	-2.296404e-09	-2.199622e+01	-1.550679e+02
1.130000e-06	-3.052073e-06	-2.290363e-09	-2.172826e+01	-1.547514e+02
1.140000e-06	-3.014134e-06	-2.283642e-09	-2.145817e+01	-1.544352e+02
1.150000e-06	-2.976029e-06	-2.283277e-09	-2.118689e+01	-1.541196e+02
1.160000e-06	-2.937871e-06	-2.275541e-09	-2.091523e+01	-1.538049e+02
1.170000e-06	-2.899498e-06	-2.264359e-09	-2.064205e+01	-1.534910e+02
1.180000e-06	-2.860863e-06	-2.253254e-09	-2.036700e+01	-1.531779e+02
1.190000e-06	-2.821978e-06	-2.251645e-09	-2.009017e+01	-1.528653e+02
1.200000e-06	-2.782772e-06	-2.249130e-09	-1.981105e+01	-1.525529e+02
1.210000e-06	-2.743405e-06	-2.242940e-09	-1.953079e+01	-1.522402e+02
1.220000e-06	-2.703952e-06	-2.234072e-09	-1.924992e+01	-1.519265e+02
1.230000e-06	-2.664311e-06	-2.231554e-09	-1.896771e+01	-1.516112e+02
1.240000e-06	-2.624524e-06	-2.226479e-09	-1.868446e+01	-1.512934e+02
1.250000e-06	-2.584657e-06	-2.218597e-09	-1.840064e+01	-1.509722e+02
1.260000e-06	-2.544718e-06	-2.205940e-09	-1.811631e+01	-1.506465e+02
1.270000e-06	-2.504651e-06	-2.199713e-09	-1.783106e+01	-1.503153e+02
1.280000e-06	-2.464452e-06	-2.197974e-09	-1.754488e+01	-1.499774e+02
1.290000e-06	-2.424163e-06	-2.192231e-09	-1.725806e+01	-1.496318e+02
1.300000e-06	-2.383746e-06	-2.181573e-09	-1.697032e+01	-1.492773e+02
1.310000e-06	-2.343116e-06	-2.175289e-09	-1.668107e+01	-1.489127e+02
1.320000e-06	-2.302258e-06	-2.171447e-09	-1.639019e+01	-1.485370e+02
1.330000e-06	-2.261140e-06	-2.163091e-09	-1.609746e+01	-1.481492e+02
1.340000e-06	-2.219758e-06	-2.153304e-09	-1.580286e+01	-1.477483e+02
1.350000e-06	-2.178188e-06	-2.146496e-09	-1.550691e+01	-1.473335e+02
1.360000e-06	-2.136333e-06	-2.143472e-09	-1.520894e+01	-1.469040e+02
1.370000e-06	-2.094078e-06	-2.137817e-09	-1.490812e+01	-1.464592e+02
1.380000e-06	-2.051505e-06	-2.126221e-09	-1.460504e+01	-1.459985e+02
1.390000e-06	-2.008727e-06	-2.112896e-09	-1.430049e+01	-1.455216e+02
1.400000e-06	-1.965794e-06	-2.106372e-09	-1.399484e+01	-1.450282e+02
1.410000e-06	-1.922687e-06	-2.100815e-09	-1.368795e+01	-1.445182e+02
1.420000e-06	-1.879394e-06	-2.091282e-09	-1.337975e+01	-1.439916e+02
1.430000e-06	-1.835979e-06	-2.079193e-09	-1.307066e+01	-1.434485e+02
1.440000e-06	-1.792446e-06	-2.072834e-09	-1.276075e+01	-1.428890e+02
1.450000e-06	-1.748803e-06	-2.065486e-09	-1.245004e+01	-1.423136e+02
1.460000e-06	-1.705091e-06	-2.052623e-09	-1.213885e+01	-1.417225e+02
1.470000e-06	-1.661333e-06	-2.034187e-09	-1.182733e+01	-1.411163e+02
1.480000e-06	-1.617494e-06	-2.020294e-09	-1.151523e+01	-1.404953e+02
1.490000e-06	-1.573539e-06	-2.012896e-09	-1.120231e+01	-1.398600e+02
1.500000e-06	-1.529498e-06	-2.006726e-09	-1.088877e+01	-1.392111e+02
1.510000e-06	-1.485406e-06	-1.996281e-09	-1.057487e+01	-1.385487e+02
1.520000e-06	-1.441268e-06	-1.987213e-09	-1.026065e+01	-1.378735e+02
1.530000e-06	-1.397075e-06	-1.980404e-09	-9.946031e+00	-1.371856e+02
1.540000e-06	-1.352835e-06	-1.973335e-09	-9.631073e+00	-1.364854e+02
1.550000e-06	-1.308537e-06	-1.960404e-09	-9.315708e+00	-1.357729e+02
1.560000e-06	-1.264185e-06	-1.946064e-09	-8.999959e+00	-1.350482e+02
1.570000e-06	-1.219724e-06	-1.936623e-09	-8.683432e+00	-1.343111e+02
1.580000e-06	-1.175170e-06	-1.928259e-09	-8.366249e+00	-1.335612e+02
1.590000e-06	-1.130557e-06	-1.916044e-09	-8.048641e+00	-1.327982e+02
1.600000e-06	-1.085895e-06	-1.903579e-09	-7.730685e+00	-1.320215e+02
1.610000e-06	-1.041066e-06	-1.893324e-09	-7.411537e+00	-1.312302e+02
1.620000e-06	-9.960803e-07	-1.884605e-09	-7.091275e+00	-1.304234e+02
1.630000e-06	-9.511206e-07	-1.874398e-09	-6.771199e+00	-1.296001e+02
1.640000e-06	-9.061127e-07	-1.862607e-09	-6.450780e+00	-1.287589e+02
1.650000e-06	-8.609313e-07	-1.852189e-09	-6.129125e+00	-1.278984e+02
1.660000e-06	-8.156170e-07	-1.840560e-09	-5.806524e+00	-1.270173e+02
1.670000e-06	-7.703047e-07	-1.824639e-09	-5.483938e+00	-1.261137e+02
1.680000e-06	-7.250043e-07	-1.806234e-09	-5.161436e+00	-1.251860e+02
1.690000e-06	-6.796914e-07	-1.789789e-09	-4.838846e+00	-1.242324e+02
1.700000e-06	-6.343724e-07	-1.777019e-09	-4.516211e+00	-1.232510e+02
1.710000e-06	-5.888932e-07	-1.765133e-09	-4.192437e+00	-1.222399e+02
1.720000e-06	-5.433474e-07	-1.751222e-09	-3.868188e+00	-1.211970e+02
1.730000e-06	-4.978026e-07	-1.738973e-09	-3.543947e+00	-1.201204e+02
1.740000e-06	-4.521792e-07	-1.725915e-09	-3.219145e+00	-1.190082e+02
1.750000e-06	-4.065676e-07	-1.706560e-09	-2.894428e+00	-1.178584e+02
1.760000e-06	-3.608963e-07	-1.682947e-09	-2.569286e+00	-1.166690e+02
1.770000e-06	-3.151307e-07	-1.661788e-09	-2.243472e+00	-1.154380e+02
1.780000e-06	-2.693291e-07	-1.645438e-09	-1.917402e+00	-1.141638e+02
1.790000e-06	-2.234386e-07	-1.630172e-09	-1.590700e+00	-1.128444e+02
1.800000e-06	-1.775190e-07	-1.610236e-09	-1.263790e+00	-1.114780e+02
1.810000e-06	-1.317050e-07	-1.590344e-09	-9.376313e-01	-1.100629e+02
1.820000e-06	-8.593601e-08	-1.570192e-09	-6.117940e-01	-1.085974e+02
1.830000e-06	-4.015463e-08	-1.549240e-09	-2.858681e-01	-1.070799e+02
1.840000e-06	5.626282e-09	-1.524858e-09	4.005452e-02	-1.055087e+02
1.850000e-06	5.134245e-08	-1.496349e-09	3.655162e-01	-1.038822e+02
1.860000e-06	9.700193e-08	-1.468343e-09	6.905742e-01	-1.021989e+02
1.870000e-06	1.426792e-07	-1.442981e-09	1.015759e+00	-1.004571e+02
1.880000e-06	1.883495e-07	-1.416305e-09	1.340894e+00	-9.865527e+01
1.890000e-06	2.340791e-07	-1.388125e-09	1.666452e+00	-9.679181e+01
1.900000e-06	2.797921e-07	-1.360083e-09	1.991890e+00	-9.486509e+01
1.910000e-06	3.254387e-07	-1.329793e-09	2.316857e+00	-9.287349e+01
1.920000e-06	3.711326e-07	-1.296018e-09	2.642160e+00	-9.081533e+01
1.930000e-06	4.168800e-07	-1.261979e-09	2.967844e+00	-8.868894e+01
1.940000e-06	4.625331e-07	-1.229106e-09	3.292857e+00	-8.649261e+01
1.950000e-06	5.081220e-07	-1.197902e-09	3.617412e+00	-8.422462e+01
1.960000e-06	5.537049e-07	-1.164418e-09	3.941925e+00	-8.188326e+01
1.970000e-06	5.991494e-07	-1.125680e-09	4.265453e+00	-7.946682e+01
1.980000e-06	6.445660e-07	-1.085586e-09	4.588782e+00	-7.697363e+01
1.990000e-06	6.899623e-07	-1.047742e-09	4.911966e+00	-7.440209e+01
2.000000e-06	7.352722e-07	-1.010464e-09	5.234535e+00	-7.175067e+01
2.010000e-06	7.805011e-07	-9.706345e-10	5.556528e+00	-6.901796e+01
2.020000e-06	8.257405e-07	-9.289763e-10	5.878595e+00	-6.620270e+01
2.030000e-06	8.710003e-07	-8.858050e-10	6.200808e+00	-6.330383e+01
2.040000e-06	9.161250e-07	-8.402162e-10	6.522059e+00	-6.032050e+01
2.050000e-06	9.611711e-07	-7.920259e-10	6.842750e+00	-5.725214e+01
2.060000e-06	1.006136e-06	-7.452715e-10	7.162864e+00	-5.409847e+01
2.070000e-06	1.050987e-06	-7.015208e-10	7.482166e+00	-5.085958e+01
2.080000e-06	1.095728e-06	-6.588123e-10	7.800684e+00	-4.753593e+01
2.090000e-06	1.140346e-06	-6.132607e-10	8.118326e+00	-4.412843e+01
2.100000e-06	1.184935e-06	-5.642039e-10	8.435767e+00	-4.063841e+01
2.110000e-06	1.229465e-06	-5.106500e-10	8.752784e+00	-3.706773e+01
2.120000e-06	1.273874e-06	-4.519939e-10	9.068942e+00	-3.341874e+01
2.130000e-06	1.318144e-06	-3.893815e-10	9.384105e+00	-2.969434e+01
2.140000e-06	1.362261e-06	-3.275215e-10	9.698180e+00	-2.589797e+01
2.150000e-06	1.406304e-06	-2.699570e-10	1.001173e+01	-2.203365e+01
2.160000e-06	1.450374e-06	-2.161242e-10	1.032547e+01	-1.810592e+01
2.170000e-06	1.494447e-06	-1.605613e-10	1.063924e+01	-1.411992e+01
2.180000e-06	1.538484e-06	-9.938021e-11	1.095275e+01	-1.008127e+01
2.190000e-06	1.582463e-06	-3.519523e-11	1.126584e+01	-5.996140e+00
2.200000e-06	1.626383e-06	2.971409e-11	1.157851e+01	-1.871164e+00
2.210000e-06	1.670270e-06	9.674973e-11	1.189096e+01	2.286586e+00
2.220000e-06	1.714121e-06	1.661404e-10	1.220314e+01	6.469648e+00
2.230000e-06	1.757916e-06	2.329411e-10	1.251492e+01	1.067022e+01
2.240000e-06	1.801575e-06	2.945454e-10	1.282574e+01	1.488024e+01
2.250000e-06	1.845169e-06	3.550224e-10	1.313609e+01	1.909141e+01
2.260000e-06	1.888702e-06	4.167575e-10	1.344601e+01	2.329531e+01
2.270000e-06	1.932015e-06	4.772537e-10	1.375436e+01	2.748347e+01
2.280000e-06	1.975146e-06	5.357749e-10	1.406142e+01	3.164741e+01
2.290000e-06	2.018049e-06	5.966076e-10	1.436685e+01	3.577875e+01
2.300000e-06	2.060674e-06	6.612485e-10	1.467031e+01	3.986929e+01
2.310000e-06	2.103070e-06	7.242621e-10	1.497213e+01	4.391106e+01
2.320000e-06	2.145174e-06	7.818245e-10	1.527188e+01	4.789642e+01
2.330000e-06	2.186961e-06	8.354147e-10	1.556937e+01	5.181812e+01
2.340000e-06	2.228492e-06	8.896599e-10	1.586504e+01	5.566938e+01
2.350000e-06	2.269744e-06	9.462361e-10	1.615871e+01	5.944393e+01
2.360000e-06	2.310683e-06	9.995479e-10	1.645017e+01	6.313606e+01
2.370000e-06	2.351353e-06	1.047590e-09	1.673971e+01	6.674070e+01
2.380000e-06	2.391802e-06	1.094836e-09	1.702767e+01	7.025342e+01
2.390000e-06	2.432068e-06	1.143387e-09	1.731433e+01	7.367048e+01
2.400000e-06	2.472230e-06	1.189419e-09	1.760025e+01	7.698884e+01
2.410000e-06	2.512330e-06	1.231278e-09	1.788573e+01	8.020616e+01
2.420000e-06	2.552287e-06	1.274069e-09	1.817019e+01	8.332084e+01
2.430000e-06	2.592144e-06	1.322265e-09	1.845394e+01	8.633193e+01
2.440000e-06	2.631977e-06	1.371078e-09	1.873752e+01	8.923922e+01
2.450000e-06	2.671684e-06	1.412224e-09	1.902020e+01	9.204310e+01
2.460000e-06	2.711206e-06	1.447780e-09	1.930156e+01	9.474461e+01
2.470000e-06	2.750507e-06	1.480706e-09	1.958135e+01	9.734534e+01
2.480000e-06	2.789599e-06	1.512251e-09	1.985966e+01	9.984740e+01
2.490000e-06	2.828578e-06	1.543510e-09	2.013715e+01	1.022534e+02
2.500000e-06	2.867351e-06	1.577440e-09	2.041319e+01	1.045663e+02
2.510000e-06	2.905830e-06	1.615795e-09	2.068713e+01	1.067894e+02
2.520000e-06	2.944053e-06	1.654327e-09	2.095924e+01	1.089263e+02
2.530000e-06	2.982114e-06	1.685819e-09	2.123021e+01	1.109808e+02
2.540000e-06	3.019983e-06	1.711617e-09	2.149981e+01	1.129569e+02
2.550000e-06	3.057672e-06	1.739101e-09	2.176812e+01	1.148585e+02
2.560000e-06	3.095227e-06	1.765225e-09	2.203548e+01	1.166897e+02
2.570000e-06	3.132610e-06	1.787176e-09	2.230162e+01	1.184545e+02
2.580000e-06	3.169745e-06	1.809216e-09	2.256598e+01	1.201566e+02
2.590000e-06	3.206516e-06	1.835406e-09	2.282777e+01	1.217998e+02
2.600000e-06	3.242979e-06	1.864168e-09	2.308735e+01	1.233877e+02
2.610000e-06	3.279240e-06	1.889181e-09	2.334550e+01	1.249234e+02
2.620000e-06	3.315414e-06	1.910823e-09	2.360303e+01	1.264101e+02
2.630000e-06	3.351495e-06	1.934027e-09	2.385989e+01	1.278504e+02
2.640000e-06	3.387381e-06	1.957014e-09	2.411537e+01	1.292467e+02
2.650000e-06	3.423134e-06	1.974074e-09	2.436991e+01	1.306012e+02
2.660000e-06	3.458859e-06	1.989460e-09	2.462424e+01	1.319157e+02
2.670000e-06	3.494439e-06	2.009646e-09	2.487754e+01	1.331917e+02
2.680000e-06	3.529701e-06	2.032764e-09	2.512858e+01	1.344304e+02
2.690000e-06	3.564544e-06	2.050619e-09	2.537663e+01	1.356328e+02
2.700000e-06	3.598905e-06	2.061725e-09	2.562125e+01	1.367996e+02
2.710000e-06	3.632751e-06	2.075727e-09	2.586221e+01	1.379312e+02
2.720000e-06	3.666132e-06	2.093645e-09	2.609986e+01	1.390281e+02
2.730000e-06	3.699159e-06	2.109452e-09	2.633498e+01	1.400904e+02
2.740000e-06	3.731847e-06	2.123411e-09	2.656769e+01	1.411180e+02
2.750000e-06	3.764231e-06	2.139902e-09	2.679824e+01	1.421111e+02
2.760000e-06	3.796362e-06	2.158929e-09	2.702699e+01	1.430694e+02
2.770000e-06	3.828325e-06	2.175823e-09	2.725453e+01	1.439930e+02
2.780000e-06	3.860184e-06	2.188021e-09	2.748135e+01	1.448818e+02
2.790000e-06	3.891906e-06	2.197320e-09	2.770718e+01	1.457357e+02
2.800000e-06	3.923450e-06	2.207040e-09	2.793175e+01	1.465549e+02
2.810000e-06	3.954772e-06	2.218018e-09	2.815474e+01	1.473396e+02
2.820000e-06	3.985666e-06	2.226245e-09	2.837467e+01	1.480900e+02
2.830000e-06	4.016237e-06	2.231866e-09	2.859231e+01	1.488067e+02
2.840000e-06	4.046598e-06	2.238705e-09	2.880846e+01	1.494902e+02
2.850000e-06	4.076615e-06	2.248310e-09	2.902216e+01	1.501412e+02
2.860000e-06	4.106392e-06	2.258899e-09	2.923415e+01	1.507607e+02
2.870000e-06	4.135963e-06	2.267059e-09	2.944467e+01	1.513498e+02
2.880000e-06	4.165260e-06	2.272593e-09	2.965324e+01	1.519096e+02
2.890000e-06	4.194239e-06	2.275821e-09	2.985954e+01	1.524414e+02
2.900000e-06	4.222901e-06	2.278893e-09	3.006359e+01	1.529466e+02
