# Temperatura_=_13.2
# Concentracion g/m^3_=_4090.0
# C_Vs_to_Am_M_A/Vsm_=_65563218390.804596
# pendiente_HvsI_1/m_=_3716.3
# ordenada_HvsI_A/m_=_1297.0
# frecuencia_Hz_=_135080.54947405498

Tiempo_(s)	Campo_(V.s)	Magnetizacion_(V.s)	Campo_(kA/m)	Magnetizacion_(A/m)
0.000000e+00	-5.406335e-06	-2.671421e-09	-3.839197e+01	-1.710654e+02
1.000000e-08	-5.406498e-06	-2.670248e-09	-3.839313e+01	-1.710306e+02
2.000000e-08	-5.406477e-06	-2.667931e-09	-3.839298e+01	-1.709931e+02
3.000000e-08	-5.406259e-06	-2.666569e-09	-3.839143e+01	-1.709542e+02
4.000000e-08	-5.405787e-06	-2.662636e-09	-3.838808e+01	-1.709151e+02
5.000000e-08	-5.404852e-06	-2.658072e-09	-3.838144e+01	-1.708773e+02
6.000000e-08	-5.403300e-06	-2.656296e-09	-3.837042e+01	-1.708421e+02
7.000000e-08	-5.401210e-06	-2.658312e-09	-3.835558e+01	-1.708109e+02
8.000000e-08	-5.398505e-06	-2.667719e-09	-3.833637e+01	-1.707852e+02
9.000000e-08	-5.395038e-06	-2.703267e-09	-3.831175e+01	-1.707662e+02
1.000000e-07	-5.391009e-06	-2.702097e-09	-3.828314e+01	-1.707553e+02
1.100000e-07	-5.386753e-06	-2.641337e-09	-3.825292e+01	-1.707536e+02
1.200000e-07	-5.382367e-06	-2.626604e-09	-3.822177e+01	-1.707620e+02
1.300000e-07	-5.377820e-06	-2.681090e-09	-3.818948e+01	-1.707815e+02
1.400000e-07	-5.372891e-06	-2.668207e-09	-3.815448e+01	-1.708127e+02
1.500000e-07	-5.367488e-06	-2.616098e-09	-3.811611e+01	-1.708560e+02
1.600000e-07	-5.361776e-06	-2.596315e-09	-3.807555e+01	-1.709118e+02
1.700000e-07	-5.355775e-06	-2.714554e-09	-3.803294e+01	-1.709799e+02
1.800000e-07	-5.349304e-06	-2.683536e-09	-3.798698e+01	-1.710603e+02
1.900000e-07	-5.342352e-06	-2.623056e-09	-3.793761e+01	-1.711525e+02
2.000000e-07	-5.335115e-06	-2.614160e-09	-3.788622e+01	-1.712557e+02
2.100000e-07	-5.327739e-06	-2.673952e-09	-3.783384e+01	-1.713692e+02
2.200000e-07	-5.320045e-06	-2.620906e-09	-3.777920e+01	-1.714916e+02
2.300000e-07	-5.311961e-06	-2.578259e-09	-3.772179e+01	-1.716219e+02
2.400000e-07	-5.303558e-06	-2.637821e-09	-3.766213e+01	-1.717584e+02
2.500000e-07	-5.294726e-06	-2.665603e-09	-3.759941e+01	-1.718995e+02
2.600000e-07	-5.285195e-06	-2.627276e-09	-3.753172e+01	-1.720435e+02
2.700000e-07	-5.275032e-06	-2.627122e-09	-3.745955e+01	-1.721886e+02
2.800000e-07	-5.264452e-06	-2.708160e-09	-3.738442e+01	-1.723327e+02
2.900000e-07	-5.253345e-06	-2.669068e-09	-3.730554e+01	-1.724739e+02
3.000000e-07	-5.241758e-06	-2.602644e-09	-3.722326e+01	-1.726103e+02
3.100000e-07	-5.229819e-06	-2.635386e-09	-3.713848e+01	-1.727400e+02
3.200000e-07	-5.217496e-06	-2.721119e-09	-3.705097e+01	-1.728610e+02
3.300000e-07	-5.204762e-06	-2.643916e-09	-3.696055e+01	-1.729716e+02
3.400000e-07	-5.191675e-06	-2.611385e-09	-3.686761e+01	-1.730702e+02
3.500000e-07	-5.178179e-06	-2.655250e-09	-3.677177e+01	-1.731551e+02
3.600000e-07	-5.164301e-06	-2.686489e-09	-3.667322e+01	-1.732251e+02
3.700000e-07	-5.150130e-06	-2.623037e-09	-3.657259e+01	-1.732790e+02
3.800000e-07	-5.135693e-06	-2.645372e-09	-3.647007e+01	-1.733157e+02
3.900000e-07	-5.120606e-06	-2.647691e-09	-3.636293e+01	-1.733346e+02
4.000000e-07	-5.104715e-06	-2.631095e-09	-3.625008e+01	-1.733351e+02
4.100000e-07	-5.088353e-06	-2.637724e-09	-3.613389e+01	-1.733167e+02
4.200000e-07	-5.071627e-06	-2.666881e-09	-3.601512e+01	-1.732795e+02
4.300000e-07	-5.054522e-06	-2.610338e-09	-3.589364e+01	-1.732235e+02
4.400000e-07	-5.037152e-06	-2.603861e-09	-3.577030e+01	-1.731489e+02
4.500000e-07	-5.019554e-06	-2.646967e-09	-3.564533e+01	-1.730563e+02
4.600000e-07	-5.001610e-06	-2.634438e-09	-3.551790e+01	-1.729463e+02
4.700000e-07	-4.983301e-06	-2.580839e-09	-3.538789e+01	-1.728196e+02
4.800000e-07	-4.964628e-06	-2.598073e-09	-3.525528e+01	-1.726773e+02
4.900000e-07	-4.945473e-06	-2.625228e-09	-3.511926e+01	-1.725203e+02
5.000000e-07	-4.925884e-06	-2.611368e-09	-3.498015e+01	-1.723498e+02
5.100000e-07	-4.906105e-06	-2.602547e-09	-3.483969e+01	-1.721669e+02
5.200000e-07	-4.886155e-06	-2.598016e-09	-3.469802e+01	-1.719729e+02
5.300000e-07	-4.865929e-06	-2.600305e-09	-3.455439e+01	-1.717691e+02
5.400000e-07	-4.845476e-06	-2.610973e-09	-3.440915e+01	-1.715567e+02
5.500000e-07	-4.824739e-06	-2.603018e-09	-3.426189e+01	-1.713369e+02
5.600000e-07	-4.803698e-06	-2.561810e-09	-3.411247e+01	-1.711108e+02
5.700000e-07	-4.782316e-06	-2.571992e-09	-3.396063e+01	-1.708797e+02
5.800000e-07	-4.760490e-06	-2.593179e-09	-3.380564e+01	-1.706444e+02
5.900000e-07	-4.738360e-06	-2.586155e-09	-3.364849e+01	-1.704060e+02
6.000000e-07	-4.716017e-06	-2.565609e-09	-3.348983e+01	-1.701653e+02
6.100000e-07	-4.693324e-06	-2.578393e-09	-3.332867e+01	-1.699230e+02
6.200000e-07	-4.670302e-06	-2.577869e-09	-3.316519e+01	-1.696797e+02
6.300000e-07	-4.646982e-06	-2.576820e-09	-3.299959e+01	-1.694360e+02
6.400000e-07	-4.623310e-06	-2.552509e-09	-3.283148e+01	-1.691922e+02
6.500000e-07	-4.599369e-06	-2.534600e-09	-3.266147e+01	-1.689487e+02
6.600000e-07	-4.575237e-06	-2.535588e-09	-3.249010e+01	-1.687056e+02
6.700000e-07	-4.550934e-06	-2.558315e-09	-3.231752e+01	-1.684630e+02
6.800000e-07	-4.526285e-06	-2.546378e-09	-3.214248e+01	-1.682208e+02
6.900000e-07	-4.501047e-06	-2.536496e-09	-3.196326e+01	-1.679792e+02
7.000000e-07	-4.475346e-06	-2.538483e-09	-3.178075e+01	-1.677378e+02
7.100000e-07	-4.449254e-06	-2.545352e-09	-3.159546e+01	-1.674965e+02
7.200000e-07	-4.422612e-06	-2.527670e-09	-3.140627e+01	-1.672551e+02
7.300000e-07	-4.395552e-06	-2.512980e-09	-3.121410e+01	-1.670132e+02
7.400000e-07	-4.368118e-06	-2.504614e-09	-3.101929e+01	-1.667706e+02
7.500000e-07	-4.340323e-06	-2.512917e-09	-3.082191e+01	-1.665271e+02
7.600000e-07	-4.312384e-06	-2.513891e-09	-3.062351e+01	-1.662822e+02
7.700000e-07	-4.284312e-06	-2.501900e-09	-3.042416e+01	-1.660356e+02
7.800000e-07	-4.256035e-06	-2.493282e-09	-3.022335e+01	-1.657872e+02
7.900000e-07	-4.227508e-06	-2.502082e-09	-3.002077e+01	-1.655366e+02
8.000000e-07	-4.198561e-06	-2.506971e-09	-2.981521e+01	-1.652835e+02
8.100000e-07	-4.169292e-06	-2.495539e-09	-2.960737e+01	-1.650277e+02
8.200000e-07	-4.139765e-06	-2.484250e-09	-2.939769e+01	-1.647690e+02
8.300000e-07	-4.109896e-06	-2.483137e-09	-2.918558e+01	-1.645073e+02
8.400000e-07	-4.079816e-06	-2.488918e-09	-2.897197e+01	-1.642423e+02
8.500000e-07	-4.049521e-06	-2.482553e-09	-2.875684e+01	-1.639739e+02
8.600000e-07	-4.018907e-06	-2.470130e-09	-2.853944e+01	-1.637019e+02
8.700000e-07	-3.988009e-06	-2.462261e-09	-2.832003e+01	-1.634264e+02
8.800000e-07	-3.956924e-06	-2.469368e-09	-2.809928e+01	-1.631471e+02
8.900000e-07	-3.925554e-06	-2.464772e-09	-2.787651e+01	-1.628639e+02
9.000000e-07	-3.893856e-06	-2.453698e-09	-2.765141e+01	-1.625768e+02
9.100000e-07	-3.861958e-06	-2.443960e-09	-2.742490e+01	-1.622857e+02
9.200000e-07	-3.829903e-06	-2.450300e-09	-2.719727e+01	-1.619903e+02
9.300000e-07	-3.797685e-06	-2.448249e-09	-2.696848e+01	-1.616907e+02
9.400000e-07	-3.765276e-06	-2.437179e-09	-2.673833e+01	-1.613866e+02
9.500000e-07	-3.732622e-06	-2.422844e-09	-2.650645e+01	-1.610780e+02
9.600000e-07	-3.699658e-06	-2.423575e-09	-2.627236e+01	-1.607647e+02
9.700000e-07	-3.666325e-06	-2.424147e-09	-2.603565e+01	-1.604465e+02
9.800000e-07	-3.632626e-06	-2.420033e-09	-2.579634e+01	-1.601232e+02
9.900000e-07	-3.598574e-06	-2.408979e-09	-2.555453e+01	-1.597947e+02
1.000000e-06	-3.564117e-06	-2.407619e-09	-2.530984e+01	-1.594608e+02
1.010000e-06	-3.529149e-06	-2.408301e-09	-2.506153e+01	-1.591213e+02
1.020000e-06	-3.493736e-06	-2.403688e-09	-2.481005e+01	-1.587760e+02
1.030000e-06	-3.458062e-06	-2.387505e-09	-2.455672e+01	-1.584247e+02
1.040000e-06	-3.422236e-06	-2.376736e-09	-2.430231e+01	-1.580674e+02
1.050000e-06	-3.386279e-06	-2.373169e-09	-2.404696e+01	-1.577038e+02
1.060000e-06	-3.350178e-06	-2.368483e-09	-2.379060e+01	-1.573339e+02
1.070000e-06	-3.313913e-06	-2.357530e-09	-2.353307e+01	-1.569576e+02
1.080000e-06	-3.277463e-06	-2.346851e-09	-2.327423e+01	-1.565748e+02
1.090000e-06	-3.240812e-06	-2.339222e-09	-2.301396e+01	-1.561855e+02
1.100000e-06	-3.203958e-06	-2.332928e-09	-2.275225e+01	-1.557897e+02
1.110000e-06	-3.166867e-06	-2.324462e-09	-2.248885e+01	-1.553874e+02
1.120000e-06	-3.129455e-06	-2.313204e-09	-2.222318e+01	-1.549788e+02
1.130000e-06	-3.091853e-06	-2.307666e-09	-2.195616e+01	-1.545638e+02
1.140000e-06	-3.054000e-06	-2.304428e-09	-2.168735e+01	-1.541427e+02
1.150000e-06	-3.015874e-06	-2.296834e-09	-2.141661e+01	-1.537154e+02
1.160000e-06	-2.977641e-06	-2.283304e-09	-2.114510e+01	-1.532823e+02
1.170000e-06	-2.939266e-06	-2.271705e-09	-2.087259e+01	-1.528434e+02
1.180000e-06	-2.900716e-06	-2.261648e-09	-2.059883e+01	-1.523988e+02
1.190000e-06	-2.861942e-06	-2.255512e-09	-2.032349e+01	-1.519487e+02
1.200000e-06	-2.822914e-06	-2.249036e-09	-2.004634e+01	-1.514931e+02
1.210000e-06	-2.783674e-06	-2.244395e-09	-1.976769e+01	-1.510322e+02
1.220000e-06	-2.744270e-06	-2.237205e-09	-1.948786e+01	-1.505659e+02
1.230000e-06	-2.704666e-06	-2.230995e-09	-1.920663e+01	-1.500942e+02
1.240000e-06	-2.664845e-06	-2.218562e-09	-1.892385e+01	-1.496170e+02
1.250000e-06	-2.624941e-06	-2.204910e-09	-1.864048e+01	-1.491342e+02
1.260000e-06	-2.584920e-06	-2.189726e-09	-1.835628e+01	-1.486455e+02
1.270000e-06	-2.544756e-06	-2.180298e-09	-1.807106e+01	-1.481505e+02
1.280000e-06	-2.504524e-06	-2.172649e-09	-1.778536e+01	-1.476490e+02
1.290000e-06	-2.464156e-06	-2.164986e-09	-1.749869e+01	-1.471404e+02
1.300000e-06	-2.423639e-06	-2.156620e-09	-1.721097e+01	-1.466242e+02
1.310000e-06	-2.383019e-06	-2.150844e-09	-1.692252e+01	-1.460998e+02
1.320000e-06	-2.342215e-06	-2.146103e-09	-1.663276e+01	-1.455664e+02
1.330000e-06	-2.301227e-06	-2.137007e-09	-1.634169e+01	-1.450234e+02
1.340000e-06	-2.260106e-06	-2.123600e-09	-1.604968e+01	-1.444698e+02
1.350000e-06	-2.218624e-06	-2.112990e-09	-1.575510e+01	-1.439048e+02
1.360000e-06	-2.176857e-06	-2.104451e-09	-1.545850e+01	-1.433276e+02
1.370000e-06	-2.134892e-06	-2.095507e-09	-1.516050e+01	-1.427371e+02
1.380000e-06	-2.092570e-06	-2.086028e-09	-1.485996e+01	-1.421326e+02
1.390000e-06	-2.050036e-06	-2.074728e-09	-1.455791e+01	-1.415130e+02
1.400000e-06	-2.007343e-06	-2.065088e-09	-1.425473e+01	-1.408774e+02
1.410000e-06	-1.964424e-06	-2.058355e-09	-1.394995e+01	-1.402250e+02
1.420000e-06	-1.921294e-06	-2.047679e-09	-1.364368e+01	-1.395550e+02
1.430000e-06	-1.877944e-06	-2.031156e-09	-1.333583e+01	-1.388665e+02
1.440000e-06	-1.834383e-06	-2.017294e-09	-1.302649e+01	-1.381589e+02
1.450000e-06	-1.790695e-06	-2.007481e-09	-1.271625e+01	-1.374315e+02
1.460000e-06	-1.746903e-06	-1.998916e-09	-1.240527e+01	-1.366837e+02
1.470000e-06	-1.702960e-06	-1.986341e-09	-1.209322e+01	-1.359151e+02
1.480000e-06	-1.658926e-06	-1.971593e-09	-1.178052e+01	-1.351252e+02
1.490000e-06	-1.614844e-06	-1.957909e-09	-1.146748e+01	-1.343138e+02
1.500000e-06	-1.570714e-06	-1.945788e-09	-1.115411e+01	-1.334806e+02
1.510000e-06	-1.526522e-06	-1.928607e-09	-1.084028e+01	-1.326255e+02
1.520000e-06	-1.482294e-06	-1.908382e-09	-1.052620e+01	-1.317482e+02
1.530000e-06	-1.438041e-06	-1.893105e-09	-1.021195e+01	-1.308488e+02
1.540000e-06	-1.393708e-06	-1.884910e-09	-9.897130e+00	-1.299273e+02
1.550000e-06	-1.349250e-06	-1.874455e-09	-9.581420e+00	-1.289835e+02
1.560000e-06	-1.304712e-06	-1.859432e-09	-9.265143e+00	-1.280174e+02
1.570000e-06	-1.260117e-06	-1.845275e-09	-8.948458e+00	-1.270291e+02
1.580000e-06	-1.215486e-06	-1.835229e-09	-8.631523e+00	-1.260184e+02
1.590000e-06	-1.170776e-06	-1.820824e-09	-8.314027e+00	-1.249851e+02
1.600000e-06	-1.125886e-06	-1.800023e-09	-7.995246e+00	-1.239291e+02
1.610000e-06	-1.080965e-06	-1.779310e-09	-7.676252e+00	-1.228499e+02
1.620000e-06	-1.036035e-06	-1.765389e-09	-7.357191e+00	-1.217471e+02
1.630000e-06	-9.910059e-07	-1.752863e-09	-7.037424e+00	-1.206201e+02
1.640000e-06	-9.459032e-07	-1.735393e-09	-6.717136e+00	-1.194680e+02
1.650000e-06	-9.006816e-07	-1.714536e-09	-6.396005e+00	-1.182901e+02
1.660000e-06	-8.553985e-07	-1.696083e-09	-6.074436e+00	-1.170851e+02
1.670000e-06	-8.101019e-07	-1.679520e-09	-5.752771e+00	-1.158518e+02
1.680000e-06	-7.647163e-07	-1.659979e-09	-5.430475e+00	-1.145888e+02
1.690000e-06	-7.192615e-07	-1.636287e-09	-5.107687e+00	-1.132943e+02
1.700000e-06	-6.737365e-07	-1.614156e-09	-4.784401e+00	-1.119666e+02
1.710000e-06	-6.282036e-07	-1.598073e-09	-4.461058e+00	-1.106038e+02
1.720000e-06	-5.825684e-07	-1.580585e-09	-4.136989e+00	-1.092037e+02
1.730000e-06	-5.367895e-07	-1.558062e-09	-3.811900e+00	-1.077640e+02
1.740000e-06	-4.910372e-07	-1.534850e-09	-3.486999e+00	-1.062825e+02
1.750000e-06	-4.452815e-07	-1.511999e-09	-3.162075e+00	-1.047568e+02
1.760000e-06	-3.994988e-07	-1.485805e-09	-2.836959e+00	-1.031844e+02
1.770000e-06	-3.536954e-07	-1.456709e-09	-2.511695e+00	-1.015629e+02
1.780000e-06	-3.078136e-07	-1.429391e-09	-2.185875e+00	-9.988976e+01
1.790000e-06	-2.618976e-07	-1.407993e-09	-1.859812e+00	-9.816266e+01
1.800000e-06	-2.160286e-07	-1.385880e-09	-1.534083e+00	-9.637928e+01
1.810000e-06	-1.701600e-07	-1.358475e-09	-1.208356e+00	-9.453743e+01
1.820000e-06	-1.243485e-07	-1.329723e-09	-8.830355e-01	-9.263509e+01
1.830000e-06	-7.858737e-08	-1.300503e-09	-5.580720e-01	-9.067042e+01
1.840000e-06	-3.281776e-08	-1.267758e-09	-2.330486e-01	-8.864178e+01
1.850000e-06	1.305659e-08	-1.233159e-09	9.271865e-02	-8.654780e+01
1.860000e-06	5.904681e-08	-1.199195e-09	4.193088e-01	-8.438735e+01
1.870000e-06	1.049798e-07	-1.167991e-09	7.454925e-01	-8.215961e+01
1.880000e-06	1.508322e-07	-1.135300e-09	1.071104e+00	-7.986405e+01
1.890000e-06	1.966746e-07	-1.099175e-09	1.396644e+00	-7.750047e+01
1.900000e-06	2.425494e-07	-1.060270e-09	1.722415e+00	-7.506896e+01
1.910000e-06	2.883888e-07	-1.021624e-09	2.047933e+00	-7.256997e+01
1.920000e-06	3.341857e-07	-9.822098e-10	2.373151e+00	-7.000426e+01
1.930000e-06	3.799900e-07	-9.416469e-10	2.698421e+00	-6.737290e+01
1.940000e-06	4.258033e-07	-9.013552e-10	3.023754e+00	-6.467727e+01
1.950000e-06	4.716380e-07	-8.629179e-10	3.349240e+00	-6.191905e+01
1.960000e-06	5.173470e-07	-8.253444e-10	3.673833e+00	-5.910016e+01
1.970000e-06	5.629203e-07	-7.852625e-10	3.997462e+00	-5.622279e+01
1.980000e-06	6.084247e-07	-7.407058e-10	4.320603e+00	-5.328937e+01
1.990000e-06	6.538473e-07	-6.932954e-10	4.643162e+00	-5.030248e+01
2.000000e-06	6.992943e-07	-6.466017e-10	4.965894e+00	-4.726491e+01
2.010000e-06	7.446639e-07	-6.009980e-10	5.288077e+00	-4.417956e+01
2.020000e-06	7.900106e-07	-5.566932e-10	5.610097e+00	-4.104943e+01
2.030000e-06	8.354131e-07	-5.116859e-10	5.932514e+00	-3.787763e+01
2.040000e-06	8.807589e-07	-4.650279e-10	6.254528e+00	-3.466729e+01
2.050000e-06	9.260790e-07	-4.162864e-10	6.576359e+00	-3.142157e+01
2.060000e-06	9.713497e-07	-3.668408e-10	6.897840e+00	-2.814360e+01
2.070000e-06	1.016443e-06	-3.197758e-10	7.218063e+00	-2.483653e+01
2.080000e-06	1.061386e-06	-2.744444e-10	7.537217e+00	-2.150343e+01
2.090000e-06	1.106246e-06	-2.287145e-10	7.855778e+00	-1.814730e+01
2.100000e-06	1.151026e-06	-1.824440e-10	8.173775e+00	-1.477109e+01
2.110000e-06	1.195705e-06	-1.357013e-10	8.491051e+00	-1.137764e+01
2.120000e-06	1.240233e-06	-8.667709e-11	8.807260e+00	-7.969716e+00
2.130000e-06	1.284704e-06	-3.252567e-11	9.123060e+00	-4.549985e+00
2.140000e-06	1.329166e-06	2.466415e-11	9.438800e+00	-1.121025e+00
2.150000e-06	1.373593e-06	8.040781e-11	9.754289e+00	2.314671e+00
2.160000e-06	1.417955e-06	1.314141e-10	1.006931e+01	5.754688e+00
2.170000e-06	1.462223e-06	1.795453e-10	1.038367e+01	9.196676e+00
2.180000e-06	1.506453e-06	2.278409e-10	1.069776e+01	1.263834e+01
2.190000e-06	1.550610e-06	2.789248e-10	1.101133e+01	1.607742e+01
2.200000e-06	1.594634e-06	3.309465e-10	1.132397e+01	1.951168e+01
2.210000e-06	1.638592e-06	3.826003e-10	1.163612e+01	2.293891e+01
2.220000e-06	1.682545e-06	4.345251e-10	1.194825e+01	2.635688e+01
2.230000e-06	1.726452e-06	4.869370e-10	1.226004e+01	2.976332e+01
2.240000e-06	1.770222e-06	5.366067e-10	1.257087e+01	3.315597e+01
2.250000e-06	1.813840e-06	5.824888e-10	1.288061e+01	3.653250e+01
2.260000e-06	1.857319e-06	6.300086e-10	1.318936e+01	3.989053e+01
2.270000e-06	1.900724e-06	6.801493e-10	1.349760e+01	4.322761e+01
2.280000e-06	1.943959e-06	7.302721e-10	1.380463e+01	4.654126e+01
2.290000e-06	1.987051e-06	7.797677e-10	1.411063e+01	4.982891e+01
2.300000e-06	2.030064e-06	8.261355e-10	1.441608e+01	5.308796e+01
2.310000e-06	2.072760e-06	8.708223e-10	1.471928e+01	5.631574e+01
2.320000e-06	2.115112e-06	9.125748e-10	1.502003e+01	5.950954e+01
2.330000e-06	2.157229e-06	9.529675e-10	1.531912e+01	6.266666e+01
2.340000e-06	2.199007e-06	9.965073e-10	1.561580e+01	6.578437e+01
2.350000e-06	2.240519e-06	1.044773e-09	1.591058e+01	6.885995e+01
2.360000e-06	2.281806e-06	1.095291e-09	1.620377e+01	7.189075e+01
2.370000e-06	2.322842e-06	1.141688e-09	1.649518e+01	7.487415e+01
2.380000e-06	2.363731e-06	1.183750e-09	1.678555e+01	7.780763e+01
2.390000e-06	2.404394e-06	1.223689e-09	1.707431e+01	8.068880e+01
2.400000e-06	2.444795e-06	1.259936e-09	1.736121e+01	8.351541e+01
2.410000e-06	2.485050e-06	1.292395e-09	1.764707e+01	8.628534e+01
2.420000e-06	2.525225e-06	1.326854e-09	1.793237e+01	8.899672e+01
2.430000e-06	2.565281e-06	1.368719e-09	1.821681e+01	9.164786e+01
2.440000e-06	2.605304e-06	1.415413e-09	1.850103e+01	9.423731e+01
2.450000e-06	2.645227e-06	1.459611e-09	1.878454e+01	9.676389e+01
2.460000e-06	2.684934e-06	1.497584e-09	1.906651e+01	9.922666e+01
2.470000e-06	2.724495e-06	1.532615e-09	1.934744e+01	1.016250e+02
2.480000e-06	2.763900e-06	1.566637e-09	1.962727e+01	1.039585e+02
2.490000e-06	2.803077e-06	1.594835e-09	1.990547e+01	1.062271e+02
2.500000e-06	2.841995e-06	1.618769e-09	2.018184e+01	1.084310e+02
2.510000e-06	2.880727e-06	1.646522e-09	2.045689e+01	1.105707e+02
2.520000e-06	2.919374e-06	1.682963e-09	2.073133e+01	1.126468e+02
2.530000e-06	2.957807e-06	1.720027e-09	2.100426e+01	1.146605e+02
2.540000e-06	2.996024e-06	1.750321e-09	2.127565e+01	1.166128e+02
2.550000e-06	3.034105e-06	1.775344e-09	2.154607e+01	1.185052e+02
2.560000e-06	3.071995e-06	1.801367e-09	2.181514e+01	1.203392e+02
2.570000e-06	3.109634e-06	1.827470e-09	2.208242e+01	1.221166e+02
2.580000e-06	3.147043e-06	1.848685e-09	2.234808e+01	1.238391e+02
2.590000e-06	3.184215e-06	1.867818e-09	2.261205e+01	1.255087e+02
2.600000e-06	3.221155e-06	1.892000e-09	2.287437e+01	1.271274e+02
2.610000e-06	3.257868e-06	1.920169e-09	2.313508e+01	1.286970e+02
2.620000e-06	3.294299e-06	1.945741e-09	2.339379e+01	1.302195e+02
2.630000e-06	3.330560e-06	1.967163e-09	2.365129e+01	1.316968e+02
2.640000e-06	3.366719e-06	1.987509e-09	2.390806e+01	1.331306e+02
2.650000e-06	3.402797e-06	2.006881e-09	2.416426e+01	1.345228e+02
2.660000e-06	3.438757e-06	2.022655e-09	2.441962e+01	1.358748e+02
2.670000e-06	3.474555e-06	2.038474e-09	2.467383e+01	1.371882e+02
2.680000e-06	3.510120e-06	2.058301e-09	2.492639e+01	1.384641e+02
2.690000e-06	3.545444e-06	2.078093e-09	2.517724e+01	1.397037e+02
2.700000e-06	3.580362e-06	2.093710e-09	2.542520e+01	1.409078e+02
2.710000e-06	3.614744e-06	2.106326e-09	2.566936e+01	1.420774e+02
2.720000e-06	3.648718e-06	2.121178e-09	2.591062e+01	1.432129e+02
2.730000e-06	3.682272e-06	2.138597e-09	2.614889e+01	1.443148e+02
2.740000e-06	3.715356e-06	2.153997e-09	2.638384e+01	1.453833e+02
2.750000e-06	3.748066e-06	2.167417e-09	2.661612e+01	1.464187e+02
2.760000e-06	3.780508e-06	2.183283e-09	2.684650e+01	1.474210e+02
2.770000e-06	3.812741e-06	2.204258e-09	2.707540e+01	1.483901e+02
2.780000e-06	3.844852e-06	2.220983e-09	2.730342e+01	1.493259e+02
2.790000e-06	3.876847e-06	2.229928e-09	2.753063e+01	1.502283e+02
2.800000e-06	3.908651e-06	2.238769e-09	2.775648e+01	1.510972e+02
2.810000e-06	3.940172e-06	2.251537e-09	2.798032e+01	1.519325e+02
2.820000e-06	3.971359e-06	2.262980e-09	2.820179e+01	1.527339e+02
2.830000e-06	4.002293e-06	2.269267e-09	2.842146e+01	1.535017e+02
2.840000e-06	4.033014e-06	2.275715e-09	2.863962e+01	1.542358e+02
2.850000e-06	4.063439e-06	2.287304e-09	2.885568e+01	1.549365e+02
2.860000e-06	4.093545e-06	2.300654e-09	2.906946e+01	1.556040e+02
2.870000e-06	4.123387e-06	2.311304e-09	2.928138e+01	1.562389e+02
2.880000e-06	4.152959e-06	2.319619e-09	2.949138e+01	1.568419e+02
2.890000e-06	4.182270e-06	2.328508e-09	2.969953e+01	1.574137e+02
2.900000e-06	4.211320e-06	2.336208e-09	2.990582e+01	1.579553e+02
