# Temperatura_=_11.12
# Concentracion g/m^3_=_4090.0
# C_Vs_to_Am_M_A/Vsm_=_65563218390.804596
# pendiente_HvsI_1/m_=_3716.3
# ordenada_HvsI_A/m_=_1297.0
# frecuencia_Hz_=_135082.7205465857

Tiempo_(s)	Campo_(V.s)	Magnetizacion_(V.s)	Campo_(kA/m)	Magnetizacion_(A/m)
0.000000e+00	-5.425788e-06	-2.598311e-09	-3.839411e+01	-1.670594e+02
1.000000e-08	-5.425949e-06	-2.601847e-09	-3.839524e+01	-1.670494e+02
2.000000e-08	-5.425874e-06	-2.608262e-09	-3.839471e+01	-1.670370e+02
3.000000e-08	-5.425432e-06	-2.609827e-09	-3.839158e+01	-1.670231e+02
4.000000e-08	-5.424499e-06	-2.603999e-09	-3.838498e+01	-1.670085e+02
5.000000e-08	-5.423111e-06	-2.599023e-09	-3.837516e+01	-1.669944e+02
6.000000e-08	-5.421114e-06	-2.613823e-09	-3.836103e+01	-1.669816e+02
7.000000e-08	-5.418426e-06	-2.629192e-09	-3.834201e+01	-1.669713e+02
8.000000e-08	-5.415092e-06	-2.576888e-09	-3.831841e+01	-1.669645e+02
9.000000e-08	-5.411250e-06	-2.528753e-09	-3.829123e+01	-1.669622e+02
1.000000e-07	-5.407140e-06	-2.612797e-09	-3.826214e+01	-1.669655e+02
1.100000e-07	-5.402787e-06	-2.660491e-09	-3.823134e+01	-1.669753e+02
1.200000e-07	-5.398181e-06	-2.584264e-09	-3.819875e+01	-1.669924e+02
1.300000e-07	-5.393315e-06	-2.520771e-09	-3.816432e+01	-1.670176e+02
1.400000e-07	-5.388048e-06	-2.602124e-09	-3.812705e+01	-1.670516e+02
1.500000e-07	-5.382389e-06	-2.677010e-09	-3.808700e+01	-1.670947e+02
1.600000e-07	-5.376450e-06	-2.535355e-09	-3.804498e+01	-1.671474e+02
1.700000e-07	-5.370137e-06	-2.494232e-09	-3.800030e+01	-1.672097e+02
1.800000e-07	-5.363354e-06	-2.586275e-09	-3.795230e+01	-1.672818e+02
1.900000e-07	-5.356193e-06	-2.641386e-09	-3.790163e+01	-1.673633e+02
2.000000e-07	-5.348807e-06	-2.523946e-09	-3.784937e+01	-1.674539e+02
2.100000e-07	-5.341237e-06	-2.526011e-09	-3.779580e+01	-1.675531e+02
2.200000e-07	-5.333365e-06	-2.629038e-09	-3.774010e+01	-1.676600e+02
2.300000e-07	-5.325105e-06	-2.614043e-09	-3.768165e+01	-1.677739e+02
2.400000e-07	-5.316386e-06	-2.523424e-09	-3.761995e+01	-1.678937e+02
2.500000e-07	-5.307157e-06	-2.569574e-09	-3.755464e+01	-1.680182e+02
2.600000e-07	-5.297247e-06	-2.661307e-09	-3.748452e+01	-1.681461e+02
2.700000e-07	-5.286657e-06	-2.605680e-09	-3.740958e+01	-1.682760e+02
2.800000e-07	-5.275706e-06	-2.576303e-09	-3.733209e+01	-1.684064e+02
2.900000e-07	-5.264277e-06	-2.667283e-09	-3.725121e+01	-1.685358e+02
3.000000e-07	-5.252362e-06	-2.686386e-09	-3.716690e+01	-1.686626e+02
3.100000e-07	-5.240119e-06	-2.592498e-09	-3.708027e+01	-1.687853e+02
3.200000e-07	-5.227453e-06	-2.634418e-09	-3.699064e+01	-1.689022e+02
3.300000e-07	-5.214368e-06	-2.688396e-09	-3.689805e+01	-1.690119e+02
3.400000e-07	-5.200928e-06	-2.645191e-09	-3.680294e+01	-1.691130e+02
3.500000e-07	-5.187192e-06	-2.621958e-09	-3.670574e+01	-1.692041e+02
3.600000e-07	-5.173150e-06	-2.696197e-09	-3.660638e+01	-1.692838e+02
3.700000e-07	-5.158532e-06	-2.666865e-09	-3.650294e+01	-1.693512e+02
3.800000e-07	-5.143359e-06	-2.621695e-09	-3.639557e+01	-1.694052e+02
3.900000e-07	-5.127684e-06	-2.651910e-09	-3.628465e+01	-1.694449e+02
4.000000e-07	-5.111480e-06	-2.656808e-09	-3.616998e+01	-1.694698e+02
4.100000e-07	-5.094849e-06	-2.593463e-09	-3.605230e+01	-1.694792e+02
4.200000e-07	-5.077841e-06	-2.625275e-09	-3.593195e+01	-1.694729e+02
4.300000e-07	-5.060602e-06	-2.667215e-09	-3.580996e+01	-1.694506e+02
4.400000e-07	-5.043086e-06	-2.629150e-09	-3.568602e+01	-1.694123e+02
4.500000e-07	-5.025251e-06	-2.604690e-09	-3.555981e+01	-1.693583e+02
4.600000e-07	-5.007087e-06	-2.640388e-09	-3.543128e+01	-1.692889e+02
4.700000e-07	-4.988449e-06	-2.624388e-09	-3.529939e+01	-1.692043e+02
4.800000e-07	-4.969393e-06	-2.598887e-09	-3.516455e+01	-1.691054e+02
4.900000e-07	-4.950038e-06	-2.606627e-09	-3.502758e+01	-1.689927e+02
5.000000e-07	-4.930432e-06	-2.602053e-09	-3.488885e+01	-1.688670e+02
5.100000e-07	-4.910647e-06	-2.596886e-09	-3.474885e+01	-1.687293e+02
5.200000e-07	-4.890632e-06	-2.617462e-09	-3.460722e+01	-1.685804e+02
5.300000e-07	-4.870244e-06	-2.609466e-09	-3.446294e+01	-1.684213e+02
5.400000e-07	-4.849520e-06	-2.585414e-09	-3.431630e+01	-1.682531e+02
5.500000e-07	-4.828439e-06	-2.597089e-09	-3.416712e+01	-1.680767e+02
5.600000e-07	-4.806925e-06	-2.599232e-09	-3.401489e+01	-1.678933e+02
5.700000e-07	-4.785046e-06	-2.579119e-09	-3.386007e+01	-1.677037e+02
5.800000e-07	-4.762960e-06	-2.573860e-09	-3.370378e+01	-1.675089e+02
5.900000e-07	-4.740683e-06	-2.580818e-09	-3.354614e+01	-1.673099e+02
6.000000e-07	-4.718008e-06	-2.580515e-09	-3.338569e+01	-1.671074e+02
6.100000e-07	-4.694918e-06	-2.586861e-09	-3.322230e+01	-1.669022e+02
6.200000e-07	-4.671528e-06	-2.571269e-09	-3.305679e+01	-1.666951e+02
6.300000e-07	-4.647932e-06	-2.556297e-09	-3.288982e+01	-1.664866e+02
6.400000e-07	-4.624109e-06	-2.560491e-09	-3.272124e+01	-1.662773e+02
6.500000e-07	-4.600096e-06	-2.564715e-09	-3.255132e+01	-1.660675e+02
6.600000e-07	-4.575772e-06	-2.545509e-09	-3.237919e+01	-1.658577e+02
6.700000e-07	-4.551032e-06	-2.542656e-09	-3.220413e+01	-1.656481e+02
6.800000e-07	-4.525825e-06	-2.546911e-09	-3.202576e+01	-1.654389e+02
6.900000e-07	-4.500064e-06	-2.546931e-09	-3.184347e+01	-1.652301e+02
7.000000e-07	-4.473681e-06	-2.533217e-09	-3.165678e+01	-1.650219e+02
7.100000e-07	-4.446800e-06	-2.523978e-09	-3.146656e+01	-1.648141e+02
7.200000e-07	-4.419641e-06	-2.520502e-09	-3.127437e+01	-1.646066e+02
7.300000e-07	-4.392199e-06	-2.531196e-09	-3.108020e+01	-1.643993e+02
7.400000e-07	-4.364562e-06	-2.524778e-09	-3.088463e+01	-1.641921e+02
7.500000e-07	-4.336719e-06	-2.507632e-09	-3.068760e+01	-1.639846e+02
7.600000e-07	-4.308625e-06	-2.500294e-09	-3.048880e+01	-1.637767e+02
7.700000e-07	-4.280316e-06	-2.502505e-09	-3.028848e+01	-1.635680e+02
7.800000e-07	-4.251743e-06	-2.494566e-09	-3.008629e+01	-1.633582e+02
7.900000e-07	-4.222874e-06	-2.487464e-09	-2.988201e+01	-1.631471e+02
8.000000e-07	-4.193669e-06	-2.487264e-09	-2.967535e+01	-1.629343e+02
8.100000e-07	-4.164152e-06	-2.491596e-09	-2.946648e+01	-1.627196e+02
8.200000e-07	-4.134387e-06	-2.494118e-09	-2.925586e+01	-1.625026e+02
8.300000e-07	-4.104313e-06	-2.486843e-09	-2.904305e+01	-1.622829e+02
8.400000e-07	-4.073939e-06	-2.475165e-09	-2.882811e+01	-1.620605e+02
8.500000e-07	-4.043253e-06	-2.469922e-09	-2.861097e+01	-1.618349e+02
8.600000e-07	-4.012141e-06	-2.467480e-09	-2.839082e+01	-1.616059e+02
8.700000e-07	-3.980861e-06	-2.459022e-09	-2.816947e+01	-1.613732e+02
8.800000e-07	-3.949586e-06	-2.451379e-09	-2.794816e+01	-1.611366e+02
8.900000e-07	-3.918094e-06	-2.448769e-09	-2.772532e+01	-1.608958e+02
9.000000e-07	-3.886319e-06	-2.451269e-09	-2.750047e+01	-1.606506e+02
9.100000e-07	-3.854313e-06	-2.446782e-09	-2.727399e+01	-1.604009e+02
9.200000e-07	-3.822095e-06	-2.439828e-09	-2.704600e+01	-1.601463e+02
9.300000e-07	-3.789611e-06	-2.434178e-09	-2.681614e+01	-1.598867e+02
9.400000e-07	-3.756815e-06	-2.433666e-09	-2.658407e+01	-1.596218e+02
9.500000e-07	-3.723703e-06	-2.425722e-09	-2.634976e+01	-1.593516e+02
9.600000e-07	-3.690230e-06	-2.416751e-09	-2.611290e+01	-1.590757e+02
9.700000e-07	-3.656313e-06	-2.409034e-09	-2.587290e+01	-1.587939e+02
9.800000e-07	-3.621935e-06	-2.407437e-09	-2.562963e+01	-1.585063e+02
9.900000e-07	-3.587174e-06	-2.405748e-09	-2.538366e+01	-1.582124e+02
1.000000e-06	-3.552117e-06	-2.404548e-09	-2.513558e+01	-1.579123e+02
1.010000e-06	-3.516740e-06	-2.403714e-09	-2.488525e+01	-1.576057e+02
1.020000e-06	-3.481161e-06	-2.404868e-09	-2.463348e+01	-1.572925e+02
1.030000e-06	-3.445470e-06	-2.398512e-09	-2.438093e+01	-1.569726e+02
1.040000e-06	-3.409631e-06	-2.387147e-09	-2.412732e+01	-1.566459e+02
1.050000e-06	-3.373576e-06	-2.373711e-09	-2.387219e+01	-1.563124e+02
1.060000e-06	-3.337300e-06	-2.365883e-09	-2.361549e+01	-1.559719e+02
1.070000e-06	-3.300900e-06	-2.358346e-09	-2.335791e+01	-1.556245e+02
1.080000e-06	-3.264297e-06	-2.348362e-09	-2.309890e+01	-1.552701e+02
1.090000e-06	-3.227482e-06	-2.340338e-09	-2.283839e+01	-1.549088e+02
1.100000e-06	-3.190385e-06	-2.340299e-09	-2.257588e+01	-1.545405e+02
1.110000e-06	-3.153068e-06	-2.340534e-09	-2.231182e+01	-1.541655e+02
1.120000e-06	-3.115584e-06	-2.331366e-09	-2.204658e+01	-1.537836e+02
1.130000e-06	-3.077811e-06	-2.319168e-09	-2.177929e+01	-1.533952e+02
1.140000e-06	-3.039812e-06	-2.308870e-09	-2.151040e+01	-1.530001e+02
1.150000e-06	-3.001679e-06	-2.302498e-09	-2.124056e+01	-1.525987e+02
1.160000e-06	-2.963347e-06	-2.291737e-09	-2.096931e+01	-1.521910e+02
1.170000e-06	-2.924688e-06	-2.280071e-09	-2.069575e+01	-1.517771e+02
1.180000e-06	-2.885758e-06	-2.273379e-09	-2.042028e+01	-1.513572e+02
1.190000e-06	-2.846623e-06	-2.272744e-09	-2.014335e+01	-1.509313e+02
1.200000e-06	-2.807308e-06	-2.266477e-09	-1.986514e+01	-1.504996e+02
1.210000e-06	-2.767866e-06	-2.252832e-09	-1.958605e+01	-1.500620e+02
1.220000e-06	-2.728291e-06	-2.239305e-09	-1.930600e+01	-1.496187e+02
1.230000e-06	-2.688574e-06	-2.230456e-09	-1.902496e+01	-1.491696e+02
1.240000e-06	-2.648758e-06	-2.221390e-09	-1.874321e+01	-1.487147e+02
1.250000e-06	-2.608837e-06	-2.212260e-09	-1.846072e+01	-1.482537e+02
1.260000e-06	-2.568744e-06	-2.203848e-09	-1.817701e+01	-1.477866e+02
1.270000e-06	-2.528524e-06	-2.198345e-09	-1.789241e+01	-1.473131e+02
1.280000e-06	-2.488208e-06	-2.191185e-09	-1.760712e+01	-1.468329e+02
1.290000e-06	-2.447645e-06	-2.181908e-09	-1.732009e+01	-1.463457e+02
1.300000e-06	-2.406874e-06	-2.170952e-09	-1.703158e+01	-1.458510e+02
1.310000e-06	-2.365947e-06	-2.163193e-09	-1.674198e+01	-1.453484e+02
1.320000e-06	-2.324795e-06	-2.155576e-09	-1.645078e+01	-1.448373e+02
1.330000e-06	-2.283373e-06	-2.143494e-09	-1.615766e+01	-1.443170e+02
1.340000e-06	-2.241576e-06	-2.130962e-09	-1.586190e+01	-1.437871e+02
1.350000e-06	-2.199558e-06	-2.122103e-09	-1.556457e+01	-1.432467e+02
1.360000e-06	-2.157343e-06	-2.114088e-09	-1.526585e+01	-1.426951e+02
1.370000e-06	-2.114770e-06	-2.102938e-09	-1.496459e+01	-1.421317e+02
1.380000e-06	-2.071911e-06	-2.089780e-09	-1.466131e+01	-1.415556e+02
1.390000e-06	-2.028825e-06	-2.076967e-09	-1.435642e+01	-1.409660e+02
1.400000e-06	-1.985546e-06	-2.070291e-09	-1.405018e+01	-1.403622e+02
1.410000e-06	-1.942091e-06	-2.063480e-09	-1.374268e+01	-1.397433e+02
1.420000e-06	-1.898586e-06	-2.050935e-09	-1.343482e+01	-1.391087e+02
1.430000e-06	-1.855043e-06	-2.037404e-09	-1.312671e+01	-1.384576e+02
1.440000e-06	-1.811364e-06	-2.027637e-09	-1.281762e+01	-1.377893e+02
1.450000e-06	-1.767585e-06	-2.018570e-09	-1.250783e+01	-1.371030e+02
1.460000e-06	-1.723745e-06	-2.006631e-09	-1.219761e+01	-1.363983e+02
1.470000e-06	-1.679824e-06	-1.992484e-09	-1.188682e+01	-1.356745e+02
1.480000e-06	-1.635770e-06	-1.982303e-09	-1.157508e+01	-1.349310e+02
1.490000e-06	-1.591601e-06	-1.973254e-09	-1.126253e+01	-1.341674e+02
1.500000e-06	-1.547340e-06	-1.962056e-09	-1.094933e+01	-1.333833e+02
1.510000e-06	-1.503011e-06	-1.949506e-09	-1.063564e+01	-1.325781e+02
1.520000e-06	-1.458671e-06	-1.935745e-09	-1.032189e+01	-1.317516e+02
1.530000e-06	-1.414252e-06	-1.923326e-09	-1.000757e+01	-1.309033e+02
1.540000e-06	-1.369768e-06	-1.913098e-09	-9.692790e+00	-1.300329e+02
1.550000e-06	-1.325229e-06	-1.900275e-09	-9.377620e+00	-1.291401e+02
1.560000e-06	-1.280553e-06	-1.884985e-09	-9.061482e+00	-1.282246e+02
1.570000e-06	-1.235669e-06	-1.871201e-09	-8.743873e+00	-1.272858e+02
1.580000e-06	-1.190683e-06	-1.859407e-09	-8.425542e+00	-1.263234e+02
1.590000e-06	-1.145672e-06	-1.847310e-09	-8.107037e+00	-1.253371e+02
1.600000e-06	-1.100531e-06	-1.832982e-09	-7.787604e+00	-1.243261e+02
1.610000e-06	-1.055306e-06	-1.815534e-09	-7.467582e+00	-1.232899e+02
1.620000e-06	-1.010041e-06	-1.799219e-09	-7.147280e+00	-1.222279e+02
1.630000e-06	-9.647036e-07	-1.784592e-09	-6.826461e+00	-1.211392e+02
1.640000e-06	-9.192642e-07	-1.769190e-09	-6.504922e+00	-1.200230e+02
1.650000e-06	-8.736808e-07	-1.754098e-09	-6.182363e+00	-1.188781e+02
1.660000e-06	-8.280671e-07	-1.737954e-09	-5.859590e+00	-1.177036e+02
1.670000e-06	-7.824878e-07	-1.718959e-09	-5.537060e+00	-1.164980e+02
1.680000e-06	-7.368205e-07	-1.695818e-09	-5.213908e+00	-1.152601e+02
1.690000e-06	-6.910463e-07	-1.671388e-09	-4.890000e+00	-1.139884e+02
1.700000e-06	-6.452382e-07	-1.651572e-09	-4.565851e+00	-1.126811e+02
1.710000e-06	-5.994563e-07	-1.635257e-09	-4.241888e+00	-1.113365e+02
1.720000e-06	-5.536601e-07	-1.617498e-09	-3.917824e+00	-1.099530e+02
1.730000e-06	-5.078194e-07	-1.596413e-09	-3.593445e+00	-1.085284e+02
1.740000e-06	-4.619193e-07	-1.573144e-09	-3.268645e+00	-1.070609e+02
1.750000e-06	-4.159873e-07	-1.548757e-09	-2.943620e+00	-1.055485e+02
1.760000e-06	-3.700647e-07	-1.524539e-09	-2.618661e+00	-1.039890e+02
1.770000e-06	-3.240964e-07	-1.499797e-09	-2.293379e+00	-1.023804e+02
1.780000e-06	-2.780940e-07	-1.476407e-09	-1.967856e+00	-1.007208e+02
1.790000e-06	-2.320631e-07	-1.455166e-09	-1.642131e+00	-9.900815e+01
1.800000e-06	-1.860538e-07	-1.431180e-09	-1.316559e+00	-9.724051e+01
1.810000e-06	-1.400099e-07	-1.402729e-09	-9.907416e-01	-9.541611e+01
1.820000e-06	-9.384578e-08	-1.370987e-09	-6.640739e-01	-9.353327e+01
1.830000e-06	-4.772819e-08	-1.338957e-09	-3.377355e-01	-9.159046e+01
1.840000e-06	-1.684647e-09	-1.308882e-09	-1.192094e-02	-8.958633e+01
1.850000e-06	4.433302e-08	-1.279756e-09	3.137105e-01	-8.751971e+01
1.860000e-06	9.034227e-08	-1.246973e-09	6.392823e-01	-8.538967e+01
1.870000e-06	1.363095e-07	-1.212496e-09	9.645570e-01	-8.319548e+01
1.880000e-06	1.822060e-07	-1.177524e-09	1.289331e+00	-8.093667e+01
1.890000e-06	2.281124e-07	-1.141790e-09	1.614175e+00	-7.861302e+01
1.900000e-06	2.741219e-07	-1.105592e-09	1.939748e+00	-7.622457e+01
1.910000e-06	3.201249e-07	-1.066359e-09	2.265276e+00	-7.377163e+01
1.920000e-06	3.660780e-07	-1.025864e-09	2.590451e+00	-7.125476e+01
1.930000e-06	4.120042e-07	-9.881332e-10	2.915435e+00	-6.867481e+01
1.940000e-06	4.578743e-07	-9.504651e-10	3.240022e+00	-6.603286e+01
1.950000e-06	5.037290e-07	-9.128791e-10	3.564500e+00	-6.333024e+01
1.960000e-06	5.495354e-07	-8.737453e-10	3.888637e+00	-6.056853e+01
1.970000e-06	5.952335e-07	-8.312718e-10	4.212007e+00	-5.774950e+01
1.980000e-06	6.408630e-07	-7.862695e-10	4.534892e+00	-5.487515e+01
1.990000e-06	6.864668e-07	-7.404825e-10	4.857594e+00	-5.194765e+01
2.000000e-06	7.319963e-07	-6.956470e-10	5.179771e+00	-4.896933e+01
2.010000e-06	7.775098e-07	-6.511109e-10	5.501835e+00	-4.594265e+01
2.020000e-06	8.229844e-07	-6.046422e-10	5.823623e+00	-4.287021e+01
2.030000e-06	8.683712e-07	-5.559174e-10	6.144791e+00	-3.975468e+01
2.040000e-06	9.137238e-07	-5.083421e-10	6.465716e+00	-3.659882e+01
2.050000e-06	9.590138e-07	-4.619370e-10	6.786198e+00	-3.340543e+01
2.060000e-06	1.004222e-06	-4.148867e-10	7.106104e+00	-3.017736e+01
2.070000e-06	1.049407e-06	-3.661360e-10	7.425841e+00	-2.691747e+01
2.080000e-06	1.094568e-06	-3.176786e-10	7.745411e+00	-2.362859e+01
2.090000e-06	1.139655e-06	-2.709308e-10	8.064458e+00	-2.031357e+01
2.100000e-06	1.184512e-06	-2.234252e-10	8.381873e+00	-1.697522e+01
2.110000e-06	1.229251e-06	-1.716728e-10	8.698456e+00	-1.361632e+01
2.120000e-06	1.274017e-06	-1.192136e-10	9.015232e+00	-1.023960e+01
2.130000e-06	1.318679e-06	-6.807327e-11	9.331271e+00	-6.847738e+00
2.140000e-06	1.363281e-06	-1.723248e-11	9.646881e+00	-3.443388e+00
2.150000e-06	1.407741e-06	3.605267e-11	9.961490e+00	-2.914265e-02
2.160000e-06	1.452054e-06	8.837349e-11	1.027506e+01	3.392442e+00
2.170000e-06	1.496306e-06	1.363620e-10	1.058820e+01	6.818848e+00
2.180000e-06	1.540412e-06	1.842657e-10	1.090030e+01	1.024759e+01
2.190000e-06	1.584404e-06	2.360035e-10	1.121160e+01	1.367618e+01
2.200000e-06	1.628341e-06	2.882206e-10	1.152251e+01	1.710219e+01
2.210000e-06	1.672261e-06	3.384810e-10	1.183330e+01	2.052314e+01
2.220000e-06	1.716158e-06	3.887191e-10	1.214392e+01	2.393659e+01
2.230000e-06	1.759982e-06	4.403206e-10	1.245403e+01	2.734005e+01
2.240000e-06	1.803728e-06	4.920380e-10	1.276359e+01	3.073103e+01
2.250000e-06	1.847432e-06	5.438473e-10	1.307285e+01	3.410700e+01
2.260000e-06	1.891060e-06	5.921148e-10	1.338157e+01	3.746539e+01
2.270000e-06	1.934554e-06	6.395462e-10	1.368934e+01	4.080360e+01
2.280000e-06	1.977939e-06	6.882592e-10	1.399635e+01	4.411900e+01
2.290000e-06	2.021098e-06	7.356871e-10	1.430174e+01	4.740891e+01
2.300000e-06	2.064004e-06	7.813513e-10	1.460536e+01	5.067062e+01
2.310000e-06	2.106862e-06	8.234766e-10	1.490863e+01	5.390140e+01
2.320000e-06	2.149529e-06	8.679983e-10	1.521055e+01	5.709850e+01
2.330000e-06	2.191795e-06	9.159495e-10	1.550964e+01	6.025916e+01
2.340000e-06	2.233778e-06	9.638748e-10	1.580672e+01	6.338064e+01
2.350000e-06	2.275521e-06	1.010576e-09	1.610210e+01	6.646023e+01
2.360000e-06	2.316945e-06	1.057386e-09	1.639523e+01	6.949526e+01
2.370000e-06	2.358107e-06	1.101441e-09	1.668650e+01	7.248311e+01
2.380000e-06	2.399031e-06	1.141712e-09	1.697609e+01	7.542129e+01
2.390000e-06	2.439648e-06	1.178085e-09	1.726350e+01	7.830736e+01
2.400000e-06	2.480089e-06	1.211352e-09	1.754967e+01	8.113907e+01
2.410000e-06	2.520424e-06	1.246189e-09	1.783509e+01	8.391427e+01
2.420000e-06	2.560523e-06	1.288818e-09	1.811884e+01	8.663102e+01
2.430000e-06	2.600458e-06	1.335042e-09	1.840143e+01	8.928756e+01
2.440000e-06	2.640332e-06	1.380340e-09	1.868359e+01	9.188233e+01
2.450000e-06	2.680154e-06	1.419022e-09	1.896537e+01	9.441402e+01
2.460000e-06	2.719924e-06	1.452244e-09	1.924680e+01	9.688154e+01
2.470000e-06	2.759576e-06	1.482235e-09	1.952738e+01	9.928406e+01
2.480000e-06	2.799034e-06	1.509095e-09	1.980659e+01	1.016210e+02
2.490000e-06	2.838265e-06	1.535943e-09	2.008421e+01	1.038921e+02
2.500000e-06	2.877270e-06	1.568241e-09	2.036021e+01	1.060972e+02
2.510000e-06	2.916069e-06	1.607468e-09	2.063476e+01	1.082366e+02
2.520000e-06	2.954655e-06	1.647611e-09	2.090781e+01	1.103107e+02
2.530000e-06	2.993009e-06	1.680074e-09	2.117921e+01	1.123202e+02
2.540000e-06	3.031080e-06	1.703552e-09	2.144860e+01	1.142661e+02
2.550000e-06	3.068967e-06	1.727972e-09	2.171670e+01	1.161495e+02
2.560000e-06	3.106754e-06	1.754613e-09	2.198409e+01	1.179716e+02
2.570000e-06	3.144362e-06	1.778902e-09	2.225022e+01	1.197341e+02
2.580000e-06	3.181747e-06	1.801602e-09	2.251476e+01	1.214385e+02
2.590000e-06	3.218884e-06	1.829051e-09	2.277755e+01	1.230866e+02
2.600000e-06	3.255789e-06	1.859290e-09	2.303870e+01	1.246802e+02
2.610000e-06	3.292460e-06	1.885258e-09	2.329819e+01	1.262212e+02
2.620000e-06	3.328929e-06	1.904005e-09	2.355625e+01	1.277116e+02
2.630000e-06	3.365152e-06	1.922195e-09	2.381257e+01	1.291532e+02
2.640000e-06	3.401103e-06	1.942502e-09	2.406698e+01	1.305481e+02
2.650000e-06	3.436907e-06	1.961677e-09	2.432033e+01	1.318982e+02
2.660000e-06	3.472650e-06	1.979365e-09	2.457326e+01	1.332051e+02
2.670000e-06	3.508292e-06	1.998948e-09	2.482547e+01	1.344708e+02
2.680000e-06	3.543740e-06	2.019529e-09	2.507631e+01	1.356968e+02
2.690000e-06	3.578909e-06	2.038322e-09	2.532517e+01	1.368846e+02
2.700000e-06	3.613746e-06	2.051259e-09	2.557168e+01	1.380357e+02
2.710000e-06	3.648227e-06	2.062500e-09	2.581568e+01	1.391514e+02
2.720000e-06	3.682209e-06	2.077322e-09	2.605615e+01	1.402327e+02
2.730000e-06	3.715704e-06	2.096301e-09	2.629316e+01	1.412807e+02
2.740000e-06	3.748818e-06	2.115588e-09	2.652748e+01	1.422963e+02
2.750000e-06	3.781514e-06	2.133002e-09	2.675885e+01	1.432802e+02
2.760000e-06	3.813836e-06	2.147890e-09	2.698757e+01	1.442331e+02
2.770000e-06	3.845912e-06	2.161023e-09	2.721454e+01	1.451555e+02
2.780000e-06	3.877867e-06	2.170375e-09	2.744066e+01	1.460479e+02
2.790000e-06	3.909680e-06	2.176864e-09	2.766578e+01	1.469106e+02
2.800000e-06	3.941259e-06	2.187396e-09	2.788924e+01	1.477439e+02
2.810000e-06	3.972646e-06	2.202003e-09	2.811134e+01	1.485483e+02
2.820000e-06	4.003809e-06	2.216429e-09	2.833185e+01	1.493238e+02
2.830000e-06	4.034591e-06	2.227188e-09	2.854968e+01	1.500709e+02
2.840000e-06	4.065081e-06	2.236937e-09	2.876543e+01	1.507897e+02
2.850000e-06	4.095332e-06	2.247675e-09	2.897949e+01	1.514807e+02
2.860000e-06	4.125297e-06	2.258849e-09	2.919154e+01	1.521441e+02
2.870000e-06	4.155067e-06	2.268918e-09	2.940220e+01	1.527805e+02
2.880000e-06	4.184626e-06	2.277494e-09	2.961136e+01	1.533903e+02
2.890000e-06	4.213922e-06	2.284288e-09	2.981866e+01	1.539741e+02
2.900000e-06	4.242840e-06	2.291137e-09	3.002329e+01	1.545325e+02
