# Temperatura_=_-1.3
# Concentracion g/m^3_=_4090.0
# C_Vs_to_Am_M_A/Vsm_=_65563218390.804596
# pendiente_HvsI_1/m_=_3716.3
# ordenada_HvsI_A/m_=_1297.0
# frecuencia_Hz_=_135082.8173489447

Tiempo_(s)	Campo_(V.s)	Magnetizacion_(V.s)	Campo_(kA/m)	Magnetizacion_(A/m)
0.000000e+00	-5.439269e-06	-2.617750e-09	-3.840496e+01	-1.724882e+02
1.000000e-08	-5.439438e-06	-2.615729e-09	-3.840616e+01	-1.724999e+02
2.000000e-08	-5.439411e-06	-2.615366e-09	-3.840596e+01	-1.725093e+02
3.000000e-08	-5.439157e-06	-2.619785e-09	-3.840417e+01	-1.725170e+02
4.000000e-08	-5.438678e-06	-2.622294e-09	-3.840079e+01	-1.725235e+02
5.000000e-08	-5.437782e-06	-2.617424e-09	-3.839446e+01	-1.725297e+02
6.000000e-08	-5.436167e-06	-2.610170e-09	-3.838306e+01	-1.725364e+02
7.000000e-08	-5.433870e-06	-2.605401e-09	-3.836684e+01	-1.725443e+02
8.000000e-08	-5.431059e-06	-2.611546e-09	-3.834700e+01	-1.725544e+02
9.000000e-08	-5.427653e-06	-2.646255e-09	-3.832294e+01	-1.725676e+02
1.000000e-07	-5.423661e-06	-2.665705e-09	-3.829476e+01	-1.725848e+02
1.100000e-07	-5.419349e-06	-2.603621e-09	-3.826431e+01	-1.726067e+02
1.200000e-07	-5.414972e-06	-2.582231e-09	-3.823341e+01	-1.726344e+02
1.300000e-07	-5.410454e-06	-2.627961e-09	-3.820151e+01	-1.726684e+02
1.400000e-07	-5.405485e-06	-2.655295e-09	-3.816642e+01	-1.727096e+02
1.500000e-07	-5.399980e-06	-2.577504e-09	-3.812756e+01	-1.727584e+02
1.600000e-07	-5.394187e-06	-2.522677e-09	-3.808665e+01	-1.728152e+02
1.700000e-07	-5.388187e-06	-2.621002e-09	-3.804429e+01	-1.728805e+02
1.800000e-07	-5.381608e-06	-2.682160e-09	-3.799784e+01	-1.729544e+02
1.900000e-07	-5.374389e-06	-2.619321e-09	-3.794687e+01	-1.730368e+02
2.000000e-07	-5.366966e-06	-2.576258e-09	-3.789445e+01	-1.731277e+02
2.100000e-07	-5.359448e-06	-2.642346e-09	-3.784137e+01	-1.732267e+02
2.200000e-07	-5.351638e-06	-2.659688e-09	-3.778623e+01	-1.733334e+02
2.300000e-07	-5.343523e-06	-2.606604e-09	-3.772893e+01	-1.734470e+02
2.400000e-07	-5.335244e-06	-2.628413e-09	-3.767048e+01	-1.735668e+02
2.500000e-07	-5.326583e-06	-2.696752e-09	-3.760932e+01	-1.736919e+02
2.600000e-07	-5.317053e-06	-2.682812e-09	-3.754203e+01	-1.738211e+02
2.700000e-07	-5.306761e-06	-2.675195e-09	-3.746936e+01	-1.739533e+02
2.800000e-07	-5.296069e-06	-2.744541e-09	-3.739388e+01	-1.740871e+02
2.900000e-07	-5.284921e-06	-2.760943e-09	-3.731516e+01	-1.742211e+02
3.000000e-07	-5.273325e-06	-2.689426e-09	-3.723328e+01	-1.743538e+02
3.100000e-07	-5.261322e-06	-2.706197e-09	-3.714853e+01	-1.744838e+02
3.200000e-07	-5.248836e-06	-2.794042e-09	-3.706038e+01	-1.746094e+02
3.300000e-07	-5.235919e-06	-2.766886e-09	-3.696917e+01	-1.747291e+02
3.400000e-07	-5.222690e-06	-2.695026e-09	-3.687577e+01	-1.748414e+02
3.500000e-07	-5.209173e-06	-2.725950e-09	-3.678033e+01	-1.749448e+02
3.600000e-07	-5.195207e-06	-2.757679e-09	-3.668172e+01	-1.750380e+02
3.700000e-07	-5.180877e-06	-2.721561e-09	-3.658053e+01	-1.751194e+02
3.800000e-07	-5.166171e-06	-2.712068e-09	-3.647670e+01	-1.751881e+02
3.900000e-07	-5.150853e-06	-2.727961e-09	-3.636855e+01	-1.752428e+02
4.000000e-07	-5.134810e-06	-2.709656e-09	-3.625527e+01	-1.752825e+02
4.100000e-07	-5.118372e-06	-2.720734e-09	-3.613921e+01	-1.753066e+02
4.200000e-07	-5.101665e-06	-2.750024e-09	-3.602124e+01	-1.753144e+02
4.300000e-07	-5.084561e-06	-2.709094e-09	-3.590048e+01	-1.753053e+02
4.400000e-07	-5.067136e-06	-2.679470e-09	-3.577745e+01	-1.752792e+02
4.500000e-07	-5.049436e-06	-2.719445e-09	-3.565247e+01	-1.752359e+02
4.600000e-07	-5.031428e-06	-2.731793e-09	-3.552532e+01	-1.751755e+02
4.700000e-07	-5.013061e-06	-2.689770e-09	-3.539564e+01	-1.750981e+02
4.800000e-07	-4.994342e-06	-2.688649e-09	-3.526347e+01	-1.750044e+02
4.900000e-07	-4.975125e-06	-2.715835e-09	-3.512779e+01	-1.748947e+02
5.000000e-07	-4.955527e-06	-2.717513e-09	-3.498941e+01	-1.747699e+02
5.100000e-07	-4.935717e-06	-2.702126e-09	-3.484954e+01	-1.746308e+02
5.200000e-07	-4.915715e-06	-2.688070e-09	-3.470831e+01	-1.744784e+02
5.300000e-07	-4.895469e-06	-2.684427e-09	-3.456536e+01	-1.743137e+02
5.400000e-07	-4.874936e-06	-2.704731e-09	-3.442039e+01	-1.741379e+02
5.500000e-07	-4.854105e-06	-2.703423e-09	-3.427330e+01	-1.739523e+02
5.600000e-07	-4.832846e-06	-2.672505e-09	-3.412320e+01	-1.737581e+02
5.700000e-07	-4.811201e-06	-2.669546e-09	-3.397037e+01	-1.735566e+02
5.800000e-07	-4.789290e-06	-2.692974e-09	-3.381567e+01	-1.733491e+02
5.900000e-07	-4.767098e-06	-2.687304e-09	-3.365897e+01	-1.731369e+02
6.000000e-07	-4.744562e-06	-2.666940e-09	-3.349985e+01	-1.729213e+02
6.100000e-07	-4.721578e-06	-2.659860e-09	-3.333757e+01	-1.727034e+02
6.200000e-07	-4.698281e-06	-2.662623e-09	-3.317308e+01	-1.724844e+02
6.300000e-07	-4.674757e-06	-2.667890e-09	-3.300698e+01	-1.722654e+02
6.400000e-07	-4.650939e-06	-2.660827e-09	-3.283881e+01	-1.720472e+02
6.500000e-07	-4.626907e-06	-2.638596e-09	-3.266913e+01	-1.718308e+02
6.600000e-07	-4.602714e-06	-2.635952e-09	-3.249831e+01	-1.716168e+02
6.700000e-07	-4.578281e-06	-2.652110e-09	-3.232580e+01	-1.714059e+02
6.800000e-07	-4.553435e-06	-2.645443e-09	-3.215037e+01	-1.711985e+02
6.900000e-07	-4.528065e-06	-2.626242e-09	-3.197124e+01	-1.709950e+02
7.000000e-07	-4.502092e-06	-2.625003e-09	-3.178785e+01	-1.707955e+02
7.100000e-07	-4.475559e-06	-2.633948e-09	-3.160051e+01	-1.706001e+02
7.200000e-07	-4.448575e-06	-2.632011e-09	-3.140998e+01	-1.704087e+02
7.300000e-07	-4.421257e-06	-2.619304e-09	-3.121710e+01	-1.702212e+02
7.400000e-07	-4.393637e-06	-2.608557e-09	-3.102209e+01	-1.700371e+02
7.500000e-07	-4.365790e-06	-2.612927e-09	-3.082547e+01	-1.698562e+02
7.600000e-07	-4.337818e-06	-2.618636e-09	-3.062797e+01	-1.696777e+02
7.700000e-07	-4.309678e-06	-2.611634e-09	-3.042928e+01	-1.695011e+02
7.800000e-07	-4.281294e-06	-2.601007e-09	-3.022886e+01	-1.693258e+02
7.900000e-07	-4.252556e-06	-2.606240e-09	-3.002595e+01	-1.691508e+02
8.000000e-07	-4.223521e-06	-2.612071e-09	-2.982095e+01	-1.689754e+02
8.100000e-07	-4.194171e-06	-2.602161e-09	-2.961372e+01	-1.687988e+02
8.200000e-07	-4.164412e-06	-2.584769e-09	-2.940360e+01	-1.686200e+02
8.300000e-07	-4.134403e-06	-2.578712e-09	-2.919171e+01	-1.684382e+02
8.400000e-07	-4.104139e-06	-2.583129e-09	-2.897803e+01	-1.682525e+02
8.500000e-07	-4.073577e-06	-2.583832e-09	-2.876224e+01	-1.680621e+02
8.600000e-07	-4.042771e-06	-2.574953e-09	-2.854473e+01	-1.678661e+02
8.700000e-07	-4.011653e-06	-2.570887e-09	-2.832502e+01	-1.676638e+02
8.800000e-07	-3.980230e-06	-2.578324e-09	-2.810315e+01	-1.674544e+02
8.900000e-07	-3.948607e-06	-2.581231e-09	-2.787987e+01	-1.672374e+02
9.000000e-07	-3.916798e-06	-2.567055e-09	-2.765528e+01	-1.670122e+02
9.100000e-07	-3.884862e-06	-2.551234e-09	-2.742979e+01	-1.667783e+02
9.200000e-07	-3.852822e-06	-2.548620e-09	-2.720356e+01	-1.665354e+02
9.300000e-07	-3.820563e-06	-2.551455e-09	-2.697579e+01	-1.662833e+02
9.400000e-07	-3.788079e-06	-2.546393e-09	-2.674643e+01	-1.660216e+02
9.500000e-07	-3.755309e-06	-2.538829e-09	-2.651505e+01	-1.657505e+02
9.600000e-07	-3.722088e-06	-2.540388e-09	-2.628049e+01	-1.654699e+02
9.700000e-07	-3.688392e-06	-2.545460e-09	-2.604257e+01	-1.651801e+02
9.800000e-07	-3.654201e-06	-2.539298e-09	-2.580116e+01	-1.648812e+02
9.900000e-07	-3.619453e-06	-2.523078e-09	-2.555581e+01	-1.645735e+02
1.000000e-06	-3.584297e-06	-2.513625e-09	-2.530759e+01	-1.642576e+02
1.010000e-06	-3.548894e-06	-2.513736e-09	-2.505762e+01	-1.639339e+02
1.020000e-06	-3.513303e-06	-2.513929e-09	-2.480632e+01	-1.636030e+02
1.030000e-06	-3.477519e-06	-2.505056e-09	-2.455367e+01	-1.632655e+02
1.040000e-06	-3.441617e-06	-2.497744e-09	-2.430017e+01	-1.629221e+02
1.050000e-06	-3.405628e-06	-2.498254e-09	-2.404607e+01	-1.625734e+02
1.060000e-06	-3.369431e-06	-2.498319e-09	-2.379049e+01	-1.622202e+02
1.070000e-06	-3.333027e-06	-2.488692e-09	-2.353345e+01	-1.618632e+02
1.080000e-06	-3.296403e-06	-2.474906e-09	-2.327486e+01	-1.615031e+02
1.090000e-06	-3.259529e-06	-2.465362e-09	-2.301450e+01	-1.611405e+02
1.100000e-06	-3.222385e-06	-2.459372e-09	-2.275224e+01	-1.607760e+02
1.110000e-06	-3.184948e-06	-2.449785e-09	-2.248791e+01	-1.604103e+02
1.120000e-06	-3.147289e-06	-2.438303e-09	-2.222202e+01	-1.600438e+02
1.130000e-06	-3.109435e-06	-2.436233e-09	-2.195474e+01	-1.596770e+02
1.140000e-06	-3.071436e-06	-2.441243e-09	-2.168644e+01	-1.593101e+02
1.150000e-06	-3.033223e-06	-2.438631e-09	-2.141663e+01	-1.589435e+02
1.160000e-06	-2.994747e-06	-2.423670e-09	-2.114496e+01	-1.585771e+02
1.170000e-06	-2.956092e-06	-2.408007e-09	-2.087203e+01	-1.582111e+02
1.180000e-06	-2.917277e-06	-2.397513e-09	-2.059797e+01	-1.578454e+02
1.190000e-06	-2.878221e-06	-2.387955e-09	-2.032221e+01	-1.574796e+02
1.200000e-06	-2.838940e-06	-2.378311e-09	-2.004486e+01	-1.571135e+02
1.210000e-06	-2.799542e-06	-2.370052e-09	-1.976669e+01	-1.567466e+02
1.220000e-06	-2.759922e-06	-2.367226e-09	-1.948694e+01	-1.563782e+02
1.230000e-06	-2.720122e-06	-2.367084e-09	-1.920592e+01	-1.560078e+02
1.240000e-06	-2.680283e-06	-2.362229e-09	-1.892463e+01	-1.556345e+02
1.250000e-06	-2.640369e-06	-2.352830e-09	-1.864281e+01	-1.552574e+02
1.260000e-06	-2.600347e-06	-2.342901e-09	-1.836023e+01	-1.548756e+02
1.270000e-06	-2.560181e-06	-2.334112e-09	-1.807663e+01	-1.544881e+02
1.280000e-06	-2.519874e-06	-2.325319e-09	-1.779203e+01	-1.540938e+02
1.290000e-06	-2.479425e-06	-2.315561e-09	-1.750644e+01	-1.536915e+02
1.300000e-06	-2.438810e-06	-2.306822e-09	-1.721967e+01	-1.532803e+02
1.310000e-06	-2.398012e-06	-2.302998e-09	-1.693161e+01	-1.528588e+02
1.320000e-06	-2.356962e-06	-2.302255e-09	-1.664177e+01	-1.524261e+02
1.330000e-06	-2.315619e-06	-2.298044e-09	-1.634986e+01	-1.519810e+02
1.340000e-06	-2.274010e-06	-2.288905e-09	-1.605607e+01	-1.515224e+02
1.350000e-06	-2.232033e-06	-2.280145e-09	-1.575968e+01	-1.510495e+02
1.360000e-06	-2.189620e-06	-2.271332e-09	-1.546021e+01	-1.505613e+02
1.370000e-06	-2.146907e-06	-2.260308e-09	-1.515863e+01	-1.500569e+02
1.380000e-06	-2.104072e-06	-2.248714e-09	-1.485619e+01	-1.495357e+02
1.390000e-06	-2.061093e-06	-2.238138e-09	-1.455273e+01	-1.489970e+02
1.400000e-06	-2.017825e-06	-2.230367e-09	-1.424722e+01	-1.484404e+02
1.410000e-06	-1.974335e-06	-2.224926e-09	-1.394016e+01	-1.478654e+02
1.420000e-06	-1.930756e-06	-2.217318e-09	-1.363246e+01	-1.472717e+02
1.430000e-06	-1.887110e-06	-2.206211e-09	-1.332428e+01	-1.466593e+02
1.440000e-06	-1.843347e-06	-2.194577e-09	-1.301529e+01	-1.460280e+02
1.450000e-06	-1.799498e-06	-2.184484e-09	-1.270569e+01	-1.453780e+02
1.460000e-06	-1.755594e-06	-2.173807e-09	-1.239570e+01	-1.447093e+02
1.470000e-06	-1.711608e-06	-2.160805e-09	-1.208512e+01	-1.440223e+02
1.480000e-06	-1.667541e-06	-2.147258e-09	-1.177398e+01	-1.433172e+02
1.490000e-06	-1.623439e-06	-2.134971e-09	-1.146259e+01	-1.425945e+02
1.500000e-06	-1.579277e-06	-2.124020e-09	-1.115077e+01	-1.418545e+02
1.510000e-06	-1.535057e-06	-2.112978e-09	-1.083855e+01	-1.410978e+02
1.520000e-06	-1.490760e-06	-2.100258e-09	-1.052579e+01	-1.403246e+02
1.530000e-06	-1.446386e-06	-2.088858e-09	-1.021248e+01	-1.395355e+02
1.540000e-06	-1.401977e-06	-2.078779e-09	-9.898917e+00	-1.387308e+02
1.550000e-06	-1.357428e-06	-2.065383e-09	-9.584368e+00	-1.379109e+02
1.560000e-06	-1.312755e-06	-2.048119e-09	-9.268950e+00	-1.370759e+02
1.570000e-06	-1.267990e-06	-2.031328e-09	-8.952880e+00	-1.362261e+02
1.580000e-06	-1.223109e-06	-2.016866e-09	-8.635987e+00	-1.353614e+02
1.590000e-06	-1.178037e-06	-2.004885e-09	-8.317744e+00	-1.344817e+02
1.600000e-06	-1.132854e-06	-1.993638e-09	-7.998723e+00	-1.335868e+02
1.610000e-06	-1.087716e-06	-1.982463e-09	-7.680019e+00	-1.326763e+02
1.620000e-06	-1.042437e-06	-1.972158e-09	-7.360316e+00	-1.317495e+02
1.630000e-06	-9.969888e-07	-1.960012e-09	-7.039423e+00	-1.308057e+02
1.640000e-06	-9.514741e-07	-1.944197e-09	-6.718059e+00	-1.298439e+02
1.650000e-06	-9.059492e-07	-1.927097e-09	-6.396621e+00	-1.288630e+02
1.660000e-06	-8.603978e-07	-1.911935e-09	-6.074997e+00	-1.278617e+02
1.670000e-06	-8.147533e-07	-1.895331e-09	-5.752716e+00	-1.268386e+02
1.680000e-06	-7.690483e-07	-1.876808e-09	-5.430007e+00	-1.257920e+02
1.690000e-06	-7.233299e-07	-1.857499e-09	-5.107204e+00	-1.247201e+02
1.700000e-06	-6.776386e-07	-1.841073e-09	-4.784592e+00	-1.236209e+02
1.710000e-06	-6.318746e-07	-1.826479e-09	-4.461467e+00	-1.224925e+02
1.720000e-06	-5.860280e-07	-1.808501e-09	-4.137758e+00	-1.213327e+02
1.730000e-06	-5.400909e-07	-1.786292e-09	-3.813412e+00	-1.201393e+02
1.740000e-06	-4.939880e-07	-1.765753e-09	-3.487893e+00	-1.189099e+02
1.750000e-06	-4.478692e-07	-1.747441e-09	-3.162263e+00	-1.176423e+02
1.760000e-06	-4.017875e-07	-1.728159e-09	-2.836895e+00	-1.163342e+02
1.770000e-06	-3.557318e-07	-1.705008e-09	-2.511710e+00	-1.149831e+02
1.780000e-06	-3.097572e-07	-1.682485e-09	-2.187098e+00	-1.135869e+02
1.790000e-06	-2.637628e-07	-1.665570e-09	-1.862346e+00	-1.121432e+02
1.800000e-06	-2.177484e-07	-1.646592e-09	-1.537452e+00	-1.106499e+02
1.810000e-06	-1.717283e-07	-1.617753e-09	-1.212520e+00	-1.091050e+02
1.820000e-06	-1.257609e-07	-1.587752e-09	-8.879580e-01	-1.075064e+02
1.830000e-06	-7.976947e-08	-1.563163e-09	-5.632270e-01	-1.058525e+02
1.840000e-06	-3.371561e-08	-1.541677e-09	-2.380553e-01	-1.041414e+02
1.850000e-06	1.228842e-08	-1.517546e-09	8.676467e-02	-1.023717e+02
1.860000e-06	5.835355e-08	-1.486988e-09	4.120160e-01	-1.005419e+02
1.870000e-06	1.044395e-07	-1.455821e-09	7.374142e-01	-9.865095e+01
1.880000e-06	1.504879e-07	-1.425170e-09	1.062548e+00	-9.669771e+01
1.890000e-06	1.966108e-07	-1.393441e-09	1.388207e+00	-9.468133e+01
1.900000e-06	2.427461e-07	-1.360427e-09	1.713953e+00	-9.260111e+01
1.910000e-06	2.887894e-07	-1.329944e-09	2.039051e+00	-9.045651e+01
1.920000e-06	3.348534e-07	-1.299845e-09	2.364294e+00	-8.824714e+01
1.930000e-06	3.809678e-07	-1.267153e-09	2.689893e+00	-8.597275e+01
1.940000e-06	4.270140e-07	-1.231950e-09	3.015011e+00	-8.363327e+01
1.950000e-06	4.729328e-07	-1.195638e-09	3.339229e+00	-8.122870e+01
1.960000e-06	5.188594e-07	-1.160199e-09	3.663503e+00	-7.875922e+01
1.970000e-06	5.647723e-07	-1.123938e-09	3.987679e+00	-7.622507e+01
1.980000e-06	6.105610e-07	-1.085164e-09	4.310979e+00	-7.362664e+01
1.990000e-06	6.562709e-07	-1.045647e-09	4.633722e+00	-7.096436e+01
2.000000e-06	7.019222e-07	-1.005584e-09	4.956051e+00	-6.823880e+01
2.010000e-06	7.475815e-07	-9.665594e-10	5.278437e+00	-6.545056e+01
2.020000e-06	7.932402e-07	-9.251652e-10	5.600818e+00	-6.260035e+01
2.030000e-06	8.388408e-07	-8.806538e-10	5.922790e+00	-5.968895e+01
2.040000e-06	8.843481e-07	-8.368284e-10	6.244103e+00	-5.671719e+01
2.050000e-06	9.298110e-07	-7.932307e-10	6.565102e+00	-5.368599e+01
2.060000e-06	9.752557e-07	-7.468259e-10	6.885972e+00	-5.059637e+01
2.070000e-06	1.020614e-06	-6.989657e-10	7.206235e+00	-4.744940e+01
2.080000e-06	1.065926e-06	-6.545206e-10	7.526168e+00	-4.424627e+01
2.090000e-06	1.111125e-06	-6.124205e-10	7.845306e+00	-4.098828e+01
2.100000e-06	1.156188e-06	-5.667184e-10	8.163480e+00	-3.767683e+01
2.110000e-06	1.201191e-06	-5.165967e-10	8.481231e+00	-3.431348e+01
2.120000e-06	1.246106e-06	-4.645076e-10	8.798359e+00	-3.089993e+01
2.130000e-06	1.290932e-06	-4.108203e-10	9.114865e+00	-2.743803e+01
2.140000e-06	1.335709e-06	-3.535558e-10	9.431021e+00	-2.392982e+01
2.150000e-06	1.380337e-06	-2.952515e-10	9.746124e+00	-2.037756e+01
2.160000e-06	1.424806e-06	-2.411910e-10	1.006010e+01	-1.678368e+01
2.170000e-06	1.469175e-06	-1.921008e-10	1.037338e+01	-1.315086e+01
2.180000e-06	1.513410e-06	-1.435410e-10	1.068571e+01	-9.482002e+00
2.190000e-06	1.557626e-06	-9.048268e-11	1.099791e+01	-5.780265e+00
2.200000e-06	1.601784e-06	-3.463179e-11	1.130969e+01	-2.049043e+00
2.210000e-06	1.645859e-06	1.963475e-11	1.162089e+01	1.708014e+00
2.220000e-06	1.689912e-06	7.459727e-11	1.193194e+01	5.487010e+00
2.230000e-06	1.733855e-06	1.358330e-10	1.224220e+01	9.283802e+00
2.240000e-06	1.777717e-06	1.991237e-10	1.255190e+01	1.309402e+01
2.250000e-06	1.821560e-06	2.588878e-10	1.286146e+01	1.691306e+01
2.260000e-06	1.865368e-06	3.139933e-10	1.317078e+01	2.073613e+01
2.270000e-06	1.909060e-06	3.668780e-10	1.347927e+01	2.455827e+01
2.280000e-06	1.952622e-06	4.192294e-10	1.378685e+01	2.837434e+01
2.290000e-06	1.996102e-06	4.706064e-10	1.409384e+01	3.217910e+01
2.300000e-06	2.039495e-06	5.224061e-10	1.440023e+01	3.596721e+01
2.310000e-06	2.082665e-06	5.776432e-10	1.470504e+01	3.973331e+01
2.320000e-06	2.125534e-06	6.373270e-10	1.500772e+01	4.347200e+01
2.330000e-06	2.168244e-06	6.971288e-10	1.530929e+01	4.717793e+01
2.340000e-06	2.210709e-06	7.533913e-10	1.560912e+01	5.084583e+01
2.350000e-06	2.252848e-06	8.097212e-10	1.590665e+01	5.447054e+01
2.360000e-06	2.294660e-06	8.672414e-10	1.620187e+01	5.804708e+01
2.370000e-06	2.336042e-06	9.210405e-10	1.649406e+01	6.157067e+01
2.380000e-06	2.377133e-06	9.694424e-10	1.678419e+01	6.503680e+01
2.390000e-06	2.417925e-06	1.015604e-09	1.707221e+01	6.844123e+01
2.400000e-06	2.458478e-06	1.061494e-09	1.735854e+01	7.178007e+01
2.410000e-06	2.498959e-06	1.108503e-09	1.764436e+01	7.504977e+01
2.420000e-06	2.539245e-06	1.153733e-09	1.792881e+01	7.824720e+01
2.430000e-06	2.579369e-06	1.201980e-09	1.821211e+01	8.136962e+01
2.440000e-06	2.619386e-06	1.251694e-09	1.849466e+01	8.441475e+01
2.450000e-06	2.659307e-06	1.298771e-09	1.877653e+01	8.738074e+01
2.460000e-06	2.699194e-06	1.338755e-09	1.905816e+01	9.026621e+01
2.470000e-06	2.738974e-06	1.375719e-09	1.933903e+01	9.307022e+01
2.480000e-06	2.778542e-06	1.413729e-09	1.961841e+01	9.579231e+01
2.490000e-06	2.817944e-06	1.447982e-09	1.989661e+01	9.843242e+01
2.500000e-06	2.857176e-06	1.481105e-09	2.017362e+01	1.009910e+02
2.510000e-06	2.896113e-06	1.517136e-09	2.044854e+01	1.034687e+02
2.520000e-06	2.934838e-06	1.558451e-09	2.072196e+01	1.058669e+02
2.530000e-06	2.973433e-06	1.596350e-09	2.099448e+01	1.081869e+02
2.540000e-06	3.011828e-06	1.623978e-09	2.126557e+01	1.104307e+02
2.550000e-06	3.050011e-06	1.648739e-09	2.153517e+01	1.126003e+02
2.560000e-06	3.088011e-06	1.681650e-09	2.180347e+01	1.146980e+02
2.570000e-06	3.125866e-06	1.717633e-09	2.207076e+01	1.167263e+02
2.580000e-06	3.163538e-06	1.747260e-09	2.233674e+01	1.186878e+02
2.590000e-06	3.200960e-06	1.771212e-09	2.260097e+01	1.205853e+02
2.600000e-06	3.238141e-06	1.797337e-09	2.286349e+01	1.224216e+02
2.610000e-06	3.274970e-06	1.823402e-09	2.312353e+01	1.241993e+02
2.620000e-06	3.311538e-06	1.845256e-09	2.338172e+01	1.259212e+02
2.630000e-06	3.347886e-06	1.866153e-09	2.363837e+01	1.275899e+02
2.640000e-06	3.384059e-06	1.893535e-09	2.389377e+01	1.292080e+02
2.650000e-06	3.420176e-06	1.924762e-09	2.414878e+01	1.307778e+02
2.660000e-06	3.456156e-06	1.951057e-09	2.440283e+01	1.323016e+02
2.670000e-06	3.491968e-06	1.969618e-09	2.465569e+01	1.337813e+02
2.680000e-06	3.527641e-06	1.987456e-09	2.490756e+01	1.352188e+02
2.690000e-06	3.563156e-06	2.006304e-09	2.515832e+01	1.366155e+02
2.700000e-06	3.598316e-06	2.021583e-09	2.540657e+01	1.379729e+02
2.710000e-06	3.632991e-06	2.034061e-09	2.565140e+01	1.392921e+02
2.720000e-06	3.667232e-06	2.050305e-09	2.589317e+01	1.405740e+02
2.730000e-06	3.701087e-06	2.072954e-09	2.613221e+01	1.418192e+02
2.740000e-06	3.734515e-06	2.096657e-09	2.636823e+01	1.430282e+02
2.750000e-06	3.767501e-06	2.116315e-09	2.660114e+01	1.442014e+02
2.760000e-06	3.800106e-06	2.133999e-09	2.683135e+01	1.453388e+02
2.770000e-06	3.832460e-06	2.150659e-09	2.705979e+01	1.464407e+02
2.780000e-06	3.864613e-06	2.162654e-09	2.728682e+01	1.475067e+02
2.790000e-06	3.896600e-06	2.171677e-09	2.751267e+01	1.485369e+02
2.800000e-06	3.928415e-06	2.182855e-09	2.773730e+01	1.495311e+02
2.810000e-06	3.960032e-06	2.198713e-09	2.796053e+01	1.504889e+02
2.820000e-06	3.991453e-06	2.214648e-09	2.818239e+01	1.514104e+02
2.830000e-06	4.022614e-06	2.228525e-09	2.840241e+01	1.522954e+02
2.840000e-06	4.053541e-06	2.241195e-09	2.862077e+01	1.531438e+02
2.850000e-06	4.084149e-06	2.254341e-09	2.883689e+01	1.539558e+02
2.860000e-06	4.114363e-06	2.264426e-09	2.905022e+01	1.547315e+02
2.870000e-06	4.144358e-06	2.272848e-09	2.926200e+01	1.554712e+02
2.880000e-06	4.174116e-06	2.283835e-09	2.947211e+01	1.561756e+02
2.890000e-06	4.203602e-06	2.294508e-09	2.968031e+01	1.568451e+02
2.900000e-06	4.232822e-06	2.299942e-09	2.988662e+01	1.574808e+02
