# Temperatura_=_-3.77
# Concentracion g/m^3_=_4090.0
# C_Vs_to_Am_M_A/Vsm_=_65563218390.804596
# pendiente_HvsI_1/m_=_3716.3
# ordenada_HvsI_A/m_=_1297.0
# frecuencia_Hz_=_135076.66389392235

Tiempo_(s)	Campo_(V.s)	Magnetizacion_(V.s)	Campo_(kA/m)	Magnetizacion_(A/m)
0.000000e+00	-5.424069e-06	-2.361285e-09	-3.839892e+01	-1.521221e+02
1.000000e-08	-5.424176e-06	-2.359800e-09	-3.839968e+01	-1.520864e+02
2.000000e-08	-5.424024e-06	-2.358272e-09	-3.839860e+01	-1.520498e+02
3.000000e-08	-5.423562e-06	-2.357483e-09	-3.839533e+01	-1.520136e+02
4.000000e-08	-5.422699e-06	-2.356324e-09	-3.838922e+01	-1.519792e+02
5.000000e-08	-5.421256e-06	-2.358637e-09	-3.837900e+01	-1.519477e+02
6.000000e-08	-5.419163e-06	-2.383393e-09	-3.836419e+01	-1.519206e+02
7.000000e-08	-5.416506e-06	-2.407521e-09	-3.834538e+01	-1.518992e+02
8.000000e-08	-5.413278e-06	-2.334917e-09	-3.832252e+01	-1.518848e+02
9.000000e-08	-5.409501e-06	-2.226043e-09	-3.829579e+01	-1.518786e+02
1.000000e-07	-5.405369e-06	-2.333201e-09	-3.826653e+01	-1.518816e+02
1.100000e-07	-5.401066e-06	-2.477650e-09	-3.823608e+01	-1.518949e+02
1.200000e-07	-5.396518e-06	-2.378806e-09	-3.820388e+01	-1.519191e+02
1.300000e-07	-5.391660e-06	-2.181269e-09	-3.816948e+01	-1.519551e+02
1.400000e-07	-5.386489e-06	-2.298414e-09	-3.813288e+01	-1.520031e+02
1.500000e-07	-5.380872e-06	-2.541236e-09	-3.809311e+01	-1.520636e+02
1.600000e-07	-5.374798e-06	-2.404668e-09	-3.805011e+01	-1.521365e+02
1.700000e-07	-5.368368e-06	-2.145177e-09	-3.800459e+01	-1.522217e+02
1.800000e-07	-5.361591e-06	-2.256989e-09	-3.795662e+01	-1.523188e+02
1.900000e-07	-5.354392e-06	-2.489472e-09	-3.790565e+01	-1.524273e+02
2.000000e-07	-5.346849e-06	-2.363987e-09	-3.785225e+01	-1.525462e+02
2.100000e-07	-5.339188e-06	-2.211677e-09	-3.779802e+01	-1.526748e+02
2.200000e-07	-5.331298e-06	-2.354869e-09	-3.774216e+01	-1.528116e+02
2.300000e-07	-5.322983e-06	-2.447011e-09	-3.768329e+01	-1.529555e+02
2.400000e-07	-5.314213e-06	-2.274724e-09	-3.762121e+01	-1.531049e+02
2.500000e-07	-5.304953e-06	-2.261316e-09	-3.755566e+01	-1.532581e+02
2.600000e-07	-5.295148e-06	-2.433777e-09	-3.748625e+01	-1.534135e+02
2.700000e-07	-5.284609e-06	-2.394079e-09	-3.741163e+01	-1.535693e+02
2.800000e-07	-5.273431e-06	-2.246977e-09	-3.733250e+01	-1.537235e+02
2.900000e-07	-5.261955e-06	-2.376889e-09	-3.725126e+01	-1.538744e+02
3.000000e-07	-5.250159e-06	-2.498856e-09	-3.716775e+01	-1.540200e+02
3.100000e-07	-5.237989e-06	-2.337077e-09	-3.708159e+01	-1.541586e+02
3.200000e-07	-5.225483e-06	-2.257074e-09	-3.699306e+01	-1.542884e+02
3.300000e-07	-5.212496e-06	-2.424269e-09	-3.690112e+01	-1.544078e+02
3.400000e-07	-5.198988e-06	-2.450912e-09	-3.680549e+01	-1.545152e+02
3.500000e-07	-5.185175e-06	-2.342077e-09	-3.670770e+01	-1.546092e+02
3.600000e-07	-5.170958e-06	-2.375628e-09	-3.660705e+01	-1.546887e+02
3.700000e-07	-5.156247e-06	-2.425297e-09	-3.650291e+01	-1.547525e+02
3.800000e-07	-5.141088e-06	-2.358255e-09	-3.639560e+01	-1.547999e+02
3.900000e-07	-5.125403e-06	-2.358209e-09	-3.628456e+01	-1.548301e+02
4.000000e-07	-5.109056e-06	-2.394837e-09	-3.616883e+01	-1.548427e+02
4.100000e-07	-5.092157e-06	-2.321736e-09	-3.604920e+01	-1.548376e+02
4.200000e-07	-5.075092e-06	-2.323846e-09	-3.592838e+01	-1.548146e+02
4.300000e-07	-5.057831e-06	-2.432914e-09	-3.580619e+01	-1.547739e+02
4.400000e-07	-5.040206e-06	-2.413944e-09	-3.568142e+01	-1.547160e+02
4.500000e-07	-5.022285e-06	-2.307546e-09	-3.555454e+01	-1.546413e+02
4.600000e-07	-5.004089e-06	-2.341540e-09	-3.542573e+01	-1.545506e+02
4.700000e-07	-4.985417e-06	-2.390593e-09	-3.529355e+01	-1.544448e+02
4.800000e-07	-4.966285e-06	-2.344602e-09	-3.515810e+01	-1.543249e+02
4.900000e-07	-4.946885e-06	-2.305477e-09	-3.502076e+01	-1.541920e+02
5.000000e-07	-4.927217e-06	-2.336658e-09	-3.488153e+01	-1.540473e+02
5.100000e-07	-4.907259e-06	-2.359342e-09	-3.474023e+01	-1.538920e+02
5.200000e-07	-4.887064e-06	-2.371760e-09	-3.459727e+01	-1.537274e+02
5.300000e-07	-4.866664e-06	-2.346438e-09	-3.445285e+01	-1.535549e+02
5.400000e-07	-4.845954e-06	-2.307060e-09	-3.430623e+01	-1.533757e+02
5.500000e-07	-4.824867e-06	-2.312763e-09	-3.415695e+01	-1.531910e+02
5.600000e-07	-4.803451e-06	-2.346358e-09	-3.400534e+01	-1.530020e+02
5.700000e-07	-4.781670e-06	-2.323558e-09	-3.385115e+01	-1.528099e+02
5.800000e-07	-4.759519e-06	-2.290744e-09	-3.369434e+01	-1.526157e+02
5.900000e-07	-4.737120e-06	-2.303330e-09	-3.353576e+01	-1.524202e+02
6.000000e-07	-4.714460e-06	-2.334022e-09	-3.337534e+01	-1.522241e+02
6.100000e-07	-4.691439e-06	-2.327331e-09	-3.321237e+01	-1.520283e+02
6.200000e-07	-4.668088e-06	-2.288276e-09	-3.304706e+01	-1.518330e+02
6.300000e-07	-4.644470e-06	-2.265593e-09	-3.287986e+01	-1.516388e+02
6.400000e-07	-4.620623e-06	-2.288000e-09	-3.271104e+01	-1.514457e+02
6.500000e-07	-4.596564e-06	-2.306861e-09	-3.254072e+01	-1.512539e+02
6.600000e-07	-4.572242e-06	-2.281737e-09	-3.236853e+01	-1.510632e+02
6.700000e-07	-4.547555e-06	-2.262396e-09	-3.219377e+01	-1.508735e+02
6.800000e-07	-4.522405e-06	-2.280744e-09	-3.201572e+01	-1.506845e+02
6.900000e-07	-4.496703e-06	-2.297723e-09	-3.183376e+01	-1.504957e+02
7.000000e-07	-4.470531e-06	-2.275382e-09	-3.164848e+01	-1.503067e+02
7.100000e-07	-4.443893e-06	-2.245804e-09	-3.145990e+01	-1.501167e+02
7.200000e-07	-4.416791e-06	-2.243648e-09	-3.126804e+01	-1.499253e+02
7.300000e-07	-4.389343e-06	-2.267985e-09	-3.107373e+01	-1.497318e+02
7.400000e-07	-4.361568e-06	-2.269620e-09	-3.087710e+01	-1.495354e+02
7.500000e-07	-4.333584e-06	-2.245221e-09	-3.067899e+01	-1.493355e+02
7.600000e-07	-4.305497e-06	-2.233665e-09	-3.048015e+01	-1.491314e+02
7.700000e-07	-4.277221e-06	-2.250677e-09	-3.027997e+01	-1.489225e+02
7.800000e-07	-4.248675e-06	-2.250189e-09	-3.007789e+01	-1.487082e+02
7.900000e-07	-4.219876e-06	-2.226304e-09	-2.987400e+01	-1.484881e+02
8.000000e-07	-4.190716e-06	-2.208375e-09	-2.966757e+01	-1.482616e+02
8.100000e-07	-4.161189e-06	-2.222156e-09	-2.945854e+01	-1.480284e+02
8.200000e-07	-4.131406e-06	-2.238809e-09	-2.924770e+01	-1.477884e+02
8.300000e-07	-4.101393e-06	-2.231709e-09	-2.903522e+01	-1.475412e+02
8.400000e-07	-4.071116e-06	-2.210527e-09	-2.882089e+01	-1.472871e+02
8.500000e-07	-4.040613e-06	-2.207408e-09	-2.860494e+01	-1.470259e+02
8.600000e-07	-4.009875e-06	-2.211806e-09	-2.838734e+01	-1.467578e+02
8.700000e-07	-3.978803e-06	-2.200830e-09	-2.816736e+01	-1.464832e+02
8.800000e-07	-3.947440e-06	-2.175556e-09	-2.794534e+01	-1.462024e+02
8.900000e-07	-3.915891e-06	-2.170256e-09	-2.772199e+01	-1.459158e+02
9.000000e-07	-3.884103e-06	-2.186852e-09	-2.749695e+01	-1.456239e+02
9.100000e-07	-3.852066e-06	-2.194882e-09	-2.727015e+01	-1.453274e+02
9.200000e-07	-3.819853e-06	-2.182169e-09	-2.704210e+01	-1.450268e+02
9.300000e-07	-3.787463e-06	-2.171634e-09	-2.681281e+01	-1.447227e+02
9.400000e-07	-3.754855e-06	-2.175720e-09	-2.658196e+01	-1.444160e+02
9.500000e-07	-3.721940e-06	-2.174154e-09	-2.634894e+01	-1.441071e+02
9.600000e-07	-3.688594e-06	-2.155511e-09	-2.611287e+01	-1.437969e+02
9.700000e-07	-3.654757e-06	-2.138459e-09	-2.587333e+01	-1.434858e+02
9.800000e-07	-3.620398e-06	-2.142276e-09	-2.563009e+01	-1.431744e+02
9.900000e-07	-3.585586e-06	-2.153257e-09	-2.538365e+01	-1.428634e+02
1.000000e-06	-3.550466e-06	-2.154048e-09	-2.513501e+01	-1.425531e+02
1.010000e-06	-3.515024e-06	-2.146928e-09	-2.488411e+01	-1.422439e+02
1.020000e-06	-3.479327e-06	-2.145408e-09	-2.463140e+01	-1.419360e+02
1.030000e-06	-3.443544e-06	-2.142155e-09	-2.437808e+01	-1.416297e+02
1.040000e-06	-3.407660e-06	-2.130601e-09	-2.412404e+01	-1.413250e+02
1.050000e-06	-3.371583e-06	-2.111602e-09	-2.386864e+01	-1.410219e+02
1.060000e-06	-3.335371e-06	-2.103130e-09	-2.361228e+01	-1.407202e+02
1.070000e-06	-3.298966e-06	-2.106667e-09	-2.335456e+01	-1.404198e+02
1.080000e-06	-3.262346e-06	-2.109047e-09	-2.309531e+01	-1.401202e+02
1.090000e-06	-3.225474e-06	-2.101711e-09	-2.283428e+01	-1.398211e+02
1.100000e-06	-3.188301e-06	-2.096499e-09	-2.257112e+01	-1.395218e+02
1.110000e-06	-3.150870e-06	-2.096414e-09	-2.230614e+01	-1.392219e+02
1.120000e-06	-3.113184e-06	-2.094293e-09	-2.203934e+01	-1.389206e+02
1.130000e-06	-3.075314e-06	-2.081059e-09	-2.177125e+01	-1.386172e+02
1.140000e-06	-3.037230e-06	-2.066161e-09	-2.150164e+01	-1.383110e+02
1.150000e-06	-2.998961e-06	-2.060329e-09	-2.123072e+01	-1.380011e+02
1.160000e-06	-2.960554e-06	-2.060539e-09	-2.095882e+01	-1.376867e+02
1.170000e-06	-2.921946e-06	-2.054125e-09	-2.068550e+01	-1.373670e+02
1.180000e-06	-2.883100e-06	-2.044467e-09	-2.041049e+01	-1.370412e+02
1.190000e-06	-2.844012e-06	-2.040854e-09	-2.013378e+01	-1.367085e+02
1.200000e-06	-2.804698e-06	-2.040006e-09	-1.985546e+01	-1.363682e+02
1.210000e-06	-2.765169e-06	-2.030037e-09	-1.957562e+01	-1.360195e+02
1.220000e-06	-2.725444e-06	-2.013501e-09	-1.929439e+01	-1.356618e+02
1.230000e-06	-2.685596e-06	-2.000780e-09	-1.901229e+01	-1.352945e+02
1.240000e-06	-2.645707e-06	-1.995251e-09	-1.872990e+01	-1.349170e+02
1.250000e-06	-2.605739e-06	-1.990836e-09	-1.844695e+01	-1.345290e+02
1.260000e-06	-2.565671e-06	-1.982126e-09	-1.816330e+01	-1.341301e+02
1.270000e-06	-2.525501e-06	-1.973323e-09	-1.787892e+01	-1.337200e+02
1.280000e-06	-2.485221e-06	-1.967703e-09	-1.759376e+01	-1.332985e+02
1.290000e-06	-2.444850e-06	-1.962241e-09	-1.730797e+01	-1.328655e+02
1.300000e-06	-2.404286e-06	-1.950182e-09	-1.702080e+01	-1.324208e+02
1.310000e-06	-2.363479e-06	-1.940093e-09	-1.673191e+01	-1.319646e+02
1.320000e-06	-2.322377e-06	-1.934369e-09	-1.644093e+01	-1.314969e+02
1.330000e-06	-2.281032e-06	-1.927189e-09	-1.614824e+01	-1.310179e+02
1.340000e-06	-2.239414e-06	-1.916258e-09	-1.585361e+01	-1.305276e+02
1.350000e-06	-2.197452e-06	-1.904652e-09	-1.555655e+01	-1.300264e+02
1.360000e-06	-2.155214e-06	-1.894433e-09	-1.525753e+01	-1.295143e+02
1.370000e-06	-2.112653e-06	-1.887851e-09	-1.495623e+01	-1.289917e+02
1.380000e-06	-2.069791e-06	-1.878159e-09	-1.465279e+01	-1.284587e+02
1.390000e-06	-2.026765e-06	-1.865761e-09	-1.434819e+01	-1.279156e+02
1.400000e-06	-1.983605e-06	-1.858121e-09	-1.404265e+01	-1.273625e+02
1.410000e-06	-1.940292e-06	-1.855307e-09	-1.373602e+01	-1.267996e+02
1.420000e-06	-1.896802e-06	-1.847841e-09	-1.342814e+01	-1.262270e+02
1.430000e-06	-1.853148e-06	-1.834595e-09	-1.311909e+01	-1.256447e+02
1.440000e-06	-1.809351e-06	-1.821180e-09	-1.280904e+01	-1.250527e+02
1.450000e-06	-1.765505e-06	-1.810591e-09	-1.249864e+01	-1.244508e+02
1.460000e-06	-1.721695e-06	-1.799147e-09	-1.218850e+01	-1.238390e+02
1.470000e-06	-1.677795e-06	-1.785637e-09	-1.187771e+01	-1.232170e+02
1.480000e-06	-1.633779e-06	-1.773993e-09	-1.156610e+01	-1.225845e+02
1.490000e-06	-1.589671e-06	-1.767035e-09	-1.125385e+01	-1.219410e+02
1.500000e-06	-1.545546e-06	-1.761305e-09	-1.094147e+01	-1.212861e+02
1.510000e-06	-1.501372e-06	-1.752172e-09	-1.062875e+01	-1.206193e+02
1.520000e-06	-1.457079e-06	-1.740691e-09	-1.031518e+01	-1.199400e+02
1.530000e-06	-1.412756e-06	-1.731056e-09	-1.000140e+01	-1.192474e+02
1.540000e-06	-1.368443e-06	-1.722389e-09	-9.687693e+00	-1.185409e+02
1.550000e-06	-1.323986e-06	-1.711366e-09	-9.372970e+00	-1.178197e+02
1.560000e-06	-1.279371e-06	-1.698949e-09	-9.057124e+00	-1.170829e+02
1.570000e-06	-1.234726e-06	-1.689103e-09	-8.741068e+00	-1.163298e+02
1.580000e-06	-1.189937e-06	-1.682300e-09	-8.423992e+00	-1.155595e+02
1.590000e-06	-1.145007e-06	-1.672096e-09	-8.105910e+00	-1.147710e+02
1.600000e-06	-1.099998e-06	-1.657653e-09	-7.787279e+00	-1.139636e+02
1.610000e-06	-1.054861e-06	-1.643174e-09	-7.467740e+00	-1.131363e+02
1.620000e-06	-1.009651e-06	-1.630187e-09	-7.147682e+00	-1.122884e+02
1.630000e-06	-9.643395e-07	-1.616085e-09	-6.826904e+00	-1.114188e+02
1.640000e-06	-9.189334e-07	-1.601145e-09	-6.505457e+00	-1.105268e+02
1.650000e-06	-8.735098e-07	-1.588391e-09	-6.183888e+00	-1.096116e+02
1.660000e-06	-8.280508e-07	-1.580145e-09	-5.862067e+00	-1.086724e+02
1.670000e-06	-7.824814e-07	-1.570951e-09	-5.539465e+00	-1.077085e+02
1.680000e-06	-7.368409e-07	-1.553595e-09	-5.216360e+00	-1.067190e+02
1.690000e-06	-6.912424e-07	-1.531498e-09	-4.893552e+00	-1.057032e+02
1.700000e-06	-6.455486e-07	-1.513633e-09	-4.570069e+00	-1.046604e+02
1.710000e-06	-5.997254e-07	-1.498831e-09	-4.245670e+00	-1.035900e+02
1.720000e-06	-5.539306e-07	-1.481852e-09	-3.921472e+00	-1.024910e+02
1.730000e-06	-5.081480e-07	-1.464323e-09	-3.597361e+00	-1.013628e+02
1.740000e-06	-4.622880e-07	-1.451832e-09	-3.272702e+00	-1.002047e+02
1.750000e-06	-4.163461e-07	-1.439429e-09	-2.947462e+00	-9.901567e+01
1.760000e-06	-3.703666e-07	-1.420552e-09	-2.621957e+00	-9.779498e+01
1.770000e-06	-3.244457e-07	-1.395707e-09	-2.296867e+00	-9.654163e+01
1.780000e-06	-2.785272e-07	-1.371698e-09	-1.971794e+00	-9.525460e+01
1.790000e-06	-2.325099e-07	-1.350927e-09	-1.646021e+00	-9.393278e+01
1.800000e-06	-1.865254e-07	-1.328350e-09	-1.320480e+00	-9.257496e+01
1.810000e-06	-1.406000e-07	-1.303946e-09	-9.953575e-01	-9.117979e+01
1.820000e-06	-9.465995e-08	-1.284095e-09	-6.701316e-01	-8.974585e+01
1.830000e-06	-4.869264e-08	-1.267980e-09	-3.447125e-01	-8.827155e+01
1.840000e-06	-2.670652e-09	-1.249119e-09	-1.890650e-02	-8.675521e+01
1.850000e-06	4.337056e-08	-1.223558e-09	3.070357e-01	-8.519500e+01
1.860000e-06	8.936625e-08	-1.195064e-09	6.326556e-01	-8.358897e+01
1.870000e-06	1.353320e-07	-1.167657e-09	9.580637e-01	-8.193506e+01
1.880000e-06	1.812735e-07	-1.137569e-09	1.283300e+00	-8.023108e+01
1.890000e-06	2.272340e-07	-1.103838e-09	1.608671e+00	-7.847478e+01
1.900000e-06	2.732103e-07	-1.072775e-09	1.934153e+00	-7.666379e+01
1.910000e-06	3.190868e-07	-1.047195e-09	2.258929e+00	-7.479570e+01
1.920000e-06	3.649567e-07	-1.020500e-09	2.583658e+00	-7.286805e+01
1.930000e-06	4.109212e-07	-9.908229e-10	2.909058e+00	-7.087840e+01
1.940000e-06	4.568723e-07	-9.579621e-10	3.234362e+00	-6.882428e+01
1.950000e-06	5.027109e-07	-9.291492e-10	3.558870e+00	-6.670331e+01
1.960000e-06	5.484364e-07	-9.004616e-10	3.882577e+00	-6.451318e+01
1.970000e-06	5.941402e-07	-8.660303e-10	4.206131e+00	-6.225170e+01
1.980000e-06	6.397872e-07	-8.268841e-10	4.529282e+00	-5.991683e+01
1.990000e-06	6.853667e-07	-7.893559e-10	4.851956e+00	-5.750676e+01
2.000000e-06	7.309625e-07	-7.553950e-10	5.174745e+00	-5.501989e+01
2.010000e-06	7.765475e-07	-7.175700e-10	5.497457e+00	-5.245491e+01
2.020000e-06	8.220568e-07	-6.742708e-10	5.819633e+00	-4.981082e+01
2.030000e-06	8.674715e-07	-6.322048e-10	6.141140e+00	-4.708697e+01
2.040000e-06	9.128347e-07	-5.938442e-10	6.462282e+00	-4.428310e+01
2.050000e-06	9.581276e-07	-5.536390e-10	6.782927e+00	-4.139939e+01
2.060000e-06	1.003389e-06	-5.115093e-10	7.103346e+00	-3.843642e+01
2.070000e-06	1.048599e-06	-4.692518e-10	7.423408e+00	-3.539530e+01
2.080000e-06	1.093717e-06	-4.270437e-10	7.742811e+00	-3.227760e+01
2.090000e-06	1.138705e-06	-3.839103e-10	8.061297e+00	-2.908539e+01
2.100000e-06	1.183571e-06	-3.374843e-10	8.378920e+00	-2.582127e+01
2.110000e-06	1.228392e-06	-2.875506e-10	8.696224e+00	-2.248839e+01
2.120000e-06	1.273093e-06	-2.348470e-10	9.012678e+00	-1.909036e+01
2.130000e-06	1.317670e-06	-1.803202e-10	9.328254e+00	-1.563136e+01
2.140000e-06	1.362174e-06	-1.262059e-10	9.643314e+00	-1.211603e+01
2.150000e-06	1.406557e-06	-7.368359e-11	9.957515e+00	-8.549494e+00
2.160000e-06	1.450810e-06	-2.281455e-11	1.027080e+01	-4.937336e+00
2.170000e-06	1.494985e-06	2.734951e-11	1.058354e+01	-1.285546e+00
2.180000e-06	1.539115e-06	7.789934e-11	1.089594e+01	2.399510e+00
2.190000e-06	1.583172e-06	1.310540e-10	1.120784e+01	6.111131e+00
2.200000e-06	1.627197e-06	1.872527e-10	1.151951e+01	9.842334e+00
2.210000e-06	1.671191e-06	2.465088e-10	1.183096e+01	1.358591e+01
2.220000e-06	1.715105e-06	3.039821e-10	1.214184e+01	1.733447e+01
2.230000e-06	1.758975e-06	3.599617e-10	1.245241e+01	2.108052e+01
2.240000e-06	1.802774e-06	4.156775e-10	1.276248e+01	2.481652e+01
2.250000e-06	1.846480e-06	4.724772e-10	1.307189e+01	2.853493e+01
2.260000e-06	1.890100e-06	5.275686e-10	1.338069e+01	3.222831e+01
2.270000e-06	1.933633e-06	5.809298e-10	1.368888e+01	3.588935e+01
2.280000e-06	1.977024e-06	6.327952e-10	1.399606e+01	3.951095e+01
2.290000e-06	2.020208e-06	6.820373e-10	1.430177e+01	4.308627e+01
2.300000e-06	2.063216e-06	7.328644e-10	1.460625e+01	4.660880e+01
2.310000e-06	2.106071e-06	7.848538e-10	1.490963e+01	5.007240e+01
2.320000e-06	2.148610e-06	8.333234e-10	1.521078e+01	5.347139e+01
2.330000e-06	2.190838e-06	8.788381e-10	1.550972e+01	5.680051e+01
2.340000e-06	2.232882e-06	9.247045e-10	1.580737e+01	6.005506e+01
2.350000e-06	2.274607e-06	9.726375e-10	1.610276e+01	6.323086e+01
2.360000e-06	2.316020e-06	1.019403e-09	1.639593e+01	6.632430e+01
2.370000e-06	2.357158e-06	1.060912e-09	1.668716e+01	6.933236e+01
2.380000e-06	2.398023e-06	1.098794e-09	1.697646e+01	7.225262e+01
2.390000e-06	2.438682e-06	1.136764e-09	1.726430e+01	7.508328e+01
2.400000e-06	2.479140e-06	1.172737e-09	1.755072e+01	7.782311e+01
2.410000e-06	2.519419e-06	1.204788e-09	1.783586e+01	8.047149e+01
2.420000e-06	2.559532e-06	1.239160e-09	1.811984e+01	8.302836e+01
2.430000e-06	2.599581e-06	1.279626e-09	1.840336e+01	8.549423e+01
2.440000e-06	2.639575e-06	1.322042e-09	1.868650e+01	8.787010e+01
2.450000e-06	2.679462e-06	1.358087e-09	1.896887e+01	9.015747e+01
2.460000e-06	2.719245e-06	1.389517e-09	1.925051e+01	9.235826e+01
2.470000e-06	2.758857e-06	1.418811e-09	1.953094e+01	9.447480e+01
2.480000e-06	2.798254e-06	1.447037e-09	1.980984e+01	9.650977e+01
2.490000e-06	2.837455e-06	1.472281e-09	2.008736e+01	9.846614e+01
2.500000e-06	2.876444e-06	1.495126e-09	2.036338e+01	1.003471e+02
2.510000e-06	2.915167e-06	1.523374e-09	2.063751e+01	1.021560e+02
2.520000e-06	2.953655e-06	1.556752e-09	2.090998e+01	1.038965e+02
2.530000e-06	2.991997e-06	1.586623e-09	2.118141e+01	1.055720e+02
2.540000e-06	3.030134e-06	1.610590e-09	2.145140e+01	1.071863e+02
2.550000e-06	3.068061e-06	1.633384e-09	2.171990e+01	1.087428e+02
2.560000e-06	3.105865e-06	1.657074e-09	2.198752e+01	1.102452e+02
2.570000e-06	3.143469e-06	1.676255e-09	2.225374e+01	1.116969e+02
2.580000e-06	3.180884e-06	1.690540e-09	2.251862e+01	1.131010e+02
2.590000e-06	3.218063e-06	1.708335e-09	2.278181e+01	1.144606e+02
2.600000e-06	3.254918e-06	1.733632e-09	2.304272e+01	1.157785e+02
2.610000e-06	3.291614e-06	1.757771e-09	2.330251e+01	1.170575e+02
2.620000e-06	3.328071e-06	1.775869e-09	2.356060e+01	1.182997e+02
2.630000e-06	3.364217e-06	1.792624e-09	2.381649e+01	1.195072e+02
2.640000e-06	3.400238e-06	1.811338e-09	2.407150e+01	1.206819e+02
2.650000e-06	3.436190e-06	1.828320e-09	2.432601e+01	1.218253e+02
2.660000e-06	3.471981e-06	1.840453e-09	2.457939e+01	1.229385e+02
2.670000e-06	3.507590e-06	1.853646e-09	2.483148e+01	1.240225e+02
2.680000e-06	3.543085e-06	1.870255e-09	2.508276e+01	1.250782e+02
2.690000e-06	3.578343e-06	1.887438e-09	2.533237e+01	1.261059e+02
2.700000e-06	3.613176e-06	1.901741e-09	2.557896e+01	1.271060e+02
2.710000e-06	3.647607e-06	1.913338e-09	2.582271e+01	1.280787e+02
2.720000e-06	3.681565e-06	1.925480e-09	2.606311e+01	1.290239e+02
2.730000e-06	3.714883e-06	1.938776e-09	2.629898e+01	1.299414e+02
2.740000e-06	3.747768e-06	1.952211e-09	2.653178e+01	1.308311e+02
2.750000e-06	3.780429e-06	1.965805e-09	2.676301e+01	1.316927e+02
2.760000e-06	3.812827e-06	1.977895e-09	2.699237e+01	1.325259e+02
2.770000e-06	3.845035e-06	1.987934e-09	2.722038e+01	1.333304e+02
2.780000e-06	3.877099e-06	1.997729e-09	2.744736e+01	1.341060e+02
2.790000e-06	3.908983e-06	2.007368e-09	2.767309e+01	1.348525e+02
2.800000e-06	3.940705e-06	2.017922e-09	2.789766e+01	1.355698e+02
2.810000e-06	3.972238e-06	2.028718e-09	2.812089e+01	1.362580e+02
2.820000e-06	4.003491e-06	2.037794e-09	2.834214e+01	1.369171e+02
2.830000e-06	4.034352e-06	2.045841e-09	2.856062e+01	1.375475e+02
2.840000e-06	4.064901e-06	2.052535e-09	2.877688e+01	1.381495e+02
2.850000e-06	4.095211e-06	2.058509e-09	2.899146e+01	1.387238e+02
2.860000e-06	4.125173e-06	2.065576e-09	2.920357e+01	1.392711e+02
2.870000e-06	4.154898e-06	2.074636e-09	2.941401e+01	1.397923e+02
2.880000e-06	4.184418e-06	2.082977e-09	2.962299e+01	1.402883e+02
2.890000e-06	4.213616e-06	2.088407e-09	2.982969e+01	1.407603e+02
2.900000e-06	4.242520e-06	2.092675e-09	3.003432e+01	1.412095e+02
